Dec. 28, 2024   20:06:57
Linear Sweep Voltammetry
File: c:/users/guazh/data/banditlqround7_x0exp136_r20/2024-12-24-exp770\1acid_3ac-2024-12-28t20_03_43-lsvinphos\1acid_3ac_lsv_50mvs_efin_-2300mv.bin
Data Source:  Experiment
Instrument Model:  CHI760E
Header: LSV ran at 50 mVs with Efin at -2300mV
Note: 

Init E (V) = -0.6
Final E (V) = -2.3
Scan Rate (V/s) = 0.05
Sample Interval (V) = 0.001
Quiet Time (sec) = 2
Sensitivity (A/V) = 1e-4
Comp R (ohm) = 9.6

Results:

Channel 1:
Ep = -0.835V
ip = 8.058e-7A
Ah = 8.519e-7C

Ep = -1.785V
ip = 7.752e-4A
Ah = 9.986e-4C

Potential/V, Current/A

-0.600, 7.869e-6
-0.601, 8.042e-6
-0.602, 8.111e-6
-0.603, 8.159e-6
-0.604, 8.208e-6
-0.605, 8.253e-6
-0.606, 8.291e-6
-0.607, 8.324e-6
-0.608, 8.357e-6
-0.609, 8.394e-6
-0.610, 8.419e-6
-0.611, 8.455e-6
-0.612, 8.484e-6
-0.613, 8.518e-6
-0.614, 8.561e-6
-0.615, 8.610e-6
-0.616, 8.635e-6
-0.617, 8.667e-6
-0.618, 8.685e-6
-0.619, 8.731e-6
-0.620, 8.779e-6
-0.621, 8.806e-6
-0.622, 8.827e-6
-0.623, 8.853e-6
-0.624, 8.889e-6
-0.625, 8.926e-6
-0.626, 8.959e-6
-0.627, 9.001e-6
-0.628, 9.030e-6
-0.629, 9.068e-6
-0.630, 9.098e-6
-0.631, 9.130e-6
-0.632, 9.148e-6
-0.633, 9.187e-6
-0.634, 9.233e-6
-0.635, 9.282e-6
-0.636, 9.311e-6
-0.637, 9.326e-6
-0.638, 9.353e-6
-0.639, 9.377e-6
-0.640, 9.419e-6
-0.641, 9.448e-6
-0.642, 9.469e-6
-0.643, 9.508e-6
-0.644, 9.543e-6
-0.645, 9.573e-6
-0.646, 9.607e-6
-0.647, 9.631e-6
-0.648, 9.644e-6
-0.649, 9.675e-6
-0.650, 9.718e-6
-0.651, 9.752e-6
-0.652, 9.792e-6
-0.653, 9.838e-6
-0.654, 9.879e-6
-0.655, 9.919e-6
-0.656, 9.950e-6
-0.657, 9.975e-6
-0.658, 1.000e-5
-0.659, 1.002e-5
-0.660, 1.006e-5
-0.661, 1.010e-5
-0.662, 1.012e-5
-0.663, 1.015e-5
-0.664, 1.016e-5
-0.665, 1.021e-5
-0.666, 1.024e-5
-0.667, 1.027e-5
-0.668, 1.031e-5
-0.669, 1.034e-5
-0.670, 1.039e-5
-0.671, 1.042e-5
-0.672, 1.045e-5
-0.673, 1.048e-5
-0.674, 1.051e-5
-0.675, 1.057e-5
-0.676, 1.061e-5
-0.677, 1.087e-5
-0.678, 1.117e-5
-0.679, 1.130e-5
-0.680, 1.136e-5
-0.681, 1.143e-5
-0.682, 1.140e-5
-0.683, 1.139e-5
-0.684, 1.136e-5
-0.685, 1.136e-5
-0.686, 1.138e-5
-0.687, 1.137e-5
-0.688, 1.138e-5
-0.689, 1.135e-5
-0.690, 1.132e-5
-0.691, 1.134e-5
-0.692, 1.140e-5
-0.693, 1.141e-5
-0.694, 1.142e-5
-0.695, 1.142e-5
-0.696, 1.141e-5
-0.697, 1.140e-5
-0.698, 1.141e-5
-0.699, 1.142e-5
-0.700, 1.142e-5
-0.701, 1.141e-5
-0.702, 1.139e-5
-0.703, 1.139e-5
-0.704, 1.138e-5
-0.705, 1.141e-5
-0.706, 1.145e-5
-0.707, 1.144e-5
-0.708, 1.146e-5
-0.709, 1.149e-5
-0.710, 1.151e-5
-0.711, 1.149e-5
-0.712, 1.151e-5
-0.713, 1.152e-5
-0.714, 1.157e-5
-0.715, 1.158e-5
-0.716, 1.161e-5
-0.717, 1.163e-5
-0.718, 1.164e-5
-0.719, 1.167e-5
-0.720, 1.168e-5
-0.721, 1.170e-5
-0.722, 1.175e-5
-0.723, 1.175e-5
-0.724, 1.180e-5
-0.725, 1.178e-5
-0.726, 1.178e-5
-0.727, 1.179e-5
-0.728, 1.179e-5
-0.729, 1.181e-5
-0.730, 1.186e-5
-0.731, 1.187e-5
-0.732, 1.186e-5
-0.733, 1.187e-5
-0.734, 1.184e-5
-0.735, 1.184e-5
-0.736, 1.185e-5
-0.737, 1.186e-5
-0.738, 1.185e-5
-0.739, 1.190e-5
-0.740, 1.191e-5
-0.741, 1.194e-5
-0.742, 1.193e-5
-0.743, 1.190e-5
-0.744, 1.189e-5
-0.745, 1.190e-5
-0.746, 1.189e-5
-0.747, 1.189e-5
-0.748, 1.190e-5
-0.749, 1.193e-5
-0.750, 1.198e-5
-0.751, 1.198e-5
-0.752, 1.196e-5
-0.753, 1.197e-5
-0.754, 1.199e-5
-0.755, 1.200e-5
-0.756, 1.201e-5
-0.757, 1.202e-5
-0.758, 1.202e-5
-0.759, 1.203e-5
-0.760, 1.205e-5
-0.761, 1.207e-5
-0.762, 1.211e-5
-0.763, 1.205e-5
-0.764, 1.205e-5
-0.765, 1.205e-5
-0.766, 1.205e-5
-0.767, 1.204e-5
-0.768, 1.205e-5
-0.769, 1.206e-5
-0.770, 1.207e-5
-0.771, 1.210e-5
-0.772, 1.209e-5
-0.773, 1.207e-5
-0.774, 1.206e-5
-0.775, 1.213e-5
-0.776, 1.214e-5
-0.777, 1.212e-5
-0.778, 1.216e-5
-0.779, 1.222e-5
-0.780, 1.226e-5
-0.781, 1.229e-5
-0.782, 1.226e-5
-0.783, 1.225e-5
-0.784, 1.229e-5
-0.785, 1.231e-5
-0.786, 1.232e-5
-0.787, 1.233e-5
-0.788, 1.235e-5
-0.789, 1.236e-5
-0.790, 1.236e-5
-0.791, 1.236e-5
-0.792, 1.233e-5
-0.793, 1.235e-5
-0.794, 1.237e-5
-0.795, 1.241e-5
-0.796, 1.243e-5
-0.797, 1.242e-5
-0.798, 1.245e-5
-0.799, 1.246e-5
-0.800, 1.245e-5
-0.801, 1.246e-5
-0.802, 1.246e-5
-0.803, 1.243e-5
-0.804, 1.248e-5
-0.805, 1.249e-5
-0.806, 1.247e-5
-0.807, 1.247e-5
-0.808, 1.248e-5
-0.809, 1.251e-5
-0.810, 1.247e-5
-0.811, 1.245e-5
-0.812, 1.245e-5
-0.813, 1.247e-5
-0.814, 1.252e-5
-0.815, 1.255e-5
-0.816, 1.254e-5
-0.817, 1.250e-5
-0.818, 1.248e-5
-0.819, 1.250e-5
-0.820, 1.252e-5
-0.821, 1.253e-5
-0.822, 1.251e-5
-0.823, 1.252e-5
-0.824, 1.253e-5
-0.825, 1.254e-5
-0.826, 1.255e-5
-0.827, 1.254e-5
-0.828, 1.256e-5
-0.829, 1.258e-5
-0.830, 1.260e-5
-0.831, 1.261e-5
-0.832, 1.267e-5
-0.833, 1.267e-5
-0.834, 1.281e-5
-0.835, 1.296e-5
-0.836, 1.292e-5
-0.837, 1.289e-5
-0.838, 1.284e-5
-0.839, 1.281e-5
-0.840, 1.283e-5
-0.841, 1.279e-5
-0.842, 1.271e-5
-0.843, 1.263e-5
-0.844, 1.261e-5
-0.845, 1.262e-5
-0.846, 1.261e-5
-0.847, 1.257e-5
-0.848, 1.258e-5
-0.849, 1.264e-5
-0.850, 1.262e-5
-0.851, 1.261e-5
-0.852, 1.260e-5
-0.853, 1.259e-5
-0.854, 1.261e-5
-0.855, 1.263e-5
-0.856, 1.263e-5
-0.857, 1.262e-5
-0.858, 1.262e-5
-0.859, 1.265e-5
-0.860, 1.265e-5
-0.861, 1.264e-5
-0.862, 1.262e-5
-0.863, 1.261e-5
-0.864, 1.261e-5
-0.865, 1.260e-5
-0.866, 1.260e-5
-0.867, 1.257e-5
-0.868, 1.258e-5
-0.869, 1.260e-5
-0.870, 1.262e-5
-0.871, 1.263e-5
-0.872, 1.262e-5
-0.873, 1.259e-5
-0.874, 1.258e-5
-0.875, 1.258e-5
-0.876, 1.254e-5
-0.877, 1.253e-5
-0.878, 1.254e-5
-0.879, 1.251e-5
-0.880, 1.255e-5
-0.881, 1.255e-5
-0.882, 1.255e-5
-0.883, 1.256e-5
-0.884, 1.259e-5
-0.885, 1.258e-5
-0.886, 1.257e-5
-0.887, 1.256e-5
-0.888, 1.254e-5
-0.889, 1.251e-5
-0.890, 1.253e-5
-0.891, 1.250e-5
-0.892, 1.247e-5
-0.893, 1.246e-5
-0.894, 1.249e-5
-0.895, 1.250e-5
-0.896, 1.246e-5
-0.897, 1.242e-5
-0.898, 1.241e-5
-0.899, 1.249e-5
-0.900, 1.259e-5
-0.901, 1.261e-5
-0.902, 1.260e-5
-0.903, 1.257e-5
-0.904, 1.257e-5
-0.905, 1.258e-5
-0.906, 1.256e-5
-0.907, 1.253e-5
-0.908, 1.255e-5
-0.909, 1.261e-5
-0.910, 1.264e-5
-0.911, 1.264e-5
-0.912, 1.261e-5
-0.913, 1.260e-5
-0.914, 1.260e-5
-0.915, 1.264e-5
-0.916, 1.264e-5
-0.917, 1.262e-5
-0.918, 1.263e-5
-0.919, 1.262e-5
-0.920, 1.259e-5
-0.921, 1.262e-5
-0.922, 1.262e-5
-0.923, 1.258e-5
-0.924, 1.258e-5
-0.925, 1.256e-5
-0.926, 1.259e-5
-0.927, 1.257e-5
-0.928, 1.259e-5
-0.929, 1.259e-5
-0.930, 1.258e-5
-0.931, 1.255e-5
-0.932, 1.257e-5
-0.933, 1.256e-5
-0.934, 1.256e-5
-0.935, 1.256e-5
-0.936, 1.256e-5
-0.937, 1.258e-5
-0.938, 1.262e-5
-0.939, 1.260e-5
-0.940, 1.260e-5
-0.941, 1.261e-5
-0.942, 1.262e-5
-0.943, 1.262e-5
-0.944, 1.256e-5
-0.945, 1.260e-5
-0.946, 1.259e-5
-0.947, 1.257e-5
-0.948, 1.251e-5
-0.949, 1.254e-5
-0.950, 1.255e-5
-0.951, 1.251e-5
-0.952, 1.252e-5
-0.953, 1.249e-5
-0.954, 1.254e-5
-0.955, 1.257e-5
-0.956, 1.255e-5
-0.957, 1.255e-5
-0.958, 1.253e-5
-0.959, 1.251e-5
-0.960, 1.255e-5
-0.961, 1.255e-5
-0.962, 1.253e-5
-0.963, 1.251e-5
-0.964, 1.252e-5
-0.965, 1.254e-5
-0.966, 1.252e-5
-0.967, 1.248e-5
-0.968, 1.244e-5
-0.969, 1.251e-5
-0.970, 1.257e-5
-0.971, 1.254e-5
-0.972, 1.247e-5
-0.973, 1.246e-5
-0.974, 1.239e-5
-0.975, 1.242e-5
-0.976, 1.244e-5
-0.977, 1.245e-5
-0.978, 1.250e-5
-0.979, 1.253e-5
-0.980, 1.256e-5
-0.981, 1.260e-5
-0.982, 1.260e-5
-0.983, 1.263e-5
-0.984, 1.265e-5
-0.985, 1.268e-5
-0.986, 1.267e-5
-0.987, 1.265e-5
-0.988, 1.263e-5
-0.989, 1.265e-5
-0.990, 1.270e-5
-0.991, 1.271e-5
-0.992, 1.275e-5
-0.993, 1.280e-5
-0.994, 1.285e-5
-0.995, 1.287e-5
-0.996, 1.288e-5
-0.997, 1.284e-5
-0.998, 1.283e-5
-0.999, 1.282e-5
-1.000, 1.283e-5
-1.001, 1.285e-5
-1.002, 1.284e-5
-1.003, 1.285e-5
-1.004, 1.286e-5
-1.005, 1.292e-5
-1.006, 1.293e-5
-1.007, 1.294e-5
-1.008, 1.293e-5
-1.009, 1.292e-5
-1.010, 1.299e-5
-1.011, 1.298e-5
-1.012, 1.298e-5
-1.013, 1.296e-5
-1.014, 1.297e-5
-1.015, 1.300e-5
-1.016, 1.304e-5
-1.017, 1.303e-5
-1.018, 1.303e-5
-1.019, 1.300e-5
-1.020, 1.296e-5
-1.021, 1.294e-5
-1.022, 1.292e-5
-1.023, 1.295e-5
-1.024, 1.298e-5
-1.025, 1.296e-5
-1.026, 1.293e-5
-1.027, 1.295e-5
-1.028, 1.298e-5
-1.029, 1.303e-5
-1.030, 1.306e-5
-1.031, 1.316e-5
-1.032, 1.320e-5
-1.033, 1.313e-5
-1.034, 1.318e-5
-1.035, 1.327e-5
-1.036, 1.329e-5
-1.037, 1.326e-5
-1.038, 1.329e-5
-1.039, 1.333e-5
-1.040, 1.336e-5
-1.041, 1.344e-5
-1.042, 1.343e-5
-1.043, 1.344e-5
-1.044, 1.346e-5
-1.045, 1.353e-5
-1.046, 1.360e-5
-1.047, 1.364e-5
-1.048, 1.365e-5
-1.049, 1.374e-5
-1.050, 1.372e-5
-1.051, 1.375e-5
-1.052, 1.383e-5
-1.053, 1.385e-5
-1.054, 1.385e-5
-1.055, 1.387e-5
-1.056, 1.389e-5
-1.057, 1.389e-5
-1.058, 1.397e-5
-1.059, 1.404e-5
-1.060, 1.404e-5
-1.061, 1.403e-5
-1.062, 1.407e-5
-1.063, 1.408e-5
-1.064, 1.412e-5
-1.065, 1.411e-5
-1.066, 1.416e-5
-1.067, 1.418e-5
-1.068, 1.418e-5
-1.069, 1.428e-5
-1.070, 1.434e-5
-1.071, 1.432e-5
-1.072, 1.434e-5
-1.073, 1.452e-5
-1.074, 1.459e-5
-1.075, 1.463e-5
-1.076, 1.461e-5
-1.077, 1.464e-5
-1.078, 1.470e-5
-1.079, 1.473e-5
-1.080, 1.473e-5
-1.081, 1.478e-5
-1.082, 1.478e-5
-1.083, 1.484e-5
-1.084, 1.483e-5
-1.085, 1.484e-5
-1.086, 1.484e-5
-1.087, 1.487e-5
-1.088, 1.490e-5
-1.089, 1.499e-5
-1.090, 1.502e-5
-1.091, 1.507e-5
-1.092, 1.511e-5
-1.093, 1.515e-5
-1.094, 1.519e-5
-1.095, 1.523e-5
-1.096, 1.525e-5
-1.097, 1.534e-5
-1.098, 1.539e-5
-1.099, 1.541e-5
-1.100, 1.547e-5
-1.101, 1.548e-5
-1.102, 1.554e-5
-1.103, 1.560e-5
-1.104, 1.562e-5
-1.105, 1.564e-5
-1.106, 1.569e-5
-1.107, 1.579e-5
-1.108, 1.584e-5
-1.109, 1.590e-5
-1.110, 1.597e-5
-1.111, 1.599e-5
-1.112, 1.605e-5
-1.113, 1.612e-5
-1.114, 1.616e-5
-1.115, 1.618e-5
-1.116, 1.626e-5
-1.117, 1.633e-5
-1.118, 1.636e-5
-1.119, 1.642e-5
-1.120, 1.648e-5
-1.121, 1.654e-5
-1.122, 1.662e-5
-1.123, 1.669e-5
-1.124, 1.677e-5
-1.125, 1.686e-5
-1.126, 1.692e-5
-1.127, 1.704e-5
-1.128, 1.710e-5
-1.129, 1.716e-5
-1.130, 1.724e-5
-1.131, 1.735e-5
-1.132, 1.740e-5
-1.133, 1.741e-5
-1.134, 1.746e-5
-1.135, 1.752e-5
-1.136, 1.757e-5
-1.137, 1.772e-5
-1.138, 1.780e-5
-1.139, 1.780e-5
-1.140, 1.785e-5
-1.141, 1.790e-5
-1.142, 1.804e-5
-1.143, 1.815e-5
-1.144, 1.822e-5
-1.145, 1.826e-5
-1.146, 1.831e-5
-1.147, 1.835e-5
-1.148, 1.839e-5
-1.149, 1.847e-5
-1.150, 1.846e-5
-1.151, 1.844e-5
-1.152, 1.846e-5
-1.153, 1.849e-5
-1.154, 1.857e-5
-1.155, 1.863e-5
-1.156, 1.867e-5
-1.157, 1.871e-5
-1.158, 1.876e-5
-1.159, 1.880e-5
-1.160, 1.884e-5
-1.161, 1.889e-5
-1.162, 1.893e-5
-1.163, 1.897e-5
-1.164, 1.902e-5
-1.165, 1.907e-5
-1.166, 1.910e-5
-1.167, 1.912e-5
-1.168, 1.916e-5
-1.169, 1.920e-5
-1.170, 1.924e-5
-1.171, 1.928e-5
-1.172, 1.930e-5
-1.173, 1.933e-5
-1.174, 1.936e-5
-1.175, 1.939e-5
-1.176, 1.942e-5
-1.177, 1.944e-5
-1.178, 1.946e-5
-1.179, 1.948e-5
-1.180, 1.950e-5
-1.181, 1.952e-5
-1.182, 1.954e-5
-1.183, 1.957e-5
-1.184, 1.959e-5
-1.185, 1.964e-5
-1.186, 1.972e-5
-1.187, 1.975e-5
-1.188, 1.977e-5
-1.189, 1.982e-5
-1.190, 1.984e-5
-1.191, 1.986e-5
-1.192, 1.989e-5
-1.193, 1.991e-5
-1.194, 1.994e-5
-1.195, 1.999e-5
-1.196, 2.000e-5
-1.197, 2.002e-5
-1.198, 2.003e-5
-1.199, 2.006e-5
-1.200, 2.010e-5
-1.201, 2.012e-5
-1.202, 2.012e-5
-1.203, 2.012e-5
-1.204, 2.013e-5
-1.205, 2.015e-5
-1.206, 2.015e-5
-1.207, 2.015e-5
-1.208, 2.016e-5
-1.209, 2.019e-5
-1.210, 2.019e-5
-1.211, 2.021e-5
-1.212, 2.021e-5
-1.213, 2.021e-5
-1.214, 2.023e-5
-1.215, 2.025e-5
-1.216, 2.027e-5
-1.217, 2.025e-5
-1.218, 2.026e-5
-1.219, 2.029e-5
-1.220, 2.031e-5
-1.221, 2.032e-5
-1.222, 2.033e-5
-1.223, 2.036e-5
-1.224, 2.039e-5
-1.225, 2.045e-5
-1.226, 2.051e-5
-1.227, 2.054e-5
-1.228, 2.055e-5
-1.229, 2.059e-5
-1.230, 2.064e-5
-1.231, 2.069e-5
-1.232, 2.071e-5
-1.233, 2.071e-5
-1.234, 2.072e-5
-1.235, 2.076e-5
-1.236, 2.079e-5
-1.237, 2.079e-5
-1.238, 2.081e-5
-1.239, 2.084e-5
-1.240, 2.089e-5
-1.241, 2.092e-5
-1.242, 2.094e-5
-1.243, 2.096e-5
-1.244, 2.100e-5
-1.245, 2.103e-5
-1.246, 2.105e-5
-1.247, 2.108e-5
-1.248, 2.109e-5
-1.249, 2.113e-5
-1.250, 2.116e-5
-1.251, 2.117e-5
-1.252, 2.118e-5
-1.253, 2.121e-5
-1.254, 2.126e-5
-1.255, 2.130e-5
-1.256, 2.131e-5
-1.257, 2.132e-5
-1.258, 2.135e-5
-1.259, 2.140e-5
-1.260, 2.145e-5
-1.261, 2.149e-5
-1.262, 2.153e-5
-1.263, 2.158e-5
-1.264, 2.164e-5
-1.265, 2.168e-5
-1.266, 2.171e-5
-1.267, 2.175e-5
-1.268, 2.177e-5
-1.269, 2.186e-5
-1.270, 2.190e-5
-1.271, 2.192e-5
-1.272, 2.194e-5
-1.273, 2.196e-5
-1.274, 2.199e-5
-1.275, 2.204e-5
-1.276, 2.208e-5
-1.277, 2.211e-5
-1.278, 2.215e-5
-1.279, 2.220e-5
-1.280, 2.227e-5
-1.281, 2.230e-5
-1.282, 2.232e-5
-1.283, 2.236e-5
-1.284, 2.243e-5
-1.285, 2.249e-5
-1.286, 2.254e-5
-1.287, 2.257e-5
-1.288, 2.264e-5
-1.289, 2.271e-5
-1.290, 2.279e-5
-1.291, 2.282e-5
-1.292, 2.283e-5
-1.293, 2.293e-5
-1.294, 2.317e-5
-1.295, 2.323e-5
-1.296, 2.324e-5
-1.297, 2.332e-5
-1.298, 2.339e-5
-1.299, 2.345e-5
-1.300, 2.359e-5
-1.301, 2.371e-5
-1.302, 2.372e-5
-1.303, 2.371e-5
-1.304, 2.377e-5
-1.305, 2.385e-5
-1.306, 2.389e-5
-1.307, 2.393e-5
-1.308, 2.397e-5
-1.309, 2.400e-5
-1.310, 2.406e-5
-1.311, 2.410e-5
-1.312, 2.413e-5
-1.313, 2.417e-5
-1.314, 2.423e-5
-1.315, 2.429e-5
-1.316, 2.432e-5
-1.317, 2.436e-5
-1.318, 2.444e-5
-1.319, 2.451e-5
-1.320, 2.465e-5
-1.321, 2.514e-5
-1.322, 2.542e-5
-1.323, 2.545e-5
-1.324, 2.544e-5
-1.325, 2.543e-5
-1.326, 2.539e-5
-1.327, 2.540e-5
-1.328, 2.544e-5
-1.329, 2.546e-5
-1.330, 2.546e-5
-1.331, 2.547e-5
-1.332, 2.549e-5
-1.333, 2.553e-5
-1.334, 2.560e-5
-1.335, 2.569e-5
-1.336, 2.576e-5
-1.337, 2.573e-5
-1.338, 2.574e-5
-1.339, 2.576e-5
-1.340, 2.582e-5
-1.341, 2.589e-5
-1.342, 2.592e-5
-1.343, 2.596e-5
-1.344, 2.604e-5
-1.345, 2.614e-5
-1.346, 2.619e-5
-1.347, 2.623e-5
-1.348, 2.629e-5
-1.349, 2.634e-5
-1.350, 2.640e-5
-1.351, 2.646e-5
-1.352, 2.658e-5
-1.353, 2.665e-5
-1.354, 2.670e-5
-1.355, 2.678e-5
-1.356, 2.688e-5
-1.357, 2.698e-5
-1.358, 2.707e-5
-1.359, 2.718e-5
-1.360, 2.732e-5
-1.361, 2.734e-5
-1.362, 2.732e-5
-1.363, 2.745e-5
-1.364, 2.764e-5
-1.365, 2.765e-5
-1.366, 2.769e-5
-1.367, 2.775e-5
-1.368, 2.780e-5
-1.369, 2.795e-5
-1.370, 2.802e-5
-1.371, 2.802e-5
-1.372, 2.808e-5
-1.373, 2.817e-5
-1.374, 2.823e-5
-1.375, 2.830e-5
-1.376, 2.839e-5
-1.377, 2.847e-5
-1.378, 2.856e-5
-1.379, 2.868e-5
-1.380, 2.878e-5
-1.381, 2.887e-5
-1.382, 2.897e-5
-1.383, 2.907e-5
-1.384, 2.917e-5
-1.385, 2.929e-5
-1.386, 2.942e-5
-1.387, 2.950e-5
-1.388, 2.957e-5
-1.389, 2.967e-5
-1.390, 2.977e-5
-1.391, 2.986e-5
-1.392, 2.996e-5
-1.393, 3.006e-5
-1.394, 3.078e-5
-1.395, 3.101e-5
-1.396, 3.083e-5
-1.397, 3.088e-5
-1.398, 3.088e-5
-1.399, 3.093e-5
-1.400, 3.102e-5
-1.401, 3.111e-5
-1.402, 3.123e-5
-1.403, 3.134e-5
-1.404, 3.148e-5
-1.405, 3.165e-5
-1.406, 3.177e-5
-1.407, 3.189e-5
-1.408, 3.200e-5
-1.409, 3.209e-5
-1.410, 3.227e-5
-1.411, 3.262e-5
-1.412, 3.459e-5
-1.413, 3.790e-5
-1.414, 3.836e-5
-1.415, 3.743e-5
-1.416, 3.646e-5
-1.417, 3.561e-5
-1.418, 3.510e-5
-1.419, 3.512e-5
-1.420, 3.545e-5
-1.421, 3.578e-5
-1.422, 3.607e-5
-1.423, 3.629e-5
-1.424, 3.650e-5
-1.425, 3.665e-5
-1.426, 3.672e-5
-1.427, 3.673e-5
-1.428, 3.674e-5
-1.429, 3.676e-5
-1.430, 3.678e-5
-1.431, 3.685e-5
-1.432, 3.702e-5
-1.433, 3.715e-5
-1.434, 3.726e-5
-1.435, 3.737e-5
-1.436, 3.751e-5
-1.437, 3.773e-5
-1.438, 3.792e-5
-1.439, 3.814e-5
-1.440, 3.831e-5
-1.441, 3.842e-5
-1.442, 3.854e-5
-1.443, 3.871e-5
-1.444, 3.891e-5
-1.445, 3.910e-5
-1.446, 3.934e-5
-1.447, 3.965e-5
-1.448, 3.987e-5
-1.449, 4.008e-5
-1.450, 4.025e-5
-1.451, 4.039e-5
-1.452, 4.058e-5
-1.453, 4.083e-5
-1.454, 4.108e-5
-1.455, 4.130e-5
-1.456, 4.147e-5
-1.457, 4.160e-5
-1.458, 4.174e-5
-1.459, 4.195e-5
-1.460, 4.215e-5
-1.461, 4.241e-5
-1.462, 4.262e-5
-1.463, 4.292e-5
-1.464, 4.322e-5
-1.465, 4.353e-5
-1.466, 4.379e-5
-1.467, 4.397e-5
-1.468, 4.432e-5
-1.469, 4.456e-5
-1.470, 4.478e-5
-1.471, 4.509e-5
-1.472, 4.538e-5
-1.473, 4.564e-5
-1.474, 4.595e-5
-1.475, 4.637e-5
-1.476, 4.667e-5
-1.477, 4.693e-5
-1.478, 4.735e-5
-1.479, 4.763e-5
-1.480, 4.783e-5
-1.481, 4.805e-5
-1.482, 4.836e-5
-1.483, 4.867e-5
-1.484, 4.899e-5
-1.485, 4.946e-5
-1.486, 4.978e-5
-1.487, 5.008e-5
-1.488, 5.038e-5
-1.489, 5.143e-5
-1.490, 5.193e-5
-1.491, 5.164e-5
-1.492, 5.181e-5
-1.493, 5.207e-5
-1.494, 5.218e-5
-1.495, 5.256e-5
-1.496, 5.297e-5
-1.497, 5.326e-5
-1.498, 5.354e-5
-1.499, 5.383e-5
-1.500, 5.422e-5
-1.501, 5.453e-5
-1.502, 5.498e-5
-1.503, 5.544e-5
-1.504, 5.586e-5
-1.505, 5.626e-5
-1.506, 5.676e-5
-1.507, 5.727e-5
-1.508, 5.769e-5
-1.509, 5.826e-5
-1.510, 5.875e-5
-1.511, 5.908e-5
-1.512, 5.938e-5
-1.513, 5.977e-5
-1.514, 6.018e-5
-1.515, 6.066e-5
-1.516, 6.103e-5
-1.517, 6.141e-5
-1.518, 6.179e-5
-1.519, 6.225e-5
-1.520, 6.266e-5
-1.521, 6.310e-5
-1.522, 6.356e-5
-1.523, 6.388e-5
-1.524, 6.430e-5
-1.525, 6.476e-5
-1.526, 6.523e-5
-1.527, 6.568e-5
-1.528, 6.617e-5
-1.529, 6.673e-5
-1.530, 6.729e-5
-1.531, 6.776e-5
-1.532, 6.825e-5
-1.533, 6.880e-5
-1.534, 6.938e-5
-1.535, 7.005e-5
-1.536, 7.064e-5
-1.537, 7.127e-5
-1.538, 7.198e-5
-1.539, 7.263e-5
-1.540, 7.322e-5
-1.541, 7.379e-5
-1.542, 7.447e-5
-1.543, 7.502e-5
-1.544, 7.558e-5
-1.545, 7.619e-5
-1.546, 7.673e-5
-1.547, 7.710e-5
-1.548, 7.764e-5
-1.549, 7.822e-5
-1.550, 7.881e-5
-1.551, 7.952e-5
-1.552, 8.030e-5
-1.553, 8.108e-5
-1.554, 8.191e-5
-1.555, 8.249e-5
-1.556, 8.309e-5
-1.557, 8.383e-5
-1.558, 8.446e-5
-1.559, 8.504e-5
-1.560, 8.577e-5
-1.561, 8.659e-5
-1.562, 8.722e-5
-1.563, 8.791e-5
-1.564, 8.866e-5
-1.565, 8.941e-5
-1.566, 9.013e-5
-1.567, 9.081e-5
-1.568, 9.158e-5
-1.569, 9.250e-5
-1.570, 9.320e-5
-1.571, 9.410e-5
-1.572, 9.493e-5
-1.573, 9.574e-5
-1.574, 9.653e-5
-1.575, 9.740e-5
-1.576, 9.838e-5
-1.577, 9.930e-5
-1.578, 1.001e-4
-1.579, 1.011e-4
-1.580, 1.020e-4
-1.581, 1.029e-4
-1.582, 1.038e-4
-1.583, 1.046e-4
-1.584, 1.054e-4
-1.585, 1.064e-4
-1.586, 1.073e-4
-1.587, 1.082e-4
-1.588, 1.093e-4
-1.589, 1.104e-4
-1.590, 1.113e-4
-1.591, 1.122e-4
-1.592, 1.133e-4
-1.593, 1.143e-4
-1.594, 1.154e-4
-1.595, 1.166e-4
-1.596, 1.175e-4
-1.597, 1.185e-4
-1.598, 1.198e-4
-1.599, 1.210e-4
-1.600, 1.223e-4
-1.601, 1.235e-4
-1.602, 1.248e-4
-1.603, 1.261e-4
-1.604, 1.278e-4
-1.605, 1.291e-4
-1.606, 1.306e-4
-1.607, 1.320e-4
-1.608, 1.333e-4
-1.609, 1.348e-4
-1.610, 1.363e-4
-1.611, 1.375e-4
-1.612, 1.388e-4
-1.613, 1.402e-4
-1.614, 1.417e-4
-1.615, 1.432e-4
-1.616, 1.449e-4
-1.617, 1.463e-4
-1.618, 1.476e-4
-1.619, 1.491e-4
-1.620, 1.507e-4
-1.621, 1.523e-4
-1.622, 1.539e-4
-1.623, 1.556e-4
-1.624, 1.576e-4
-1.625, 1.593e-4
-1.626, 1.610e-4
-1.627, 1.628e-4
-1.628, 1.648e-4
-1.629, 1.672e-4
-1.630, 1.687e-4
-1.631, 1.702e-4
-1.632, 1.723e-4
-1.633, 1.745e-4
-1.634, 1.765e-4
-1.635, 1.787e-4
-1.636, 1.809e-4
-1.637, 1.830e-4
-1.638, 1.855e-4
-1.639, 1.882e-4
-1.640, 1.904e-4
-1.641, 1.928e-4
-1.642, 1.954e-4
-1.643, 1.977e-4
-1.644, 2.001e-4
-1.645, 2.026e-4
-1.646, 2.053e-4
-1.647, 2.087e-4
-1.648, 2.115e-4
-1.649, 2.142e-4
-1.650, 2.169e-4
-1.651, 2.195e-4
-1.652, 2.221e-4
-1.653, 2.248e-4
-1.654, 2.280e-4
-1.655, 2.310e-4
-1.656, 2.336e-4
-1.657, 2.365e-4
-1.658, 2.399e-4
-1.659, 2.434e-4
-1.660, 2.467e-4
-1.661, 2.501e-4
-1.662, 2.531e-4
-1.663, 2.564e-4
-1.664, 2.597e-4
-1.665, 2.631e-4
-1.666, 2.666e-4
-1.667, 2.699e-4
-1.668, 2.729e-4
-1.669, 2.757e-4
-1.670, 2.788e-4
-1.671, 2.824e-4
-1.672, 2.862e-4
-1.673, 2.898e-4
-1.674, 2.936e-4
-1.675, 2.972e-4
-1.676, 3.007e-4
-1.677, 3.040e-4
-1.678, 3.079e-4
-1.679, 3.120e-4
-1.680, 3.161e-4
-1.681, 3.201e-4
-1.682, 3.243e-4
-1.683, 3.285e-4
-1.684, 3.328e-4
-1.685, 3.368e-4
-1.686, 3.412e-4
-1.687, 3.455e-4
-1.688, 3.498e-4
-1.689, 3.543e-4
-1.690, 3.588e-4
-1.691, 3.633e-4
-1.692, 3.679e-4
-1.693, 3.727e-4
-1.694, 3.780e-4
-1.695, 3.839e-4
-1.696, 3.893e-4
-1.697, 3.937e-4
-1.698, 3.978e-4
-1.699, 4.026e-4
-1.700, 4.074e-4
-1.701, 4.124e-4
-1.702, 4.178e-4
-1.703, 4.233e-4
-1.704, 4.287e-4
-1.705, 4.339e-4
-1.706, 4.390e-4
-1.707, 4.444e-4
-1.708, 4.502e-4
-1.709, 4.561e-4
-1.710, 4.617e-4
-1.711, 4.675e-4
-1.712, 4.732e-4
-1.713, 4.790e-4
-1.714, 4.847e-4
-1.715, 4.908e-4
-1.716, 4.972e-4
-1.717, 5.036e-4
-1.718, 5.099e-4
-1.719, 5.161e-4
-1.720, 5.221e-4
-1.721, 5.280e-4
-1.722, 5.342e-4
-1.723, 5.402e-4
-1.724, 5.462e-4
-1.725, 5.526e-4
-1.726, 5.591e-4
-1.727, 5.656e-4
-1.728, 5.723e-4
-1.729, 5.789e-4
-1.730, 5.856e-4
-1.731, 5.922e-4
-1.732, 5.990e-4
-1.733, 6.058e-4
-1.734, 6.128e-4
-1.735, 6.199e-4
-1.736, 6.269e-4
-1.737, 6.343e-4
-1.738, 6.409e-4
-1.739, 6.471e-4
-1.740, 6.539e-4
-1.741, 6.608e-4
-1.742, 6.678e-4
-1.743, 6.750e-4
-1.744, 6.822e-4
-1.745, 6.896e-4
-1.746, 6.971e-4
-1.747, 7.045e-4
-1.748, 7.119e-4
-1.749, 7.197e-4
-1.750, 7.273e-4
-1.751, 7.350e-4
-1.752, 7.425e-4
-1.753, 7.502e-4
-1.754, 7.582e-4
-1.755, 7.664e-4
-1.756, 7.745e-4
-1.757, 7.827e-4
-1.758, 7.914e-4
-1.759, 7.999e-4
-1.760, 8.077e-4
-1.761, 8.157e-4
-1.762, 8.235e-4
-1.763, 8.317e-4
-1.764, 8.399e-4
-1.765, 8.482e-4
-1.766, 8.565e-4
-1.767, 8.648e-4
-1.768, 8.731e-4
-1.769, 8.816e-4
-1.770, 8.903e-4
-1.771, 8.989e-4
-1.772, 9.076e-4
-1.773, 9.164e-4
-1.774, 9.252e-4
-1.775, 9.339e-4
-1.776, 9.426e-4
-1.777, 9.512e-4
-1.778, 9.598e-4
-1.779, 9.685e-4
-1.780, 9.773e-4
-1.781, 9.863e-4
-1.782, 9.952e-4
-1.783, 1.004e-3
-1.784, 1.011e-3
-1.785, 1.011e-3
-1.786, 1.011e-3
-1.787, 1.011e-3
-1.788, 1.011e-3
-1.789, 1.011e-3
-1.790, 1.011e-3
-1.791, 1.011e-3
-1.792, 1.011e-3
-1.793, 1.011e-3
-1.794, 1.011e-3
-1.795, 1.011e-3
-1.796, 1.011e-3
-1.797, 1.011e-3
-1.798, 1.011e-3
-1.799, 1.011e-3
-1.800, 1.011e-3
-1.801, 1.011e-3
-1.802, 1.011e-3
-1.803, 1.011e-3
-1.804, 1.011e-3
-1.805, 1.011e-3
-1.806, 1.011e-3
-1.807, 1.011e-3
-1.808, 1.011e-3
-1.809, 1.011e-3
-1.810, 1.011e-3
-1.811, 1.011e-3
-1.812, 1.011e-3
-1.813, 1.011e-3
-1.814, 1.011e-3
-1.815, 1.011e-3
-1.816, 1.011e-3
-1.817, 1.011e-3
-1.818, 1.011e-3
-1.819, 1.011e-3
-1.820, 1.011e-3
-1.821, 1.011e-3
-1.822, 1.011e-3
-1.823, 1.011e-3
-1.824, 1.011e-3
-1.825, 1.011e-3
-1.826, 1.011e-3
-1.827, 1.011e-3
-1.828, 1.011e-3
-1.829, 1.011e-3
-1.830, 1.011e-3
-1.831, 1.011e-3
-1.832, 1.011e-3
-1.833, 1.011e-3
-1.834, 1.011e-3
-1.835, 1.011e-3
-1.836, 1.011e-3
-1.837, 1.011e-3
-1.838, 1.011e-3
-1.839, 1.011e-3
-1.840, 1.011e-3
-1.841, 1.011e-3
-1.842, 1.011e-3
-1.843, 1.011e-3
-1.844, 1.011e-3
-1.845, 1.011e-3
-1.846, 1.011e-3
-1.847, 1.011e-3
-1.848, 1.011e-3
-1.849, 1.011e-3
-1.850, 1.011e-3
-1.851, 1.011e-3
-1.852, 1.011e-3
-1.853, 1.011e-3
-1.854, 1.011e-3
-1.855, 1.011e-3
-1.856, 1.011e-3
-1.857, 1.011e-3
-1.858, 1.011e-3
-1.859, 1.011e-3
-1.860, 1.011e-3
-1.861, 1.011e-3
-1.862, 1.011e-3
-1.863, 1.011e-3
-1.864, 1.011e-3
-1.865, 1.011e-3
-1.866, 1.011e-3
-1.867, 1.011e-3
-1.868, 1.011e-3
-1.869, 1.011e-3
-1.870, 1.011e-3
-1.871, 1.011e-3
-1.872, 1.011e-3
-1.873, 1.011e-3
-1.874, 1.011e-3
-1.875, 1.011e-3
-1.876, 1.011e-3
-1.877, 1.011e-3
-1.878, 1.011e-3
-1.879, 1.011e-3
-1.880, 1.011e-3
-1.881, 1.011e-3
-1.882, 1.011e-3
-1.883, 1.011e-3
-1.884, 1.011e-3
-1.885, 1.011e-3
-1.886, 1.011e-3
-1.887, 1.011e-3
-1.888, 1.011e-3
-1.889, 1.011e-3
-1.890, 1.011e-3
-1.891, 1.011e-3
-1.892, 1.011e-3
-1.893, 1.011e-3
-1.894, 1.011e-3
-1.895, 1.011e-3
-1.896, 1.011e-3
-1.897, 1.011e-3
-1.898, 1.011e-3
-1.899, 1.011e-3
-1.900, 1.011e-3
-1.901, 1.011e-3
-1.902, 1.011e-3
-1.903, 1.011e-3
-1.904, 1.011e-3
-1.905, 1.011e-3
-1.906, 1.011e-3
-1.907, 1.011e-3
-1.908, 1.011e-3
-1.909, 1.011e-3
-1.910, 1.011e-3
-1.911, 1.011e-3
-1.912, 1.011e-3
-1.913, 1.011e-3
-1.914, 1.011e-3
-1.915, 1.011e-3
-1.916, 1.011e-3
-1.917, 1.011e-3
-1.918, 1.011e-3
-1.919, 1.011e-3
-1.920, 1.011e-3
-1.921, 1.011e-3
-1.922, 1.011e-3
-1.923, 1.011e-3
-1.924, 1.011e-3
-1.925, 1.011e-3
-1.926, 1.011e-3
-1.927, 1.011e-3
-1.928, 1.011e-3
-1.929, 1.011e-3
-1.930, 1.011e-3
-1.931, 1.011e-3
-1.932, 1.011e-3
-1.933, 1.011e-3
-1.934, 1.011e-3
-1.935, 1.011e-3
-1.936, 1.011e-3
-1.937, 1.011e-3
-1.938, 1.011e-3
-1.939, 1.011e-3
-1.940, 1.011e-3
-1.941, 1.011e-3
-1.942, 1.011e-3
-1.943, 1.011e-3
-1.944, 1.011e-3
-1.945, 1.011e-3
-1.946, 1.011e-3
-1.947, 1.011e-3
-1.948, 1.011e-3
-1.949, 1.011e-3
-1.950, 1.011e-3
-1.951, 1.011e-3
-1.952, 1.011e-3
-1.953, 1.011e-3
-1.954, 1.011e-3
-1.955, 1.011e-3
-1.956, 1.011e-3
-1.957, 1.011e-3
-1.958, 1.011e-3
-1.959, 1.011e-3
-1.960, 1.011e-3
-1.961, 1.011e-3
-1.962, 1.011e-3
-1.963, 1.011e-3
-1.964, 1.011e-3
-1.965, 1.011e-3
-1.966, 1.011e-3
-1.967, 1.011e-3
-1.968, 1.011e-3
-1.969, 1.011e-3
-1.970, 1.011e-3
-1.971, 1.011e-3
-1.972, 1.011e-3
-1.973, 1.011e-3
-1.974, 1.011e-3
-1.975, 1.011e-3
-1.976, 1.011e-3
-1.977, 1.011e-3
-1.978, 1.011e-3
-1.979, 1.011e-3
-1.980, 1.011e-3
-1.981, 1.011e-3
-1.982, 1.011e-3
-1.983, 1.011e-3
-1.984, 1.011e-3
-1.985, 1.011e-3
-1.986, 1.011e-3
-1.987, 1.011e-3
-1.988, 1.011e-3
-1.989, 1.011e-3
-1.990, 1.011e-3
-1.991, 1.011e-3
-1.992, 1.011e-3
-1.993, 1.011e-3
-1.994, 1.011e-3
-1.995, 1.011e-3
-1.996, 1.011e-3
-1.997, 1.011e-3
-1.998, 1.011e-3
-1.999, 1.011e-3
-2.000, 1.011e-3
-2.001, 1.011e-3
-2.002, 1.011e-3
-2.003, 1.011e-3
-2.004, 1.011e-3
-2.005, 1.011e-3
-2.006, 1.011e-3
-2.007, 1.011e-3
-2.008, 1.011e-3
-2.009, 1.011e-3
-2.010, 1.011e-3
-2.011, 1.011e-3
-2.012, 1.011e-3
-2.013, 1.011e-3
-2.014, 1.011e-3
-2.015, 1.011e-3
-2.016, 1.011e-3
-2.017, 1.011e-3
-2.018, 1.011e-3
-2.019, 1.011e-3
-2.020, 1.011e-3
-2.021, 1.011e-3
-2.022, 1.011e-3
-2.023, 1.011e-3
-2.024, 1.011e-3
-2.025, 1.011e-3
-2.026, 1.011e-3
-2.027, 1.011e-3
-2.028, 1.011e-3
-2.029, 1.011e-3
-2.030, 1.011e-3
-2.031, 1.011e-3
-2.032, 1.011e-3
-2.033, 1.011e-3
-2.034, 1.011e-3
-2.035, 1.011e-3
-2.036, 1.011e-3
-2.037, 1.011e-3
-2.038, 1.011e-3
-2.039, 1.011e-3
-2.040, 1.011e-3
-2.041, 1.011e-3
-2.042, 1.011e-3
-2.043, 1.011e-3
-2.044, 1.011e-3
-2.045, 1.011e-3
-2.046, 1.011e-3
-2.047, 1.011e-3
-2.048, 1.011e-3
-2.049, 1.011e-3
-2.050, 1.011e-3
-2.051, 1.011e-3
-2.052, 1.011e-3
-2.053, 1.011e-3
-2.054, 1.011e-3
-2.055, 1.011e-3
-2.056, 1.011e-3
-2.057, 1.011e-3
-2.058, 1.011e-3
-2.059, 1.011e-3
-2.060, 1.011e-3
-2.061, 1.011e-3
-2.062, 1.011e-3
-2.063, 1.011e-3
-2.064, 1.011e-3
-2.065, 1.011e-3
-2.066, 1.011e-3
-2.067, 1.011e-3
-2.068, 1.011e-3
-2.069, 1.011e-3
-2.070, 1.011e-3
-2.071, 1.011e-3
-2.072, 1.011e-3
-2.073, 1.011e-3
-2.074, 1.011e-3
-2.075, 1.011e-3
-2.076, 1.011e-3
-2.077, 1.011e-3
-2.078, 1.011e-3
-2.079, 1.011e-3
-2.080, 1.011e-3
-2.081, 1.011e-3
-2.082, 1.011e-3
-2.083, 1.011e-3
-2.084, 1.011e-3
-2.085, 1.011e-3
-2.086, 1.011e-3
-2.087, 1.011e-3
-2.088, 1.011e-3
-2.089, 1.011e-3
-2.090, 1.011e-3
-2.091, 1.011e-3
-2.092, 1.011e-3
-2.093, 1.011e-3
-2.094, 1.011e-3
-2.095, 1.011e-3
-2.096, 1.011e-3
-2.097, 1.011e-3
-2.098, 1.011e-3
-2.099, 1.011e-3
-2.100, 1.011e-3
-2.101, 1.011e-3
-2.102, 1.011e-3
-2.103, 1.011e-3
-2.104, 1.011e-3
-2.105, 1.011e-3
-2.106, 1.011e-3
-2.107, 1.011e-3
-2.108, 1.011e-3
-2.109, 1.011e-3
-2.110, 1.011e-3
-2.111, 1.011e-3
-2.112, 1.011e-3
-2.113, 1.011e-3
-2.114, 1.011e-3
-2.115, 1.011e-3
-2.116, 1.011e-3
-2.117, 1.011e-3
-2.118, 1.011e-3
-2.119, 1.011e-3
-2.120, 1.011e-3
-2.121, 1.011e-3
-2.122, 1.011e-3
-2.123, 1.011e-3
-2.124, 1.011e-3
-2.125, 1.011e-3
-2.126, 1.011e-3
-2.127, 1.011e-3
-2.128, 1.011e-3
-2.129, 1.011e-3
-2.130, 1.011e-3
-2.131, 1.011e-3
-2.132, 1.011e-3
-2.133, 1.011e-3
-2.134, 1.011e-3
-2.135, 1.011e-3
-2.136, 1.011e-3
-2.137, 1.011e-3
-2.138, 1.011e-3
-2.139, 1.011e-3
-2.140, 1.011e-3
-2.141, 1.011e-3
-2.142, 1.011e-3
-2.143, 1.011e-3
-2.144, 1.011e-3
-2.145, 1.011e-3
-2.146, 1.011e-3
-2.147, 1.011e-3
-2.148, 1.011e-3
-2.149, 1.011e-3
-2.150, 1.011e-3
-2.151, 1.011e-3
-2.152, 1.011e-3
-2.153, 1.011e-3
-2.154, 1.011e-3
-2.155, 1.011e-3
-2.156, 1.011e-3
-2.157, 1.011e-3
-2.158, 1.011e-3
-2.159, 1.011e-3
-2.160, 1.011e-3
-2.161, 1.011e-3
-2.162, 1.011e-3
-2.163, 1.011e-3
-2.164, 1.011e-3
-2.165, 1.011e-3
-2.166, 1.011e-3
-2.167, 1.011e-3
-2.168, 1.011e-3
-2.169, 1.011e-3
-2.170, 1.011e-3
-2.171, 1.011e-3
-2.172, 1.011e-3
-2.173, 1.011e-3
-2.174, 1.011e-3
-2.175, 1.011e-3
-2.176, 1.011e-3
-2.177, 1.011e-3
-2.178, 1.011e-3
-2.179, 1.011e-3
-2.180, 1.011e-3
-2.181, 1.011e-3
-2.182, 1.011e-3
-2.183, 1.011e-3
-2.184, 1.011e-3
-2.185, 1.011e-3
-2.186, 1.011e-3
-2.187, 1.011e-3
-2.188, 1.011e-3
-2.189, 1.011e-3
-2.190, 1.011e-3
-2.191, 1.011e-3
-2.192, 1.011e-3
-2.193, 1.011e-3
-2.194, 1.011e-3
-2.195, 1.011e-3
-2.196, 1.011e-3
-2.197, 1.011e-3
-2.198, 1.011e-3
-2.199, 1.011e-3
-2.200, 1.011e-3
-2.201, 1.011e-3
-2.202, 1.011e-3
-2.203, 1.011e-3
-2.204, 1.011e-3
-2.205, 1.011e-3
-2.206, 1.011e-3
-2.207, 1.011e-3
-2.208, 1.011e-3
-2.209, 1.011e-3
-2.210, 1.011e-3
-2.211, 1.011e-3
-2.212, 1.011e-3
-2.213, 1.011e-3
-2.214, 1.011e-3
-2.215, 1.011e-3
-2.216, 1.011e-3
-2.217, 1.011e-3
-2.218, 1.011e-3
-2.219, 1.011e-3
-2.220, 1.011e-3
-2.221, 1.011e-3
-2.222, 1.011e-3
-2.223, 1.011e-3
-2.224, 1.011e-3
-2.225, 1.011e-3
-2.226, 1.011e-3
-2.227, 1.011e-3
-2.228, 1.011e-3
-2.229, 1.011e-3
-2.230, 1.011e-3
-2.231, 1.011e-3
-2.232, 1.011e-3
-2.233, 1.011e-3
-2.234, 1.011e-3
-2.235, 1.011e-3
-2.236, 1.011e-3
-2.237, 1.011e-3
-2.238, 1.011e-3
-2.239, 1.011e-3
-2.240, 1.011e-3
-2.241, 1.011e-3
-2.242, 1.011e-3
-2.243, 1.011e-3
-2.244, 1.011e-3
-2.245, 1.011e-3
-2.246, 1.011e-3
-2.247, 1.011e-3
-2.248, 1.011e-3
-2.249, 1.011e-3
-2.250, 1.011e-3
-2.251, 1.011e-3
-2.252, 1.011e-3
-2.253, 1.011e-3
-2.254, 1.011e-3
-2.255, 1.011e-3
-2.256, 1.011e-3
-2.257, 1.011e-3
-2.258, 1.011e-3
-2.259, 1.011e-3
-2.260, 1.011e-3
-2.261, 1.011e-3
-2.262, 1.011e-3
-2.263, 1.011e-3
-2.264, 1.011e-3
-2.265, 1.011e-3
-2.266, 1.011e-3
-2.267, 1.011e-3
-2.268, 1.011e-3
-2.269, 1.011e-3
-2.270, 1.011e-3
-2.271, 1.011e-3
-2.272, 1.011e-3
-2.273, 1.011e-3
-2.274, 1.011e-3
-2.275, 1.011e-3
-2.276, 1.011e-3
-2.277, 1.011e-3
-2.278, 1.011e-3
-2.279, 1.011e-3
-2.280, 1.011e-3
-2.281, 1.011e-3
-2.282, 1.011e-3
-2.283, 1.011e-3
-2.284, 1.011e-3
-2.285, 1.011e-3
-2.286, 1.011e-3
-2.287, 1.011e-3
-2.288, 1.011e-3
-2.289, 1.011e-3
-2.290, 1.011e-3
-2.291, 1.011e-3
-2.292, 1.011e-3
-2.293, 1.011e-3
-2.294, 1.011e-3
-2.295, 1.011e-3
-2.296, 1.011e-3
-2.297, 1.011e-3
-2.298, 1.011e-3
-2.299, 1.011e-3
