Sept. 17, 2024   02:25:51
Cyclic Voltammetry
File: c:/users/guazh/data/20240903_batch_252_500/2024-09-03-exp375\exp375-2024-09-17t02_13_07-arkoh\exp375_cv_50mvs_efin_-1700mv.bin
Data Source:  Experiment
Instrument Model:  CHI760E
Header: CV ran at 50 mVs
Note: 

Init E (V) = -1
High E (V) = -1
Low E (V) = -1.7
Final E (V) = -1
Init P/N = N
Scan Rate (V/s) = 0.05
Segment = 7
Sample Interval (V) = 0.001
Quiet Time (sec) = 60
Sensitivity (A/V) = 0.001
Comp R (ohm) = 2.1

Results:

Channel 1:
Segment 1:
Ep = -1.215V
ip = 1.620e-6A
Ah = 1.787e-6C

Segment 2:

Segment 3:

Segment 4:

Segment 5:

Segment 6:

Segment 7:

Potential/V, Current/A

-1.000, 1.729e-6
-1.001, 1.937e-6
-1.002, 2.048e-6
-1.003, 2.091e-6
-1.004, 2.150e-6
-1.005, 2.206e-6
-1.006, 2.163e-6
-1.007, 2.222e-6
-1.008, 2.256e-6
-1.009, 2.252e-6
-1.010, 2.317e-6
-1.011, 2.235e-6
-1.012, 2.266e-6
-1.013, 2.354e-6
-1.014, 2.298e-6
-1.015, 2.407e-6
-1.016, 2.311e-6
-1.017, 2.354e-6
-1.018, 2.427e-6
-1.019, 2.402e-6
-1.020, 2.454e-6
-1.021, 2.382e-6
-1.022, 2.409e-6
-1.023, 2.424e-6
-1.024, 2.483e-6
-1.025, 2.506e-6
-1.026, 2.438e-6
-1.027, 2.491e-6
-1.028, 2.507e-6
-1.029, 2.506e-6
-1.030, 2.543e-6
-1.031, 2.507e-6
-1.032, 2.551e-6
-1.033, 2.580e-6
-1.034, 2.601e-6
-1.035, 2.567e-6
-1.036, 2.516e-6
-1.037, 2.584e-6
-1.038, 2.653e-6
-1.039, 2.643e-6
-1.040, 2.618e-6
-1.041, 2.574e-6
-1.042, 2.658e-6
-1.043, 2.659e-6
-1.044, 2.705e-6
-1.045, 2.734e-6
-1.046, 2.686e-6
-1.047, 2.690e-6
-1.048, 2.721e-6
-1.049, 2.688e-6
-1.050, 2.753e-6
-1.051, 2.714e-6
-1.052, 2.724e-6
-1.053, 2.813e-6
-1.054, 2.809e-6
-1.055, 2.810e-6
-1.056, 2.751e-6
-1.057, 2.786e-6
-1.058, 2.828e-6
-1.059, 2.845e-6
-1.060, 2.878e-6
-1.061, 2.820e-6
-1.062, 2.871e-6
-1.063, 2.933e-6
-1.064, 2.908e-6
-1.065, 2.938e-6
-1.066, 2.908e-6
-1.067, 2.915e-6
-1.068, 2.941e-6
-1.069, 2.966e-6
-1.070, 2.987e-6
-1.071, 2.994e-6
-1.072, 2.978e-6
-1.073, 2.999e-6
-1.074, 3.060e-6
-1.075, 3.056e-6
-1.076, 2.995e-6
-1.077, 3.066e-6
-1.078, 3.098e-6
-1.079, 3.082e-6
-1.080, 3.166e-6
-1.081, 3.073e-6
-1.082, 3.112e-6
-1.083, 3.176e-6
-1.084, 3.160e-6
-1.085, 3.220e-6
-1.086, 3.155e-6
-1.087, 3.191e-6
-1.088, 3.215e-6
-1.089, 3.231e-6
-1.090, 3.285e-6
-1.091, 3.284e-6
-1.092, 3.277e-6
-1.093, 3.321e-6
-1.094, 3.320e-6
-1.095, 3.384e-6
-1.096, 3.305e-6
-1.097, 3.311e-6
-1.098, 3.392e-6
-1.099, 3.357e-6
-1.100, 3.426e-6
-1.101, 3.406e-6
-1.102, 3.405e-6
-1.103, 3.491e-6
-1.104, 3.455e-6
-1.105, 3.463e-6
-1.106, 3.482e-6
-1.107, 3.473e-6
-1.108, 3.495e-6
-1.109, 3.572e-6
-1.110, 3.602e-6
-1.111, 3.576e-6
-1.112, 3.539e-6
-1.113, 3.625e-6
-1.114, 3.634e-6
-1.115, 3.692e-6
-1.116, 3.612e-6
-1.117, 3.681e-6
-1.118, 3.727e-6
-1.119, 3.724e-6
-1.120, 3.780e-6
-1.121, 3.726e-6
-1.122, 3.714e-6
-1.123, 3.753e-6
-1.124, 3.779e-6
-1.125, 3.844e-6
-1.126, 3.790e-6
-1.127, 3.821e-6
-1.128, 3.859e-6
-1.129, 3.903e-6
-1.130, 3.939e-6
-1.131, 3.905e-6
-1.132, 3.908e-6
-1.133, 3.978e-6
-1.134, 3.957e-6
-1.135, 4.048e-6
-1.136, 3.992e-6
-1.137, 4.009e-6
-1.138, 4.068e-6
-1.139, 4.077e-6
-1.140, 4.141e-6
-1.141, 4.096e-6
-1.142, 4.084e-6
-1.143, 4.145e-6
-1.144, 4.176e-6
-1.145, 4.211e-6
-1.146, 4.218e-6
-1.147, 4.191e-6
-1.148, 4.244e-6
-1.149, 4.300e-6
-1.150, 4.314e-6
-1.151, 4.298e-6
-1.152, 4.267e-6
-1.153, 4.339e-6
-1.154, 4.414e-6
-1.155, 4.460e-6
-1.156, 4.393e-6
-1.157, 4.421e-6
-1.158, 4.531e-6
-1.159, 4.499e-6
-1.160, 4.538e-6
-1.161, 4.523e-6
-1.162, 4.526e-6
-1.163, 4.618e-6
-1.164, 4.587e-6
-1.165, 4.674e-6
-1.166, 4.656e-6
-1.167, 4.663e-6
-1.168, 4.735e-6
-1.169, 4.722e-6
-1.170, 4.837e-6
-1.171, 4.784e-6
-1.172, 4.794e-6
-1.173, 4.878e-6
-1.174, 4.914e-6
-1.175, 4.973e-6
-1.176, 4.916e-6
-1.177, 4.953e-6
-1.178, 5.058e-6
-1.179, 5.084e-6
-1.180, 5.136e-6
-1.181, 5.139e-6
-1.182, 5.135e-6
-1.183, 5.225e-6
-1.184, 5.231e-6
-1.185, 5.333e-6
-1.186, 5.320e-6
-1.187, 5.355e-6
-1.188, 5.431e-6
-1.189, 5.487e-6
-1.190, 5.516e-6
-1.191, 5.499e-6
-1.192, 5.540e-6
-1.193, 5.626e-6
-1.194, 5.655e-6
-1.195, 5.704e-6
-1.196, 5.678e-6
-1.197, 5.700e-6
-1.198, 5.783e-6
-1.199, 5.820e-6
-1.200, 5.850e-6
-1.201, 5.830e-6
-1.202, 5.873e-6
-1.203, 5.899e-6
-1.204, 5.914e-6
-1.205, 6.000e-6
-1.206, 5.936e-6
-1.207, 5.999e-6
-1.208, 6.018e-6
-1.209, 5.965e-6
-1.210, 6.075e-6
-1.211, 5.958e-6
-1.212, 5.986e-6
-1.213, 6.064e-6
-1.214, 6.055e-6
-1.215, 6.093e-6
-1.216, 6.018e-6
-1.217, 6.014e-6
-1.218, 6.016e-6
-1.219, 6.029e-6
-1.220, 6.088e-6
-1.221, 6.002e-6
-1.222, 5.979e-6
-1.223, 6.074e-6
-1.224, 5.988e-6
-1.225, 6.028e-6
-1.226, 5.972e-6
-1.227, 5.952e-6
-1.228, 6.046e-6
-1.229, 5.972e-6
-1.230, 5.989e-6
-1.231, 5.950e-6
-1.232, 5.893e-6
-1.233, 5.936e-6
-1.234, 5.938e-6
-1.235, 5.915e-6
-1.236, 5.852e-6
-1.237, 5.824e-6
-1.238, 5.856e-6
-1.239, 5.879e-6
-1.240, 5.832e-6
-1.241, 5.771e-6
-1.242, 5.751e-6
-1.243, 5.764e-6
-1.244, 5.738e-6
-1.245, 5.772e-6
-1.246, 5.658e-6
-1.247, 5.682e-6
-1.248, 5.696e-6
-1.249, 5.664e-6
-1.250, 5.689e-6
-1.251, 5.597e-6
-1.252, 5.565e-6
-1.253, 5.616e-6
-1.254, 5.600e-6
-1.255, 5.590e-6
-1.256, 5.554e-6
-1.257, 5.547e-6
-1.258, 5.603e-6
-1.259, 5.565e-6
-1.260, 5.563e-6
-1.261, 5.493e-6
-1.262, 5.463e-6
-1.263, 5.481e-6
-1.264, 5.421e-6
-1.265, 5.453e-6
-1.266, 5.338e-6
-1.267, 5.371e-6
-1.268, 5.441e-6
-1.269, 5.317e-6
-1.270, 5.332e-6
-1.271, 5.305e-6
-1.272, 5.233e-6
-1.273, 5.288e-6
-1.274, 5.237e-6
-1.275, 5.230e-6
-1.276, 5.225e-6
-1.277, 5.165e-6
-1.278, 5.171e-6
-1.279, 5.186e-6
-1.280, 5.193e-6
-1.281, 5.097e-6
-1.282, 5.092e-6
-1.283, 5.117e-6
-1.284, 5.066e-6
-1.285, 5.089e-6
-1.286, 5.000e-6
-1.287, 5.055e-6
-1.288, 5.018e-6
-1.289, 5.027e-6
-1.290, 5.019e-6
-1.291, 4.963e-6
-1.292, 4.955e-6
-1.293, 4.978e-6
-1.294, 4.990e-6
-1.295, 4.989e-6
-1.296, 4.909e-6
-1.297, 4.913e-6
-1.298, 4.910e-6
-1.299, 4.931e-6
-1.300, 4.968e-6
-1.301, 4.879e-6
-1.302, 4.902e-6
-1.303, 4.915e-6
-1.304, 4.904e-6
-1.305, 4.923e-6
-1.306, 4.884e-6
-1.307, 4.865e-6
-1.308, 4.909e-6
-1.309, 4.905e-6
-1.310, 4.942e-6
-1.311, 4.855e-6
-1.312, 4.859e-6
-1.313, 4.942e-6
-1.314, 4.945e-6
-1.315, 4.929e-6
-1.316, 4.852e-6
-1.317, 4.913e-6
-1.318, 4.942e-6
-1.319, 4.968e-6
-1.320, 4.957e-6
-1.321, 4.874e-6
-1.322, 4.974e-6
-1.323, 4.982e-6
-1.324, 4.968e-6
-1.325, 5.084e-6
-1.326, 4.984e-6
-1.327, 4.985e-6
-1.328, 5.024e-6
-1.329, 5.049e-6
-1.330, 5.086e-6
-1.331, 5.078e-6
-1.332, 5.119e-6
-1.333, 5.125e-6
-1.334, 5.149e-6
-1.335, 5.179e-6
-1.336, 5.114e-6
-1.337, 5.127e-6
-1.338, 5.199e-6
-1.339, 5.231e-6
-1.340, 5.291e-6
-1.341, 5.204e-6
-1.342, 5.232e-6
-1.343, 5.338e-6
-1.344, 5.319e-6
-1.345, 5.351e-6
-1.346, 5.355e-6
-1.347, 5.390e-6
-1.348, 5.448e-6
-1.349, 5.481e-6
-1.350, 5.496e-6
-1.351, 5.488e-6
-1.352, 5.511e-6
-1.353, 5.602e-6
-1.354, 5.627e-6
-1.355, 5.694e-6
-1.356, 5.594e-6
-1.357, 5.703e-6
-1.358, 5.753e-6
-1.359, 5.770e-6
-1.360, 5.837e-6
-1.361, 5.802e-6
-1.362, 5.875e-6
-1.363, 5.927e-6
-1.364, 5.962e-6
-1.365, 6.039e-6
-1.366, 5.976e-6
-1.367, 6.051e-6
-1.368, 6.131e-6
-1.369, 6.178e-6
-1.370, 6.268e-6
-1.371, 6.246e-6
-1.372, 6.310e-6
-1.373, 6.375e-6
-1.374, 6.439e-6
-1.375, 6.508e-6
-1.376, 6.463e-6
-1.377, 6.566e-6
-1.378, 6.697e-6
-1.379, 6.729e-6
-1.380, 6.805e-6
-1.381, 6.821e-6
-1.382, 6.871e-6
-1.383, 7.018e-6
-1.384, 7.016e-6
-1.385, 7.167e-6
-1.386, 7.140e-6
-1.387, 7.204e-6
-1.388, 7.315e-6
-1.389, 7.447e-6
-1.390, 7.533e-6
-1.391, 7.532e-6
-1.392, 7.621e-6
-1.393, 7.735e-6
-1.394, 7.906e-6
-1.395, 7.981e-6
-1.396, 7.967e-6
-1.397, 8.109e-6
-1.398, 8.212e-6
-1.399, 8.325e-6
-1.400, 8.405e-6
-1.401, 8.493e-6
-1.402, 8.633e-6
-1.403, 8.765e-6
-1.404, 8.887e-6
-1.405, 9.035e-6
-1.406, 9.046e-6
-1.407, 9.219e-6
-1.408, 9.331e-6
-1.409, 9.505e-6
-1.410, 9.662e-6
-1.411, 9.700e-6
-1.412, 9.892e-6
-1.413, 1.003e-5
-1.414, 1.018e-5
-1.415, 1.040e-5
-1.416, 1.044e-5
-1.417, 1.059e-5
-1.418, 1.080e-5
-1.419, 1.097e-5
-1.420, 1.115e-5
-1.421, 1.128e-5
-1.422, 1.147e-5
-1.423, 1.169e-5
-1.424, 1.188e-5
-1.425, 1.206e-5
-1.426, 1.222e-5
-1.427, 1.246e-5
-1.428, 1.263e-5
-1.429, 1.289e-5
-1.430, 1.314e-5
-1.431, 1.323e-5
-1.432, 1.349e-5
-1.433, 1.377e-5
-1.434, 1.405e-5
-1.435, 1.429e-5
-1.436, 1.442e-5
-1.437, 1.476e-5
-1.438, 1.499e-5
-1.439, 1.530e-5
-1.440, 1.559e-5
-1.441, 1.573e-5
-1.442, 1.607e-5
-1.443, 1.636e-5
-1.444, 1.670e-5
-1.445, 1.705e-5
-1.446, 1.724e-5
-1.447, 1.760e-5
-1.448, 1.792e-5
-1.449, 1.828e-5
-1.450, 1.866e-5
-1.451, 1.891e-5
-1.452, 1.929e-5
-1.453, 1.969e-5
-1.454, 2.010e-5
-1.455, 2.050e-5
-1.456, 2.077e-5
-1.457, 2.121e-5
-1.458, 2.164e-5
-1.459, 2.206e-5
-1.460, 2.248e-5
-1.461, 2.280e-5
-1.462, 2.331e-5
-1.463, 2.376e-5
-1.464, 2.424e-5
-1.465, 2.475e-5
-1.466, 2.514e-5
-1.467, 2.570e-5
-1.468, 2.620e-5
-1.469, 2.676e-5
-1.470, 2.731e-5
-1.471, 2.778e-5
-1.472, 2.833e-5
-1.473, 2.893e-5
-1.474, 2.960e-5
-1.475, 3.016e-5
-1.476, 3.073e-5
-1.477, 3.142e-5
-1.478, 3.206e-5
-1.479, 3.276e-5
-1.480, 3.347e-5
-1.481, 3.405e-5
-1.482, 3.476e-5
-1.483, 3.555e-5
-1.484, 3.629e-5
-1.485, 3.710e-5
-1.486, 3.776e-5
-1.487, 3.857e-5
-1.488, 3.942e-5
-1.489, 4.027e-5
-1.490, 4.112e-5
-1.491, 4.194e-5
-1.492, 4.278e-5
-1.493, 4.376e-5
-1.494, 4.474e-5
-1.495, 4.563e-5
-1.496, 4.651e-5
-1.497, 4.752e-5
-1.498, 4.858e-5
-1.499, 4.957e-5
-1.500, 5.070e-5
-1.501, 5.168e-5
-1.502, 5.269e-5
-1.503, 5.393e-5
-1.504, 5.502e-5
-1.505, 5.622e-5
-1.506, 5.731e-5
-1.507, 5.849e-5
-1.508, 5.976e-5
-1.509, 6.105e-5
-1.510, 6.236e-5
-1.511, 6.364e-5
-1.512, 6.487e-5
-1.513, 6.629e-5
-1.514, 6.770e-5
-1.515, 6.911e-5
-1.516, 7.044e-5
-1.517, 7.191e-5
-1.518, 7.343e-5
-1.519, 7.497e-5
-1.520, 7.650e-5
-1.521, 7.807e-5
-1.522, 7.962e-5
-1.523, 8.131e-5
-1.524, 8.306e-5
-1.525, 8.480e-5
-1.526, 8.648e-5
-1.527, 8.824e-5
-1.528, 9.013e-5
-1.529, 9.199e-5
-1.530, 9.390e-5
-1.531, 9.573e-5
-1.532, 9.777e-5
-1.533, 9.976e-5
-1.534, 1.019e-4
-1.535, 1.040e-4
-1.536, 1.062e-4
-1.537, 1.084e-4
-1.538, 1.107e-4
-1.539, 1.129e-4
-1.540, 1.154e-4
-1.541, 1.177e-4
-1.542, 1.201e-4
-1.543, 1.227e-4
-1.544, 1.253e-4
-1.545, 1.280e-4
-1.546, 1.306e-4
-1.547, 1.333e-4
-1.548, 1.362e-4
-1.549, 1.391e-4
-1.550, 1.420e-4
-1.551, 1.450e-4
-1.552, 1.481e-4
-1.553, 1.513e-4
-1.554, 1.545e-4
-1.555, 1.578e-4
-1.556, 1.612e-4
-1.557, 1.645e-4
-1.558, 1.682e-4
-1.559, 1.718e-4
-1.560, 1.755e-4
-1.561, 1.793e-4
-1.562, 1.832e-4
-1.563, 1.872e-4
-1.564, 1.913e-4
-1.565, 1.954e-4
-1.566, 1.996e-4
-1.567, 2.039e-4
-1.568, 2.084e-4
-1.569, 2.130e-4
-1.570, 2.177e-4
-1.571, 2.225e-4
-1.572, 2.273e-4
-1.573, 2.324e-4
-1.574, 2.376e-4
-1.575, 2.429e-4
-1.576, 2.481e-4
-1.577, 2.536e-4
-1.578, 2.592e-4
-1.579, 2.649e-4
-1.580, 2.708e-4
-1.581, 2.768e-4
-1.582, 2.829e-4
-1.583, 2.892e-4
-1.584, 2.956e-4
-1.585, 3.023e-4
-1.586, 3.089e-4
-1.587, 3.157e-4
-1.588, 3.228e-4
-1.589, 3.300e-4
-1.590, 3.374e-4
-1.591, 3.450e-4
-1.592, 3.525e-4
-1.593, 3.605e-4
-1.594, 3.685e-4
-1.595, 3.767e-4
-1.596, 3.849e-4
-1.597, 3.933e-4
-1.598, 4.021e-4
-1.599, 4.111e-4
-1.600, 4.201e-4
-1.601, 4.295e-4
-1.602, 4.389e-4
-1.603, 4.486e-4
-1.604, 4.585e-4
-1.605, 4.686e-4
-1.606, 4.789e-4
-1.607, 4.894e-4
-1.608, 4.999e-4
-1.609, 5.109e-4
-1.610, 5.221e-4
-1.611, 5.334e-4
-1.612, 5.449e-4
-1.613, 5.567e-4
-1.614, 5.688e-4
-1.615, 5.809e-4
-1.616, 5.933e-4
-1.617, 6.061e-4
-1.618, 6.188e-4
-1.619, 6.321e-4
-1.620, 6.459e-4
-1.621, 6.600e-4
-1.622, 6.737e-4
-1.623, 6.877e-4
-1.624, 7.021e-4
-1.625, 7.166e-4
-1.626, 7.314e-4
-1.627, 7.467e-4
-1.628, 7.622e-4
-1.629, 7.781e-4
-1.630, 7.944e-4
-1.631, 8.108e-4
-1.632, 8.271e-4
-1.633, 8.434e-4
-1.634, 8.601e-4
-1.635, 8.774e-4
-1.636, 8.952e-4
-1.637, 9.133e-4
-1.638, 9.317e-4
-1.639, 9.501e-4
-1.640, 9.688e-4
-1.641, 9.882e-4
-1.642, 1.007e-3
-1.643, 1.027e-3
-1.644, 1.047e-3
-1.645, 1.067e-3
-1.646, 1.088e-3
-1.647, 1.109e-3
-1.648, 1.130e-3
-1.649, 1.152e-3
-1.650, 1.173e-3
-1.651, 1.194e-3
-1.652, 1.215e-3
-1.653, 1.238e-3
-1.654, 1.261e-3
-1.655, 1.284e-3
-1.656, 1.306e-3
-1.657, 1.330e-3
-1.658, 1.354e-3
-1.659, 1.379e-3
-1.660, 1.404e-3
-1.661, 1.429e-3
-1.662, 1.452e-3
-1.663, 1.476e-3
-1.664, 1.502e-3
-1.665, 1.528e-3
-1.666, 1.555e-3
-1.667, 1.582e-3
-1.668, 1.609e-3
-1.669, 1.636e-3
-1.670, 1.663e-3
-1.671, 1.691e-3
-1.672, 1.717e-3
-1.673, 1.743e-3
-1.674, 1.772e-3
-1.675, 1.801e-3
-1.676, 1.831e-3
-1.677, 1.859e-3
-1.678, 1.888e-3
-1.679, 1.919e-3
-1.680, 1.950e-3
-1.681, 1.979e-3
-1.682, 2.008e-3
-1.683, 2.039e-3
-1.684, 2.071e-3
-1.685, 2.101e-3
-1.686, 2.131e-3
-1.687, 2.164e-3
-1.688, 2.197e-3
-1.689, 2.230e-3
-1.690, 2.262e-3
-1.691, 2.293e-3
-1.692, 2.326e-3
-1.693, 2.361e-3
-1.694, 2.395e-3
-1.695, 2.429e-3
-1.696, 2.462e-3
-1.697, 2.492e-3
-1.698, 2.526e-3
-1.699, 2.561e-3
-1.700, 2.572e-3
-1.699, 2.552e-3
-1.698, 2.532e-3
-1.697, 2.510e-3
-1.696, 2.488e-3
-1.695, 2.466e-3
-1.694, 2.445e-3
-1.693, 2.421e-3
-1.692, 2.397e-3
-1.691, 2.373e-3
-1.690, 2.347e-3
-1.689, 2.322e-3
-1.688, 2.298e-3
-1.687, 2.274e-3
-1.686, 2.249e-3
-1.685, 2.223e-3
-1.684, 2.199e-3
-1.683, 2.176e-3
-1.682, 2.151e-3
-1.681, 2.127e-3
-1.680, 2.101e-3
-1.679, 2.075e-3
-1.678, 2.052e-3
-1.677, 2.029e-3
-1.676, 2.005e-3
-1.675, 1.981e-3
-1.674, 1.956e-3
-1.673, 1.931e-3
-1.672, 1.907e-3
-1.671, 1.884e-3
-1.670, 1.861e-3
-1.669, 1.838e-3
-1.668, 1.815e-3
-1.667, 1.793e-3
-1.666, 1.770e-3
-1.665, 1.748e-3
-1.664, 1.726e-3
-1.663, 1.704e-3
-1.662, 1.681e-3
-1.661, 1.659e-3
-1.660, 1.636e-3
-1.659, 1.615e-3
-1.658, 1.595e-3
-1.657, 1.575e-3
-1.656, 1.554e-3
-1.655, 1.533e-3
-1.654, 1.511e-3
-1.653, 1.491e-3
-1.652, 1.470e-3
-1.651, 1.450e-3
-1.650, 1.430e-3
-1.649, 1.411e-3
-1.648, 1.392e-3
-1.647, 1.373e-3
-1.646, 1.354e-3
-1.645, 1.335e-3
-1.644, 1.317e-3
-1.643, 1.299e-3
-1.642, 1.280e-3
-1.641, 1.262e-3
-1.640, 1.244e-3
-1.639, 1.226e-3
-1.638, 1.208e-3
-1.637, 1.191e-3
-1.636, 1.174e-3
-1.635, 1.157e-3
-1.634, 1.141e-3
-1.633, 1.123e-3
-1.632, 1.107e-3
-1.631, 1.091e-3
-1.630, 1.075e-3
-1.629, 1.059e-3
-1.628, 1.043e-3
-1.627, 1.028e-3
-1.626, 1.012e-3
-1.625, 9.973e-4
-1.624, 9.826e-4
-1.623, 9.682e-4
-1.622, 9.534e-4
-1.621, 9.386e-4
-1.620, 9.245e-4
-1.619, 9.106e-4
-1.618, 8.965e-4
-1.617, 8.826e-4
-1.616, 8.692e-4
-1.615, 8.558e-4
-1.614, 8.425e-4
-1.613, 8.295e-4
-1.612, 8.166e-4
-1.611, 8.036e-4
-1.610, 7.909e-4
-1.609, 7.785e-4
-1.608, 7.661e-4
-1.607, 7.541e-4
-1.606, 7.424e-4
-1.605, 7.306e-4
-1.604, 7.191e-4
-1.603, 7.076e-4
-1.602, 6.960e-4
-1.601, 6.847e-4
-1.600, 6.733e-4
-1.599, 6.620e-4
-1.598, 6.511e-4
-1.597, 6.404e-4
-1.596, 6.298e-4
-1.595, 6.195e-4
-1.594, 6.094e-4
-1.593, 5.993e-4
-1.592, 5.894e-4
-1.591, 5.797e-4
-1.590, 5.701e-4
-1.589, 5.605e-4
-1.588, 5.508e-4
-1.587, 5.414e-4
-1.586, 5.324e-4
-1.585, 5.234e-4
-1.584, 5.143e-4
-1.583, 5.055e-4
-1.582, 4.969e-4
-1.581, 4.884e-4
-1.580, 4.798e-4
-1.579, 4.716e-4
-1.578, 4.635e-4
-1.577, 4.554e-4
-1.576, 4.474e-4
-1.575, 4.396e-4
-1.574, 4.320e-4
-1.573, 4.243e-4
-1.572, 4.168e-4
-1.571, 4.095e-4
-1.570, 4.022e-4
-1.569, 3.951e-4
-1.568, 3.881e-4
-1.567, 3.811e-4
-1.566, 3.743e-4
-1.565, 3.674e-4
-1.564, 3.608e-4
-1.563, 3.543e-4
-1.562, 3.478e-4
-1.561, 3.415e-4
-1.560, 3.354e-4
-1.559, 3.292e-4
-1.558, 3.231e-4
-1.557, 3.171e-4
-1.556, 3.113e-4
-1.555, 3.056e-4
-1.554, 2.999e-4
-1.553, 2.943e-4
-1.552, 2.888e-4
-1.551, 2.834e-4
-1.550, 2.781e-4
-1.549, 2.729e-4
-1.548, 2.677e-4
-1.547, 2.626e-4
-1.546, 2.577e-4
-1.545, 2.528e-4
-1.544, 2.480e-4
-1.543, 2.432e-4
-1.542, 2.386e-4
-1.541, 2.341e-4
-1.540, 2.295e-4
-1.539, 2.251e-4
-1.538, 2.207e-4
-1.537, 2.163e-4
-1.536, 2.122e-4
-1.535, 2.081e-4
-1.534, 2.040e-4
-1.533, 2.000e-4
-1.532, 1.961e-4
-1.531, 1.923e-4
-1.530, 1.885e-4
-1.529, 1.848e-4
-1.528, 1.812e-4
-1.527, 1.775e-4
-1.526, 1.741e-4
-1.525, 1.707e-4
-1.524, 1.673e-4
-1.523, 1.638e-4
-1.522, 1.605e-4
-1.521, 1.575e-4
-1.520, 1.543e-4
-1.519, 1.512e-4
-1.518, 1.481e-4
-1.517, 1.451e-4
-1.516, 1.423e-4
-1.515, 1.393e-4
-1.514, 1.366e-4
-1.513, 1.338e-4
-1.512, 1.311e-4
-1.511, 1.285e-4
-1.510, 1.258e-4
-1.509, 1.233e-4
-1.508, 1.207e-4
-1.507, 1.182e-4
-1.506, 1.160e-4
-1.505, 1.135e-4
-1.504, 1.112e-4
-1.503, 1.089e-4
-1.502, 1.066e-4
-1.501, 1.046e-4
-1.500, 1.024e-4
-1.499, 1.003e-4
-1.498, 9.817e-5
-1.497, 9.610e-5
-1.496, 9.418e-5
-1.495, 9.225e-5
-1.494, 9.032e-5
-1.493, 8.840e-5
-1.492, 8.657e-5
-1.491, 8.482e-5
-1.490, 8.310e-5
-1.489, 8.130e-5
-1.488, 7.959e-5
-1.487, 7.793e-5
-1.486, 7.629e-5
-1.485, 7.470e-5
-1.484, 7.313e-5
-1.483, 7.153e-5
-1.482, 7.010e-5
-1.481, 6.858e-5
-1.480, 6.721e-5
-1.479, 6.571e-5
-1.478, 6.430e-5
-1.477, 6.291e-5
-1.476, 6.164e-5
-1.475, 6.037e-5
-1.474, 5.905e-5
-1.473, 5.773e-5
-1.472, 5.654e-5
-1.471, 5.536e-5
-1.470, 5.419e-5
-1.469, 5.303e-5
-1.468, 5.183e-5
-1.467, 5.072e-5
-1.466, 4.968e-5
-1.465, 4.863e-5
-1.464, 4.757e-5
-1.463, 4.654e-5
-1.462, 4.549e-5
-1.461, 4.456e-5
-1.460, 4.368e-5
-1.459, 4.261e-5
-1.458, 4.167e-5
-1.457, 4.077e-5
-1.456, 3.991e-5
-1.455, 3.907e-5
-1.454, 3.819e-5
-1.453, 3.735e-5
-1.452, 3.651e-5
-1.451, 3.575e-5
-1.450, 3.502e-5
-1.449, 3.418e-5
-1.448, 3.336e-5
-1.447, 3.265e-5
-1.446, 3.194e-5
-1.445, 3.134e-5
-1.444, 3.059e-5
-1.443, 2.983e-5
-1.442, 2.921e-5
-1.441, 2.850e-5
-1.440, 2.795e-5
-1.439, 2.731e-5
-1.438, 2.660e-5
-1.437, 2.605e-5
-1.436, 2.547e-5
-1.435, 2.490e-5
-1.434, 2.432e-5
-1.433, 2.372e-5
-1.432, 2.319e-5
-1.431, 2.267e-5
-1.430, 2.223e-5
-1.429, 2.165e-5
-1.428, 2.113e-5
-1.427, 2.061e-5
-1.426, 2.016e-5
-1.425, 1.975e-5
-1.424, 1.929e-5
-1.423, 1.877e-5
-1.422, 1.833e-5
-1.421, 1.793e-5
-1.420, 1.755e-5
-1.419, 1.707e-5
-1.418, 1.667e-5
-1.417, 1.626e-5
-1.416, 1.584e-5
-1.415, 1.557e-5
-1.414, 1.512e-5
-1.413, 1.476e-5
-1.412, 1.438e-5
-1.411, 1.404e-5
-1.410, 1.377e-5
-1.409, 1.337e-5
-1.408, 1.297e-5
-1.407, 1.268e-5
-1.406, 1.239e-5
-1.405, 1.213e-5
-1.404, 1.183e-5
-1.403, 1.146e-5
-1.402, 1.117e-5
-1.401, 1.087e-5
-1.400, 1.069e-5
-1.399, 1.041e-5
-1.398, 1.009e-5
-1.397, 9.854e-6
-1.396, 9.588e-6
-1.395, 9.368e-6
-1.394, 9.107e-6
-1.393, 8.807e-6
-1.392, 8.599e-6
-1.391, 8.376e-6
-1.390, 8.203e-6
-1.389, 7.989e-6
-1.388, 7.712e-6
-1.387, 7.483e-6
-1.386, 7.335e-6
-1.385, 7.135e-6
-1.384, 6.954e-6
-1.383, 6.697e-6
-1.382, 6.494e-6
-1.381, 6.289e-6
-1.380, 6.220e-6
-1.379, 5.993e-6
-1.378, 5.803e-6
-1.377, 5.629e-6
-1.376, 5.459e-6
-1.375, 5.361e-6
-1.374, 5.180e-6
-1.373, 4.934e-6
-1.372, 4.823e-6
-1.371, 4.709e-6
-1.370, 4.585e-6
-1.369, 4.448e-6
-1.368, 4.248e-6
-1.367, 4.101e-6
-1.366, 3.971e-6
-1.365, 3.898e-6
-1.364, 3.788e-6
-1.363, 3.589e-6
-1.362, 3.452e-6
-1.361, 3.383e-6
-1.360, 3.311e-6
-1.359, 3.158e-6
-1.358, 3.001e-6
-1.357, 2.859e-6
-1.356, 2.775e-6
-1.355, 2.733e-6
-1.354, 2.637e-6
-1.353, 2.491e-6
-1.352, 2.362e-6
-1.351, 2.233e-6
-1.350, 2.204e-6
-1.349, 2.141e-6
-1.348, 1.962e-6
-1.347, 1.895e-6
-1.346, 1.826e-6
-1.345, 1.772e-6
-1.344, 1.696e-6
-1.343, 1.568e-6
-1.342, 1.446e-6
-1.341, 1.422e-6
-1.340, 1.385e-6
-1.339, 1.287e-6
-1.338, 1.199e-6
-1.337, 1.089e-6
-1.336, 1.051e-6
-1.335, 1.044e-6
-1.334, 9.242e-7
-1.333, 8.266e-7
-1.332, 7.545e-7
-1.331, 6.717e-7
-1.330, 6.658e-7
-1.329, 5.631e-7
-1.328, 4.517e-7
-1.327, 4.181e-7
-1.326, 3.708e-7
-1.325, 3.283e-7
-1.324, 2.968e-7
-1.323, 1.715e-7
-1.322, 1.073e-7
-1.321, 1.281e-7
-1.320, 5.407e-8
-1.319, 1.164e-8
-1.318, -7.912e-8
-1.317, -1.403e-7
-1.316, -1.423e-7
-1.315, -2.330e-7
-1.314, -2.636e-7
-1.313, -3.317e-7
-1.312, -4.057e-7
-1.311, -3.781e-7
-1.310, -4.323e-7
-1.309, -4.767e-7
-1.308, -5.152e-7
-1.307, -6.366e-7
-1.306, -6.435e-7
-1.305, -6.356e-7
-1.304, -6.977e-7
-1.303, -7.905e-7
-1.302, -8.467e-7
-1.301, -8.349e-7
-1.300, -8.171e-7
-1.299, -8.862e-7
-1.298, -9.365e-7
-1.297, -1.044e-6
-1.296, -1.019e-6
-1.295, -1.047e-6
-1.294, -1.115e-6
-1.293, -1.115e-6
-1.292, -1.168e-6
-1.291, -1.218e-6
-1.290, -1.213e-6
-1.289, -1.238e-6
-1.288, -1.286e-6
-1.287, -1.389e-6
-1.286, -1.356e-6
-1.285, -1.388e-6
-1.284, -1.399e-6
-1.283, -1.464e-6
-1.282, -1.502e-6
-1.281, -1.508e-6
-1.280, -1.461e-6
-1.279, -1.535e-6
-1.278, -1.598e-6
-1.277, -1.666e-6
-1.276, -1.639e-6
-1.275, -1.670e-6
-1.274, -1.691e-6
-1.273, -1.795e-6
-1.272, -1.771e-6
-1.271, -1.782e-6
-1.270, -1.797e-6
-1.269, -1.779e-6
-1.268, -1.892e-6
-1.267, -1.960e-6
-1.266, -1.960e-6
-1.265, -1.965e-6
-1.264, -1.961e-6
-1.263, -2.036e-6
-1.262, -2.089e-6
-1.261, -2.054e-6
-1.260, -2.099e-6
-1.259, -2.140e-6
-1.258, -2.168e-6
-1.257, -2.223e-6
-1.256, -2.192e-6
-1.255, -2.208e-6
-1.254, -2.258e-6
-1.253, -2.294e-6
-1.252, -2.343e-6
-1.251, -2.361e-6
-1.250, -2.368e-6
-1.249, -2.381e-6
-1.248, -2.462e-6
-1.247, -2.453e-6
-1.246, -2.517e-6
-1.245, -2.458e-6
-1.244, -2.529e-6
-1.243, -2.617e-6
-1.242, -2.598e-6
-1.241, -2.624e-6
-1.240, -2.650e-6
-1.239, -2.609e-6
-1.238, -2.749e-6
-1.237, -2.731e-6
-1.236, -2.752e-6
-1.235, -2.793e-6
-1.234, -2.749e-6
-1.233, -2.895e-6
-1.232, -2.880e-6
-1.231, -2.854e-6
-1.230, -2.923e-6
-1.229, -2.962e-6
-1.228, -2.999e-6
-1.227, -3.037e-6
-1.226, -3.025e-6
-1.225, -3.034e-6
-1.224, -3.077e-6
-1.223, -3.145e-6
-1.222, -3.198e-6
-1.221, -3.141e-6
-1.220, -3.130e-6
-1.219, -3.190e-6
-1.218, -3.272e-6
-1.217, -3.276e-6
-1.216, -3.269e-6
-1.215, -3.271e-6
-1.214, -3.302e-6
-1.213, -3.406e-6
-1.212, -3.374e-6
-1.211, -3.389e-6
-1.210, -3.408e-6
-1.209, -3.404e-6
-1.208, -3.463e-6
-1.207, -3.472e-6
-1.206, -3.482e-6
-1.205, -3.473e-6
-1.204, -3.447e-6
-1.203, -3.600e-6
-1.202, -3.600e-6
-1.201, -3.590e-6
-1.200, -3.569e-6
-1.199, -3.536e-6
-1.198, -3.661e-6
-1.197, -3.683e-6
-1.196, -3.662e-6
-1.195, -3.670e-6
-1.194, -3.599e-6
-1.193, -3.740e-6
-1.192, -3.717e-6
-1.191, -3.697e-6
-1.190, -3.686e-6
-1.189, -3.688e-6
-1.188, -3.786e-6
-1.187, -3.765e-6
-1.186, -3.755e-6
-1.185, -3.729e-6
-1.184, -3.695e-6
-1.183, -3.848e-6
-1.182, -3.839e-6
-1.181, -3.796e-6
-1.180, -3.798e-6
-1.179, -3.788e-6
-1.178, -3.894e-6
-1.177, -3.911e-6
-1.176, -3.824e-6
-1.175, -3.844e-6
-1.174, -3.845e-6
-1.173, -3.937e-6
-1.172, -3.923e-6
-1.171, -3.922e-6
-1.170, -3.913e-6
-1.169, -3.938e-6
-1.168, -3.968e-6
-1.167, -3.963e-6
-1.166, -3.980e-6
-1.165, -3.892e-6
-1.164, -3.898e-6
-1.163, -4.062e-6
-1.162, -4.008e-6
-1.161, -4.020e-6
-1.160, -3.969e-6
-1.159, -3.951e-6
-1.158, -4.078e-6
-1.157, -4.036e-6
-1.156, -4.036e-6
-1.155, -4.009e-6
-1.154, -3.940e-6
-1.153, -4.125e-6
-1.152, -4.070e-6
-1.151, -4.075e-6
-1.150, -4.070e-6
-1.149, -4.009e-6
-1.148, -4.122e-6
-1.147, -4.131e-6
-1.146, -4.095e-6
-1.145, -4.110e-6
-1.144, -4.027e-6
-1.143, -4.171e-6
-1.142, -4.206e-6
-1.141, -4.163e-6
-1.140, -4.128e-6
-1.139, -4.152e-6
-1.138, -4.199e-6
-1.137, -4.219e-6
-1.136, -4.185e-6
-1.135, -4.101e-6
-1.134, -4.182e-6
-1.133, -4.247e-6
-1.132, -4.249e-6
-1.131, -4.263e-6
-1.130, -4.204e-6
-1.129, -4.203e-6
-1.128, -4.317e-6
-1.127, -4.297e-6
-1.126, -4.221e-6
-1.125, -4.227e-6
-1.124, -4.244e-6
-1.123, -4.329e-6
-1.122, -4.308e-6
-1.121, -4.300e-6
-1.120, -4.262e-6
-1.119, -4.259e-6
-1.118, -4.357e-6
-1.117, -4.365e-6
-1.116, -4.302e-6
-1.115, -4.322e-6
-1.114, -4.281e-6
-1.113, -4.375e-6
-1.112, -4.404e-6
-1.111, -4.348e-6
-1.110, -4.298e-6
-1.109, -4.334e-6
-1.108, -4.410e-6
-1.107, -4.470e-6
-1.106, -4.436e-6
-1.105, -4.392e-6
-1.104, -4.366e-6
-1.103, -4.464e-6
-1.102, -4.492e-6
-1.101, -4.439e-6
-1.100, -4.420e-6
-1.099, -4.455e-6
-1.098, -4.524e-6
-1.097, -4.561e-6
-1.096, -4.482e-6
-1.095, -4.457e-6
-1.094, -4.477e-6
-1.093, -4.548e-6
-1.092, -4.607e-6
-1.091, -4.569e-6
-1.090, -4.504e-6
-1.089, -4.562e-6
-1.088, -4.589e-6
-1.087, -4.650e-6
-1.086, -4.653e-6
-1.085, -4.558e-6
-1.084, -4.627e-6
-1.083, -4.720e-6
-1.082, -4.725e-6
-1.081, -4.696e-6
-1.080, -4.656e-6
-1.079, -4.653e-6
-1.078, -4.777e-6
-1.077, -4.781e-6
-1.076, -4.775e-6
-1.075, -4.780e-6
-1.074, -4.765e-6
-1.073, -4.848e-6
-1.072, -4.904e-6
-1.071, -4.840e-6
-1.070, -4.873e-6
-1.069, -4.793e-6
-1.068, -4.871e-6
-1.067, -5.007e-6
-1.066, -4.918e-6
-1.065, -4.871e-6
-1.064, -4.885e-6
-1.063, -4.930e-6
-1.062, -5.032e-6
-1.061, -4.978e-6
-1.060, -4.897e-6
-1.059, -4.945e-6
-1.058, -4.988e-6
-1.057, -5.078e-6
-1.056, -4.992e-6
-1.055, -4.967e-6
-1.054, -4.968e-6
-1.053, -5.020e-6
-1.052, -5.103e-6
-1.051, -5.057e-6
-1.050, -5.011e-6
-1.049, -5.049e-6
-1.048, -5.080e-6
-1.047, -5.160e-6
-1.046, -5.141e-6
-1.045, -5.091e-6
-1.044, -5.073e-6
-1.043, -5.134e-6
-1.042, -5.253e-6
-1.041, -5.190e-6
-1.040, -5.135e-6
-1.039, -5.163e-6
-1.038, -5.205e-6
-1.037, -5.300e-6
-1.036, -5.235e-6
-1.035, -5.203e-6
-1.034, -5.209e-6
-1.033, -5.262e-6
-1.032, -5.322e-6
-1.031, -5.306e-6
-1.030, -5.282e-6
-1.029, -5.265e-6
-1.028, -5.313e-6
-1.027, -5.463e-6
-1.026, -5.370e-6
-1.025, -5.348e-6
-1.024, -5.390e-6
-1.023, -5.375e-6
-1.022, -5.519e-6
-1.021, -5.456e-6
-1.020, -5.401e-6
-1.019, -5.465e-6
-1.018, -5.435e-6
-1.017, -5.583e-6
-1.016, -5.483e-6
-1.015, -5.475e-6
-1.014, -5.512e-6
-1.013, -5.516e-6
-1.012, -5.570e-6
-1.011, -5.641e-6
-1.010, -5.516e-6
-1.009, -5.601e-6
-1.008, -5.585e-6
-1.007, -5.681e-6
-1.006, -5.669e-6
-1.005, -5.619e-6
-1.004, -5.608e-6
-1.003, -5.659e-6
-1.002, -5.710e-6
-1.001, -5.692e-6
-1.000, -1.574e-6
-1.001, -3.889e-7
-1.002, 1.164e-8
-1.003, 1.537e-7
-1.004, 5.118e-7
-1.005, 7.437e-7
-1.006, 9.203e-7
-1.007, 1.053e-6
-1.008, 1.047e-6
-1.009, 1.267e-6
-1.010, 1.423e-6
-1.011, 1.492e-6
-1.012, 1.597e-6
-1.013, 1.648e-6
-1.014, 1.733e-6
-1.015, 1.877e-6
-1.016, 1.903e-6
-1.017, 2.000e-6
-1.018, 1.968e-6
-1.019, 2.050e-6
-1.020, 2.182e-6
-1.021, 2.218e-6
-1.022, 2.260e-6
-1.023, 2.275e-6
-1.024, 2.325e-6
-1.025, 2.452e-6
-1.026, 2.489e-6
-1.027, 2.508e-6
-1.028, 2.425e-6
-1.029, 2.562e-6
-1.030, 2.629e-6
-1.031, 2.698e-6
-1.032, 2.691e-6
-1.033, 2.598e-6
-1.034, 2.707e-6
-1.035, 2.810e-6
-1.036, 2.805e-6
-1.037, 2.874e-6
-1.038, 2.790e-6
-1.039, 2.911e-6
-1.040, 2.916e-6
-1.041, 2.937e-6
-1.042, 3.014e-6
-1.043, 2.853e-6
-1.044, 2.962e-6
-1.045, 3.098e-6
-1.046, 3.079e-6
-1.047, 3.101e-6
-1.048, 3.040e-6
-1.049, 3.083e-6
-1.050, 3.209e-6
-1.051, 3.159e-6
-1.052, 3.189e-6
-1.053, 3.143e-6
-1.054, 3.218e-6
-1.055, 3.260e-6
-1.056, 3.293e-6
-1.057, 3.289e-6
-1.058, 3.221e-6
-1.059, 3.266e-6
-1.060, 3.361e-6
-1.061, 3.361e-6
-1.062, 3.415e-6
-1.063, 3.337e-6
-1.064, 3.343e-6
-1.065, 3.418e-6
-1.066, 3.409e-6
-1.067, 3.422e-6
-1.068, 3.397e-6
-1.069, 3.423e-6
-1.070, 3.520e-6
-1.071, 3.540e-6
-1.072, 3.536e-6
-1.073, 3.460e-6
-1.074, 3.518e-6
-1.075, 3.584e-6
-1.076, 3.566e-6
-1.077, 3.631e-6
-1.078, 3.492e-6
-1.079, 3.574e-6
-1.080, 3.639e-6
-1.081, 3.596e-6
-1.082, 3.688e-6
-1.083, 3.555e-6
-1.084, 3.585e-6
-1.085, 3.732e-6
-1.086, 3.691e-6
-1.087, 3.755e-6
-1.088, 3.642e-6
-1.089, 3.684e-6
-1.090, 3.735e-6
-1.091, 3.743e-6
-1.092, 3.746e-6
-1.093, 3.701e-6
-1.094, 3.749e-6
-1.095, 3.843e-6
-1.096, 3.809e-6
-1.097, 3.849e-6
-1.098, 3.771e-6
-1.099, 3.770e-6
-1.100, 3.863e-6
-1.101, 3.841e-6
-1.102, 3.904e-6
-1.103, 3.820e-6
-1.104, 3.820e-6
-1.105, 3.931e-6
-1.106, 3.915e-6
-1.107, 3.906e-6
-1.108, 3.871e-6
-1.109, 3.883e-6
-1.110, 3.992e-6
-1.111, 4.016e-6
-1.112, 3.948e-6
-1.113, 3.904e-6
-1.114, 3.982e-6
-1.115, 4.031e-6
-1.116, 4.019e-6
-1.117, 4.067e-6
-1.118, 3.960e-6
-1.119, 4.022e-6
-1.120, 4.089e-6
-1.121, 4.048e-6
-1.122, 4.098e-6
-1.123, 4.028e-6
-1.124, 4.045e-6
-1.125, 4.148e-6
-1.126, 4.128e-6
-1.127, 4.154e-6
-1.128, 4.102e-6
-1.129, 4.127e-6
-1.130, 4.213e-6
-1.131, 4.151e-6
-1.132, 4.184e-6
-1.133, 4.139e-6
-1.134, 4.174e-6
-1.135, 4.287e-6
-1.136, 4.233e-6
-1.137, 4.333e-6
-1.138, 4.248e-6
-1.139, 4.226e-6
-1.140, 4.283e-6
-1.141, 4.296e-6
-1.142, 4.300e-6
-1.143, 4.297e-6
-1.144, 4.282e-6
-1.145, 4.367e-6
-1.146, 4.397e-6
-1.147, 4.376e-6
-1.148, 4.326e-6
-1.149, 4.378e-6
-1.150, 4.401e-6
-1.151, 4.489e-6
-1.152, 4.430e-6
-1.153, 4.361e-6
-1.154, 4.469e-6
-1.155, 4.469e-6
-1.156, 4.495e-6
-1.157, 4.497e-6
-1.158, 4.411e-6
-1.159, 4.512e-6
-1.160, 4.563e-6
-1.161, 4.544e-6
-1.162, 4.558e-6
-1.163, 4.517e-6
-1.164, 4.578e-6
-1.165, 4.633e-6
-1.166, 4.618e-6
-1.167, 4.642e-6
-1.168, 4.583e-6
-1.169, 4.632e-6
-1.170, 4.697e-6
-1.171, 4.672e-6
-1.172, 4.745e-6
-1.173, 4.662e-6
-1.174, 4.774e-6
-1.175, 4.808e-6
-1.176, 4.755e-6
-1.177, 4.825e-6
-1.178, 4.710e-6
-1.179, 4.781e-6
-1.180, 4.806e-6
-1.181, 4.770e-6
-1.182, 4.749e-6
-1.183, 4.712e-6
-1.184, 4.696e-6
-1.185, 4.766e-6
-1.186, 4.774e-6
-1.187, 4.681e-6
-1.188, 4.664e-6
-1.189, 4.665e-6
-1.190, 4.650e-6
-1.191, 4.665e-6
-1.192, 4.626e-6
-1.193, 4.564e-6
-1.194, 4.605e-6
-1.195, 4.585e-6
-1.196, 4.612e-6
-1.197, 4.627e-6
-1.198, 4.479e-6
-1.199, 4.546e-6
-1.200, 4.533e-6
-1.201, 4.550e-6
-1.202, 4.508e-6
-1.203, 4.433e-6
-1.204, 4.485e-6
-1.205, 4.505e-6
-1.206, 4.482e-6
-1.207, 4.515e-6
-1.208, 4.417e-6
-1.209, 4.473e-6
-1.210, 4.487e-6
-1.211, 4.499e-6
-1.212, 4.472e-6
-1.213, 4.404e-6
-1.214, 4.407e-6
-1.215, 4.425e-6
-1.216, 4.478e-6
-1.217, 4.422e-6
-1.218, 4.360e-6
-1.219, 4.403e-6
-1.220, 4.413e-6
-1.221, 4.434e-6
-1.222, 4.436e-6
-1.223, 4.395e-6
-1.224, 4.384e-6
-1.225, 4.456e-6
-1.226, 4.426e-6
-1.227, 4.402e-6
-1.228, 4.415e-6
-1.229, 4.426e-6
-1.230, 4.428e-6
-1.231, 4.484e-6
-1.232, 4.410e-6
-1.233, 4.362e-6
-1.234, 4.415e-6
-1.235, 4.414e-6
-1.236, 4.409e-6
-1.237, 4.387e-6
-1.238, 4.409e-6
-1.239, 4.407e-6
-1.240, 4.425e-6
-1.241, 4.382e-6
-1.242, 4.416e-6
-1.243, 4.323e-6
-1.244, 4.388e-6
-1.245, 4.423e-6
-1.246, 4.379e-6
-1.247, 4.426e-6
-1.248, 4.366e-6
-1.249, 4.410e-6
-1.250, 4.461e-6
-1.251, 4.437e-6
-1.252, 4.428e-6
-1.253, 4.379e-6
-1.254, 4.366e-6
-1.255, 4.433e-6
-1.256, 4.450e-6
-1.257, 4.389e-6
-1.258, 4.386e-6
-1.259, 4.379e-6
-1.260, 4.400e-6
-1.261, 4.470e-6
-1.262, 4.436e-6
-1.263, 4.376e-6
-1.264, 4.402e-6
-1.265, 4.441e-6
-1.266, 4.474e-6
-1.267, 4.415e-6
-1.268, 4.385e-6
-1.269, 4.447e-6
-1.270, 4.429e-6
-1.271, 4.517e-6
-1.272, 4.460e-6
-1.273, 4.427e-6
-1.274, 4.429e-6
-1.275, 4.493e-6
-1.276, 4.498e-6
-1.277, 4.448e-6
-1.278, 4.481e-6
-1.279, 4.494e-6
-1.280, 4.515e-6
-1.281, 4.537e-6
-1.282, 4.516e-6
-1.283, 4.461e-6
-1.284, 4.500e-6
-1.285, 4.555e-6
-1.286, 4.595e-6
-1.287, 4.599e-6
-1.288, 4.504e-6
-1.289, 4.533e-6
-1.290, 4.624e-6
-1.291, 4.631e-6
-1.292, 4.591e-6
-1.293, 4.579e-6
-1.294, 4.572e-6
-1.295, 4.677e-6
-1.296, 4.647e-6
-1.297, 4.637e-6
-1.298, 4.623e-6
-1.299, 4.666e-6
-1.300, 4.677e-6
-1.301, 4.777e-6
-1.302, 4.700e-6
-1.303, 4.699e-6
-1.304, 4.712e-6
-1.305, 4.738e-6
-1.306, 4.781e-6
-1.307, 4.761e-6
-1.308, 4.723e-6
-1.309, 4.763e-6
-1.310, 4.788e-6
-1.311, 4.845e-6
-1.312, 4.796e-6
-1.313, 4.804e-6
-1.314, 4.867e-6
-1.315, 4.854e-6
-1.316, 4.876e-6
-1.317, 4.838e-6
-1.318, 4.849e-6
-1.319, 4.886e-6
-1.320, 4.871e-6
-1.321, 4.941e-6
-1.322, 4.944e-6
-1.323, 4.879e-6
-1.324, 4.915e-6
-1.325, 4.960e-6
-1.326, 5.012e-6
-1.327, 4.992e-6
-1.328, 4.985e-6
-1.329, 4.968e-6
-1.330, 5.040e-6
-1.331, 5.030e-6
-1.332, 5.064e-6
-1.333, 5.026e-6
-1.334, 5.069e-6
-1.335, 5.082e-6
-1.336, 5.129e-6
-1.337, 5.068e-6
-1.338, 5.070e-6
-1.339, 5.098e-6
-1.340, 5.130e-6
-1.341, 5.229e-6
-1.342, 5.222e-6
-1.343, 5.196e-6
-1.344, 5.218e-6
-1.345, 5.256e-6
-1.346, 5.358e-6
-1.347, 5.232e-6
-1.348, 5.247e-6
-1.349, 5.269e-6
-1.350, 5.344e-6
-1.351, 5.392e-6
-1.352, 5.328e-6
-1.353, 5.345e-6
-1.354, 5.408e-6
-1.355, 5.413e-6
-1.356, 5.490e-6
-1.357, 5.474e-6
-1.358, 5.437e-6
-1.359, 5.476e-6
-1.360, 5.503e-6
-1.361, 5.535e-6
-1.362, 5.582e-6
-1.363, 5.566e-6
-1.364, 5.582e-6
-1.365, 5.664e-6
-1.366, 5.705e-6
-1.367, 5.702e-6
-1.368, 5.702e-6
-1.369, 5.695e-6
-1.370, 5.835e-6
-1.371, 5.894e-6
-1.372, 5.846e-6
-1.373, 5.880e-6
-1.374, 5.900e-6
-1.375, 5.971e-6
-1.376, 6.093e-6
-1.377, 6.109e-6
-1.378, 6.121e-6
-1.379, 6.154e-6
-1.380, 6.279e-6
-1.381, 6.365e-6
-1.382, 6.385e-6
-1.383, 6.448e-6
-1.384, 6.450e-6
-1.385, 6.574e-6
-1.386, 6.710e-6
-1.387, 6.679e-6
-1.388, 6.809e-6
-1.389, 6.898e-6
-1.390, 6.956e-6
-1.391, 7.092e-6
-1.392, 7.098e-6
-1.393, 7.149e-6
-1.394, 7.289e-6
-1.395, 7.377e-6
-1.396, 7.503e-6
-1.397, 7.612e-6
-1.398, 7.691e-6
-1.399, 7.797e-6
-1.400, 7.962e-6
-1.401, 8.115e-6
-1.402, 8.191e-6
-1.403, 8.336e-6
-1.404, 8.381e-6
-1.405, 8.571e-6
-1.406, 8.733e-6
-1.407, 8.838e-6
-1.408, 8.947e-6
-1.409, 9.132e-6
-1.410, 9.328e-6
-1.411, 9.467e-6
-1.412, 9.608e-6
-1.413, 9.781e-6
-1.414, 9.923e-6
-1.415, 1.012e-5
-1.416, 1.028e-5
-1.417, 1.045e-5
-1.418, 1.070e-5
-1.419, 1.086e-5
-1.420, 1.113e-5
-1.421, 1.137e-5
-1.422, 1.149e-5
-1.423, 1.170e-5
-1.424, 1.197e-5
-1.425, 1.223e-5
-1.426, 1.249e-5
-1.427, 1.267e-5
-1.428, 1.296e-5
-1.429, 1.320e-5
-1.430, 1.354e-5
-1.431, 1.383e-5
-1.432, 1.406e-5
-1.433, 1.439e-5
-1.434, 1.466e-5
-1.435, 1.498e-5
-1.436, 1.536e-5
-1.437, 1.562e-5
-1.438, 1.596e-5
-1.439, 1.633e-5
-1.440, 1.671e-5
-1.441, 1.708e-5
-1.442, 1.744e-5
-1.443, 1.780e-5
-1.444, 1.823e-5
-1.445, 1.863e-5
-1.446, 1.908e-5
-1.447, 1.951e-5
-1.448, 1.990e-5
-1.449, 2.037e-5
-1.450, 2.092e-5
-1.451, 2.138e-5
-1.452, 2.182e-5
-1.453, 2.235e-5
-1.454, 2.288e-5
-1.455, 2.343e-5
-1.456, 2.398e-5
-1.457, 2.453e-5
-1.458, 2.510e-5
-1.459, 2.565e-5
-1.460, 2.631e-5
-1.461, 2.694e-5
-1.462, 2.758e-5
-1.463, 2.822e-5
-1.464, 2.888e-5
-1.465, 2.962e-5
-1.466, 3.033e-5
-1.467, 3.104e-5
-1.468, 3.178e-5
-1.469, 3.252e-5
-1.470, 3.336e-5
-1.471, 3.418e-5
-1.472, 3.497e-5
-1.473, 3.581e-5
-1.474, 3.667e-5
-1.475, 3.759e-5
-1.476, 3.852e-5
-1.477, 3.947e-5
-1.478, 4.039e-5
-1.479, 4.137e-5
-1.480, 4.243e-5
-1.481, 4.340e-5
-1.482, 4.450e-5
-1.483, 4.554e-5
-1.484, 4.660e-5
-1.485, 4.782e-5
-1.486, 4.898e-5
-1.487, 5.012e-5
-1.488, 5.139e-5
-1.489, 5.260e-5
-1.490, 5.397e-5
-1.491, 5.523e-5
-1.492, 5.653e-5
-1.493, 5.786e-5
-1.494, 5.928e-5
-1.495, 6.083e-5
-1.496, 6.221e-5
-1.497, 6.371e-5
-1.498, 6.526e-5
-1.499, 6.678e-5
-1.500, 6.844e-5
-1.501, 7.005e-5
-1.502, 7.178e-5
-1.503, 7.343e-5
-1.504, 7.514e-5
-1.505, 7.702e-5
-1.506, 7.889e-5
-1.507, 8.070e-5
-1.508, 8.257e-5
-1.509, 8.455e-5
-1.510, 8.655e-5
-1.511, 8.862e-5
-1.512, 9.066e-5
-1.513, 9.273e-5
-1.514, 9.490e-5
-1.515, 9.717e-5
-1.516, 9.944e-5
-1.517, 1.017e-4
-1.518, 1.040e-4
-1.519, 1.064e-4
-1.520, 1.089e-4
-1.521, 1.114e-4
-1.522, 1.139e-4
-1.523, 1.164e-4
-1.524, 1.191e-4
-1.525, 1.218e-4
-1.526, 1.246e-4
-1.527, 1.273e-4
-1.528, 1.301e-4
-1.529, 1.330e-4
-1.530, 1.360e-4
-1.531, 1.390e-4
-1.532, 1.421e-4
-1.533, 1.452e-4
-1.534, 1.483e-4
-1.535, 1.516e-4
-1.536, 1.547e-4
-1.537, 1.581e-4
-1.538, 1.615e-4
-1.539, 1.649e-4
-1.540, 1.685e-4
-1.541, 1.721e-4
-1.542, 1.756e-4
-1.543, 1.793e-4
-1.544, 1.831e-4
-1.545, 1.870e-4
-1.546, 1.908e-4
-1.547, 1.948e-4
-1.548, 1.987e-4
-1.549, 2.027e-4
-1.550, 2.069e-4
-1.551, 2.112e-4
-1.552, 2.154e-4
-1.553, 2.198e-4
-1.554, 2.242e-4
-1.555, 2.287e-4
-1.556, 2.333e-4
-1.557, 2.380e-4
-1.558, 2.427e-4
-1.559, 2.475e-4
-1.560, 2.525e-4
-1.561, 2.575e-4
-1.562, 2.626e-4
-1.563, 2.677e-4
-1.564, 2.729e-4
-1.565, 2.783e-4
-1.566, 2.837e-4
-1.567, 2.891e-4
-1.568, 2.946e-4
-1.569, 3.003e-4
-1.570, 3.063e-4
-1.571, 3.123e-4
-1.572, 3.182e-4
-1.573, 3.243e-4
-1.574, 3.307e-4
-1.575, 3.371e-4
-1.576, 3.437e-4
-1.577, 3.503e-4
-1.578, 3.570e-4
-1.579, 3.639e-4
-1.580, 3.710e-4
-1.581, 3.780e-4
-1.582, 3.853e-4
-1.583, 3.925e-4
-1.584, 3.998e-4
-1.585, 4.076e-4
-1.586, 4.155e-4
-1.587, 4.233e-4
-1.588, 4.312e-4
-1.589, 4.394e-4
-1.590, 4.478e-4
-1.591, 4.562e-4
-1.592, 4.647e-4
-1.593, 4.733e-4
-1.594, 4.823e-4
-1.595, 4.915e-4
-1.596, 5.007e-4
-1.597, 5.102e-4
-1.598, 5.196e-4
-1.599, 5.292e-4
-1.600, 5.390e-4
-1.601, 5.488e-4
-1.602, 5.586e-4
-1.603, 5.687e-4
-1.604, 5.793e-4
-1.605, 5.898e-4
-1.606, 6.005e-4
-1.607, 6.115e-4
-1.608, 6.227e-4
-1.609, 6.340e-4
-1.610, 6.456e-4
-1.611, 6.572e-4
-1.612, 6.693e-4
-1.613, 6.812e-4
-1.614, 6.931e-4
-1.615, 7.055e-4
-1.616, 7.184e-4
-1.617, 7.315e-4
-1.618, 7.445e-4
-1.619, 7.576e-4
-1.620, 7.712e-4
-1.621, 7.846e-4
-1.622, 7.979e-4
-1.623, 8.114e-4
-1.624, 8.256e-4
-1.625, 8.403e-4
-1.626, 8.552e-4
-1.627, 8.702e-4
-1.628, 8.851e-4
-1.629, 9.001e-4
-1.630, 9.154e-4
-1.631, 9.309e-4
-1.632, 9.465e-4
-1.633, 9.623e-4
-1.634, 9.787e-4
-1.635, 9.955e-4
-1.636, 1.012e-3
-1.637, 1.029e-3
-1.638, 1.047e-3
-1.639, 1.064e-3
-1.640, 1.082e-3
-1.641, 1.100e-3
-1.642, 1.118e-3
-1.643, 1.136e-3
-1.644, 1.154e-3
-1.645, 1.173e-3
-1.646, 1.193e-3
-1.647, 1.212e-3
-1.648, 1.231e-3
-1.649, 1.251e-3
-1.650, 1.272e-3
-1.651, 1.292e-3
-1.652, 1.313e-3
-1.653, 1.333e-3
-1.654, 1.353e-3
-1.655, 1.374e-3
-1.656, 1.395e-3
-1.657, 1.418e-3
-1.658, 1.439e-3
-1.659, 1.460e-3
-1.660, 1.483e-3
-1.661, 1.506e-3
-1.662, 1.530e-3
-1.663, 1.553e-3
-1.664, 1.576e-3
-1.665, 1.599e-3
-1.666, 1.623e-3
-1.667, 1.647e-3
-1.668, 1.671e-3
-1.669, 1.696e-3
-1.670, 1.721e-3
-1.671, 1.747e-3
-1.672, 1.773e-3
-1.673, 1.798e-3
-1.674, 1.823e-3
-1.675, 1.850e-3
-1.676, 1.877e-3
-1.677, 1.902e-3
-1.678, 1.928e-3
-1.679, 1.956e-3
-1.680, 1.985e-3
-1.681, 2.013e-3
-1.682, 2.043e-3
-1.683, 2.071e-3
-1.684, 2.099e-3
-1.685, 2.126e-3
-1.686, 2.153e-3
-1.687, 2.181e-3
-1.688, 2.210e-3
-1.689, 2.240e-3
-1.690, 2.269e-3
-1.691, 2.300e-3
-1.692, 2.332e-3
-1.693, 2.362e-3
-1.694, 2.392e-3
-1.695, 2.424e-3
-1.696, 2.457e-3
-1.697, 2.488e-3
-1.698, 2.519e-3
-1.699, 2.549e-3
-1.700, 2.558e-3
-1.699, 2.538e-3
-1.698, 2.517e-3
-1.697, 2.494e-3
-1.696, 2.470e-3
-1.695, 2.447e-3
-1.694, 2.425e-3
-1.693, 2.399e-3
-1.692, 2.375e-3
-1.691, 2.351e-3
-1.690, 2.327e-3
-1.689, 2.303e-3
-1.688, 2.277e-3
-1.687, 2.252e-3
-1.686, 2.229e-3
-1.685, 2.206e-3
-1.684, 2.182e-3
-1.683, 2.157e-3
-1.682, 2.131e-3
-1.681, 2.107e-3
-1.680, 2.083e-3
-1.679, 2.059e-3
-1.678, 2.036e-3
-1.677, 2.014e-3
-1.676, 1.991e-3
-1.675, 1.967e-3
-1.674, 1.943e-3
-1.673, 1.919e-3
-1.672, 1.895e-3
-1.671, 1.872e-3
-1.670, 1.850e-3
-1.669, 1.829e-3
-1.668, 1.808e-3
-1.667, 1.785e-3
-1.666, 1.764e-3
-1.665, 1.742e-3
-1.664, 1.719e-3
-1.663, 1.696e-3
-1.662, 1.673e-3
-1.661, 1.653e-3
-1.660, 1.633e-3
-1.659, 1.613e-3
-1.658, 1.594e-3
-1.657, 1.574e-3
-1.656, 1.553e-3
-1.655, 1.532e-3
-1.654, 1.512e-3
-1.653, 1.491e-3
-1.652, 1.470e-3
-1.651, 1.451e-3
-1.650, 1.432e-3
-1.649, 1.414e-3
-1.648, 1.395e-3
-1.647, 1.376e-3
-1.646, 1.357e-3
-1.645, 1.339e-3
-1.644, 1.321e-3
-1.643, 1.303e-3
-1.642, 1.285e-3
-1.641, 1.267e-3
-1.640, 1.249e-3
-1.639, 1.232e-3
-1.638, 1.215e-3
-1.637, 1.197e-3
-1.636, 1.180e-3
-1.635, 1.163e-3
-1.634, 1.147e-3
-1.633, 1.131e-3
-1.632, 1.115e-3
-1.631, 1.099e-3
-1.630, 1.084e-3
-1.629, 1.069e-3
-1.628, 1.054e-3
-1.627, 1.038e-3
-1.626, 1.023e-3
-1.625, 1.007e-3
-1.624, 9.926e-4
-1.623, 9.782e-4
-1.622, 9.641e-4
-1.621, 9.501e-4
-1.620, 9.359e-4
-1.619, 9.215e-4
-1.618, 9.078e-4
-1.617, 8.939e-4
-1.616, 8.801e-4
-1.615, 8.669e-4
-1.614, 8.545e-4
-1.613, 8.414e-4
-1.612, 8.282e-4
-1.611, 8.159e-4
-1.610, 8.037e-4
-1.609, 7.914e-4
-1.608, 7.789e-4
-1.607, 7.666e-4
-1.606, 7.548e-4
-1.605, 7.432e-4
-1.604, 7.317e-4
-1.603, 7.199e-4
-1.602, 7.086e-4
-1.601, 6.974e-4
-1.600, 6.865e-4
-1.599, 6.756e-4
-1.598, 6.647e-4
-1.597, 6.541e-4
-1.596, 6.436e-4
-1.595, 6.331e-4
-1.594, 6.230e-4
-1.593, 6.130e-4
-1.592, 6.031e-4
-1.591, 5.931e-4
-1.590, 5.832e-4
-1.589, 5.737e-4
-1.588, 5.640e-4
-1.587, 5.546e-4
-1.586, 5.455e-4
-1.585, 5.365e-4
-1.584, 5.276e-4
-1.583, 5.184e-4
-1.582, 5.097e-4
-1.581, 5.011e-4
-1.580, 4.926e-4
-1.579, 4.842e-4
-1.578, 4.759e-4
-1.577, 4.678e-4
-1.576, 4.599e-4
-1.575, 4.518e-4
-1.574, 4.441e-4
-1.573, 4.364e-4
-1.572, 4.288e-4
-1.571, 4.213e-4
-1.570, 4.138e-4
-1.569, 4.067e-4
-1.568, 3.996e-4
-1.567, 3.926e-4
-1.566, 3.857e-4
-1.565, 3.788e-4
-1.564, 3.720e-4
-1.563, 3.653e-4
-1.562, 3.587e-4
-1.561, 3.522e-4
-1.560, 3.459e-4
-1.559, 3.397e-4
-1.558, 3.336e-4
-1.557, 3.274e-4
-1.556, 3.214e-4
-1.555, 3.154e-4
-1.554, 3.097e-4
-1.553, 3.038e-4
-1.552, 2.982e-4
-1.551, 2.927e-4
-1.550, 2.872e-4
-1.549, 2.820e-4
-1.548, 2.767e-4
-1.547, 2.715e-4
-1.546, 2.663e-4
-1.545, 2.612e-4
-1.544, 2.564e-4
-1.543, 2.514e-4
-1.542, 2.465e-4
-1.541, 2.419e-4
-1.540, 2.372e-4
-1.539, 2.328e-4
-1.538, 2.283e-4
-1.537, 2.238e-4
-1.536, 2.196e-4
-1.535, 2.152e-4
-1.534, 2.110e-4
-1.533, 2.070e-4
-1.532, 2.029e-4
-1.531, 1.989e-4
-1.530, 1.950e-4
-1.529, 1.912e-4
-1.528, 1.874e-4
-1.527, 1.836e-4
-1.526, 1.800e-4
-1.525, 1.764e-4
-1.524, 1.729e-4
-1.523, 1.694e-4
-1.522, 1.661e-4
-1.521, 1.627e-4
-1.520, 1.594e-4
-1.519, 1.563e-4
-1.518, 1.531e-4
-1.517, 1.499e-4
-1.516, 1.469e-4
-1.515, 1.439e-4
-1.514, 1.411e-4
-1.513, 1.382e-4
-1.512, 1.353e-4
-1.511, 1.325e-4
-1.510, 1.297e-4
-1.509, 1.271e-4
-1.508, 1.245e-4
-1.507, 1.219e-4
-1.506, 1.194e-4
-1.505, 1.169e-4
-1.504, 1.146e-4
-1.503, 1.122e-4
-1.502, 1.099e-4
-1.501, 1.076e-4
-1.500, 1.054e-4
-1.499, 1.032e-4
-1.498, 1.010e-4
-1.497, 9.886e-5
-1.496, 9.679e-5
-1.495, 9.475e-5
-1.494, 9.287e-5
-1.493, 9.092e-5
-1.492, 8.896e-5
-1.491, 8.705e-5
-1.490, 8.523e-5
-1.489, 8.339e-5
-1.488, 8.167e-5
-1.487, 7.982e-5
-1.486, 7.815e-5
-1.485, 7.648e-5
-1.484, 7.485e-5
-1.483, 7.328e-5
-1.482, 7.166e-5
-1.481, 7.012e-5
-1.480, 6.864e-5
-1.479, 6.720e-5
-1.478, 6.571e-5
-1.477, 6.425e-5
-1.476, 6.281e-5
-1.475, 6.146e-5
-1.474, 6.019e-5
-1.473, 5.883e-5
-1.472, 5.754e-5
-1.471, 5.630e-5
-1.470, 5.506e-5
-1.469, 5.390e-5
-1.468, 5.267e-5
-1.467, 5.147e-5
-1.466, 5.039e-5
-1.465, 4.922e-5
-1.464, 4.824e-5
-1.463, 4.714e-5
-1.462, 4.598e-5
-1.461, 4.501e-5
-1.460, 4.398e-5
-1.459, 4.302e-5
-1.458, 4.210e-5
-1.457, 4.110e-5
-1.456, 4.016e-5
-1.455, 3.928e-5
-1.454, 3.841e-5
-1.453, 3.756e-5
-1.452, 3.666e-5
-1.451, 3.579e-5
-1.450, 3.502e-5
-1.449, 3.426e-5
-1.448, 3.344e-5
-1.447, 3.267e-5
-1.446, 3.189e-5
-1.445, 3.120e-5
-1.444, 3.047e-5
-1.443, 2.976e-5
-1.442, 2.905e-5
-1.441, 2.836e-5
-1.440, 2.770e-5
-1.439, 2.709e-5
-1.438, 2.645e-5
-1.437, 2.581e-5
-1.436, 2.520e-5
-1.435, 2.462e-5
-1.434, 2.406e-5
-1.433, 2.347e-5
-1.432, 2.291e-5
-1.431, 2.232e-5
-1.430, 2.183e-5
-1.429, 2.132e-5
-1.428, 2.077e-5
-1.427, 2.024e-5
-1.426, 1.977e-5
-1.425, 1.931e-5
-1.424, 1.886e-5
-1.423, 1.838e-5
-1.422, 1.792e-5
-1.421, 1.746e-5
-1.420, 1.711e-5
-1.419, 1.668e-5
-1.418, 1.626e-5
-1.417, 1.576e-5
-1.416, 1.539e-5
-1.415, 1.508e-5
-1.414, 1.467e-5
-1.413, 1.436e-5
-1.412, 1.391e-5
-1.411, 1.357e-5
-1.410, 1.327e-5
-1.409, 1.292e-5
-1.408, 1.258e-5
-1.407, 1.225e-5
-1.406, 1.187e-5
-1.405, 1.166e-5
-1.404, 1.134e-5
-1.403, 1.104e-5
-1.402, 1.071e-5
-1.401, 1.037e-5
-1.400, 1.020e-5
-1.399, 9.918e-6
-1.398, 9.648e-6
-1.397, 9.394e-6
-1.396, 9.091e-6
-1.395, 8.891e-6
-1.394, 8.666e-6
-1.393, 8.442e-6
-1.392, 8.170e-6
-1.391, 7.879e-6
-1.390, 7.666e-6
-1.389, 7.541e-6
-1.388, 7.341e-6
-1.387, 7.081e-6
-1.386, 6.878e-6
-1.385, 6.698e-6
-1.384, 6.551e-6
-1.383, 6.340e-6
-1.382, 6.072e-6
-1.381, 5.845e-6
-1.380, 5.803e-6
-1.379, 5.596e-6
-1.378, 5.465e-6
-1.377, 5.259e-6
-1.376, 5.072e-6
-1.375, 4.975e-6
-1.374, 4.790e-6
-1.373, 4.660e-6
-1.372, 4.477e-6
-1.371, 4.308e-6
-1.370, 4.220e-6
-1.369, 4.109e-6
-1.368, 3.969e-6
-1.367, 3.836e-6
-1.366, 3.597e-6
-1.365, 3.572e-6
-1.364, 3.452e-6
-1.363, 3.300e-6
-1.362, 3.172e-6
-1.361, 3.024e-6
-1.360, 2.965e-6
-1.359, 2.879e-6
-1.358, 2.745e-6
-1.357, 2.615e-6
-1.356, 2.500e-6
-1.355, 2.402e-6
-1.354, 2.344e-6
-1.353, 2.275e-6
-1.352, 2.114e-6
-1.351, 1.997e-6
-1.350, 1.942e-6
-1.349, 1.863e-6
-1.348, 1.792e-6
-1.347, 1.655e-6
-1.346, 1.554e-6
-1.345, 1.554e-6
-1.344, 1.439e-6
-1.343, 1.362e-6
-1.342, 1.253e-6
-1.341, 1.176e-6
-1.340, 1.160e-6
-1.339, 1.080e-6
-1.338, 1.005e-6
-1.337, 8.917e-7
-1.336, 8.039e-7
-1.335, 7.930e-7
-1.334, 7.417e-7
-1.333, 6.845e-7
-1.332, 6.145e-7
-1.331, 5.000e-7
-1.330, 4.961e-7
-1.329, 4.102e-7
-1.328, 3.895e-7
-1.327, 2.760e-7
-1.326, 1.873e-7
-1.325, 2.050e-7
-1.324, 1.300e-7
-1.323, 1.133e-7
-1.322, 2.743e-8
-1.321, 9.669e-9
-1.320, -2.092e-8
-1.319, -8.899e-8
-1.318, -1.492e-7
-1.317, -2.360e-7
-1.316, -2.774e-7
-1.315, -2.863e-7
-1.314, -2.942e-7
-1.313, -3.455e-7
-1.312, -3.978e-7
-1.311, -4.895e-7
-1.310, -5.043e-7
-1.309, -5.162e-7
-1.308, -5.557e-7
-1.307, -6.612e-7
-1.306, -7.027e-7
-1.305, -7.332e-7
-1.304, -7.135e-7
-1.303, -7.510e-7
-1.302, -8.398e-7
-1.301, -8.487e-7
-1.300, -8.280e-7
-1.299, -9.237e-7
-1.298, -9.000e-7
-1.297, -1.019e-6
-1.296, -1.081e-6
-1.295, -1.027e-6
-1.294, -1.109e-6
-1.293, -1.053e-6
-1.292, -1.165e-6
-1.291, -1.240e-6
-1.290, -1.183e-6
-1.289, -1.196e-6
-1.288, -1.219e-6
-1.287, -1.319e-6
-1.286, -1.376e-6
-1.285, -1.352e-6
-1.284, -1.367e-6
-1.283, -1.403e-6
-1.282, -1.445e-6
-1.281, -1.507e-6
-1.280, -1.515e-6
-1.279, -1.500e-6
-1.278, -1.545e-6
-1.277, -1.621e-6
-1.276, -1.688e-6
-1.275, -1.659e-6
-1.274, -1.702e-6
-1.273, -1.712e-6
-1.272, -1.802e-6
-1.271, -1.792e-6
-1.270, -1.811e-6
-1.269, -1.825e-6
-1.268, -1.817e-6
-1.267, -1.931e-6
-1.266, -1.945e-6
-1.265, -1.947e-6
-1.264, -1.989e-6
-1.263, -1.963e-6
-1.262, -2.039e-6
-1.261, -2.096e-6
-1.260, -2.067e-6
-1.259, -2.119e-6
-1.258, -2.113e-6
-1.257, -2.183e-6
-1.256, -2.237e-6
-1.255, -2.265e-6
-1.254, -2.255e-6
-1.253, -2.277e-6
-1.252, -2.345e-6
-1.251, -2.375e-6
-1.250, -2.399e-6
-1.249, -2.405e-6
-1.248, -2.437e-6
-1.247, -2.520e-6
-1.246, -2.536e-6
-1.245, -2.517e-6
-1.244, -2.555e-6
-1.243, -2.545e-6
-1.242, -2.666e-6
-1.241, -2.677e-6
-1.240, -2.673e-6
-1.239, -2.718e-6
-1.238, -2.713e-6
-1.237, -2.798e-6
-1.236, -2.820e-6
-1.235, -2.795e-6
-1.234, -2.811e-6
-1.233, -2.817e-6
-1.232, -2.869e-6
-1.231, -2.923e-6
-1.230, -2.922e-6
-1.229, -2.998e-6
-1.228, -2.971e-6
-1.227, -3.049e-6
-1.226, -3.031e-6
-1.225, -3.026e-6
-1.224, -3.019e-6
-1.223, -2.999e-6
-1.222, -3.105e-6
-1.221, -3.127e-6
-1.220, -3.116e-6
-1.219, -3.145e-6
-1.218, -3.081e-6
-1.217, -3.174e-6
-1.216, -3.168e-6
-1.215, -3.177e-6
-1.214, -3.230e-6
-1.213, -3.161e-6
-1.212, -3.285e-6
-1.211, -3.303e-6
-1.210, -3.223e-6
-1.209, -3.262e-6
-1.208, -3.213e-6
-1.207, -3.284e-6
-1.206, -3.323e-6
-1.205, -3.277e-6
-1.204, -3.271e-6
-1.203, -3.318e-6
-1.202, -3.360e-6
-1.201, -3.322e-6
-1.200, -3.326e-6
-1.199, -3.311e-6
-1.198, -3.351e-6
-1.197, -3.386e-6
-1.196, -3.407e-6
-1.195, -3.391e-6
-1.194, -3.372e-6
-1.193, -3.364e-6
-1.192, -3.415e-6
-1.191, -3.405e-6
-1.190, -3.393e-6
-1.189, -3.405e-6
-1.188, -3.417e-6
-1.187, -3.520e-6
-1.186, -3.508e-6
-1.185, -3.447e-6
-1.184, -3.439e-6
-1.183, -3.422e-6
-1.182, -3.512e-6
-1.181, -3.493e-6
-1.180, -3.469e-6
-1.179, -3.554e-6
-1.178, -3.509e-6
-1.177, -3.606e-6
-1.176, -3.548e-6
-1.175, -3.504e-6
-1.174, -3.575e-6
-1.173, -3.544e-6
-1.172, -3.605e-6
-1.171, -3.608e-6
-1.170, -3.582e-6
-1.169, -3.569e-6
-1.168, -3.567e-6
-1.167, -3.618e-6
-1.166, -3.669e-6
-1.165, -3.641e-6
-1.164, -3.593e-6
-1.163, -3.593e-6
-1.162, -3.718e-6
-1.161, -3.730e-6
-1.160, -3.699e-6
-1.159, -3.672e-6
-1.158, -3.722e-6
-1.157, -3.759e-6
-1.156, -3.765e-6
-1.155, -3.743e-6
-1.154, -3.759e-6
-1.153, -3.746e-6
-1.152, -3.814e-6
-1.151, -3.811e-6
-1.150, -3.802e-6
-1.149, -3.794e-6
-1.148, -3.799e-6
-1.147, -3.896e-6
-1.146, -3.882e-6
-1.145, -3.833e-6
-1.144, -3.846e-6
-1.143, -3.818e-6
-1.142, -3.941e-6
-1.141, -3.922e-6
-1.140, -3.890e-6
-1.139, -3.933e-6
-1.138, -3.894e-6
-1.137, -4.008e-6
-1.136, -4.007e-6
-1.135, -3.976e-6
-1.134, -3.968e-6
-1.133, -3.958e-6
-1.132, -4.019e-6
-1.131, -4.021e-6
-1.130, -3.989e-6
-1.129, -4.031e-6
-1.128, -3.997e-6
-1.127, -4.090e-6
-1.126, -4.137e-6
-1.125, -4.072e-6
-1.124, -4.050e-6
-1.123, -4.061e-6
-1.122, -4.102e-6
-1.121, -4.135e-6
-1.120, -4.063e-6
-1.119, -4.084e-6
-1.118, -4.171e-6
-1.117, -4.204e-6
-1.116, -4.211e-6
-1.115, -4.174e-6
-1.114, -4.153e-6
-1.113, -4.170e-6
-1.112, -4.201e-6
-1.111, -4.234e-6
-1.110, -4.261e-6
-1.109, -4.182e-6
-1.108, -4.214e-6
-1.107, -4.351e-6
-1.106, -4.300e-6
-1.105, -4.287e-6
-1.104, -4.244e-6
-1.103, -4.256e-6
-1.102, -4.386e-6
-1.101, -4.352e-6
-1.100, -4.358e-6
-1.099, -4.359e-6
-1.098, -4.318e-6
-1.097, -4.421e-6
-1.096, -4.434e-6
-1.095, -4.375e-6
-1.094, -4.445e-6
-1.093, -4.377e-6
-1.092, -4.495e-6
-1.091, -4.500e-6
-1.090, -4.437e-6
-1.089, -4.468e-6
-1.088, -4.428e-6
-1.087, -4.577e-6
-1.086, -4.588e-6
-1.085, -4.540e-6
-1.084, -4.541e-6
-1.083, -4.535e-6
-1.082, -4.592e-6
-1.081, -4.615e-6
-1.080, -4.567e-6
-1.079, -4.615e-6
-1.078, -4.612e-6
-1.077, -4.721e-6
-1.076, -4.729e-6
-1.075, -4.768e-6
-1.074, -4.663e-6
-1.073, -4.656e-6
-1.072, -4.772e-6
-1.071, -4.790e-6
-1.070, -4.811e-6
-1.069, -4.758e-6
-1.068, -4.746e-6
-1.067, -4.914e-6
-1.066, -4.866e-6
-1.065, -4.868e-6
-1.064, -4.829e-6
-1.063, -4.785e-6
-1.062, -4.944e-6
-1.061, -4.899e-6
-1.060, -4.855e-6
-1.059, -4.894e-6
-1.058, -4.852e-6
-1.057, -4.988e-6
-1.056, -4.998e-6
-1.055, -4.931e-6
-1.054, -4.952e-6
-1.053, -4.910e-6
-1.052, -4.983e-6
-1.051, -5.037e-6
-1.050, -5.040e-6
-1.049, -5.025e-6
-1.048, -5.011e-6
-1.047, -5.139e-6
-1.046, -5.124e-6
-1.045, -5.165e-6
-1.044, -5.071e-6
-1.043, -5.069e-6
-1.042, -5.223e-6
-1.041, -5.217e-6
-1.040, -5.173e-6
-1.039, -5.150e-6
-1.038, -5.175e-6
-1.037, -5.330e-6
-1.036, -5.308e-6
-1.035, -5.314e-6
-1.034, -5.253e-6
-1.033, -5.243e-6
-1.032, -5.352e-6
-1.031, -5.347e-6
-1.030, -5.389e-6
-1.029, -5.356e-6
-1.028, -5.359e-6
-1.027, -5.510e-6
-1.026, -5.480e-6
-1.025, -5.458e-6
-1.024, -5.461e-6
-1.023, -5.418e-6
-1.022, -5.597e-6
-1.021, -5.544e-6
-1.020, -5.563e-6
-1.019, -5.528e-6
-1.018, -5.473e-6
-1.017, -5.645e-6
-1.016, -5.671e-6
-1.015, -5.610e-6
-1.014, -5.648e-6
-1.013, -5.617e-6
-1.012, -5.747e-6
-1.011, -5.761e-6
-1.010, -5.718e-6
-1.009, -5.688e-6
-1.008, -5.658e-6
-1.007, -5.768e-6
-1.006, -5.849e-6
-1.005, -5.799e-6
-1.004, -5.842e-6
-1.003, -5.848e-6
-1.002, -5.883e-6
-1.001, -5.895e-6
-1.000, -1.688e-6
-1.001, -4.027e-7
-1.002, 2.052e-8
-1.003, 1.853e-7
-1.004, 4.339e-7
-1.005, 6.628e-7
-1.006, 9.006e-7
-1.007, 1.100e-6
-1.008, 1.099e-6
-1.009, 1.240e-6
-1.010, 1.426e-6
-1.011, 1.546e-6
-1.012, 1.651e-6
-1.013, 1.653e-6
-1.014, 1.748e-6
-1.015, 1.871e-6
-1.016, 1.981e-6
-1.017, 2.081e-6
-1.018, 2.017e-6
-1.019, 2.095e-6
-1.020, 2.226e-6
-1.021, 2.320e-6
-1.022, 2.396e-6
-1.023, 2.397e-6
-1.024, 2.389e-6
-1.025, 2.489e-6
-1.026, 2.577e-6
-1.027, 2.586e-6
-1.028, 2.546e-6
-1.029, 2.608e-6
-1.030, 2.708e-6
-1.031, 2.794e-6
-1.032, 2.819e-6
-1.033, 2.794e-6
-1.034, 2.849e-6
-1.035, 2.837e-6
-1.036, 2.979e-6
-1.037, 2.980e-6
-1.038, 2.888e-6
-1.039, 2.956e-6
-1.040, 2.994e-6
-1.041, 3.128e-6
-1.042, 3.184e-6
-1.043, 3.084e-6
-1.044, 3.088e-6
-1.045, 3.194e-6
-1.046, 3.210e-6
-1.047, 3.266e-6
-1.048, 3.158e-6
-1.049, 3.176e-6
-1.050, 3.331e-6
-1.051, 3.334e-6
-1.052, 3.335e-6
-1.053, 3.318e-6
-1.054, 3.255e-6
-1.055, 3.389e-6
-1.056, 3.420e-6
-1.057, 3.447e-6
-1.058, 3.421e-6
-1.059, 3.358e-6
-1.060, 3.446e-6
-1.061, 3.500e-6
-1.062, 3.519e-6
-1.063, 3.462e-6
-1.064, 3.415e-6
-1.065, 3.514e-6
-1.066, 3.629e-6
-1.067, 3.613e-6
-1.068, 3.561e-6
-1.069, 3.517e-6
-1.070, 3.565e-6
-1.071, 3.710e-6
-1.072, 3.644e-6
-1.073, 3.638e-6
-1.074, 3.603e-6
-1.075, 3.722e-6
-1.076, 3.758e-6
-1.077, 3.743e-6
-1.078, 3.692e-6
-1.079, 3.661e-6
-1.080, 3.711e-6
-1.081, 3.785e-6
-1.082, 3.811e-6
-1.083, 3.770e-6
-1.084, 3.714e-6
-1.085, 3.808e-6
-1.086, 3.819e-6
-1.087, 3.879e-6
-1.088, 3.859e-6
-1.089, 3.733e-6
-1.090, 3.873e-6
-1.091, 3.897e-6
-1.092, 3.928e-6
-1.093, 3.923e-6
-1.094, 3.864e-6
-1.095, 3.905e-6
-1.096, 3.983e-6
-1.097, 3.964e-6
-1.098, 3.996e-6
-1.099, 3.899e-6
-1.100, 3.970e-6
-1.101, 4.084e-6
-1.102, 4.027e-6
-1.103, 4.058e-6
-1.104, 3.977e-6
-1.105, 4.006e-6
-1.106, 4.054e-6
-1.107, 4.102e-6
-1.108, 4.078e-6
-1.109, 4.009e-6
-1.110, 4.115e-6
-1.111, 4.170e-6
-1.112, 4.149e-6
-1.113, 4.153e-6
-1.114, 4.105e-6
-1.115, 4.170e-6
-1.116, 4.201e-6
-1.117, 4.186e-6
-1.118, 4.222e-6
-1.119, 4.114e-6
-1.120, 4.232e-6
-1.121, 4.242e-6
-1.122, 4.281e-6
-1.123, 4.274e-6
-1.124, 4.215e-6
-1.125, 4.257e-6
-1.126, 4.310e-6
-1.127, 4.355e-6
-1.128, 4.318e-6
-1.129, 4.257e-6
-1.130, 4.320e-6
-1.131, 4.399e-6
-1.132, 4.368e-6
-1.133, 4.395e-6
-1.134, 4.394e-6
-1.135, 4.471e-6
-1.136, 4.433e-6
-1.137, 4.458e-6
-1.138, 4.440e-6
-1.139, 4.383e-6
-1.140, 4.463e-6
-1.141, 4.515e-6
-1.142, 4.521e-6
-1.143, 4.547e-6
-1.144, 4.436e-6
-1.145, 4.522e-6
-1.146, 4.551e-6
-1.147, 4.524e-6
-1.148, 4.561e-6
-1.149, 4.487e-6
-1.150, 4.610e-6
-1.151, 4.690e-6
-1.152, 4.659e-6
-1.153, 4.628e-6
-1.154, 4.578e-6
-1.155, 4.580e-6
-1.156, 4.674e-6
-1.157, 4.679e-6
-1.158, 4.722e-6
-1.159, 4.675e-6
-1.160, 4.690e-6
-1.161, 4.803e-6
-1.162, 4.801e-6
-1.163, 4.786e-6
-1.164, 4.737e-6
-1.165, 4.766e-6
-1.166, 4.835e-6
-1.167, 4.865e-6
-1.168, 4.874e-6
-1.169, 4.812e-6
-1.170, 4.912e-6
-1.171, 4.954e-6
-1.172, 4.946e-6
-1.173, 4.939e-6
-1.174, 4.882e-6
-1.175, 4.936e-6
-1.176, 4.994e-6
-1.177, 5.018e-6
-1.178, 5.042e-6
-1.179, 4.904e-6
-1.180, 4.978e-6
-1.181, 5.091e-6
-1.182, 5.004e-6
-1.183, 5.038e-6
-1.184, 4.944e-6
-1.185, 4.944e-6
-1.186, 5.006e-6
-1.187, 5.015e-6
-1.188, 4.984e-6
-1.189, 4.905e-6
-1.190, 4.930e-6
-1.191, 4.951e-6
-1.192, 4.910e-6
-1.193, 4.900e-6
-1.194, 4.839e-6
-1.195, 4.863e-6
-1.196, 4.843e-6
-1.197, 4.899e-6
-1.198, 4.881e-6
-1.199, 4.783e-6
-1.200, 4.795e-6
-1.201, 4.822e-6
-1.202, 4.859e-6
-1.203, 4.811e-6
-1.204, 4.750e-6
-1.205, 4.808e-6
-1.206, 4.816e-6
-1.207, 4.821e-6
-1.208, 4.765e-6
-1.209, 4.700e-6
-1.210, 4.735e-6
-1.211, 4.752e-6
-1.212, 4.771e-6
-1.213, 4.780e-6
-1.214, 4.767e-6
-1.215, 4.754e-6
-1.216, 4.799e-6
-1.217, 4.716e-6
-1.218, 4.724e-6
-1.219, 4.686e-6
-1.220, 4.679e-6
-1.221, 4.726e-6
-1.222, 4.749e-6
-1.223, 4.751e-6
-1.224, 4.682e-6
-1.225, 4.693e-6
-1.226, 4.739e-6
-1.227, 4.733e-6
-1.228, 4.722e-6
-1.229, 4.659e-6
-1.230, 4.692e-6
-1.231, 4.716e-6
-1.232, 4.753e-6
-1.233, 4.681e-6
-1.234, 4.708e-6
-1.235, 4.703e-6
-1.236, 4.762e-6
-1.237, 4.793e-6
-1.238, 4.713e-6
-1.239, 4.648e-6
-1.240, 4.650e-6
-1.241, 4.709e-6
-1.242, 4.752e-6
-1.243, 4.689e-6
-1.244, 4.656e-6
-1.245, 4.666e-6
-1.246, 4.718e-6
-1.247, 4.715e-6
-1.248, 4.664e-6
-1.249, 4.640e-6
-1.250, 4.676e-6
-1.251, 4.722e-6
-1.252, 4.748e-6
-1.253, 4.711e-6
-1.254, 4.680e-6
-1.255, 4.653e-6
-1.256, 4.693e-6
-1.257, 4.688e-6
-1.258, 4.649e-6
-1.259, 4.658e-6
-1.260, 4.639e-6
-1.261, 4.734e-6
-1.262, 4.744e-6
-1.263, 4.672e-6
-1.264, 4.632e-6
-1.265, 4.631e-6
-1.266, 4.706e-6
-1.267, 4.681e-6
-1.268, 4.681e-6
-1.269, 4.694e-6
-1.270, 4.627e-6
-1.271, 4.712e-6
-1.272, 4.705e-6
-1.273, 4.701e-6
-1.274, 4.667e-6
-1.275, 4.635e-6
-1.276, 4.723e-6
-1.277, 4.719e-6
-1.278, 4.724e-6
-1.279, 4.704e-6
-1.280, 4.703e-6
-1.281, 4.733e-6
-1.282, 4.737e-6
-1.283, 4.712e-6
-1.284, 4.675e-6
-1.285, 4.658e-6
-1.286, 4.754e-6
-1.287, 4.772e-6
-1.288, 4.679e-6
-1.289, 4.716e-6
-1.290, 4.723e-6
-1.291, 4.733e-6
-1.292, 4.751e-6
-1.293, 4.700e-6
-1.294, 4.735e-6
-1.295, 4.755e-6
-1.296, 4.776e-6
-1.297, 4.789e-6
-1.298, 4.773e-6
-1.299, 4.721e-6
-1.300, 4.747e-6
-1.301, 4.820e-6
-1.302, 4.814e-6
-1.303, 4.826e-6
-1.304, 4.783e-6
-1.305, 4.777e-6
-1.306, 4.871e-6
-1.307, 4.811e-6
-1.308, 4.854e-6
-1.309, 4.809e-6
-1.310, 4.821e-6
-1.311, 4.966e-6
-1.312, 4.906e-6
-1.313, 4.903e-6
-1.314, 4.906e-6
-1.315, 4.855e-6
-1.316, 4.957e-6
-1.317, 4.937e-6
-1.318, 4.895e-6
-1.319, 4.957e-6
-1.320, 4.957e-6
-1.321, 5.021e-6
-1.322, 5.019e-6
-1.323, 5.031e-6
-1.324, 4.984e-6
-1.325, 5.014e-6
-1.326, 5.065e-6
-1.327, 5.089e-6
-1.328, 5.042e-6
-1.329, 5.040e-6
-1.330, 5.123e-6
-1.331, 5.192e-6
-1.332, 5.176e-6
-1.333, 5.202e-6
-1.334, 5.151e-6
-1.335, 5.178e-6
-1.336, 5.274e-6
-1.337, 5.265e-6
-1.338, 5.354e-6
-1.339, 5.287e-6
-1.340, 5.316e-6
-1.341, 5.439e-6
-1.342, 5.387e-6
-1.343, 5.395e-6
-1.344, 5.399e-6
-1.345, 5.408e-6
-1.346, 5.579e-6
-1.347, 5.543e-6
-1.348, 5.563e-6
-1.349, 5.570e-6
-1.350, 5.571e-6
-1.351, 5.714e-6
-1.352, 5.713e-6
-1.353, 5.694e-6
-1.354, 5.715e-6
-1.355, 5.732e-6
-1.356, 5.824e-6
-1.357, 5.858e-6
-1.358, 5.855e-6
-1.359, 5.839e-6
-1.360, 5.826e-6
-1.361, 5.961e-6
-1.362, 5.977e-6
-1.363, 5.992e-6
-1.364, 5.952e-6
-1.365, 5.986e-6
-1.366, 6.114e-6
-1.367, 6.154e-6
-1.368, 6.173e-6
-1.369, 6.131e-6
-1.370, 6.221e-6
-1.371, 6.273e-6
-1.372, 6.314e-6
-1.373, 6.353e-6
-1.374, 6.333e-6
-1.375, 6.446e-6
-1.376, 6.536e-6
-1.377, 6.567e-6
-1.378, 6.616e-6
-1.379, 6.647e-6
-1.380, 6.689e-6
-1.381, 6.897e-6
-1.382, 6.948e-6
-1.383, 6.954e-6
-1.384, 6.975e-6
-1.385, 7.042e-6
-1.386, 7.189e-6
-1.387, 7.345e-6
-1.388, 7.348e-6
-1.389, 7.421e-6
-1.390, 7.529e-6
-1.391, 7.687e-6
-1.392, 7.811e-6
-1.393, 7.823e-6
-1.394, 7.919e-6
-1.395, 8.009e-6
-1.396, 8.175e-6
-1.397, 8.327e-6
-1.398, 8.339e-6
-1.399, 8.502e-6
-1.400, 8.586e-6
-1.401, 8.815e-6
-1.402, 8.980e-6
-1.403, 9.082e-6
-1.404, 9.184e-6
-1.405, 9.295e-6
-1.406, 9.474e-6
-1.407, 9.737e-6
-1.408, 9.811e-6
-1.409, 9.957e-6
-1.410, 1.012e-5
-1.411, 1.032e-5
-1.412, 1.063e-5
-1.413, 1.073e-5
-1.414, 1.089e-5
-1.415, 1.114e-5
-1.416, 1.129e-5
-1.417, 1.159e-5
-1.418, 1.178e-5
-1.419, 1.195e-5
-1.420, 1.220e-5
-1.421, 1.247e-5
-1.422, 1.282e-5
-1.423, 1.302e-5
-1.424, 1.319e-5
-1.425, 1.347e-5
-1.426, 1.382e-5
-1.427, 1.413e-5
-1.428, 1.439e-5
-1.429, 1.470e-5
-1.430, 1.499e-5
-1.431, 1.534e-5
-1.432, 1.575e-5
-1.433, 1.601e-5
-1.434, 1.640e-5
-1.435, 1.672e-5
-1.436, 1.710e-5
-1.437, 1.760e-5
-1.438, 1.791e-5
-1.439, 1.828e-5
-1.440, 1.874e-5
-1.441, 1.914e-5
-1.442, 1.964e-5
-1.443, 2.007e-5
-1.444, 2.048e-5
-1.445, 2.100e-5
-1.446, 2.153e-5
-1.447, 2.206e-5
-1.448, 2.253e-5
-1.449, 2.302e-5
-1.450, 2.360e-5
-1.451, 2.419e-5
-1.452, 2.481e-5
-1.453, 2.538e-5
-1.454, 2.596e-5
-1.455, 2.659e-5
-1.456, 2.723e-5
-1.457, 2.795e-5
-1.458, 2.860e-5
-1.459, 2.929e-5
-1.460, 3.002e-5
-1.461, 3.071e-5
-1.462, 3.157e-5
-1.463, 3.235e-5
-1.464, 3.303e-5
-1.465, 3.392e-5
-1.466, 3.476e-5
-1.467, 3.563e-5
-1.468, 3.656e-5
-1.469, 3.736e-5
-1.470, 3.833e-5
-1.471, 3.931e-5
-1.472, 4.034e-5
-1.473, 4.135e-5
-1.474, 4.233e-5
-1.475, 4.338e-5
-1.476, 4.446e-5
-1.477, 4.560e-5
-1.478, 4.674e-5
-1.479, 4.788e-5
-1.480, 4.904e-5
-1.481, 5.028e-5
-1.482, 5.161e-5
-1.483, 5.285e-5
-1.484, 5.414e-5
-1.485, 5.547e-5
-1.486, 5.688e-5
-1.487, 5.834e-5
-1.488, 5.977e-5
-1.489, 6.119e-5
-1.490, 6.274e-5
-1.491, 6.423e-5
-1.492, 6.595e-5
-1.493, 6.752e-5
-1.494, 6.914e-5
-1.495, 7.086e-5
-1.496, 7.255e-5
-1.497, 7.437e-5
-1.498, 7.623e-5
-1.499, 7.805e-5
-1.500, 7.996e-5
-1.501, 8.192e-5
-1.502, 8.393e-5
-1.503, 8.596e-5
-1.504, 8.797e-5
-1.505, 9.009e-5
-1.506, 9.233e-5
-1.507, 9.449e-5
-1.508, 9.677e-5
-1.509, 9.905e-5
-1.510, 1.014e-4
-1.511, 1.039e-4
-1.512, 1.063e-4
-1.513, 1.088e-4
-1.514, 1.114e-4
-1.515, 1.139e-4
-1.516, 1.167e-4
-1.517, 1.194e-4
-1.518, 1.221e-4
-1.519, 1.250e-4
-1.520, 1.278e-4
-1.521, 1.308e-4
-1.522, 1.339e-4
-1.523, 1.369e-4
-1.524, 1.401e-4
-1.525, 1.432e-4
-1.526, 1.465e-4
-1.527, 1.499e-4
-1.528, 1.533e-4
-1.529, 1.567e-4
-1.530, 1.602e-4
-1.531, 1.638e-4
-1.532, 1.675e-4
-1.533, 1.713e-4
-1.534, 1.750e-4
-1.535, 1.790e-4
-1.536, 1.829e-4
-1.537, 1.869e-4
-1.538, 1.911e-4
-1.539, 1.952e-4
-1.540, 1.993e-4
-1.541, 2.037e-4
-1.542, 2.081e-4
-1.543, 2.126e-4
-1.544, 2.171e-4
-1.545, 2.216e-4
-1.546, 2.263e-4
-1.547, 2.311e-4
-1.548, 2.360e-4
-1.549, 2.408e-4
-1.550, 2.458e-4
-1.551, 2.509e-4
-1.552, 2.561e-4
-1.553, 2.613e-4
-1.554, 2.666e-4
-1.555, 2.720e-4
-1.556, 2.775e-4
-1.557, 2.830e-4
-1.558, 2.888e-4
-1.559, 2.944e-4
-1.560, 3.002e-4
-1.561, 3.060e-4
-1.562, 3.120e-4
-1.563, 3.181e-4
-1.564, 3.242e-4
-1.565, 3.305e-4
-1.566, 3.369e-4
-1.567, 3.433e-4
-1.568, 3.499e-4
-1.569, 3.565e-4
-1.570, 3.631e-4
-1.571, 3.699e-4
-1.572, 3.768e-4
-1.573, 3.838e-4
-1.574, 3.909e-4
-1.575, 3.980e-4
-1.576, 4.053e-4
-1.577, 4.128e-4
-1.578, 4.205e-4
-1.579, 4.281e-4
-1.580, 4.358e-4
-1.581, 4.437e-4
-1.582, 4.519e-4
-1.583, 4.601e-4
-1.584, 4.682e-4
-1.585, 4.767e-4
-1.586, 4.852e-4
-1.587, 4.940e-4
-1.588, 5.029e-4
-1.589, 5.117e-4
-1.590, 5.207e-4
-1.591, 5.301e-4
-1.592, 5.394e-4
-1.593, 5.489e-4
-1.594, 5.585e-4
-1.595, 5.685e-4
-1.596, 5.785e-4
-1.597, 5.886e-4
-1.598, 5.988e-4
-1.599, 6.090e-4
-1.600, 6.195e-4
-1.601, 6.304e-4
-1.602, 6.413e-4
-1.603, 6.522e-4
-1.604, 6.635e-4
-1.605, 6.749e-4
-1.606, 6.863e-4
-1.607, 6.981e-4
-1.608, 7.101e-4
-1.609, 7.220e-4
-1.610, 7.340e-4
-1.611, 7.463e-4
-1.612, 7.591e-4
-1.613, 7.720e-4
-1.614, 7.850e-4
-1.615, 7.982e-4
-1.616, 8.110e-4
-1.617, 8.243e-4
-1.618, 8.380e-4
-1.619, 8.516e-4
-1.620, 8.656e-4
-1.621, 8.799e-4
-1.622, 8.945e-4
-1.623, 9.089e-4
-1.624, 9.238e-4
-1.625, 9.391e-4
-1.626, 9.544e-4
-1.627, 9.697e-4
-1.628, 9.853e-4
-1.629, 1.001e-3
-1.630, 1.017e-3
-1.631, 1.032e-3
-1.632, 1.048e-3
-1.633, 1.063e-3
-1.634, 1.081e-3
-1.635, 1.097e-3
-1.636, 1.113e-3
-1.637, 1.130e-3
-1.638, 1.148e-3
-1.639, 1.166e-3
-1.640, 1.184e-3
-1.641, 1.202e-3
-1.642, 1.220e-3
-1.643, 1.238e-3
-1.644, 1.257e-3
-1.645, 1.276e-3
-1.646, 1.296e-3
-1.647, 1.315e-3
-1.648, 1.334e-3
-1.649, 1.353e-3
-1.650, 1.373e-3
-1.651, 1.394e-3
-1.652, 1.415e-3
-1.653, 1.436e-3
-1.654, 1.456e-3
-1.655, 1.476e-3
-1.656, 1.497e-3
-1.657, 1.520e-3
-1.658, 1.541e-3
-1.659, 1.562e-3
-1.660, 1.585e-3
-1.661, 1.607e-3
-1.662, 1.630e-3
-1.663, 1.653e-3
-1.664, 1.676e-3
-1.665, 1.699e-3
-1.666, 1.722e-3
-1.667, 1.746e-3
-1.668, 1.771e-3
-1.669, 1.795e-3
-1.670, 1.820e-3
-1.671, 1.844e-3
-1.672, 1.868e-3
-1.673, 1.893e-3
-1.674, 1.918e-3
-1.675, 1.944e-3
-1.676, 1.970e-3
-1.677, 1.997e-3
-1.678, 2.023e-3
-1.679, 2.049e-3
-1.680, 2.076e-3
-1.681, 2.103e-3
-1.682, 2.128e-3
-1.683, 2.154e-3
-1.684, 2.183e-3
-1.685, 2.211e-3
-1.686, 2.240e-3
-1.687, 2.267e-3
-1.688, 2.296e-3
-1.689, 2.326e-3
-1.690, 2.355e-3
-1.691, 2.384e-3
-1.692, 2.411e-3
-1.693, 2.441e-3
-1.694, 2.472e-3
-1.695, 2.503e-3
-1.696, 2.534e-3
-1.697, 2.563e-3
-1.698, 2.592e-3
-1.699, 2.625e-3
-1.700, 2.633e-3
-1.699, 2.610e-3
-1.698, 2.586e-3
-1.697, 2.559e-3
-1.696, 2.535e-3
-1.695, 2.512e-3
-1.694, 2.488e-3
-1.693, 2.463e-3
-1.692, 2.436e-3
-1.691, 2.412e-3
-1.690, 2.387e-3
-1.689, 2.361e-3
-1.688, 2.337e-3
-1.687, 2.314e-3
-1.686, 2.289e-3
-1.685, 2.264e-3
-1.684, 2.238e-3
-1.683, 2.212e-3
-1.682, 2.188e-3
-1.681, 2.165e-3
-1.680, 2.141e-3
-1.679, 2.117e-3
-1.678, 2.092e-3
-1.677, 2.068e-3
-1.676, 2.044e-3
-1.675, 2.020e-3
-1.674, 1.998e-3
-1.673, 1.975e-3
-1.672, 1.949e-3
-1.671, 1.926e-3
-1.670, 1.905e-3
-1.669, 1.883e-3
-1.668, 1.861e-3
-1.667, 1.837e-3
-1.666, 1.815e-3
-1.665, 1.793e-3
-1.664, 1.771e-3
-1.663, 1.748e-3
-1.662, 1.726e-3
-1.661, 1.705e-3
-1.660, 1.684e-3
-1.659, 1.663e-3
-1.658, 1.643e-3
-1.657, 1.623e-3
-1.656, 1.603e-3
-1.655, 1.582e-3
-1.654, 1.563e-3
-1.653, 1.542e-3
-1.652, 1.521e-3
-1.651, 1.501e-3
-1.650, 1.481e-3
-1.649, 1.462e-3
-1.648, 1.443e-3
-1.647, 1.424e-3
-1.646, 1.406e-3
-1.645, 1.388e-3
-1.644, 1.369e-3
-1.643, 1.350e-3
-1.642, 1.332e-3
-1.641, 1.314e-3
-1.640, 1.296e-3
-1.639, 1.278e-3
-1.638, 1.261e-3
-1.637, 1.244e-3
-1.636, 1.227e-3
-1.635, 1.210e-3
-1.634, 1.192e-3
-1.633, 1.176e-3
-1.632, 1.159e-3
-1.631, 1.143e-3
-1.630, 1.127e-3
-1.629, 1.112e-3
-1.628, 1.096e-3
-1.627, 1.080e-3
-1.626, 1.065e-3
-1.625, 1.050e-3
-1.624, 1.034e-3
-1.623, 1.019e-3
-1.622, 1.005e-3
-1.621, 9.908e-4
-1.620, 9.764e-4
-1.619, 9.621e-4
-1.618, 9.481e-4
-1.617, 9.338e-4
-1.616, 9.192e-4
-1.615, 9.054e-4
-1.614, 8.918e-4
-1.613, 8.779e-4
-1.612, 8.649e-4
-1.611, 8.522e-4
-1.610, 8.395e-4
-1.609, 8.269e-4
-1.608, 8.142e-4
-1.607, 8.018e-4
-1.606, 7.895e-4
-1.605, 7.772e-4
-1.604, 7.651e-4
-1.603, 7.529e-4
-1.602, 7.411e-4
-1.601, 7.296e-4
-1.600, 7.183e-4
-1.599, 7.069e-4
-1.598, 6.955e-4
-1.597, 6.845e-4
-1.596, 6.735e-4
-1.595, 6.625e-4
-1.594, 6.518e-4
-1.593, 6.416e-4
-1.592, 6.313e-4
-1.591, 6.211e-4
-1.590, 6.109e-4
-1.589, 6.008e-4
-1.588, 5.909e-4
-1.587, 5.812e-4
-1.586, 5.716e-4
-1.585, 5.619e-4
-1.584, 5.525e-4
-1.583, 5.434e-4
-1.582, 5.344e-4
-1.581, 5.254e-4
-1.580, 5.163e-4
-1.579, 5.073e-4
-1.578, 4.989e-4
-1.577, 4.903e-4
-1.576, 4.820e-4
-1.575, 4.736e-4
-1.574, 4.654e-4
-1.573, 4.576e-4
-1.572, 4.496e-4
-1.571, 4.417e-4
-1.570, 4.339e-4
-1.569, 4.262e-4
-1.568, 4.188e-4
-1.567, 4.113e-4
-1.566, 4.040e-4
-1.565, 3.969e-4
-1.564, 3.897e-4
-1.563, 3.826e-4
-1.562, 3.757e-4
-1.561, 3.690e-4
-1.560, 3.623e-4
-1.559, 3.557e-4
-1.558, 3.492e-4
-1.557, 3.428e-4
-1.556, 3.364e-4
-1.555, 3.302e-4
-1.554, 3.240e-4
-1.553, 3.179e-4
-1.552, 3.121e-4
-1.551, 3.063e-4
-1.550, 3.005e-4
-1.549, 2.949e-4
-1.548, 2.894e-4
-1.547, 2.840e-4
-1.546, 2.786e-4
-1.545, 2.732e-4
-1.544, 2.680e-4
-1.543, 2.629e-4
-1.542, 2.578e-4
-1.541, 2.528e-4
-1.540, 2.479e-4
-1.539, 2.431e-4
-1.538, 2.384e-4
-1.537, 2.337e-4
-1.536, 2.291e-4
-1.535, 2.246e-4
-1.534, 2.202e-4
-1.533, 2.158e-4
-1.532, 2.115e-4
-1.531, 2.073e-4
-1.530, 2.031e-4
-1.529, 1.990e-4
-1.528, 1.951e-4
-1.527, 1.912e-4
-1.526, 1.874e-4
-1.525, 1.836e-4
-1.524, 1.799e-4
-1.523, 1.763e-4
-1.522, 1.726e-4
-1.521, 1.691e-4
-1.520, 1.656e-4
-1.519, 1.622e-4
-1.518, 1.589e-4
-1.517, 1.557e-4
-1.516, 1.525e-4
-1.515, 1.493e-4
-1.514, 1.462e-4
-1.513, 1.432e-4
-1.512, 1.403e-4
-1.511, 1.373e-4
-1.510, 1.344e-4
-1.509, 1.317e-4
-1.508, 1.289e-4
-1.507, 1.263e-4
-1.506, 1.236e-4
-1.505, 1.210e-4
-1.504, 1.185e-4
-1.503, 1.160e-4
-1.502, 1.135e-4
-1.501, 1.112e-4
-1.500, 1.088e-4
-1.499, 1.065e-4
-1.498, 1.042e-4
-1.497, 1.020e-4
-1.496, 9.984e-5
-1.495, 9.771e-5
-1.494, 9.556e-5
-1.493, 9.360e-5
-1.492, 9.158e-5
-1.491, 8.957e-5
-1.490, 8.763e-5
-1.489, 8.564e-5
-1.488, 8.387e-5
-1.487, 8.207e-5
-1.486, 8.017e-5
-1.485, 7.844e-5
-1.484, 7.674e-5
-1.483, 7.501e-5
-1.482, 7.345e-5
-1.481, 7.181e-5
-1.480, 7.017e-5
-1.479, 6.868e-5
-1.478, 6.715e-5
-1.477, 6.568e-5
-1.476, 6.418e-5
-1.475, 6.274e-5
-1.474, 6.134e-5
-1.473, 6.001e-5
-1.472, 5.863e-5
-1.471, 5.734e-5
-1.470, 5.600e-5
-1.469, 5.473e-5
-1.468, 5.356e-5
-1.467, 5.231e-5
-1.466, 5.113e-5
-1.465, 4.996e-5
-1.464, 4.882e-5
-1.463, 4.776e-5
-1.462, 4.662e-5
-1.461, 4.555e-5
-1.460, 4.451e-5
-1.459, 4.345e-5
-1.458, 4.250e-5
-1.457, 4.148e-5
-1.456, 4.052e-5
-1.455, 3.956e-5
-1.454, 3.867e-5
-1.453, 3.780e-5
-1.452, 3.691e-5
-1.451, 3.604e-5
-1.450, 3.515e-5
-1.449, 3.435e-5
-1.448, 3.358e-5
-1.447, 3.276e-5
-1.446, 3.199e-5
-1.445, 3.120e-5
-1.444, 3.049e-5
-1.443, 2.982e-5
-1.442, 2.908e-5
-1.441, 2.839e-5
-1.440, 2.769e-5
-1.439, 2.699e-5
-1.438, 2.641e-5
-1.437, 2.576e-5
-1.436, 2.510e-5
-1.435, 2.450e-5
-1.434, 2.387e-5
-1.433, 2.336e-5
-1.432, 2.280e-5
-1.431, 2.218e-5
-1.430, 2.163e-5
-1.429, 2.108e-5
-1.428, 2.064e-5
-1.427, 2.010e-5
-1.426, 1.960e-5
-1.425, 1.911e-5
-1.424, 1.863e-5
-1.423, 1.824e-5
-1.422, 1.775e-5
-1.421, 1.731e-5
-1.420, 1.681e-5
-1.419, 1.637e-5
-1.418, 1.605e-5
-1.417, 1.560e-5
-1.416, 1.522e-5
-1.415, 1.478e-5
-1.414, 1.439e-5
-1.413, 1.412e-5
-1.412, 1.371e-5
-1.411, 1.333e-5
-1.410, 1.298e-5
-1.409, 1.258e-5
-1.408, 1.235e-5
-1.407, 1.200e-5
-1.406, 1.162e-5
-1.405, 1.138e-5
-1.404, 1.105e-5
-1.403, 1.079e-5
-1.402, 1.050e-5
-1.401, 1.019e-5
-1.400, 9.901e-6
-1.399, 9.594e-6
-1.398, 9.420e-6
-1.397, 9.181e-6
-1.396, 8.918e-6
-1.395, 8.617e-6
-1.394, 8.390e-6
-1.393, 8.196e-6
-1.392, 7.966e-6
-1.391, 7.768e-6
-1.390, 7.447e-6
-1.389, 7.217e-6
-1.388, 7.148e-6
-1.387, 6.855e-6
-1.386, 6.715e-6
-1.385, 6.448e-6
-1.384, 6.250e-6
-1.383, 6.128e-6
-1.382, 5.924e-6
-1.381, 5.721e-6
-1.380, 5.535e-6
-1.379, 5.314e-6
-1.378, 5.248e-6
-1.377, 5.101e-6
-1.376, 4.873e-6
-1.375, 4.744e-6
-1.374, 4.563e-6
-1.373, 4.510e-6
-1.372, 4.330e-6
-1.371, 4.164e-6
-1.370, 3.956e-6
-1.369, 3.845e-6
-1.368, 3.810e-6
-1.367, 3.687e-6
-1.366, 3.504e-6
-1.365, 3.386e-6
-1.364, 3.242e-6
-1.363, 3.150e-6
-1.362, 3.034e-6
-1.361, 2.910e-6
-1.360, 2.804e-6
-1.359, 2.703e-6
-1.358, 2.690e-6
-1.357, 2.566e-6
-1.356, 2.405e-6
-1.355, 2.253e-6
-1.354, 2.179e-6
-1.353, 2.143e-6
-1.352, 2.045e-6
-1.351, 1.943e-6
-1.350, 1.855e-6
-1.349, 1.772e-6
-1.348, 1.714e-6
-1.347, 1.629e-6
-1.346, 1.560e-6
-1.345, 1.377e-6
-1.344, 1.320e-6
-1.343, 1.324e-6
-1.342, 1.274e-6
-1.341, 1.244e-6
-1.340, 1.044e-6
-1.339, 9.775e-7
-1.338, 9.726e-7
-1.337, 9.025e-7
-1.336, 8.315e-7
-1.335, 7.299e-7
-1.334, 6.756e-7
-1.333, 7.092e-7
-1.332, 6.440e-7
-1.331, 5.306e-7
-1.330, 4.349e-7
-1.329, 3.204e-7
-1.328, 3.708e-7
-1.327, 3.431e-7
-1.326, 2.060e-7
-1.325, 1.932e-7
-1.324, 1.142e-7
-1.323, 1.064e-7
-1.322, 1.192e-7
-1.321, -2.190e-8
-1.320, -3.473e-8
-1.319, -7.222e-8
-1.318, -1.561e-7
-1.317, -1.324e-7
-1.316, -2.123e-7
-1.315, -3.179e-7
-1.314, -3.268e-7
-1.313, -3.741e-7
-1.312, -3.199e-7
-1.311, -3.504e-7
-1.310, -4.274e-7
-1.309, -4.895e-7
-1.308, -5.162e-7
-1.307, -5.261e-7
-1.306, -6.050e-7
-1.305, -6.592e-7
-1.304, -7.056e-7
-1.303, -7.155e-7
-1.302, -6.750e-7
-1.301, -7.609e-7
-1.300, -7.944e-7
-1.299, -8.881e-7
-1.298, -9.217e-7
-1.297, -8.388e-7
-1.296, -9.562e-7
-1.295, -9.996e-7
-1.294, -1.021e-6
-1.293, -1.032e-6
-1.292, -1.008e-6
-1.291, -1.046e-6
-1.290, -1.150e-6
-1.289, -1.220e-6
-1.288, -1.183e-6
-1.287, -1.189e-6
-1.286, -1.272e-6
-1.285, -1.318e-6
-1.284, -1.308e-6
-1.283, -1.335e-6
-1.282, -1.268e-6
-1.281, -1.363e-6
-1.280, -1.468e-6
-1.279, -1.474e-6
-1.278, -1.552e-6
-1.277, -1.462e-6
-1.276, -1.559e-6
-1.275, -1.604e-6
-1.274, -1.588e-6
-1.273, -1.637e-6
-1.272, -1.582e-6
-1.271, -1.680e-6
-1.270, -1.756e-6
-1.269, -1.784e-6
-1.268, -1.772e-6
-1.267, -1.764e-6
-1.266, -1.803e-6
-1.265, -1.909e-6
-1.264, -1.901e-6
-1.263, -1.912e-6
-1.262, -1.924e-6
-1.261, -1.979e-6
-1.260, -2.057e-6
-1.259, -2.078e-6
-1.258, -2.111e-6
-1.257, -2.059e-6
-1.256, -2.139e-6
-1.255, -2.195e-6
-1.254, -2.248e-6
-1.253, -2.282e-6
-1.252, -2.208e-6
-1.251, -2.313e-6
-1.250, -2.394e-6
-1.249, -2.397e-6
-1.248, -2.395e-6
-1.247, -2.378e-6
-1.246, -2.395e-6
-1.245, -2.516e-6
-1.244, -2.510e-6
-1.243, -2.515e-6
-1.242, -2.497e-6
-1.241, -2.591e-6
-1.240, -2.648e-6
-1.239, -2.678e-6
-1.238, -2.669e-6
-1.237, -2.618e-6
-1.236, -2.685e-6
-1.235, -2.766e-6
-1.234, -2.734e-6
-1.233, -2.773e-6
-1.232, -2.740e-6
-1.231, -2.792e-6
-1.230, -2.859e-6
-1.229, -2.901e-6
-1.228, -2.865e-6
-1.227, -2.831e-6
-1.226, -2.868e-6
-1.225, -2.983e-6
-1.224, -2.930e-6
-1.223, -2.963e-6
-1.222, -2.969e-6
-1.221, -2.940e-6
-1.220, -3.029e-6
-1.219, -2.990e-6
-1.218, -2.967e-6
-1.217, -2.950e-6
-1.216, -2.949e-6
-1.215, -3.019e-6
-1.214, -3.119e-6
-1.213, -3.078e-6
-1.212, -3.045e-6
-1.211, -3.069e-6
-1.210, -3.069e-6
-1.209, -3.104e-6
-1.208, -3.121e-6
-1.207, -3.025e-6
-1.206, -3.100e-6
-1.205, -3.179e-6
-1.204, -3.180e-6
-1.203, -3.151e-6
-1.202, -3.094e-6
-1.201, -3.098e-6
-1.200, -3.186e-6
-1.199, -3.170e-6
-1.198, -3.210e-6
-1.197, -3.162e-6
-1.196, -3.190e-6
-1.195, -3.235e-6
-1.194, -3.225e-6
-1.193, -3.204e-6
-1.192, -3.150e-6
-1.191, -3.232e-6
-1.190, -3.276e-6
-1.189, -3.274e-6
-1.188, -3.260e-6
-1.187, -3.245e-6
-1.186, -3.268e-6
-1.185, -3.330e-6
-1.184, -3.340e-6
-1.183, -3.284e-6
-1.182, -3.286e-6
-1.181, -3.319e-6
-1.180, -3.335e-6
-1.179, -3.416e-6
-1.178, -3.385e-6
-1.177, -3.350e-6
-1.176, -3.375e-6
-1.175, -3.394e-6
-1.174, -3.443e-6
-1.173, -3.362e-6
-1.172, -3.397e-6
-1.171, -3.405e-6
-1.170, -3.464e-6
-1.169, -3.497e-6
-1.168, -3.428e-6
-1.167, -3.434e-6
-1.166, -3.506e-6
-1.165, -3.514e-6
-1.164, -3.589e-6
-1.163, -3.493e-6
-1.162, -3.543e-6
-1.161, -3.548e-6
-1.160, -3.566e-6
-1.159, -3.617e-6
-1.158, -3.563e-6
-1.157, -3.560e-6
-1.156, -3.602e-6
-1.155, -3.633e-6
-1.154, -3.679e-6
-1.153, -3.684e-6
-1.152, -3.636e-6
-1.151, -3.647e-6
-1.150, -3.703e-6
-1.149, -3.722e-6
-1.148, -3.711e-6
-1.147, -3.683e-6
-1.146, -3.695e-6
-1.145, -3.777e-6
-1.144, -3.776e-6
-1.143, -3.739e-6
-1.142, -3.775e-6
-1.141, -3.732e-6
-1.140, -3.828e-6
-1.139, -3.857e-6
-1.138, -3.798e-6
-1.137, -3.833e-6
-1.136, -3.783e-6
-1.135, -3.879e-6
-1.134, -3.912e-6
-1.133, -3.873e-6
-1.132, -3.843e-6
-1.131, -3.893e-6
-1.130, -3.944e-6
-1.129, -4.000e-6
-1.128, -3.940e-6
-1.127, -3.897e-6
-1.126, -3.930e-6
-1.125, -3.981e-6
-1.124, -4.043e-6
-1.123, -4.037e-6
-1.122, -3.986e-6
-1.121, -4.002e-6
-1.120, -4.062e-6
-1.119, -4.078e-6
-1.118, -4.082e-6
-1.117, -4.034e-6
-1.116, -4.036e-6
-1.115, -4.137e-6
-1.114, -4.190e-6
-1.113, -4.123e-6
-1.112, -4.144e-6
-1.111, -4.088e-6
-1.110, -4.192e-6
-1.109, -4.188e-6
-1.108, -4.159e-6
-1.107, -4.172e-6
-1.106, -4.163e-6
-1.105, -4.247e-6
-1.104, -4.265e-6
-1.103, -4.233e-6
-1.102, -4.255e-6
-1.101, -4.241e-6
-1.100, -4.298e-6
-1.099, -4.320e-6
-1.098, -4.292e-6
-1.097, -4.352e-6
-1.096, -4.291e-6
-1.095, -4.407e-6
-1.094, -4.417e-6
-1.093, -4.355e-6
-1.092, -4.362e-6
-1.091, -4.404e-6
-1.090, -4.441e-6
-1.089, -4.498e-6
-1.088, -4.447e-6
-1.087, -4.473e-6
-1.086, -4.472e-6
-1.085, -4.550e-6
-1.084, -4.560e-6
-1.083, -4.563e-6
-1.082, -4.536e-6
-1.081, -4.529e-6
-1.080, -4.648e-6
-1.079, -4.633e-6
-1.078, -4.623e-6
-1.077, -4.615e-6
-1.076, -4.627e-6
-1.075, -4.791e-6
-1.074, -4.725e-6
-1.073, -4.719e-6
-1.072, -4.682e-6
-1.071, -4.664e-6
-1.070, -4.844e-6
-1.069, -4.801e-6
-1.068, -4.730e-6
-1.067, -4.818e-6
-1.066, -4.756e-6
-1.065, -4.871e-6
-1.064, -4.831e-6
-1.063, -4.825e-6
-1.062, -4.867e-6
-1.061, -4.824e-6
-1.060, -4.951e-6
-1.059, -4.945e-6
-1.058, -4.899e-6
-1.057, -4.874e-6
-1.056, -4.889e-6
-1.055, -4.955e-6
-1.054, -4.993e-6
-1.053, -4.943e-6
-1.052, -4.938e-6
-1.051, -4.951e-6
-1.050, -5.103e-6
-1.049, -5.099e-6
-1.048, -5.071e-6
-1.047, -5.055e-6
-1.046, -5.063e-6
-1.045, -5.131e-6
-1.044, -5.126e-6
-1.043, -5.144e-6
-1.042, -5.127e-6
-1.041, -5.110e-6
-1.040, -5.240e-6
-1.039, -5.270e-6
-1.038, -5.267e-6
-1.037, -5.196e-6
-1.036, -5.235e-6
-1.035, -5.344e-6
-1.034, -5.352e-6
-1.033, -5.334e-6
-1.032, -5.275e-6
-1.031, -5.251e-6
-1.030, -5.445e-6
-1.029, -5.384e-6
-1.028, -5.417e-6
-1.027, -5.414e-6
-1.026, -5.370e-6
-1.025, -5.558e-6
-1.024, -5.535e-6
-1.023, -5.503e-6
-1.022, -5.487e-6
-1.021, -5.455e-6
-1.020, -5.589e-6
-1.019, -5.631e-6
-1.018, -5.630e-6
-1.017, -5.628e-6
-1.016, -5.582e-6
-1.015, -5.699e-6
-1.014, -5.714e-6
-1.013, -5.702e-6
-1.012, -5.676e-6
-1.011, -5.681e-6
-1.010, -5.836e-6
-1.009, -5.843e-6
-1.008, -5.827e-6
-1.007, -5.781e-6
-1.006, -5.791e-6
-1.005, -5.881e-6
-1.004, -5.896e-6
-1.003, -5.938e-6
-1.002, -5.851e-6
-1.001, -5.891e-6
