Aug. 21, 2024   18:37:55
Cyclic Voltammetry
File: c:/users/guazh/data/20240813_batch_94_500/2024-08-15-exp152\exp152-2024-08-21t18_29_12-arkoh\exp152_cv_50mvs_efin_-1600mv.bin
Data Source:  Experiment
Instrument Model:  CHI760E
Header: CV ran at 50 mVs
Note: 

Init E (V) = -1
High E (V) = -1
Low E (V) = -1.6
Final E (V) = -1
Init P/N = N
Scan Rate (V/s) = 0.05
Segment = 7
Sample Interval (V) = 0.001
Quiet Time (sec) = 60
Sensitivity (A/V) = 0.001
Comp R (ohm) = 1.5

Results:

Channel 1:
Segment 1:

Segment 2:

Segment 3:

Segment 4:

Segment 5:

Segment 6:

Segment 7:

Potential/V, Current/A

-1.000, 6.460e-7
-1.001, 7.151e-7
-1.002, 7.861e-7
-1.003, 7.980e-7
-1.004, 7.851e-7
-1.005, 8.187e-7
-1.006, 8.720e-7
-1.007, 8.562e-7
-1.008, 8.907e-7
-1.009, 8.907e-7
-1.010, 9.104e-7
-1.011, 9.104e-7
-1.012, 9.499e-7
-1.013, 9.361e-7
-1.014, 9.302e-7
-1.015, 9.459e-7
-1.016, 9.696e-7
-1.017, 9.755e-7
-1.018, 9.519e-7
-1.019, 9.706e-7
-1.020, 1.000e-6
-1.021, 9.992e-7
-1.022, 9.834e-7
-1.023, 9.992e-7
-1.024, 1.040e-6
-1.025, 1.048e-6
-1.026, 1.018e-6
-1.027, 1.064e-6
-1.028, 1.086e-6
-1.029, 1.004e-6
-1.030, 1.057e-6
-1.031, 1.071e-6
-1.032, 1.073e-6
-1.033, 1.072e-6
-1.034, 1.097e-6
-1.035, 1.111e-6
-1.036, 1.067e-6
-1.037, 1.090e-6
-1.038, 1.168e-6
-1.039, 1.099e-6
-1.040, 1.081e-6
-1.041, 1.130e-6
-1.042, 1.153e-6
-1.043, 1.151e-6
-1.044, 1.136e-6
-1.045, 1.122e-6
-1.046, 1.168e-6
-1.047, 1.150e-6
-1.048, 1.158e-6
-1.049, 1.162e-6
-1.050, 1.165e-6
-1.051, 1.171e-6
-1.052, 1.197e-6
-1.053, 1.218e-6
-1.054, 1.179e-6
-1.055, 1.192e-6
-1.056, 1.204e-6
-1.057, 1.211e-6
-1.058, 1.185e-6
-1.059, 1.212e-6
-1.060, 1.228e-6
-1.061, 1.227e-6
-1.062, 1.226e-6
-1.063, 1.285e-6
-1.064, 1.248e-6
-1.065, 1.236e-6
-1.066, 1.234e-6
-1.067, 1.256e-6
-1.068, 1.285e-6
-1.069, 1.226e-6
-1.070, 1.284e-6
-1.071, 1.326e-6
-1.072, 1.288e-6
-1.073, 1.293e-6
-1.074, 1.306e-6
-1.075, 1.316e-6
-1.076, 1.318e-6
-1.077, 1.299e-6
-1.078, 1.357e-6
-1.079, 1.341e-6
-1.080, 1.307e-6
-1.081, 1.352e-6
-1.082, 1.339e-6
-1.083, 1.370e-6
-1.084, 1.351e-6
-1.085, 1.384e-6
-1.086, 1.398e-6
-1.087, 1.348e-6
-1.088, 1.396e-6
-1.089, 1.413e-6
-1.090, 1.405e-6
-1.091, 1.374e-6
-1.092, 1.418e-6
-1.093, 1.427e-6
-1.094, 1.395e-6
-1.095, 1.422e-6
-1.096, 1.438e-6
-1.097, 1.459e-6
-1.098, 1.423e-6
-1.099, 1.452e-6
-1.100, 1.455e-6
-1.101, 1.476e-6
-1.102, 1.451e-6
-1.103, 1.469e-6
-1.104, 1.492e-6
-1.105, 1.470e-6
-1.106, 1.489e-6
-1.107, 1.501e-6
-1.108, 1.520e-6
-1.109, 1.486e-6
-1.110, 1.516e-6
-1.111, 1.533e-6
-1.112, 1.492e-6
-1.113, 1.555e-6
-1.114, 1.546e-6
-1.115, 1.547e-6
-1.116, 1.516e-6
-1.117, 1.552e-6
-1.118, 1.585e-6
-1.119, 1.537e-6
-1.120, 1.561e-6
-1.121, 1.619e-6
-1.122, 1.591e-6
-1.123, 1.576e-6
-1.124, 1.601e-6
-1.125, 1.618e-6
-1.126, 1.594e-6
-1.127, 1.603e-6
-1.128, 1.606e-6
-1.129, 1.621e-6
-1.130, 1.617e-6
-1.131, 1.636e-6
-1.132, 1.639e-6
-1.133, 1.649e-6
-1.134, 1.612e-6
-1.135, 1.657e-6
-1.136, 1.684e-6
-1.137, 1.674e-6
-1.138, 1.666e-6
-1.139, 1.690e-6
-1.140, 1.721e-6
-1.141, 1.650e-6
-1.142, 1.700e-6
-1.143, 1.730e-6
-1.144, 1.706e-6
-1.145, 1.709e-6
-1.146, 1.743e-6
-1.147, 1.722e-6
-1.148, 1.719e-6
-1.149, 1.747e-6
-1.150, 1.762e-6
-1.151, 1.737e-6
-1.152, 1.741e-6
-1.153, 1.769e-6
-1.154, 1.788e-6
-1.155, 1.759e-6
-1.156, 1.768e-6
-1.157, 1.831e-6
-1.158, 1.788e-6
-1.159, 1.778e-6
-1.160, 1.788e-6
-1.161, 1.833e-6
-1.162, 1.817e-6
-1.163, 1.778e-6
-1.164, 1.862e-6
-1.165, 1.842e-6
-1.166, 1.819e-6
-1.167, 1.855e-6
-1.168, 1.868e-6
-1.169, 1.845e-6
-1.170, 1.854e-6
-1.171, 1.862e-6
-1.172, 1.869e-6
-1.173, 1.890e-6
-1.174, 1.847e-6
-1.175, 1.888e-6
-1.176, 1.897e-6
-1.177, 1.862e-6
-1.178, 1.917e-6
-1.179, 1.919e-6
-1.180, 1.925e-6
-1.181, 1.921e-6
-1.182, 1.917e-6
-1.183, 1.953e-6
-1.184, 1.917e-6
-1.185, 1.927e-6
-1.186, 1.980e-6
-1.187, 1.948e-6
-1.188, 1.936e-6
-1.189, 1.955e-6
-1.190, 1.951e-6
-1.191, 1.964e-6
-1.192, 1.962e-6
-1.193, 1.985e-6
-1.194, 1.972e-6
-1.195, 1.955e-6
-1.196, 2.038e-6
-1.197, 2.058e-6
-1.198, 1.991e-6
-1.199, 2.004e-6
-1.200, 2.021e-6
-1.201, 2.025e-6
-1.202, 2.022e-6
-1.203, 2.050e-6
-1.204, 2.048e-6
-1.205, 2.066e-6
-1.206, 2.009e-6
-1.207, 2.073e-6
-1.208, 2.101e-6
-1.209, 2.019e-6
-1.210, 2.052e-6
-1.211, 2.093e-6
-1.212, 2.065e-6
-1.213, 2.047e-6
-1.214, 2.103e-6
-1.215, 2.101e-6
-1.216, 2.123e-6
-1.217, 2.088e-6
-1.218, 2.142e-6
-1.219, 2.142e-6
-1.220, 2.099e-6
-1.221, 2.135e-6
-1.222, 2.138e-6
-1.223, 2.147e-6
-1.224, 2.121e-6
-1.225, 2.129e-6
-1.226, 2.183e-6
-1.227, 2.151e-6
-1.228, 2.143e-6
-1.229, 2.197e-6
-1.230, 2.184e-6
-1.231, 2.191e-6
-1.232, 2.208e-6
-1.233, 2.238e-6
-1.234, 2.222e-6
-1.235, 2.201e-6
-1.236, 2.232e-6
-1.237, 2.224e-6
-1.238, 2.208e-6
-1.239, 2.208e-6
-1.240, 2.261e-6
-1.241, 2.240e-6
-1.242, 2.248e-6
-1.243, 2.262e-6
-1.244, 2.259e-6
-1.245, 2.264e-6
-1.246, 2.254e-6
-1.247, 2.263e-6
-1.248, 2.306e-6
-1.249, 2.227e-6
-1.250, 2.298e-6
-1.251, 2.315e-6
-1.252, 2.280e-6
-1.253, 2.266e-6
-1.254, 2.328e-6
-1.255, 2.327e-6
-1.256, 2.318e-6
-1.257, 2.330e-6
-1.258, 2.345e-6
-1.259, 2.357e-6
-1.260, 2.307e-6
-1.261, 2.363e-6
-1.262, 2.367e-6
-1.263, 2.362e-6
-1.264, 2.360e-6
-1.265, 2.343e-6
-1.266, 2.391e-6
-1.267, 2.355e-6
-1.268, 2.364e-6
-1.269, 2.411e-6
-1.270, 2.387e-6
-1.271, 2.359e-6
-1.272, 2.433e-6
-1.273, 2.424e-6
-1.274, 2.392e-6
-1.275, 2.398e-6
-1.276, 2.415e-6
-1.277, 2.407e-6
-1.278, 2.435e-6
-1.279, 2.461e-6
-1.280, 2.459e-6
-1.281, 2.464e-6
-1.282, 2.428e-6
-1.283, 2.465e-6
-1.284, 2.472e-6
-1.285, 2.479e-6
-1.286, 2.473e-6
-1.287, 2.489e-6
-1.288, 2.513e-6
-1.289, 2.448e-6
-1.290, 2.478e-6
-1.291, 2.498e-6
-1.292, 2.478e-6
-1.293, 2.499e-6
-1.294, 2.496e-6
-1.295, 2.516e-6
-1.296, 2.544e-6
-1.297, 2.502e-6
-1.298, 2.550e-6
-1.299, 2.565e-6
-1.300, 2.537e-6
-1.301, 2.541e-6
-1.302, 2.575e-6
-1.303, 2.579e-6
-1.304, 2.536e-6
-1.305, 2.560e-6
-1.306, 2.589e-6
-1.307, 2.570e-6
-1.308, 2.564e-6
-1.309, 2.573e-6
-1.310, 2.609e-6
-1.311, 2.603e-6
-1.312, 2.595e-6
-1.313, 2.607e-6
-1.314, 2.622e-6
-1.315, 2.629e-6
-1.316, 2.592e-6
-1.317, 2.631e-6
-1.318, 2.662e-6
-1.319, 2.602e-6
-1.320, 2.639e-6
-1.321, 2.661e-6
-1.322, 2.662e-6
-1.323, 2.661e-6
-1.324, 2.638e-6
-1.325, 2.679e-6
-1.326, 2.667e-6
-1.327, 2.651e-6
-1.328, 2.687e-6
-1.329, 2.698e-6
-1.330, 2.692e-6
-1.331, 2.701e-6
-1.332, 2.704e-6
-1.333, 2.697e-6
-1.334, 2.728e-6
-1.335, 2.712e-6
-1.336, 2.744e-6
-1.337, 2.740e-6
-1.338, 2.749e-6
-1.339, 2.723e-6
-1.340, 2.717e-6
-1.341, 2.755e-6
-1.342, 2.737e-6
-1.343, 2.716e-6
-1.344, 2.757e-6
-1.345, 2.755e-6
-1.346, 2.719e-6
-1.347, 2.756e-6
-1.348, 2.771e-6
-1.349, 2.788e-6
-1.350, 2.765e-6
-1.351, 2.767e-6
-1.352, 2.803e-6
-1.353, 2.776e-6
-1.354, 2.800e-6
-1.355, 2.793e-6
-1.356, 2.814e-6
-1.357, 2.816e-6
-1.358, 2.793e-6
-1.359, 2.811e-6
-1.360, 2.833e-6
-1.361, 2.838e-6
-1.362, 2.798e-6
-1.363, 2.849e-6
-1.364, 2.859e-6
-1.365, 2.844e-6
-1.366, 2.835e-6
-1.367, 2.864e-6
-1.368, 2.874e-6
-1.369, 2.839e-6
-1.370, 2.864e-6
-1.371, 2.896e-6
-1.372, 2.884e-6
-1.373, 2.891e-6
-1.374, 2.894e-6
-1.375, 2.894e-6
-1.376, 2.905e-6
-1.377, 2.915e-6
-1.378, 2.933e-6
-1.379, 2.931e-6
-1.380, 2.933e-6
-1.381, 2.902e-6
-1.382, 2.966e-6
-1.383, 2.962e-6
-1.384, 2.957e-6
-1.385, 2.932e-6
-1.386, 2.949e-6
-1.387, 2.971e-6
-1.388, 2.960e-6
-1.389, 2.965e-6
-1.390, 3.013e-6
-1.391, 2.973e-6
-1.392, 2.990e-6
-1.393, 3.026e-6
-1.394, 3.034e-6
-1.395, 3.049e-6
-1.396, 2.999e-6
-1.397, 3.045e-6
-1.398, 3.043e-6
-1.399, 3.042e-6
-1.400, 3.044e-6
-1.401, 3.047e-6
-1.402, 3.059e-6
-1.403, 3.051e-6
-1.404, 3.065e-6
-1.405, 3.103e-6
-1.406, 3.072e-6
-1.407, 3.065e-6
-1.408, 3.116e-6
-1.409, 3.117e-6
-1.410, 3.113e-6
-1.411, 3.106e-6
-1.412, 3.142e-6
-1.413, 3.134e-6
-1.414, 3.150e-6
-1.415, 3.122e-6
-1.416, 3.161e-6
-1.417, 3.178e-6
-1.418, 3.178e-6
-1.419, 3.154e-6
-1.420, 3.178e-6
-1.421, 3.220e-6
-1.422, 3.218e-6
-1.423, 3.160e-6
-1.424, 3.230e-6
-1.425, 3.237e-6
-1.426, 3.197e-6
-1.427, 3.233e-6
-1.428, 3.266e-6
-1.429, 3.234e-6
-1.430, 3.259e-6
-1.431, 3.259e-6
-1.432, 3.294e-6
-1.433, 3.324e-6
-1.434, 3.253e-6
-1.435, 3.306e-6
-1.436, 3.353e-6
-1.437, 3.317e-6
-1.438, 3.330e-6
-1.439, 3.338e-6
-1.440, 3.354e-6
-1.441, 3.344e-6
-1.442, 3.322e-6
-1.443, 3.370e-6
-1.444, 3.388e-6
-1.445, 3.389e-6
-1.446, 3.366e-6
-1.447, 3.414e-6
-1.448, 3.443e-6
-1.449, 3.391e-6
-1.450, 3.442e-6
-1.451, 3.422e-6
-1.452, 3.474e-6
-1.453, 3.453e-6
-1.454, 3.462e-6
-1.455, 3.494e-6
-1.456, 3.493e-6
-1.457, 3.534e-6
-1.458, 3.529e-6
-1.459, 3.521e-6
-1.460, 3.551e-6
-1.461, 3.511e-6
-1.462, 3.582e-6
-1.463, 3.576e-6
-1.464, 3.550e-6
-1.465, 3.584e-6
-1.466, 3.615e-6
-1.467, 3.634e-6
-1.468, 3.611e-6
-1.469, 3.639e-6
-1.470, 3.665e-6
-1.471, 3.650e-6
-1.472, 3.659e-6
-1.473, 3.652e-6
-1.474, 3.665e-6
-1.475, 3.674e-6
-1.476, 3.682e-6
-1.477, 3.727e-6
-1.478, 3.762e-6
-1.479, 3.711e-6
-1.480, 3.742e-6
-1.481, 3.780e-6
-1.482, 3.773e-6
-1.483, 3.782e-6
-1.484, 3.814e-6
-1.485, 3.807e-6
-1.486, 3.850e-6
-1.487, 3.818e-6
-1.488, 3.854e-6
-1.489, 3.837e-6
-1.490, 3.859e-6
-1.491, 3.860e-6
-1.492, 3.913e-6
-1.493, 3.893e-6
-1.494, 3.904e-6
-1.495, 3.945e-6
-1.496, 3.959e-6
-1.497, 3.975e-6
-1.498, 3.957e-6
-1.499, 4.007e-6
-1.500, 4.033e-6
-1.501, 3.977e-6
-1.502, 4.032e-6
-1.503, 4.060e-6
-1.504, 4.067e-6
-1.505, 4.071e-6
-1.506, 4.110e-6
-1.507, 4.126e-6
-1.508, 4.140e-6
-1.509, 4.083e-6
-1.510, 4.165e-6
-1.511, 4.201e-6
-1.512, 4.212e-6
-1.513, 4.209e-6
-1.514, 4.251e-6
-1.515, 4.266e-6
-1.516, 4.273e-6
-1.517, 4.291e-6
-1.518, 4.293e-6
-1.519, 4.326e-6
-1.520, 4.341e-6
-1.521, 4.348e-6
-1.522, 4.384e-6
-1.523, 4.444e-6
-1.524, 4.444e-6
-1.525, 4.433e-6
-1.526, 4.521e-6
-1.527, 4.496e-6
-1.528, 4.473e-6
-1.529, 4.557e-6
-1.530, 4.561e-6
-1.531, 4.605e-6
-1.532, 4.602e-6
-1.533, 4.643e-6
-1.534, 4.678e-6
-1.535, 4.699e-6
-1.536, 4.679e-6
-1.537, 4.771e-6
-1.538, 4.800e-6
-1.539, 4.785e-6
-1.540, 4.807e-6
-1.541, 4.878e-6
-1.542, 4.899e-6
-1.543, 4.934e-6
-1.544, 4.917e-6
-1.545, 4.973e-6
-1.546, 5.030e-6
-1.547, 5.076e-6
-1.548, 5.076e-6
-1.549, 5.087e-6
-1.550, 5.166e-6
-1.551, 5.206e-6
-1.552, 5.217e-6
-1.553, 5.302e-6
-1.554, 5.304e-6
-1.555, 5.343e-6
-1.556, 5.383e-6
-1.557, 5.440e-6
-1.558, 5.523e-6
-1.559, 5.499e-6
-1.560, 5.578e-6
-1.561, 5.633e-6
-1.562, 5.685e-6
-1.563, 5.711e-6
-1.564, 5.789e-6
-1.565, 5.836e-6
-1.566, 5.913e-6
-1.567, 5.992e-6
-1.568, 6.053e-6
-1.569, 6.112e-6
-1.570, 6.161e-6
-1.571, 6.198e-6
-1.572, 6.323e-6
-1.573, 6.352e-6
-1.574, 6.414e-6
-1.575, 6.473e-6
-1.576, 6.579e-6
-1.577, 6.646e-6
-1.578, 6.694e-6
-1.579, 6.817e-6
-1.580, 6.895e-6
-1.581, 6.974e-6
-1.582, 7.096e-6
-1.583, 7.145e-6
-1.584, 7.255e-6
-1.585, 7.404e-6
-1.586, 7.439e-6
-1.587, 7.586e-6
-1.588, 7.738e-6
-1.589, 7.804e-6
-1.590, 7.891e-6
-1.591, 8.028e-6
-1.592, 8.172e-6
-1.593, 8.331e-6
-1.594, 8.409e-6
-1.595, 8.567e-6
-1.596, 8.763e-6
-1.597, 8.914e-6
-1.598, 9.056e-6
-1.599, 9.241e-6
-1.600, 8.778e-6
-1.599, 8.456e-6
-1.598, 8.233e-6
-1.597, 8.081e-6
-1.596, 7.904e-6
-1.595, 7.753e-6
-1.594, 7.639e-6
-1.593, 7.490e-6
-1.592, 7.384e-6
-1.591, 7.214e-6
-1.590, 7.095e-6
-1.589, 6.988e-6
-1.588, 6.875e-6
-1.587, 6.728e-6
-1.586, 6.623e-6
-1.585, 6.481e-6
-1.584, 6.385e-6
-1.583, 6.291e-6
-1.582, 6.114e-6
-1.581, 6.058e-6
-1.580, 5.960e-6
-1.579, 5.810e-6
-1.578, 5.747e-6
-1.577, 5.655e-6
-1.576, 5.527e-6
-1.575, 5.425e-6
-1.574, 5.351e-6
-1.573, 5.247e-6
-1.572, 5.177e-6
-1.571, 5.030e-6
-1.570, 4.988e-6
-1.569, 4.903e-6
-1.568, 4.802e-6
-1.567, 4.689e-6
-1.566, 4.659e-6
-1.565, 4.582e-6
-1.564, 4.434e-6
-1.563, 4.359e-6
-1.562, 4.339e-6
-1.561, 4.230e-6
-1.560, 4.101e-6
-1.559, 4.070e-6
-1.558, 4.016e-6
-1.557, 3.943e-6
-1.556, 3.861e-6
-1.555, 3.760e-6
-1.554, 3.763e-6
-1.553, 3.656e-6
-1.552, 3.596e-6
-1.551, 3.553e-6
-1.550, 3.481e-6
-1.549, 3.417e-6
-1.548, 3.363e-6
-1.547, 3.330e-6
-1.546, 3.256e-6
-1.545, 3.189e-6
-1.544, 3.136e-6
-1.543, 3.113e-6
-1.542, 3.022e-6
-1.541, 2.988e-6
-1.540, 2.946e-6
-1.539, 2.925e-6
-1.538, 2.873e-6
-1.537, 2.786e-6
-1.536, 2.766e-6
-1.535, 2.744e-6
-1.534, 2.645e-6
-1.533, 2.613e-6
-1.532, 2.557e-6
-1.531, 2.530e-6
-1.530, 2.522e-6
-1.529, 2.448e-6
-1.528, 2.445e-6
-1.527, 2.409e-6
-1.526, 2.324e-6
-1.525, 2.319e-6
-1.524, 2.323e-6
-1.523, 2.241e-6
-1.522, 2.195e-6
-1.521, 2.169e-6
-1.520, 2.137e-6
-1.519, 2.113e-6
-1.518, 2.080e-6
-1.517, 2.023e-6
-1.516, 2.023e-6
-1.515, 2.000e-6
-1.514, 1.952e-6
-1.513, 1.922e-6
-1.512, 1.924e-6
-1.511, 1.879e-6
-1.510, 1.838e-6
-1.509, 1.844e-6
-1.508, 1.792e-6
-1.507, 1.777e-6
-1.506, 1.747e-6
-1.505, 1.698e-6
-1.504, 1.734e-6
-1.503, 1.707e-6
-1.502, 1.639e-6
-1.501, 1.625e-6
-1.500, 1.639e-6
-1.499, 1.612e-6
-1.498, 1.567e-6
-1.497, 1.564e-6
-1.496, 1.531e-6
-1.495, 1.514e-6
-1.494, 1.472e-6
-1.493, 1.489e-6
-1.492, 1.451e-6
-1.491, 1.403e-6
-1.490, 1.390e-6
-1.489, 1.426e-6
-1.488, 1.363e-6
-1.487, 1.388e-6
-1.486, 1.332e-6
-1.485, 1.312e-6
-1.484, 1.305e-6
-1.483, 1.310e-6
-1.482, 1.295e-6
-1.481, 1.252e-6
-1.480, 1.228e-6
-1.479, 1.245e-6
-1.478, 1.183e-6
-1.477, 1.229e-6
-1.476, 1.191e-6
-1.475, 1.154e-6
-1.474, 1.195e-6
-1.473, 1.127e-6
-1.472, 1.122e-6
-1.471, 1.102e-6
-1.470, 1.096e-6
-1.469, 1.103e-6
-1.468, 1.107e-6
-1.467, 1.056e-6
-1.466, 1.066e-6
-1.465, 1.044e-6
-1.464, 1.009e-6
-1.463, 1.045e-6
-1.462, 1.008e-6
-1.461, 9.874e-7
-1.460, 1.002e-6
-1.459, 9.617e-7
-1.458, 9.440e-7
-1.457, 9.637e-7
-1.456, 9.035e-7
-1.455, 9.361e-7
-1.454, 9.351e-7
-1.453, 9.183e-7
-1.452, 8.789e-7
-1.451, 9.045e-7
-1.450, 9.114e-7
-1.449, 8.828e-7
-1.448, 8.897e-7
-1.447, 8.690e-7
-1.446, 8.384e-7
-1.445, 8.019e-7
-1.444, 8.354e-7
-1.443, 8.078e-7
-1.442, 8.177e-7
-1.441, 7.832e-7
-1.440, 8.059e-7
-1.439, 7.644e-7
-1.438, 7.723e-7
-1.437, 7.861e-7
-1.436, 7.693e-7
-1.435, 7.950e-7
-1.434, 7.092e-7
-1.433, 7.250e-7
-1.432, 7.259e-7
-1.431, 7.023e-7
-1.430, 6.598e-7
-1.429, 7.161e-7
-1.428, 7.052e-7
-1.427, 6.618e-7
-1.426, 6.736e-7
-1.425, 6.786e-7
-1.424, 6.796e-7
-1.423, 6.638e-7
-1.422, 6.362e-7
-1.421, 6.519e-7
-1.420, 6.293e-7
-1.419, 6.312e-7
-1.418, 6.233e-7
-1.417, 6.460e-7
-1.416, 5.957e-7
-1.415, 6.184e-7
-1.414, 5.878e-7
-1.413, 6.293e-7
-1.412, 5.701e-7
-1.411, 5.898e-7
-1.410, 6.135e-7
-1.409, 5.691e-7
-1.408, 5.641e-7
-1.407, 6.095e-7
-1.406, 5.612e-7
-1.405, 5.158e-7
-1.404, 5.493e-7
-1.403, 5.424e-7
-1.402, 5.326e-7
-1.401, 5.128e-7
-1.400, 5.247e-7
-1.399, 5.661e-7
-1.398, 5.197e-7
-1.397, 4.941e-7
-1.396, 5.306e-7
-1.395, 5.079e-7
-1.394, 4.674e-7
-1.393, 5.118e-7
-1.392, 5.030e-7
-1.391, 4.734e-7
-1.390, 4.457e-7
-1.389, 4.852e-7
-1.388, 4.832e-7
-1.387, 4.181e-7
-1.386, 4.596e-7
-1.385, 4.605e-7
-1.384, 4.309e-7
-1.383, 4.477e-7
-1.382, 4.309e-7
-1.381, 4.359e-7
-1.380, 4.388e-7
-1.379, 4.033e-7
-1.378, 4.556e-7
-1.377, 4.122e-7
-1.376, 3.777e-7
-1.375, 3.964e-7
-1.374, 4.231e-7
-1.373, 4.053e-7
-1.372, 3.915e-7
-1.371, 4.112e-7
-1.370, 3.984e-7
-1.369, 3.767e-7
-1.368, 3.717e-7
-1.367, 4.092e-7
-1.366, 3.708e-7
-1.365, 3.629e-7
-1.364, 3.875e-7
-1.363, 3.313e-7
-1.362, 3.579e-7
-1.361, 3.510e-7
-1.360, 3.422e-7
-1.359, 3.639e-7
-1.358, 3.491e-7
-1.357, 3.609e-7
-1.356, 3.481e-7
-1.355, 3.688e-7
-1.354, 3.264e-7
-1.353, 3.530e-7
-1.352, 3.264e-7
-1.351, 3.165e-7
-1.350, 3.007e-7
-1.349, 3.264e-7
-1.348, 3.293e-7
-1.347, 2.859e-7
-1.346, 3.333e-7
-1.345, 3.145e-7
-1.344, 2.987e-7
-1.343, 3.155e-7
-1.342, 3.175e-7
-1.341, 2.938e-7
-1.340, 2.948e-7
-1.339, 2.889e-7
-1.338, 2.859e-7
-1.337, 2.849e-7
-1.336, 2.494e-7
-1.335, 2.899e-7
-1.334, 2.790e-7
-1.333, 2.849e-7
-1.332, 2.553e-7
-1.331, 2.701e-7
-1.330, 2.672e-7
-1.329, 2.287e-7
-1.328, 2.662e-7
-1.327, 2.751e-7
-1.326, 2.277e-7
-1.325, 2.188e-7
-1.324, 2.672e-7
-1.323, 2.632e-7
-1.322, 2.435e-7
-1.321, 2.465e-7
-1.320, 2.425e-7
-1.319, 2.553e-7
-1.318, 2.060e-7
-1.317, 2.267e-7
-1.316, 2.346e-7
-1.315, 2.198e-7
-1.314, 2.553e-7
-1.313, 2.356e-7
-1.312, 2.109e-7
-1.311, 1.794e-7
-1.310, 2.080e-7
-1.309, 2.247e-7
-1.308, 2.090e-7
-1.307, 1.922e-7
-1.306, 2.099e-7
-1.305, 2.169e-7
-1.304, 1.902e-7
-1.303, 2.188e-7
-1.302, 1.942e-7
-1.301, 1.922e-7
-1.300, 1.803e-7
-1.299, 1.784e-7
-1.298, 2.050e-7
-1.297, 1.567e-7
-1.296, 1.508e-7
-1.295, 1.991e-7
-1.294, 1.675e-7
-1.293, 1.843e-7
-1.292, 1.695e-7
-1.291, 1.586e-7
-1.290, 1.399e-7
-1.289, 1.577e-7
-1.288, 1.567e-7
-1.287, 1.586e-7
-1.286, 1.310e-7
-1.285, 1.567e-7
-1.284, 1.646e-7
-1.283, 1.330e-7
-1.282, 1.547e-7
-1.281, 1.557e-7
-1.280, 1.419e-7
-1.279, 1.379e-7
-1.278, 1.389e-7
-1.277, 1.478e-7
-1.276, 1.202e-7
-1.275, 1.221e-7
-1.274, 1.369e-7
-1.273, 1.290e-7
-1.272, 1.064e-7
-1.271, 1.310e-7
-1.270, 1.073e-7
-1.269, 1.212e-7
-1.268, 1.290e-7
-1.267, 1.182e-7
-1.266, 1.241e-7
-1.265, 9.452e-8
-1.264, 1.113e-7
-1.263, 1.241e-7
-1.262, 1.152e-7
-1.261, 7.478e-8
-1.260, 1.221e-7
-1.259, 1.083e-7
-1.258, 9.452e-8
-1.257, 6.590e-8
-1.256, 1.064e-7
-1.255, 1.350e-7
-1.254, 7.084e-8
-1.253, 1.064e-7
-1.252, 9.353e-8
-1.251, 4.913e-8
-1.250, 7.972e-8
-1.249, 1.073e-7
-1.248, 8.662e-8
-1.247, 5.111e-8
-1.246, 7.774e-8
-1.245, 1.054e-7
-1.244, 7.577e-8
-1.243, 5.209e-8
-1.242, 7.873e-8
-1.241, 5.998e-8
-1.240, 2.545e-8
-1.239, 6.196e-8
-1.238, 3.631e-8
-1.237, 4.913e-8
-1.236, 6.097e-8
-1.235, 4.913e-8
-1.234, 6.196e-8
-1.233, 3.433e-8
-1.232, 2.249e-8
-1.231, 7.774e-8
-1.230, 5.209e-8
-1.229, 2.841e-8
-1.228, 1.756e-8
-1.227, 3.828e-8
-1.226, 7.695e-9
-1.225, 2.447e-8
-1.224, 2.348e-8
-1.223, 3.631e-8
-1.222, -9.077e-9
-1.221, 3.532e-8
-1.220, 4.321e-8
-1.219, -7.103e-9
-1.218, 3.039e-8
-1.217, 1.953e-8
-1.216, 8.682e-9
-1.215, -1.697e-8
-1.214, 1.164e-8
-1.213, 2.447e-8
-1.212, -1.598e-8
-1.211, 4.736e-9
-1.210, -1.184e-9
-1.209, -3.867e-8
-1.208, -9.077e-9
-1.207, 1.066e-8
-1.206, -2.486e-8
-1.205, -5.150e-8
-1.204, 1.756e-8
-1.203, -3.966e-8
-1.202, -2.684e-8
-1.201, -6.235e-8
-1.200, -2.486e-8
-1.199, -5.130e-9
-1.198, -4.459e-8
-1.197, -3.374e-8
-1.196, -2.782e-8
-1.195, -3.867e-8
-1.194, -2.092e-8
-1.193, -5.051e-8
-1.192, -6.334e-8
-1.191, -7.123e-8
-1.190, -3.670e-8
-1.189, -2.486e-8
-1.188, -5.446e-8
-1.187, -2.486e-8
-1.186, -6.433e-8
-1.185, -3.966e-8
-1.184, -9.491e-8
-1.183, -4.163e-8
-1.182, -5.249e-8
-1.181, -9.590e-8
-1.180, -6.531e-8
-1.179, -7.321e-8
-1.178, -8.406e-8
-1.177, -8.998e-8
-1.176, -6.137e-8
-1.175, -4.854e-8
-1.174, -9.491e-8
-1.173, -6.038e-8
-1.172, -7.123e-8
-1.171, -8.899e-8
-1.170, -1.285e-7
-1.169, -6.334e-8
-1.168, -1.107e-7
-1.167, -1.176e-7
-1.166, -9.195e-8
-1.165, -1.028e-7
-1.164, -8.208e-8
-1.163, -1.117e-7
-1.162, -1.383e-7
-1.161, -6.926e-8
-1.160, -7.814e-8
-1.159, -8.899e-8
-1.158, -1.127e-7
-1.157, -9.984e-8
-1.156, -1.186e-7
-1.155, -1.166e-7
-1.154, -8.011e-8
-1.153, -1.067e-7
-1.152, -1.176e-7
-1.151, -1.087e-7
-1.150, -9.096e-8
-1.149, -1.650e-7
-1.148, -7.814e-8
-1.147, -1.166e-7
-1.146, -1.452e-7
-1.145, -1.077e-7
-1.144, -1.314e-7
-1.143, -1.028e-7
-1.142, -1.433e-7
-1.141, -1.206e-7
-1.140, -1.166e-7
-1.139, -1.433e-7
-1.138, -1.324e-7
-1.137, -1.285e-7
-1.136, -1.511e-7
-1.135, -1.472e-7
-1.134, -1.255e-7
-1.133, -1.423e-7
-1.132, -1.630e-7
-1.131, -1.472e-7
-1.130, -1.511e-7
-1.129, -1.482e-7
-1.128, -1.659e-7
-1.127, -1.186e-7
-1.126, -1.423e-7
-1.125, -1.857e-7
-1.124, -1.344e-7
-1.123, -1.650e-7
-1.122, -1.798e-7
-1.121, -1.709e-7
-1.120, -1.442e-7
-1.119, -1.413e-7
-1.118, -1.995e-7
-1.117, -1.965e-7
-1.116, -1.571e-7
-1.115, -1.748e-7
-1.114, -2.005e-7
-1.113, -1.679e-7
-1.112, -1.837e-7
-1.111, -2.330e-7
-1.110, -1.906e-7
-1.109, -1.817e-7
-1.108, -1.729e-7
-1.107, -1.896e-7
-1.106, -1.768e-7
-1.105, -1.758e-7
-1.104, -2.172e-7
-1.103, -1.758e-7
-1.102, -1.827e-7
-1.101, -2.311e-7
-1.100, -1.926e-7
-1.099, -2.024e-7
-1.098, -2.084e-7
-1.097, -2.153e-7
-1.096, -2.182e-7
-1.095, -1.906e-7
-1.094, -2.419e-7
-1.093, -2.024e-7
-1.092, -1.867e-7
-1.091, -2.172e-7
-1.090, -2.360e-7
-1.089, -1.768e-7
-1.088, -2.123e-7
-1.087, -2.508e-7
-1.086, -2.044e-7
-1.085, -2.242e-7
-1.084, -2.360e-7
-1.083, -2.064e-7
-1.082, -2.311e-7
-1.081, -2.044e-7
-1.080, -2.538e-7
-1.079, -2.242e-7
-1.078, -2.557e-7
-1.077, -2.547e-7
-1.076, -2.360e-7
-1.075, -2.242e-7
-1.074, -2.468e-7
-1.073, -2.528e-7
-1.072, -2.459e-7
-1.071, -2.459e-7
-1.070, -2.222e-7
-1.069, -2.547e-7
-1.068, -2.478e-7
-1.067, -2.478e-7
-1.066, -2.725e-7
-1.065, -2.518e-7
-1.064, -2.725e-7
-1.063, -2.636e-7
-1.062, -2.735e-7
-1.061, -2.774e-7
-1.060, -2.646e-7
-1.059, -2.577e-7
-1.058, -2.705e-7
-1.057, -2.755e-7
-1.056, -3.060e-7
-1.055, -2.488e-7
-1.054, -2.340e-7
-1.053, -3.169e-7
-1.052, -3.110e-7
-1.051, -2.567e-7
-1.050, -2.705e-7
-1.049, -3.011e-7
-1.048, -3.051e-7
-1.047, -2.893e-7
-1.046, -3.356e-7
-1.045, -2.784e-7
-1.044, -2.725e-7
-1.043, -3.090e-7
-1.042, -3.031e-7
-1.041, -2.942e-7
-1.040, -3.080e-7
-1.039, -3.327e-7
-1.038, -2.981e-7
-1.037, -3.268e-7
-1.036, -3.445e-7
-1.035, -2.863e-7
-1.034, -3.376e-7
-1.033, -3.090e-7
-1.032, -3.366e-7
-1.031, -3.445e-7
-1.030, -3.100e-7
-1.029, -3.514e-7
-1.028, -3.238e-7
-1.027, -3.238e-7
-1.026, -3.564e-7
-1.025, -3.317e-7
-1.024, -3.593e-7
-1.023, -3.425e-7
-1.022, -3.534e-7
-1.021, -3.425e-7
-1.020, -3.268e-7
-1.019, -3.731e-7
-1.018, -3.435e-7
-1.017, -3.347e-7
-1.016, -3.741e-7
-1.015, -3.751e-7
-1.014, -3.307e-7
-1.013, -3.613e-7
-1.012, -3.830e-7
-1.011, -3.652e-7
-1.010, -3.909e-7
-1.009, -3.840e-7
-1.008, -3.919e-7
-1.007, -3.860e-7
-1.006, -3.830e-7
-1.005, -3.948e-7
-1.004, -3.692e-7
-1.003, -3.761e-7
-1.002, -4.156e-7
-1.001, -3.879e-7
-1.000, -1.275e-7
-1.001, -1.302e-8
-1.002, 6.294e-8
-1.003, 1.182e-7
-1.004, 1.715e-7
-1.005, 2.267e-7
-1.006, 2.603e-7
-1.007, 2.918e-7
-1.008, 3.204e-7
-1.009, 3.017e-7
-1.010, 3.954e-7
-1.011, 4.063e-7
-1.012, 4.092e-7
-1.013, 4.092e-7
-1.014, 4.211e-7
-1.015, 4.763e-7
-1.016, 4.813e-7
-1.017, 4.872e-7
-1.018, 5.326e-7
-1.019, 5.207e-7
-1.020, 5.316e-7
-1.021, 5.858e-7
-1.022, 5.622e-7
-1.023, 5.701e-7
-1.024, 5.927e-7
-1.025, 6.056e-7
-1.026, 6.302e-7
-1.027, 5.868e-7
-1.028, 6.253e-7
-1.029, 6.736e-7
-1.030, 6.549e-7
-1.031, 6.579e-7
-1.032, 6.806e-7
-1.033, 6.914e-7
-1.034, 7.111e-7
-1.035, 7.180e-7
-1.036, 7.210e-7
-1.037, 7.309e-7
-1.038, 7.062e-7
-1.039, 7.526e-7
-1.040, 7.467e-7
-1.041, 7.388e-7
-1.042, 7.674e-7
-1.043, 7.881e-7
-1.044, 7.693e-7
-1.045, 7.930e-7
-1.046, 8.236e-7
-1.047, 8.019e-7
-1.048, 7.950e-7
-1.049, 7.999e-7
-1.050, 8.325e-7
-1.051, 8.226e-7
-1.052, 8.305e-7
-1.053, 8.670e-7
-1.054, 8.285e-7
-1.055, 8.384e-7
-1.056, 8.907e-7
-1.057, 8.798e-7
-1.058, 8.858e-7
-1.059, 8.789e-7
-1.060, 9.045e-7
-1.061, 8.996e-7
-1.062, 8.887e-7
-1.063, 9.114e-7
-1.064, 9.588e-7
-1.065, 9.134e-7
-1.066, 9.173e-7
-1.067, 9.272e-7
-1.068, 9.548e-7
-1.069, 9.282e-7
-1.070, 9.311e-7
-1.071, 9.933e-7
-1.072, 9.736e-7
-1.073, 9.361e-7
-1.074, 1.005e-6
-1.075, 9.992e-7
-1.076, 9.647e-7
-1.077, 9.844e-7
-1.078, 1.026e-6
-1.079, 9.923e-7
-1.080, 9.844e-7
-1.081, 1.021e-6
-1.082, 1.035e-6
-1.083, 1.002e-6
-1.084, 1.014e-6
-1.085, 1.065e-6
-1.086, 1.037e-6
-1.087, 1.030e-6
-1.088, 1.059e-6
-1.089, 1.064e-6
-1.090, 1.029e-6
-1.091, 1.060e-6
-1.092, 1.057e-6
-1.093, 1.082e-6
-1.094, 1.056e-6
-1.095, 1.103e-6
-1.096, 1.093e-6
-1.097, 1.045e-6
-1.098, 1.087e-6
-1.099, 1.118e-6
-1.100, 1.079e-6
-1.101, 1.113e-6
-1.102, 1.111e-6
-1.103, 1.138e-6
-1.104, 1.095e-6
-1.105, 1.128e-6
-1.106, 1.140e-6
-1.107, 1.124e-6
-1.108, 1.125e-6
-1.109, 1.152e-6
-1.110, 1.140e-6
-1.111, 1.157e-6
-1.112, 1.172e-6
-1.113, 1.155e-6
-1.114, 1.143e-6
-1.115, 1.183e-6
-1.116, 1.200e-6
-1.117, 1.177e-6
-1.118, 1.161e-6
-1.119, 1.189e-6
-1.120, 1.198e-6
-1.121, 1.176e-6
-1.122, 1.210e-6
-1.123, 1.236e-6
-1.124, 1.180e-6
-1.125, 1.203e-6
-1.126, 1.224e-6
-1.127, 1.244e-6
-1.128, 1.207e-6
-1.129, 1.246e-6
-1.130, 1.252e-6
-1.131, 1.238e-6
-1.132, 1.214e-6
-1.133, 1.252e-6
-1.134, 1.222e-6
-1.135, 1.229e-6
-1.136, 1.275e-6
-1.137, 1.259e-6
-1.138, 1.230e-6
-1.139, 1.305e-6
-1.140, 1.309e-6
-1.141, 1.273e-6
-1.142, 1.266e-6
-1.143, 1.326e-6
-1.144, 1.297e-6
-1.145, 1.284e-6
-1.146, 1.336e-6
-1.147, 1.304e-6
-1.148, 1.281e-6
-1.149, 1.316e-6
-1.150, 1.323e-6
-1.151, 1.317e-6
-1.152, 1.331e-6
-1.153, 1.339e-6
-1.154, 1.323e-6
-1.155, 1.335e-6
-1.156, 1.337e-6
-1.157, 1.330e-6
-1.158, 1.345e-6
-1.159, 1.322e-6
-1.160, 1.349e-6
-1.161, 1.349e-6
-1.162, 1.351e-6
-1.163, 1.361e-6
-1.164, 1.381e-6
-1.165, 1.409e-6
-1.166, 1.361e-6
-1.167, 1.394e-6
-1.168, 1.411e-6
-1.169, 1.385e-6
-1.170, 1.391e-6
-1.171, 1.410e-6
-1.172, 1.413e-6
-1.173, 1.368e-6
-1.174, 1.407e-6
-1.175, 1.445e-6
-1.176, 1.409e-6
-1.177, 1.417e-6
-1.178, 1.449e-6
-1.179, 1.433e-6
-1.180, 1.424e-6
-1.181, 1.470e-6
-1.182, 1.420e-6
-1.183, 1.435e-6
-1.184, 1.453e-6
-1.185, 1.454e-6
-1.186, 1.453e-6
-1.187, 1.458e-6
-1.188, 1.466e-6
-1.189, 1.472e-6
-1.190, 1.432e-6
-1.191, 1.512e-6
-1.192, 1.482e-6
-1.193, 1.474e-6
-1.194, 1.454e-6
-1.195, 1.520e-6
-1.196, 1.512e-6
-1.197, 1.503e-6
-1.198, 1.480e-6
-1.199, 1.493e-6
-1.200, 1.494e-6
-1.201, 1.491e-6
-1.202, 1.543e-6
-1.203, 1.542e-6
-1.204, 1.479e-6
-1.205, 1.536e-6
-1.206, 1.538e-6
-1.207, 1.535e-6
-1.208, 1.528e-6
-1.209, 1.549e-6
-1.210, 1.577e-6
-1.211, 1.497e-6
-1.212, 1.553e-6
-1.213, 1.580e-6
-1.214, 1.512e-6
-1.215, 1.558e-6
-1.216, 1.593e-6
-1.217, 1.555e-6
-1.218, 1.570e-6
-1.219, 1.585e-6
-1.220, 1.602e-6
-1.221, 1.553e-6
-1.222, 1.588e-6
-1.223, 1.607e-6
-1.224, 1.578e-6
-1.225, 1.575e-6
-1.226, 1.628e-6
-1.227, 1.618e-6
-1.228, 1.564e-6
-1.229, 1.626e-6
-1.230, 1.641e-6
-1.231, 1.599e-6
-1.232, 1.624e-6
-1.233, 1.639e-6
-1.234, 1.639e-6
-1.235, 1.625e-6
-1.236, 1.661e-6
-1.237, 1.651e-6
-1.238, 1.642e-6
-1.239, 1.637e-6
-1.240, 1.688e-6
-1.241, 1.650e-6
-1.242, 1.665e-6
-1.243, 1.677e-6
-1.244, 1.652e-6
-1.245, 1.675e-6
-1.246, 1.667e-6
-1.247, 1.657e-6
-1.248, 1.689e-6
-1.249, 1.643e-6
-1.250, 1.689e-6
-1.251, 1.696e-6
-1.252, 1.676e-6
-1.253, 1.706e-6
-1.254, 1.699e-6
-1.255, 1.736e-6
-1.256, 1.715e-6
-1.257, 1.719e-6
-1.258, 1.721e-6
-1.259, 1.700e-6
-1.260, 1.724e-6
-1.261, 1.758e-6
-1.262, 1.719e-6
-1.263, 1.740e-6
-1.264, 1.750e-6
-1.265, 1.763e-6
-1.266, 1.724e-6
-1.267, 1.751e-6
-1.268, 1.784e-6
-1.269, 1.727e-6
-1.270, 1.747e-6
-1.271, 1.789e-6
-1.272, 1.741e-6
-1.273, 1.740e-6
-1.274, 1.806e-6
-1.275, 1.800e-6
-1.276, 1.744e-6
-1.277, 1.780e-6
-1.278, 1.791e-6
-1.279, 1.779e-6
-1.280, 1.781e-6
-1.281, 1.815e-6
-1.282, 1.803e-6
-1.283, 1.796e-6
-1.284, 1.822e-6
-1.285, 1.862e-6
-1.286, 1.822e-6
-1.287, 1.799e-6
-1.288, 1.830e-6
-1.289, 1.831e-6
-1.290, 1.819e-6
-1.291, 1.829e-6
-1.292, 1.856e-6
-1.293, 1.874e-6
-1.294, 1.821e-6
-1.295, 1.876e-6
-1.296, 1.874e-6
-1.297, 1.840e-6
-1.298, 1.868e-6
-1.299, 1.868e-6
-1.300, 1.862e-6
-1.301, 1.843e-6
-1.302, 1.860e-6
-1.303, 1.902e-6
-1.304, 1.875e-6
-1.305, 1.874e-6
-1.306, 1.934e-6
-1.307, 1.891e-6
-1.308, 1.862e-6
-1.309, 1.913e-6
-1.310, 1.909e-6
-1.311, 1.907e-6
-1.312, 1.918e-6
-1.313, 1.917e-6
-1.314, 1.943e-6
-1.315, 1.887e-6
-1.316, 1.948e-6
-1.317, 1.943e-6
-1.318, 1.918e-6
-1.319, 1.951e-6
-1.320, 1.965e-6
-1.321, 1.942e-6
-1.322, 1.965e-6
-1.323, 1.966e-6
-1.324, 1.948e-6
-1.325, 1.972e-6
-1.326, 1.965e-6
-1.327, 1.960e-6
-1.328, 1.981e-6
-1.329, 1.958e-6
-1.330, 2.019e-6
-1.331, 1.985e-6
-1.332, 2.004e-6
-1.333, 2.004e-6
-1.334, 2.019e-6
-1.335, 2.006e-6
-1.336, 2.009e-6
-1.337, 1.995e-6
-1.338, 2.045e-6
-1.339, 1.998e-6
-1.340, 2.050e-6
-1.341, 2.076e-6
-1.342, 2.016e-6
-1.343, 2.040e-6
-1.344, 2.081e-6
-1.345, 2.062e-6
-1.346, 2.071e-6
-1.347, 2.085e-6
-1.348, 2.078e-6
-1.349, 2.056e-6
-1.350, 2.087e-6
-1.351, 2.081e-6
-1.352, 2.105e-6
-1.353, 2.083e-6
-1.354, 2.100e-6
-1.355, 2.113e-6
-1.356, 2.066e-6
-1.357, 2.123e-6
-1.358, 2.092e-6
-1.359, 2.112e-6
-1.360, 2.120e-6
-1.361, 2.157e-6
-1.362, 2.154e-6
-1.363, 2.121e-6
-1.364, 2.147e-6
-1.365, 2.167e-6
-1.366, 2.152e-6
-1.367, 2.155e-6
-1.368, 2.163e-6
-1.369, 2.175e-6
-1.370, 2.178e-6
-1.371, 2.170e-6
-1.372, 2.188e-6
-1.373, 2.204e-6
-1.374, 2.170e-6
-1.375, 2.185e-6
-1.376, 2.217e-6
-1.377, 2.197e-6
-1.378, 2.197e-6
-1.379, 2.218e-6
-1.380, 2.220e-6
-1.381, 2.200e-6
-1.382, 2.239e-6
-1.383, 2.269e-6
-1.384, 2.240e-6
-1.385, 2.204e-6
-1.386, 2.278e-6
-1.387, 2.304e-6
-1.388, 2.224e-6
-1.389, 2.272e-6
-1.390, 2.308e-6
-1.391, 2.257e-6
-1.392, 2.288e-6
-1.393, 2.299e-6
-1.394, 2.299e-6
-1.395, 2.283e-6
-1.396, 2.333e-6
-1.397, 2.334e-6
-1.398, 2.324e-6
-1.399, 2.290e-6
-1.400, 2.350e-6
-1.401, 2.350e-6
-1.402, 2.347e-6
-1.403, 2.350e-6
-1.404, 2.351e-6
-1.405, 2.369e-6
-1.406, 2.349e-6
-1.407, 2.369e-6
-1.408, 2.415e-6
-1.409, 2.365e-6
-1.410, 2.398e-6
-1.411, 2.426e-6
-1.412, 2.410e-6
-1.413, 2.382e-6
-1.414, 2.446e-6
-1.415, 2.430e-6
-1.416, 2.417e-6
-1.417, 2.435e-6
-1.418, 2.477e-6
-1.419, 2.443e-6
-1.420, 2.408e-6
-1.421, 2.470e-6
-1.422, 2.477e-6
-1.423, 2.440e-6
-1.424, 2.494e-6
-1.425, 2.502e-6
-1.426, 2.494e-6
-1.427, 2.516e-6
-1.428, 2.510e-6
-1.429, 2.536e-6
-1.430, 2.516e-6
-1.431, 2.518e-6
-1.432, 2.557e-6
-1.433, 2.538e-6
-1.434, 2.529e-6
-1.435, 2.553e-6
-1.436, 2.577e-6
-1.437, 2.616e-6
-1.438, 2.565e-6
-1.439, 2.615e-6
-1.440, 2.612e-6
-1.441, 2.586e-6
-1.442, 2.613e-6
-1.443, 2.660e-6
-1.444, 2.612e-6
-1.445, 2.640e-6
-1.446, 2.665e-6
-1.447, 2.673e-6
-1.448, 2.630e-6
-1.449, 2.672e-6
-1.450, 2.691e-6
-1.451, 2.736e-6
-1.452, 2.688e-6
-1.453, 2.722e-6
-1.454, 2.718e-6
-1.455, 2.731e-6
-1.456, 2.761e-6
-1.457, 2.733e-6
-1.458, 2.788e-6
-1.459, 2.740e-6
-1.460, 2.758e-6
-1.461, 2.805e-6
-1.462, 2.789e-6
-1.463, 2.790e-6
-1.464, 2.819e-6
-1.465, 2.823e-6
-1.466, 2.852e-6
-1.467, 2.839e-6
-1.468, 2.858e-6
-1.469, 2.847e-6
-1.470, 2.838e-6
-1.471, 2.883e-6
-1.472, 2.904e-6
-1.473, 2.898e-6
-1.474, 2.909e-6
-1.475, 2.912e-6
-1.476, 2.942e-6
-1.477, 2.952e-6
-1.478, 2.960e-6
-1.479, 2.980e-6
-1.480, 2.984e-6
-1.481, 2.988e-6
-1.482, 3.018e-6
-1.483, 3.048e-6
-1.484, 3.031e-6
-1.485, 3.051e-6
-1.486, 3.082e-6
-1.487, 3.103e-6
-1.488, 3.090e-6
-1.489, 3.084e-6
-1.490, 3.103e-6
-1.491, 3.127e-6
-1.492, 3.109e-6
-1.493, 3.166e-6
-1.494, 3.182e-6
-1.495, 3.181e-6
-1.496, 3.179e-6
-1.497, 3.224e-6
-1.498, 3.263e-6
-1.499, 3.247e-6
-1.500, 3.245e-6
-1.501, 3.324e-6
-1.502, 3.293e-6
-1.503, 3.305e-6
-1.504, 3.333e-6
-1.505, 3.347e-6
-1.506, 3.372e-6
-1.507, 3.393e-6
-1.508, 3.440e-6
-1.509, 3.419e-6
-1.510, 3.411e-6
-1.511, 3.466e-6
-1.512, 3.501e-6
-1.513, 3.481e-6
-1.514, 3.518e-6
-1.515, 3.522e-6
-1.516, 3.569e-6
-1.517, 3.585e-6
-1.518, 3.616e-6
-1.519, 3.638e-6
-1.520, 3.642e-6
-1.521, 3.687e-6
-1.522, 3.709e-6
-1.523, 3.728e-6
-1.524, 3.705e-6
-1.525, 3.782e-6
-1.526, 3.831e-6
-1.527, 3.833e-6
-1.528, 3.867e-6
-1.529, 3.861e-6
-1.530, 3.944e-6
-1.531, 3.926e-6
-1.532, 3.974e-6
-1.533, 4.019e-6
-1.534, 4.010e-6
-1.535, 4.070e-6
-1.536, 4.151e-6
-1.537, 4.128e-6
-1.538, 4.158e-6
-1.539, 4.201e-6
-1.540, 4.248e-6
-1.541, 4.294e-6
-1.542, 4.311e-6
-1.543, 4.390e-6
-1.544, 4.398e-6
-1.545, 4.397e-6
-1.546, 4.523e-6
-1.547, 4.533e-6
-1.548, 4.574e-6
-1.549, 4.628e-6
-1.550, 4.666e-6
-1.551, 4.726e-6
-1.552, 4.772e-6
-1.553, 4.874e-6
-1.554, 4.864e-6
-1.555, 4.946e-6
-1.556, 4.988e-6
-1.557, 5.053e-6
-1.558, 5.127e-6
-1.559, 5.152e-6
-1.560, 5.246e-6
-1.561, 5.318e-6
-1.562, 5.371e-6
-1.563, 5.448e-6
-1.564, 5.569e-6
-1.565, 5.615e-6
-1.566, 5.661e-6
-1.567, 5.790e-6
-1.568, 5.875e-6
-1.569, 5.918e-6
-1.570, 6.017e-6
-1.571, 6.123e-6
-1.572, 6.208e-6
-1.573, 6.269e-6
-1.574, 6.402e-6
-1.575, 6.523e-6
-1.576, 6.613e-6
-1.577, 6.723e-6
-1.578, 6.869e-6
-1.579, 7.000e-6
-1.580, 7.088e-6
-1.581, 7.252e-6
-1.582, 7.374e-6
-1.583, 7.487e-6
-1.584, 7.644e-6
-1.585, 7.781e-6
-1.586, 7.947e-6
-1.587, 8.089e-6
-1.588, 8.250e-6
-1.589, 8.462e-6
-1.590, 8.596e-6
-1.591, 8.802e-6
-1.592, 9.027e-6
-1.593, 9.190e-6
-1.594, 9.421e-6
-1.595, 9.634e-6
-1.596, 9.854e-6
-1.597, 1.005e-5
-1.598, 1.027e-5
-1.599, 1.056e-5
-1.600, 1.014e-5
-1.599, 9.775e-6
-1.598, 9.605e-6
-1.597, 9.435e-6
-1.596, 9.252e-6
-1.595, 9.119e-6
-1.594, 8.968e-6
-1.593, 8.818e-6
-1.592, 8.625e-6
-1.591, 8.531e-6
-1.590, 8.404e-6
-1.589, 8.221e-6
-1.588, 8.097e-6
-1.587, 7.949e-6
-1.586, 7.803e-6
-1.585, 7.643e-6
-1.584, 7.514e-6
-1.583, 7.390e-6
-1.582, 7.236e-6
-1.581, 7.147e-6
-1.580, 7.007e-6
-1.579, 6.861e-6
-1.578, 6.734e-6
-1.577, 6.624e-6
-1.576, 6.498e-6
-1.575, 6.380e-6
-1.574, 6.222e-6
-1.573, 6.121e-6
-1.572, 6.007e-6
-1.571, 5.901e-6
-1.570, 5.769e-6
-1.569, 5.705e-6
-1.568, 5.589e-6
-1.567, 5.456e-6
-1.566, 5.365e-6
-1.565, 5.258e-6
-1.564, 5.154e-6
-1.563, 5.065e-6
-1.562, 4.933e-6
-1.561, 4.814e-6
-1.560, 4.762e-6
-1.559, 4.688e-6
-1.558, 4.552e-6
-1.557, 4.463e-6
-1.556, 4.410e-6
-1.555, 4.354e-6
-1.554, 4.190e-6
-1.553, 4.156e-6
-1.552, 4.101e-6
-1.551, 3.991e-6
-1.550, 3.923e-6
-1.549, 3.854e-6
-1.548, 3.749e-6
-1.547, 3.679e-6
-1.546, 3.638e-6
-1.545, 3.604e-6
-1.544, 3.474e-6
-1.543, 3.397e-6
-1.542, 3.412e-6
-1.541, 3.280e-6
-1.540, 3.246e-6
-1.539, 3.190e-6
-1.538, 3.120e-6
-1.537, 3.034e-6
-1.536, 2.998e-6
-1.535, 2.961e-6
-1.534, 2.884e-6
-1.533, 2.848e-6
-1.532, 2.800e-6
-1.531, 2.734e-6
-1.530, 2.687e-6
-1.529, 2.657e-6
-1.528, 2.600e-6
-1.527, 2.487e-6
-1.526, 2.521e-6
-1.525, 2.457e-6
-1.524, 2.391e-6
-1.523, 2.396e-6
-1.522, 2.317e-6
-1.521, 2.266e-6
-1.520, 2.245e-6
-1.519, 2.234e-6
-1.518, 2.181e-6
-1.517, 2.117e-6
-1.516, 2.054e-6
-1.515, 2.070e-6
-1.514, 2.028e-6
-1.513, 1.994e-6
-1.512, 1.990e-6
-1.511, 1.914e-6
-1.510, 1.882e-6
-1.509, 1.877e-6
-1.508, 1.844e-6
-1.507, 1.812e-6
-1.506, 1.763e-6
-1.505, 1.737e-6
-1.504, 1.720e-6
-1.503, 1.658e-6
-1.502, 1.672e-6
-1.501, 1.626e-6
-1.500, 1.611e-6
-1.499, 1.569e-6
-1.498, 1.573e-6
-1.497, 1.544e-6
-1.496, 1.472e-6
-1.495, 1.485e-6
-1.494, 1.495e-6
-1.493, 1.418e-6
-1.492, 1.414e-6
-1.491, 1.416e-6
-1.490, 1.415e-6
-1.489, 1.331e-6
-1.488, 1.386e-6
-1.487, 1.336e-6
-1.486, 1.277e-6
-1.485, 1.302e-6
-1.484, 1.273e-6
-1.483, 1.275e-6
-1.482, 1.196e-6
-1.481, 1.209e-6
-1.480, 1.203e-6
-1.479, 1.134e-6
-1.478, 1.182e-6
-1.477, 1.163e-6
-1.476, 1.082e-6
-1.475, 1.131e-6
-1.474, 1.109e-6
-1.473, 1.075e-6
-1.472, 1.036e-6
-1.471, 1.015e-6
-1.470, 1.062e-6
-1.469, 9.913e-7
-1.468, 1.044e-6
-1.467, 1.023e-6
-1.466, 9.706e-7
-1.465, 9.509e-7
-1.464, 9.933e-7
-1.463, 9.538e-7
-1.462, 9.509e-7
-1.461, 9.381e-7
-1.460, 9.479e-7
-1.459, 8.848e-7
-1.458, 8.927e-7
-1.457, 9.035e-7
-1.456, 8.828e-7
-1.455, 8.226e-7
-1.454, 8.522e-7
-1.453, 8.641e-7
-1.452, 7.989e-7
-1.451, 8.187e-7
-1.450, 8.098e-7
-1.449, 7.871e-7
-1.448, 8.473e-7
-1.447, 8.463e-7
-1.446, 7.624e-7
-1.445, 7.427e-7
-1.444, 7.624e-7
-1.443, 7.585e-7
-1.442, 7.279e-7
-1.441, 7.417e-7
-1.440, 7.536e-7
-1.439, 6.954e-7
-1.438, 7.003e-7
-1.437, 7.082e-7
-1.436, 6.963e-7
-1.435, 6.825e-7
-1.434, 6.608e-7
-1.433, 6.865e-7
-1.432, 6.569e-7
-1.431, 6.401e-7
-1.430, 6.638e-7
-1.429, 6.145e-7
-1.428, 6.273e-7
-1.427, 6.253e-7
-1.426, 6.204e-7
-1.425, 5.937e-7
-1.424, 6.125e-7
-1.423, 6.095e-7
-1.422, 5.572e-7
-1.421, 5.918e-7
-1.420, 5.799e-7
-1.419, 5.809e-7
-1.418, 5.622e-7
-1.417, 5.641e-7
-1.416, 5.217e-7
-1.415, 5.257e-7
-1.414, 5.622e-7
-1.413, 5.523e-7
-1.412, 5.049e-7
-1.411, 5.582e-7
-1.410, 5.247e-7
-1.409, 5.030e-7
-1.408, 5.276e-7
-1.407, 5.207e-7
-1.406, 4.665e-7
-1.405, 4.990e-7
-1.404, 4.665e-7
-1.403, 4.951e-7
-1.402, 4.822e-7
-1.401, 4.822e-7
-1.400, 5.020e-7
-1.399, 4.260e-7
-1.398, 4.961e-7
-1.397, 4.526e-7
-1.396, 4.428e-7
-1.395, 4.546e-7
-1.394, 4.309e-7
-1.393, 4.418e-7
-1.392, 4.497e-7
-1.391, 4.181e-7
-1.390, 4.043e-7
-1.389, 4.260e-7
-1.388, 4.181e-7
-1.387, 4.152e-7
-1.386, 3.964e-7
-1.385, 3.994e-7
-1.384, 3.826e-7
-1.383, 3.767e-7
-1.382, 3.974e-7
-1.381, 4.063e-7
-1.380, 3.589e-7
-1.379, 3.836e-7
-1.378, 3.816e-7
-1.377, 3.589e-7
-1.376, 3.678e-7
-1.375, 3.639e-7
-1.374, 3.530e-7
-1.373, 3.441e-7
-1.372, 3.491e-7
-1.371, 3.757e-7
-1.370, 3.274e-7
-1.369, 3.471e-7
-1.368, 3.382e-7
-1.367, 3.293e-7
-1.366, 3.313e-7
-1.365, 3.343e-7
-1.364, 2.908e-7
-1.363, 3.402e-7
-1.362, 3.007e-7
-1.361, 2.918e-7
-1.360, 2.987e-7
-1.359, 3.096e-7
-1.358, 3.126e-7
-1.357, 2.701e-7
-1.356, 3.145e-7
-1.355, 2.918e-7
-1.354, 2.543e-7
-1.353, 2.997e-7
-1.352, 2.770e-7
-1.351, 2.751e-7
-1.350, 2.662e-7
-1.349, 2.968e-7
-1.348, 2.662e-7
-1.347, 2.721e-7
-1.346, 2.731e-7
-1.345, 2.682e-7
-1.344, 2.494e-7
-1.343, 2.395e-7
-1.342, 2.820e-7
-1.341, 2.721e-7
-1.340, 2.524e-7
-1.339, 2.948e-7
-1.338, 2.346e-7
-1.337, 2.228e-7
-1.336, 2.632e-7
-1.335, 2.682e-7
-1.334, 2.425e-7
-1.333, 2.553e-7
-1.332, 2.405e-7
-1.331, 2.178e-7
-1.330, 1.971e-7
-1.329, 2.247e-7
-1.328, 2.129e-7
-1.327, 1.784e-7
-1.326, 2.030e-7
-1.325, 2.070e-7
-1.324, 1.675e-7
-1.323, 2.080e-7
-1.322, 2.277e-7
-1.321, 1.853e-7
-1.320, 2.169e-7
-1.319, 1.932e-7
-1.318, 1.754e-7
-1.317, 1.764e-7
-1.316, 2.159e-7
-1.315, 1.685e-7
-1.314, 1.596e-7
-1.313, 1.932e-7
-1.312, 1.902e-7
-1.311, 1.468e-7
-1.310, 1.882e-7
-1.309, 1.833e-7
-1.308, 1.488e-7
-1.307, 1.478e-7
-1.306, 1.902e-7
-1.305, 1.310e-7
-1.304, 1.360e-7
-1.303, 1.360e-7
-1.302, 1.705e-7
-1.301, 1.133e-7
-1.300, 1.478e-7
-1.299, 1.537e-7
-1.298, 1.468e-7
-1.297, 1.310e-7
-1.296, 1.360e-7
-1.295, 1.152e-7
-1.294, 9.649e-8
-1.293, 1.438e-7
-1.292, 1.300e-7
-1.291, 9.846e-8
-1.290, 1.340e-7
-1.289, 1.123e-7
-1.288, 1.261e-7
-1.287, 8.761e-8
-1.286, 1.369e-7
-1.285, 1.320e-7
-1.284, 1.152e-7
-1.283, 1.340e-7
-1.282, 1.044e-7
-1.281, 9.748e-8
-1.280, 9.846e-8
-1.279, 9.452e-8
-1.278, 7.084e-8
-1.277, 1.271e-7
-1.276, 8.465e-8
-1.275, 6.886e-8
-1.274, 8.860e-8
-1.273, 9.945e-8
-1.272, 7.281e-8
-1.271, 9.846e-8
-1.270, 9.452e-8
-1.269, 8.070e-8
-1.268, 6.985e-8
-1.267, 8.662e-8
-1.266, 5.703e-8
-1.265, 4.716e-8
-1.264, 8.169e-8
-1.263, 3.137e-8
-1.262, 4.025e-8
-1.261, 6.393e-8
-1.260, 6.294e-8
-1.259, 4.025e-8
-1.258, 3.927e-8
-1.257, 5.111e-8
-1.256, 7.695e-9
-1.255, 5.111e-8
-1.254, 4.913e-8
-1.253, 6.590e-8
-1.252, 9.669e-9
-1.251, 5.604e-8
-1.250, 3.039e-8
-1.249, 1.776e-9
-1.248, 3.729e-8
-1.247, 2.644e-8
-1.246, 2.249e-8
-1.245, 3.236e-8
-1.244, 1.263e-8
-1.243, 7.695e-9
-1.242, 2.348e-8
-1.241, 3.749e-9
-1.240, 1.756e-8
-1.239, 8.682e-9
-1.238, 1.263e-8
-1.237, 3.749e-9
-1.236, 5.722e-9
-1.235, 1.460e-8
-1.234, -2.585e-8
-1.233, -1.796e-8
-1.232, 3.631e-8
-1.231, -1.894e-8
-1.230, -1.401e-8
-1.229, -1.105e-8
-1.228, -1.796e-8
-1.227, -4.755e-8
-1.226, 4.736e-9
-1.225, -3.769e-8
-1.224, -3.670e-8
-1.223, -3.275e-8
-1.222, 7.893e-10
-1.221, -4.361e-8
-1.220, -4.361e-8
-1.219, -1.105e-8
-1.218, -4.953e-8
-1.217, -3.275e-8
-1.216, -1.598e-8
-1.215, -5.643e-8
-1.214, -3.177e-8
-1.213, -3.374e-8
-1.212, -2.585e-8
-1.211, -5.150e-8
-1.210, -3.473e-8
-1.209, -5.446e-8
-1.208, -4.558e-8
-1.207, -5.249e-8
-1.206, -4.657e-8
-1.205, -7.419e-8
-1.204, -3.275e-8
-1.203, -4.657e-8
-1.202, -7.123e-8
-1.201, -7.025e-8
-1.200, -4.459e-8
-1.199, -7.123e-8
-1.198, -6.630e-8
-1.197, -3.670e-8
-1.196, -7.123e-8
-1.195, -7.025e-8
-1.194, -4.657e-8
-1.193, -8.998e-8
-1.192, -7.617e-8
-1.191, -7.814e-8
-1.190, -7.025e-8
-1.189, -1.097e-7
-1.188, -7.518e-8
-1.187, -6.334e-8
-1.186, -9.590e-8
-1.185, -9.392e-8
-1.184, -6.038e-8
-1.183, -9.195e-8
-1.182, -8.998e-8
-1.181, -9.294e-8
-1.180, -1.265e-7
-1.179, -8.504e-8
-1.178, -9.491e-8
-1.177, -9.096e-8
-1.176, -1.383e-7
-1.175, -9.787e-8
-1.174, -7.419e-8
-1.173, -1.265e-7
-1.172, -8.800e-8
-1.171, -7.419e-8
-1.170, -1.206e-7
-1.169, -1.067e-7
-1.168, -9.984e-8
-1.167, -1.324e-7
-1.166, -9.392e-8
-1.165, -1.146e-7
-1.164, -1.413e-7
-1.163, -1.334e-7
-1.162, -1.097e-7
-1.161, -1.294e-7
-1.160, -1.107e-7
-1.159, -1.077e-7
-1.158, -1.156e-7
-1.157, -1.393e-7
-1.156, -1.314e-7
-1.155, -1.363e-7
-1.154, -1.600e-7
-1.153, -1.393e-7
-1.152, -1.215e-7
-1.151, -1.590e-7
-1.150, -1.127e-7
-1.149, -1.275e-7
-1.148, -1.571e-7
-1.147, -1.137e-7
-1.146, -9.886e-8
-1.145, -1.906e-7
-1.144, -1.403e-7
-1.143, -1.245e-7
-1.142, -1.669e-7
-1.141, -1.255e-7
-1.140, -1.511e-7
-1.139, -1.807e-7
-1.138, -1.719e-7
-1.137, -1.462e-7
-1.136, -1.738e-7
-1.135, -1.590e-7
-1.134, -1.502e-7
-1.133, -1.650e-7
-1.132, -1.847e-7
-1.131, -1.324e-7
-1.130, -1.541e-7
-1.129, -2.074e-7
-1.128, -1.403e-7
-1.127, -1.778e-7
-1.126, -2.182e-7
-1.125, -1.590e-7
-1.124, -1.798e-7
-1.123, -2.024e-7
-1.122, -1.630e-7
-1.121, -1.817e-7
-1.120, -2.005e-7
-1.119, -2.015e-7
-1.118, -1.817e-7
-1.117, -2.074e-7
-1.116, -2.163e-7
-1.115, -1.867e-7
-1.114, -1.985e-7
-1.113, -2.311e-7
-1.112, -1.610e-7
-1.111, -1.965e-7
-1.110, -2.054e-7
-1.109, -1.768e-7
-1.108, -2.034e-7
-1.107, -2.399e-7
-1.106, -1.936e-7
-1.105, -2.399e-7
-1.104, -2.528e-7
-1.103, -2.261e-7
-1.102, -2.005e-7
-1.101, -2.646e-7
-1.100, -2.429e-7
-1.099, -2.153e-7
-1.098, -2.528e-7
-1.097, -2.449e-7
-1.096, -2.182e-7
-1.095, -2.311e-7
-1.094, -2.281e-7
-1.093, -2.123e-7
-1.092, -2.419e-7
-1.091, -2.547e-7
-1.090, -2.133e-7
-1.089, -2.439e-7
-1.088, -2.656e-7
-1.087, -2.330e-7
-1.086, -2.528e-7
-1.085, -2.686e-7
-1.084, -2.538e-7
-1.083, -2.567e-7
-1.082, -2.942e-7
-1.081, -2.557e-7
-1.080, -2.508e-7
-1.079, -2.853e-7
-1.078, -2.784e-7
-1.077, -2.271e-7
-1.076, -2.903e-7
-1.075, -2.824e-7
-1.074, -2.370e-7
-1.073, -3.208e-7
-1.072, -2.804e-7
-1.071, -2.547e-7
-1.070, -2.794e-7
-1.069, -2.784e-7
-1.068, -2.834e-7
-1.067, -3.051e-7
-1.066, -2.912e-7
-1.065, -2.932e-7
-1.064, -2.843e-7
-1.063, -3.080e-7
-1.062, -3.100e-7
-1.061, -2.972e-7
-1.060, -3.396e-7
-1.059, -3.011e-7
-1.058, -3.011e-7
-1.057, -3.277e-7
-1.056, -3.307e-7
-1.055, -3.179e-7
-1.054, -3.445e-7
-1.053, -2.863e-7
-1.052, -3.120e-7
-1.051, -3.495e-7
-1.050, -3.376e-7
-1.049, -3.100e-7
-1.048, -3.347e-7
-1.047, -3.761e-7
-1.046, -3.307e-7
-1.045, -3.297e-7
-1.044, -3.672e-7
-1.043, -3.396e-7
-1.042, -3.218e-7
-1.041, -3.672e-7
-1.040, -3.455e-7
-1.039, -3.524e-7
-1.038, -3.968e-7
-1.037, -3.514e-7
-1.036, -3.534e-7
-1.035, -3.860e-7
-1.034, -3.603e-7
-1.033, -3.840e-7
-1.032, -4.086e-7
-1.031, -3.445e-7
-1.030, -4.027e-7
-1.029, -3.909e-7
-1.028, -3.860e-7
-1.027, -3.721e-7
-1.026, -4.027e-7
-1.025, -4.017e-7
-1.024, -3.958e-7
-1.023, -4.205e-7
-1.022, -4.234e-7
-1.021, -3.840e-7
-1.020, -4.116e-7
-1.019, -4.225e-7
-1.018, -4.057e-7
-1.017, -4.225e-7
-1.016, -4.264e-7
-1.015, -4.254e-7
-1.014, -4.185e-7
-1.013, -4.560e-7
-1.012, -4.234e-7
-1.011, -4.481e-7
-1.010, -4.550e-7
-1.009, -4.077e-7
-1.008, -4.353e-7
-1.007, -4.481e-7
-1.006, -4.550e-7
-1.005, -4.560e-7
-1.004, -4.442e-7
-1.003, -4.363e-7
-1.002, -4.165e-7
-1.001, -4.649e-7
-1.000, -2.390e-7
-1.001, -4.854e-8
-1.002, 3.236e-8
-1.003, 5.998e-8
-1.004, 1.290e-7
-1.005, 1.774e-7
-1.006, 1.636e-7
-1.007, 2.238e-7
-1.008, 2.711e-7
-1.009, 2.731e-7
-1.010, 3.076e-7
-1.011, 3.688e-7
-1.012, 3.530e-7
-1.013, 3.658e-7
-1.014, 4.023e-7
-1.015, 4.270e-7
-1.016, 4.329e-7
-1.017, 4.605e-7
-1.018, 4.753e-7
-1.019, 4.526e-7
-1.020, 5.010e-7
-1.021, 5.109e-7
-1.022, 5.128e-7
-1.023, 5.424e-7
-1.024, 5.730e-7
-1.025, 5.671e-7
-1.026, 5.908e-7
-1.027, 5.957e-7
-1.028, 5.977e-7
-1.029, 5.789e-7
-1.030, 6.411e-7
-1.031, 6.500e-7
-1.032, 6.164e-7
-1.033, 6.756e-7
-1.034, 6.825e-7
-1.035, 6.519e-7
-1.036, 6.993e-7
-1.037, 6.963e-7
-1.038, 7.180e-7
-1.039, 6.815e-7
-1.040, 7.180e-7
-1.041, 7.496e-7
-1.042, 7.062e-7
-1.043, 7.664e-7
-1.044, 7.516e-7
-1.045, 7.328e-7
-1.046, 7.772e-7
-1.047, 7.753e-7
-1.048, 7.753e-7
-1.049, 7.871e-7
-1.050, 8.009e-7
-1.051, 8.059e-7
-1.052, 8.137e-7
-1.053, 8.078e-7
-1.054, 8.285e-7
-1.055, 8.039e-7
-1.056, 8.798e-7
-1.057, 8.552e-7
-1.058, 8.226e-7
-1.059, 8.463e-7
-1.060, 8.749e-7
-1.061, 8.335e-7
-1.062, 8.966e-7
-1.063, 9.163e-7
-1.064, 8.621e-7
-1.065, 9.065e-7
-1.066, 9.065e-7
-1.067, 9.183e-7
-1.068, 8.946e-7
-1.069, 9.282e-7
-1.070, 9.341e-7
-1.071, 9.144e-7
-1.072, 9.400e-7
-1.073, 9.548e-7
-1.074, 9.134e-7
-1.075, 9.785e-7
-1.076, 9.884e-7
-1.077, 9.489e-7
-1.078, 9.864e-7
-1.079, 9.825e-7
-1.080, 9.647e-7
-1.081, 9.775e-7
-1.082, 1.006e-6
-1.083, 1.002e-6
-1.084, 9.805e-7
-1.085, 9.805e-7
-1.086, 1.052e-6
-1.087, 9.815e-7
-1.088, 1.000e-6
-1.089, 1.026e-6
-1.090, 1.028e-6
-1.091, 1.040e-6
-1.092, 1.041e-6
-1.093, 1.060e-6
-1.094, 1.040e-6
-1.095, 1.064e-6
-1.096, 1.088e-6
-1.097, 1.054e-6
-1.098, 1.070e-6
-1.099, 1.095e-6
-1.100, 1.029e-6
-1.101, 1.100e-6
-1.102, 1.107e-6
-1.103, 1.100e-6
-1.104, 1.091e-6
-1.105, 1.121e-6
-1.106, 1.098e-6
-1.107, 1.117e-6
-1.108, 1.119e-6
-1.109, 1.112e-6
-1.110, 1.118e-6
-1.111, 1.156e-6
-1.112, 1.133e-6
-1.113, 1.110e-6
-1.114, 1.146e-6
-1.115, 1.139e-6
-1.116, 1.134e-6
-1.117, 1.173e-6
-1.118, 1.187e-6
-1.119, 1.149e-6
-1.120, 1.133e-6
-1.121, 1.205e-6
-1.122, 1.152e-6
-1.123, 1.175e-6
-1.124, 1.204e-6
-1.125, 1.178e-6
-1.126, 1.185e-6
-1.127, 1.180e-6
-1.128, 1.223e-6
-1.129, 1.177e-6
-1.130, 1.182e-6
-1.131, 1.217e-6
-1.132, 1.229e-6
-1.133, 1.161e-6
-1.134, 1.231e-6
-1.135, 1.220e-6
-1.136, 1.196e-6
-1.137, 1.247e-6
-1.138, 1.264e-6
-1.139, 1.204e-6
-1.140, 1.255e-6
-1.141, 1.265e-6
-1.142, 1.262e-6
-1.143, 1.255e-6
-1.144, 1.266e-6
-1.145, 1.278e-6
-1.146, 1.244e-6
-1.147, 1.257e-6
-1.148, 1.307e-6
-1.149, 1.248e-6
-1.150, 1.288e-6
-1.151, 1.314e-6
-1.152, 1.273e-6
-1.153, 1.293e-6
-1.154, 1.300e-6
-1.155, 1.298e-6
-1.156, 1.320e-6
-1.157, 1.305e-6
-1.158, 1.333e-6
-1.159, 1.278e-6
-1.160, 1.344e-6
-1.161, 1.346e-6
-1.162, 1.329e-6
-1.163, 1.303e-6
-1.164, 1.353e-6
-1.165, 1.337e-6
-1.166, 1.294e-6
-1.167, 1.349e-6
-1.168, 1.339e-6
-1.169, 1.337e-6
-1.170, 1.327e-6
-1.171, 1.362e-6
-1.172, 1.359e-6
-1.173, 1.358e-6
-1.174, 1.389e-6
-1.175, 1.377e-6
-1.176, 1.345e-6
-1.177, 1.382e-6
-1.178, 1.395e-6
-1.179, 1.341e-6
-1.180, 1.403e-6
-1.181, 1.419e-6
-1.182, 1.397e-6
-1.183, 1.387e-6
-1.184, 1.417e-6
-1.185, 1.426e-6
-1.186, 1.377e-6
-1.187, 1.416e-6
-1.188, 1.415e-6
-1.189, 1.382e-6
-1.190, 1.394e-6
-1.191, 1.452e-6
-1.192, 1.425e-6
-1.193, 1.429e-6
-1.194, 1.433e-6
-1.195, 1.435e-6
-1.196, 1.443e-6
-1.197, 1.453e-6
-1.198, 1.468e-6
-1.199, 1.433e-6
-1.200, 1.449e-6
-1.201, 1.481e-6
-1.202, 1.470e-6
-1.203, 1.440e-6
-1.204, 1.493e-6
-1.205, 1.466e-6
-1.206, 1.457e-6
-1.207, 1.471e-6
-1.208, 1.471e-6
-1.209, 1.489e-6
-1.210, 1.479e-6
-1.211, 1.524e-6
-1.212, 1.505e-6
-1.213, 1.475e-6
-1.214, 1.507e-6
-1.215, 1.538e-6
-1.216, 1.514e-6
-1.217, 1.514e-6
-1.218, 1.534e-6
-1.219, 1.518e-6
-1.220, 1.497e-6
-1.221, 1.531e-6
-1.222, 1.555e-6
-1.223, 1.524e-6
-1.224, 1.509e-6
-1.225, 1.563e-6
-1.226, 1.564e-6
-1.227, 1.529e-6
-1.228, 1.578e-6
-1.229, 1.580e-6
-1.230, 1.523e-6
-1.231, 1.578e-6
-1.232, 1.564e-6
-1.233, 1.583e-6
-1.234, 1.579e-6
-1.235, 1.577e-6
-1.236, 1.604e-6
-1.237, 1.597e-6
-1.238, 1.575e-6
-1.239, 1.612e-6
-1.240, 1.555e-6
-1.241, 1.587e-6
-1.242, 1.627e-6
-1.243, 1.595e-6
-1.244, 1.586e-6
-1.245, 1.595e-6
-1.246, 1.646e-6
-1.247, 1.621e-6
-1.248, 1.632e-6
-1.249, 1.652e-6
-1.250, 1.640e-6
-1.251, 1.636e-6
-1.252, 1.670e-6
-1.253, 1.654e-6
-1.254, 1.608e-6
-1.255, 1.673e-6
-1.256, 1.660e-6
-1.257, 1.647e-6
-1.258, 1.675e-6
-1.259, 1.673e-6
-1.260, 1.698e-6
-1.261, 1.657e-6
-1.262, 1.700e-6
-1.263, 1.704e-6
-1.264, 1.659e-6
-1.265, 1.702e-6
-1.266, 1.693e-6
-1.267, 1.703e-6
-1.268, 1.697e-6
-1.269, 1.725e-6
-1.270, 1.728e-6
-1.271, 1.706e-6
-1.272, 1.731e-6
-1.273, 1.744e-6
-1.274, 1.718e-6
-1.275, 1.729e-6
-1.276, 1.741e-6
-1.277, 1.778e-6
-1.278, 1.750e-6
-1.279, 1.751e-6
-1.280, 1.746e-6
-1.281, 1.755e-6
-1.282, 1.766e-6
-1.283, 1.789e-6
-1.284, 1.785e-6
-1.285, 1.756e-6
-1.286, 1.785e-6
-1.287, 1.810e-6
-1.288, 1.775e-6
-1.289, 1.788e-6
-1.290, 1.816e-6
-1.291, 1.788e-6
-1.292, 1.788e-6
-1.293, 1.803e-6
-1.294, 1.813e-6
-1.295, 1.812e-6
-1.296, 1.814e-6
-1.297, 1.826e-6
-1.298, 1.838e-6
-1.299, 1.799e-6
-1.300, 1.854e-6
-1.301, 1.858e-6
-1.302, 1.814e-6
-1.303, 1.856e-6
-1.304, 1.853e-6
-1.305, 1.863e-6
-1.306, 1.870e-6
-1.307, 1.874e-6
-1.308, 1.910e-6
-1.309, 1.836e-6
-1.310, 1.871e-6
-1.311, 1.921e-6
-1.312, 1.871e-6
-1.313, 1.885e-6
-1.314, 1.892e-6
-1.315, 1.885e-6
-1.316, 1.905e-6
-1.317, 1.902e-6
-1.318, 1.906e-6
-1.319, 1.909e-6
-1.320, 1.906e-6
-1.321, 1.952e-6
-1.322, 1.925e-6
-1.323, 1.923e-6
-1.324, 1.943e-6
-1.325, 1.915e-6
-1.326, 1.942e-6
-1.327, 1.952e-6
-1.328, 1.962e-6
-1.329, 1.936e-6
-1.330, 1.968e-6
-1.331, 1.964e-6
-1.332, 1.960e-6
-1.333, 1.949e-6
-1.334, 1.971e-6
-1.335, 1.969e-6
-1.336, 1.973e-6
-1.337, 2.012e-6
-1.338, 1.984e-6
-1.339, 1.977e-6
-1.340, 2.001e-6
-1.341, 2.002e-6
-1.342, 1.984e-6
-1.343, 2.025e-6
-1.344, 2.027e-6
-1.345, 2.028e-6
-1.346, 2.032e-6
-1.347, 2.030e-6
-1.348, 2.039e-6
-1.349, 2.015e-6
-1.350, 2.033e-6
-1.351, 2.034e-6
-1.352, 2.066e-6
-1.353, 2.065e-6
-1.354, 2.049e-6
-1.355, 2.018e-6
-1.356, 2.078e-6
-1.357, 2.075e-6
-1.358, 2.078e-6
-1.359, 2.097e-6
-1.360, 2.087e-6
-1.361, 2.053e-6
-1.362, 2.103e-6
-1.363, 2.111e-6
-1.364, 2.083e-6
-1.365, 2.115e-6
-1.366, 2.113e-6
-1.367, 2.126e-6
-1.368, 2.096e-6
-1.369, 2.131e-6
-1.370, 2.147e-6
-1.371, 2.090e-6
-1.372, 2.164e-6
-1.373, 2.161e-6
-1.374, 2.109e-6
-1.375, 2.159e-6
-1.376, 2.171e-6
-1.377, 2.155e-6
-1.378, 2.149e-6
-1.379, 2.163e-6
-1.380, 2.165e-6
-1.381, 2.166e-6
-1.382, 2.159e-6
-1.383, 2.198e-6
-1.384, 2.178e-6
-1.385, 2.214e-6
-1.386, 2.198e-6
-1.387, 2.180e-6
-1.388, 2.203e-6
-1.389, 2.231e-6
-1.390, 2.176e-6
-1.391, 2.230e-6
-1.392, 2.230e-6
-1.393, 2.250e-6
-1.394, 2.227e-6
-1.395, 2.257e-6
-1.396, 2.306e-6
-1.397, 2.271e-6
-1.398, 2.263e-6
-1.399, 2.284e-6
-1.400, 2.239e-6
-1.401, 2.292e-6
-1.402, 2.285e-6
-1.403, 2.266e-6
-1.404, 2.314e-6
-1.405, 2.318e-6
-1.406, 2.294e-6
-1.407, 2.317e-6
-1.408, 2.341e-6
-1.409, 2.307e-6
-1.410, 2.330e-6
-1.411, 2.357e-6
-1.412, 2.351e-6
-1.413, 2.304e-6
-1.414, 2.377e-6
-1.415, 2.392e-6
-1.416, 2.329e-6
-1.417, 2.381e-6
-1.418, 2.395e-6
-1.419, 2.356e-6
-1.420, 2.409e-6
-1.421, 2.414e-6
-1.422, 2.397e-6
-1.423, 2.442e-6
-1.424, 2.428e-6
-1.425, 2.417e-6
-1.426, 2.421e-6
-1.427, 2.453e-6
-1.428, 2.470e-6
-1.429, 2.459e-6
-1.430, 2.456e-6
-1.431, 2.492e-6
-1.432, 2.471e-6
-1.433, 2.491e-6
-1.434, 2.517e-6
-1.435, 2.493e-6
-1.436, 2.478e-6
-1.437, 2.533e-6
-1.438, 2.550e-6
-1.439, 2.518e-6
-1.440, 2.554e-6
-1.441, 2.569e-6
-1.442, 2.512e-6
-1.443, 2.572e-6
-1.444, 2.572e-6
-1.445, 2.582e-6
-1.446, 2.566e-6
-1.447, 2.605e-6
-1.448, 2.598e-6
-1.449, 2.598e-6
-1.450, 2.631e-6
-1.451, 2.627e-6
-1.452, 2.609e-6
-1.453, 2.649e-6
-1.454, 2.653e-6
-1.455, 2.649e-6
-1.456, 2.671e-6
-1.457, 2.703e-6
-1.458, 2.714e-6
-1.459, 2.672e-6
-1.460, 2.744e-6
-1.461, 2.741e-6
-1.462, 2.716e-6
-1.463, 2.760e-6
-1.464, 2.752e-6
-1.465, 2.784e-6
-1.466, 2.770e-6
-1.467, 2.807e-6
-1.468, 2.813e-6
-1.469, 2.787e-6
-1.470, 2.798e-6
-1.471, 2.878e-6
-1.472, 2.823e-6
-1.473, 2.870e-6
-1.474, 2.866e-6
-1.475, 2.875e-6
-1.476, 2.844e-6
-1.477, 2.928e-6
-1.478, 2.921e-6
-1.479, 2.892e-6
-1.480, 2.939e-6
-1.481, 2.945e-6
-1.482, 2.962e-6
-1.483, 2.992e-6
-1.484, 2.985e-6
-1.485, 3.014e-6
-1.486, 3.030e-6
-1.487, 3.055e-6
-1.488, 3.043e-6
-1.489, 3.055e-6
-1.490, 3.086e-6
-1.491, 3.097e-6
-1.492, 3.102e-6
-1.493, 3.148e-6
-1.494, 3.147e-6
-1.495, 3.137e-6
-1.496, 3.165e-6
-1.497, 3.197e-6
-1.498, 3.231e-6
-1.499, 3.203e-6
-1.500, 3.255e-6
-1.501, 3.250e-6
-1.502, 3.254e-6
-1.503, 3.317e-6
-1.504, 3.302e-6
-1.505, 3.318e-6
-1.506, 3.352e-6
-1.507, 3.328e-6
-1.508, 3.378e-6
-1.509, 3.387e-6
-1.510, 3.395e-6
-1.511, 3.456e-6
-1.512, 3.471e-6
-1.513, 3.483e-6
-1.514, 3.522e-6
-1.515, 3.548e-6
-1.516, 3.569e-6
-1.517, 3.581e-6
-1.518, 3.587e-6
-1.519, 3.636e-6
-1.520, 3.673e-6
-1.521, 3.642e-6
-1.522, 3.715e-6
-1.523, 3.738e-6
-1.524, 3.742e-6
-1.525, 3.780e-6
-1.526, 3.831e-6
-1.527, 3.870e-6
-1.528, 3.806e-6
-1.529, 3.917e-6
-1.530, 3.927e-6
-1.531, 3.931e-6
-1.532, 4.029e-6
-1.533, 4.018e-6
-1.534, 4.040e-6
-1.535, 4.101e-6
-1.536, 4.151e-6
-1.537, 4.176e-6
-1.538, 4.217e-6
-1.539, 4.239e-6
-1.540, 4.297e-6
-1.541, 4.323e-6
-1.542, 4.383e-6
-1.543, 4.416e-6
-1.544, 4.440e-6
-1.545, 4.517e-6
-1.546, 4.573e-6
-1.547, 4.578e-6
-1.548, 4.685e-6
-1.549, 4.722e-6
-1.550, 4.753e-6
-1.551, 4.840e-6
-1.552, 4.904e-6
-1.553, 4.922e-6
-1.554, 5.028e-6
-1.555, 5.065e-6
-1.556, 5.106e-6
-1.557, 5.212e-6
-1.558, 5.292e-6
-1.559, 5.338e-6
-1.560, 5.386e-6
-1.561, 5.571e-6
-1.562, 5.596e-6
-1.563, 5.664e-6
-1.564, 5.764e-6
-1.565, 5.794e-6
-1.566, 5.893e-6
-1.567, 6.001e-6
-1.568, 6.078e-6
-1.569, 6.193e-6
-1.570, 6.291e-6
-1.571, 6.391e-6
-1.572, 6.474e-6
-1.573, 6.623e-6
-1.574, 6.768e-6
-1.575, 6.839e-6
-1.576, 7.001e-6
-1.577, 7.156e-6
-1.578, 7.266e-6
-1.579, 7.408e-6
-1.580, 7.525e-6
-1.581, 7.685e-6
-1.582, 7.855e-6
-1.583, 8.022e-6
-1.584, 8.144e-6
-1.585, 8.330e-6
-1.586, 8.560e-6
-1.587, 8.718e-6
-1.588, 8.941e-6
-1.589, 9.164e-6
-1.590, 9.319e-6
-1.591, 9.571e-6
-1.592, 9.780e-6
-1.593, 1.002e-5
-1.594, 1.029e-5
-1.595, 1.051e-5
-1.596, 1.081e-5
-1.597, 1.100e-5
-1.598, 1.136e-5
-1.599, 1.162e-5
-1.600, 1.125e-5
-1.599, 1.095e-5
-1.598, 1.070e-5
-1.597, 1.051e-5
-1.596, 1.041e-5
-1.595, 1.022e-5
-1.594, 1.001e-5
-1.593, 9.875e-6
-1.592, 9.734e-6
-1.591, 9.543e-6
-1.590, 9.407e-6
-1.589, 9.266e-6
-1.588, 9.062e-6
-1.587, 8.909e-6
-1.586, 8.772e-6
-1.585, 8.575e-6
-1.584, 8.421e-6
-1.583, 8.311e-6
-1.582, 8.125e-6
-1.581, 7.998e-6
-1.580, 7.847e-6
-1.579, 7.665e-6
-1.578, 7.525e-6
-1.577, 7.412e-6
-1.576, 7.253e-6
-1.575, 7.125e-6
-1.574, 6.985e-6
-1.573, 6.866e-6
-1.572, 6.699e-6
-1.571, 6.587e-6
-1.570, 6.432e-6
-1.569, 6.323e-6
-1.568, 6.191e-6
-1.567, 6.057e-6
-1.566, 5.916e-6
-1.565, 5.819e-6
-1.564, 5.730e-6
-1.563, 5.585e-6
-1.562, 5.546e-6
-1.561, 5.364e-6
-1.560, 5.217e-6
-1.559, 5.158e-6
-1.558, 5.065e-6
-1.557, 4.959e-6
-1.556, 4.830e-6
-1.555, 4.780e-6
-1.554, 4.652e-6
-1.553, 4.563e-6
-1.552, 4.474e-6
-1.551, 4.369e-6
-1.550, 4.308e-6
-1.549, 4.249e-6
-1.548, 4.089e-6
-1.547, 4.050e-6
-1.546, 3.981e-6
-1.545, 3.895e-6
-1.544, 3.776e-6
-1.543, 3.764e-6
-1.542, 3.681e-6
-1.541, 3.552e-6
-1.540, 3.528e-6
-1.539, 3.454e-6
-1.538, 3.377e-6
-1.537, 3.323e-6
-1.536, 3.257e-6
-1.535, 3.189e-6
-1.534, 3.124e-6
-1.533, 3.092e-6
-1.532, 3.034e-6
-1.531, 2.943e-6
-1.530, 2.904e-6
-1.529, 2.838e-6
-1.528, 2.777e-6
-1.527, 2.722e-6
-1.526, 2.695e-6
-1.525, 2.608e-6
-1.524, 2.594e-6
-1.523, 2.523e-6
-1.522, 2.487e-6
-1.521, 2.434e-6
-1.520, 2.387e-6
-1.519, 2.353e-6
-1.518, 2.315e-6
-1.517, 2.297e-6
-1.516, 2.236e-6
-1.515, 2.206e-6
-1.514, 2.171e-6
-1.513, 2.109e-6
-1.512, 2.049e-6
-1.511, 2.041e-6
-1.510, 1.996e-6
-1.509, 1.971e-6
-1.508, 1.978e-6
-1.507, 1.947e-6
-1.506, 1.847e-6
-1.505, 1.855e-6
-1.504, 1.847e-6
-1.503, 1.765e-6
-1.502, 1.775e-6
-1.501, 1.691e-6
-1.500, 1.691e-6
-1.499, 1.664e-6
-1.498, 1.641e-6
-1.497, 1.621e-6
-1.496, 1.555e-6
-1.495, 1.581e-6
-1.494, 1.552e-6
-1.493, 1.483e-6
-1.492, 1.513e-6
-1.491, 1.442e-6
-1.490, 1.419e-6
-1.489, 1.421e-6
-1.488, 1.429e-6
-1.487, 1.380e-6
-1.486, 1.335e-6
-1.485, 1.341e-6
-1.484, 1.338e-6
-1.483, 1.286e-6
-1.482, 1.297e-6
-1.481, 1.238e-6
-1.480, 1.227e-6
-1.479, 1.249e-6
-1.478, 1.192e-6
-1.477, 1.177e-6
-1.476, 1.171e-6
-1.475, 1.151e-6
-1.474, 1.118e-6
-1.473, 1.168e-6
-1.472, 1.139e-6
-1.471, 1.054e-6
-1.470, 1.067e-6
-1.469, 1.068e-6
-1.468, 1.026e-6
-1.467, 1.050e-6
-1.466, 1.028e-6
-1.465, 9.637e-7
-1.464, 9.854e-7
-1.463, 9.716e-7
-1.462, 9.469e-7
-1.461, 9.203e-7
-1.460, 9.302e-7
-1.459, 9.223e-7
-1.458, 8.917e-7
-1.457, 8.897e-7
-1.456, 8.808e-7
-1.455, 8.720e-7
-1.454, 8.828e-7
-1.453, 8.631e-7
-1.452, 8.364e-7
-1.451, 8.187e-7
-1.450, 8.039e-7
-1.449, 8.019e-7
-1.448, 8.216e-7
-1.447, 8.039e-7
-1.446, 7.772e-7
-1.445, 7.674e-7
-1.444, 7.743e-7
-1.443, 7.092e-7
-1.442, 7.812e-7
-1.441, 7.486e-7
-1.440, 7.092e-7
-1.439, 7.240e-7
-1.438, 7.220e-7
-1.437, 6.697e-7
-1.436, 7.309e-7
-1.435, 6.884e-7
-1.434, 6.598e-7
-1.433, 6.825e-7
-1.432, 6.598e-7
-1.431, 6.401e-7
-1.430, 6.667e-7
-1.429, 6.362e-7
-1.428, 5.888e-7
-1.427, 6.332e-7
-1.426, 6.243e-7
-1.425, 5.819e-7
-1.424, 6.085e-7
-1.423, 6.115e-7
-1.422, 5.809e-7
-1.421, 5.661e-7
-1.420, 5.819e-7
-1.419, 5.829e-7
-1.418, 5.701e-7
-1.417, 5.750e-7
-1.416, 5.454e-7
-1.415, 5.109e-7
-1.414, 5.671e-7
-1.413, 5.483e-7
-1.412, 5.148e-7
-1.411, 5.188e-7
-1.410, 5.197e-7
-1.409, 4.793e-7
-1.408, 5.109e-7
-1.407, 5.010e-7
-1.406, 4.556e-7
-1.405, 4.901e-7
-1.404, 4.763e-7
-1.403, 4.625e-7
-1.402, 4.793e-7
-1.401, 4.724e-7
-1.400, 4.457e-7
-1.399, 4.655e-7
-1.398, 4.694e-7
-1.397, 4.211e-7
-1.396, 4.349e-7
-1.395, 4.270e-7
-1.394, 4.073e-7
-1.393, 4.359e-7
-1.392, 4.280e-7
-1.391, 4.181e-7
-1.390, 4.211e-7
-1.389, 4.309e-7
-1.388, 3.974e-7
-1.387, 3.954e-7
-1.386, 4.231e-7
-1.385, 3.816e-7
-1.384, 3.717e-7
-1.383, 4.023e-7
-1.382, 3.629e-7
-1.381, 3.865e-7
-1.380, 4.033e-7
-1.379, 3.451e-7
-1.378, 3.727e-7
-1.377, 3.589e-7
-1.376, 3.550e-7
-1.375, 3.116e-7
-1.374, 3.570e-7
-1.373, 3.461e-7
-1.372, 3.224e-7
-1.371, 3.402e-7
-1.370, 3.066e-7
-1.369, 2.987e-7
-1.368, 3.293e-7
-1.367, 3.027e-7
-1.366, 2.987e-7
-1.365, 3.323e-7
-1.364, 3.126e-7
-1.363, 2.938e-7
-1.362, 3.017e-7
-1.361, 2.958e-7
-1.360, 2.701e-7
-1.359, 3.066e-7
-1.358, 2.889e-7
-1.357, 2.563e-7
-1.356, 2.879e-7
-1.355, 2.721e-7
-1.354, 2.455e-7
-1.353, 2.534e-7
-1.352, 2.593e-7
-1.351, 2.474e-7
-1.350, 2.830e-7
-1.349, 2.317e-7
-1.348, 2.326e-7
-1.347, 2.494e-7
-1.346, 2.534e-7
-1.345, 2.021e-7
-1.344, 2.435e-7
-1.343, 2.188e-7
-1.342, 2.060e-7
-1.341, 2.346e-7
-1.340, 2.356e-7
-1.339, 2.159e-7
-1.338, 1.951e-7
-1.337, 2.139e-7
-1.336, 1.961e-7
-1.335, 1.922e-7
-1.334, 2.247e-7
-1.333, 1.616e-7
-1.332, 2.060e-7
-1.331, 1.971e-7
-1.330, 1.429e-7
-1.329, 1.695e-7
-1.328, 1.902e-7
-1.327, 1.843e-7
-1.326, 1.725e-7
-1.325, 1.567e-7
-1.324, 1.488e-7
-1.323, 1.577e-7
-1.322, 1.744e-7
-1.321, 1.882e-7
-1.320, 1.488e-7
-1.319, 1.517e-7
-1.318, 1.586e-7
-1.317, 1.389e-7
-1.316, 1.567e-7
-1.315, 1.448e-7
-1.314, 1.212e-7
-1.313, 1.379e-7
-1.312, 1.656e-7
-1.311, 1.093e-7
-1.310, 1.360e-7
-1.309, 1.360e-7
-1.308, 1.133e-7
-1.307, 1.626e-7
-1.306, 1.202e-7
-1.305, 1.281e-7
-1.304, 1.517e-7
-1.303, 1.133e-7
-1.302, 1.014e-7
-1.301, 1.014e-7
-1.300, 1.241e-7
-1.299, 1.271e-7
-1.298, 1.202e-7
-1.297, 1.064e-7
-1.296, 8.662e-8
-1.295, 9.649e-8
-1.294, 1.093e-7
-1.293, 9.156e-8
-1.292, 7.873e-8
-1.291, 1.113e-7
-1.290, 6.492e-8
-1.289, 7.380e-8
-1.288, 9.649e-8
-1.287, 8.366e-8
-1.286, 8.268e-8
-1.285, 1.024e-7
-1.284, 9.748e-8
-1.283, 6.196e-8
-1.282, 8.366e-8
-1.281, 6.393e-8
-1.280, 5.111e-8
-1.279, 5.505e-8
-1.278, 5.407e-8
-1.277, 3.137e-8
-1.276, 7.182e-8
-1.275, 7.281e-8
-1.274, 5.111e-8
-1.273, 6.294e-8
-1.272, 5.209e-8
-1.271, 4.815e-8
-1.270, 2.052e-8
-1.269, 5.998e-8
-1.268, 6.590e-8
-1.267, 3.729e-8
-1.266, 5.012e-8
-1.265, 3.137e-8
-1.264, 3.039e-8
-1.263, 1.953e-8
-1.262, 5.801e-8
-1.261, 9.669e-9
-1.260, 9.669e-9
-1.259, 3.433e-8
-1.258, 2.447e-8
-1.257, 2.644e-8
-1.256, 2.743e-8
-1.255, 4.321e-8
-1.254, -3.157e-9
-1.253, 1.953e-8
-1.252, 2.762e-9
-1.251, 9.669e-9
-1.250, -2.171e-9
-1.249, 3.729e-8
-1.248, -1.796e-8
-1.247, -6.117e-9
-1.246, 3.433e-8
-1.245, -1.105e-8
-1.244, -1.302e-8
-1.243, 1.263e-8
-1.242, -1.500e-8
-1.241, -4.262e-8
-1.240, 2.151e-8
-1.239, -2.881e-8
-1.238, -3.867e-8
-1.237, 9.669e-9
-1.236, -1.302e-8
-1.235, -3.275e-8
-1.234, -3.769e-8
-1.233, 1.164e-8
-1.232, -1.993e-8
-1.231, -4.854e-8
-1.230, -2.486e-8
-1.229, -2.782e-8
-1.228, -5.347e-8
-1.227, -2.881e-8
-1.226, -4.558e-8
-1.225, -5.939e-8
-1.224, -3.473e-8
-1.223, -4.459e-8
-1.222, -4.657e-8
-1.221, -5.643e-8
-1.220, -5.249e-8
-1.219, -4.163e-8
-1.218, -2.980e-8
-1.217, -3.473e-8
-1.216, -6.433e-8
-1.215, -6.926e-8
-1.214, -3.670e-8
-1.213, -4.755e-8
-1.212, -5.939e-8
-1.211, -1.184e-9
-1.210, -6.235e-8
-1.209, -8.800e-8
-1.208, -1.796e-8
-1.207, -6.729e-8
-1.206, -8.702e-8
-1.205, -5.841e-8
-1.204, -5.742e-8
-1.203, -8.702e-8
-1.202, -8.702e-8
-1.201, -5.446e-8
-1.200, -8.208e-8
-1.199, -8.504e-8
-1.198, -6.433e-8
-1.197, -5.841e-8
-1.196, -9.590e-8
-1.195, -6.531e-8
-1.194, -8.800e-8
-1.193, -1.127e-7
-1.192, -6.334e-8
-1.191, -7.222e-8
-1.190, -1.196e-7
-1.189, -8.800e-8
-1.188, -7.715e-8
-1.187, -1.087e-7
-1.186, -1.255e-7
-1.185, -7.912e-8
-1.184, -9.294e-8
-1.183, -1.097e-7
-1.182, -8.899e-8
-1.181, -1.127e-7
-1.180, -1.038e-7
-1.179, -8.702e-8
-1.178, -1.137e-7
-1.177, -1.413e-7
-1.176, -9.491e-8
-1.175, -1.077e-7
-1.174, -1.156e-7
-1.173, -1.235e-7
-1.172, -9.590e-8
-1.171, -1.354e-7
-1.170, -1.107e-7
-1.169, -1.087e-7
-1.168, -1.511e-7
-1.167, -1.215e-7
-1.166, -1.038e-7
-1.165, -1.363e-7
-1.164, -1.206e-7
-1.163, -1.225e-7
-1.162, -1.482e-7
-1.161, -1.413e-7
-1.160, -1.176e-7
-1.159, -1.423e-7
-1.158, -1.521e-7
-1.157, -1.354e-7
-1.156, -1.255e-7
-1.155, -1.827e-7
-1.154, -1.472e-7
-1.153, -1.275e-7
-1.152, -1.758e-7
-1.151, -1.669e-7
-1.150, -1.521e-7
-1.149, -1.630e-7
-1.148, -2.054e-7
-1.147, -1.482e-7
-1.146, -1.590e-7
-1.145, -2.054e-7
-1.144, -1.669e-7
-1.143, -1.650e-7
-1.142, -1.916e-7
-1.141, -1.492e-7
-1.140, -2.024e-7
-1.139, -1.857e-7
-1.138, -1.581e-7
-1.137, -1.817e-7
-1.136, -1.995e-7
-1.135, -2.232e-7
-1.134, -1.640e-7
-1.133, -2.330e-7
-1.132, -1.778e-7
-1.131, -1.571e-7
-1.130, -2.340e-7
-1.129, -1.896e-7
-1.128, -1.827e-7
-1.127, -2.182e-7
-1.126, -2.064e-7
-1.125, -1.946e-7
-1.124, -2.202e-7
-1.123, -2.192e-7
-1.122, -2.281e-7
-1.121, -2.380e-7
-1.120, -1.906e-7
-1.119, -2.182e-7
-1.118, -2.113e-7
-1.117, -2.232e-7
-1.116, -2.143e-7
-1.115, -2.468e-7
-1.114, -2.251e-7
-1.113, -2.251e-7
-1.112, -2.320e-7
-1.111, -2.725e-7
-1.110, -2.311e-7
-1.109, -2.261e-7
-1.108, -2.607e-7
-1.107, -2.380e-7
-1.106, -2.143e-7
-1.105, -2.774e-7
-1.104, -2.271e-7
-1.103, -2.242e-7
-1.102, -2.557e-7
-1.101, -2.528e-7
-1.100, -2.459e-7
-1.099, -2.567e-7
-1.098, -2.498e-7
-1.097, -2.547e-7
-1.096, -2.449e-7
-1.095, -2.528e-7
-1.094, -2.705e-7
-1.093, -2.764e-7
-1.092, -2.449e-7
-1.091, -2.320e-7
-1.090, -2.636e-7
-1.089, -2.893e-7
-1.088, -2.449e-7
-1.087, -2.991e-7
-1.086, -3.070e-7
-1.085, -2.755e-7
-1.084, -2.912e-7
-1.083, -2.942e-7
-1.082, -2.547e-7
-1.081, -2.863e-7
-1.080, -3.129e-7
-1.079, -2.853e-7
-1.078, -2.745e-7
-1.077, -2.873e-7
-1.076, -3.021e-7
-1.075, -2.626e-7
-1.074, -3.268e-7
-1.073, -3.060e-7
-1.072, -2.883e-7
-1.071, -3.416e-7
-1.070, -3.228e-7
-1.069, -3.149e-7
-1.068, -2.991e-7
-1.067, -3.327e-7
-1.066, -3.139e-7
-1.065, -2.972e-7
-1.064, -3.139e-7
-1.063, -3.031e-7
-1.062, -3.376e-7
-1.061, -3.376e-7
-1.060, -3.347e-7
-1.059, -3.514e-7
-1.058, -3.307e-7
-1.057, -3.534e-7
-1.056, -3.425e-7
-1.055, -3.850e-7
-1.054, -3.623e-7
-1.053, -3.110e-7
-1.052, -3.583e-7
-1.051, -3.682e-7
-1.050, -3.317e-7
-1.049, -3.721e-7
-1.048, -3.800e-7
-1.047, -3.633e-7
-1.046, -3.761e-7
-1.045, -3.761e-7
-1.044, -3.643e-7
-1.043, -3.702e-7
-1.042, -3.968e-7
-1.041, -3.830e-7
-1.040, -3.544e-7
-1.039, -3.840e-7
-1.038, -4.027e-7
-1.037, -3.643e-7
-1.036, -3.889e-7
-1.035, -4.057e-7
-1.034, -3.672e-7
-1.033, -3.909e-7
-1.032, -4.027e-7
-1.031, -3.761e-7
-1.030, -4.027e-7
-1.029, -4.116e-7
-1.028, -4.008e-7
-1.027, -3.702e-7
-1.026, -4.106e-7
-1.025, -4.215e-7
-1.024, -3.919e-7
-1.023, -4.146e-7
-1.022, -4.353e-7
-1.021, -4.027e-7
-1.020, -4.254e-7
-1.019, -4.215e-7
-1.018, -4.244e-7
-1.017, -4.412e-7
-1.016, -4.323e-7
-1.015, -4.116e-7
-1.014, -4.195e-7
-1.013, -4.570e-7
-1.012, -4.205e-7
-1.011, -4.471e-7
-1.010, -4.570e-7
-1.009, -4.570e-7
-1.008, -4.175e-7
-1.007, -4.708e-7
-1.006, -4.580e-7
-1.005, -4.264e-7
-1.004, -4.540e-7
-1.003, -4.501e-7
-1.002, -4.363e-7
-1.001, -4.590e-7
