Aug. 31, 2024   03:32:31
Cyclic Voltammetry
File: c:/users/guazh/data/20240829_batch_215_500/2024-08-29-exp226\exp226-2024-08-31t03_25_44-h2koh\exp226_cv_sr_300mvs_efin_-1400mv.bin
Data Source:  Experiment
Instrument Model:  CHI760E
Header: CV ran at 300 mVs
Note: 

Init E (V) = -1
High E (V) = -1
Low E (V) = -1.4
Final E (V) = -1
Init P/N = N
Scan Rate (V/s) = 0.3
Segment = 3
Sample Interval (V) = 0.001
Quiet Time (sec) = 2
Sensitivity (A/V) = 0.01
Comp R (ohm) = 1.5

Results:

Channel 1:
Segment 1:

Segment 2:

Segment 3:

Potential/V, Current/A

-1.000, 1.865e-5
-1.001, 9.265e-5
-1.002, 1.327e-4
-1.003, 1.605e-4
-1.004, 1.759e-4
-1.005, 1.882e-4
-1.006, 1.975e-4
-1.007, 2.067e-4
-1.008, 2.098e-4
-1.009, 2.129e-4
-1.010, 2.160e-4
-1.011, 2.221e-4
-1.012, 2.252e-4
-1.013, 2.252e-4
-1.014, 2.252e-4
-1.015, 2.283e-4
-1.016, 2.314e-4
-1.017, 2.314e-4
-1.018, 2.314e-4
-1.019, 2.345e-4
-1.020, 2.376e-4
-1.021, 2.345e-4
-1.022, 2.376e-4
-1.023, 2.376e-4
-1.024, 2.406e-4
-1.025, 2.406e-4
-1.026, 2.406e-4
-1.027, 2.437e-4
-1.028, 2.437e-4
-1.029, 2.437e-4
-1.030, 2.437e-4
-1.031, 2.437e-4
-1.032, 2.468e-4
-1.033, 2.468e-4
-1.034, 2.468e-4
-1.035, 2.468e-4
-1.036, 2.468e-4
-1.037, 2.468e-4
-1.038, 2.499e-4
-1.039, 2.468e-4
-1.040, 2.468e-4
-1.041, 2.499e-4
-1.042, 2.499e-4
-1.043, 2.499e-4
-1.044, 2.499e-4
-1.045, 2.499e-4
-1.046, 2.530e-4
-1.047, 2.530e-4
-1.048, 2.530e-4
-1.049, 2.530e-4
-1.050, 2.530e-4
-1.051, 2.561e-4
-1.052, 2.561e-4
-1.053, 2.530e-4
-1.054, 2.561e-4
-1.055, 2.561e-4
-1.056, 2.561e-4
-1.057, 2.561e-4
-1.058, 2.561e-4
-1.059, 2.561e-4
-1.060, 2.561e-4
-1.061, 2.561e-4
-1.062, 2.561e-4
-1.063, 2.561e-4
-1.064, 2.561e-4
-1.065, 2.591e-4
-1.066, 2.591e-4
-1.067, 2.591e-4
-1.068, 2.591e-4
-1.069, 2.561e-4
-1.070, 2.591e-4
-1.071, 2.622e-4
-1.072, 2.622e-4
-1.073, 2.622e-4
-1.074, 2.591e-4
-1.075, 2.622e-4
-1.076, 2.622e-4
-1.077, 2.622e-4
-1.078, 2.622e-4
-1.079, 2.622e-4
-1.080, 2.622e-4
-1.081, 2.653e-4
-1.082, 2.653e-4
-1.083, 2.622e-4
-1.084, 2.653e-4
-1.085, 2.653e-4
-1.086, 2.653e-4
-1.087, 2.653e-4
-1.088, 2.653e-4
-1.089, 2.684e-4
-1.090, 2.684e-4
-1.091, 2.684e-4
-1.092, 2.684e-4
-1.093, 2.684e-4
-1.094, 2.684e-4
-1.095, 2.684e-4
-1.096, 2.684e-4
-1.097, 2.715e-4
-1.098, 2.715e-4
-1.099, 2.684e-4
-1.100, 2.715e-4
-1.101, 2.715e-4
-1.102, 2.715e-4
-1.103, 2.715e-4
-1.104, 2.715e-4
-1.105, 2.715e-4
-1.106, 2.746e-4
-1.107, 2.746e-4
-1.108, 2.746e-4
-1.109, 2.746e-4
-1.110, 2.746e-4
-1.111, 2.746e-4
-1.112, 2.746e-4
-1.113, 2.746e-4
-1.114, 2.746e-4
-1.115, 2.746e-4
-1.116, 2.807e-4
-1.117, 2.807e-4
-1.118, 2.776e-4
-1.119, 2.776e-4
-1.120, 2.776e-4
-1.121, 2.807e-4
-1.122, 2.807e-4
-1.123, 2.807e-4
-1.124, 2.807e-4
-1.125, 2.807e-4
-1.126, 2.838e-4
-1.127, 2.838e-4
-1.128, 2.807e-4
-1.129, 2.838e-4
-1.130, 2.838e-4
-1.131, 2.869e-4
-1.132, 2.838e-4
-1.133, 2.838e-4
-1.134, 2.900e-4
-1.135, 2.900e-4
-1.136, 2.900e-4
-1.137, 2.900e-4
-1.138, 2.869e-4
-1.139, 2.900e-4
-1.140, 2.900e-4
-1.141, 2.900e-4
-1.142, 2.931e-4
-1.143, 2.931e-4
-1.144, 2.961e-4
-1.145, 2.961e-4
-1.146, 2.961e-4
-1.147, 2.961e-4
-1.148, 2.961e-4
-1.149, 2.961e-4
-1.150, 2.961e-4
-1.151, 2.992e-4
-1.152, 2.992e-4
-1.153, 2.992e-4
-1.154, 2.992e-4
-1.155, 2.992e-4
-1.156, 3.023e-4
-1.157, 3.023e-4
-1.158, 3.023e-4
-1.159, 3.054e-4
-1.160, 3.054e-4
-1.161, 3.054e-4
-1.162, 3.115e-4
-1.163, 3.085e-4
-1.164, 3.115e-4
-1.165, 3.085e-4
-1.166, 3.115e-4
-1.167, 3.146e-4
-1.168, 3.146e-4
-1.169, 3.115e-4
-1.170, 3.115e-4
-1.171, 3.177e-4
-1.172, 3.208e-4
-1.173, 3.146e-4
-1.174, 3.208e-4
-1.175, 3.208e-4
-1.176, 3.208e-4
-1.177, 3.208e-4
-1.178, 3.270e-4
-1.179, 3.300e-4
-1.180, 3.300e-4
-1.181, 3.331e-4
-1.182, 3.393e-4
-1.183, 3.393e-4
-1.184, 3.393e-4
-1.185, 3.393e-4
-1.186, 3.424e-4
-1.187, 3.455e-4
-1.188, 3.455e-4
-1.189, 3.455e-4
-1.190, 3.485e-4
-1.191, 3.516e-4
-1.192, 3.547e-4
-1.193, 3.547e-4
-1.194, 3.547e-4
-1.195, 3.578e-4
-1.196, 3.609e-4
-1.197, 3.609e-4
-1.198, 3.640e-4
-1.199, 3.670e-4
-1.200, 3.670e-4
-1.201, 3.732e-4
-1.202, 3.763e-4
-1.203, 3.794e-4
-1.204, 3.794e-4
-1.205, 3.794e-4
-1.206, 3.825e-4
-1.207, 3.886e-4
-1.208, 3.886e-4
-1.209, 3.917e-4
-1.210, 3.948e-4
-1.211, 3.979e-4
-1.212, 4.010e-4
-1.213, 4.040e-4
-1.214, 4.071e-4
-1.215, 4.102e-4
-1.216, 4.133e-4
-1.217, 4.195e-4
-1.218, 4.195e-4
-1.219, 4.225e-4
-1.220, 4.256e-4
-1.221, 4.318e-4
-1.222, 4.380e-4
-1.223, 4.380e-4
-1.224, 4.410e-4
-1.225, 4.441e-4
-1.226, 4.503e-4
-1.227, 4.565e-4
-1.228, 4.595e-4
-1.229, 4.626e-4
-1.230, 4.688e-4
-1.231, 4.750e-4
-1.232, 4.811e-4
-1.233, 4.811e-4
-1.234, 4.842e-4
-1.235, 4.904e-4
-1.236, 4.996e-4
-1.237, 5.027e-4
-1.238, 5.089e-4
-1.239, 5.120e-4
-1.240, 5.212e-4
-1.241, 5.305e-4
-1.242, 5.335e-4
-1.243, 5.366e-4
-1.244, 5.428e-4
-1.245, 5.489e-4
-1.246, 5.582e-4
-1.247, 5.613e-4
-1.248, 5.674e-4
-1.249, 5.736e-4
-1.250, 5.829e-4
-1.251, 5.890e-4
-1.252, 5.983e-4
-1.253, 6.014e-4
-1.254, 6.075e-4
-1.255, 6.168e-4
-1.256, 6.260e-4
-1.257, 6.322e-4
-1.258, 6.414e-4
-1.259, 6.507e-4
-1.260, 6.599e-4
-1.261, 6.661e-4
-1.262, 6.723e-4
-1.263, 6.784e-4
-1.264, 6.877e-4
-1.265, 7.000e-4
-1.266, 7.062e-4
-1.267, 7.154e-4
-1.268, 7.216e-4
-1.269, 7.309e-4
-1.270, 7.432e-4
-1.271, 7.524e-4
-1.272, 7.648e-4
-1.273, 7.771e-4
-1.274, 7.863e-4
-1.275, 7.956e-4
-1.276, 8.048e-4
-1.277, 8.141e-4
-1.278, 8.264e-4
-1.279, 8.388e-4
-1.280, 8.511e-4
-1.281, 8.634e-4
-1.282, 8.727e-4
-1.283, 8.850e-4
-1.284, 9.004e-4
-1.285, 9.097e-4
-1.286, 9.189e-4
-1.287, 9.343e-4
-1.288, 9.498e-4
-1.289, 9.621e-4
-1.290, 9.713e-4
-1.291, 9.868e-4
-1.292, 1.005e-3
-1.293, 1.018e-3
-1.294, 1.027e-3
-1.295, 1.036e-3
-1.296, 1.055e-3
-1.297, 1.070e-3
-1.298, 1.085e-3
-1.299, 1.104e-3
-1.300, 1.122e-3
-1.301, 1.141e-3
-1.302, 1.153e-3
-1.303, 1.169e-3
-1.304, 1.187e-3
-1.305, 1.203e-3
-1.306, 1.215e-3
-1.307, 1.230e-3
-1.308, 1.252e-3
-1.309, 1.270e-3
-1.310, 1.286e-3
-1.311, 1.304e-3
-1.312, 1.326e-3
-1.313, 1.341e-3
-1.314, 1.357e-3
-1.315, 1.378e-3
-1.316, 1.400e-3
-1.317, 1.415e-3
-1.318, 1.434e-3
-1.319, 1.455e-3
-1.320, 1.474e-3
-1.321, 1.499e-3
-1.322, 1.520e-3
-1.323, 1.542e-3
-1.324, 1.563e-3
-1.325, 1.588e-3
-1.326, 1.610e-3
-1.327, 1.628e-3
-1.328, 1.650e-3
-1.329, 1.671e-3
-1.330, 1.693e-3
-1.331, 1.714e-3
-1.332, 1.739e-3
-1.333, 1.767e-3
-1.334, 1.795e-3
-1.335, 1.816e-3
-1.336, 1.838e-3
-1.337, 1.862e-3
-1.338, 1.890e-3
-1.339, 1.918e-3
-1.340, 1.943e-3
-1.341, 1.964e-3
-1.342, 1.998e-3
-1.343, 2.029e-3
-1.344, 2.050e-3
-1.345, 2.078e-3
-1.346, 2.106e-3
-1.347, 2.140e-3
-1.348, 2.168e-3
-1.349, 2.192e-3
-1.350, 2.220e-3
-1.351, 2.254e-3
-1.352, 2.285e-3
-1.353, 2.306e-3
-1.354, 2.334e-3
-1.355, 2.368e-3
-1.356, 2.405e-3
-1.357, 2.436e-3
-1.358, 2.464e-3
-1.359, 2.494e-3
-1.360, 2.528e-3
-1.361, 2.565e-3
-1.362, 2.605e-3
-1.363, 2.633e-3
-1.364, 2.652e-3
-1.365, 2.686e-3
-1.366, 2.735e-3
-1.367, 2.769e-3
-1.368, 2.790e-3
-1.369, 2.827e-3
-1.370, 2.871e-3
-1.371, 2.898e-3
-1.372, 2.923e-3
-1.373, 2.963e-3
-1.374, 3.009e-3
-1.375, 3.052e-3
-1.376, 3.080e-3
-1.377, 3.111e-3
-1.378, 3.151e-3
-1.379, 3.197e-3
-1.380, 3.228e-3
-1.381, 3.259e-3
-1.382, 3.305e-3
-1.383, 3.339e-3
-1.384, 3.373e-3
-1.385, 3.422e-3
-1.386, 3.459e-3
-1.387, 3.512e-3
-1.388, 3.546e-3
-1.389, 3.570e-3
-1.390, 3.644e-3
-1.391, 3.703e-3
-1.392, 3.712e-3
-1.393, 3.743e-3
-1.394, 3.808e-3
-1.395, 3.832e-3
-1.396, 3.842e-3
-1.397, 3.900e-3
-1.398, 3.959e-3
-1.399, 3.996e-3
-1.400, 3.947e-3
-1.399, 3.845e-3
-1.398, 3.777e-3
-1.397, 3.703e-3
-1.396, 3.626e-3
-1.395, 3.570e-3
-1.394, 3.527e-3
-1.393, 3.475e-3
-1.392, 3.407e-3
-1.391, 3.351e-3
-1.390, 3.311e-3
-1.389, 3.268e-3
-1.388, 3.210e-3
-1.387, 3.157e-3
-1.386, 3.114e-3
-1.385, 3.068e-3
-1.384, 3.009e-3
-1.383, 2.966e-3
-1.382, 2.929e-3
-1.381, 2.880e-3
-1.380, 2.821e-3
-1.379, 2.784e-3
-1.378, 2.732e-3
-1.377, 2.679e-3
-1.376, 2.633e-3
-1.375, 2.602e-3
-1.374, 2.556e-3
-1.373, 2.513e-3
-1.372, 2.473e-3
-1.371, 2.433e-3
-1.370, 2.390e-3
-1.369, 2.340e-3
-1.368, 2.303e-3
-1.367, 2.263e-3
-1.366, 2.220e-3
-1.365, 2.183e-3
-1.364, 2.149e-3
-1.363, 2.118e-3
-1.362, 2.078e-3
-1.361, 2.035e-3
-1.360, 2.001e-3
-1.359, 1.973e-3
-1.358, 1.943e-3
-1.357, 1.899e-3
-1.356, 1.859e-3
-1.355, 1.828e-3
-1.354, 1.798e-3
-1.353, 1.764e-3
-1.352, 1.727e-3
-1.351, 1.693e-3
-1.350, 1.662e-3
-1.349, 1.634e-3
-1.348, 1.600e-3
-1.347, 1.563e-3
-1.346, 1.539e-3
-1.345, 1.511e-3
-1.344, 1.483e-3
-1.343, 1.452e-3
-1.342, 1.421e-3
-1.341, 1.391e-3
-1.340, 1.366e-3
-1.339, 1.341e-3
-1.338, 1.310e-3
-1.337, 1.277e-3
-1.336, 1.255e-3
-1.335, 1.236e-3
-1.334, 1.206e-3
-1.333, 1.178e-3
-1.332, 1.156e-3
-1.331, 1.132e-3
-1.330, 1.104e-3
-1.329, 1.082e-3
-1.328, 1.061e-3
-1.327, 1.036e-3
-1.326, 1.008e-3
-1.325, 9.868e-4
-1.324, 9.683e-4
-1.323, 9.436e-4
-1.322, 9.220e-4
-1.321, 8.973e-4
-1.320, 8.758e-4
-1.319, 8.542e-4
-1.318, 8.357e-4
-1.317, 8.172e-4
-1.316, 7.956e-4
-1.315, 7.709e-4
-1.314, 7.524e-4
-1.313, 7.339e-4
-1.312, 7.154e-4
-1.311, 6.939e-4
-1.310, 6.754e-4
-1.309, 6.569e-4
-1.308, 6.445e-4
-1.307, 6.260e-4
-1.306, 6.044e-4
-1.305, 5.890e-4
-1.304, 5.736e-4
-1.303, 5.582e-4
-1.302, 5.397e-4
-1.301, 5.212e-4
-1.300, 5.058e-4
-1.299, 4.935e-4
-1.298, 4.780e-4
-1.297, 4.595e-4
-1.296, 4.441e-4
-1.295, 4.318e-4
-1.294, 4.164e-4
-1.293, 4.040e-4
-1.292, 3.886e-4
-1.291, 3.732e-4
-1.290, 3.609e-4
-1.289, 3.485e-4
-1.288, 3.331e-4
-1.287, 3.208e-4
-1.286, 3.054e-4
-1.285, 2.961e-4
-1.284, 2.838e-4
-1.283, 2.684e-4
-1.282, 2.591e-4
-1.281, 2.468e-4
-1.280, 2.345e-4
-1.279, 2.221e-4
-1.278, 2.098e-4
-1.277, 2.006e-4
-1.276, 1.913e-4
-1.275, 1.790e-4
-1.274, 1.697e-4
-1.273, 1.574e-4
-1.272, 1.481e-4
-1.271, 1.358e-4
-1.270, 1.266e-4
-1.269, 1.204e-4
-1.268, 1.111e-4
-1.267, 9.882e-5
-1.266, 8.957e-5
-1.265, 8.032e-5
-1.264, 7.415e-5
-1.263, 6.490e-5
-1.262, 5.565e-5
-1.261, 4.640e-5
-1.260, 3.715e-5
-1.259, 3.099e-5
-1.258, 2.174e-5
-1.257, 1.557e-5
-1.256, 6.322e-6
-1.255, -2.927e-6
-1.254, -9.093e-6
-1.253, -1.526e-5
-1.252, -2.451e-5
-1.251, -3.068e-5
-1.250, -3.684e-5
-1.249, -4.609e-5
-1.248, -5.226e-5
-1.247, -5.842e-5
-1.246, -6.767e-5
-1.245, -7.384e-5
-1.244, -7.692e-5
-1.243, -8.309e-5
-1.242, -9.234e-5
-1.241, -9.850e-5
-1.240, -1.016e-4
-1.239, -1.078e-4
-1.238, -1.139e-4
-1.237, -1.170e-4
-1.236, -1.263e-4
-1.235, -1.324e-4
-1.234, -1.355e-4
-1.233, -1.417e-4
-1.232, -1.448e-4
-1.231, -1.509e-4
-1.230, -1.571e-4
-1.229, -1.632e-4
-1.228, -1.663e-4
-1.227, -1.694e-4
-1.226, -1.787e-4
-1.225, -1.817e-4
-1.224, -1.848e-4
-1.223, -1.879e-4
-1.222, -1.941e-4
-1.221, -1.972e-4
-1.220, -2.033e-4
-1.219, -2.064e-4
-1.218, -2.095e-4
-1.217, -2.126e-4
-1.216, -2.187e-4
-1.215, -2.249e-4
-1.214, -2.249e-4
-1.213, -2.280e-4
-1.212, -2.311e-4
-1.211, -2.372e-4
-1.210, -2.403e-4
-1.209, -2.434e-4
-1.208, -2.465e-4
-1.207, -2.527e-4
-1.206, -2.557e-4
-1.205, -2.557e-4
-1.204, -2.588e-4
-1.203, -2.650e-4
-1.202, -2.650e-4
-1.201, -2.712e-4
-1.200, -2.712e-4
-1.199, -2.742e-4
-1.198, -2.804e-4
-1.197, -2.804e-4
-1.196, -2.835e-4
-1.195, -2.866e-4
-1.194, -2.897e-4
-1.193, -2.897e-4
-1.192, -2.927e-4
-1.191, -2.989e-4
-1.190, -3.020e-4
-1.189, -3.020e-4
-1.188, -3.051e-4
-1.187, -3.082e-4
-1.186, -3.112e-4
-1.185, -3.112e-4
-1.184, -3.143e-4
-1.183, -3.174e-4
-1.182, -3.174e-4
-1.181, -3.205e-4
-1.180, -3.236e-4
-1.179, -3.267e-4
-1.178, -3.267e-4
-1.177, -3.297e-4
-1.176, -3.328e-4
-1.175, -3.328e-4
-1.174, -3.359e-4
-1.173, -3.390e-4
-1.172, -3.390e-4
-1.171, -3.421e-4
-1.170, -3.452e-4
-1.169, -3.452e-4
-1.168, -3.452e-4
-1.167, -3.482e-4
-1.166, -3.513e-4
-1.165, -3.544e-4
-1.164, -3.544e-4
-1.163, -3.544e-4
-1.162, -3.575e-4
-1.161, -3.606e-4
-1.160, -3.606e-4
-1.159, -3.606e-4
-1.158, -3.606e-4
-1.157, -3.637e-4
-1.156, -3.667e-4
-1.155, -3.667e-4
-1.154, -3.698e-4
-1.153, -3.698e-4
-1.152, -3.729e-4
-1.151, -3.760e-4
-1.150, -3.760e-4
-1.149, -3.760e-4
-1.148, -3.760e-4
-1.147, -3.760e-4
-1.146, -3.791e-4
-1.145, -3.791e-4
-1.144, -3.821e-4
-1.143, -3.821e-4
-1.142, -3.821e-4
-1.141, -3.852e-4
-1.140, -3.883e-4
-1.139, -3.883e-4
-1.138, -3.883e-4
-1.137, -3.883e-4
-1.136, -3.914e-4
-1.135, -3.914e-4
-1.134, -3.914e-4
-1.133, -3.883e-4
-1.132, -3.945e-4
-1.131, -3.945e-4
-1.130, -3.945e-4
-1.129, -3.945e-4
-1.128, -3.945e-4
-1.127, -3.976e-4
-1.126, -3.976e-4
-1.125, -4.037e-4
-1.124, -4.037e-4
-1.123, -3.976e-4
-1.122, -3.976e-4
-1.121, -4.068e-4
-1.120, -4.099e-4
-1.119, -4.068e-4
-1.118, -4.068e-4
-1.117, -4.099e-4
-1.116, -4.099e-4
-1.115, -4.068e-4
-1.114, -4.099e-4
-1.113, -4.130e-4
-1.112, -4.130e-4
-1.111, -4.130e-4
-1.110, -4.099e-4
-1.109, -4.099e-4
-1.108, -4.130e-4
-1.107, -4.130e-4
-1.106, -4.130e-4
-1.105, -4.130e-4
-1.104, -4.130e-4
-1.103, -4.130e-4
-1.102, -4.161e-4
-1.101, -4.161e-4
-1.100, -4.161e-4
-1.099, -4.161e-4
-1.098, -4.130e-4
-1.097, -4.161e-4
-1.096, -4.161e-4
-1.095, -4.191e-4
-1.094, -4.191e-4
-1.093, -4.191e-4
-1.092, -4.191e-4
-1.091, -4.191e-4
-1.090, -4.191e-4
-1.089, -4.222e-4
-1.088, -4.191e-4
-1.087, -4.191e-4
-1.086, -4.222e-4
-1.085, -4.222e-4
-1.084, -4.222e-4
-1.083, -4.191e-4
-1.082, -4.222e-4
-1.081, -4.222e-4
-1.080, -4.222e-4
-1.079, -4.222e-4
-1.078, -4.191e-4
-1.077, -4.222e-4
-1.076, -4.253e-4
-1.075, -4.222e-4
-1.074, -4.222e-4
-1.073, -4.222e-4
-1.072, -4.222e-4
-1.071, -4.222e-4
-1.070, -4.222e-4
-1.069, -4.222e-4
-1.068, -4.222e-4
-1.067, -4.222e-4
-1.066, -4.222e-4
-1.065, -4.222e-4
-1.064, -4.222e-4
-1.063, -4.222e-4
-1.062, -4.253e-4
-1.061, -4.222e-4
-1.060, -4.253e-4
-1.059, -4.253e-4
-1.058, -4.253e-4
-1.057, -4.253e-4
-1.056, -4.253e-4
-1.055, -4.284e-4
-1.054, -4.284e-4
-1.053, -4.253e-4
-1.052, -4.284e-4
-1.051, -4.284e-4
-1.050, -4.284e-4
-1.049, -4.284e-4
-1.048, -4.253e-4
-1.047, -4.284e-4
-1.046, -4.315e-4
-1.045, -4.284e-4
-1.044, -4.284e-4
-1.043, -4.284e-4
-1.042, -4.284e-4
-1.041, -4.315e-4
-1.040, -4.315e-4
-1.039, -4.315e-4
-1.038, -4.315e-4
-1.037, -4.346e-4
-1.036, -4.346e-4
-1.035, -4.376e-4
-1.034, -4.376e-4
-1.033, -4.376e-4
-1.032, -4.376e-4
-1.031, -4.376e-4
-1.030, -4.407e-4
-1.029, -4.407e-4
-1.028, -4.407e-4
-1.027, -4.407e-4
-1.026, -4.469e-4
-1.025, -4.469e-4
-1.024, -4.469e-4
-1.023, -4.469e-4
-1.022, -4.500e-4
-1.021, -4.500e-4
-1.020, -4.531e-4
-1.019, -4.500e-4
-1.018, -4.531e-4
-1.017, -4.531e-4
-1.016, -4.561e-4
-1.015, -4.561e-4
-1.014, -4.561e-4
-1.013, -4.561e-4
-1.012, -4.592e-4
-1.011, -4.623e-4
-1.010, -4.623e-4
-1.009, -4.623e-4
-1.008, -4.623e-4
-1.007, -4.685e-4
-1.006, -4.685e-4
-1.005, -4.685e-4
-1.004, -4.685e-4
-1.003, -4.716e-4
-1.002, -4.746e-4
-1.001, -4.746e-4
