Potential V vs RHE, Current mA cm-2
0.013299999999999867,-0.3947044526623452
0.012299999999999978,-1.7910245056291363
0.011299999999999866,-2.8803522065252145
0.010299999999999976,-3.7532290785419424
0.009299999999999864,-4.538393849967037
0.008299999999999974,-5.191990470504685
0.007299999999999862,-5.759289701750564
0.006299999999999972,-6.238876832404812
0.00529999999999986,-6.54445447317566
0.0042999999999999705,-6.719878674358924
0.0032999999999998586,-6.806176063650692
0.0022999999999999687,-6.806176063650692
0.0012999999999998568,-6.762320013354876
0.00029999999999996696,-6.806176063650692
-0.000700000000000145,-6.806176063650692
-0.0017000000000000348,-6.93774421453814
-0.0027000000000001467,-7.067897654125724
-0.0037000000000000366,-7.243321855308987
-0.0047000000000001485,-7.461187395488204
-0.005700000000000038,-7.5474847847799715
-0.00670000000000015,-7.679052935667419
-0.00770000000000004,-7.635196885371603
-0.008700000000000152,-7.50504344578402
-0.009700000000000042,-7.4173313451923875
-0.010700000000000154,-7.28576319430494
-0.011700000000000044,-7.243321855308987
-0.012700000000000156,-7.199465805013171
-0.013700000000000045,-7.329619244600755
-0.014700000000000157,-7.461187395488204
-0.015700000000000047,-7.635196885371603
-0.01670000000000016,-7.809206375255003
-0.01770000000000005,-7.853062425550818
-0.01870000000000016,-7.853062425550818
-0.01970000000000005,-7.7653503249591855
-0.020700000000000163,-7.591340835075788
-0.021700000000000053,-7.461187395488204
-0.022700000000000164,-7.28576319430494
-0.023700000000000054,-7.243321855308987
-0.024700000000000166,-7.243321855308987
-0.025700000000000056,-7.329619244600755
-0.026700000000000168,-7.4173313451923875
-0.027700000000000058,-7.591340835075788
-0.02870000000000017,-7.679052935667419
-0.02970000000000006,-7.7653503249591855
-0.03070000000000017,-7.679052935667419
-0.03170000000000006,-7.591340835075788
-0.03270000000000017,-7.461187395488204
-0.03370000000000006,-7.329619244600755
-0.034700000000000175,-7.243321855308987
-0.035700000000000065,-7.243321855308987
-0.03670000000000018,-7.28576319430494
-0.03770000000000007,-7.4173313451923875
-0.03870000000000018,-7.5474847847799715
-0.03970000000000007,-7.7653503249591855
-0.04070000000000018,-7.853062425550818
-0.04170000000000007,-7.896918475846635
-0.04270000000000018,-7.853062425550818
-0.04370000000000007,-7.722908985963235
-0.044700000000000184,-7.591340835075788
-0.045700000000000074,-7.4173313451923875
-0.046700000000000186,-7.37347529489657
-0.047700000000000076,-7.329619244600755
-0.04870000000000019,-7.37347529489657
-0.04970000000000008,-7.50504344578402
-0.05070000000000019,-7.679052935667419
-0.05170000000000008,-7.809206375255003
-0.05270000000000019,-7.853062425550818
-0.05370000000000008,-7.853062425550818
-0.05470000000000019,-7.7653503249591855
-0.05570000000000008,-7.635196885371603
-0.056700000000000195,-7.50504344578402
-0.057700000000000085,-7.329619244600755
-0.058700000000000196,-7.28576319430494
-0.059700000000000086,-7.28576319430494
-0.0607000000000002,-7.37347529489657
-0.06170000000000009,-7.50504344578402
-0.0627000000000002,-7.635196885371603
-0.06370000000000009,-7.722908985963235
-0.0647000000000002,-7.809206375255003
-0.06570000000000009,-7.7653503249591855
-0.0667000000000002,-7.679052935667419
-0.0677000000000001,-7.5474847847799715
-0.0687000000000002,-7.37347529489657
-0.0697000000000001,-7.28576319430494
-0.07070000000000021,-7.243321855308987
-0.0717000000000001,-7.28576319430494
-0.07270000000000021,-7.461187395488204
-0.0737000000000001,-7.591340835075788
-0.07470000000000021,-7.7653503249591855
-0.0757000000000001,-7.853062425550818
-0.07670000000000021,-7.940774526142452
-0.0777000000000001,-7.853062425550818
-0.07870000000000021,-7.7653503249591855
-0.0797000000000001,-7.591340835075788
-0.08070000000000022,-7.461187395488204
-0.0817000000000001,-7.4173313451923875
-0.08270000000000022,-7.329619244600755
-0.08370000000000011,-7.4173313451923875
-0.08470000000000022,-7.5474847847799715
-0.08570000000000011,-7.679052935667419
-0.08670000000000022,-7.896918475846635
-0.08770000000000011,-7.896918475846635
-0.08870000000000022,-7.940774526142452
-0.08970000000000011,-7.809206375255003
-0.09070000000000022,-7.679052935667419
-0.09170000000000011,-7.5474847847799715
-0.09270000000000023,-7.37347529489657
-0.09370000000000012,-7.329619244600755
-0.09470000000000023,-7.329619244600755
-0.09570000000000012,-7.461187395488204
-0.09670000000000023,-7.5474847847799715
-0.09770000000000012,-7.679052935667419
-0.09870000000000023,-7.809206375255003
-0.09970000000000012,-7.940774526142452
-0.10070000000000023,-7.896918475846635
-0.10170000000000012,-7.7653503249591855
-0.10270000000000024,-7.635196885371603
-0.10370000000000013,-7.50504344578402
-0.10470000000000024,-7.4173313451923875
-0.10570000000000013,-7.37347529489657
-0.10670000000000024,-7.4173313451923875
-0.10770000000000013,-7.5474847847799715
-0.10870000000000024,-7.679052935667419
-0.10970000000000013,-7.853062425550818
-0.11070000000000024,-7.940774526142452
-0.11170000000000013,-7.984630576438266
-0.11270000000000002,-7.940774526142452
-0.11370000000000013,-7.809206375255003
-0.11470000000000002,-7.679052935667419
-0.11570000000000014,-7.50504344578402
-0.11670000000000003,-7.461187395488204
-0.11770000000000014,-7.4173313451923875
-0.11870000000000003,-7.50504344578402
-0.11970000000000014,-7.635196885371603
-0.12070000000000003,-7.7653503249591855
-0.12170000000000014,-7.940774526142452
-0.12270000000000003,-7.984630576438266
-0.12370000000000014,-8.027071915434218
-0.12470000000000003,-7.896918475846635
-0.12570000000000014,-7.809206375255003
-0.12670000000000003,-7.635196885371603
-0.12770000000000015,-7.50504344578402
-0.12870000000000004,-7.461187395488204
-0.12970000000000015,-7.50504344578402
-0.13070000000000004,-7.5474847847799715
-0.13170000000000015,-7.722908985963235
-0.13270000000000004,-7.809206375255003
-0.13370000000000015,-7.984630576438266
-0.13470000000000004,-8.027071915434218
-0.13570000000000015,-7.984630576438266
-0.13670000000000004,-7.853062425550818
-0.13770000000000016,-7.7653503249591855
-0.13870000000000005,-7.591340835075788
-0.13970000000000016,-7.5474847847799715
-0.14070000000000005,-7.461187395488204
-0.14170000000000016,-7.5474847847799715
-0.14270000000000005,-7.679052935667419
-0.14370000000000016,-7.809206375255003
-0.14470000000000005,-7.984630576438266
-0.14570000000000016,-8.070927965730034
-0.14670000000000005,-8.11478401602585
-0.14770000000000016,-8.070927965730034
-0.14870000000000005,-7.940774526142452
-0.14970000000000017,-7.809206375255003
-0.15070000000000006,-7.591340835075788
-0.15170000000000017,-7.5474847847799715
-0.15270000000000006,-7.50504344578402
-0.15370000000000017,-7.591340835075788
-0.15470000000000006,-7.722908985963235
-0.15570000000000017,-7.896918475846635
-0.15670000000000006,-8.027071915434218
-0.15770000000000017,-8.070927965730034
-0.15870000000000006,-8.158640066321666
-0.15970000000000018,-8.070927965730034
-0.16070000000000007,-7.940774526142452
-0.16170000000000018,-7.853062425550818
-0.16270000000000007,-7.722908985963235
-0.16370000000000018,-7.679052935667419
-0.16470000000000007,-7.722908985963235
-0.16570000000000018,-7.809206375255003
-0.16670000000000007,-7.940774526142452
-0.16770000000000018,-8.070927965730034
-0.16870000000000007,-8.202496116617484
-0.16970000000000018,-8.288793505909249
-0.17070000000000007,-8.246352166913299
-0.17170000000000019,-8.158640066321666
-0.17270000000000008,-8.027071915434218
-0.1737000000000002,-7.896918475846635
-0.17470000000000008,-7.809206375255003
-0.1757000000000002,-7.722908985963235
-0.17670000000000008,-7.809206375255003
-0.1777000000000002,-7.896918475846635
-0.17870000000000008,-8.027071915434218
-0.1797000000000002,-8.202496116617484
-0.18070000000000008,-8.246352166913299
-0.1817000000000002,-8.332649556205066
-0.18270000000000008,-8.246352166913299
-0.1837000000000002,-8.11478401602585
-0.1847000000000001,-8.027071915434218
-0.1857000000000002,-7.853062425550818
-0.1867000000000001,-7.809206375255003
-0.1877000000000002,-7.7653503249591855
-0.1887000000000001,-7.853062425550818
-0.1897000000000002,-7.984630576438266
-0.1907000000000001,-8.11478401602585
-0.1917000000000001,-8.288793505909249
-0.19269999999999998,-8.376505606500881
-0.1937000000000001,-8.4203616567967
-0.19469999999999998,-8.332649556205066
-0.1957000000000001,-8.246352166913299
-0.19669999999999999,-8.11478401602585
-0.1977000000000001,-7.984630576438266
-0.1987,-7.940774526142452
-0.1997000000000001,-7.940774526142452
-0.2007,-8.070927965730034
-0.2017000000000001,-8.246352166913299
-0.2027,-8.376505606500881
-0.2037000000000001,-8.55051509638428
-0.2047,-8.594371146680096
-0.2057000000000001,-8.594371146680096
-0.2067,-8.508073757388331
-0.2077000000000001,-8.4203616567967
-0.2087,-8.246352166913299
-0.2097000000000001,-8.202496116617484
-0.2107,-8.11478401602585
-0.2117000000000001,-8.202496116617484
-0.2127,-8.332649556205066
-0.2137000000000001,-8.464217707092514
-0.2147,-8.638227196975913
-0.2157000000000001,-8.725939297567548
-0.2167,-8.812236686859313
-0.21770000000000012,-8.725939297567548
-0.2187,-8.594371146680096
-0.21970000000000012,-8.508073757388331
-0.2207,-8.332649556205066
-0.22170000000000012,-8.288793505909249
-0.2227,-8.246352166913299
-0.22370000000000012,-8.332649556205066
-0.2247,-8.508073757388331
-0.22570000000000012,-8.68208324727173
-0.2267,-8.899948787450944
-0.22770000000000012,-8.943804837746763
-0.22870000000000001,-9.031516938338395
-0.22970000000000013,-8.943804837746763
-0.23070000000000002,-8.85609273715513
-0.23170000000000013,-8.725939297567548
-0.23270000000000002,-8.594371146680096
-0.23370000000000013,-8.55051509638428
-0.23470000000000002,-8.594371146680096
-0.23570000000000013,-8.725939297567548
-0.23670000000000002,-8.85609273715513
-0.2376999999999999,-9.031516938338395
-0.23870000000000002,-9.161670377925978
-0.2396999999999999,-9.293238528813426
-0.24070000000000003,-9.24938247851761
-0.24169999999999991,-9.205526428221793
-0.24270000000000003,-9.073958277334345
-0.24369999999999992,-8.943804837746763
-0.24470000000000003,-8.85609273715513
-0.24569999999999992,-8.812236686859313
-0.24670000000000003,-8.943804837746763
-0.24769999999999992,-9.073958277334345
-0.24870000000000003,-9.205526428221793
-0.24969999999999992,-9.423391968401008
-0.25070000000000003,-9.55496011928846
-0.2516999999999999,-9.641257508580225
-0.25270000000000004,-9.59740145828441
-0.2536999999999999,-9.467248018696827
-0.25470000000000004,-9.379535918105192
-0.2556999999999999,-9.24938247851761
-0.25670000000000004,-9.24938247851761
-0.25769999999999993,-9.205526428221793
-0.25870000000000004,-9.335679867809377
-0.25969999999999993,-9.511104068992642
-0.26070000000000004,-9.685113558876042
-0.26169999999999993,-9.902979099055257
-0.26270000000000004,-9.99069119964689
-0.26369999999999993,-10.034547249942705
-0.26470000000000005,-10.034547249942705
-0.26569999999999994,-9.946835149351072
-0.26670000000000005,-9.946835149351072
-0.26769999999999994,-9.81668170976349
-0.26870000000000005,-9.85912304875944
-0.26969999999999994,-9.946835149351072
-0.27070000000000005,-10.078403300238522
-0.27169999999999994,-10.25241279012192
-0.27270000000000005,-10.42642228000532
-0.27369999999999994,-10.644287820184536
-0.27470000000000006,-10.731999920776168
-0.27569999999999995,-10.775855971071984
-0.27670000000000006,-10.731999920776168
-0.27769999999999995,-10.688143870480351
-0.27870000000000006,-10.557990430892769
-0.27969999999999995,-10.514134380596953
-0.28070000000000006,-10.557990430892769
-0.28169999999999995,-10.644287820184536
-0.28270000000000006,-10.819712021367803
-0.28369999999999995,-10.993721511251199
-0.28470000000000006,-11.255443101726232
-0.28569999999999995,-11.385596541313816
-0.28670000000000007,-11.517164692201263
-0.28769999999999996,-11.56102074249708
-0.28870000000000007,-11.517164692201263
-0.28969999999999996,-11.473308641905447
-0.29070000000000007,-11.343155202317865
-0.29169999999999996,-11.385596541313816
-0.29270000000000007,-11.42945259160963
-0.29369999999999996,-11.604876792792895
-0.2947000000000001,-11.82274233297211
-0.29569999999999996,-12.040607873151327
-0.2967000000000001,-12.346185513922174
-0.29769999999999996,-12.476338953509758
-0.2987000000000001,-12.607907104397206
-0.29969999999999997,-12.651763154693022
-0.3007000000000001,-12.607907104397206
-0.30169999999999997,-12.56405105410139
-0.3027000000000001,-12.520195003805576
-0.30369999999999997,-12.56405105410139
-0.3047000000000001,-12.73806054398479
-0.30569999999999997,-12.913484745168056
-0.3067000000000001,-13.175206335643086
-0.3077,-13.436927926118118
-0.3087000000000001,-13.698649516593148
-0.3097,-13.872659006476551
-0.3107000000000001,-14.002812446064135
-0.3117,-14.002812446064135
-0.3127000000000001,-14.002812446064135
-0.3137,-14.002812446064135
-0.3147000000000001,-14.046668496359947
-0.3157,-14.13438059695158
-0.3167000000000001,-14.30273124163552
-0.3177,-14.57152638860988
-0.3187000000000001,-14.826174422585586
-0.3197,-15.137410908555893
-0.3207000000000001,-15.3920589425316
-0.3217,-15.618412750510005
-0.3227000000000001,-15.70329542850191
-0.3237,-15.78817810649381
-0.3247000000000001,-15.830619445489761
-0.3257,-15.78817810649381
-0.3267000000000001,-15.91550212348166
-0.3277,-16.014531914472215
-0.3287000000000001,-16.269179948447924
-0.3297,-16.622857773414182
-0.3307000000000001,-16.877505807389888
-0.3317,-17.2736249713521
-0.3327000000000001,-17.48583166633185
-0.3337,-17.71218547431026
-0.3347000000000001,-17.839509491298113
-0.3357,-17.924392169290012
-0.3367000000000001,-17.966833508285966
-0.3377,-18.06586329927652
-0.3387000000000001,-18.23562865526032
-0.3397,-18.44783535024008
-0.3407000000000001,-18.80151317520634
-0.3417,-19.155191000172596
-0.3427000000000001,-19.537163051136158
-0.3437,-19.890840876102416
-0.3447000000000001,-20.202077362072725
-0.3457,-20.371842718056527
-0.3467000000000001,-20.541608074040333
-0.3477,-20.683079204026836
-0.3487000000000001,-20.76796188201874
-0.3497,-20.93772723800254
-0.3507000000000001,-21.107492593986347
-0.3517,-21.418729079956652
-0.3527000000000001,-21.814848243918867
-0.3537,-22.196820294882425
-0.3547000000000001,-22.63538079784059
-0.3557,-22.989058622806844
-0.35670000000000013,-23.300295108777156
-0.3577,-23.51250180375691
-0.35870000000000013,-23.682267159740714
-0.3597,-23.823738289727217
-0.36070000000000013,-23.908620967719123
-0.3617,-24.16326900169483
-0.3626999999999999,-24.432064148669184
-0.3637,-24.814036199632742
-0.3646999999999999,-25.252596702590903
-0.3657,-25.73359854454502
-0.3666999999999999,-26.21460038649913
-0.3677,-26.61071955046134
-0.3686999999999999,-27.00683871442355
-0.36970000000000003,-27.303928087395207
-0.3706999999999999,-27.572723234369565
-0.37170000000000003,-27.827371268345274
-0.3726999999999999,-28.011283737327723
-0.37370000000000003,-28.350814449295335
-0.3746999999999999,-28.704492274261593
-0.37570000000000003,-29.14305277721976
-0.3766999999999999,-29.62405461917387
-0.37770000000000004,-30.147497800123933
-0.3786999999999999,-30.614352529079397
-0.37970000000000004,-31.052913032037555
-0.3806999999999999,-31.449032195999767
-0.38170000000000004,-31.76026868197007
-0.38269999999999993,-32.01491671594578
-0.38370000000000004,-32.283711862920136
-0.38469999999999993,-32.58080123589179
-0.38570000000000004,-32.93447906085806
-0.38669999999999993,-33.373039563816214
-0.38770000000000004,-33.93892408376223
-0.38869999999999993,-34.462367264712285
-0.38970000000000005,-35.02825178465831
-0.39069999999999994,-35.594136304604326
-0.39170000000000005,-36.07513814655844
-0.39269999999999994,-36.47125731052064
-0.39370000000000005,-36.768346683492304
-0.39469999999999994,-37.122024508458566
-0.39570000000000005,-37.376672542434264
-0.39669999999999994,-37.77279170639648
-0.39770000000000005,-38.16891087035869
-0.39869999999999994,-38.734795390304704
-0.39970000000000006,-39.30067991025072
-0.40069999999999995,-39.90900576919269
-0.40170000000000006,-40.616361419125205
-0.40269999999999995,-41.182245939071215
-0.40370000000000006,-41.70568912002128
-0.40469999999999995,-42.130102509980794
-0.40570000000000006,-42.568663012938956
-0.40669999999999995,-42.96478217690117
-0.40770000000000006,-43.31846000186743
-0.40869999999999995,-43.84190318281749
-0.40970000000000006,-44.36534636376755
-0.41069999999999995,-45.01611356170547
-0.41170000000000007,-45.70932209863933
-0.41269999999999996,-46.45911908756781
-0.41370000000000007,-47.15232762450167
-0.41469999999999996,-47.76065348344364
-0.41570000000000007,-48.32653800338966
-0.41669999999999996,-48.80753984534376
-0.41770000000000007,-49.24610034830193
-0.41869999999999996,-49.59977817326819
-0.4197000000000001,-50.024191563227696
-0.42069999999999996,-50.547634744177756
-0.4217000000000001,-51.127666377122424
-0.42269999999999996,-51.77843357506035
-0.4237000000000001,-52.386759434002315
-0.42469999999999997,-53.16485064892808
-0.4257000000000001,-53.82976495986464
-0.42669999999999997,-54.480532157802564
-0.4277000000000001,-55.088858016744524
-0.42869999999999997,-55.65474253669055
-0.4297000000000001,-56.26306839563251
-0.43069999999999997,-56.82895291557852
-0.4317000000000001,-57.493867226515086
-0.4327,-58.14463442445301
-0.4337000000000001,-58.880284300382826
-0.4347,-59.67252262830725
-0.4357000000000001,-60.45061384323302
-0.4367,-61.242852171157445
-0.4377000000000001,-61.936060708091304
-0.4387,-62.544386567033264
-0.4397000000000001,-63.11027108697928
-0.4407,-63.633714267929356
-0.4417000000000001,-64.15715744887942
-0.4427,-64.59571795183757
-0.4437000000000001,-65.20404381077954
-0.4447,-65.86895812171612
-0.4457000000000001,-66.60460799764593
-0.4467,-67.43928766456631
-0.4477000000000001,-68.30226155748396
-0.4487,-69.13694122440434
-0.4497000000000001,-69.95747377832606
-0.4507,-70.70727076725453
-0.4517000000000001,-71.35803796519245
-0.4527,-72.00880516313036
-0.4537000000000001,-72.57468968307639
-0.4547,-73.2820453330089
-0.4557000000000001,-73.97525386994278
-0.4567,-74.80993353686314
-0.4577000000000001,-75.71534876877676
-0.4587,-76.63491111368903
-0.4597000000000001,-77.59691479759726
-0.4607,-78.47403580351359
-0.4617000000000001,-79.2945683574353
-0.4627,-80.04436534636378
-0.4637000000000001,-80.69513254430169
-0.4647,-81.30345840324367
-0.4657000000000001,-81.86934292318966
-0.4667,-82.56255146012353
-0.4677000000000001,-83.31234844905201
-0.4687,-84.09043966397778
-0.4697000000000001,-85.01000200889004
-0.4707,-85.88712301480638
-0.4717000000000001,-86.84912669871461
-0.4727,-87.66965925263632
-0.4737000000000001,-88.5043389195567
-0.4747,-89.23998879548651
-0.4757000000000001,-89.98978578441499
-0.4767,-90.68299432134886
-0.4777000000000001,-91.37620285828272
-0.4787,-92.2108825252031
-0.4797000000000001,-93.08800353111941
-0.4807,-94.03586010202899
-0.48170000000000013,-95.08274646392913
-0.4827,-96.17207416482519
-0.48370000000000013,-97.21896052672531
-0.4847,-98.3082882276214
-0.48570000000000013,-99.27029191152963
-0.4867,-98.88831986056607
-0.48570000000000013,-96.5681933287874
-0.4847,-94.6583330739696
-0.48370000000000013,-92.94653240113291
-0.4827,-91.46108553627462
-0.48170000000000013,-90.11710980140283
-0.4807,-88.9004580835189
-0.4797000000000001,-87.75454193062824
-0.4787,-86.75009690772404
-0.4777000000000001,-85.66076920682796
-0.4767,-84.57144150593189
-0.4757000000000001,-83.43967246603985
-0.4747,-82.22302074815593
-0.4737000000000001,-80.9497805782774
-0.4727,-79.64824618240156
-0.4717000000000001,-78.43159446451764
-0.4707,-77.243236972631
-0.4697000000000001,-76.23879194972683
-0.4687,-75.33337671781321
-0.4677000000000001,-74.37137303390499
-0.4667,-73.53669336698461
-0.4657000000000001,-72.57468968307639
-0.4647,-71.6268331121668
-0.4637000000000001,-70.53750541127073
-0.4627,-69.43403059737601
-0.4617000000000001,-68.30226155748396
-0.4607,-67.21293385658788
