Potential V vs RHE, Current mA cm-2
0.013299999999999867,-0.4384190318281749
0.012299999999999978,-2.1390434853959355
0.011299999999999866,-3.447651437771094
0.010299999999999976,-4.450681749375406
0.009299999999999864,-5.235846520800501
0.008299999999999974,-5.80314575204638
0.007299999999999862,-6.196435493408861
0.006299999999999972,-6.500598422879844
0.00529999999999986,-6.632166573767292
0.0042999999999999705,-6.850032113946507
0.0032999999999998586,-7.024041603829907
0.0022999999999999687,-7.243321855308987
0.0012999999999998568,-7.50504344578402
0.00029999999999996696,-7.679052935667419
-0.000700000000000145,-7.940774526142452
-0.0017000000000000348,-8.158640066321666
-0.0027000000000001467,-8.332649556205066
-0.0037000000000000366,-8.4203616567967
-0.0047000000000001485,-8.4203616567967
-0.005700000000000038,-8.332649556205066
-0.00670000000000015,-8.332649556205066
-0.00770000000000004,-8.202496116617484
-0.008700000000000152,-8.158640066321666
-0.009700000000000042,-8.158640066321666
-0.010700000000000154,-8.158640066321666
-0.011700000000000044,-8.246352166913299
-0.012700000000000156,-8.376505606500881
-0.013700000000000045,-8.508073757388331
-0.014700000000000157,-8.68208324727173
-0.015700000000000047,-8.725939297567548
-0.01670000000000016,-8.812236686859313
-0.01770000000000005,-8.769795347863363
-0.01870000000000016,-8.725939297567548
-0.01970000000000005,-8.594371146680096
-0.020700000000000163,-8.464217707092514
-0.021700000000000053,-8.288793505909249
-0.022700000000000164,-8.288793505909249
-0.023700000000000054,-8.246352166913299
-0.024700000000000166,-8.288793505909249
-0.025700000000000056,-8.4203616567967
-0.026700000000000168,-8.508073757388331
-0.027700000000000058,-8.638227196975913
-0.02870000000000017,-8.725939297567548
-0.02970000000000006,-8.812236686859313
-0.03070000000000017,-8.812236686859313
-0.03170000000000006,-8.769795347863363
-0.03270000000000017,-8.638227196975913
-0.03370000000000006,-8.508073757388331
-0.034700000000000175,-8.376505606500881
-0.035700000000000065,-8.332649556205066
-0.03670000000000018,-8.246352166913299
-0.03770000000000007,-8.288793505909249
-0.03870000000000018,-8.332649556205066
-0.03970000000000007,-8.464217707092514
-0.04070000000000018,-8.55051509638428
-0.04170000000000007,-8.725939297567548
-0.04270000000000018,-8.769795347863363
-0.04370000000000007,-8.812236686859313
-0.044700000000000184,-8.769795347863363
-0.045700000000000074,-8.68208324727173
-0.046700000000000186,-8.594371146680096
-0.047700000000000076,-8.464217707092514
-0.04870000000000019,-8.376505606500881
-0.04970000000000008,-8.332649556205066
-0.05070000000000019,-8.288793505909249
-0.05170000000000008,-8.376505606500881
-0.05270000000000019,-8.464217707092514
-0.05370000000000008,-8.594371146680096
-0.05470000000000019,-8.769795347863363
-0.05570000000000008,-8.812236686859313
-0.056700000000000195,-8.85609273715513
-0.057700000000000085,-8.85609273715513
-0.058700000000000196,-8.769795347863363
-0.059700000000000086,-8.68208324727173
-0.0607000000000002,-8.55051509638428
-0.06170000000000009,-8.376505606500881
-0.0627000000000002,-8.376505606500881
-0.06370000000000009,-8.288793505909249
-0.0647000000000002,-8.376505606500881
-0.06570000000000009,-8.464217707092514
-0.0667000000000002,-8.55051509638428
-0.0677000000000001,-8.725939297567548
-0.0687000000000002,-8.812236686859313
-0.0697000000000001,-8.85609273715513
-0.07070000000000021,-8.85609273715513
-0.0717000000000001,-8.769795347863363
-0.07270000000000021,-8.594371146680096
-0.0737000000000001,-8.508073757388331
-0.07470000000000021,-8.376505606500881
-0.0757000000000001,-8.288793505909249
-0.07670000000000021,-8.202496116617484
-0.0777000000000001,-8.288793505909249
-0.07870000000000021,-8.376505606500881
-0.0797000000000001,-8.464217707092514
-0.08070000000000022,-8.594371146680096
-0.0817000000000001,-8.812236686859313
-0.08270000000000022,-8.812236686859313
-0.08370000000000011,-8.899948787450944
-0.08470000000000022,-8.85609273715513
-0.08570000000000011,-8.812236686859313
-0.08670000000000022,-8.725939297567548
-0.08770000000000011,-8.594371146680096
-0.08870000000000022,-8.508073757388331
-0.08970000000000011,-8.464217707092514
-0.09070000000000022,-8.4203616567967
-0.09170000000000011,-8.508073757388331
-0.09270000000000023,-8.638227196975913
-0.09370000000000012,-8.725939297567548
-0.09470000000000023,-8.899948787450944
-0.09570000000000012,-8.943804837746763
-0.09670000000000023,-8.987660888042578
-0.09770000000000012,-8.943804837746763
-0.09870000000000023,-8.812236686859313
-0.09970000000000012,-8.725939297567548
-0.10070000000000023,-8.55051509638428
-0.10170000000000012,-8.4203616567967
-0.10270000000000024,-8.376505606500881
-0.10370000000000013,-8.288793505909249
-0.10470000000000024,-8.376505606500881
-0.10570000000000013,-8.4203616567967
-0.10670000000000024,-8.508073757388331
-0.10770000000000013,-8.638227196975913
-0.10870000000000024,-8.769795347863363
-0.10970000000000013,-8.769795347863363
-0.11070000000000024,-8.812236686859313
-0.11170000000000013,-8.725939297567548
-0.11270000000000002,-8.638227196975913
-0.11370000000000013,-8.55051509638428
-0.11470000000000002,-8.464217707092514
-0.11570000000000014,-8.464217707092514
-0.11670000000000003,-8.4203616567967
-0.11770000000000014,-8.464217707092514
-0.11870000000000003,-8.55051509638428
-0.11970000000000014,-8.68208324727173
-0.12070000000000003,-8.812236686859313
-0.12170000000000014,-8.943804837746763
-0.12270000000000003,-9.031516938338395
-0.12370000000000014,-9.073958277334345
-0.12470000000000003,-8.987660888042578
-0.12570000000000014,-8.899948787450944
-0.12670000000000003,-8.812236686859313
-0.12770000000000015,-8.68208324727173
-0.12870000000000004,-8.55051509638428
-0.12970000000000015,-8.508073757388331
-0.13070000000000004,-8.4203616567967
-0.13170000000000015,-8.508073757388331
-0.13270000000000004,-8.55051509638428
-0.13370000000000015,-8.68208324727173
-0.13470000000000004,-8.812236686859313
-0.13570000000000015,-8.899948787450944
-0.13670000000000004,-8.943804837746763
-0.13770000000000016,-8.943804837746763
-0.13870000000000005,-8.85609273715513
-0.13970000000000016,-8.812236686859313
-0.14070000000000005,-8.68208324727173
-0.14170000000000016,-8.55051509638428
-0.14270000000000005,-8.55051509638428
-0.14370000000000016,-8.508073757388331
-0.14470000000000005,-8.594371146680096
-0.14570000000000016,-8.725939297567548
-0.14670000000000005,-8.85609273715513
-0.14770000000000016,-8.987660888042578
-0.14870000000000005,-9.11781432763016
-0.14970000000000017,-9.161670377925978
-0.15070000000000006,-9.205526428221793
-0.15170000000000017,-9.161670377925978
-0.15270000000000006,-9.031516938338395
-0.15370000000000017,-8.85609273715513
-0.15470000000000006,-8.725939297567548
-0.15570000000000017,-8.68208324727173
-0.15670000000000006,-8.638227196975913
-0.15770000000000017,-8.638227196975913
-0.15870000000000006,-8.725939297567548
-0.15970000000000018,-8.85609273715513
-0.16070000000000007,-8.987660888042578
-0.16170000000000018,-9.205526428221793
-0.16270000000000007,-9.205526428221793
-0.16370000000000018,-9.293238528813426
-0.16470000000000007,-9.24938247851761
-0.16570000000000018,-9.11781432763016
-0.16670000000000007,-9.031516938338395
-0.16770000000000018,-8.899948787450944
-0.16870000000000007,-8.769795347863363
-0.16970000000000018,-8.725939297567548
-0.17070000000000007,-8.68208324727173
-0.17170000000000019,-8.812236686859313
-0.17270000000000008,-8.899948787450944
-0.1737000000000002,-9.031516938338395
-0.17470000000000008,-9.205526428221793
-0.1757000000000002,-9.24938247851761
-0.17670000000000008,-9.335679867809377
-0.1777000000000002,-9.335679867809377
-0.17870000000000008,-9.24938247851761
-0.1797000000000002,-9.11781432763016
-0.18070000000000008,-9.031516938338395
-0.1817000000000002,-8.85609273715513
-0.18270000000000008,-8.85609273715513
-0.1837000000000002,-8.812236686859313
-0.1847000000000001,-8.899948787450944
-0.1857000000000002,-9.031516938338395
-0.1867000000000001,-9.11781432763016
-0.1877000000000002,-9.24938247851761
-0.1887000000000001,-9.423391968401008
-0.1897000000000002,-9.467248018696827
-0.1907000000000001,-9.511104068992642
-0.1917000000000001,-9.511104068992642
-0.19269999999999998,-9.379535918105192
-0.1937000000000001,-9.293238528813426
-0.19469999999999998,-9.11781432763016
-0.1957000000000001,-9.073958277334345
-0.19669999999999999,-9.031516938338395
-0.1977000000000001,-9.073958277334345
-0.1987,-9.161670377925978
-0.1997000000000001,-9.24938247851761
-0.2007,-9.423391968401008
-0.2017000000000001,-9.55496011928846
-0.2027,-9.59740145828441
-0.2037000000000001,-9.685113558876042
-0.2047,-9.59740145828441
-0.2057000000000001,-9.511104068992642
-0.2067,-9.423391968401008
-0.2077000000000001,-9.335679867809377
-0.2087,-9.161670377925978
-0.2097000000000001,-9.161670377925978
-0.2107,-9.11781432763016
-0.2117000000000001,-9.24938247851761
-0.2127,-9.335679867809377
-0.2137000000000001,-9.467248018696827
-0.2147,-9.641257508580225
-0.2157000000000001,-9.772825659467674
-0.2167,-9.85912304875944
-0.21770000000000012,-9.85912304875944
-0.2187,-9.772825659467674
-0.21970000000000012,-9.685113558876042
-0.2207,-9.59740145828441
-0.22170000000000012,-9.423391968401008
-0.2227,-9.467248018696827
-0.22370000000000012,-9.423391968401008
-0.2247,-9.467248018696827
-0.22570000000000012,-9.59740145828441
-0.2267,-9.728969609171857
-0.22770000000000012,-9.902979099055257
-0.22870000000000001,-10.078403300238522
-0.22970000000000013,-10.120844639234473
-0.23070000000000002,-10.164700689530287
-0.23170000000000013,-10.120844639234473
-0.23270000000000002,-10.034547249942705
-0.23370000000000013,-9.902979099055257
-0.23470000000000002,-9.772825659467674
-0.23570000000000013,-9.685113558876042
-0.23670000000000002,-9.685113558876042
-0.2376999999999999,-9.728969609171857
-0.23870000000000002,-9.85912304875944
-0.2396999999999999,-9.946835149351072
-0.24070000000000003,-10.120844639234473
-0.24169999999999991,-10.340124890713554
-0.24270000000000003,-10.382566229709504
-0.24369999999999992,-10.470278330301136
-0.24470000000000003,-10.470278330301136
-0.24569999999999992,-10.382566229709504
-0.24670000000000003,-10.296268840417738
-0.24769999999999992,-10.208556739826104
-0.24870000000000003,-10.120844639234473
-0.24969999999999992,-10.078403300238522
-0.25070000000000003,-10.120844639234473
-0.2516999999999999,-10.208556739826104
-0.25270000000000004,-10.382566229709504
-0.2536999999999999,-10.470278330301136
-0.25470000000000004,-10.688143870480351
-0.2556999999999999,-10.775855971071984
-0.25670000000000004,-10.819712021367803
-0.25769999999999993,-10.863568071663616
-0.25870000000000004,-10.775855971071984
-0.25969999999999993,-10.731999920776168
-0.26070000000000004,-10.688143870480351
-0.26169999999999993,-10.557990430892769
-0.26270000000000004,-10.557990430892769
-0.26369999999999993,-10.601846481188586
-0.26470000000000005,-10.731999920776168
-0.26569999999999994,-10.819712021367803
-0.26670000000000005,-10.993721511251199
-0.26769999999999994,-11.211587051430415
-0.26870000000000005,-11.343155202317865
-0.26969999999999994,-11.42945259160963
-0.27070000000000005,-11.517164692201263
-0.27169999999999994,-11.517164692201263
-0.27270000000000005,-11.473308641905447
-0.27369999999999994,-11.473308641905447
-0.27470000000000006,-11.385596541313816
-0.27569999999999995,-11.42945259160963
-0.27670000000000006,-11.42945259160963
-0.27769999999999995,-11.56102074249708
-0.27870000000000006,-11.691174182084664
-0.27969999999999995,-11.86659838326793
-0.28070000000000006,-12.084463923447142
-0.28169999999999995,-12.346185513922174
-0.28270000000000006,-12.432482903213943
-0.28369999999999995,-12.56405105410139
-0.28470000000000006,-12.607907104397206
-0.28569999999999995,-12.56405105410139
-0.28670000000000007,-12.520195003805576
-0.28769999999999996,-12.520195003805576
-0.28870000000000007,-12.432482903213943
-0.28969999999999996,-12.432482903213943
-0.29070000000000007,-12.476338953509758
-0.29169999999999996,-12.56405105410139
-0.29270000000000007,-12.781916594280606
-0.29369999999999996,-12.99978213445982
-0.2947000000000001,-13.217647674639037
-0.29569999999999996,-13.30535977523067
-0.2967000000000001,-13.436927926118118
-0.29769999999999996,-13.523225315409885
-0.2987000000000001,-13.523225315409885
-0.29969999999999997,-13.47936926511407
-0.3007000000000001,-13.436927926118118
-0.30169999999999997,-13.349215825526485
-0.3027000000000001,-13.3930718758223
-0.30369999999999997,-13.436927926118118
-0.3047000000000001,-13.610937416001518
-0.30569999999999997,-13.828802956180734
-0.3067000000000001,-14.046668496359947
-0.3077,-14.26028990263957
-0.3087000000000001,-14.57152638860988
-0.3097,-14.741291744593681
-0.3107000000000001,-14.967645552572087
-0.3117,-15.05252823056399
-0.3127000000000001,-15.094969569559943
-0.3137,-15.137410908555893
-0.3147000000000001,-15.137410908555893
-0.3157,-15.222293586547794
-0.3167000000000001,-15.307176264539699
-0.3177,-15.533530072518102
-0.3187000000000001,-15.74573676749786
-0.3197,-16.056973253468165
-0.3207000000000001,-16.311621287443874
-0.3217,-16.665299112410132
-0.3227000000000001,-16.835064468393938
-0.3237,-17.061418276372343
-0.3247000000000001,-17.103859615368293
-0.3257,-17.146300954364243
-0.3267000000000001,-17.188742293360193
-0.3277,-17.231183632356142
-0.3287000000000001,-17.2736249713521
-0.3297,-17.358507649344002
-0.3307000000000001,-17.48583166633185
-0.3317,-17.669744135314307
-0.3327000000000001,-17.966833508285966
-0.3337,-18.23562865526032
-0.3347000000000001,-18.589306480226583
-0.3357,-18.80151317520634
-0.3367000000000001,-19.056161209182044
-0.3377,-19.3249563561564
-0.3387000000000001,-19.452280373144255
-0.3397,-19.678634181122664
-0.3407000000000001,-19.805958198110513
-0.3417,-19.890840876102416
-0.3427000000000001,-20.10304757108217
-0.3437,-20.286960040064624
-0.3447000000000001,-20.626490752032236
-0.3457,-20.93772723800254
-0.3467000000000001,-21.248963723972853
-0.3477,-21.63093577493641
-0.3487000000000001,-22.027054938898623
-0.3497,-22.33829142486893
-0.3507000000000001,-22.63538079784059
-0.3517,-22.819293266823045
-0.3527000000000001,-22.946617283810895
-0.3537,-23.1163826397947
-0.3547000000000001,-23.2012653177866
-0.3557,-23.385177786769056
-0.35670000000000013,-23.55494314275286
-0.3577,-23.767149837732617
-0.35870000000000013,-24.120827662698876
-0.3597,-24.516946826661083
-0.36070000000000013,-24.95550732961925
-0.3617,-25.39406783257741
-0.3626999999999999,-25.77603988354097
-0.3637,-26.129717708507226
-0.3646999999999999,-26.440954194477534
-0.3657,-26.69560222845324
-0.3666999999999999,-26.907808923433
-0.3677,-27.134162731411404
-0.3686999999999999,-27.34636942639116
-0.36970000000000003,-27.65760591236147
-0.3706999999999999,-27.954695285333123
-0.37170000000000003,-28.350814449295335
-0.3726999999999999,-28.789374952253496
-0.37370000000000003,-29.27037679420761
-0.3746999999999999,-29.793819975157668
-0.37570000000000003,-30.232380478115836
-0.3766999999999999,-30.614352529079397
-0.37770000000000004,-30.968030354045652
-0.3786999999999999,-31.321708179011907
-0.37970000000000004,-31.661238890979522
-0.3806999999999999,-31.930034037953877
-0.38170000000000004,-32.09979939393769
-0.38269999999999993,-32.49591855789989
-0.38370000000000004,-32.807155043870196
-0.38469999999999993,-33.288156885824314
-0.38570000000000004,-33.755011614779775
-0.38669999999999993,-34.278454795729836
-0.38770000000000004,-34.85848642867451
-0.38869999999999993,-35.46681228761647
-0.38970000000000005,-35.99025546856653
-0.39069999999999994,-36.5136986495166
-0.39170000000000005,-36.95225915247476
-0.39269999999999994,-37.291789864442364
-0.39370000000000005,-37.645467689408626
-0.39469999999999994,-37.99914551437489
-0.39570000000000005,-38.33867622634249
-0.39669999999999994,-38.692354051308754
-0.39770000000000005,-39.173355893262865
-0.39869999999999994,-39.696799074212926
-0.39970000000000006,-40.26268359415894
-0.40069999999999995,-40.87100945310091
-0.40170000000000006,-41.52177665103883
-0.40269999999999995,-42.00277849299294
-0.40370000000000006,-42.526221673943
-0.40469999999999995,-42.92234083790521
-0.40570000000000006,-43.31846000186743
-0.40669999999999995,-43.61554937483908
-0.40770000000000006,-43.88434452181344
-0.40869999999999995,-44.181433894785094
-0.40970000000000006,-44.577553058747306
-0.41069999999999995,-45.01611356170547
-0.41170000000000007,-45.581998081651484
-0.41269999999999996,-46.2327652795894
-0.41370000000000007,-46.982562268517874
-0.41469999999999996,-47.71821214444768
-0.41570000000000007,-48.45386202037751
-0.41669999999999996,-49.16121767031002
-0.41770000000000007,-49.72710219025603
-0.41869999999999996,-50.2505453712061
-0.4197000000000001,-50.73154721316022
-0.42069999999999996,-51.25499039411028
-0.4217000000000001,-51.65110955807249
-0.42269999999999996,-52.2169940780185
-0.4237000000000001,-52.74043725896857
-0.42469999999999997,-53.39120445690648
-0.4257000000000001,-54.08441299384035
-0.42669999999999997,-54.791768643772876
-0.4277000000000001,-55.484977180706736
-0.42869999999999997,-56.22062705663656
-0.4297000000000001,-56.88554136757313
-0.43069999999999997,-57.53630856551105
-0.4317000000000001,-58.10219308545706
-0.4327,-58.62563626640712
-0.4337000000000001,-59.14907944735718
-0.4347,-59.67252262830725
-0.4357000000000001,-60.28084848724921
-0.4367,-60.84673300719523
-0.4377000000000001,-61.49750020513315
-0.4387,-62.16241451606972
-0.4397000000000001,-62.89806439199953
-0.4407,-63.732744058919906
-0.4417000000000001,-64.55327661284163
-0.4427,-65.2464851497755
-0.4437000000000001,-65.99628213870396
-0.4447,-66.64704933664189
-0.4457000000000001,-67.34025787357575
-0.4467,-67.96273084551636
-0.4477000000000001,-68.57105670445833
-0.4487,-69.13694122440434
-0.4497000000000001,-69.78770842234226
-0.4507,-70.43847562028017
-0.4517000000000001,-71.27315528720055
-0.4527,-72.10783495412092
-0.4537000000000001,-72.92836750804264
-0.4547,-73.8479298529549
-0.4557000000000001,-74.72505085887124
-0.4567,-75.5880247517889
-0.4577000000000001,-76.33782174071737
-0.4587,-77.03103027765125
-0.4597000000000001,-77.76668015358106
-0.4607,-78.43159446451764
-0.4617000000000001,-79.08236166245555
-0.4627,-79.7755701993894
-0.4637000000000001,-80.46877873632329
-0.4647,-81.30345840324367
-0.4657000000000001,-82.13813807016405
-0.4667,-83.0011119630817
-0.4677000000000001,-83.96311564698992
-0.4687,-84.8826779919022
-0.4697000000000001,-85.75979899781852
-0.4707,-86.6227728907362
-0.4717000000000001,-87.41501121866061
-0.4727,-88.10821975559449
-0.4737000000000001,-88.80142829252836
-0.4747,-89.42390126446898
-0.4757000000000001,-90.15955114039879
-0.4767,-90.85275967733266
-0.4777000000000001,-91.60255666626112
-0.4787,-92.4655305591788
-0.4797000000000001,-93.38509290409107
-0.4807,-94.34709658799929
-0.48170000000000013,-95.35154161090348
-0.4827,-96.17207416482519
-0.48370000000000013,-97.09163650973747
-0.4847,-97.84143349866595
-0.48570000000000013,-98.57708337459576
-0.4867,-98.05364019364569
-0.48570000000000013,-95.60618964487918
-0.4847,-93.51241692107894
-0.48370000000000013,-91.85720470023682
-0.4827,-90.37175783537855
-0.48170000000000013,-89.07022343950271
-0.4807,-87.85357172161878
-0.4797000000000001,-86.75009690772404
-0.4787,-85.70321054582392
-0.4777000000000001,-84.61388284492786
-0.4767,-83.56699648302772
-0.4757000000000001,-82.47766878213164
-0.4747,-81.43078242023151
-0.4737000000000001,-80.34145471933543
-0.4727,-79.2945683574353
-0.4717000000000001,-78.16279931754329
-0.4707,-77.1583542946391
-0.4697000000000001,-76.15390927173492
-0.4687,-75.29093537881725
-0.4677000000000001,-74.41381437290093
-0.4667,-73.53669336698461
-0.4657000000000001,-72.67371947406694
-0.4647,-71.83903980714656
-0.4637000000000001,-70.87703612323833
-0.4627,-70.01406223032066
-0.4617000000000001,-69.0096172074165
-0.4607,-67.96273084551636
-0.4597000000000001,-66.87340314462028
