Potential V vs RHE, Current mA cm-2
0.05339999999999995,-0.09979373509247969
0.05239999999999995,-0.10276462882219627
0.051399999999999946,-0.10361345560211528
0.050399999999999945,-0.10413689878306535
0.049399999999999944,-0.10460375351202081
0.04839999999999994,-0.10502816690198033
0.04739999999999994,-0.10541013895294389
0.04639999999999994,-0.10569308121291689
0.04539999999999994,-0.1060043176988872
0.04439999999999994,-0.10631555418485751
0.04339999999999994,-0.10661264355782916
0.04239999999999994,-0.10688143870480352
0.04139999999999994,-0.10712193962578058
0.040399999999999936,-0.10733414632076034
0.039399999999999935,-0.107631235693732
0.038399999999999934,-0.10792832506670365
0.03739999999999993,-0.10811223753568612
0.03639999999999993,-0.10828200289166989
0.03539999999999993,-0.10845176824765372
0.03439999999999993,-0.10867812205563213
0.03339999999999993,-0.10891862297660918
0.03239999999999993,-0.10910253544559163
0.03139999999999993,-0.10924400657557813
0.030399999999999927,-0.10941377193156195
0.029399999999999926,-0.10961183151354303
0.028399999999999925,-0.1098240382085228
0.027399999999999924,-0.10996550933850929
0.026399999999999924,-0.11009283335549715
0.025399999999999923,-0.11023430448548364
0.024399999999999922,-0.11040406984146747
0.02339999999999992,-0.11060212942344858
0.02239999999999992,-0.11072945344043642
0.02139999999999992,-0.11081433611842831
0.020399999999999918,-0.1109558072484148
0.019399999999999917,-0.11109727837840132
0.018399999999999916,-0.11126704373438513
0.017399999999999916,-0.11139436775137299
0.016399999999999915,-0.11146510331636625
0.015399999999999914,-0.11160657444635275
0.014399999999999913,-0.1117056042373433
0.013399999999999912,-0.11188951670632576
0.012399999999999911,-0.1120168407233136
0.01139999999999991,-0.1120734291753082
0.01039999999999991,-0.1121583118533001
0.009399999999999908,-0.11227148875728932
0.008399999999999908,-0.11238466566127853
0.007399999999999907,-0.11251198967826637
0.006399999999999906,-0.11255443101726233
0.005399999999999905,-0.1126393136952542
0.004399999999999904,-0.11275249059924342
0.003399999999999903,-0.11285152039023398
0.002399999999999902,-0.11295055018122453
0.0013999999999999013,-0.11300713863321914
0.00039999999999990044,-0.1130495799722151
-0.0006000000000001005,-0.11314860976320563
-0.0016000000000001013,-0.11327593378019349
-0.0026000000000001022,-0.11331837511918944
-0.003600000000000103,-0.11336081645818537
-0.004600000000000104,-0.1133891106841827
-0.005600000000000105,-0.11350228758817188
-0.006600000000000106,-0.1136154644921611
-0.007600000000000107,-0.1136437587181584
-0.008600000000000108,-0.113700347170153
-0.009600000000000108,-0.11371449428315164
-0.01060000000000011,-0.1137852298481449
-0.01160000000000011,-0.11391255386513276
-0.012600000000000111,-0.1139549952041287
-0.013600000000000112,-0.1139549952041287
-0.014600000000000113,-0.11399743654312465
-0.015600000000000114,-0.11403987788212061
-0.016600000000000115,-0.11416720189910846
-0.017600000000000116,-0.11416720189910846
-0.018600000000000116,-0.11416720189910846
-0.019600000000000117,-0.11420964323810441
-0.020600000000000118,-0.11426623169009903
-0.02160000000000012,-0.1143228201420936
-0.02260000000000012,-0.11435111436809091
-0.02360000000000012,-0.11433696725509226
-0.024600000000000122,-0.11439355570708687
-0.025600000000000123,-0.11442184993308416
-0.026600000000000124,-0.11449258549807742
-0.027600000000000124,-0.11450673261107608
-0.028600000000000125,-0.11447843838507876
-0.029600000000000126,-0.11449258549807742
-0.030600000000000127,-0.11454917395007203
-0.03160000000000013,-0.11457746817606933
-0.03260000000000013,-0.11459161528906797
-0.03360000000000013,-0.11456332106307067
-0.03460000000000002,-0.11456332106307067
-0.03560000000000002,-0.11461990951506526
-0.03660000000000002,-0.1146623508540612
-0.03760000000000002,-0.1146623508540612
-0.03860000000000002,-0.11463405662806392
-0.039600000000000024,-0.11461990951506526
-0.040600000000000025,-0.11464820374106259
-0.041600000000000026,-0.11467649796705988
-0.04260000000000003,-0.1146623508540612
-0.04360000000000003,-0.11464820374106259
-0.04460000000000003,-0.11463405662806392
-0.04560000000000003,-0.1146623508540612
-0.04660000000000003,-0.11469064508005854
-0.04760000000000003,-0.11464820374106259
-0.04860000000000003,-0.11463405662806392
-0.04960000000000003,-0.11460576240206662
-0.050600000000000034,-0.11463405662806392
-0.051600000000000035,-0.11467649796705988
-0.052600000000000036,-0.11461990951506526
-0.053600000000000037,-0.11459161528906797
-0.05460000000000004,-0.11456332106307067
-0.05560000000000004,-0.11454917395007203
-0.05660000000000004,-0.11461990951506526
-0.05760000000000004,-0.11457746817606933
-0.05860000000000004,-0.11452087972407471
-0.05960000000000004,-0.11450673261107608
-0.06060000000000004,-0.11447843838507876
-0.061600000000000044,-0.11450673261107608
-0.06260000000000004,-0.11446429127208012
-0.06360000000000005,-0.11442184993308416
-0.06460000000000005,-0.11439355570708687
-0.06560000000000005,-0.11437940859408821
-0.06660000000000005,-0.11440770282008553
-0.06760000000000005,-0.11436526148108955
-0.06860000000000005,-0.11428037880309765
-0.06960000000000005,-0.11425208457710037
-0.07060000000000005,-0.11426623169009903
-0.07160000000000005,-0.11425208457710037
-0.07260000000000005,-0.1142379374641017
-0.07360000000000005,-0.11416720189910846
-0.07460000000000006,-0.11411061344711387
-0.07560000000000006,-0.11412476056011249
-0.07660000000000006,-0.11411061344711387
-0.07760000000000006,-0.11405402499511925
-0.07860000000000006,-0.11401158365612331
-0.07960000000000006,-0.1139549952041287
-0.08060000000000006,-0.1139549952041287
-0.08160000000000006,-0.11394084809113005
-0.08260000000000006,-0.11392670097813141
-0.08360000000000006,-0.1138418183001395
-0.08460000000000006,-0.1137569356221476
-0.08560000000000006,-0.1137569356221476
-0.08660000000000007,-0.1137852298481449
-0.08760000000000007,-0.113700347170153
-0.08860000000000007,-0.11368620005715435
-0.08960000000000007,-0.1136154644921611
-0.09060000000000007,-0.1135871702661638
-0.09160000000000007,-0.11360131737916243
-0.09260000000000007,-0.1135305818141692
-0.09360000000000007,-0.11347399336217459
-0.09460000000000007,-0.11341740491017999
-0.09560000000000007,-0.11340325779718134
-0.09660000000000007,-0.11341740491017999
-0.09760000000000008,-0.11334666934518675
-0.09860000000000008,-0.11326178666719483
-0.09960000000000008,-0.11323349244119754
-0.10060000000000008,-0.1131910511022016
-0.10160000000000008,-0.11320519821520024
-0.10260000000000008,-0.1131627568762043
-0.10360000000000008,-0.11307787419821237
-0.10460000000000008,-0.11302128574621777
-0.10560000000000008,-0.11297884440722182
-0.10660000000000008,-0.11299299152022048
-0.10760000000000008,-0.11295055018122453
-0.10860000000000009,-0.11285152039023398
-0.10960000000000009,-0.11280907905123803
-0.11060000000000009,-0.11280907905123803
-0.11160000000000009,-0.11278078482524072
-0.11260000000000009,-0.11275249059924342
-0.11360000000000009,-0.1126393136952542
-0.11460000000000009,-0.11265346080825286
-0.11560000000000009,-0.11262516658225558
-0.11660000000000009,-0.11258272524325963
-0.1176000000000001,-0.11254028390426365
-0.1186000000000001,-0.11246954833927042
-0.1196000000000001,-0.11239881277427716
-0.1206000000000001,-0.11238466566127853
-0.1216000000000001,-0.11238466566127853
-0.1226000000000001,-0.11232807720928391
-0.1236000000000001,-0.11227148875728932
-0.1246000000000001,-0.11217245896629877
-0.1256000000000001,-0.11220075319229607
-0.1266000000000001,-0.11218660607929741
-0.1276000000000001,-0.1121300176273028
-0.1286000000000001,-0.1120734291753082
-0.1296000000000001,-0.1119885464973163
-0.1306000000000001,-0.11200269361031497
-0.1316000000000001,-0.1120168407233136
-0.1326000000000001,-0.1119319580453217
-0.1336000000000001,-0.11187536959332708
-0.1346000000000001,-0.11183292825433114
-0.1356000000000001,-0.1117904869153352
-0.1366000000000001,-0.1118187811413325
-0.1376000000000001,-0.11174804557633926
-0.1386000000000001,-0.111677310011346
-0.1396000000000001,-0.1116490157853487
-0.1406000000000001,-0.11163486867235005
-0.14160000000000011,-0.11163486867235005
-0.14260000000000012,-0.11159242733335409
-0.14360000000000012,-0.11149339754236354
-0.14460000000000012,-0.11149339754236354
-0.14560000000000012,-0.11143680909036893
-0.14660000000000012,-0.11146510331636625
-0.14760000000000012,-0.11145095620336758
-0.14860000000000012,-0.11133777929937837
-0.14960000000000012,-0.11130948507338108
-0.15060000000000012,-0.11130948507338108
-0.15160000000000012,-0.11132363218637975
-0.15260000000000012,-0.11126704373438513
-0.15360000000000013,-0.11119630816939187
-0.15460000000000013,-0.11116801394339458
-0.15560000000000013,-0.11119630816939187
-0.15660000000000013,-0.11115386683039592
-0.15760000000000013,-0.11113971971739729
-0.15860000000000013,-0.11108313126540269
-0.15960000000000002,-0.11102654281340808
-0.16060000000000002,-0.11102654281340808
-0.16160000000000002,-0.11104068992640674
-0.16260000000000002,-0.11099824858741078
-0.16360000000000002,-0.11094166013541619
-0.16460000000000002,-0.11088507168342157
-0.16560000000000002,-0.11098410147441214
-0.16660000000000003,-0.11101239570040942
-0.16760000000000003,-0.11089921879642024
-0.16860000000000003,-0.11085677745742427
-0.16960000000000003,-0.11077189477943236
-0.17060000000000003,-0.11077189477943236
-0.17160000000000003,-0.11081433611842831
-0.17260000000000003,-0.11074360055343507
-0.17360000000000003,-0.11070115921443913
-0.17460000000000003,-0.11067286498844181
-0.17560000000000003,-0.11065871787544318
-0.17660000000000003,-0.11070115921443913
-0.17760000000000004,-0.11067286498844181
-0.17860000000000004,-0.1106162765364472
-0.17960000000000004,-0.11057383519745125
-0.18060000000000004,-0.11055968808445263
-0.18160000000000004,-0.1106162765364472
-0.18260000000000004,-0.11054554097145397
-0.18360000000000004,-0.11050309963245801
-0.18460000000000004,-0.11050309963245801
-0.18560000000000004,-0.11053139385845531
-0.18660000000000004,-0.11054554097145397
-0.18760000000000004,-0.11051724674545668
-0.18860000000000005,-0.11044651118046342
-0.18960000000000005,-0.11040406984146747
-0.19060000000000005,-0.11040406984146747
-0.19160000000000005,-0.11041821695446612
-0.19260000000000005,-0.1103899227284688
-0.19360000000000005,-0.11033333427647421
-0.19460000000000005,-0.11030504005047691
-0.19560000000000005,-0.11033333427647421
-0.19660000000000005,-0.11031918716347557
-0.19760000000000005,-0.11030504005047691
-0.19860000000000005,-0.1102484515984823
-0.19960000000000006,-0.1101918631464877
-0.20060000000000006,-0.1102484515984823
-0.20160000000000006,-0.11020601025948636
-0.20260000000000006,-0.1101918631464877
-0.20360000000000006,-0.11016356892049041
-0.20460000000000006,-0.11009283335549715
-0.20560000000000006,-0.11012112758149446
-0.20660000000000006,-0.1101352746944931
-0.20760000000000006,-0.1101069804684958
-0.20860000000000006,-0.11006453912949986
-0.20960000000000006,-0.11003624490350256
-0.21060000000000006,-0.11003624490350256
-0.21160000000000007,-0.1100786862424985
-0.21260000000000007,-0.11000795067750524
-0.21360000000000007,-0.10997965645150796
-0.21460000000000007,-0.10995136222551065
-0.21560000000000007,-0.10995136222551065
-0.21660000000000007,-0.11003624490350256
-0.21760000000000007,-0.11000795067750524
-0.21860000000000007,-0.10989477377351606
-0.21960000000000007,-0.10989477377351606
-0.22060000000000007,-0.10986647954751874
-0.22160000000000007,-0.1099089208865147
-0.22260000000000008,-0.10988062666051741
-0.22360000000000008,-0.10980989109552414
-0.22460000000000008,-0.10980989109552414
-0.22560000000000008,-0.1097957439825255
-0.22660000000000008,-0.10980989109552414
-0.22760000000000008,-0.10978159686952685
-0.22860000000000008,-0.10971086130453359
-0.22960000000000008,-0.10971086130453359
-0.23060000000000008,-0.1097674497565282
-0.23160000000000008,-0.1097674497565282
-0.23260000000000008,-0.10975330264352953
-0.23360000000000009,-0.10971086130453359
-0.2346000000000001,-0.10971086130453359
-0.2356000000000001,-0.10975330264352953
-0.2366000000000001,-0.1097391555305309
-0.2376000000000001,-0.10969671419153494
-0.2386000000000001,-0.10966841996553764
-0.2396000000000001,-0.10958353728754573
-0.2406000000000001,-0.10964012573954035
-0.2416000000000001,-0.10962597862654169
-0.2426000000000001,-0.10961183151354303
-0.2436000000000001,-0.1095976844005444
-0.2446000000000001,-0.10951280172255247
-0.2456000000000001,-0.10956939017454709
-0.2466000000000001,-0.1095976844005444
-0.2476000000000001,-0.10952694883555114
-0.2486000000000001,-0.10952694883555114
-0.2496000000000001,-0.10949865460955385
-0.2506000000000001,-0.10949865460955385
-0.2516000000000001,-0.10955524306154844
-0.2526000000000001,-0.10949865460955385
-0.2536000000000001,-0.10947036038355652
-0.2546000000000001,-0.1094562132705579
-0.2556000000000001,-0.10947036038355652
-0.2566000000000001,-0.10952694883555114
-0.2576000000000001,-0.1094562132705579
-0.2586000000000001,-0.10942791904456058
-0.2596000000000001,-0.10944206615755923
-0.2606000000000001,-0.1094562132705579
-0.2616000000000001,-0.10951280172255247
-0.2626000000000001,-0.10949865460955385
-0.2636000000000001,-0.1094562132705579
-0.2646000000000001,-0.1094562132705579
-0.2656000000000001,-0.1094562132705579
-0.2666000000000001,-0.1094845074965552
-0.2676000000000001,-0.10951280172255247
-0.2686000000000001,-0.10947036038355652
-0.2696000000000001,-0.10947036038355652
-0.2706000000000001,-0.10951280172255247
-0.2716000000000001,-0.10952694883555114
-0.2726000000000001,-0.10951280172255247
-0.2736000000000001,-0.10949865460955385
-0.2746000000000001,-0.1094845074965552
-0.2756000000000001,-0.10955524306154844
-0.2766000000000001,-0.10956939017454709
-0.2776000000000001,-0.1095976844005444
-0.2786000000000001,-0.10958353728754573
-0.2796000000000001,-0.10956939017454709
-0.2806000000000001,-0.10964012573954035
-0.28160000000000013,-0.1096825670785363
-0.28260000000000013,-0.10969671419153494
-0.28360000000000013,-0.10971086130453359
-0.2846,-0.10969671419153494
-0.2856,-0.10975330264352953
-0.2866,-0.10980989109552414
-0.2876,-0.10983818532152145
-0.2886,-0.10985233243452008
-0.2896,-0.10986647954751874
-0.2906,-0.109937215112512
-0.2916,-0.11006453912949986
-0.2926,-0.1100503920165012
-0.2936,-0.1100786862424985
-0.29460000000000003,-0.11012112758149446
-0.29560000000000003,-0.1101918631464877
-0.29660000000000003,-0.11031918716347557
-0.29760000000000003,-0.11036162850247151
-0.29860000000000003,-0.11043236406746475
-0.29960000000000003,-0.11058798231044992
-0.30060000000000003,-0.11064457076244452
-0.30160000000000003,-0.11072945344043642
-0.30260000000000004,-0.11078604189243102
-0.30360000000000004,-0.11082848323142698
-0.30460000000000004,-0.11091336590941887
-0.30560000000000004,-0.11108313126540269
-0.30660000000000004,-0.11122460239538919
-0.30760000000000004,-0.11135192641237703
-0.30860000000000004,-0.11156413310735679
-0.30960000000000004,-0.11163486867235005
-0.31060000000000004,-0.1118187811413325
-0.31160000000000004,-0.11203098783631225
-0.31260000000000004,-0.11217245896629877
-0.31360000000000005,-0.11228563587028798
-0.31460000000000005,-0.11239881277427716
-0.31560000000000005,-0.11266760792125154
-0.31660000000000005,-0.11290810884222857
-0.31760000000000005,-0.11310616842420969
-0.31860000000000005,-0.11329008089319213
-0.31960000000000005,-0.11351643470117054
-0.32060000000000005,-0.11377108273514626
-0.32160000000000005,-0.11406817210811791
-0.32260000000000005,-0.11429452591609632
-0.32360000000000005,-0.11453502683707338
-0.32460000000000006,-0.11476138064505177
-0.32560000000000006,-0.11508676424402071
-0.32660000000000006,-0.1154121478429897
-0.32760000000000006,-0.11566679587696539
-0.32860000000000006,-0.11602047370193166
-0.32960000000000006,-0.11630341596190466
-0.33060000000000006,-0.11668538801286822
-0.33160000000000006,-0.11702491872483582
-0.33260000000000006,-0.11733615521080615
-0.33360000000000006,-0.11764739169677645
-0.33460000000000006,-0.1179727752957454
-0.33560000000000006,-0.11834060023371032
-0.33660000000000007,-0.11873671939767255
-0.33760000000000007,-0.11903380877064418
-0.33860000000000007,-0.1194016337086091
-0.33960000000000007,-0.12080219789547549
-0.34060000000000007,-0.12104269881645255
-0.34160000000000007,-0.1210851401554485
-0.34260000000000007,-0.121226611285435
-0.34360000000000007,-0.12146711220641206
-0.3446000000000001,-0.12180664291837967
-0.3456000000000001,-0.12220276208234186
-0.3466000000000001,-0.12261302835930274
-0.34759999999999996,-0.12299500041026629
-0.3486000000000001,-0.12339111957422852
-0.34959999999999997,-0.1238438271901853
-0.3506000000000001,-0.12426824058014481
-0.35159999999999997,-0.12477753664809622
-0.3526000000000001,-0.12521609715105442
-0.35359999999999997,-0.12556977497602065
-0.3546000000000001,-0.1259941883659802
-0.35559999999999997,-0.12650348443393158
-0.3566000000000001,-0.12694204493688974
-0.3576,-0.12742304677884386
-0.3586000000000001,-0.12784746016880336
-0.3596,-0.1283001677847602
-0.3606000000000001,-0.12879531673971292
-0.3616,-0.1292904656946657
-0.3626000000000001,-0.12974317331062254
-0.3636,-0.13018173381358067
-0.3646000000000001,-0.13064858854253616
-0.3656,-0.1311437374974889
-0.3666000000000001,-0.13163888645244168
-0.3676,-0.13211988829439578
-0.3686000000000001,-0.13255844879735396
-0.3696,-0.13291212662232021
-0.3706000000000001,-0.13340727557727297
-0.3716,-0.13390242453222573
-0.3726000000000001,-0.13431269080918656
-0.3736,-0.13473710419914608
-0.3746000000000001,-0.1351615175891056
-0.3756,-0.13557178386606644
-0.3766000000000001,-0.13602449148202328
-0.3776,-0.13636402219399088
-0.3786000000000001,-0.13671770001895714
-0.3796,-0.137127966295918
-0.3806000000000001,-0.13752408545988024
-0.3816,-0.13794849884983973
-0.3826000000000001,-0.13828802956180736
-0.3836,-0.13859926604777764
-0.3846000000000001,-0.13906612077673314
-0.3856,-0.1394056514887007
-0.3866000000000001,-0.13970274086167236
-0.3876,-0.13998568312164536
-0.3886000000000001,-0.1402120369296238
-0.3896,-0.14048083207659814
-0.3906000000000001,-0.14082036278856577
-0.3916,-0.1411457463875347
-0.3926000000000001,-0.14140039442151042
-0.3936,-0.14161260111649018
-0.3946000000000001,-0.14189554337646318
-0.3956,-0.1428858412863687
-0.3966000000000001,-0.1426028990263957
-0.3976,-0.1427443701563822
-0.3986000000000001,-0.14543232162612577
-0.3996,-0.15731589654499206
-0.4006000000000001,-0.154203531685289
-0.4016,-0.15349617603535648
-0.4026000000000001,-0.15462794507524852
-0.4036,-0.15462794507524852
-0.4046000000000001,-0.154203531685289
-0.4056,-0.15392058942531597
-0.40660000000000013,-0.15377911829532948
-0.4076,-0.15250587812545094
-0.40860000000000013,-0.15179852247551845
-0.4096,-0.1503838111756534
-0.41060000000000013,-0.1499593977856939
-0.4116,-0.1510911668255859
-0.41260000000000013,-0.1509496956955994
-0.4136,-0.1509496956955994
-0.41460000000000014,-0.1496764555257209
-0.4156,-0.14854468648582883
-0.41660000000000014,-0.14741291744593682
-0.4176,-0.14755438857592332
-0.41860000000000014,-0.14783733083589634
-0.41960000000000003,-0.14769585970590982
-0.42060000000000014,-0.14712997518596382
-0.42160000000000003,-0.14727144631595032
-0.42260000000000014,-0.14755438857592332
-0.42360000000000003,-0.14755438857592332
-0.42460000000000014,-0.14769585970590982
-0.42560000000000003,-0.14812027309586934
-0.42660000000000015,-0.14868615761581536
-0.42760000000000004,-0.14911057100577488
-0.42860000000000015,-0.14925204213576138
-0.42960000000000004,-0.14953498439573437
-0.43060000000000015,-0.1499593977856939
-0.43160000000000004,-0.1508082245656129
-0.43260000000000015,-0.1510911668255859
-0.43360000000000004,-0.1508082245656129
-0.43460000000000015,-0.1508082245656129
-0.43560000000000004,-0.1513741090855589
-0.43660000000000015,-0.15208146473549145
-0.43760000000000004,-0.15193999360550495
