Mar. 16, 2025   20:52:35
Cyclic Voltammetry
File: c:/users/guazh/data/banditlqround7_x0exp891_r5/2025-03-03-exp915\exp915-2025-03-16t20_32_22-h2koh\exp915_cv_sr_400mvs_efin_-1900mv.bin
Data Source:  Experiment
Instrument Model:  CHI760E
Header: CV ran at 400 mVs
Note: 

Init E (V) = -1
High E (V) = -1
Low E (V) = -1.9
Final E (V) = -1
Init P/N = N
Scan Rate (V/s) = 0.4
Segment = 3
Sample Interval (V) = 0.001
Quiet Time (sec) = 2
Sensitivity (A/V) = 0.01
Comp R (ohm) = 2.0

Results:

Channel 1:
Segment 1:

Segment 2:

Segment 3:

Potential/V, Current/A

-1.000, 3.239e-6
-1.001, 3.239e-6
-1.002, 3.239e-6
-1.003, 3.239e-6
-1.004, 3.239e-6
-1.005, 3.239e-6
-1.006, 3.239e-6
-1.007, 3.239e-6
-1.008, 3.239e-6
-1.009, 3.239e-6
-1.010, 3.239e-6
-1.011, 3.239e-6
-1.012, 3.239e-6
-1.013, 3.239e-6
-1.014, 3.239e-6
-1.015, 3.239e-6
-1.016, 3.239e-6
-1.017, 3.239e-6
-1.018, 3.239e-6
-1.019, 3.239e-6
-1.020, 3.239e-6
-1.021, 3.239e-6
-1.022, 3.239e-6
-1.023, 3.239e-6
-1.024, 3.239e-6
-1.025, 3.239e-6
-1.026, 3.239e-6
-1.027, 3.239e-6
-1.028, 3.239e-6
-1.029, 3.239e-6
-1.030, 3.239e-6
-1.031, 3.239e-6
-1.032, 3.239e-6
-1.033, 3.239e-6
-1.034, 3.239e-6
-1.035, 3.239e-6
-1.036, 3.239e-6
-1.037, 3.239e-6
-1.038, 3.239e-6
-1.039, 3.239e-6
-1.040, 3.239e-6
-1.041, 3.239e-6
-1.042, 3.239e-6
-1.043, 3.239e-6
-1.044, 3.239e-6
-1.045, 3.239e-6
-1.046, 3.239e-6
-1.047, 3.239e-6
-1.048, 3.239e-6
-1.049, 3.239e-6
-1.050, 3.239e-6
-1.051, 3.239e-6
-1.052, 3.239e-6
-1.053, 3.239e-6
-1.054, 3.239e-6
-1.055, 3.239e-6
-1.056, 3.239e-6
-1.057, 3.239e-6
-1.058, 3.239e-6
-1.059, 3.239e-6
-1.060, 3.239e-6
-1.061, 3.239e-6
-1.062, 3.239e-6
-1.063, 3.239e-6
-1.064, 3.239e-6
-1.065, 3.239e-6
-1.066, 3.239e-6
-1.067, 3.239e-6
-1.068, 3.239e-6
-1.069, 3.239e-6
-1.070, 3.239e-6
-1.071, 3.239e-6
-1.072, 3.239e-6
-1.073, 3.239e-6
-1.074, 3.239e-6
-1.075, 3.239e-6
-1.076, 3.239e-6
-1.077, 3.239e-6
-1.078, 3.239e-6
-1.079, 3.239e-6
-1.080, 3.239e-6
-1.081, 3.239e-6
-1.082, 3.239e-6
-1.083, 3.239e-6
-1.084, 3.239e-6
-1.085, 3.239e-6
-1.086, 3.239e-6
-1.087, 6.322e-6
-1.088, 3.239e-6
-1.089, 3.239e-6
-1.090, 3.239e-6
-1.091, 3.239e-6
-1.092, 3.239e-6
-1.093, 3.239e-6
-1.094, 3.239e-6
-1.095, 3.239e-6
-1.096, 3.239e-6
-1.097, 3.239e-6
-1.098, 3.239e-6
-1.099, 6.322e-6
-1.100, 3.239e-6
-1.101, 3.239e-6
-1.102, 3.239e-6
-1.103, 3.239e-6
-1.104, 6.322e-6
-1.105, 3.239e-6
-1.106, 3.239e-6
-1.107, 6.322e-6
-1.108, 3.239e-6
-1.109, 3.239e-6
-1.110, 3.239e-6
-1.111, 6.322e-6
-1.112, 6.322e-6
-1.113, 3.239e-6
-1.114, 6.322e-6
-1.115, 3.239e-6
-1.116, 3.239e-6
-1.117, 3.239e-6
-1.118, 6.322e-6
-1.119, 3.239e-6
-1.120, 3.239e-6
-1.121, 3.239e-6
-1.122, 3.239e-6
-1.123, 3.239e-6
-1.124, 6.322e-6
-1.125, 3.239e-6
-1.126, 3.239e-6
-1.127, 6.322e-6
-1.128, 3.239e-6
-1.129, 3.239e-6
-1.130, 3.239e-6
-1.131, 6.322e-6
-1.132, 6.322e-6
-1.133, 6.322e-6
-1.134, 6.322e-6
-1.135, 6.322e-6
-1.136, 6.322e-6
-1.137, 6.322e-6
-1.138, 3.239e-6
-1.139, 3.239e-6
-1.140, 3.239e-6
-1.141, 3.239e-6
-1.142, 3.239e-6
-1.143, 6.322e-6
-1.144, 6.322e-6
-1.145, 6.322e-6
-1.146, 3.239e-6
-1.147, 6.322e-6
-1.148, 6.322e-6
-1.149, 6.322e-6
-1.150, 6.322e-6
-1.151, 6.322e-6
-1.152, 6.322e-6
-1.153, 6.322e-6
-1.154, 3.239e-6
-1.155, 3.239e-6
-1.156, 6.322e-6
-1.157, 6.322e-6
-1.158, 3.239e-6
-1.159, 3.239e-6
-1.160, 6.322e-6
-1.161, 3.239e-6
-1.162, 3.239e-6
-1.163, 3.239e-6
-1.164, 6.322e-6
-1.165, 3.239e-6
-1.166, 3.239e-6
-1.167, 6.322e-6
-1.168, 3.239e-6
-1.169, 6.322e-6
-1.170, 6.322e-6
-1.171, 6.322e-6
-1.172, 3.239e-6
-1.173, 3.239e-6
-1.174, 6.322e-6
-1.175, 3.239e-6
-1.176, 6.322e-6
-1.177, 3.239e-6
-1.178, 6.322e-6
-1.179, 6.322e-6
-1.180, 6.322e-6
-1.181, 6.322e-6
-1.182, 6.322e-6
-1.183, 6.322e-6
-1.184, 6.322e-6
-1.185, 6.322e-6
-1.186, 6.322e-6
-1.187, 6.322e-6
-1.188, 6.322e-6
-1.189, 6.322e-6
-1.190, 6.322e-6
-1.191, 6.322e-6
-1.192, 3.239e-6
-1.193, 6.322e-6
-1.194, 6.322e-6
-1.195, 3.239e-6
-1.196, 6.322e-6
-1.197, 6.322e-6
-1.198, 6.322e-6
-1.199, 6.322e-6
-1.200, 6.322e-6
-1.201, 6.322e-6
-1.202, 6.322e-6
-1.203, 6.322e-6
-1.204, 6.322e-6
-1.205, 6.322e-6
-1.206, 6.322e-6
-1.207, 6.322e-6
-1.208, 6.322e-6
-1.209, 6.322e-6
-1.210, 6.322e-6
-1.211, 6.322e-6
-1.212, 6.322e-6
-1.213, 3.239e-6
-1.214, 6.322e-6
-1.215, 6.322e-6
-1.216, 3.239e-6
-1.217, 6.322e-6
-1.218, 6.322e-6
-1.219, 6.322e-6
-1.220, 6.322e-6
-1.221, 6.322e-6
-1.222, 6.322e-6
-1.223, 6.322e-6
-1.224, 6.322e-6
-1.225, 6.322e-6
-1.226, 6.322e-6
-1.227, 6.322e-6
-1.228, 6.322e-6
-1.229, 6.322e-6
-1.230, 6.322e-6
-1.231, 6.322e-6
-1.232, 6.322e-6
-1.233, 6.322e-6
-1.234, 6.322e-6
-1.235, 6.322e-6
-1.236, 6.322e-6
-1.237, 6.322e-6
-1.238, 6.322e-6
-1.239, 6.322e-6
-1.240, 6.322e-6
-1.241, 6.322e-6
-1.242, 6.322e-6
-1.243, 6.322e-6
-1.244, 6.322e-6
-1.245, 6.322e-6
-1.246, 6.322e-6
-1.247, 6.322e-6
-1.248, 6.322e-6
-1.249, 6.322e-6
-1.250, 6.322e-6
-1.251, 6.322e-6
-1.252, 6.322e-6
-1.253, 6.322e-6
-1.254, 6.322e-6
-1.255, 6.322e-6
-1.256, 6.322e-6
-1.257, 6.322e-6
-1.258, 6.322e-6
-1.259, 6.322e-6
-1.260, 6.322e-6
-1.261, 6.322e-6
-1.262, 6.322e-6
-1.263, 6.322e-6
-1.264, 6.322e-6
-1.265, 6.322e-6
-1.266, 6.322e-6
-1.267, 6.322e-6
-1.268, 6.322e-6
-1.269, 6.322e-6
-1.270, 6.322e-6
-1.271, 6.322e-6
-1.272, 6.322e-6
-1.273, 6.322e-6
-1.274, 6.322e-6
-1.275, 6.322e-6
-1.276, 6.322e-6
-1.277, 6.322e-6
-1.278, 6.322e-6
-1.279, 6.322e-6
-1.280, 6.322e-6
-1.281, 6.322e-6
-1.282, 6.322e-6
-1.283, 6.322e-6
-1.284, 6.322e-6
-1.285, 6.322e-6
-1.286, 6.322e-6
-1.287, 6.322e-6
-1.288, 6.322e-6
-1.289, 6.322e-6
-1.290, 6.322e-6
-1.291, 6.322e-6
-1.292, 6.322e-6
-1.293, 6.322e-6
-1.294, 6.322e-6
-1.295, 6.322e-6
-1.296, 6.322e-6
-1.297, 6.322e-6
-1.298, 6.322e-6
-1.299, 6.322e-6
-1.300, 6.322e-6
-1.301, 6.322e-6
-1.302, 6.322e-6
-1.303, 6.322e-6
-1.304, 6.322e-6
-1.305, 6.322e-6
-1.306, 6.322e-6
-1.307, 6.322e-6
-1.308, 6.322e-6
-1.309, 6.322e-6
-1.310, 6.322e-6
-1.311, 6.322e-6
-1.312, 9.405e-6
-1.313, 6.322e-6
-1.314, 6.322e-6
-1.315, 6.322e-6
-1.316, 6.322e-6
-1.317, 6.322e-6
-1.318, 6.322e-6
-1.319, 6.322e-6
-1.320, 6.322e-6
-1.321, 6.322e-6
-1.322, 6.322e-6
-1.323, 9.405e-6
-1.324, 6.322e-6
-1.325, 6.322e-6
-1.326, 6.322e-6
-1.327, 9.405e-6
-1.328, 6.322e-6
-1.329, 9.405e-6
-1.330, 6.322e-6
-1.331, 9.405e-6
-1.332, 6.322e-6
-1.333, 6.322e-6
-1.334, 6.322e-6
-1.335, 6.322e-6
-1.336, 6.322e-6
-1.337, 9.405e-6
-1.338, 6.322e-6
-1.339, 6.322e-6
-1.340, 9.405e-6
-1.341, 6.322e-6
-1.342, 6.322e-6
-1.343, 6.322e-6
-1.344, 6.322e-6
-1.345, 6.322e-6
-1.346, 6.322e-6
-1.347, 6.322e-6
-1.348, 6.322e-6
-1.349, 6.322e-6
-1.350, 9.405e-6
-1.351, 9.405e-6
-1.352, 9.405e-6
-1.353, 9.405e-6
-1.354, 6.322e-6
-1.355, 9.405e-6
-1.356, 6.322e-6
-1.357, 9.405e-6
-1.358, 6.322e-6
-1.359, 9.405e-6
-1.360, 9.405e-6
-1.361, 6.322e-6
-1.362, 9.405e-6
-1.363, 6.322e-6
-1.364, 6.322e-6
-1.365, 9.405e-6
-1.366, 9.405e-6
-1.367, 9.405e-6
-1.368, 9.405e-6
-1.369, 6.322e-6
-1.370, 9.405e-6
-1.371, 9.405e-6
-1.372, 9.405e-6
-1.373, 6.322e-6
-1.374, 9.405e-6
-1.375, 6.322e-6
-1.376, 9.405e-6
-1.377, 9.405e-6
-1.378, 9.405e-6
-1.379, 9.405e-6
-1.380, 9.405e-6
-1.381, 9.405e-6
-1.382, 9.405e-6
-1.383, 6.322e-6
-1.384, 9.405e-6
-1.385, 6.322e-6
-1.386, 6.322e-6
-1.387, 9.405e-6
-1.388, 9.405e-6
-1.389, 6.322e-6
-1.390, 9.405e-6
-1.391, 9.405e-6
-1.392, 9.405e-6
-1.393, 9.405e-6
-1.394, 9.405e-6
-1.395, 9.405e-6
-1.396, 9.405e-6
-1.397, 9.405e-6
-1.398, 9.405e-6
-1.399, 9.405e-6
-1.400, 9.405e-6
-1.401, 9.405e-6
-1.402, 9.405e-6
-1.403, 9.405e-6
-1.404, 9.405e-6
-1.405, 9.405e-6
-1.406, 9.405e-6
-1.407, 9.405e-6
-1.408, 9.405e-6
-1.409, 9.405e-6
-1.410, 9.405e-6
-1.411, 9.405e-6
-1.412, 9.405e-6
-1.413, 9.405e-6
-1.414, 9.405e-6
-1.415, 9.405e-6
-1.416, 9.405e-6
-1.417, 9.405e-6
-1.418, 9.405e-6
-1.419, 9.405e-6
-1.420, 9.405e-6
-1.421, 9.405e-6
-1.422, 9.405e-6
-1.423, 9.405e-6
-1.424, 9.405e-6
-1.425, 9.405e-6
-1.426, 9.405e-6
-1.427, 9.405e-6
-1.428, 9.405e-6
-1.429, 9.405e-6
-1.430, 9.405e-6
-1.431, 9.405e-6
-1.432, 9.405e-6
-1.433, 9.405e-6
-1.434, 9.405e-6
-1.435, 9.405e-6
-1.436, 9.405e-6
-1.437, 9.405e-6
-1.438, 9.405e-6
-1.439, 9.405e-6
-1.440, 1.249e-5
-1.441, 9.405e-6
-1.442, 9.405e-6
-1.443, 9.405e-6
-1.444, 9.405e-6
-1.445, 9.405e-6
-1.446, 9.405e-6
-1.447, 9.405e-6
-1.448, 9.405e-6
-1.449, 9.405e-6
-1.450, 9.405e-6
-1.451, 9.405e-6
-1.452, 9.405e-6
-1.453, 9.405e-6
-1.454, 9.405e-6
-1.455, 9.405e-6
-1.456, 9.405e-6
-1.457, 9.405e-6
-1.458, 1.249e-5
-1.459, 9.405e-6
-1.460, 9.405e-6
-1.461, 9.405e-6
-1.462, 9.405e-6
-1.463, 9.405e-6
-1.464, 9.405e-6
-1.465, 9.405e-6
-1.466, 1.249e-5
-1.467, 1.249e-5
-1.468, 1.249e-5
-1.469, 9.405e-6
-1.470, 9.405e-6
-1.471, 1.249e-5
-1.472, 1.249e-5
-1.473, 1.249e-5
-1.474, 1.249e-5
-1.475, 1.249e-5
-1.476, 1.249e-5
-1.477, 1.249e-5
-1.478, 1.249e-5
-1.479, 1.249e-5
-1.480, 1.249e-5
-1.481, 1.249e-5
-1.482, 1.249e-5
-1.483, 1.249e-5
-1.484, 1.249e-5
-1.485, 1.249e-5
-1.486, 1.249e-5
-1.487, 1.249e-5
-1.488, 1.249e-5
-1.489, 1.249e-5
-1.490, 1.249e-5
-1.491, 1.249e-5
-1.492, 1.249e-5
-1.493, 1.249e-5
-1.494, 1.249e-5
-1.495, 1.249e-5
-1.496, 1.557e-5
-1.497, 1.249e-5
-1.498, 1.249e-5
-1.499, 1.249e-5
-1.500, 1.249e-5
-1.501, 1.249e-5
-1.502, 1.249e-5
-1.503, 1.249e-5
-1.504, 1.557e-5
-1.505, 1.249e-5
-1.506, 1.249e-5
-1.507, 1.557e-5
-1.508, 1.557e-5
-1.509, 1.557e-5
-1.510, 1.557e-5
-1.511, 1.557e-5
-1.512, 1.557e-5
-1.513, 1.557e-5
-1.514, 1.557e-5
-1.515, 1.557e-5
-1.516, 1.557e-5
-1.517, 1.557e-5
-1.518, 1.557e-5
-1.519, 1.557e-5
-1.520, 1.557e-5
-1.521, 1.557e-5
-1.522, 1.557e-5
-1.523, 1.557e-5
-1.524, 1.557e-5
-1.525, 1.865e-5
-1.526, 1.865e-5
-1.527, 1.865e-5
-1.528, 1.865e-5
-1.529, 1.865e-5
-1.530, 1.865e-5
-1.531, 1.865e-5
-1.532, 1.865e-5
-1.533, 1.865e-5
-1.534, 1.865e-5
-1.535, 1.865e-5
-1.536, 1.865e-5
-1.537, 1.865e-5
-1.538, 1.865e-5
-1.539, 2.174e-5
-1.540, 2.174e-5
-1.541, 2.174e-5
-1.542, 1.865e-5
-1.543, 2.174e-5
-1.544, 2.174e-5
-1.545, 2.174e-5
-1.546, 2.174e-5
-1.547, 2.174e-5
-1.548, 2.174e-5
-1.549, 2.174e-5
-1.550, 2.482e-5
-1.551, 2.482e-5
-1.552, 2.174e-5
-1.553, 2.482e-5
-1.554, 2.482e-5
-1.555, 2.482e-5
-1.556, 2.482e-5
-1.557, 2.482e-5
-1.558, 2.482e-5
-1.559, 2.482e-5
-1.560, 2.790e-5
-1.561, 2.482e-5
-1.562, 2.790e-5
-1.563, 2.790e-5
-1.564, 2.790e-5
-1.565, 2.790e-5
-1.566, 2.790e-5
-1.567, 3.099e-5
-1.568, 2.790e-5
-1.569, 3.099e-5
-1.570, 3.099e-5
-1.571, 3.099e-5
-1.572, 3.099e-5
-1.573, 3.099e-5
-1.574, 3.099e-5
-1.575, 3.407e-5
-1.576, 3.099e-5
-1.577, 3.407e-5
-1.578, 3.407e-5
-1.579, 3.407e-5
-1.580, 3.407e-5
-1.581, 3.407e-5
-1.582, 3.407e-5
-1.583, 3.715e-5
-1.584, 3.715e-5
-1.585, 3.715e-5
-1.586, 3.715e-5
-1.587, 3.715e-5
-1.588, 3.715e-5
-1.589, 4.024e-5
-1.590, 4.024e-5
-1.591, 4.024e-5
-1.592, 4.024e-5
-1.593, 4.024e-5
-1.594, 4.332e-5
-1.595, 4.332e-5
-1.596, 4.332e-5
-1.597, 4.332e-5
-1.598, 4.640e-5
-1.599, 4.640e-5
-1.600, 4.640e-5
-1.601, 4.640e-5
-1.602, 4.640e-5
-1.603, 4.949e-5
-1.604, 4.949e-5
-1.605, 4.949e-5
-1.606, 4.949e-5
-1.607, 5.257e-5
-1.608, 5.257e-5
-1.609, 5.257e-5
-1.610, 5.565e-5
-1.611, 5.565e-5
-1.612, 5.565e-5
-1.613, 5.873e-5
-1.614, 5.873e-5
-1.615, 5.873e-5
-1.616, 5.873e-5
-1.617, 6.182e-5
-1.618, 6.182e-5
-1.619, 6.182e-5
-1.620, 6.490e-5
-1.621, 6.490e-5
-1.622, 6.490e-5
-1.623, 6.798e-5
-1.624, 6.798e-5
-1.625, 6.798e-5
-1.626, 7.107e-5
-1.627, 7.107e-5
-1.628, 7.415e-5
-1.629, 7.415e-5
-1.630, 7.415e-5
-1.631, 7.415e-5
-1.632, 7.723e-5
-1.633, 7.723e-5
-1.634, 8.032e-5
-1.635, 8.032e-5
-1.636, 8.340e-5
-1.637, 8.340e-5
-1.638, 8.648e-5
-1.639, 8.648e-5
-1.640, 8.957e-5
-1.641, 8.957e-5
-1.642, 9.265e-5
-1.643, 9.265e-5
-1.644, 9.573e-5
-1.645, 9.573e-5
-1.646, 9.882e-5
-1.647, 1.019e-4
-1.648, 1.019e-4
-1.649, 1.050e-4
-1.650, 1.050e-4
-1.651, 1.081e-4
-1.652, 1.081e-4
-1.653, 1.111e-4
-1.654, 1.142e-4
-1.655, 1.142e-4
-1.656, 1.173e-4
-1.657, 1.204e-4
-1.658, 1.204e-4
-1.659, 1.235e-4
-1.660, 1.266e-4
-1.661, 1.266e-4
-1.662, 1.296e-4
-1.663, 1.327e-4
-1.664, 1.327e-4
-1.665, 1.358e-4
-1.666, 1.389e-4
-1.667, 1.420e-4
-1.668, 1.451e-4
-1.669, 1.451e-4
-1.670, 1.481e-4
-1.671, 1.543e-4
-1.672, 1.543e-4
-1.673, 1.574e-4
-1.674, 1.605e-4
-1.675, 1.636e-4
-1.676, 1.666e-4
-1.677, 1.697e-4
-1.678, 1.728e-4
-1.679, 1.759e-4
-1.680, 1.790e-4
-1.681, 1.821e-4
-1.682, 1.851e-4
-1.683, 1.913e-4
-1.684, 1.944e-4
-1.685, 1.975e-4
-1.686, 2.006e-4
-1.687, 2.036e-4
-1.688, 2.098e-4
-1.689, 2.129e-4
-1.690, 2.160e-4
-1.691, 2.221e-4
-1.692, 2.252e-4
-1.693, 2.283e-4
-1.694, 2.345e-4
-1.695, 2.376e-4
-1.696, 2.406e-4
-1.697, 2.468e-4
-1.698, 2.499e-4
-1.699, 2.561e-4
-1.700, 2.591e-4
-1.701, 2.653e-4
-1.702, 2.684e-4
-1.703, 2.746e-4
-1.704, 2.807e-4
-1.705, 2.869e-4
-1.706, 2.900e-4
-1.707, 2.992e-4
-1.708, 3.023e-4
-1.709, 3.085e-4
-1.710, 3.146e-4
-1.711, 3.208e-4
-1.712, 3.270e-4
-1.713, 3.331e-4
-1.714, 3.393e-4
-1.715, 3.455e-4
-1.716, 3.516e-4
-1.717, 3.578e-4
-1.718, 3.640e-4
-1.719, 3.732e-4
-1.720, 3.794e-4
-1.721, 3.886e-4
-1.722, 3.948e-4
-1.723, 4.040e-4
-1.724, 4.102e-4
-1.725, 4.164e-4
-1.726, 4.256e-4
-1.727, 4.349e-4
-1.728, 4.410e-4
-1.729, 4.503e-4
-1.730, 4.595e-4
-1.731, 4.688e-4
-1.732, 4.780e-4
-1.733, 4.873e-4
-1.734, 4.965e-4
-1.735, 5.058e-4
-1.736, 5.150e-4
-1.737, 5.243e-4
-1.738, 5.335e-4
-1.739, 5.459e-4
-1.740, 5.551e-4
-1.741, 5.644e-4
-1.742, 5.767e-4
-1.743, 5.890e-4
-1.744, 5.983e-4
-1.745, 6.075e-4
-1.746, 6.199e-4
-1.747, 6.322e-4
-1.748, 6.445e-4
-1.749, 6.569e-4
-1.750, 6.692e-4
-1.751, 6.815e-4
-1.752, 6.939e-4
-1.753, 7.093e-4
-1.754, 7.216e-4
-1.755, 7.339e-4
-1.756, 7.494e-4
-1.757, 7.617e-4
-1.758, 7.771e-4
-1.759, 7.925e-4
-1.760, 8.079e-4
-1.761, 8.203e-4
-1.762, 8.357e-4
-1.763, 8.511e-4
-1.764, 8.696e-4
-1.765, 8.850e-4
-1.766, 9.004e-4
-1.767, 9.189e-4
-1.768, 9.343e-4
-1.769, 9.498e-4
-1.770, 9.683e-4
-1.771, 9.868e-4
-1.772, 1.002e-3
-1.773, 1.021e-3
-1.774, 1.039e-3
-1.775, 1.058e-3
-1.776, 1.076e-3
-1.777, 1.098e-3
-1.778, 1.116e-3
-1.779, 1.135e-3
-1.780, 1.156e-3
-1.781, 1.178e-3
-1.782, 1.196e-3
-1.783, 1.218e-3
-1.784, 1.240e-3
-1.785, 1.261e-3
-1.786, 1.283e-3
-1.787, 1.304e-3
-1.788, 1.326e-3
-1.789, 1.351e-3
-1.790, 1.372e-3
-1.791, 1.397e-3
-1.792, 1.421e-3
-1.793, 1.446e-3
-1.794, 1.471e-3
-1.795, 1.495e-3
-1.796, 1.520e-3
-1.797, 1.545e-3
-1.798, 1.569e-3
-1.799, 1.597e-3
-1.800, 1.622e-3
-1.801, 1.650e-3
-1.802, 1.677e-3
-1.803, 1.702e-3
-1.804, 1.730e-3
-1.805, 1.758e-3
-1.806, 1.785e-3
-1.807, 1.816e-3
-1.808, 1.844e-3
-1.809, 1.872e-3
-1.810, 1.902e-3
-1.811, 1.930e-3
-1.812, 1.961e-3
-1.813, 1.992e-3
-1.814, 2.023e-3
-1.815, 2.054e-3
-1.816, 2.087e-3
-1.817, 2.115e-3
-1.818, 2.149e-3
-1.819, 2.180e-3
-1.820, 2.211e-3
-1.821, 2.245e-3
-1.822, 2.282e-3
-1.823, 2.316e-3
-1.824, 2.349e-3
-1.825, 2.383e-3
-1.826, 2.417e-3
-1.827, 2.454e-3
-1.828, 2.488e-3
-1.829, 2.525e-3
-1.830, 2.562e-3
-1.831, 2.596e-3
-1.832, 2.633e-3
-1.833, 2.670e-3
-1.834, 2.707e-3
-1.835, 2.744e-3
-1.836, 2.781e-3
-1.837, 2.818e-3
-1.838, 2.855e-3
-1.839, 2.895e-3
-1.840, 2.935e-3
-1.841, 2.975e-3
-1.842, 3.015e-3
-1.843, 3.056e-3
-1.844, 3.096e-3
-1.845, 3.136e-3
-1.846, 3.176e-3
-1.847, 3.222e-3
-1.848, 3.265e-3
-1.849, 3.305e-3
-1.850, 3.348e-3
-1.851, 3.385e-3
-1.852, 3.429e-3
-1.853, 3.469e-3
-1.854, 3.515e-3
-1.855, 3.558e-3
-1.856, 3.604e-3
-1.857, 3.647e-3
-1.858, 3.691e-3
-1.859, 3.737e-3
-1.860, 3.780e-3
-1.861, 3.823e-3
-1.862, 3.866e-3
-1.863, 3.913e-3
-1.864, 3.959e-3
-1.865, 4.005e-3
-1.866, 4.051e-3
-1.867, 4.101e-3
-1.868, 4.147e-3
-1.869, 4.193e-3
-1.870, 4.239e-3
-1.871, 4.286e-3
-1.872, 4.335e-3
-1.873, 4.381e-3
-1.874, 4.431e-3
-1.875, 4.480e-3
-1.876, 4.526e-3
-1.877, 4.575e-3
-1.878, 4.625e-3
-1.879, 4.674e-3
-1.880, 4.727e-3
-1.881, 4.782e-3
-1.882, 4.834e-3
-1.883, 4.884e-3
-1.884, 4.930e-3
-1.885, 4.976e-3
-1.886, 5.026e-3
-1.887, 5.075e-3
-1.888, 5.127e-3
-1.889, 5.183e-3
-1.890, 5.238e-3
-1.891, 5.294e-3
-1.892, 5.349e-3
-1.893, 5.405e-3
-1.894, 5.457e-3
-1.895, 5.513e-3
-1.896, 5.562e-3
-1.897, 5.614e-3
-1.898, 5.667e-3
-1.899, 5.719e-3
-1.900, 5.747e-3
-1.899, 5.719e-3
-1.898, 5.692e-3
-1.897, 5.664e-3
-1.896, 5.633e-3
-1.895, 5.602e-3
-1.894, 5.568e-3
-1.893, 5.531e-3
-1.892, 5.494e-3
-1.891, 5.454e-3
-1.890, 5.411e-3
-1.889, 5.371e-3
-1.888, 5.340e-3
-1.887, 5.315e-3
-1.886, 5.288e-3
-1.885, 5.254e-3
-1.884, 5.214e-3
-1.883, 5.174e-3
-1.882, 5.134e-3
-1.881, 5.100e-3
-1.880, 5.072e-3
-1.879, 5.038e-3
-1.878, 5.007e-3
-1.877, 4.970e-3
-1.876, 4.930e-3
-1.875, 4.893e-3
-1.874, 4.856e-3
-1.873, 4.819e-3
-1.872, 4.785e-3
-1.871, 4.748e-3
-1.870, 4.717e-3
-1.869, 4.680e-3
-1.868, 4.646e-3
-1.867, 4.606e-3
-1.866, 4.569e-3
-1.865, 4.532e-3
-1.864, 4.495e-3
-1.863, 4.461e-3
-1.862, 4.424e-3
-1.861, 4.391e-3
-1.860, 4.360e-3
-1.859, 4.329e-3
-1.858, 4.298e-3
-1.857, 4.264e-3
-1.856, 4.227e-3
-1.855, 4.193e-3
-1.854, 4.156e-3
-1.853, 4.122e-3
-1.852, 4.088e-3
-1.851, 4.058e-3
-1.850, 4.024e-3
-1.849, 3.993e-3
-1.848, 3.956e-3
-1.847, 3.922e-3
-1.846, 3.888e-3
-1.845, 3.854e-3
-1.844, 3.823e-3
-1.843, 3.789e-3
-1.842, 3.758e-3
-1.841, 3.728e-3
-1.840, 3.697e-3
-1.839, 3.663e-3
-1.838, 3.629e-3
-1.837, 3.598e-3
-1.836, 3.564e-3
-1.835, 3.533e-3
-1.834, 3.503e-3
-1.833, 3.472e-3
-1.832, 3.441e-3
-1.831, 3.410e-3
-1.830, 3.376e-3
-1.829, 3.345e-3
-1.828, 3.311e-3
-1.827, 3.284e-3
-1.826, 3.256e-3
-1.825, 3.225e-3
-1.824, 3.197e-3
-1.823, 3.167e-3
-1.822, 3.136e-3
-1.821, 3.105e-3
-1.820, 3.074e-3
-1.819, 3.046e-3
-1.818, 3.015e-3
-1.817, 2.988e-3
-1.816, 2.960e-3
-1.815, 2.929e-3
-1.814, 2.901e-3
-1.813, 2.877e-3
-1.812, 2.846e-3
-1.811, 2.818e-3
-1.810, 2.790e-3
-1.809, 2.763e-3
-1.808, 2.738e-3
-1.807, 2.710e-3
-1.806, 2.682e-3
-1.805, 2.658e-3
-1.804, 2.630e-3
-1.803, 2.602e-3
-1.802, 2.578e-3
-1.801, 2.553e-3
-1.800, 2.525e-3
-1.799, 2.501e-3
-1.798, 2.473e-3
-1.797, 2.448e-3
-1.796, 2.423e-3
-1.795, 2.399e-3
-1.794, 2.374e-3
-1.793, 2.349e-3
-1.792, 2.325e-3
-1.791, 2.303e-3
-1.790, 2.279e-3
-1.789, 2.251e-3
-1.788, 2.226e-3
-1.787, 2.205e-3
-1.786, 2.180e-3
-1.785, 2.158e-3
-1.784, 2.137e-3
-1.783, 2.112e-3
-1.782, 2.087e-3
-1.781, 2.066e-3
-1.780, 2.044e-3
-1.779, 2.023e-3
-1.778, 2.001e-3
-1.777, 1.980e-3
-1.776, 1.958e-3
-1.775, 1.933e-3
-1.774, 1.915e-3
-1.773, 1.893e-3
-1.772, 1.872e-3
-1.771, 1.853e-3
-1.770, 1.832e-3
-1.769, 1.813e-3
-1.768, 1.791e-3
-1.767, 1.773e-3
-1.766, 1.751e-3
-1.765, 1.730e-3
-1.764, 1.711e-3
-1.763, 1.693e-3
-1.762, 1.671e-3
-1.761, 1.653e-3
-1.760, 1.634e-3
-1.759, 1.616e-3
-1.758, 1.597e-3
-1.757, 1.579e-3
-1.756, 1.560e-3
-1.755, 1.542e-3
-1.754, 1.523e-3
-1.753, 1.505e-3
-1.752, 1.486e-3
-1.751, 1.471e-3
-1.750, 1.452e-3
-1.749, 1.434e-3
-1.748, 1.418e-3
-1.747, 1.403e-3
-1.746, 1.384e-3
-1.745, 1.369e-3
-1.744, 1.351e-3
-1.743, 1.338e-3
-1.742, 1.320e-3
-1.741, 1.301e-3
-1.740, 1.289e-3
-1.739, 1.270e-3
-1.738, 1.255e-3
-1.737, 1.240e-3
-1.736, 1.227e-3
-1.735, 1.212e-3
-1.734, 1.196e-3
-1.733, 1.184e-3
-1.732, 1.169e-3
-1.731, 1.153e-3
-1.730, 1.141e-3
-1.729, 1.125e-3
-1.728, 1.110e-3
-1.727, 1.098e-3
-1.726, 1.082e-3
-1.725, 1.070e-3
-1.724, 1.058e-3
-1.723, 1.042e-3
-1.722, 1.030e-3
-1.721, 1.018e-3
-1.720, 1.005e-3
-1.719, 9.929e-4
-1.718, 9.806e-4
-1.717, 9.652e-4
-1.716, 9.528e-4
-1.715, 9.405e-4
-1.714, 9.282e-4
-1.713, 9.158e-4
-1.712, 9.066e-4
-1.711, 8.943e-4
-1.710, 8.819e-4
-1.709, 8.696e-4
-1.708, 8.573e-4
-1.707, 8.480e-4
-1.706, 8.357e-4
-1.705, 8.233e-4
-1.704, 8.141e-4
-1.703, 8.018e-4
-1.702, 7.925e-4
-1.701, 7.802e-4
-1.700, 7.709e-4
-1.699, 7.617e-4
-1.698, 7.494e-4
-1.697, 7.401e-4
-1.696, 7.309e-4
-1.695, 7.216e-4
-1.694, 7.093e-4
-1.693, 7.000e-4
-1.692, 6.908e-4
-1.691, 6.815e-4
-1.690, 6.723e-4
-1.689, 6.630e-4
-1.688, 6.538e-4
-1.687, 6.445e-4
-1.686, 6.353e-4
-1.685, 6.260e-4
-1.684, 6.199e-4
-1.683, 6.106e-4
-1.682, 6.014e-4
-1.681, 5.921e-4
-1.680, 5.829e-4
-1.679, 5.767e-4
-1.678, 5.674e-4
-1.677, 5.582e-4
-1.676, 5.520e-4
-1.675, 5.428e-4
-1.674, 5.366e-4
-1.673, 5.274e-4
-1.672, 5.212e-4
-1.671, 5.120e-4
-1.670, 5.058e-4
-1.669, 4.965e-4
-1.668, 4.904e-4
-1.667, 4.842e-4
-1.666, 4.780e-4
-1.665, 4.688e-4
-1.664, 4.626e-4
-1.663, 4.565e-4
-1.662, 4.472e-4
-1.661, 4.410e-4
-1.660, 4.349e-4
-1.659, 4.287e-4
-1.658, 4.225e-4
-1.657, 4.164e-4
-1.656, 4.102e-4
-1.655, 4.040e-4
-1.654, 3.979e-4
-1.653, 3.917e-4
-1.652, 3.855e-4
-1.651, 3.794e-4
-1.650, 3.732e-4
-1.649, 3.670e-4
-1.648, 3.609e-4
-1.647, 3.578e-4
-1.646, 3.516e-4
-1.645, 3.455e-4
-1.644, 3.393e-4
-1.643, 3.362e-4
-1.642, 3.270e-4
-1.641, 3.239e-4
-1.640, 3.208e-4
-1.639, 3.146e-4
-1.638, 3.085e-4
-1.637, 3.023e-4
-1.636, 2.992e-4
-1.635, 2.931e-4
-1.634, 2.900e-4
-1.633, 2.838e-4
-1.632, 2.807e-4
-1.631, 2.746e-4
-1.630, 2.715e-4
-1.629, 2.653e-4
-1.628, 2.622e-4
-1.627, 2.561e-4
-1.626, 2.530e-4
-1.625, 2.468e-4
-1.624, 2.437e-4
-1.623, 2.406e-4
-1.622, 2.345e-4
-1.621, 2.314e-4
-1.620, 2.283e-4
-1.619, 2.252e-4
-1.618, 2.221e-4
-1.617, 2.160e-4
-1.616, 2.129e-4
-1.615, 2.098e-4
-1.614, 2.067e-4
-1.613, 2.006e-4
-1.612, 1.975e-4
-1.611, 1.944e-4
-1.610, 1.913e-4
-1.609, 1.882e-4
-1.608, 1.851e-4
-1.607, 1.821e-4
-1.606, 1.790e-4
-1.605, 1.759e-4
-1.604, 1.728e-4
-1.603, 1.697e-4
-1.602, 1.666e-4
-1.601, 1.636e-4
-1.600, 1.605e-4
-1.599, 1.574e-4
-1.598, 1.543e-4
-1.597, 1.512e-4
-1.596, 1.481e-4
-1.595, 1.451e-4
-1.594, 1.420e-4
-1.593, 1.389e-4
-1.592, 1.358e-4
-1.591, 1.327e-4
-1.590, 1.327e-4
-1.589, 1.296e-4
-1.588, 1.266e-4
-1.587, 1.235e-4
-1.586, 1.204e-4
-1.585, 1.204e-4
-1.584, 1.173e-4
-1.583, 1.142e-4
-1.582, 1.111e-4
-1.581, 1.111e-4
-1.580, 1.081e-4
-1.579, 1.050e-4
-1.578, 1.050e-4
-1.577, 1.019e-4
-1.576, 9.882e-5
-1.575, 9.882e-5
-1.574, 9.573e-5
-1.573, 9.573e-5
-1.572, 9.265e-5
-1.571, 8.957e-5
-1.570, 8.957e-5
-1.569, 8.648e-5
-1.568, 8.340e-5
-1.567, 8.340e-5
-1.566, 8.032e-5
-1.565, 8.032e-5
-1.564, 7.723e-5
-1.563, 7.723e-5
-1.562, 7.415e-5
-1.561, 7.107e-5
-1.560, 7.107e-5
-1.559, 6.798e-5
-1.558, 6.798e-5
-1.557, 6.798e-5
-1.556, 6.490e-5
-1.555, 6.490e-5
-1.554, 6.182e-5
-1.553, 6.182e-5
-1.552, 5.873e-5
-1.551, 5.873e-5
-1.550, 5.565e-5
-1.549, 5.565e-5
-1.548, 5.257e-5
-1.547, 5.257e-5
-1.546, 5.257e-5
-1.545, 4.949e-5
-1.544, 4.949e-5
-1.543, 4.949e-5
-1.542, 4.640e-5
-1.541, 4.640e-5
-1.540, 4.332e-5
-1.539, 4.332e-5
-1.538, 4.332e-5
-1.537, 4.024e-5
-1.536, 4.024e-5
-1.535, 4.024e-5
-1.534, 4.024e-5
-1.533, 3.715e-5
-1.532, 3.715e-5
-1.531, 3.715e-5
-1.530, 3.715e-5
-1.529, 3.407e-5
-1.528, 3.407e-5
-1.527, 3.407e-5
-1.526, 3.099e-5
-1.525, 3.099e-5
-1.524, 3.099e-5
-1.523, 3.099e-5
-1.522, 2.790e-5
-1.521, 2.790e-5
-1.520, 2.790e-5
-1.519, 2.790e-5
-1.518, 2.482e-5
-1.517, 2.482e-5
-1.516, 2.482e-5
-1.515, 2.174e-5
-1.514, 2.174e-5
-1.513, 2.174e-5
-1.512, 2.174e-5
-1.511, 2.174e-5
-1.510, 1.865e-5
-1.509, 1.865e-5
-1.508, 1.865e-5
-1.507, 1.865e-5
-1.506, 1.865e-5
-1.505, 1.865e-5
-1.504, 1.865e-5
-1.503, 1.865e-5
-1.502, 1.557e-5
-1.501, 1.557e-5
-1.500, 1.557e-5
-1.499, 1.557e-5
-1.498, 1.557e-5
-1.497, 1.557e-5
-1.496, 1.249e-5
-1.495, 1.249e-5
-1.494, 1.249e-5
-1.493, 1.249e-5
-1.492, 1.249e-5
-1.491, 1.249e-5
-1.490, 1.249e-5
-1.489, 1.249e-5
-1.488, 9.405e-6
-1.487, 1.249e-5
-1.486, 9.405e-6
-1.485, 9.405e-6
-1.484, 9.405e-6
-1.483, 9.405e-6
-1.482, 9.405e-6
-1.481, 9.405e-6
-1.480, 9.405e-6
-1.479, 6.322e-6
-1.478, 6.322e-6
-1.477, 6.322e-6
-1.476, 6.322e-6
-1.475, 6.322e-6
-1.474, 6.322e-6
-1.473, 9.405e-6
-1.472, 6.322e-6
-1.471, 6.322e-6
-1.470, 6.322e-6
-1.469, 6.322e-6
-1.468, 6.322e-6
-1.467, 6.322e-6
-1.466, 6.322e-6
-1.465, 6.322e-6
-1.464, 6.322e-6
-1.463, 3.239e-6
-1.462, 6.322e-6
-1.461, 3.239e-6
-1.460, 6.322e-6
-1.459, 3.239e-6
-1.458, 3.239e-6
-1.457, 3.239e-6
-1.456, 3.239e-6
-1.455, 3.239e-6
-1.454, 3.239e-6
-1.453, 3.239e-6
-1.452, 3.239e-6
-1.451, 3.239e-6
-1.450, 3.239e-6
-1.449, 3.239e-6
-1.448, 3.239e-6
-1.447, 3.239e-6
-1.446, 1.559e-7
-1.445, 3.239e-6
-1.444, 3.239e-6
-1.443, 1.559e-7
-1.442, 3.239e-6
-1.441, 3.239e-6
-1.440, 1.559e-7
-1.439, 1.559e-7
-1.438, 1.559e-7
-1.437, 1.559e-7
-1.436, 3.239e-6
-1.435, 1.559e-7
-1.434, 1.559e-7
-1.433, 1.559e-7
-1.432, 1.559e-7
-1.431, 3.239e-6
-1.430, 1.559e-7
-1.429, 1.559e-7
-1.428, 3.239e-6
-1.427, 3.239e-6
-1.426, 1.559e-7
-1.425, 1.559e-7
-1.424, 1.559e-7
-1.423, 1.559e-7
-1.422, 1.559e-7
-1.421, 1.559e-7
-1.420, 1.559e-7
-1.419, 1.559e-7
-1.418, 1.559e-7
-1.417, 1.559e-7
-1.416, 1.559e-7
-1.415, 1.559e-7
-1.414, 1.559e-7
-1.413, 1.559e-7
-1.412, 1.559e-7
-1.411, 1.559e-7
-1.410, 1.559e-7
-1.409, 1.559e-7
-1.408, 1.559e-7
-1.407, 1.559e-7
-1.406, 1.559e-7
-1.405, 1.559e-7
-1.404, 1.559e-7
-1.403, 1.559e-7
-1.402, 1.559e-7
-1.401, 1.559e-7
-1.400, 1.559e-7
-1.399, 1.559e-7
-1.398, 1.559e-7
-1.397, 1.559e-7
-1.396, 1.559e-7
-1.395, 1.559e-7
-1.394, 1.559e-7
-1.393, 1.559e-7
-1.392, 1.559e-7
-1.391, 1.559e-7
-1.390, 1.559e-7
-1.389, 1.559e-7
-1.388, 1.559e-7
-1.387, 1.559e-7
-1.386, 1.559e-7
-1.385, 1.559e-7
-1.384, 1.559e-7
-1.383, 1.559e-7
-1.382, -2.927e-6
-1.381, 1.559e-7
-1.380, 1.559e-7
-1.379, 1.559e-7
-1.378, 1.559e-7
-1.377, 1.559e-7
-1.376, 1.559e-7
-1.375, 1.559e-7
-1.374, 1.559e-7
-1.373, 1.559e-7
-1.372, 1.559e-7
-1.371, -2.927e-6
-1.370, 1.559e-7
-1.369, -2.927e-6
-1.368, 1.559e-7
-1.367, 1.559e-7
-1.366, 1.559e-7
-1.365, 1.559e-7
-1.364, -2.927e-6
-1.363, 1.559e-7
-1.362, 1.559e-7
-1.361, 1.559e-7
-1.360, 1.559e-7
-1.359, 1.559e-7
-1.358, 1.559e-7
-1.357, 1.559e-7
-1.356, 1.559e-7
-1.355, -2.927e-6
-1.354, 1.559e-7
-1.353, 1.559e-7
-1.352, -2.927e-6
-1.351, 1.559e-7
-1.350, 1.559e-7
-1.349, 1.559e-7
-1.348, 1.559e-7
-1.347, 1.559e-7
-1.346, -2.927e-6
-1.345, 1.559e-7
-1.344, 1.559e-7
-1.343, 1.559e-7
-1.342, -2.927e-6
-1.341, -2.927e-6
-1.340, 1.559e-7
-1.339, -2.927e-6
-1.338, 1.559e-7
-1.337, 1.559e-7
-1.336, -2.927e-6
-1.335, -2.927e-6
-1.334, -2.927e-6
-1.333, 1.559e-7
-1.332, -2.927e-6
-1.331, -2.927e-6
-1.330, 1.559e-7
-1.329, -2.927e-6
-1.328, -2.927e-6
-1.327, 1.559e-7
-1.326, 1.559e-7
-1.325, 1.559e-7
-1.324, 1.559e-7
-1.323, -2.927e-6
-1.322, -2.927e-6
-1.321, 1.559e-7
-1.320, 1.559e-7
-1.319, -2.927e-6
-1.318, 1.559e-7
-1.317, 1.559e-7
-1.316, 1.559e-7
-1.315, -2.927e-6
-1.314, -2.927e-6
-1.313, 1.559e-7
-1.312, -2.927e-6
-1.311, -2.927e-6
-1.310, -2.927e-6
-1.309, 1.559e-7
-1.308, 1.559e-7
-1.307, 1.559e-7
-1.306, -2.927e-6
-1.305, -2.927e-6
-1.304, 1.559e-7
-1.303, -2.927e-6
-1.302, -2.927e-6
-1.301, -2.927e-6
-1.300, -2.927e-6
-1.299, -2.927e-6
-1.298, -2.927e-6
-1.297, -2.927e-6
-1.296, 1.559e-7
-1.295, -2.927e-6
-1.294, -2.927e-6
-1.293, -2.927e-6
-1.292, -2.927e-6
-1.291, 1.559e-7
-1.290, -2.927e-6
-1.289, -2.927e-6
-1.288, 1.559e-7
-1.287, 1.559e-7
-1.286, -2.927e-6
-1.285, -2.927e-6
-1.284, -2.927e-6
-1.283, -2.927e-6
-1.282, 1.559e-7
-1.281, 1.559e-7
-1.280, 1.559e-7
-1.279, -2.927e-6
-1.278, -2.927e-6
-1.277, -2.927e-6
-1.276, 1.559e-7
-1.275, -2.927e-6
-1.274, -2.927e-6
-1.273, 1.559e-7
-1.272, -2.927e-6
-1.271, -2.927e-6
-1.270, 1.559e-7
-1.269, -2.927e-6
-1.268, -2.927e-6
-1.267, -2.927e-6
-1.266, -2.927e-6
-1.265, -2.927e-6
-1.264, -2.927e-6
-1.263, 1.559e-7
-1.262, -2.927e-6
-1.261, -2.927e-6
-1.260, 1.559e-7
-1.259, -2.927e-6
-1.258, -2.927e-6
-1.257, -2.927e-6
-1.256, -2.927e-6
-1.255, -2.927e-6
-1.254, -2.927e-6
-1.253, -2.927e-6
-1.252, -2.927e-6
-1.251, -2.927e-6
-1.250, -2.927e-6
-1.249, -2.927e-6
-1.248, -2.927e-6
-1.247, 1.559e-7
-1.246, -2.927e-6
-1.245, 1.559e-7
-1.244, -2.927e-6
-1.243, 1.559e-7
-1.242, -2.927e-6
-1.241, -2.927e-6
-1.240, 1.559e-7
-1.239, -2.927e-6
-1.238, -2.927e-6
-1.237, -2.927e-6
-1.236, -2.927e-6
-1.235, -2.927e-6
-1.234, 1.559e-7
-1.233, -2.927e-6
-1.232, -2.927e-6
-1.231, -2.927e-6
-1.230, -2.927e-6
-1.229, -2.927e-6
-1.228, -2.927e-6
-1.227, -2.927e-6
-1.226, 1.559e-7
-1.225, -2.927e-6
-1.224, -2.927e-6
-1.223, 1.559e-7
-1.222, -2.927e-6
-1.221, -2.927e-6
-1.220, -2.927e-6
-1.219, 1.559e-7
-1.218, -2.927e-6
-1.217, -2.927e-6
-1.216, -2.927e-6
-1.215, -2.927e-6
-1.214, -2.927e-6
-1.213, -2.927e-6
-1.212, -2.927e-6
-1.211, -2.927e-6
-1.210, -2.927e-6
-1.209, -2.927e-6
-1.208, -2.927e-6
-1.207, -2.927e-6
-1.206, -2.927e-6
-1.205, -2.927e-6
-1.204, -2.927e-6
-1.203, -2.927e-6
-1.202, -2.927e-6
-1.201, -2.927e-6
-1.200, -2.927e-6
-1.199, -2.927e-6
-1.198, -2.927e-6
-1.197, -2.927e-6
-1.196, -2.927e-6
-1.195, -2.927e-6
-1.194, -2.927e-6
-1.193, -2.927e-6
-1.192, -2.927e-6
-1.191, -2.927e-6
-1.190, -2.927e-6
-1.189, -2.927e-6
-1.188, -2.927e-6
-1.187, -2.927e-6
-1.186, -2.927e-6
-1.185, -2.927e-6
-1.184, -2.927e-6
-1.183, -2.927e-6
-1.182, -2.927e-6
-1.181, -2.927e-6
-1.180, 1.559e-7
-1.179, -2.927e-6
-1.178, -2.927e-6
-1.177, -2.927e-6
-1.176, -2.927e-6
-1.175, -2.927e-6
-1.174, -2.927e-6
-1.173, -2.927e-6
-1.172, -2.927e-6
-1.171, -2.927e-6
-1.170, -2.927e-6
-1.169, -2.927e-6
-1.168, -2.927e-6
-1.167, -2.927e-6
-1.166, -2.927e-6
-1.165, -2.927e-6
-1.164, -2.927e-6
-1.163, -2.927e-6
-1.162, -2.927e-6
-1.161, -2.927e-6
-1.160, -2.927e-6
-1.159, -2.927e-6
-1.158, -2.927e-6
-1.157, -2.927e-6
-1.156, -2.927e-6
-1.155, -2.927e-6
-1.154, -2.927e-6
-1.153, -2.927e-6
-1.152, -2.927e-6
-1.151, -2.927e-6
-1.150, -2.927e-6
-1.149, -2.927e-6
-1.148, -2.927e-6
-1.147, -2.927e-6
-1.146, -2.927e-6
-1.145, -2.927e-6
-1.144, -2.927e-6
-1.143, -2.927e-6
-1.142, -2.927e-6
-1.141, -2.927e-6
-1.140, 1.559e-7
-1.139, -2.927e-6
-1.138, -2.927e-6
-1.137, -2.927e-6
-1.136, -2.927e-6
-1.135, -2.927e-6
-1.134, -2.927e-6
-1.133, -2.927e-6
-1.132, -2.927e-6
-1.131, -2.927e-6
-1.130, -2.927e-6
-1.129, -2.927e-6
-1.128, -2.927e-6
-1.127, -2.927e-6
-1.126, -2.927e-6
-1.125, -2.927e-6
-1.124, -2.927e-6
-1.123, -2.927e-6
-1.122, -2.927e-6
-1.121, -2.927e-6
-1.120, -2.927e-6
-1.119, -2.927e-6
-1.118, -2.927e-6
-1.117, -2.927e-6
-1.116, -2.927e-6
-1.115, -2.927e-6
-1.114, -2.927e-6
-1.113, -2.927e-6
-1.112, -2.927e-6
-1.111, -2.927e-6
-1.110, -2.927e-6
-1.109, -2.927e-6
-1.108, -2.927e-6
-1.107, -2.927e-6
-1.106, -2.927e-6
-1.105, -2.927e-6
-1.104, -2.927e-6
-1.103, -2.927e-6
-1.102, -2.927e-6
-1.101, -2.927e-6
-1.100, -2.927e-6
-1.099, 1.559e-7
-1.098, -2.927e-6
-1.097, -2.927e-6
-1.096, -2.927e-6
-1.095, -2.927e-6
-1.094, -2.927e-6
-1.093, -2.927e-6
-1.092, -2.927e-6
-1.091, -2.927e-6
-1.090, -2.927e-6
-1.089, -2.927e-6
-1.088, -2.927e-6
-1.087, -2.927e-6
-1.086, -2.927e-6
-1.085, -2.927e-6
-1.084, -2.927e-6
-1.083, -2.927e-6
-1.082, -2.927e-6
-1.081, -2.927e-6
-1.080, -2.927e-6
-1.079, -2.927e-6
-1.078, -2.927e-6
-1.077, -2.927e-6
-1.076, -2.927e-6
-1.075, -2.927e-6
-1.074, -2.927e-6
-1.073, -2.927e-6
-1.072, -2.927e-6
-1.071, -2.927e-6
-1.070, -2.927e-6
-1.069, -2.927e-6
-1.068, -2.927e-6
-1.067, -2.927e-6
-1.066, -2.927e-6
-1.065, -2.927e-6
-1.064, -2.927e-6
-1.063, -2.927e-6
-1.062, -2.927e-6
-1.061, -2.927e-6
-1.060, -2.927e-6
-1.059, -2.927e-6
-1.058, -2.927e-6
-1.057, -2.927e-6
-1.056, -2.927e-6
-1.055, -2.927e-6
-1.054, -2.927e-6
-1.053, -2.927e-6
-1.052, -2.927e-6
-1.051, -2.927e-6
-1.050, -2.927e-6
-1.049, -2.927e-6
-1.048, -2.927e-6
-1.047, -2.927e-6
-1.046, -2.927e-6
-1.045, -2.927e-6
-1.044, -2.927e-6
-1.043, -2.927e-6
-1.042, -2.927e-6
-1.041, -2.927e-6
-1.040, -2.927e-6
-1.039, -2.927e-6
-1.038, -2.927e-6
-1.037, -2.927e-6
-1.036, -2.927e-6
-1.035, -2.927e-6
-1.034, -2.927e-6
-1.033, -2.927e-6
-1.032, -2.927e-6
-1.031, -2.927e-6
-1.030, -2.927e-6
-1.029, -2.927e-6
-1.028, -2.927e-6
-1.027, -2.927e-6
-1.026, -2.927e-6
-1.025, -2.927e-6
-1.024, -2.927e-6
-1.023, -2.927e-6
-1.022, -2.927e-6
-1.021, -2.927e-6
-1.020, -2.927e-6
-1.019, -2.927e-6
-1.018, -2.927e-6
-1.017, -2.927e-6
-1.016, -2.927e-6
-1.015, -2.927e-6
-1.014, -2.927e-6
-1.013, -2.927e-6
-1.012, -2.927e-6
-1.011, -2.927e-6
-1.010, -2.927e-6
-1.009, -2.927e-6
-1.008, -2.927e-6
-1.007, -2.927e-6
-1.006, -2.927e-6
-1.005, -2.927e-6
-1.004, -2.927e-6
-1.003, -2.927e-6
-1.002, -2.927e-6
-1.001, -2.927e-6
