Dec. 29, 2024   12:16:28
Cyclic Voltammetry
File: c:/users/guazh/data/banditlqround7_x0exp136_r20/2024-12-24-exp777\exp777-2024-12-29t12_09_22-h2koh\exp777_cv_sr_400mvs_efin_-1400mv.bin
Data Source:  Experiment
Instrument Model:  CHI760E
Header: CV ran at 400 mVs
Note: 

Init E (V) = -1
High E (V) = -1
Low E (V) = -1.4
Final E (V) = -1
Init P/N = N
Scan Rate (V/s) = 0.4
Segment = 3
Sample Interval (V) = 0.001
Quiet Time (sec) = 2
Sensitivity (A/V) = 0.01
Comp R (ohm) = 1.5

Results:

Channel 1:
Segment 1:

Segment 2:

Segment 3:

Potential/V, Current/A

-1.000, -4.301e-5
-1.001, 8.340e-5
-1.002, 1.821e-4
-1.003, 2.561e-4
-1.004, 3.146e-4
-1.005, 3.732e-4
-1.006, 4.472e-4
-1.007, 5.243e-4
-1.008, 5.952e-4
-1.009, 6.507e-4
-1.010, 6.877e-4
-1.011, 7.185e-4
-1.012, 7.555e-4
-1.013, 8.079e-4
-1.014, 8.634e-4
-1.015, 9.097e-4
-1.016, 9.374e-4
-1.017, 9.498e-4
-1.018, 9.652e-4
-1.019, 9.960e-4
-1.020, 1.039e-3
-1.021, 1.088e-3
-1.022, 1.122e-3
-1.023, 1.138e-3
-1.024, 1.144e-3
-1.025, 1.159e-3
-1.026, 1.184e-3
-1.027, 1.218e-3
-1.028, 1.249e-3
-1.029, 1.261e-3
-1.030, 1.261e-3
-1.031, 1.261e-3
-1.032, 1.270e-3
-1.033, 1.298e-3
-1.034, 1.335e-3
-1.035, 1.360e-3
-1.036, 1.372e-3
-1.037, 1.366e-3
-1.038, 1.363e-3
-1.039, 1.372e-3
-1.040, 1.394e-3
-1.041, 1.421e-3
-1.042, 1.437e-3
-1.043, 1.437e-3
-1.044, 1.428e-3
-1.045, 1.428e-3
-1.046, 1.443e-3
-1.047, 1.468e-3
-1.048, 1.492e-3
-1.049, 1.502e-3
-1.050, 1.495e-3
-1.051, 1.486e-3
-1.052, 1.483e-3
-1.053, 1.502e-3
-1.054, 1.523e-3
-1.055, 1.539e-3
-1.056, 1.539e-3
-1.057, 1.523e-3
-1.058, 1.514e-3
-1.059, 1.514e-3
-1.060, 1.532e-3
-1.061, 1.551e-3
-1.062, 1.563e-3
-1.063, 1.560e-3
-1.064, 1.548e-3
-1.065, 1.548e-3
-1.066, 1.557e-3
-1.067, 1.579e-3
-1.068, 1.597e-3
-1.069, 1.597e-3
-1.070, 1.588e-3
-1.071, 1.573e-3
-1.072, 1.566e-3
-1.073, 1.579e-3
-1.074, 1.597e-3
-1.075, 1.610e-3
-1.076, 1.606e-3
-1.077, 1.591e-3
-1.078, 1.579e-3
-1.079, 1.582e-3
-1.080, 1.597e-3
-1.081, 1.616e-3
-1.082, 1.625e-3
-1.083, 1.613e-3
-1.084, 1.600e-3
-1.085, 1.591e-3
-1.086, 1.603e-3
-1.087, 1.625e-3
-1.088, 1.643e-3
-1.089, 1.647e-3
-1.090, 1.634e-3
-1.091, 1.619e-3
-1.092, 1.616e-3
-1.093, 1.628e-3
-1.094, 1.647e-3
-1.095, 1.656e-3
-1.096, 1.647e-3
-1.097, 1.631e-3
-1.098, 1.616e-3
-1.099, 1.616e-3
-1.100, 1.631e-3
-1.101, 1.650e-3
-1.102, 1.659e-3
-1.103, 1.650e-3
-1.104, 1.634e-3
-1.105, 1.628e-3
-1.106, 1.637e-3
-1.107, 1.656e-3
-1.108, 1.674e-3
-1.109, 1.674e-3
-1.110, 1.662e-3
-1.111, 1.650e-3
-1.112, 1.647e-3
-1.113, 1.659e-3
-1.114, 1.677e-3
-1.115, 1.690e-3
-1.116, 1.684e-3
-1.117, 1.665e-3
-1.118, 1.653e-3
-1.119, 1.653e-3
-1.120, 1.665e-3
-1.121, 1.684e-3
-1.122, 1.690e-3
-1.123, 1.680e-3
-1.124, 1.662e-3
-1.125, 1.650e-3
-1.126, 1.656e-3
-1.127, 1.674e-3
-1.128, 1.693e-3
-1.129, 1.696e-3
-1.130, 1.687e-3
-1.131, 1.677e-3
-1.132, 1.677e-3
-1.133, 1.693e-3
-1.134, 1.714e-3
-1.135, 1.727e-3
-1.136, 1.717e-3
-1.137, 1.699e-3
-1.138, 1.684e-3
-1.139, 1.684e-3
-1.140, 1.696e-3
-1.141, 1.708e-3
-1.142, 1.708e-3
-1.143, 1.696e-3
-1.144, 1.677e-3
-1.145, 1.668e-3
-1.146, 1.674e-3
-1.147, 1.696e-3
-1.148, 1.717e-3
-1.149, 1.721e-3
-1.150, 1.714e-3
-1.151, 1.705e-3
-1.152, 1.705e-3
-1.153, 1.721e-3
-1.154, 1.745e-3
-1.155, 1.758e-3
-1.156, 1.754e-3
-1.157, 1.736e-3
-1.158, 1.724e-3
-1.159, 1.727e-3
-1.160, 1.739e-3
-1.161, 1.758e-3
-1.162, 1.764e-3
-1.163, 1.754e-3
-1.164, 1.739e-3
-1.165, 1.733e-3
-1.166, 1.745e-3
-1.167, 1.767e-3
-1.168, 1.782e-3
-1.169, 1.785e-3
-1.170, 1.776e-3
-1.171, 1.764e-3
-1.172, 1.764e-3
-1.173, 1.779e-3
-1.174, 1.798e-3
-1.175, 1.807e-3
-1.176, 1.801e-3
-1.177, 1.779e-3
-1.178, 1.770e-3
-1.179, 1.776e-3
-1.180, 1.795e-3
-1.181, 1.819e-3
-1.182, 1.828e-3
-1.183, 1.819e-3
-1.184, 1.804e-3
-1.185, 1.795e-3
-1.186, 1.804e-3
-1.187, 1.822e-3
-1.188, 1.841e-3
-1.189, 1.844e-3
-1.190, 1.835e-3
-1.191, 1.825e-3
-1.192, 1.822e-3
-1.193, 1.841e-3
-1.194, 1.859e-3
-1.195, 1.869e-3
-1.196, 1.865e-3
-1.197, 1.850e-3
-1.198, 1.838e-3
-1.199, 1.838e-3
-1.200, 1.853e-3
-1.201, 1.875e-3
-1.202, 1.887e-3
-1.203, 1.881e-3
-1.204, 1.869e-3
-1.205, 1.865e-3
-1.206, 1.878e-3
-1.207, 1.899e-3
-1.208, 1.915e-3
-1.209, 1.918e-3
-1.210, 1.906e-3
-1.211, 1.893e-3
-1.212, 1.890e-3
-1.213, 1.906e-3
-1.214, 1.927e-3
-1.215, 1.943e-3
-1.216, 1.943e-3
-1.217, 1.927e-3
-1.218, 1.918e-3
-1.219, 1.921e-3
-1.220, 1.939e-3
-1.221, 1.964e-3
-1.222, 1.973e-3
-1.223, 1.964e-3
-1.224, 1.949e-3
-1.225, 1.946e-3
-1.226, 1.958e-3
-1.227, 1.980e-3
-1.228, 2.001e-3
-1.229, 2.010e-3
-1.230, 2.004e-3
-1.231, 1.992e-3
-1.232, 1.992e-3
-1.233, 2.004e-3
-1.234, 2.026e-3
-1.235, 2.035e-3
-1.236, 2.032e-3
-1.237, 2.017e-3
-1.238, 2.007e-3
-1.239, 2.017e-3
-1.240, 2.032e-3
-1.241, 2.054e-3
-1.242, 2.066e-3
-1.243, 2.057e-3
-1.244, 2.047e-3
-1.245, 2.041e-3
-1.246, 2.054e-3
-1.247, 2.072e-3
-1.248, 2.091e-3
-1.249, 2.094e-3
-1.250, 2.087e-3
-1.251, 2.072e-3
-1.252, 2.066e-3
-1.253, 2.078e-3
-1.254, 2.100e-3
-1.255, 2.115e-3
-1.256, 2.115e-3
-1.257, 2.103e-3
-1.258, 2.091e-3
-1.259, 2.103e-3
-1.260, 2.128e-3
-1.261, 2.158e-3
-1.262, 2.174e-3
-1.263, 2.161e-3
-1.264, 2.137e-3
-1.265, 2.118e-3
-1.266, 2.118e-3
-1.267, 2.137e-3
-1.268, 2.158e-3
-1.269, 2.164e-3
-1.270, 2.168e-3
-1.271, 2.171e-3
-1.272, 2.180e-3
-1.273, 2.201e-3
-1.274, 2.223e-3
-1.275, 2.229e-3
-1.276, 2.214e-3
-1.277, 2.189e-3
-1.278, 2.177e-3
-1.279, 2.186e-3
-1.280, 2.211e-3
-1.281, 2.238e-3
-1.282, 2.254e-3
-1.283, 2.254e-3
-1.284, 2.242e-3
-1.285, 2.238e-3
-1.286, 2.248e-3
-1.287, 2.269e-3
-1.288, 2.285e-3
-1.289, 2.291e-3
-1.290, 2.285e-3
-1.291, 2.275e-3
-1.292, 2.275e-3
-1.293, 2.291e-3
-1.294, 2.309e-3
-1.295, 2.316e-3
-1.296, 2.309e-3
-1.297, 2.294e-3
-1.298, 2.294e-3
-1.299, 2.316e-3
-1.300, 2.340e-3
-1.301, 2.353e-3
-1.302, 2.353e-3
-1.303, 2.334e-3
-1.304, 2.312e-3
-1.305, 2.306e-3
-1.306, 2.325e-3
-1.307, 2.353e-3
-1.308, 2.377e-3
-1.309, 2.396e-3
-1.310, 2.408e-3
-1.311, 2.414e-3
-1.312, 2.423e-3
-1.313, 2.439e-3
-1.314, 2.457e-3
-1.315, 2.470e-3
-1.316, 2.470e-3
-1.317, 2.454e-3
-1.318, 2.436e-3
-1.319, 2.439e-3
-1.320, 2.454e-3
-1.321, 2.482e-3
-1.322, 2.504e-3
-1.323, 2.501e-3
-1.324, 2.485e-3
-1.325, 2.476e-3
-1.326, 2.485e-3
-1.327, 2.510e-3
-1.328, 2.534e-3
-1.329, 2.547e-3
-1.330, 2.550e-3
-1.331, 2.547e-3
-1.332, 2.565e-3
-1.333, 2.599e-3
-1.334, 2.642e-3
-1.335, 2.667e-3
-1.336, 2.676e-3
-1.337, 2.673e-3
-1.338, 2.676e-3
-1.339, 2.692e-3
-1.340, 2.716e-3
-1.341, 2.741e-3
-1.342, 2.756e-3
-1.343, 2.760e-3
-1.344, 2.753e-3
-1.345, 2.760e-3
-1.346, 2.775e-3
-1.347, 2.803e-3
-1.348, 2.830e-3
-1.349, 2.846e-3
-1.350, 2.852e-3
-1.351, 2.858e-3
-1.352, 2.880e-3
-1.353, 2.920e-3
-1.354, 2.966e-3
-1.355, 3.003e-3
-1.356, 3.022e-3
-1.357, 3.028e-3
-1.358, 3.040e-3
-1.359, 3.071e-3
-1.360, 3.105e-3
-1.361, 3.139e-3
-1.362, 3.163e-3
-1.363, 3.167e-3
-1.364, 3.167e-3
-1.365, 3.179e-3
-1.366, 3.216e-3
-1.367, 3.268e-3
-1.368, 3.308e-3
-1.369, 3.330e-3
-1.370, 3.336e-3
-1.371, 3.339e-3
-1.372, 3.351e-3
-1.373, 3.388e-3
-1.374, 3.441e-3
-1.375, 3.496e-3
-1.376, 3.533e-3
-1.377, 3.561e-3
-1.378, 3.586e-3
-1.379, 3.620e-3
-1.380, 3.672e-3
-1.381, 3.725e-3
-1.382, 3.765e-3
-1.383, 3.789e-3
-1.384, 3.805e-3
-1.385, 3.836e-3
-1.386, 3.885e-3
-1.387, 3.953e-3
-1.388, 4.014e-3
-1.389, 4.067e-3
-1.390, 4.107e-3
-1.391, 4.135e-3
-1.392, 4.162e-3
-1.393, 4.202e-3
-1.394, 4.252e-3
-1.395, 4.295e-3
-1.396, 4.326e-3
-1.397, 4.341e-3
-1.398, 4.366e-3
-1.399, 4.415e-3
-1.400, 4.412e-3
-1.399, 4.301e-3
-1.398, 4.209e-3
-1.397, 4.104e-3
-1.396, 3.996e-3
-1.395, 3.894e-3
-1.394, 3.814e-3
-1.393, 3.752e-3
-1.392, 3.691e-3
-1.391, 3.614e-3
-1.390, 3.527e-3
-1.389, 3.441e-3
-1.388, 3.379e-3
-1.387, 3.336e-3
-1.386, 3.299e-3
-1.385, 3.253e-3
-1.384, 3.194e-3
-1.383, 3.123e-3
-1.382, 3.062e-3
-1.381, 3.009e-3
-1.380, 2.972e-3
-1.379, 2.935e-3
-1.378, 2.892e-3
-1.377, 2.834e-3
-1.376, 2.775e-3
-1.375, 2.716e-3
-1.374, 2.676e-3
-1.373, 2.649e-3
-1.372, 2.615e-3
-1.371, 2.571e-3
-1.370, 2.507e-3
-1.369, 2.439e-3
-1.368, 2.386e-3
-1.367, 2.353e-3
-1.366, 2.322e-3
-1.365, 2.285e-3
-1.364, 2.229e-3
-1.363, 2.171e-3
-1.362, 2.112e-3
-1.361, 2.075e-3
-1.360, 2.050e-3
-1.359, 2.023e-3
-1.358, 1.986e-3
-1.357, 1.933e-3
-1.356, 1.872e-3
-1.355, 1.822e-3
-1.354, 1.785e-3
-1.353, 1.761e-3
-1.352, 1.733e-3
-1.351, 1.687e-3
-1.350, 1.631e-3
-1.349, 1.569e-3
-1.348, 1.526e-3
-1.347, 1.499e-3
-1.346, 1.480e-3
-1.345, 1.455e-3
-1.344, 1.418e-3
-1.343, 1.369e-3
-1.342, 1.320e-3
-1.341, 1.289e-3
-1.340, 1.264e-3
-1.339, 1.243e-3
-1.338, 1.212e-3
-1.337, 1.159e-3
-1.336, 1.101e-3
-1.335, 1.048e-3
-1.334, 1.011e-3
-1.333, 9.929e-4
-1.332, 9.683e-4
-1.331, 9.313e-4
-1.330, 8.881e-4
-1.329, 8.388e-4
-1.328, 8.018e-4
-1.327, 7.771e-4
-1.326, 7.617e-4
-1.325, 7.370e-4
-1.324, 7.000e-4
-1.323, 6.538e-4
-1.322, 6.075e-4
-1.321, 5.736e-4
-1.320, 5.582e-4
-1.319, 5.428e-4
-1.318, 5.181e-4
-1.317, 4.780e-4
-1.316, 4.318e-4
-1.315, 3.948e-4
-1.314, 3.732e-4
-1.313, 3.609e-4
-1.312, 3.485e-4
-1.311, 3.177e-4
-1.310, 2.746e-4
-1.309, 2.314e-4
-1.308, 1.944e-4
-1.307, 1.821e-4
-1.306, 1.728e-4
-1.305, 1.543e-4
-1.304, 1.235e-4
-1.303, 7.723e-5
-1.302, 4.024e-5
-1.301, 1.557e-5
-1.300, 6.322e-6
-1.299, -2.927e-6
-1.298, -2.143e-5
-1.297, -5.534e-5
-1.296, -9.850e-5
-1.295, -1.293e-4
-1.294, -1.448e-4
-1.293, -1.509e-4
-1.292, -1.602e-4
-1.291, -1.817e-4
-1.290, -2.187e-4
-1.289, -2.557e-4
-1.288, -2.804e-4
-1.287, -2.927e-4
-1.286, -2.927e-4
-1.285, -3.051e-4
-1.284, -3.297e-4
-1.283, -3.637e-4
-1.282, -3.976e-4
-1.281, -4.130e-4
-1.280, -4.191e-4
-1.279, -4.222e-4
-1.278, -4.346e-4
-1.277, -4.654e-4
-1.276, -4.993e-4
-1.275, -5.271e-4
-1.274, -5.363e-4
-1.273, -5.363e-4
-1.272, -5.394e-4
-1.271, -5.579e-4
-1.270, -5.856e-4
-1.269, -6.195e-4
-1.268, -6.380e-4
-1.267, -6.442e-4
-1.266, -6.411e-4
-1.265, -6.473e-4
-1.264, -6.689e-4
-1.263, -6.997e-4
-1.262, -7.275e-4
-1.261, -7.367e-4
-1.260, -7.398e-4
-1.259, -7.367e-4
-1.258, -7.429e-4
-1.257, -7.675e-4
-1.256, -8.015e-4
-1.255, -8.230e-4
-1.254, -8.292e-4
-1.253, -8.230e-4
-1.252, -8.230e-4
-1.251, -8.354e-4
-1.250, -8.631e-4
-1.249, -8.909e-4
-1.248, -9.063e-4
-1.247, -9.063e-4
-1.246, -8.970e-4
-1.245, -9.001e-4
-1.244, -9.186e-4
-1.243, -9.433e-4
-1.242, -9.679e-4
-1.241, -9.772e-4
-1.240, -9.741e-4
-1.239, -9.679e-4
-1.238, -9.741e-4
-1.237, -9.926e-4
-1.236, -1.020e-3
-1.235, -1.036e-3
-1.234, -1.039e-3
-1.233, -1.033e-3
-1.232, -1.030e-3
-1.231, -1.045e-3
-1.230, -1.070e-3
-1.229, -1.101e-3
-1.228, -1.116e-3
-1.227, -1.113e-3
-1.226, -1.104e-3
-1.225, -1.097e-3
-1.224, -1.113e-3
-1.223, -1.138e-3
-1.222, -1.162e-3
-1.221, -1.171e-3
-1.220, -1.165e-3
-1.219, -1.153e-3
-1.218, -1.153e-3
-1.217, -1.165e-3
-1.216, -1.187e-3
-1.215, -1.196e-3
-1.214, -1.196e-3
-1.213, -1.187e-3
-1.212, -1.181e-3
-1.211, -1.190e-3
-1.210, -1.212e-3
-1.209, -1.239e-3
-1.208, -1.249e-3
-1.207, -1.245e-3
-1.206, -1.233e-3
-1.205, -1.230e-3
-1.204, -1.242e-3
-1.203, -1.267e-3
-1.202, -1.289e-3
-1.201, -1.295e-3
-1.200, -1.289e-3
-1.199, -1.276e-3
-1.198, -1.276e-3
-1.197, -1.289e-3
-1.196, -1.310e-3
-1.195, -1.322e-3
-1.194, -1.319e-3
-1.193, -1.304e-3
-1.192, -1.289e-3
-1.191, -1.295e-3
-1.190, -1.310e-3
-1.189, -1.332e-3
-1.188, -1.344e-3
-1.187, -1.338e-3
-1.186, -1.329e-3
-1.185, -1.329e-3
-1.184, -1.344e-3
-1.183, -1.372e-3
-1.182, -1.393e-3
-1.181, -1.400e-3
-1.180, -1.390e-3
-1.179, -1.381e-3
-1.178, -1.381e-3
-1.177, -1.396e-3
-1.176, -1.418e-3
-1.175, -1.430e-3
-1.174, -1.427e-3
-1.173, -1.412e-3
-1.172, -1.403e-3
-1.171, -1.406e-3
-1.170, -1.424e-3
-1.169, -1.446e-3
-1.168, -1.458e-3
-1.167, -1.452e-3
-1.166, -1.437e-3
-1.165, -1.433e-3
-1.164, -1.443e-3
-1.163, -1.461e-3
-1.162, -1.477e-3
-1.161, -1.474e-3
-1.160, -1.464e-3
-1.159, -1.449e-3
-1.158, -1.449e-3
-1.157, -1.461e-3
-1.156, -1.486e-3
-1.155, -1.501e-3
-1.154, -1.501e-3
-1.153, -1.495e-3
-1.152, -1.486e-3
-1.151, -1.492e-3
-1.150, -1.507e-3
-1.149, -1.529e-3
-1.148, -1.541e-3
-1.147, -1.532e-3
-1.146, -1.511e-3
-1.145, -1.501e-3
-1.144, -1.504e-3
-1.143, -1.523e-3
-1.142, -1.538e-3
-1.141, -1.538e-3
-1.140, -1.529e-3
-1.139, -1.517e-3
-1.138, -1.514e-3
-1.137, -1.529e-3
-1.136, -1.554e-3
-1.135, -1.569e-3
-1.134, -1.566e-3
-1.133, -1.551e-3
-1.132, -1.538e-3
-1.131, -1.538e-3
-1.130, -1.554e-3
-1.129, -1.572e-3
-1.128, -1.581e-3
-1.127, -1.575e-3
-1.126, -1.557e-3
-1.125, -1.551e-3
-1.124, -1.563e-3
-1.123, -1.585e-3
-1.122, -1.609e-3
-1.121, -1.612e-3
-1.120, -1.603e-3
-1.119, -1.585e-3
-1.118, -1.581e-3
-1.117, -1.591e-3
-1.116, -1.612e-3
-1.115, -1.622e-3
-1.114, -1.618e-3
-1.113, -1.603e-3
-1.112, -1.591e-3
-1.111, -1.597e-3
-1.110, -1.615e-3
-1.109, -1.640e-3
-1.108, -1.652e-3
-1.107, -1.643e-3
-1.106, -1.625e-3
-1.105, -1.622e-3
-1.104, -1.628e-3
-1.103, -1.649e-3
-1.102, -1.665e-3
-1.101, -1.665e-3
-1.100, -1.659e-3
-1.099, -1.646e-3
-1.098, -1.646e-3
-1.097, -1.659e-3
-1.096, -1.674e-3
-1.095, -1.686e-3
-1.094, -1.677e-3
-1.093, -1.659e-3
-1.092, -1.646e-3
-1.091, -1.646e-3
-1.090, -1.665e-3
-1.089, -1.686e-3
-1.088, -1.699e-3
-1.087, -1.692e-3
-1.086, -1.677e-3
-1.085, -1.674e-3
-1.084, -1.683e-3
-1.083, -1.705e-3
-1.082, -1.723e-3
-1.081, -1.726e-3
-1.080, -1.714e-3
-1.079, -1.699e-3
-1.078, -1.692e-3
-1.077, -1.705e-3
-1.076, -1.723e-3
-1.075, -1.736e-3
-1.074, -1.729e-3
-1.073, -1.717e-3
-1.072, -1.702e-3
-1.071, -1.705e-3
-1.070, -1.726e-3
-1.069, -1.748e-3
-1.068, -1.757e-3
-1.067, -1.751e-3
-1.066, -1.736e-3
-1.065, -1.729e-3
-1.064, -1.736e-3
-1.063, -1.760e-3
-1.062, -1.782e-3
-1.061, -1.788e-3
-1.060, -1.785e-3
-1.059, -1.776e-3
-1.058, -1.785e-3
-1.057, -1.803e-3
-1.056, -1.828e-3
-1.055, -1.844e-3
-1.054, -1.844e-3
-1.053, -1.825e-3
-1.052, -1.800e-3
-1.051, -1.779e-3
-1.050, -1.773e-3
-1.049, -1.773e-3
-1.048, -1.779e-3
-1.047, -1.782e-3
-1.046, -1.779e-3
-1.045, -1.785e-3
-1.044, -1.807e-3
-1.043, -1.844e-3
-1.042, -1.874e-3
-1.041, -1.887e-3
-1.040, -1.877e-3
-1.039, -1.859e-3
-1.038, -1.853e-3
-1.037, -1.862e-3
-1.036, -1.877e-3
-1.035, -1.881e-3
-1.034, -1.868e-3
-1.033, -1.850e-3
-1.032, -1.837e-3
-1.031, -1.844e-3
-1.030, -1.862e-3
-1.029, -1.887e-3
-1.028, -1.905e-3
-1.027, -1.905e-3
-1.026, -1.902e-3
-1.025, -1.905e-3
-1.024, -1.924e-3
-1.023, -1.948e-3
-1.022, -1.967e-3
-1.021, -1.970e-3
-1.020, -1.961e-3
-1.019, -1.945e-3
-1.018, -1.942e-3
-1.017, -1.958e-3
-1.016, -1.985e-3
-1.015, -2.007e-3
-1.014, -2.013e-3
-1.013, -2.010e-3
-1.012, -2.001e-3
-1.011, -2.007e-3
-1.010, -2.029e-3
-1.009, -2.053e-3
-1.008, -2.066e-3
-1.007, -2.056e-3
-1.006, -2.041e-3
-1.005, -2.032e-3
-1.004, -2.038e-3
-1.003, -2.062e-3
-1.002, -2.087e-3
-1.001, -2.096e-3
