Potential V vs RHE, Current mA cm-2
0.013299999999999867,2.0909433012005243
0.012299999999999978,0.7393281253094681
0.011299999999999866,-0.5255652478998613
0.010299999999999976,-1.7033124050375041
0.009299999999999864,-2.8379108675292635
0.008299999999999974,-3.840941179133574
0.007299999999999862,-4.712403339850438
0.006299999999999972,-5.497568111275533
0.00529999999999986,-6.108723392817228
0.0042999999999999705,-6.719878674358924
0.0032999999999998586,-7.28576319430494
0.0022999999999999687,-7.809206375255003
0.0012999999999998568,-8.464217707092514
0.00029999999999996696,-9.073958277334345
-0.000700000000000145,-9.728969609171857
-0.0017000000000000348,-10.382566229709504
-0.0027000000000001467,-10.949865460955383
-0.0037000000000000366,-11.517164692201263
-0.0047000000000001485,-11.952895772559694
-0.005700000000000038,-12.302329463626359
-0.00670000000000015,-12.607907104397206
-0.00770000000000004,-12.869628694872238
-0.008700000000000152,-13.175206335643086
-0.009700000000000042,-13.436927926118118
-0.010700000000000154,-13.828802956180734
-0.011700000000000044,-14.217848563643619
-0.012700000000000156,-14.61396772760583
-0.013700000000000045,-15.094969569559943
-0.014700000000000157,-15.448647394526201
-0.015700000000000047,-15.74573676749786
-0.01670000000000016,-16.014531914472215
-0.01770000000000005,-16.141855931460068
-0.01870000000000016,-16.269179948447924
-0.01970000000000005,-16.396503965435777
-0.020700000000000163,-16.580416434418233
-0.021700000000000053,-16.750181790402035
-0.022700000000000164,-17.018976937376394
-0.023700000000000054,-17.2736249713521
-0.024700000000000166,-17.584861457322408
-0.025700000000000056,-17.881950830294063
-0.026700000000000168,-18.15074597726842
-0.027700000000000058,-18.320511333252224
-0.02870000000000017,-18.49027668923603
-0.02970000000000006,-18.589306480226583
-0.03070000000000017,-18.631747819222536
-0.03170000000000006,-18.674189158218486
-0.03270000000000017,-18.716630497214435
-0.03370000000000006,-18.843954514202288
-0.034700000000000175,-18.97127853119014
-0.035700000000000065,-19.2400736781645
-0.03670000000000018,-19.452280373144255
-0.03770000000000007,-19.678634181122664
-0.03870000000000018,-19.93328221509837
-0.03970000000000007,-20.01816489309027
-0.04070000000000018,-20.10304757108217
-0.04170000000000007,-20.159636023076775
-0.04270000000000018,-20.10304757108217
-0.04370000000000007,-20.159636023076775
-0.044700000000000184,-20.202077362072725
-0.045700000000000074,-20.371842718056527
-0.046700000000000186,-20.584049413036283
-0.047700000000000076,-20.85284456001064
-0.04870000000000019,-21.107492593986347
-0.04970000000000008,-21.333846401964752
-0.05070000000000019,-21.461170418952605
-0.05170000000000008,-21.503611757948562
-0.05270000000000019,-21.503611757948562
-0.05370000000000008,-21.461170418952605
-0.05470000000000019,-21.418729079956652
-0.05570000000000008,-21.461170418952605
-0.056700000000000195,-21.54605309694451
-0.057700000000000085,-21.67337711393236
-0.058700000000000196,-21.857289582914817
-0.059700000000000086,-22.027054938898623
-0.0607000000000002,-22.196820294882425
-0.06170000000000009,-22.38073276386488
-0.0627000000000002,-22.46561544185678
-0.06370000000000009,-22.508056780852733
-0.0647000000000002,-22.508056780852733
-0.06570000000000009,-22.46561544185678
-0.0667000000000002,-22.46561544185678
-0.0677000000000001,-22.46561544185678
-0.0687000000000002,-22.550498119848687
-0.0697000000000001,-22.67782213683654
-0.07070000000000021,-22.904175944814945
-0.0717000000000001,-23.073941300798747
-0.07270000000000021,-23.342736447773106
-0.0737000000000001,-23.51250180375691
-0.07470000000000021,-23.597384481748815
-0.0757000000000001,-23.682267159740714
-0.07670000000000021,-23.682267159740714
-0.0777000000000001,-23.682267159740714
-0.07870000000000021,-23.682267159740714
-0.0797000000000001,-23.724708498736668
-0.08070000000000022,-23.86617962872317
-0.0817000000000001,-24.078386323702922
-0.08270000000000022,-24.290593018682678
-0.08370000000000011,-24.601829504652986
-0.08470000000000022,-24.771594860636792
-0.08570000000000011,-24.9130659906233
-0.08670000000000022,-24.997948668615198
-0.08770000000000011,-25.04039000761115
-0.08870000000000022,-25.0828313466071
-0.08970000000000011,-25.12527268560305
-0.09070000000000022,-25.210155363594954
-0.09170000000000011,-25.39406783257741
-0.09270000000000023,-25.563833188561212
-0.09370000000000012,-25.81848122253692
-0.09470000000000023,-26.044835030515326
-0.09570000000000012,-26.257041725495082
-0.09670000000000023,-26.440954194477534
-0.09770000000000012,-26.525836872469437
-0.09870000000000023,-26.525836872469437
-0.09970000000000012,-26.525836872469437
-0.10070000000000023,-26.440954194477534
-0.10170000000000012,-26.34192440348698
-0.10270000000000024,-26.21460038649913
-0.10370000000000013,-26.21460038649913
-0.10470000000000024,-26.29948306449103
-0.10570000000000013,-26.440954194477534
-0.10670000000000024,-26.61071955046134
-0.10770000000000013,-26.822926245441096
-0.10870000000000024,-27.134162731411404
-0.10970000000000013,-27.38881076538711
-0.11070000000000024,-27.65760591236147
-0.11170000000000013,-27.912253946337174
-0.11270000000000002,-28.18104909331153
-0.11370000000000013,-28.435697127287238
-0.11470000000000002,-28.704492274261593
-0.11570000000000014,-29.001581647233255
-0.11670000000000003,-29.35525947219951
-0.11770000000000014,-29.66649595816982
-0.11870000000000003,-29.921143992145527
-0.11970000000000014,-30.10505646112798
-0.12070000000000003,-30.189939139119886
-0.12170000000000014,-30.10505646112798
-0.12270000000000003,-29.96358533114148
-0.12370000000000014,-29.751378636161718
-0.12470000000000003,-29.440142150191413
-0.12570000000000014,-29.31281813320356
-0.12670000000000003,-29.22793545521166
-0.12770000000000015,-29.31281813320356
-0.12870000000000004,-29.525024828183312
-0.12970000000000015,-29.836261314153624
-0.13070000000000004,-30.232380478115836
-0.13170000000000015,-30.529469851087494
-0.13270000000000004,-30.8407063370578
-0.13370000000000015,-31.095354371033505
-0.13470000000000004,-31.321708179011907
-0.13570000000000015,-31.57635621298762
-0.13670000000000004,-31.887592698957924
-0.13770000000000016,-32.14224073293363
-0.13870000000000005,-32.45347721890394
-0.13970000000000016,-32.764713704874254
-0.14070000000000005,-33.01936173884996
-0.14170000000000016,-33.330598224820264
-0.14270000000000005,-33.50036358080407
-0.14370000000000016,-33.670128936787876
-0.14470000000000005,-33.755011614779775
-0.14570000000000016,-33.81160006677438
-0.14670000000000005,-33.81160006677438
-0.14770000000000016,-33.81160006677438
-0.14870000000000005,-33.85404140577033
-0.14970000000000017,-33.93892408376223
-0.15070000000000006,-34.10868943974604
-0.15170000000000017,-34.33504324772444
-0.15270000000000006,-34.67457395969205
-0.15370000000000017,-35.02825178465831
-0.15470000000000006,-35.32534115762997
-0.15570000000000017,-35.679018982596226
-0.15670000000000006,-35.94781412957058
-0.15770000000000017,-36.07513814655844
-0.15870000000000006,-36.11757948555439
-0.15970000000000018,-36.20246216354629
-0.16070000000000007,-36.28734484153819
-0.16170000000000018,-36.47125731052064
-0.16270000000000007,-36.725905344496354
-0.16370000000000018,-37.07958316946261
-0.16470000000000007,-37.41911388143023
-0.16570000000000018,-37.77279170639648
-0.16670000000000007,-38.08402819236679
-0.16770000000000018,-38.29623488734655
-0.16870000000000007,-38.522588695324956
-0.16970000000000018,-38.6499127123128
-0.17070000000000007,-38.777236729300654
-0.17170000000000019,-38.90456074628851
-0.17270000000000008,-38.98944342428042
-0.1737000000000002,-39.173355893262865
-0.17470000000000008,-39.38556258824262
-0.1757000000000002,-39.61191639622103
-0.17670000000000008,-39.86656443019674
-0.1777000000000002,-40.092918238175145
-0.17870000000000008,-40.30512493315489
-0.1797000000000002,-40.4748902891387
-0.18070000000000008,-40.616361419125205
-0.1817000000000002,-40.65880275812115
-0.18270000000000008,-40.743685436113054
-0.1837000000000002,-40.828568114104954
-0.1847000000000001,-40.95589213109281
-0.1857000000000002,-41.22468727806717
-0.1867000000000001,-41.52177665103883
-0.1877000000000002,-41.87545447600508
-0.1887000000000001,-42.31401497896325
-0.1897000000000002,-42.6111043519349
-0.1907000000000001,-42.87989949890926
-0.1917000000000001,-43.04966485489307
-0.19269999999999998,-43.09210619388902
-0.1937000000000001,-43.09210619388902
-0.19469999999999998,-43.04966485489307
-0.1957000000000001,-43.134547532884966
-0.19669999999999999,-43.27601866287147
-0.1977000000000001,-43.44578401885527
-0.1987,-43.75702050482558
-0.1997000000000001,-44.011668538801295
-0.2007,-44.3229050247716
-0.2017000000000001,-44.577553058747306
-0.2027,-44.74731841473111
-0.2037000000000001,-44.97367222270952
-0.2047,-45.10099623969737
-0.2057000000000001,-45.22832025668522
-0.2067,-45.412232725667685
-0.2077000000000001,-45.581998081651484
-0.2087,-45.89323456762179
-0.2097000000000001,-46.147882601597495
-0.2107,-46.45911908756781
-0.2117000000000001,-46.79864979953541
-0.2127,-47.10988628550572
-0.2137000000000001,-47.36453431948143
-0.2147,-47.590888127459834
-0.2157000000000001,-47.71821214444768
-0.2167,-47.84553616143554
-0.21770000000000012,-47.8879775004315
-0.2187,-48.029448630417996
-0.21970000000000012,-48.156772647405845
-0.2207,-48.36897934238561
-0.22170000000000012,-48.63777448935996
-0.2227,-48.97730520132757
-0.22370000000000012,-49.33098302629383
-0.2247,-49.72710219025603
-0.22570000000000012,-50.12322135421825
-0.2267,-50.42031072718991
-0.22770000000000012,-50.68910587416426
-0.22870000000000001,-50.90131256914402
-0.22970000000000013,-51.127666377122424
-0.23070000000000002,-51.38231441109813
-0.23170000000000013,-51.65110955807249
-0.23270000000000002,-51.990640270040096
-0.23370000000000013,-52.42920077299826
-0.23470000000000002,-52.86776127595642
-0.23570000000000013,-53.30632177891458
-0.23670000000000002,-53.68829382987814
-0.2376999999999999,-53.9570889768525
-0.23870000000000002,-54.1268543328363
-0.2396999999999999,-54.26832546282281
-0.24070000000000003,-54.35320814081471
-0.24169999999999991,-54.52297349679851
-0.24270000000000003,-54.69273885278232
-0.24369999999999992,-55.003975338752625
-0.24470000000000003,-55.400094502714836
-0.24569999999999992,-55.838655005673
-0.24670000000000003,-56.26306839563251
-0.24769999999999992,-56.70162889859067
-0.24870000000000003,-57.097748062552874
-0.24969999999999992,-57.408984548523186
-0.25070000000000003,-57.66363258249889
-0.2516999999999999,-57.93242772947325
-0.25270000000000004,-58.14463442445301
-0.2536999999999999,-58.498312249419264
-0.25470000000000004,-58.79540162239092
-0.2556999999999999,-59.19152078635314
-0.25670000000000004,-59.587639950315335
-0.25769999999999993,-60.06864179226946
-0.25870000000000004,-60.54964363422357
-0.25969999999999993,-61.01649836317903
-0.26070000000000004,-61.412617527141244
-0.26169999999999993,-61.7662953521075
-0.26270000000000004,-62.02094338608321
-0.26369999999999993,-62.28973853305756
-0.26470000000000005,-62.459503889041365
-0.26569999999999994,-62.77074037501168
-0.26670000000000005,-63.06782974798333
-0.26769999999999994,-63.46394891194555
-0.26870000000000005,-63.860068075907755
-0.26969999999999994,-64.29862857886593
-0.27070000000000005,-64.68060062982947
-0.27169999999999994,-65.0767197937917
-0.27270000000000005,-65.43039761875795
-0.27369999999999994,-65.7274869917296
-0.27470000000000006,-65.99628213870396
-0.27569999999999995,-66.29337151167562
-0.27670000000000006,-66.60460799764593
-0.27769999999999995,-66.9582858226122
-0.27870000000000006,-67.39684632557035
-0.27969999999999995,-67.82125971552985
-0.28070000000000006,-68.34470289647993
-0.28169999999999995,-68.96717586842054
-0.28270000000000006,-69.43403059737601
-0.28369999999999995,-69.95747377832606
-0.28470000000000006,-70.39603428128423
-0.28569999999999995,-70.74971210625048
-0.28670000000000007,-71.0043601402262
-0.28769999999999996,-71.18827260920865
-0.28870000000000007,-71.44292064318435
-0.28969999999999996,-71.7117157901587
-0.29070000000000007,-72.05124650212633
-0.29169999999999996,-72.44736566608852
-0.29270000000000007,-72.92836750804264
-0.29369999999999996,-73.45181068899271
-0.2947000000000001,-73.93281253094682
-0.29569999999999996,-74.37137303390499
-0.2967000000000001,-74.72505085887124
-0.29769999999999996,-75.02214023184291
-0.2987000000000001,-75.29093537881725
-0.29969999999999997,-75.46070073480107
-0.3007000000000001,-75.81437855976732
-0.30169999999999997,-76.15390927173492
-0.3027000000000001,-76.67735245268499
-0.30369999999999997,-77.243236972631
-0.3047000000000001,-77.86570994457162
-0.30569999999999997,-78.51647714250953
-0.3067000000000001,-79.08236166245555
-0.3077,-79.52092216541372
-0.3087000000000001,-79.86045287738132
-0.3097,-80.21413070234757
-0.3107000000000001,-80.46877873632329
-0.3117,-80.82245656128954
-0.3127000000000001,-81.09125170826391
-0.3137,-81.51566509822342
-0.3147000000000001,-81.86934292318966
-0.3157,-82.30790342614785
-0.3167000000000001,-82.70402259011003
-0.3177,-83.0011119630817
-0.3187000000000001,-83.35478978804795
-0.3197,-83.56699648302772
-0.3207000000000001,-83.83579163000208
-0.3217,-84.09043966397778
-0.3227000000000001,-84.35923481095215
-0.3237,-84.6563241839238
-0.3247000000000001,-84.8826779919022
-0.3257,-85.13732602587791
-0.3267000000000001,-85.40612117285227
-0.3277,-85.75979899781852
-0.3287000000000001,-86.18421238777805
-0.3297,-86.58033155174023
-0.3307000000000001,-87.06133339369435
-0.3317,-87.58477657464444
-0.3327000000000001,-88.02333707760259
-0.3337,-88.5043389195567
-0.3347000000000001,-88.9004580835189
-0.3357,-89.23998879548651
-0.3367000000000001,-89.46634260346492
-0.3377,-89.67854929844468
-0.3387000000000001,-89.89075599342443
-0.3397,-90.11710980140283
-0.3407000000000001,-90.28687515738663
-0.3417,-90.41419917437449
-0.3427000000000001,-90.47078762636909
-0.3437,-90.41419917437449
-0.3447000000000001,-90.28687515738663
-0.3457,-90.20199247939475
-0.3467000000000001,-90.11710980140283
-0.3477,-90.07466846240689
-0.3487000000000001,-90.20199247939475
-0.3497,-90.41419917437449
-0.3507000000000001,-90.81031833833671
-0.3517,-91.20643750229891
-0.3527000000000001,-91.56011532726518
-0.3537,-91.85720470023682
-0.3547000000000001,-92.12599984721119
-0.3557,-92.25332386419905
-0.35670000000000013,-92.33820654219093
-0.3577,-92.25332386419905
-0.35870000000000013,-92.2108825252031
-0.3597,-92.16844118620713
-0.36070000000000013,-92.16844118620713
-0.3617,-92.16844118620713
-0.3626999999999999,-92.12599984721119
-0.3637,-92.08355850821525
-0.3646999999999999,-91.94208737822873
-0.3657,-91.72988068324898
-0.3666999999999999,-91.41864419727867
-0.3677,-91.03667214631511
-0.3686999999999999,-90.68299432134886
-0.36970000000000003,-90.32931649638259
-0.3706999999999999,-90.07466846240689
-0.37170000000000003,-89.84831465442848
-0.3726999999999999,-89.67854929844468
-0.37370000000000003,-89.50878394246087
-0.3746999999999999,-89.28243013448247
-0.37570000000000003,-89.07022343950271
-0.3766999999999999,-88.7589869535324
-0.37770000000000004,-88.4194562415648
-0.3786999999999999,-88.10821975559449
-0.37970000000000004,-87.71210059163228
-0.3806999999999999,-87.33012854066871
-0.38170000000000004,-86.89156803771054
-0.38269999999999993,-86.45300753475239
-0.38370000000000004,-86.01444703179425
-0.38469999999999993,-85.57588652883607
-0.38570000000000004,-85.13732602587791
-0.38669999999999993,-84.75535397491434
-0.38770000000000004,-84.35923481095215
-0.38869999999999993,-84.04799832498183
-0.38970000000000005,-83.66602627401826
-0.39069999999999994,-83.18502443206415
-0.39170000000000005,-82.6615812511141
-0.39269999999999994,-81.99666694017753
-0.39370000000000005,-81.3458997422396
-0.39469999999999994,-80.73757388329766
-0.39570000000000005,-80.25657204134353
-0.39669999999999994,-79.90289421637728
-0.39770000000000005,-79.64824618240156
-0.39869999999999994,-79.42189237442317
-0.39970000000000006,-79.1248030014515
-0.40069999999999995,-78.72868383748929
-0.40170000000000006,-78.24768199553519
-0.40269999999999995,-77.7242388145851
-0.40370000000000006,-77.20079563363505
-0.40469999999999995,-76.67735245268499
-0.40570000000000006,-76.33782174071737
-0.40669999999999995,-76.11146793273898
-0.40770000000000006,-75.98414391575112
-0.40869999999999995,-75.94170257675518
-0.40970000000000006,-75.8992612377592
-0.41069999999999995,-75.81437855976732
-0.41170000000000007,-75.71534876877676
-0.41269999999999996,-75.5880247517889
-0.41370000000000007,-75.46070073480107
-0.41469999999999996,-75.37581805680915
-0.41570000000000007,-75.29093537881725
-0.41669999999999996,-75.2484940398213
-0.41770000000000007,-75.2484940398213
-0.41869999999999996,-75.29093537881725
-0.4197000000000001,-75.29093537881725
-0.42069999999999996,-75.37581805680915
-0.4217000000000001,-75.54558341279296
-0.42269999999999996,-75.6729074297808
-0.4237000000000001,-75.85681989876326
-0.42469999999999997,-76.06902659374302
-0.4257000000000001,-76.29538040172143
-0.42669999999999997,-76.38026307971333
-0.4277000000000001,-76.46514575770523
-0.42869999999999997,-76.63491111368903
-0.4297000000000001,-76.81882358267148
-0.43069999999999997,-77.11591295564315
-0.4317000000000001,-77.46959078060941
-0.4327,-77.90815128356756
-0.4337000000000001,-78.43159446451764
-0.4347,-78.91259630647174
-0.4357000000000001,-79.25212701843935
-0.4367,-79.52092216541372
-0.4377000000000001,-79.69068752139752
-0.4387,-79.86045287738132
-0.4397000000000001,-80.00192400736783
-0.4407,-80.29901338033947
-0.4417000000000001,-80.69513254430169
-0.4427,-81.21857572525175
-0.4437000000000001,-81.82690158419373
-0.4447,-82.47766878213164
-0.4457000000000001,-83.08599464107361
-0.4467,-83.70846761301424
-0.4477000000000001,-84.18946945496833
-0.4487,-84.6563241839238
-0.4497000000000001,-85.13732602587791
-0.4507,-85.57588652883607
-0.4517000000000001,-86.05688837079018
-0.4527,-86.49544887374834
-0.4537000000000001,-87.01889205469841
-0.4547,-87.66965925263632
-0.4557000000000001,-88.37701490256885
-0.4567,-89.11266477849867
-0.4577000000000001,-89.94734444541903
-0.4587,-90.7254356603448
-0.4597000000000001,-91.29132018029082
-0.4607,-91.60255666626112
-0.4617000000000001,-91.85720470023682
-0.4627,-91.98452871722468
-0.4637000000000001,-92.16844118620713
-0.4647,-92.33820654219093
-0.4657000000000001,-92.73432570615316
-0.4667,-93.30021022609918
-0.4677000000000001,-94.03586010202899
-0.4687,-94.91298110794531
-0.4697000000000001,-95.91742613084948
-0.4707,-96.87942981475771
-0.4717000000000001,-97.74240370767538
-0.4727,-98.7044073915836
-0.4737000000000001,-99.75129375348374
-0.4747,-100.75573877638791
-0.4757000000000001,-101.92994915527588
-0.4767,-103.33051334214227
-0.4777000000000001,-104.81596020700057
-0.4787,-106.0326119248845
-0.4797000000000001,-106.90973293080083
-0.4807,-107.68782414572658
-0.48170000000000013,-108.3102971176672
-0.4827,-108.69226916863077
-0.48370000000000013,-109.13082967158894
-0.4847,-109.4845074965552
-0.48570000000000013,-109.8240382085228
-0.4867,-109.13082967158894
-0.48570000000000013,-106.73996757481702
-0.4847,-104.5471650600262
-0.48370000000000013,-102.28362698024215
-0.4827,-100.2747369344338
-0.48170000000000013,-98.49220069660386
-0.4807,-96.96431249274961
-0.4797000000000001,-95.64863098387512
-0.4787,-94.4319792659912
-0.4777000000000001,-93.30021022609918
-0.4767,-92.25332386419905
-0.4757000000000001,-91.20643750229891
-0.4747,-90.15955114039879
-0.4737000000000001,-89.15510611749461
-0.4727,-88.32042645057423
-0.4717000000000001,-87.62721791364037
-0.4707,-86.93400937670651
-0.4697000000000001,-86.22665372677399
-0.4687,-85.40612117285227
-0.4677000000000001,-84.57144150593189
-0.4667,-83.56699648302772
-0.4657000000000001,-82.43522744313569
-0.4647,-81.21857572525175
-0.4637000000000001,-79.94533555537322
-0.4627,-78.8135665154812
-0.4617000000000001,-77.86570994457162
-0.4607,-76.94614759965934
