Aug. 4, 2024   12:54:09
Cyclic Voltammetry
File: c:/users/guazh/data/20240802_batch_500/2024-08-02-exp16\exp16-2024-08-04t12_41_20-arkoh\exp16_cv_50mvs_efin_-1700mv.bin
Data Source:  Experiment
Instrument Model:  CHI760E
Header: CV ran at 50 mVs
Note: 

Init E (V) = -1
High E (V) = -1
Low E (V) = -1.7
Final E (V) = -1
Init P/N = N
Scan Rate (V/s) = 0.05
Segment = 7
Sample Interval (V) = 0.001
Quiet Time (sec) = 60
Sensitivity (A/V) = 0.001
Comp R (ohm) = 2.0

Results:

Channel 1:
Segment 1:

Segment 2:

Segment 3:

Segment 4:

Segment 5:

Segment 6:

Segment 7:

Potential/V, Current/A

-1.000, 1.419e-6
-1.001, 1.956e-6
-1.002, 1.976e-6
-1.003, 1.853e-6
-1.004, 1.947e-6
-1.005, 2.114e-6
-1.006, 2.283e-6
-1.007, 2.247e-6
-1.008, 2.094e-6
-1.009, 2.134e-6
-1.010, 2.302e-6
-1.011, 2.434e-6
-1.012, 2.374e-6
-1.013, 2.207e-6
-1.014, 2.254e-6
-1.015, 2.411e-6
-1.016, 2.526e-6
-1.017, 2.454e-6
-1.018, 2.333e-6
-1.019, 2.350e-6
-1.020, 2.493e-6
-1.021, 2.614e-6
-1.022, 2.522e-6
-1.023, 2.365e-6
-1.024, 2.404e-6
-1.025, 2.536e-6
-1.026, 2.685e-6
-1.027, 2.587e-6
-1.028, 2.434e-6
-1.029, 2.450e-6
-1.030, 2.577e-6
-1.031, 2.742e-6
-1.032, 2.610e-6
-1.033, 2.479e-6
-1.034, 2.487e-6
-1.035, 2.608e-6
-1.036, 2.761e-6
-1.037, 2.673e-6
-1.038, 2.490e-6
-1.039, 2.521e-6
-1.040, 2.660e-6
-1.041, 2.759e-6
-1.042, 2.684e-6
-1.043, 2.532e-6
-1.044, 2.552e-6
-1.045, 2.683e-6
-1.046, 2.807e-6
-1.047, 2.738e-6
-1.048, 2.547e-6
-1.049, 2.575e-6
-1.050, 2.728e-6
-1.051, 2.819e-6
-1.052, 2.746e-6
-1.053, 2.586e-6
-1.054, 2.573e-6
-1.055, 2.754e-6
-1.056, 2.841e-6
-1.057, 2.760e-6
-1.058, 2.619e-6
-1.059, 2.601e-6
-1.060, 2.748e-6
-1.061, 2.864e-6
-1.062, 2.792e-6
-1.063, 2.649e-6
-1.064, 2.630e-6
-1.065, 2.767e-6
-1.066, 2.892e-6
-1.067, 2.803e-6
-1.068, 2.646e-6
-1.069, 2.643e-6
-1.070, 2.764e-6
-1.071, 2.930e-6
-1.072, 2.808e-6
-1.073, 2.650e-6
-1.074, 2.671e-6
-1.075, 2.827e-6
-1.076, 2.926e-6
-1.077, 2.852e-6
-1.078, 2.687e-6
-1.079, 2.684e-6
-1.080, 2.810e-6
-1.081, 2.919e-6
-1.082, 2.876e-6
-1.083, 2.673e-6
-1.084, 2.718e-6
-1.085, 2.825e-6
-1.086, 2.960e-6
-1.087, 2.870e-6
-1.088, 2.707e-6
-1.089, 2.712e-6
-1.090, 2.888e-6
-1.091, 2.990e-6
-1.092, 2.883e-6
-1.093, 2.742e-6
-1.094, 2.738e-6
-1.095, 2.867e-6
-1.096, 3.017e-6
-1.097, 2.903e-6
-1.098, 2.751e-6
-1.099, 2.744e-6
-1.100, 2.915e-6
-1.101, 3.020e-6
-1.102, 2.941e-6
-1.103, 2.756e-6
-1.104, 2.773e-6
-1.105, 2.900e-6
-1.106, 3.048e-6
-1.107, 2.941e-6
-1.108, 2.791e-6
-1.109, 2.804e-6
-1.110, 2.926e-6
-1.111, 3.059e-6
-1.112, 2.982e-6
-1.113, 2.808e-6
-1.114, 2.834e-6
-1.115, 2.950e-6
-1.116, 3.078e-6
-1.117, 2.988e-6
-1.118, 2.832e-6
-1.119, 2.846e-6
-1.120, 2.963e-6
-1.121, 3.073e-6
-1.122, 3.040e-6
-1.123, 2.846e-6
-1.124, 2.855e-6
-1.125, 2.998e-6
-1.126, 3.124e-6
-1.127, 3.075e-6
-1.128, 2.892e-6
-1.129, 2.907e-6
-1.130, 3.034e-6
-1.131, 3.138e-6
-1.132, 3.094e-6
-1.133, 2.918e-6
-1.134, 2.917e-6
-1.135, 3.055e-6
-1.136, 3.159e-6
-1.137, 3.094e-6
-1.138, 2.959e-6
-1.139, 2.928e-6
-1.140, 3.067e-6
-1.141, 3.199e-6
-1.142, 3.113e-6
-1.143, 3.000e-6
-1.144, 2.974e-6
-1.145, 3.116e-6
-1.146, 3.235e-6
-1.147, 3.134e-6
-1.148, 2.989e-6
-1.149, 2.985e-6
-1.150, 3.125e-6
-1.151, 3.269e-6
-1.152, 3.204e-6
-1.153, 3.017e-6
-1.154, 3.036e-6
-1.155, 3.164e-6
-1.156, 3.295e-6
-1.157, 3.216e-6
-1.158, 3.064e-6
-1.159, 3.071e-6
-1.160, 3.198e-6
-1.161, 3.319e-6
-1.162, 3.253e-6
-1.163, 3.086e-6
-1.164, 3.086e-6
-1.165, 3.248e-6
-1.166, 3.353e-6
-1.167, 3.314e-6
-1.168, 3.143e-6
-1.169, 3.096e-6
-1.170, 3.258e-6
-1.171, 3.377e-6
-1.172, 3.337e-6
-1.173, 3.157e-6
-1.174, 3.147e-6
-1.175, 3.283e-6
-1.176, 3.431e-6
-1.177, 3.370e-6
-1.178, 3.204e-6
-1.179, 3.184e-6
-1.180, 3.337e-6
-1.181, 3.475e-6
-1.182, 3.383e-6
-1.183, 3.267e-6
-1.184, 3.232e-6
-1.185, 3.375e-6
-1.186, 3.500e-6
-1.187, 3.413e-6
-1.188, 3.282e-6
-1.189, 3.291e-6
-1.190, 3.412e-6
-1.191, 3.562e-6
-1.192, 3.480e-6
-1.193, 3.312e-6
-1.194, 3.320e-6
-1.195, 3.460e-6
-1.196, 3.583e-6
-1.197, 3.516e-6
-1.198, 3.358e-6
-1.199, 3.381e-6
-1.200, 3.490e-6
-1.201, 3.663e-6
-1.202, 3.561e-6
-1.203, 3.430e-6
-1.204, 3.415e-6
-1.205, 3.548e-6
-1.206, 3.665e-6
-1.207, 3.623e-6
-1.208, 3.454e-6
-1.209, 3.440e-6
-1.210, 3.610e-6
-1.211, 3.724e-6
-1.212, 3.672e-6
-1.213, 3.511e-6
-1.214, 3.495e-6
-1.215, 3.663e-6
-1.216, 3.756e-6
-1.217, 3.723e-6
-1.218, 3.592e-6
-1.219, 3.550e-6
-1.220, 3.702e-6
-1.221, 3.836e-6
-1.222, 3.783e-6
-1.223, 3.640e-6
-1.224, 3.610e-6
-1.225, 3.746e-6
-1.226, 3.893e-6
-1.227, 3.824e-6
-1.228, 3.702e-6
-1.229, 3.694e-6
-1.230, 3.805e-6
-1.231, 3.951e-6
-1.232, 3.874e-6
-1.233, 3.733e-6
-1.234, 3.753e-6
-1.235, 3.880e-6
-1.236, 4.018e-6
-1.237, 3.953e-6
-1.238, 3.782e-6
-1.239, 3.801e-6
-1.240, 3.919e-6
-1.241, 4.070e-6
-1.242, 4.027e-6
-1.243, 3.848e-6
-1.244, 3.852e-6
-1.245, 3.974e-6
-1.246, 4.142e-6
-1.247, 4.071e-6
-1.248, 3.929e-6
-1.249, 3.923e-6
-1.250, 4.054e-6
-1.251, 4.183e-6
-1.252, 4.119e-6
-1.253, 4.003e-6
-1.254, 3.956e-6
-1.255, 4.129e-6
-1.256, 4.252e-6
-1.257, 4.186e-6
-1.258, 4.088e-6
-1.259, 4.017e-6
-1.260, 4.178e-6
-1.261, 4.310e-6
-1.262, 4.264e-6
-1.263, 4.136e-6
-1.264, 4.087e-6
-1.265, 4.251e-6
-1.266, 4.396e-6
-1.267, 4.343e-6
-1.268, 4.200e-6
-1.269, 4.193e-6
-1.270, 4.305e-6
-1.271, 4.474e-6
-1.272, 4.406e-6
-1.273, 4.278e-6
-1.274, 4.269e-6
-1.275, 4.400e-6
-1.276, 4.552e-6
-1.277, 4.510e-6
-1.278, 4.375e-6
-1.279, 4.368e-6
-1.280, 4.506e-6
-1.281, 4.656e-6
-1.282, 4.607e-6
-1.283, 4.444e-6
-1.284, 4.459e-6
-1.285, 4.577e-6
-1.286, 4.728e-6
-1.287, 4.685e-6
-1.288, 4.549e-6
-1.289, 4.529e-6
-1.290, 4.699e-6
-1.291, 4.844e-6
-1.292, 4.795e-6
-1.293, 4.648e-6
-1.294, 4.628e-6
-1.295, 4.808e-6
-1.296, 4.941e-6
-1.297, 4.901e-6
-1.298, 4.788e-6
-1.299, 4.767e-6
-1.300, 4.931e-6
-1.301, 5.047e-6
-1.302, 5.023e-6
-1.303, 4.904e-6
-1.304, 4.863e-6
-1.305, 5.023e-6
-1.306, 5.179e-6
-1.307, 5.161e-6
-1.308, 5.038e-6
-1.309, 5.016e-6
-1.310, 5.174e-6
-1.311, 5.327e-6
-1.312, 5.294e-6
-1.313, 5.156e-6
-1.314, 5.173e-6
-1.315, 5.321e-6
-1.316, 5.488e-6
-1.317, 5.431e-6
-1.318, 5.312e-6
-1.319, 5.318e-6
-1.320, 5.473e-6
-1.321, 5.633e-6
-1.322, 5.619e-6
-1.323, 5.483e-6
-1.324, 5.491e-6
-1.325, 5.640e-6
-1.326, 5.792e-6
-1.327, 5.775e-6
-1.328, 5.651e-6
-1.329, 5.640e-6
-1.330, 5.819e-6
-1.331, 5.964e-6
-1.332, 5.952e-6
-1.333, 5.866e-6
-1.334, 5.828e-6
-1.335, 6.016e-6
-1.336, 6.144e-6
-1.337, 6.156e-6
-1.338, 6.053e-6
-1.339, 6.038e-6
-1.340, 6.208e-6
-1.341, 6.356e-6
-1.342, 6.361e-6
-1.343, 6.229e-6
-1.344, 6.252e-6
-1.345, 6.398e-6
-1.346, 6.600e-6
-1.347, 6.566e-6
-1.348, 6.501e-6
-1.349, 6.486e-6
-1.350, 6.606e-6
-1.351, 6.822e-6
-1.352, 6.779e-6
-1.353, 6.709e-6
-1.354, 6.737e-6
-1.355, 6.885e-6
-1.356, 7.083e-6
-1.357, 7.068e-6
-1.358, 6.952e-6
-1.359, 6.967e-6
-1.360, 7.128e-6
-1.361, 7.309e-6
-1.362, 7.314e-6
-1.363, 7.204e-6
-1.364, 7.238e-6
-1.365, 7.379e-6
-1.366, 7.598e-6
-1.367, 7.578e-6
-1.368, 7.490e-6
-1.369, 7.497e-6
-1.370, 7.691e-6
-1.371, 7.847e-6
-1.372, 7.893e-6
-1.373, 7.759e-6
-1.374, 7.818e-6
-1.375, 7.980e-6
-1.376, 8.158e-6
-1.377, 8.144e-6
-1.378, 8.106e-6
-1.379, 8.081e-6
-1.380, 8.285e-6
-1.381, 8.482e-6
-1.382, 8.504e-6
-1.383, 8.449e-6
-1.384, 8.394e-6
-1.385, 8.577e-6
-1.386, 8.797e-6
-1.387, 8.804e-6
-1.388, 8.717e-6
-1.389, 8.756e-6
-1.390, 8.922e-6
-1.391, 9.139e-6
-1.392, 9.136e-6
-1.393, 9.046e-6
-1.394, 9.116e-6
-1.395, 9.262e-6
-1.396, 9.483e-6
-1.397, 9.495e-6
-1.398, 9.413e-6
-1.399, 9.469e-6
-1.400, 9.650e-6
-1.401, 9.846e-6
-1.402, 9.872e-6
-1.403, 9.786e-6
-1.404, 9.803e-6
-1.405, 1.000e-5
-1.406, 1.022e-5
-1.407, 1.027e-5
-1.408, 1.018e-5
-1.409, 1.022e-5
-1.410, 1.043e-5
-1.411, 1.062e-5
-1.412, 1.067e-5
-1.413, 1.059e-5
-1.414, 1.062e-5
-1.415, 1.086e-5
-1.416, 1.101e-5
-1.417, 1.103e-5
-1.418, 1.102e-5
-1.419, 1.103e-5
-1.420, 1.123e-5
-1.421, 1.147e-5
-1.422, 1.148e-5
-1.423, 1.145e-5
-1.424, 1.148e-5
-1.425, 1.169e-5
-1.426, 1.194e-5
-1.427, 1.196e-5
-1.428, 1.191e-5
-1.429, 1.195e-5
-1.430, 1.214e-5
-1.431, 1.240e-5
-1.432, 1.241e-5
-1.433, 1.236e-5
-1.434, 1.243e-5
-1.435, 1.264e-5
-1.436, 1.286e-5
-1.437, 1.294e-5
-1.438, 1.288e-5
-1.439, 1.294e-5
-1.440, 1.313e-5
-1.441, 1.337e-5
-1.442, 1.343e-5
-1.443, 1.339e-5
-1.444, 1.345e-5
-1.445, 1.366e-5
-1.446, 1.390e-5
-1.447, 1.400e-5
-1.448, 1.392e-5
-1.449, 1.399e-5
-1.450, 1.424e-5
-1.451, 1.446e-5
-1.452, 1.454e-5
-1.453, 1.451e-5
-1.454, 1.456e-5
-1.455, 1.482e-5
-1.456, 1.506e-5
-1.457, 1.514e-5
-1.458, 1.512e-5
-1.459, 1.518e-5
-1.460, 1.544e-5
-1.461, 1.570e-5
-1.462, 1.574e-5
-1.463, 1.577e-5
-1.464, 1.583e-5
-1.465, 1.609e-5
-1.466, 1.636e-5
-1.467, 1.644e-5
-1.468, 1.640e-5
-1.469, 1.653e-5
-1.470, 1.678e-5
-1.471, 1.706e-5
-1.472, 1.716e-5
-1.473, 1.714e-5
-1.474, 1.726e-5
-1.475, 1.750e-5
-1.476, 1.780e-5
-1.477, 1.791e-5
-1.478, 1.790e-5
-1.479, 1.802e-5
-1.480, 1.827e-5
-1.481, 1.858e-5
-1.482, 1.871e-5
-1.483, 1.874e-5
-1.484, 1.884e-5
-1.485, 1.915e-5
-1.486, 1.942e-5
-1.487, 1.960e-5
-1.488, 1.958e-5
-1.489, 1.974e-5
-1.490, 2.005e-5
-1.491, 2.033e-5
-1.492, 2.051e-5
-1.493, 2.052e-5
-1.494, 2.069e-5
-1.495, 2.101e-5
-1.496, 2.132e-5
-1.497, 2.153e-5
-1.498, 2.155e-5
-1.499, 2.174e-5
-1.500, 2.206e-5
-1.501, 2.240e-5
-1.502, 2.254e-5
-1.503, 2.266e-5
-1.504, 2.281e-5
-1.505, 2.319e-5
-1.506, 2.357e-5
-1.507, 2.373e-5
-1.508, 2.386e-5
-1.509, 2.401e-5
-1.510, 2.440e-5
-1.511, 2.482e-5
-1.512, 2.501e-5
-1.513, 2.511e-5
-1.514, 2.536e-5
-1.515, 2.575e-5
-1.516, 2.616e-5
-1.517, 2.640e-5
-1.518, 2.654e-5
-1.519, 2.682e-5
-1.520, 2.721e-5
-1.521, 2.764e-5
-1.522, 2.791e-5
-1.523, 2.805e-5
-1.524, 2.836e-5
-1.525, 2.879e-5
-1.526, 2.928e-5
-1.527, 2.959e-5
-1.528, 2.978e-5
-1.529, 3.006e-5
-1.530, 3.058e-5
-1.531, 3.107e-5
-1.532, 3.138e-5
-1.533, 3.163e-5
-1.534, 3.197e-5
-1.535, 3.249e-5
-1.536, 3.305e-5
-1.537, 3.339e-5
-1.538, 3.368e-5
-1.539, 3.406e-5
-1.540, 3.463e-5
-1.541, 3.524e-5
-1.542, 3.562e-5
-1.543, 3.593e-5
-1.544, 3.636e-5
-1.545, 3.696e-5
-1.546, 3.762e-5
-1.547, 3.808e-5
-1.548, 3.844e-5
-1.549, 3.892e-5
-1.550, 3.958e-5
-1.551, 4.028e-5
-1.552, 4.076e-5
-1.553, 4.119e-5
-1.554, 4.178e-5
-1.555, 4.248e-5
-1.556, 4.325e-5
-1.557, 4.382e-5
-1.558, 4.430e-5
-1.559, 4.493e-5
-1.560, 4.570e-5
-1.561, 4.652e-5
-1.562, 4.720e-5
-1.563, 4.774e-5
-1.564, 4.843e-5
-1.565, 4.929e-5
-1.566, 5.018e-5
-1.567, 5.093e-5
-1.568, 5.155e-5
-1.569, 5.231e-5
-1.570, 5.330e-5
-1.571, 5.426e-5
-1.572, 5.508e-5
-1.573, 5.586e-5
-1.574, 5.667e-5
-1.575, 5.777e-5
-1.576, 5.884e-5
-1.577, 5.978e-5
-1.578, 6.065e-5
-1.579, 6.159e-5
-1.580, 6.277e-5
-1.581, 6.400e-5
-1.582, 6.501e-5
-1.583, 6.598e-5
-1.584, 6.707e-5
-1.585, 6.836e-5
-1.586, 6.973e-5
-1.587, 7.092e-5
-1.588, 7.200e-5
-1.589, 7.323e-5
-1.590, 7.465e-5
-1.591, 7.616e-5
-1.592, 7.747e-5
-1.593, 7.872e-5
-1.594, 8.012e-5
-1.595, 8.173e-5
-1.596, 8.335e-5
-1.597, 8.483e-5
-1.598, 8.623e-5
-1.599, 8.783e-5
-1.600, 8.958e-5
-1.601, 9.142e-5
-1.602, 9.309e-5
-1.603, 9.466e-5
-1.604, 9.642e-5
-1.605, 9.838e-5
-1.606, 1.004e-4
-1.607, 1.023e-4
-1.608, 1.041e-4
-1.609, 1.060e-4
-1.610, 1.082e-4
-1.611, 1.104e-4
-1.612, 1.125e-4
-1.613, 1.145e-4
-1.614, 1.167e-4
-1.615, 1.191e-4
-1.616, 1.216e-4
-1.617, 1.239e-4
-1.618, 1.261e-4
-1.619, 1.285e-4
-1.620, 1.312e-4
-1.621, 1.339e-4
-1.622, 1.365e-4
-1.623, 1.390e-4
-1.624, 1.417e-4
-1.625, 1.446e-4
-1.626, 1.477e-4
-1.627, 1.505e-4
-1.628, 1.534e-4
-1.629, 1.564e-4
-1.630, 1.596e-4
-1.631, 1.630e-4
-1.632, 1.661e-4
-1.633, 1.692e-4
-1.634, 1.726e-4
-1.635, 1.761e-4
-1.636, 1.798e-4
-1.637, 1.833e-4
-1.638, 1.868e-4
-1.639, 1.905e-4
-1.640, 1.943e-4
-1.641, 1.984e-4
-1.642, 2.023e-4
-1.643, 2.060e-4
-1.644, 2.101e-4
-1.645, 2.143e-4
-1.646, 2.187e-4
-1.647, 2.229e-4
-1.648, 2.271e-4
-1.649, 2.315e-4
-1.650, 2.361e-4
-1.651, 2.409e-4
-1.652, 2.455e-4
-1.653, 2.500e-4
-1.654, 2.548e-4
-1.655, 2.599e-4
-1.656, 2.649e-4
-1.657, 2.700e-4
-1.658, 2.750e-4
-1.659, 2.801e-4
-1.660, 2.855e-4
-1.661, 2.910e-4
-1.662, 2.965e-4
-1.663, 3.019e-4
-1.664, 3.074e-4
-1.665, 3.132e-4
-1.666, 3.192e-4
-1.667, 3.251e-4
-1.668, 3.309e-4
-1.669, 3.368e-4
-1.670, 3.430e-4
-1.671, 3.495e-4
-1.672, 3.556e-4
-1.673, 3.618e-4
-1.674, 3.682e-4
-1.675, 3.749e-4
-1.676, 3.818e-4
-1.677, 3.885e-4
-1.678, 3.952e-4
-1.679, 4.021e-4
-1.680, 4.091e-4
-1.681, 4.165e-4
-1.682, 4.237e-4
-1.683, 4.307e-4
-1.684, 4.380e-4
-1.685, 4.454e-4
-1.686, 4.531e-4
-1.687, 4.608e-4
-1.688, 4.682e-4
-1.689, 4.761e-4
-1.690, 4.841e-4
-1.691, 4.923e-4
-1.692, 5.004e-4
-1.693, 5.084e-4
-1.694, 5.167e-4
-1.695, 5.253e-4
-1.696, 5.339e-4
-1.697, 5.426e-4
-1.698, 5.510e-4
-1.699, 5.596e-4
-1.700, 5.611e-4
-1.699, 5.565e-4
-1.698, 5.516e-4
-1.697, 5.462e-4
-1.696, 5.405e-4
-1.695, 5.350e-4
-1.694, 5.294e-4
-1.693, 5.235e-4
-1.692, 5.174e-4
-1.691, 5.113e-4
-1.690, 5.054e-4
-1.689, 4.995e-4
-1.688, 4.935e-4
-1.687, 4.873e-4
-1.686, 4.812e-4
-1.685, 4.754e-4
-1.684, 4.695e-4
-1.683, 4.634e-4
-1.682, 4.573e-4
-1.681, 4.513e-4
-1.680, 4.456e-4
-1.679, 4.399e-4
-1.678, 4.342e-4
-1.677, 4.283e-4
-1.676, 4.225e-4
-1.675, 4.171e-4
-1.674, 4.116e-4
-1.673, 4.059e-4
-1.672, 4.003e-4
-1.671, 3.946e-4
-1.670, 3.892e-4
-1.669, 3.841e-4
-1.668, 3.786e-4
-1.667, 3.730e-4
-1.666, 3.678e-4
-1.665, 3.627e-4
-1.664, 3.577e-4
-1.663, 3.526e-4
-1.662, 3.474e-4
-1.661, 3.423e-4
-1.660, 3.375e-4
-1.659, 3.328e-4
-1.658, 3.279e-4
-1.657, 3.229e-4
-1.656, 3.181e-4
-1.655, 3.135e-4
-1.654, 3.089e-4
-1.653, 3.043e-4
-1.652, 2.996e-4
-1.651, 2.950e-4
-1.650, 2.907e-4
-1.649, 2.864e-4
-1.648, 2.821e-4
-1.647, 2.777e-4
-1.646, 2.734e-4
-1.645, 2.694e-4
-1.644, 2.653e-4
-1.643, 2.612e-4
-1.642, 2.570e-4
-1.641, 2.530e-4
-1.640, 2.491e-4
-1.639, 2.453e-4
-1.638, 2.414e-4
-1.637, 2.375e-4
-1.636, 2.337e-4
-1.635, 2.300e-4
-1.634, 2.265e-4
-1.633, 2.229e-4
-1.632, 2.192e-4
-1.631, 2.157e-4
-1.630, 2.123e-4
-1.629, 2.091e-4
-1.628, 2.057e-4
-1.627, 2.022e-4
-1.626, 1.988e-4
-1.625, 1.958e-4
-1.624, 1.927e-4
-1.623, 1.896e-4
-1.622, 1.863e-4
-1.621, 1.832e-4
-1.620, 1.803e-4
-1.619, 1.775e-4
-1.618, 1.746e-4
-1.617, 1.715e-4
-1.616, 1.686e-4
-1.615, 1.659e-4
-1.614, 1.633e-4
-1.613, 1.606e-4
-1.612, 1.577e-4
-1.611, 1.550e-4
-1.610, 1.526e-4
-1.609, 1.501e-4
-1.608, 1.476e-4
-1.607, 1.450e-4
-1.606, 1.425e-4
-1.605, 1.402e-4
-1.604, 1.380e-4
-1.603, 1.356e-4
-1.602, 1.332e-4
-1.601, 1.308e-4
-1.600, 1.287e-4
-1.599, 1.268e-4
-1.598, 1.245e-4
-1.597, 1.223e-4
-1.596, 1.202e-4
-1.595, 1.182e-4
-1.594, 1.163e-4
-1.593, 1.143e-4
-1.592, 1.122e-4
-1.591, 1.102e-4
-1.590, 1.084e-4
-1.589, 1.068e-4
-1.588, 1.048e-4
-1.587, 1.029e-4
-1.586, 1.010e-4
-1.585, 9.941e-5
-1.584, 9.782e-5
-1.583, 9.611e-5
-1.582, 9.425e-5
-1.581, 9.253e-5
-1.580, 9.107e-5
-1.579, 8.964e-5
-1.578, 8.804e-5
-1.577, 8.633e-5
-1.576, 8.480e-5
-1.575, 8.337e-5
-1.574, 8.202e-5
-1.573, 8.058e-5
-1.572, 7.902e-5
-1.571, 7.752e-5
-1.570, 7.631e-5
-1.569, 7.509e-5
-1.568, 7.370e-5
-1.567, 7.226e-5
-1.566, 7.094e-5
-1.565, 6.980e-5
-1.564, 6.872e-5
-1.563, 6.745e-5
-1.562, 6.607e-5
-1.561, 6.485e-5
-1.560, 6.381e-5
-1.559, 6.281e-5
-1.558, 6.167e-5
-1.557, 6.042e-5
-1.556, 5.926e-5
-1.555, 5.831e-5
-1.554, 5.742e-5
-1.553, 5.634e-5
-1.552, 5.523e-5
-1.551, 5.414e-5
-1.550, 5.327e-5
-1.549, 5.248e-5
-1.548, 5.147e-5
-1.547, 5.041e-5
-1.546, 4.946e-5
-1.545, 4.867e-5
-1.544, 4.793e-5
-1.543, 4.704e-5
-1.542, 4.600e-5
-1.541, 4.514e-5
-1.540, 4.441e-5
-1.539, 4.373e-5
-1.538, 4.292e-5
-1.537, 4.197e-5
-1.536, 4.119e-5
-1.535, 4.051e-5
-1.534, 3.985e-5
-1.533, 3.913e-5
-1.532, 3.828e-5
-1.531, 3.749e-5
-1.530, 3.692e-5
-1.529, 3.636e-5
-1.528, 3.568e-5
-1.527, 3.490e-5
-1.526, 3.413e-5
-1.525, 3.364e-5
-1.524, 3.314e-5
-1.523, 3.249e-5
-1.522, 3.175e-5
-1.521, 3.109e-5
-1.520, 3.062e-5
-1.519, 3.017e-5
-1.518, 2.954e-5
-1.517, 2.885e-5
-1.516, 2.829e-5
-1.515, 2.783e-5
-1.514, 2.745e-5
-1.513, 2.690e-5
-1.512, 2.623e-5
-1.511, 2.569e-5
-1.510, 2.527e-5
-1.509, 2.493e-5
-1.508, 2.442e-5
-1.507, 2.380e-5
-1.506, 2.328e-5
-1.505, 2.294e-5
-1.504, 2.264e-5
-1.503, 2.214e-5
-1.502, 2.157e-5
-1.501, 2.111e-5
-1.500, 2.080e-5
-1.499, 2.051e-5
-1.498, 2.008e-5
-1.497, 1.955e-5
-1.496, 1.909e-5
-1.495, 1.882e-5
-1.494, 1.856e-5
-1.493, 1.818e-5
-1.492, 1.767e-5
-1.491, 1.726e-5
-1.490, 1.702e-5
-1.489, 1.677e-5
-1.488, 1.643e-5
-1.487, 1.596e-5
-1.486, 1.554e-5
-1.485, 1.528e-5
-1.484, 1.515e-5
-1.483, 1.478e-5
-1.482, 1.436e-5
-1.481, 1.395e-5
-1.480, 1.380e-5
-1.479, 1.362e-5
-1.478, 1.330e-5
-1.477, 1.289e-5
-1.476, 1.255e-5
-1.475, 1.241e-5
-1.474, 1.227e-5
-1.473, 1.195e-5
-1.472, 1.158e-5
-1.471, 1.126e-5
-1.470, 1.110e-5
-1.469, 1.100e-5
-1.468, 1.070e-5
-1.467, 1.033e-5
-1.466, 1.004e-5
-1.465, 9.883e-6
-1.464, 9.825e-6
-1.463, 9.562e-6
-1.462, 9.225e-6
-1.461, 8.959e-6
-1.460, 8.842e-6
-1.459, 8.706e-6
-1.458, 8.533e-6
-1.457, 8.173e-6
-1.456, 7.944e-6
-1.455, 7.870e-6
-1.454, 7.750e-6
-1.453, 7.550e-6
-1.452, 7.251e-6
-1.451, 7.008e-6
-1.450, 6.921e-6
-1.449, 6.866e-6
-1.448, 6.690e-6
-1.447, 6.361e-6
-1.446, 6.136e-6
-1.445, 6.096e-6
-1.444, 6.037e-6
-1.443, 5.843e-6
-1.442, 5.580e-6
-1.441, 5.324e-6
-1.440, 5.310e-6
-1.439, 5.312e-6
-1.438, 5.100e-6
-1.437, 4.858e-6
-1.436, 4.622e-6
-1.435, 4.601e-6
-1.434, 4.577e-6
-1.433, 4.408e-6
-1.432, 4.170e-6
-1.431, 3.991e-6
-1.430, 3.949e-6
-1.429, 3.932e-6
-1.428, 3.805e-6
-1.427, 3.533e-6
-1.426, 3.362e-6
-1.425, 3.356e-6
-1.424, 3.377e-6
-1.423, 3.233e-6
-1.422, 2.992e-6
-1.421, 2.818e-6
-1.420, 2.831e-6
-1.419, 2.809e-6
-1.418, 2.734e-6
-1.417, 2.460e-6
-1.416, 2.310e-6
-1.415, 2.336e-6
-1.414, 2.304e-6
-1.413, 2.223e-6
-1.412, 1.995e-6
-1.411, 1.817e-6
-1.410, 1.837e-6
-1.409, 1.848e-6
-1.408, 1.775e-6
-1.407, 1.558e-6
-1.406, 1.388e-6
-1.405, 1.454e-6
-1.404, 1.438e-6
-1.403, 1.344e-6
-1.402, 1.132e-6
-1.401, 9.834e-7
-1.400, 1.043e-6
-1.399, 1.091e-6
-1.398, 9.854e-7
-1.397, 7.901e-7
-1.396, 6.579e-7
-1.395, 6.865e-7
-1.394, 7.141e-7
-1.393, 6.322e-7
-1.392, 4.487e-7
-1.391, 3.165e-7
-1.390, 3.540e-7
-1.389, 4.073e-7
-1.388, 3.145e-7
-1.387, 1.350e-7
-1.386, 7.893e-10
-1.385, 5.111e-8
-1.384, 1.281e-7
-1.383, -5.130e-9
-1.382, -1.867e-7
-1.381, -2.755e-7
-1.380, -2.439e-7
-1.379, -2.103e-7
-1.378, -2.320e-7
-1.377, -4.333e-7
-1.376, -5.547e-7
-1.375, -4.895e-7
-1.374, -4.392e-7
-1.373, -4.925e-7
-1.372, -7.105e-7
-1.371, -8.368e-7
-1.370, -7.559e-7
-1.369, -7.184e-7
-1.368, -7.461e-7
-1.367, -9.237e-7
-1.366, -1.049e-6
-1.365, -1.003e-6
-1.364, -9.108e-7
-1.363, -1.001e-6
-1.362, -1.150e-6
-1.361, -1.255e-6
-1.360, -1.174e-6
-1.359, -1.122e-6
-1.358, -1.187e-6
-1.357, -1.356e-6
-1.356, -1.456e-6
-1.355, -1.412e-6
-1.354, -1.330e-6
-1.353, -1.381e-6
-1.352, -1.574e-6
-1.351, -1.635e-6
-1.350, -1.616e-6
-1.349, -1.507e-6
-1.348, -1.574e-6
-1.347, -1.740e-6
-1.346, -1.854e-6
-1.345, -1.774e-6
-1.344, -1.676e-6
-1.343, -1.752e-6
-1.342, -1.928e-6
-1.341, -2.004e-6
-1.340, -1.953e-6
-1.339, -1.872e-6
-1.338, -1.890e-6
-1.337, -2.085e-6
-1.336, -2.143e-6
-1.335, -2.110e-6
-1.334, -2.039e-6
-1.333, -2.067e-6
-1.332, -2.234e-6
-1.331, -2.327e-6
-1.330, -2.234e-6
-1.329, -2.177e-6
-1.328, -2.221e-6
-1.327, -2.380e-6
-1.326, -2.490e-6
-1.325, -2.369e-6
-1.324, -2.295e-6
-1.323, -2.368e-6
-1.322, -2.495e-6
-1.321, -2.622e-6
-1.320, -2.510e-6
-1.319, -2.430e-6
-1.318, -2.484e-6
-1.317, -2.628e-6
-1.316, -2.696e-6
-1.315, -2.638e-6
-1.314, -2.539e-6
-1.313, -2.596e-6
-1.312, -2.729e-6
-1.311, -2.816e-6
-1.310, -2.751e-6
-1.309, -2.645e-6
-1.308, -2.677e-6
-1.307, -2.853e-6
-1.306, -2.890e-6
-1.305, -2.859e-6
-1.304, -2.754e-6
-1.303, -2.778e-6
-1.302, -2.937e-6
-1.301, -3.002e-6
-1.300, -2.921e-6
-1.299, -2.857e-6
-1.298, -2.872e-6
-1.297, -3.005e-6
-1.296, -3.101e-6
-1.295, -2.998e-6
-1.294, -2.898e-6
-1.293, -2.943e-6
-1.292, -3.094e-6
-1.291, -3.192e-6
-1.290, -3.061e-6
-1.289, -2.995e-6
-1.288, -3.002e-6
-1.287, -3.132e-6
-1.286, -3.223e-6
-1.285, -3.147e-6
-1.284, -3.042e-6
-1.283, -3.083e-6
-1.282, -3.236e-6
-1.281, -3.309e-6
-1.280, -3.230e-6
-1.279, -3.102e-6
-1.278, -3.165e-6
-1.277, -3.280e-6
-1.276, -3.361e-6
-1.275, -3.277e-6
-1.274, -3.166e-6
-1.273, -3.201e-6
-1.272, -3.340e-6
-1.271, -3.418e-6
-1.270, -3.310e-6
-1.269, -3.188e-6
-1.268, -3.224e-6
-1.267, -3.388e-6
-1.266, -3.458e-6
-1.265, -3.371e-6
-1.264, -3.251e-6
-1.263, -3.276e-6
-1.262, -3.445e-6
-1.261, -3.496e-6
-1.260, -3.402e-6
-1.259, -3.312e-6
-1.258, -3.317e-6
-1.257, -3.478e-6
-1.256, -3.520e-6
-1.255, -3.443e-6
-1.254, -3.352e-6
-1.253, -3.378e-6
-1.252, -3.506e-6
-1.251, -3.581e-6
-1.250, -3.489e-6
-1.249, -3.352e-6
-1.248, -3.406e-6
-1.247, -3.534e-6
-1.246, -3.622e-6
-1.245, -3.473e-6
-1.244, -3.389e-6
-1.243, -3.437e-6
-1.242, -3.562e-6
-1.241, -3.664e-6
-1.240, -3.551e-6
-1.239, -3.418e-6
-1.238, -3.459e-6
-1.237, -3.594e-6
-1.236, -3.666e-6
-1.235, -3.581e-6
-1.234, -3.470e-6
-1.233, -3.494e-6
-1.232, -3.615e-6
-1.231, -3.667e-6
-1.230, -3.593e-6
-1.229, -3.543e-6
-1.228, -3.528e-6
-1.227, -3.675e-6
-1.226, -3.714e-6
-1.225, -3.643e-6
-1.224, -3.508e-6
-1.223, -3.524e-6
-1.222, -3.722e-6
-1.221, -3.764e-6
-1.220, -3.644e-6
-1.219, -3.545e-6
-1.218, -3.548e-6
-1.217, -3.735e-6
-1.216, -3.782e-6
-1.215, -3.676e-6
-1.214, -3.554e-6
-1.213, -3.589e-6
-1.212, -3.737e-6
-1.211, -3.830e-6
-1.210, -3.698e-6
-1.209, -3.604e-6
-1.208, -3.600e-6
-1.207, -3.739e-6
-1.206, -3.845e-6
-1.205, -3.715e-6
-1.204, -3.597e-6
-1.203, -3.661e-6
-1.202, -3.772e-6
-1.201, -3.867e-6
-1.200, -3.748e-6
-1.199, -3.615e-6
-1.198, -3.676e-6
-1.197, -3.779e-6
-1.196, -3.892e-6
-1.195, -3.761e-6
-1.194, -3.653e-6
-1.193, -3.692e-6
-1.192, -3.806e-6
-1.191, -3.900e-6
-1.190, -3.792e-6
-1.189, -3.690e-6
-1.188, -3.704e-6
-1.187, -3.859e-6
-1.186, -3.940e-6
-1.185, -3.836e-6
-1.184, -3.697e-6
-1.183, -3.699e-6
-1.182, -3.879e-6
-1.181, -3.952e-6
-1.180, -3.844e-6
-1.179, -3.727e-6
-1.178, -3.782e-6
-1.177, -3.885e-6
-1.176, -3.961e-6
-1.175, -3.860e-6
-1.174, -3.770e-6
-1.173, -3.760e-6
-1.172, -3.883e-6
-1.171, -3.996e-6
-1.170, -3.873e-6
-1.169, -3.769e-6
-1.168, -3.783e-6
-1.167, -3.911e-6
-1.166, -4.018e-6
-1.165, -3.869e-6
-1.164, -3.775e-6
-1.163, -3.816e-6
-1.162, -3.939e-6
-1.161, -4.034e-6
-1.160, -3.901e-6
-1.159, -3.823e-6
-1.158, -3.820e-6
-1.157, -3.962e-6
-1.156, -4.037e-6
-1.155, -3.949e-6
-1.154, -3.794e-6
-1.153, -3.845e-6
-1.152, -3.967e-6
-1.151, -4.075e-6
-1.150, -3.969e-6
-1.149, -3.804e-6
-1.148, -3.872e-6
-1.147, -3.997e-6
-1.146, -4.065e-6
-1.145, -3.973e-6
-1.144, -3.832e-6
-1.143, -3.888e-6
-1.142, -4.036e-6
-1.141, -4.112e-6
-1.140, -3.972e-6
-1.139, -3.897e-6
-1.138, -3.883e-6
-1.137, -4.031e-6
-1.136, -4.145e-6
-1.135, -4.018e-6
-1.134, -3.907e-6
-1.133, -3.930e-6
-1.132, -4.053e-6
-1.131, -4.164e-6
-1.130, -4.035e-6
-1.129, -3.938e-6
-1.128, -3.961e-6
-1.127, -4.098e-6
-1.126, -4.213e-6
-1.125, -4.074e-6
-1.124, -3.952e-6
-1.123, -4.002e-6
-1.122, -4.115e-6
-1.121, -4.229e-6
-1.120, -4.105e-6
-1.119, -3.994e-6
-1.118, -4.030e-6
-1.117, -4.149e-6
-1.116, -4.245e-6
-1.115, -4.152e-6
-1.114, -4.026e-6
-1.113, -4.055e-6
-1.112, -4.169e-6
-1.111, -4.285e-6
-1.110, -4.192e-6
-1.109, -4.054e-6
-1.108, -4.085e-6
-1.107, -4.239e-6
-1.106, -4.324e-6
-1.105, -4.220e-6
-1.104, -4.097e-6
-1.103, -4.145e-6
-1.102, -4.296e-6
-1.101, -4.365e-6
-1.100, -4.285e-6
-1.099, -4.160e-6
-1.098, -4.155e-6
-1.097, -4.317e-6
-1.096, -4.415e-6
-1.095, -4.320e-6
-1.094, -4.191e-6
-1.093, -4.213e-6
-1.092, -4.357e-6
-1.091, -4.482e-6
-1.090, -4.363e-6
-1.089, -4.265e-6
-1.088, -4.278e-6
-1.087, -4.420e-6
-1.086, -4.531e-6
-1.085, -4.439e-6
-1.084, -4.302e-6
-1.083, -4.335e-6
-1.082, -4.492e-6
-1.081, -4.592e-6
-1.080, -4.463e-6
-1.079, -4.353e-6
-1.078, -4.430e-6
-1.077, -4.566e-6
-1.076, -4.663e-6
-1.075, -4.580e-6
-1.074, -4.422e-6
-1.073, -4.496e-6
-1.072, -4.616e-6
-1.071, -4.737e-6
-1.070, -4.643e-6
-1.069, -4.505e-6
-1.068, -4.544e-6
-1.067, -4.699e-6
-1.066, -4.817e-6
-1.065, -4.700e-6
-1.064, -4.573e-6
-1.063, -4.632e-6
-1.062, -4.810e-6
-1.061, -4.857e-6
-1.060, -4.771e-6
-1.059, -4.681e-6
-1.058, -4.683e-6
-1.057, -4.884e-6
-1.056, -4.966e-6
-1.055, -4.845e-6
-1.054, -4.753e-6
-1.053, -4.776e-6
-1.052, -4.944e-6
-1.051, -5.073e-6
-1.050, -4.990e-6
-1.049, -4.859e-6
-1.048, -4.875e-6
-1.047, -5.057e-6
-1.046, -5.178e-6
-1.045, -5.072e-6
-1.044, -4.945e-6
-1.043, -5.036e-6
-1.042, -5.168e-6
-1.041, -5.281e-6
-1.040, -5.201e-6
-1.039, -5.049e-6
-1.038, -5.108e-6
-1.037, -5.259e-6
-1.036, -5.376e-6
-1.035, -5.301e-6
-1.034, -5.143e-6
-1.033, -5.218e-6
-1.032, -5.367e-6
-1.031, -5.484e-6
-1.030, -5.430e-6
-1.029, -5.275e-6
-1.028, -5.303e-6
-1.027, -5.505e-6
-1.026, -5.594e-6
-1.025, -5.551e-6
-1.024, -5.403e-6
-1.023, -5.435e-6
-1.022, -5.603e-6
-1.021, -5.717e-6
-1.020, -5.634e-6
-1.019, -5.515e-6
-1.018, -5.538e-6
-1.017, -5.723e-6
-1.016, -5.836e-6
-1.015, -5.747e-6
-1.014, -5.615e-6
-1.013, -5.617e-6
-1.012, -5.804e-6
-1.011, -5.938e-6
-1.010, -5.845e-6
-1.009, -5.742e-6
-1.008, -5.736e-6
-1.007, -5.879e-6
-1.006, -6.016e-6
-1.005, -5.940e-6
-1.004, -5.784e-6
-1.003, -5.830e-6
-1.002, -5.973e-6
-1.001, -6.118e-6
-1.000, -2.939e-6
-1.001, -1.765e-6
-1.002, -1.358e-6
-1.003, -1.223e-6
-1.004, -1.092e-6
-1.005, -7.855e-7
-1.006, -4.600e-7
-1.007, -2.962e-7
-1.008, -3.199e-7
-1.009, -2.952e-7
-1.010, -5.051e-8
-1.011, 1.833e-7
-1.012, 2.672e-7
-1.013, 2.484e-7
-1.014, 2.228e-7
-1.015, 4.171e-7
-1.016, 6.519e-7
-1.017, 7.013e-7
-1.018, 6.460e-7
-1.019, 5.770e-7
-1.020, 7.516e-7
-1.021, 9.815e-7
-1.022, 1.001e-6
-1.023, 9.420e-7
-1.024, 8.818e-7
-1.025, 1.018e-6
-1.026, 1.251e-6
-1.027, 1.242e-6
-1.028, 1.137e-6
-1.029, 1.105e-6
-1.030, 1.201e-6
-1.031, 1.414e-6
-1.032, 1.443e-6
-1.033, 1.309e-6
-1.034, 1.290e-6
-1.035, 1.356e-6
-1.036, 1.564e-6
-1.037, 1.564e-6
-1.038, 1.482e-6
-1.039, 1.392e-6
-1.040, 1.500e-6
-1.041, 1.677e-6
-1.042, 1.696e-6
-1.043, 1.582e-6
-1.044, 1.509e-6
-1.045, 1.613e-6
-1.046, 1.780e-6
-1.047, 1.818e-6
-1.048, 1.665e-6
-1.049, 1.588e-6
-1.050, 1.711e-6
-1.051, 1.880e-6
-1.052, 1.889e-6
-1.053, 1.730e-6
-1.054, 1.691e-6
-1.055, 1.792e-6
-1.056, 1.936e-6
-1.057, 1.949e-6
-1.058, 1.840e-6
-1.059, 1.733e-6
-1.060, 1.846e-6
-1.061, 2.003e-6
-1.062, 2.014e-6
-1.063, 1.892e-6
-1.064, 1.795e-6
-1.065, 1.876e-6
-1.066, 2.080e-6
-1.067, 2.067e-6
-1.068, 1.959e-6
-1.069, 1.862e-6
-1.070, 1.940e-6
-1.071, 2.125e-6
-1.072, 2.134e-6
-1.073, 2.010e-6
-1.074, 1.917e-6
-1.075, 2.009e-6
-1.076, 2.175e-6
-1.077, 2.191e-6
-1.078, 2.054e-6
-1.079, 1.965e-6
-1.080, 2.057e-6
-1.081, 2.189e-6
-1.082, 2.231e-6
-1.083, 2.057e-6
-1.084, 1.987e-6
-1.085, 2.074e-6
-1.086, 2.237e-6
-1.087, 2.270e-6
-1.088, 2.134e-6
-1.089, 2.051e-6
-1.090, 2.151e-6
-1.091, 2.283e-6
-1.092, 2.331e-6
-1.093, 2.211e-6
-1.094, 2.094e-6
-1.095, 2.173e-6
-1.096, 2.349e-6
-1.097, 2.353e-6
-1.098, 2.269e-6
-1.099, 2.124e-6
-1.100, 2.191e-6
-1.101, 2.376e-6
-1.102, 2.398e-6
-1.103, 2.288e-6
-1.104, 2.172e-6
-1.105, 2.260e-6
-1.106, 2.438e-6
-1.107, 2.425e-6
-1.108, 2.353e-6
-1.109, 2.230e-6
-1.110, 2.300e-6
-1.111, 2.476e-6
-1.112, 2.512e-6
-1.113, 2.346e-6
-1.114, 2.262e-6
-1.115, 2.348e-6
-1.116, 2.512e-6
-1.117, 2.547e-6
-1.118, 2.416e-6
-1.119, 2.338e-6
-1.120, 2.362e-6
-1.121, 2.571e-6
-1.122, 2.577e-6
-1.123, 2.453e-6
-1.124, 2.359e-6
-1.125, 2.440e-6
-1.126, 2.572e-6
-1.127, 2.627e-6
-1.128, 2.514e-6
-1.129, 2.413e-6
-1.130, 2.491e-6
-1.131, 2.652e-6
-1.132, 2.687e-6
-1.133, 2.555e-6
-1.134, 2.488e-6
-1.135, 2.544e-6
-1.136, 2.680e-6
-1.137, 2.747e-6
-1.138, 2.622e-6
-1.139, 2.502e-6
-1.140, 2.583e-6
-1.141, 2.741e-6
-1.142, 2.783e-6
-1.143, 2.657e-6
-1.144, 2.573e-6
-1.145, 2.602e-6
-1.146, 2.791e-6
-1.147, 2.853e-6
-1.148, 2.719e-6
-1.149, 2.635e-6
-1.150, 2.675e-6
-1.151, 2.834e-6
-1.152, 2.908e-6
-1.153, 2.779e-6
-1.154, 2.690e-6
-1.155, 2.748e-6
-1.156, 2.887e-6
-1.157, 2.956e-6
-1.158, 2.814e-6
-1.159, 2.726e-6
-1.160, 2.768e-6
-1.161, 2.934e-6
-1.162, 3.007e-6
-1.163, 2.851e-6
-1.164, 2.731e-6
-1.165, 2.839e-6
-1.166, 2.988e-6
-1.167, 3.062e-6
-1.168, 2.906e-6
-1.169, 2.805e-6
-1.170, 2.873e-6
-1.171, 3.007e-6
-1.172, 3.098e-6
-1.173, 2.976e-6
-1.174, 2.854e-6
-1.175, 2.910e-6
-1.176, 3.064e-6
-1.177, 3.160e-6
-1.178, 3.036e-6
-1.179, 2.902e-6
-1.180, 2.980e-6
-1.181, 3.120e-6
-1.182, 3.211e-6
-1.183, 3.081e-6
-1.184, 2.962e-6
-1.185, 3.002e-6
-1.186, 3.177e-6
-1.187, 3.236e-6
-1.188, 3.136e-6
-1.189, 3.016e-6
-1.190, 3.057e-6
-1.191, 3.224e-6
-1.192, 3.306e-6
-1.193, 3.160e-6
-1.194, 3.060e-6
-1.195, 3.099e-6
-1.196, 3.257e-6
-1.197, 3.353e-6
-1.198, 3.226e-6
-1.199, 3.111e-6
-1.200, 3.131e-6
-1.201, 3.312e-6
-1.202, 3.395e-6
-1.203, 3.268e-6
-1.204, 3.164e-6
-1.205, 3.192e-6
-1.206, 3.351e-6
-1.207, 3.464e-6
-1.208, 3.318e-6
-1.209, 3.192e-6
-1.210, 3.251e-6
-1.211, 3.398e-6
-1.212, 3.484e-6
-1.213, 3.367e-6
-1.214, 3.271e-6
-1.215, 3.297e-6
-1.216, 3.427e-6
-1.217, 3.570e-6
-1.218, 3.452e-6
-1.219, 3.301e-6
-1.220, 3.330e-6
-1.221, 3.512e-6
-1.222, 3.590e-6
-1.223, 3.491e-6
-1.224, 3.355e-6
-1.225, 3.388e-6
-1.226, 3.544e-6
-1.227, 3.627e-6
-1.228, 3.566e-6
-1.229, 3.440e-6
-1.230, 3.436e-6
-1.231, 3.593e-6
-1.232, 3.706e-6
-1.233, 3.585e-6
-1.234, 3.475e-6
-1.235, 3.483e-6
-1.236, 3.669e-6
-1.237, 3.743e-6
-1.238, 3.622e-6
-1.239, 3.507e-6
-1.240, 3.535e-6
-1.241, 3.682e-6
-1.242, 3.797e-6
-1.243, 3.686e-6
-1.244, 3.555e-6
-1.245, 3.583e-6
-1.246, 3.746e-6
-1.247, 3.842e-6
-1.248, 3.753e-6
-1.249, 3.616e-6
-1.250, 3.637e-6
-1.251, 3.771e-6
-1.252, 3.880e-6
-1.253, 3.800e-6
-1.254, 3.648e-6
-1.255, 3.701e-6
-1.256, 3.813e-6
-1.257, 3.930e-6
-1.258, 3.849e-6
-1.259, 3.702e-6
-1.260, 3.717e-6
-1.261, 3.897e-6
-1.262, 3.968e-6
-1.263, 3.889e-6
-1.264, 3.745e-6
-1.265, 3.769e-6
-1.266, 3.923e-6
-1.267, 4.021e-6
-1.268, 3.973e-6
-1.269, 3.776e-6
-1.270, 3.832e-6
-1.271, 3.988e-6
-1.272, 4.073e-6
-1.273, 3.991e-6
-1.274, 3.890e-6
-1.275, 3.853e-6
-1.276, 4.018e-6
-1.277, 4.113e-6
-1.278, 4.072e-6
-1.279, 3.930e-6
-1.280, 3.918e-6
-1.281, 4.076e-6
-1.282, 4.188e-6
-1.283, 4.112e-6
-1.284, 3.993e-6
-1.285, 3.987e-6
-1.286, 4.131e-6
-1.287, 4.237e-6
-1.288, 4.146e-6
-1.289, 4.030e-6
-1.290, 4.035e-6
-1.291, 4.192e-6
-1.292, 4.275e-6
-1.293, 4.240e-6
-1.294, 4.122e-6
-1.295, 4.093e-6
-1.296, 4.253e-6
-1.297, 4.356e-6
-1.298, 4.283e-6
-1.299, 4.134e-6
-1.300, 4.146e-6
-1.301, 4.292e-6
-1.302, 4.403e-6
-1.303, 4.354e-6
-1.304, 4.204e-6
-1.305, 4.197e-6
-1.306, 4.371e-6
-1.307, 4.473e-6
-1.308, 4.427e-6
-1.309, 4.289e-6
-1.310, 4.283e-6
-1.311, 4.429e-6
-1.312, 4.555e-6
-1.313, 4.507e-6
-1.314, 4.378e-6
-1.315, 4.336e-6
-1.316, 4.491e-6
-1.317, 4.623e-6
-1.318, 4.589e-6
-1.319, 4.468e-6
-1.320, 4.447e-6
-1.321, 4.578e-6
-1.322, 4.705e-6
-1.323, 4.658e-6
-1.324, 4.511e-6
-1.325, 4.528e-6
-1.326, 4.676e-6
-1.327, 4.803e-6
-1.328, 4.724e-6
-1.329, 4.602e-6
-1.330, 4.605e-6
-1.331, 4.743e-6
-1.332, 4.883e-6
-1.333, 4.853e-6
-1.334, 4.689e-6
-1.335, 4.703e-6
-1.336, 4.843e-6
-1.337, 4.975e-6
-1.338, 4.958e-6
-1.339, 4.792e-6
-1.340, 4.806e-6
-1.341, 4.933e-6
-1.342, 5.070e-6
-1.343, 5.072e-6
-1.344, 4.926e-6
-1.345, 4.933e-6
-1.346, 5.078e-6
-1.347, 5.175e-6
-1.348, 5.205e-6
-1.349, 5.057e-6
-1.350, 5.026e-6
-1.351, 5.216e-6
-1.352, 5.321e-6
-1.353, 5.283e-6
-1.354, 5.196e-6
-1.355, 5.154e-6
-1.356, 5.329e-6
-1.357, 5.479e-6
-1.358, 5.455e-6
-1.359, 5.330e-6
-1.360, 5.316e-6
-1.361, 5.461e-6
-1.362, 5.633e-6
-1.363, 5.578e-6
-1.364, 5.478e-6
-1.365, 5.478e-6
-1.366, 5.623e-6
-1.367, 5.819e-6
-1.368, 5.757e-6
-1.369, 5.653e-6
-1.370, 5.682e-6
-1.371, 5.809e-6
-1.372, 5.964e-6
-1.373, 5.952e-6
-1.374, 5.850e-6
-1.375, 5.854e-6
-1.376, 5.977e-6
-1.377, 6.160e-6
-1.378, 6.166e-6
-1.379, 6.054e-6
-1.380, 6.071e-6
-1.381, 6.216e-6
-1.382, 6.378e-6
-1.383, 6.401e-6
-1.384, 6.260e-6
-1.385, 6.263e-6
-1.386, 6.479e-6
-1.387, 6.609e-6
-1.388, 6.617e-6
-1.389, 6.526e-6
-1.390, 6.527e-6
-1.391, 6.702e-6
-1.392, 6.851e-6
-1.393, 6.882e-6
-1.394, 6.767e-6
-1.395, 6.768e-6
-1.396, 6.986e-6
-1.397, 7.144e-6
-1.398, 7.156e-6
-1.399, 7.105e-6
-1.400, 7.048e-6
-1.401, 7.236e-6
-1.402, 7.454e-6
-1.403, 7.461e-6
-1.404, 7.372e-6
-1.405, 7.397e-6
-1.406, 7.577e-6
-1.407, 7.760e-6
-1.408, 7.783e-6
-1.409, 7.699e-6
-1.410, 7.729e-6
-1.411, 7.910e-6
-1.412, 8.103e-6
-1.413, 8.155e-6
-1.414, 8.069e-6
-1.415, 8.104e-6
-1.416, 8.255e-6
-1.417, 8.467e-6
-1.418, 8.528e-6
-1.419, 8.445e-6
-1.420, 8.468e-6
-1.421, 8.669e-6
-1.422, 8.858e-6
-1.423, 8.960e-6
-1.424, 8.863e-6
-1.425, 8.885e-6
-1.426, 9.089e-6
-1.427, 9.299e-6
-1.428, 9.369e-6
-1.429, 9.323e-6
-1.430, 9.333e-6
-1.431, 9.534e-6
-1.432, 9.757e-6
-1.433, 9.830e-6
-1.434, 9.798e-6
-1.435, 9.814e-6
-1.436, 1.003e-5
-1.437, 1.027e-5
-1.438, 1.030e-5
-1.439, 1.029e-5
-1.440, 1.029e-5
-1.441, 1.053e-5
-1.442, 1.079e-5
-1.443, 1.087e-5
-1.444, 1.085e-5
-1.445, 1.086e-5
-1.446, 1.109e-5
-1.447, 1.134e-5
-1.448, 1.143e-5
-1.449, 1.140e-5
-1.450, 1.144e-5
-1.451, 1.166e-5
-1.452, 1.191e-5
-1.453, 1.203e-5
-1.454, 1.201e-5
-1.455, 1.203e-5
-1.456, 1.227e-5
-1.457, 1.253e-5
-1.458, 1.264e-5
-1.459, 1.266e-5
-1.460, 1.269e-5
-1.461, 1.292e-5
-1.462, 1.320e-5
-1.463, 1.334e-5
-1.464, 1.332e-5
-1.465, 1.340e-5
-1.466, 1.363e-5
-1.467, 1.389e-5
-1.468, 1.405e-5
-1.469, 1.405e-5
-1.470, 1.409e-5
-1.471, 1.437e-5
-1.472, 1.466e-5
-1.473, 1.479e-5
-1.474, 1.483e-5
-1.475, 1.487e-5
-1.476, 1.516e-5
-1.477, 1.548e-5
-1.478, 1.561e-5
-1.479, 1.567e-5
-1.480, 1.570e-5
-1.481, 1.598e-5
-1.482, 1.631e-5
-1.483, 1.648e-5
-1.484, 1.652e-5
-1.485, 1.663e-5
-1.486, 1.688e-5
-1.487, 1.725e-5
-1.488, 1.741e-5
-1.489, 1.745e-5
-1.490, 1.756e-5
-1.491, 1.785e-5
-1.492, 1.820e-5
-1.493, 1.841e-5
-1.494, 1.848e-5
-1.495, 1.858e-5
-1.496, 1.887e-5
-1.497, 1.925e-5
-1.498, 1.950e-5
-1.499, 1.954e-5
-1.500, 1.968e-5
-1.501, 2.000e-5
-1.502, 2.034e-5
-1.503, 2.063e-5
-1.504, 2.073e-5
-1.505, 2.086e-5
-1.506, 2.120e-5
-1.507, 2.159e-5
-1.508, 2.186e-5
-1.509, 2.199e-5
-1.510, 2.215e-5
-1.511, 2.252e-5
-1.512, 2.293e-5
-1.513, 2.319e-5
-1.514, 2.339e-5
-1.515, 2.353e-5
-1.516, 2.391e-5
-1.517, 2.437e-5
-1.518, 2.468e-5
-1.519, 2.488e-5
-1.520, 2.506e-5
-1.521, 2.545e-5
-1.522, 2.594e-5
-1.523, 2.628e-5
-1.524, 2.648e-5
-1.525, 2.674e-5
-1.526, 2.713e-5
-1.527, 2.765e-5
-1.528, 2.803e-5
-1.529, 2.825e-5
-1.530, 2.855e-5
-1.531, 2.898e-5
-1.532, 2.954e-5
-1.533, 2.994e-5
-1.534, 3.022e-5
-1.535, 3.052e-5
-1.536, 3.098e-5
-1.537, 3.157e-5
-1.538, 3.205e-5
-1.539, 3.237e-5
-1.540, 3.271e-5
-1.541, 3.321e-5
-1.542, 3.386e-5
-1.543, 3.437e-5
-1.544, 3.475e-5
-1.545, 3.512e-5
-1.546, 3.570e-5
-1.547, 3.637e-5
-1.548, 3.695e-5
-1.549, 3.734e-5
-1.550, 3.779e-5
-1.551, 3.844e-5
-1.552, 3.917e-5
-1.553, 3.979e-5
-1.554, 4.026e-5
-1.555, 4.075e-5
-1.556, 4.145e-5
-1.557, 4.223e-5
-1.558, 4.296e-5
-1.559, 4.351e-5
-1.560, 4.406e-5
-1.561, 4.480e-5
-1.562, 4.572e-5
-1.563, 4.643e-5
-1.564, 4.704e-5
-1.565, 4.771e-5
-1.566, 4.852e-5
-1.567, 4.949e-5
-1.568, 5.032e-5
-1.569, 5.105e-5
-1.570, 5.178e-5
-1.571, 5.268e-5
-1.572, 5.374e-5
-1.573, 5.469e-5
-1.574, 5.548e-5
-1.575, 5.634e-5
-1.576, 5.729e-5
-1.577, 5.845e-5
-1.578, 5.950e-5
-1.579, 6.040e-5
-1.580, 6.136e-5
-1.581, 6.247e-5
-1.582, 6.371e-5
-1.583, 6.491e-5
-1.584, 6.592e-5
-1.585, 6.700e-5
-1.586, 6.822e-5
-1.587, 6.963e-5
-1.588, 7.093e-5
-1.589, 7.208e-5
-1.590, 7.328e-5
-1.591, 7.463e-5
-1.592, 7.617e-5
-1.593, 7.760e-5
-1.594, 7.894e-5
-1.595, 8.024e-5
-1.596, 8.180e-5
-1.597, 8.346e-5
-1.598, 8.511e-5
-1.599, 8.656e-5
-1.600, 8.804e-5
-1.601, 8.971e-5
-1.602, 9.159e-5
-1.603, 9.335e-5
-1.604, 9.503e-5
-1.605, 9.665e-5
-1.606, 9.852e-5
-1.607, 1.006e-4
-1.608, 1.026e-4
-1.609, 1.044e-4
-1.610, 1.063e-4
-1.611, 1.083e-4
-1.612, 1.105e-4
-1.613, 1.127e-4
-1.614, 1.147e-4
-1.615, 1.168e-4
-1.616, 1.191e-4
-1.617, 1.215e-4
-1.618, 1.240e-4
-1.619, 1.262e-4
-1.620, 1.285e-4
-1.621, 1.310e-4
-1.622, 1.337e-4
-1.623, 1.364e-4
-1.624, 1.389e-4
-1.625, 1.415e-4
-1.626, 1.443e-4
-1.627, 1.472e-4
-1.628, 1.502e-4
-1.629, 1.530e-4
-1.630, 1.558e-4
-1.631, 1.589e-4
-1.632, 1.621e-4
-1.633, 1.653e-4
-1.634, 1.684e-4
-1.635, 1.715e-4
-1.636, 1.749e-4
-1.637, 1.784e-4
-1.638, 1.821e-4
-1.639, 1.855e-4
-1.640, 1.889e-4
-1.641, 1.926e-4
-1.642, 1.965e-4
-1.643, 2.004e-4
-1.644, 2.041e-4
-1.645, 2.079e-4
-1.646, 2.118e-4
-1.647, 2.160e-4
-1.648, 2.203e-4
-1.649, 2.243e-4
-1.650, 2.285e-4
-1.651, 2.328e-4
-1.652, 2.374e-4
-1.653, 2.420e-4
-1.654, 2.464e-4
-1.655, 2.509e-4
-1.656, 2.555e-4
-1.657, 2.605e-4
-1.658, 2.656e-4
-1.659, 2.703e-4
-1.660, 2.752e-4
-1.661, 2.803e-4
-1.662, 2.856e-4
-1.663, 2.909e-4
-1.664, 2.962e-4
-1.665, 3.015e-4
-1.666, 3.070e-4
-1.667, 3.127e-4
-1.668, 3.185e-4
-1.669, 3.242e-4
-1.670, 3.298e-4
-1.671, 3.358e-4
-1.672, 3.419e-4
-1.673, 3.482e-4
-1.674, 3.543e-4
-1.675, 3.603e-4
-1.676, 3.666e-4
-1.677, 3.732e-4
-1.678, 3.799e-4
-1.679, 3.865e-4
-1.680, 3.931e-4
-1.681, 3.999e-4
-1.682, 4.068e-4
-1.683, 4.139e-4
-1.684, 4.208e-4
-1.685, 4.278e-4
-1.686, 4.350e-4
-1.687, 4.423e-4
-1.688, 4.499e-4
-1.689, 4.574e-4
-1.690, 4.649e-4
-1.691, 4.726e-4
-1.692, 4.806e-4
-1.693, 4.886e-4
-1.694, 4.965e-4
-1.695, 5.044e-4
-1.696, 5.125e-4
-1.697, 5.210e-4
-1.698, 5.294e-4
-1.699, 5.377e-4
-1.700, 5.387e-4
-1.699, 5.339e-4
-1.698, 5.292e-4
-1.697, 5.241e-4
-1.696, 5.186e-4
-1.695, 5.128e-4
-1.694, 5.070e-4
-1.693, 5.015e-4
-1.692, 4.958e-4
-1.691, 4.898e-4
-1.690, 4.837e-4
-1.689, 4.778e-4
-1.688, 4.721e-4
-1.687, 4.664e-4
-1.686, 4.606e-4
-1.685, 4.545e-4
-1.684, 4.487e-4
-1.683, 4.430e-4
-1.682, 4.375e-4
-1.681, 4.317e-4
-1.680, 4.259e-4
-1.679, 4.202e-4
-1.678, 4.147e-4
-1.677, 4.093e-4
-1.676, 4.037e-4
-1.675, 3.980e-4
-1.674, 3.925e-4
-1.673, 3.873e-4
-1.672, 3.821e-4
-1.671, 3.766e-4
-1.670, 3.711e-4
-1.669, 3.659e-4
-1.668, 3.607e-4
-1.667, 3.558e-4
-1.666, 3.507e-4
-1.665, 3.454e-4
-1.664, 3.404e-4
-1.663, 3.356e-4
-1.662, 3.307e-4
-1.661, 3.258e-4
-1.660, 3.208e-4
-1.659, 3.160e-4
-1.658, 3.114e-4
-1.657, 3.069e-4
-1.656, 3.022e-4
-1.655, 2.975e-4
-1.654, 2.930e-4
-1.653, 2.887e-4
-1.652, 2.844e-4
-1.651, 2.801e-4
-1.650, 2.756e-4
-1.649, 2.713e-4
-1.648, 2.673e-4
-1.647, 2.632e-4
-1.646, 2.591e-4
-1.645, 2.548e-4
-1.644, 2.509e-4
-1.643, 2.470e-4
-1.642, 2.432e-4
-1.641, 2.394e-4
-1.640, 2.354e-4
-1.639, 2.315e-4
-1.638, 2.279e-4
-1.637, 2.244e-4
-1.636, 2.207e-4
-1.635, 2.170e-4
-1.634, 2.135e-4
-1.633, 2.102e-4
-1.632, 2.069e-4
-1.631, 2.034e-4
-1.630, 1.999e-4
-1.629, 1.967e-4
-1.628, 1.935e-4
-1.627, 1.905e-4
-1.626, 1.873e-4
-1.625, 1.840e-4
-1.624, 1.809e-4
-1.623, 1.780e-4
-1.622, 1.752e-4
-1.621, 1.722e-4
-1.620, 1.692e-4
-1.619, 1.662e-4
-1.618, 1.636e-4
-1.617, 1.609e-4
-1.616, 1.582e-4
-1.615, 1.553e-4
-1.614, 1.527e-4
-1.613, 1.501e-4
-1.612, 1.477e-4
-1.611, 1.452e-4
-1.610, 1.425e-4
-1.609, 1.400e-4
-1.608, 1.377e-4
-1.607, 1.355e-4
-1.606, 1.331e-4
-1.605, 1.307e-4
-1.604, 1.283e-4
-1.603, 1.262e-4
-1.602, 1.242e-4
-1.601, 1.220e-4
-1.600, 1.198e-4
-1.599, 1.177e-4
-1.598, 1.157e-4
-1.597, 1.138e-4
-1.596, 1.118e-4
-1.595, 1.097e-4
-1.594, 1.077e-4
-1.593, 1.059e-4
-1.592, 1.042e-4
-1.591, 1.024e-4
-1.590, 1.004e-4
-1.589, 9.859e-5
-1.588, 9.694e-5
-1.587, 9.530e-5
-1.586, 9.360e-5
-1.585, 9.176e-5
-1.584, 9.006e-5
-1.583, 8.861e-5
-1.582, 8.710e-5
-1.581, 8.554e-5
-1.580, 8.382e-5
-1.579, 8.226e-5
-1.578, 8.092e-5
-1.577, 7.958e-5
-1.576, 7.815e-5
-1.575, 7.662e-5
-1.574, 7.512e-5
-1.573, 7.390e-5
-1.572, 7.269e-5
-1.571, 7.133e-5
-1.570, 6.993e-5
-1.569, 6.855e-5
-1.568, 6.743e-5
-1.567, 6.637e-5
-1.566, 6.509e-5
-1.565, 6.381e-5
-1.564, 6.256e-5
-1.563, 6.152e-5
-1.562, 6.052e-5
-1.561, 5.940e-5
-1.560, 5.819e-5
-1.559, 5.701e-5
-1.558, 5.608e-5
-1.557, 5.523e-5
-1.556, 5.420e-5
-1.555, 5.304e-5
-1.554, 5.197e-5
-1.553, 5.111e-5
-1.552, 5.032e-5
-1.551, 4.940e-5
-1.550, 4.832e-5
-1.549, 4.735e-5
-1.548, 4.658e-5
-1.547, 4.584e-5
-1.546, 4.500e-5
-1.545, 4.402e-5
-1.544, 4.309e-5
-1.543, 4.242e-5
-1.542, 4.177e-5
-1.541, 4.097e-5
-1.540, 4.008e-5
-1.539, 3.924e-5
-1.538, 3.863e-5
-1.537, 3.804e-5
-1.536, 3.728e-5
-1.535, 3.650e-5
-1.534, 3.567e-5
-1.533, 3.512e-5
-1.532, 3.461e-5
-1.531, 3.394e-5
-1.530, 3.316e-5
-1.529, 3.244e-5
-1.528, 3.193e-5
-1.527, 3.150e-5
-1.526, 3.085e-5
-1.525, 3.016e-5
-1.524, 2.948e-5
-1.523, 2.901e-5
-1.522, 2.861e-5
-1.521, 2.806e-5
-1.520, 2.742e-5
-1.519, 2.677e-5
-1.518, 2.634e-5
-1.517, 2.597e-5
-1.516, 2.548e-5
-1.515, 2.486e-5
-1.514, 2.425e-5
-1.513, 2.386e-5
-1.512, 2.357e-5
-1.511, 2.312e-5
-1.510, 2.254e-5
-1.509, 2.201e-5
-1.508, 2.168e-5
-1.507, 2.138e-5
-1.506, 2.095e-5
-1.505, 2.041e-5
-1.504, 1.991e-5
-1.503, 1.964e-5
-1.502, 1.935e-5
-1.501, 1.900e-5
-1.500, 1.850e-5
-1.499, 1.799e-5
-1.498, 1.773e-5
-1.497, 1.751e-5
-1.496, 1.717e-5
-1.495, 1.672e-5
-1.494, 1.623e-5
-1.493, 1.602e-5
-1.492, 1.585e-5
-1.491, 1.551e-5
-1.490, 1.508e-5
-1.489, 1.469e-5
-1.488, 1.444e-5
-1.487, 1.430e-5
-1.486, 1.400e-5
-1.485, 1.357e-5
-1.484, 1.319e-5
-1.483, 1.299e-5
-1.482, 1.286e-5
-1.481, 1.260e-5
-1.480, 1.223e-5
-1.479, 1.186e-5
-1.478, 1.168e-5
-1.477, 1.157e-5
-1.476, 1.135e-5
-1.475, 1.098e-5
-1.474, 1.064e-5
-1.473, 1.045e-5
-1.472, 1.040e-5
-1.471, 1.018e-5
-1.470, 9.823e-6
-1.469, 9.543e-6
-1.468, 9.354e-6
-1.467, 9.279e-6
-1.466, 9.113e-6
-1.465, 8.770e-6
-1.464, 8.506e-6
-1.463, 8.353e-6
-1.462, 8.265e-6
-1.461, 8.156e-6
-1.460, 7.810e-6
-1.459, 7.537e-6
-1.458, 7.422e-6
-1.457, 7.374e-6
-1.456, 7.243e-6
-1.455, 6.985e-6
-1.454, 6.671e-6
-1.453, 6.584e-6
-1.452, 6.561e-6
-1.451, 6.404e-6
-1.450, 6.152e-6
-1.449, 5.889e-6
-1.448, 5.791e-6
-1.447, 5.779e-6
-1.446, 5.674e-6
-1.445, 5.395e-6
-1.444, 5.150e-6
-1.443, 5.062e-6
-1.442, 5.076e-6
-1.441, 4.953e-6
-1.440, 4.733e-6
-1.439, 4.511e-6
-1.438, 4.380e-6
-1.437, 4.428e-6
-1.436, 4.333e-6
-1.435, 4.070e-6
-1.434, 3.857e-6
-1.433, 3.780e-6
-1.432, 3.826e-6
-1.431, 3.749e-6
-1.430, 3.505e-6
-1.429, 3.296e-6
-1.428, 3.234e-6
-1.427, 3.240e-6
-1.426, 3.217e-6
-1.425, 2.967e-6
-1.424, 2.815e-6
-1.423, 2.729e-6
-1.422, 2.732e-6
-1.421, 2.689e-6
-1.420, 2.477e-6
-1.419, 2.291e-6
-1.418, 2.219e-6
-1.417, 2.272e-6
-1.416, 2.254e-6
-1.415, 2.055e-6
-1.414, 1.833e-6
-1.413, 1.806e-6
-1.412, 1.865e-6
-1.411, 1.826e-6
-1.410, 1.655e-6
-1.409, 1.451e-6
-1.408, 1.395e-6
-1.407, 1.470e-6
-1.406, 1.418e-6
-1.405, 1.260e-6
-1.404, 1.086e-6
-1.403, 1.016e-6
-1.402, 1.096e-6
-1.401, 1.054e-6
-1.400, 9.075e-7
-1.399, 7.407e-7
-1.398, 6.963e-7
-1.397, 7.881e-7
-1.396, 7.397e-7
-1.395, 5.829e-7
-1.394, 3.875e-7
-1.393, 3.530e-7
-1.392, 4.576e-7
-1.391, 4.566e-7
-1.390, 2.534e-7
-1.389, 1.231e-7
-1.388, 9.156e-8
-1.387, 1.419e-7
-1.386, 1.646e-7
-1.385, -7.103e-9
-1.384, -1.916e-7
-1.383, -2.064e-7
-1.382, -1.176e-7
-1.381, -1.225e-7
-1.380, -2.735e-7
-1.379, -4.491e-7
-1.378, -4.392e-7
-1.377, -3.879e-7
-1.376, -3.810e-7
-1.375, -4.935e-7
-1.374, -6.681e-7
-1.373, -6.731e-7
-1.372, -6.020e-7
-1.371, -6.050e-7
-1.370, -7.323e-7
-1.369, -9.148e-7
-1.368, -9.246e-7
-1.367, -8.250e-7
-1.366, -8.398e-7
-1.365, -9.542e-7
-1.364, -1.114e-6
-1.363, -1.136e-6
-1.362, -1.040e-6
-1.361, -1.017e-6
-1.360, -1.157e-6
-1.359, -1.331e-6
-1.358, -1.359e-6
-1.357, -1.246e-6
-1.356, -1.222e-6
-1.355, -1.378e-6
-1.354, -1.496e-6
-1.353, -1.561e-6
-1.352, -1.426e-6
-1.351, -1.399e-6
-1.350, -1.570e-6
-1.349, -1.693e-6
-1.348, -1.706e-6
-1.347, -1.627e-6
-1.346, -1.579e-6
-1.345, -1.744e-6
-1.344, -1.873e-6
-1.343, -1.891e-6
-1.342, -1.789e-6
-1.341, -1.749e-6
-1.340, -1.880e-6
-1.339, -2.039e-6
-1.338, -2.020e-6
-1.337, -1.947e-6
-1.336, -1.896e-6
-1.335, -2.010e-6
-1.334, -2.199e-6
-1.333, -2.188e-6
-1.332, -2.080e-6
-1.331, -2.065e-6
-1.330, -2.179e-6
-1.329, -2.308e-6
-1.328, -2.336e-6
-1.327, -2.217e-6
-1.326, -2.208e-6
-1.325, -2.306e-6
-1.324, -2.443e-6
-1.323, -2.485e-6
-1.322, -2.349e-6
-1.321, -2.307e-6
-1.320, -2.439e-6
-1.319, -2.564e-6
-1.318, -2.589e-6
-1.317, -2.468e-6
-1.316, -2.421e-6
-1.315, -2.561e-6
-1.314, -2.670e-6
-1.313, -2.705e-6
-1.312, -2.582e-6
-1.311, -2.514e-6
-1.310, -2.660e-6
-1.309, -2.776e-6
-1.308, -2.765e-6
-1.307, -2.699e-6
-1.306, -2.632e-6
-1.305, -2.754e-6
-1.304, -2.875e-6
-1.303, -2.892e-6
-1.302, -2.800e-6
-1.301, -2.715e-6
-1.300, -2.835e-6
-1.299, -2.966e-6
-1.298, -2.973e-6
-1.297, -2.861e-6
-1.296, -2.812e-6
-1.295, -2.914e-6
-1.294, -3.038e-6
-1.293, -3.035e-6
-1.292, -2.952e-6
-1.291, -2.871e-6
-1.290, -2.982e-6
-1.289, -3.127e-6
-1.288, -3.115e-6
-1.287, -2.999e-6
-1.286, -2.936e-6
-1.285, -3.049e-6
-1.284, -3.184e-6
-1.283, -3.185e-6
-1.282, -3.052e-6
-1.281, -2.993e-6
-1.280, -3.114e-6
-1.279, -3.241e-6
-1.278, -3.258e-6
-1.277, -3.126e-6
-1.276, -3.073e-6
-1.275, -3.166e-6
-1.274, -3.291e-6
-1.273, -3.325e-6
-1.272, -3.161e-6
-1.271, -3.123e-6
-1.270, -3.204e-6
-1.269, -3.353e-6
-1.268, -3.352e-6
-1.267, -3.230e-6
-1.266, -3.161e-6
-1.265, -3.268e-6
-1.264, -3.364e-6
-1.263, -3.381e-6
-1.262, -3.290e-6
-1.261, -3.190e-6
-1.260, -3.290e-6
-1.259, -3.444e-6
-1.258, -3.437e-6
-1.257, -3.338e-6
-1.256, -3.232e-6
-1.255, -3.337e-6
-1.254, -3.488e-6
-1.253, -3.476e-6
-1.252, -3.360e-6
-1.251, -3.299e-6
-1.250, -3.386e-6
-1.249, -3.521e-6
-1.248, -3.548e-6
-1.247, -3.397e-6
-1.246, -3.340e-6
-1.245, -3.397e-6
-1.244, -3.549e-6
-1.243, -3.587e-6
-1.242, -3.417e-6
-1.241, -3.387e-6
-1.240, -3.445e-6
-1.239, -3.581e-6
-1.238, -3.609e-6
-1.237, -3.477e-6
-1.236, -3.395e-6
-1.235, -3.471e-6
-1.234, -3.613e-6
-1.233, -3.632e-6
-1.232, -3.497e-6
-1.231, -3.411e-6
-1.230, -3.528e-6
-1.229, -3.666e-6
-1.228, -3.663e-6
-1.227, -3.577e-6
-1.226, -3.460e-6
-1.225, -3.563e-6
-1.224, -3.675e-6
-1.223, -3.704e-6
-1.222, -3.619e-6
-1.221, -3.489e-6
-1.220, -3.580e-6
-1.219, -3.733e-6
-1.218, -3.724e-6
-1.217, -3.624e-6
-1.216, -3.525e-6
-1.215, -3.605e-6
-1.214, -3.753e-6
-1.213, -3.750e-6
-1.212, -3.641e-6
-1.211, -3.560e-6
-1.210, -3.618e-6
-1.209, -3.790e-6
-1.208, -3.772e-6
-1.207, -3.656e-6
-1.206, -3.593e-6
-1.205, -3.652e-6
-1.204, -3.779e-6
-1.203, -3.809e-6
-1.202, -3.682e-6
-1.201, -3.600e-6
-1.200, -3.667e-6
-1.199, -3.815e-6
-1.198, -3.853e-6
-1.197, -3.710e-6
-1.196, -3.626e-6
-1.195, -3.702e-6
-1.194, -3.829e-6
-1.193, -3.858e-6
-1.192, -3.731e-6
-1.191, -3.646e-6
-1.190, -3.741e-6
-1.189, -3.892e-6
-1.188, -3.861e-6
-1.187, -3.777e-6
-1.186, -3.667e-6
-1.185, -3.731e-6
-1.184, -3.883e-6
-1.183, -3.910e-6
-1.182, -3.792e-6
-1.181, -3.680e-6
-1.180, -3.732e-6
-1.179, -3.906e-6
-1.178, -3.938e-6
-1.177, -3.850e-6
-1.176, -3.717e-6
-1.175, -3.776e-6
-1.174, -3.934e-6
-1.173, -3.950e-6
-1.172, -3.830e-6
-1.171, -3.759e-6
-1.170, -3.787e-6
-1.169, -3.965e-6
-1.168, -3.959e-6
-1.167, -3.851e-6
-1.166, -3.756e-6
-1.165, -3.819e-6
-1.164, -3.956e-6
-1.163, -4.006e-6
-1.162, -3.870e-6
-1.161, -3.784e-6
-1.160, -3.826e-6
-1.159, -3.992e-6
-1.158, -4.028e-6
-1.157, -3.900e-6
-1.156, -3.792e-6
-1.155, -3.869e-6
-1.154, -3.992e-6
-1.153, -4.031e-6
-1.152, -3.922e-6
-1.151, -3.815e-6
-1.150, -3.902e-6
-1.149, -4.022e-6
-1.148, -4.080e-6
-1.147, -3.958e-6
-1.146, -3.832e-6
-1.145, -3.920e-6
-1.144, -4.050e-6
-1.143, -4.061e-6
-1.142, -3.969e-6
-1.141, -3.865e-6
-1.140, -3.928e-6
-1.139, -4.102e-6
-1.138, -4.090e-6
-1.137, -4.027e-6
-1.136, -3.894e-6
-1.135, -3.964e-6
-1.134, -4.114e-6
-1.133, -4.125e-6
-1.132, -4.034e-6
-1.131, -3.924e-6
-1.130, -3.969e-6
-1.129, -4.170e-6
-1.128, -4.160e-6
-1.127, -4.068e-6
-1.126, -3.962e-6
-1.125, -4.035e-6
-1.124, -4.178e-6
-1.123, -4.233e-6
-1.122, -4.100e-6
-1.121, -3.994e-6
-1.120, -4.055e-6
-1.119, -4.192e-6
-1.118, -4.265e-6
-1.117, -4.130e-6
-1.116, -4.045e-6
-1.115, -4.092e-6
-1.114, -4.251e-6
-1.113, -4.307e-6
-1.112, -4.182e-6
-1.111, -4.063e-6
-1.110, -4.187e-6
-1.109, -4.311e-6
-1.108, -4.336e-6
-1.107, -4.243e-6
-1.106, -4.116e-6
-1.105, -4.182e-6
-1.104, -4.358e-6
-1.103, -4.365e-6
-1.102, -4.297e-6
-1.101, -4.173e-6
-1.100, -4.259e-6
-1.099, -4.426e-6
-1.098, -4.464e-6
-1.097, -4.333e-6
-1.096, -4.224e-6
-1.095, -4.289e-6
-1.094, -4.474e-6
-1.093, -4.514e-6
-1.092, -4.399e-6
-1.091, -4.310e-6
-1.090, -4.360e-6
-1.089, -4.522e-6
-1.088, -4.594e-6
-1.087, -4.469e-6
-1.086, -4.376e-6
-1.085, -4.412e-6
-1.084, -4.592e-6
-1.083, -4.657e-6
-1.082, -4.528e-6
-1.081, -4.468e-6
-1.080, -4.497e-6
-1.079, -4.667e-6
-1.078, -4.757e-6
-1.077, -4.600e-6
-1.076, -4.508e-6
-1.075, -4.601e-6
-1.074, -4.769e-6
-1.073, -4.837e-6
-1.072, -4.695e-6
-1.071, -4.586e-6
-1.070, -4.673e-6
-1.069, -4.831e-6
-1.068, -4.901e-6
-1.067, -4.808e-6
-1.066, -4.708e-6
-1.065, -4.771e-6
-1.064, -4.915e-6
-1.063, -4.994e-6
-1.062, -4.907e-6
-1.061, -4.791e-6
-1.060, -4.864e-6
-1.059, -5.059e-6
-1.058, -5.106e-6
-1.057, -5.021e-6
-1.056, -4.894e-6
-1.055, -4.980e-6
-1.054, -5.163e-6
-1.053, -5.247e-6
-1.052, -5.109e-6
-1.051, -5.038e-6
-1.050, -5.078e-6
-1.049, -5.280e-6
-1.048, -5.352e-6
-1.047, -5.244e-6
-1.046, -5.152e-6
-1.045, -5.210e-6
-1.044, -5.393e-6
-1.043, -5.513e-6
-1.042, -5.390e-6
-1.041, -5.294e-6
-1.040, -5.338e-6
-1.039, -5.522e-6
-1.038, -5.639e-6
-1.037, -5.507e-6
-1.036, -5.419e-6
-1.035, -5.479e-6
-1.034, -5.649e-6
-1.033, -5.782e-6
-1.032, -5.654e-6
-1.031, -5.556e-6
-1.030, -5.638e-6
-1.029, -5.802e-6
-1.028, -5.914e-6
-1.027, -5.810e-6
-1.026, -5.704e-6
-1.025, -5.765e-6
-1.024, -5.975e-6
-1.023, -6.058e-6
-1.022, -5.955e-6
-1.021, -5.829e-6
-1.020, -5.888e-6
-1.019, -6.076e-6
-1.018, -6.191e-6
-1.017, -6.091e-6
-1.016, -5.963e-6
-1.015, -6.006e-6
-1.014, -6.205e-6
-1.013, -6.320e-6
-1.012, -6.213e-6
-1.011, -6.097e-6
-1.010, -6.137e-6
-1.009, -6.334e-6
-1.008, -6.411e-6
-1.007, -6.321e-6
-1.006, -6.217e-6
-1.005, -6.258e-6
-1.004, -6.425e-6
-1.003, -6.547e-6
-1.002, -6.424e-6
-1.001, -6.315e-6
-1.000, -3.246e-6
-1.001, -2.297e-6
-1.002, -1.943e-6
-1.003, -1.532e-6
-1.004, -1.086e-6
-1.005, -8.881e-7
-1.006, -8.723e-7
-1.007, -7.638e-7
-1.008, -4.797e-7
-1.009, -1.768e-7
-1.010, -6.038e-8
-1.011, -1.215e-7
-1.012, -9.590e-8
-1.013, 1.241e-7
-1.014, 3.629e-7
-1.015, 4.507e-7
-1.016, 3.639e-7
-1.017, 3.579e-7
-1.018, 5.661e-7
-1.019, 7.772e-7
-1.020, 8.305e-7
-1.021, 7.299e-7
-1.022, 7.210e-7
-1.023, 8.769e-7
-1.024, 1.095e-6
-1.025, 1.096e-6
-1.026, 1.024e-6
-1.027, 9.637e-7
-1.028, 1.151e-6
-1.029, 1.345e-6
-1.030, 1.319e-6
-1.031, 1.243e-6
-1.032, 1.157e-6
-1.033, 1.303e-6
-1.034, 1.512e-6
-1.035, 1.507e-6
-1.036, 1.391e-6
-1.037, 1.345e-6
-1.038, 1.473e-6
-1.039, 1.651e-6
-1.040, 1.644e-6
-1.041, 1.524e-6
-1.042, 1.472e-6
-1.043, 1.568e-6
-1.044, 1.755e-6
-1.045, 1.769e-6
-1.046, 1.642e-6
-1.047, 1.600e-6
-1.048, 1.669e-6
-1.049, 1.824e-6
-1.050, 1.859e-6
-1.051, 1.696e-6
-1.052, 1.642e-6
-1.053, 1.757e-6
-1.054, 1.929e-6
-1.055, 1.936e-6
-1.056, 1.797e-6
-1.057, 1.728e-6
-1.058, 1.835e-6
-1.059, 2.002e-6
-1.060, 2.011e-6
-1.061, 1.885e-6
-1.062, 1.779e-6
-1.063, 1.903e-6
-1.064, 2.068e-6
-1.065, 2.069e-6
-1.066, 1.953e-6
-1.067, 1.847e-6
-1.068, 1.944e-6
-1.069, 2.113e-6
-1.070, 2.120e-6
-1.071, 1.994e-6
-1.072, 1.902e-6
-1.073, 1.984e-6
-1.074, 2.176e-6
-1.075, 2.165e-6
-1.076, 2.024e-6
-1.077, 1.940e-6
-1.078, 2.025e-6
-1.079, 2.223e-6
-1.080, 2.189e-6
-1.081, 2.054e-6
-1.082, 2.003e-6
-1.083, 2.079e-6
-1.084, 2.237e-6
-1.085, 2.248e-6
-1.086, 2.125e-6
-1.087, 2.031e-6
-1.088, 2.108e-6
-1.089, 2.277e-6
-1.090, 2.305e-6
-1.091, 2.148e-6
-1.092, 2.078e-6
-1.093, 2.119e-6
-1.094, 2.299e-6
-1.095, 2.306e-6
-1.096, 2.186e-6
-1.097, 2.092e-6
-1.098, 2.169e-6
-1.099, 2.332e-6
-1.100, 2.332e-6
-1.101, 2.247e-6
-1.102, 2.127e-6
-1.103, 2.250e-6
-1.104, 2.363e-6
-1.105, 2.400e-6
-1.106, 2.282e-6
-1.107, 2.147e-6
-1.108, 2.252e-6
-1.109, 2.415e-6
-1.110, 2.406e-6
-1.111, 2.304e-6
-1.112, 2.197e-6
-1.113, 2.269e-6
-1.114, 2.458e-6
-1.115, 2.475e-6
-1.116, 2.333e-6
-1.117, 2.232e-6
-1.118, 2.321e-6
-1.119, 2.491e-6
-1.120, 2.491e-6
-1.121, 2.388e-6
-1.122, 2.282e-6
-1.123, 2.371e-6
-1.124, 2.537e-6
-1.125, 2.547e-6
-1.126, 2.431e-6
-1.127, 2.321e-6
-1.128, 2.394e-6
-1.129, 2.552e-6
-1.130, 2.640e-6
-1.131, 2.461e-6
-1.132, 2.360e-6
-1.133, 2.455e-6
-1.134, 2.632e-6
-1.135, 2.646e-6
-1.136, 2.514e-6
-1.137, 2.394e-6
-1.138, 2.494e-6
-1.139, 2.656e-6
-1.140, 2.711e-6
-1.141, 2.558e-6
-1.142, 2.463e-6
-1.143, 2.558e-6
-1.144, 2.710e-6
-1.145, 2.739e-6
-1.146, 2.614e-6
-1.147, 2.527e-6
-1.148, 2.564e-6
-1.149, 2.713e-6
-1.150, 2.818e-6
-1.151, 2.679e-6
-1.152, 2.542e-6
-1.153, 2.641e-6
-1.154, 2.798e-6
-1.155, 2.830e-6
-1.156, 2.727e-6
-1.157, 2.608e-6
-1.158, 2.683e-6
-1.159, 2.863e-6
-1.160, 2.906e-6
-1.161, 2.785e-6
-1.162, 2.672e-6
-1.163, 2.721e-6
-1.164, 2.886e-6
-1.165, 2.950e-6
-1.166, 2.809e-6
-1.167, 2.745e-6
-1.168, 2.772e-6
-1.169, 2.946e-6
-1.170, 3.020e-6
-1.171, 2.874e-6
-1.172, 2.795e-6
-1.173, 2.839e-6
-1.174, 2.988e-6
-1.175, 3.071e-6
-1.176, 2.919e-6
-1.177, 2.850e-6
-1.178, 2.919e-6
-1.179, 3.045e-6
-1.180, 3.128e-6
-1.181, 2.975e-6
-1.182, 2.907e-6
-1.183, 2.940e-6
-1.184, 3.078e-6
-1.185, 3.177e-6
-1.186, 3.052e-6
-1.187, 2.940e-6
-1.188, 2.982e-6
-1.189, 3.137e-6
-1.190, 3.215e-6
-1.191, 3.142e-6
-1.192, 3.006e-6
-1.193, 3.055e-6
-1.194, 3.210e-6
-1.195, 3.276e-6
-1.196, 3.167e-6
-1.197, 3.069e-6
-1.198, 3.084e-6
-1.199, 3.274e-6
-1.200, 3.347e-6
-1.201, 3.207e-6
-1.202, 3.128e-6
-1.203, 3.139e-6
-1.204, 3.314e-6
-1.205, 3.396e-6
-1.206, 3.281e-6
-1.207, 3.178e-6
-1.208, 3.177e-6
-1.209, 3.351e-6
-1.210, 3.473e-6
-1.211, 3.349e-6
-1.212, 3.189e-6
-1.213, 3.256e-6
-1.214, 3.385e-6
-1.215, 3.492e-6
-1.216, 3.393e-6
-1.217, 3.295e-6
-1.218, 3.310e-6
-1.219, 3.444e-6
-1.220, 3.545e-6
-1.221, 3.462e-6
-1.222, 3.318e-6
-1.223, 3.382e-6
-1.224, 3.525e-6
-1.225, 3.581e-6
-1.226, 3.527e-6
-1.227, 3.398e-6
-1.228, 3.429e-6
-1.229, 3.587e-6
-1.230, 3.679e-6
-1.231, 3.590e-6
-1.232, 3.459e-6
-1.233, 3.477e-6
-1.234, 3.627e-6
-1.235, 3.718e-6
-1.236, 3.635e-6
-1.237, 3.485e-6
-1.238, 3.507e-6
-1.239, 3.684e-6
-1.240, 3.759e-6
-1.241, 3.664e-6
-1.242, 3.568e-6
-1.243, 3.540e-6
-1.244, 3.743e-6
-1.245, 3.836e-6
-1.246, 3.726e-6
-1.247, 3.620e-6
-1.248, 3.646e-6
-1.249, 3.764e-6
-1.250, 3.877e-6
-1.251, 3.804e-6
-1.252, 3.663e-6
-1.253, 3.658e-6
-1.254, 3.835e-6
-1.255, 3.962e-6
-1.256, 3.836e-6
-1.257, 3.695e-6
-1.258, 3.741e-6
-1.259, 3.880e-6
-1.260, 4.001e-6
-1.261, 3.918e-6
-1.262, 3.774e-6
-1.263, 3.782e-6
-1.264, 3.900e-6
-1.265, 4.026e-6
-1.266, 3.971e-6
-1.267, 3.847e-6
-1.268, 3.850e-6
-1.269, 3.978e-6
-1.270, 4.089e-6
-1.271, 4.026e-6
-1.272, 3.870e-6
-1.273, 3.890e-6
-1.274, 4.043e-6
-1.275, 4.131e-6
-1.276, 4.072e-6
-1.277, 3.941e-6
-1.278, 3.950e-6
-1.279, 4.102e-6
-1.280, 4.209e-6
-1.281, 4.133e-6
-1.282, 4.012e-6
-1.283, 3.974e-6
-1.284, 4.159e-6
-1.285, 4.268e-6
-1.286, 4.187e-6
-1.287, 4.070e-6
-1.288, 4.047e-6
-1.289, 4.187e-6
-1.290, 4.328e-6
-1.291, 4.278e-6
-1.292, 4.134e-6
-1.293, 4.140e-6
-1.294, 4.269e-6
-1.295, 4.417e-6
-1.296, 4.306e-6
-1.297, 4.197e-6
-1.298, 4.217e-6
-1.299, 4.330e-6
-1.300, 4.451e-6
-1.301, 4.392e-6
-1.302, 4.249e-6
-1.303, 4.295e-6
-1.304, 4.364e-6
-1.305, 4.496e-6
-1.306, 4.466e-6
-1.307, 4.319e-6
-1.308, 4.347e-6
-1.309, 4.465e-6
-1.310, 4.590e-6
-1.311, 4.560e-6
-1.312, 4.418e-6
-1.313, 4.382e-6
-1.314, 4.540e-6
-1.315, 4.660e-6
-1.316, 4.645e-6
-1.317, 4.494e-6
-1.318, 4.473e-6
-1.319, 4.614e-6
-1.320, 4.740e-6
-1.321, 4.711e-6
-1.322, 4.578e-6
-1.323, 4.554e-6
-1.324, 4.680e-6
-1.325, 4.829e-6
-1.326, 4.783e-6
-1.327, 4.674e-6
-1.328, 4.627e-6
-1.329, 4.795e-6
-1.330, 4.930e-6
-1.331, 4.896e-6
-1.332, 4.755e-6
-1.333, 4.745e-6
-1.334, 4.886e-6
-1.335, 5.031e-6
-1.336, 4.964e-6
-1.337, 4.851e-6
-1.338, 4.843e-6
-1.339, 4.945e-6
-1.340, 5.158e-6
-1.341, 5.101e-6
-1.342, 4.977e-6
-1.343, 4.954e-6
-1.344, 5.095e-6
-1.345, 5.222e-6
-1.346, 5.234e-6
-1.347, 5.094e-6
-1.348, 5.086e-6
-1.349, 5.226e-6
-1.350, 5.354e-6
-1.351, 5.362e-6
-1.352, 5.242e-6
-1.353, 5.193e-6
-1.354, 5.356e-6
-1.355, 5.506e-6
-1.356, 5.480e-6
-1.357, 5.391e-6
-1.358, 5.369e-6
-1.359, 5.502e-6
-1.360, 5.636e-6
-1.361, 5.666e-6
-1.362, 5.532e-6
-1.363, 5.505e-6
-1.364, 5.686e-6
-1.365, 5.855e-6
-1.366, 5.815e-6
-1.367, 5.744e-6
-1.368, 5.676e-6
-1.369, 5.854e-6
-1.370, 6.025e-6
-1.371, 5.996e-6
-1.372, 5.934e-6
-1.373, 5.890e-6
-1.374, 6.041e-6
-1.375, 6.213e-6
-1.376, 6.211e-6
-1.377, 6.114e-6
-1.378, 6.099e-6
-1.379, 6.249e-6
-1.380, 6.423e-6
-1.381, 6.430e-6
-1.382, 6.352e-6
-1.383, 6.344e-6
-1.384, 6.471e-6
-1.385, 6.660e-6
-1.386, 6.705e-6
-1.387, 6.588e-6
-1.388, 6.562e-6
-1.389, 6.753e-6
-1.390, 6.917e-6
-1.391, 6.944e-6
-1.392, 6.862e-6
-1.393, 6.834e-6
-1.394, 6.992e-6
-1.395, 7.195e-6
-1.396, 7.259e-6
-1.397, 7.162e-6
-1.398, 7.114e-6
-1.399, 7.331e-6
-1.400, 7.496e-6
-1.401, 7.552e-6
-1.402, 7.512e-6
-1.403, 7.441e-6
-1.404, 7.643e-6
-1.405, 7.844e-6
-1.406, 7.884e-6
-1.407, 7.811e-6
-1.408, 7.787e-6
-1.409, 7.968e-6
-1.410, 8.193e-6
-1.411, 8.230e-6
-1.412, 8.190e-6
-1.413, 8.161e-6
-1.414, 8.357e-6
-1.415, 8.597e-6
-1.416, 8.625e-6
-1.417, 8.557e-6
-1.418, 8.573e-6
-1.419, 8.741e-6
-1.420, 8.970e-6
-1.421, 9.081e-6
-1.422, 9.011e-6
-1.423, 9.007e-6
-1.424, 9.189e-6
-1.425, 9.400e-6
-1.426, 9.501e-6
-1.427, 9.484e-6
-1.428, 9.468e-6
-1.429, 9.643e-6
-1.430, 9.894e-6
-1.431, 1.000e-5
-1.432, 9.966e-6
-1.433, 9.978e-6
-1.434, 1.019e-5
-1.435, 1.044e-5
-1.436, 1.055e-5
-1.437, 1.051e-5
-1.438, 1.052e-5
-1.439, 1.073e-5
-1.440, 1.099e-5
-1.441, 1.111e-5
-1.442, 1.110e-5
-1.443, 1.110e-5
-1.444, 1.131e-5
-1.445, 1.156e-5
-1.446, 1.171e-5
-1.447, 1.171e-5
-1.448, 1.171e-5
-1.449, 1.193e-5
-1.450, 1.219e-5
-1.451, 1.234e-5
-1.452, 1.237e-5
-1.453, 1.235e-5
-1.454, 1.260e-5
-1.455, 1.289e-5
-1.456, 1.302e-5
-1.457, 1.303e-5
-1.458, 1.309e-5
-1.459, 1.334e-5
-1.460, 1.360e-5
-1.461, 1.376e-5
-1.462, 1.380e-5
-1.463, 1.387e-5
-1.464, 1.407e-5
-1.465, 1.438e-5
-1.466, 1.457e-5
-1.467, 1.459e-5
-1.468, 1.465e-5
-1.469, 1.487e-5
-1.470, 1.520e-5
-1.471, 1.539e-5
-1.472, 1.543e-5
-1.473, 1.550e-5
-1.474, 1.574e-5
-1.475, 1.607e-5
-1.476, 1.630e-5
-1.477, 1.632e-5
-1.478, 1.642e-5
-1.479, 1.668e-5
-1.480, 1.701e-5
-1.481, 1.724e-5
-1.482, 1.730e-5
-1.483, 1.738e-5
-1.484, 1.766e-5
-1.485, 1.803e-5
-1.486, 1.823e-5
-1.487, 1.833e-5
-1.488, 1.842e-5
-1.489, 1.870e-5
-1.490, 1.908e-5
-1.491, 1.934e-5
-1.492, 1.942e-5
-1.493, 1.955e-5
-1.494, 1.983e-5
-1.495, 2.020e-5
-1.496, 2.049e-5
-1.497, 2.060e-5
-1.498, 2.073e-5
-1.499, 2.102e-5
-1.500, 2.146e-5
-1.501, 2.174e-5
-1.502, 2.186e-5
-1.503, 2.202e-5
-1.504, 2.232e-5
-1.505, 2.276e-5
-1.506, 2.306e-5
-1.507, 2.322e-5
-1.508, 2.340e-5
-1.509, 2.373e-5
-1.510, 2.418e-5
-1.511, 2.451e-5
-1.512, 2.467e-5
-1.513, 2.487e-5
-1.514, 2.525e-5
-1.515, 2.569e-5
-1.516, 2.606e-5
-1.517, 2.630e-5
-1.518, 2.648e-5
-1.519, 2.688e-5
-1.520, 2.736e-5
-1.521, 2.776e-5
-1.522, 2.802e-5
-1.523, 2.825e-5
-1.524, 2.868e-5
-1.525, 2.919e-5
-1.526, 2.961e-5
-1.527, 2.992e-5
-1.528, 3.016e-5
-1.529, 3.061e-5
-1.530, 3.119e-5
-1.531, 3.161e-5
-1.532, 3.193e-5
-1.533, 3.225e-5
-1.534, 3.274e-5
-1.535, 3.333e-5
-1.536, 3.382e-5
-1.537, 3.419e-5
-1.538, 3.455e-5
-1.539, 3.505e-5
-1.540, 3.570e-5
-1.541, 3.626e-5
-1.542, 3.665e-5
-1.543, 3.707e-5
-1.544, 3.758e-5
-1.545, 3.831e-5
-1.546, 3.892e-5
-1.547, 3.933e-5
-1.548, 3.981e-5
-1.549, 4.043e-5
-1.550, 4.117e-5
-1.551, 4.188e-5
-1.552, 4.236e-5
-1.553, 4.286e-5
-1.554, 4.357e-5
-1.555, 4.433e-5
-1.556, 4.510e-5
-1.557, 4.568e-5
-1.558, 4.623e-5
-1.559, 4.700e-5
-1.560, 4.787e-5
-1.561, 4.865e-5
-1.562, 4.937e-5
-1.563, 4.998e-5
-1.564, 5.084e-5
-1.565, 5.174e-5
-1.566, 5.268e-5
-1.567, 5.340e-5
-1.568, 5.414e-5
-1.569, 5.503e-5
-1.570, 5.611e-5
-1.571, 5.710e-5
-1.572, 5.793e-5
-1.573, 5.875e-5
-1.574, 5.975e-5
-1.575, 6.092e-5
-1.576, 6.199e-5
-1.577, 6.295e-5
-1.578, 6.387e-5
-1.579, 6.497e-5
-1.580, 6.626e-5
-1.581, 6.746e-5
-1.582, 6.850e-5
-1.583, 6.958e-5
-1.584, 7.081e-5
-1.585, 7.220e-5
-1.586, 7.357e-5
-1.587, 7.475e-5
-1.588, 7.594e-5
-1.589, 7.730e-5
-1.590, 7.884e-5
-1.591, 8.033e-5
-1.592, 8.169e-5
-1.593, 8.300e-5
-1.594, 8.452e-5
-1.595, 8.618e-5
-1.596, 8.786e-5
-1.597, 8.932e-5
-1.598, 9.080e-5
-1.599, 9.251e-5
-1.600, 9.435e-5
-1.601, 9.619e-5
-1.602, 9.783e-5
-1.603, 9.951e-5
-1.604, 1.014e-4
-1.605, 1.033e-4
-1.606, 1.054e-4
-1.607, 1.072e-4
-1.608, 1.091e-4
-1.609, 1.111e-4
-1.610, 1.133e-4
-1.611, 1.156e-4
-1.612, 1.176e-4
-1.613, 1.197e-4
-1.614, 1.219e-4
-1.615, 1.243e-4
-1.616, 1.268e-4
-1.617, 1.290e-4
-1.618, 1.313e-4
-1.619, 1.338e-4
-1.620, 1.365e-4
-1.621, 1.392e-4
-1.622, 1.417e-4
-1.623, 1.442e-4
-1.624, 1.470e-4
-1.625, 1.499e-4
-1.626, 1.529e-4
-1.627, 1.556e-4
-1.628, 1.584e-4
-1.629, 1.614e-4
-1.630, 1.646e-4
-1.631, 1.679e-4
-1.632, 1.710e-4
-1.633, 1.741e-4
-1.634, 1.773e-4
-1.635, 1.808e-4
-1.636, 1.844e-4
-1.637, 1.877e-4
-1.638, 1.912e-4
-1.639, 1.948e-4
-1.640, 1.986e-4
-1.641, 2.024e-4
-1.642, 2.061e-4
-1.643, 2.098e-4
-1.644, 2.136e-4
-1.645, 2.178e-4
-1.646, 2.220e-4
-1.647, 2.260e-4
-1.648, 2.301e-4
-1.649, 2.343e-4
-1.650, 2.388e-4
-1.651, 2.434e-4
-1.652, 2.477e-4
-1.653, 2.521e-4
-1.654, 2.567e-4
-1.655, 2.615e-4
-1.656, 2.664e-4
-1.657, 2.711e-4
-1.658, 2.758e-4
-1.659, 2.807e-4
-1.660, 2.859e-4
-1.661, 2.912e-4
-1.662, 2.963e-4
-1.663, 3.014e-4
-1.664, 3.067e-4
-1.665, 3.123e-4
-1.666, 3.180e-4
-1.667, 3.235e-4
-1.668, 3.291e-4
-1.669, 3.348e-4
-1.670, 3.408e-4
-1.671, 3.469e-4
-1.672, 3.528e-4
-1.673, 3.588e-4
-1.674, 3.649e-4
-1.675, 3.713e-4
-1.676, 3.778e-4
-1.677, 3.841e-4
-1.678, 3.905e-4
-1.679, 3.970e-4
-1.680, 4.039e-4
-1.681, 4.107e-4
-1.682, 4.176e-4
-1.683, 4.244e-4
-1.684, 4.313e-4
-1.685, 4.386e-4
-1.686, 4.458e-4
-1.687, 4.530e-4
-1.688, 4.601e-4
-1.689, 4.674e-4
-1.690, 4.751e-4
-1.691, 4.830e-4
-1.692, 4.906e-4
-1.693, 4.983e-4
-1.694, 5.061e-4
-1.695, 5.141e-4
-1.696, 5.224e-4
-1.697, 5.305e-4
-1.698, 5.386e-4
-1.699, 5.469e-4
-1.700, 5.481e-4
-1.699, 5.432e-4
-1.698, 5.381e-4
-1.697, 5.324e-4
-1.696, 5.267e-4
-1.695, 5.211e-4
-1.694, 5.153e-4
-1.693, 5.094e-4
-1.692, 5.033e-4
-1.691, 4.972e-4
-1.690, 4.912e-4
-1.689, 4.853e-4
-1.688, 4.793e-4
-1.687, 4.732e-4
-1.686, 4.671e-4
-1.685, 4.614e-4
-1.684, 4.555e-4
-1.683, 4.496e-4
-1.682, 4.436e-4
-1.681, 4.377e-4
-1.680, 4.320e-4
-1.679, 4.264e-4
-1.678, 4.207e-4
-1.677, 4.147e-4
-1.676, 4.090e-4
-1.675, 4.035e-4
-1.674, 3.980e-4
-1.673, 3.924e-4
-1.672, 3.869e-4
-1.671, 3.814e-4
-1.670, 3.761e-4
-1.669, 3.709e-4
-1.668, 3.656e-4
-1.667, 3.601e-4
-1.666, 3.549e-4
-1.665, 3.498e-4
-1.664, 3.449e-4
-1.663, 3.398e-4
-1.662, 3.346e-4
-1.661, 3.296e-4
-1.660, 3.248e-4
-1.659, 3.200e-4
-1.658, 3.153e-4
-1.657, 3.104e-4
-1.656, 3.056e-4
-1.655, 3.011e-4
-1.654, 2.966e-4
-1.653, 2.921e-4
-1.652, 2.875e-4
-1.651, 2.830e-4
-1.650, 2.788e-4
-1.649, 2.746e-4
-1.648, 2.703e-4
-1.647, 2.659e-4
-1.646, 2.617e-4
-1.645, 2.577e-4
-1.644, 2.538e-4
-1.643, 2.497e-4
-1.642, 2.456e-4
-1.641, 2.416e-4
-1.640, 2.378e-4
-1.639, 2.341e-4
-1.638, 2.302e-4
-1.637, 2.263e-4
-1.636, 2.226e-4
-1.635, 2.191e-4
-1.634, 2.157e-4
-1.633, 2.121e-4
-1.632, 2.085e-4
-1.631, 2.050e-4
-1.630, 2.018e-4
-1.629, 1.986e-4
-1.628, 1.953e-4
-1.627, 1.919e-4
-1.626, 1.886e-4
-1.625, 1.856e-4
-1.624, 1.826e-4
-1.623, 1.795e-4
-1.622, 1.763e-4
-1.621, 1.733e-4
-1.620, 1.705e-4
-1.619, 1.677e-4
-1.618, 1.649e-4
-1.617, 1.619e-4
-1.616, 1.591e-4
-1.615, 1.565e-4
-1.614, 1.539e-4
-1.613, 1.512e-4
-1.612, 1.485e-4
-1.611, 1.458e-4
-1.610, 1.434e-4
-1.609, 1.410e-4
-1.608, 1.386e-4
-1.607, 1.360e-4
-1.606, 1.336e-4
-1.605, 1.314e-4
-1.604, 1.292e-4
-1.603, 1.270e-4
-1.602, 1.246e-4
-1.601, 1.223e-4
-1.600, 1.203e-4
-1.599, 1.183e-4
-1.598, 1.162e-4
-1.597, 1.140e-4
-1.596, 1.119e-4
-1.595, 1.100e-4
-1.594, 1.082e-4
-1.593, 1.063e-4
-1.592, 1.042e-4
-1.591, 1.023e-4
-1.590, 1.006e-4
-1.589, 9.893e-5
-1.588, 9.709e-5
-1.587, 9.520e-5
-1.586, 9.341e-5
-1.585, 9.184e-5
-1.584, 9.033e-5
-1.583, 8.868e-5
-1.582, 8.691e-5
-1.581, 8.528e-5
-1.580, 8.384e-5
-1.579, 8.241e-5
-1.578, 8.093e-5
-1.577, 7.932e-5
-1.576, 7.780e-5
-1.575, 7.647e-5
-1.574, 7.519e-5
-1.573, 7.387e-5
-1.572, 7.236e-5
-1.571, 7.090e-5
-1.570, 6.974e-5
-1.569, 6.858e-5
-1.568, 6.734e-5
-1.567, 6.596e-5
-1.566, 6.463e-5
-1.565, 6.358e-5
-1.564, 6.253e-5
-1.563, 6.135e-5
-1.562, 6.012e-5
-1.561, 5.889e-5
-1.560, 5.791e-5
-1.559, 5.698e-5
-1.558, 5.590e-5
-1.557, 5.475e-5
-1.556, 5.362e-5
-1.555, 5.275e-5
-1.554, 5.190e-5
-1.553, 5.092e-5
-1.552, 4.985e-5
-1.551, 4.881e-5
-1.550, 4.802e-5
-1.549, 4.728e-5
-1.548, 4.636e-5
-1.547, 4.538e-5
-1.546, 4.444e-5
-1.545, 4.369e-5
-1.544, 4.304e-5
-1.543, 4.223e-5
-1.542, 4.128e-5
-1.541, 4.043e-5
-1.540, 3.975e-5
-1.539, 3.911e-5
-1.538, 3.839e-5
-1.537, 3.756e-5
-1.536, 3.673e-5
-1.535, 3.612e-5
-1.534, 3.554e-5
-1.533, 3.493e-5
-1.532, 3.412e-5
-1.531, 3.336e-5
-1.530, 3.284e-5
-1.529, 3.232e-5
-1.528, 3.176e-5
-1.527, 3.101e-5
-1.526, 3.032e-5
-1.525, 2.980e-5
-1.524, 2.942e-5
-1.523, 2.881e-5
-1.522, 2.814e-5
-1.521, 2.751e-5
-1.520, 2.709e-5
-1.519, 2.668e-5
-1.518, 2.617e-5
-1.517, 2.554e-5
-1.516, 2.499e-5
-1.515, 2.456e-5
-1.514, 2.423e-5
-1.513, 2.376e-5
-1.512, 2.320e-5
-1.511, 2.262e-5
-1.510, 2.227e-5
-1.509, 2.199e-5
-1.508, 2.156e-5
-1.507, 2.101e-5
-1.506, 2.051e-5
-1.505, 2.015e-5
-1.504, 1.992e-5
-1.503, 1.955e-5
-1.502, 1.906e-5
-1.501, 1.857e-5
-1.500, 1.825e-5
-1.499, 1.803e-5
-1.498, 1.772e-5
-1.497, 1.721e-5
-1.496, 1.679e-5
-1.495, 1.651e-5
-1.494, 1.629e-5
-1.493, 1.602e-5
-1.492, 1.558e-5
-1.491, 1.515e-5
-1.490, 1.491e-5
-1.489, 1.472e-5
-1.488, 1.446e-5
-1.487, 1.408e-5
-1.486, 1.368e-5
-1.485, 1.340e-5
-1.484, 1.329e-5
-1.483, 1.304e-5
-1.482, 1.268e-5
-1.481, 1.229e-5
-1.480, 1.210e-5
-1.479, 1.201e-5
-1.478, 1.175e-5
-1.477, 1.138e-5
-1.476, 1.107e-5
-1.475, 1.087e-5
-1.474, 1.078e-5
-1.473, 1.058e-5
-1.472, 1.024e-5
-1.471, 9.922e-6
-1.470, 9.718e-6
-1.469, 9.696e-6
-1.468, 9.494e-6
-1.467, 9.190e-6
-1.466, 8.870e-6
-1.465, 8.714e-6
-1.464, 8.663e-6
-1.463, 8.512e-6
-1.462, 8.172e-6
-1.461, 7.878e-6
-1.460, 7.792e-6
-1.459, 7.710e-6
-1.458, 7.594e-6
-1.457, 7.293e-6
-1.456, 7.031e-6
-1.455, 6.898e-6
-1.454, 6.872e-6
-1.453, 6.755e-6
-1.452, 6.498e-6
-1.451, 6.189e-6
-1.450, 6.116e-6
-1.449, 6.068e-6
-1.448, 5.978e-6
-1.447, 5.721e-6
-1.446, 5.437e-6
-1.445, 5.375e-6
-1.444, 5.353e-6
-1.443, 5.275e-6
-1.442, 5.018e-6
-1.441, 4.755e-6
-1.440, 4.663e-6
-1.439, 4.702e-6
-1.438, 4.596e-6
-1.437, 4.394e-6
-1.436, 4.150e-6
-1.435, 4.038e-6
-1.434, 4.070e-6
-1.433, 3.972e-6
-1.432, 3.778e-6
-1.431, 3.579e-6
-1.430, 3.476e-6
-1.429, 3.544e-6
-1.428, 3.441e-6
-1.427, 3.247e-6
-1.426, 3.030e-6
-1.425, 2.929e-6
-1.424, 3.031e-6
-1.423, 2.927e-6
-1.422, 2.733e-6
-1.421, 2.521e-6
-1.420, 2.488e-6
-1.419, 2.507e-6
-1.418, 2.483e-6
-1.417, 2.265e-6
-1.416, 2.078e-6
-1.415, 2.036e-6
-1.414, 2.069e-6
-1.413, 2.032e-6
-1.412, 1.860e-6
-1.411, 1.659e-6
-1.410, 1.600e-6
-1.409, 1.681e-6
-1.408, 1.647e-6
-1.407, 1.466e-6
-1.406, 1.267e-6
-1.405, 1.248e-6
-1.404, 1.281e-6
-1.403, 1.267e-6
-1.402, 1.112e-6
-1.401, 9.272e-7
-1.400, 8.907e-7
-1.399, 9.410e-7
-1.398, 9.242e-7
-1.397, 7.841e-7
-1.396, 5.888e-7
-1.395, 5.326e-7
-1.394, 6.095e-7
-1.393, 5.977e-7
-1.392, 4.852e-7
-1.391, 2.918e-7
-1.390, 2.474e-7
-1.389, 3.362e-7
-1.388, 3.323e-7
-1.387, 1.419e-7
-1.386, 6.709e-9
-1.385, -4.262e-8
-1.384, 4.716e-8
-1.383, 3.532e-8
-1.382, -1.531e-7
-1.381, -2.636e-7
-1.380, -2.962e-7
-1.379, -2.192e-7
-1.378, -2.133e-7
-1.377, -3.781e-7
-1.376, -5.201e-7
-1.375, -5.517e-7
-1.374, -4.826e-7
-1.373, -4.333e-7
-1.372, -5.892e-7
-1.371, -7.717e-7
-1.370, -7.826e-7
-1.369, -7.332e-7
-1.368, -6.661e-7
-1.367, -8.122e-7
-1.366, -9.631e-7
-1.365, -1.001e-6
-1.364, -9.335e-7
-1.363, -9.019e-7
-1.362, -1.038e-6
-1.361, -1.203e-6
-1.360, -1.189e-6
-1.359, -1.131e-6
-1.358, -1.080e-6
-1.357, -1.240e-6
-1.356, -1.386e-6
-1.355, -1.409e-6
-1.354, -1.328e-6
-1.353, -1.302e-6
-1.352, -1.408e-6
-1.351, -1.583e-6
-1.350, -1.615e-6
-1.349, -1.490e-6
-1.348, -1.473e-6
-1.347, -1.601e-6
-1.346, -1.744e-6
-1.345, -1.787e-6
-1.344, -1.672e-6
-1.343, -1.627e-6
-1.342, -1.768e-6
-1.341, -1.898e-6
-1.340, -1.914e-6
-1.339, -1.851e-6
-1.338, -1.809e-6
-1.337, -1.922e-6
-1.336, -2.076e-6
-1.335, -2.073e-6
-1.334, -1.989e-6
-1.333, -1.925e-6
-1.332, -2.064e-6
-1.331, -2.237e-6
-1.330, -2.236e-6
-1.329, -2.151e-6
-1.328, -2.062e-6
-1.327, -2.166e-6
-1.326, -2.344e-6
-1.325, -2.357e-6
-1.324, -2.266e-6
-1.323, -2.203e-6
-1.322, -2.323e-6
-1.321, -2.469e-6
-1.320, -2.502e-6
-1.319, -2.374e-6
-1.318, -2.341e-6
-1.317, -2.438e-6
-1.316, -2.564e-6
-1.315, -2.603e-6
-1.314, -2.499e-6
-1.313, -2.434e-6
-1.312, -2.542e-6
-1.311, -2.694e-6
-1.310, -2.710e-6
-1.309, -2.599e-6
-1.308, -2.532e-6
-1.307, -2.634e-6
-1.306, -2.773e-6
-1.305, -2.829e-6
-1.304, -2.682e-6
-1.303, -2.625e-6
-1.302, -2.726e-6
-1.301, -2.853e-6
-1.300, -2.870e-6
-1.299, -2.789e-6
-1.298, -2.716e-6
-1.297, -2.833e-6
-1.296, -2.949e-6
-1.295, -2.963e-6
-1.294, -2.854e-6
-1.293, -2.786e-6
-1.292, -2.884e-6
-1.291, -3.016e-6
-1.290, -3.026e-6
-1.289, -2.954e-6
-1.288, -2.848e-6
-1.287, -2.922e-6
-1.286, -3.118e-6
-1.285, -3.114e-6
-1.284, -3.004e-6
-1.283, -2.937e-6
-1.282, -2.997e-6
-1.281, -3.142e-6
-1.280, -3.205e-6
-1.279, -3.052e-6
-1.278, -3.029e-6
-1.277, -3.056e-6
-1.276, -3.221e-6
-1.275, -3.263e-6
-1.274, -3.122e-6
-1.273, -3.056e-6
-1.272, -3.133e-6
-1.271, -3.260e-6
-1.270, -3.308e-6
-1.269, -3.192e-6
-1.268, -3.068e-6
-1.267, -3.191e-6
-1.266, -3.317e-6
-1.265, -3.364e-6
-1.264, -3.237e-6
-1.263, -3.148e-6
-1.262, -3.234e-6
-1.261, -3.362e-6
-1.260, -3.385e-6
-1.259, -3.300e-6
-1.258, -3.196e-6
-1.257, -3.294e-6
-1.256, -3.418e-6
-1.255, -3.430e-6
-1.254, -3.327e-6
-1.253, -3.249e-6
-1.252, -3.303e-6
-1.251, -3.465e-6
-1.250, -3.482e-6
-1.249, -3.361e-6
-1.248, -3.251e-6
-1.247, -3.356e-6
-1.246, -3.486e-6
-1.245, -3.527e-6
-1.244, -3.387e-6
-1.243, -3.319e-6
-1.242, -3.387e-6
-1.241, -3.558e-6
-1.240, -3.565e-6
-1.239, -3.441e-6
-1.238, -3.372e-6
-1.237, -3.432e-6
-1.236, -3.565e-6
-1.235, -3.604e-6
-1.234, -3.499e-6
-1.233, -3.389e-6
-1.232, -3.458e-6
-1.231, -3.589e-6
-1.230, -3.618e-6
-1.229, -3.566e-6
-1.228, -3.430e-6
-1.227, -3.510e-6
-1.226, -3.639e-6
-1.225, -3.676e-6
-1.224, -3.561e-6
-1.223, -3.434e-6
-1.222, -3.551e-6
-1.221, -3.667e-6
-1.220, -3.689e-6
-1.219, -3.587e-6
-1.218, -3.497e-6
-1.217, -3.553e-6
-1.216, -3.704e-6
-1.215, -3.745e-6
-1.214, -3.626e-6
-1.213, -3.500e-6
-1.212, -3.570e-6
-1.211, -3.725e-6
-1.210, -3.735e-6
-1.209, -3.655e-6
-1.208, -3.523e-6
-1.207, -3.585e-6
-1.206, -3.748e-6
-1.205, -3.778e-6
-1.204, -3.640e-6
-1.203, -3.591e-6
-1.202, -3.635e-6
-1.201, -3.774e-6
-1.200, -3.783e-6
-1.199, -3.691e-6
-1.198, -3.625e-6
-1.197, -3.644e-6
-1.196, -3.803e-6
-1.195, -3.842e-6
-1.194, -3.719e-6
-1.193, -3.636e-6
-1.192, -3.655e-6
-1.191, -3.827e-6
-1.190, -3.870e-6
-1.189, -3.729e-6
-1.188, -3.650e-6
-1.187, -3.707e-6
-1.186, -3.843e-6
-1.185, -3.882e-6
-1.184, -3.788e-6
-1.183, -3.671e-6
-1.182, -3.704e-6
-1.181, -3.865e-6
-1.180, -3.888e-6
-1.179, -3.800e-6
-1.178, -3.708e-6
-1.177, -3.769e-6
-1.176, -3.910e-6
-1.175, -3.901e-6
-1.174, -3.842e-6
-1.173, -3.701e-6
-1.172, -3.771e-6
-1.171, -3.948e-6
-1.170, -3.947e-6
-1.169, -3.853e-6
-1.168, -3.741e-6
-1.167, -3.784e-6
-1.166, -3.951e-6
-1.165, -3.953e-6
-1.164, -3.891e-6
-1.163, -3.771e-6
-1.162, -3.812e-6
-1.161, -3.957e-6
-1.160, -3.965e-6
-1.159, -3.862e-6
-1.158, -3.792e-6
-1.157, -3.817e-6
-1.156, -3.956e-6
-1.155, -4.024e-6
-1.154, -3.896e-6
-1.153, -3.811e-6
-1.152, -3.874e-6
-1.151, -4.003e-6
-1.150, -4.040e-6
-1.149, -3.929e-6
-1.148, -3.830e-6
-1.147, -3.891e-6
-1.146, -4.042e-6
-1.145, -4.107e-6
-1.144, -3.951e-6
-1.143, -3.858e-6
-1.142, -3.924e-6
-1.141, -4.079e-6
-1.140, -4.086e-6
-1.139, -4.023e-6
-1.138, -3.903e-6
-1.137, -3.947e-6
-1.136, -4.128e-6
-1.135, -4.153e-6
-1.134, -4.036e-6
-1.133, -3.944e-6
-1.132, -3.983e-6
-1.131, -4.155e-6
-1.130, -4.159e-6
-1.129, -4.081e-6
-1.128, -3.929e-6
-1.127, -4.001e-6
-1.126, -4.184e-6
-1.125, -4.234e-6
-1.124, -4.096e-6
-1.123, -4.030e-6
-1.122, -4.041e-6
-1.121, -4.185e-6
-1.120, -4.256e-6
-1.119, -4.139e-6
-1.118, -4.052e-6
-1.117, -4.075e-6
-1.116, -4.257e-6
-1.115, -4.299e-6
-1.114, -4.189e-6
-1.113, -4.103e-6
-1.112, -4.123e-6
-1.111, -4.275e-6
-1.110, -4.378e-6
-1.109, -4.224e-6
-1.108, -4.113e-6
-1.107, -4.213e-6
-1.106, -4.361e-6
-1.105, -4.427e-6
-1.104, -4.286e-6
-1.103, -4.189e-6
-1.102, -4.249e-6
-1.101, -4.416e-6
-1.100, -4.441e-6
-1.099, -4.371e-6
-1.098, -4.249e-6
-1.097, -4.314e-6
-1.096, -4.447e-6
-1.095, -4.555e-6
-1.094, -4.425e-6
-1.093, -4.322e-6
-1.092, -4.375e-6
-1.091, -4.543e-6
-1.090, -4.584e-6
-1.089, -4.485e-6
-1.088, -4.377e-6
-1.087, -4.450e-6
-1.086, -4.603e-6
-1.085, -4.676e-6
-1.084, -4.560e-6
-1.083, -4.466e-6
-1.082, -4.541e-6
-1.081, -4.717e-6
-1.080, -4.775e-6
-1.079, -4.641e-6
-1.078, -4.581e-6
-1.077, -4.577e-6
-1.076, -4.808e-6
-1.075, -4.881e-6
-1.074, -4.755e-6
-1.073, -4.634e-6
-1.072, -4.695e-6
-1.071, -4.859e-6
-1.070, -4.982e-6
-1.069, -4.841e-6
-1.068, -4.759e-6
-1.067, -4.813e-6
-1.066, -4.944e-6
-1.065, -5.085e-6
-1.064, -4.951e-6
-1.063, -4.848e-6
-1.062, -4.935e-6
-1.061, -5.073e-6
-1.060, -5.189e-6
-1.059, -5.078e-6
-1.058, -4.957e-6
-1.057, -5.056e-6
-1.056, -5.206e-6
-1.055, -5.313e-6
-1.054, -5.219e-6
-1.053, -5.106e-6
-1.052, -5.141e-6
-1.051, -5.337e-6
-1.050, -5.448e-6
-1.049, -5.360e-6
-1.048, -5.232e-6
-1.047, -5.303e-6
-1.046, -5.496e-6
-1.045, -5.599e-6
-1.044, -5.521e-6
-1.043, -5.427e-6
-1.042, -5.466e-6
-1.041, -5.632e-6
-1.040, -5.745e-6
-1.039, -5.617e-6
-1.038, -5.552e-6
-1.037, -5.600e-6
-1.036, -5.776e-6
-1.035, -5.894e-6
-1.034, -5.810e-6
-1.033, -5.672e-6
-1.032, -5.720e-6
-1.031, -5.904e-6
-1.030, -6.063e-6
-1.029, -5.941e-6
-1.028, -5.828e-6
-1.027, -5.891e-6
-1.026, -6.065e-6
-1.025, -6.184e-6
-1.024, -6.112e-6
-1.023, -5.995e-6
-1.022, -6.047e-6
-1.021, -6.229e-6
-1.020, -6.325e-6
-1.019, -6.275e-6
-1.018, -6.128e-6
-1.017, -6.178e-6
-1.016, -6.364e-6
-1.015, -6.505e-6
-1.014, -6.415e-6
-1.013, -6.235e-6
-1.012, -6.310e-6
-1.011, -6.512e-6
-1.010, -6.596e-6
-1.009, -6.531e-6
-1.008, -6.372e-6
-1.007, -6.406e-6
-1.006, -6.615e-6
-1.005, -6.707e-6
-1.004, -6.639e-6
-1.003, -6.486e-6
-1.002, -6.547e-6
-1.001, -6.736e-6
