Aug. 15, 2024   11:42:28
Cyclic Voltammetry
File: c:/users/guazh/data/20240813_batch_94_500/2024-08-15-exp95\exp95-2024-08-15t11_19_59-h2koh\exp95_cv_sr_200mvs_efin_-1800mv.bin
Data Source:  Experiment
Instrument Model:  CHI760E
Header: CV ran at 200 mVs
Note: 

Init E (V) = -1
High E (V) = -1
Low E (V) = -1.8
Final E (V) = -1
Init P/N = N
Scan Rate (V/s) = 0.2
Segment = 3
Sample Interval (V) = 0.001
Quiet Time (sec) = 2
Sensitivity (A/V) = 0.01
Comp R (ohm) = 1.6

Results:

Channel 1:
Segment 1:

Segment 2:

Segment 3:

Potential/V, Current/A

-1.000, 1.379e-6
-1.001, 1.261e-6
-1.002, 1.468e-6
-1.003, 1.675e-6
-1.004, 1.517e-6
-1.005, 1.863e-6
-1.006, 1.695e-6
-1.007, 1.764e-6
-1.008, 2.060e-6
-1.009, 1.813e-6
-1.010, 1.981e-6
-1.011, 1.942e-6
-1.012, 2.040e-6
-1.013, 2.040e-6
-1.014, 2.070e-6
-1.015, 2.247e-6
-1.016, 2.070e-6
-1.017, 2.109e-6
-1.018, 2.218e-6
-1.019, 2.149e-6
-1.020, 2.287e-6
-1.021, 2.267e-6
-1.022, 2.169e-6
-1.023, 2.257e-6
-1.024, 2.336e-6
-1.025, 2.622e-6
-1.026, 2.613e-6
-1.027, 2.603e-6
-1.028, 2.524e-6
-1.029, 2.613e-6
-1.030, 2.751e-6
-1.031, 2.514e-6
-1.032, 2.573e-6
-1.033, 2.790e-6
-1.034, 2.711e-6
-1.035, 2.701e-6
-1.036, 2.820e-6
-1.037, 2.770e-6
-1.038, 2.760e-6
-1.039, 2.662e-6
-1.040, 2.849e-6
-1.041, 2.869e-6
-1.042, 2.682e-6
-1.043, 3.056e-6
-1.044, 2.662e-6
-1.045, 2.918e-6
-1.046, 2.741e-6
-1.047, 2.978e-6
-1.048, 2.997e-6
-1.049, 2.849e-6
-1.050, 3.313e-6
-1.051, 2.978e-6
-1.052, 3.244e-6
-1.053, 2.908e-6
-1.054, 3.126e-6
-1.055, 3.116e-6
-1.056, 2.978e-6
-1.057, 3.155e-6
-1.058, 3.155e-6
-1.059, 3.047e-6
-1.060, 3.264e-6
-1.061, 3.244e-6
-1.062, 3.175e-6
-1.063, 3.431e-6
-1.064, 3.313e-6
-1.065, 3.362e-6
-1.066, 3.323e-6
-1.067, 3.471e-6
-1.068, 3.461e-6
-1.069, 3.224e-6
-1.070, 3.422e-6
-1.071, 3.422e-6
-1.072, 3.461e-6
-1.073, 3.323e-6
-1.074, 3.274e-6
-1.075, 3.540e-6
-1.076, 3.540e-6
-1.077, 3.550e-6
-1.078, 3.737e-6
-1.079, 3.362e-6
-1.080, 3.560e-6
-1.081, 3.550e-6
-1.082, 3.806e-6
-1.083, 3.885e-6
-1.084, 3.658e-6
-1.085, 3.708e-6
-1.086, 3.550e-6
-1.087, 3.698e-6
-1.088, 3.757e-6
-1.089, 3.579e-6
-1.090, 3.875e-6
-1.091, 3.836e-6
-1.092, 3.984e-6
-1.093, 3.826e-6
-1.094, 3.846e-6
-1.095, 3.826e-6
-1.096, 3.708e-6
-1.097, 3.836e-6
-1.098, 3.915e-6
-1.099, 3.737e-6
-1.100, 3.925e-6
-1.101, 3.905e-6
-1.102, 4.152e-6
-1.103, 4.083e-6
-1.104, 3.757e-6
-1.105, 4.329e-6
-1.106, 3.954e-6
-1.107, 4.240e-6
-1.108, 4.112e-6
-1.109, 3.905e-6
-1.110, 4.112e-6
-1.111, 4.013e-6
-1.112, 4.053e-6
-1.113, 4.457e-6
-1.114, 4.023e-6
-1.115, 4.063e-6
-1.116, 4.181e-6
-1.117, 4.191e-6
-1.118, 4.280e-6
-1.119, 4.004e-6
-1.120, 4.319e-6
-1.121, 4.043e-6
-1.122, 4.300e-6
-1.123, 4.221e-6
-1.124, 4.171e-6
-1.125, 4.211e-6
-1.126, 4.349e-6
-1.127, 4.408e-6
-1.128, 4.388e-6
-1.129, 4.033e-6
-1.130, 4.280e-6
-1.131, 4.359e-6
-1.132, 4.290e-6
-1.133, 4.388e-6
-1.134, 4.191e-6
-1.135, 4.240e-6
-1.136, 4.300e-6
-1.137, 4.467e-6
-1.138, 4.507e-6
-1.139, 4.231e-6
-1.140, 4.566e-6
-1.141, 4.546e-6
-1.142, 4.605e-6
-1.143, 4.615e-6
-1.144, 4.556e-6
-1.145, 4.576e-6
-1.146, 4.428e-6
-1.147, 4.605e-6
-1.148, 4.773e-6
-1.149, 4.359e-6
-1.150, 4.783e-6
-1.151, 4.467e-6
-1.152, 4.625e-6
-1.153, 4.665e-6
-1.154, 4.813e-6
-1.155, 4.921e-6
-1.156, 4.793e-6
-1.157, 4.921e-6
-1.158, 4.655e-6
-1.159, 4.655e-6
-1.160, 4.753e-6
-1.161, 4.763e-6
-1.162, 4.665e-6
-1.163, 4.931e-6
-1.164, 4.645e-6
-1.165, 4.921e-6
-1.166, 4.990e-6
-1.167, 4.941e-6
-1.168, 4.951e-6
-1.169, 4.566e-6
-1.170, 4.990e-6
-1.171, 4.980e-6
-1.172, 4.931e-6
-1.173, 4.970e-6
-1.174, 4.951e-6
-1.175, 4.970e-6
-1.176, 4.803e-6
-1.177, 5.109e-6
-1.178, 5.217e-6
-1.179, 4.961e-6
-1.180, 5.148e-6
-1.181, 5.040e-6
-1.182, 5.158e-6
-1.183, 5.336e-6
-1.184, 5.168e-6
-1.185, 5.385e-6
-1.186, 5.148e-6
-1.187, 5.336e-6
-1.188, 5.158e-6
-1.189, 5.158e-6
-1.190, 5.474e-6
-1.191, 5.395e-6
-1.192, 5.582e-6
-1.193, 5.414e-6
-1.194, 5.464e-6
-1.195, 5.483e-6
-1.196, 5.395e-6
-1.197, 5.602e-6
-1.198, 5.592e-6
-1.199, 5.217e-6
-1.200, 5.710e-6
-1.201, 5.503e-6
-1.202, 5.651e-6
-1.203, 5.592e-6
-1.204, 5.671e-6
-1.205, 5.740e-6
-1.206, 5.612e-6
-1.207, 5.888e-6
-1.208, 5.977e-6
-1.209, 5.809e-6
-1.210, 6.273e-6
-1.211, 5.868e-6
-1.212, 5.997e-6
-1.213, 6.125e-6
-1.214, 6.105e-6
-1.215, 5.977e-6
-1.216, 6.026e-6
-1.217, 6.362e-6
-1.218, 6.105e-6
-1.219, 6.016e-6
-1.220, 6.302e-6
-1.221, 6.223e-6
-1.222, 6.273e-6
-1.223, 6.293e-6
-1.224, 6.293e-6
-1.225, 6.470e-6
-1.226, 6.490e-6
-1.227, 6.658e-6
-1.228, 6.717e-6
-1.229, 6.618e-6
-1.230, 6.815e-6
-1.231, 6.875e-6
-1.232, 6.825e-6
-1.233, 7.032e-6
-1.234, 6.776e-6
-1.235, 6.944e-6
-1.236, 6.884e-6
-1.237, 7.141e-6
-1.238, 7.131e-6
-1.239, 7.072e-6
-1.240, 7.407e-6
-1.241, 7.151e-6
-1.242, 7.437e-6
-1.243, 7.427e-6
-1.244, 7.486e-6
-1.245, 7.565e-6
-1.246, 7.368e-6
-1.247, 7.763e-6
-1.248, 7.802e-6
-1.249, 7.644e-6
-1.250, 8.019e-6
-1.251, 7.861e-6
-1.252, 8.226e-6
-1.253, 8.059e-6
-1.254, 8.078e-6
-1.255, 8.236e-6
-1.256, 8.216e-6
-1.257, 8.335e-6
-1.258, 8.512e-6
-1.259, 8.325e-6
-1.260, 8.591e-6
-1.261, 8.532e-6
-1.262, 8.660e-6
-1.263, 8.808e-6
-1.264, 9.016e-6
-1.265, 9.065e-6
-1.266, 8.996e-6
-1.267, 9.420e-6
-1.268, 9.519e-6
-1.269, 9.134e-6
-1.270, 9.400e-6
-1.271, 9.341e-6
-1.272, 9.617e-6
-1.273, 9.647e-6
-1.274, 9.746e-6
-1.275, 9.963e-6
-1.276, 9.746e-6
-1.277, 1.017e-5
-1.278, 1.015e-5
-1.279, 9.923e-6
-1.280, 1.036e-5
-1.281, 1.042e-5
-1.282, 1.076e-5
-1.283, 1.070e-5
-1.284, 1.074e-5
-1.285, 1.092e-5
-1.286, 1.091e-5
-1.287, 1.120e-5
-1.288, 1.134e-5
-1.289, 1.111e-5
-1.290, 1.150e-5
-1.291, 1.144e-5
-1.292, 1.175e-5
-1.293, 1.175e-5
-1.294, 1.181e-5
-1.295, 1.199e-5
-1.296, 1.200e-5
-1.297, 1.218e-5
-1.298, 1.244e-5
-1.299, 1.241e-5
-1.300, 1.261e-5
-1.301, 1.271e-5
-1.302, 1.294e-5
-1.303, 1.314e-5
-1.304, 1.303e-5
-1.305, 1.346e-5
-1.306, 1.315e-5
-1.307, 1.368e-5
-1.308, 1.384e-5
-1.309, 1.384e-5
-1.310, 1.396e-5
-1.311, 1.413e-5
-1.312, 1.424e-5
-1.313, 1.440e-5
-1.314, 1.446e-5
-1.315, 1.476e-5
-1.316, 1.463e-5
-1.317, 1.493e-5
-1.318, 1.521e-5
-1.319, 1.510e-5
-1.320, 1.567e-5
-1.321, 1.548e-5
-1.322, 1.580e-5
-1.323, 1.607e-5
-1.324, 1.607e-5
-1.325, 1.631e-5
-1.326, 1.627e-5
-1.327, 1.656e-5
-1.328, 1.683e-5
-1.329, 1.702e-5
-1.330, 1.722e-5
-1.331, 1.724e-5
-1.332, 1.756e-5
-1.333, 1.760e-5
-1.334, 1.779e-5
-1.335, 1.818e-5
-1.336, 1.809e-5
-1.337, 1.860e-5
-1.338, 1.880e-5
-1.339, 1.862e-5
-1.340, 1.899e-5
-1.341, 1.925e-5
-1.342, 1.937e-5
-1.343, 1.950e-5
-1.344, 1.986e-5
-1.345, 1.984e-5
-1.346, 2.006e-5
-1.347, 2.038e-5
-1.348, 2.065e-5
-1.349, 2.056e-5
-1.350, 2.090e-5
-1.351, 2.085e-5
-1.352, 2.098e-5
-1.353, 2.129e-5
-1.354, 2.156e-5
-1.355, 2.159e-5
-1.356, 2.166e-5
-1.357, 2.216e-5
-1.358, 2.227e-5
-1.359, 2.211e-5
-1.360, 2.248e-5
-1.361, 2.257e-5
-1.362, 2.291e-5
-1.363, 2.285e-5
-1.364, 2.298e-5
-1.365, 2.314e-5
-1.366, 2.324e-5
-1.367, 2.357e-5
-1.368, 2.359e-5
-1.369, 2.364e-5
-1.370, 2.405e-5
-1.371, 2.400e-5
-1.372, 2.421e-5
-1.373, 2.451e-5
-1.374, 2.434e-5
-1.375, 2.462e-5
-1.376, 2.464e-5
-1.377, 2.498e-5
-1.378, 2.516e-5
-1.379, 2.512e-5
-1.380, 2.536e-5
-1.381, 2.528e-5
-1.382, 2.582e-5
-1.383, 2.610e-5
-1.384, 2.605e-5
-1.385, 2.636e-5
-1.386, 2.630e-5
-1.387, 2.657e-5
-1.388, 2.681e-5
-1.389, 2.678e-5
-1.390, 2.730e-5
-1.391, 2.724e-5
-1.392, 2.759e-5
-1.393, 2.760e-5
-1.394, 2.804e-5
-1.395, 2.821e-5
-1.396, 2.824e-5
-1.397, 2.856e-5
-1.398, 2.891e-5
-1.399, 2.880e-5
-1.400, 2.915e-5
-1.401, 2.948e-5
-1.402, 2.994e-5
-1.403, 3.002e-5
-1.404, 3.012e-5
-1.405, 3.053e-5
-1.406, 3.038e-5
-1.407, 3.075e-5
-1.408, 3.088e-5
-1.409, 3.090e-5
-1.410, 3.147e-5
-1.411, 3.162e-5
-1.412, 3.187e-5
-1.413, 3.198e-5
-1.414, 3.223e-5
-1.415, 3.249e-5
-1.416, 3.267e-5
-1.417, 3.304e-5
-1.418, 3.323e-5
-1.419, 3.337e-5
-1.420, 3.389e-5
-1.421, 3.402e-5
-1.422, 3.420e-5
-1.423, 3.465e-5
-1.424, 3.466e-5
-1.425, 3.495e-5
-1.426, 3.518e-5
-1.427, 3.552e-5
-1.428, 3.575e-5
-1.429, 3.591e-5
-1.430, 3.623e-5
-1.431, 3.642e-5
-1.432, 3.674e-5
-1.433, 3.707e-5
-1.434, 3.746e-5
-1.435, 3.799e-5
-1.436, 3.793e-5
-1.437, 3.857e-5
-1.438, 3.898e-5
-1.439, 3.886e-5
-1.440, 3.947e-5
-1.441, 3.954e-5
-1.442, 3.983e-5
-1.443, 4.012e-5
-1.444, 4.061e-5
-1.445, 4.103e-5
-1.446, 4.123e-5
-1.447, 4.163e-5
-1.448, 4.188e-5
-1.449, 4.208e-5
-1.450, 4.259e-5
-1.451, 4.275e-5
-1.452, 4.330e-5
-1.453, 4.360e-5
-1.454, 4.371e-5
-1.455, 4.450e-5
-1.456, 4.448e-5
-1.457, 4.500e-5
-1.458, 4.545e-5
-1.459, 4.545e-5
-1.460, 4.621e-5
-1.461, 4.626e-5
-1.462, 4.683e-5
-1.463, 4.699e-5
-1.464, 4.721e-5
-1.465, 4.769e-5
-1.466, 4.796e-5
-1.467, 4.847e-5
-1.468, 4.868e-5
-1.469, 4.904e-5
-1.470, 4.952e-5
-1.471, 4.988e-5
-1.472, 5.026e-5
-1.473, 5.077e-5
-1.474, 5.094e-5
-1.475, 5.142e-5
-1.476, 5.171e-5
-1.477, 5.230e-5
-1.478, 5.273e-5
-1.479, 5.300e-5
-1.480, 5.346e-5
-1.481, 5.376e-5
-1.482, 5.427e-5
-1.483, 5.472e-5
-1.484, 5.504e-5
-1.485, 5.562e-5
-1.486, 5.584e-5
-1.487, 5.645e-5
-1.488, 5.707e-5
-1.489, 5.724e-5
-1.490, 5.779e-5
-1.491, 5.799e-5
-1.492, 5.865e-5
-1.493, 5.909e-5
-1.494, 5.938e-5
-1.495, 6.001e-5
-1.496, 6.038e-5
-1.497, 6.098e-5
-1.498, 6.141e-5
-1.499, 6.169e-5
-1.500, 6.246e-5
-1.501, 6.287e-5
-1.502, 6.320e-5
-1.503, 6.373e-5
-1.504, 6.430e-5
-1.505, 6.487e-5
-1.506, 6.511e-5
-1.507, 6.581e-5
-1.508, 6.639e-5
-1.509, 6.656e-5
-1.510, 6.731e-5
-1.511, 6.748e-5
-1.512, 6.814e-5
-1.513, 6.875e-5
-1.514, 6.932e-5
-1.515, 7.009e-5
-1.516, 7.015e-5
-1.517, 7.115e-5
-1.518, 7.161e-5
-1.519, 7.231e-5
-1.520, 7.279e-5
-1.521, 7.325e-5
-1.522, 7.418e-5
-1.523, 7.451e-5
-1.524, 7.509e-5
-1.525, 7.564e-5
-1.526, 7.612e-5
-1.527, 7.707e-5
-1.528, 7.759e-5
-1.529, 7.822e-5
-1.530, 7.886e-5
-1.531, 7.933e-5
-1.532, 7.992e-5
-1.533, 8.037e-5
-1.534, 8.097e-5
-1.535, 8.189e-5
-1.536, 8.238e-5
-1.537, 8.327e-5
-1.538, 8.382e-5
-1.539, 8.453e-5
-1.540, 8.549e-5
-1.541, 8.569e-5
-1.542, 8.650e-5
-1.543, 8.722e-5
-1.544, 8.785e-5
-1.545, 8.902e-5
-1.546, 8.953e-5
-1.547, 9.075e-5
-1.548, 9.133e-5
-1.549, 9.226e-5
-1.550, 9.315e-5
-1.551, 9.368e-5
-1.552, 9.450e-5
-1.553, 9.522e-5
-1.554, 9.600e-5
-1.555, 9.707e-5
-1.556, 9.772e-5
-1.557, 9.880e-5
-1.558, 9.948e-5
-1.559, 1.000e-4
-1.560, 1.011e-4
-1.561, 1.019e-4
-1.562, 1.028e-4
-1.563, 1.039e-4
-1.564, 1.048e-4
-1.565, 1.059e-4
-1.566, 1.068e-4
-1.567, 1.076e-4
-1.568, 1.087e-4
-1.569, 1.095e-4
-1.570, 1.108e-4
-1.571, 1.118e-4
-1.572, 1.130e-4
-1.573, 1.140e-4
-1.574, 1.147e-4
-1.575, 1.163e-4
-1.576, 1.171e-4
-1.577, 1.181e-4
-1.578, 1.195e-4
-1.579, 1.206e-4
-1.580, 1.222e-4
-1.581, 1.234e-4
-1.582, 1.247e-4
-1.583, 1.262e-4
-1.584, 1.277e-4
-1.585, 1.288e-4
-1.586, 1.301e-4
-1.587, 1.317e-4
-1.588, 1.333e-4
-1.589, 1.345e-4
-1.590, 1.358e-4
-1.591, 1.372e-4
-1.592, 1.389e-4
-1.593, 1.404e-4
-1.594, 1.420e-4
-1.595, 1.437e-4
-1.596, 1.449e-4
-1.597, 1.469e-4
-1.598, 1.485e-4
-1.599, 1.500e-4
-1.600, 1.522e-4
-1.601, 1.537e-4
-1.602, 1.557e-4
-1.603, 1.578e-4
-1.604, 1.594e-4
-1.605, 1.618e-4
-1.606, 1.634e-4
-1.607, 1.657e-4
-1.608, 1.679e-4
-1.609, 1.701e-4
-1.610, 1.726e-4
-1.611, 1.752e-4
-1.612, 1.780e-4
-1.613, 1.808e-4
-1.614, 1.833e-4
-1.615, 1.855e-4
-1.616, 1.876e-4
-1.617, 1.899e-4
-1.618, 1.924e-4
-1.619, 1.952e-4
-1.620, 1.983e-4
-1.621, 2.015e-4
-1.622, 2.044e-4
-1.623, 2.072e-4
-1.624, 2.094e-4
-1.625, 2.122e-4
-1.626, 2.155e-4
-1.627, 2.190e-4
-1.628, 2.236e-4
-1.629, 2.289e-4
-1.630, 2.327e-4
-1.631, 2.353e-4
-1.632, 2.387e-4
-1.633, 2.424e-4
-1.634, 2.457e-4
-1.635, 2.498e-4
-1.636, 2.544e-4
-1.637, 2.581e-4
-1.638, 2.616e-4
-1.639, 2.649e-4
-1.640, 2.679e-4
-1.641, 2.721e-4
-1.642, 2.766e-4
-1.643, 2.805e-4
-1.644, 2.859e-4
-1.645, 2.914e-4
-1.646, 2.964e-4
-1.647, 3.022e-4
-1.648, 3.076e-4
-1.649, 3.125e-4
-1.650, 3.180e-4
-1.651, 3.236e-4
-1.652, 3.304e-4
-1.653, 3.371e-4
-1.654, 3.447e-4
-1.655, 3.518e-4
-1.656, 3.584e-4
-1.657, 3.664e-4
-1.658, 3.745e-4
-1.659, 3.819e-4
-1.660, 3.906e-4
-1.661, 4.000e-4
-1.662, 4.106e-4
-1.663, 4.197e-4
-1.664, 4.281e-4
-1.665, 4.382e-4
-1.666, 4.485e-4
-1.667, 4.582e-4
-1.668, 4.676e-4
-1.669, 4.765e-4
-1.670, 4.860e-4
-1.671, 4.959e-4
-1.672, 5.048e-4
-1.673, 5.133e-4
-1.674, 5.222e-4
-1.675, 5.314e-4
-1.676, 5.410e-4
-1.677, 5.512e-4
-1.678, 5.630e-4
-1.679, 5.747e-4
-1.680, 5.867e-4
-1.681, 5.986e-4
-1.682, 6.120e-4
-1.683, 6.261e-4
-1.684, 6.390e-4
-1.685, 6.520e-4
-1.686, 6.659e-4
-1.687, 6.807e-4
-1.688, 6.960e-4
-1.689, 7.124e-4
-1.690, 7.330e-4
-1.691, 7.488e-4
-1.692, 7.662e-4
-1.693, 7.845e-4
-1.694, 7.972e-4
-1.695, 8.105e-4
-1.696, 8.318e-4
-1.697, 8.558e-4
-1.698, 8.777e-4
-1.699, 8.989e-4
-1.700, 9.228e-4
-1.701, 9.450e-4
-1.702, 9.631e-4
-1.703, 9.792e-4
-1.704, 9.980e-4
-1.705, 1.020e-3
-1.706, 1.043e-3
-1.707, 1.069e-3
-1.708, 1.097e-3
-1.709, 1.120e-3
-1.710, 1.141e-3
-1.711, 1.159e-3
-1.712, 1.178e-3
-1.713, 1.202e-3
-1.714, 1.227e-3
-1.715, 1.254e-3
-1.716, 1.283e-3
-1.717, 1.312e-3
-1.718, 1.338e-3
-1.719, 1.358e-3
-1.720, 1.379e-3
-1.721, 1.412e-3
-1.722, 1.448e-3
-1.723, 1.480e-3
-1.724, 1.520e-3
-1.725, 1.558e-3
-1.726, 1.592e-3
-1.727, 1.624e-3
-1.728, 1.656e-3
-1.729, 1.688e-3
-1.730, 1.724e-3
-1.731, 1.761e-3
-1.732, 1.800e-3
-1.733, 1.845e-3
-1.734, 1.887e-3
-1.735, 1.922e-3
-1.736, 1.948e-3
-1.737, 1.958e-3
-1.738, 1.999e-3
-1.739, 2.066e-3
-1.740, 2.106e-3
-1.741, 2.138e-3
-1.742, 2.183e-3
-1.743, 2.238e-3
-1.744, 2.287e-3
-1.745, 2.333e-3
-1.746, 2.378e-3
-1.747, 2.422e-3
-1.748, 2.466e-3
-1.749, 2.512e-3
-1.750, 2.559e-3
-1.751, 2.605e-3
-1.752, 2.656e-3
-1.753, 2.712e-3
-1.754, 2.760e-3
-1.755, 2.810e-3
-1.756, 2.868e-3
-1.757, 2.927e-3
-1.758, 2.991e-3
-1.759, 3.053e-3
-1.760, 3.111e-3
-1.761, 3.162e-3
-1.762, 3.220e-3
-1.763, 3.278e-3
-1.764, 3.341e-3
-1.765, 3.398e-3
-1.766, 3.448e-3
-1.767, 3.500e-3
-1.768, 3.549e-3
-1.769, 3.600e-3
-1.770, 3.650e-3
-1.771, 3.706e-3
-1.772, 3.764e-3
-1.773, 3.824e-3
-1.774, 3.886e-3
-1.775, 3.947e-3
-1.776, 4.008e-3
-1.777, 4.072e-3
-1.778, 4.131e-3
-1.779, 4.187e-3
-1.780, 4.253e-3
-1.781, 4.325e-3
-1.782, 4.396e-3
-1.783, 4.449e-3
-1.784, 4.524e-3
-1.785, 4.603e-3
-1.786, 4.676e-3
-1.787, 4.746e-3
-1.788, 4.816e-3
-1.789, 4.885e-3
-1.790, 4.952e-3
-1.791, 5.021e-3
-1.792, 5.100e-3
-1.793, 5.175e-3
-1.794, 5.249e-3
-1.795, 5.322e-3
-1.796, 5.389e-3
-1.797, 5.453e-3
-1.798, 5.530e-3
-1.799, 5.604e-3
-1.800, 5.632e-3
-1.799, 5.595e-3
-1.798, 5.553e-3
-1.797, 5.505e-3
-1.796, 5.464e-3
-1.795, 5.438e-3
-1.794, 5.416e-3
-1.793, 5.396e-3
-1.792, 5.367e-3
-1.791, 5.338e-3
-1.790, 5.302e-3
-1.789, 5.271e-3
-1.788, 5.237e-3
-1.787, 5.196e-3
-1.786, 5.148e-3
-1.785, 5.098e-3
-1.784, 5.055e-3
-1.783, 5.008e-3
-1.782, 4.950e-3
-1.781, 4.899e-3
-1.780, 4.866e-3
-1.779, 4.840e-3
-1.778, 4.803e-3
-1.777, 4.758e-3
-1.776, 4.726e-3
-1.775, 4.703e-3
-1.774, 4.675e-3
-1.773, 4.642e-3
-1.772, 4.601e-3
-1.771, 4.555e-3
-1.770, 4.522e-3
-1.769, 4.482e-3
-1.768, 4.440e-3
-1.767, 4.390e-3
-1.766, 4.347e-3
-1.765, 4.303e-3
-1.764, 4.261e-3
-1.763, 4.215e-3
-1.762, 4.171e-3
-1.761, 4.130e-3
-1.760, 4.089e-3
-1.759, 4.051e-3
-1.758, 4.009e-3
-1.757, 3.967e-3
-1.756, 3.926e-3
-1.755, 3.886e-3
-1.754, 3.845e-3
-1.753, 3.803e-3
-1.752, 3.758e-3
-1.751, 3.711e-3
-1.750, 3.659e-3
-1.749, 3.623e-3
-1.748, 3.589e-3
-1.747, 3.548e-3
-1.746, 3.500e-3
-1.745, 3.458e-3
-1.744, 3.420e-3
-1.743, 3.384e-3
-1.742, 3.348e-3
-1.741, 3.310e-3
-1.740, 3.273e-3
-1.739, 3.236e-3
-1.738, 3.195e-3
-1.737, 3.156e-3
-1.736, 3.122e-3
-1.735, 3.079e-3
-1.734, 3.032e-3
-1.733, 2.986e-3
-1.732, 2.946e-3
-1.731, 2.911e-3
-1.730, 2.872e-3
-1.729, 2.826e-3
-1.728, 2.791e-3
-1.727, 2.753e-3
-1.726, 2.715e-3
-1.725, 2.679e-3
-1.724, 2.644e-3
-1.723, 2.608e-3
-1.722, 2.571e-3
-1.721, 2.532e-3
-1.720, 2.494e-3
-1.719, 2.458e-3
-1.718, 2.424e-3
-1.717, 2.390e-3
-1.716, 2.354e-3
-1.715, 2.316e-3
-1.714, 2.278e-3
-1.713, 2.241e-3
-1.712, 2.208e-3
-1.711, 2.173e-3
-1.710, 2.139e-3
-1.709, 2.108e-3
-1.708, 2.075e-3
-1.707, 2.037e-3
-1.706, 2.001e-3
-1.705, 1.972e-3
-1.704, 1.943e-3
-1.703, 1.914e-3
-1.702, 1.884e-3
-1.701, 1.852e-3
-1.700, 1.817e-3
-1.699, 1.786e-3
-1.698, 1.758e-3
-1.697, 1.731e-3
-1.696, 1.705e-3
-1.695, 1.674e-3
-1.694, 1.643e-3
-1.693, 1.612e-3
-1.692, 1.582e-3
-1.691, 1.556e-3
-1.690, 1.530e-3
-1.689, 1.505e-3
-1.688, 1.479e-3
-1.687, 1.450e-3
-1.686, 1.422e-3
-1.685, 1.396e-3
-1.684, 1.369e-3
-1.683, 1.344e-3
-1.682, 1.320e-3
-1.681, 1.296e-3
-1.680, 1.272e-3
-1.679, 1.246e-3
-1.678, 1.220e-3
-1.677, 1.195e-3
-1.676, 1.173e-3
-1.675, 1.150e-3
-1.674, 1.128e-3
-1.673, 1.108e-3
-1.672, 1.087e-3
-1.671, 1.065e-3
-1.670, 1.042e-3
-1.669, 1.021e-3
-1.668, 1.001e-3
-1.667, 9.800e-4
-1.666, 9.604e-4
-1.665, 9.424e-4
-1.664, 9.233e-4
-1.663, 9.058e-4
-1.662, 8.877e-4
-1.661, 8.683e-4
-1.660, 8.487e-4
-1.659, 8.303e-4
-1.658, 8.118e-4
-1.657, 7.941e-4
-1.656, 7.786e-4
-1.655, 7.636e-4
-1.654, 7.469e-4
-1.653, 7.307e-4
-1.652, 7.146e-4
-1.651, 6.983e-4
-1.650, 6.838e-4
-1.649, 6.697e-4
-1.648, 6.552e-4
-1.647, 6.417e-4
-1.646, 6.272e-4
-1.645, 6.127e-4
-1.644, 5.985e-4
-1.643, 5.852e-4
-1.642, 5.722e-4
-1.641, 5.594e-4
-1.640, 5.473e-4
-1.639, 5.356e-4
-1.638, 5.240e-4
-1.637, 5.121e-4
-1.636, 4.997e-4
-1.635, 4.891e-4
-1.634, 4.786e-4
-1.633, 4.683e-4
-1.632, 4.585e-4
-1.631, 4.485e-4
-1.630, 4.393e-4
-1.629, 4.294e-4
-1.628, 4.206e-4
-1.627, 4.102e-4
-1.626, 4.011e-4
-1.625, 3.917e-4
-1.624, 3.827e-4
-1.623, 3.741e-4
-1.622, 3.649e-4
-1.621, 3.573e-4
-1.620, 3.492e-4
-1.619, 3.412e-4
-1.618, 3.336e-4
-1.617, 3.257e-4
-1.616, 3.185e-4
-1.615, 3.112e-4
-1.614, 3.031e-4
-1.613, 2.958e-4
-1.612, 2.887e-4
-1.611, 2.819e-4
-1.610, 2.756e-4
-1.609, 2.692e-4
-1.608, 2.629e-4
-1.607, 2.567e-4
-1.606, 2.514e-4
-1.605, 2.456e-4
-1.604, 2.400e-4
-1.603, 2.350e-4
-1.602, 2.297e-4
-1.601, 2.247e-4
-1.600, 2.199e-4
-1.599, 2.147e-4
-1.598, 2.097e-4
-1.597, 2.050e-4
-1.596, 2.002e-4
-1.595, 1.961e-4
-1.594, 1.913e-4
-1.593, 1.874e-4
-1.592, 1.829e-4
-1.591, 1.785e-4
-1.590, 1.747e-4
-1.589, 1.706e-4
-1.588, 1.668e-4
-1.587, 1.627e-4
-1.586, 1.593e-4
-1.585, 1.558e-4
-1.584, 1.519e-4
-1.583, 1.484e-4
-1.582, 1.448e-4
-1.581, 1.417e-4
-1.580, 1.386e-4
-1.579, 1.354e-4
-1.578, 1.323e-4
-1.577, 1.289e-4
-1.576, 1.261e-4
-1.575, 1.235e-4
-1.574, 1.204e-4
-1.573, 1.179e-4
-1.572, 1.151e-4
-1.571, 1.152e-4
-1.570, 1.126e-4
-1.569, 1.090e-4
-1.568, 1.067e-4
-1.567, 1.040e-4
-1.566, 1.019e-4
-1.565, 9.954e-5
-1.564, 9.702e-5
-1.563, 9.484e-5
-1.562, 9.272e-5
-1.561, 9.051e-5
-1.560, 8.862e-5
-1.559, 8.662e-5
-1.558, 8.489e-5
-1.557, 8.276e-5
-1.556, 8.101e-5
-1.555, 7.925e-5
-1.554, 7.735e-5
-1.553, 7.575e-5
-1.552, 7.390e-5
-1.551, 7.249e-5
-1.550, 7.079e-5
-1.549, 6.901e-5
-1.548, 6.752e-5
-1.547, 6.578e-5
-1.546, 6.446e-5
-1.545, 6.340e-5
-1.544, 6.178e-5
-1.543, 6.053e-5
-1.542, 5.922e-5
-1.541, 5.778e-5
-1.540, 5.656e-5
-1.539, 5.520e-5
-1.538, 5.437e-5
-1.537, 5.295e-5
-1.536, 5.201e-5
-1.535, 5.089e-5
-1.534, 4.967e-5
-1.533, 4.927e-5
-1.532, 4.772e-5
-1.531, 4.676e-5
-1.530, 4.608e-5
-1.529, 4.474e-5
-1.528, 4.389e-5
-1.527, 4.273e-5
-1.526, 4.219e-5
-1.525, 4.115e-5
-1.524, 4.034e-5
-1.523, 3.961e-5
-1.522, 3.845e-5
-1.521, 3.767e-5
-1.520, 3.682e-5
-1.519, 3.606e-5
-1.518, 3.529e-5
-1.517, 3.464e-5
-1.516, 3.381e-5
-1.515, 3.329e-5
-1.514, 3.229e-5
-1.513, 3.184e-5
-1.512, 3.113e-5
-1.511, 3.038e-5
-1.510, 3.007e-5
-1.509, 2.904e-5
-1.508, 2.879e-5
-1.507, 2.805e-5
-1.506, 2.749e-5
-1.505, 2.713e-5
-1.504, 2.624e-5
-1.503, 2.610e-5
-1.502, 2.536e-5
-1.501, 2.493e-5
-1.500, 2.452e-5
-1.499, 2.377e-5
-1.498, 2.343e-5
-1.497, 2.271e-5
-1.496, 2.257e-5
-1.495, 2.199e-5
-1.494, 2.145e-5
-1.493, 2.137e-5
-1.492, 2.056e-5
-1.491, 2.029e-5
-1.490, 2.001e-5
-1.489, 1.949e-5
-1.488, 1.896e-5
-1.487, 1.869e-5
-1.486, 1.829e-5
-1.485, 1.776e-5
-1.484, 1.737e-5
-1.483, 1.716e-5
-1.482, 1.671e-5
-1.481, 1.632e-5
-1.480, 1.630e-5
-1.479, 1.556e-5
-1.478, 1.544e-5
-1.477, 1.509e-5
-1.476, 1.491e-5
-1.475, 1.475e-5
-1.474, 1.411e-5
-1.473, 1.413e-5
-1.472, 1.370e-5
-1.471, 1.346e-5
-1.470, 1.323e-5
-1.469, 1.271e-5
-1.468, 1.289e-5
-1.467, 1.233e-5
-1.466, 1.224e-5
-1.465, 1.205e-5
-1.464, 1.136e-5
-1.463, 1.179e-5
-1.462, 1.120e-5
-1.461, 1.128e-5
-1.460, 1.099e-5
-1.459, 1.041e-5
-1.458, 1.072e-5
-1.457, 1.006e-5
-1.456, 1.014e-5
-1.455, 9.834e-6
-1.454, 9.529e-6
-1.453, 9.548e-6
-1.452, 9.252e-6
-1.451, 8.877e-6
-1.450, 8.966e-6
-1.449, 8.650e-6
-1.448, 8.463e-6
-1.447, 8.335e-6
-1.446, 8.206e-6
-1.445, 7.950e-6
-1.444, 7.782e-6
-1.443, 7.703e-6
-1.442, 7.437e-6
-1.441, 7.299e-6
-1.440, 7.161e-6
-1.439, 6.963e-6
-1.438, 7.102e-6
-1.437, 6.766e-6
-1.436, 6.756e-6
-1.435, 6.588e-6
-1.434, 6.154e-6
-1.433, 6.154e-6
-1.432, 5.839e-6
-1.431, 5.770e-6
-1.430, 5.819e-6
-1.429, 5.355e-6
-1.428, 5.513e-6
-1.427, 5.355e-6
-1.426, 5.178e-6
-1.425, 5.109e-6
-1.424, 4.763e-6
-1.423, 4.901e-6
-1.422, 4.655e-6
-1.421, 4.467e-6
-1.420, 4.546e-6
-1.419, 4.329e-6
-1.418, 4.201e-6
-1.417, 4.142e-6
-1.416, 4.083e-6
-1.415, 3.925e-6
-1.414, 3.609e-6
-1.413, 3.796e-6
-1.412, 3.412e-6
-1.411, 3.579e-6
-1.410, 3.422e-6
-1.409, 3.234e-6
-1.408, 3.293e-6
-1.407, 3.145e-6
-1.406, 3.204e-6
-1.405, 3.047e-6
-1.404, 2.751e-6
-1.403, 2.968e-6
-1.402, 2.652e-6
-1.401, 2.504e-6
-1.400, 2.543e-6
-1.399, 2.326e-6
-1.398, 2.484e-6
-1.397, 2.247e-6
-1.396, 2.386e-6
-1.395, 2.090e-6
-1.394, 1.942e-6
-1.393, 1.971e-6
-1.392, 1.892e-6
-1.391, 2.011e-6
-1.390, 1.823e-6
-1.389, 1.547e-6
-1.388, 1.764e-6
-1.387, 1.715e-6
-1.386, 1.665e-6
-1.385, 1.675e-6
-1.384, 1.192e-6
-1.383, 1.350e-6
-1.382, 1.172e-6
-1.381, 1.202e-6
-1.380, 1.340e-6
-1.379, 9.156e-7
-1.378, 1.261e-6
-1.377, 8.564e-7
-1.376, 1.014e-6
-1.375, 1.004e-6
-1.374, 7.577e-7
-1.373, 9.057e-7
-1.372, 6.097e-7
-1.371, 7.972e-7
-1.370, 6.689e-7
-1.369, 4.815e-7
-1.368, 6.393e-7
-1.367, 3.039e-7
-1.366, 3.927e-7
-1.365, 3.729e-7
-1.364, 3.039e-7
-1.363, 1.657e-7
-1.362, 2.841e-7
-1.361, -1.105e-7
-1.360, 1.559e-7
-1.359, 6.709e-8
-1.358, -1.973e-9
-1.357, -6.117e-8
-1.356, -9.077e-8
-1.355, -5.130e-8
-1.354, -1.401e-7
-1.353, -6.117e-8
-1.352, -2.388e-7
-1.351, -2.980e-7
-1.350, -3.670e-7
-1.349, -5.051e-7
-1.348, -1.401e-7
-1.347, -6.038e-7
-1.346, -5.051e-7
-1.345, -2.881e-7
-1.344, -6.531e-7
-1.343, -5.249e-7
-1.342, -6.729e-7
-1.341, -5.347e-7
-1.340, -4.459e-7
-1.339, -8.110e-7
-1.338, -7.419e-7
-1.337, -8.899e-7
-1.336, -6.433e-7
-1.335, -8.307e-7
-1.334, -1.028e-6
-1.333, -7.321e-7
-1.332, -8.307e-7
-1.331, -9.886e-7
-1.330, -7.715e-7
-1.329, -1.206e-6
-1.328, -1.008e-6
-1.327, -9.984e-7
-1.326, -1.245e-6
-1.325, -1.215e-6
-1.324, -1.186e-6
-1.323, -1.255e-6
-1.322, -1.206e-6
-1.321, -1.196e-6
-1.320, -9.590e-7
-1.319, -1.373e-6
-1.318, -1.294e-6
-1.317, -1.531e-6
-1.316, -1.275e-6
-1.315, -1.294e-6
-1.314, -1.482e-6
-1.313, -1.393e-6
-1.312, -1.472e-6
-1.311, -1.521e-6
-1.310, -1.423e-6
-1.309, -1.630e-6
-1.308, -1.452e-6
-1.307, -1.620e-6
-1.306, -1.590e-6
-1.305, -1.610e-6
-1.304, -1.778e-6
-1.303, -1.659e-6
-1.302, -1.462e-6
-1.301, -1.798e-6
-1.300, -1.581e-6
-1.299, -1.857e-6
-1.298, -1.610e-6
-1.297, -1.729e-6
-1.296, -1.847e-6
-1.295, -1.600e-6
-1.294, -1.827e-6
-1.293, -1.896e-6
-1.292, -1.995e-6
-1.291, -2.113e-6
-1.290, -1.827e-6
-1.289, -1.896e-6
-1.288, -1.758e-6
-1.287, -1.906e-6
-1.286, -1.965e-6
-1.285, -1.877e-6
-1.284, -2.034e-6
-1.283, -1.906e-6
-1.282, -1.867e-6
-1.281, -1.985e-6
-1.280, -2.024e-6
-1.279, -2.103e-6
-1.278, -2.113e-6
-1.277, -2.123e-6
-1.276, -2.074e-6
-1.275, -2.084e-6
-1.274, -2.399e-6
-1.273, -2.261e-6
-1.272, -1.975e-6
-1.271, -2.251e-6
-1.270, -2.074e-6
-1.269, -2.281e-6
-1.268, -2.281e-6
-1.267, -2.380e-6
-1.266, -2.350e-6
-1.265, -2.202e-6
-1.264, -2.508e-6
-1.263, -2.182e-6
-1.262, -2.360e-6
-1.261, -2.291e-6
-1.260, -2.163e-6
-1.259, -2.468e-6
-1.258, -2.340e-6
-1.257, -2.567e-6
-1.256, -2.301e-6
-1.255, -2.301e-6
-1.254, -2.695e-6
-1.253, -2.459e-6
-1.252, -2.330e-6
-1.251, -2.419e-6
-1.250, -2.330e-6
-1.249, -2.597e-6
-1.248, -2.370e-6
-1.247, -2.518e-6
-1.246, -2.538e-6
-1.245, -2.311e-6
-1.244, -2.587e-6
-1.243, -2.449e-6
-1.242, -2.636e-6
-1.241, -2.705e-6
-1.240, -2.380e-6
-1.239, -2.834e-6
-1.238, -2.528e-6
-1.237, -2.735e-6
-1.236, -2.538e-6
-1.235, -2.508e-6
-1.234, -2.755e-6
-1.233, -2.676e-6
-1.232, -2.695e-6
-1.231, -2.686e-6
-1.230, -2.498e-6
-1.229, -2.755e-6
-1.228, -2.626e-6
-1.227, -2.893e-6
-1.226, -2.755e-6
-1.225, -2.745e-6
-1.224, -2.843e-6
-1.223, -2.666e-6
-1.222, -2.636e-6
-1.221, -2.695e-6
-1.220, -2.774e-6
-1.219, -3.021e-6
-1.218, -2.853e-6
-1.217, -2.853e-6
-1.216, -2.774e-6
-1.215, -2.686e-6
-1.214, -3.031e-6
-1.213, -2.676e-6
-1.212, -2.834e-6
-1.211, -2.873e-6
-1.210, -2.784e-6
-1.209, -3.139e-6
-1.208, -2.863e-6
-1.207, -3.011e-6
-1.206, -2.932e-6
-1.205, -2.972e-6
-1.204, -2.991e-6
-1.203, -2.824e-6
-1.202, -2.912e-6
-1.201, -3.070e-6
-1.200, -2.834e-6
-1.199, -3.070e-6
-1.198, -3.139e-6
-1.197, -3.238e-6
-1.196, -3.051e-6
-1.195, -3.001e-6
-1.194, -3.041e-6
-1.193, -2.883e-6
-1.192, -3.041e-6
-1.191, -3.129e-6
-1.190, -3.080e-6
-1.189, -3.169e-6
-1.188, -2.903e-6
-1.187, -3.051e-6
-1.186, -2.893e-6
-1.185, -2.932e-6
-1.184, -3.120e-6
-1.183, -3.031e-6
-1.182, -3.179e-6
-1.181, -2.981e-6
-1.180, -2.873e-6
-1.179, -3.208e-6
-1.178, -3.060e-6
-1.177, -3.238e-6
-1.176, -2.863e-6
-1.175, -3.129e-6
-1.174, -3.258e-6
-1.173, -3.041e-6
-1.172, -3.208e-6
-1.171, -3.347e-6
-1.170, -3.129e-6
-1.169, -3.258e-6
-1.168, -2.932e-6
-1.167, -3.199e-6
-1.166, -3.100e-6
-1.165, -3.110e-6
-1.164, -3.297e-6
-1.163, -2.991e-6
-1.162, -3.060e-6
-1.161, -3.317e-6
-1.160, -3.100e-6
-1.159, -3.386e-6
-1.158, -3.287e-6
-1.157, -3.287e-6
-1.156, -3.139e-6
-1.155, -3.021e-6
-1.154, -3.406e-6
-1.153, -3.090e-6
-1.152, -3.435e-6
-1.151, -3.376e-6
-1.150, -3.189e-6
-1.149, -3.268e-6
-1.148, -3.159e-6
-1.147, -3.425e-6
-1.146, -3.100e-6
-1.145, -3.238e-6
-1.144, -3.366e-6
-1.143, -3.258e-6
-1.142, -3.297e-6
-1.141, -3.258e-6
-1.140, -3.277e-6
-1.139, -3.396e-6
-1.138, -3.307e-6
-1.137, -3.435e-6
-1.136, -3.199e-6
-1.135, -3.258e-6
-1.134, -3.633e-6
-1.133, -3.297e-6
-1.132, -3.396e-6
-1.131, -3.317e-6
-1.130, -3.258e-6
-1.129, -3.643e-6
-1.128, -3.268e-6
-1.127, -3.623e-6
-1.126, -3.406e-6
-1.125, -3.317e-6
-1.124, -3.544e-6
-1.123, -3.218e-6
-1.122, -3.396e-6
-1.121, -3.485e-6
-1.120, -3.504e-6
-1.119, -3.583e-6
-1.118, -3.356e-6
-1.117, -3.554e-6
-1.116, -3.366e-6
-1.115, -3.485e-6
-1.114, -3.702e-6
-1.113, -3.485e-6
-1.112, -3.504e-6
-1.111, -3.495e-6
-1.110, -3.475e-6
-1.109, -3.573e-6
-1.108, -3.682e-6
-1.107, -3.603e-6
-1.106, -3.712e-6
-1.105, -3.356e-6
-1.104, -3.731e-6
-1.103, -3.337e-6
-1.102, -3.554e-6
-1.101, -3.633e-6
-1.100, -3.416e-6
-1.099, -3.554e-6
-1.098, -3.682e-6
-1.097, -3.573e-6
-1.096, -3.613e-6
-1.095, -3.445e-6
-1.094, -3.860e-6
-1.093, -3.504e-6
-1.092, -3.692e-6
-1.091, -3.485e-6
-1.090, -3.425e-6
-1.089, -3.662e-6
-1.088, -3.613e-6
-1.087, -3.682e-6
-1.086, -3.435e-6
-1.085, -3.692e-6
-1.084, -3.761e-6
-1.083, -3.652e-6
-1.082, -3.771e-6
-1.081, -3.712e-6
-1.080, -3.504e-6
-1.079, -3.820e-6
-1.078, -3.583e-6
-1.077, -3.692e-6
-1.076, -3.702e-6
-1.075, -3.702e-6
-1.074, -4.096e-6
-1.073, -3.781e-6
-1.072, -3.810e-6
-1.071, -3.850e-6
-1.070, -3.751e-6
-1.069, -3.968e-6
-1.068, -3.860e-6
-1.067, -4.017e-6
-1.066, -3.712e-6
-1.065, -3.820e-6
-1.064, -3.948e-6
-1.063, -3.721e-6
-1.062, -4.146e-6
-1.061, -3.790e-6
-1.060, -3.909e-6
-1.059, -4.136e-6
-1.058, -3.771e-6
-1.057, -3.899e-6
-1.056, -3.741e-6
-1.055, -3.790e-6
-1.054, -3.988e-6
-1.053, -3.929e-6
-1.052, -4.037e-6
-1.051, -3.889e-6
-1.050, -3.850e-6
-1.049, -4.067e-6
-1.048, -3.978e-6
-1.047, -4.205e-6
-1.046, -4.165e-6
-1.045, -3.978e-6
-1.044, -4.116e-6
-1.043, -3.938e-6
-1.042, -4.136e-6
-1.041, -4.225e-6
-1.040, -4.017e-6
-1.039, -4.027e-6
-1.038, -3.938e-6
-1.037, -3.948e-6
-1.036, -4.037e-6
-1.035, -3.929e-6
-1.034, -4.225e-6
-1.033, -3.919e-6
-1.032, -4.086e-6
-1.031, -4.146e-6
-1.030, -4.077e-6
-1.029, -4.096e-6
-1.028, -4.205e-6
-1.027, -4.333e-6
-1.026, -4.086e-6
-1.025, -4.205e-6
-1.024, -4.432e-6
-1.023, -4.185e-6
-1.022, -4.343e-6
-1.021, -4.373e-6
-1.020, -4.254e-6
-1.019, -4.274e-6
-1.018, -4.215e-6
-1.017, -4.274e-6
-1.016, -4.274e-6
-1.015, -4.244e-6
-1.014, -4.481e-6
-1.013, -4.274e-6
-1.012, -4.353e-6
-1.011, -4.353e-6
-1.010, -4.146e-6
-1.009, -4.639e-6
-1.008, -4.343e-6
-1.007, -4.412e-6
-1.006, -4.313e-6
-1.005, -4.215e-6
-1.004, -4.629e-6
-1.003, -4.442e-6
-1.002, -4.432e-6
-1.001, -4.590e-6
