Dec. 28, 2024   22:31:01
Chronoamperometry
File: c:/users/guazh/data/banditlqround7_x0exp136_r20/2024-12-24-exp771\pre-regen-2024-12-28t22_07_08-lsvinphos\ca_2024-12-28t22_27_55.bin
Data Source:  Experiment
Instrument Model:  CHI760E
Header: CA
Note: 

Init E (V) = 1
High E (V) = 1
Low E (V) = -1.5
Init P/N = N
Step = 181
Pulse Width (sec) = 1
Sample Interval (s) = 0.1
Quiet Time (sec) = 2
Sensitivity (A/V) = 0.001

Results:

Channel 1:
Forward:
Slp = 2.412e-3
Int = -1.440e-3
Cor = 0.99422

Reverse:
Slp = -4.629e-3
Int = 1.314e-3
Cor = -0.95257

Time/sec, Current/A

1.000e-1, 4.511e-3
2.000e-1, 3.521e-3
3.000e-1, 3.018e-3
4.000e-1, 2.419e-3
5.000e-1, 1.902e-3
6.000e-1, 1.577e-3
7.000e-1, 1.377e-3
8.000e-1, 1.239e-3
9.000e-1, 1.148e-3
1.000e+0, 1.082e-3
1.100e+0, -8.046e-3
1.200e+0, -5.592e-3
1.300e+0, -3.567e-3
1.400e+0, -1.812e-3
1.500e+0, -1.001e-3
1.600e+0, -7.190e-4
1.700e+0, -5.729e-4
1.800e+0, -4.850e-4
1.900e+0, -4.223e-4
2.000e+0, -3.775e-4
2.100e+0, 5.746e-3
2.200e+0, 3.839e-3
2.300e+0, 2.759e-3
2.400e+0, 2.057e-3
2.500e+0, 1.525e-3
2.600e+0, 1.229e-3
2.700e+0, 1.086e-3
2.800e+0, 1.008e-3
2.900e+0, 9.540e-4
3.000e+0, 9.132e-4
3.100e+0, -7.221e-3
3.200e+0, -4.579e-3
3.300e+0, -2.523e-3
3.400e+0, -1.403e-3
3.500e+0, -9.709e-4
3.600e+0, -7.504e-4
3.700e+0, -6.167e-4
3.800e+0, -5.246e-4
3.900e+0, -4.584e-4
4.000e+0, -4.072e-4
4.100e+0, 5.181e-3
4.200e+0, 3.440e-3
4.300e+0, 2.355e-3
4.400e+0, 1.723e-3
4.500e+0, 1.308e-3
4.600e+0, 1.053e-3
4.700e+0, 9.246e-4
4.800e+0, 8.615e-4
4.900e+0, 8.262e-4
5.000e+0, 7.991e-4
5.100e+0, -6.501e-3
5.200e+0, -3.566e-3
5.300e+0, -1.929e-3
5.400e+0, -1.252e-3
5.500e+0, -9.285e-4
5.600e+0, -7.384e-4
5.700e+0, -6.109e-4
5.800e+0, -5.249e-4
5.900e+0, -4.643e-4
6.000e+0, -4.186e-4
6.100e+0, 4.754e-3
6.200e+0, 3.074e-3
6.300e+0, 2.062e-3
6.400e+0, 1.514e-3
6.500e+0, 1.188e-3
6.600e+0, 9.608e-4
6.700e+0, 8.504e-4
6.800e+0, 7.935e-4
6.900e+0, 7.537e-4
7.000e+0, 7.313e-4
7.100e+0, -5.916e-3
7.200e+0, -2.956e-3
7.300e+0, -1.674e-3
7.400e+0, -1.144e-3
7.500e+0, -8.626e-4
7.600e+0, -6.965e-4
7.700e+0, -5.851e-4
7.800e+0, -5.034e-4
7.900e+0, -4.467e-4
8.000e+0, -3.987e-4
8.100e+0, 4.440e-3
8.200e+0, 2.773e-3
8.300e+0, 1.767e-3
8.400e+0, 1.365e-3
8.500e+0, 1.079e-3
8.600e+0, 8.875e-4
8.700e+0, 7.843e-4
8.800e+0, 7.270e-4
8.900e+0, 6.937e-4
9.000e+0, 6.754e-4
9.100e+0, -5.406e-3
9.200e+0, -2.455e-3
9.300e+0, -1.468e-3
9.400e+0, -1.028e-3
9.500e+0, -7.811e-4
9.600e+0, -6.344e-4
9.700e+0, -5.387e-4
9.800e+0, -4.675e-4
9.900e+0, -4.152e-4
1.000e+1, -3.725e-4
1.010e+1, 4.078e-3
1.020e+1, 2.520e-3
1.030e+1, 1.546e-3
1.040e+1, 1.189e-3
1.050e+1, 9.764e-4
1.060e+1, 8.270e-4
1.070e+1, 7.263e-4
1.080e+1, 6.728e-4
1.090e+1, 6.434e-4
1.100e+1, 6.291e-4
1.110e+1, -4.857e-3
1.120e+1, -1.962e-3
1.130e+1, -1.239e-3
1.140e+1, -9.021e-4
1.150e+1, -6.977e-4
1.160e+1, -5.731e-4
1.170e+1, -4.894e-4
1.180e+1, -4.278e-4
1.190e+1, -3.795e-4
1.200e+1, -3.405e-4
1.210e+1, 3.690e-3
1.220e+1, 2.263e-3
1.230e+1, 1.396e-3
1.240e+1, 1.053e-3
1.250e+1, 8.695e-4
1.260e+1, 7.428e-4
1.270e+1, 6.640e-4
1.280e+1, 6.188e-4
1.290e+1, 5.914e-4
1.300e+1, 5.748e-4
1.310e+1, -4.367e-3
1.320e+1, -1.632e-3
1.330e+1, -1.049e-3
1.340e+1, -7.840e-4
1.350e+1, -6.216e-4
1.360e+1, -5.156e-4
1.370e+1, -4.449e-4
1.380e+1, -3.901e-4
1.390e+1, -3.520e-4
1.400e+1, -3.194e-4
1.410e+1, 3.283e-3
1.420e+1, 2.018e-3
1.430e+1, 1.290e-3
1.440e+1, 9.680e-4
1.450e+1, 7.838e-4
1.460e+1, 6.712e-4
1.470e+1, 6.059e-4
1.480e+1, 5.627e-4
1.490e+1, 5.352e-4
1.500e+1, 5.202e-4
1.510e+1, -3.899e-3
1.520e+1, -1.370e-3
1.530e+1, -9.111e-4
1.540e+1, -6.937e-4
1.550e+1, -5.654e-4
1.560e+1, -4.802e-4
1.570e+1, -4.169e-4
1.580e+1, -3.692e-4
1.590e+1, -3.357e-4
1.600e+1, -3.078e-4
1.610e+1, 2.923e-3
1.620e+1, 1.798e-3
1.630e+1, 1.180e-3
1.640e+1, 8.934e-4
1.650e+1, 7.274e-4
1.660e+1, 6.251e-4
1.670e+1, 5.613e-4
1.680e+1, 5.221e-4
1.690e+1, 4.983e-4
1.700e+1, 4.855e-4
1.710e+1, -3.513e-3
1.720e+1, -1.172e-3
1.730e+1, -8.113e-4
1.740e+1, -6.349e-4
1.750e+1, -5.287e-4
1.760e+1, -4.532e-4
1.770e+1, -3.988e-4
1.780e+1, -3.553e-4
1.790e+1, -3.204e-4
1.800e+1, -2.928e-4
1.810e+1, 2.606e-3
1.820e+1, 1.661e-3
1.830e+1, 1.116e-3
1.840e+1, 8.472e-4
1.850e+1, 6.898e-4
1.860e+1, 5.952e-4
1.870e+1, 5.360e-4
1.880e+1, 4.975e-4
1.890e+1, 4.762e-4
1.900e+1, 4.658e-4
1.910e+1, -3.310e-3
1.920e+1, -1.062e-3
1.930e+1, -7.592e-4
1.940e+1, -6.072e-4
1.950e+1, -5.034e-4
1.960e+1, -4.378e-4
1.970e+1, -3.896e-4
1.980e+1, -3.513e-4
1.990e+1, -3.239e-4
2.000e+1, -3.003e-4
2.010e+1, 2.436e-3
2.020e+1, 1.550e-3
2.030e+1, 1.067e-3
2.040e+1, 8.175e-4
2.050e+1, 6.695e-4
2.060e+1, 5.754e-4
2.070e+1, 5.171e-4
2.080e+1, 4.808e-4
2.090e+1, 4.598e-4
2.100e+1, 4.505e-4
2.110e+1, -3.102e-3
2.120e+1, -9.328e-4
2.130e+1, -6.756e-4
2.140e+1, -5.469e-4
2.150e+1, -4.686e-4
2.160e+1, -4.106e-4
2.170e+1, -3.632e-4
2.180e+1, -3.305e-4
2.190e+1, -3.051e-4
2.200e+1, -2.815e-4
2.210e+1, 2.217e-3
2.220e+1, 1.428e-3
2.230e+1, 1.010e-3
2.240e+1, 7.821e-4
2.250e+1, 6.406e-4
2.260e+1, 5.569e-4
2.270e+1, 5.051e-4
2.280e+1, 4.736e-4
2.290e+1, 4.574e-4
2.300e+1, 4.524e-4
2.310e+1, -3.031e-3
2.320e+1, -8.772e-4
2.330e+1, -6.510e-4
2.340e+1, -5.291e-4
2.350e+1, -4.533e-4
2.360e+1, -4.005e-4
2.370e+1, -3.643e-4
2.380e+1, -3.324e-4
2.390e+1, -3.048e-4
2.400e+1, -2.829e-4
2.410e+1, 2.082e-3
2.420e+1, 1.391e-3
2.430e+1, 9.990e-4
2.440e+1, 7.701e-4
2.450e+1, 6.352e-4
2.460e+1, 5.552e-4
2.470e+1, 5.067e-4
2.480e+1, 4.793e-4
2.490e+1, 4.655e-4
2.500e+1, 4.615e-4
2.510e+1, -2.995e-3
2.520e+1, -8.370e-4
2.530e+1, -6.338e-4
2.540e+1, -5.235e-4
2.550e+1, -4.479e-4
2.560e+1, -3.950e-4
2.570e+1, -3.564e-4
2.580e+1, -3.260e-4
2.590e+1, -3.005e-4
2.600e+1, -2.742e-4
2.610e+1, 1.970e-3
2.620e+1, 1.355e-3
2.630e+1, 9.984e-4
2.640e+1, 7.763e-4
2.650e+1, 6.399e-4
2.660e+1, 5.581e-4
2.670e+1, 5.114e-4
2.680e+1, 4.843e-4
2.690e+1, 4.723e-4
2.700e+1, 4.689e-4
2.710e+1, -2.965e-3
2.720e+1, -7.935e-4
2.730e+1, -6.069e-4
2.740e+1, -5.037e-4
2.750e+1, -4.354e-4
2.760e+1, -3.837e-4
2.770e+1, -3.473e-4
2.780e+1, -3.178e-4
2.790e+1, -2.960e-4
2.800e+1, -2.771e-4
2.810e+1, 1.873e-3
2.820e+1, 1.323e-3
2.830e+1, 9.992e-4
2.840e+1, 7.812e-4
2.850e+1, 6.438e-4
2.860e+1, 5.632e-4
2.870e+1, 5.174e-4
2.880e+1, 4.929e-4
2.890e+1, 4.813e-4
2.900e+1, 4.780e-4
2.910e+1, -3.018e-3
2.920e+1, -7.764e-4
2.930e+1, -5.975e-4
2.940e+1, -5.051e-4
2.950e+1, -4.407e-4
2.960e+1, -3.894e-4
2.970e+1, -3.518e-4
2.980e+1, -3.195e-4
2.990e+1, -2.948e-4
3.000e+1, -2.722e-4
3.010e+1, 1.813e-3
3.020e+1, 1.309e-3
3.030e+1, 9.941e-4
3.040e+1, 7.837e-4
3.050e+1, 6.521e-4
3.060e+1, 5.729e-4
3.070e+1, 5.254e-4
3.080e+1, 5.001e-4
3.090e+1, 4.890e-4
3.100e+1, 4.848e-4
3.110e+1, -3.034e-3
3.120e+1, -7.419e-4
3.130e+1, -5.833e-4
3.140e+1, -4.947e-4
3.150e+1, -4.317e-4
3.160e+1, -3.837e-4
3.170e+1, -3.480e-4
3.180e+1, -3.217e-4
3.190e+1, -2.967e-4
3.200e+1, -2.758e-4
3.210e+1, 1.746e-3
3.220e+1, 1.300e-3
3.230e+1, 9.925e-4
3.240e+1, 7.888e-4
3.250e+1, 6.598e-4
3.260e+1, 5.823e-4
3.270e+1, 5.379e-4
3.280e+1, 5.133e-4
3.290e+1, 5.012e-4
3.300e+1, 4.975e-4
3.310e+1, -3.140e-3
3.320e+1, -7.378e-4
3.330e+1, -5.843e-4
3.340e+1, -4.998e-4
3.350e+1, -4.391e-4
3.360e+1, -3.898e-4
3.370e+1, -3.503e-4
3.380e+1, -3.173e-4
3.390e+1, -2.913e-4
3.400e+1, -2.691e-4
3.410e+1, 1.724e-3
3.420e+1, 1.299e-3
3.430e+1, 9.996e-4
3.440e+1, 7.979e-4
3.450e+1, 6.691e-4
3.460e+1, 5.904e-4
3.470e+1, 5.447e-4
3.480e+1, 5.211e-4
3.490e+1, 5.097e-4
3.500e+1, 5.057e-4
3.510e+1, -3.200e-3
3.520e+1, -7.297e-4
3.530e+1, -5.620e-4
3.540e+1, -4.741e-4
3.550e+1, -4.144e-4
3.560e+1, -3.662e-4
3.570e+1, -3.314e-4
3.580e+1, -3.040e-4
3.590e+1, -2.797e-4
3.600e+1, -2.593e-4
3.610e+1, 1.653e-3
3.620e+1, 1.296e-3
3.630e+1, 1.003e-3
3.640e+1, 7.977e-4
3.650e+1, 6.744e-4
3.660e+1, 6.015e-4
3.670e+1, 5.594e-4
3.680e+1, 5.352e-4
3.690e+1, 5.226e-4
3.700e+1, 5.188e-4
3.710e+1, -3.388e-3
3.720e+1, -7.836e-4
3.730e+1, -5.969e-4
3.740e+1, -5.059e-4
3.750e+1, -4.431e-4
3.760e+1, -3.910e-4
3.770e+1, -3.511e-4
3.780e+1, -3.162e-4
3.790e+1, -2.894e-4
3.800e+1, -2.681e-4
3.810e+1, 1.727e-3
3.820e+1, 1.333e-3
3.830e+1, 1.024e-3
3.840e+1, 8.221e-4
3.850e+1, 6.910e-4
3.860e+1, 6.107e-4
3.870e+1, 5.649e-4
3.880e+1, 5.386e-4
3.890e+1, 5.256e-4
3.900e+1, 5.207e-4
3.910e+1, -3.398e-3
3.920e+1, -7.430e-4
3.930e+1, -5.660e-4
3.940e+1, -4.858e-4
3.950e+1, -4.264e-4
3.960e+1, -3.799e-4
3.970e+1, -3.443e-4
3.980e+1, -3.142e-4
3.990e+1, -2.912e-4
4.000e+1, -2.724e-4
4.010e+1, 1.683e-3
4.020e+1, 1.344e-3
4.030e+1, 1.034e-3
4.040e+1, 8.283e-4
4.050e+1, 7.033e-4
4.060e+1, 6.252e-4
4.070e+1, 5.778e-4
4.080e+1, 5.516e-4
4.090e+1, 5.380e-4
4.100e+1, 5.338e-4
4.110e+1, -3.548e-3
4.120e+1, -7.777e-4
4.130e+1, -5.829e-4
4.140e+1, -4.998e-4
4.150e+1, -4.433e-4
4.160e+1, -3.922e-4
4.170e+1, -3.553e-4
4.180e+1, -3.241e-4
4.190e+1, -2.968e-4
4.200e+1, -2.724e-4
4.210e+1, 1.709e-3
4.220e+1, 1.366e-3
4.230e+1, 1.053e-3
4.240e+1, 8.434e-4
4.250e+1, 7.146e-4
4.260e+1, 6.338e-4
4.270e+1, 5.845e-4
4.280e+1, 5.568e-4
4.290e+1, 5.413e-4
4.300e+1, 5.350e-4
4.310e+1, -3.543e-3
4.320e+1, -7.581e-4
4.330e+1, -5.610e-4
4.340e+1, -4.800e-4
4.350e+1, -4.251e-4
4.360e+1, -3.806e-4
4.370e+1, -3.428e-4
4.380e+1, -3.136e-4
4.390e+1, -2.868e-4
4.400e+1, -2.657e-4
4.410e+1, 1.665e-3
4.420e+1, 1.350e-3
4.430e+1, 1.060e-3
4.440e+1, 8.565e-4
4.450e+1, 7.228e-4
4.460e+1, 6.416e-4
4.470e+1, 5.917e-4
4.480e+1, 5.630e-4
4.490e+1, 5.479e-4
4.500e+1, 5.418e-4
4.510e+1, -3.674e-3
4.520e+1, -8.051e-4
4.530e+1, -5.858e-4
4.540e+1, -4.938e-4
4.550e+1, -4.347e-4
4.560e+1, -3.918e-4
4.570e+1, -3.580e-4
4.580e+1, -3.286e-4
4.590e+1, -3.028e-4
4.600e+1, -2.816e-4
4.610e+1, 1.744e-3
4.620e+1, 1.400e-3
4.630e+1, 1.071e-3
4.640e+1, 8.623e-4
4.650e+1, 7.320e-4
4.660e+1, 6.485e-4
4.670e+1, 5.960e-4
4.680e+1, 5.657e-4
4.690e+1, 5.485e-4
4.700e+1, 5.413e-4
4.710e+1, -3.676e-3
4.720e+1, -7.938e-4
4.730e+1, -5.841e-4
4.740e+1, -4.922e-4
4.750e+1, -4.338e-4
4.760e+1, -3.884e-4
4.770e+1, -3.521e-4
4.780e+1, -3.203e-4
4.790e+1, -2.940e-4
4.800e+1, -2.714e-4
4.810e+1, 1.716e-3
4.820e+1, 1.392e-3
4.830e+1, 1.084e-3
4.840e+1, 8.722e-4
4.850e+1, 7.389e-4
4.860e+1, 6.533e-4
4.870e+1, 5.997e-4
4.880e+1, 5.698e-4
4.890e+1, 5.533e-4
4.900e+1, 5.463e-4
4.910e+1, -3.752e-3
4.920e+1, -8.033e-4
4.930e+1, -5.816e-4
4.940e+1, -4.888e-4
4.950e+1, -4.321e-4
4.960e+1, -3.880e-4
4.970e+1, -3.517e-4
4.980e+1, -3.231e-4
4.990e+1, -2.975e-4
5.000e+1, -2.751e-4
5.010e+1, 1.754e-3
5.020e+1, 1.416e-3
5.030e+1, 1.086e-3
5.040e+1, 8.738e-4
5.050e+1, 7.382e-4
5.060e+1, 6.545e-4
5.070e+1, 6.024e-4
5.080e+1, 5.717e-4
5.090e+1, 5.562e-4
5.100e+1, 5.501e-4
5.110e+1, -3.806e-3
5.120e+1, -8.023e-4
5.130e+1, -5.805e-4
5.140e+1, -4.839e-4
5.150e+1, -4.252e-4
5.160e+1, -3.822e-4
5.170e+1, -3.470e-4
5.180e+1, -3.162e-4
5.190e+1, -2.899e-4
5.200e+1, -2.686e-4
5.210e+1, 1.729e-3
5.220e+1, 1.406e-3
5.230e+1, 1.099e-3
5.240e+1, 8.867e-4
5.250e+1, 7.491e-4
5.260e+1, 6.621e-4
5.270e+1, 6.098e-4
5.280e+1, 5.790e-4
5.290e+1, 5.619e-4
5.300e+1, 5.545e-4
5.310e+1, -3.889e-3
5.320e+1, -8.296e-4
5.330e+1, -5.941e-4
5.340e+1, -4.964e-4
5.350e+1, -4.415e-4
5.360e+1, -3.967e-4
5.370e+1, -3.588e-4
5.380e+1, -3.265e-4
5.390e+1, -2.991e-4
5.400e+1, -2.762e-4
5.410e+1, 1.795e-3
5.420e+1, 1.450e-3
5.430e+1, 1.108e-3
5.440e+1, 8.947e-4
5.450e+1, 7.590e-4
5.460e+1, 6.722e-4
5.470e+1, 6.169e-4
5.480e+1, 5.838e-4
5.490e+1, 5.651e-4
5.500e+1, 5.562e-4
5.510e+1, -3.855e-3
5.520e+1, -7.726e-4
5.530e+1, -5.645e-4
5.540e+1, -4.665e-4
5.550e+1, -4.055e-4
5.560e+1, -3.596e-4
5.570e+1, -3.237e-4
5.580e+1, -2.940e-4
5.590e+1, -2.691e-4
5.600e+1, -2.499e-4
5.610e+1, 1.693e-3
5.620e+1, 1.401e-3
5.630e+1, 1.102e-3
5.640e+1, 8.900e-4
5.650e+1, 7.546e-4
5.660e+1, 6.684e-4
5.670e+1, 6.131e-4
5.680e+1, 5.801e-4
5.690e+1, 5.621e-4
5.700e+1, 5.526e-4
5.710e+1, -3.998e-3
5.720e+1, -8.665e-4
5.730e+1, -6.359e-4
5.740e+1, -5.288e-4
5.750e+1, -4.556e-4
5.760e+1, -4.028e-4
5.770e+1, -3.590e-4
5.780e+1, -3.229e-4
5.790e+1, -2.949e-4
5.800e+1, -2.715e-4
5.810e+1, 1.839e-3
5.820e+1, 1.485e-3
5.830e+1, 1.125e-3
5.840e+1, 9.077e-4
5.850e+1, 7.675e-4
5.860e+1, 6.767e-4
5.870e+1, 6.183e-4
5.880e+1, 5.830e-4
5.890e+1, 5.628e-4
5.900e+1, 5.530e-4
5.910e+1, -3.916e-3
5.920e+1, -7.746e-4
5.930e+1, -5.589e-4
5.940e+1, -4.617e-4
5.950e+1, -4.017e-4
5.960e+1, -3.599e-4
5.970e+1, -3.253e-4
5.980e+1, -2.955e-4
5.990e+1, -2.740e-4
6.000e+1, -2.525e-4
6.010e+1, 1.726e-3
6.020e+1, 1.433e-3
6.030e+1, 1.103e-3
6.040e+1, 8.897e-4
6.050e+1, 7.549e-4
6.060e+1, 6.661e-4
6.070e+1, 6.111e-4
6.080e+1, 5.799e-4
6.090e+1, 5.620e-4
6.100e+1, 5.537e-4
6.110e+1, -4.039e-3
6.120e+1, -8.451e-4
6.130e+1, -6.013e-4
6.140e+1, -4.895e-4
6.150e+1, -4.204e-4
6.160e+1, -3.733e-4
6.170e+1, -3.368e-4
6.180e+1, -3.058e-4
6.190e+1, -2.793e-4
6.200e+1, -2.564e-4
6.210e+1, 1.776e-3
6.220e+1, 1.459e-3
6.230e+1, 1.116e-3
6.240e+1, 9.024e-4
6.250e+1, 7.638e-4
6.260e+1, 6.734e-4
6.270e+1, 6.165e-4
6.280e+1, 5.831e-4
6.290e+1, 5.640e-4
6.300e+1, 5.532e-4
6.310e+1, -3.967e-3
6.320e+1, -7.669e-4
6.330e+1, -5.428e-4
6.340e+1, -4.393e-4
6.350e+1, -3.756e-4
6.360e+1, -3.315e-4
6.370e+1, -2.980e-4
6.380e+1, -2.714e-4
6.390e+1, -2.482e-4
6.400e+1, -2.301e-4
6.410e+1, 1.657e-3
6.420e+1, 1.415e-3
6.430e+1, 1.101e-3
6.440e+1, 8.909e-4
6.450e+1, 7.570e-4
6.460e+1, 6.693e-4
6.470e+1, 6.121e-4
6.480e+1, 5.784e-4
6.490e+1, 5.603e-4
6.500e+1, 5.513e-4
6.510e+1, -4.107e-3
6.520e+1, -8.588e-4
6.530e+1, -6.087e-4
6.540e+1, -4.871e-4
6.550e+1, -4.128e-4
6.560e+1, -3.604e-4
6.570e+1, -3.213e-4
6.580e+1, -2.876e-4
6.590e+1, -2.587e-4
6.600e+1, -2.365e-4
6.610e+1, 1.744e-3
6.620e+1, 1.459e-3
6.630e+1, 1.109e-3
6.640e+1, 8.988e-4
6.650e+1, 7.619e-4
6.660e+1, 6.737e-4
6.670e+1, 6.173e-4
6.680e+1, 5.824e-4
6.690e+1, 5.615e-4
6.700e+1, 5.510e-4
6.710e+1, -4.009e-3
6.720e+1, -7.653e-4
6.730e+1, -5.363e-4
6.740e+1, -4.380e-4
6.750e+1, -3.757e-4
6.760e+1, -3.310e-4
6.770e+1, -2.959e-4
6.780e+1, -2.679e-4
6.790e+1, -2.450e-4
6.800e+1, -2.252e-4
6.810e+1, 1.663e-3
6.820e+1, 1.417e-3
6.830e+1, 1.103e-3
6.840e+1, 8.846e-4
6.850e+1, 7.501e-4
6.860e+1, 6.645e-4
6.870e+1, 6.092e-4
6.880e+1, 5.764e-4
6.890e+1, 5.581e-4
6.900e+1, 5.494e-4
6.910e+1, -4.091e-3
6.920e+1, -7.964e-4
6.930e+1, -5.628e-4
6.940e+1, -4.574e-4
6.950e+1, -3.876e-4
6.960e+1, -3.392e-4
6.970e+1, -3.036e-4
6.980e+1, -2.741e-4
6.990e+1, -2.507e-4
7.000e+1, -2.317e-4
7.010e+1, 1.696e-3
7.020e+1, 1.440e-3
7.030e+1, 1.102e-3
7.040e+1, 8.953e-4
7.050e+1, 7.565e-4
7.060e+1, 6.668e-4
7.070e+1, 6.113e-4
7.080e+1, 5.775e-4
7.090e+1, 5.584e-4
7.100e+1, 5.493e-4
7.110e+1, -4.111e-3
7.120e+1, -7.830e-4
7.130e+1, -5.448e-4
7.140e+1, -4.377e-4
7.150e+1, -3.700e-4
7.160e+1, -3.216e-4
7.170e+1, -2.869e-4
7.180e+1, -2.590e-4
7.190e+1, -2.356e-4
7.200e+1, -2.166e-4
7.210e+1, 1.685e-3
7.220e+1, 1.430e-3
7.230e+1, 1.093e-3
7.240e+1, 8.767e-4
7.250e+1, 7.437e-4
7.260e+1, 6.596e-4
7.270e+1, 6.058e-4
7.280e+1, 5.737e-4
7.290e+1, 5.554e-4
7.300e+1, 5.479e-4
7.310e+1, -4.135e-3
7.320e+1, -8.019e-4
7.330e+1, -5.646e-4
7.340e+1, -4.574e-4
7.350e+1, -3.873e-4
7.360e+1, -3.384e-4
7.370e+1, -2.995e-4
7.380e+1, -2.689e-4
7.390e+1, -2.428e-4
7.400e+1, -2.233e-4
7.410e+1, 1.694e-3
7.420e+1, 1.447e-3
7.430e+1, 1.098e-3
7.440e+1, 8.866e-4
7.450e+1, 7.524e-4
7.460e+1, 6.647e-4
7.470e+1, 6.093e-4
7.480e+1, 5.773e-4
7.490e+1, 5.589e-4
7.500e+1, 5.500e-4
7.510e+1, -4.129e-3
7.520e+1, -7.817e-4
7.530e+1, -5.382e-4
7.540e+1, -4.268e-4
7.550e+1, -3.577e-4
7.560e+1, -3.090e-4
7.570e+1, -2.741e-4
7.580e+1, -2.463e-4
7.590e+1, -2.223e-4
7.600e+1, -2.035e-4
7.610e+1, 1.652e-3
7.620e+1, 1.415e-3
7.630e+1, 1.094e-3
7.640e+1, 8.766e-4
7.650e+1, 7.433e-4
7.660e+1, 6.585e-4
7.670e+1, 6.044e-4
7.680e+1, 5.720e-4
7.690e+1, 5.535e-4
7.700e+1, 5.451e-4
7.710e+1, -4.141e-3
7.720e+1, -7.879e-4
7.730e+1, -5.457e-4
7.740e+1, -4.379e-4
7.750e+1, -3.739e-4
7.760e+1, -3.256e-4
7.770e+1, -2.888e-4
7.780e+1, -2.594e-4
7.790e+1, -2.329e-4
7.800e+1, -2.114e-4
7.810e+1, 1.668e-3
7.820e+1, 1.422e-3
7.830e+1, 1.092e-3
7.840e+1, 8.782e-4
7.850e+1, 7.440e-4
7.860e+1, 6.589e-4
7.870e+1, 6.046e-4
7.880e+1, 5.713e-4
7.890e+1, 5.523e-4
7.900e+1, 5.435e-4
7.910e+1, -4.105e-3
7.920e+1, -7.563e-4
7.930e+1, -5.196e-4
7.940e+1, -4.189e-4
7.950e+1, -3.525e-4
7.960e+1, -3.046e-4
7.970e+1, -2.690e-4
7.980e+1, -2.392e-4
7.990e+1, -2.169e-4
8.000e+1, -1.980e-4
8.010e+1, 1.638e-3
8.020e+1, 1.393e-3
8.030e+1, 1.085e-3
8.040e+1, 8.685e-4
8.050e+1, 7.339e-4
8.060e+1, 6.502e-4
8.070e+1, 5.985e-4
8.080e+1, 5.680e-4
8.090e+1, 5.509e-4
8.100e+1, 5.443e-4
8.110e+1, -4.151e-3
8.120e+1, -7.807e-4
8.130e+1, -5.499e-4
8.140e+1, -4.413e-4
8.150e+1, -3.720e-4
8.160e+1, -3.238e-4
8.170e+1, -2.864e-4
8.180e+1, -2.560e-4
8.190e+1, -2.321e-4
8.200e+1, -2.119e-4
8.210e+1, 1.699e-3
8.220e+1, 1.423e-3
8.230e+1, 1.085e-3
8.240e+1, 8.664e-4
8.250e+1, 7.325e-4
8.260e+1, 6.507e-4
8.270e+1, 5.999e-4
8.280e+1, 5.689e-4
8.290e+1, 5.521e-4
8.300e+1, 5.448e-4
8.310e+1, -4.139e-3
8.320e+1, -7.708e-4
8.330e+1, -5.297e-4
8.340e+1, -4.195e-4
8.350e+1, -3.448e-4
8.360e+1, -2.949e-4
8.370e+1, -2.571e-4
8.380e+1, -2.294e-4
8.390e+1, -2.060e-4
8.400e+1, -1.881e-4
8.410e+1, 1.624e-3
8.420e+1, 1.400e-3
8.430e+1, 1.077e-3
8.440e+1, 8.597e-4
8.450e+1, 7.249e-4
8.460e+1, 6.421e-4
8.470e+1, 5.929e-4
8.480e+1, 5.640e-4
8.490e+1, 5.484e-4
8.500e+1, 5.427e-4
8.510e+1, -4.167e-3
8.520e+1, -7.831e-4
8.530e+1, -5.433e-4
8.540e+1, -4.360e-4
8.550e+1, -3.679e-4
8.560e+1, -3.161e-4
8.570e+1, -2.756e-4
8.580e+1, -2.448e-4
8.590e+1, -2.205e-4
8.600e+1, -2.006e-4
8.610e+1, 1.672e-3
8.620e+1, 1.428e-3
8.630e+1, 1.078e-3
8.640e+1, 8.597e-4
8.650e+1, 7.285e-4
8.660e+1, 6.463e-4
8.670e+1, 5.962e-4
8.680e+1, 5.657e-4
8.690e+1, 5.489e-4
8.700e+1, 5.420e-4
8.710e+1, -4.123e-3
8.720e+1, -7.411e-4
8.730e+1, -5.063e-4
8.740e+1, -4.028e-4
8.750e+1, -3.338e-4
8.760e+1, -2.838e-4
8.770e+1, -2.479e-4
8.780e+1, -2.212e-4
8.790e+1, -2.000e-4
8.800e+1, -1.826e-4
8.810e+1, 1.623e-3
8.820e+1, 1.389e-3
8.830e+1, 1.061e-3
8.840e+1, 8.472e-4
8.850e+1, 7.148e-4
8.860e+1, 6.341e-4
8.870e+1, 5.864e-4
8.880e+1, 5.595e-4
8.890e+1, 5.460e-4
8.900e+1, 5.415e-4
8.910e+1, -4.199e-3
8.920e+1, -7.980e-4
8.930e+1, -5.454e-4
8.940e+1, -4.293e-4
8.950e+1, -3.586e-4
8.960e+1, -3.086e-4
8.970e+1, -2.715e-4
8.980e+1, -2.423e-4
8.990e+1, -2.195e-4
9.000e+1, -2.000e-4
9.010e+1, 1.669e-3
9.020e+1, 1.428e-3
9.030e+1, 1.072e-3
9.040e+1, 8.542e-4
9.050e+1, 7.248e-4
9.060e+1, 6.457e-4
9.070e+1, 5.966e-4
9.080e+1, 5.672e-4
9.090e+1, 5.515e-4
9.100e+1, 5.449e-4
9.110e+1, -4.158e-3
9.120e+1, -7.471e-4
9.130e+1, -5.032e-4
9.140e+1, -3.883e-4
9.150e+1, -3.244e-4
9.160e+1, -2.804e-4
9.170e+1, -2.474e-4
9.180e+1, -2.209e-4
9.190e+1, -2.000e-4
9.200e+1, -1.828e-4
9.210e+1, 1.611e-3
9.220e+1, 1.374e-3
9.230e+1, 1.058e-3
9.240e+1, 8.443e-4
9.250e+1, 7.111e-4
9.260e+1, 6.307e-4
9.270e+1, 5.841e-4
9.280e+1, 5.582e-4
9.290e+1, 5.449e-4
9.300e+1, 5.408e-4
9.310e+1, -4.241e-3
9.320e+1, -7.890e-4
9.330e+1, -5.339e-4
9.340e+1, -4.183e-4
9.350e+1, -3.501e-4
9.360e+1, -3.024e-4
9.370e+1, -2.661e-4
9.380e+1, -2.357e-4
9.390e+1, -2.125e-4
9.400e+1, -1.927e-4
9.410e+1, 1.651e-3
9.420e+1, 1.419e-3
9.430e+1, 1.063e-3
9.440e+1, 8.456e-4
9.450e+1, 7.177e-4
9.460e+1, 6.407e-4
9.470e+1, 5.942e-4
9.480e+1, 5.673e-4
9.490e+1, 5.523e-4
9.500e+1, 5.464e-4
9.510e+1, -4.166e-3
9.520e+1, -7.428e-4
9.530e+1, -5.042e-4
9.540e+1, -3.950e-4
9.550e+1, -3.283e-4
9.560e+1, -2.836e-4
9.570e+1, -2.459e-4
9.580e+1, -2.175e-4
9.590e+1, -1.954e-4
9.600e+1, -1.781e-4
9.610e+1, 1.621e-3
9.620e+1, 1.383e-3
9.630e+1, 1.056e-3
9.640e+1, 8.331e-4
9.650e+1, 7.018e-4
9.660e+1, 6.261e-4
9.670e+1, 5.830e-4
9.680e+1, 5.587e-4
9.690e+1, 5.471e-4
9.700e+1, 5.441e-4
9.710e+1, -4.233e-3
9.720e+1, -7.777e-4
9.730e+1, -5.259e-4
9.740e+1, -4.142e-4
9.750e+1, -3.471e-4
9.760e+1, -2.997e-4
9.770e+1, -2.607e-4
9.780e+1, -2.315e-4
9.790e+1, -2.088e-4
9.800e+1, -1.903e-4
9.810e+1, 1.663e-3
9.820e+1, 1.418e-3
9.830e+1, 1.050e-3
9.840e+1, 8.315e-4
9.850e+1, 7.061e-4
9.860e+1, 6.297e-4
9.870e+1, 5.849e-4
9.880e+1, 5.599e-4
9.890e+1, 5.478e-4
9.900e+1, 5.447e-4
9.910e+1, -4.178e-3
9.920e+1, -7.513e-4
9.930e+1, -5.104e-4
9.940e+1, -4.037e-4
9.950e+1, -3.375e-4
9.960e+1, -2.895e-4
9.970e+1, -2.527e-4
9.980e+1, -2.243e-4
9.990e+1, -2.022e-4
1.000e+2, -1.831e-4
1.001e+2, 1.626e-3
1.002e+2, 1.392e-3
1.003e+2, 1.048e-3
1.004e+2, 8.238e-4
1.005e+2, 6.956e-4
1.006e+2, 6.206e-4
1.007e+2, 5.782e-4
1.008e+2, 5.557e-4
1.009e+2, 5.444e-4
1.010e+2, 5.415e-4
1.011e+2, -4.174e-3
1.012e+2, -7.290e-4
1.013e+2, -4.948e-4
1.014e+2, -3.964e-4
1.015e+2, -3.362e-4
1.016e+2, -2.880e-4
1.017e+2, -2.508e-4
1.018e+2, -2.208e-4
1.019e+2, -1.985e-4
1.020e+2, -1.799e-4
1.021e+2, 1.614e-3
1.022e+2, 1.395e-3
1.023e+2, 1.048e-3
1.024e+2, 8.238e-4
1.025e+2, 6.993e-4
1.026e+2, 6.248e-4
1.027e+2, 5.816e-4
1.028e+2, 5.576e-4
1.029e+2, 5.466e-4
1.030e+2, 5.432e-4
1.031e+2, -4.163e-3
1.032e+2, -7.315e-4
1.033e+2, -4.954e-4
1.034e+2, -3.908e-4
1.035e+2, -3.240e-4
1.036e+2, -2.753e-4
1.037e+2, -2.390e-4
1.038e+2, -2.096e-4
1.039e+2, -1.861e-4
1.040e+2, -1.686e-4
1.041e+2, 1.611e-3
1.042e+2, 1.374e-3
1.043e+2, 1.028e-3
1.044e+2, 8.120e-4
1.045e+2, 6.870e-4
1.046e+2, 6.138e-4
1.047e+2, 5.736e-4
1.048e+2, 5.515e-4
1.049e+2, 5.420e-4
1.050e+2, 5.409e-4
1.051e+2, -4.195e-3
1.052e+2, -7.405e-4
1.053e+2, -5.004e-4
1.054e+2, -3.971e-4
1.055e+2, -3.367e-4
1.056e+2, -2.877e-4
1.057e+2, -2.503e-4
1.058e+2, -2.200e-4
1.059e+2, -1.962e-4
1.060e+2, -1.783e-4
1.061e+2, 1.637e-3
1.062e+2, 1.404e-3
1.063e+2, 1.028e-3
1.064e+2, 8.109e-4
1.065e+2, 6.878e-4
1.066e+2, 6.145e-4
1.067e+2, 5.726e-4
1.068e+2, 5.503e-4
1.069e+2, 5.406e-4
1.070e+2, 5.395e-4
1.071e+2, -4.123e-3
1.072e+2, -7.154e-4
1.073e+2, -4.811e-4
1.074e+2, -3.821e-4
1.075e+2, -3.165e-4
1.076e+2, -2.667e-4
1.077e+2, -2.284e-4
1.078e+2, -1.997e-4
1.079e+2, -1.793e-4
1.080e+2, -1.630e-4
1.081e+2, 1.558e-3
1.082e+2, 1.360e-3
1.083e+2, 1.015e-3
1.084e+2, 7.999e-4
1.085e+2, 6.764e-4
1.086e+2, 6.043e-4
1.087e+2, 5.641e-4
1.088e+2, 5.433e-4
1.089e+2, 5.344e-4
1.090e+2, 5.328e-4
1.091e+2, -4.151e-3
1.092e+2, -7.162e-4
1.093e+2, -4.772e-4
1.094e+2, -3.768e-4
1.095e+2, -3.190e-4
1.096e+2, -2.726e-4
1.097e+2, -2.360e-4
1.098e+2, -2.089e-4
1.099e+2, -1.874e-4
1.100e+2, -1.686e-4
1.101e+2, 1.600e-3
1.102e+2, 1.365e-3
1.103e+2, 1.012e-3
1.104e+2, 7.994e-4
1.105e+2, 6.754e-4
1.106e+2, 6.038e-4
1.107e+2, 5.660e-4
1.108e+2, 5.457e-4
1.109e+2, 5.368e-4
1.110e+2, 5.366e-4
1.111e+2, -4.125e-3
1.112e+2, -7.137e-4
1.113e+2, -4.811e-4
1.114e+2, -3.760e-4
1.115e+2, -3.104e-4
1.116e+2, -2.584e-4
1.117e+2, -2.212e-4
1.118e+2, -1.947e-4
1.119e+2, -1.753e-4
1.120e+2, -1.592e-4
1.121e+2, 1.563e-3
1.122e+2, 1.340e-3
1.123e+2, 9.989e-4
1.124e+2, 7.893e-4
1.125e+2, 6.686e-4
1.126e+2, 5.959e-4
1.127e+2, 5.567e-4
1.128e+2, 5.366e-4
1.129e+2, 5.282e-4
1.130e+2, 5.283e-4
1.131e+2, -4.129e-3
1.132e+2, -7.013e-4
1.133e+2, -4.687e-4
1.134e+2, -3.670e-4
1.135e+2, -3.062e-4
1.136e+2, -2.597e-4
1.137e+2, -2.244e-4
1.138e+2, -1.988e-4
1.139e+2, -1.781e-4
1.140e+2, -1.618e-4
1.141e+2, 1.554e-3
1.142e+2, 1.342e-3
1.143e+2, 9.937e-4
1.144e+2, 7.829e-4
1.145e+2, 6.631e-4
1.146e+2, 5.940e-4
1.147e+2, 5.567e-4
1.148e+2, 5.385e-4
1.149e+2, 5.311e-4
1.150e+2, 5.305e-4
1.151e+2, -4.085e-3
1.152e+2, -6.639e-4
1.153e+2, -4.395e-4
1.154e+2, -3.441e-4
1.155e+2, -2.873e-4
1.156e+2, -2.462e-4
1.157e+2, -2.140e-4
1.158e+2, -1.895e-4
1.159e+2, -1.715e-4
1.160e+2, -1.559e-4
1.161e+2, 1.534e-3
1.162e+2, 1.305e-3
1.163e+2, 9.797e-4
1.164e+2, 7.792e-4
1.165e+2, 6.609e-4
1.166e+2, 5.933e-4
1.167e+2, 5.569e-4
1.168e+2, 5.387e-4
1.169e+2, 5.323e-4
1.170e+2, 5.327e-4
1.171e+2, -4.162e-3
1.172e+2, -7.261e-4
1.173e+2, -4.849e-4
1.174e+2, -3.793e-4
1.175e+2, -3.121e-4
1.176e+2, -2.642e-4
1.177e+2, -2.281e-4
1.178e+2, -1.999e-4
1.179e+2, -1.793e-4
1.180e+2, -1.622e-4
1.181e+2, 1.565e-3
1.182e+2, 1.343e-3
1.183e+2, 9.947e-4
1.184e+2, 7.846e-4
1.185e+2, 6.665e-4
1.186e+2, 5.961e-4
1.187e+2, 5.587e-4
1.188e+2, 5.403e-4
1.189e+2, 5.330e-4
1.190e+2, 5.334e-4
1.191e+2, -4.115e-3
1.192e+2, -6.841e-4
1.193e+2, -4.541e-4
1.194e+2, -3.528e-4
1.195e+2, -2.873e-4
1.196e+2, -2.405e-4
1.197e+2, -2.072e-4
1.198e+2, -1.833e-4
1.199e+2, -1.646e-4
1.200e+2, -1.496e-4
1.201e+2, 1.533e-3
1.202e+2, 1.296e-3
1.203e+2, 9.706e-4
1.204e+2, 7.720e-4
1.205e+2, 6.562e-4
1.206e+2, 5.888e-4
1.207e+2, 5.526e-4
1.208e+2, 5.351e-4
1.209e+2, 5.296e-4
1.210e+2, 5.309e-4
1.211e+2, -4.137e-3
1.212e+2, -7.057e-4
1.213e+2, -4.653e-4
1.214e+2, -3.532e-4
1.215e+2, -2.872e-4
1.216e+2, -2.440e-4
1.217e+2, -2.135e-4
1.218e+2, -1.890e-4
1.219e+2, -1.700e-4
1.220e+2, -1.533e-4
1.221e+2, 1.537e-3
1.222e+2, 1.310e-3
1.223e+2, 9.761e-4
1.224e+2, 7.734e-4
1.225e+2, 6.594e-4
1.226e+2, 5.911e-4
1.227e+2, 5.547e-4
1.228e+2, 5.370e-4
1.229e+2, 5.305e-4
1.230e+2, 5.309e-4
1.231e+2, -4.140e-3
1.232e+2, -6.852e-4
1.233e+2, -4.453e-4
1.234e+2, -3.474e-4
1.235e+2, -2.865e-4
1.236e+2, -2.412e-4
1.237e+2, -2.072e-4
1.238e+2, -1.823e-4
1.239e+2, -1.629e-4
1.240e+2, -1.471e-4
1.241e+2, 1.527e-3
1.242e+2, 1.303e-3
1.243e+2, 9.680e-4
1.244e+2, 7.684e-4
1.245e+2, 6.532e-4
1.246e+2, 5.846e-4
1.247e+2, 5.488e-4
1.248e+2, 5.319e-4
1.249e+2, 5.270e-4
1.250e+2, 5.295e-4
1.251e+2, -4.138e-3
1.252e+2, -7.052e-4
1.253e+2, -4.584e-4
1.254e+2, -3.575e-4
1.255e+2, -2.962e-4
1.256e+2, -2.530e-4
1.257e+2, -2.227e-4
1.258e+2, -1.981e-4
1.259e+2, -1.773e-4
1.260e+2, -1.608e-4
1.261e+2, 1.561e-3
1.262e+2, 1.317e-3
1.263e+2, 9.712e-4
1.264e+2, 7.676e-4
1.265e+2, 6.534e-4
1.266e+2, 5.857e-4
1.267e+2, 5.502e-4
1.268e+2, 5.341e-4
1.269e+2, 5.288e-4
1.270e+2, 5.309e-4
1.271e+2, -4.107e-3
1.272e+2, -6.862e-4
1.273e+2, -4.495e-4
1.274e+2, -3.454e-4
1.275e+2, -2.799e-4
1.276e+2, -2.371e-4
1.277e+2, -2.053e-4
1.278e+2, -1.810e-4
1.279e+2, -1.617e-4
1.280e+2, -1.455e-4
1.281e+2, 1.535e-3
1.282e+2, 1.287e-3
1.283e+2, 9.545e-4
1.284e+2, 7.569e-4
1.285e+2, 6.433e-4
1.286e+2, 5.783e-4
1.287e+2, 5.440e-4
1.288e+2, 5.298e-4
1.289e+2, 5.269e-4
1.290e+2, 5.304e-4
1.291e+2, -4.111e-3
1.292e+2, -6.856e-4
1.293e+2, -4.472e-4
1.294e+2, -3.367e-4
1.295e+2, -2.764e-4
1.296e+2, -2.372e-4
1.297e+2, -2.074e-4
1.298e+2, -1.845e-4
1.299e+2, -1.653e-4
1.300e+2, -1.496e-4
1.301e+2, 1.531e-3
1.302e+2, 1.286e-3
1.303e+2, 9.579e-4
1.304e+2, 7.552e-4
1.305e+2, 6.434e-4
1.306e+2, 5.800e-4
1.307e+2, 5.477e-4
1.308e+2, 5.339e-4
1.309e+2, 5.303e-4
1.310e+2, 5.332e-4
1.311e+2, -4.099e-3
1.312e+2, -6.926e-4
1.313e+2, -4.336e-4
1.314e+2, -3.316e-4
1.315e+2, -2.669e-4
1.316e+2, -2.238e-4
1.317e+2, -1.932e-4
1.318e+2, -1.706e-4
1.319e+2, -1.532e-4
1.320e+2, -1.387e-4
1.321e+2, 1.502e-3
1.322e+2, 1.268e-3
1.323e+2, 9.373e-4
1.324e+2, 7.484e-4
1.325e+2, 6.381e-4
1.326e+2, 5.734e-4
1.327e+2, 5.403e-4
1.328e+2, 5.268e-4
1.329e+2, 5.248e-4
1.330e+2, 5.296e-4
1.331e+2, -4.086e-3
1.332e+2, -6.795e-4
1.333e+2, -4.238e-4
1.334e+2, -3.215e-4
1.335e+2, -2.664e-4
1.336e+2, -2.303e-4
1.337e+2, -2.024e-4
1.338e+2, -1.804e-4
1.339e+2, -1.626e-4
1.340e+2, -1.481e-4
1.341e+2, 1.518e-3
1.342e+2, 1.282e-3
1.343e+2, 9.418e-4
1.344e+2, 7.478e-4
1.345e+2, 6.405e-4
1.346e+2, 5.794e-4
1.347e+2, 5.484e-4
1.348e+2, 5.353e-4
1.349e+2, 5.328e-4
1.350e+2, 5.361e-4
1.351e+2, -4.109e-3
1.352e+2, -6.894e-4
1.353e+2, -4.297e-4
1.354e+2, -3.221e-4
1.355e+2, -2.605e-4
1.356e+2, -2.176e-4
1.357e+2, -1.865e-4
1.358e+2, -1.645e-4
1.359e+2, -1.479e-4
1.360e+2, -1.345e-4
1.361e+2, 1.507e-3
1.362e+2, 1.259e-3
1.363e+2, 9.394e-4
1.364e+2, 7.522e-4
1.365e+2, 6.410e-4
1.366e+2, 5.769e-4
1.367e+2, 5.445e-4
1.368e+2, 5.323e-4
1.369e+2, 5.309e-4
1.370e+2, 5.343e-4
1.371e+2, -4.143e-3
1.372e+2, -6.995e-4
1.373e+2, -4.456e-4
1.374e+2, -3.449e-4
1.375e+2, -2.812e-4
1.376e+2, -2.353e-4
1.377e+2, -2.010e-4
1.378e+2, -1.755e-4
1.379e+2, -1.565e-4
1.380e+2, -1.410e-4
1.381e+2, 1.532e-3
1.382e+2, 1.277e-3
1.383e+2, 9.393e-4
1.384e+2, 7.435e-4
1.385e+2, 6.360e-4
1.386e+2, 5.754e-4
1.387e+2, 5.456e-4
1.388e+2, 5.337e-4
1.389e+2, 5.317e-4
1.390e+2, 5.358e-4
1.391e+2, -4.078e-3
1.392e+2, -6.684e-4
1.393e+2, -4.252e-4
1.394e+2, -3.224e-4
1.395e+2, -2.612e-4
1.396e+2, -2.192e-4
1.397e+2, -1.902e-4
1.398e+2, -1.674e-4
1.399e+2, -1.494e-4
1.400e+2, -1.347e-4
1.401e+2, 1.509e-3
1.402e+2, 1.251e-3
1.403e+2, 9.224e-4
1.404e+2, 7.382e-4
1.405e+2, 6.310e-4
1.406e+2, 5.694e-4
1.407e+2, 5.384e-4
1.408e+2, 5.266e-4
1.409e+2, 5.251e-4
1.410e+2, 5.298e-4
1.411e+2, -4.082e-3
1.412e+2, -6.744e-4
1.413e+2, -4.283e-4
1.414e+2, -3.266e-4
1.415e+2, -2.688e-4
1.416e+2, -2.284e-4
1.417e+2, -1.981e-4
1.418e+2, -1.752e-4
1.419e+2, -1.571e-4
1.420e+2, -1.422e-4
1.421e+2, 1.540e-3
1.422e+2, 1.259e-3
1.423e+2, 9.260e-4
1.424e+2, 7.349e-4
1.425e+2, 6.280e-4
1.426e+2, 5.693e-4
1.427e+2, 5.400e-4
1.428e+2, 5.305e-4
1.429e+2, 5.306e-4
1.430e+2, 5.355e-4
1.431e+2, -4.079e-3
1.432e+2, -6.748e-4
1.433e+2, -4.280e-4
1.434e+2, -3.249e-4
1.435e+2, -2.657e-4
1.436e+2, -2.245e-4
1.437e+2, -1.949e-4
1.438e+2, -1.697e-4
1.439e+2, -1.500e-4
1.440e+2, -1.350e-4
1.441e+2, 1.527e-3
1.442e+2, 1.251e-3
1.443e+2, 9.211e-4
1.444e+2, 7.329e-4
1.445e+2, 6.252e-4
1.446e+2, 5.648e-4
1.447e+2, 5.355e-4
1.448e+2, 5.239e-4
1.449e+2, 5.235e-4
1.450e+2, 5.291e-4
1.451e+2, -4.050e-3
1.452e+2, -6.641e-4
1.453e+2, -4.067e-4
1.454e+2, -3.033e-4
1.455e+2, -2.459e-4
1.456e+2, -2.110e-4
1.457e+2, -1.850e-4
1.458e+2, -1.658e-4
1.459e+2, -1.501e-4
1.460e+2, -1.362e-4
1.461e+2, 1.501e-3
1.462e+2, 1.252e-3
1.463e+2, 9.158e-4
1.464e+2, 7.253e-4
1.465e+2, 6.212e-4
1.466e+2, 5.651e-4
1.467e+2, 5.382e-4
1.468e+2, 5.289e-4
1.469e+2, 5.290e-4
1.470e+2, 5.344e-4
1.471e+2, -4.079e-3
1.472e+2, -6.679e-4
1.473e+2, -4.133e-4
1.474e+2, -3.089e-4
1.475e+2, -2.498e-4
1.476e+2, -2.097e-4
1.477e+2, -1.824e-4
1.478e+2, -1.630e-4
1.479e+2, -1.456e-4
1.480e+2, -1.306e-4
1.481e+2, 1.506e-3
1.482e+2, 1.233e-3
1.483e+2, 9.150e-4
1.484e+2, 7.309e-4
1.485e+2, 6.246e-4
1.486e+2, 5.666e-4
1.487e+2, 5.377e-4
1.488e+2, 5.271e-4
1.489e+2, 5.275e-4
1.490e+2, 5.328e-4
1.491e+2, -4.103e-3
1.492e+2, -6.926e-4
1.493e+2, -4.270e-4
1.494e+2, -3.226e-4
1.495e+2, -2.602e-4
1.496e+2, -2.188e-4
1.497e+2, -1.905e-4
1.498e+2, -1.696e-4
1.499e+2, -1.526e-4
1.500e+2, -1.388e-4
1.501e+2, 1.500e-3
1.502e+2, 1.246e-3
1.503e+2, 9.164e-4
1.504e+2, 7.323e-4
1.505e+2, 6.278e-4
1.506e+2, 5.711e-4
1.507e+2, 5.434e-4
1.508e+2, 5.329e-4
1.509e+2, 5.323e-4
1.510e+2, 5.365e-4
1.511e+2, -4.068e-3
1.512e+2, -6.853e-4
1.513e+2, -4.296e-4
1.514e+2, -3.171e-4
1.515e+2, -2.498e-4
1.516e+2, -2.070e-4
1.517e+2, -1.794e-4
1.518e+2, -1.593e-4
1.519e+2, -1.427e-4
1.520e+2, -1.282e-4
1.521e+2, 1.511e-3
1.522e+2, 1.230e-3
1.523e+2, 9.036e-4
1.524e+2, 7.261e-4
1.525e+2, 6.232e-4
1.526e+2, 5.654e-4
1.527e+2, 5.360e-4
1.528e+2, 5.259e-4
1.529e+2, 5.262e-4
1.530e+2, 5.313e-4
1.531e+2, -4.079e-3
1.532e+2, -6.854e-4
1.533e+2, -4.253e-4
1.534e+2, -3.188e-4
1.535e+2, -2.599e-4
1.536e+2, -2.201e-4
1.537e+2, -1.939e-4
1.538e+2, -1.735e-4
1.539e+2, -1.565e-4
1.540e+2, -1.419e-4
1.541e+2, 1.560e-3
1.542e+2, 1.245e-3
1.543e+2, 9.094e-4
1.544e+2, 7.242e-4
1.545e+2, 6.204e-4
1.546e+2, 5.642e-4
1.547e+2, 5.365e-4
1.548e+2, 5.271e-4
1.549e+2, 5.275e-4
1.550e+2, 5.323e-4
1.551e+2, -4.062e-3
1.552e+2, -6.900e-4
1.553e+2, -4.310e-4
1.554e+2, -3.197e-4
1.555e+2, -2.572e-4
1.556e+2, -2.165e-4
1.557e+2, -1.874e-4
1.558e+2, -1.651e-4
1.559e+2, -1.482e-4
1.560e+2, -1.340e-4
1.561e+2, 1.534e-3
1.562e+2, 1.244e-3
1.563e+2, 9.157e-4
1.564e+2, 7.300e-4
1.565e+2, 6.257e-4
1.566e+2, 5.660e-4
1.567e+2, 5.368e-4
1.568e+2, 5.260e-4
1.569e+2, 5.262e-4
1.570e+2, 5.313e-4
1.571e+2, -4.081e-3
1.572e+2, -6.919e-4
1.573e+2, -4.257e-4
1.574e+2, -3.187e-4
1.575e+2, -2.556e-4
1.576e+2, -2.158e-4
1.577e+2, -1.892e-4
1.578e+2, -1.684e-4
1.579e+2, -1.514e-4
1.580e+2, -1.369e-4
1.581e+2, 1.557e-3
1.582e+2, 1.253e-3
1.583e+2, 9.109e-4
1.584e+2, 7.230e-4
1.585e+2, 6.186e-4
1.586e+2, 5.599e-4
1.587e+2, 5.318e-4
1.588e+2, 5.217e-4
1.589e+2, 5.217e-4
1.590e+2, 5.266e-4
1.591e+2, -4.041e-3
1.592e+2, -6.704e-4
1.593e+2, -4.150e-4
1.594e+2, -3.150e-4
1.595e+2, -2.579e-4
1.596e+2, -2.207e-4
1.597e+2, -1.900e-4
1.598e+2, -1.668e-4
1.599e+2, -1.485e-4
1.600e+2, -1.336e-4
1.601e+2, 1.519e-3
1.602e+2, 1.242e-3
1.603e+2, 9.082e-4
1.604e+2, 7.234e-4
1.605e+2, 6.201e-4
1.606e+2, 5.634e-4
1.607e+2, 5.355e-4
1.608e+2, 5.255e-4
1.609e+2, 5.255e-4
1.610e+2, 5.300e-4
1.611e+2, -4.036e-3
1.612e+2, -6.673e-4
1.613e+2, -4.196e-4
1.614e+2, -3.197e-4
1.615e+2, -2.607e-4
1.616e+2, -2.224e-4
1.617e+2, -1.930e-4
1.618e+2, -1.698e-4
1.619e+2, -1.523e-4
1.620e+2, -1.376e-4
1.621e+2, 1.545e-3
1.622e+2, 1.248e-3
1.623e+2, 9.004e-4
1.624e+2, 7.176e-4
1.625e+2, 6.146e-4
1.626e+2, 5.593e-4
1.627e+2, 5.332e-4
1.628e+2, 5.239e-4
1.629e+2, 5.248e-4
1.630e+2, 5.300e-4
1.631e+2, -4.059e-3
1.632e+2, -6.920e-4
1.633e+2, -4.373e-4
1.634e+2, -3.343e-4
1.635e+2, -2.712e-4
1.636e+2, -2.287e-4
1.637e+2, -1.964e-4
1.638e+2, -1.698e-4
1.639e+2, -1.500e-4
1.640e+2, -1.342e-4
1.641e+2, 1.553e-3
1.642e+2, 1.249e-3
1.643e+2, 8.986e-4
1.644e+2, 7.192e-4
1.645e+2, 6.159e-4
1.646e+2, 5.590e-4
1.647e+2, 5.307e-4
1.648e+2, 5.203e-4
1.649e+2, 5.199e-4
1.650e+2, 5.245e-4
1.651e+2, -4.003e-3
1.652e+2, -6.573e-4
1.653e+2, -4.042e-4
1.654e+2, -3.060e-4
1.655e+2, -2.511e-4
1.656e+2, -2.159e-4
1.657e+2, -1.879e-4
1.658e+2, -1.663e-4
1.659e+2, -1.468e-4
1.660e+2, -1.314e-4
1.661e+2, 1.505e-3
1.662e+2, 1.238e-3
1.663e+2, 8.965e-4
1.664e+2, 7.118e-4
1.665e+2, 6.096e-4
1.666e+2, 5.575e-4
1.667e+2, 5.296e-4
1.668e+2, 5.203e-4
1.669e+2, 5.208e-4
1.670e+2, 5.259e-4
1.671e+2, -4.008e-3
1.672e+2, -6.652e-4
1.673e+2, -4.048e-4
1.674e+2, -2.975e-4
1.675e+2, -2.407e-4
1.676e+2, -2.054e-4
1.677e+2, -1.803e-4
1.678e+2, -1.588e-4
1.679e+2, -1.416e-4
1.680e+2, -1.284e-4
1.681e+2, 1.486e-3
1.682e+2, 1.220e-3
1.683e+2, 8.865e-4
1.684e+2, 7.121e-4
1.685e+2, 6.100e-4
1.686e+2, 5.541e-4
1.687e+2, 5.261e-4
1.688e+2, 5.152e-4
1.689e+2, 5.151e-4
1.690e+2, 5.205e-4
1.691e+2, -4.018e-3
1.692e+2, -6.921e-4
1.693e+2, -4.188e-4
1.694e+2, -3.111e-4
1.695e+2, -2.506e-4
1.696e+2, -2.104e-4
1.697e+2, -1.845e-4
1.698e+2, -1.620e-4
1.699e+2, -1.464e-4
1.700e+2, -1.321e-4
1.701e+2, 1.528e-3
1.702e+2, 1.242e-3
1.703e+2, 8.775e-4
1.704e+2, 6.976e-4
1.705e+2, 5.986e-4
1.706e+2, 5.450e-4
1.707e+2, 5.205e-4
1.708e+2, 5.112e-4
1.709e+2, 5.116e-4
1.710e+2, 5.171e-4
1.711e+2, -3.994e-3
1.712e+2, -6.752e-4
1.713e+2, -4.066e-4
1.714e+2, -2.969e-4
1.715e+2, -2.371e-4
1.716e+2, -1.999e-4
1.717e+2, -1.732e-4
1.718e+2, -1.531e-4
1.719e+2, -1.386e-4
1.720e+2, -1.260e-4
1.721e+2, 1.486e-3
1.722e+2, 1.226e-3
1.723e+2, 8.817e-4
1.724e+2, 7.008e-4
1.725e+2, 6.001e-4
1.726e+2, 5.459e-4
1.727e+2, 5.192e-4
1.728e+2, 5.106e-4
1.729e+2, 5.121e-4
1.730e+2, 5.178e-4
1.731e+2, -3.988e-3
1.732e+2, -6.793e-4
1.733e+2, -4.056e-4
1.734e+2, -2.954e-4
1.735e+2, -2.347e-4
1.736e+2, -1.985e-4
1.737e+2, -1.718e-4
1.738e+2, -1.522e-4
1.739e+2, -1.359e-4
1.740e+2, -1.237e-4
1.741e+2, 1.493e-3
1.742e+2, 1.247e-3
1.743e+2, 8.794e-4
1.744e+2, 6.988e-4
1.745e+2, 5.963e-4
1.746e+2, 5.420e-4
1.747e+2, 5.167e-4
1.748e+2, 5.093e-4
1.749e+2, 5.120e-4
1.750e+2, 5.187e-4
1.751e+2, -4.009e-3
1.752e+2, -6.809e-4
1.753e+2, -4.129e-4
1.754e+2, -3.060e-4
1.755e+2, -2.441e-4
1.756e+2, -2.062e-4
1.757e+2, -1.809e-4
1.758e+2, -1.608e-4
1.759e+2, -1.442e-4
1.760e+2, -1.314e-4
1.761e+2, 1.508e-3
1.762e+2, 1.234e-3
1.763e+2, 8.784e-4
1.764e+2, 7.004e-4
1.765e+2, 6.014e-4
1.766e+2, 5.486e-4
1.767e+2, 5.228e-4
1.768e+2, 5.137e-4
1.769e+2, 5.140e-4
1.770e+2, 5.190e-4
1.771e+2, -3.960e-3
1.772e+2, -6.709e-4
1.773e+2, -4.006e-4
1.774e+2, -2.913e-4
1.775e+2, -2.301e-4
1.776e+2, -1.926e-4
1.777e+2, -1.665e-4
1.778e+2, -1.454e-4
1.779e+2, -1.314e-4
1.780e+2, -1.194e-4
1.781e+2, 1.478e-3
1.782e+2, 1.212e-3
1.783e+2, 8.607e-4
1.784e+2, 6.855e-4
1.785e+2, 5.902e-4
1.786e+2, 5.384e-4
1.787e+2, 5.130e-4
1.788e+2, 5.048e-4
1.789e+2, 5.063e-4
1.790e+2, 5.130e-4
1.791e+2, -3.966e-3
1.792e+2, -6.535e-4
1.793e+2, -3.902e-4
1.794e+2, -2.879e-4
1.795e+2, -2.307e-4
1.796e+2, -1.925e-4
1.797e+2, -1.655e-4
1.798e+2, -1.467e-4
1.799e+2, -1.318e-4
1.800e+2, -1.198e-4
1.801e+2, 1.507e-3
1.802e+2, 1.219e-3
1.803e+2, 8.568e-4
1.804e+2, 6.870e-4
1.805e+2, 5.895e-4
1.806e+2, 5.384e-4
1.807e+2, 5.139e-4
1.808e+2, 5.063e-4
1.809e+2, 5.083e-4
1.810e+2, 5.141e-4
