Potential V vs RHE, Current mA cm-2
0.4132999999999999,0.0004887827541033702
0.4122999999999999,-0.002003231200608892
0.4112999999999999,-0.0028789374952253497
0.4102999999999999,-0.0033245715546828362
0.4092999999999999,-0.0036584434214509847
0.4082999999999999,-0.0038805530955297956
0.4072999999999999,-0.004126712861706312
0.4062999999999999,-0.004327601866287147
0.4052999999999999,-0.0045072702013700065
0.4042999999999999,-0.0046614737330552955
0.4032999999999999,-0.004795871306542475
0.4022999999999999,-0.0049486601269278984
0.4012999999999999,-0.0050773988552156165
0.4002999999999999,-0.005179258068805899
0.3992999999999999,-0.005322143910092268
0.3982999999999999,-0.005452297349679851
0.3972999999999999,-0.005540009450271483
0.3962999999999999,-0.005658845199460146
0.3952999999999999,-0.0057196777853543435
0.3942999999999999,-0.0058314399780436815
0.39329999999999987,-0.0059078343882363925
0.39229999999999987,-0.005999790622727621
0.39129999999999987,-0.006093161568518714
0.39029999999999987,-0.006155408865712774
0.38929999999999987,-0.006240291543704677
0.38829999999999987,-0.0062940505730995485
0.38729999999999987,-0.0063407360459950945
0.38629999999999987,-0.006459571795183757
0.38529999999999986,-0.0065076719793791685
0.38429999999999986,-0.0065586015861743095
0.38329999999999986,-0.0066448989754660775
0.38229999999999986,-0.006687340314462028
0.38129999999999986,-0.006762320013354876
0.38029999999999986,-0.006824567310548937
0.37929999999999986,-0.006881155762543539
0.37829999999999986,-0.0069448177710374655
0.37729999999999986,-0.006987259110033417
0.37629999999999986,-0.007048091695927613
0.37529999999999986,-0.007110338993121673
0.37429999999999986,-0.007165512733816412
0.37329999999999985,-0.007215027629311687
0.37229999999999985,-0.007281519060405344
0.37129999999999985,-0.007306983863802915
0.37029999999999985,-0.0073508399140987295
0.36929999999999985,-0.007413087211292792
0.36829999999999985,-0.007459772684188339
0.36729999999999985,-0.007497969889284694
0.36629999999999985,-0.007553143629979431
0.36529999999999985,-0.007601243814174842
0.36429999999999985,-0.007650758709670118
0.36329999999999985,-0.007666320533968632
0.36229999999999984,-0.0077101765842644485
0.36129999999999984,-0.0077752533040582415
0.36029999999999984,-0.007809206375255002
0.35929999999999984,-0.007867209538549469
0.35829999999999984,-0.0078983331871465
0.35729999999999984,-0.007930871547043396
0.35629999999999984,-0.007994533555537323
0.35529999999999984,-0.008005851245936241
0.35429999999999984,-0.008068098543130304
0.35329999999999984,-0.008096392769127604
0.35229999999999984,-0.00812327228382504
0.35129999999999983,-0.008182690158419373
0.35029999999999983,-0.008209569673116807
0.34929999999999983,-0.008261913991211815
0.34829999999999983,-0.0083029406189079
0.34729999999999983,-0.008342552535304122
0.34629999999999983,-0.008372261472601287
0.34529999999999983,-0.008396311564698992
0.34429999999999983,-0.008435923481095214
0.3432999999999998,-0.008474120686191569
0.3422999999999998,-0.008502414912188871
0.3412999999999998,-0.008534953272085767
0.3402999999999998,-0.008567491631982662
0.3392999999999998,-0.008594371146680099
0.3382999999999998,-0.0086509595986747
0.3372999999999998,-0.008673594979472541
0.3362999999999998,-0.008700474494169977
0.3352999999999998,-0.008742915833165926
0.3342999999999998,-0.008778283615662552
0.3332999999999998,-0.008807992552959717
0.3322999999999998,-0.008823554377258232
0.3312999999999998,-0.0088532633145554
0.3302999999999998,-0.008898534076151082
0.3292999999999998,-0.008921169456948923
0.3282999999999998,-0.008945219549046627
0.3272999999999998,-0.008982002042843116
0.3262999999999998,-0.008997563867141633
0.3252999999999999,-0.009028687515738664
0.3242999999999999,-0.009088105390332994
0.3232999999999999,-0.009098008369432052
0.3222999999999999,-0.009124887884129487
0.3212999999999999,-0.009187135181323547
0.3202999999999999,-0.009199867583022336
0.3192999999999999,-0.009245138344618015
0.3182999999999999,-0.009257870746316801
0.3172999999999999,-0.009263529591516259
0.3162999999999999,-0.009331435733909783
0.3152999999999999,-0.009337094579109242
0.3142999999999999,-0.009385194763304653
0.3132999999999999,-0.009402171298903033
0.3122999999999999,-0.00941773312320155
0.3112999999999999,-0.009472906863896286
0.3102999999999999,-0.009474321575196152
0.3092999999999999,-0.009518177625491968
0.3082999999999999,-0.009586083767885488
0.3072999999999999,-0.009583254345285758
0.3062999999999999,-0.009618622127782386
0.3052999999999999,-0.00962569568428171
0.3042999999999999,-0.009663892889378065
0.3032999999999999,-0.009706334228374016
0.3022999999999999,-0.009726140186572127
0.3012999999999999,-0.009743116722170509
0.3002999999999999,-0.009774240370767538
0.2992999999999999,-0.009788387483766188
0.2982999999999999,-0.009837902379261465
0.2972999999999999,-0.00986761131655863
0.2962999999999999,-0.009914296789454177
0.2952999999999999,-0.009931273325052559
0.2942999999999999,-0.009949664571950801
0.2932999999999999,-0.009994935333546484
0.2922999999999999,-0.009999179467446079
0.2912999999999999,-0.010034547249942707
0.2902999999999999,-0.010068500321139465
0.2892999999999999,-0.010110941660135417
0.2882999999999999,-0.010122259350534337
0.2872999999999999,-0.010150553576531638
0.2862999999999999,-0.01017318895732948
0.2852999999999999,-0.01019865376072705
0.2842999999999999,-0.01025807163532138
0.2832999999999999,-0.01028919528391841
0.2822999999999999,-0.01028919528391841
0.2812999999999999,-0.010340124890713552
0.2802999999999999,-0.010337295468113824
0.2792999999999999,-0.01037266325061045
0.2782999999999999,-0.010382566229709504
0.2772999999999999,-0.01042076343480586
0.2762999999999999,-0.010454716506002621
0.2752999999999999,-0.010474522464200733
0.2742999999999999,-0.010515549091896819
0.2732999999999999,-0.010546672740493849
0.2722999999999999,-0.010553746296993174
0.2712999999999999,-0.010613164171587506
0.2702999999999999,-0.01061174946028764
0.2692999999999999,-0.010662679067082782
0.26829999999999987,-0.010686729159180487
0.26729999999999987,-0.010692388004379948
0.26629999999999987,-0.010734829343375898
0.26529999999999987,-0.010778685393671715
0.26429999999999987,-0.010785758950171039
0.26329999999999987,-0.010839517979565911
0.26229999999999987,-0.010850835669964832
0.26129999999999987,-0.010887618163761324
0.26029999999999986,-0.010908838833259297
0.25929999999999986,-0.010924400657557813
0.25829999999999986,-0.01098240382085228
0.25729999999999986,-0.011009283335549715
0.25629999999999986,-0.011036162850247149
0.25529999999999986,-0.011067286498844182
0.25429999999999986,-0.011078604189243103
0.25329999999999986,-0.011113971971739729
0.25229999999999986,-0.011152169176836084
0.25129999999999986,-0.011181878114133249
0.25029999999999986,-0.011210172340130551
0.24929999999999986,-0.011244125411327311
0.24829999999999985,-0.01125544310172623
0.24729999999999985,-0.011296469729422318
0.24629999999999985,-0.011341740491018
0.24529999999999985,-0.011382767118714086
0.24429999999999985,-0.011425208457710036
0.24329999999999985,-0.011429452591609632
0.24229999999999985,-0.011463405662806393
0.24129999999999985,-0.011491699888803693
0.24029999999999985,-0.011508676424402073
0.23929999999999985,-0.011553947185997754
0.23829999999999985,-0.011562435453796944
0.23729999999999984,-0.011586485545894651
0.23629999999999984,-0.011637415152689791
0.23529999999999984,-0.011628926884890601
0.23429999999999984,-0.011694003604684393
0.23329999999999984,-0.011709565428982908
0.23229999999999984,-0.011725127253281424
0.23129999999999984,-0.011776056860076566
0.23029999999999984,-0.011781715705276027
0.22929999999999984,-0.01180010695217427
0.22829999999999984,-0.011851036558969413
0.22729999999999984,-0.011877916073666847
0.22629999999999983,-0.011900551454464687
0.22529999999999983,-0.011921772123962664
0.22429999999999983,-0.01192884568046199
0.22329999999999983,-0.011986848843756457
0.22229999999999983,-0.011999581245455242
0.22129999999999983,-0.012030704894052273
0.22029999999999983,-0.012063243253949167
0.21929999999999983,-0.01210285517034539
0.21829999999999983,-0.01214529650934134
0.21729999999999983,-0.012150955354540801
0.21629999999999983,-0.012176420157938371
0.21529999999999982,-0.012190567270937022
0.21429999999999982,-0.012221690919534053
0.21329999999999982,-0.012257058702030678
0.21229999999999982,-0.012279694082828519
0.21129999999999982,-0.012303744174926225
0.21029999999999982,-0.012317891287924874
0.20929999999999982,-0.012349014936521905
0.20829999999999982,-0.012364576760820421
0.20729999999999982,-0.012407018099816373
0.20629999999999982,-0.012452288861412052
0.20529999999999982,-0.012455118284011784
0.20429999999999982,-0.012493315489108139
0.20329999999999981,-0.012494730200408003
0.2022999999999998,-0.012540000962003686
0.2012999999999998,-0.012568295188000986
0.20029999999999992,-0.012588101146199097
0.19929999999999992,-0.012637616041694373
0.19829999999999992,-0.012658836711192348
0.19729999999999992,-0.012680057380690323
0.19629999999999992,-0.012725328142286005
0.19529999999999992,-0.01273240169878533
0.19429999999999992,-0.012834260912375613
0.19329999999999992,-0.012873872828771834
0.19229999999999992,-0.012839919757575072
0.19129999999999991,-0.012897922920869538
0.1902999999999999,-0.012904996477368865
0.1892999999999999,-0.012912070033868189
0.1882999999999999,-0.012955926084164005
0.1872999999999999,-0.012967243774562928
0.1862999999999999,-0.013001196845759686
0.1852999999999999,-0.013023832226557529
0.1842999999999999,-0.013073347122052803
0.1832999999999999,-0.01312569144014781
0.1822999999999999,-0.013081835389851994
0.1812999999999999,-0.013156815088744842
0.1802999999999999,-0.013170962201743491
0.1792999999999999,-0.013192182871241466
0.1782999999999999,-0.013244527189336474
0.1772999999999999,-0.013261503724934854
0.1762999999999999,-0.013309603909130264
0.1752999999999999,-0.013337898135127564
0.1742999999999999,-0.013346386402926756
0.1732999999999999,-0.013385998319322977
0.1722999999999999,-0.013393071875822303
0.1712999999999999,-0.013427024947019063
0.1702999999999999,-0.01346522215211542
0.1692999999999999,-0.013500589934612043
0.1682999999999999,-0.013561422520506242
0.1672999999999999,-0.013564251943105973
0.1662999999999999,-0.013589716746503541
0.1652999999999999,-0.013615181549901115
0.1642999999999999,-0.013647719909798009
0.1632999999999999,-0.013666111156696253
0.1622999999999999,-0.013726943742590451
0.1612999999999999,-0.013753823257287886
0.1602999999999999,-0.013756652679887616
0.1592999999999999,-0.013797679307583703
0.15829999999999989,-0.013823144110981272
0.15729999999999988,-0.01385002362567871
0.15629999999999988,-0.013906612077673311
0.15529999999999988,-0.013917929768072232
0.15429999999999988,-0.013941979860169935
0.15329999999999988,-0.013983006487866021
0.15229999999999988,-0.013997153600864672
0.15129999999999988,-0.014032521383361298
0.15029999999999988,-0.014057986186758867
0.14929999999999988,-0.014093353969255496
0.14829999999999988,-0.014142868864750772
0.14729999999999988,-0.014130136463051987
0.14629999999999987,-0.014189554337646317
0.14529999999999987,-0.014203701450644968
0.14429999999999987,-0.014231995676642267
0.14329999999999987,-0.01430273124163552
0.14229999999999987,-0.014345172580631472
0.14129999999999987,-0.014359319693630123
0.14029999999999987,-0.014387613919627423
0.13929999999999987,-0.014415908145624722
0.13829999999999987,-0.014458349484620674
0.13729999999999987,-0.014458349484620674
0.13629999999999987,-0.014500790823616624
0.13529999999999986,-0.014543232162612576
0.13429999999999986,-0.014557379275611227
0.13329999999999986,-0.01461396772760583
0.13229999999999986,-0.014628114840604478
0.13129999999999986,-0.014642261953603129
0.13029999999999986,-0.01469885040559773
0.12929999999999986,-0.014727144631595034
0.12829999999999986,-0.014741291744593682
0.12729999999999986,-0.014797880196588285
0.12629999999999986,-0.014812027309586936
0.12529999999999986,-0.014840321535584235
0.12429999999999986,-0.014896909987578835
0.12329999999999985,-0.014925204213576137
0.12229999999999985,-0.014953498439573438
0.12129999999999985,-0.014995939778569388
0.12029999999999985,-0.015024234004566688
0.11929999999999985,-0.015066675343562642
0.11829999999999985,-0.01509496956955994
0.11729999999999985,-0.015123263795557243
0.11629999999999985,-0.015165705134553195
0.11529999999999985,-0.015179852247551842
0.11429999999999985,-0.015236440699546445
0.11329999999999985,-0.015264734925543746
0.11229999999999984,-0.015278882038542396
0.11129999999999984,-0.015349617603535646
0.11029999999999984,-0.0153637647165343
0.10929999999999984,-0.015406206055530251
0.10829999999999984,-0.01546279450752485
0.10729999999999984,-0.015448647394526203
0.10629999999999984,-0.015505235846520802
0.10529999999999984,-0.015533530072518101
0.10429999999999984,-0.015575971411514053
0.10329999999999984,-0.015632559863508654
0.10229999999999984,-0.015646706976507305
0.10129999999999983,-0.01568914831550326
0.10029999999999983,-0.015745736767497857
0.09929999999999983,-0.015745736767497857
0.09829999999999983,-0.01578817810649381
0.09729999999999983,-0.01583061944548976
0.09629999999999983,-0.01584476655848841
0.09529999999999983,-0.015901355010483013
0.09429999999999983,-0.015929649236480315
0.09329999999999983,-0.015986237688474913
0.09229999999999983,-0.016028679027470863
0.09129999999999983,-0.016042826140469518
0.09029999999999982,-0.01608526747946547
0.08929999999999982,-0.01614185593146007
0.08829999999999982,-0.01618429727045602
0.08729999999999982,-0.016226738609451972
0.08629999999999982,-0.01624088572245062
0.08529999999999982,-0.016283327061446574
0.08429999999999982,-0.016339915513441175
0.08329999999999982,-0.01638235685243712
0.08229999999999982,-0.016424798191433075
0.08129999999999982,-0.016453092417430374
0.08029999999999982,-0.01650968086942498
0.07929999999999982,-0.01656626932141958
0.07829999999999981,-0.01659456354741688
0.07729999999999981,-0.01662285777341418
0.07629999999999981,-0.016679446225408782
0.07529999999999992,-0.01670774045140608
0.07429999999999992,-0.016778476016399334
0.07329999999999992,-0.016820917355395284
0.07229999999999992,-0.016849211581392583
0.07129999999999992,-0.01693409425938449
0.07029999999999992,-0.016948241372383138
0.06929999999999992,-0.01699068271137909
0.06829999999999992,-0.017047271163373692
0.06729999999999992,-0.017075565389370995
0.06629999999999991,-0.017146300954364244
0.06529999999999991,-0.017202889406358845
0.06429999999999991,-0.017217036519357496
0.06329999999999991,-0.0173019191973494
0.06229999999999991,-0.01731606631034805
0.06129999999999991,-0.017358507649344
0.06029999999999991,-0.017400948988339954
0.05929999999999991,-0.017471684553333203
0.05829999999999991,-0.0175282730053278
0.05729999999999991,-0.017570714344323755
0.056299999999999906,-0.017584861457322406
0.055299999999999905,-0.017641449909317007
0.054299999999999904,-0.01768389124831296
0.0532999999999999,-0.017754626813306213
0.0522999999999999,-0.01781121526530081
0.0512999999999999,-0.017839509491298113
0.0502999999999999,-0.017910245056291362
0.0492999999999999,-0.017952686395287316
0.0482999999999999,-0.017995127734283266
0.0472999999999999,-0.01803756907327922
0.0462999999999999,-0.018094157525273817
0.045299999999999896,-0.018150745977268422
0.044299999999999895,-0.01820733442926302
0.043299999999999894,-0.018249775768258973
0.04229999999999989,-0.018292217107254923
0.04129999999999989,-0.018348805559249524
0.04029999999999989,-0.018447835350240076
0.03929999999999989,-0.01849027668923603
0.03829999999999989,-0.01851857091523333
0.03729999999999989,-0.018575159367227933
0.03629999999999989,-0.018631747819222534
0.03529999999999989,-0.018660042045219833
0.034299999999999886,-0.018730777610213082
0.033299999999999885,-0.018773218949209036
0.032299999999999884,-0.018815660288204986
0.031299999999999883,-0.018886395853198238
0.030299999999999883,-0.01892883719219419
0.02929999999999988,-0.01897127853119014
0.02829999999999988,-0.019042014096183394
0.02729999999999988,-0.019098602548177995
0.02629999999999988,-0.019141043887173945
0.025299999999999878,-0.019197632339168547
0.024299999999999877,-0.019240073678164497
0.023299999999999876,-0.0192966621301591
0.022299999999999875,-0.0193249563561564
0.021299999999999875,-0.019395691921149656
0.020299999999999874,-0.019466427486142905
0.019299999999999873,-0.019494721712140204
0.018299999999999872,-0.019565457277133456
0.01729999999999987,-0.01959375150313076
0.01629999999999987,-0.01963619284212671
0.01529999999999987,-0.01969278129412131
0.014299999999999868,-0.019749369746115915
0.013299999999999867,-0.019820105311109164
0.012299999999999978,-0.019862546650105117
0.011299999999999866,-0.019876693763103765
0.010299999999999976,-0.019947429328097017
0.009299999999999864,-0.02000401778009162
0.008299999999999974,-0.02006060623208622
0.007299999999999862,-0.02011719468408082
0.006299999999999972,-0.020131341797079472
0.00529999999999986,-0.02020207736207272
0.0042999999999999705,-0.020258665814067326
0.0032999999999998586,-0.020315254266061927
0.0022999999999999687,-0.020371842718056525
0.0012999999999998568,-0.02042843117005113
0.00029999999999996696,-0.020470872509047083
-0.000700000000000145,-0.02052746096104168
-0.0017000000000000348,-0.02055575518703898
-0.0027000000000001467,-0.020612343639033585
-0.0037000000000000366,-0.020683079204026837
-0.0047000000000001485,-0.02071137343002414
-0.005700000000000038,-0.02075381476902009
-0.00670000000000015,-0.020824550334013342
-0.00770000000000004,-0.02086699167300929
-0.008700000000000152,-0.020909433012005242
-0.009700000000000042,-0.020966021463999843
-0.010700000000000154,-0.021050904141991744
-0.011700000000000044,-0.021107492593986348
-0.012700000000000156,-0.021107492593986348
-0.013700000000000045,-0.0211782281589796
-0.014700000000000157,-0.0212348166109742
-0.015700000000000047,-0.021291405062968803
-0.01670000000000016,-0.021347993514963404
-0.01770000000000005,-0.021362140627962056
-0.01870000000000016,-0.021404581966958002
-0.01970000000000005,-0.021461170418952607
-0.020700000000000163,-0.021489464644949906
-0.021700000000000053,-0.021546053096944507
-0.022700000000000164,-0.021602641548939108
-0.023700000000000054,-0.02165923000093371
-0.024700000000000166,-0.021715818452928314
-0.025700000000000056,-0.021758259791924264
-0.026700000000000168,-0.021828995356917517
-0.027700000000000058,-0.021843142469916164
-0.02870000000000017,-0.021885583808912118
-0.02970000000000006,-0.021956319373905367
-0.03070000000000017,-0.02199876071290132
-0.03170000000000006,-0.02204120205189727
-0.03270000000000017,-0.022111937616890523
-0.03370000000000006,-0.022140231842887825
-0.034700000000000175,-0.022168526068885124
-0.035700000000000065,-0.022225114520879725
-0.03670000000000018,-0.02226755585987568
-0.03770000000000007,-0.02232414431187028
-0.03870000000000018,-0.02238073276386488
-0.03970000000000007,-0.02240902698986218
-0.04070000000000018,-0.022479762554855433
-0.04170000000000007,-0.022493909667854084
-0.04270000000000018,-0.022536351006850038
-0.04370000000000007,-0.022592939458844635
-0.044700000000000184,-0.022635380797840585
-0.045700000000000074,-0.022691969249835187
-0.046700000000000186,-0.02274855770182979
-0.047700000000000076,-0.02274855770182979
-0.04870000000000019,-0.022833440379821688
-0.04970000000000008,-0.02287588171881764
-0.05070000000000019,-0.022890028831816296
-0.05170000000000008,-0.022974911509808196
-0.05270000000000019,-0.022989058622806844
-0.05370000000000008,-0.023045647074801445
-0.05470000000000019,-0.0230880884137974
-0.05570000000000008,-0.023116382639794698
-0.056700000000000195,-0.023158823978790648
-0.057700000000000085,-0.02318711820478795
-0.058700000000000196,-0.0232295595437839
-0.059700000000000086,-0.023300295108777156
-0.0607000000000002,-0.023328589334774455
-0.06170000000000009,-0.023427619125765006
-0.0627000000000002,-0.02347006046476096
