Apr. 1, 2025   19:38:04
Linear Sweep Voltammetry
File: c:/users/guazh/data/banditlqround7_x0exp518_r20/2025-03-28-exp1012\regeneratedgce-2025-04-01t19_35_03-lsvinkoh\regeneratedgce_lsv_50mvs_efin_-1700mv.bin
Data Source:  Experiment
Instrument Model:  CHI760E
Header: LSV ran at 50 mVs with Efin at -1700mV
Note: 

Init E (V) = -0.6
Final E (V) = -1.7
Scan Rate (V/s) = 0.05
Sample Interval (V) = 0.001
Quiet Time (sec) = 2
Sensitivity (A/V) = 1e-4
Comp R (ohm) = 1.9

Results:

Channel 1:

Potential/V, Current/A

-0.600, 7.094e-7
-0.601, 8.490e-7
-0.602, 8.837e-7
-0.603, 9.004e-7
-0.604, 9.106e-7
-0.605, 9.191e-7
-0.606, 9.274e-7
-0.607, 9.358e-7
-0.608, 9.431e-7
-0.609, 9.492e-7
-0.610, 9.537e-7
-0.611, 9.600e-7
-0.612, 9.654e-7
-0.613, 9.711e-7
-0.614, 9.778e-7
-0.615, 9.840e-7
-0.616, 9.854e-7
-0.617, 9.932e-7
-0.618, 9.964e-7
-0.619, 1.001e-6
-0.620, 1.004e-6
-0.621, 1.007e-6
-0.622, 1.012e-6
-0.623, 1.018e-6
-0.624, 1.019e-6
-0.625, 1.023e-6
-0.626, 1.025e-6
-0.627, 1.033e-6
-0.628, 1.037e-6
-0.629, 1.040e-6
-0.630, 1.045e-6
-0.631, 1.047e-6
-0.632, 1.052e-6
-0.633, 1.058e-6
-0.634, 1.059e-6
-0.635, 1.062e-6
-0.636, 1.067e-6
-0.637, 1.070e-6
-0.638, 1.074e-6
-0.639, 1.075e-6
-0.640, 1.079e-6
-0.641, 1.082e-6
-0.642, 1.087e-6
-0.643, 1.091e-6
-0.644, 1.093e-6
-0.645, 1.095e-6
-0.646, 1.098e-6
-0.647, 1.102e-6
-0.648, 1.105e-6
-0.649, 1.107e-6
-0.650, 1.109e-6
-0.651, 1.113e-6
-0.652, 1.117e-6
-0.653, 1.121e-6
-0.654, 1.123e-6
-0.655, 1.124e-6
-0.656, 1.126e-6
-0.657, 1.130e-6
-0.658, 1.134e-6
-0.659, 1.137e-6
-0.660, 1.141e-6
-0.661, 1.144e-6
-0.662, 1.151e-6
-0.663, 1.153e-6
-0.664, 1.153e-6
-0.665, 1.156e-6
-0.666, 1.159e-6
-0.667, 1.162e-6
-0.668, 1.166e-6
-0.669, 1.167e-6
-0.670, 1.170e-6
-0.671, 1.171e-6
-0.672, 1.176e-6
-0.673, 1.181e-6
-0.674, 1.181e-6
-0.675, 1.182e-6
-0.676, 1.186e-6
-0.677, 1.190e-6
-0.678, 1.194e-6
-0.679, 1.195e-6
-0.680, 1.194e-6
-0.681, 1.198e-6
-0.682, 1.200e-6
-0.683, 1.204e-6
-0.684, 1.205e-6
-0.685, 1.208e-6
-0.686, 1.210e-6
-0.687, 1.213e-6
-0.688, 1.216e-6
-0.689, 1.218e-6
-0.690, 1.222e-6
-0.691, 1.223e-6
-0.692, 1.228e-6
-0.693, 1.231e-6
-0.694, 1.233e-6
-0.695, 1.234e-6
-0.696, 1.235e-6
-0.697, 1.240e-6
-0.698, 1.243e-6
-0.699, 1.247e-6
-0.700, 1.250e-6
-0.701, 1.250e-6
-0.702, 1.253e-6
-0.703, 1.256e-6
-0.704, 1.258e-6
-0.705, 1.262e-6
-0.706, 1.261e-6
-0.707, 1.266e-6
-0.708, 1.269e-6
-0.709, 1.270e-6
-0.710, 1.274e-6
-0.711, 1.273e-6
-0.712, 1.277e-6
-0.713, 1.282e-6
-0.714, 1.282e-6
-0.715, 1.285e-6
-0.716, 1.288e-6
-0.717, 1.291e-6
-0.718, 1.294e-6
-0.719, 1.294e-6
-0.720, 1.297e-6
-0.721, 1.301e-6
-0.722, 1.304e-6
-0.723, 1.308e-6
-0.724, 1.309e-6
-0.725, 1.312e-6
-0.726, 1.316e-6
-0.727, 1.318e-6
-0.728, 1.321e-6
-0.729, 1.323e-6
-0.730, 1.325e-6
-0.731, 1.327e-6
-0.732, 1.330e-6
-0.733, 1.333e-6
-0.734, 1.335e-6
-0.735, 1.339e-6
-0.736, 1.339e-6
-0.737, 1.343e-6
-0.738, 1.346e-6
-0.739, 1.347e-6
-0.740, 1.349e-6
-0.741, 1.350e-6
-0.742, 1.355e-6
-0.743, 1.358e-6
-0.744, 1.358e-6
-0.745, 1.361e-6
-0.746, 1.363e-6
-0.747, 1.368e-6
-0.748, 1.372e-6
-0.749, 1.371e-6
-0.750, 1.373e-6
-0.751, 1.372e-6
-0.752, 1.376e-6
-0.753, 1.381e-6
-0.754, 1.381e-6
-0.755, 1.384e-6
-0.756, 1.387e-6
-0.757, 1.391e-6
-0.758, 1.396e-6
-0.759, 1.397e-6
-0.760, 1.395e-6
-0.761, 1.399e-6
-0.762, 1.404e-6
-0.763, 1.408e-6
-0.764, 1.410e-6
-0.765, 1.412e-6
-0.766, 1.415e-6
-0.767, 1.417e-6
-0.768, 1.424e-6
-0.769, 1.425e-6
-0.770, 1.423e-6
-0.771, 1.424e-6
-0.772, 1.429e-6
-0.773, 1.433e-6
-0.774, 1.436e-6
-0.775, 1.436e-6
-0.776, 1.436e-6
-0.777, 1.441e-6
-0.778, 1.443e-6
-0.779, 1.445e-6
-0.780, 1.448e-6
-0.781, 1.452e-6
-0.782, 1.459e-6
-0.783, 1.461e-6
-0.784, 1.461e-6
-0.785, 1.465e-6
-0.786, 1.466e-6
-0.787, 1.469e-6
-0.788, 1.474e-6
-0.789, 1.474e-6
-0.790, 1.477e-6
-0.791, 1.479e-6
-0.792, 1.483e-6
-0.793, 1.486e-6
-0.794, 1.486e-6
-0.795, 1.490e-6
-0.796, 1.492e-6
-0.797, 1.495e-6
-0.798, 1.499e-6
-0.799, 1.501e-6
-0.800, 1.503e-6
-0.801, 1.507e-6
-0.802, 1.511e-6
-0.803, 1.512e-6
-0.804, 1.511e-6
-0.805, 1.509e-6
-0.806, 1.513e-6
-0.807, 1.516e-6
-0.808, 1.521e-6
-0.809, 1.522e-6
-0.810, 1.525e-6
-0.811, 1.526e-6
-0.812, 1.528e-6
-0.813, 1.530e-6
-0.814, 1.531e-6
-0.815, 1.531e-6
-0.816, 1.531e-6
-0.817, 1.537e-6
-0.818, 1.538e-6
-0.819, 1.546e-6
-0.820, 1.550e-6
-0.821, 1.549e-6
-0.822, 1.553e-6
-0.823, 1.558e-6
-0.824, 1.558e-6
-0.825, 1.563e-6
-0.826, 1.562e-6
-0.827, 1.568e-6
-0.828, 1.570e-6
-0.829, 1.571e-6
-0.830, 1.575e-6
-0.831, 1.577e-6
-0.832, 1.579e-6
-0.833, 1.584e-6
-0.834, 1.584e-6
-0.835, 1.588e-6
-0.836, 1.589e-6
-0.837, 1.592e-6
-0.838, 1.596e-6
-0.839, 1.596e-6
-0.840, 1.599e-6
-0.841, 1.601e-6
-0.842, 1.606e-6
-0.843, 1.608e-6
-0.844, 1.609e-6
-0.845, 1.610e-6
-0.846, 1.613e-6
-0.847, 1.618e-6
-0.848, 1.621e-6
-0.849, 1.624e-6
-0.850, 1.626e-6
-0.851, 1.629e-6
-0.852, 1.632e-6
-0.853, 1.633e-6
-0.854, 1.636e-6
-0.855, 1.638e-6
-0.856, 1.640e-6
-0.857, 1.648e-6
-0.858, 1.650e-6
-0.859, 1.651e-6
-0.860, 1.653e-6
-0.861, 1.653e-6
-0.862, 1.659e-6
-0.863, 1.661e-6
-0.864, 1.661e-6
-0.865, 1.665e-6
-0.866, 1.666e-6
-0.867, 1.672e-6
-0.868, 1.676e-6
-0.869, 1.677e-6
-0.870, 1.682e-6
-0.871, 1.682e-6
-0.872, 1.686e-6
-0.873, 1.690e-6
-0.874, 1.688e-6
-0.875, 1.690e-6
-0.876, 1.693e-6
-0.877, 1.697e-6
-0.878, 1.702e-6
-0.879, 1.703e-6
-0.880, 1.705e-6
-0.881, 1.707e-6
-0.882, 1.710e-6
-0.883, 1.716e-6
-0.884, 1.717e-6
-0.885, 1.718e-6
-0.886, 1.722e-6
-0.887, 1.727e-6
-0.888, 1.731e-6
-0.889, 1.732e-6
-0.890, 1.734e-6
-0.891, 1.736e-6
-0.892, 1.741e-6
-0.893, 1.745e-6
-0.894, 1.746e-6
-0.895, 1.750e-6
-0.896, 1.753e-6
-0.897, 1.759e-6
-0.898, 1.761e-6
-0.899, 1.761e-6
-0.900, 1.766e-6
-0.901, 1.770e-6
-0.902, 1.774e-6
-0.903, 1.776e-6
-0.904, 1.777e-6
-0.905, 1.781e-6
-0.906, 1.781e-6
-0.907, 1.786e-6
-0.908, 1.788e-6
-0.909, 1.791e-6
-0.910, 1.795e-6
-0.911, 1.795e-6
-0.912, 1.799e-6
-0.913, 1.803e-6
-0.914, 1.804e-6
-0.915, 1.807e-6
-0.916, 1.810e-6
-0.917, 1.813e-6
-0.918, 1.819e-6
-0.919, 1.821e-6
-0.920, 1.823e-6
-0.921, 1.828e-6
-0.922, 1.836e-6
-0.923, 1.835e-6
-0.924, 1.836e-6
-0.925, 1.840e-6
-0.926, 1.843e-6
-0.927, 1.848e-6
-0.928, 1.851e-6
-0.929, 1.852e-6
-0.930, 1.855e-6
-0.931, 1.859e-6
-0.932, 1.865e-6
-0.933, 1.867e-6
-0.934, 1.869e-6
-0.935, 1.871e-6
-0.936, 1.875e-6
-0.937, 1.881e-6
-0.938, 1.885e-6
-0.939, 1.885e-6
-0.940, 1.891e-6
-0.941, 1.898e-6
-0.942, 1.904e-6
-0.943, 1.903e-6
-0.944, 1.904e-6
-0.945, 1.905e-6
-0.946, 1.908e-6
-0.947, 1.917e-6
-0.948, 1.920e-6
-0.949, 1.921e-6
-0.950, 1.924e-6
-0.951, 1.926e-6
-0.952, 1.931e-6
-0.953, 1.935e-6
-0.954, 1.935e-6
-0.955, 1.939e-6
-0.956, 1.944e-6
-0.957, 1.949e-6
-0.958, 1.953e-6
-0.959, 1.955e-6
-0.960, 1.960e-6
-0.961, 1.966e-6
-0.962, 1.969e-6
-0.963, 1.973e-6
-0.964, 1.974e-6
-0.965, 1.976e-6
-0.966, 1.980e-6
-0.967, 1.985e-6
-0.968, 1.988e-6
-0.969, 1.991e-6
-0.970, 1.992e-6
-0.971, 1.996e-6
-0.972, 2.000e-6
-0.973, 2.008e-6
-0.974, 2.011e-6
-0.975, 2.012e-6
-0.976, 2.016e-6
-0.977, 2.022e-6
-0.978, 2.024e-6
-0.979, 2.029e-6
-0.980, 2.031e-6
-0.981, 2.035e-6
-0.982, 2.041e-6
-0.983, 2.046e-6
-0.984, 2.047e-6
-0.985, 2.051e-6
-0.986, 2.054e-6
-0.987, 2.062e-6
-0.988, 2.066e-6
-0.989, 2.068e-6
-0.990, 2.073e-6
-0.991, 2.074e-6
-0.992, 2.081e-6
-0.993, 2.087e-6
-0.994, 2.089e-6
-0.995, 2.092e-6
-0.996, 2.096e-6
-0.997, 2.102e-6
-0.998, 2.107e-6
-0.999, 2.108e-6
-1.000, 2.112e-6
-1.001, 2.117e-6
-1.002, 2.121e-6
-1.003, 2.130e-6
-1.004, 2.135e-6
-1.005, 2.135e-6
-1.006, 2.138e-6
-1.007, 2.143e-6
-1.008, 2.146e-6
-1.009, 2.150e-6
-1.010, 2.155e-6
-1.011, 2.156e-6
-1.012, 2.164e-6
-1.013, 2.167e-6
-1.014, 2.172e-6
-1.015, 2.174e-6
-1.016, 2.180e-6
-1.017, 2.185e-6
-1.018, 2.190e-6
-1.019, 2.193e-6
-1.020, 2.198e-6
-1.021, 2.198e-6
-1.022, 2.204e-6
-1.023, 2.207e-6
-1.024, 2.212e-6
-1.025, 2.218e-6
-1.026, 2.220e-6
-1.027, 2.226e-6
-1.028, 2.230e-6
-1.029, 2.233e-6
-1.030, 2.237e-6
-1.031, 2.242e-6
-1.032, 2.248e-6
-1.033, 2.251e-6
-1.034, 2.255e-6
-1.035, 2.258e-6
-1.036, 2.262e-6
-1.037, 2.267e-6
-1.038, 2.271e-6
-1.039, 2.274e-6
-1.040, 2.277e-6
-1.041, 2.282e-6
-1.042, 2.288e-6
-1.043, 2.292e-6
-1.044, 2.298e-6
-1.045, 2.302e-6
-1.046, 2.306e-6
-1.047, 2.312e-6
-1.048, 2.317e-6
-1.049, 2.321e-6
-1.050, 2.325e-6
-1.051, 2.328e-6
-1.052, 2.333e-6
-1.053, 2.337e-6
-1.054, 2.341e-6
-1.055, 2.344e-6
-1.056, 2.348e-6
-1.057, 2.355e-6
-1.058, 2.357e-6
-1.059, 2.362e-6
-1.060, 2.366e-6
-1.061, 2.369e-6
-1.062, 2.377e-6
-1.063, 2.380e-6
-1.064, 2.382e-6
-1.065, 2.386e-6
-1.066, 2.391e-6
-1.067, 2.398e-6
-1.068, 2.403e-6
-1.069, 2.405e-6
-1.070, 2.409e-6
-1.071, 2.412e-6
-1.072, 2.418e-6
-1.073, 2.421e-6
-1.074, 2.424e-6
-1.075, 2.432e-6
-1.076, 2.437e-6
-1.077, 2.439e-6
-1.078, 2.446e-6
-1.079, 2.446e-6
-1.080, 2.451e-6
-1.081, 2.456e-6
-1.082, 2.461e-6
-1.083, 2.465e-6
-1.084, 2.468e-6
-1.085, 2.471e-6
-1.086, 2.476e-6
-1.087, 2.483e-6
-1.088, 2.488e-6
-1.089, 2.492e-6
-1.090, 2.493e-6
-1.091, 2.498e-6
-1.092, 2.503e-6
-1.093, 2.504e-6
-1.094, 2.508e-6
-1.095, 2.512e-6
-1.096, 2.516e-6
-1.097, 2.523e-6
-1.098, 2.526e-6
-1.099, 2.530e-6
-1.100, 2.533e-6
-1.101, 2.539e-6
-1.102, 2.547e-6
-1.103, 2.549e-6
-1.104, 2.550e-6
-1.105, 2.557e-6
-1.106, 2.560e-6
-1.107, 2.566e-6
-1.108, 2.571e-6
-1.109, 2.574e-6
-1.110, 2.577e-6
-1.111, 2.582e-6
-1.112, 2.588e-6
-1.113, 2.592e-6
-1.114, 2.595e-6
-1.115, 2.598e-6
-1.116, 2.603e-6
-1.117, 2.608e-6
-1.118, 2.613e-6
-1.119, 2.614e-6
-1.120, 2.620e-6
-1.121, 2.625e-6
-1.122, 2.628e-6
-1.123, 2.632e-6
-1.124, 2.636e-6
-1.125, 2.639e-6
-1.126, 2.647e-6
-1.127, 2.652e-6
-1.128, 2.657e-6
-1.129, 2.662e-6
-1.130, 2.663e-6
-1.131, 2.668e-6
-1.132, 2.674e-6
-1.133, 2.678e-6
-1.134, 2.681e-6
-1.135, 2.683e-6
-1.136, 2.688e-6
-1.137, 2.694e-6
-1.138, 2.697e-6
-1.139, 2.700e-6
-1.140, 2.705e-6
-1.141, 2.706e-6
-1.142, 2.713e-6
-1.143, 2.715e-6
-1.144, 2.719e-6
-1.145, 2.722e-6
-1.146, 2.724e-6
-1.147, 2.732e-6
-1.148, 2.738e-6
-1.149, 2.739e-6
-1.150, 2.743e-6
-1.151, 2.746e-6
-1.152, 2.752e-6
-1.153, 2.757e-6
-1.154, 2.756e-6
-1.155, 2.760e-6
-1.156, 2.766e-6
-1.157, 2.772e-6
-1.158, 2.777e-6
-1.159, 2.778e-6
-1.160, 2.781e-6
-1.161, 2.787e-6
-1.162, 2.792e-6
-1.163, 2.794e-6
-1.164, 2.797e-6
-1.165, 2.799e-6
-1.166, 2.804e-6
-1.167, 2.810e-6
-1.168, 2.813e-6
-1.169, 2.816e-6
-1.170, 2.818e-6
-1.171, 2.825e-6
-1.172, 2.830e-6
-1.173, 2.833e-6
-1.174, 2.838e-6
-1.175, 2.841e-6
-1.176, 2.844e-6
-1.177, 2.851e-6
-1.178, 2.858e-6
-1.179, 2.860e-6
-1.180, 2.866e-6
-1.181, 2.867e-6
-1.182, 2.872e-6
-1.183, 2.876e-6
-1.184, 2.878e-6
-1.185, 2.881e-6
-1.186, 2.883e-6
-1.187, 2.889e-6
-1.188, 2.894e-6
-1.189, 2.893e-6
-1.190, 2.899e-6
-1.191, 2.902e-6
-1.192, 2.908e-6
-1.193, 2.914e-6
-1.194, 2.913e-6
-1.195, 2.919e-6
-1.196, 2.924e-6
-1.197, 2.928e-6
-1.198, 2.932e-6
-1.199, 2.933e-6
-1.200, 2.938e-6
-1.201, 2.944e-6
-1.202, 2.949e-6
-1.203, 2.952e-6
-1.204, 2.957e-6
-1.205, 2.960e-6
-1.206, 2.965e-6
-1.207, 2.969e-6
-1.208, 2.974e-6
-1.209, 2.979e-6
-1.210, 2.979e-6
-1.211, 2.983e-6
-1.212, 2.990e-6
-1.213, 2.990e-6
-1.214, 2.992e-6
-1.215, 2.994e-6
-1.216, 3.000e-6
-1.217, 3.008e-6
-1.218, 3.009e-6
-1.219, 3.011e-6
-1.220, 3.015e-6
-1.221, 3.018e-6
-1.222, 3.023e-6
-1.223, 3.025e-6
-1.224, 3.029e-6
-1.225, 3.033e-6
-1.226, 3.036e-6
-1.227, 3.042e-6
-1.228, 3.044e-6
-1.229, 3.053e-6
-1.230, 3.053e-6
-1.231, 3.054e-6
-1.232, 3.060e-6
-1.233, 3.064e-6
-1.234, 3.066e-6
-1.235, 3.069e-6
-1.236, 3.073e-6
-1.237, 3.077e-6
-1.238, 3.082e-6
-1.239, 3.081e-6
-1.240, 3.085e-6
-1.241, 3.091e-6
-1.242, 3.098e-6
-1.243, 3.101e-6
-1.244, 3.103e-6
-1.245, 3.105e-6
-1.246, 3.109e-6
-1.247, 3.114e-6
-1.248, 3.115e-6
-1.249, 3.119e-6
-1.250, 3.119e-6
-1.251, 3.124e-6
-1.252, 3.128e-6
-1.253, 3.129e-6
-1.254, 3.133e-6
-1.255, 3.135e-6
-1.256, 3.138e-6
-1.257, 3.143e-6
-1.258, 3.144e-6
-1.259, 3.146e-6
-1.260, 3.148e-6
-1.261, 3.153e-6
-1.262, 3.159e-6
-1.263, 3.160e-6
-1.264, 3.161e-6
-1.265, 3.165e-6
-1.266, 3.165e-6
-1.267, 3.170e-6
-1.268, 3.173e-6
-1.269, 3.173e-6
-1.270, 3.177e-6
-1.271, 3.181e-6
-1.272, 3.187e-6
-1.273, 3.189e-6
-1.274, 3.188e-6
-1.275, 3.192e-6
-1.276, 3.194e-6
-1.277, 3.200e-6
-1.278, 3.201e-6
-1.279, 3.202e-6
-1.280, 3.207e-6
-1.281, 3.211e-6
-1.282, 3.213e-6
-1.283, 3.215e-6
-1.284, 3.216e-6
-1.285, 3.216e-6
-1.286, 3.218e-6
-1.287, 3.222e-6
-1.288, 3.225e-6
-1.289, 3.226e-6
-1.290, 3.227e-6
-1.291, 3.232e-6
-1.292, 3.238e-6
-1.293, 3.239e-6
-1.294, 3.242e-6
-1.295, 3.241e-6
-1.296, 3.244e-6
-1.297, 3.248e-6
-1.298, 3.249e-6
-1.299, 3.249e-6
-1.300, 3.251e-6
-1.301, 3.253e-6
-1.302, 3.259e-6
-1.303, 3.260e-6
-1.304, 3.259e-6
-1.305, 3.261e-6
-1.306, 3.264e-6
-1.307, 3.271e-6
-1.308, 3.272e-6
-1.309, 3.272e-6
-1.310, 3.276e-6
-1.311, 3.278e-6
-1.312, 3.282e-6
-1.313, 3.286e-6
-1.314, 3.286e-6
-1.315, 3.290e-6
-1.316, 3.293e-6
-1.317, 3.295e-6
-1.318, 3.300e-6
-1.319, 3.303e-6
-1.320, 3.304e-6
-1.321, 3.309e-6
-1.322, 3.311e-6
-1.323, 3.316e-6
-1.324, 3.320e-6
-1.325, 3.322e-6
-1.326, 3.327e-6
-1.327, 3.331e-6
-1.328, 3.334e-6
-1.329, 3.335e-6
-1.330, 3.336e-6
-1.331, 3.339e-6
-1.332, 3.343e-6
-1.333, 3.344e-6
-1.334, 3.348e-6
-1.335, 3.350e-6
-1.336, 3.354e-6
-1.337, 3.360e-6
-1.338, 3.362e-6
-1.339, 3.364e-6
-1.340, 3.365e-6
-1.341, 3.372e-6
-1.342, 3.380e-6
-1.343, 3.384e-6
-1.344, 3.389e-6
-1.345, 3.393e-6
-1.346, 3.390e-6
-1.347, 3.396e-6
-1.348, 3.398e-6
-1.349, 3.400e-6
-1.350, 3.404e-6
-1.351, 3.406e-6
-1.352, 3.411e-6
-1.353, 3.417e-6
-1.354, 3.419e-6
-1.355, 3.423e-6
-1.356, 3.428e-6
-1.357, 3.434e-6
-1.358, 3.438e-6
-1.359, 3.440e-6
-1.360, 3.441e-6
-1.361, 3.446e-6
-1.362, 3.450e-6
-1.363, 3.452e-6
-1.364, 3.454e-6
-1.365, 3.458e-6
-1.366, 3.461e-6
-1.367, 3.467e-6
-1.368, 3.470e-6
-1.369, 3.475e-6
-1.370, 3.477e-6
-1.371, 3.482e-6
-1.372, 3.496e-6
-1.373, 3.499e-6
-1.374, 3.501e-6
-1.375, 3.499e-6
-1.376, 3.504e-6
-1.377, 3.511e-6
-1.378, 3.513e-6
-1.379, 3.517e-6
-1.380, 3.520e-6
-1.381, 3.528e-6
-1.382, 3.536e-6
-1.383, 3.538e-6
-1.384, 3.542e-6
-1.385, 3.547e-6
-1.386, 3.551e-6
-1.387, 3.560e-6
-1.388, 3.563e-6
-1.389, 3.564e-6
-1.390, 3.566e-6
-1.391, 3.572e-6
-1.392, 3.581e-6
-1.393, 3.585e-6
-1.394, 3.584e-6
-1.395, 3.589e-6
-1.396, 3.595e-6
-1.397, 3.602e-6
-1.398, 3.608e-6
-1.399, 3.612e-6
-1.400, 3.616e-6
-1.401, 3.625e-6
-1.402, 3.630e-6
-1.403, 3.637e-6
-1.404, 3.636e-6
-1.405, 3.638e-6
-1.406, 3.644e-6
-1.407, 3.649e-6
-1.408, 3.657e-6
-1.409, 3.661e-6
-1.410, 3.662e-6
-1.411, 3.671e-6
-1.412, 3.681e-6
-1.413, 3.686e-6
-1.414, 3.694e-6
-1.415, 3.698e-6
-1.416, 3.705e-6
-1.417, 3.713e-6
-1.418, 3.715e-6
-1.419, 3.719e-6
-1.420, 3.722e-6
-1.421, 3.728e-6
-1.422, 3.735e-6
-1.423, 3.738e-6
-1.424, 3.743e-6
-1.425, 3.750e-6
-1.426, 3.756e-6
-1.427, 3.769e-6
-1.428, 3.775e-6
-1.429, 3.777e-6
-1.430, 3.781e-6
-1.431, 3.785e-6
-1.432, 3.792e-6
-1.433, 3.797e-6
-1.434, 3.803e-6
-1.435, 3.806e-6
-1.436, 3.814e-6
-1.437, 3.821e-6
-1.438, 3.827e-6
-1.439, 3.832e-6
-1.440, 3.836e-6
-1.441, 3.846e-6
-1.442, 3.855e-6
-1.443, 3.860e-6
-1.444, 3.861e-6
-1.445, 3.861e-6
-1.446, 3.869e-6
-1.447, 3.878e-6
-1.448, 3.884e-6
-1.449, 3.889e-6
-1.450, 3.891e-6
-1.451, 3.898e-6
-1.452, 3.908e-6
-1.453, 3.911e-6
-1.454, 3.914e-6
-1.455, 3.918e-6
-1.456, 3.923e-6
-1.457, 3.932e-6
-1.458, 3.935e-6
-1.459, 3.942e-6
-1.460, 3.946e-6
-1.461, 3.951e-6
-1.462, 3.958e-6
-1.463, 3.963e-6
-1.464, 3.965e-6
-1.465, 3.971e-6
-1.466, 3.977e-6
-1.467, 3.986e-6
-1.468, 3.990e-6
-1.469, 3.996e-6
-1.470, 4.005e-6
-1.471, 4.010e-6
-1.472, 4.019e-6
-1.473, 4.022e-6
-1.474, 4.024e-6
-1.475, 4.031e-6
-1.476, 4.039e-6
-1.477, 4.048e-6
-1.478, 4.056e-6
-1.479, 4.060e-6
-1.480, 4.063e-6
-1.481, 4.073e-6
-1.482, 4.080e-6
-1.483, 4.086e-6
-1.484, 4.091e-6
-1.485, 4.102e-6
-1.486, 4.109e-6
-1.487, 4.115e-6
-1.488, 4.121e-6
-1.489, 4.128e-6
-1.490, 4.132e-6
-1.491, 4.141e-6
-1.492, 4.151e-6
-1.493, 4.155e-6
-1.494, 4.161e-6
-1.495, 4.166e-6
-1.496, 4.174e-6
-1.497, 4.186e-6
-1.498, 4.191e-6
-1.499, 4.197e-6
-1.500, 4.203e-6
-1.501, 4.209e-6
-1.502, 4.220e-6
-1.503, 4.225e-6
-1.504, 4.232e-6
-1.505, 4.242e-6
-1.506, 4.250e-6
-1.507, 4.260e-6
-1.508, 4.271e-6
-1.509, 4.275e-6
-1.510, 4.283e-6
-1.511, 4.291e-6
-1.512, 4.304e-6
-1.513, 4.314e-6
-1.514, 4.317e-6
-1.515, 4.326e-6
-1.516, 4.336e-6
-1.517, 4.348e-6
-1.518, 4.360e-6
-1.519, 4.365e-6
-1.520, 4.375e-6
-1.521, 4.389e-6
-1.522, 4.403e-6
-1.523, 4.415e-6
-1.524, 4.424e-6
-1.525, 4.431e-6
-1.526, 4.444e-6
-1.527, 4.453e-6
-1.528, 4.461e-6
-1.529, 4.475e-6
-1.530, 4.483e-6
-1.531, 4.499e-6
-1.532, 4.512e-6
-1.533, 4.521e-6
-1.534, 4.536e-6
-1.535, 4.545e-6
-1.536, 4.558e-6
-1.537, 4.572e-6
-1.538, 4.584e-6
-1.539, 4.594e-6
-1.540, 4.606e-6
-1.541, 4.620e-6
-1.542, 4.638e-6
-1.543, 4.648e-6
-1.544, 4.662e-6
-1.545, 4.676e-6
-1.546, 4.691e-6
-1.547, 4.707e-6
-1.548, 4.717e-6
-1.549, 4.733e-6
-1.550, 4.749e-6
-1.551, 4.764e-6
-1.552, 4.782e-6
-1.553, 4.799e-6
-1.554, 4.812e-6
-1.555, 4.830e-6
-1.556, 4.848e-6
-1.557, 4.865e-6
-1.558, 4.883e-6
-1.559, 4.896e-6
-1.560, 4.912e-6
-1.561, 4.934e-6
-1.562, 4.954e-6
-1.563, 4.972e-6
-1.564, 4.989e-6
-1.565, 5.007e-6
-1.566, 5.028e-6
-1.567, 5.051e-6
-1.568, 5.072e-6
-1.569, 5.091e-6
-1.570, 5.107e-6
-1.571, 5.130e-6
-1.572, 5.156e-6
-1.573, 5.176e-6
-1.574, 5.200e-6
-1.575, 5.220e-6
-1.576, 5.246e-6
-1.577, 5.276e-6
-1.578, 5.297e-6
-1.579, 5.324e-6
-1.580, 5.354e-6
-1.581, 5.381e-6
-1.582, 5.410e-6
-1.583, 5.435e-6
-1.584, 5.460e-6
-1.585, 5.490e-6
-1.586, 5.517e-6
-1.587, 5.554e-6
-1.588, 5.582e-6
-1.589, 5.608e-6
-1.590, 5.640e-6
-1.591, 5.674e-6
-1.592, 5.710e-6
-1.593, 5.746e-6
-1.594, 5.779e-6
-1.595, 5.817e-6
-1.596, 5.854e-6
-1.597, 5.889e-6
-1.598, 5.925e-6
-1.599, 5.959e-6
-1.600, 6.001e-6
-1.601, 6.051e-6
-1.602, 6.096e-6
-1.603, 6.141e-6
-1.604, 6.180e-6
-1.605, 6.218e-6
-1.606, 6.268e-6
-1.607, 6.316e-6
-1.608, 6.368e-6
-1.609, 6.417e-6
-1.610, 6.464e-6
-1.611, 6.522e-6
-1.612, 6.580e-6
-1.613, 6.636e-6
-1.614, 6.693e-6
-1.615, 6.751e-6
-1.616, 6.815e-6
-1.617, 6.882e-6
-1.618, 6.942e-6
-1.619, 7.011e-6
-1.620, 7.079e-6
-1.621, 7.150e-6
-1.622, 7.231e-6
-1.623, 7.302e-6
-1.624, 7.380e-6
-1.625, 7.463e-6
-1.626, 7.550e-6
-1.627, 7.647e-6
-1.628, 7.736e-6
-1.629, 7.826e-6
-1.630, 7.925e-6
-1.631, 8.022e-6
-1.632, 8.125e-6
-1.633, 8.237e-6
-1.634, 8.343e-6
-1.635, 8.457e-6
-1.636, 8.573e-6
-1.637, 8.687e-6
-1.638, 8.815e-6
-1.639, 8.944e-6
-1.640, 9.072e-6
-1.641, 9.213e-6
-1.642, 9.355e-6
-1.643, 9.502e-6
-1.644, 9.650e-6
-1.645, 9.804e-6
-1.646, 9.969e-6
-1.647, 1.014e-5
-1.648, 1.031e-5
-1.649, 1.048e-5
-1.650, 1.067e-5
-1.651, 1.087e-5
-1.652, 1.106e-5
-1.653, 1.127e-5
-1.654, 1.148e-5
-1.655, 1.170e-5
-1.656, 1.193e-5
-1.657, 1.215e-5
-1.658, 1.239e-5
-1.659, 1.264e-5
-1.660, 1.290e-5
-1.661, 1.317e-5
-1.662, 1.345e-5
-1.663, 1.373e-5
-1.664, 1.404e-5
-1.665, 1.434e-5
-1.666, 1.466e-5
-1.667, 1.499e-5
-1.668, 1.532e-5
-1.669, 1.566e-5
-1.670, 1.602e-5
-1.671, 1.640e-5
-1.672, 1.678e-5
-1.673, 1.717e-5
-1.674, 1.757e-5
-1.675, 1.799e-5
-1.676, 1.842e-5
-1.677, 1.887e-5
-1.678, 1.933e-5
-1.679, 1.979e-5
-1.680, 2.028e-5
-1.681, 2.079e-5
-1.682, 2.130e-5
-1.683, 2.183e-5
-1.684, 2.237e-5
-1.685, 2.293e-5
-1.686, 2.351e-5
-1.687, 2.411e-5
-1.688, 2.472e-5
-1.689, 2.535e-5
-1.690, 2.600e-5
-1.691, 2.667e-5
-1.692, 2.735e-5
-1.693, 2.803e-5
-1.694, 2.875e-5
-1.695, 2.948e-5
-1.696, 3.022e-5
-1.697, 3.100e-5
-1.698, 3.180e-5
-1.699, 3.262e-5
