Aug. 31, 2024   14:06:12
Cyclic Voltammetry
File: c:/users/guazh/data/20240829_batch_215_500/2024-08-29-exp230\exp230-2024-08-31t13_46_40-h2koh\exp230_cv_sr_500mvs_efin_-1700mv.bin
Data Source:  Experiment
Instrument Model:  CHI760E
Header: CV ran at 500 mVs
Note: 

Init E (V) = -1
High E (V) = -1
Low E (V) = -1.7
Final E (V) = -1
Init P/N = N
Scan Rate (V/s) = 0.5
Segment = 3
Sample Interval (V) = 0.001
Quiet Time (sec) = 2
Sensitivity (A/V) = 0.01
Comp R (ohm) = 1.8

Results:

Channel 1:
Segment 1:

Segment 2:

Segment 3:

Potential/V, Current/A

-1.000, 1.249e-5
-1.001, 1.865e-5
-1.002, 1.865e-5
-1.003, 1.865e-5
-1.004, 1.865e-5
-1.005, 2.174e-5
-1.006, 2.174e-5
-1.007, 2.174e-5
-1.008, 2.174e-5
-1.009, 2.174e-5
-1.010, 2.174e-5
-1.011, 2.174e-5
-1.012, 2.174e-5
-1.013, 2.174e-5
-1.014, 2.174e-5
-1.015, 2.174e-5
-1.016, 2.174e-5
-1.017, 2.482e-5
-1.018, 2.174e-5
-1.019, 2.174e-5
-1.020, 2.482e-5
-1.021, 2.482e-5
-1.022, 2.482e-5
-1.023, 2.482e-5
-1.024, 2.482e-5
-1.025, 2.482e-5
-1.026, 2.482e-5
-1.027, 2.482e-5
-1.028, 2.482e-5
-1.029, 2.482e-5
-1.030, 2.482e-5
-1.031, 2.482e-5
-1.032, 2.482e-5
-1.033, 2.482e-5
-1.034, 2.482e-5
-1.035, 2.482e-5
-1.036, 2.482e-5
-1.037, 2.482e-5
-1.038, 2.482e-5
-1.039, 2.482e-5
-1.040, 2.482e-5
-1.041, 2.482e-5
-1.042, 2.482e-5
-1.043, 2.482e-5
-1.044, 2.790e-5
-1.045, 2.790e-5
-1.046, 2.482e-5
-1.047, 2.482e-5
-1.048, 2.790e-5
-1.049, 2.790e-5
-1.050, 2.482e-5
-1.051, 2.482e-5
-1.052, 2.790e-5
-1.053, 2.790e-5
-1.054, 2.790e-5
-1.055, 2.790e-5
-1.056, 2.790e-5
-1.057, 2.482e-5
-1.058, 2.790e-5
-1.059, 2.482e-5
-1.060, 2.790e-5
-1.061, 2.790e-5
-1.062, 2.790e-5
-1.063, 2.790e-5
-1.064, 2.790e-5
-1.065, 2.790e-5
-1.066, 2.790e-5
-1.067, 2.790e-5
-1.068, 2.790e-5
-1.069, 2.790e-5
-1.070, 2.790e-5
-1.071, 2.482e-5
-1.072, 2.790e-5
-1.073, 2.790e-5
-1.074, 2.790e-5
-1.075, 2.790e-5
-1.076, 2.790e-5
-1.077, 2.790e-5
-1.078, 2.790e-5
-1.079, 2.790e-5
-1.080, 2.790e-5
-1.081, 2.790e-5
-1.082, 2.790e-5
-1.083, 2.790e-5
-1.084, 2.790e-5
-1.085, 2.790e-5
-1.086, 2.790e-5
-1.087, 2.790e-5
-1.088, 2.790e-5
-1.089, 2.790e-5
-1.090, 2.790e-5
-1.091, 2.790e-5
-1.092, 2.790e-5
-1.093, 2.790e-5
-1.094, 2.790e-5
-1.095, 2.790e-5
-1.096, 2.790e-5
-1.097, 2.790e-5
-1.098, 2.790e-5
-1.099, 2.790e-5
-1.100, 2.790e-5
-1.101, 2.790e-5
-1.102, 2.790e-5
-1.103, 2.790e-5
-1.104, 2.790e-5
-1.105, 2.790e-5
-1.106, 2.790e-5
-1.107, 2.790e-5
-1.108, 2.790e-5
-1.109, 2.790e-5
-1.110, 2.790e-5
-1.111, 2.790e-5
-1.112, 2.790e-5
-1.113, 2.790e-5
-1.114, 2.790e-5
-1.115, 2.790e-5
-1.116, 2.790e-5
-1.117, 2.790e-5
-1.118, 2.790e-5
-1.119, 2.790e-5
-1.120, 2.790e-5
-1.121, 2.790e-5
-1.122, 2.790e-5
-1.123, 2.790e-5
-1.124, 2.790e-5
-1.125, 2.790e-5
-1.126, 2.790e-5
-1.127, 2.790e-5
-1.128, 2.790e-5
-1.129, 2.790e-5
-1.130, 2.790e-5
-1.131, 2.790e-5
-1.132, 2.790e-5
-1.133, 3.099e-5
-1.134, 2.790e-5
-1.135, 3.099e-5
-1.136, 3.099e-5
-1.137, 2.790e-5
-1.138, 2.790e-5
-1.139, 2.790e-5
-1.140, 3.099e-5
-1.141, 3.099e-5
-1.142, 2.790e-5
-1.143, 3.099e-5
-1.144, 2.790e-5
-1.145, 3.099e-5
-1.146, 2.790e-5
-1.147, 3.099e-5
-1.148, 3.099e-5
-1.149, 3.099e-5
-1.150, 3.099e-5
-1.151, 3.099e-5
-1.152, 3.099e-5
-1.153, 3.099e-5
-1.154, 3.099e-5
-1.155, 3.099e-5
-1.156, 3.099e-5
-1.157, 3.099e-5
-1.158, 3.099e-5
-1.159, 3.099e-5
-1.160, 3.099e-5
-1.161, 3.099e-5
-1.162, 3.099e-5
-1.163, 3.099e-5
-1.164, 3.099e-5
-1.165, 3.099e-5
-1.166, 3.099e-5
-1.167, 3.099e-5
-1.168, 3.099e-5
-1.169, 3.099e-5
-1.170, 3.407e-5
-1.171, 3.099e-5
-1.172, 3.099e-5
-1.173, 3.099e-5
-1.174, 3.407e-5
-1.175, 3.407e-5
-1.176, 3.099e-5
-1.177, 3.099e-5
-1.178, 3.099e-5
-1.179, 3.407e-5
-1.180, 3.099e-5
-1.181, 3.407e-5
-1.182, 3.407e-5
-1.183, 3.407e-5
-1.184, 3.407e-5
-1.185, 3.407e-5
-1.186, 3.407e-5
-1.187, 3.407e-5
-1.188, 3.099e-5
-1.189, 3.407e-5
-1.190, 3.407e-5
-1.191, 3.407e-5
-1.192, 3.407e-5
-1.193, 3.407e-5
-1.194, 3.407e-5
-1.195, 3.407e-5
-1.196, 3.407e-5
-1.197, 3.407e-5
-1.198, 3.407e-5
-1.199, 3.407e-5
-1.200, 3.407e-5
-1.201, 3.407e-5
-1.202, 3.407e-5
-1.203, 3.407e-5
-1.204, 3.407e-5
-1.205, 3.407e-5
-1.206, 3.407e-5
-1.207, 3.715e-5
-1.208, 3.407e-5
-1.209, 3.407e-5
-1.210, 3.715e-5
-1.211, 3.715e-5
-1.212, 3.715e-5
-1.213, 3.407e-5
-1.214, 3.715e-5
-1.215, 3.715e-5
-1.216, 3.715e-5
-1.217, 3.715e-5
-1.218, 3.715e-5
-1.219, 3.407e-5
-1.220, 3.715e-5
-1.221, 3.715e-5
-1.222, 3.715e-5
-1.223, 3.715e-5
-1.224, 3.715e-5
-1.225, 3.715e-5
-1.226, 3.715e-5
-1.227, 3.715e-5
-1.228, 3.715e-5
-1.229, 3.715e-5
-1.230, 3.715e-5
-1.231, 3.715e-5
-1.232, 3.715e-5
-1.233, 3.715e-5
-1.234, 4.024e-5
-1.235, 3.715e-5
-1.236, 4.024e-5
-1.237, 4.024e-5
-1.238, 4.024e-5
-1.239, 4.024e-5
-1.240, 4.024e-5
-1.241, 4.024e-5
-1.242, 4.024e-5
-1.243, 4.024e-5
-1.244, 4.024e-5
-1.245, 4.024e-5
-1.246, 4.024e-5
-1.247, 4.024e-5
-1.248, 4.024e-5
-1.249, 4.332e-5
-1.250, 4.332e-5
-1.251, 4.024e-5
-1.252, 4.332e-5
-1.253, 4.332e-5
-1.254, 4.332e-5
-1.255, 4.332e-5
-1.256, 4.332e-5
-1.257, 4.332e-5
-1.258, 4.332e-5
-1.259, 4.332e-5
-1.260, 4.332e-5
-1.261, 4.640e-5
-1.262, 4.332e-5
-1.263, 4.332e-5
-1.264, 4.332e-5
-1.265, 4.640e-5
-1.266, 4.640e-5
-1.267, 4.640e-5
-1.268, 4.640e-5
-1.269, 4.640e-5
-1.270, 4.640e-5
-1.271, 4.640e-5
-1.272, 4.640e-5
-1.273, 4.640e-5
-1.274, 4.640e-5
-1.275, 4.949e-5
-1.276, 4.949e-5
-1.277, 4.949e-5
-1.278, 4.949e-5
-1.279, 4.949e-5
-1.280, 4.949e-5
-1.281, 4.949e-5
-1.282, 4.949e-5
-1.283, 4.949e-5
-1.284, 5.257e-5
-1.285, 5.257e-5
-1.286, 5.257e-5
-1.287, 5.257e-5
-1.288, 5.257e-5
-1.289, 5.257e-5
-1.290, 5.257e-5
-1.291, 5.565e-5
-1.292, 5.565e-5
-1.293, 5.565e-5
-1.294, 5.565e-5
-1.295, 5.873e-5
-1.296, 5.565e-5
-1.297, 5.873e-5
-1.298, 5.873e-5
-1.299, 5.873e-5
-1.300, 5.873e-5
-1.301, 5.873e-5
-1.302, 6.182e-5
-1.303, 6.182e-5
-1.304, 6.182e-5
-1.305, 6.182e-5
-1.306, 6.182e-5
-1.307, 6.490e-5
-1.308, 6.490e-5
-1.309, 6.490e-5
-1.310, 6.490e-5
-1.311, 6.798e-5
-1.312, 6.798e-5
-1.313, 6.798e-5
-1.314, 6.798e-5
-1.315, 6.798e-5
-1.316, 7.107e-5
-1.317, 7.107e-5
-1.318, 7.107e-5
-1.319, 7.107e-5
-1.320, 7.415e-5
-1.321, 7.415e-5
-1.322, 7.415e-5
-1.323, 7.415e-5
-1.324, 7.723e-5
-1.325, 7.723e-5
-1.326, 7.723e-5
-1.327, 8.032e-5
-1.328, 8.032e-5
-1.329, 8.032e-5
-1.330, 8.032e-5
-1.331, 8.032e-5
-1.332, 8.340e-5
-1.333, 8.340e-5
-1.334, 8.648e-5
-1.335, 8.648e-5
-1.336, 8.648e-5
-1.337, 8.957e-5
-1.338, 8.957e-5
-1.339, 8.957e-5
-1.340, 9.265e-5
-1.341, 9.265e-5
-1.342, 9.265e-5
-1.343, 9.573e-5
-1.344, 9.573e-5
-1.345, 9.573e-5
-1.346, 9.882e-5
-1.347, 9.882e-5
-1.348, 1.019e-4
-1.349, 1.019e-4
-1.350, 1.050e-4
-1.351, 1.050e-4
-1.352, 1.050e-4
-1.353, 1.081e-4
-1.354, 1.081e-4
-1.355, 1.081e-4
-1.356, 1.111e-4
-1.357, 1.142e-4
-1.358, 1.142e-4
-1.359, 1.142e-4
-1.360, 1.173e-4
-1.361, 1.173e-4
-1.362, 1.204e-4
-1.363, 1.204e-4
-1.364, 1.235e-4
-1.365, 1.235e-4
-1.366, 1.266e-4
-1.367, 1.266e-4
-1.368, 1.296e-4
-1.369, 1.296e-4
-1.370, 1.327e-4
-1.371, 1.358e-4
-1.372, 1.358e-4
-1.373, 1.389e-4
-1.374, 1.389e-4
-1.375, 1.420e-4
-1.376, 1.420e-4
-1.377, 1.451e-4
-1.378, 1.481e-4
-1.379, 1.481e-4
-1.380, 1.512e-4
-1.381, 1.512e-4
-1.382, 1.543e-4
-1.383, 1.574e-4
-1.384, 1.574e-4
-1.385, 1.605e-4
-1.386, 1.636e-4
-1.387, 1.636e-4
-1.388, 1.666e-4
-1.389, 1.697e-4
-1.390, 1.697e-4
-1.391, 1.728e-4
-1.392, 1.759e-4
-1.393, 1.790e-4
-1.394, 1.790e-4
-1.395, 1.821e-4
-1.396, 1.851e-4
-1.397, 1.882e-4
-1.398, 1.913e-4
-1.399, 1.913e-4
-1.400, 1.944e-4
-1.401, 1.975e-4
-1.402, 2.006e-4
-1.403, 2.006e-4
-1.404, 2.036e-4
-1.405, 2.067e-4
-1.406, 2.098e-4
-1.407, 2.129e-4
-1.408, 2.129e-4
-1.409, 2.191e-4
-1.410, 2.191e-4
-1.411, 2.221e-4
-1.412, 2.252e-4
-1.413, 2.283e-4
-1.414, 2.314e-4
-1.415, 2.345e-4
-1.416, 2.376e-4
-1.417, 2.376e-4
-1.418, 2.406e-4
-1.419, 2.437e-4
-1.420, 2.468e-4
-1.421, 2.499e-4
-1.422, 2.530e-4
-1.423, 2.561e-4
-1.424, 2.591e-4
-1.425, 2.622e-4
-1.426, 2.653e-4
-1.427, 2.684e-4
-1.428, 2.715e-4
-1.429, 2.746e-4
-1.430, 2.776e-4
-1.431, 2.807e-4
-1.432, 2.838e-4
-1.433, 2.869e-4
-1.434, 2.900e-4
-1.435, 2.931e-4
-1.436, 2.992e-4
-1.437, 2.992e-4
-1.438, 3.023e-4
-1.439, 3.085e-4
-1.440, 3.115e-4
-1.441, 3.146e-4
-1.442, 3.177e-4
-1.443, 3.208e-4
-1.444, 3.239e-4
-1.445, 3.300e-4
-1.446, 3.331e-4
-1.447, 3.362e-4
-1.448, 3.393e-4
-1.449, 3.424e-4
-1.450, 3.485e-4
-1.451, 3.516e-4
-1.452, 3.578e-4
-1.453, 3.609e-4
-1.454, 3.640e-4
-1.455, 3.670e-4
-1.456, 3.701e-4
-1.457, 3.763e-4
-1.458, 3.825e-4
-1.459, 3.855e-4
-1.460, 3.886e-4
-1.461, 3.917e-4
-1.462, 3.979e-4
-1.463, 4.010e-4
-1.464, 4.040e-4
-1.465, 4.071e-4
-1.466, 4.133e-4
-1.467, 4.164e-4
-1.468, 4.225e-4
-1.469, 4.256e-4
-1.470, 4.318e-4
-1.471, 4.349e-4
-1.472, 4.380e-4
-1.473, 4.441e-4
-1.474, 4.503e-4
-1.475, 4.534e-4
-1.476, 4.565e-4
-1.477, 4.626e-4
-1.478, 4.688e-4
-1.479, 4.719e-4
-1.480, 4.780e-4
-1.481, 4.811e-4
-1.482, 4.873e-4
-1.483, 4.904e-4
-1.484, 4.965e-4
-1.485, 4.996e-4
-1.486, 5.058e-4
-1.487, 5.120e-4
-1.488, 5.150e-4
-1.489, 5.212e-4
-1.490, 5.243e-4
-1.491, 5.305e-4
-1.492, 5.366e-4
-1.493, 5.397e-4
-1.494, 5.459e-4
-1.495, 5.520e-4
-1.496, 5.582e-4
-1.497, 5.613e-4
-1.498, 5.674e-4
-1.499, 5.736e-4
-1.500, 5.798e-4
-1.501, 5.829e-4
-1.502, 5.890e-4
-1.503, 5.952e-4
-1.504, 6.014e-4
-1.505, 6.075e-4
-1.506, 6.137e-4
-1.507, 6.199e-4
-1.508, 6.260e-4
-1.509, 6.322e-4
-1.510, 6.384e-4
-1.511, 6.445e-4
-1.512, 6.507e-4
-1.513, 6.569e-4
-1.514, 6.630e-4
-1.515, 6.692e-4
-1.516, 6.784e-4
-1.517, 6.815e-4
-1.518, 6.908e-4
-1.519, 6.969e-4
-1.520, 7.031e-4
-1.521, 7.093e-4
-1.522, 7.154e-4
-1.523, 7.247e-4
-1.524, 7.309e-4
-1.525, 7.370e-4
-1.526, 7.432e-4
-1.527, 7.524e-4
-1.528, 7.586e-4
-1.529, 7.648e-4
-1.530, 7.740e-4
-1.531, 7.802e-4
-1.532, 7.894e-4
-1.533, 7.956e-4
-1.534, 8.048e-4
-1.535, 8.110e-4
-1.536, 8.203e-4
-1.537, 8.264e-4
-1.538, 8.326e-4
-1.539, 8.418e-4
-1.540, 8.480e-4
-1.541, 8.573e-4
-1.542, 8.634e-4
-1.543, 8.727e-4
-1.544, 8.788e-4
-1.545, 8.850e-4
-1.546, 8.943e-4
-1.547, 9.004e-4
-1.548, 9.097e-4
-1.549, 9.158e-4
-1.550, 9.220e-4
-1.551, 9.313e-4
-1.552, 9.405e-4
-1.553, 9.528e-4
-1.554, 9.621e-4
-1.555, 9.683e-4
-1.556, 9.775e-4
-1.557, 9.837e-4
-1.558, 9.929e-4
-1.559, 9.991e-4
-1.560, 1.008e-3
-1.561, 1.018e-3
-1.562, 1.027e-3
-1.563, 1.039e-3
-1.564, 1.048e-3
-1.565, 1.061e-3
-1.566, 1.073e-3
-1.567, 1.082e-3
-1.568, 1.095e-3
-1.569, 1.104e-3
-1.570, 1.113e-3
-1.571, 1.122e-3
-1.572, 1.132e-3
-1.573, 1.141e-3
-1.574, 1.153e-3
-1.575, 1.166e-3
-1.576, 1.181e-3
-1.577, 1.193e-3
-1.578, 1.209e-3
-1.579, 1.227e-3
-1.580, 1.240e-3
-1.581, 1.255e-3
-1.582, 1.273e-3
-1.583, 1.289e-3
-1.584, 1.301e-3
-1.585, 1.317e-3
-1.586, 1.332e-3
-1.587, 1.347e-3
-1.588, 1.363e-3
-1.589, 1.378e-3
-1.590, 1.397e-3
-1.591, 1.412e-3
-1.592, 1.431e-3
-1.593, 1.446e-3
-1.594, 1.465e-3
-1.595, 1.480e-3
-1.596, 1.492e-3
-1.597, 1.508e-3
-1.598, 1.526e-3
-1.599, 1.542e-3
-1.600, 1.557e-3
-1.601, 1.576e-3
-1.602, 1.594e-3
-1.603, 1.613e-3
-1.604, 1.631e-3
-1.605, 1.650e-3
-1.606, 1.668e-3
-1.607, 1.690e-3
-1.608, 1.711e-3
-1.609, 1.730e-3
-1.610, 1.751e-3
-1.611, 1.773e-3
-1.612, 1.795e-3
-1.613, 1.816e-3
-1.614, 1.838e-3
-1.615, 1.859e-3
-1.616, 1.881e-3
-1.617, 1.902e-3
-1.618, 1.924e-3
-1.619, 1.946e-3
-1.620, 1.967e-3
-1.621, 1.989e-3
-1.622, 2.013e-3
-1.623, 2.038e-3
-1.624, 2.066e-3
-1.625, 2.094e-3
-1.626, 2.121e-3
-1.627, 2.149e-3
-1.628, 2.174e-3
-1.629, 2.198e-3
-1.630, 2.226e-3
-1.631, 2.257e-3
-1.632, 2.285e-3
-1.633, 2.309e-3
-1.634, 2.337e-3
-1.635, 2.368e-3
-1.636, 2.402e-3
-1.637, 2.436e-3
-1.638, 2.473e-3
-1.639, 2.516e-3
-1.640, 2.556e-3
-1.641, 2.599e-3
-1.642, 2.639e-3
-1.643, 2.679e-3
-1.644, 2.713e-3
-1.645, 2.753e-3
-1.646, 2.787e-3
-1.647, 2.824e-3
-1.648, 2.867e-3
-1.649, 2.904e-3
-1.650, 2.945e-3
-1.651, 2.991e-3
-1.652, 3.040e-3
-1.653, 3.093e-3
-1.654, 3.142e-3
-1.655, 3.197e-3
-1.656, 3.244e-3
-1.657, 3.296e-3
-1.658, 3.345e-3
-1.659, 3.388e-3
-1.660, 3.435e-3
-1.661, 3.481e-3
-1.662, 3.530e-3
-1.663, 3.580e-3
-1.664, 3.632e-3
-1.665, 3.681e-3
-1.666, 3.737e-3
-1.667, 3.792e-3
-1.668, 3.854e-3
-1.669, 3.919e-3
-1.670, 3.977e-3
-1.671, 4.039e-3
-1.672, 4.095e-3
-1.673, 4.150e-3
-1.674, 4.199e-3
-1.675, 4.246e-3
-1.676, 4.276e-3
-1.677, 4.301e-3
-1.678, 4.335e-3
-1.679, 4.372e-3
-1.680, 4.400e-3
-1.681, 4.431e-3
-1.682, 4.471e-3
-1.683, 4.520e-3
-1.684, 4.585e-3
-1.685, 4.656e-3
-1.686, 4.708e-3
-1.687, 4.754e-3
-1.688, 4.788e-3
-1.689, 4.828e-3
-1.690, 4.868e-3
-1.691, 4.927e-3
-1.692, 4.986e-3
-1.693, 5.044e-3
-1.694, 5.112e-3
-1.695, 5.177e-3
-1.696, 5.235e-3
-1.697, 5.275e-3
-1.698, 5.319e-3
-1.699, 5.374e-3
-1.700, 5.386e-3
-1.699, 5.340e-3
-1.698, 5.297e-3
-1.697, 5.263e-3
-1.696, 5.226e-3
-1.695, 5.201e-3
-1.694, 5.171e-3
-1.693, 5.130e-3
-1.692, 5.090e-3
-1.691, 5.056e-3
-1.690, 5.032e-3
-1.689, 5.013e-3
-1.688, 4.986e-3
-1.687, 4.964e-3
-1.686, 4.918e-3
-1.685, 4.881e-3
-1.684, 4.844e-3
-1.683, 4.813e-3
-1.682, 4.776e-3
-1.681, 4.745e-3
-1.680, 4.708e-3
-1.679, 4.671e-3
-1.678, 4.634e-3
-1.677, 4.591e-3
-1.676, 4.542e-3
-1.675, 4.495e-3
-1.674, 4.443e-3
-1.673, 4.387e-3
-1.672, 4.341e-3
-1.671, 4.292e-3
-1.670, 4.243e-3
-1.669, 4.187e-3
-1.668, 4.138e-3
-1.667, 4.088e-3
-1.666, 4.039e-3
-1.665, 3.996e-3
-1.664, 3.950e-3
-1.663, 3.903e-3
-1.662, 3.857e-3
-1.661, 3.811e-3
-1.660, 3.765e-3
-1.659, 3.718e-3
-1.658, 3.666e-3
-1.657, 3.614e-3
-1.656, 3.561e-3
-1.655, 3.515e-3
-1.654, 3.466e-3
-1.653, 3.413e-3
-1.652, 3.367e-3
-1.651, 3.321e-3
-1.650, 3.278e-3
-1.649, 3.234e-3
-1.648, 3.191e-3
-1.647, 3.151e-3
-1.646, 3.105e-3
-1.645, 3.065e-3
-1.644, 3.022e-3
-1.643, 2.978e-3
-1.642, 2.932e-3
-1.641, 2.886e-3
-1.640, 2.843e-3
-1.639, 2.797e-3
-1.638, 2.756e-3
-1.637, 2.713e-3
-1.636, 2.673e-3
-1.635, 2.633e-3
-1.634, 2.596e-3
-1.633, 2.559e-3
-1.632, 2.519e-3
-1.631, 2.482e-3
-1.630, 2.445e-3
-1.629, 2.411e-3
-1.628, 2.374e-3
-1.627, 2.346e-3
-1.626, 2.312e-3
-1.625, 2.282e-3
-1.624, 2.251e-3
-1.623, 2.220e-3
-1.622, 2.189e-3
-1.621, 2.158e-3
-1.620, 2.128e-3
-1.619, 2.094e-3
-1.618, 2.060e-3
-1.617, 2.029e-3
-1.616, 1.995e-3
-1.615, 1.967e-3
-1.614, 1.936e-3
-1.613, 1.909e-3
-1.612, 1.881e-3
-1.611, 1.850e-3
-1.610, 1.822e-3
-1.609, 1.795e-3
-1.608, 1.764e-3
-1.607, 1.736e-3
-1.606, 1.711e-3
-1.605, 1.680e-3
-1.604, 1.653e-3
-1.603, 1.628e-3
-1.602, 1.600e-3
-1.601, 1.573e-3
-1.600, 1.548e-3
-1.599, 1.523e-3
-1.598, 1.499e-3
-1.597, 1.477e-3
-1.596, 1.452e-3
-1.595, 1.431e-3
-1.594, 1.409e-3
-1.593, 1.384e-3
-1.592, 1.363e-3
-1.591, 1.338e-3
-1.590, 1.314e-3
-1.589, 1.289e-3
-1.588, 1.267e-3
-1.587, 1.243e-3
-1.586, 1.221e-3
-1.585, 1.196e-3
-1.584, 1.178e-3
-1.583, 1.159e-3
-1.582, 1.138e-3
-1.581, 1.122e-3
-1.580, 1.104e-3
-1.579, 1.088e-3
-1.578, 1.073e-3
-1.577, 1.051e-3
-1.576, 1.033e-3
-1.575, 1.014e-3
-1.574, 9.991e-4
-1.573, 9.837e-4
-1.572, 9.713e-4
-1.571, 9.559e-4
-1.570, 9.436e-4
-1.569, 9.282e-4
-1.568, 9.158e-4
-1.567, 9.004e-4
-1.566, 8.881e-4
-1.565, 8.727e-4
-1.564, 8.603e-4
-1.563, 8.480e-4
-1.562, 8.326e-4
-1.561, 8.233e-4
-1.560, 8.110e-4
-1.559, 7.987e-4
-1.558, 7.863e-4
-1.557, 7.771e-4
-1.556, 7.679e-4
-1.555, 7.586e-4
-1.554, 7.494e-4
-1.553, 7.370e-4
-1.552, 7.278e-4
-1.551, 7.154e-4
-1.550, 7.031e-4
-1.549, 6.939e-4
-1.548, 6.846e-4
-1.547, 6.754e-4
-1.546, 6.661e-4
-1.545, 6.569e-4
-1.544, 6.476e-4
-1.543, 6.384e-4
-1.542, 6.291e-4
-1.541, 6.229e-4
-1.540, 6.137e-4
-1.539, 6.044e-4
-1.538, 5.983e-4
-1.537, 5.890e-4
-1.536, 5.767e-4
-1.535, 5.705e-4
-1.534, 5.613e-4
-1.533, 5.551e-4
-1.532, 5.489e-4
-1.531, 5.397e-4
-1.530, 5.335e-4
-1.529, 5.243e-4
-1.528, 5.181e-4
-1.527, 5.120e-4
-1.526, 5.027e-4
-1.525, 4.965e-4
-1.524, 4.904e-4
-1.523, 4.842e-4
-1.522, 4.780e-4
-1.521, 4.688e-4
-1.520, 4.626e-4
-1.519, 4.565e-4
-1.518, 4.503e-4
-1.517, 4.441e-4
-1.516, 4.410e-4
-1.515, 4.349e-4
-1.514, 4.287e-4
-1.513, 4.225e-4
-1.512, 4.164e-4
-1.511, 4.133e-4
-1.510, 4.071e-4
-1.509, 4.010e-4
-1.508, 3.948e-4
-1.507, 3.886e-4
-1.506, 3.855e-4
-1.505, 3.794e-4
-1.504, 3.763e-4
-1.503, 3.701e-4
-1.502, 3.670e-4
-1.501, 3.609e-4
-1.500, 3.578e-4
-1.499, 3.516e-4
-1.498, 3.455e-4
-1.497, 3.424e-4
-1.496, 3.362e-4
-1.495, 3.331e-4
-1.494, 3.270e-4
-1.493, 3.239e-4
-1.492, 3.208e-4
-1.491, 3.177e-4
-1.490, 3.115e-4
-1.489, 3.085e-4
-1.488, 3.054e-4
-1.487, 3.023e-4
-1.486, 2.961e-4
-1.485, 2.931e-4
-1.484, 2.900e-4
-1.483, 2.838e-4
-1.482, 2.838e-4
-1.481, 2.776e-4
-1.480, 2.746e-4
-1.479, 2.715e-4
-1.478, 2.653e-4
-1.477, 2.653e-4
-1.476, 2.591e-4
-1.475, 2.591e-4
-1.474, 2.530e-4
-1.473, 2.499e-4
-1.472, 2.468e-4
-1.471, 2.437e-4
-1.470, 2.406e-4
-1.469, 2.376e-4
-1.468, 2.345e-4
-1.467, 2.314e-4
-1.466, 2.283e-4
-1.465, 2.252e-4
-1.464, 2.221e-4
-1.463, 2.191e-4
-1.462, 2.160e-4
-1.461, 2.129e-4
-1.460, 2.098e-4
-1.459, 2.067e-4
-1.458, 2.036e-4
-1.457, 2.006e-4
-1.456, 1.975e-4
-1.455, 1.944e-4
-1.454, 1.913e-4
-1.453, 1.882e-4
-1.452, 1.851e-4
-1.451, 1.821e-4
-1.450, 1.790e-4
-1.449, 1.759e-4
-1.448, 1.728e-4
-1.447, 1.728e-4
-1.446, 1.697e-4
-1.445, 1.666e-4
-1.444, 1.636e-4
-1.443, 1.636e-4
-1.442, 1.605e-4
-1.441, 1.574e-4
-1.440, 1.543e-4
-1.439, 1.512e-4
-1.438, 1.481e-4
-1.437, 1.481e-4
-1.436, 1.451e-4
-1.435, 1.451e-4
-1.434, 1.420e-4
-1.433, 1.389e-4
-1.432, 1.358e-4
-1.431, 1.358e-4
-1.430, 1.358e-4
-1.429, 1.327e-4
-1.428, 1.296e-4
-1.427, 1.296e-4
-1.426, 1.266e-4
-1.425, 1.235e-4
-1.424, 1.204e-4
-1.423, 1.204e-4
-1.422, 1.173e-4
-1.421, 1.173e-4
-1.420, 1.142e-4
-1.419, 1.111e-4
-1.418, 1.111e-4
-1.417, 1.081e-4
-1.416, 1.081e-4
-1.415, 1.050e-4
-1.414, 1.050e-4
-1.413, 1.019e-4
-1.412, 9.882e-5
-1.411, 9.573e-5
-1.410, 9.573e-5
-1.409, 9.265e-5
-1.408, 9.265e-5
-1.407, 8.957e-5
-1.406, 8.957e-5
-1.405, 8.957e-5
-1.404, 8.648e-5
-1.403, 8.340e-5
-1.402, 8.340e-5
-1.401, 8.032e-5
-1.400, 8.032e-5
-1.399, 7.723e-5
-1.398, 7.723e-5
-1.397, 7.415e-5
-1.396, 7.107e-5
-1.395, 7.107e-5
-1.394, 7.107e-5
-1.393, 6.798e-5
-1.392, 6.798e-5
-1.391, 6.490e-5
-1.390, 6.490e-5
-1.389, 6.182e-5
-1.388, 6.182e-5
-1.387, 5.873e-5
-1.386, 5.873e-5
-1.385, 5.565e-5
-1.384, 5.565e-5
-1.383, 5.565e-5
-1.382, 5.257e-5
-1.381, 5.257e-5
-1.380, 4.949e-5
-1.379, 4.949e-5
-1.378, 4.640e-5
-1.377, 4.640e-5
-1.376, 4.640e-5
-1.375, 4.640e-5
-1.374, 4.332e-5
-1.373, 4.332e-5
-1.372, 4.024e-5
-1.371, 4.024e-5
-1.370, 4.024e-5
-1.369, 3.715e-5
-1.368, 3.715e-5
-1.367, 3.715e-5
-1.366, 3.407e-5
-1.365, 3.407e-5
-1.364, 3.099e-5
-1.363, 3.099e-5
-1.362, 2.790e-5
-1.361, 2.790e-5
-1.360, 2.790e-5
-1.359, 2.790e-5
-1.358, 2.482e-5
-1.357, 2.482e-5
-1.356, 2.482e-5
-1.355, 2.174e-5
-1.354, 2.174e-5
-1.353, 2.174e-5
-1.352, 2.174e-5
-1.351, 1.865e-5
-1.350, 1.865e-5
-1.349, 1.557e-5
-1.348, 1.557e-5
-1.347, 1.557e-5
-1.346, 1.557e-5
-1.345, 1.557e-5
-1.344, 1.249e-5
-1.343, 1.249e-5
-1.342, 1.249e-5
-1.341, 1.249e-5
-1.340, 9.405e-6
-1.339, 9.405e-6
-1.338, 9.405e-6
-1.337, 6.322e-6
-1.336, 6.322e-6
-1.335, 6.322e-6
-1.334, 6.322e-6
-1.333, 6.322e-6
-1.332, 3.239e-6
-1.331, 3.239e-6
-1.330, 3.239e-6
-1.329, 3.239e-6
-1.328, 1.559e-7
-1.327, 1.559e-7
-1.326, 1.559e-7
-1.325, 1.559e-7
-1.324, -2.927e-6
-1.323, -2.927e-6
-1.322, -2.927e-6
-1.321, -2.927e-6
-1.320, -2.927e-6
-1.319, -6.010e-6
-1.318, -2.927e-6
-1.317, -6.010e-6
-1.316, -6.010e-6
-1.315, -6.010e-6
-1.314, -6.010e-6
-1.313, -6.010e-6
-1.312, -9.093e-6
-1.311, -9.093e-6
-1.310, -9.093e-6
-1.309, -9.093e-6
-1.308, -9.093e-6
-1.307, -9.093e-6
-1.306, -9.093e-6
-1.305, -1.218e-5
-1.304, -1.218e-5
-1.303, -1.218e-5
-1.302, -1.218e-5
-1.301, -1.218e-5
-1.300, -1.218e-5
-1.299, -1.526e-5
-1.298, -1.526e-5
-1.297, -1.526e-5
-1.296, -1.526e-5
-1.295, -1.526e-5
-1.294, -1.526e-5
-1.293, -1.526e-5
-1.292, -1.834e-5
-1.291, -1.526e-5
-1.290, -1.834e-5
-1.289, -1.834e-5
-1.288, -1.834e-5
-1.287, -1.834e-5
-1.286, -1.834e-5
-1.285, -1.834e-5
-1.284, -1.834e-5
-1.283, -1.834e-5
-1.282, -1.834e-5
-1.281, -2.143e-5
-1.280, -1.834e-5
-1.279, -2.143e-5
-1.278, -2.143e-5
-1.277, -2.143e-5
-1.276, -2.143e-5
-1.275, -2.143e-5
-1.274, -2.143e-5
-1.273, -2.143e-5
-1.272, -2.143e-5
-1.271, -2.143e-5
-1.270, -2.451e-5
-1.269, -2.143e-5
-1.268, -2.143e-5
-1.267, -2.451e-5
-1.266, -2.451e-5
-1.265, -2.451e-5
-1.264, -2.451e-5
-1.263, -2.451e-5
-1.262, -2.451e-5
-1.261, -2.451e-5
-1.260, -2.451e-5
-1.259, -2.451e-5
-1.258, -2.759e-5
-1.257, -2.451e-5
-1.256, -2.759e-5
-1.255, -2.451e-5
-1.254, -2.759e-5
-1.253, -2.759e-5
-1.252, -2.759e-5
-1.251, -2.759e-5
-1.250, -2.759e-5
-1.249, -2.759e-5
-1.248, -2.759e-5
-1.247, -2.451e-5
-1.246, -2.759e-5
-1.245, -2.759e-5
-1.244, -2.759e-5
-1.243, -2.759e-5
-1.242, -2.759e-5
-1.241, -2.759e-5
-1.240, -2.759e-5
-1.239, -2.759e-5
-1.238, -3.068e-5
-1.237, -2.759e-5
-1.236, -2.759e-5
-1.235, -2.759e-5
-1.234, -3.068e-5
-1.233, -3.068e-5
-1.232, -3.068e-5
-1.231, -3.068e-5
-1.230, -3.068e-5
-1.229, -3.068e-5
-1.228, -3.068e-5
-1.227, -3.068e-5
-1.226, -3.068e-5
-1.225, -3.068e-5
-1.224, -3.068e-5
-1.223, -3.068e-5
-1.222, -3.068e-5
-1.221, -3.068e-5
-1.220, -3.068e-5
-1.219, -3.068e-5
-1.218, -3.376e-5
-1.217, -3.068e-5
-1.216, -3.376e-5
-1.215, -3.068e-5
-1.214, -3.376e-5
-1.213, -3.376e-5
-1.212, -3.376e-5
-1.211, -3.376e-5
-1.210, -3.068e-5
-1.209, -3.376e-5
-1.208, -3.068e-5
-1.207, -3.376e-5
-1.206, -3.376e-5
-1.205, -3.068e-5
-1.204, -3.376e-5
-1.203, -3.376e-5
-1.202, -3.376e-5
-1.201, -3.376e-5
-1.200, -3.376e-5
-1.199, -3.376e-5
-1.198, -3.376e-5
-1.197, -3.376e-5
-1.196, -3.376e-5
-1.195, -3.376e-5
-1.194, -3.376e-5
-1.193, -3.376e-5
-1.192, -3.376e-5
-1.191, -3.376e-5
-1.190, -3.376e-5
-1.189, -3.376e-5
-1.188, -3.376e-5
-1.187, -3.376e-5
-1.186, -3.376e-5
-1.185, -3.376e-5
-1.184, -3.376e-5
-1.183, -3.068e-5
-1.182, -3.068e-5
-1.181, -3.376e-5
-1.180, -3.068e-5
-1.179, -3.376e-5
-1.178, -3.376e-5
-1.177, -3.376e-5
-1.176, -3.068e-5
-1.175, -3.068e-5
-1.174, -3.376e-5
-1.173, -3.376e-5
-1.172, -3.376e-5
-1.171, -3.376e-5
-1.170, -3.376e-5
-1.169, -3.068e-5
-1.168, -3.068e-5
-1.167, -3.376e-5
-1.166, -3.068e-5
-1.165, -3.376e-5
-1.164, -3.068e-5
-1.163, -3.376e-5
-1.162, -3.376e-5
-1.161, -3.376e-5
-1.160, -3.376e-5
-1.159, -3.376e-5
-1.158, -3.376e-5
-1.157, -3.376e-5
-1.156, -3.376e-5
-1.155, -3.068e-5
-1.154, -3.376e-5
-1.153, -3.376e-5
-1.152, -3.376e-5
-1.151, -3.376e-5
-1.150, -3.376e-5
-1.149, -3.376e-5
-1.148, -3.376e-5
-1.147, -3.376e-5
-1.146, -3.376e-5
-1.145, -3.376e-5
-1.144, -3.376e-5
-1.143, -3.376e-5
-1.142, -3.376e-5
-1.141, -3.376e-5
-1.140, -3.376e-5
-1.139, -3.376e-5
-1.138, -3.376e-5
-1.137, -3.376e-5
-1.136, -3.376e-5
-1.135, -3.376e-5
-1.134, -3.376e-5
-1.133, -3.376e-5
-1.132, -3.376e-5
-1.131, -3.376e-5
-1.130, -3.376e-5
-1.129, -3.376e-5
-1.128, -3.376e-5
-1.127, -3.376e-5
-1.126, -3.376e-5
-1.125, -3.376e-5
-1.124, -3.376e-5
-1.123, -3.376e-5
-1.122, -3.376e-5
-1.121, -3.376e-5
-1.120, -3.376e-5
-1.119, -3.376e-5
-1.118, -3.376e-5
-1.117, -3.376e-5
-1.116, -3.376e-5
-1.115, -3.376e-5
-1.114, -3.376e-5
-1.113, -3.376e-5
-1.112, -3.376e-5
-1.111, -3.376e-5
-1.110, -3.376e-5
-1.109, -3.376e-5
-1.108, -3.684e-5
-1.107, -3.376e-5
-1.106, -3.376e-5
-1.105, -3.376e-5
-1.104, -3.376e-5
-1.103, -3.376e-5
-1.102, -3.376e-5
-1.101, -3.376e-5
-1.100, -3.376e-5
-1.099, -3.376e-5
-1.098, -3.376e-5
-1.097, -3.376e-5
-1.096, -3.684e-5
-1.095, -3.376e-5
-1.094, -3.684e-5
-1.093, -3.376e-5
-1.092, -3.684e-5
-1.091, -3.376e-5
-1.090, -3.376e-5
-1.089, -3.376e-5
-1.088, -3.376e-5
-1.087, -3.376e-5
-1.086, -3.684e-5
-1.085, -3.376e-5
-1.084, -3.684e-5
-1.083, -3.684e-5
-1.082, -3.684e-5
-1.081, -3.684e-5
-1.080, -3.376e-5
-1.079, -3.684e-5
-1.078, -3.684e-5
-1.077, -3.684e-5
-1.076, -3.684e-5
-1.075, -3.684e-5
-1.074, -3.684e-5
-1.073, -3.684e-5
-1.072, -3.684e-5
-1.071, -3.684e-5
-1.070, -3.684e-5
-1.069, -3.684e-5
-1.068, -3.684e-5
-1.067, -3.684e-5
-1.066, -3.684e-5
-1.065, -3.684e-5
-1.064, -3.684e-5
-1.063, -3.684e-5
-1.062, -3.684e-5
-1.061, -3.684e-5
-1.060, -3.992e-5
-1.059, -3.684e-5
-1.058, -3.992e-5
-1.057, -3.684e-5
-1.056, -3.992e-5
-1.055, -3.684e-5
-1.054, -3.992e-5
-1.053, -3.992e-5
-1.052, -3.992e-5
-1.051, -3.992e-5
-1.050, -3.992e-5
-1.049, -3.992e-5
-1.048, -3.992e-5
-1.047, -3.992e-5
-1.046, -3.992e-5
-1.045, -3.992e-5
-1.044, -4.301e-5
-1.043, -3.992e-5
-1.042, -3.992e-5
-1.041, -3.992e-5
-1.040, -4.301e-5
-1.039, -3.992e-5
-1.038, -3.992e-5
-1.037, -4.301e-5
-1.036, -4.301e-5
-1.035, -4.301e-5
-1.034, -4.301e-5
-1.033, -4.301e-5
-1.032, -4.301e-5
-1.031, -4.301e-5
-1.030, -4.301e-5
-1.029, -4.301e-5
-1.028, -4.301e-5
-1.027, -4.301e-5
-1.026, -4.301e-5
-1.025, -4.609e-5
-1.024, -4.609e-5
-1.023, -4.609e-5
-1.022, -4.609e-5
-1.021, -4.609e-5
-1.020, -4.609e-5
-1.019, -4.609e-5
-1.018, -4.609e-5
-1.017, -4.917e-5
-1.016, -4.609e-5
-1.015, -4.917e-5
-1.014, -4.917e-5
-1.013, -4.917e-5
-1.012, -4.917e-5
-1.011, -4.917e-5
-1.010, -4.917e-5
-1.009, -4.917e-5
-1.008, -5.226e-5
-1.007, -5.226e-5
-1.006, -5.226e-5
-1.005, -5.226e-5
-1.004, -5.226e-5
-1.003, -5.226e-5
-1.002, -5.534e-5
-1.001, -5.534e-5
