June 28, 2026   15:06:10
Linear Sweep Voltammetry
File: c:/users/guazh/data/20260623_doe_duplica2/2026-06-24-exp33\pre-regen-2026-06-28t15_03_03-lsvinphos\pre-regen_lsv_50mvs_efin_-1900mv.bin
Data Source:  Experiment
Instrument Model:  CHI760E
Header: LSV ran at 50 mVs with Efin at -1900mV
Note: 

Init E (V) = -0.6
Final E (V) = -1.9
Scan Rate (V/s) = 0.05
Sample Interval (V) = 0.001
Quiet Time (sec) = 2
Sensitivity (A/V) = 1e-4
Comp R (ohm) = 10.1

Results:

Channel 1:

Potential/V, Current/A

-0.600, 5.179e-6
-0.601, 5.275e-6
-0.602, 5.332e-6
-0.603, 5.376e-6
-0.604, 5.417e-6
-0.605, 5.459e-6
-0.606, 5.500e-6
-0.607, 5.538e-6
-0.608, 5.575e-6
-0.609, 5.613e-6
-0.610, 5.654e-6
-0.611, 5.689e-6
-0.612, 5.726e-6
-0.613, 5.764e-6
-0.614, 5.805e-6
-0.615, 5.847e-6
-0.616, 5.884e-6
-0.617, 5.917e-6
-0.618, 5.954e-6
-0.619, 5.990e-6
-0.620, 6.029e-6
-0.621, 6.068e-6
-0.622, 6.110e-6
-0.623, 6.161e-6
-0.624, 6.195e-6
-0.625, 6.229e-6
-0.626, 6.263e-6
-0.627, 6.298e-6
-0.628, 6.338e-6
-0.629, 6.377e-6
-0.630, 6.416e-6
-0.631, 6.457e-6
-0.632, 6.503e-6
-0.633, 6.541e-6
-0.634, 6.577e-6
-0.635, 6.613e-6
-0.636, 6.654e-6
-0.637, 6.693e-6
-0.638, 6.728e-6
-0.639, 6.769e-6
-0.640, 6.809e-6
-0.641, 6.848e-6
-0.642, 6.888e-6
-0.643, 6.930e-6
-0.644, 6.973e-6
-0.645, 7.009e-6
-0.646, 7.049e-6
-0.647, 7.084e-6
-0.648, 7.122e-6
-0.649, 7.164e-6
-0.650, 7.205e-6
-0.651, 7.248e-6
-0.652, 7.288e-6
-0.653, 7.329e-6
-0.654, 7.371e-6
-0.655, 7.411e-6
-0.656, 7.449e-6
-0.657, 7.495e-6
-0.658, 7.538e-6
-0.659, 7.583e-6
-0.660, 7.621e-6
-0.661, 7.668e-6
-0.662, 7.709e-6
-0.663, 7.739e-6
-0.664, 7.779e-6
-0.665, 7.822e-6
-0.666, 7.867e-6
-0.667, 7.907e-6
-0.668, 7.946e-6
-0.669, 7.990e-6
-0.670, 8.021e-6
-0.671, 8.059e-6
-0.672, 8.098e-6
-0.673, 8.139e-6
-0.674, 8.178e-6
-0.675, 8.220e-6
-0.676, 8.261e-6
-0.677, 8.305e-6
-0.678, 8.341e-6
-0.679, 8.381e-6
-0.680, 8.421e-6
-0.681, 8.464e-6
-0.682, 8.500e-6
-0.683, 8.537e-6
-0.684, 8.568e-6
-0.685, 8.603e-6
-0.686, 8.642e-6
-0.687, 8.677e-6
-0.688, 8.718e-6
-0.689, 8.763e-6
-0.690, 8.803e-6
-0.691, 8.844e-6
-0.692, 8.879e-6
-0.693, 8.914e-6
-0.694, 8.959e-6
-0.695, 9.004e-6
-0.696, 9.034e-6
-0.697, 9.071e-6
-0.698, 9.111e-6
-0.699, 9.153e-6
-0.700, 9.187e-6
-0.701, 9.229e-6
-0.702, 9.271e-6
-0.703, 9.309e-6
-0.704, 9.349e-6
-0.705, 9.382e-6
-0.706, 9.417e-6
-0.707, 9.453e-6
-0.708, 9.494e-6
-0.709, 9.528e-6
-0.710, 9.570e-6
-0.711, 9.608e-6
-0.712, 9.641e-6
-0.713, 9.679e-6
-0.714, 9.717e-6
-0.715, 9.761e-6
-0.716, 9.802e-6
-0.717, 9.831e-6
-0.718, 9.862e-6
-0.719, 9.898e-6
-0.720, 9.936e-6
-0.721, 9.970e-6
-0.722, 1.000e-5
-0.723, 1.003e-5
-0.724, 1.007e-5
-0.725, 1.010e-5
-0.726, 1.013e-5
-0.727, 1.016e-5
-0.728, 1.018e-5
-0.729, 1.021e-5
-0.730, 1.024e-5
-0.731, 1.027e-5
-0.732, 1.031e-5
-0.733, 1.035e-5
-0.734, 1.038e-5
-0.735, 1.040e-5
-0.736, 1.043e-5
-0.737, 1.047e-5
-0.738, 1.050e-5
-0.739, 1.052e-5
-0.740, 1.054e-5
-0.741, 1.057e-5
-0.742, 1.060e-5
-0.743, 1.063e-5
-0.744, 1.066e-5
-0.745, 1.068e-5
-0.746, 1.071e-5
-0.747, 1.074e-5
-0.748, 1.076e-5
-0.749, 1.078e-5
-0.750, 1.081e-5
-0.751, 1.083e-5
-0.752, 1.084e-5
-0.753, 1.087e-5
-0.754, 1.090e-5
-0.755, 1.091e-5
-0.756, 1.093e-5
-0.757, 1.095e-5
-0.758, 1.097e-5
-0.759, 1.099e-5
-0.760, 1.101e-5
-0.761, 1.102e-5
-0.762, 1.105e-5
-0.763, 1.107e-5
-0.764, 1.109e-5
-0.765, 1.111e-5
-0.766, 1.113e-5
-0.767, 1.114e-5
-0.768, 1.116e-5
-0.769, 1.118e-5
-0.770, 1.120e-5
-0.771, 1.122e-5
-0.772, 1.126e-5
-0.773, 1.128e-5
-0.774, 1.131e-5
-0.775, 1.133e-5
-0.776, 1.135e-5
-0.777, 1.138e-5
-0.778, 1.139e-5
-0.779, 1.139e-5
-0.780, 1.141e-5
-0.781, 1.144e-5
-0.782, 1.145e-5
-0.783, 1.146e-5
-0.784, 1.148e-5
-0.785, 1.150e-5
-0.786, 1.152e-5
-0.787, 1.153e-5
-0.788, 1.155e-5
-0.789, 1.155e-5
-0.790, 1.156e-5
-0.791, 1.157e-5
-0.792, 1.157e-5
-0.793, 1.159e-5
-0.794, 1.160e-5
-0.795, 1.161e-5
-0.796, 1.162e-5
-0.797, 1.163e-5
-0.798, 1.165e-5
-0.799, 1.164e-5
-0.800, 1.163e-5
-0.801, 1.163e-5
-0.802, 1.165e-5
-0.803, 1.166e-5
-0.804, 1.169e-5
-0.805, 1.171e-5
-0.806, 1.170e-5
-0.807, 1.170e-5
-0.808, 1.171e-5
-0.809, 1.173e-5
-0.810, 1.173e-5
-0.811, 1.173e-5
-0.812, 1.174e-5
-0.813, 1.176e-5
-0.814, 1.176e-5
-0.815, 1.177e-5
-0.816, 1.175e-5
-0.817, 1.174e-5
-0.818, 1.174e-5
-0.819, 1.174e-5
-0.820, 1.175e-5
-0.821, 1.175e-5
-0.822, 1.175e-5
-0.823, 1.175e-5
-0.824, 1.175e-5
-0.825, 1.176e-5
-0.826, 1.177e-5
-0.827, 1.177e-5
-0.828, 1.178e-5
-0.829, 1.178e-5
-0.830, 1.178e-5
-0.831, 1.179e-5
-0.832, 1.180e-5
-0.833, 1.179e-5
-0.834, 1.179e-5
-0.835, 1.181e-5
-0.836, 1.181e-5
-0.837, 1.181e-5
-0.838, 1.182e-5
-0.839, 1.182e-5
-0.840, 1.181e-5
-0.841, 1.181e-5
-0.842, 1.180e-5
-0.843, 1.181e-5
-0.844, 1.180e-5
-0.845, 1.180e-5
-0.846, 1.181e-5
-0.847, 1.181e-5
-0.848, 1.181e-5
-0.849, 1.180e-5
-0.850, 1.178e-5
-0.851, 1.178e-5
-0.852, 1.180e-5
-0.853, 1.181e-5
-0.854, 1.180e-5
-0.855, 1.180e-5
-0.856, 1.182e-5
-0.857, 1.182e-5
-0.858, 1.182e-5
-0.859, 1.181e-5
-0.860, 1.182e-5
-0.861, 1.183e-5
-0.862, 1.184e-5
-0.863, 1.183e-5
-0.864, 1.183e-5
-0.865, 1.184e-5
-0.866, 1.184e-5
-0.867, 1.184e-5
-0.868, 1.183e-5
-0.869, 1.182e-5
-0.870, 1.181e-5
-0.871, 1.180e-5
-0.872, 1.179e-5
-0.873, 1.179e-5
-0.874, 1.179e-5
-0.875, 1.180e-5
-0.876, 1.180e-5
-0.877, 1.179e-5
-0.878, 1.179e-5
-0.879, 1.178e-5
-0.880, 1.177e-5
-0.881, 1.178e-5
-0.882, 1.179e-5
-0.883, 1.177e-5
-0.884, 1.176e-5
-0.885, 1.177e-5
-0.886, 1.178e-5
-0.887, 1.178e-5
-0.888, 1.178e-5
-0.889, 1.177e-5
-0.890, 1.175e-5
-0.891, 1.176e-5
-0.892, 1.177e-5
-0.893, 1.178e-5
-0.894, 1.179e-5
-0.895, 1.180e-5
-0.896, 1.182e-5
-0.897, 1.182e-5
-0.898, 1.181e-5
-0.899, 1.181e-5
-0.900, 1.180e-5
-0.901, 1.180e-5
-0.902, 1.182e-5
-0.903, 1.181e-5
-0.904, 1.181e-5
-0.905, 1.181e-5
-0.906, 1.180e-5
-0.907, 1.179e-5
-0.908, 1.179e-5
-0.909, 1.180e-5
-0.910, 1.180e-5
-0.911, 1.180e-5
-0.912, 1.187e-5
-0.913, 1.190e-5
-0.914, 1.186e-5
-0.915, 1.185e-5
-0.916, 1.185e-5
-0.917, 1.187e-5
-0.918, 1.187e-5
-0.919, 1.189e-5
-0.920, 1.191e-5
-0.921, 1.190e-5
-0.922, 1.190e-5
-0.923, 1.191e-5
-0.924, 1.190e-5
-0.925, 1.190e-5
-0.926, 1.188e-5
-0.927, 1.188e-5
-0.928, 1.191e-5
-0.929, 1.192e-5
-0.930, 1.193e-5
-0.931, 1.193e-5
-0.932, 1.191e-5
-0.933, 1.191e-5
-0.934, 1.191e-5
-0.935, 1.192e-5
-0.936, 1.193e-5
-0.937, 1.194e-5
-0.938, 1.195e-5
-0.939, 1.194e-5
-0.940, 1.193e-5
-0.941, 1.192e-5
-0.942, 1.194e-5
-0.943, 1.198e-5
-0.944, 1.197e-5
-0.945, 1.196e-5
-0.946, 1.199e-5
-0.947, 1.199e-5
-0.948, 1.199e-5
-0.949, 1.199e-5
-0.950, 1.201e-5
-0.951, 1.200e-5
-0.952, 1.199e-5
-0.953, 1.198e-5
-0.954, 1.199e-5
-0.955, 1.201e-5
-0.956, 1.201e-5
-0.957, 1.202e-5
-0.958, 1.203e-5
-0.959, 1.202e-5
-0.960, 1.202e-5
-0.961, 1.204e-5
-0.962, 1.204e-5
-0.963, 1.204e-5
-0.964, 1.206e-5
-0.965, 1.207e-5
-0.966, 1.208e-5
-0.967, 1.207e-5
-0.968, 1.206e-5
-0.969, 1.206e-5
-0.970, 1.207e-5
-0.971, 1.209e-5
-0.972, 1.211e-5
-0.973, 1.214e-5
-0.974, 1.216e-5
-0.975, 1.214e-5
-0.976, 1.214e-5
-0.977, 1.213e-5
-0.978, 1.213e-5
-0.979, 1.213e-5
-0.980, 1.215e-5
-0.981, 1.214e-5
-0.982, 1.216e-5
-0.983, 1.219e-5
-0.984, 1.220e-5
-0.985, 1.219e-5
-0.986, 1.220e-5
-0.987, 1.222e-5
-0.988, 1.224e-5
-0.989, 1.226e-5
-0.990, 1.227e-5
-0.991, 1.227e-5
-0.992, 1.232e-5
-0.993, 1.234e-5
-0.994, 1.233e-5
-0.995, 1.235e-5
-0.996, 1.238e-5
-0.997, 1.237e-5
-0.998, 1.240e-5
-0.999, 1.241e-5
-1.000, 1.241e-5
-1.001, 1.242e-5
-1.002, 1.242e-5
-1.003, 1.245e-5
-1.004, 1.247e-5
-1.005, 1.246e-5
-1.006, 1.249e-5
-1.007, 1.250e-5
-1.008, 1.251e-5
-1.009, 1.253e-5
-1.010, 1.255e-5
-1.011, 1.258e-5
-1.012, 1.258e-5
-1.013, 1.257e-5
-1.014, 1.256e-5
-1.015, 1.256e-5
-1.016, 1.257e-5
-1.017, 1.258e-5
-1.018, 1.262e-5
-1.019, 1.265e-5
-1.020, 1.266e-5
-1.021, 1.264e-5
-1.022, 1.264e-5
-1.023, 1.266e-5
-1.024, 1.268e-5
-1.025, 1.270e-5
-1.026, 1.270e-5
-1.027, 1.271e-5
-1.028, 1.272e-5
-1.029, 1.273e-5
-1.030, 1.275e-5
-1.031, 1.277e-5
-1.032, 1.279e-5
-1.033, 1.280e-5
-1.034, 1.282e-5
-1.035, 1.281e-5
-1.036, 1.282e-5
-1.037, 1.283e-5
-1.038, 1.284e-5
-1.039, 1.285e-5
-1.040, 1.285e-5
-1.041, 1.285e-5
-1.042, 1.286e-5
-1.043, 1.287e-5
-1.044, 1.289e-5
-1.045, 1.290e-5
-1.046, 1.291e-5
-1.047, 1.292e-5
-1.048, 1.295e-5
-1.049, 1.296e-5
-1.050, 1.299e-5
-1.051, 1.302e-5
-1.052, 1.302e-5
-1.053, 1.301e-5
-1.054, 1.304e-5
-1.055, 1.304e-5
-1.056, 1.306e-5
-1.057, 1.307e-5
-1.058, 1.306e-5
-1.059, 1.307e-5
-1.060, 1.309e-5
-1.061, 1.311e-5
-1.062, 1.313e-5
-1.063, 1.313e-5
-1.064, 1.314e-5
-1.065, 1.315e-5
-1.066, 1.317e-5
-1.067, 1.317e-5
-1.068, 1.318e-5
-1.069, 1.320e-5
-1.070, 1.320e-5
-1.071, 1.321e-5
-1.072, 1.323e-5
-1.073, 1.325e-5
-1.074, 1.327e-5
-1.075, 1.331e-5
-1.076, 1.330e-5
-1.077, 1.332e-5
-1.078, 1.335e-5
-1.079, 1.336e-5
-1.080, 1.336e-5
-1.081, 1.336e-5
-1.082, 1.340e-5
-1.083, 1.345e-5
-1.084, 1.348e-5
-1.085, 1.349e-5
-1.086, 1.350e-5
-1.087, 1.351e-5
-1.088, 1.354e-5
-1.089, 1.356e-5
-1.090, 1.362e-5
-1.091, 1.363e-5
-1.092, 1.365e-5
-1.093, 1.369e-5
-1.094, 1.371e-5
-1.095, 1.375e-5
-1.096, 1.378e-5
-1.097, 1.378e-5
-1.098, 1.382e-5
-1.099, 1.388e-5
-1.100, 1.391e-5
-1.101, 1.396e-5
-1.102, 1.400e-5
-1.103, 1.400e-5
-1.104, 1.402e-5
-1.105, 1.405e-5
-1.106, 1.408e-5
-1.107, 1.412e-5
-1.108, 1.414e-5
-1.109, 1.418e-5
-1.110, 1.421e-5
-1.111, 1.425e-5
-1.112, 1.427e-5
-1.113, 1.428e-5
-1.114, 1.432e-5
-1.115, 1.439e-5
-1.116, 1.438e-5
-1.117, 1.442e-5
-1.118, 1.445e-5
-1.119, 1.453e-5
-1.120, 1.473e-5
-1.121, 1.487e-5
-1.122, 1.490e-5
-1.123, 1.489e-5
-1.124, 1.488e-5
-1.125, 1.490e-5
-1.126, 1.494e-5
-1.127, 1.498e-5
-1.128, 1.503e-5
-1.129, 1.504e-5
-1.130, 1.510e-5
-1.131, 1.513e-5
-1.132, 1.512e-5
-1.133, 1.511e-5
-1.134, 1.510e-5
-1.135, 1.512e-5
-1.136, 1.514e-5
-1.137, 1.513e-5
-1.138, 1.517e-5
-1.139, 1.518e-5
-1.140, 1.517e-5
-1.141, 1.517e-5
-1.142, 1.521e-5
-1.143, 1.525e-5
-1.144, 1.527e-5
-1.145, 1.529e-5
-1.146, 1.530e-5
-1.147, 1.533e-5
-1.148, 1.538e-5
-1.149, 1.542e-5
-1.150, 1.544e-5
-1.151, 1.548e-5
-1.152, 1.556e-5
-1.153, 1.576e-5
-1.154, 1.575e-5
-1.155, 1.577e-5
-1.156, 1.581e-5
-1.157, 1.578e-5
-1.158, 1.578e-5
-1.159, 1.580e-5
-1.160, 1.582e-5
-1.161, 1.584e-5
-1.162, 1.586e-5
-1.163, 1.591e-5
-1.164, 1.601e-5
-1.165, 1.605e-5
-1.166, 1.622e-5
-1.167, 1.637e-5
-1.168, 1.643e-5
-1.169, 1.651e-5
-1.170, 1.655e-5
-1.171, 1.662e-5
-1.172, 1.666e-5
-1.173, 1.668e-5
-1.174, 1.671e-5
-1.175, 1.671e-5
-1.176, 1.676e-5
-1.177, 1.678e-5
-1.178, 1.678e-5
-1.179, 1.680e-5
-1.180, 1.677e-5
-1.181, 1.680e-5
-1.182, 1.681e-5
-1.183, 1.684e-5
-1.184, 1.690e-5
-1.185, 1.693e-5
-1.186, 1.698e-5
-1.187, 1.701e-5
-1.188, 1.704e-5
-1.189, 1.709e-5
-1.190, 1.718e-5
-1.191, 1.726e-5
-1.192, 1.729e-5
-1.193, 1.735e-5
-1.194, 1.742e-5
-1.195, 1.745e-5
-1.196, 1.750e-5
-1.197, 1.755e-5
-1.198, 1.756e-5
-1.199, 1.760e-5
-1.200, 1.764e-5
-1.201, 1.766e-5
-1.202, 1.770e-5
-1.203, 1.775e-5
-1.204, 1.780e-5
-1.205, 1.784e-5
-1.206, 1.790e-5
-1.207, 1.796e-5
-1.208, 1.801e-5
-1.209, 1.799e-5
-1.210, 1.799e-5
-1.211, 1.801e-5
-1.212, 1.806e-5
-1.213, 1.811e-5
-1.214, 1.820e-5
-1.215, 1.828e-5
-1.216, 1.842e-5
-1.217, 1.850e-5
-1.218, 1.853e-5
-1.219, 1.858e-5
-1.220, 1.864e-5
-1.221, 1.867e-5
-1.222, 1.869e-5
-1.223, 1.874e-5
-1.224, 1.894e-5
-1.225, 1.902e-5
-1.226, 1.901e-5
-1.227, 1.901e-5
-1.228, 1.902e-5
-1.229, 1.904e-5
-1.230, 1.907e-5
-1.231, 1.909e-5
-1.232, 1.909e-5
-1.233, 1.915e-5
-1.234, 1.920e-5
-1.235, 1.921e-5
-1.236, 1.923e-5
-1.237, 1.925e-5
-1.238, 1.929e-5
-1.239, 1.933e-5
-1.240, 1.937e-5
-1.241, 1.940e-5
-1.242, 1.945e-5
-1.243, 1.950e-5
-1.244, 1.954e-5
-1.245, 1.957e-5
-1.246, 1.962e-5
-1.247, 1.969e-5
-1.248, 1.973e-5
-1.249, 1.976e-5
-1.250, 1.979e-5
-1.251, 1.982e-5
-1.252, 1.985e-5
-1.253, 1.994e-5
-1.254, 2.001e-5
-1.255, 2.039e-5
-1.256, 2.037e-5
-1.257, 2.023e-5
-1.258, 2.024e-5
-1.259, 2.024e-5
-1.260, 2.030e-5
-1.261, 2.033e-5
-1.262, 2.037e-5
-1.263, 2.042e-5
-1.264, 2.050e-5
-1.265, 2.060e-5
-1.266, 2.059e-5
-1.267, 2.063e-5
-1.268, 2.072e-5
-1.269, 2.074e-5
-1.270, 2.085e-5
-1.271, 2.092e-5
-1.272, 2.096e-5
-1.273, 2.100e-5
-1.274, 2.104e-5
-1.275, 2.104e-5
-1.276, 2.109e-5
-1.277, 2.114e-5
-1.278, 2.116e-5
-1.279, 2.118e-5
-1.280, 2.121e-5
-1.281, 2.123e-5
-1.282, 2.129e-5
-1.283, 2.130e-5
-1.284, 2.134e-5
-1.285, 2.136e-5
-1.286, 2.140e-5
-1.287, 2.149e-5
-1.288, 2.160e-5
-1.289, 2.166e-5
-1.290, 2.171e-5
-1.291, 2.169e-5
-1.292, 2.172e-5
-1.293, 2.172e-5
-1.294, 2.177e-5
-1.295, 2.181e-5
-1.296, 2.188e-5
-1.297, 2.192e-5
-1.298, 2.195e-5
-1.299, 2.199e-5
-1.300, 2.208e-5
-1.301, 2.218e-5
-1.302, 2.219e-5
-1.303, 2.223e-5
-1.304, 2.229e-5
-1.305, 2.234e-5
-1.306, 2.239e-5
-1.307, 2.245e-5
-1.308, 2.250e-5
-1.309, 2.254e-5
-1.310, 2.260e-5
-1.311, 2.265e-5
-1.312, 2.268e-5
-1.313, 2.269e-5
-1.314, 2.272e-5
-1.315, 2.275e-5
-1.316, 2.287e-5
-1.317, 2.309e-5
-1.318, 2.307e-5
-1.319, 2.309e-5
-1.320, 2.315e-5
-1.321, 2.321e-5
-1.322, 2.323e-5
-1.323, 2.328e-5
-1.324, 2.332e-5
-1.325, 2.333e-5
-1.326, 2.336e-5
-1.327, 2.345e-5
-1.328, 2.348e-5
-1.329, 2.353e-5
-1.330, 2.360e-5
-1.331, 2.365e-5
-1.332, 2.367e-5
-1.333, 2.370e-5
-1.334, 2.370e-5
-1.335, 2.375e-5
-1.336, 2.379e-5
-1.337, 2.382e-5
-1.338, 2.387e-5
-1.339, 2.393e-5
-1.340, 2.399e-5
-1.341, 2.400e-5
-1.342, 2.400e-5
-1.343, 2.407e-5
-1.344, 2.418e-5
-1.345, 2.430e-5
-1.346, 2.434e-5
-1.347, 2.446e-5
-1.348, 2.449e-5
-1.349, 2.451e-5
-1.350, 2.455e-5
-1.351, 2.468e-5
-1.352, 2.474e-5
-1.353, 2.474e-5
-1.354, 2.477e-5
-1.355, 2.481e-5
-1.356, 2.482e-5
-1.357, 2.480e-5
-1.358, 2.482e-5
-1.359, 2.486e-5
-1.360, 2.496e-5
-1.361, 2.503e-5
-1.362, 2.507e-5
-1.363, 2.516e-5
-1.364, 2.526e-5
-1.365, 2.532e-5
-1.366, 2.544e-5
-1.367, 2.540e-5
-1.368, 2.538e-5
-1.369, 2.542e-5
-1.370, 2.543e-5
-1.371, 2.546e-5
-1.372, 2.550e-5
-1.373, 2.557e-5
-1.374, 2.564e-5
-1.375, 2.570e-5
-1.376, 2.578e-5
-1.377, 2.579e-5
-1.378, 2.580e-5
-1.379, 2.589e-5
-1.380, 2.593e-5
-1.381, 2.601e-5
-1.382, 2.602e-5
-1.383, 2.611e-5
-1.384, 2.617e-5
-1.385, 2.604e-5
-1.386, 2.604e-5
-1.387, 2.612e-5
-1.388, 2.617e-5
-1.389, 2.653e-5
-1.390, 2.688e-5
-1.391, 2.683e-5
-1.392, 2.680e-5
-1.393, 2.683e-5
-1.394, 2.685e-5
-1.395, 2.697e-5
-1.396, 2.696e-5
-1.397, 2.697e-5
-1.398, 2.698e-5
-1.399, 2.696e-5
-1.400, 2.693e-5
-1.401, 2.695e-5
-1.402, 2.699e-5
-1.403, 2.703e-5
-1.404, 2.713e-5
-1.405, 2.725e-5
-1.406, 2.725e-5
-1.407, 2.728e-5
-1.408, 2.735e-5
-1.409, 2.735e-5
-1.410, 2.739e-5
-1.411, 2.743e-5
-1.412, 2.749e-5
-1.413, 2.754e-5
-1.414, 2.757e-5
-1.415, 2.763e-5
-1.416, 2.765e-5
-1.417, 2.773e-5
-1.418, 2.775e-5
-1.419, 2.776e-5
-1.420, 2.787e-5
-1.421, 2.791e-5
-1.422, 2.796e-5
-1.423, 2.804e-5
-1.424, 2.808e-5
-1.425, 2.814e-5
-1.426, 2.817e-5
-1.427, 2.822e-5
-1.428, 2.828e-5
-1.429, 2.837e-5
-1.430, 2.843e-5
-1.431, 2.853e-5
-1.432, 2.859e-5
-1.433, 2.867e-5
-1.434, 2.872e-5
-1.435, 2.876e-5
-1.436, 2.882e-5
-1.437, 2.890e-5
-1.438, 2.898e-5
-1.439, 2.894e-5
-1.440, 2.901e-5
-1.441, 2.914e-5
-1.442, 2.919e-5
-1.443, 2.923e-5
-1.444, 2.921e-5
-1.445, 2.928e-5
-1.446, 2.934e-5
-1.447, 2.941e-5
-1.448, 2.953e-5
-1.449, 2.971e-5
-1.450, 3.001e-5
-1.451, 3.011e-5
-1.452, 3.021e-5
-1.453, 3.029e-5
-1.454, 3.039e-5
-1.455, 3.041e-5
-1.456, 3.040e-5
-1.457, 3.047e-5
-1.458, 3.061e-5
-1.459, 3.071e-5
-1.460, 3.078e-5
-1.461, 3.086e-5
-1.462, 3.088e-5
-1.463, 3.093e-5
-1.464, 3.103e-5
-1.465, 3.111e-5
-1.466, 3.119e-5
-1.467, 3.126e-5
-1.468, 3.133e-5
-1.469, 3.137e-5
-1.470, 3.148e-5
-1.471, 3.161e-5
-1.472, 3.175e-5
-1.473, 3.186e-5
-1.474, 3.193e-5
-1.475, 3.201e-5
-1.476, 3.208e-5
-1.477, 3.213e-5
-1.478, 3.222e-5
-1.479, 3.229e-5
-1.480, 3.237e-5
-1.481, 3.245e-5
-1.482, 3.251e-5
-1.483, 3.259e-5
-1.484, 3.274e-5
-1.485, 3.279e-5
-1.486, 3.292e-5
-1.487, 3.304e-5
-1.488, 3.312e-5
-1.489, 3.322e-5
-1.490, 3.336e-5
-1.491, 3.343e-5
-1.492, 3.354e-5
-1.493, 3.366e-5
-1.494, 3.375e-5
-1.495, 3.383e-5
-1.496, 3.391e-5
-1.497, 3.404e-5
-1.498, 3.415e-5
-1.499, 3.426e-5
-1.500, 3.435e-5
-1.501, 3.449e-5
-1.502, 3.456e-5
-1.503, 3.466e-5
-1.504, 3.479e-5
-1.505, 3.494e-5
-1.506, 3.505e-5
-1.507, 3.518e-5
-1.508, 3.533e-5
-1.509, 3.550e-5
-1.510, 3.566e-5
-1.511, 3.578e-5
-1.512, 3.590e-5
-1.513, 3.605e-5
-1.514, 3.625e-5
-1.515, 3.638e-5
-1.516, 3.653e-5
-1.517, 3.665e-5
-1.518, 3.679e-5
-1.519, 3.698e-5
-1.520, 3.714e-5
-1.521, 3.727e-5
-1.522, 3.740e-5
-1.523, 3.754e-5
-1.524, 3.773e-5
-1.525, 3.788e-5
-1.526, 3.808e-5
-1.527, 3.821e-5
-1.528, 3.838e-5
-1.529, 3.856e-5
-1.530, 3.877e-5
-1.531, 3.891e-5
-1.532, 3.904e-5
-1.533, 3.919e-5
-1.534, 3.939e-5
-1.535, 3.952e-5
-1.536, 3.965e-5
-1.537, 3.981e-5
-1.538, 4.004e-5
-1.539, 4.023e-5
-1.540, 4.041e-5
-1.541, 4.061e-5
-1.542, 4.083e-5
-1.543, 4.104e-5
-1.544, 4.120e-5
-1.545, 4.136e-5
-1.546, 4.157e-5
-1.547, 4.182e-5
-1.548, 4.201e-5
-1.549, 4.217e-5
-1.550, 4.241e-5
-1.551, 4.265e-5
-1.552, 4.285e-5
-1.553, 4.306e-5
-1.554, 4.332e-5
-1.555, 4.354e-5
-1.556, 4.375e-5
-1.557, 4.397e-5
-1.558, 4.420e-5
-1.559, 4.444e-5
-1.560, 4.468e-5
-1.561, 4.502e-5
-1.562, 4.532e-5
-1.563, 4.560e-5
-1.564, 4.590e-5
-1.565, 4.609e-5
-1.566, 4.634e-5
-1.567, 4.656e-5
-1.568, 4.682e-5
-1.569, 4.712e-5
-1.570, 4.739e-5
-1.571, 4.772e-5
-1.572, 4.800e-5
-1.573, 4.824e-5
-1.574, 4.850e-5
-1.575, 4.877e-5
-1.576, 4.909e-5
-1.577, 4.945e-5
-1.578, 4.980e-5
-1.579, 5.016e-5
-1.580, 5.052e-5
-1.581, 5.082e-5
-1.582, 5.114e-5
-1.583, 5.126e-5
-1.584, 5.145e-5
-1.585, 5.182e-5
-1.586, 5.218e-5
-1.587, 5.244e-5
-1.588, 5.272e-5
-1.589, 5.301e-5
-1.590, 5.340e-5
-1.591, 5.380e-5
-1.592, 5.410e-5
-1.593, 5.444e-5
-1.594, 5.476e-5
-1.595, 5.517e-5
-1.596, 5.554e-5
-1.597, 5.584e-5
-1.598, 5.620e-5
-1.599, 5.658e-5
-1.600, 5.696e-5
-1.601, 5.731e-5
-1.602, 5.768e-5
-1.603, 5.805e-5
-1.604, 5.838e-5
-1.605, 5.871e-5
-1.606, 5.907e-5
-1.607, 5.942e-5
-1.608, 5.980e-5
-1.609, 6.019e-5
-1.610, 6.061e-5
-1.611, 6.104e-5
-1.612, 6.142e-5
-1.613, 6.183e-5
-1.614, 6.226e-5
-1.615, 6.271e-5
-1.616, 6.315e-5
-1.617, 6.362e-5
-1.618, 6.411e-5
-1.619, 6.455e-5
-1.620, 6.499e-5
-1.621, 6.548e-5
-1.622, 6.589e-5
-1.623, 6.636e-5
-1.624, 6.684e-5
-1.625, 6.734e-5
-1.626, 6.778e-5
-1.627, 6.825e-5
-1.628, 6.873e-5
-1.629, 6.924e-5
-1.630, 6.975e-5
-1.631, 7.021e-5
-1.632, 7.071e-5
-1.633, 7.125e-5
-1.634, 7.177e-5
-1.635, 7.225e-5
-1.636, 7.327e-5
-1.637, 7.439e-5
-1.638, 7.499e-5
-1.639, 7.549e-5
-1.640, 7.597e-5
-1.641, 7.654e-5
-1.642, 7.706e-5
-1.643, 7.754e-5
-1.644, 7.801e-5
-1.645, 7.847e-5
-1.646, 7.888e-5
-1.647, 7.938e-5
-1.648, 7.996e-5
-1.649, 8.051e-5
-1.650, 8.107e-5
-1.651, 8.159e-5
-1.652, 8.224e-5
-1.653, 8.279e-5
-1.654, 8.337e-5
-1.655, 8.402e-5
-1.656, 8.467e-5
-1.657, 8.526e-5
-1.658, 8.593e-5
-1.659, 8.660e-5
-1.660, 8.728e-5
-1.661, 8.790e-5
-1.662, 8.856e-5
-1.663, 8.923e-5
-1.664, 8.993e-5
-1.665, 9.061e-5
-1.666, 9.141e-5
-1.667, 9.207e-5
-1.668, 9.277e-5
-1.669, 9.343e-5
-1.670, 9.412e-5
-1.671, 9.470e-5
-1.672, 9.539e-5
-1.673, 9.613e-5
-1.674, 9.700e-5
-1.675, 9.768e-5
-1.676, 9.835e-5
-1.677, 9.912e-5
-1.678, 9.995e-5
-1.679, 1.007e-4
-1.680, 1.015e-4
-1.681, 1.022e-4
-1.682, 1.030e-4
-1.683, 1.037e-4
-1.684, 1.045e-4
-1.685, 1.053e-4
-1.686, 1.062e-4
-1.687, 1.070e-4
-1.688, 1.079e-4
-1.689, 1.088e-4
-1.690, 1.096e-4
-1.691, 1.104e-4
-1.692, 1.113e-4
-1.693, 1.122e-4
-1.694, 1.131e-4
-1.695, 1.140e-4
-1.696, 1.149e-4
-1.697, 1.158e-4
-1.698, 1.168e-4
-1.699, 1.177e-4
-1.700, 1.185e-4
-1.701, 1.194e-4
-1.702, 1.204e-4
-1.703, 1.212e-4
-1.704, 1.222e-4
-1.705, 1.232e-4
-1.706, 1.242e-4
-1.707, 1.252e-4
-1.708, 1.262e-4
-1.709, 1.272e-4
-1.710, 1.282e-4
-1.711, 1.292e-4
-1.712, 1.302e-4
-1.713, 1.312e-4
-1.714, 1.324e-4
-1.715, 1.335e-4
-1.716, 1.345e-4
-1.717, 1.356e-4
-1.718, 1.368e-4
-1.719, 1.380e-4
-1.720, 1.392e-4
-1.721, 1.402e-4
-1.722, 1.414e-4
-1.723, 1.426e-4
-1.724, 1.438e-4
-1.725, 1.450e-4
-1.726, 1.463e-4
-1.727, 1.476e-4
-1.728, 1.488e-4
-1.729, 1.500e-4
-1.730, 1.515e-4
-1.731, 1.529e-4
-1.732, 1.543e-4
-1.733, 1.557e-4
-1.734, 1.571e-4
-1.735, 1.584e-4
-1.736, 1.598e-4
-1.737, 1.613e-4
-1.738, 1.627e-4
-1.739, 1.642e-4
-1.740, 1.656e-4
-1.741, 1.671e-4
-1.742, 1.687e-4
-1.743, 1.702e-4
-1.744, 1.715e-4
-1.745, 1.730e-4
-1.746, 1.747e-4
-1.747, 1.762e-4
-1.748, 1.779e-4
-1.749, 1.797e-4
-1.750, 1.815e-4
-1.751, 1.832e-4
-1.752, 1.849e-4
-1.753, 1.866e-4
-1.754, 1.884e-4
-1.755, 1.903e-4
-1.756, 1.923e-4
-1.757, 1.942e-4
-1.758, 1.962e-4
-1.759, 1.983e-4
-1.760, 2.002e-4
-1.761, 2.022e-4
-1.762, 2.043e-4
-1.763, 2.064e-4
-1.764, 2.085e-4
-1.765, 2.106e-4
-1.766, 2.127e-4
-1.767, 2.150e-4
-1.768, 2.172e-4
-1.769, 2.195e-4
-1.770, 2.218e-4
-1.771, 2.241e-4
-1.772, 2.266e-4
-1.773, 2.290e-4
-1.774, 2.315e-4
-1.775, 2.339e-4
-1.776, 2.364e-4
-1.777, 2.389e-4
-1.778, 2.415e-4
-1.779, 2.442e-4
-1.780, 2.469e-4
-1.781, 2.497e-4
-1.782, 2.526e-4
-1.783, 2.554e-4
-1.784, 2.582e-4
-1.785, 2.611e-4
-1.786, 2.641e-4
-1.787, 2.671e-4
-1.788, 2.701e-4
-1.789, 2.732e-4
-1.790, 2.763e-4
-1.791, 2.795e-4
-1.792, 2.829e-4
-1.793, 2.862e-4
-1.794, 2.896e-4
-1.795, 2.931e-4
-1.796, 2.965e-4
-1.797, 2.999e-4
-1.798, 3.035e-4
-1.799, 3.071e-4
-1.800, 3.108e-4
-1.801, 3.144e-4
-1.802, 3.182e-4
-1.803, 3.222e-4
-1.804, 3.260e-4
-1.805, 3.300e-4
-1.806, 3.341e-4
-1.807, 3.382e-4
-1.808, 3.422e-4
-1.809, 3.463e-4
-1.810, 3.506e-4
-1.811, 3.548e-4
-1.812, 3.592e-4
-1.813, 3.636e-4
-1.814, 3.681e-4
-1.815, 3.726e-4
-1.816, 3.772e-4
-1.817, 3.818e-4
-1.818, 3.865e-4
-1.819, 3.911e-4
-1.820, 3.958e-4
-1.821, 4.008e-4
-1.822, 4.057e-4
-1.823, 4.107e-4
-1.824, 4.157e-4
-1.825, 4.208e-4
-1.826, 4.260e-4
-1.827, 4.311e-4
-1.828, 4.364e-4
-1.829, 4.418e-4
-1.830, 4.472e-4
-1.831, 4.526e-4
-1.832, 4.581e-4
-1.833, 4.637e-4
-1.834, 4.693e-4
-1.835, 4.750e-4
-1.836, 4.808e-4
-1.837, 4.866e-4
-1.838, 4.925e-4
-1.839, 4.984e-4
-1.840, 5.044e-4
-1.841, 5.106e-4
-1.842, 5.167e-4
-1.843, 5.230e-4
-1.844, 5.292e-4
-1.845, 5.356e-4
-1.846, 5.421e-4
-1.847, 5.485e-4
-1.848, 5.551e-4
-1.849, 5.618e-4
-1.850, 5.684e-4
-1.851, 5.752e-4
-1.852, 5.820e-4
-1.853, 5.889e-4
-1.854, 5.957e-4
-1.855, 6.027e-4
-1.856, 6.097e-4
-1.857, 6.169e-4
-1.858, 6.241e-4
-1.859, 6.313e-4
-1.860, 6.387e-4
-1.861, 6.460e-4
-1.862, 6.534e-4
-1.863, 6.609e-4
-1.864, 6.686e-4
-1.865, 6.762e-4
-1.866, 6.839e-4
-1.867, 6.918e-4
-1.868, 6.997e-4
-1.869, 7.076e-4
-1.870, 7.156e-4
-1.871, 7.236e-4
-1.872, 7.318e-4
-1.873, 7.399e-4
-1.874, 7.482e-4
-1.875, 7.565e-4
-1.876, 7.649e-4
-1.877, 7.733e-4
-1.878, 7.819e-4
-1.879, 7.905e-4
-1.880, 7.992e-4
-1.881, 8.079e-4
-1.882, 8.168e-4
-1.883, 8.258e-4
-1.884, 8.346e-4
-1.885, 8.436e-4
-1.886, 8.527e-4
-1.887, 8.617e-4
-1.888, 8.709e-4
-1.889, 8.802e-4
-1.890, 8.894e-4
-1.891, 8.986e-4
-1.892, 9.080e-4
-1.893, 9.174e-4
-1.894, 9.267e-4
-1.895, 9.361e-4
-1.896, 9.454e-4
-1.897, 9.548e-4
-1.898, 9.642e-4
-1.899, 9.736e-4
