Potential V vs RHE, Current mA cm-2
0.013299999999999867,-0.08943804837746762
0.012299999999999978,-1.0925815368857679
0.011299999999999866,-1.8334658446250875
0.010299999999999976,-2.3569090255751513
0.009299999999999864,-2.794054817233447
0.008299999999999974,-3.1420737970002466
0.007299999999999862,-3.403795387475278
0.006299999999999972,-3.623075638954359
0.00529999999999986,-3.840941179133574
0.0042999999999999705,-3.971094618721158
0.0032999999999998586,-4.0588067193127895
0.0022999999999999687,-4.1889601589003735
0.0012999999999998568,-4.276672259492005
0.00029999999999996696,-4.364384360083638
-0.000700000000000145,-4.450681749375406
-0.0017000000000000348,-4.494537799671222
-0.0027000000000001467,-4.538393849967037
-0.0037000000000000366,-4.582249900262854
-0.0047000000000001485,-4.668547289554621
-0.005700000000000038,-4.668547289554621
-0.00670000000000015,-4.712403339850438
-0.00770000000000004,-4.756259390146253
-0.008700000000000152,-4.800115440442069
-0.009700000000000042,-4.800115440442069
-0.010700000000000154,-4.843971490737885
-0.011700000000000044,-4.887827541033701
-0.012700000000000156,-4.887827541033701
-0.013700000000000045,-4.9302688800296535
-0.014700000000000157,-4.974124930325469
-0.015700000000000047,-4.974124930325469
-0.01670000000000016,-5.017980980621284
-0.01770000000000005,-5.017980980621284
-0.01870000000000016,-5.0618370309171015
-0.01970000000000005,-5.105693081212917
-0.020700000000000163,-5.0618370309171015
-0.021700000000000053,-5.105693081212917
-0.022700000000000164,-5.149549131508733
-0.023700000000000054,-5.149549131508733
-0.024700000000000166,-5.149549131508733
-0.025700000000000056,-5.191990470504685
-0.026700000000000168,-5.191990470504685
-0.027700000000000058,-5.191990470504685
-0.02870000000000017,-5.191990470504685
-0.02970000000000006,-5.235846520800501
-0.03070000000000017,-5.279702571096316
-0.03170000000000006,-5.279702571096316
-0.03270000000000017,-5.323558621392133
-0.03370000000000006,-5.323558621392133
-0.034700000000000175,-5.323558621392133
-0.035700000000000065,-5.323558621392133
-0.03670000000000018,-5.323558621392133
-0.03770000000000007,-5.367414671687949
-0.03870000000000018,-5.367414671687949
-0.03970000000000007,-5.411270721983764
-0.04070000000000018,-5.411270721983764
-0.04170000000000007,-5.411270721983764
-0.04270000000000018,-5.411270721983764
-0.04370000000000007,-5.453712060979717
-0.044700000000000184,-5.497568111275533
-0.045700000000000074,-5.453712060979717
-0.046700000000000186,-5.497568111275533
-0.047700000000000076,-5.497568111275533
-0.04870000000000019,-5.5414241615713475
-0.04970000000000008,-5.5414241615713475
-0.05070000000000019,-5.497568111275533
-0.05170000000000008,-5.5414241615713475
-0.05270000000000019,-5.5414241615713475
-0.05370000000000008,-5.585280211867165
-0.05470000000000019,-5.585280211867165
-0.05570000000000008,-5.585280211867165
-0.056700000000000195,-5.585280211867165
-0.057700000000000085,-5.585280211867165
-0.058700000000000196,-5.585280211867165
-0.059700000000000086,-5.629136262162981
-0.0607000000000002,-5.629136262162981
-0.06170000000000009,-5.629136262162981
-0.0627000000000002,-5.672992312458796
-0.06370000000000009,-5.672992312458796
-0.0647000000000002,-5.672992312458796
-0.06570000000000009,-5.672992312458796
-0.0667000000000002,-5.672992312458796
-0.0677000000000001,-5.672992312458796
-0.0687000000000002,-5.715433651454749
-0.0697000000000001,-5.715433651454749
-0.07070000000000021,-5.715433651454749
-0.0717000000000001,-5.715433651454749
-0.07270000000000021,-5.759289701750564
-0.0737000000000001,-5.715433651454749
-0.07470000000000021,-5.759289701750564
-0.0757000000000001,-5.759289701750564
-0.07670000000000021,-5.759289701750564
-0.0777000000000001,-5.759289701750564
-0.07870000000000021,-5.759289701750564
-0.0797000000000001,-5.759289701750564
-0.08070000000000022,-5.759289701750564
-0.0817000000000001,-5.759289701750564
-0.08270000000000022,-5.759289701750564
-0.08370000000000011,-5.80314575204638
-0.08470000000000022,-5.80314575204638
-0.08570000000000011,-5.759289701750564
-0.08670000000000022,-5.759289701750564
-0.08770000000000011,-5.759289701750564
-0.08870000000000022,-5.80314575204638
-0.08970000000000011,-5.847001802342197
-0.09070000000000022,-5.80314575204638
-0.09170000000000011,-5.80314575204638
-0.09270000000000023,-5.80314575204638
-0.09370000000000012,-5.847001802342197
-0.09470000000000023,-5.847001802342197
-0.09570000000000012,-5.847001802342197
-0.09670000000000023,-5.847001802342197
-0.09770000000000012,-5.847001802342197
-0.09870000000000023,-5.890857852638012
-0.09970000000000012,-5.890857852638012
-0.10070000000000023,-5.847001802342197
-0.10170000000000012,-5.890857852638012
-0.10270000000000024,-5.890857852638012
-0.10370000000000013,-5.890857852638012
-0.10470000000000024,-5.890857852638012
-0.10570000000000013,-5.890857852638012
-0.10670000000000024,-5.890857852638012
-0.10770000000000013,-5.9347139029338285
-0.10870000000000024,-5.9347139029338285
-0.10970000000000013,-5.9347139029338285
-0.11070000000000024,-5.9347139029338285
-0.11170000000000013,-5.9347139029338285
-0.11270000000000002,-5.9347139029338285
-0.11370000000000013,-5.977155241929781
-0.11470000000000002,-5.977155241929781
-0.11570000000000014,-5.977155241929781
-0.11670000000000003,-5.977155241929781
-0.11770000000000014,-5.977155241929781
-0.11870000000000003,-6.021011292225596
-0.11970000000000014,-6.021011292225596
-0.12070000000000003,-6.021011292225596
-0.12170000000000014,-6.021011292225596
-0.12270000000000003,-6.021011292225596
-0.12370000000000014,-6.021011292225596
-0.12470000000000003,-6.021011292225596
-0.12570000000000014,-6.064867342521412
-0.12670000000000003,-6.021011292225596
-0.12770000000000015,-6.064867342521412
-0.12870000000000004,-6.064867342521412
-0.12970000000000015,-6.064867342521412
-0.13070000000000004,-6.064867342521412
-0.13170000000000015,-6.064867342521412
-0.13270000000000004,-6.108723392817228
-0.13370000000000015,-6.108723392817228
-0.13470000000000004,-6.108723392817228
-0.13570000000000015,-6.108723392817228
-0.13670000000000004,-6.108723392817228
-0.13770000000000016,-6.108723392817228
-0.13870000000000005,-6.152579443113044
-0.13970000000000016,-6.196435493408861
-0.14070000000000005,-6.152579443113044
-0.14170000000000016,-6.152579443113044
-0.14270000000000005,-6.196435493408861
-0.14370000000000016,-6.196435493408861
-0.14470000000000005,-6.238876832404812
-0.14570000000000016,-6.196435493408861
-0.14670000000000005,-6.196435493408861
-0.14770000000000016,-6.238876832404812
-0.14870000000000005,-6.238876832404812
-0.14970000000000017,-6.238876832404812
-0.15070000000000006,-6.238876832404812
-0.15170000000000017,-6.238876832404812
-0.15270000000000006,-6.282732882700628
-0.15370000000000017,-6.282732882700628
-0.15470000000000006,-6.326588932996443
-0.15570000000000017,-6.282732882700628
-0.15670000000000006,-6.282732882700628
-0.15770000000000017,-6.282732882700628
-0.15870000000000006,-6.326588932996443
-0.15970000000000018,-6.326588932996443
-0.16070000000000007,-6.326588932996443
-0.16170000000000018,-6.326588932996443
-0.16270000000000007,-6.37044498329226
-0.16370000000000018,-6.414301033588076
-0.16470000000000007,-6.414301033588076
-0.16570000000000018,-6.414301033588076
-0.16670000000000007,-6.414301033588076
-0.16770000000000018,-6.458157083883892
-0.16870000000000007,-6.500598422879844
-0.16970000000000018,-6.500598422879844
-0.17070000000000007,-6.458157083883892
-0.17170000000000019,-6.500598422879844
-0.17270000000000008,-6.500598422879844
-0.1737000000000002,-6.54445447317566
-0.17470000000000008,-6.54445447317566
-0.1757000000000002,-6.500598422879844
-0.17670000000000008,-6.54445447317566
-0.1777000000000002,-6.588310523471475
-0.17870000000000008,-6.588310523471475
-0.1797000000000002,-6.588310523471475
-0.18070000000000008,-6.588310523471475
-0.1817000000000002,-6.632166573767292
-0.18270000000000008,-6.632166573767292
-0.1837000000000002,-6.6760226240631075
-0.1847000000000001,-6.719878674358924
-0.1857000000000002,-6.6760226240631075
-0.1867000000000001,-6.719878674358924
-0.1877000000000002,-6.719878674358924
-0.1887000000000001,-6.762320013354876
-0.1897000000000002,-6.806176063650692
-0.1907000000000001,-6.806176063650692
-0.1917000000000001,-6.806176063650692
-0.19269999999999998,-6.806176063650692
-0.1937000000000001,-6.850032113946507
-0.19469999999999998,-6.893888164242324
-0.1957000000000001,-6.893888164242324
-0.19669999999999999,-6.893888164242324
-0.1977000000000001,-6.93774421453814
-0.1987,-6.981600264833956
-0.1997000000000001,-6.981600264833956
-0.2007,-6.981600264833956
-0.2017000000000001,-7.024041603829907
-0.2027,-7.067897654125724
-0.2037000000000001,-7.111753704421539
-0.2047,-7.111753704421539
-0.2057000000000001,-7.111753704421539
-0.2067,-7.155609754717355
-0.2077000000000001,-7.199465805013171
-0.2087,-7.243321855308987
-0.2097000000000001,-7.243321855308987
-0.2107,-7.243321855308987
-0.2117000000000001,-7.243321855308987
-0.2127,-7.28576319430494
-0.2137000000000001,-7.329619244600755
-0.2147,-7.37347529489657
-0.2157000000000001,-7.4173313451923875
-0.2167,-7.461187395488204
-0.21770000000000012,-7.461187395488204
-0.2187,-7.50504344578402
-0.21970000000000012,-7.5474847847799715
-0.2207,-7.5474847847799715
-0.22170000000000012,-7.591340835075788
-0.2227,-7.635196885371603
-0.22370000000000012,-7.679052935667419
-0.2247,-7.722908985963235
-0.22570000000000012,-7.722908985963235
-0.2267,-7.7653503249591855
-0.22770000000000012,-7.809206375255003
-0.22870000000000001,-7.896918475846635
-0.22970000000000013,-7.896918475846635
-0.23070000000000002,-7.940774526142452
-0.23170000000000013,-7.940774526142452
-0.23270000000000002,-8.027071915434218
-0.23370000000000013,-8.11478401602585
-0.23470000000000002,-8.11478401602585
-0.23570000000000013,-8.158640066321666
-0.23670000000000002,-8.202496116617484
-0.2376999999999999,-8.246352166913299
-0.23870000000000002,-8.332649556205066
-0.2396999999999999,-8.376505606500881
-0.24070000000000003,-8.4203616567967
-0.24169999999999991,-8.464217707092514
-0.24270000000000003,-8.508073757388331
-0.24369999999999992,-8.594371146680096
-0.24470000000000003,-8.638227196975913
-0.24569999999999992,-8.68208324727173
-0.24670000000000003,-8.725939297567548
-0.24769999999999992,-8.812236686859313
-0.24870000000000003,-8.899948787450944
-0.24969999999999992,-8.987660888042578
-0.25070000000000003,-9.031516938338395
-0.2516999999999999,-9.073958277334345
-0.25270000000000004,-9.11781432763016
-0.2536999999999999,-9.24938247851761
-0.25470000000000004,-9.335679867809377
-0.2556999999999999,-9.335679867809377
-0.25670000000000004,-9.423391968401008
-0.25769999999999993,-9.511104068992642
-0.25870000000000004,-9.59740145828441
-0.25969999999999993,-9.685113558876042
-0.26070000000000004,-9.728969609171857
-0.26169999999999993,-9.81668170976349
-0.26270000000000004,-9.902979099055257
-0.26369999999999993,-9.99069119964689
-0.26470000000000005,-10.120844639234473
-0.26569999999999994,-10.164700689530287
-0.26670000000000005,-10.25241279012192
-0.26769999999999994,-10.340124890713554
-0.26870000000000005,-10.470278330301136
-0.26969999999999994,-10.557990430892769
-0.27070000000000005,-10.644287820184536
-0.27169999999999994,-10.731999920776168
-0.27270000000000005,-10.819712021367803
-0.27369999999999994,-10.949865460955383
-0.27470000000000006,-11.081433611842833
-0.27569999999999995,-11.1677310011346
-0.27670000000000006,-11.255443101726232
-0.27769999999999995,-11.385596541313816
-0.27870000000000006,-11.517164692201263
-0.27969999999999995,-11.647318131788847
-0.28070000000000006,-11.73503023238048
-0.28169999999999995,-11.86659838326793
-0.28270000000000006,-11.996751822855511
-0.28369999999999995,-12.12831997374296
-0.28470000000000006,-12.258473413330542
-0.28569999999999995,-12.346185513922174
-0.28670000000000007,-12.476338953509758
-0.28769999999999996,-12.651763154693022
-0.28870000000000007,-12.781916594280606
-0.28969999999999996,-12.913484745168056
-0.29070000000000007,-13.043638184755638
-0.29169999999999996,-13.175206335643086
-0.29270000000000007,-13.349215825526485
-0.29369999999999996,-13.523225315409885
-0.2947000000000001,-13.654793466297335
-0.29569999999999996,-13.828802956180734
-0.2967000000000001,-13.960371107068182
-0.29769999999999996,-14.13438059695158
-0.2987000000000001,-14.345172580631472
-0.29969999999999997,-14.486643710617974
-0.3007000000000001,-14.61396772760583
-0.30169999999999997,-14.826174422585586
-0.3027000000000001,-15.01008689156804
-0.30369999999999997,-15.179852247551842
-0.3047000000000001,-15.3920589425316
-0.30569999999999997,-15.575971411514052
-0.3067000000000001,-15.74573676749786
-0.3077,-15.972090575476265
-0.3087000000000001,-16.141855931460068
-0.3097,-16.354062626439823
-0.3107000000000001,-16.580416434418233
-0.3117,-16.792623129397985
-0.3127000000000001,-16.962388485381787
-0.3137,-17.231183632356142
-0.3147000000000001,-17.4433903273359
-0.3157,-17.669744135314307
-0.3167000000000001,-17.839509491298113
-0.3177,-18.10830463827247
-0.3187000000000001,-18.362952672248177
-0.3197,-18.631747819222536
-0.3207000000000001,-18.843954514202288
-0.3217,-19.01371987018609
-0.3227000000000001,-19.3249563561564
-0.3237,-19.579604390132108
-0.3247000000000001,-19.848399537106463
-0.3257,-20.10304757108217
-0.3267000000000001,-20.371842718056527
-0.3277,-20.626490752032236
-0.3287000000000001,-20.93772723800254
-0.3297,-21.2065223849769
-0.3307000000000001,-21.461170418952605
-0.3317,-21.772406904922917
-0.3327000000000001,-22.069496277894572
-0.3337,-22.42317410286083
-0.3347000000000001,-22.72026347583249
-0.3357,-22.989058622806844
-0.3367000000000001,-23.300295108777156
-0.3377,-23.639825820744765
-0.3387000000000001,-24.035944984706973
-0.3397,-24.389622809673234
-0.3407000000000001,-24.64427084364894
-0.3417,-24.9130659906233
-0.3427000000000001,-25.295038041586857
-0.3437,-25.648715866553115
-0.3447000000000001,-26.002393691519377
-0.3457,-26.29948306449103
-0.3467000000000001,-26.69560222845324
-0.3477,-27.091721392415455
-0.3487000000000001,-27.43125210438306
-0.3497,-27.742488590353368
-0.3507000000000001,-28.13860775431558
-0.3517,-28.478138466283188
-0.3527000000000001,-28.831816291249446
-0.3537,-29.22793545521166
-0.3547000000000001,-29.66649595816982
-0.3557,-30.04846800913338
-0.35670000000000013,-30.444587173095588
-0.3577,-30.88314767605375
-0.35870000000000013,-31.321708179011907
-0.3597,-31.802710020966025
-0.36070000000000013,-32.24127052392419
-0.3617,-32.62324257488775
-0.3626999999999999,-33.06180307784591
-0.3637,-33.54280491980002
-0.3646999999999999,-33.98136542275818
-0.3657,-34.41992592571634
-0.3666999999999999,-34.85848642867451
-0.3677,-35.32534115762997
-0.3686999999999999,-35.763901660588125
-0.36970000000000003,-36.28734484153819
-0.3706999999999999,-36.725905344496354
-0.37170000000000003,-37.206907186450465
-0.3726999999999999,-37.687909028404576
-0.37370000000000003,-38.12646953136274
-0.3746999999999999,-38.692354051308754
-0.37570000000000003,-39.21579723225882
-0.3766999999999999,-39.696799074212926
-0.37770000000000004,-40.177800916167044
-0.3786999999999999,-40.743685436113054
-0.37970000000000004,-41.352011295055014
-0.3806999999999999,-41.83301313700913
-0.38170000000000004,-42.3564563179592
-0.38269999999999993,-42.837458159913304
-0.38370000000000004,-43.36090134086337
-0.38469999999999993,-43.88434452181344
-0.38570000000000004,-44.36534636376755
-0.38669999999999993,-44.054109877797245
-0.38570000000000004,-42.71013414292546
-0.38469999999999993,-41.70568912002128
-0.38370000000000004,-40.87100945310091
-0.38269999999999993,-40.135359577171094
-0.38170000000000004,-39.51288660523048
-0.3806999999999999,-38.94700208528445
-0.37970000000000004,-38.46600024333035
-0.3786999999999999,-37.94255706238028
-0.37770000000000004,-37.41911388143023
-0.3766999999999999,-36.89567070048016
-0.37570000000000003,-36.4288159715247
-0.3746999999999999,-35.90537279057463
-0.37370000000000003,-35.32534115762997
-0.3726999999999999,-34.8018979766799
-0.37170000000000003,-34.33504324772444
-0.3706999999999999,-33.89648274476628
-0.36970000000000003,-33.373039563816214
-0.3686999999999999,-32.84959638286615
-0.3677,-32.368594540912035
-0.3666999999999999,-31.84515135996197
-0.3657,-31.40659085700382
-0.3646999999999999,-30.968030354045652
-0.3637,-30.487028512091538
-0.3626999999999999,-30.00602667013743
-0.3617,-29.525024828183312
-0.36070000000000013,-29.100611438223805
-0.3597,-28.619609596269694
-0.35870000000000013,-28.18104909331153
-0.3577,-27.742488590353368
-0.35670000000000013,-27.261486748399253
-0.3557,-26.86536758443705
-0.3547000000000001,-26.38436574248293
-0.3537,-25.959952352523427
-0.3527000000000001,-25.563833188561212
-0.3517,-25.12527268560305
-0.3507000000000001,-24.686712182644893
-0.3497,-24.290593018682678
-0.3487000000000001,-23.908620967719123
-0.3477,-23.47006046476096
-0.3467000000000001,-23.031499961802798
-0.3457,-22.550498119848687
-0.3447000000000001,-22.196820294882425
-0.3437,-21.857289582914817
-0.3427000000000001,-21.418729079956652
-0.3417,-20.980168576998494
-0.3407000000000001,-20.626490752032236
-0.3397,-20.286960040064624
-0.3387000000000001,-19.890840876102416
-0.3377,-19.49472171214021
-0.3367000000000001,-19.112749661176647
-0.3357,-18.80151317520634
-0.3347000000000001,-18.40539401124413
-0.3337,-18.06586329927652
-0.3327000000000001,-17.71218547431026
-0.3317,-17.358507649344002
-0.3307000000000001,-17.061418276372343
-0.3297,-16.750181790402035
-0.3287000000000001,-16.396503965435777
-0.3277,-16.056973253468165
-0.3267000000000001,-15.70329542850191
-0.3257,-15.3920589425316
-0.3247000000000001,-15.094969569559943
-0.3237,-14.741291744593681
-0.3227000000000001,-14.444202371622024
-0.3217,-14.090524546655764
-0.3207000000000001,-13.828802956180734
-0.3197,-13.523225315409885
-0.3187000000000001,-13.217647674639037
-0.3177,-12.913484745168056
-0.3167000000000001,-12.607907104397206
-0.3157,-12.346185513922174
-0.3147000000000001,-12.084463923447142
-0.3137,-11.778886282676295
-0.3127000000000001,-11.473308641905447
-0.3117,-11.1677310011346
-0.3107000000000001,-10.906009410659568
-0.3097,-10.688143870480351
-0.3087000000000001,-10.42642228000532
-0.3077,-10.164700689530287
-0.3067000000000001,-9.85912304875944
-0.30569999999999997,-9.641257508580225
-0.3047000000000001,-9.379535918105192
-0.30369999999999997,-9.11781432763016
-0.3027000000000001,-8.899948787450944
-0.30169999999999997,-8.638227196975913
-0.3007000000000001,-8.464217707092514
-0.29969999999999997,-8.202496116617484
-0.2987000000000001,-7.984630576438266
-0.29769999999999996,-7.722908985963235
-0.2967000000000001,-7.50504344578402
-0.29569999999999996,-7.461187395488204
-0.2947000000000001,-7.199465805013171
-0.29369999999999996,-6.981600264833956
-0.29270000000000007,-6.6760226240631075
-0.29169999999999996,-6.458157083883892
-0.29070000000000007,-6.282732882700628
-0.28969999999999996,-6.064867342521412
-0.28870000000000007,-5.890857852638012
-0.28769999999999996,-5.672992312458796
-0.28670000000000007,-5.497568111275533
-0.28569999999999995,-5.323558621392133
-0.28470000000000006,-5.105693081212917
-0.28369999999999995,-4.9302688800296535
-0.28270000000000006,-4.756259390146253
-0.28169999999999995,-4.538393849967037
-0.28070000000000006,-4.364384360083638
-0.27969999999999995,-4.23281620919619
-0.27870000000000006,-4.0588067193127895
-0.27769999999999995,-3.884797229429391
-0.27670000000000006,-3.6655169779503103
-0.27569999999999995,-3.5353635383627267
-0.27470000000000006,-3.403795387475278
-0.27369999999999994,-3.2297858975918787
-0.27270000000000005,-3.055776407708479
-0.27169999999999994,-2.924208256821031
-0.27070000000000005,-2.794054817233447
-0.26969999999999994,-2.618630616050183
-0.26870000000000005,-2.4884771764625997
-0.26769999999999994,-2.3144676865791998
-0.26670000000000005,-2.1828995356917518
-0.26569999999999994,-2.052746096104168
-0.26470000000000005,-1.92117794521672
