Mar. 5, 2025   11:41:22
Cyclic Voltammetry
File: c:/users/guazh/data/banditlqround7_x0exp169_r20_3/2025-03-03-exp877\exp877-2025-03-05t11_29_51-arkoh\exp877_cv_sr_600mvs_efin_-1500mv.bin
Data Source:  Experiment
Instrument Model:  CHI760E
Header: CV ran at 600 mVs
Note: 

Init E (V) = -1
High E (V) = -1
Low E (V) = -1.5
Final E (V) = -1
Init P/N = N
Scan Rate (V/s) = 0.6
Segment = 3
Sample Interval (V) = 0.001
Quiet Time (sec) = 2
Sensitivity (A/V) = 0.01
Comp R (ohm) = 1.3

Results:

Channel 1:
Segment 1:

Segment 2:

Segment 3:

Potential/V, Current/A

-1.000, -1.643e-3
-1.001, -1.569e-3
-1.002, -1.504e-3
-1.003, -1.446e-3
-1.004, -1.387e-3
-1.005, -1.332e-3
-1.006, -1.279e-3
-1.007, -1.227e-3
-1.008, -1.178e-3
-1.009, -1.128e-3
-1.010, -1.076e-3
-1.011, -1.030e-3
-1.012, -9.772e-4
-1.013, -9.309e-4
-1.014, -8.847e-4
-1.015, -8.415e-4
-1.016, -7.984e-4
-1.017, -7.583e-4
-1.018, -7.182e-4
-1.019, -6.781e-4
-1.020, -6.380e-4
-1.021, -5.980e-4
-1.022, -5.579e-4
-1.023, -5.209e-4
-1.024, -4.808e-4
-1.025, -4.438e-4
-1.026, -4.068e-4
-1.027, -3.698e-4
-1.028, -3.328e-4
-1.029, -2.958e-4
-1.030, -2.588e-4
-1.031, -2.218e-4
-1.032, -1.879e-4
-1.033, -1.509e-4
-1.034, -1.201e-4
-1.035, -8.617e-5
-1.036, -5.226e-5
-1.037, -1.834e-5
-1.038, 1.557e-5
-1.039, 4.640e-5
-1.040, 8.340e-5
-1.041, 1.142e-4
-1.042, 1.481e-4
-1.043, 1.790e-4
-1.044, 2.098e-4
-1.045, 2.406e-4
-1.046, 2.715e-4
-1.047, 3.023e-4
-1.048, 3.331e-4
-1.049, 3.670e-4
-1.050, 3.979e-4
-1.051, 4.287e-4
-1.052, 4.595e-4
-1.053, 4.873e-4
-1.054, 5.181e-4
-1.055, 5.459e-4
-1.056, 5.736e-4
-1.057, 6.044e-4
-1.058, 6.322e-4
-1.059, 6.630e-4
-1.060, 6.939e-4
-1.061, 7.216e-4
-1.062, 7.463e-4
-1.063, 7.740e-4
-1.064, 7.987e-4
-1.065, 8.295e-4
-1.066, 8.542e-4
-1.067, 8.850e-4
-1.068, 9.158e-4
-1.069, 9.467e-4
-1.070, 9.775e-4
-1.071, 1.008e-3
-1.072, 1.036e-3
-1.073, 1.067e-3
-1.074, 1.092e-3
-1.075, 1.119e-3
-1.076, 1.144e-3
-1.077, 1.169e-3
-1.078, 1.196e-3
-1.079, 1.221e-3
-1.080, 1.249e-3
-1.081, 1.277e-3
-1.082, 1.301e-3
-1.083, 1.326e-3
-1.084, 1.354e-3
-1.085, 1.378e-3
-1.086, 1.406e-3
-1.087, 1.434e-3
-1.088, 1.458e-3
-1.089, 1.486e-3
-1.090, 1.514e-3
-1.091, 1.536e-3
-1.092, 1.557e-3
-1.093, 1.582e-3
-1.094, 1.606e-3
-1.095, 1.634e-3
-1.096, 1.662e-3
-1.097, 1.690e-3
-1.098, 1.717e-3
-1.099, 1.745e-3
-1.100, 1.770e-3
-1.101, 1.798e-3
-1.102, 1.825e-3
-1.103, 1.847e-3
-1.104, 1.875e-3
-1.105, 1.899e-3
-1.106, 1.921e-3
-1.107, 1.946e-3
-1.108, 1.970e-3
-1.109, 2.001e-3
-1.110, 2.032e-3
-1.111, 2.063e-3
-1.112, 2.091e-3
-1.113, 2.118e-3
-1.114, 2.140e-3
-1.115, 2.161e-3
-1.116, 2.183e-3
-1.117, 2.201e-3
-1.118, 2.223e-3
-1.119, 2.251e-3
-1.120, 2.279e-3
-1.121, 2.309e-3
-1.122, 2.337e-3
-1.123, 2.365e-3
-1.124, 2.393e-3
-1.125, 2.417e-3
-1.126, 2.442e-3
-1.127, 2.467e-3
-1.128, 2.488e-3
-1.129, 2.516e-3
-1.130, 2.541e-3
-1.131, 2.562e-3
-1.132, 2.590e-3
-1.133, 2.615e-3
-1.134, 2.645e-3
-1.135, 2.670e-3
-1.136, 2.698e-3
-1.137, 2.726e-3
-1.138, 2.753e-3
-1.139, 2.781e-3
-1.140, 2.809e-3
-1.141, 2.840e-3
-1.142, 2.871e-3
-1.143, 2.898e-3
-1.144, 2.926e-3
-1.145, 2.954e-3
-1.146, 2.972e-3
-1.147, 2.994e-3
-1.148, 3.012e-3
-1.149, 3.031e-3
-1.150, 3.056e-3
-1.151, 3.086e-3
-1.152, 3.120e-3
-1.153, 3.157e-3
-1.154, 3.188e-3
-1.155, 3.219e-3
-1.156, 3.247e-3
-1.157, 3.278e-3
-1.158, 3.305e-3
-1.159, 3.333e-3
-1.160, 3.361e-3
-1.161, 3.388e-3
-1.162, 3.416e-3
-1.163, 3.441e-3
-1.164, 3.466e-3
-1.165, 3.493e-3
-1.166, 3.524e-3
-1.167, 3.555e-3
-1.168, 3.586e-3
-1.169, 3.617e-3
-1.170, 3.644e-3
-1.171, 3.678e-3
-1.172, 3.712e-3
-1.173, 3.743e-3
-1.174, 3.774e-3
-1.175, 3.799e-3
-1.176, 3.820e-3
-1.177, 3.839e-3
-1.178, 3.854e-3
-1.179, 3.873e-3
-1.180, 3.900e-3
-1.181, 3.934e-3
-1.182, 3.971e-3
-1.183, 4.008e-3
-1.184, 4.045e-3
-1.185, 4.076e-3
-1.186, 4.110e-3
-1.187, 4.141e-3
-1.188, 4.172e-3
-1.189, 4.202e-3
-1.190, 4.233e-3
-1.191, 4.261e-3
-1.192, 4.289e-3
-1.193, 4.317e-3
-1.194, 4.344e-3
-1.195, 4.372e-3
-1.196, 4.406e-3
-1.197, 4.440e-3
-1.198, 4.471e-3
-1.199, 4.505e-3
-1.200, 4.538e-3
-1.201, 4.572e-3
-1.202, 4.606e-3
-1.203, 4.643e-3
-1.204, 4.674e-3
-1.205, 4.702e-3
-1.206, 4.727e-3
-1.207, 4.742e-3
-1.208, 4.757e-3
-1.209, 4.779e-3
-1.210, 4.816e-3
-1.211, 4.856e-3
-1.212, 4.902e-3
-1.213, 4.942e-3
-1.214, 4.979e-3
-1.215, 5.010e-3
-1.216, 5.041e-3
-1.217, 5.075e-3
-1.218, 5.106e-3
-1.219, 5.140e-3
-1.220, 5.174e-3
-1.221, 5.208e-3
-1.222, 5.241e-3
-1.223, 5.272e-3
-1.224, 5.309e-3
-1.225, 5.346e-3
-1.226, 5.383e-3
-1.227, 5.420e-3
-1.228, 5.457e-3
-1.229, 5.497e-3
-1.230, 5.534e-3
-1.231, 5.574e-3
-1.232, 5.614e-3
-1.233, 5.651e-3
-1.234, 5.682e-3
-1.235, 5.707e-3
-1.236, 5.725e-3
-1.237, 5.741e-3
-1.238, 5.769e-3
-1.239, 5.803e-3
-1.240, 5.852e-3
-1.241, 5.901e-3
-1.242, 5.947e-3
-1.243, 5.997e-3
-1.244, 6.046e-3
-1.245, 6.092e-3
-1.246, 6.136e-3
-1.247, 6.176e-3
-1.248, 6.210e-3
-1.249, 6.243e-3
-1.250, 6.280e-3
-1.251, 6.324e-3
-1.252, 6.367e-3
-1.253, 6.407e-3
-1.254, 6.447e-3
-1.255, 6.478e-3
-1.256, 6.493e-3
-1.257, 6.509e-3
-1.258, 6.527e-3
-1.259, 6.555e-3
-1.260, 6.598e-3
-1.261, 6.654e-3
-1.262, 6.712e-3
-1.263, 6.768e-3
-1.264, 6.820e-3
-1.265, 6.875e-3
-1.266, 6.925e-3
-1.267, 6.971e-3
-1.268, 7.017e-3
-1.269, 7.057e-3
-1.270, 7.091e-3
-1.271, 7.125e-3
-1.272, 7.153e-3
-1.273, 7.187e-3
-1.274, 7.227e-3
-1.275, 7.270e-3
-1.276, 7.313e-3
-1.277, 7.360e-3
-1.278, 7.403e-3
-1.279, 7.449e-3
-1.280, 7.498e-3
-1.281, 7.551e-3
-1.282, 7.603e-3
-1.283, 7.656e-3
-1.284, 7.699e-3
-1.285, 7.726e-3
-1.286, 7.748e-3
-1.287, 7.767e-3
-1.288, 7.797e-3
-1.289, 7.841e-3
-1.290, 7.896e-3
-1.291, 7.961e-3
-1.292, 8.019e-3
-1.293, 8.078e-3
-1.294, 8.133e-3
-1.295, 8.183e-3
-1.296, 8.232e-3
-1.297, 8.278e-3
-1.298, 8.321e-3
-1.299, 8.368e-3
-1.300, 8.411e-3
-1.301, 8.454e-3
-1.302, 8.503e-3
-1.303, 8.559e-3
-1.304, 8.624e-3
-1.305, 8.685e-3
-1.306, 8.735e-3
-1.307, 8.769e-3
-1.308, 8.796e-3
-1.309, 8.818e-3
-1.310, 8.846e-3
-1.311, 8.889e-3
-1.312, 8.944e-3
-1.313, 9.012e-3
-1.314, 9.074e-3
-1.315, 9.138e-3
-1.316, 9.203e-3
-1.317, 9.271e-3
-1.318, 9.339e-3
-1.319, 9.401e-3
-1.320, 9.453e-3
-1.321, 9.490e-3
-1.322, 9.527e-3
-1.323, 9.564e-3
-1.324, 9.604e-3
-1.325, 9.644e-3
-1.326, 9.703e-3
-1.327, 9.771e-3
-1.328, 9.841e-3
-1.329, 9.900e-3
-1.330, 9.943e-3
-1.331, 9.974e-3
-1.332, 1.000e-2
-1.333, 1.002e-2
-1.334, 1.005e-2
-1.335, 1.010e-2
-1.336, 1.017e-2
-1.337, 1.025e-2
-1.338, 1.033e-2
-1.339, 1.041e-2
-1.340, 1.050e-2
-1.341, 1.058e-2
-1.342, 1.065e-2
-1.343, 1.071e-2
-1.344, 1.076e-2
-1.345, 1.081e-2
-1.346, 1.084e-2
-1.347, 1.088e-2
-1.348, 1.093e-2
-1.349, 1.099e-2
-1.350, 1.105e-2
-1.351, 1.113e-2
-1.352, 1.119e-2
-1.353, 1.126e-2
-1.354, 1.131e-2
-1.355, 1.136e-2
-1.356, 1.142e-2
-1.357, 1.148e-2
-1.358, 1.155e-2
-1.359, 1.163e-2
-1.360, 1.171e-2
-1.361, 1.179e-2
-1.362, 1.184e-2
-1.363, 1.188e-2
-1.364, 1.190e-2
-1.365, 1.192e-2
-1.366, 1.196e-2
-1.367, 1.202e-2
-1.368, 1.210e-2
-1.369, 1.218e-2
-1.370, 1.226e-2
-1.371, 1.233e-2
-1.372, 1.240e-2
-1.373, 1.248e-2
-1.374, 1.255e-2
-1.375, 1.263e-2
-1.376, 1.270e-2
-1.377, 1.275e-2
-1.378, 1.279e-2
-1.379, 1.283e-2
-1.380, 1.288e-2
-1.381, 1.294e-2
-1.382, 1.302e-2
-1.383, 1.310e-2
-1.384, 1.318e-2
-1.385, 1.325e-2
-1.386, 1.331e-2
-1.387, 1.338e-2
-1.388, 1.345e-2
-1.389, 1.354e-2
-1.390, 1.362e-2
-1.391, 1.367e-2
-1.392, 1.370e-2
-1.393, 1.373e-2
-1.394, 1.375e-2
-1.395, 1.379e-2
-1.396, 1.385e-2
-1.397, 1.393e-2
-1.398, 1.402e-2
-1.399, 1.411e-2
-1.400, 1.420e-2
-1.401, 1.428e-2
-1.402, 1.436e-2
-1.403, 1.443e-2
-1.404, 1.450e-2
-1.405, 1.456e-2
-1.406, 1.463e-2
-1.407, 1.469e-2
-1.408, 1.476e-2
-1.409, 1.483e-2
-1.410, 1.492e-2
-1.411, 1.500e-2
-1.412, 1.507e-2
-1.413, 1.511e-2
-1.414, 1.513e-2
-1.415, 1.515e-2
-1.416, 1.518e-2
-1.417, 1.524e-2
-1.418, 1.533e-2
-1.419, 1.543e-2
-1.420, 1.553e-2
-1.421, 1.563e-2
-1.422, 1.575e-2
-1.423, 1.585e-2
-1.424, 1.595e-2
-1.425, 1.603e-2
-1.426, 1.609e-2
-1.427, 1.614e-2
-1.428, 1.619e-2
-1.429, 1.624e-2
-1.430, 1.629e-2
-1.431, 1.636e-2
-1.432, 1.643e-2
-1.433, 1.651e-2
-1.434, 1.657e-2
-1.435, 1.664e-2
-1.436, 1.671e-2
-1.437, 1.679e-2
-1.438, 1.688e-2
-1.439, 1.698e-2
-1.440, 1.706e-2
-1.441, 1.711e-2
-1.442, 1.714e-2
-1.443, 1.716e-2
-1.444, 1.718e-2
-1.445, 1.723e-2
-1.446, 1.729e-2
-1.447, 1.738e-2
-1.448, 1.748e-2
-1.449, 1.757e-2
-1.450, 1.765e-2
-1.451, 1.774e-2
-1.452, 1.782e-2
-1.453, 1.791e-2
-1.454, 1.800e-2
-1.455, 1.807e-2
-1.456, 1.813e-2
-1.457, 1.817e-2
-1.458, 1.821e-2
-1.459, 1.826e-2
-1.460, 1.833e-2
-1.461, 1.841e-2
-1.462, 1.850e-2
-1.463, 1.859e-2
-1.464, 1.868e-2
-1.465, 1.877e-2
-1.466, 1.885e-2
-1.467, 1.892e-2
-1.468, 1.899e-2
-1.469, 1.904e-2
-1.470, 1.907e-2
-1.471, 1.908e-2
-1.472, 1.911e-2
-1.473, 1.916e-2
-1.474, 1.922e-2
-1.475, 1.930e-2
-1.476, 1.939e-2
-1.477, 1.948e-2
-1.478, 1.957e-2
-1.479, 1.968e-2
-1.480, 1.977e-2
-1.481, 1.984e-2
-1.482, 1.989e-2
-1.483, 1.994e-2
-1.484, 1.998e-2
-1.485, 2.002e-2
-1.486, 2.008e-2
-1.487, 2.014e-2
-1.488, 2.021e-2
-1.489, 2.028e-2
-1.490, 2.037e-2
-1.491, 2.046e-2
-1.492, 2.055e-2
-1.493, 2.063e-2
-1.494, 2.069e-2
-1.495, 2.071e-2
-1.496, 2.071e-2
-1.497, 2.070e-2
-1.498, 2.071e-2
-1.499, 2.075e-2
-1.500, 2.075e-2
-1.499, 2.067e-2
-1.498, 2.059e-2
-1.497, 2.049e-2
-1.496, 2.039e-2
-1.495, 2.029e-2
-1.494, 2.019e-2
-1.493, 2.007e-2
-1.492, 1.994e-2
-1.491, 1.981e-2
-1.490, 1.967e-2
-1.489, 1.953e-2
-1.488, 1.940e-2
-1.487, 1.928e-2
-1.486, 1.916e-2
-1.485, 1.906e-2
-1.484, 1.896e-2
-1.483, 1.885e-2
-1.482, 1.874e-2
-1.481, 1.862e-2
-1.480, 1.851e-2
-1.479, 1.840e-2
-1.478, 1.830e-2
-1.477, 1.822e-2
-1.476, 1.813e-2
-1.475, 1.802e-2
-1.474, 1.788e-2
-1.473, 1.772e-2
-1.472, 1.754e-2
-1.471, 1.736e-2
-1.470, 1.721e-2
-1.469, 1.708e-2
-1.468, 1.699e-2
-1.467, 1.692e-2
-1.466, 1.685e-2
-1.465, 1.677e-2
-1.464, 1.669e-2
-1.463, 1.660e-2
-1.462, 1.651e-2
-1.461, 1.641e-2
-1.460, 1.629e-2
-1.459, 1.616e-2
-1.458, 1.603e-2
-1.457, 1.590e-2
-1.456, 1.577e-2
-1.455, 1.565e-2
-1.454, 1.555e-2
-1.453, 1.545e-2
-1.452, 1.534e-2
-1.451, 1.523e-2
-1.450, 1.513e-2
-1.449, 1.503e-2
-1.448, 1.493e-2
-1.447, 1.483e-2
-1.446, 1.472e-2
-1.445, 1.457e-2
-1.444, 1.442e-2
-1.443, 1.427e-2
-1.442, 1.412e-2
-1.441, 1.400e-2
-1.440, 1.389e-2
-1.439, 1.380e-2
-1.438, 1.371e-2
-1.437, 1.362e-2
-1.436, 1.352e-2
-1.435, 1.342e-2
-1.434, 1.333e-2
-1.433, 1.323e-2
-1.432, 1.312e-2
-1.431, 1.300e-2
-1.430, 1.289e-2
-1.429, 1.277e-2
-1.428, 1.265e-2
-1.427, 1.253e-2
-1.426, 1.243e-2
-1.425, 1.233e-2
-1.424, 1.223e-2
-1.423, 1.214e-2
-1.422, 1.203e-2
-1.421, 1.192e-2
-1.420, 1.182e-2
-1.419, 1.172e-2
-1.418, 1.164e-2
-1.417, 1.155e-2
-1.416, 1.145e-2
-1.415, 1.133e-2
-1.414, 1.119e-2
-1.413, 1.104e-2
-1.412, 1.091e-2
-1.411, 1.079e-2
-1.410, 1.069e-2
-1.409, 1.061e-2
-1.408, 1.053e-2
-1.407, 1.045e-2
-1.406, 1.037e-2
-1.405, 1.029e-2
-1.404, 1.021e-2
-1.403, 1.012e-2
-1.402, 1.002e-2
-1.401, 9.922e-3
-1.400, 9.817e-3
-1.399, 9.709e-3
-1.398, 9.604e-3
-1.397, 9.508e-3
-1.396, 9.425e-3
-1.395, 9.348e-3
-1.394, 9.265e-3
-1.393, 9.166e-3
-1.392, 9.049e-3
-1.391, 8.920e-3
-1.390, 8.799e-3
-1.389, 8.688e-3
-1.388, 8.590e-3
-1.387, 8.510e-3
-1.386, 8.429e-3
-1.385, 8.349e-3
-1.384, 8.275e-3
-1.383, 8.195e-3
-1.382, 8.121e-3
-1.381, 8.047e-3
-1.380, 7.961e-3
-1.379, 7.865e-3
-1.378, 7.760e-3
-1.377, 7.656e-3
-1.376, 7.557e-3
-1.375, 7.464e-3
-1.374, 7.378e-3
-1.373, 7.301e-3
-1.372, 7.221e-3
-1.371, 7.128e-3
-1.370, 7.023e-3
-1.369, 6.909e-3
-1.368, 6.805e-3
-1.367, 6.709e-3
-1.366, 6.626e-3
-1.365, 6.555e-3
-1.364, 6.484e-3
-1.363, 6.416e-3
-1.362, 6.348e-3
-1.361, 6.280e-3
-1.360, 6.216e-3
-1.359, 6.148e-3
-1.358, 6.080e-3
-1.357, 6.000e-3
-1.356, 5.914e-3
-1.355, 5.824e-3
-1.354, 5.732e-3
-1.353, 5.642e-3
-1.352, 5.562e-3
-1.351, 5.485e-3
-1.350, 5.411e-3
-1.349, 5.334e-3
-1.348, 5.257e-3
-1.347, 5.177e-3
-1.346, 5.106e-3
-1.345, 5.032e-3
-1.344, 4.961e-3
-1.343, 4.890e-3
-1.342, 4.816e-3
-1.341, 4.730e-3
-1.340, 4.646e-3
-1.339, 4.566e-3
-1.338, 4.492e-3
-1.337, 4.424e-3
-1.336, 4.363e-3
-1.335, 4.301e-3
-1.334, 4.233e-3
-1.333, 4.169e-3
-1.332, 4.101e-3
-1.331, 4.033e-3
-1.330, 3.971e-3
-1.329, 3.906e-3
-1.328, 3.842e-3
-1.327, 3.774e-3
-1.326, 3.700e-3
-1.325, 3.626e-3
-1.324, 3.555e-3
-1.323, 3.490e-3
-1.322, 3.429e-3
-1.321, 3.367e-3
-1.320, 3.308e-3
-1.319, 3.247e-3
-1.318, 3.182e-3
-1.317, 3.120e-3
-1.316, 3.059e-3
-1.315, 3.003e-3
-1.314, 2.945e-3
-1.313, 2.886e-3
-1.312, 2.824e-3
-1.311, 2.756e-3
-1.310, 2.686e-3
-1.309, 2.621e-3
-1.308, 2.556e-3
-1.307, 2.494e-3
-1.306, 2.439e-3
-1.305, 2.383e-3
-1.304, 2.328e-3
-1.303, 2.269e-3
-1.302, 2.214e-3
-1.301, 2.158e-3
-1.300, 2.106e-3
-1.299, 2.054e-3
-1.298, 2.001e-3
-1.297, 1.946e-3
-1.296, 1.890e-3
-1.295, 1.832e-3
-1.294, 1.773e-3
-1.293, 1.717e-3
-1.292, 1.665e-3
-1.291, 1.616e-3
-1.290, 1.566e-3
-1.289, 1.517e-3
-1.288, 1.468e-3
-1.287, 1.415e-3
-1.286, 1.366e-3
-1.285, 1.314e-3
-1.284, 1.261e-3
-1.283, 1.212e-3
-1.282, 1.159e-3
-1.281, 1.107e-3
-1.280, 1.058e-3
-1.279, 1.008e-3
-1.278, 9.590e-4
-1.277, 9.128e-4
-1.276, 8.634e-4
-1.275, 8.172e-4
-1.274, 7.709e-4
-1.273, 7.247e-4
-1.272, 6.784e-4
-1.271, 6.353e-4
-1.270, 5.890e-4
-1.269, 5.459e-4
-1.268, 5.027e-4
-1.267, 4.565e-4
-1.266, 4.133e-4
-1.265, 3.670e-4
-1.264, 3.208e-4
-1.263, 2.746e-4
-1.262, 2.314e-4
-1.261, 1.882e-4
-1.260, 1.451e-4
-1.259, 1.050e-4
-1.258, 6.182e-5
-1.257, 1.865e-5
-1.256, -2.451e-5
-1.255, -6.767e-5
-1.254, -1.108e-4
-1.253, -1.509e-4
-1.252, -1.941e-4
-1.251, -2.342e-4
-1.250, -2.712e-4
-1.249, -3.143e-4
-1.248, -3.513e-4
-1.247, -3.883e-4
-1.246, -4.284e-4
-1.245, -4.685e-4
-1.244, -5.086e-4
-1.243, -5.486e-4
-1.242, -5.887e-4
-1.241, -6.257e-4
-1.240, -6.627e-4
-1.239, -6.997e-4
-1.238, -7.367e-4
-1.237, -7.737e-4
-1.236, -8.169e-4
-1.235, -8.569e-4
-1.234, -8.939e-4
-1.233, -9.309e-4
-1.232, -9.649e-4
-1.231, -9.988e-4
-1.230, -1.033e-3
-1.229, -1.067e-3
-1.228, -1.104e-3
-1.227, -1.141e-3
-1.226, -1.178e-3
-1.225, -1.218e-3
-1.224, -1.255e-3
-1.223, -1.292e-3
-1.222, -1.326e-3
-1.221, -1.363e-3
-1.220, -1.393e-3
-1.219, -1.427e-3
-1.218, -1.461e-3
-1.217, -1.495e-3
-1.216, -1.529e-3
-1.215, -1.566e-3
-1.214, -1.603e-3
-1.213, -1.637e-3
-1.212, -1.671e-3
-1.211, -1.699e-3
-1.210, -1.726e-3
-1.209, -1.754e-3
-1.208, -1.785e-3
-1.207, -1.819e-3
-1.206, -1.859e-3
-1.205, -1.899e-3
-1.204, -1.939e-3
-1.203, -1.976e-3
-1.202, -2.013e-3
-1.201, -2.050e-3
-1.200, -2.084e-3
-1.199, -2.118e-3
-1.198, -2.149e-3
-1.197, -2.177e-3
-1.196, -2.207e-3
-1.195, -2.238e-3
-1.194, -2.269e-3
-1.193, -2.306e-3
-1.192, -2.337e-3
-1.191, -2.371e-3
-1.190, -2.402e-3
-1.189, -2.432e-3
-1.188, -2.463e-3
-1.187, -2.497e-3
-1.186, -2.534e-3
-1.185, -2.571e-3
-1.184, -2.614e-3
-1.183, -2.654e-3
-1.182, -2.691e-3
-1.181, -2.722e-3
-1.180, -2.744e-3
-1.179, -2.768e-3
-1.178, -2.793e-3
-1.177, -2.824e-3
-1.176, -2.858e-3
-1.175, -2.898e-3
-1.174, -2.938e-3
-1.173, -2.975e-3
-1.172, -3.009e-3
-1.171, -3.043e-3
-1.170, -3.077e-3
-1.169, -3.114e-3
-1.168, -3.151e-3
-1.167, -3.185e-3
-1.166, -3.219e-3
-1.165, -3.249e-3
-1.164, -3.283e-3
-1.163, -3.317e-3
-1.162, -3.351e-3
-1.161, -3.391e-3
-1.160, -3.431e-3
-1.159, -3.471e-3
-1.158, -3.505e-3
-1.157, -3.536e-3
-1.156, -3.570e-3
-1.155, -3.610e-3
-1.154, -3.653e-3
-1.153, -3.696e-3
-1.152, -3.740e-3
-1.151, -3.774e-3
-1.150, -3.795e-3
-1.149, -3.814e-3
-1.148, -3.835e-3
-1.147, -3.866e-3
-1.146, -3.903e-3
-1.145, -3.943e-3
-1.144, -3.986e-3
-1.143, -4.029e-3
-1.142, -4.070e-3
-1.141, -4.103e-3
-1.140, -4.137e-3
-1.139, -4.174e-3
-1.138, -4.214e-3
-1.137, -4.251e-3
-1.136, -4.285e-3
-1.135, -4.319e-3
-1.134, -4.350e-3
-1.133, -4.384e-3
-1.132, -4.418e-3
-1.131, -4.461e-3
-1.130, -4.501e-3
-1.129, -4.541e-3
-1.128, -4.581e-3
-1.127, -4.618e-3
-1.126, -4.652e-3
-1.125, -4.695e-3
-1.124, -4.739e-3
-1.123, -4.772e-3
-1.122, -4.806e-3
-1.121, -4.834e-3
-1.120, -4.862e-3
-1.119, -4.887e-3
-1.118, -4.914e-3
-1.117, -4.951e-3
-1.116, -4.998e-3
-1.115, -5.047e-3
-1.114, -5.099e-3
-1.113, -5.149e-3
-1.112, -5.195e-3
-1.111, -5.241e-3
-1.110, -5.281e-3
-1.109, -5.312e-3
-1.108, -5.346e-3
-1.107, -5.377e-3
-1.106, -5.414e-3
-1.105, -5.454e-3
-1.104, -5.497e-3
-1.103, -5.537e-3
-1.102, -5.574e-3
-1.101, -5.605e-3
-1.100, -5.630e-3
-1.099, -5.657e-3
-1.098, -5.688e-3
-1.097, -5.728e-3
-1.096, -5.775e-3
-1.095, -5.827e-3
-1.094, -5.886e-3
-1.093, -5.941e-3
-1.092, -5.996e-3
-1.091, -6.052e-3
-1.090, -6.104e-3
-1.089, -6.154e-3
-1.088, -6.194e-3
-1.087, -6.228e-3
-1.086, -6.259e-3
-1.085, -6.289e-3
-1.084, -6.326e-3
-1.083, -6.366e-3
-1.082, -6.416e-3
-1.081, -6.459e-3
-1.080, -6.499e-3
-1.079, -6.530e-3
-1.078, -6.548e-3
-1.077, -6.570e-3
-1.076, -6.604e-3
-1.075, -6.650e-3
-1.074, -6.703e-3
-1.073, -6.761e-3
-1.072, -6.820e-3
-1.071, -6.881e-3
-1.070, -6.946e-3
-1.069, -7.011e-3
-1.068, -7.069e-3
-1.067, -7.122e-3
-1.066, -7.165e-3
-1.065, -7.199e-3
-1.064, -7.230e-3
-1.063, -7.261e-3
-1.062, -7.294e-3
-1.061, -7.331e-3
-1.060, -7.375e-3
-1.059, -7.418e-3
-1.058, -7.464e-3
-1.057, -7.510e-3
-1.056, -7.553e-3
-1.055, -7.606e-3
-1.054, -7.655e-3
-1.053, -7.692e-3
-1.052, -7.720e-3
-1.051, -7.745e-3
-1.050, -7.769e-3
-1.049, -7.806e-3
-1.048, -7.862e-3
-1.047, -7.936e-3
-1.046, -8.007e-3
-1.045, -8.068e-3
-1.044, -8.121e-3
-1.043, -8.164e-3
-1.042, -8.204e-3
-1.041, -8.241e-3
-1.040, -8.272e-3
-1.039, -8.306e-3
-1.038, -8.337e-3
-1.037, -8.370e-3
-1.036, -8.414e-3
-1.035, -8.457e-3
-1.034, -8.503e-3
-1.033, -8.552e-3
-1.032, -8.602e-3
-1.031, -8.654e-3
-1.030, -8.707e-3
-1.029, -8.756e-3
-1.028, -8.805e-3
-1.027, -8.858e-3
-1.026, -8.913e-3
-1.025, -8.962e-3
-1.024, -9.003e-3
-1.023, -9.033e-3
-1.022, -9.058e-3
-1.021, -9.080e-3
-1.020, -9.107e-3
-1.019, -9.144e-3
-1.018, -9.194e-3
-1.017, -9.255e-3
-1.016, -9.320e-3
-1.015, -9.382e-3
-1.014, -9.440e-3
-1.013, -9.502e-3
-1.012, -9.554e-3
-1.011, -9.598e-3
-1.010, -9.631e-3
-1.009, -9.659e-3
-1.008, -9.690e-3
-1.007, -9.727e-3
-1.006, -9.767e-3
-1.005, -9.813e-3
-1.004, -9.863e-3
-1.003, -9.909e-3
-1.002, -9.955e-3
-1.001, -9.998e-3
