Potential V vs RHE, Current mA cm-2
0.013299999999999867,23.342736447773106
0.012299999999999978,22.437321215859484
0.011299999999999866,21.729965565926964
0.010299999999999976,21.008462802995794
0.009299999999999864,20.230371588070028
0.008299999999999974,19.565457277133458
0.007299999999999862,19.126896774175293
0.006299999999999972,18.57515936722793
0.00529999999999986,18.02342196028057
0.0042999999999999705,17.556567231325104
0.0032999999999998586,16.99068271137909
0.0022999999999999687,16.396503965435777
0.0012999999999998568,15.88720789748436
0.00029999999999996696,15.505235846520803
-0.000700000000000145,15.06667534356264
-0.0017000000000000348,14.642261953603128
-0.0027000000000001467,14.189554337646317
-0.0037000000000000366,13.697234805293286
-0.0047000000000001485,13.27140670403391
-0.005700000000000038,12.879531673971293
-0.00670000000000015,12.419750501515157
-0.00770000000000004,11.910454433563745
-0.008700000000000152,11.551117763398024
-0.009700000000000042,11.194610515832036
-0.010700000000000154,10.740488188575359
-0.011700000000000044,10.348613158512745
-0.012700000000000156,9.972299952748642
-0.013700000000000045,9.562033675787783
-0.014700000000000157,9.189964603923277
-0.015700000000000047,8.868825138853914
-0.01670000000000016,8.48543837659049
-0.01770000000000005,8.049707296232057
-0.01870000000000016,7.708761872964584
-0.01970000000000005,7.400354809594007
-0.020700000000000163,7.019797469930312
-0.021700000000000053,6.678852046662837
-0.022700000000000164,6.3407360459950945
-0.023700000000000054,5.958763995031535
-0.024700000000000166,5.6192332830639256
-0.025700000000000056,5.323558621392133
-0.026700000000000168,4.979783775524929
-0.027700000000000058,4.596397013261504
-0.02870000000000017,4.290819372490656
-0.02970000000000006,3.986656443019674
-0.03070000000000017,3.630149195453684
-0.03170000000000006,3.323156843382971
-0.03270000000000017,3.0147497800123935
-0.03370000000000006,2.6653160889457292
-0.034700000000000175,2.351250180375691
-0.035700000000000065,2.072552054302279
-0.03670000000000018,1.7443390327335901
-0.03770000000000007,1.4001397734764267
-0.03870000000000018,1.1255443101726232
-0.03970000000000007,0.8242108033013704
-0.04070000000000018,0.4872265716735187
-0.04170000000000007,0.19961576441095666
-0.04270000000000018,-0.08358114359602638
-0.04370000000000007,-0.4265354569093086
-0.044700000000000184,-0.7280104349105478
-0.045700000000000074,-0.9852049492260115
-0.046700000000000186,-1.2961584929363463
-0.047700000000000076,-1.5986237688474914
-0.04870000000000019,-1.8716630497214433
-0.04970000000000008,-2.174411267892561
-0.05070000000000019,-2.485647753862869
-0.05170000000000008,-2.7714194364356066
-0.05270000000000019,-3.0373851608102336
-0.05370000000000008,-3.3500363580804073
-0.05470000000000019,-3.6372227519530096
-0.05570000000000008,-3.8763089616302007
-0.056700000000000195,-4.159251221603208
-0.057700000000000085,-4.46058472847446
-0.058700000000000196,-4.737868143248008
-0.059700000000000086,-5.03071338232007
-0.0607000000000002,-5.346194002189974
-0.06170000000000009,-5.624892128263387
-0.0627000000000002,-5.865393049240442
-0.06370000000000009,-6.121455794516013
-0.0647000000000002,-6.398739209289561
-0.06570000000000009,-6.678852046662837
-0.0667000000000002,-6.998576800432337
-0.0677000000000001,-7.295666173403994
-0.0687000000000002,-7.52484940398213
-0.0697000000000001,-7.802132818755678
-0.07070000000000021,-8.107710459526524
-0.0717000000000001,-8.343967246603986
-0.07270000000000021,-8.568906343282526
-0.0737000000000001,-8.83628677895702
-0.07470000000000021,-9.148937976227192
-0.0757000000000001,-9.410659566702224
-0.07670000000000021,-9.692187115375367
-0.0777000000000001,-9.97654408664824
-0.07870000000000021,-10.211386162425834
-0.0797000000000001,-10.483010731999922
-0.08070000000000022,-10.80273548576942
-0.0817000000000001,-11.043236406746477
-0.08270000000000022,-11.248369545226906
-0.08370000000000011,-11.503017579202615
-0.08470000000000022,-11.845377713769953
-0.08570000000000011,-12.121246417243634
-0.08670000000000022,-12.409847522416102
-0.08770000000000011,-12.681472091990189
-0.08870000000000022,-12.919143590367515
-0.08970000000000011,-13.200671139040656
-0.09070000000000022,-13.480783976413935
-0.09170000000000011,-13.6845024035945
-0.09270000000000023,-13.895294387274388
-0.09370000000000012,-14.24614278964092
-0.09470000000000023,-14.514937936615278
-0.09570000000000012,-14.71299751859638
-0.09670000000000023,-15.01008689156804
-0.09770000000000012,-15.293029151541045
-0.09870000000000023,-15.547677185516752
-0.09970000000000012,-15.844766558488407
-0.10070000000000023,-16.141855931460068
-0.10170000000000012,-16.311621287443874
-0.10270000000000024,-16.50968086942498
-0.10370000000000013,-16.90580003338719
-0.10470000000000024,-17.20288940635885
-0.10570000000000013,-17.4433903273359
-0.10670000000000024,-17.71218547431026
-0.10770000000000013,-17.980980621284615
-0.10870000000000024,-18.23562865526032
-0.10970000000000013,-18.518570915233333
-0.11070000000000024,-18.815660288204988
-0.11170000000000013,-18.985425644188794
-0.11270000000000002,-19.141043887173947
-0.11370000000000013,-19.579604390132108
-0.11470000000000002,-19.862546650105116
-0.11570000000000014,-20.07475334508487
-0.11670000000000003,-20.38598983105518
-0.11770000000000014,-20.668932091028186
-0.11870000000000003,-20.923580125003895
-0.11970000000000014,-21.22066949797555
-0.12070000000000003,-21.51775887094721
-0.12170000000000014,-21.645082887935057
-0.12270000000000003,-21.871436695913467
-0.12370000000000014,-22.324144311870278
-0.12470000000000003,-22.66367502383789
-0.12570000000000014,-22.904175944814945
-0.12670000000000003,-23.2012653177866
-0.12770000000000015,-23.48420757775961
-0.12870000000000004,-23.738855611735314
-0.12970000000000015,-23.96520941971372
-0.13070000000000004,-24.149121888696175
-0.13170000000000015,-24.460358374666487
-0.13270000000000004,-24.842330425630045
-0.13370000000000015,-25.111125572604404
-0.13470000000000004,-25.37992071957876
-0.13570000000000015,-25.634568753554465
-0.13670000000000004,-25.931658126526123
-0.13770000000000016,-26.32777729048833
-0.13870000000000005,-26.58242532446404
-0.13970000000000016,-26.723896454450543
-0.14070000000000005,-26.97854448842625
-0.14170000000000016,-27.40295787838576
-0.14270000000000005,-27.728341477354718
-0.14370000000000016,-28.039577963325023
-0.14470000000000005,-28.308373110299385
-0.14570000000000016,-28.548874031276437
-0.14670000000000005,-28.8459634042481
-0.14770000000000016,-29.22793545521166
-0.14870000000000005,-29.468436376188716
-0.14970000000000017,-29.539171941181966
-0.15070000000000006,-29.878702653149578
-0.15170000000000017,-30.331410269106385
-0.15270000000000006,-30.62849964207804
-0.15370000000000017,-30.968030354045652
-0.15470000000000006,-31.22267838802136
-0.15570000000000017,-31.47732642199707
-0.15670000000000006,-31.85929847296063
-0.15770000000000017,-32.22712341092554
-0.15870000000000006,-32.4676243319026
-0.15970000000000018,-32.51006567089854
-0.16070000000000007,-32.93447906085806
-0.16170000000000018,-33.330598224820264
-0.16270000000000007,-33.57109914579732
-0.16370000000000018,-33.95307119676088
-0.16470000000000007,-34.292601908728486
-0.16570000000000018,-34.5755441687015
-0.16670000000000007,-34.98581044566235
-0.16770000000000018,-35.353635383627264
-0.16870000000000007,-35.56584207860703
-0.16970000000000018,-35.636577643600276
-0.17070000000000007,-36.18831505054764
-0.17170000000000019,-36.6834640055004
-0.17270000000000008,-36.95225915247476
-0.1737000000000002,-37.26349563844507
-0.17470000000000008,-37.57473212441538
-0.1757000000000002,-37.85767438438838
-0.17670000000000008,-38.211352209354644
-0.1777000000000002,-38.5367358083236
-0.17870000000000008,-38.6499127123128
-0.1797000000000002,-38.93285497228581
-0.18070000000000008,-39.54118083122778
-0.1817000000000002,-39.96559422118728
-0.18270000000000008,-40.27683070715759
-0.1837000000000002,-40.6729498711198
-0.1847000000000001,-41.083216148080666
-0.1857000000000002,-41.30956995605907
-0.1867000000000001,-41.40859974704962
-0.1877000000000002,-41.94619004099834
-0.1887000000000001,-42.4696332219484
-0.1897000000000002,-42.89404661190791
-0.1907000000000001,-43.219430210876865
-0.1917000000000001,-43.57310803584313
-0.19269999999999998,-43.84190318281749
-0.1937000000000001,-43.92678586080939
-0.19469999999999998,-44.42193481576215
-0.1957000000000001,-45.086849126698716
-0.19669999999999999,-45.652733646644734
-0.1977000000000001,-46.034705697608295
-0.1987,-46.2610595055867
-0.1997000000000001,-46.586443104555656
-0.2007,-47.053297833511124
-0.2017000000000001,-47.47771122347063
-0.2027,-47.689917918450384
-0.2037000000000001,-47.94456595242609
-0.2047,-48.65192160235861
-0.2057000000000001,-49.104629218315424
-0.2067,-49.458307043281685
-0.2077000000000001,-49.8261319812466
-0.2087,-50.1373684672169
-0.2097000000000001,-50.61837030917101
-0.2107,-51.19840194211567
-0.2117000000000001,-51.580373993079235
-0.2127,-51.679403784069784
-0.2137000000000001,-52.2735825300131
-0.2147,-53.009232405942925
-0.2157000000000001,-53.447792908901086
-0.2167,-53.872206298860604
-0.21770000000000012,-54.38150236681201
-0.2187,-54.73518019177827
-0.21970000000000012,-54.84835709576747
-0.2207,-55.428388728712136
-0.22170000000000012,-56.24892128263386
-0.2227,-56.871394254574476
-0.22370000000000012,-57.33824898352994
-0.2247,-57.62119124350295
-0.22570000000000012,-58.031457520463796
-0.2267,-58.63978337940577
-0.22770000000000012,-59.17737367335449
-0.22870000000000001,-59.389580368334244
-0.22970000000000013,-59.7149639673032
-0.23070000000000002,-60.54964363422357
-0.23170000000000013,-61.15796949316553
-0.23270000000000002,-61.5682357701264
-0.23370000000000013,-61.9926491600859
-0.23470000000000002,-62.44535677604272
-0.23570000000000013,-63.06782974798333
-0.23670000000000002,-63.76103828491719
-0.2376999999999999,-64.31277569186457
-0.23870000000000002,-64.42595259585376
-0.2396999999999999,-64.90695443780788
-0.24070000000000003,-65.88310523471476
-0.24169999999999991,-66.53387243265267
-0.24270000000000003,-67.01487427460678
-0.24369999999999992,-67.6656414725447
-0.24470000000000003,-68.16079042749746
-0.24569999999999992,-68.20323176649342
-0.24670000000000003,-68.92473452942457
-0.24769999999999992,-69.90088532633146
-0.24870000000000003,-70.66482942825859
-0.24969999999999992,-71.2024197222073
-0.25070000000000003,-71.6268331121668
-0.2516999999999999,-72.32004164910067
-0.25270000000000004,-72.78689637805614
-0.2536999999999999,-72.91422039504398
-0.25470000000000004,-73.52254625398596
-0.2556999999999999,-74.61187395488203
-0.25670000000000004,-75.53143629979431
-0.25769999999999993,-76.11146793273898
-0.25870000000000004,-76.47929287070389
-0.25969999999999993,-77.04517739064991
-0.26070000000000004,-77.73838592758376
-0.26169999999999993,-78.51647714250953
-0.26270000000000004,-79.08236166245555
-0.26369999999999993,-79.26627413143801
-0.26470000000000005,-80.18583647635029
-0.26569999999999994,-81.23272283825041
-0.26670000000000005,-81.86934292318966
-0.26769999999999994,-82.42108033013703
-0.26870000000000005,-83.05770041507631
-0.26969999999999994,-83.49626091803447
-0.27070000000000005,-83.77920317800748
-0.27169999999999994,-84.86853087890354
-0.27270000000000005,-86.08518259678749
-0.27369999999999994,-87.06133339369435
-0.27470000000000006,-87.55648234864712
-0.27569999999999995,-87.86771883461743
-0.27670000000000006,-88.53263314555399
-0.27769999999999995,-89.35316569947572
-0.27870000000000006,-90.17369825339743
-0.27969999999999995,-90.5839645303583
-0.28070000000000006,-90.99423080731917
-0.28169999999999995,-92.29576520319499
-0.28270000000000006,-93.18703332210997
-0.28369999999999995,-93.76706495505464
-0.28470000000000006,-94.34709658799929
-0.28569999999999995,-95.09689357692776
-0.28670000000000007,-96.10133859983195
-0.28769999999999996,-97.03504805774287
-0.28870000000000007,-97.64337391668484
-0.28969999999999996,-97.78484504667132
-0.29070000000000007,-98.7892900695755
-0.29169999999999996,-100.02008890045809
-0.29270000000000007,-100.81232722838251
-0.29369999999999996,-101.5338299913137
-0.2947000000000001,-102.42509811022865
-0.29569999999999996,-103.20318932515443
-0.2967000000000001,-103.35880756813957
-0.29769999999999996,-104.19348723505995
-0.2987000000000001,-105.63649276092228
-0.29969999999999997,-106.78240891381296
-0.3007000000000001,-107.51805878974278
-0.30169999999999997,-108.06979619669015
-0.3027000000000001,-108.93277008960783
-0.30369999999999997,-109.52694883555114
-0.3047000000000001,-109.58353728754575
-0.30569999999999997,-110.87092457042293
-0.3067000000000001,-112.61101946925692
-0.3077,-113.67205294415571
-0.3087000000000001,-114.2945259160963
-0.3097,-115.14335269601534
-0.3107000000000001,-115.68094298996405
-0.3117,-115.63850165096811
-0.3127000000000001,-116.77027069086012
-0.3137,-118.59524826768603
-0.3147000000000001,-119.86848843756455
-0.3157,-120.51925563550247
-0.3167000000000001,-121.0851401554485
-0.3177,-121.83493714437697
-0.3187000000000001,-122.69791103729463
-0.3197,-123.71650317319745
-0.3207000000000001,-124.01359254616911
-0.3217,-124.67850685710567
-0.3227000000000001,-126.54592577292753
-0.3237,-127.73428326481418
-0.3247000000000001,-128.37090334975343
-0.3257,-129.10655322568326
-0.3267000000000001,-129.92708577960497
-0.3277,-130.01196845759688
-0.3287000000000001,-130.8325010115186
-0.3297,-132.798949718331
-0.3307000000000001,-134.44001482617443
-0.3317,-135.48690118807457
-0.3327000000000001,-135.82643190004217
-0.3337,-136.43475775898415
-0.3347000000000001,-137.34017299089777
-0.3357,-138.33047090080328
-0.3367000000000001,-139.3490630367061
-0.3377,-139.49053416669264
-0.3387000000000001,-140.70718588457655
-0.3397,-142.4614278964092
-0.3407000000000001,-143.16878354634173
-0.3417,-143.87613919627424
-0.3427000000000001,-144.72496597619326
-0.3437,-145.43232162612577
-0.3447000000000001,-145.85673501608528
-0.3457,-147.4129174459368
-0.3467000000000001,-149.25204213576137
-0.3477,-150.5252823056399
-0.3487000000000001,-151.09116682558593
-0.3497,-151.5155802155454
-0.3507000000000001,-152.36440699546444
-0.3517,-153.07176264539694
-0.3527000000000001,-154.486473945262
-0.3537,-155.33530072518104
-0.3547000000000001,-155.33530072518104
-0.3557,-157.03295428501906
-0.35670000000000013,-158.3061944548976
-0.3577,-158.5891367148706
-0.35870000000000013,-159.29649236480313
-0.3597,-160.28679027470866
-0.36070000000000013,-161.70150157457368
-0.3617,-163.25768400442522
-0.3626999999999999,-164.10651078434424
-0.3637,-163.82356852437124
-0.3646999999999999,-164.81386643427678
-0.3657,-166.51151999411482
-0.3666999999999999,-167.50181790402033
-0.3677,-168.35064468393938
-0.3686999999999999,-168.91652920388537
-0.36970000000000003,-169.7653559838044
-0.3706999999999999,-170.61418276372342
-0.37170000000000003,-171.74595180361547
-0.3726999999999999,-172.59477858353446
-0.37370000000000003,-172.0288940635885
-0.3746999999999999,-173.302134233467
-0.37570000000000003,-174.99978779330505
-0.3766999999999999,-175.99008570321055
-0.37770000000000004,-176.98038361311612
-0.3786999999999999,-177.4047970030756
-0.37970000000000004,-178.25362378299462
-0.3806999999999999,-179.38539282288664
-0.38170000000000004,-180.23421960280567
-0.38269999999999993,-180.37569073279218
-0.38370000000000004,-180.23421960280567
-0.38469999999999993,-181.64893090267074
-0.38570000000000004,-183.20511333252225
-0.38669999999999993,-183.77099785246824
-0.38770000000000004,-184.19541124242778
-0.38869999999999993,-184.7612957623738
-0.38970000000000005,-185.89306480226583
-0.39069999999999994,-186.45894932221185
-0.39170000000000005,-185.7515936722793
-0.39269999999999994,-187.02483384215788
-0.39370000000000005,-188.8639585319824
-0.39469999999999994,-189.8542564418879
-0.39570000000000005,-190.13719870186094
-0.39669999999999994,-190.84455435179345
-0.39770000000000005,-191.12749661176645
-0.39869999999999994,-190.27866983184742
-0.39970000000000006,-191.268967741753
-0.40069999999999995,-193.10809243157752
-0.40170000000000006,-194.09839034148303
-0.40269999999999995,-194.2398614714695
-0.40370000000000006,-194.38133260145605
-0.40469999999999995,-194.66427486142905
-0.40570000000000006,-195.08868825138856
-0.40669999999999995,-195.79604390132107
-0.40770000000000006,-195.51310164134807
-0.40869999999999995,-195.23015938137505
-0.40970000000000006,-196.92781294121312
-0.41069999999999995,-197.77663972113214
-0.41170000000000007,-197.77663972113214
-0.41269999999999996,-197.77663972113214
-0.41370000000000007,-197.63516859114563
-0.41469999999999996,-198.20105311109162
-0.41570000000000007,-198.90840876102413
-0.41669999999999996,-199.33282215098367
-0.41770000000000007,-198.3425242410781
-0.41869999999999996,-198.3425242410781
-0.4197000000000001,-199.75723554094319
-0.42069999999999996,-200.3231200608892
-0.4217000000000001,-199.89870667092967
-0.42269999999999996,-200.04017780091618
-0.4237000000000001,-200.18164893090267
-0.42469999999999997,-199.04987989101065
-0.4257000000000001,-198.90840876102413
-0.42669999999999997,-200.18164893090267
-0.4277000000000001,-201.03047571082172
-0.42869999999999997,-200.88900458083523
-0.4297000000000001,-200.18164893090267
-0.43069999999999997,-199.75723554094319
-0.4317000000000001,-199.61576441095667
-0.4327,-199.89870667092967
-0.4337000000000001,-199.33282215098367
-0.4347,-197.91811085111863
-0.4357000000000001,-198.62546650105114
-0.4367,-199.19135102099716
-0.4377000000000001,-198.62546650105114
-0.4387,-197.91811085111863
-0.4397000000000001,-197.35222633117263
-0.4407,-197.49369746115914
-0.4417000000000001,-197.63516859114563
-0.4427,-196.92781294121312
-0.4437000000000001,-195.37163051136156
-0.4447,-195.23015938137505
-0.4457000000000001,-195.65457277133459
-0.4467,-195.37163051136156
-0.4477000000000001,-194.52280373144254
-0.4487,-194.09839034148303
-0.4497000000000001,-194.09839034148303
-0.4507,-192.683679041618
-0.4517000000000001,-191.268967741753
-0.4527,-191.69338113171247
-0.4537000000000001,-191.9763233916855
-0.4547,-191.268967741753
-0.4557000000000001,-190.27866983184742
-0.4567,-189.99572757187443
-0.4577000000000001,-188.01513175206335
-0.4587,-186.31747819222534
-0.4597000000000001,-187.30777610213087
-0.4607,-187.87366062207687
-0.4617000000000001,-187.30777610213087
-0.4627,-186.17600706223882
-0.4637000000000001,-185.3271802823198
-0.4647,-184.33688237241427
-0.4657000000000001,-183.48805559249527
-0.4667,-183.34658446250873
-0.4677000000000001,-183.20511333252225
-0.4687,-181.2245175127112
-0.4697000000000001,-180.65863299276518
-0.4707,-181.36598864269772
-0.4717000000000001,-180.23421960280567
-0.4727,-178.96097943292713
-0.4737000000000001,-178.53656604296762
-0.4747,-178.1121526530081
-0.4757000000000001,-177.82921039303508
-0.4767,-177.82921039303508
-0.4777000000000001,-176.4144990931701
-0.4787,-174.85831666331853
-0.4797000000000001,-175.14125892329156
-0.4807,-175.14125892329156
-0.48170000000000013,-174.57537440334553
-0.4827,-174.150961013386
-0.48370000000000013,-173.72654762342648
-0.4847,-173.44360536345349
-0.48570000000000013,-173.44360536345349
-0.4867,-172.31183632356147
-0.48570000000000013,-168.91652920388537
-0.4847,-164.9553375642633
-0.48370000000000013,-163.54062626439824
-0.4827,-161.9844438345467
-0.48170000000000013,-159.43796349478964
-0.4807,-157.45736767497857
-0.4797000000000001,-155.33530072518104
-0.4787,-153.35470490536997
-0.4777000000000001,-151.5155802155454
-0.4767,-149.53498439573437
-0.4757000000000001,-146.4226195360313
-0.4747,-144.44202371622026
-0.4737000000000001,-143.73466806628772
-0.4727,-142.17848563643616
-0.4717000000000001,-139.9290946696508
-0.4707,-138.04752864083028
-0.4697000000000001,-136.4489048719828
-0.4687,-134.72295708614746
-0.4677000000000001,-132.98286218731346
-0.4667,-130.33735205656586
-0.4657000000000001,-129.21973012967246
-0.4647,-128.34260912375615
