Mar. 5, 2025   11:38:59
Cyclic Voltammetry
File: c:/users/guazh/data/banditlqround7_x0exp169_r20_3/2025-03-03-exp877\exp877-2025-03-05t11_29_51-arkoh\exp877_cv_sr_50mvs_efin_-1500mv.bin
Data Source:  Experiment
Instrument Model:  CHI760E
Header: CV ran at 50 mVs
Note: 

Init E (V) = -1
High E (V) = -1
Low E (V) = -1.5
Final E (V) = -1
Init P/N = N
Scan Rate (V/s) = 0.05
Segment = 3
Sample Interval (V) = 0.001
Quiet Time (sec) = 2
Sensitivity (A/V) = 0.01
Comp R (ohm) = 1.3

Results:

Channel 1:
Segment 1:
Ep = -1.341V
ip = 3.514e-3A
Ah = 5.115e-3C

Segment 2:

Segment 3:

Potential/V, Current/A

-1.000, -1.311e-3
-1.001, -1.256e-3
-1.002, -1.210e-3
-1.003, -1.173e-3
-1.004, -1.135e-3
-1.005, -1.100e-3
-1.006, -1.067e-3
-1.007, -1.037e-3
-1.008, -1.006e-3
-1.009, -9.752e-4
-1.010, -9.477e-4
-1.011, -9.194e-4
-1.012, -8.944e-4
-1.013, -8.662e-4
-1.014, -8.432e-4
-1.015, -8.163e-4
-1.016, -7.945e-4
-1.017, -7.694e-4
-1.018, -7.480e-4
-1.019, -7.240e-4
-1.020, -7.039e-4
-1.021, -6.824e-4
-1.022, -6.608e-4
-1.023, -6.412e-4
-1.024, -6.198e-4
-1.025, -6.019e-4
-1.026, -5.813e-4
-1.027, -5.648e-4
-1.028, -5.460e-4
-1.029, -5.272e-4
-1.030, -5.101e-4
-1.031, -4.924e-4
-1.032, -4.760e-4
-1.033, -4.582e-4
-1.034, -4.428e-4
-1.035, -4.256e-4
-1.036, -4.107e-4
-1.037, -3.946e-4
-1.038, -3.791e-4
-1.039, -3.646e-4
-1.040, -3.502e-4
-1.041, -3.351e-4
-1.042, -3.208e-4
-1.043, -3.062e-4
-1.044, -2.912e-4
-1.045, -2.778e-4
-1.046, -2.639e-4
-1.047, -2.497e-4
-1.048, -2.368e-4
-1.049, -2.226e-4
-1.050, -2.096e-4
-1.051, -1.968e-4
-1.052, -1.836e-4
-1.053, -1.711e-4
-1.054, -1.583e-4
-1.055, -1.459e-4
-1.056, -1.338e-4
-1.057, -1.216e-4
-1.058, -1.093e-4
-1.059, -9.692e-5
-1.060, -8.482e-5
-1.061, -7.342e-5
-1.062, -6.161e-5
-1.063, -4.982e-5
-1.064, -3.812e-5
-1.065, -2.676e-5
-1.066, -1.546e-5
-1.067, -4.491e-6
-1.068, 6.993e-6
-1.069, 1.852e-5
-1.070, 2.964e-5
-1.071, 4.078e-5
-1.072, 5.147e-5
-1.073, 6.258e-5
-1.074, 7.352e-5
-1.075, 8.470e-5
-1.076, 9.498e-5
-1.077, 1.055e-4
-1.078, 1.156e-4
-1.079, 1.271e-4
-1.080, 1.365e-4
-1.081, 1.467e-4
-1.082, 1.571e-4
-1.083, 1.675e-4
-1.084, 1.778e-4
-1.085, 1.874e-4
-1.086, 1.976e-4
-1.087, 2.075e-4
-1.088, 2.172e-4
-1.089, 2.275e-4
-1.090, 2.374e-4
-1.091, 2.462e-4
-1.092, 2.565e-4
-1.093, 2.659e-4
-1.094, 2.762e-4
-1.095, 2.858e-4
-1.096, 2.941e-4
-1.097, 3.046e-4
-1.098, 3.144e-4
-1.099, 3.237e-4
-1.100, 3.332e-4
-1.101, 3.427e-4
-1.102, 3.513e-4
-1.103, 3.612e-4
-1.104, 3.712e-4
-1.105, 3.804e-4
-1.106, 3.890e-4
-1.107, 3.983e-4
-1.108, 4.075e-4
-1.109, 4.165e-4
-1.110, 4.251e-4
-1.111, 4.354e-4
-1.112, 4.433e-4
-1.113, 4.526e-4
-1.114, 4.620e-4
-1.115, 4.706e-4
-1.116, 4.810e-4
-1.117, 4.880e-4
-1.118, 4.976e-4
-1.119, 5.068e-4
-1.120, 5.162e-4
-1.121, 5.248e-4
-1.122, 5.330e-4
-1.123, 5.410e-4
-1.124, 5.527e-4
-1.125, 5.599e-4
-1.126, 5.689e-4
-1.127, 5.767e-4
-1.128, 5.877e-4
-1.129, 5.951e-4
-1.130, 6.039e-4
-1.131, 6.114e-4
-1.132, 6.224e-4
-1.133, 6.280e-4
-1.134, 6.401e-4
-1.135, 6.474e-4
-1.136, 6.559e-4
-1.137, 6.637e-4
-1.138, 6.747e-4
-1.139, 6.819e-4
-1.140, 6.917e-4
-1.141, 6.999e-4
-1.142, 7.094e-4
-1.143, 7.161e-4
-1.144, 7.265e-4
-1.145, 7.370e-4
-1.146, 7.450e-4
-1.147, 7.525e-4
-1.148, 7.623e-4
-1.149, 7.713e-4
-1.150, 7.823e-4
-1.151, 7.890e-4
-1.152, 8.002e-4
-1.153, 8.097e-4
-1.154, 8.186e-4
-1.155, 8.281e-4
-1.156, 8.377e-4
-1.157, 8.485e-4
-1.158, 8.578e-4
-1.159, 8.670e-4
-1.160, 8.782e-4
-1.161, 8.851e-4
-1.162, 8.995e-4
-1.163, 9.046e-4
-1.164, 9.218e-4
-1.165, 9.280e-4
-1.166, 9.387e-4
-1.167, 9.515e-4
-1.168, 9.599e-4
-1.169, 9.740e-4
-1.170, 9.833e-4
-1.171, 9.955e-4
-1.172, 1.006e-3
-1.173, 1.017e-3
-1.174, 1.032e-3
-1.175, 1.041e-3
-1.176, 1.053e-3
-1.177, 1.065e-3
-1.178, 1.081e-3
-1.179, 1.093e-3
-1.180, 1.105e-3
-1.181, 1.117e-3
-1.182, 1.130e-3
-1.183, 1.145e-3
-1.184, 1.158e-3
-1.185, 1.171e-3
-1.186, 1.185e-3
-1.187, 1.201e-3
-1.188, 1.214e-3
-1.189, 1.225e-3
-1.190, 1.242e-3
-1.191, 1.255e-3
-1.192, 1.273e-3
-1.193, 1.285e-3
-1.194, 1.305e-3
-1.195, 1.318e-3
-1.196, 1.334e-3
-1.197, 1.349e-3
-1.198, 1.369e-3
-1.199, 1.384e-3
-1.200, 1.402e-3
-1.201, 1.418e-3
-1.202, 1.437e-3
-1.203, 1.456e-3
-1.204, 1.472e-3
-1.205, 1.489e-3
-1.206, 1.512e-3
-1.207, 1.527e-3
-1.208, 1.548e-3
-1.209, 1.567e-3
-1.210, 1.585e-3
-1.211, 1.610e-3
-1.212, 1.626e-3
-1.213, 1.649e-3
-1.214, 1.671e-3
-1.215, 1.691e-3
-1.216, 1.712e-3
-1.217, 1.735e-3
-1.218, 1.755e-3
-1.219, 1.780e-3
-1.220, 1.803e-3
-1.221, 1.823e-3
-1.222, 1.851e-3
-1.223, 1.870e-3
-1.224, 1.901e-3
-1.225, 1.921e-3
-1.226, 1.948e-3
-1.227, 1.974e-3
-1.228, 1.997e-3
-1.229, 2.025e-3
-1.230, 2.055e-3
-1.231, 2.076e-3
-1.232, 2.106e-3
-1.233, 2.133e-3
-1.234, 2.160e-3
-1.235, 2.194e-3
-1.236, 2.215e-3
-1.237, 2.249e-3
-1.238, 2.275e-3
-1.239, 2.308e-3
-1.240, 2.335e-3
-1.241, 2.371e-3
-1.242, 2.394e-3
-1.243, 2.435e-3
-1.244, 2.463e-3
-1.245, 2.496e-3
-1.246, 2.528e-3
-1.247, 2.563e-3
-1.248, 2.588e-3
-1.249, 2.636e-3
-1.250, 2.664e-3
-1.251, 2.698e-3
-1.252, 2.732e-3
-1.253, 2.767e-3
-1.254, 2.812e-3
-1.255, 2.839e-3
-1.256, 2.878e-3
-1.257, 2.914e-3
-1.258, 2.957e-3
-1.259, 2.994e-3
-1.260, 3.031e-3
-1.261, 3.062e-3
-1.262, 3.117e-3
-1.263, 3.148e-3
-1.264, 3.190e-3
-1.265, 3.230e-3
-1.266, 3.270e-3
-1.267, 3.317e-3
-1.268, 3.351e-3
-1.269, 3.402e-3
-1.270, 3.443e-3
-1.271, 3.483e-3
-1.272, 3.518e-3
-1.273, 3.582e-3
-1.274, 3.615e-3
-1.275, 3.656e-3
-1.276, 3.701e-3
-1.277, 3.743e-3
-1.278, 3.800e-3
-1.279, 3.832e-3
-1.280, 3.893e-3
-1.281, 3.926e-3
-1.282, 3.981e-3
-1.283, 4.022e-3
-1.284, 4.076e-3
-1.285, 4.123e-3
-1.286, 4.163e-3
-1.287, 4.210e-3
-1.288, 4.265e-3
-1.289, 4.303e-3
-1.290, 4.356e-3
-1.291, 4.405e-3
-1.292, 4.448e-3
-1.293, 4.494e-3
-1.294, 4.549e-3
-1.295, 4.587e-3
-1.296, 4.642e-3
-1.297, 4.687e-3
-1.298, 4.739e-3
-1.299, 4.777e-3
-1.300, 4.834e-3
-1.301, 4.863e-3
-1.302, 4.923e-3
-1.303, 4.974e-3
-1.304, 5.015e-3
-1.305, 5.050e-3
-1.306, 5.099e-3
-1.307, 5.140e-3
-1.308, 5.197e-3
-1.309, 5.236e-3
-1.310, 5.269e-3
-1.311, 5.310e-3
-1.312, 5.351e-3
-1.313, 5.401e-3
-1.314, 5.438e-3
-1.315, 5.469e-3
-1.316, 5.508e-3
-1.317, 5.542e-3
-1.318, 5.576e-3
-1.319, 5.609e-3
-1.320, 5.655e-3
-1.321, 5.671e-3
-1.322, 5.708e-3
-1.323, 5.733e-3
-1.324, 5.768e-3
-1.325, 5.801e-3
-1.326, 5.809e-3
-1.327, 5.832e-3
-1.328, 5.848e-3
-1.329, 5.892e-3
-1.330, 5.904e-3
-1.331, 5.907e-3
-1.332, 5.922e-3
-1.333, 5.932e-3
-1.334, 5.959e-3
-1.335, 5.950e-3
-1.336, 5.970e-3
-1.337, 5.974e-3
-1.338, 5.967e-3
-1.339, 5.967e-3
-1.340, 5.965e-3
-1.341, 5.979e-3
-1.342, 5.953e-3
-1.343, 5.956e-3
-1.344, 5.939e-3
-1.345, 5.928e-3
-1.346, 5.927e-3
-1.347, 5.893e-3
-1.348, 5.889e-3
-1.349, 5.856e-3
-1.350, 5.844e-3
-1.351, 5.795e-3
-1.352, 5.778e-3
-1.353, 5.766e-3
-1.354, 5.714e-3
-1.355, 5.696e-3
-1.356, 5.636e-3
-1.357, 5.627e-3
-1.358, 5.575e-3
-1.359, 5.528e-3
-1.360, 5.490e-3
-1.361, 5.451e-3
-1.362, 5.402e-3
-1.363, 5.349e-3
-1.364, 5.309e-3
-1.365, 5.252e-3
-1.366, 5.203e-3
-1.367, 5.151e-3
-1.368, 5.113e-3
-1.369, 5.049e-3
-1.370, 5.009e-3
-1.371, 4.959e-3
-1.372, 4.896e-3
-1.373, 4.845e-3
-1.374, 4.798e-3
-1.375, 4.762e-3
-1.376, 4.700e-3
-1.377, 4.642e-3
-1.378, 4.623e-3
-1.379, 4.558e-3
-1.380, 4.523e-3
-1.381, 4.469e-3
-1.382, 4.439e-3
-1.383, 4.387e-3
-1.384, 4.358e-3
-1.385, 4.332e-3
-1.386, 4.287e-3
-1.387, 4.251e-3
-1.388, 4.224e-3
-1.389, 4.185e-3
-1.390, 4.168e-3
-1.391, 4.147e-3
-1.392, 4.121e-3
-1.393, 4.096e-3
-1.394, 4.078e-3
-1.395, 4.064e-3
-1.396, 4.048e-3
-1.397, 4.038e-3
-1.398, 4.027e-3
-1.399, 4.017e-3
-1.400, 4.007e-3
-1.401, 4.005e-3
-1.402, 3.992e-3
-1.403, 4.003e-3
-1.404, 3.992e-3
-1.405, 4.003e-3
-1.406, 3.999e-3
-1.407, 4.010e-3
-1.408, 4.016e-3
-1.409, 4.017e-3
-1.410, 4.035e-3
-1.411, 4.041e-3
-1.412, 4.050e-3
-1.413, 4.078e-3
-1.414, 4.079e-3
-1.415, 4.109e-3
-1.416, 4.113e-3
-1.417, 4.141e-3
-1.418, 4.174e-3
-1.419, 4.190e-3
-1.420, 4.205e-3
-1.421, 4.227e-3
-1.422, 4.251e-3
-1.423, 4.286e-3
-1.424, 4.321e-3
-1.425, 4.335e-3
-1.426, 4.367e-3
-1.427, 4.396e-3
-1.428, 4.439e-3
-1.429, 4.460e-3
-1.430, 4.502e-3
-1.431, 4.523e-3
-1.432, 4.568e-3
-1.433, 4.590e-3
-1.434, 4.631e-3
-1.435, 4.670e-3
-1.436, 4.706e-3
-1.437, 4.758e-3
-1.438, 4.785e-3
-1.439, 4.826e-3
-1.440, 4.878e-3
-1.441, 4.898e-3
-1.442, 4.934e-3
-1.443, 4.983e-3
-1.444, 5.021e-3
-1.445, 5.073e-3
-1.446, 5.098e-3
-1.447, 5.145e-3
-1.448, 5.185e-3
-1.449, 5.219e-3
-1.450, 5.293e-3
-1.451, 5.323e-3
-1.452, 5.361e-3
-1.453, 5.413e-3
-1.454, 5.447e-3
-1.455, 5.510e-3
-1.456, 5.552e-3
-1.457, 5.590e-3
-1.458, 5.625e-3
-1.459, 5.705e-3
-1.460, 5.725e-3
-1.461, 5.795e-3
-1.462, 5.828e-3
-1.463, 5.869e-3
-1.464, 5.925e-3
-1.465, 5.955e-3
-1.466, 6.014e-3
-1.467, 6.072e-3
-1.468, 6.130e-3
-1.469, 6.168e-3
-1.470, 6.234e-3
-1.471, 6.272e-3
-1.472, 6.304e-3
-1.473, 6.388e-3
-1.474, 6.394e-3
-1.475, 6.468e-3
-1.476, 6.490e-3
-1.477, 6.566e-3
-1.478, 6.617e-3
-1.479, 6.665e-3
-1.480, 6.719e-3
-1.481, 6.748e-3
-1.482, 6.793e-3
-1.483, 6.834e-3
-1.484, 6.915e-3
-1.485, 6.923e-3
-1.486, 7.012e-3
-1.487, 7.053e-3
-1.488, 7.166e-3
-1.489, 7.182e-3
-1.490, 7.204e-3
-1.491, 7.259e-3
-1.492, 7.290e-3
-1.493, 7.334e-3
-1.494, 7.383e-3
-1.495, 7.465e-3
-1.496, 7.485e-3
-1.497, 7.531e-3
-1.498, 7.567e-3
-1.499, 7.603e-3
-1.500, 7.596e-3
-1.499, 7.503e-3
-1.498, 7.404e-3
-1.497, 7.332e-3
-1.496, 7.252e-3
-1.495, 7.220e-3
-1.494, 7.116e-3
-1.493, 7.072e-3
-1.492, 6.982e-3
-1.491, 6.915e-3
-1.490, 6.847e-3
-1.489, 6.787e-3
-1.488, 6.695e-3
-1.487, 6.657e-3
-1.486, 6.584e-3
-1.485, 6.494e-3
-1.484, 6.423e-3
-1.483, 6.367e-3
-1.482, 6.355e-3
-1.481, 6.309e-3
-1.480, 6.230e-3
-1.479, 6.155e-3
-1.478, 6.105e-3
-1.477, 6.014e-3
-1.476, 5.983e-3
-1.475, 5.909e-3
-1.474, 5.823e-3
-1.473, 5.755e-3
-1.472, 5.693e-3
-1.471, 5.651e-3
-1.470, 5.610e-3
-1.469, 5.584e-3
-1.468, 5.529e-3
-1.467, 5.498e-3
-1.466, 5.418e-3
-1.465, 5.357e-3
-1.464, 5.292e-3
-1.463, 5.242e-3
-1.462, 5.168e-3
-1.461, 5.117e-3
-1.460, 5.055e-3
-1.459, 5.009e-3
-1.458, 4.942e-3
-1.457, 4.896e-3
-1.456, 4.808e-3
-1.455, 4.777e-3
-1.454, 4.715e-3
-1.453, 4.660e-3
-1.452, 4.619e-3
-1.451, 4.564e-3
-1.450, 4.516e-3
-1.449, 4.464e-3
-1.448, 4.435e-3
-1.447, 4.372e-3
-1.446, 4.320e-3
-1.445, 4.288e-3
-1.444, 4.213e-3
-1.443, 4.181e-3
-1.442, 4.138e-3
-1.441, 4.113e-3
-1.440, 4.065e-3
-1.439, 3.999e-3
-1.438, 3.984e-3
-1.437, 3.964e-3
-1.436, 3.886e-3
-1.435, 3.836e-3
-1.434, 3.792e-3
-1.433, 3.735e-3
-1.432, 3.679e-3
-1.431, 3.635e-3
-1.430, 3.612e-3
-1.429, 3.559e-3
-1.428, 3.553e-3
-1.427, 3.481e-3
-1.426, 3.435e-3
-1.425, 3.376e-3
-1.424, 3.334e-3
-1.423, 3.287e-3
-1.422, 3.243e-3
-1.421, 3.281e-3
-1.420, 3.202e-3
-1.419, 3.152e-3
-1.418, 3.108e-3
-1.417, 3.078e-3
-1.416, 3.032e-3
-1.415, 2.977e-3
-1.414, 2.937e-3
-1.413, 2.892e-3
-1.412, 2.863e-3
-1.411, 2.814e-3
-1.410, 2.772e-3
-1.409, 2.725e-3
-1.408, 2.695e-3
-1.407, 2.687e-3
-1.406, 2.646e-3
-1.405, 2.592e-3
-1.404, 2.574e-3
-1.403, 2.532e-3
-1.402, 2.481e-3
-1.401, 2.448e-3
-1.400, 2.404e-3
-1.399, 2.372e-3
-1.398, 2.332e-3
-1.397, 2.299e-3
-1.396, 2.264e-3
-1.395, 2.232e-3
-1.394, 2.201e-3
-1.393, 2.172e-3
-1.392, 2.130e-3
-1.391, 2.100e-3
-1.390, 2.093e-3
-1.389, 2.037e-3
-1.388, 2.015e-3
-1.387, 1.968e-3
-1.386, 1.940e-3
-1.385, 1.898e-3
-1.384, 1.873e-3
-1.383, 1.841e-3
-1.382, 1.803e-3
-1.381, 1.773e-3
-1.380, 1.750e-3
-1.379, 1.715e-3
-1.378, 1.688e-3
-1.377, 1.656e-3
-1.376, 1.621e-3
-1.375, 1.596e-3
-1.374, 1.566e-3
-1.373, 1.534e-3
-1.372, 1.507e-3
-1.371, 1.480e-3
-1.370, 1.446e-3
-1.369, 1.429e-3
-1.368, 1.397e-3
-1.367, 1.370e-3
-1.366, 1.337e-3
-1.365, 1.326e-3
-1.364, 1.297e-3
-1.363, 1.274e-3
-1.362, 1.241e-3
-1.361, 1.224e-3
-1.360, 1.194e-3
-1.359, 1.192e-3
-1.358, 1.166e-3
-1.357, 1.128e-3
-1.356, 1.105e-3
-1.355, 1.082e-3
-1.354, 1.060e-3
-1.353, 1.032e-3
-1.352, 1.015e-3
-1.351, 9.897e-4
-1.350, 9.719e-4
-1.349, 9.450e-4
-1.348, 9.265e-4
-1.347, 9.022e-4
-1.346, 8.838e-4
-1.345, 8.630e-4
-1.344, 8.400e-4
-1.343, 8.224e-4
-1.342, 8.018e-4
-1.341, 7.793e-4
-1.340, 7.626e-4
-1.339, 7.460e-4
-1.338, 7.214e-4
-1.337, 7.047e-4
-1.336, 6.873e-4
-1.335, 6.705e-4
-1.334, 6.533e-4
-1.333, 6.326e-4
-1.332, 6.177e-4
-1.331, 5.988e-4
-1.330, 5.832e-4
-1.329, 5.693e-4
-1.328, 5.506e-4
-1.327, 5.354e-4
-1.326, 5.173e-4
-1.325, 5.051e-4
-1.324, 4.896e-4
-1.323, 4.730e-4
-1.322, 4.593e-4
-1.321, 4.441e-4
-1.320, 4.311e-4
-1.319, 4.158e-4
-1.318, 4.032e-4
-1.317, 3.906e-4
-1.316, 3.752e-4
-1.315, 3.636e-4
-1.314, 3.482e-4
-1.313, 3.361e-4
-1.312, 3.251e-4
-1.311, 3.135e-4
-1.310, 3.013e-4
-1.309, 2.863e-4
-1.308, 2.775e-4
-1.307, 2.644e-4
-1.306, 2.540e-4
-1.305, 2.431e-4
-1.304, 2.318e-4
-1.303, 2.210e-4
-1.302, 2.112e-4
-1.301, 2.021e-4
-1.300, 1.898e-4
-1.299, 1.811e-4
-1.298, 1.706e-4
-1.297, 1.632e-4
-1.296, 1.682e-4
-1.295, 1.490e-4
-1.294, 1.357e-4
-1.293, 1.276e-4
-1.292, 1.172e-4
-1.291, 1.098e-4
-1.290, 1.005e-4
-1.289, 9.118e-5
-1.288, 8.335e-5
-1.287, 7.524e-5
-1.286, 6.740e-5
-1.285, 5.918e-5
-1.284, 5.136e-5
-1.283, 4.366e-5
-1.282, 3.687e-5
-1.281, 2.923e-5
-1.280, 2.066e-5
-1.279, 1.349e-5
-1.278, 6.835e-6
-1.277, 4.321e-7
-1.276, -6.257e-6
-1.275, -1.285e-5
-1.274, -1.933e-5
-1.273, -2.571e-5
-1.272, -3.108e-5
-1.271, -3.709e-5
-1.270, -4.352e-5
-1.269, -4.941e-5
-1.268, -5.509e-5
-1.267, -6.099e-5
-1.266, -6.578e-5
-1.265, -7.180e-5
-1.264, -7.689e-5
-1.263, -8.236e-5
-1.262, -8.739e-5
-1.261, -9.166e-5
-1.260, -9.741e-5
-1.259, -1.025e-4
-1.258, -1.075e-4
-1.257, -1.120e-4
-1.256, -1.154e-4
-1.255, -1.211e-4
-1.254, -1.257e-4
-1.253, -1.293e-4
-1.252, -1.338e-4
-1.251, -1.380e-4
-1.250, -1.428e-4
-1.249, -1.470e-4
-1.248, -1.501e-4
-1.247, -1.541e-4
-1.246, -1.575e-4
-1.245, -1.614e-4
-1.244, -1.655e-4
-1.243, -1.684e-4
-1.242, -1.720e-4
-1.241, -1.754e-4
-1.240, -1.791e-4
-1.239, -1.833e-4
-1.238, -1.853e-4
-1.237, -1.890e-4
-1.236, -1.921e-4
-1.235, -1.960e-4
-1.234, -1.990e-4
-1.233, -2.025e-4
-1.232, -2.044e-4
-1.231, -2.086e-4
-1.230, -2.113e-4
-1.229, -2.167e-4
-1.228, -2.190e-4
-1.227, -2.209e-4
-1.226, -2.234e-4
-1.225, -2.261e-4
-1.224, -2.301e-4
-1.223, -2.319e-4
-1.222, -2.350e-4
-1.221, -2.380e-4
-1.220, -2.401e-4
-1.219, -2.433e-4
-1.218, -2.458e-4
-1.217, -2.496e-4
-1.216, -2.509e-4
-1.215, -2.544e-4
-1.214, -2.577e-4
-1.213, -2.608e-4
-1.212, -2.631e-4
-1.211, -2.650e-4
-1.210, -2.687e-4
-1.209, -2.712e-4
-1.208, -2.735e-4
-1.207, -2.750e-4
-1.206, -2.795e-4
-1.205, -2.820e-4
-1.204, -2.847e-4
-1.203, -2.876e-4
-1.202, -2.891e-4
-1.201, -2.940e-4
-1.200, -2.952e-4
-1.199, -2.995e-4
-1.198, -3.010e-4
-1.197, -3.055e-4
-1.196, -3.086e-4
-1.195, -3.111e-4
-1.194, -3.152e-4
-1.193, -3.171e-4
-1.192, -3.224e-4
-1.191, -3.242e-4
-1.190, -3.299e-4
-1.189, -3.320e-4
-1.188, -3.376e-4
-1.187, -3.398e-4
-1.186, -3.437e-4
-1.185, -3.480e-4
-1.184, -3.508e-4
-1.183, -3.566e-4
-1.182, -3.602e-4
-1.181, -3.630e-4
-1.180, -3.674e-4
-1.179, -3.701e-4
-1.178, -3.768e-4
-1.177, -3.784e-4
-1.176, -3.830e-4
-1.175, -3.853e-4
-1.174, -3.917e-4
-1.173, -3.942e-4
-1.172, -3.983e-4
-1.171, -4.005e-4
-1.170, -4.091e-4
-1.169, -4.125e-4
-1.168, -4.176e-4
-1.167, -4.202e-4
-1.166, -4.254e-4
-1.165, -4.288e-4
-1.164, -4.377e-4
-1.163, -4.412e-4
-1.162, -4.478e-4
-1.161, -4.542e-4
-1.160, -4.619e-4
-1.159, -4.692e-4
-1.158, -4.782e-4
-1.157, -4.854e-4
-1.156, -4.993e-4
-1.155, -5.116e-4
-1.154, -5.261e-4
-1.153, -5.437e-4
-1.152, -5.601e-4
-1.151, -5.835e-4
-1.150, -6.077e-4
-1.149, -6.410e-4
-1.148, -6.716e-4
-1.147, -7.055e-4
-1.146, -7.619e-4
-1.145, -7.973e-4
-1.144, -8.374e-4
-1.143, -8.863e-4
-1.142, -9.246e-4
-1.141, -9.743e-4
-1.140, -1.013e-3
-1.139, -1.062e-3
-1.138, -1.096e-3
-1.137, -1.139e-3
-1.136, -1.174e-3
-1.135, -1.214e-3
-1.134, -1.246e-3
-1.133, -1.287e-3
-1.132, -1.321e-3
-1.131, -1.353e-3
-1.130, -1.390e-3
-1.129, -1.417e-3
-1.128, -1.460e-3
-1.127, -1.494e-3
-1.126, -1.522e-3
-1.125, -1.558e-3
-1.124, -1.586e-3
-1.123, -1.627e-3
-1.122, -1.658e-3
-1.121, -1.690e-3
-1.120, -1.721e-3
-1.119, -1.762e-3
-1.118, -1.791e-3
-1.117, -1.820e-3
-1.116, -1.849e-3
-1.115, -1.893e-3
-1.114, -1.921e-3
-1.113, -1.946e-3
-1.112, -1.985e-3
-1.111, -2.010e-3
-1.110, -2.058e-3
-1.109, -2.077e-3
-1.108, -2.119e-3
-1.107, -2.143e-3
-1.106, -2.186e-3
-1.105, -2.220e-3
-1.104, -2.244e-3
-1.103, -2.282e-3
-1.102, -2.307e-3
-1.101, -2.357e-3
-1.100, -2.387e-3
-1.099, -2.414e-3
-1.098, -2.451e-3
-1.097, -2.474e-3
-1.096, -2.526e-3
-1.095, -2.547e-3
-1.094, -2.592e-3
-1.093, -2.615e-3
-1.092, -2.662e-3
-1.091, -2.688e-3
-1.090, -2.727e-3
-1.089, -2.762e-3
-1.088, -2.788e-3
-1.087, -2.834e-3
-1.086, -2.861e-3
-1.085, -2.900e-3
-1.084, -2.923e-3
-1.083, -2.977e-3
-1.082, -2.997e-3
-1.081, -3.043e-3
-1.080, -3.062e-3
-1.079, -3.115e-3
-1.078, -3.138e-3
-1.077, -3.177e-3
-1.076, -3.213e-3
-1.075, -3.237e-3
-1.074, -3.286e-3
-1.073, -3.311e-3
-1.072, -3.348e-3
-1.071, -3.369e-3
-1.070, -3.421e-3
-1.069, -3.444e-3
-1.068, -3.485e-3
-1.067, -3.517e-3
-1.066, -3.538e-3
-1.065, -3.587e-3
-1.064, -3.612e-3
-1.063, -3.648e-3
-1.062, -3.667e-3
-1.061, -3.724e-3
-1.060, -3.746e-3
-1.059, -3.786e-3
-1.058, -3.817e-3
-1.057, -3.840e-3
-1.056, -3.880e-3
-1.055, -3.897e-3
-1.054, -3.959e-3
-1.053, -3.970e-3
-1.052, -4.011e-3
-1.051, -4.054e-3
-1.050, -4.092e-3
-1.049, -4.104e-3
-1.048, -4.151e-3
-1.047, -4.160e-3
-1.046, -4.220e-3
-1.045, -4.238e-3
-1.044, -4.259e-3
-1.043, -4.307e-3
-1.042, -4.314e-3
-1.041, -4.360e-3
-1.040, -4.380e-3
-1.039, -4.416e-3
-1.038, -4.425e-3
-1.037, -4.478e-3
-1.036, -4.505e-3
-1.035, -4.533e-3
-1.034, -4.562e-3
-1.033, -4.575e-3
-1.032, -4.615e-3
-1.031, -4.639e-3
-1.030, -4.661e-3
-1.029, -4.676e-3
-1.028, -4.710e-3
-1.027, -4.740e-3
-1.026, -4.813e-3
-1.025, -4.833e-3
-1.024, -5.192e-3
-1.023, -5.386e-3
-1.022, -5.439e-3
-1.021, -5.421e-3
-1.020, -5.423e-3
-1.019, -5.449e-3
-1.018, -5.440e-3
-1.017, -5.464e-3
-1.016, -5.468e-3
-1.015, -5.485e-3
-1.014, -5.472e-3
-1.013, -5.500e-3
-1.012, -5.481e-3
-1.011, -5.517e-3
-1.010, -5.486e-3
-1.009, -5.508e-3
-1.008, -5.486e-3
-1.007, -5.508e-3
-1.006, -5.497e-3
-1.005, -5.482e-3
-1.004, -5.493e-3
-1.003, -5.463e-3
-1.002, -5.474e-3
-1.001, -5.451e-3
