Potential V vs RHE, Current mA cm-2
0.05339999999999995,-0.019353250582153703
0.05239999999999995,-0.02015963602307677
0.051399999999999946,-0.020541608074040336
0.050399999999999945,-0.02085284456001064
0.049399999999999944,-0.021121639706984996
0.04839999999999994,-0.021404581966958002
0.04739999999999994,-0.021687524226931015
0.04639999999999994,-0.021913878034909417
0.04539999999999994,-0.022168526068885124
0.04439999999999994,-0.02239487987686353
0.04339999999999994,-0.022635380797840585
0.04239999999999994,-0.022904175944814944
0.04139999999999994,-0.02313052975279335
0.040399999999999936,-0.023342736447773106
0.039399999999999935,-0.023583237368750162
0.038399999999999934,-0.02385203251572452
0.03739999999999993,-0.024092533436701577
0.03639999999999993,-0.024304740131681327
0.03539999999999993,-0.024516946826661085
0.03439999999999993,-0.02475744774763814
0.03339999999999993,-0.025040390007611147
0.03239999999999993,-0.025280890928588207
0.03139999999999993,-0.025507244736566608
0.030399999999999927,-0.02573359854454502
0.029399999999999926,-0.025974099465522073
0.028399999999999925,-0.02624289461249643
0.027399999999999924,-0.026483395533473487
0.026399999999999924,-0.026723896454450544
0.025399999999999923,-0.026978544488426247
0.024399999999999922,-0.027219045409403307
0.02339999999999992,-0.027487840556377662
0.02239999999999992,-0.02775663570335202
0.02139999999999992,-0.027997136624329073
0.020399999999999918,-0.028237637545306133
0.019399999999999917,-0.02850643269228049
0.018399999999999916,-0.028775227839254847
0.017399999999999916,-0.029058170099227856
0.016399999999999915,-0.029326965246202208
0.015399999999999914,-0.029581613280177915
0.014399999999999913,-0.029836261314153626
0.013399999999999912,-0.03014749780012393
0.012399999999999911,-0.030430440060096934
0.01139999999999991,-0.030670940981073994
0.01039999999999991,-0.030939736128048352
0.009399999999999908,-0.031194384162024056
0.008399999999999908,-0.03147732642199706
0.007399999999999907,-0.031788562907967374
0.006399999999999906,-0.03202906382894443
0.005399999999999905,-0.032326153201916084
0.004399999999999904,-0.03259494834889044
0.003399999999999903,-0.03290618483486075
0.002399999999999902,-0.03321742132083106
0.0013999999999999013,-0.03350036358080407
0.00039999999999990044,-0.03381160006677438
-0.0006000000000001005,-0.03412283655274468
-0.0016000000000001013,-0.03443407303871499
-0.0026000000000001022,-0.034731162411686646
-0.003600000000000103,-0.03504239889765696
-0.004600000000000104,-0.03531119404463132
-0.005600000000000105,-0.03563657764360027
-0.006600000000000106,-0.03597610835556788
-0.007600000000000107,-0.036301491954536844
-0.008600000000000108,-0.0366268755535058
-0.009600000000000108,-0.03693811203947611
-0.01060000000000011,-0.03726349563844507
-0.01160000000000011,-0.03761717346341132
-0.012600000000000111,-0.03799914551437489
-0.013600000000000112,-0.03832452911334384
-0.014600000000000113,-0.038635765599314156
-0.015600000000000114,-0.03897529631128176
-0.016600000000000115,-0.039314827023249364
-0.017600000000000116,-0.03971094618721158
-0.018600000000000116,-0.04005047689917919
-0.019600000000000117,-0.040375860498148154
-0.020600000000000118,-0.040715391210115755
-0.02160000000000012,-0.041097363261079316
-0.02260000000000012,-0.04149348242504153
-0.02360000000000012,-0.04184716025000779
-0.024600000000000122,-0.042186690961975394
-0.025600000000000123,-0.042554515899940304
-0.026600000000000124,-0.042936487950903865
-0.027600000000000124,-0.04334675422786472
-0.028600000000000125,-0.04370043205283098
-0.029600000000000126,-0.04408240410379454
-0.030600000000000127,-0.04447852326775675
-0.03160000000000013,-0.044874642431718965
-0.03260000000000013,-0.04527076159568117
-0.03360000000000013,-0.04565273364664474
-0.03460000000000002,-0.04602055858460964
-0.03560000000000002,-0.046416677748571854
-0.03660000000000002,-0.04682694402553272
-0.03760000000000002,-0.047265504528490876
-0.03860000000000002,-0.04767577080545173
-0.039600000000000024,-0.04805774285641529
-0.040600000000000025,-0.04848215624637481
-0.041600000000000026,-0.04890656963633432
-0.04260000000000003,-0.04935927725229113
-0.04360000000000003,-0.049741249303254687
-0.04460000000000003,-0.0501656626932142
-0.04560000000000003,-0.05056178185717641
-0.04660000000000003,-0.051028636586131874
-0.04760000000000003,-0.051481344202088684
-0.04860000000000003,-0.05191990470504685
-0.04960000000000003,-0.052344318095006365
-0.050600000000000034,-0.052768731484965865
-0.051600000000000035,-0.053235586213921327
-0.052600000000000036,-0.053702440942876795
-0.053600000000000037,-0.054141001445834946
-0.05460000000000004,-0.05460785617479042
-0.05560000000000004,-0.05503226956474993
-0.05660000000000004,-0.05551327140670404
-0.05760000000000004,-0.05599427324865815
-0.05860000000000004,-0.05641868663861766
-0.05960000000000004,-0.05688554136757313
-0.06060000000000004,-0.057352396096528584
-0.061600000000000044,-0.05781925082548405
-0.06260000000000004,-0.05831439978043681
-0.06360000000000005,-0.05878125450939227
-0.06460000000000005,-0.059233962125349086
-0.06560000000000005,-0.05967252262830725
-0.06660000000000005,-0.06018181869625867
-0.06760000000000005,-0.06069111476421007
-0.06860000000000005,-0.06112967526716823
-0.06960000000000005,-0.06163897133511965
-0.07060000000000005,-0.06210582606407511
-0.07160000000000005,-0.06260097501902787
-0.07260000000000005,-0.06315271242597524
-0.07360000000000005,-0.063647861380928
-0.07460000000000006,-0.06414301033588077
-0.07560000000000006,-0.06465230640383217
-0.07660000000000006,-0.06516160247178358
-0.07760000000000006,-0.06568504565273366
-0.07860000000000006,-0.06620848883368373
-0.07960000000000006,-0.06668949067563783
-0.08060000000000006,-0.06719878674358926
-0.08160000000000006,-0.06773637703753796
-0.08260000000000006,-0.06828811444448532
-0.08360000000000006,-0.06879741051243674
-0.08460000000000006,-0.0692925594673895
-0.08560000000000006,-0.06981600264833956
-0.08660000000000007,-0.07036774005528693
-0.08760000000000007,-0.07091947746223429
-0.08860000000000007,-0.07145706775618299
-0.08960000000000007,-0.07196636382413442
-0.09060000000000007,-0.07248980700508448
-0.09160000000000007,-0.07304154441203185
-0.09260000000000007,-0.07360742893197786
-0.09360000000000007,-0.07414501922592658
-0.09460000000000007,-0.07468260951987529
-0.09560000000000007,-0.07520605270082535
-0.09660000000000007,-0.07575779010777271
-0.09760000000000008,-0.07632367462771873
-0.09860000000000008,-0.07683297069567015
-0.09960000000000008,-0.07737056098961885
-0.10060000000000008,-0.07790815128356757
-0.10160000000000008,-0.07850233002951089
-0.10260000000000008,-0.07908236166245554
-0.10360000000000008,-0.07960580484340561
-0.10460000000000008,-0.08014339513735433
-0.10560000000000008,-0.08068098543130305
-0.10660000000000008,-0.08126101706424771
-0.10760000000000008,-0.08184104869719236
-0.10860000000000009,-0.08239278610413973
-0.10960000000000009,-0.0829445235110871
-0.11060000000000009,-0.08345381957903851
-0.11160000000000009,-0.08397726275998857
-0.11260000000000009,-0.08455729439293323
-0.11360000000000009,-0.0850807375738833
-0.11460000000000009,-0.08567491631982663
-0.11560000000000009,-0.08624080083977263
-0.11660000000000009,-0.08677839113372135
-0.1176000000000001,-0.08735842276666603
-0.1186000000000001,-0.08786771883461743
-0.1196000000000001,-0.08837701490256884
-0.1206000000000001,-0.08891460519651756
-0.1216000000000001,-0.08948048971646357
-0.1226000000000001,-0.09007466846240689
-0.1236000000000001,-0.09061225875635559
-0.1246000000000001,-0.09113570193730568
-0.1256000000000001,-0.09165914511825574
-0.1266000000000001,-0.09222502963820174
-0.1276000000000001,-0.09281920838414506
-0.1286000000000001,-0.09335679867809377
-0.1296000000000001,-0.09388024185904384
-0.1306000000000001,-0.0944036850399939
-0.1316000000000001,-0.0949695695599399
-0.1326000000000001,-0.09552130696688728
-0.1336000000000001,-0.09607304437383464
-0.1346000000000001,-0.0965964875547847
-0.1356000000000001,-0.09709163650973747
-0.1366000000000001,-0.09764337391668483
-0.1376000000000001,-0.0981951113236322
-0.1386000000000001,-0.09871855450458226
-0.1396000000000001,-0.09921370345953502
-0.1406000000000001,-0.09973714664048508
-0.14160000000000011,-0.1002747369344338
-0.14260000000000012,-0.10084062145437982
-0.14360000000000012,-0.10133577040933257
-0.14460000000000012,-0.10184506647728399
-0.14560000000000012,-0.1023260683192381
-0.14660000000000012,-0.10284951150018817
-0.14760000000000012,-0.10335880756813957
-0.14860000000000012,-0.1038398094100937
-0.14960000000000012,-0.1043208112520478
-0.15060000000000012,-0.10480181309400192
-0.15160000000000012,-0.10532525627495198
-0.15260000000000012,-0.1058345523429034
-0.15360000000000013,-0.10630140707185885
-0.15460000000000013,-0.10678240891381298
-0.15560000000000013,-0.10723511652976979
-0.15660000000000013,-0.10774441259772119
-0.15760000000000013,-0.10823956155267396
-0.15860000000000013,-0.10870641628162941
-0.15960000000000002,-0.1091732710105849
-0.16060000000000002,-0.10962597862654169
-0.16160000000000002,-0.11009283335549715
-0.16260000000000002,-0.11057383519745125
-0.16360000000000002,-0.11101239570040942
-0.16460000000000002,-0.11145095620336758
-0.16560000000000002,-0.1119319580453217
-0.16660000000000003,-0.11241295988727582
-0.16760000000000003,-0.11285152039023398
-0.16860000000000003,-0.11329008089319213
-0.16960000000000003,-0.11368620005715435
-0.17060000000000003,-0.1140964663341152
-0.17160000000000003,-0.11452087972407471
-0.17260000000000003,-0.11495944022703289
-0.17360000000000003,-0.11536970650399375
-0.17460000000000003,-0.1157799727809546
-0.17560000000000003,-0.11619023905791546
-0.17660000000000003,-0.11662879956087362
-0.17760000000000004,-0.11702491872483582
-0.17860000000000004,-0.11742103788879804
-0.17960000000000004,-0.1178030099397616
-0.18060000000000004,-0.11815668776472787
-0.18160000000000004,-0.11852451270269278
-0.18260000000000004,-0.118920631866655
-0.18360000000000004,-0.11927430969162124
-0.18460000000000004,-0.1196279875165875
-0.18560000000000004,-0.11998166534155377
-0.18660000000000004,-0.12036363739251733
-0.18760000000000004,-0.12073146233048222
-0.18860000000000005,-0.12105684592945118
-0.18960000000000005,-0.12138222952842014
-0.19060000000000005,-0.1216793189013918
-0.19160000000000005,-0.12201884961335942
-0.19260000000000005,-0.12238667455132432
-0.19360000000000005,-0.12272620526329193
-0.19460000000000005,-0.12300914752326494
-0.19560000000000005,-0.1233062368962366
-0.19660000000000005,-0.12361747338220691
-0.19760000000000005,-0.12395700409417452
-0.19860000000000005,-0.12423994635414752
-0.19960000000000006,-0.12450874150112187
-0.20060000000000006,-0.12477753664809622
-0.20160000000000006,-0.12506047890806923
-0.20260000000000006,-0.12534342116804223
-0.20360000000000006,-0.12559806920201796
-0.20460000000000006,-0.12585271723599367
-0.20560000000000006,-0.1260932181569707
-0.20660000000000006,-0.1263620133039451
-0.20760000000000006,-0.12664495556391808
-0.20860000000000006,-0.1268996035978938
-0.20960000000000006,-0.1271542516318695
-0.21060000000000006,-0.12738060543984792
-0.21160000000000007,-0.1276352534738236
-0.21260000000000007,-0.1278899015077993
-0.21360000000000007,-0.12811625531577772
-0.21460000000000007,-0.12832846201075748
-0.21560000000000007,-0.12852652159273859
-0.21660000000000007,-0.128752875400717
-0.21760000000000007,-0.12900752343469268
-0.21860000000000007,-0.12920558301667381
-0.21960000000000007,-0.12938949548565626
-0.22060000000000007,-0.12955926084164004
-0.22160000000000007,-0.12978561464961846
-0.22260000000000008,-0.1299978213445982
-0.22360000000000008,-0.13018173381358067
-0.22460000000000008,-0.13037979339556177
-0.22560000000000008,-0.13054955875154559
-0.22660000000000008,-0.1307476183335267
-0.22760000000000008,-0.13094567791550782
-0.22860000000000008,-0.13110129615849295
-0.22960000000000008,-0.13127106151447676
-0.23060000000000008,-0.13141253264446326
-0.23160000000000008,-0.1315964451134457
-0.23260000000000008,-0.13179450469542683
-0.23360000000000009,-0.13193597582541333
-0.2346000000000001,-0.13207744695539983
-0.2356000000000001,-0.13220477097238767
-0.2366000000000001,-0.13236038921537283
-0.2376000000000001,-0.13254430168435527
-0.2386000000000001,-0.13265747858834448
-0.2396000000000001,-0.13278480260533235
-0.2406000000000001,-0.13291212662232021
-0.2416000000000001,-0.13303945063930803
-0.2426000000000001,-0.13320921599529184
-0.2436000000000001,-0.13333654001227974
-0.2446000000000001,-0.13343556980327026
-0.2456000000000001,-0.13356289382025813
-0.2466000000000001,-0.13369021783724597
-0.2476000000000001,-0.13384583608023112
-0.2486000000000001,-0.1339590129842203
-0.2496000000000001,-0.13404389566221223
-0.2506000000000001,-0.13415707256620144
-0.2516000000000001,-0.13429854369618793
-0.2526000000000001,-0.13442586771317577
-0.2536000000000001,-0.13452489750416632
-0.2546000000000001,-0.1346239272951569
-0.2556000000000001,-0.13472295708614743
-0.2566000000000001,-0.13483613399013666
-0.2576000000000001,-0.1349634580071245
-0.2586000000000001,-0.13506248779811506
-0.2596000000000001,-0.1351615175891056
-0.2606000000000001,-0.13524640026709753
-0.2616000000000001,-0.13534543005808805
-0.2626000000000001,-0.13547275407507592
-0.2636000000000001,-0.1355576367530678
-0.2646000000000001,-0.1356425194310597
-0.2656000000000001,-0.1357274021090516
-0.2666000000000001,-0.13581228478704352
-0.2676000000000001,-0.13592546169103273
-0.2686000000000001,-0.13602449148202328
-0.2696000000000001,-0.13609522704701651
-0.2706000000000001,-0.13615181549901115
-0.2716000000000001,-0.13625084529000167
-0.2726000000000001,-0.13637816930698954
-0.2736000000000001,-0.13643475775898414
-0.2746000000000001,-0.13650549332397738
-0.2756000000000001,-0.13657622888897064
-0.2766000000000001,-0.13666111156696256
-0.2776000000000001,-0.13677428847095174
-0.2786000000000001,-0.136845024035945
-0.2796000000000001,-0.13691575960093824
-0.2806000000000001,-0.13697234805293285
-0.28160000000000013,-0.13707137784392343
-0.28260000000000013,-0.13717040763491395
-0.28360000000000013,-0.13725529031290584
-0.2846,-0.13729773165190182
-0.2856,-0.13736846721689508
-0.2866,-0.13745334989488697
-0.2876,-0.13756652679887618
-0.2886,-0.13763726236386942
-0.2896,-0.13769385081586402
-0.2906,-0.13776458638085728
-0.2916,-0.13784946905884918
-0.2926,-0.13794849884983973
-0.2936,-0.13800508730183433
-0.29460000000000003,-0.13808996997982623
-0.29560000000000003,-0.1381324113188222
-0.29660000000000003,-0.13823144110981272
-0.29760000000000003,-0.13831632378780462
-0.29860000000000003,-0.1384012064657965
-0.29960000000000003,-0.1384436478047925
-0.30060000000000003,-0.13848608914378846
-0.30160000000000003,-0.138585118934779
-0.30260000000000004,-0.13868414872576956
-0.30360000000000004,-0.1387548842907628
-0.30460000000000004,-0.13879732562975874
-0.30560000000000004,-0.138868061194752
-0.30660000000000004,-0.1389529438727439
-0.30760000000000004,-0.13906612077673314
-0.30860000000000004,-0.13912270922872771
-0.30960000000000004,-0.13920759190671964
-0.31060000000000004,-0.13929247458471153
-0.31160000000000004,-0.1393773572627034
-0.31260000000000004,-0.13947638705369397
-0.31360000000000005,-0.13954712261868724
-0.31460000000000005,-0.1396037110706818
-0.31560000000000005,-0.13966029952267642
-0.31660000000000005,-0.1397451822006683
-0.31760000000000005,-0.13984421199165886
-0.31860000000000005,-0.13991494755665213
-0.31960000000000005,-0.13998568312164536
-0.32060000000000005,-0.14005641868663865
-0.32160000000000005,-0.14012715425163189
-0.32260000000000005,-0.14024033115562107
-0.32360000000000005,-0.14029691960761567
-0.32460000000000006,-0.1403676551726089
-0.32560000000000006,-0.1404383907376022
-0.32660000000000006,-0.14052327341559406
-0.32760000000000006,-0.14062230320658464
-0.32860000000000006,-0.1406930387715779
-0.32960000000000006,-0.14076377433657114
-0.33060000000000006,-0.14084865701456303
-0.33160000000000006,-0.14094768680555358
-0.33260000000000006,-0.1410608637095428
-0.33360000000000006,-0.14113159927453606
-0.33460000000000006,-0.14118818772653066
-0.33560000000000006,-0.14127307040452258
-0.33660000000000007,-0.14135795308251448
-0.33760000000000007,-0.14147112998650369
-0.33860000000000007,-0.14161260111649018
-0.33960000000000007,-0.14161260111649018
-0.34060000000000007,-0.14161260111649018
-0.34160000000000007,-0.14175407224647668
-0.34260000000000007,-0.14189554337646318
-0.34360000000000007,-0.1420370145064497
-0.3446000000000001,-0.1420370145064497
-0.3456000000000001,-0.1421784856364362
-0.3466000000000001,-0.1421784856364362
-0.34759999999999996,-0.1423199567664227
-0.3486000000000001,-0.1424614278964092
-0.34959999999999997,-0.1424614278964092
-0.3506000000000001,-0.1426028990263957
-0.35159999999999997,-0.1426028990263957
-0.3526000000000001,-0.1427443701563822
-0.35359999999999997,-0.14302731241635522
-0.3546000000000001,-0.14302731241635522
-0.35559999999999997,-0.14316878354634172
-0.3566000000000001,-0.1433102546763282
-0.3576,-0.1433102546763282
-0.3586000000000001,-0.1434517258063147
-0.3596,-0.1434517258063147
-0.3606000000000001,-0.1435931969363012
-0.3616,-0.1437346680662877
-0.3626000000000001,-0.14387613919627423
-0.3636,-0.14387613919627423
-0.3646000000000001,-0.14401761032626076
-0.3656,-0.14415908145624726
-0.3666000000000001,-0.14415908145624726
-0.3676,-0.14430055258623375
-0.3686000000000001,-0.14444202371622025
-0.3696,-0.14444202371622025
-0.3706000000000001,-0.14458349484620675
-0.3716,-0.14472496597619325
-0.3726000000000001,-0.14486643710617977
-0.3736,-0.14500790823616627
-0.3746000000000001,-0.14500790823616627
-0.3756,-0.14514937936615277
-0.3766000000000001,-0.14529085049613927
-0.3776,-0.14543232162612577
-0.3786000000000001,-0.14557379275611226
-0.3796,-0.14557379275611226
-0.3806000000000001,-0.1458567350160853
-0.3816,-0.14599820614607179
-0.3826000000000001,-0.14613967727605828
-0.3836,-0.14628114840604478
-0.3846000000000001,-0.14628114840604478
-0.3856,-0.14642261953603128
-0.3866000000000001,-0.1465640906660178
-0.3876,-0.1467055617960043
-0.3886000000000001,-0.14684703292599083
-0.3896,-0.14698850405597733
-0.3906000000000001,-0.14698850405597733
-0.3916,-0.14712997518596382
-0.3926000000000001,-0.14727144631595032
-0.3936,-0.14741291744593682
-0.3946000000000001,-0.14755438857592332
-0.3956,-0.14755438857592332
-0.3966000000000001,-0.14783733083589634
-0.3976,-0.14797880196588284
-0.3986000000000001,-0.14797880196588284
-0.3996,-0.14812027309586934
-0.4006000000000001,-0.14826174422585583
-0.4016,-0.14840321535584233
-0.4026000000000001,-0.14854468648582883
-0.4036,-0.14868615761581536
-0.4046000000000001,-0.14868615761581536
-0.4056,-0.14882762874580185
-0.40660000000000013,-0.14896909987578838
-0.4076,-0.14911057100577488
-0.40860000000000013,-0.14925204213576138
-0.4096,-0.14939351326574787
-0.41060000000000013,-0.14953498439573437
-0.4116,-0.1496764555257209
-0.41260000000000013,-0.1498179266557074
-0.4136,-0.1502423400456669
-0.41460000000000014,-0.1503838111756534
-0.4156,-0.15052528230563988
-0.41660000000000014,-0.1506667534356264
-0.4176,-0.1508082245656129
-0.41860000000000014,-0.1509496956955994
-0.41960000000000003,-0.1510911668255859
-0.42060000000000014,-0.1512326379555724
-0.42160000000000003,-0.1513741090855589
-0.42260000000000014,-0.15151558021554543
-0.42360000000000003,-0.15165705134553195
-0.42460000000000014,-0.15179852247551845
-0.42560000000000003,-0.15193999360550495
-0.42660000000000015,-0.15208146473549145
-0.42760000000000004,-0.15222293586547794
-0.42860000000000015,-0.15236440699546444
-0.42960000000000004,-0.15250587812545094
-0.43060000000000015,-0.15264734925543746
-0.43160000000000004,-0.15278882038542396
-0.43260000000000015,-0.15307176264539696
-0.43360000000000004,-0.15321323377538346
-0.43460000000000015,-0.15335470490536995
-0.43560000000000004,-0.15349617603535648
