Apr. 3, 2025   09:42:06
Linear Sweep Voltammetry
File: c:/users/guazh/data/banditlqround7_x0exp518_r20/2025-03-28-exp1028\post-regen1-2025-04-03t09_38_54-lsvinphos\post-regen1_lsv_50mvs_efin_-2300mv.bin
Data Source:  Experiment
Instrument Model:  CHI760E
Header: LSV ran at 50 mVs with Efin at -2300mV
Note: 

Init E (V) = -0.6
Final E (V) = -2.3
Scan Rate (V/s) = 0.05
Sample Interval (V) = 0.001
Quiet Time (sec) = 2
Sensitivity (A/V) = 1e-4
Comp R (ohm) = 8.9

Results:

Channel 1:
Ep = -0.941V
ip = 1.155e-4A
Ah = 2.421e-4C

Ep = -1.539V
ip = 5.598e-4A
Ah = 8.292e-4C

Potential/V, Current/A

-0.600, 1.185e-5
-0.601, 1.741e-5
-0.602, 2.224e-5
-0.603, 2.492e-5
-0.604, 2.645e-5
-0.605, 2.743e-5
-0.606, 2.810e-5
-0.607, 2.856e-5
-0.608, 2.898e-5
-0.609, 2.932e-5
-0.610, 2.958e-5
-0.611, 2.982e-5
-0.612, 3.000e-5
-0.613, 3.021e-5
-0.614, 3.042e-5
-0.615, 3.060e-5
-0.616, 3.073e-5
-0.617, 3.082e-5
-0.618, 3.095e-5
-0.619, 3.110e-5
-0.620, 3.117e-5
-0.621, 3.129e-5
-0.622, 3.141e-5
-0.623, 3.150e-5
-0.624, 3.163e-5
-0.625, 3.170e-5
-0.626, 3.175e-5
-0.627, 3.186e-5
-0.628, 3.195e-5
-0.629, 3.205e-5
-0.630, 3.212e-5
-0.631, 3.217e-5
-0.632, 3.226e-5
-0.633, 3.234e-5
-0.634, 3.242e-5
-0.635, 3.250e-5
-0.636, 3.254e-5
-0.637, 3.260e-5
-0.638, 3.267e-5
-0.639, 3.276e-5
-0.640, 3.284e-5
-0.641, 3.289e-5
-0.642, 3.291e-5
-0.643, 3.298e-5
-0.644, 3.306e-5
-0.645, 3.313e-5
-0.646, 3.318e-5
-0.647, 3.324e-5
-0.648, 3.331e-5
-0.649, 3.339e-5
-0.650, 3.344e-5
-0.651, 3.350e-5
-0.652, 3.355e-5
-0.653, 3.365e-5
-0.654, 3.373e-5
-0.655, 3.378e-5
-0.656, 3.383e-5
-0.657, 3.390e-5
-0.658, 3.398e-5
-0.659, 3.407e-5
-0.660, 3.412e-5
-0.661, 3.420e-5
-0.662, 3.428e-5
-0.663, 3.436e-5
-0.664, 3.446e-5
-0.665, 3.454e-5
-0.666, 3.468e-5
-0.667, 3.476e-5
-0.668, 3.482e-5
-0.669, 3.492e-5
-0.670, 3.501e-5
-0.671, 3.509e-5
-0.672, 3.520e-5
-0.673, 3.531e-5
-0.674, 3.543e-5
-0.675, 3.557e-5
-0.676, 3.565e-5
-0.677, 3.577e-5
-0.678, 3.592e-5
-0.679, 3.605e-5
-0.680, 3.621e-5
-0.681, 3.634e-5
-0.682, 3.648e-5
-0.683, 3.666e-5
-0.684, 3.682e-5
-0.685, 3.700e-5
-0.686, 3.716e-5
-0.687, 3.733e-5
-0.688, 3.754e-5
-0.689, 3.774e-5
-0.690, 3.791e-5
-0.691, 3.812e-5
-0.692, 3.831e-5
-0.693, 3.855e-5
-0.694, 3.879e-5
-0.695, 3.900e-5
-0.696, 3.923e-5
-0.697, 3.946e-5
-0.698, 3.973e-5
-0.699, 4.002e-5
-0.700, 4.026e-5
-0.701, 4.051e-5
-0.702, 4.082e-5
-0.703, 4.111e-5
-0.704, 4.144e-5
-0.705, 4.174e-5
-0.706, 4.201e-5
-0.707, 4.235e-5
-0.708, 4.268e-5
-0.709, 4.303e-5
-0.710, 4.337e-5
-0.711, 4.369e-5
-0.712, 4.405e-5
-0.713, 4.441e-5
-0.714, 4.479e-5
-0.715, 4.518e-5
-0.716, 4.555e-5
-0.717, 4.594e-5
-0.718, 4.635e-5
-0.719, 4.673e-5
-0.720, 4.714e-5
-0.721, 4.754e-5
-0.722, 4.794e-5
-0.723, 4.840e-5
-0.724, 4.882e-5
-0.725, 4.925e-5
-0.726, 4.968e-5
-0.727, 5.010e-5
-0.728, 5.055e-5
-0.729, 5.101e-5
-0.730, 5.146e-5
-0.731, 5.191e-5
-0.732, 5.233e-5
-0.733, 5.282e-5
-0.734, 5.331e-5
-0.735, 5.375e-5
-0.736, 5.422e-5
-0.737, 5.470e-5
-0.738, 5.517e-5
-0.739, 5.569e-5
-0.740, 5.613e-5
-0.741, 5.662e-5
-0.742, 5.711e-5
-0.743, 5.762e-5
-0.744, 5.813e-5
-0.745, 5.861e-5
-0.746, 5.909e-5
-0.747, 5.958e-5
-0.748, 6.009e-5
-0.749, 6.062e-5
-0.750, 6.115e-5
-0.751, 6.163e-5
-0.752, 6.214e-5
-0.753, 6.268e-5
-0.754, 6.323e-5
-0.755, 6.377e-5
-0.756, 6.428e-5
-0.757, 6.482e-5
-0.758, 6.538e-5
-0.759, 6.592e-5
-0.760, 6.650e-5
-0.761, 6.703e-5
-0.762, 6.758e-5
-0.763, 6.817e-5
-0.764, 6.877e-5
-0.765, 6.936e-5
-0.766, 6.993e-5
-0.767, 7.052e-5
-0.768, 7.117e-5
-0.769, 7.182e-5
-0.770, 7.241e-5
-0.771, 7.300e-5
-0.772, 7.360e-5
-0.773, 7.424e-5
-0.774, 7.489e-5
-0.775, 7.550e-5
-0.776, 7.614e-5
-0.777, 7.677e-5
-0.778, 7.744e-5
-0.779, 7.812e-5
-0.780, 7.878e-5
-0.781, 7.945e-5
-0.782, 8.010e-5
-0.783, 8.080e-5
-0.784, 8.150e-5
-0.785, 8.217e-5
-0.786, 8.286e-5
-0.787, 8.356e-5
-0.788, 8.425e-5
-0.789, 8.496e-5
-0.790, 8.568e-5
-0.791, 8.635e-5
-0.792, 8.710e-5
-0.793, 8.782e-5
-0.794, 8.856e-5
-0.795, 8.929e-5
-0.796, 8.997e-5
-0.797, 9.069e-5
-0.798, 9.142e-5
-0.799, 9.213e-5
-0.800, 9.286e-5
-0.801, 9.358e-5
-0.802, 9.429e-5
-0.803, 9.504e-5
-0.804, 9.578e-5
-0.805, 9.651e-5
-0.806, 9.725e-5
-0.807, 9.798e-5
-0.808, 9.873e-5
-0.809, 9.947e-5
-0.810, 1.002e-4
-0.811, 1.009e-4
-0.812, 1.017e-4
-0.813, 1.024e-4
-0.814, 1.032e-4
-0.815, 1.040e-4
-0.816, 1.047e-4
-0.817, 1.055e-4
-0.818, 1.062e-4
-0.819, 1.071e-4
-0.820, 1.080e-4
-0.821, 1.087e-4
-0.822, 1.094e-4
-0.823, 1.102e-4
-0.824, 1.110e-4
-0.825, 1.118e-4
-0.826, 1.125e-4
-0.827, 1.133e-4
-0.828, 1.141e-4
-0.829, 1.150e-4
-0.830, 1.158e-4
-0.831, 1.166e-4
-0.832, 1.174e-4
-0.833, 1.183e-4
-0.834, 1.191e-4
-0.835, 1.200e-4
-0.836, 1.208e-4
-0.837, 1.217e-4
-0.838, 1.226e-4
-0.839, 1.235e-4
-0.840, 1.244e-4
-0.841, 1.253e-4
-0.842, 1.262e-4
-0.843, 1.272e-4
-0.844, 1.281e-4
-0.845, 1.290e-4
-0.846, 1.300e-4
-0.847, 1.309e-4
-0.848, 1.319e-4
-0.849, 1.329e-4
-0.850, 1.339e-4
-0.851, 1.349e-4
-0.852, 1.359e-4
-0.853, 1.369e-4
-0.854, 1.380e-4
-0.855, 1.389e-4
-0.856, 1.400e-4
-0.857, 1.410e-4
-0.858, 1.421e-4
-0.859, 1.432e-4
-0.860, 1.442e-4
-0.861, 1.453e-4
-0.862, 1.463e-4
-0.863, 1.474e-4
-0.864, 1.485e-4
-0.865, 1.496e-4
-0.866, 1.507e-4
-0.867, 1.518e-4
-0.868, 1.529e-4
-0.869, 1.540e-4
-0.870, 1.551e-4
-0.871, 1.563e-4
-0.872, 1.574e-4
-0.873, 1.585e-4
-0.874, 1.596e-4
-0.875, 1.608e-4
-0.876, 1.619e-4
-0.877, 1.630e-4
-0.878, 1.641e-4
-0.879, 1.653e-4
-0.880, 1.664e-4
-0.881, 1.675e-4
-0.882, 1.686e-4
-0.883, 1.698e-4
-0.884, 1.709e-4
-0.885, 1.720e-4
-0.886, 1.731e-4
-0.887, 1.742e-4
-0.888, 1.754e-4
-0.889, 1.765e-4
-0.890, 1.776e-4
-0.891, 1.786e-4
-0.892, 1.797e-4
-0.893, 1.808e-4
-0.894, 1.819e-4
-0.895, 1.830e-4
-0.896, 1.840e-4
-0.897, 1.851e-4
-0.898, 1.861e-4
-0.899, 1.871e-4
-0.900, 1.881e-4
-0.901, 1.891e-4
-0.902, 1.901e-4
-0.903, 1.911e-4
-0.904, 1.920e-4
-0.905, 1.929e-4
-0.906, 1.938e-4
-0.907, 1.947e-4
-0.908, 1.956e-4
-0.909, 1.965e-4
-0.910, 1.973e-4
-0.911, 1.981e-4
-0.912, 1.989e-4
-0.913, 1.997e-4
-0.914, 2.004e-4
-0.915, 2.012e-4
-0.916, 2.018e-4
-0.917, 2.025e-4
-0.918, 2.031e-4
-0.919, 2.037e-4
-0.920, 2.043e-4
-0.921, 2.048e-4
-0.922, 2.054e-4
-0.923, 2.059e-4
-0.924, 2.063e-4
-0.925, 2.068e-4
-0.926, 2.072e-4
-0.927, 2.075e-4
-0.928, 2.079e-4
-0.929, 2.082e-4
-0.930, 2.085e-4
-0.931, 2.088e-4
-0.932, 2.090e-4
-0.933, 2.092e-4
-0.934, 2.094e-4
-0.935, 2.095e-4
-0.936, 2.096e-4
-0.937, 2.097e-4
-0.938, 2.098e-4
-0.939, 2.099e-4
-0.940, 2.099e-4
-0.941, 2.099e-4
-0.942, 2.099e-4
-0.943, 2.098e-4
-0.944, 2.098e-4
-0.945, 2.097e-4
-0.946, 2.096e-4
-0.947, 2.096e-4
-0.948, 2.094e-4
-0.949, 2.093e-4
-0.950, 2.092e-4
-0.951, 2.090e-4
-0.952, 2.088e-4
-0.953, 2.087e-4
-0.954, 2.085e-4
-0.955, 2.083e-4
-0.956, 2.080e-4
-0.957, 2.078e-4
-0.958, 2.075e-4
-0.959, 2.073e-4
-0.960, 2.070e-4
-0.961, 2.068e-4
-0.962, 2.065e-4
-0.963, 2.063e-4
-0.964, 2.060e-4
-0.965, 2.058e-4
-0.966, 2.055e-4
-0.967, 2.052e-4
-0.968, 2.050e-4
-0.969, 2.048e-4
-0.970, 2.045e-4
-0.971, 2.043e-4
-0.972, 2.040e-4
-0.973, 2.039e-4
-0.974, 2.037e-4
-0.975, 2.034e-4
-0.976, 2.032e-4
-0.977, 2.030e-4
-0.978, 2.029e-4
-0.979, 2.028e-4
-0.980, 2.026e-4
-0.981, 2.025e-4
-0.982, 2.024e-4
-0.983, 2.023e-4
-0.984, 2.023e-4
-0.985, 2.023e-4
-0.986, 2.023e-4
-0.987, 2.023e-4
-0.988, 2.024e-4
-0.989, 2.025e-4
-0.990, 2.026e-4
-0.991, 2.026e-4
-0.992, 2.028e-4
-0.993, 2.029e-4
-0.994, 2.031e-4
-0.995, 2.033e-4
-0.996, 2.035e-4
-0.997, 2.037e-4
-0.998, 2.040e-4
-0.999, 2.042e-4
-1.000, 2.045e-4
-1.001, 2.048e-4
-1.002, 2.051e-4
-1.003, 2.055e-4
-1.004, 2.058e-4
-1.005, 2.062e-4
-1.006, 2.065e-4
-1.007, 2.069e-4
-1.008, 2.074e-4
-1.009, 2.078e-4
-1.010, 2.082e-4
-1.011, 2.086e-4
-1.012, 2.091e-4
-1.013, 2.095e-4
-1.014, 2.100e-4
-1.015, 2.105e-4
-1.016, 2.110e-4
-1.017, 2.114e-4
-1.018, 2.119e-4
-1.019, 2.124e-4
-1.020, 2.129e-4
-1.021, 2.134e-4
-1.022, 2.140e-4
-1.023, 2.145e-4
-1.024, 2.150e-4
-1.025, 2.156e-4
-1.026, 2.161e-4
-1.027, 2.166e-4
-1.028, 2.171e-4
-1.029, 2.176e-4
-1.030, 2.182e-4
-1.031, 2.186e-4
-1.032, 2.192e-4
-1.033, 2.197e-4
-1.034, 2.202e-4
-1.035, 2.207e-4
-1.036, 2.212e-4
-1.037, 2.217e-4
-1.038, 2.222e-4
-1.039, 2.227e-4
-1.040, 2.232e-4
-1.041, 2.237e-4
-1.042, 2.241e-4
-1.043, 2.246e-4
-1.044, 2.250e-4
-1.045, 2.255e-4
-1.046, 2.259e-4
-1.047, 2.263e-4
-1.048, 2.268e-4
-1.049, 2.272e-4
-1.050, 2.276e-4
-1.051, 2.280e-4
-1.052, 2.283e-4
-1.053, 2.287e-4
-1.054, 2.291e-4
-1.055, 2.294e-4
-1.056, 2.297e-4
-1.057, 2.301e-4
-1.058, 2.304e-4
-1.059, 2.307e-4
-1.060, 2.309e-4
-1.061, 2.312e-4
-1.062, 2.315e-4
-1.063, 2.318e-4
-1.064, 2.320e-4
-1.065, 2.322e-4
-1.066, 2.324e-4
-1.067, 2.326e-4
-1.068, 2.328e-4
-1.069, 2.330e-4
-1.070, 2.332e-4
-1.071, 2.333e-4
-1.072, 2.335e-4
-1.073, 2.336e-4
-1.074, 2.338e-4
-1.075, 2.340e-4
-1.076, 2.341e-4
-1.077, 2.342e-4
-1.078, 2.343e-4
-1.079, 2.344e-4
-1.080, 2.345e-4
-1.081, 2.345e-4
-1.082, 2.346e-4
-1.083, 2.347e-4
-1.084, 2.347e-4
-1.085, 2.347e-4
-1.086, 2.348e-4
-1.087, 2.348e-4
-1.088, 2.348e-4
-1.089, 2.348e-4
-1.090, 2.348e-4
-1.091, 2.348e-4
-1.092, 2.348e-4
-1.093, 2.349e-4
-1.094, 2.349e-4
-1.095, 2.349e-4
-1.096, 2.349e-4
-1.097, 2.349e-4
-1.098, 2.349e-4
-1.099, 2.349e-4
-1.100, 2.349e-4
-1.101, 2.348e-4
-1.102, 2.348e-4
-1.103, 2.348e-4
-1.104, 2.348e-4
-1.105, 2.347e-4
-1.106, 2.347e-4
-1.107, 2.346e-4
-1.108, 2.346e-4
-1.109, 2.346e-4
-1.110, 2.346e-4
-1.111, 2.345e-4
-1.112, 2.345e-4
-1.113, 2.345e-4
-1.114, 2.345e-4
-1.115, 2.345e-4
-1.116, 2.344e-4
-1.117, 2.344e-4
-1.118, 2.344e-4
-1.119, 2.343e-4
-1.120, 2.343e-4
-1.121, 2.343e-4
-1.122, 2.342e-4
-1.123, 2.342e-4
-1.124, 2.342e-4
-1.125, 2.342e-4
-1.126, 2.341e-4
-1.127, 2.341e-4
-1.128, 2.341e-4
-1.129, 2.342e-4
-1.130, 2.342e-4
-1.131, 2.342e-4
-1.132, 2.342e-4
-1.133, 2.343e-4
-1.134, 2.343e-4
-1.135, 2.344e-4
-1.136, 2.345e-4
-1.137, 2.347e-4
-1.138, 2.348e-4
-1.139, 2.349e-4
-1.140, 2.351e-4
-1.141, 2.352e-4
-1.142, 2.354e-4
-1.143, 2.355e-4
-1.144, 2.357e-4
-1.145, 2.362e-4
-1.146, 2.369e-4
-1.147, 2.374e-4
-1.148, 2.374e-4
-1.149, 2.372e-4
-1.150, 2.374e-4
-1.151, 2.379e-4
-1.152, 2.386e-4
-1.153, 2.387e-4
-1.154, 2.389e-4
-1.155, 2.391e-4
-1.156, 2.396e-4
-1.157, 2.399e-4
-1.158, 2.403e-4
-1.159, 2.407e-4
-1.160, 2.410e-4
-1.161, 2.413e-4
-1.162, 2.416e-4
-1.163, 2.422e-4
-1.164, 2.427e-4
-1.165, 2.431e-4
-1.166, 2.434e-4
-1.167, 2.438e-4
-1.168, 2.442e-4
-1.169, 2.445e-4
-1.170, 2.448e-4
-1.171, 2.452e-4
-1.172, 2.457e-4
-1.173, 2.463e-4
-1.174, 2.469e-4
-1.175, 2.473e-4
-1.176, 2.478e-4
-1.177, 2.481e-4
-1.178, 2.489e-4
-1.179, 2.494e-4
-1.180, 2.498e-4
-1.181, 2.504e-4
-1.182, 2.509e-4
-1.183, 2.514e-4
-1.184, 2.517e-4
-1.185, 2.522e-4
-1.186, 2.528e-4
-1.187, 2.534e-4
-1.188, 2.541e-4
-1.189, 2.549e-4
-1.190, 2.559e-4
-1.191, 2.570e-4
-1.192, 2.578e-4
-1.193, 2.580e-4
-1.194, 2.583e-4
-1.195, 2.583e-4
-1.196, 2.588e-4
-1.197, 2.592e-4
-1.198, 2.597e-4
-1.199, 2.603e-4
-1.200, 2.613e-4
-1.201, 2.622e-4
-1.202, 2.628e-4
-1.203, 2.636e-4
-1.204, 2.642e-4
-1.205, 2.649e-4
-1.206, 2.656e-4
-1.207, 2.663e-4
-1.208, 2.668e-4
-1.209, 2.675e-4
-1.210, 2.682e-4
-1.211, 2.691e-4
-1.212, 2.696e-4
-1.213, 2.704e-4
-1.214, 2.712e-4
-1.215, 2.720e-4
-1.216, 2.727e-4
-1.217, 2.736e-4
-1.218, 2.743e-4
-1.219, 2.749e-4
-1.220, 2.758e-4
-1.221, 2.767e-4
-1.222, 2.777e-4
-1.223, 2.789e-4
-1.224, 2.796e-4
-1.225, 2.806e-4
-1.226, 2.812e-4
-1.227, 2.815e-4
-1.228, 2.821e-4
-1.229, 2.830e-4
-1.230, 2.835e-4
-1.231, 2.841e-4
-1.232, 2.845e-4
-1.233, 2.853e-4
-1.234, 2.859e-4
-1.235, 2.862e-4
-1.236, 2.867e-4
-1.237, 2.872e-4
-1.238, 2.882e-4
-1.239, 2.889e-4
-1.240, 2.894e-4
-1.241, 2.899e-4
-1.242, 2.905e-4
-1.243, 2.914e-4
-1.244, 2.922e-4
-1.245, 2.927e-4
-1.246, 2.931e-4
-1.247, 2.934e-4
-1.248, 2.938e-4
-1.249, 2.942e-4
-1.250, 2.946e-4
-1.251, 2.951e-4
-1.252, 2.955e-4
-1.253, 2.959e-4
-1.254, 2.964e-4
-1.255, 2.970e-4
-1.256, 2.977e-4
-1.257, 2.986e-4
-1.258, 2.990e-4
-1.259, 2.994e-4
-1.260, 2.998e-4
-1.261, 3.003e-4
-1.262, 3.009e-4
-1.263, 3.015e-4
-1.264, 3.020e-4
-1.265, 3.025e-4
-1.266, 3.031e-4
-1.267, 3.036e-4
-1.268, 3.042e-4
-1.269, 3.048e-4
-1.270, 3.054e-4
-1.271, 3.060e-4
-1.272, 3.065e-4
-1.273, 3.070e-4
-1.274, 3.076e-4
-1.275, 3.082e-4
-1.276, 3.087e-4
-1.277, 3.092e-4
-1.278, 3.098e-4
-1.279, 3.103e-4
-1.280, 3.109e-4
-1.281, 3.115e-4
-1.282, 3.120e-4
-1.283, 3.125e-4
-1.284, 3.130e-4
-1.285, 3.136e-4
-1.286, 3.141e-4
-1.287, 3.146e-4
-1.288, 3.151e-4
-1.289, 3.157e-4
-1.290, 3.162e-4
-1.291, 3.167e-4
-1.292, 3.172e-4
-1.293, 3.177e-4
-1.294, 3.182e-4
-1.295, 3.187e-4
-1.296, 3.192e-4
-1.297, 3.197e-4
-1.298, 3.202e-4
-1.299, 3.207e-4
-1.300, 3.212e-4
-1.301, 3.218e-4
-1.302, 3.225e-4
-1.303, 3.232e-4
-1.304, 3.236e-4
-1.305, 3.239e-4
-1.306, 3.245e-4
-1.307, 3.250e-4
-1.308, 3.257e-4
-1.309, 3.263e-4
-1.310, 3.269e-4
-1.311, 3.274e-4
-1.312, 3.279e-4
-1.313, 3.284e-4
-1.314, 3.289e-4
-1.315, 3.295e-4
-1.316, 3.300e-4
-1.317, 3.305e-4
-1.318, 3.311e-4
-1.319, 3.317e-4
-1.320, 3.322e-4
-1.321, 3.328e-4
-1.322, 3.333e-4
-1.323, 3.339e-4
-1.324, 3.345e-4
-1.325, 3.352e-4
-1.326, 3.358e-4
-1.327, 3.364e-4
-1.328, 3.371e-4
-1.329, 3.378e-4
-1.330, 3.384e-4
-1.331, 3.391e-4
-1.332, 3.398e-4
-1.333, 3.406e-4
-1.334, 3.413e-4
-1.335, 3.421e-4
-1.336, 3.430e-4
-1.337, 3.437e-4
-1.338, 3.444e-4
-1.339, 3.453e-4
-1.340, 3.460e-4
-1.341, 3.468e-4
-1.342, 3.477e-4
-1.343, 3.486e-4
-1.344, 3.495e-4
-1.345, 3.504e-4
-1.346, 3.513e-4
-1.347, 3.523e-4
-1.348, 3.532e-4
-1.349, 3.542e-4
-1.350, 3.553e-4
-1.351, 3.563e-4
-1.352, 3.573e-4
-1.353, 3.584e-4
-1.354, 3.596e-4
-1.355, 3.607e-4
-1.356, 3.619e-4
-1.357, 3.630e-4
-1.358, 3.643e-4
-1.359, 3.655e-4
-1.360, 3.668e-4
-1.361, 3.680e-4
-1.362, 3.693e-4
-1.363, 3.707e-4
-1.364, 3.721e-4
-1.365, 3.735e-4
-1.366, 3.749e-4
-1.367, 3.764e-4
-1.368, 3.779e-4
-1.369, 3.794e-4
-1.370, 3.810e-4
-1.371, 3.825e-4
-1.372, 3.841e-4
-1.373, 3.857e-4
-1.374, 3.874e-4
-1.375, 3.890e-4
-1.376, 3.908e-4
-1.377, 3.925e-4
-1.378, 3.943e-4
-1.379, 3.962e-4
-1.380, 3.979e-4
-1.381, 3.998e-4
-1.382, 4.017e-4
-1.383, 4.036e-4
-1.384, 4.056e-4
-1.385, 4.075e-4
-1.386, 4.095e-4
-1.387, 4.116e-4
-1.388, 4.137e-4
-1.389, 4.159e-4
-1.390, 4.180e-4
-1.391, 4.202e-4
-1.392, 4.225e-4
-1.393, 4.248e-4
-1.394, 4.269e-4
-1.395, 4.292e-4
-1.396, 4.317e-4
-1.397, 4.341e-4
-1.398, 4.366e-4
-1.399, 4.392e-4
-1.400, 4.417e-4
-1.401, 4.443e-4
-1.402, 4.468e-4
-1.403, 4.495e-4
-1.404, 4.520e-4
-1.405, 4.546e-4
-1.406, 4.571e-4
-1.407, 4.598e-4
-1.408, 4.625e-4
-1.409, 4.652e-4
-1.410, 4.679e-4
-1.411, 4.708e-4
-1.412, 4.736e-4
-1.413, 4.766e-4
-1.414, 4.794e-4
-1.415, 4.822e-4
-1.416, 4.852e-4
-1.417, 4.881e-4
-1.418, 4.910e-4
-1.419, 4.940e-4
-1.420, 4.970e-4
-1.421, 5.000e-4
-1.422, 5.031e-4
-1.423, 5.061e-4
-1.424, 5.092e-4
-1.425, 5.122e-4
-1.426, 5.154e-4
-1.427, 5.186e-4
-1.428, 5.218e-4
-1.429, 5.250e-4
-1.430, 5.283e-4
-1.431, 5.315e-4
-1.432, 5.349e-4
-1.433, 5.382e-4
-1.434, 5.417e-4
-1.435, 5.451e-4
-1.436, 5.486e-4
-1.437, 5.520e-4
-1.438, 5.556e-4
-1.439, 5.592e-4
-1.440, 5.628e-4
-1.441, 5.664e-4
-1.442, 5.702e-4
-1.443, 5.739e-4
-1.444, 5.777e-4
-1.445, 5.815e-4
-1.446, 5.853e-4
-1.447, 5.892e-4
-1.448, 5.931e-4
-1.449, 5.971e-4
-1.450, 6.010e-4
-1.451, 6.051e-4
-1.452, 6.092e-4
-1.453, 6.132e-4
-1.454, 6.173e-4
-1.455, 6.214e-4
-1.456, 6.255e-4
-1.457, 6.295e-4
-1.458, 6.338e-4
-1.459, 6.380e-4
-1.460, 6.423e-4
-1.461, 6.465e-4
-1.462, 6.509e-4
-1.463, 6.552e-4
-1.464, 6.595e-4
-1.465, 6.639e-4
-1.466, 6.683e-4
-1.467, 6.726e-4
-1.468, 6.770e-4
-1.469, 6.814e-4
-1.470, 6.857e-4
-1.471, 6.899e-4
-1.472, 6.943e-4
-1.473, 6.987e-4
-1.474, 7.030e-4
-1.475, 7.073e-4
-1.476, 7.118e-4
-1.477, 7.162e-4
-1.478, 7.208e-4
-1.479, 7.253e-4
-1.480, 7.299e-4
-1.481, 7.344e-4
-1.482, 7.390e-4
-1.483, 7.437e-4
-1.484, 7.483e-4
-1.485, 7.529e-4
-1.486, 7.576e-4
-1.487, 7.622e-4
-1.488, 7.669e-4
-1.489, 7.715e-4
-1.490, 7.761e-4
-1.491, 7.806e-4
-1.492, 7.851e-4
-1.493, 7.897e-4
-1.494, 7.943e-4
-1.495, 7.989e-4
-1.496, 8.035e-4
-1.497, 8.081e-4
-1.498, 8.127e-4
-1.499, 8.174e-4
-1.500, 8.219e-4
-1.501, 8.264e-4
-1.502, 8.311e-4
-1.503, 8.362e-4
-1.504, 8.430e-4
-1.505, 8.480e-4
-1.506, 8.526e-4
-1.507, 8.573e-4
-1.508, 8.618e-4
-1.509, 8.664e-4
-1.510, 8.712e-4
-1.511, 8.760e-4
-1.512, 8.807e-4
-1.513, 8.856e-4
-1.514, 8.905e-4
-1.515, 8.954e-4
-1.516, 9.004e-4
-1.517, 9.054e-4
-1.518, 9.104e-4
-1.519, 9.156e-4
-1.520, 9.208e-4
-1.521, 9.259e-4
-1.522, 9.309e-4
-1.523, 9.361e-4
-1.524, 9.413e-4
-1.525, 9.464e-4
-1.526, 9.515e-4
-1.527, 9.567e-4
-1.528, 9.618e-4
-1.529, 9.669e-4
-1.530, 9.719e-4
-1.531, 9.770e-4
-1.532, 9.822e-4
-1.533, 9.874e-4
-1.534, 9.925e-4
-1.535, 9.976e-4
-1.536, 1.003e-3
-1.537, 1.008e-3
-1.538, 1.011e-3
-1.539, 1.011e-3
-1.540, 1.011e-3
-1.541, 1.011e-3
-1.542, 1.011e-3
-1.543, 1.011e-3
-1.544, 1.011e-3
-1.545, 1.011e-3
-1.546, 1.011e-3
-1.547, 1.011e-3
-1.548, 1.011e-3
-1.549, 1.011e-3
-1.550, 1.011e-3
-1.551, 1.011e-3
-1.552, 1.011e-3
-1.553, 1.011e-3
-1.554, 1.011e-3
-1.555, 1.011e-3
-1.556, 1.011e-3
-1.557, 1.011e-3
-1.558, 1.011e-3
-1.559, 1.011e-3
-1.560, 1.011e-3
-1.561, 1.011e-3
-1.562, 1.011e-3
-1.563, 1.011e-3
-1.564, 1.011e-3
-1.565, 1.011e-3
-1.566, 1.011e-3
-1.567, 1.011e-3
-1.568, 1.011e-3
-1.569, 1.011e-3
-1.570, 1.011e-3
-1.571, 1.011e-3
-1.572, 1.011e-3
-1.573, 1.011e-3
-1.574, 1.011e-3
-1.575, 1.011e-3
-1.576, 1.011e-3
-1.577, 1.011e-3
-1.578, 1.011e-3
-1.579, 1.011e-3
-1.580, 1.011e-3
-1.581, 1.011e-3
-1.582, 1.011e-3
-1.583, 1.011e-3
-1.584, 1.011e-3
-1.585, 1.011e-3
-1.586, 1.011e-3
-1.587, 1.011e-3
-1.588, 1.011e-3
-1.589, 1.011e-3
-1.590, 1.011e-3
-1.591, 1.011e-3
-1.592, 1.011e-3
-1.593, 1.011e-3
-1.594, 1.011e-3
-1.595, 1.011e-3
-1.596, 1.011e-3
-1.597, 1.011e-3
-1.598, 1.011e-3
-1.599, 1.011e-3
-1.600, 1.011e-3
-1.601, 1.011e-3
-1.602, 1.011e-3
-1.603, 1.011e-3
-1.604, 1.011e-3
-1.605, 1.011e-3
-1.606, 1.011e-3
-1.607, 1.011e-3
-1.608, 1.011e-3
-1.609, 1.011e-3
-1.610, 1.011e-3
-1.611, 1.011e-3
-1.612, 1.011e-3
-1.613, 1.011e-3
-1.614, 1.011e-3
-1.615, 1.011e-3
-1.616, 1.011e-3
-1.617, 1.011e-3
-1.618, 1.011e-3
-1.619, 1.011e-3
-1.620, 1.011e-3
-1.621, 1.011e-3
-1.622, 1.011e-3
-1.623, 1.011e-3
-1.624, 1.011e-3
-1.625, 1.011e-3
-1.626, 1.011e-3
-1.627, 1.011e-3
-1.628, 1.011e-3
-1.629, 1.011e-3
-1.630, 1.011e-3
-1.631, 1.011e-3
-1.632, 1.011e-3
-1.633, 1.011e-3
-1.634, 1.011e-3
-1.635, 1.011e-3
-1.636, 1.011e-3
-1.637, 1.011e-3
-1.638, 1.011e-3
-1.639, 1.011e-3
-1.640, 1.011e-3
-1.641, 1.011e-3
-1.642, 1.011e-3
-1.643, 1.011e-3
-1.644, 1.011e-3
-1.645, 1.011e-3
-1.646, 1.011e-3
-1.647, 1.011e-3
-1.648, 1.011e-3
-1.649, 1.011e-3
-1.650, 1.011e-3
-1.651, 1.011e-3
-1.652, 1.011e-3
-1.653, 1.011e-3
-1.654, 1.011e-3
-1.655, 1.011e-3
-1.656, 1.011e-3
-1.657, 1.011e-3
-1.658, 1.011e-3
-1.659, 1.011e-3
-1.660, 1.011e-3
-1.661, 1.011e-3
-1.662, 1.011e-3
-1.663, 1.011e-3
-1.664, 1.011e-3
-1.665, 1.011e-3
-1.666, 1.011e-3
-1.667, 1.011e-3
-1.668, 1.011e-3
-1.669, 1.011e-3
-1.670, 1.011e-3
-1.671, 1.011e-3
-1.672, 1.011e-3
-1.673, 1.011e-3
-1.674, 1.011e-3
-1.675, 1.011e-3
-1.676, 1.011e-3
-1.677, 1.011e-3
-1.678, 1.011e-3
-1.679, 1.011e-3
-1.680, 1.011e-3
-1.681, 1.011e-3
-1.682, 1.011e-3
-1.683, 1.011e-3
-1.684, 1.011e-3
-1.685, 1.011e-3
-1.686, 1.011e-3
-1.687, 1.011e-3
-1.688, 1.011e-3
-1.689, 1.011e-3
-1.690, 1.011e-3
-1.691, 1.011e-3
-1.692, 1.011e-3
-1.693, 1.011e-3
-1.694, 1.011e-3
-1.695, 1.011e-3
-1.696, 1.011e-3
-1.697, 1.011e-3
-1.698, 1.011e-3
-1.699, 1.011e-3
-1.700, 1.011e-3
-1.701, 1.011e-3
-1.702, 1.011e-3
-1.703, 1.011e-3
-1.704, 1.011e-3
-1.705, 1.011e-3
-1.706, 1.011e-3
-1.707, 1.011e-3
-1.708, 1.011e-3
-1.709, 1.011e-3
-1.710, 1.011e-3
-1.711, 1.011e-3
-1.712, 1.011e-3
-1.713, 1.011e-3
-1.714, 1.011e-3
-1.715, 1.011e-3
-1.716, 1.011e-3
-1.717, 1.011e-3
-1.718, 1.011e-3
-1.719, 1.011e-3
-1.720, 1.011e-3
-1.721, 1.011e-3
-1.722, 1.011e-3
-1.723, 1.011e-3
-1.724, 1.011e-3
-1.725, 1.011e-3
-1.726, 1.011e-3
-1.727, 1.011e-3
-1.728, 1.011e-3
-1.729, 1.011e-3
-1.730, 1.011e-3
-1.731, 1.011e-3
-1.732, 1.011e-3
-1.733, 1.011e-3
-1.734, 1.011e-3
-1.735, 1.011e-3
-1.736, 1.011e-3
-1.737, 1.011e-3
-1.738, 1.011e-3
-1.739, 1.011e-3
-1.740, 1.011e-3
-1.741, 1.011e-3
-1.742, 1.011e-3
-1.743, 1.011e-3
-1.744, 1.011e-3
-1.745, 1.011e-3
-1.746, 1.011e-3
-1.747, 1.011e-3
-1.748, 1.011e-3
-1.749, 1.011e-3
-1.750, 1.011e-3
-1.751, 1.011e-3
-1.752, 1.011e-3
-1.753, 1.011e-3
-1.754, 1.011e-3
-1.755, 1.011e-3
-1.756, 1.011e-3
-1.757, 1.011e-3
-1.758, 1.011e-3
-1.759, 1.011e-3
-1.760, 1.011e-3
-1.761, 1.011e-3
-1.762, 1.011e-3
-1.763, 1.011e-3
-1.764, 1.011e-3
-1.765, 1.011e-3
-1.766, 1.011e-3
-1.767, 1.011e-3
-1.768, 1.011e-3
-1.769, 1.011e-3
-1.770, 1.011e-3
-1.771, 1.011e-3
-1.772, 1.011e-3
-1.773, 1.011e-3
-1.774, 1.011e-3
-1.775, 1.011e-3
-1.776, 1.011e-3
-1.777, 1.011e-3
-1.778, 1.011e-3
-1.779, 1.011e-3
-1.780, 1.011e-3
-1.781, 1.011e-3
-1.782, 1.011e-3
-1.783, 1.011e-3
-1.784, 1.011e-3
-1.785, 1.011e-3
-1.786, 1.011e-3
-1.787, 1.011e-3
-1.788, 1.011e-3
-1.789, 1.011e-3
-1.790, 1.011e-3
-1.791, 1.011e-3
-1.792, 1.011e-3
-1.793, 1.011e-3
-1.794, 1.011e-3
-1.795, 1.011e-3
-1.796, 1.011e-3
-1.797, 1.011e-3
-1.798, 1.011e-3
-1.799, 1.011e-3
-1.800, 1.011e-3
-1.801, 1.011e-3
-1.802, 1.011e-3
-1.803, 1.011e-3
-1.804, 1.011e-3
-1.805, 1.011e-3
-1.806, 1.011e-3
-1.807, 1.011e-3
-1.808, 1.011e-3
-1.809, 1.011e-3
-1.810, 1.011e-3
-1.811, 1.011e-3
-1.812, 1.011e-3
-1.813, 1.011e-3
-1.814, 1.011e-3
-1.815, 1.011e-3
-1.816, 1.011e-3
-1.817, 1.011e-3
-1.818, 1.011e-3
-1.819, 1.011e-3
-1.820, 1.011e-3
-1.821, 1.011e-3
-1.822, 1.011e-3
-1.823, 1.011e-3
-1.824, 1.011e-3
-1.825, 1.011e-3
-1.826, 1.011e-3
-1.827, 1.011e-3
-1.828, 1.011e-3
-1.829, 1.011e-3
-1.830, 1.011e-3
-1.831, 1.011e-3
-1.832, 1.011e-3
-1.833, 1.011e-3
-1.834, 1.011e-3
-1.835, 1.011e-3
-1.836, 1.011e-3
-1.837, 1.011e-3
-1.838, 1.011e-3
-1.839, 1.011e-3
-1.840, 1.011e-3
-1.841, 1.011e-3
-1.842, 1.011e-3
-1.843, 1.011e-3
-1.844, 1.011e-3
-1.845, 1.011e-3
-1.846, 1.011e-3
-1.847, 1.011e-3
-1.848, 1.011e-3
-1.849, 1.011e-3
-1.850, 1.011e-3
-1.851, 1.011e-3
-1.852, 1.011e-3
-1.853, 1.011e-3
-1.854, 1.011e-3
-1.855, 1.011e-3
-1.856, 1.011e-3
-1.857, 1.011e-3
-1.858, 1.011e-3
-1.859, 1.011e-3
-1.860, 1.011e-3
-1.861, 1.011e-3
-1.862, 1.011e-3
-1.863, 1.011e-3
-1.864, 1.011e-3
-1.865, 1.011e-3
-1.866, 1.011e-3
-1.867, 1.011e-3
-1.868, 1.011e-3
-1.869, 1.011e-3
-1.870, 1.011e-3
-1.871, 1.011e-3
-1.872, 1.011e-3
-1.873, 1.011e-3
-1.874, 1.011e-3
-1.875, 1.011e-3
-1.876, 1.011e-3
-1.877, 1.011e-3
-1.878, 1.011e-3
-1.879, 1.011e-3
-1.880, 1.011e-3
-1.881, 1.011e-3
-1.882, 1.011e-3
-1.883, 1.011e-3
-1.884, 1.011e-3
-1.885, 1.011e-3
-1.886, 1.011e-3
-1.887, 1.011e-3
-1.888, 1.011e-3
-1.889, 1.011e-3
-1.890, 1.011e-3
-1.891, 1.011e-3
-1.892, 1.011e-3
-1.893, 1.011e-3
-1.894, 1.011e-3
-1.895, 1.011e-3
-1.896, 1.011e-3
-1.897, 1.011e-3
-1.898, 1.011e-3
-1.899, 1.011e-3
-1.900, 1.011e-3
-1.901, 1.011e-3
-1.902, 1.011e-3
-1.903, 1.011e-3
-1.904, 1.011e-3
-1.905, 1.011e-3
-1.906, 1.011e-3
-1.907, 1.011e-3
-1.908, 1.011e-3
-1.909, 1.011e-3
-1.910, 1.011e-3
-1.911, 1.011e-3
-1.912, 1.011e-3
-1.913, 1.011e-3
-1.914, 1.011e-3
-1.915, 1.011e-3
-1.916, 1.011e-3
-1.917, 1.011e-3
-1.918, 1.011e-3
-1.919, 1.011e-3
-1.920, 1.011e-3
-1.921, 1.011e-3
-1.922, 1.011e-3
-1.923, 1.011e-3
-1.924, 1.011e-3
-1.925, 1.011e-3
-1.926, 1.011e-3
-1.927, 1.011e-3
-1.928, 1.011e-3
-1.929, 1.011e-3
-1.930, 1.011e-3
-1.931, 1.011e-3
-1.932, 1.011e-3
-1.933, 1.011e-3
-1.934, 1.011e-3
-1.935, 1.011e-3
-1.936, 1.011e-3
-1.937, 1.011e-3
-1.938, 1.011e-3
-1.939, 1.011e-3
-1.940, 1.011e-3
-1.941, 1.011e-3
-1.942, 1.011e-3
-1.943, 1.011e-3
-1.944, 1.011e-3
-1.945, 1.011e-3
-1.946, 1.011e-3
-1.947, 1.011e-3
-1.948, 1.011e-3
-1.949, 1.011e-3
-1.950, 1.011e-3
-1.951, 1.011e-3
-1.952, 1.011e-3
-1.953, 1.011e-3
-1.954, 1.011e-3
-1.955, 1.011e-3
-1.956, 1.011e-3
-1.957, 1.011e-3
-1.958, 1.011e-3
-1.959, 1.011e-3
-1.960, 1.011e-3
-1.961, 1.011e-3
-1.962, 1.011e-3
-1.963, 1.011e-3
-1.964, 1.011e-3
-1.965, 1.011e-3
-1.966, 1.011e-3
-1.967, 1.011e-3
-1.968, 1.011e-3
-1.969, 1.011e-3
-1.970, 1.011e-3
-1.971, 1.011e-3
-1.972, 1.011e-3
-1.973, 1.011e-3
-1.974, 1.011e-3
-1.975, 1.011e-3
-1.976, 1.011e-3
-1.977, 1.011e-3
-1.978, 1.011e-3
-1.979, 1.011e-3
-1.980, 1.011e-3
-1.981, 1.011e-3
-1.982, 1.011e-3
-1.983, 1.011e-3
-1.984, 1.011e-3
-1.985, 1.011e-3
-1.986, 1.011e-3
-1.987, 1.011e-3
-1.988, 1.011e-3
-1.989, 1.011e-3
-1.990, 1.011e-3
-1.991, 1.011e-3
-1.992, 1.011e-3
-1.993, 1.011e-3
-1.994, 1.011e-3
-1.995, 1.011e-3
-1.996, 1.011e-3
-1.997, 1.011e-3
-1.998, 1.011e-3
-1.999, 1.011e-3
-2.000, 1.011e-3
-2.001, 1.011e-3
-2.002, 1.011e-3
-2.003, 1.011e-3
-2.004, 1.011e-3
-2.005, 1.011e-3
-2.006, 1.011e-3
-2.007, 1.011e-3
-2.008, 1.011e-3
-2.009, 1.011e-3
-2.010, 1.011e-3
-2.011, 1.011e-3
-2.012, 1.011e-3
-2.013, 1.011e-3
-2.014, 1.011e-3
-2.015, 1.011e-3
-2.016, 1.011e-3
-2.017, 1.011e-3
-2.018, 1.011e-3
-2.019, 1.011e-3
-2.020, 1.011e-3
-2.021, 1.011e-3
-2.022, 1.011e-3
-2.023, 1.011e-3
-2.024, 1.011e-3
-2.025, 1.011e-3
-2.026, 1.011e-3
-2.027, 1.011e-3
-2.028, 1.011e-3
-2.029, 1.011e-3
-2.030, 1.011e-3
-2.031, 1.011e-3
-2.032, 1.011e-3
-2.033, 1.011e-3
-2.034, 1.011e-3
-2.035, 1.011e-3
-2.036, 1.011e-3
-2.037, 1.011e-3
-2.038, 1.011e-3
-2.039, 1.011e-3
-2.040, 1.011e-3
-2.041, 1.011e-3
-2.042, 1.011e-3
-2.043, 1.011e-3
-2.044, 1.011e-3
-2.045, 1.011e-3
-2.046, 1.011e-3
-2.047, 1.011e-3
-2.048, 1.011e-3
-2.049, 1.011e-3
-2.050, 1.011e-3
-2.051, 1.011e-3
-2.052, 1.011e-3
-2.053, 1.011e-3
-2.054, 1.011e-3
-2.055, 1.011e-3
-2.056, 1.011e-3
-2.057, 1.011e-3
-2.058, 1.011e-3
-2.059, 1.011e-3
-2.060, 1.011e-3
-2.061, 1.011e-3
-2.062, 1.011e-3
-2.063, 1.011e-3
-2.064, 1.011e-3
-2.065, 1.011e-3
-2.066, 1.011e-3
-2.067, 1.011e-3
-2.068, 1.011e-3
-2.069, 1.011e-3
-2.070, 1.011e-3
-2.071, 1.011e-3
-2.072, 1.011e-3
-2.073, 1.011e-3
-2.074, 1.011e-3
-2.075, 1.011e-3
-2.076, 1.011e-3
-2.077, 1.011e-3
-2.078, 1.011e-3
-2.079, 1.011e-3
-2.080, 1.011e-3
-2.081, 1.011e-3
-2.082, 1.011e-3
-2.083, 1.011e-3
-2.084, 1.011e-3
-2.085, 1.011e-3
-2.086, 1.011e-3
-2.087, 1.011e-3
-2.088, 1.011e-3
-2.089, 1.011e-3
-2.090, 1.011e-3
-2.091, 1.011e-3
-2.092, 1.011e-3
-2.093, 1.011e-3
-2.094, 1.011e-3
-2.095, 1.011e-3
-2.096, 1.011e-3
-2.097, 1.011e-3
-2.098, 1.011e-3
-2.099, 1.011e-3
-2.100, 1.011e-3
-2.101, 1.011e-3
-2.102, 1.011e-3
-2.103, 1.011e-3
-2.104, 1.011e-3
-2.105, 1.011e-3
-2.106, 1.011e-3
-2.107, 1.011e-3
-2.108, 1.011e-3
-2.109, 1.011e-3
-2.110, 1.011e-3
-2.111, 1.011e-3
-2.112, 1.011e-3
-2.113, 1.011e-3
-2.114, 1.011e-3
-2.115, 1.011e-3
-2.116, 1.011e-3
-2.117, 1.011e-3
-2.118, 1.011e-3
-2.119, 1.011e-3
-2.120, 1.011e-3
-2.121, 1.011e-3
-2.122, 1.011e-3
-2.123, 1.011e-3
-2.124, 1.011e-3
-2.125, 1.011e-3
-2.126, 1.011e-3
-2.127, 1.011e-3
-2.128, 1.011e-3
-2.129, 1.011e-3
-2.130, 1.011e-3
-2.131, 1.011e-3
-2.132, 1.011e-3
-2.133, 1.011e-3
-2.134, 1.011e-3
-2.135, 1.011e-3
-2.136, 1.011e-3
-2.137, 1.011e-3
-2.138, 1.011e-3
-2.139, 1.011e-3
-2.140, 1.011e-3
-2.141, 1.011e-3
-2.142, 1.011e-3
-2.143, 1.011e-3
-2.144, 1.011e-3
-2.145, 1.011e-3
-2.146, 1.011e-3
-2.147, 1.011e-3
-2.148, 1.011e-3
-2.149, 1.011e-3
-2.150, 1.011e-3
-2.151, 1.011e-3
-2.152, 1.011e-3
-2.153, 1.011e-3
-2.154, 1.011e-3
-2.155, 1.011e-3
-2.156, 1.011e-3
-2.157, 1.011e-3
-2.158, 1.011e-3
-2.159, 1.011e-3
-2.160, 1.011e-3
-2.161, 1.011e-3
-2.162, 1.011e-3
-2.163, 1.011e-3
-2.164, 1.011e-3
-2.165, 1.011e-3
-2.166, 1.011e-3
-2.167, 1.011e-3
-2.168, 1.011e-3
-2.169, 1.011e-3
-2.170, 1.011e-3
-2.171, 1.011e-3
-2.172, 1.011e-3
-2.173, 1.011e-3
-2.174, 1.011e-3
-2.175, 1.011e-3
-2.176, 1.011e-3
-2.177, 1.011e-3
-2.178, 1.011e-3
-2.179, 1.011e-3
-2.180, 1.011e-3
-2.181, 1.011e-3
-2.182, 1.011e-3
-2.183, 1.011e-3
-2.184, 1.011e-3
-2.185, 1.011e-3
-2.186, 1.011e-3
-2.187, 1.011e-3
-2.188, 1.011e-3
-2.189, 1.011e-3
-2.190, 1.011e-3
-2.191, 1.011e-3
-2.192, 1.011e-3
-2.193, 1.011e-3
-2.194, 1.011e-3
-2.195, 1.011e-3
-2.196, 1.011e-3
-2.197, 1.011e-3
-2.198, 1.011e-3
-2.199, 1.011e-3
-2.200, 1.011e-3
-2.201, 1.011e-3
-2.202, 1.011e-3
-2.203, 1.011e-3
-2.204, 1.011e-3
-2.205, 1.011e-3
-2.206, 1.011e-3
-2.207, 1.011e-3
-2.208, 1.011e-3
-2.209, 1.011e-3
-2.210, 1.011e-3
-2.211, 1.011e-3
-2.212, 1.011e-3
-2.213, 1.011e-3
-2.214, 1.011e-3
-2.215, 1.011e-3
-2.216, 1.011e-3
-2.217, 1.011e-3
-2.218, 1.011e-3
-2.219, 1.011e-3
-2.220, 1.011e-3
-2.221, 1.011e-3
-2.222, 1.011e-3
-2.223, 1.011e-3
-2.224, 1.011e-3
-2.225, 1.011e-3
-2.226, 1.011e-3
-2.227, 1.011e-3
-2.228, 1.011e-3
-2.229, 1.011e-3
-2.230, 1.011e-3
-2.231, 1.011e-3
-2.232, 1.011e-3
-2.233, 1.011e-3
-2.234, 1.011e-3
-2.235, 1.011e-3
-2.236, 1.011e-3
-2.237, 1.011e-3
-2.238, 1.011e-3
-2.239, 1.011e-3
-2.240, 1.011e-3
-2.241, 1.011e-3
-2.242, 1.011e-3
-2.243, 1.011e-3
-2.244, 1.011e-3
-2.245, 1.011e-3
-2.246, 1.011e-3
-2.247, 1.011e-3
-2.248, 1.011e-3
-2.249, 1.011e-3
-2.250, 1.011e-3
-2.251, 1.011e-3
-2.252, 1.011e-3
-2.253, 1.011e-3
-2.254, 1.011e-3
-2.255, 1.011e-3
-2.256, 1.011e-3
-2.257, 1.011e-3
-2.258, 1.011e-3
-2.259, 1.011e-3
-2.260, 1.011e-3
-2.261, 1.011e-3
-2.262, 1.011e-3
-2.263, 1.011e-3
-2.264, 1.011e-3
-2.265, 1.011e-3
-2.266, 1.011e-3
-2.267, 1.011e-3
-2.268, 1.011e-3
-2.269, 1.011e-3
-2.270, 1.011e-3
-2.271, 1.011e-3
-2.272, 1.011e-3
-2.273, 1.011e-3
-2.274, 1.011e-3
-2.275, 1.011e-3
-2.276, 1.011e-3
-2.277, 1.011e-3
-2.278, 1.011e-3
-2.279, 1.011e-3
-2.280, 1.011e-3
-2.281, 1.011e-3
-2.282, 1.011e-3
-2.283, 1.011e-3
-2.284, 1.011e-3
-2.285, 1.011e-3
-2.286, 1.011e-3
-2.287, 1.011e-3
-2.288, 1.011e-3
-2.289, 1.011e-3
-2.290, 1.011e-3
-2.291, 1.011e-3
-2.292, 1.011e-3
-2.293, 1.011e-3
-2.294, 1.011e-3
-2.295, 1.011e-3
-2.296, 1.011e-3
-2.297, 1.011e-3
-2.298, 1.011e-3
-2.299, 1.011e-3
