Sept. 18, 2024   06:27:43
Linear Sweep Voltammetry
File: c:/users/guazh/data/20240903_batch_252_500/2024-09-03-exp385\regeneratedgce-2024-09-18t06_23_04-lsvinkoh\regeneratedgce_lsv_50mvs_efin_-1900mv.bin
Data Source:  Experiment
Instrument Model:  CHI760E
Header: LSV ran at 50 mVs with Efin at -1900mV
Note: 

Init E (V) = -0.6
Final E (V) = -1.9
Scan Rate (V/s) = 0.05
Sample Interval (V) = 0.001
Quiet Time (sec) = 2
Sensitivity (A/V) = 1e-4
Comp R (ohm) = 3.2

Results:

Channel 1:

Potential/V, Current/A

-0.600, 4.655e-8
-0.601, 1.524e-7
-0.602, 1.805e-7
-0.603, 1.973e-7
-0.604, 2.128e-7
-0.605, 2.242e-7
-0.606, 2.359e-7
-0.607, 2.443e-7
-0.608, 2.560e-7
-0.609, 2.669e-7
-0.610, 2.750e-7
-0.611, 2.851e-7
-0.612, 2.932e-7
-0.613, 3.009e-7
-0.614, 3.112e-7
-0.615, 3.202e-7
-0.616, 3.271e-7
-0.617, 3.343e-7
-0.618, 3.409e-7
-0.619, 3.489e-7
-0.620, 3.553e-7
-0.621, 3.619e-7
-0.622, 3.689e-7
-0.623, 3.758e-7
-0.624, 3.836e-7
-0.625, 3.905e-7
-0.626, 3.968e-7
-0.627, 4.034e-7
-0.628, 4.101e-7
-0.629, 4.158e-7
-0.630, 4.243e-7
-0.631, 4.313e-7
-0.632, 4.363e-7
-0.633, 4.424e-7
-0.634, 4.491e-7
-0.635, 4.554e-7
-0.636, 4.620e-7
-0.637, 4.663e-7
-0.638, 4.723e-7
-0.639, 4.778e-7
-0.640, 4.851e-7
-0.641, 4.922e-7
-0.642, 4.968e-7
-0.643, 5.023e-7
-0.644, 5.096e-7
-0.645, 5.144e-7
-0.646, 5.206e-7
-0.647, 5.248e-7
-0.648, 5.305e-7
-0.649, 5.362e-7
-0.650, 5.404e-7
-0.651, 5.469e-7
-0.652, 5.526e-7
-0.653, 5.586e-7
-0.654, 5.637e-7
-0.655, 5.684e-7
-0.656, 5.745e-7
-0.657, 5.779e-7
-0.658, 5.832e-7
-0.659, 5.908e-7
-0.660, 5.963e-7
-0.661, 6.005e-7
-0.662, 6.057e-7
-0.663, 6.103e-7
-0.664, 6.153e-7
-0.665, 6.213e-7
-0.666, 6.282e-7
-0.667, 6.309e-7
-0.668, 6.361e-7
-0.669, 6.418e-7
-0.670, 6.479e-7
-0.671, 6.528e-7
-0.672, 6.576e-7
-0.673, 6.624e-7
-0.674, 6.660e-7
-0.675, 6.710e-7
-0.676, 6.771e-7
-0.677, 6.811e-7
-0.678, 6.864e-7
-0.679, 6.910e-7
-0.680, 6.969e-7
-0.681, 7.022e-7
-0.682, 7.049e-7
-0.683, 7.093e-7
-0.684, 7.148e-7
-0.685, 7.193e-7
-0.686, 7.244e-7
-0.687, 7.291e-7
-0.688, 7.341e-7
-0.689, 7.391e-7
-0.690, 7.430e-7
-0.691, 7.476e-7
-0.692, 7.529e-7
-0.693, 7.568e-7
-0.694, 7.623e-7
-0.695, 7.666e-7
-0.696, 7.722e-7
-0.697, 7.766e-7
-0.698, 7.810e-7
-0.699, 7.856e-7
-0.700, 7.893e-7
-0.701, 7.938e-7
-0.702, 7.993e-7
-0.703, 8.045e-7
-0.704, 8.105e-7
-0.705, 8.170e-7
-0.706, 8.217e-7
-0.707, 8.244e-7
-0.708, 8.290e-7
-0.709, 8.323e-7
-0.710, 8.378e-7
-0.711, 8.424e-7
-0.712, 8.464e-7
-0.713, 8.519e-7
-0.714, 8.558e-7
-0.715, 8.604e-7
-0.716, 8.659e-7
-0.717, 8.687e-7
-0.718, 8.724e-7
-0.719, 8.771e-7
-0.720, 8.822e-7
-0.721, 8.858e-7
-0.722, 8.893e-7
-0.723, 8.949e-7
-0.724, 8.995e-7
-0.725, 9.033e-7
-0.726, 9.089e-7
-0.727, 9.112e-7
-0.728, 9.168e-7
-0.729, 9.218e-7
-0.730, 9.268e-7
-0.731, 9.304e-7
-0.732, 9.344e-7
-0.733, 9.372e-7
-0.734, 9.439e-7
-0.735, 9.472e-7
-0.736, 9.524e-7
-0.737, 9.560e-7
-0.738, 9.591e-7
-0.739, 9.646e-7
-0.740, 9.697e-7
-0.741, 9.737e-7
-0.742, 9.770e-7
-0.743, 9.814e-7
-0.744, 9.857e-7
-0.745, 9.904e-7
-0.746, 9.945e-7
-0.747, 9.973e-7
-0.748, 1.003e-6
-0.749, 1.007e-6
-0.750, 1.011e-6
-0.751, 1.016e-6
-0.752, 1.019e-6
-0.753, 1.024e-6
-0.754, 1.028e-6
-0.755, 1.032e-6
-0.756, 1.038e-6
-0.757, 1.042e-6
-0.758, 1.045e-6
-0.759, 1.050e-6
-0.760, 1.054e-6
-0.761, 1.059e-6
-0.762, 1.061e-6
-0.763, 1.065e-6
-0.764, 1.070e-6
-0.765, 1.074e-6
-0.766, 1.080e-6
-0.767, 1.081e-6
-0.768, 1.088e-6
-0.769, 1.092e-6
-0.770, 1.094e-6
-0.771, 1.099e-6
-0.772, 1.103e-6
-0.773, 1.106e-6
-0.774, 1.111e-6
-0.775, 1.115e-6
-0.776, 1.119e-6
-0.777, 1.123e-6
-0.778, 1.125e-6
-0.779, 1.130e-6
-0.780, 1.134e-6
-0.781, 1.138e-6
-0.782, 1.142e-6
-0.783, 1.145e-6
-0.784, 1.150e-6
-0.785, 1.154e-6
-0.786, 1.159e-6
-0.787, 1.161e-6
-0.788, 1.165e-6
-0.789, 1.170e-6
-0.790, 1.175e-6
-0.791, 1.178e-6
-0.792, 1.181e-6
-0.793, 1.187e-6
-0.794, 1.191e-6
-0.795, 1.196e-6
-0.796, 1.200e-6
-0.797, 1.203e-6
-0.798, 1.207e-6
-0.799, 1.211e-6
-0.800, 1.216e-6
-0.801, 1.220e-6
-0.802, 1.223e-6
-0.803, 1.226e-6
-0.804, 1.230e-6
-0.805, 1.234e-6
-0.806, 1.238e-6
-0.807, 1.241e-6
-0.808, 1.245e-6
-0.809, 1.249e-6
-0.810, 1.253e-6
-0.811, 1.258e-6
-0.812, 1.262e-6
-0.813, 1.266e-6
-0.814, 1.270e-6
-0.815, 1.272e-6
-0.816, 1.277e-6
-0.817, 1.281e-6
-0.818, 1.283e-6
-0.819, 1.291e-6
-0.820, 1.297e-6
-0.821, 1.300e-6
-0.822, 1.304e-6
-0.823, 1.308e-6
-0.824, 1.311e-6
-0.825, 1.316e-6
-0.826, 1.319e-6
-0.827, 1.322e-6
-0.828, 1.325e-6
-0.829, 1.329e-6
-0.830, 1.334e-6
-0.831, 1.339e-6
-0.832, 1.341e-6
-0.833, 1.346e-6
-0.834, 1.350e-6
-0.835, 1.354e-6
-0.836, 1.357e-6
-0.837, 1.360e-6
-0.838, 1.365e-6
-0.839, 1.370e-6
-0.840, 1.374e-6
-0.841, 1.378e-6
-0.842, 1.380e-6
-0.843, 1.385e-6
-0.844, 1.390e-6
-0.845, 1.394e-6
-0.846, 1.399e-6
-0.847, 1.401e-6
-0.848, 1.404e-6
-0.849, 1.410e-6
-0.850, 1.412e-6
-0.851, 1.417e-6
-0.852, 1.421e-6
-0.853, 1.424e-6
-0.854, 1.428e-6
-0.855, 1.431e-6
-0.856, 1.437e-6
-0.857, 1.440e-6
-0.858, 1.444e-6
-0.859, 1.448e-6
-0.860, 1.452e-6
-0.861, 1.457e-6
-0.862, 1.459e-6
-0.863, 1.464e-6
-0.864, 1.467e-6
-0.865, 1.472e-6
-0.866, 1.475e-6
-0.867, 1.479e-6
-0.868, 1.483e-6
-0.869, 1.487e-6
-0.870, 1.493e-6
-0.871, 1.499e-6
-0.872, 1.501e-6
-0.873, 1.505e-6
-0.874, 1.508e-6
-0.875, 1.512e-6
-0.876, 1.517e-6
-0.877, 1.519e-6
-0.878, 1.525e-6
-0.879, 1.529e-6
-0.880, 1.533e-6
-0.881, 1.538e-6
-0.882, 1.541e-6
-0.883, 1.546e-6
-0.884, 1.550e-6
-0.885, 1.554e-6
-0.886, 1.559e-6
-0.887, 1.562e-6
-0.888, 1.567e-6
-0.889, 1.572e-6
-0.890, 1.577e-6
-0.891, 1.582e-6
-0.892, 1.585e-6
-0.893, 1.589e-6
-0.894, 1.594e-6
-0.895, 1.600e-6
-0.896, 1.604e-6
-0.897, 1.609e-6
-0.898, 1.612e-6
-0.899, 1.616e-6
-0.900, 1.622e-6
-0.901, 1.626e-6
-0.902, 1.630e-6
-0.903, 1.634e-6
-0.904, 1.639e-6
-0.905, 1.644e-6
-0.906, 1.648e-6
-0.907, 1.651e-6
-0.908, 1.656e-6
-0.909, 1.663e-6
-0.910, 1.667e-6
-0.911, 1.672e-6
-0.912, 1.677e-6
-0.913, 1.681e-6
-0.914, 1.685e-6
-0.915, 1.692e-6
-0.916, 1.698e-6
-0.917, 1.702e-6
-0.918, 1.708e-6
-0.919, 1.712e-6
-0.920, 1.717e-6
-0.921, 1.723e-6
-0.922, 1.727e-6
-0.923, 1.731e-6
-0.924, 1.737e-6
-0.925, 1.743e-6
-0.926, 1.748e-6
-0.927, 1.752e-6
-0.928, 1.758e-6
-0.929, 1.763e-6
-0.930, 1.767e-6
-0.931, 1.773e-6
-0.932, 1.777e-6
-0.933, 1.780e-6
-0.934, 1.787e-6
-0.935, 1.794e-6
-0.936, 1.798e-6
-0.937, 1.803e-6
-0.938, 1.809e-6
-0.939, 1.815e-6
-0.940, 1.821e-6
-0.941, 1.826e-6
-0.942, 1.830e-6
-0.943, 1.836e-6
-0.944, 1.841e-6
-0.945, 1.845e-6
-0.946, 1.850e-6
-0.947, 1.856e-6
-0.948, 1.863e-6
-0.949, 1.868e-6
-0.950, 1.874e-6
-0.951, 1.880e-6
-0.952, 1.884e-6
-0.953, 1.889e-6
-0.954, 1.894e-6
-0.955, 1.899e-6
-0.956, 1.905e-6
-0.957, 1.910e-6
-0.958, 1.916e-6
-0.959, 1.922e-6
-0.960, 1.927e-6
-0.961, 1.935e-6
-0.962, 1.940e-6
-0.963, 1.943e-6
-0.964, 1.948e-6
-0.965, 1.954e-6
-0.966, 1.960e-6
-0.967, 1.964e-6
-0.968, 1.970e-6
-0.969, 1.977e-6
-0.970, 1.982e-6
-0.971, 1.989e-6
-0.972, 1.992e-6
-0.973, 2.002e-6
-0.974, 2.008e-6
-0.975, 2.013e-6
-0.976, 2.019e-6
-0.977, 2.023e-6
-0.978, 2.028e-6
-0.979, 2.036e-6
-0.980, 2.042e-6
-0.981, 2.047e-6
-0.982, 2.053e-6
-0.983, 2.058e-6
-0.984, 2.065e-6
-0.985, 2.072e-6
-0.986, 2.079e-6
-0.987, 2.085e-6
-0.988, 2.090e-6
-0.989, 2.095e-6
-0.990, 2.102e-6
-0.991, 2.107e-6
-0.992, 2.113e-6
-0.993, 2.120e-6
-0.994, 2.125e-6
-0.995, 2.133e-6
-0.996, 2.139e-6
-0.997, 2.144e-6
-0.998, 2.149e-6
-0.999, 2.156e-6
-1.000, 2.163e-6
-1.001, 2.169e-6
-1.002, 2.173e-6
-1.003, 2.180e-6
-1.004, 2.186e-6
-1.005, 2.192e-6
-1.006, 2.198e-6
-1.007, 2.201e-6
-1.008, 2.207e-6
-1.009, 2.214e-6
-1.010, 2.220e-6
-1.011, 2.227e-6
-1.012, 2.233e-6
-1.013, 2.237e-6
-1.014, 2.245e-6
-1.015, 2.250e-6
-1.016, 2.256e-6
-1.017, 2.262e-6
-1.018, 2.268e-6
-1.019, 2.275e-6
-1.020, 2.280e-6
-1.021, 2.287e-6
-1.022, 2.292e-6
-1.023, 2.296e-6
-1.024, 2.305e-6
-1.025, 2.312e-6
-1.026, 2.317e-6
-1.027, 2.322e-6
-1.028, 2.329e-6
-1.029, 2.334e-6
-1.030, 2.341e-6
-1.031, 2.346e-6
-1.032, 2.351e-6
-1.033, 2.358e-6
-1.034, 2.363e-6
-1.035, 2.369e-6
-1.036, 2.375e-6
-1.037, 2.381e-6
-1.038, 2.387e-6
-1.039, 2.391e-6
-1.040, 2.398e-6
-1.041, 2.404e-6
-1.042, 2.407e-6
-1.043, 2.413e-6
-1.044, 2.421e-6
-1.045, 2.425e-6
-1.046, 2.433e-6
-1.047, 2.436e-6
-1.048, 2.441e-6
-1.049, 2.448e-6
-1.050, 2.453e-6
-1.051, 2.459e-6
-1.052, 2.464e-6
-1.053, 2.468e-6
-1.054, 2.474e-6
-1.055, 2.479e-6
-1.056, 2.485e-6
-1.057, 2.488e-6
-1.058, 2.494e-6
-1.059, 2.502e-6
-1.060, 2.506e-6
-1.061, 2.511e-6
-1.062, 2.517e-6
-1.063, 2.522e-6
-1.064, 2.528e-6
-1.065, 2.535e-6
-1.066, 2.539e-6
-1.067, 2.544e-6
-1.068, 2.549e-6
-1.069, 2.555e-6
-1.070, 2.560e-6
-1.071, 2.566e-6
-1.072, 2.569e-6
-1.073, 2.577e-6
-1.074, 2.581e-6
-1.075, 2.588e-6
-1.076, 2.596e-6
-1.077, 2.599e-6
-1.078, 2.605e-6
-1.079, 2.610e-6
-1.080, 2.615e-6
-1.081, 2.621e-6
-1.082, 2.625e-6
-1.083, 2.630e-6
-1.084, 2.638e-6
-1.085, 2.643e-6
-1.086, 2.650e-6
-1.087, 2.654e-6
-1.088, 2.662e-6
-1.089, 2.667e-6
-1.090, 2.670e-6
-1.091, 2.676e-6
-1.092, 2.681e-6
-1.093, 2.684e-6
-1.094, 2.693e-6
-1.095, 2.698e-6
-1.096, 2.704e-6
-1.097, 2.707e-6
-1.098, 2.711e-6
-1.099, 2.718e-6
-1.100, 2.723e-6
-1.101, 2.729e-6
-1.102, 2.736e-6
-1.103, 2.742e-6
-1.104, 2.748e-6
-1.105, 2.754e-6
-1.106, 2.758e-6
-1.107, 2.763e-6
-1.108, 2.768e-6
-1.109, 2.775e-6
-1.110, 2.781e-6
-1.111, 2.787e-6
-1.112, 2.792e-6
-1.113, 2.799e-6
-1.114, 2.804e-6
-1.115, 2.809e-6
-1.116, 2.816e-6
-1.117, 2.819e-6
-1.118, 2.825e-6
-1.119, 2.831e-6
-1.120, 2.837e-6
-1.121, 2.844e-6
-1.122, 2.847e-6
-1.123, 2.853e-6
-1.124, 2.859e-6
-1.125, 2.863e-6
-1.126, 2.871e-6
-1.127, 2.878e-6
-1.128, 2.883e-6
-1.129, 2.890e-6
-1.130, 2.894e-6
-1.131, 2.900e-6
-1.132, 2.904e-6
-1.133, 2.911e-6
-1.134, 2.918e-6
-1.135, 2.924e-6
-1.136, 2.932e-6
-1.137, 2.936e-6
-1.138, 2.940e-6
-1.139, 2.947e-6
-1.140, 2.952e-6
-1.141, 2.957e-6
-1.142, 2.963e-6
-1.143, 2.968e-6
-1.144, 2.974e-6
-1.145, 2.981e-6
-1.146, 2.986e-6
-1.147, 2.991e-6
-1.148, 2.996e-6
-1.149, 3.001e-6
-1.150, 3.007e-6
-1.151, 3.013e-6
-1.152, 3.019e-6
-1.153, 3.027e-6
-1.154, 3.031e-6
-1.155, 3.040e-6
-1.156, 3.043e-6
-1.157, 3.046e-6
-1.158, 3.054e-6
-1.159, 3.059e-6
-1.160, 3.066e-6
-1.161, 3.074e-6
-1.162, 3.079e-6
-1.163, 3.085e-6
-1.164, 3.090e-6
-1.165, 3.096e-6
-1.166, 3.102e-6
-1.167, 3.104e-6
-1.168, 3.111e-6
-1.169, 3.117e-6
-1.170, 3.123e-6
-1.171, 3.130e-6
-1.172, 3.136e-6
-1.173, 3.141e-6
-1.174, 3.149e-6
-1.175, 3.155e-6
-1.176, 3.159e-6
-1.177, 3.165e-6
-1.178, 3.170e-6
-1.179, 3.176e-6
-1.180, 3.181e-6
-1.181, 3.186e-6
-1.182, 3.192e-6
-1.183, 3.195e-6
-1.184, 3.202e-6
-1.185, 3.209e-6
-1.186, 3.214e-6
-1.187, 3.221e-6
-1.188, 3.229e-6
-1.189, 3.236e-6
-1.190, 3.242e-6
-1.191, 3.246e-6
-1.192, 3.247e-6
-1.193, 3.252e-6
-1.194, 3.257e-6
-1.195, 3.263e-6
-1.196, 3.269e-6
-1.197, 3.274e-6
-1.198, 3.283e-6
-1.199, 3.289e-6
-1.200, 3.293e-6
-1.201, 3.298e-6
-1.202, 3.300e-6
-1.203, 3.304e-6
-1.204, 3.311e-6
-1.205, 3.317e-6
-1.206, 3.325e-6
-1.207, 3.330e-6
-1.208, 3.336e-6
-1.209, 3.340e-6
-1.210, 3.345e-6
-1.211, 3.348e-6
-1.212, 3.352e-6
-1.213, 3.357e-6
-1.214, 3.363e-6
-1.215, 3.369e-6
-1.216, 3.377e-6
-1.217, 3.381e-6
-1.218, 3.385e-6
-1.219, 3.391e-6
-1.220, 3.396e-6
-1.221, 3.401e-6
-1.222, 3.406e-6
-1.223, 3.410e-6
-1.224, 3.415e-6
-1.225, 3.420e-6
-1.226, 3.428e-6
-1.227, 3.433e-6
-1.228, 3.439e-6
-1.229, 3.450e-6
-1.230, 3.453e-6
-1.231, 3.455e-6
-1.232, 3.461e-6
-1.233, 3.468e-6
-1.234, 3.474e-6
-1.235, 3.481e-6
-1.236, 3.485e-6
-1.237, 3.489e-6
-1.238, 3.495e-6
-1.239, 3.502e-6
-1.240, 3.509e-6
-1.241, 3.516e-6
-1.242, 3.519e-6
-1.243, 3.521e-6
-1.244, 3.527e-6
-1.245, 3.532e-6
-1.246, 3.540e-6
-1.247, 3.545e-6
-1.248, 3.553e-6
-1.249, 3.558e-6
-1.250, 3.564e-6
-1.251, 3.571e-6
-1.252, 3.574e-6
-1.253, 3.578e-6
-1.254, 3.584e-6
-1.255, 3.590e-6
-1.256, 3.596e-6
-1.257, 3.602e-6
-1.258, 3.607e-6
-1.259, 3.615e-6
-1.260, 3.621e-6
-1.261, 3.628e-6
-1.262, 3.633e-6
-1.263, 3.635e-6
-1.264, 3.641e-6
-1.265, 3.646e-6
-1.266, 3.651e-6
-1.267, 3.656e-6
-1.268, 3.663e-6
-1.269, 3.669e-6
-1.270, 3.676e-6
-1.271, 3.679e-6
-1.272, 3.684e-6
-1.273, 3.690e-6
-1.274, 3.696e-6
-1.275, 3.703e-6
-1.276, 3.709e-6
-1.277, 3.711e-6
-1.278, 3.716e-6
-1.279, 3.718e-6
-1.280, 3.726e-6
-1.281, 3.732e-6
-1.282, 3.732e-6
-1.283, 3.737e-6
-1.284, 3.743e-6
-1.285, 3.748e-6
-1.286, 3.753e-6
-1.287, 3.758e-6
-1.288, 3.761e-6
-1.289, 3.765e-6
-1.290, 3.770e-6
-1.291, 3.776e-6
-1.292, 3.777e-6
-1.293, 3.777e-6
-1.294, 3.779e-6
-1.295, 3.782e-6
-1.296, 3.787e-6
-1.297, 3.791e-6
-1.298, 3.791e-6
-1.299, 3.796e-6
-1.300, 3.797e-6
-1.301, 3.799e-6
-1.302, 3.801e-6
-1.303, 3.800e-6
-1.304, 3.804e-6
-1.305, 3.807e-6
-1.306, 3.809e-6
-1.307, 3.809e-6
-1.308, 3.811e-6
-1.309, 3.814e-6
-1.310, 3.817e-6
-1.311, 3.824e-6
-1.312, 3.827e-6
-1.313, 3.830e-6
-1.314, 3.834e-6
-1.315, 3.835e-6
-1.316, 3.834e-6
-1.317, 3.832e-6
-1.318, 3.833e-6
-1.319, 3.834e-6
-1.320, 3.837e-6
-1.321, 3.843e-6
-1.322, 3.845e-6
-1.323, 3.846e-6
-1.324, 3.849e-6
-1.325, 3.851e-6
-1.326, 3.855e-6
-1.327, 3.858e-6
-1.328, 3.864e-6
-1.329, 3.874e-6
-1.330, 3.877e-6
-1.331, 3.879e-6
-1.332, 3.874e-6
-1.333, 3.870e-6
-1.334, 3.873e-6
-1.335, 3.873e-6
-1.336, 3.877e-6
-1.337, 3.885e-6
-1.338, 3.893e-6
-1.339, 3.900e-6
-1.340, 3.903e-6
-1.341, 3.902e-6
-1.342, 3.900e-6
-1.343, 3.898e-6
-1.344, 3.902e-6
-1.345, 3.907e-6
-1.346, 3.911e-6
-1.347, 3.914e-6
-1.348, 3.918e-6
-1.349, 3.921e-6
-1.350, 3.924e-6
-1.351, 3.926e-6
-1.352, 3.926e-6
-1.353, 3.929e-6
-1.354, 3.935e-6
-1.355, 3.944e-6
-1.356, 3.951e-6
-1.357, 3.952e-6
-1.358, 3.952e-6
-1.359, 3.951e-6
-1.360, 3.953e-6
-1.361, 3.956e-6
-1.362, 3.958e-6
-1.363, 3.967e-6
-1.364, 3.975e-6
-1.365, 3.979e-6
-1.366, 3.981e-6
-1.367, 3.980e-6
-1.368, 3.980e-6
-1.369, 3.984e-6
-1.370, 3.988e-6
-1.371, 3.996e-6
-1.372, 3.998e-6
-1.373, 4.000e-6
-1.374, 4.004e-6
-1.375, 4.008e-6
-1.376, 4.010e-6
-1.377, 4.014e-6
-1.378, 4.015e-6
-1.379, 4.018e-6
-1.380, 4.021e-6
-1.381, 4.023e-6
-1.382, 4.028e-6
-1.383, 4.034e-6
-1.384, 4.036e-6
-1.385, 4.040e-6
-1.386, 4.045e-6
-1.387, 4.048e-6
-1.388, 4.056e-6
-1.389, 4.067e-6
-1.390, 4.076e-6
-1.391, 4.079e-6
-1.392, 4.076e-6
-1.393, 4.074e-6
-1.394, 4.074e-6
-1.395, 4.076e-6
-1.396, 4.082e-6
-1.397, 4.086e-6
-1.398, 4.091e-6
-1.399, 4.092e-6
-1.400, 4.093e-6
-1.401, 4.097e-6
-1.402, 4.101e-6
-1.403, 4.110e-6
-1.404, 4.122e-6
-1.405, 4.128e-6
-1.406, 4.130e-6
-1.407, 4.125e-6
-1.408, 4.122e-6
-1.409, 4.124e-6
-1.410, 4.126e-6
-1.411, 4.133e-6
-1.412, 4.140e-6
-1.413, 4.146e-6
-1.414, 4.153e-6
-1.415, 4.153e-6
-1.416, 4.152e-6
-1.417, 4.150e-6
-1.418, 4.149e-6
-1.419, 4.154e-6
-1.420, 4.163e-6
-1.421, 4.173e-6
-1.422, 4.180e-6
-1.423, 4.178e-6
-1.424, 4.178e-6
-1.425, 4.178e-6
-1.426, 4.177e-6
-1.427, 4.180e-6
-1.428, 4.187e-6
-1.429, 4.198e-6
-1.430, 4.208e-6
-1.431, 4.214e-6
-1.432, 4.212e-6
-1.433, 4.211e-6
-1.434, 4.215e-6
-1.435, 4.215e-6
-1.436, 4.218e-6
-1.437, 4.218e-6
-1.438, 4.222e-6
-1.439, 4.225e-6
-1.440, 4.232e-6
-1.441, 4.239e-6
-1.442, 4.243e-6
-1.443, 4.251e-6
-1.444, 4.260e-6
-1.445, 4.264e-6
-1.446, 4.264e-6
-1.447, 4.261e-6
-1.448, 4.260e-6
-1.449, 4.263e-6
-1.450, 4.268e-6
-1.451, 4.275e-6
-1.452, 4.281e-6
-1.453, 4.286e-6
-1.454, 4.293e-6
-1.455, 4.292e-6
-1.456, 4.292e-6
-1.457, 4.294e-6
-1.458, 4.293e-6
-1.459, 4.301e-6
-1.460, 4.306e-6
-1.461, 4.310e-6
-1.462, 4.316e-6
-1.463, 4.320e-6
-1.464, 4.328e-6
-1.465, 4.335e-6
-1.466, 4.342e-6
-1.467, 4.351e-6
-1.468, 4.356e-6
-1.469, 4.358e-6
-1.470, 4.360e-6
-1.471, 4.361e-6
-1.472, 4.364e-6
-1.473, 4.368e-6
-1.474, 4.379e-6
-1.475, 4.393e-6
-1.476, 4.402e-6
-1.477, 4.405e-6
-1.478, 4.405e-6
-1.479, 4.404e-6
-1.480, 4.406e-6
-1.481, 4.412e-6
-1.482, 4.415e-6
-1.483, 4.422e-6
-1.484, 4.433e-6
-1.485, 4.447e-6
-1.486, 4.455e-6
-1.487, 4.454e-6
-1.488, 4.455e-6
-1.489, 4.461e-6
-1.490, 4.466e-6
-1.491, 4.475e-6
-1.492, 4.484e-6
-1.493, 4.489e-6
-1.494, 4.501e-6
-1.495, 4.503e-6
-1.496, 4.507e-6
-1.497, 4.510e-6
-1.498, 4.513e-6
-1.499, 4.521e-6
-1.500, 4.531e-6
-1.501, 4.537e-6
-1.502, 4.546e-6
-1.503, 4.551e-6
-1.504, 4.562e-6
-1.505, 4.574e-6
-1.506, 4.583e-6
-1.507, 4.594e-6
-1.508, 4.598e-6
-1.509, 4.603e-6
-1.510, 4.608e-6
-1.511, 4.614e-6
-1.512, 4.616e-6
-1.513, 4.624e-6
-1.514, 4.636e-6
-1.515, 4.651e-6
-1.516, 4.664e-6
-1.517, 4.672e-6
-1.518, 4.679e-6
-1.519, 4.683e-6
-1.520, 4.690e-6
-1.521, 4.699e-6
-1.522, 4.700e-6
-1.523, 4.711e-6
-1.524, 4.721e-6
-1.525, 4.733e-6
-1.526, 4.745e-6
-1.527, 4.751e-6
-1.528, 4.759e-6
-1.529, 4.768e-6
-1.530, 4.773e-6
-1.531, 4.786e-6
-1.532, 4.798e-6
-1.533, 4.811e-6
-1.534, 4.823e-6
-1.535, 4.832e-6
-1.536, 4.842e-6
-1.537, 4.856e-6
-1.538, 4.867e-6
-1.539, 4.883e-6
-1.540, 4.897e-6
-1.541, 4.909e-6
-1.542, 4.914e-6
-1.543, 4.919e-6
-1.544, 4.925e-6
-1.545, 4.940e-6
-1.546, 4.962e-6
-1.547, 4.983e-6
-1.548, 4.995e-6
-1.549, 5.004e-6
-1.550, 5.015e-6
-1.551, 5.023e-6
-1.552, 5.034e-6
-1.553, 5.051e-6
-1.554, 5.066e-6
-1.555, 5.081e-6
-1.556, 5.091e-6
-1.557, 5.099e-6
-1.558, 5.114e-6
-1.559, 5.128e-6
-1.560, 5.151e-6
-1.561, 5.171e-6
-1.562, 5.184e-6
-1.563, 5.198e-6
-1.564, 5.213e-6
-1.565, 5.227e-6
-1.566, 5.245e-6
-1.567, 5.266e-6
-1.568, 5.290e-6
-1.569, 5.315e-6
-1.570, 5.333e-6
-1.571, 5.354e-6
-1.572, 5.368e-6
-1.573, 5.381e-6
-1.574, 5.402e-6
-1.575, 5.420e-6
-1.576, 5.439e-6
-1.577, 5.461e-6
-1.578, 5.477e-6
-1.579, 5.497e-6
-1.580, 5.516e-6
-1.581, 5.534e-6
-1.582, 5.557e-6
-1.583, 5.577e-6
-1.584, 5.602e-6
-1.585, 5.619e-6
-1.586, 5.638e-6
-1.587, 5.660e-6
-1.588, 5.677e-6
-1.589, 5.699e-6
-1.590, 5.731e-6
-1.591, 5.763e-6
-1.592, 5.790e-6
-1.593, 5.814e-6
-1.594, 5.832e-6
-1.595, 5.852e-6
-1.596, 5.875e-6
-1.597, 5.898e-6
-1.598, 5.920e-6
-1.599, 5.950e-6
-1.600, 5.982e-6
-1.601, 6.016e-6
-1.602, 6.039e-6
-1.603, 6.065e-6
-1.604, 6.091e-6
-1.605, 6.117e-6
-1.606, 6.153e-6
-1.607, 6.190e-6
-1.608, 6.221e-6
-1.609, 6.252e-6
-1.610, 6.282e-6
-1.611, 6.316e-6
-1.612, 6.350e-6
-1.613, 6.384e-6
-1.614, 6.429e-6
-1.615, 6.468e-6
-1.616, 6.505e-6
-1.617, 6.548e-6
-1.618, 6.581e-6
-1.619, 6.620e-6
-1.620, 6.664e-6
-1.621, 6.711e-6
-1.622, 6.765e-6
-1.623, 6.806e-6
-1.624, 6.847e-6
-1.625, 6.891e-6
-1.626, 6.931e-6
-1.627, 6.975e-6
-1.628, 7.022e-6
-1.629, 7.076e-6
-1.630, 7.137e-6
-1.631, 7.195e-6
-1.632, 7.255e-6
-1.633, 7.304e-6
-1.634, 7.355e-6
-1.635, 7.413e-6
-1.636, 7.473e-6
-1.637, 7.530e-6
-1.638, 7.588e-6
-1.639, 7.655e-6
-1.640, 7.712e-6
-1.641, 7.786e-6
-1.642, 7.854e-6
-1.643, 7.920e-6
-1.644, 7.988e-6
-1.645, 8.054e-6
-1.646, 8.128e-6
-1.647, 8.203e-6
-1.648, 8.283e-6
-1.649, 8.369e-6
-1.650, 8.457e-6
-1.651, 8.547e-6
-1.652, 8.625e-6
-1.653, 8.705e-6
-1.654, 8.788e-6
-1.655, 8.871e-6
-1.656, 8.965e-6
-1.657, 9.065e-6
-1.658, 9.162e-6
-1.659, 9.268e-6
-1.660, 9.368e-6
-1.661, 9.470e-6
-1.662, 9.582e-6
-1.663, 9.699e-6
-1.664, 9.825e-6
-1.665, 9.956e-6
-1.666, 1.008e-5
-1.667, 1.020e-5
-1.668, 1.031e-5
-1.669, 1.043e-5
-1.670, 1.056e-5
-1.671, 1.070e-5
-1.672, 1.085e-5
-1.673, 1.099e-5
-1.674, 1.114e-5
-1.675, 1.130e-5
-1.676, 1.146e-5
-1.677, 1.161e-5
-1.678, 1.178e-5
-1.679, 1.194e-5
-1.680, 1.210e-5
-1.681, 1.227e-5
-1.682, 1.245e-5
-1.683, 1.263e-5
-1.684, 1.283e-5
-1.685, 1.303e-5
-1.686, 1.324e-5
-1.687, 1.345e-5
-1.688, 1.368e-5
-1.689, 1.391e-5
-1.690, 1.415e-5
-1.691, 1.439e-5
-1.692, 1.464e-5
-1.693, 1.487e-5
-1.694, 1.510e-5
-1.695, 1.534e-5
-1.696, 1.560e-5
-1.697, 1.589e-5
-1.698, 1.619e-5
-1.699, 1.649e-5
-1.700, 1.679e-5
-1.701, 1.708e-5
-1.702, 1.739e-5
-1.703, 1.770e-5
-1.704, 1.803e-5
-1.705, 1.837e-5
-1.706, 1.873e-5
-1.707, 1.911e-5
-1.708, 1.949e-5
-1.709, 1.987e-5
-1.710, 2.024e-5
-1.711, 2.064e-5
-1.712, 2.105e-5
-1.713, 2.147e-5
-1.714, 2.191e-5
-1.715, 2.238e-5
-1.716, 2.287e-5
-1.717, 2.335e-5
-1.718, 2.384e-5
-1.719, 2.434e-5
-1.720, 2.487e-5
-1.721, 2.542e-5
-1.722, 2.597e-5
-1.723, 2.656e-5
-1.724, 2.715e-5
-1.725, 2.774e-5
-1.726, 2.836e-5
-1.727, 2.901e-5
-1.728, 2.968e-5
-1.729, 3.036e-5
-1.730, 3.106e-5
-1.731, 3.180e-5
-1.732, 3.257e-5
-1.733, 3.335e-5
-1.734, 3.415e-5
-1.735, 3.498e-5
-1.736, 3.582e-5
-1.737, 3.670e-5
-1.738, 3.759e-5
-1.739, 3.852e-5
-1.740, 3.948e-5
-1.741, 4.048e-5
-1.742, 4.151e-5
-1.743, 4.257e-5
-1.744, 4.365e-5
-1.745, 4.477e-5
-1.746, 4.593e-5
-1.747, 4.712e-5
-1.748, 4.834e-5
-1.749, 4.959e-5
-1.750, 5.089e-5
-1.751, 5.222e-5
-1.752, 5.360e-5
-1.753, 5.505e-5
-1.754, 5.655e-5
-1.755, 5.808e-5
-1.756, 5.963e-5
-1.757, 6.123e-5
-1.758, 6.288e-5
-1.759, 6.461e-5
-1.760, 6.638e-5
-1.761, 6.821e-5
-1.762, 7.009e-5
-1.763, 7.206e-5
-1.764, 7.408e-5
-1.765, 7.617e-5
-1.766, 7.830e-5
-1.767, 8.049e-5
-1.768, 8.275e-5
-1.769, 8.509e-5
-1.770, 8.750e-5
-1.771, 8.999e-5
-1.772, 9.257e-5
-1.773, 9.525e-5
-1.774, 9.798e-5
-1.775, 1.008e-4
-1.776, 1.036e-4
-1.777, 1.066e-4
-1.778, 1.097e-4
-1.779, 1.129e-4
-1.780, 1.162e-4
-1.781, 1.196e-4
-1.782, 1.230e-4
-1.783, 1.266e-4
-1.784, 1.303e-4
-1.785, 1.341e-4
-1.786, 1.380e-4
-1.787, 1.421e-4
-1.788, 1.462e-4
-1.789, 1.505e-4
-1.790, 1.550e-4
-1.791, 1.595e-4
-1.792, 1.642e-4
-1.793, 1.690e-4
-1.794, 1.738e-4
-1.795, 1.789e-4
-1.796, 1.841e-4
-1.797, 1.894e-4
-1.798, 1.950e-4
-1.799, 2.007e-4
-1.800, 2.065e-4
-1.801, 2.125e-4
-1.802, 2.187e-4
-1.803, 2.251e-4
-1.804, 2.316e-4
-1.805, 2.383e-4
-1.806, 2.451e-4
-1.807, 2.521e-4
-1.808, 2.593e-4
-1.809, 2.668e-4
-1.810, 2.745e-4
-1.811, 2.824e-4
-1.812, 2.905e-4
-1.813, 2.987e-4
-1.814, 3.072e-4
-1.815, 3.159e-4
-1.816, 3.249e-4
-1.817, 3.340e-4
-1.818, 3.434e-4
-1.819, 3.530e-4
-1.820, 3.629e-4
-1.821, 3.730e-4
-1.822, 3.834e-4
-1.823, 3.941e-4
-1.824, 4.050e-4
-1.825, 4.161e-4
-1.826, 4.276e-4
-1.827, 4.393e-4
-1.828, 4.513e-4
-1.829, 4.636e-4
-1.830, 4.762e-4
-1.831, 4.892e-4
-1.832, 5.026e-4
-1.833, 5.162e-4
-1.834, 5.300e-4
-1.835, 5.440e-4
-1.836, 5.585e-4
-1.837, 5.735e-4
-1.838, 5.889e-4
-1.839, 6.046e-4
-1.840, 6.204e-4
-1.841, 6.364e-4
-1.842, 6.530e-4
-1.843, 6.700e-4
-1.844, 6.873e-4
-1.845, 7.048e-4
-1.846, 7.230e-4
-1.847, 7.417e-4
-1.848, 7.607e-4
-1.849, 7.801e-4
-1.850, 7.999e-4
-1.851, 8.197e-4
-1.852, 8.396e-4
-1.853, 8.602e-4
-1.854, 8.814e-4
-1.855, 9.021e-4
-1.856, 9.226e-4
-1.857, 9.445e-4
-1.858, 9.674e-4
-1.859, 9.910e-4
-1.860, 1.010e-3
-1.861, 1.011e-3
-1.862, 1.011e-3
-1.863, 1.011e-3
-1.864, 1.011e-3
-1.865, 1.011e-3
-1.866, 1.011e-3
-1.867, 1.011e-3
-1.868, 1.011e-3
-1.869, 1.011e-3
-1.870, 1.011e-3
-1.871, 1.011e-3
-1.872, 1.011e-3
-1.873, 1.011e-3
-1.874, 1.011e-3
-1.875, 1.011e-3
-1.876, 1.011e-3
-1.877, 1.011e-3
-1.878, 1.011e-3
-1.879, 1.011e-3
-1.880, 1.011e-3
-1.881, 1.011e-3
-1.882, 1.011e-3
-1.883, 1.011e-3
-1.884, 1.011e-3
-1.885, 1.011e-3
-1.886, 1.011e-3
-1.887, 1.011e-3
-1.888, 1.011e-3
-1.889, 1.011e-3
-1.890, 1.011e-3
-1.891, 1.011e-3
-1.892, 1.011e-3
-1.893, 1.011e-3
-1.894, 1.011e-3
-1.895, 1.011e-3
-1.896, 1.011e-3
-1.897, 1.011e-3
-1.898, 1.011e-3
-1.899, 1.011e-3
