Potential V vs RHE, Current mA cm-2
0.4132999999999999,0.002631363017748968
0.4122999999999999,0.000770734716166472
0.4112999999999999,0.00032552507009894494
0.4102999999999999,3.378330584077707e-05
0.4092999999999999,-0.00015179852247551844
0.4082999999999999,-0.00029143052777219755
0.4072999999999999,-0.00043106253306887665
0.4062999999999999,-0.0005817292865045031
0.4052999999999999,-0.000733952222369981
0.4042999999999999,-0.0008706133339369434
0.4032999999999999,-0.00094318802362002
0.4022999999999999,-0.001038115151840964
0.4012999999999999,-0.0011582241411995057
0.4002999999999999,-0.0012852652159273858
0.3992999999999999,-0.0014147112998650366
0.3982999999999999,-0.0014995939778569389
0.3972999999999999,-0.0015873060784485711
0.3962999999999999,-0.001690580003338719
0.3952999999999999,-0.0017811215265300813
0.3942999999999999,-0.001888639585319824
0.39329999999999987,-0.001955131016413481
0.39229999999999987,-0.002014548891007812
0.39129999999999987,-0.002119237527197825
0.39029999999999987,-0.002225340874687703
0.38929999999999987,-0.0022960764396809546
0.38829999999999987,-0.0023653972933743413
0.38729999999999987,-0.0024120827662698877
0.38629999999999987,-0.00251394197986017
0.38529999999999986,-0.002617215904750318
0.38429999999999986,-0.0026766337793446495
0.38329999999999986,-0.0027388810765387114
0.38229999999999986,-0.002788395972033987
0.38129999999999986,-0.0028662050935265642
0.38029999999999986,-0.0029850408427152275
0.37929999999999986,-0.003052946985108749
0.37829999999999986,-0.0031010471693041605
0.37729999999999986,-0.003173197445597277
0.37629999999999986,-0.0032368594540912042
0.37529999999999986,-0.0033528657806801364
0.37429999999999986,-0.003415113077874198
0.37329999999999985,-0.0034617985507697452
0.37229999999999985,-0.0035396076722623215
0.37129999999999985,-0.003572146032159218
0.37029999999999985,-0.0036824935135486908
0.36929999999999985,-0.0037348378316436966
0.36829999999999985,-0.003794255706238028
0.36729999999999985,-0.00385084415823263
0.36629999999999985,-0.003915920878026421
0.36529999999999985,-0.003997974133418594
0.36429999999999985,-0.00407295383231144
0.36329999999999985,-0.00409558921310928
0.36229999999999984,-0.004150762953804018
0.36129999999999984,-0.004207351405798619
0.36029999999999984,-0.0042894046611907915
0.35929999999999984,-0.004374287339182693
0.35829999999999984,-0.004396922719980534
0.35729999999999984,-0.00444077877027635
0.35629999999999984,-0.0045072702013700065
0.35529999999999984,-0.004592152879361909
0.35429999999999984,-0.00464308248615705
0.35329999999999984,-0.004678450268653676
0.35229999999999984,-0.004723721030249358
0.35129999999999983,-0.004790212461343014
0.35029999999999983,-0.004865192160235861
0.34929999999999983,-0.0049062187879319475
0.34829999999999983,-0.004945830704328168
0.34729999999999983,-0.005017980980621286
0.34629999999999983,-0.0050476899179184515
0.34529999999999983,-0.005139646152409678
0.34429999999999983,-0.005177843357506035
0.3432999999999998,-0.005211796428702795
0.3422999999999998,-0.005251408345099016
0.3412999999999998,-0.005316485064892808
0.3402999999999998,-0.005399953031584845
0.3392999999999998,-0.005421173701082821
0.3382999999999998,-0.005460785617479041
0.3372999999999998,-0.005506056379074723
0.3362999999999998,-0.005540009450271483
0.3352999999999998,-0.005641868663861766
0.3342999999999998,-0.005687139425457448
0.3332999999999998,-0.005718263074054478
0.3322999999999998,-0.005774851526049079
0.3312999999999998,-0.005817292865045031
0.3302999999999998,-0.005876710739639361
0.3292999999999998,-0.005946031593332749
0.3282999999999998,-0.005951690438532209
0.3272999999999998,-0.006011108313126541
0.3262999999999998,-0.006047890806923031
0.3252999999999999,-0.006137017618814529
0.3242999999999999,-0.00617945895781048
0.3232999999999999,-0.006178044246510615
0.3222999999999999,-0.006244535677604272
0.3212999999999999,-0.006305368263498468
0.3202999999999999,-0.0063492243137942845
0.3192999999999999,-0.006414301033588077
0.3182999999999999,-0.006414301033588077
0.3172999999999999,-0.006453912949984298
0.3162999999999999,-0.006511916113278764
0.3152999999999999,-0.006576992833072556
0.3142999999999999,-0.0066236783059681024
0.3132999999999999,-0.006629337151167562
0.3122999999999999,-0.006667534356263918
0.3112999999999999,-0.006734025787357574
0.3102999999999999,-0.006801931929751096
0.3092999999999999,-0.0068542762478461024
0.3082999999999999,-0.006882570473843404
0.3072999999999999,-0.0069066205659411095
0.3062999999999999,-0.006975941419634496
0.3052999999999999,-0.007032529871629097
0.3042999999999999,-0.007063653520226129
0.3032999999999999,-0.007080630055824508
0.3022999999999999,-0.007130144951319785
0.3012999999999999,-0.007174001001615601
0.3002999999999999,-0.007246151277908719
0.2992999999999999,-0.007280104349105479
0.2982999999999999,-0.007291422039504399
0.2972999999999999,-0.007340936934999676
0.2962999999999999,-0.0073862076965953575
0.2952999999999999,-0.007479578642386449
0.2942999999999999,-0.007500799311884425
0.2932999999999999,-0.00750504344578402
0.2922999999999999,-0.007538996516980781
0.2912999999999999,-0.007587096701176191
0.2902999999999999,-0.00766490582266877
0.2892999999999999,-0.0077101765842644485
0.2882999999999999,-0.00772149427466337
0.2872999999999999,-0.007765350324959188
0.2862999999999999,-0.007804962241355407
0.2852999999999999,-0.007874283095048795
0.2842999999999999,-0.007923797990544072
0.2832999999999999,-0.007919553856644475
0.2822999999999999,-0.007961995195640427
0.2812999999999999,-0.008011510091135703
0.2802999999999999,-0.00807800152222936
0.2792999999999999,-0.008119028149925446
0.2782999999999999,-0.00812044286122531
0.2772999999999999,-0.00816571362282099
0.2762999999999999,-0.008230790342614784
0.2752999999999999,-0.008267572836411274
0.2742999999999999,-0.008298696485008306
0.2732999999999999,-0.008317087731906552
0.2722999999999999,-0.008346796669203717
0.2712999999999999,-0.008404799832498182
0.2702999999999999,-0.008474120686191569
0.2692999999999999,-0.008502414912188871
0.26829999999999987,-0.008520806159087117
0.26729999999999987,-0.008534953272085767
0.26629999999999987,-0.008590127012780502
0.26529999999999987,-0.008679253824672
0.26429999999999987,-0.00869623036027038
0.26329999999999987,-0.008720280452368086
0.26229999999999987,-0.008754233523564848
0.26129999999999987,-0.008792430728661203
0.26029999999999986,-0.008877313406653107
0.25929999999999986,-0.008891460519651756
0.25829999999999986,-0.008933901858647708
0.25729999999999986,-0.008952293105545952
0.25629999999999986,-0.008994734444541904
0.25529999999999986,-0.00908952010163286
0.25429999999999986,-0.009092349524232591
0.25329999999999986,-0.009110740771130837
0.25229999999999986,-0.009146108553627462
0.25129999999999986,-0.009204111716921927
0.25029999999999986,-0.00926918843671572
0.24929999999999986,-0.009293238528813426
0.24829999999999985,-0.009288994394913831
0.24729999999999985,-0.009361144671206948
0.24629999999999985,-0.009395097742403708
0.24529999999999985,-0.009479980420395611
0.24429999999999985,-0.00951110406899264
0.24329999999999985,-0.009523836470691428
0.24229999999999985,-0.009562033675787783
0.24129999999999985,-0.00961154857128306
0.24029999999999985,-0.009675210579776985
0.23929999999999985,-0.009693601826675231
0.23829999999999985,-0.009710578362273611
0.23729999999999984,-0.009716237207473073
0.23629999999999984,-0.009795461040265515
0.23529999999999984,-0.009835072956661734
0.23429999999999984,-0.009871855450458227
0.23329999999999984,-0.009895905542555932
0.23229999999999984,-0.009918540923353774
0.23129999999999984,-0.009969470530148914
0.23029999999999984,-0.010028888404743246
0.22929999999999984,-0.010061426764640141
0.22829999999999984,-0.010071329743739196
0.22729999999999984,-0.010119429927934607
0.22629999999999983,-0.010170359534729749
0.22529999999999983,-0.01022977740932408
0.22429999999999983,-0.01026090105792111
0.22329999999999983,-0.01027221874832003
0.22229999999999983,-0.010284951150018817
0.22129999999999983,-0.010333051334214229
0.22029999999999983,-0.010410860455706805
0.21929999999999983,-0.010436325259104377
0.21829999999999983,-0.010456131217302487
0.21729999999999983,-0.010480181309400191
0.21629999999999983,-0.010528281493595602
0.21529999999999982,-0.01060043176988872
0.21429999999999982,-0.01059477292468926
0.21329999999999982,-0.01062589657328629
0.21229999999999982,-0.010654190799283592
0.21129999999999982,-0.010706535117378598
0.21029999999999982,-0.010775855971071984
0.20929999999999982,-0.01080556490836915
0.20829999999999982,-0.010818297310067934
0.20729999999999982,-0.010867812205563212
0.20629999999999982,-0.010917327101058487
0.20529999999999982,-0.01097108613045336
0.20429999999999982,-0.011005039201650121
0.20329999999999981,-0.011005039201650121
0.2022999999999998,-0.01104182169544661
0.2012999999999998,-0.011102654281340808
0.20029999999999992,-0.011154998599435815
0.19929999999999992,-0.01118470753673298
0.19829999999999992,-0.01120451349493109
0.19729999999999992,-0.011238466566127852
0.19629999999999992,-0.011286566750323261
0.19529999999999992,-0.011341740491018
0.19429999999999992,-0.01144642912720801
0.19329999999999992,-0.011463405662806393
0.19229999999999992,-0.011447843838507877
0.19129999999999991,-0.011507261713102209
0.1902999999999999,-0.01156102074249708
0.1892999999999999,-0.01159497381369384
0.1882999999999999,-0.01160912092669249
0.1872999999999999,-0.011636000441389925
0.1862999999999999,-0.011699662449883852
0.1852999999999999,-0.011766153880977511
0.1842999999999999,-0.01176049503577805
0.1832999999999999,-0.011790203973075217
0.1822999999999999,-0.011811424642573193
0.1812999999999999,-0.011872257228467388
0.1802999999999999,-0.01196562817425848
0.1792999999999999,-0.01196279875165875
0.1782999999999999,-0.011986848843756457
0.1772999999999999,-0.012013728358453891
0.1762999999999999,-0.012056169697449843
0.1752999999999999,-0.01213397881894242
0.1742999999999999,-0.012152370065840664
0.1732999999999999,-0.012166517178839315
0.1722999999999999,-0.012213202651734862
0.1712999999999999,-0.012244326300331893
0.1702999999999999,-0.01233628253482312
0.1692999999999999,-0.012343356091322444
0.1682999999999999,-0.012374479739919475
0.1672999999999999,-0.012431068191914077
0.1662999999999999,-0.012462191840511108
0.1652999999999999,-0.01252160971510544
0.1642999999999999,-0.01254141567330355
0.1632999999999999,-0.01254990394110274
0.1622999999999999,-0.012610736526996937
0.1612999999999999,-0.012663080845091943
0.1602999999999999,-0.01271825458578668
0.1592999999999999,-0.012745134100484116
0.15829999999999989,-0.012762110636082496
0.15729999999999988,-0.01278333130558047
0.15629999999999988,-0.012854066870573722
0.15529999999999988,-0.012921973012967245
0.15429999999999988,-0.012944608393765086
0.15329999999999988,-0.012968658485862792
0.15229999999999988,-0.012989879155360765
0.15129999999999988,-0.013050711741254963
0.15029999999999988,-0.013138423841846596
0.14929999999999988,-0.013155400377444976
0.14829999999999988,-0.013178035758242817
0.14729999999999988,-0.013206329984240118
0.14629999999999987,-0.013255844879735393
0.14529999999999987,-0.013311018620430128
0.14429999999999987,-0.013320921599529186
0.14329999999999987,-0.01337043649502446
0.14229999999999987,-0.013408633700120817
0.14129999999999987,-0.013456733884316228
0.14029999999999987,-0.013530298871909211
0.13929999999999987,-0.013535957717108672
0.13829999999999987,-0.013555763675306783
0.13729999999999987,-0.013605278570802059
0.13629999999999987,-0.013646305198498144
0.13529999999999986,-0.01371845547479126
0.13429999999999986,-0.013722699608690856
0.13329999999999986,-0.013746749700788562
0.13229999999999986,-0.013786361617184781
0.13129999999999986,-0.013821729399681406
0.13029999999999986,-0.013913685634172635
0.12929999999999986,-0.013947638705369397
0.12829999999999986,-0.01394622399406953
0.12729999999999986,-0.013980177065266292
0.12629999999999986,-0.014028277249461702
0.12529999999999986,-0.014089109835355901
0.12429999999999986,-0.014110330504853877
0.12329999999999985,-0.014140039442151042
0.12229999999999985,-0.014189554337646317
0.12129999999999985,-0.01424614278964092
0.12029999999999985,-0.01430273124163552
0.11929999999999985,-0.014316878354634173
0.11829999999999985,-0.014331025467632824
0.11729999999999985,-0.014373466806628774
0.11629999999999985,-0.014444202371622025
0.11529999999999985,-0.014486643710617976
0.11429999999999985,-0.014514937936615275
0.11329999999999985,-0.014557379275611227
0.11229999999999984,-0.014585673501608528
0.11129999999999984,-0.014642261953603129
0.11029999999999984,-0.014712997518596381
0.10929999999999984,-0.014712997518596381
0.10829999999999984,-0.014769585970590984
0.10729999999999984,-0.014812027309586936
0.10629999999999984,-0.014854468648582884
0.10529999999999984,-0.014911057100577486
0.10429999999999984,-0.014953498439573438
0.10329999999999984,-0.014981792665570736
0.10229999999999984,-0.015024234004566688
0.10129999999999983,-0.015080822456561293
0.10029999999999983,-0.015151558021554544
0.09929999999999983,-0.015137410908555892
0.09829999999999983,-0.015179852247551842
0.09729999999999983,-0.015236440699546445
0.09629999999999983,-0.015278882038542396
0.09529999999999983,-0.015349617603535646
0.09429999999999983,-0.0153637647165343
0.09329999999999983,-0.015392058942531598
0.09229999999999983,-0.015448647394526203
0.09129999999999983,-0.015491088733522153
0.09029999999999982,-0.015561824298515404
0.08929999999999982,-0.015590118524512706
0.08829999999999982,-0.015618412750510005
0.08729999999999982,-0.015660854089505957
0.08629999999999982,-0.015703295428501907
0.08529999999999982,-0.01575988388049651
0.08429999999999982,-0.015774030993495156
0.08329999999999982,-0.01580232521949246
0.08229999999999982,-0.01585891367148706
0.08129999999999982,-0.01591550212348166
0.08029999999999982,-0.015957943462477614
0.07929999999999982,-0.016000384801473564
0.07829999999999981,-0.016014531914472215
0.07729999999999981,-0.016042826140469518
0.07629999999999981,-0.01614185593146007
0.07529999999999992,-0.01618429727045602
0.07429999999999992,-0.01619844438345467
0.07329999999999992,-0.016226738609451972
0.07229999999999992,-0.016269179948447923
0.07129999999999992,-0.016339915513441175
0.07029999999999992,-0.016410651078434424
0.06929999999999992,-0.016424798191433075
0.06829999999999992,-0.016453092417430374
0.06729999999999992,-0.016495533756426328
0.06629999999999991,-0.01656626932141958
0.06529999999999991,-0.01662285777341418
0.06429999999999991,-0.016637004886412832
0.06329999999999991,-0.016693593338407434
0.06229999999999991,-0.016721887564404736
0.06129999999999991,-0.016806770242396636
0.06029999999999991,-0.01687750580738989
0.05929999999999991,-0.01687750580738989
0.05829999999999991,-0.01691994714638584
0.05729999999999991,-0.016962388485381792
0.056299999999999906,-0.017018976937376393
0.055299999999999905,-0.017089712502369642
0.054299999999999904,-0.017103859615368294
0.0532999999999999,-0.017160448067362895
0.0522999999999999,-0.017174595180361543
0.0512999999999999,-0.0172453307453548
0.0502999999999999,-0.01731606631034805
0.0492999999999999,-0.01734436053634535
0.0482999999999999,-0.017358507649344
0.0472999999999999,-0.017400948988339954
0.0462999999999999,-0.01748583166633185
0.045299999999999896,-0.017556567231325104
0.044299999999999895,-0.017584861457322406
0.043299999999999894,-0.017613155683319705
0.04229999999999989,-0.01766974413531431
0.04129999999999989,-0.017754626813306213
0.04029999999999989,-0.017825362378299462
0.03929999999999989,-0.017839509491298113
0.03829999999999989,-0.01785365660429676
0.03729999999999989,-0.017896097943292714
0.03629999999999989,-0.017966833508285963
0.03529999999999989,-0.018023421960280565
0.034299999999999886,-0.018065863299276518
0.033299999999999885,-0.01812245175127112
0.032299999999999884,-0.018150745977268422
0.031299999999999883,-0.01820733442926302
0.030299999999999883,-0.018292217107254923
0.02929999999999988,-0.018292217107254923
0.02829999999999988,-0.018362952672248176
0.02729999999999988,-0.018405394011244126
0.02629999999999988,-0.01847612957623738
0.025299999999999878,-0.018546865141230634
0.024299999999999877,-0.018575159367227933
0.023299999999999876,-0.018603453593225232
0.022299999999999875,-0.018645894932221182
0.021299999999999875,-0.018730777610213082
0.020299999999999874,-0.018815660288204986
0.019299999999999873,-0.01882980740120364
0.018299999999999872,-0.01887224874019959
0.01729999999999987,-0.01892883719219419
0.01629999999999987,-0.01897127853119014
0.01529999999999987,-0.019084455435179344
0.014299999999999868,-0.019126896774175294
0.013299999999999867,-0.0191551910001726
0.012299999999999978,-0.019211779452167198
0.011299999999999866,-0.01928251501716045
0.010299999999999976,-0.019353250582153703
0.009299999999999864,-0.019381544808151
0.008299999999999974,-0.0194098390341483
0.007299999999999862,-0.019466427486142905
0.006299999999999972,-0.019551310164134805
0.00529999999999986,-0.019607898616129407
0.0042999999999999705,-0.01965033995512536
0.0032999999999998586,-0.019664487068124008
0.0022999999999999687,-0.019749369746115915
0.0012999999999998568,-0.019834252424107815
0.00029999999999996696,-0.019890840876102416
-0.000700000000000145,-0.019933282215098366
-0.0017000000000000348,-0.019961576441095665
-0.0027000000000001467,-0.020018164893090266
-0.0037000000000000366,-0.020103047571082173
-0.0047000000000001485,-0.02015963602307677
-0.005700000000000038,-0.02020207736207272
-0.00670000000000015,-0.020244518701068675
-0.00770000000000004,-0.020301107153063276
-0.008700000000000152,-0.02038598983105518
-0.009700000000000042,-0.020442578283049778
-0.010700000000000154,-0.02048501962204573
-0.011700000000000044,-0.020541608074040336
-0.012700000000000156,-0.020569902300037635
-0.013700000000000045,-0.020668932091028186
-0.014700000000000157,-0.02073966765602144
-0.015700000000000047,-0.020767961882018737
-0.01670000000000016,-0.020810403221014687
-0.01770000000000005,-0.02088113878600794
-0.01870000000000016,-0.020951874351001196
-0.01970000000000005,-0.021022609915994445
-0.020700000000000163,-0.021050904141991744
-0.021700000000000053,-0.021107492593986348
-0.022700000000000164,-0.021149933932982302
-0.023700000000000054,-0.02122066949797555
-0.024700000000000166,-0.021305552175967454
-0.025700000000000056,-0.021333846401964753
-0.026700000000000168,-0.021362140627962056
-0.027700000000000058,-0.021432876192955305
-0.02870000000000017,-0.021489464644949906
-0.02970000000000006,-0.02157434732294181
-0.03070000000000017,-0.021602641548939108
-0.03170000000000006,-0.02163093577493641
-0.03270000000000017,-0.021701671339929663
-0.03370000000000006,-0.021772406904922915
-0.034700000000000175,-0.021843142469916164
-0.035700000000000065,-0.021885583808912118
-0.03670000000000018,-0.021928025147908068
-0.03770000000000007,-0.02199876071290132
-0.03870000000000018,-0.02208364339089322
-0.03970000000000007,-0.022140231842887825
-0.04070000000000018,-0.02218267318188378
-0.04170000000000007,-0.022196820294882423
-0.04270000000000018,-0.022253408746877028
-0.04370000000000007,-0.022338291424868928
-0.044700000000000184,-0.02238073276386488
-0.045700000000000074,-0.02242317410286083
-0.046700000000000186,-0.022479762554855433
-0.047700000000000076,-0.022508056780852735
-0.04870000000000019,-0.022635380797840585
-0.04970000000000008,-0.022691969249835187
-0.05070000000000019,-0.02270611636283384
-0.05170000000000008,-0.02276270481482844
-0.05270000000000019,-0.02279099904082574
-0.05370000000000008,-0.02287588171881764
-0.05470000000000019,-0.022932470170812246
-0.05570000000000008,-0.022960764396809545
-0.056700000000000195,-0.023017352848804146
-0.057700000000000085,-0.0230597941878001
-0.058700000000000196,-0.023116382639794698
-0.059700000000000086,-0.023215412430785252
-0.0607000000000002,-0.023215412430785252
-0.06170000000000009,-0.023286147995778505
-0.0627000000000002,-0.023342736447773106
