Aug. 12, 2024   09:59:52
Cyclic Voltammetry
File: c:/users/guazh/data/20240802_batch_500/2024-08-02-exp91\exp91-2024-08-12t09_46_44-h2koh\exp91_cv_sr_50mvs_efin_-1600mv.bin
Data Source:  Experiment
Instrument Model:  CHI760E
Header: CV ran at 50 mVs
Note: 

Init E (V) = -1
High E (V) = -1
Low E (V) = -1.6
Final E (V) = -1
Init P/N = N
Scan Rate (V/s) = 0.05
Segment = 3
Sample Interval (V) = 0.001
Quiet Time (sec) = 2
Sensitivity (A/V) = 0.01
Comp R (ohm) = 2.3

Results:

Channel 1:
Segment 1:

Segment 2:

Segment 3:

Potential/V, Current/A

-1.000, 2.987e-6
-1.001, 4.744e-6
-1.002, 5.237e-6
-1.003, 5.454e-6
-1.004, 5.740e-6
-1.005, 5.927e-6
-1.006, 6.026e-6
-1.007, 6.362e-6
-1.008, 6.411e-6
-1.009, 6.470e-6
-1.010, 6.717e-6
-1.011, 6.835e-6
-1.012, 6.855e-6
-1.013, 6.983e-6
-1.014, 6.963e-6
-1.015, 7.190e-6
-1.016, 7.289e-6
-1.017, 7.348e-6
-1.018, 7.536e-6
-1.019, 7.348e-6
-1.020, 7.536e-6
-1.021, 7.565e-6
-1.022, 7.624e-6
-1.023, 7.989e-6
-1.024, 7.989e-6
-1.025, 7.950e-6
-1.026, 8.068e-6
-1.027, 8.059e-6
-1.028, 8.128e-6
-1.029, 8.226e-6
-1.030, 8.325e-6
-1.031, 8.394e-6
-1.032, 8.295e-6
-1.033, 8.414e-6
-1.034, 8.443e-6
-1.035, 8.572e-6
-1.036, 8.552e-6
-1.037, 8.611e-6
-1.038, 8.572e-6
-1.039, 8.621e-6
-1.040, 8.670e-6
-1.041, 8.769e-6
-1.042, 8.789e-6
-1.043, 8.848e-6
-1.044, 8.769e-6
-1.045, 8.789e-6
-1.046, 8.858e-6
-1.047, 8.966e-6
-1.048, 8.976e-6
-1.049, 9.006e-6
-1.050, 9.213e-6
-1.051, 9.065e-6
-1.052, 9.124e-6
-1.053, 9.183e-6
-1.054, 9.134e-6
-1.055, 9.282e-6
-1.056, 9.154e-6
-1.057, 9.223e-6
-1.058, 9.361e-6
-1.059, 9.242e-6
-1.060, 9.331e-6
-1.061, 9.341e-6
-1.062, 9.381e-6
-1.063, 9.489e-6
-1.064, 9.292e-6
-1.065, 9.459e-6
-1.066, 9.499e-6
-1.067, 9.509e-6
-1.068, 9.509e-6
-1.069, 9.696e-6
-1.070, 9.647e-6
-1.071, 9.598e-6
-1.072, 9.627e-6
-1.073, 9.746e-6
-1.074, 9.657e-6
-1.075, 9.913e-6
-1.076, 9.775e-6
-1.077, 9.825e-6
-1.078, 9.913e-6
-1.079, 9.864e-6
-1.080, 9.903e-6
-1.081, 9.834e-6
-1.082, 1.007e-5
-1.083, 9.973e-6
-1.084, 9.923e-6
-1.085, 1.008e-5
-1.086, 9.982e-6
-1.087, 1.012e-5
-1.088, 1.007e-5
-1.089, 1.015e-5
-1.090, 1.025e-5
-1.091, 1.014e-5
-1.092, 1.017e-5
-1.093, 1.031e-5
-1.094, 1.020e-5
-1.095, 1.039e-5
-1.096, 1.028e-5
-1.097, 1.039e-5
-1.098, 1.045e-5
-1.099, 1.041e-5
-1.100, 1.052e-5
-1.101, 1.052e-5
-1.102, 1.056e-5
-1.103, 1.073e-5
-1.104, 1.051e-5
-1.105, 1.061e-5
-1.106, 1.068e-5
-1.107, 1.071e-5
-1.108, 1.077e-5
-1.109, 1.091e-5
-1.110, 1.083e-5
-1.111, 1.088e-5
-1.112, 1.090e-5
-1.113, 1.091e-5
-1.114, 1.117e-5
-1.115, 1.104e-5
-1.116, 1.106e-5
-1.117, 1.118e-5
-1.118, 1.113e-5
-1.119, 1.120e-5
-1.120, 1.122e-5
-1.121, 1.121e-5
-1.122, 1.128e-5
-1.123, 1.141e-5
-1.124, 1.147e-5
-1.125, 1.146e-5
-1.126, 1.146e-5
-1.127, 1.159e-5
-1.128, 1.156e-5
-1.129, 1.166e-5
-1.130, 1.178e-5
-1.131, 1.162e-5
-1.132, 1.184e-5
-1.133, 1.190e-5
-1.134, 1.185e-5
-1.135, 1.196e-5
-1.136, 1.188e-5
-1.137, 1.195e-5
-1.138, 1.211e-5
-1.139, 1.218e-5
-1.140, 1.232e-5
-1.141, 1.240e-5
-1.142, 1.229e-5
-1.143, 1.247e-5
-1.144, 1.242e-5
-1.145, 1.247e-5
-1.146, 1.256e-5
-1.147, 1.258e-5
-1.148, 1.272e-5
-1.149, 1.278e-5
-1.150, 1.281e-5
-1.151, 1.300e-5
-1.152, 1.306e-5
-1.153, 1.311e-5
-1.154, 1.329e-5
-1.155, 1.329e-5
-1.156, 1.339e-5
-1.157, 1.347e-5
-1.158, 1.356e-5
-1.159, 1.364e-5
-1.160, 1.373e-5
-1.161, 1.376e-5
-1.162, 1.395e-5
-1.163, 1.402e-5
-1.164, 1.405e-5
-1.165, 1.431e-5
-1.166, 1.436e-5
-1.167, 1.451e-5
-1.168, 1.450e-5
-1.169, 1.467e-5
-1.170, 1.481e-5
-1.171, 1.481e-5
-1.172, 1.507e-5
-1.173, 1.504e-5
-1.174, 1.518e-5
-1.175, 1.546e-5
-1.176, 1.551e-5
-1.177, 1.572e-5
-1.178, 1.611e-5
-1.179, 1.604e-5
-1.180, 1.634e-5
-1.181, 1.633e-5
-1.182, 1.654e-5
-1.183, 1.683e-5
-1.184, 1.690e-5
-1.185, 1.715e-5
-1.186, 1.733e-5
-1.187, 1.740e-5
-1.188, 1.773e-5
-1.189, 1.786e-5
-1.190, 1.814e-5
-1.191, 1.842e-5
-1.192, 1.858e-5
-1.193, 1.885e-5
-1.194, 1.925e-5
-1.195, 1.933e-5
-1.196, 1.956e-5
-1.197, 1.983e-5
-1.198, 2.009e-5
-1.199, 2.043e-5
-1.200, 2.081e-5
-1.201, 2.093e-5
-1.202, 2.136e-5
-1.203, 2.163e-5
-1.204, 2.198e-5
-1.205, 2.236e-5
-1.206, 2.277e-5
-1.207, 2.311e-5
-1.208, 2.335e-5
-1.209, 2.375e-5
-1.210, 2.434e-5
-1.211, 2.452e-5
-1.212, 2.508e-5
-1.213, 2.554e-5
-1.214, 2.586e-5
-1.215, 2.643e-5
-1.216, 2.685e-5
-1.217, 2.735e-5
-1.218, 2.796e-5
-1.219, 2.841e-5
-1.220, 2.909e-5
-1.221, 2.952e-5
-1.222, 3.004e-5
-1.223, 3.079e-5
-1.224, 3.126e-5
-1.225, 3.189e-5
-1.226, 3.259e-5
-1.227, 3.310e-5
-1.228, 3.398e-5
-1.229, 3.480e-5
-1.230, 3.543e-5
-1.231, 3.622e-5
-1.232, 3.686e-5
-1.233, 3.772e-5
-1.234, 3.848e-5
-1.235, 3.919e-5
-1.236, 4.012e-5
-1.237, 4.093e-5
-1.238, 4.174e-5
-1.239, 4.275e-5
-1.240, 4.371e-5
-1.241, 4.456e-5
-1.242, 4.569e-5
-1.243, 4.670e-5
-1.244, 4.767e-5
-1.245, 4.879e-5
-1.246, 4.983e-5
-1.247, 5.100e-5
-1.248, 5.216e-5
-1.249, 5.331e-5
-1.250, 5.465e-5
-1.251, 5.585e-5
-1.252, 5.713e-5
-1.253, 5.848e-5
-1.254, 5.980e-5
-1.255, 6.135e-5
-1.256, 6.265e-5
-1.257, 6.412e-5
-1.258, 6.560e-5
-1.259, 6.708e-5
-1.260, 6.874e-5
-1.261, 7.035e-5
-1.262, 7.208e-5
-1.263, 7.372e-5
-1.264, 7.539e-5
-1.265, 7.721e-5
-1.266, 7.908e-5
-1.267, 8.096e-5
-1.268, 8.299e-5
-1.269, 8.505e-5
-1.270, 8.706e-5
-1.271, 8.910e-5
-1.272, 9.118e-5
-1.273, 9.337e-5
-1.274, 9.572e-5
-1.275, 9.793e-5
-1.276, 1.003e-4
-1.277, 1.027e-4
-1.278, 1.052e-4
-1.279, 1.076e-4
-1.280, 1.103e-4
-1.281, 1.129e-4
-1.282, 1.156e-4
-1.283, 1.182e-4
-1.284, 1.210e-4
-1.285, 1.238e-4
-1.286, 1.267e-4
-1.287, 1.299e-4
-1.288, 1.329e-4
-1.289, 1.359e-4
-1.290, 1.391e-4
-1.291, 1.423e-4
-1.292, 1.456e-4
-1.293, 1.490e-4
-1.294, 1.525e-4
-1.295, 1.561e-4
-1.296, 1.596e-4
-1.297, 1.632e-4
-1.298, 1.670e-4
-1.299, 1.708e-4
-1.300, 1.746e-4
-1.301, 1.785e-4
-1.302, 1.825e-4
-1.303, 1.866e-4
-1.304, 1.905e-4
-1.305, 1.947e-4
-1.306, 1.991e-4
-1.307, 2.034e-4
-1.308, 2.079e-4
-1.309, 2.123e-4
-1.310, 2.167e-4
-1.311, 2.212e-4
-1.312, 2.258e-4
-1.313, 2.305e-4
-1.314, 2.354e-4
-1.315, 2.402e-4
-1.316, 2.452e-4
-1.317, 2.501e-4
-1.318, 2.553e-4
-1.319, 2.605e-4
-1.320, 2.658e-4
-1.321, 2.712e-4
-1.322, 2.765e-4
-1.323, 2.821e-4
-1.324, 2.876e-4
-1.325, 2.932e-4
-1.326, 2.988e-4
-1.327, 3.049e-4
-1.328, 3.106e-4
-1.329, 3.165e-4
-1.330, 3.224e-4
-1.331, 3.286e-4
-1.332, 3.348e-4
-1.333, 3.409e-4
-1.334, 3.473e-4
-1.335, 3.538e-4
-1.336, 3.598e-4
-1.337, 3.665e-4
-1.338, 3.733e-4
-1.339, 3.800e-4
-1.340, 3.866e-4
-1.341, 3.935e-4
-1.342, 4.004e-4
-1.343, 4.072e-4
-1.344, 4.141e-4
-1.345, 4.212e-4
-1.346, 4.282e-4
-1.347, 4.352e-4
-1.348, 4.426e-4
-1.349, 4.501e-4
-1.350, 4.578e-4
-1.351, 4.651e-4
-1.352, 4.726e-4
-1.353, 4.805e-4
-1.354, 4.881e-4
-1.355, 4.956e-4
-1.356, 5.038e-4
-1.357, 5.118e-4
-1.358, 5.196e-4
-1.359, 5.277e-4
-1.360, 5.361e-4
-1.361, 5.442e-4
-1.362, 5.525e-4
-1.363, 5.610e-4
-1.364, 5.697e-4
-1.365, 5.781e-4
-1.366, 5.864e-4
-1.367, 5.951e-4
-1.368, 6.037e-4
-1.369, 6.122e-4
-1.370, 6.212e-4
-1.371, 6.299e-4
-1.372, 6.386e-4
-1.373, 6.476e-4
-1.374, 6.573e-4
-1.375, 6.668e-4
-1.376, 6.756e-4
-1.377, 6.848e-4
-1.378, 6.946e-4
-1.379, 7.038e-4
-1.380, 7.132e-4
-1.381, 7.230e-4
-1.382, 7.330e-4
-1.383, 7.423e-4
-1.384, 7.518e-4
-1.385, 7.621e-4
-1.386, 7.725e-4
-1.387, 7.821e-4
-1.388, 7.926e-4
-1.389, 8.027e-4
-1.390, 8.124e-4
-1.391, 8.228e-4
-1.392, 8.337e-4
-1.393, 8.445e-4
-1.394, 8.546e-4
-1.395, 8.650e-4
-1.396, 8.759e-4
-1.397, 8.861e-4
-1.398, 8.962e-4
-1.399, 9.073e-4
-1.400, 9.186e-4
-1.401, 9.296e-4
-1.402, 9.400e-4
-1.403, 9.513e-4
-1.404, 9.628e-4
-1.405, 9.734e-4
-1.406, 9.849e-4
-1.407, 9.968e-4
-1.408, 1.008e-3
-1.409, 1.019e-3
-1.410, 1.030e-3
-1.411, 1.042e-3
-1.412, 1.053e-3
-1.413, 1.064e-3
-1.414, 1.076e-3
-1.415, 1.089e-3
-1.416, 1.100e-3
-1.417, 1.112e-3
-1.418, 1.125e-3
-1.419, 1.137e-3
-1.420, 1.148e-3
-1.421, 1.160e-3
-1.422, 1.173e-3
-1.423, 1.186e-3
-1.424, 1.197e-3
-1.425, 1.209e-3
-1.426, 1.221e-3
-1.427, 1.233e-3
-1.428, 1.245e-3
-1.429, 1.258e-3
-1.430, 1.272e-3
-1.431, 1.284e-3
-1.432, 1.297e-3
-1.433, 1.311e-3
-1.434, 1.323e-3
-1.435, 1.336e-3
-1.436, 1.350e-3
-1.437, 1.363e-3
-1.438, 1.375e-3
-1.439, 1.388e-3
-1.440, 1.402e-3
-1.441, 1.416e-3
-1.442, 1.429e-3
-1.443, 1.442e-3
-1.444, 1.457e-3
-1.445, 1.470e-3
-1.446, 1.483e-3
-1.447, 1.497e-3
-1.448, 1.512e-3
-1.449, 1.526e-3
-1.450, 1.539e-3
-1.451, 1.554e-3
-1.452, 1.567e-3
-1.453, 1.580e-3
-1.454, 1.595e-3
-1.455, 1.611e-3
-1.456, 1.625e-3
-1.457, 1.639e-3
-1.458, 1.653e-3
-1.459, 1.669e-3
-1.460, 1.683e-3
-1.461, 1.697e-3
-1.462, 1.713e-3
-1.463, 1.729e-3
-1.464, 1.743e-3
-1.465, 1.758e-3
-1.466, 1.775e-3
-1.467, 1.789e-3
-1.468, 1.803e-3
-1.469, 1.819e-3
-1.470, 1.835e-3
-1.471, 1.850e-3
-1.472, 1.865e-3
-1.473, 1.881e-3
-1.474, 1.898e-3
-1.475, 1.913e-3
-1.476, 1.928e-3
-1.477, 1.945e-3
-1.478, 1.962e-3
-1.479, 1.977e-3
-1.480, 1.992e-3
-1.481, 2.010e-3
-1.482, 2.027e-3
-1.483, 2.041e-3
-1.484, 2.058e-3
-1.485, 2.077e-3
-1.486, 2.093e-3
-1.487, 2.108e-3
-1.488, 2.126e-3
-1.489, 2.144e-3
-1.490, 2.159e-3
-1.491, 2.176e-3
-1.492, 2.196e-3
-1.493, 2.213e-3
-1.494, 2.228e-3
-1.495, 2.246e-3
-1.496, 2.265e-3
-1.497, 2.283e-3
-1.498, 2.299e-3
-1.499, 2.318e-3
-1.500, 2.336e-3
-1.501, 2.352e-3
-1.502, 2.370e-3
-1.503, 2.390e-3
-1.504, 2.408e-3
-1.505, 2.426e-3
-1.506, 2.446e-3
-1.507, 2.463e-3
-1.508, 2.480e-3
-1.509, 2.499e-3
-1.510, 2.521e-3
-1.511, 2.540e-3
-1.512, 2.557e-3
-1.513, 2.578e-3
-1.514, 2.597e-3
-1.515, 2.614e-3
-1.516, 2.633e-3
-1.517, 2.655e-3
-1.518, 2.676e-3
-1.519, 2.693e-3
-1.520, 2.713e-3
-1.521, 2.735e-3
-1.522, 2.754e-3
-1.523, 2.772e-3
-1.524, 2.793e-3
-1.525, 2.813e-3
-1.526, 2.832e-3
-1.527, 2.853e-3
-1.528, 2.876e-3
-1.529, 2.894e-3
-1.530, 2.913e-3
-1.531, 2.935e-3
-1.532, 2.959e-3
-1.533, 2.980e-3
-1.534, 2.998e-3
-1.535, 3.021e-3
-1.536, 3.046e-3
-1.537, 3.066e-3
-1.538, 3.087e-3
-1.539, 3.111e-3
-1.540, 3.131e-3
-1.541, 3.151e-3
-1.542, 3.176e-3
-1.543, 3.201e-3
-1.544, 3.221e-3
-1.545, 3.243e-3
-1.546, 3.269e-3
-1.547, 3.291e-3
-1.548, 3.310e-3
-1.549, 3.334e-3
-1.550, 3.361e-3
-1.551, 3.382e-3
-1.552, 3.402e-3
-1.553, 3.429e-3
-1.554, 3.455e-3
-1.555, 3.477e-3
-1.556, 3.501e-3
-1.557, 3.528e-3
-1.558, 3.555e-3
-1.559, 3.575e-3
-1.560, 3.599e-3
-1.561, 3.627e-3
-1.562, 3.650e-3
-1.563, 3.672e-3
-1.564, 3.698e-3
-1.565, 3.727e-3
-1.566, 3.750e-3
-1.567, 3.773e-3
-1.568, 3.801e-3
-1.569, 3.829e-3
-1.570, 3.849e-3
-1.571, 3.873e-3
-1.572, 3.903e-3
-1.573, 3.930e-3
-1.574, 3.952e-3
-1.575, 3.978e-3
-1.576, 4.012e-3
-1.577, 4.042e-3
-1.578, 4.068e-3
-1.579, 4.097e-3
-1.580, 4.129e-3
-1.581, 4.154e-3
-1.582, 4.180e-3
-1.583, 4.211e-3
-1.584, 4.236e-3
-1.585, 4.257e-3
-1.586, 4.285e-3
-1.587, 4.320e-3
-1.588, 4.350e-3
-1.589, 4.372e-3
-1.590, 4.402e-3
-1.591, 4.436e-3
-1.592, 4.459e-3
-1.593, 4.485e-3
-1.594, 4.519e-3
-1.595, 4.548e-3
-1.596, 4.573e-3
-1.597, 4.602e-3
-1.598, 4.637e-3
-1.599, 4.665e-3
-1.600, 4.643e-3
-1.599, 4.580e-3
-1.598, 4.521e-3
-1.597, 4.456e-3
-1.596, 4.391e-3
-1.595, 4.338e-3
-1.594, 4.281e-3
-1.593, 4.218e-3
-1.592, 4.160e-3
-1.591, 4.109e-3
-1.590, 4.057e-3
-1.589, 3.999e-3
-1.588, 3.947e-3
-1.587, 3.899e-3
-1.586, 3.846e-3
-1.585, 3.791e-3
-1.584, 3.743e-3
-1.583, 3.699e-3
-1.582, 3.650e-3
-1.581, 3.597e-3
-1.580, 3.553e-3
-1.579, 3.510e-3
-1.578, 3.463e-3
-1.577, 3.417e-3
-1.576, 3.377e-3
-1.575, 3.332e-3
-1.574, 3.286e-3
-1.573, 3.247e-3
-1.572, 3.207e-3
-1.571, 3.162e-3
-1.570, 3.119e-3
-1.569, 3.081e-3
-1.568, 3.045e-3
-1.567, 3.004e-3
-1.566, 2.965e-3
-1.565, 2.930e-3
-1.564, 2.891e-3
-1.563, 2.851e-3
-1.562, 2.816e-3
-1.561, 2.783e-3
-1.560, 2.749e-3
-1.559, 2.711e-3
-1.558, 2.677e-3
-1.557, 2.644e-3
-1.556, 2.609e-3
-1.555, 2.575e-3
-1.554, 2.544e-3
-1.553, 2.512e-3
-1.552, 2.477e-3
-1.551, 2.446e-3
-1.550, 2.417e-3
-1.549, 2.384e-3
-1.548, 2.353e-3
-1.547, 2.324e-3
-1.546, 2.295e-3
-1.545, 2.264e-3
-1.544, 2.235e-3
-1.543, 2.209e-3
-1.542, 2.181e-3
-1.541, 2.153e-3
-1.540, 2.126e-3
-1.539, 2.100e-3
-1.538, 2.073e-3
-1.537, 2.045e-3
-1.536, 2.020e-3
-1.535, 1.995e-3
-1.534, 1.969e-3
-1.533, 1.944e-3
-1.532, 1.921e-3
-1.531, 1.896e-3
-1.530, 1.871e-3
-1.529, 1.846e-3
-1.528, 1.824e-3
-1.527, 1.801e-3
-1.526, 1.776e-3
-1.525, 1.754e-3
-1.524, 1.733e-3
-1.523, 1.710e-3
-1.522, 1.688e-3
-1.521, 1.667e-3
-1.520, 1.645e-3
-1.519, 1.623e-3
-1.518, 1.601e-3
-1.517, 1.582e-3
-1.516, 1.561e-3
-1.515, 1.540e-3
-1.514, 1.521e-3
-1.513, 1.502e-3
-1.512, 1.483e-3
-1.511, 1.464e-3
-1.510, 1.446e-3
-1.509, 1.427e-3
-1.508, 1.409e-3
-1.507, 1.392e-3
-1.506, 1.375e-3
-1.505, 1.357e-3
-1.504, 1.340e-3
-1.503, 1.324e-3
-1.502, 1.307e-3
-1.501, 1.290e-3
-1.500, 1.274e-3
-1.499, 1.258e-3
-1.498, 1.241e-3
-1.497, 1.225e-3
-1.496, 1.211e-3
-1.495, 1.197e-3
-1.494, 1.181e-3
-1.493, 1.166e-3
-1.492, 1.152e-3
-1.491, 1.138e-3
-1.490, 1.123e-3
-1.489, 1.108e-3
-1.488, 1.095e-3
-1.487, 1.081e-3
-1.486, 1.066e-3
-1.485, 1.053e-3
-1.484, 1.040e-3
-1.483, 1.026e-3
-1.482, 1.013e-3
-1.481, 1.001e-3
-1.480, 9.886e-4
-1.479, 9.756e-4
-1.478, 9.635e-4
-1.477, 9.516e-4
-1.476, 9.391e-4
-1.475, 9.273e-4
-1.474, 9.158e-4
-1.473, 9.037e-4
-1.472, 8.921e-4
-1.471, 8.809e-4
-1.470, 8.695e-4
-1.469, 8.583e-4
-1.468, 8.475e-4
-1.467, 8.368e-4
-1.466, 8.258e-4
-1.465, 8.146e-4
-1.464, 8.045e-4
-1.463, 7.943e-4
-1.462, 7.835e-4
-1.461, 7.736e-4
-1.460, 7.638e-4
-1.459, 7.540e-4
-1.458, 7.440e-4
-1.457, 7.345e-4
-1.456, 7.256e-4
-1.455, 7.161e-4
-1.454, 7.066e-4
-1.453, 6.971e-4
-1.452, 6.875e-4
-1.451, 6.784e-4
-1.450, 6.695e-4
-1.449, 6.609e-4
-1.448, 6.525e-4
-1.447, 6.435e-4
-1.446, 6.349e-4
-1.445, 6.270e-4
-1.444, 6.189e-4
-1.443, 6.107e-4
-1.442, 6.030e-4
-1.441, 5.967e-4
-1.440, 5.880e-4
-1.439, 5.805e-4
-1.438, 5.729e-4
-1.437, 5.651e-4
-1.436, 5.575e-4
-1.435, 5.501e-4
-1.434, 5.429e-4
-1.433, 5.353e-4
-1.432, 5.281e-4
-1.431, 5.212e-4
-1.430, 5.142e-4
-1.429, 5.072e-4
-1.428, 5.003e-4
-1.427, 4.936e-4
-1.426, 4.871e-4
-1.425, 4.802e-4
-1.424, 4.740e-4
-1.423, 4.675e-4
-1.422, 4.609e-4
-1.421, 4.546e-4
-1.420, 4.484e-4
-1.419, 4.422e-4
-1.418, 4.360e-4
-1.417, 4.300e-4
-1.416, 4.244e-4
-1.415, 4.184e-4
-1.414, 4.126e-4
-1.413, 4.072e-4
-1.412, 4.017e-4
-1.411, 3.958e-4
-1.410, 3.903e-4
-1.409, 3.849e-4
-1.408, 3.795e-4
-1.407, 3.738e-4
-1.406, 3.686e-4
-1.405, 3.634e-4
-1.404, 3.581e-4
-1.403, 3.528e-4
-1.402, 3.478e-4
-1.401, 3.428e-4
-1.400, 3.379e-4
-1.399, 3.329e-4
-1.398, 3.281e-4
-1.397, 3.235e-4
-1.396, 3.186e-4
-1.395, 3.137e-4
-1.394, 3.093e-4
-1.393, 3.046e-4
-1.392, 3.001e-4
-1.391, 2.957e-4
-1.390, 2.911e-4
-1.389, 2.868e-4
-1.388, 2.824e-4
-1.387, 2.782e-4
-1.386, 2.742e-4
-1.385, 2.698e-4
-1.384, 2.658e-4
-1.383, 2.616e-4
-1.382, 2.574e-4
-1.381, 2.534e-4
-1.380, 2.496e-4
-1.379, 2.457e-4
-1.378, 2.419e-4
-1.377, 2.381e-4
-1.376, 2.344e-4
-1.375, 2.307e-4
-1.374, 2.270e-4
-1.373, 2.236e-4
-1.372, 2.200e-4
-1.371, 2.167e-4
-1.370, 2.130e-4
-1.369, 2.097e-4
-1.368, 2.065e-4
-1.367, 2.028e-4
-1.366, 1.995e-4
-1.365, 1.964e-4
-1.364, 1.930e-4
-1.363, 1.897e-4
-1.362, 1.868e-4
-1.361, 1.836e-4
-1.360, 1.805e-4
-1.359, 1.774e-4
-1.358, 1.743e-4
-1.357, 1.713e-4
-1.356, 1.684e-4
-1.355, 1.655e-4
-1.354, 1.627e-4
-1.353, 1.597e-4
-1.352, 1.570e-4
-1.351, 1.544e-4
-1.350, 1.515e-4
-1.349, 1.488e-4
-1.348, 1.462e-4
-1.347, 1.434e-4
-1.346, 1.410e-4
-1.345, 1.383e-4
-1.344, 1.359e-4
-1.343, 1.334e-4
-1.342, 1.308e-4
-1.341, 1.286e-4
-1.340, 1.261e-4
-1.339, 1.237e-4
-1.338, 1.214e-4
-1.337, 1.191e-4
-1.336, 1.169e-4
-1.335, 1.146e-4
-1.334, 1.124e-4
-1.333, 1.104e-4
-1.332, 1.082e-4
-1.331, 1.059e-4
-1.330, 1.040e-4
-1.329, 1.019e-4
-1.328, 9.982e-5
-1.327, 9.782e-5
-1.326, 9.590e-5
-1.325, 9.393e-5
-1.324, 9.197e-5
-1.323, 8.992e-5
-1.322, 8.826e-5
-1.321, 8.630e-5
-1.320, 8.460e-5
-1.319, 8.274e-5
-1.318, 8.093e-5
-1.317, 7.921e-5
-1.316, 7.750e-5
-1.315, 7.580e-5
-1.314, 7.421e-5
-1.313, 7.251e-5
-1.312, 7.082e-5
-1.311, 6.936e-5
-1.310, 6.765e-5
-1.309, 6.625e-5
-1.308, 6.485e-5
-1.307, 6.317e-5
-1.306, 6.177e-5
-1.305, 6.024e-5
-1.304, 5.895e-5
-1.303, 5.752e-5
-1.302, 5.602e-5
-1.301, 5.485e-5
-1.300, 5.343e-5
-1.299, 5.206e-5
-1.298, 5.072e-5
-1.297, 4.943e-5
-1.296, 4.835e-5
-1.295, 4.697e-5
-1.294, 4.568e-5
-1.293, 4.453e-5
-1.292, 4.328e-5
-1.291, 4.214e-5
-1.290, 4.097e-5
-1.289, 3.993e-5
-1.288, 3.888e-5
-1.287, 3.767e-5
-1.286, 3.658e-5
-1.285, 3.566e-5
-1.284, 3.454e-5
-1.283, 3.340e-5
-1.282, 3.255e-5
-1.281, 3.157e-5
-1.280, 3.045e-5
-1.279, 2.962e-5
-1.278, 2.864e-5
-1.277, 2.775e-5
-1.276, 2.688e-5
-1.275, 2.593e-5
-1.274, 2.515e-5
-1.273, 2.413e-5
-1.272, 2.341e-5
-1.271, 2.261e-5
-1.270, 2.173e-5
-1.269, 2.110e-5
-1.268, 2.024e-5
-1.267, 1.925e-5
-1.266, 1.869e-5
-1.265, 1.783e-5
-1.264, 1.714e-5
-1.263, 1.650e-5
-1.262, 1.575e-5
-1.261, 1.510e-5
-1.260, 1.445e-5
-1.259, 1.387e-5
-1.258, 1.319e-5
-1.257, 1.254e-5
-1.256, 1.195e-5
-1.255, 1.134e-5
-1.254, 1.068e-5
-1.253, 1.023e-5
-1.252, 9.677e-6
-1.251, 9.055e-6
-1.250, 8.641e-6
-1.249, 7.970e-6
-1.248, 7.545e-6
-1.247, 6.904e-6
-1.246, 6.421e-6
-1.245, 6.026e-6
-1.244, 5.543e-6
-1.243, 5.049e-6
-1.242, 4.635e-6
-1.241, 4.073e-6
-1.240, 3.757e-6
-1.239, 3.274e-6
-1.238, 2.968e-6
-1.237, 2.455e-6
-1.236, 2.307e-6
-1.235, 1.626e-6
-1.234, 1.389e-6
-1.233, 9.353e-7
-1.232, 5.998e-7
-1.231, 3.631e-7
-1.230, -1.006e-7
-1.229, -6.926e-7
-1.228, -7.912e-7
-1.227, -1.206e-6
-1.226, -1.492e-6
-1.225, -1.788e-6
-1.224, -2.024e-6
-1.223, -2.390e-6
-1.222, -2.725e-6
-1.221, -2.824e-6
-1.220, -3.100e-6
-1.219, -3.495e-6
-1.218, -3.672e-6
-1.217, -3.958e-6
-1.216, -4.225e-6
-1.215, -4.452e-6
-1.214, -4.708e-6
-1.213, -4.935e-6
-1.212, -5.142e-6
-1.211, -5.458e-6
-1.210, -5.734e-6
-1.209, -5.783e-6
-1.208, -6.050e-6
-1.207, -6.168e-6
-1.206, -6.444e-6
-1.205, -6.622e-6
-1.204, -6.711e-6
-1.203, -7.155e-6
-1.202, -7.214e-6
-1.201, -7.461e-6
-1.200, -7.618e-6
-1.199, -7.727e-6
-1.198, -7.934e-6
-1.197, -8.092e-6
-1.196, -8.191e-6
-1.195, -8.487e-6
-1.194, -8.477e-6
-1.193, -8.664e-6
-1.192, -8.822e-6
-1.191, -8.950e-6
-1.190, -9.167e-6
-1.189, -9.325e-6
-1.188, -9.394e-6
-1.187, -9.651e-6
-1.186, -9.680e-6
-1.185, -9.828e-6
-1.184, -9.947e-6
-1.183, -1.003e-5
-1.182, -1.022e-5
-1.181, -1.021e-5
-1.180, -1.041e-5
-1.179, -1.063e-5
-1.178, -1.077e-5
-1.177, -1.086e-5
-1.176, -1.090e-5
-1.175, -1.102e-5
-1.174, -1.118e-5
-1.173, -1.119e-5
-1.172, -1.139e-5
-1.171, -1.151e-5
-1.170, -1.163e-5
-1.169, -1.166e-5
-1.168, -1.165e-5
-1.167, -1.188e-5
-1.166, -1.195e-5
-1.165, -1.204e-5
-1.164, -1.208e-5
-1.163, -1.227e-5
-1.162, -1.238e-5
-1.161, -1.249e-5
-1.160, -1.258e-5
-1.159, -1.253e-5
-1.158, -1.271e-5
-1.157, -1.279e-5
-1.156, -1.280e-5
-1.155, -1.295e-5
-1.154, -1.295e-5
-1.153, -1.308e-5
-1.152, -1.327e-5
-1.151, -1.315e-5
-1.150, -1.328e-5
-1.149, -1.328e-5
-1.148, -1.327e-5
-1.147, -1.349e-5
-1.146, -1.344e-5
-1.145, -1.359e-5
-1.144, -1.358e-5
-1.143, -1.363e-5
-1.142, -1.389e-5
-1.141, -1.383e-5
-1.140, -1.390e-5
-1.139, -1.412e-5
-1.138, -1.414e-5
-1.137, -1.418e-5
-1.136, -1.428e-5
-1.135, -1.416e-5
-1.134, -1.419e-5
-1.133, -1.422e-5
-1.132, -1.416e-5
-1.131, -1.434e-5
-1.130, -1.442e-5
-1.129, -1.457e-5
-1.128, -1.450e-5
-1.127, -1.453e-5
-1.126, -1.473e-5
-1.125, -1.464e-5
-1.124, -1.476e-5
-1.123, -1.500e-5
-1.122, -1.503e-5
-1.121, -1.519e-5
-1.120, -1.507e-5
-1.119, -1.500e-5
-1.118, -1.537e-5
-1.117, -1.534e-5
-1.116, -1.526e-5
-1.115, -1.549e-5
-1.114, -1.535e-5
-1.113, -1.559e-5
-1.112, -1.561e-5
-1.111, -1.543e-5
-1.110, -1.563e-5
-1.109, -1.550e-5
-1.108, -1.573e-5
-1.107, -1.591e-5
-1.106, -1.584e-5
-1.105, -1.613e-5
-1.104, -1.611e-5
-1.103, -1.624e-5
-1.102, -1.632e-5
-1.101, -1.646e-5
-1.100, -1.659e-5
-1.099, -1.658e-5
-1.098, -1.639e-5
-1.097, -1.650e-5
-1.096, -1.661e-5
-1.095, -1.672e-5
-1.094, -1.692e-5
-1.093, -1.688e-5
-1.092, -1.708e-5
-1.091, -1.703e-5
-1.090, -1.690e-5
-1.089, -1.697e-5
-1.088, -1.729e-5
-1.087, -1.743e-5
-1.086, -1.753e-5
-1.085, -1.740e-5
-1.084, -1.758e-5
-1.083, -1.772e-5
-1.082, -1.768e-5
-1.081, -1.783e-5
-1.080, -1.781e-5
-1.079, -1.784e-5
-1.078, -1.784e-5
-1.077, -1.773e-5
-1.076, -1.781e-5
-1.075, -1.810e-5
-1.074, -1.795e-5
-1.073, -1.813e-5
-1.072, -1.831e-5
-1.071, -1.851e-5
-1.070, -1.861e-5
-1.069, -1.864e-5
-1.068, -1.859e-5
-1.067, -1.866e-5
-1.066, -1.865e-5
-1.065, -1.880e-5
-1.064, -1.877e-5
-1.063, -1.892e-5
-1.062, -1.917e-5
-1.061, -1.904e-5
-1.060, -1.916e-5
-1.059, -1.929e-5
-1.058, -1.926e-5
-1.057, -1.948e-5
-1.056, -1.940e-5
-1.055, -1.946e-5
-1.054, -1.968e-5
-1.053, -1.965e-5
-1.052, -1.977e-5
-1.051, -1.984e-5
-1.050, -1.997e-5
-1.049, -2.013e-5
-1.048, -2.015e-5
-1.047, -2.026e-5
-1.046, -2.032e-5
-1.045, -2.045e-5
-1.044, -2.054e-5
-1.043, -2.061e-5
-1.042, -2.065e-5
-1.041, -2.077e-5
-1.040, -2.076e-5
-1.039, -2.079e-5
-1.038, -2.116e-5
-1.037, -2.110e-5
-1.036, -2.114e-5
-1.035, -2.141e-5
-1.034, -2.140e-5
-1.033, -2.154e-5
-1.032, -2.158e-5
-1.031, -2.160e-5
-1.030, -2.184e-5
-1.029, -2.181e-5
-1.028, -2.191e-5
-1.027, -2.213e-5
-1.026, -2.205e-5
-1.025, -2.222e-5
-1.024, -2.245e-5
-1.023, -2.247e-5
-1.022, -2.260e-5
-1.021, -2.253e-5
-1.020, -2.281e-5
-1.019, -2.290e-5
-1.018, -2.294e-5
-1.017, -2.309e-5
-1.016, -2.313e-5
-1.015, -2.320e-5
-1.014, -2.345e-5
-1.013, -2.349e-5
-1.012, -2.360e-5
-1.011, -2.383e-5
-1.010, -2.392e-5
-1.009, -2.399e-5
-1.008, -2.407e-5
-1.007, -2.425e-5
-1.006, -2.440e-5
-1.005, -2.451e-5
-1.004, -2.454e-5
-1.003, -2.476e-5
-1.002, -2.482e-5
-1.001, -2.499e-5
