Potential V vs RHE, Current mA cm-2
0.013299999999999867,5.667333467259336
0.012299999999999978,4.184716025000778
0.011299999999999866,2.7898106833338523
0.010299999999999976,1.3934906303670611
0.009299999999999864,0.08502414912188871
0.008299999999999974,-1.2234423321232837
0.007299999999999862,-2.4884771764625997
0.006299999999999972,-3.7093730282461257
0.00529999999999986,-4.9302688800296535
0.0042999999999999705,-6.108723392817228
0.0032999999999998586,-7.329619244600755
0.0022999999999999687,-8.55051509638428
0.0012999999999998568,-9.772825659467674
0.00029999999999996696,-10.949865460955383
-0.000700000000000145,-12.214617363034726
-0.0017000000000000348,-13.349215825526485
-0.0027000000000001467,-14.529085049613924
-0.0037000000000000366,-15.660854089505953
-0.0047000000000001485,-16.750181790402035
-0.005700000000000038,-17.797068152302163
-0.00670000000000015,-18.843954514202288
-0.00770000000000004,-19.890840876102416
-0.008700000000000152,-20.93772723800254
-0.009700000000000042,-21.94217226090672
-0.010700000000000154,-23.031499961802798
-0.011700000000000044,-24.120827662698876
-0.012700000000000156,-25.167714024599
-0.013700000000000045,-26.21460038649913
-0.014700000000000157,-27.261486748399253
-0.015700000000000047,-28.308373110299385
-0.01670000000000016,-29.31281813320356
-0.01770000000000005,-30.274821817111786
-0.01870000000000016,-31.23682550102001
-0.01970000000000005,-32.184682071929586
-0.020700000000000163,-33.06180307784591
-0.021700000000000053,-34.02380676175414
-0.022700000000000164,-34.98581044566235
-0.023700000000000054,-35.90537279057463
-0.024700000000000166,-36.89567070048016
-0.025700000000000056,-37.85767438438838
-0.026700000000000168,-38.81967806829661
-0.027700000000000058,-39.78168175220483
-0.02870000000000017,-40.743685436113054
-0.02970000000000006,-41.70568912002128
-0.03070000000000017,-42.568663012938956
-0.03170000000000006,-43.40334267985933
-0.03270000000000017,-44.28046368577565
-0.03370000000000006,-45.10099623969737
-0.034700000000000175,-45.93567590661774
-0.035700000000000065,-46.79864979953541
-0.03670000000000018,-47.67577080545174
-0.03770000000000007,-48.59533315036401
-0.03870000000000018,-49.50074838227763
-0.03970000000000007,-50.42031072718991
-0.04070000000000018,-51.38231441109813
-0.04170000000000007,-52.25943541701445
-0.04270000000000018,-53.12240930993213
-0.04370000000000007,-53.9570889768525
-0.044700000000000184,-54.69273885278232
-0.045700000000000074,-55.484977180706736
-0.046700000000000186,-56.22062705663656
-0.047700000000000076,-57.012865384560975
-0.04870000000000019,-57.79095659948675
-0.04970000000000008,-58.583194927411164
-0.05070000000000019,-59.403727481332886
-0.05170000000000008,-60.23840714825326
-0.05270000000000019,-61.11552815416958
-0.05370000000000008,-61.97850204708726
-0.05470000000000019,-62.81318171400764
-0.05570000000000008,-63.6761556069253
-0.056700000000000195,-64.55327661284163
-0.057700000000000085,-65.34551494076604
-0.058700000000000196,-66.12360615569182
-0.059700000000000086,-66.91584448361623
-0.0607000000000002,-67.65149435954605
-0.06170000000000009,-68.44373268747047
-0.0627000000000002,-69.22182390239624
-0.06370000000000009,-70.01406223032066
-0.0647000000000002,-70.8345947842424
-0.06570000000000009,-71.6268331121668
-0.0667000000000002,-72.40492432709259
-0.0677000000000001,-73.23960399401295
-0.0687000000000002,-74.0176952089387
-0.0697000000000001,-74.8523748758591
-0.07070000000000021,-75.63046609078486
-0.0717000000000001,-76.38026307971333
-0.07270000000000021,-77.11591295564315
-0.0737000000000001,-77.80912149257702
-0.07470000000000021,-78.60135982050144
-0.0757000000000001,-79.33700969643127
-0.07670000000000021,-80.12924802435568
-0.0777000000000001,-80.9497805782774
-0.07870000000000021,-81.74201890620182
-0.0797000000000001,-82.52011012112759
-0.08070000000000022,-83.35478978804795
-0.0817000000000001,-84.13288100297372
-0.08270000000000022,-84.96756066989411
-0.08370000000000011,-85.75979899781852
-0.08470000000000022,-86.49544887374834
-0.08570000000000011,-87.23109874967815
-0.08670000000000022,-87.93845439961068
-0.08770000000000011,-88.6741042755405
-0.08870000000000022,-89.42390126446898
-0.08970000000000011,-90.15955114039879
-0.09070000000000022,-90.93764235532454
-0.09170000000000011,-91.72988068324898
-0.09270000000000023,-92.50797189817473
-0.09370000000000012,-93.30021022609918
-0.09470000000000023,-94.13488989301955
-0.09570000000000012,-94.91298110794531
-0.09670000000000023,-95.64863098387512
-0.09770000000000012,-96.3984279728036
-0.09870000000000023,-97.09163650973747
-0.09970000000000012,-97.84143349866595
-0.10070000000000023,-98.49220069660386
-0.10170000000000012,-99.22785057253368
-0.10270000000000024,-99.97764756146215
-0.10370000000000013,-100.75573877638791
-0.10470000000000024,-101.54797710431234
-0.10570000000000013,-102.3260683192381
-0.10670000000000024,-103.07586530816658
-0.10770000000000013,-103.85395652309235
-0.10870000000000024,-104.64619485101677
-0.10970000000000013,-105.38184472694657
-0.11070000000000024,-106.07505326388046
-0.11170000000000013,-106.73996757481702
-0.11270000000000002,-107.39073477275493
-0.11370000000000013,-108.04150197069285
-0.11470000000000002,-108.69226916863077
-0.11570000000000014,-109.39962481856328
-0.11670000000000003,-110.1352746944931
-0.11770000000000014,-110.87092457042293
-0.11870000000000003,-111.66316289834735
-0.11970000000000014,-112.44125411327312
-0.12070000000000003,-113.23349244119754
-0.12170000000000014,-113.96914231712736
-0.12270000000000003,-114.67649796705987
-0.12370000000000014,-115.36970650399375
-0.12470000000000003,-115.97803236293572
-0.12570000000000014,-116.62879956087362
-0.12670000000000003,-117.25127253281424
-0.12770000000000015,-117.90203973075215
-0.12870000000000004,-118.59524826768603
-0.12970000000000015,-119.24601546562396
-0.13070000000000004,-119.95337111555646
-0.13170000000000015,-120.68902099148629
-0.13270000000000004,-121.38222952842017
-0.13370000000000015,-122.08958517835266
-0.13470000000000004,-122.74035237629057
-0.13570000000000015,-123.43356091322445
-0.13670000000000004,-124.09847522416102
-0.13770000000000016,-124.70680108310299
-0.13870000000000005,-125.31512694204494
-0.13970000000000016,-125.92345280098691
-0.14070000000000005,-126.44689598193698
-0.14170000000000016,-127.05522184087894
-0.14270000000000005,-127.62110636082497
-0.14370000000000016,-128.2294322197669
-0.14470000000000005,-128.85190519170752
-0.14570000000000016,-129.41778971165354
-0.14670000000000005,-130.02611557059552
-0.14770000000000016,-130.59200009054155
-0.14870000000000005,-131.2003259494835
-0.14970000000000017,-131.72376913043357
-0.15070000000000006,-132.24721231138363
-0.15170000000000017,-132.72821415333775
-0.15270000000000006,-133.20921599529186
-0.15370000000000017,-133.64777649825
-0.15470000000000006,-134.21366101819604
-0.15570000000000017,-134.73710419914607
-0.15670000000000006,-135.3029887190921
-0.15770000000000017,-135.86887323903812
-0.15870000000000006,-136.3923164199882
-0.15970000000000018,-136.91575960093826
-0.16070000000000007,-137.48164412088425
-0.16170000000000018,-137.9626459628384
-0.16270000000000007,-138.48608914378846
-0.16370000000000018,-138.92464964674662
-0.16470000000000007,-139.36321014970477
-0.16570000000000018,-139.74518220066832
-0.16670000000000007,-140.14130136463055
-0.16770000000000018,-140.4949791895968
-0.16870000000000007,-140.93353969255494
-0.16970000000000018,-141.3155117435185
-0.17070000000000007,-141.75407224647665
-0.17170000000000019,-142.17848563643616
-0.17270000000000008,-142.6028990263957
-0.1737000000000002,-143.0273124163552
-0.17470000000000008,-143.4517258063147
-0.1757000000000002,-143.87613919627424
-0.17670000000000008,-144.30055258623375
-0.1777000000000002,-144.58349484620675
-0.17870000000000008,-144.86643710617977
-0.1797000000000002,-145.14937936615277
-0.18070000000000008,-145.43232162612577
-0.1817000000000002,-145.7152638860988
-0.18270000000000008,-145.9982061460718
-0.1837000000000002,-146.28114840604482
-0.1847000000000001,-146.7055617960043
-0.1857000000000002,-146.9885040559773
-0.1867000000000001,-147.27144631595033
-0.1877000000000002,-147.55438857592333
-0.1887000000000001,-147.83733083589632
-0.1897000000000002,-148.12027309586935
-0.1907000000000001,-148.40321535584232
-0.1917000000000001,-148.54468648582886
-0.19269999999999998,-148.82762874580186
-0.1937000000000001,-148.96909987578834
-0.19469999999999998,-149.1105710057749
-0.1957000000000001,-149.25204213576137
-0.19669999999999999,-149.53498439573437
-0.1977000000000001,-149.6764555257209
-0.1987,-149.8179266557074
-0.1997000000000001,-150.1008689156804
-0.2007,-150.24234004566688
-0.2017000000000001,-150.38381117565342
-0.2027,-150.5252823056399
-0.2037000000000001,-150.5252823056399
-0.2047,-150.66675343562642
-0.2057000000000001,-150.66675343562642
-0.2067,-150.66675343562642
-0.2077000000000001,-150.66675343562642
-0.2087,-150.8082245656129
-0.2097000000000001,-150.8082245656129
-0.2107,-150.8082245656129
-0.2117000000000001,-150.8082245656129
-0.2127,-150.94969569559944
-0.2137000000000001,-150.94969569559944
-0.2147,-150.94969569559944
-0.2157000000000001,-151.09116682558593
-0.2167,-150.94969569559944
-0.21770000000000012,-150.94969569559944
-0.2187,-150.8082245656129
-0.21970000000000012,-150.8082245656129
-0.2207,-150.5252823056399
-0.22170000000000012,-150.38381117565342
-0.2227,-150.24234004566688
-0.22370000000000012,-150.24234004566688
-0.2247,-150.1008689156804
-0.22570000000000012,-150.1008689156804
-0.2267,-149.95939778569388
-0.22770000000000012,-149.8179266557074
-0.22870000000000001,-149.6764555257209
-0.22970000000000013,-149.39351326574788
-0.23070000000000002,-149.25204213576137
-0.23170000000000013,-148.96909987578834
-0.23270000000000002,-148.68615761581535
-0.23370000000000013,-148.40321535584232
-0.23470000000000002,-148.12027309586935
-0.23570000000000013,-147.83733083589632
-0.23670000000000002,-147.55438857592333
-0.2376999999999999,-147.27144631595033
-0.23870000000000002,-146.9885040559773
-0.2396999999999999,-146.7055617960043
-0.24070000000000003,-146.5640906660178
-0.24169999999999991,-146.28114840604482
-0.24270000000000003,-145.9982061460718
-0.24369999999999992,-145.7152638860988
-0.24470000000000003,-145.29085049613926
-0.24569999999999992,-144.86643710617977
-0.24670000000000003,-144.30055258623375
-0.24769999999999992,-143.87613919627424
-0.24870000000000003,-143.4517258063147
-0.24969999999999992,-143.0273124163552
-0.25070000000000003,-142.6028990263957
-0.2516999999999999,-142.03701450644968
-0.25270000000000004,-141.61260111649017
-0.2536999999999999,-141.27307040452254
-0.25470000000000004,-140.89109835355902
-0.2556999999999999,-140.4949791895968
-0.25670000000000004,-140.05641868663866
-0.25769999999999993,-139.57541684468453
-0.25870000000000004,-139.09441500273041
-0.25969999999999993,-138.52853048278442
-0.26070000000000004,-137.9626459628384
-0.26169999999999993,-137.39676144289237
-0.26270000000000004,-136.7884355839504
-0.26369999999999993,-136.26499240300032
-0.26470000000000005,-135.78399056104624
-0.26569999999999994,-135.387871397084
-0.26670000000000005,-134.94931089412586
-0.26769999999999994,-134.46830905217172
-0.26870000000000005,-133.94486587122168
-0.26969999999999994,-133.3365400122797
-0.27070000000000005,-132.72821415333775
-0.27169999999999994,-132.07744695539984
-0.27270000000000005,-131.37009130546733
-0.27369999999999994,-130.7193241075294
-0.27470000000000006,-130.02611557059552
-0.27569999999999995,-129.33290703366166
-0.27670000000000006,-128.71043406172103
-0.27769999999999995,-128.144549541775
-0.27870000000000006,-127.57866502182902
-0.27969999999999995,-127.05522184087894
-0.28070000000000006,-126.61666133792076
-0.28169999999999995,-126.09321815697072
-0.28270000000000006,-125.5273336370247
-0.28369999999999995,-124.9614491170787
-0.28470000000000006,-124.35312325813672
-0.28569999999999995,-123.70235606019881
-0.28670000000000007,-123.00914752326493
-0.28769999999999996,-122.30179187333242
-0.28870000000000007,-121.65102467539451
-0.28969999999999996,-121.00025747745659
-0.29070000000000007,-120.39193161851462
-0.29169999999999996,-119.81189998556997
-0.29270000000000007,-119.20357412662798
-0.29369999999999996,-118.63768960668197
-0.2947000000000001,-117.98692240874406
-0.29569999999999996,-117.3785965498021
-0.2967000000000001,-116.72782935186417
-0.29769999999999996,-116.02047370193165
-0.2987000000000001,-115.36970650399375
-0.29969999999999997,-114.71893930605583
-0.3007000000000001,-114.0115836561233
-0.30169999999999997,-113.36081645818538
-0.3027000000000001,-112.71004926024747
-0.30369999999999997,-112.10172340130552
-0.3047000000000001,-111.5358388813595
-0.30569999999999997,-110.96995436141347
-0.3067000000000001,-110.34748138947285
-0.3077,-109.78159686952685
-0.3087000000000001,-109.21571234958083
-0.3097,-108.60738649063886
-0.3107000000000001,-108.04150197069285
-0.3117,-107.4331761117509
-0.3127000000000001,-106.78240891381296
-0.3137,-106.21652439386696
-0.3147000000000001,-105.59405142192634
-0.3157,-105.02816690198033
-0.3167000000000001,-104.46228238203432
-0.3177,-103.93883920108425
-0.3187000000000001,-103.45783735913014
-0.3197,-102.93439417818009
-0.3207000000000001,-102.41095099723
-0.3217,-101.84506647728399
-0.3227000000000001,-101.27918195733798
-0.3237,-100.71329743739196
-0.3247000000000001,-100.10497157844999
-0.3257,-99.53908705850398
-0.3267000000000001,-98.97320253855796
-0.3277,-98.40731801861195
-0.3287000000000001,-97.88387483766188
-0.3297,-97.31799031771587
-0.3307000000000001,-96.83698847576176
-0.3317,-96.35598663380765
-0.3327000000000001,-95.87498479185354
-0.3337,-95.43642428889537
-0.3347000000000001,-94.95542244694126
-0.3357,-94.5168619439831
-0.3367000000000001,-94.03586010202899
-0.3377,-93.61144671206948
-0.3387000000000001,-93.17288620911131
-0.3397,-92.6918843671572
-0.3407000000000001,-92.2108825252031
-0.3417,-91.72988068324898
-0.3427000000000001,-91.24887884129487
-0.3437,-90.81031833833671
-0.3447000000000001,-90.47078762636909
-0.3457,-90.11710980140283
-0.3467000000000001,-89.80587331543254
-0.3477,-89.46634260346492
-0.3487000000000001,-89.11266477849867
-0.3497,-88.80142829252836
-0.3507000000000001,-88.46189758056073
-0.3517,-88.10821975559449
-0.3527000000000001,-87.75454193062824
-0.3537,-87.37256987966467
-0.3547000000000001,-87.01889205469841
-0.3557,-86.66521422973216
-0.35670000000000013,-86.41056619575643
-0.3577,-86.09932970978613
-0.35870000000000013,-85.88712301480638
-0.3597,-85.66076920682796
-0.36070000000000013,-85.44856251184822
-0.3617,-85.17976736487385
-0.3626999999999999,-84.96756066989411
-0.3637,-84.75535397491434
-0.3646999999999999,-84.48655882793999
-0.3657,-84.27435213296022
-0.3666999999999999,-84.04799832498183
-0.3677,-83.83579163000208
-0.3686999999999999,-83.66602627401826
-0.36970000000000003,-83.52455514403178
-0.3706999999999999,-83.39723112704392
-0.37170000000000003,-83.31234844905201
-0.3726999999999999,-83.22746577106011
-0.37370000000000003,-83.18502443206415
-0.3746999999999999,-83.14258309306821
-0.37570000000000003,-83.04355330207765
-0.3766999999999999,-82.95867062408576
-0.37770000000000004,-82.87378794609386
-0.3786999999999999,-82.78890526810196
-0.37970000000000004,-82.746463929106
-0.3806999999999999,-82.6615812511141
-0.38170000000000004,-82.61913991211814
-0.38269999999999993,-82.52011012112759
-0.38370000000000004,-82.56255146012353
-0.38469999999999993,-82.61913991211814
-0.38570000000000004,-82.6615812511141
-0.38669999999999993,-81.69957756720586
-0.38570000000000004,-78.91259630647174
-0.38469999999999993,-76.23879194972683
-0.38370000000000004,-73.6781644969711
-0.38269999999999993,-71.27315528720055
-0.38170000000000004,-68.91058741642594
-0.3806999999999999,-66.64704933664189
-0.37970000000000004,-64.46839393484973
-0.3786999999999999,-62.41706255004542
-0.37770000000000004,-60.40817250423707
-0.3766999999999999,-58.583194927411164
-0.37570000000000003,-56.74407023758662
-0.3746999999999999,-55.003975338752625
-0.37370000000000003,-53.30632177891458
-0.3726999999999999,-51.69355089706845
-0.37170000000000003,-50.0807800152223
-0.3706999999999999,-48.55289181136806
-0.36970000000000003,-46.982562268517874
-0.3686999999999999,-45.412232725667685
-0.3677,-43.92678586080939
-0.3666999999999999,-42.4413389959511
-0.3657,-40.99833347008877
-0.3646999999999999,-39.654357735216976
-0.3637,-38.33867622634249
-0.3626999999999999,-37.07958316946261
-0.3617,-35.848784338580025
-0.36070000000000013,-34.67457395969205
-0.3597,-33.54280491980002
-0.35870000000000013,-32.368594540912035
-0.3577,-31.27926684001596
-0.35670000000000013,-30.189939139119886
-0.3557,-29.100611438223805
-0.3547000000000001,-28.011283737327723
-0.3537,-26.907808923433
-0.3527000000000001,-25.86092256153287
-0.3517,-24.870624651627345
-0.3507000000000001,-23.86617962872317
-0.3497,-22.904175944814945
-0.3487000000000001,-22.027054938898623
-0.3477,-21.149933932982297
-0.3467000000000001,-20.286960040064624
-0.3457,-19.452280373144255
-0.3447000000000001,-18.589306480226583
-0.3437,-17.75462681330621
-0.3427000000000001,-16.877505807389888
-0.3417,-16.056973253468165
-0.3407000000000001,-15.179852247551842
-0.3397,-14.30273124163552
-0.3387000000000001,-13.47936926511407
-0.3377,-12.651763154693022
-0.3367000000000001,-11.909039722263879
-0.3357,-11.1677310011346
-0.3347000000000001,-10.42642228000532
-0.3337,-9.772825659467674
-0.3327000000000001,-9.073958277334345
-0.3317,-8.4203616567967
-0.3307000000000001,-7.7653503249591855
-0.3297,-7.067897654125724
-0.3287000000000001,-6.326588932996443
-0.3277,-5.672992312458796
-0.3267000000000001,-4.974124930325469
-0.3257,-4.276672259492005
-0.3247000000000001,-3.623075638954359
-0.3237,-3.0119203574126634
-0.3227000000000001,-2.4007650758709675
-0.3217,-1.7910245056291363
-0.3207000000000001,-1.2234423321232837
-0.3197,-0.7001406223032067
-0.3187000000000001,-0.1330535977523067
-0.3177,0.3903188476327636
-0.3167000000000001,0.9573351366186703
-0.3157,1.6113561705462767
-0.3147000000000001,2.178655401792157
-0.3137,2.7898106833338523
-0.3127000000000001,3.355695203279867
-0.3117,3.922994434525747
-0.3107000000000001,4.490293665771627
-0.3097,5.01373684672169
-0.3087000000000001,5.449467927080121
-0.3077,5.929055057734368
-0.3067000000000001,6.366200849392665
-0.30569999999999997,6.845787980046913
-0.3047000000000001,7.281519060405343
-0.30369999999999997,7.761106191059591
-0.3027000000000001,8.284549372009655
-0.30169999999999997,8.764136502663902
-0.3007000000000001,9.287579683613965
-0.29969999999999997,9.811022864564029
-0.2987000000000001,10.248168656222326
-0.29769999999999996,10.771611837172388
-0.2967000000000001,11.20734291753082
-0.29569999999999996,11.6006326588933
-0.2947000000000001,12.036363739251732
-0.29369999999999996,12.428238769314348
-0.29270000000000007,12.77767246038101
-0.29169999999999996,13.169547490443627
-0.29070000000000007,13.562837231806107
-0.28969999999999996,13.998568312164537
-0.28870000000000007,14.387613919627421
-0.28769999999999996,14.868615761581536
-0.28670000000000007,15.307176264539699
-0.28569999999999995,15.70329542850191
-0.28470000000000006,16.141855931460068
-0.28369999999999995,16.52382798242363
-0.28270000000000006,16.835064468393938
-0.28169999999999995,17.188742293360193
-0.28070000000000006,17.528273005327804
-0.27969999999999995,17.839509491298113
-0.27870000000000006,18.19318731626437
-0.27769999999999995,18.49027668923603
-0.27670000000000006,18.88639585319824
-0.27569999999999995,19.22592656516585
-0.27470000000000006,19.579604390132108
-0.27369999999999994,19.97572355409432
-0.27270000000000005,20.414284057052477
-0.27169999999999994,20.75381476902009
-0.27070000000000005,21.107492593986347
-0.26969999999999994,21.376287740960702
-0.26870000000000005,21.67337711393236
-0.26769999999999994,21.98461359990267
-0.26670000000000005,22.239261633878378
-0.26569999999999994,22.550498119848687
