Aug. 11, 2024   06:33:43
Cyclic Voltammetry
File: c:/users/guazh/data/20240802_batch_500/2024-08-02-exp80\exp80-2024-08-11t06_15_29-arkoh\exp80_cv_sr_50mvs_efin_-1900mv.bin
Data Source:  Experiment
Instrument Model:  CHI760E
Header: CV ran at 50 mVs
Note: 

Init E (V) = -1
High E (V) = -1
Low E (V) = -1.9
Final E (V) = -1
Init P/N = N
Scan Rate (V/s) = 0.05
Segment = 3
Sample Interval (V) = 0.001
Quiet Time (sec) = 2
Sensitivity (A/V) = 0.01
Comp R (ohm) = 1.8

Results:

Channel 1:
Segment 1:

Segment 2:

Segment 3:

Potential/V, Current/A

-1.000, -5.300e-6
-1.001, -5.043e-6
-1.002, -4.866e-6
-1.003, -4.747e-6
-1.004, -4.580e-6
-1.005, -4.392e-6
-1.006, -4.432e-6
-1.007, -4.234e-6
-1.008, -4.057e-6
-1.009, -3.998e-6
-1.010, -3.978e-6
-1.011, -3.800e-6
-1.012, -3.643e-6
-1.013, -3.573e-6
-1.014, -3.495e-6
-1.015, -3.465e-6
-1.016, -3.366e-6
-1.017, -3.347e-6
-1.018, -3.208e-6
-1.019, -3.090e-6
-1.020, -3.070e-6
-1.021, -2.912e-6
-1.022, -2.903e-6
-1.023, -2.873e-6
-1.024, -2.577e-6
-1.025, -2.508e-6
-1.026, -2.468e-6
-1.027, -2.320e-6
-1.028, -2.350e-6
-1.029, -2.281e-6
-1.030, -2.232e-6
-1.031, -2.192e-6
-1.032, -2.074e-6
-1.033, -2.103e-6
-1.034, -1.886e-6
-1.035, -1.886e-6
-1.036, -1.877e-6
-1.037, -1.778e-6
-1.038, -1.689e-6
-1.039, -1.659e-6
-1.040, -1.561e-6
-1.041, -1.531e-6
-1.042, -1.482e-6
-1.043, -1.452e-6
-1.044, -1.294e-6
-1.045, -1.363e-6
-1.046, -1.334e-6
-1.047, -1.215e-6
-1.048, -1.255e-6
-1.049, -1.048e-6
-1.050, -1.018e-6
-1.051, -1.018e-6
-1.052, -8.998e-7
-1.053, -8.800e-7
-1.054, -8.603e-7
-1.055, -7.814e-7
-1.056, -7.518e-7
-1.057, -8.406e-7
-1.058, -7.025e-7
-1.059, -5.051e-7
-1.060, -6.038e-7
-1.061, -6.433e-7
-1.062, -5.643e-7
-1.063, -4.657e-7
-1.064, -3.275e-7
-1.065, -3.867e-7
-1.066, -2.782e-7
-1.067, -3.473e-7
-1.068, -3.275e-7
-1.069, -1.006e-7
-1.070, -1.894e-7
-1.071, -1.500e-7
-1.072, -9.077e-8
-1.073, -6.117e-8
-1.074, -3.157e-8
-1.075, -4.144e-8
-1.076, 7.695e-8
-1.077, 1.362e-7
-1.078, 1.559e-7
-1.079, 2.249e-7
-1.080, 1.559e-7
-1.081, 2.644e-7
-1.082, 2.644e-7
-1.083, 2.743e-7
-1.084, 4.025e-7
-1.085, 3.729e-7
-1.086, 3.039e-7
-1.087, 4.223e-7
-1.088, 5.209e-7
-1.089, 6.196e-7
-1.090, 5.111e-7
-1.091, 6.294e-7
-1.092, 5.111e-7
-1.093, 5.308e-7
-1.094, 7.182e-7
-1.095, 7.182e-7
-1.096, 6.393e-7
-1.097, 7.281e-7
-1.098, 7.774e-7
-1.099, 8.070e-7
-1.100, 8.366e-7
-1.101, 9.254e-7
-1.102, 8.958e-7
-1.103, 9.452e-7
-1.104, 9.945e-7
-1.105, 9.452e-7
-1.106, 9.452e-7
-1.107, 1.014e-6
-1.108, 9.945e-7
-1.109, 1.152e-6
-1.110, 1.103e-6
-1.111, 1.103e-6
-1.112, 1.192e-6
-1.113, 1.142e-6
-1.114, 1.261e-6
-1.115, 1.281e-6
-1.116, 1.290e-6
-1.117, 1.429e-6
-1.118, 1.290e-6
-1.119, 1.330e-6
-1.120, 1.369e-6
-1.121, 1.409e-6
-1.122, 1.360e-6
-1.123, 1.409e-6
-1.124, 1.379e-6
-1.125, 1.438e-6
-1.126, 1.458e-6
-1.127, 1.586e-6
-1.128, 1.517e-6
-1.129, 1.656e-6
-1.130, 1.626e-6
-1.131, 1.626e-6
-1.132, 1.636e-6
-1.133, 1.616e-6
-1.134, 1.754e-6
-1.135, 1.715e-6
-1.136, 1.695e-6
-1.137, 1.833e-6
-1.138, 1.685e-6
-1.139, 1.823e-6
-1.140, 1.863e-6
-1.141, 1.873e-6
-1.142, 1.853e-6
-1.143, 1.843e-6
-1.144, 1.942e-6
-1.145, 1.942e-6
-1.146, 1.981e-6
-1.147, 1.892e-6
-1.148, 1.951e-6
-1.149, 2.011e-6
-1.150, 1.991e-6
-1.151, 2.011e-6
-1.152, 2.090e-6
-1.153, 2.109e-6
-1.154, 2.178e-6
-1.155, 2.188e-6
-1.156, 2.119e-6
-1.157, 2.198e-6
-1.158, 2.169e-6
-1.159, 2.208e-6
-1.160, 2.169e-6
-1.161, 2.208e-6
-1.162, 2.198e-6
-1.163, 2.277e-6
-1.164, 2.346e-6
-1.165, 2.287e-6
-1.166, 2.336e-6
-1.167, 2.356e-6
-1.168, 2.405e-6
-1.169, 2.307e-6
-1.170, 2.326e-6
-1.171, 2.405e-6
-1.172, 2.386e-6
-1.173, 2.415e-6
-1.174, 2.425e-6
-1.175, 2.386e-6
-1.176, 2.455e-6
-1.177, 2.395e-6
-1.178, 2.474e-6
-1.179, 2.652e-6
-1.180, 2.474e-6
-1.181, 2.573e-6
-1.182, 2.445e-6
-1.183, 2.563e-6
-1.184, 2.691e-6
-1.185, 2.573e-6
-1.186, 2.583e-6
-1.187, 2.603e-6
-1.188, 2.622e-6
-1.189, 2.642e-6
-1.190, 2.622e-6
-1.191, 2.622e-6
-1.192, 2.691e-6
-1.193, 2.691e-6
-1.194, 2.701e-6
-1.195, 2.622e-6
-1.196, 2.721e-6
-1.197, 2.770e-6
-1.198, 2.760e-6
-1.199, 2.810e-6
-1.200, 2.780e-6
-1.201, 2.751e-6
-1.202, 2.691e-6
-1.203, 2.899e-6
-1.204, 2.918e-6
-1.205, 2.849e-6
-1.206, 2.908e-6
-1.207, 2.879e-6
-1.208, 2.869e-6
-1.209, 2.928e-6
-1.210, 2.899e-6
-1.211, 3.027e-6
-1.212, 2.889e-6
-1.213, 2.958e-6
-1.214, 2.978e-6
-1.215, 2.830e-6
-1.216, 3.037e-6
-1.217, 2.968e-6
-1.218, 2.997e-6
-1.219, 3.007e-6
-1.220, 2.978e-6
-1.221, 3.017e-6
-1.222, 3.047e-6
-1.223, 2.997e-6
-1.224, 3.027e-6
-1.225, 3.017e-6
-1.226, 3.056e-6
-1.227, 3.027e-6
-1.228, 3.155e-6
-1.229, 3.234e-6
-1.230, 3.126e-6
-1.231, 3.214e-6
-1.232, 3.204e-6
-1.233, 3.175e-6
-1.234, 3.254e-6
-1.235, 3.165e-6
-1.236, 3.185e-6
-1.237, 3.264e-6
-1.238, 3.214e-6
-1.239, 3.185e-6
-1.240, 3.234e-6
-1.241, 3.145e-6
-1.242, 3.234e-6
-1.243, 3.303e-6
-1.244, 3.264e-6
-1.245, 3.264e-6
-1.246, 3.293e-6
-1.247, 3.303e-6
-1.248, 3.303e-6
-1.249, 3.244e-6
-1.250, 3.293e-6
-1.251, 3.303e-6
-1.252, 3.283e-6
-1.253, 3.283e-6
-1.254, 3.352e-6
-1.255, 3.382e-6
-1.256, 3.372e-6
-1.257, 3.333e-6
-1.258, 3.402e-6
-1.259, 3.392e-6
-1.260, 3.372e-6
-1.261, 3.471e-6
-1.262, 3.362e-6
-1.263, 3.352e-6
-1.264, 3.441e-6
-1.265, 3.382e-6
-1.266, 3.431e-6
-1.267, 3.333e-6
-1.268, 3.431e-6
-1.269, 3.471e-6
-1.270, 3.441e-6
-1.271, 3.471e-6
-1.272, 3.392e-6
-1.273, 3.471e-6
-1.274, 3.491e-6
-1.275, 3.412e-6
-1.276, 3.451e-6
-1.277, 3.402e-6
-1.278, 3.471e-6
-1.279, 3.461e-6
-1.280, 3.510e-6
-1.281, 3.570e-6
-1.282, 3.431e-6
-1.283, 3.599e-6
-1.284, 3.589e-6
-1.285, 3.491e-6
-1.286, 3.570e-6
-1.287, 3.510e-6
-1.288, 3.500e-6
-1.289, 3.570e-6
-1.290, 3.629e-6
-1.291, 3.520e-6
-1.292, 3.520e-6
-1.293, 3.619e-6
-1.294, 3.579e-6
-1.295, 3.589e-6
-1.296, 3.609e-6
-1.297, 3.570e-6
-1.298, 3.629e-6
-1.299, 3.579e-6
-1.300, 3.589e-6
-1.301, 3.560e-6
-1.302, 3.579e-6
-1.303, 3.629e-6
-1.304, 3.540e-6
-1.305, 3.619e-6
-1.306, 3.717e-6
-1.307, 3.619e-6
-1.308, 3.708e-6
-1.309, 3.678e-6
-1.310, 3.737e-6
-1.311, 3.668e-6
-1.312, 3.698e-6
-1.313, 3.678e-6
-1.314, 3.708e-6
-1.315, 3.668e-6
-1.316, 3.678e-6
-1.317, 3.688e-6
-1.318, 3.777e-6
-1.319, 3.757e-6
-1.320, 3.658e-6
-1.321, 3.688e-6
-1.322, 3.737e-6
-1.323, 3.737e-6
-1.324, 3.737e-6
-1.325, 3.757e-6
-1.326, 3.737e-6
-1.327, 3.777e-6
-1.328, 3.737e-6
-1.329, 3.757e-6
-1.330, 3.639e-6
-1.331, 3.865e-6
-1.332, 3.757e-6
-1.333, 3.787e-6
-1.334, 3.747e-6
-1.335, 3.856e-6
-1.336, 3.875e-6
-1.337, 3.796e-6
-1.338, 3.856e-6
-1.339, 3.994e-6
-1.340, 3.796e-6
-1.341, 3.806e-6
-1.342, 3.806e-6
-1.343, 3.816e-6
-1.344, 3.974e-6
-1.345, 3.925e-6
-1.346, 3.875e-6
-1.347, 3.856e-6
-1.348, 3.944e-6
-1.349, 3.925e-6
-1.350, 3.856e-6
-1.351, 3.944e-6
-1.352, 3.846e-6
-1.353, 3.994e-6
-1.354, 3.895e-6
-1.355, 3.895e-6
-1.356, 3.905e-6
-1.357, 3.935e-6
-1.358, 4.004e-6
-1.359, 4.004e-6
-1.360, 4.013e-6
-1.361, 3.944e-6
-1.362, 3.984e-6
-1.363, 4.083e-6
-1.364, 4.004e-6
-1.365, 4.033e-6
-1.366, 4.023e-6
-1.367, 3.964e-6
-1.368, 4.033e-6
-1.369, 4.043e-6
-1.370, 4.112e-6
-1.371, 4.023e-6
-1.372, 3.905e-6
-1.373, 4.102e-6
-1.374, 4.073e-6
-1.375, 4.013e-6
-1.376, 4.132e-6
-1.377, 4.063e-6
-1.378, 4.083e-6
-1.379, 4.033e-6
-1.380, 4.043e-6
-1.381, 4.053e-6
-1.382, 4.053e-6
-1.383, 4.132e-6
-1.384, 4.092e-6
-1.385, 4.181e-6
-1.386, 4.201e-6
-1.387, 4.112e-6
-1.388, 4.181e-6
-1.389, 4.231e-6
-1.390, 4.083e-6
-1.391, 4.309e-6
-1.392, 4.171e-6
-1.393, 4.191e-6
-1.394, 4.161e-6
-1.395, 4.250e-6
-1.396, 4.260e-6
-1.397, 4.211e-6
-1.398, 4.290e-6
-1.399, 4.152e-6
-1.400, 4.231e-6
-1.401, 4.300e-6
-1.402, 4.161e-6
-1.403, 4.290e-6
-1.404, 4.270e-6
-1.405, 4.339e-6
-1.406, 4.270e-6
-1.407, 4.201e-6
-1.408, 4.359e-6
-1.409, 4.329e-6
-1.410, 4.388e-6
-1.411, 4.339e-6
-1.412, 4.250e-6
-1.413, 4.300e-6
-1.414, 4.487e-6
-1.415, 4.300e-6
-1.416, 4.369e-6
-1.417, 4.319e-6
-1.418, 4.369e-6
-1.419, 4.369e-6
-1.420, 4.240e-6
-1.421, 4.457e-6
-1.422, 4.398e-6
-1.423, 4.477e-6
-1.424, 4.388e-6
-1.425, 4.448e-6
-1.426, 4.379e-6
-1.427, 4.408e-6
-1.428, 4.467e-6
-1.429, 4.457e-6
-1.430, 4.448e-6
-1.431, 4.497e-6
-1.432, 4.438e-6
-1.433, 4.467e-6
-1.434, 4.635e-6
-1.435, 4.546e-6
-1.436, 4.556e-6
-1.437, 4.546e-6
-1.438, 4.497e-6
-1.439, 4.576e-6
-1.440, 4.586e-6
-1.441, 4.694e-6
-1.442, 4.526e-6
-1.443, 4.645e-6
-1.444, 4.635e-6
-1.445, 4.586e-6
-1.446, 4.704e-6
-1.447, 4.625e-6
-1.448, 4.783e-6
-1.449, 4.655e-6
-1.450, 4.674e-6
-1.451, 4.665e-6
-1.452, 4.566e-6
-1.453, 4.753e-6
-1.454, 4.714e-6
-1.455, 4.753e-6
-1.456, 4.734e-6
-1.457, 4.605e-6
-1.458, 4.645e-6
-1.459, 4.744e-6
-1.460, 4.773e-6
-1.461, 4.783e-6
-1.462, 4.714e-6
-1.463, 4.842e-6
-1.464, 4.803e-6
-1.465, 4.763e-6
-1.466, 4.822e-6
-1.467, 4.724e-6
-1.468, 4.803e-6
-1.469, 4.803e-6
-1.470, 4.773e-6
-1.471, 4.822e-6
-1.472, 4.793e-6
-1.473, 4.980e-6
-1.474, 4.911e-6
-1.475, 4.941e-6
-1.476, 4.951e-6
-1.477, 4.852e-6
-1.478, 4.961e-6
-1.479, 5.030e-6
-1.480, 4.921e-6
-1.481, 4.970e-6
-1.482, 4.970e-6
-1.483, 4.980e-6
-1.484, 5.049e-6
-1.485, 5.010e-6
-1.486, 5.178e-6
-1.487, 5.099e-6
-1.488, 5.118e-6
-1.489, 5.148e-6
-1.490, 5.049e-6
-1.491, 5.178e-6
-1.492, 5.138e-6
-1.493, 5.138e-6
-1.494, 5.079e-6
-1.495, 5.109e-6
-1.496, 5.178e-6
-1.497, 5.158e-6
-1.498, 5.217e-6
-1.499, 5.197e-6
-1.500, 5.247e-6
-1.501, 5.355e-6
-1.502, 5.178e-6
-1.503, 5.306e-6
-1.504, 5.266e-6
-1.505, 5.257e-6
-1.506, 5.345e-6
-1.507, 5.316e-6
-1.508, 5.405e-6
-1.509, 5.385e-6
-1.510, 5.385e-6
-1.511, 5.483e-6
-1.512, 5.474e-6
-1.513, 5.483e-6
-1.514, 5.444e-6
-1.515, 5.493e-6
-1.516, 5.444e-6
-1.517, 5.572e-6
-1.518, 5.553e-6
-1.519, 5.622e-6
-1.520, 5.631e-6
-1.521, 5.681e-6
-1.522, 5.631e-6
-1.523, 5.750e-6
-1.524, 5.789e-6
-1.525, 5.730e-6
-1.526, 5.829e-6
-1.527, 5.799e-6
-1.528, 5.937e-6
-1.529, 5.829e-6
-1.530, 5.918e-6
-1.531, 5.908e-6
-1.532, 5.888e-6
-1.533, 6.075e-6
-1.534, 5.977e-6
-1.535, 5.957e-6
-1.536, 6.075e-6
-1.537, 6.016e-6
-1.538, 6.243e-6
-1.539, 6.223e-6
-1.540, 6.135e-6
-1.541, 6.263e-6
-1.542, 6.214e-6
-1.543, 6.342e-6
-1.544, 6.332e-6
-1.545, 6.362e-6
-1.546, 6.381e-6
-1.547, 6.381e-6
-1.548, 6.450e-6
-1.549, 6.510e-6
-1.550, 6.529e-6
-1.551, 6.480e-6
-1.552, 6.598e-6
-1.553, 6.667e-6
-1.554, 6.658e-6
-1.555, 6.766e-6
-1.556, 6.776e-6
-1.557, 6.717e-6
-1.558, 6.914e-6
-1.559, 6.934e-6
-1.560, 6.855e-6
-1.561, 6.954e-6
-1.562, 7.013e-6
-1.563, 7.102e-6
-1.564, 7.111e-6
-1.565, 7.171e-6
-1.566, 7.131e-6
-1.567, 7.082e-6
-1.568, 7.378e-6
-1.569, 7.378e-6
-1.570, 7.397e-6
-1.571, 7.328e-6
-1.572, 7.427e-6
-1.573, 7.545e-6
-1.574, 7.555e-6
-1.575, 7.684e-6
-1.576, 7.654e-6
-1.577, 7.772e-6
-1.578, 7.723e-6
-1.579, 7.891e-6
-1.580, 7.901e-6
-1.581, 8.009e-6
-1.582, 7.989e-6
-1.583, 8.167e-6
-1.584, 8.157e-6
-1.585, 8.236e-6
-1.586, 8.226e-6
-1.587, 8.285e-6
-1.588, 8.493e-6
-1.589, 8.572e-6
-1.590, 8.572e-6
-1.591, 8.700e-6
-1.592, 8.641e-6
-1.593, 8.789e-6
-1.594, 8.838e-6
-1.595, 8.887e-6
-1.596, 8.937e-6
-1.597, 9.065e-6
-1.598, 9.163e-6
-1.599, 9.252e-6
-1.600, 9.400e-6
-1.601, 9.450e-6
-1.602, 9.469e-6
-1.603, 9.627e-6
-1.604, 9.755e-6
-1.605, 9.805e-6
-1.606, 9.913e-6
-1.607, 9.894e-6
-1.608, 1.015e-5
-1.609, 1.015e-5
-1.610, 1.025e-5
-1.611, 1.032e-5
-1.612, 1.050e-5
-1.613, 1.071e-5
-1.614, 1.079e-5
-1.615, 1.081e-5
-1.616, 1.082e-5
-1.617, 1.100e-5
-1.618, 1.122e-5
-1.619, 1.123e-5
-1.620, 1.138e-5
-1.621, 1.148e-5
-1.622, 1.163e-5
-1.623, 1.192e-5
-1.624, 1.200e-5
-1.625, 1.210e-5
-1.626, 1.228e-5
-1.627, 1.239e-5
-1.628, 1.251e-5
-1.629, 1.265e-5
-1.630, 1.276e-5
-1.631, 1.292e-5
-1.632, 1.315e-5
-1.633, 1.336e-5
-1.634, 1.347e-5
-1.635, 1.365e-5
-1.636, 1.383e-5
-1.637, 1.406e-5
-1.638, 1.433e-5
-1.639, 1.455e-5
-1.640, 1.461e-5
-1.641, 1.492e-5
-1.642, 1.506e-5
-1.643, 1.535e-5
-1.644, 1.545e-5
-1.645, 1.570e-5
-1.646, 1.597e-5
-1.647, 1.622e-5
-1.648, 1.640e-5
-1.649, 1.655e-5
-1.650, 1.680e-5
-1.651, 1.708e-5
-1.652, 1.741e-5
-1.653, 1.766e-5
-1.654, 1.795e-5
-1.655, 1.822e-5
-1.656, 1.848e-5
-1.657, 1.874e-5
-1.658, 1.910e-5
-1.659, 1.936e-5
-1.660, 1.963e-5
-1.661, 1.993e-5
-1.662, 2.026e-5
-1.663, 2.060e-5
-1.664, 2.096e-5
-1.665, 2.131e-5
-1.666, 2.171e-5
-1.667, 2.208e-5
-1.668, 2.240e-5
-1.669, 2.280e-5
-1.670, 2.320e-5
-1.671, 2.354e-5
-1.672, 2.392e-5
-1.673, 2.434e-5
-1.674, 2.484e-5
-1.675, 2.528e-5
-1.676, 2.572e-5
-1.677, 2.624e-5
-1.678, 2.677e-5
-1.679, 2.723e-5
-1.680, 2.765e-5
-1.681, 2.820e-5
-1.682, 2.865e-5
-1.683, 2.932e-5
-1.684, 2.991e-5
-1.685, 3.045e-5
-1.686, 3.089e-5
-1.687, 3.152e-5
-1.688, 3.228e-5
-1.689, 3.292e-5
-1.690, 3.351e-5
-1.691, 3.425e-5
-1.692, 3.497e-5
-1.693, 3.569e-5
-1.694, 3.639e-5
-1.695, 3.700e-5
-1.696, 3.776e-5
-1.697, 3.853e-5
-1.698, 3.942e-5
-1.699, 4.017e-5
-1.700, 4.112e-5
-1.701, 4.192e-5
-1.702, 4.279e-5
-1.703, 4.377e-5
-1.704, 4.463e-5
-1.705, 4.566e-5
-1.706, 4.651e-5
-1.707, 4.748e-5
-1.708, 4.875e-5
-1.709, 4.977e-5
-1.710, 5.088e-5
-1.711, 5.199e-5
-1.712, 5.313e-5
-1.713, 5.436e-5
-1.714, 5.551e-5
-1.715, 5.689e-5
-1.716, 5.810e-5
-1.717, 5.948e-5
-1.718, 6.097e-5
-1.719, 6.231e-5
-1.720, 6.375e-5
-1.721, 6.520e-5
-1.722, 6.675e-5
-1.723, 6.840e-5
-1.724, 7.004e-5
-1.725, 7.175e-5
-1.726, 7.343e-5
-1.727, 7.518e-5
-1.728, 7.721e-5
-1.729, 7.898e-5
-1.730, 8.096e-5
-1.731, 8.296e-5
-1.732, 8.499e-5
-1.733, 8.723e-5
-1.734, 8.946e-5
-1.735, 9.181e-5
-1.736, 9.413e-5
-1.737, 9.646e-5
-1.738, 9.903e-5
-1.739, 1.016e-4
-1.740, 1.042e-4
-1.741, 1.070e-4
-1.742, 1.097e-4
-1.743, 1.128e-4
-1.744, 1.158e-4
-1.745, 1.187e-4
-1.746, 1.219e-4
-1.747, 1.252e-4
-1.748, 1.286e-4
-1.749, 1.323e-4
-1.750, 1.359e-4
-1.751, 1.396e-4
-1.752, 1.434e-4
-1.753, 1.476e-4
-1.754, 1.517e-4
-1.755, 1.560e-4
-1.756, 1.603e-4
-1.757, 1.648e-4
-1.758, 1.697e-4
-1.759, 1.746e-4
-1.760, 1.796e-4
-1.761, 1.848e-4
-1.762, 1.901e-4
-1.763, 1.957e-4
-1.764, 2.014e-4
-1.765, 2.073e-4
-1.766, 2.133e-4
-1.767, 2.196e-4
-1.768, 2.259e-4
-1.769, 2.327e-4
-1.770, 2.396e-4
-1.771, 2.465e-4
-1.772, 2.539e-4
-1.773, 2.618e-4
-1.774, 2.697e-4
-1.775, 2.777e-4
-1.776, 2.862e-4
-1.777, 2.949e-4
-1.778, 3.040e-4
-1.779, 3.134e-4
-1.780, 3.231e-4
-1.781, 3.329e-4
-1.782, 3.431e-4
-1.783, 3.539e-4
-1.784, 3.648e-4
-1.785, 3.762e-4
-1.786, 3.878e-4
-1.787, 3.997e-4
-1.788, 4.122e-4
-1.789, 4.249e-4
-1.790, 4.380e-4
-1.791, 4.515e-4
-1.792, 4.658e-4
-1.793, 4.806e-4
-1.794, 4.958e-4
-1.795, 5.112e-4
-1.796, 5.271e-4
-1.797, 5.435e-4
-1.798, 5.608e-4
-1.799, 5.785e-4
-1.800, 5.963e-4
-1.801, 6.146e-4
-1.802, 6.334e-4
-1.803, 6.535e-4
-1.804, 6.741e-4
-1.805, 6.949e-4
-1.806, 7.165e-4
-1.807, 7.385e-4
-1.808, 7.611e-4
-1.809, 7.846e-4
-1.810, 8.086e-4
-1.811, 8.338e-4
-1.812, 8.597e-4
-1.813, 8.866e-4
-1.814, 9.144e-4
-1.815, 9.423e-4
-1.816, 9.705e-4
-1.817, 9.997e-4
-1.818, 1.030e-3
-1.819, 1.061e-3
-1.820, 1.093e-3
-1.821, 1.125e-3
-1.822, 1.159e-3
-1.823, 1.193e-3
-1.824, 1.227e-3
-1.825, 1.263e-3
-1.826, 1.299e-3
-1.827, 1.336e-3
-1.828, 1.375e-3
-1.829, 1.414e-3
-1.830, 1.454e-3
-1.831, 1.495e-3
-1.832, 1.538e-3
-1.833, 1.582e-3
-1.834, 1.626e-3
-1.835, 1.670e-3
-1.836, 1.715e-3
-1.837, 1.761e-3
-1.838, 1.810e-3
-1.839, 1.858e-3
-1.840, 1.908e-3
-1.841, 1.957e-3
-1.842, 2.008e-3
-1.843, 2.061e-3
-1.844, 2.114e-3
-1.845, 2.167e-3
-1.846, 2.221e-3
-1.847, 2.277e-3
-1.848, 2.333e-3
-1.849, 2.391e-3
-1.850, 2.450e-3
-1.851, 2.509e-3
-1.852, 2.568e-3
-1.853, 2.627e-3
-1.854, 2.688e-3
-1.855, 2.751e-3
-1.856, 2.815e-3
-1.857, 2.879e-3
-1.858, 2.943e-3
-1.859, 3.007e-3
-1.860, 3.074e-3
-1.861, 3.142e-3
-1.862, 3.212e-3
-1.863, 3.279e-3
-1.864, 3.349e-3
-1.865, 3.420e-3
-1.866, 3.493e-3
-1.867, 3.566e-3
-1.868, 3.640e-3
-1.869, 3.716e-3
-1.870, 3.790e-3
-1.871, 3.866e-3
-1.872, 3.942e-3
-1.873, 4.019e-3
-1.874, 4.096e-3
-1.875, 4.173e-3
-1.876, 4.250e-3
-1.877, 4.327e-3
-1.878, 4.404e-3
-1.879, 4.483e-3
-1.880, 4.561e-3
-1.881, 4.642e-3
-1.882, 4.723e-3
-1.883, 4.804e-3
-1.884, 4.882e-3
-1.885, 4.962e-3
-1.886, 5.043e-3
-1.887, 5.125e-3
-1.888, 5.208e-3
-1.889, 5.292e-3
-1.890, 5.373e-3
-1.891, 5.452e-3
-1.892, 5.532e-3
-1.893, 5.609e-3
-1.894, 5.687e-3
-1.895, 5.763e-3
-1.896, 5.839e-3
-1.897, 5.915e-3
-1.898, 5.989e-3
-1.899, 6.066e-3
-1.900, 6.090e-3
-1.899, 6.039e-3
-1.898, 5.982e-3
-1.897, 5.921e-3
-1.896, 5.861e-3
-1.895, 5.802e-3
-1.894, 5.738e-3
-1.893, 5.683e-3
-1.892, 5.627e-3
-1.891, 5.571e-3
-1.890, 5.513e-3
-1.889, 5.454e-3
-1.888, 5.401e-3
-1.887, 5.347e-3
-1.886, 5.294e-3
-1.885, 5.236e-3
-1.884, 5.179e-3
-1.883, 5.123e-3
-1.882, 5.062e-3
-1.881, 5.003e-3
-1.880, 4.950e-3
-1.879, 4.892e-3
-1.878, 4.835e-3
-1.877, 4.781e-3
-1.876, 4.727e-3
-1.875, 4.672e-3
-1.874, 4.618e-3
-1.873, 4.564e-3
-1.872, 4.512e-3
-1.871, 4.459e-3
-1.870, 4.405e-3
-1.869, 4.351e-3
-1.868, 4.296e-3
-1.867, 4.241e-3
-1.866, 4.189e-3
-1.865, 4.137e-3
-1.864, 4.082e-3
-1.863, 4.030e-3
-1.862, 3.979e-3
-1.861, 3.927e-3
-1.860, 3.875e-3
-1.859, 3.822e-3
-1.858, 3.776e-3
-1.857, 3.727e-3
-1.856, 3.676e-3
-1.855, 3.626e-3
-1.854, 3.576e-3
-1.853, 3.529e-3
-1.852, 3.483e-3
-1.851, 3.442e-3
-1.850, 3.396e-3
-1.849, 3.349e-3
-1.848, 3.303e-3
-1.847, 3.258e-3
-1.846, 3.215e-3
-1.845, 3.170e-3
-1.844, 3.127e-3
-1.843, 3.084e-3
-1.842, 3.041e-3
-1.841, 2.997e-3
-1.840, 2.953e-3
-1.839, 2.908e-3
-1.838, 2.864e-3
-1.837, 2.821e-3
-1.836, 2.781e-3
-1.835, 2.740e-3
-1.834, 2.699e-3
-1.833, 2.658e-3
-1.832, 2.617e-3
-1.831, 2.577e-3
-1.830, 2.536e-3
-1.829, 2.496e-3
-1.828, 2.456e-3
-1.827, 2.417e-3
-1.826, 2.379e-3
-1.825, 2.340e-3
-1.824, 2.301e-3
-1.823, 2.262e-3
-1.822, 2.226e-3
-1.821, 2.190e-3
-1.820, 2.154e-3
-1.819, 2.117e-3
-1.818, 2.081e-3
-1.817, 2.046e-3
-1.816, 2.012e-3
-1.815, 1.978e-3
-1.814, 1.944e-3
-1.813, 1.911e-3
-1.812, 1.879e-3
-1.811, 1.846e-3
-1.810, 1.812e-3
-1.809, 1.776e-3
-1.808, 1.742e-3
-1.807, 1.710e-3
-1.806, 1.681e-3
-1.805, 1.652e-3
-1.804, 1.623e-3
-1.803, 1.594e-3
-1.802, 1.565e-3
-1.801, 1.536e-3
-1.800, 1.508e-3
-1.799, 1.480e-3
-1.798, 1.453e-3
-1.797, 1.426e-3
-1.796, 1.401e-3
-1.795, 1.374e-3
-1.794, 1.348e-3
-1.793, 1.323e-3
-1.792, 1.298e-3
-1.791, 1.273e-3
-1.790, 1.249e-3
-1.789, 1.225e-3
-1.788, 1.202e-3
-1.787, 1.180e-3
-1.786, 1.157e-3
-1.785, 1.134e-3
-1.784, 1.111e-3
-1.783, 1.089e-3
-1.782, 1.068e-3
-1.781, 1.046e-3
-1.780, 1.025e-3
-1.779, 1.005e-3
-1.778, 9.846e-4
-1.777, 9.647e-4
-1.776, 9.451e-4
-1.775, 9.255e-4
-1.774, 9.062e-4
-1.773, 8.875e-4
-1.772, 8.696e-4
-1.771, 8.519e-4
-1.770, 8.340e-4
-1.769, 8.159e-4
-1.768, 7.988e-4
-1.767, 7.820e-4
-1.766, 7.654e-4
-1.765, 7.491e-4
-1.764, 7.329e-4
-1.763, 7.176e-4
-1.762, 7.024e-4
-1.761, 6.875e-4
-1.760, 6.726e-4
-1.759, 6.577e-4
-1.758, 6.435e-4
-1.757, 6.298e-4
-1.756, 6.163e-4
-1.755, 6.029e-4
-1.754, 5.897e-4
-1.753, 5.768e-4
-1.752, 5.644e-4
-1.751, 5.521e-4
-1.750, 5.400e-4
-1.749, 5.282e-4
-1.748, 5.164e-4
-1.747, 5.051e-4
-1.746, 4.938e-4
-1.745, 4.828e-4
-1.744, 4.721e-4
-1.743, 4.616e-4
-1.742, 4.516e-4
-1.741, 4.414e-4
-1.740, 4.312e-4
-1.739, 4.214e-4
-1.738, 4.119e-4
-1.737, 4.027e-4
-1.736, 3.939e-4
-1.735, 3.852e-4
-1.734, 3.766e-4
-1.733, 3.683e-4
-1.732, 3.601e-4
-1.731, 3.521e-4
-1.730, 3.441e-4
-1.729, 3.362e-4
-1.728, 3.286e-4
-1.727, 3.213e-4
-1.726, 3.141e-4
-1.725, 3.070e-4
-1.724, 3.001e-4
-1.723, 2.933e-4
-1.722, 2.869e-4
-1.721, 2.805e-4
-1.720, 2.742e-4
-1.719, 2.679e-4
-1.718, 2.618e-4
-1.717, 2.559e-4
-1.716, 2.501e-4
-1.715, 2.444e-4
-1.714, 2.388e-4
-1.713, 2.334e-4
-1.712, 2.283e-4
-1.711, 2.232e-4
-1.710, 2.182e-4
-1.709, 2.133e-4
-1.708, 2.084e-4
-1.707, 2.038e-4
-1.706, 1.992e-4
-1.705, 1.946e-4
-1.704, 1.902e-4
-1.703, 1.859e-4
-1.702, 1.817e-4
-1.701, 1.775e-4
-1.700, 1.735e-4
-1.699, 1.694e-4
-1.698, 1.656e-4
-1.697, 1.620e-4
-1.696, 1.582e-4
-1.695, 1.547e-4
-1.694, 1.511e-4
-1.693, 1.478e-4
-1.692, 1.443e-4
-1.691, 1.411e-4
-1.690, 1.378e-4
-1.689, 1.344e-4
-1.688, 1.315e-4
-1.687, 1.287e-4
-1.686, 1.257e-4
-1.685, 1.228e-4
-1.684, 1.201e-4
-1.683, 1.175e-4
-1.682, 1.149e-4
-1.681, 1.123e-4
-1.680, 1.098e-4
-1.679, 1.073e-4
-1.678, 1.049e-4
-1.677, 1.026e-4
-1.676, 1.003e-4
-1.675, 9.810e-5
-1.674, 9.583e-5
-1.673, 9.371e-5
-1.672, 9.172e-5
-1.671, 8.959e-5
-1.670, 8.758e-5
-1.669, 8.561e-5
-1.668, 8.377e-5
-1.667, 8.187e-5
-1.666, 8.004e-5
-1.665, 7.829e-5
-1.664, 7.636e-5
-1.663, 7.484e-5
-1.662, 7.325e-5
-1.661, 7.152e-5
-1.660, 6.997e-5
-1.659, 6.842e-5
-1.658, 6.699e-5
-1.657, 6.551e-5
-1.656, 6.412e-5
-1.655, 6.269e-5
-1.654, 6.124e-5
-1.653, 6.002e-5
-1.652, 5.873e-5
-1.651, 5.734e-5
-1.650, 5.609e-5
-1.649, 5.484e-5
-1.648, 5.372e-5
-1.647, 5.262e-5
-1.646, 5.146e-5
-1.645, 5.023e-5
-1.644, 4.917e-5
-1.643, 4.809e-5
-1.642, 4.714e-5
-1.641, 4.607e-5
-1.640, 4.513e-5
-1.639, 4.401e-5
-1.638, 4.296e-5
-1.637, 4.213e-5
-1.636, 4.121e-5
-1.635, 4.018e-5
-1.634, 3.943e-5
-1.633, 3.864e-5
-1.632, 3.778e-5
-1.631, 3.689e-5
-1.630, 3.615e-5
-1.629, 3.539e-5
-1.628, 3.463e-5
-1.627, 3.394e-5
-1.626, 3.318e-5
-1.625, 3.240e-5
-1.624, 3.162e-5
-1.623, 3.099e-5
-1.622, 3.035e-5
-1.621, 2.974e-5
-1.620, 2.905e-5
-1.619, 2.847e-5
-1.618, 2.780e-5
-1.617, 2.714e-5
-1.616, 2.663e-5
-1.615, 2.609e-5
-1.614, 2.550e-5
-1.613, 2.491e-5
-1.612, 2.437e-5
-1.611, 2.377e-5
-1.610, 2.326e-5
-1.609, 2.270e-5
-1.608, 2.235e-5
-1.607, 2.192e-5
-1.606, 2.136e-5
-1.605, 2.086e-5
-1.604, 2.048e-5
-1.603, 2.021e-5
-1.602, 1.966e-5
-1.601, 1.927e-5
-1.600, 1.881e-5
-1.599, 1.845e-5
-1.598, 1.809e-5
-1.597, 1.766e-5
-1.596, 1.717e-5
-1.595, 1.709e-5
-1.594, 1.655e-5
-1.593, 1.632e-5
-1.592, 1.596e-5
-1.591, 1.558e-5
-1.590, 1.534e-5
-1.589, 1.489e-5
-1.588, 1.464e-5
-1.587, 1.427e-5
-1.586, 1.401e-5
-1.585, 1.375e-5
-1.584, 1.335e-5
-1.583, 1.310e-5
-1.582, 1.287e-5
-1.581, 1.260e-5
-1.580, 1.233e-5
-1.579, 1.206e-5
-1.578, 1.187e-5
-1.577, 1.164e-5
-1.576, 1.134e-5
-1.575, 1.109e-5
-1.574, 1.084e-5
-1.573, 1.071e-5
-1.572, 1.046e-5
-1.571, 1.028e-5
-1.570, 9.973e-6
-1.569, 9.765e-6
-1.568, 9.598e-6
-1.567, 9.420e-6
-1.566, 9.242e-6
-1.565, 9.085e-6
-1.564, 8.887e-6
-1.563, 8.759e-6
-1.562, 8.493e-6
-1.561, 8.354e-6
-1.560, 8.167e-6
-1.559, 8.059e-6
-1.558, 7.901e-6
-1.557, 7.684e-6
-1.556, 7.536e-6
-1.555, 7.328e-6
-1.554, 7.299e-6
-1.553, 7.141e-6
-1.552, 6.894e-6
-1.551, 6.776e-6
-1.550, 6.717e-6
-1.549, 6.510e-6
-1.548, 6.362e-6
-1.547, 6.223e-6
-1.546, 6.214e-6
-1.545, 5.987e-6
-1.544, 5.927e-6
-1.543, 5.829e-6
-1.542, 5.730e-6
-1.541, 5.582e-6
-1.540, 5.513e-6
-1.539, 5.257e-6
-1.538, 5.336e-6
-1.537, 5.158e-6
-1.536, 4.970e-6
-1.535, 4.852e-6
-1.534, 4.763e-6
-1.533, 4.753e-6
-1.532, 4.655e-6
-1.531, 4.398e-6
-1.530, 4.388e-6
-1.529, 4.339e-6
-1.528, 4.319e-6
-1.527, 4.092e-6
-1.526, 4.023e-6
-1.525, 4.013e-6
-1.524, 3.915e-6
-1.523, 3.836e-6
-1.522, 3.717e-6
-1.521, 3.698e-6
-1.520, 3.589e-6
-1.519, 3.560e-6
-1.518, 3.500e-6
-1.517, 3.392e-6
-1.516, 3.333e-6
-1.515, 3.224e-6
-1.514, 3.126e-6
-1.513, 3.155e-6
-1.512, 3.155e-6
-1.511, 2.948e-6
-1.510, 2.889e-6
-1.509, 2.800e-6
-1.508, 2.830e-6
-1.507, 2.741e-6
-1.506, 2.672e-6
-1.505, 2.652e-6
-1.504, 2.563e-6
-1.503, 2.652e-6
-1.502, 2.465e-6
-1.501, 2.336e-6
-1.500, 2.346e-6
-1.499, 2.336e-6
-1.498, 2.238e-6
-1.497, 2.198e-6
-1.496, 2.080e-6
-1.495, 2.139e-6
-1.494, 2.050e-6
-1.493, 2.030e-6
-1.492, 1.912e-6
-1.491, 1.942e-6
-1.490, 1.971e-6
-1.489, 1.784e-6
-1.488, 1.843e-6
-1.487, 1.892e-6
-1.486, 1.754e-6
-1.485, 1.665e-6
-1.484, 1.567e-6
-1.483, 1.646e-6
-1.482, 1.596e-6
-1.481, 1.508e-6
-1.480, 1.586e-6
-1.479, 1.488e-6
-1.478, 1.458e-6
-1.477, 1.330e-6
-1.476, 1.389e-6
-1.475, 1.379e-6
-1.474, 1.330e-6
-1.473, 1.360e-6
-1.472, 1.261e-6
-1.471, 1.241e-6
-1.470, 1.241e-6
-1.469, 1.113e-6
-1.468, 1.172e-6
-1.467, 1.133e-6
-1.466, 1.044e-6
-1.465, 1.034e-6
-1.464, 1.093e-6
-1.463, 1.064e-6
-1.462, 8.958e-7
-1.461, 1.004e-6
-1.460, 9.353e-7
-1.459, 8.761e-7
-1.458, 9.156e-7
-1.457, 8.070e-7
-1.456, 7.182e-7
-1.455, 8.662e-7
-1.454, 7.972e-7
-1.453, 7.873e-7
-1.452, 7.281e-7
-1.451, 7.182e-7
-1.450, 6.590e-7
-1.449, 6.590e-7
-1.448, 7.380e-7
-1.447, 6.985e-7
-1.446, 5.505e-7
-1.445, 6.196e-7
-1.444, 4.913e-7
-1.443, 6.492e-7
-1.442, 5.308e-7
-1.441, 4.617e-7
-1.440, 4.913e-7
-1.439, 4.223e-7
-1.438, 4.815e-7
-1.437, 4.815e-7
-1.436, 4.420e-7
-1.435, 4.519e-7
-1.434, 2.743e-7
-1.433, 3.236e-7
-1.432, 3.039e-7
-1.431, 2.447e-7
-1.430, 2.644e-7
-1.429, 3.039e-7
-1.428, 2.545e-7
-1.427, 1.559e-7
-1.426, 1.460e-7
-1.425, 1.460e-7
-1.424, 1.362e-7
-1.423, 1.657e-7
-1.422, 1.657e-7
-1.421, 6.709e-8
-1.420, 8.682e-8
-1.419, 7.893e-9
-1.418, 1.164e-7
-1.417, 3.749e-8
-1.416, -1.184e-8
-1.415, -1.184e-8
-1.414, -8.090e-8
-1.413, 7.695e-8
-1.412, -1.184e-8
-1.411, 7.893e-9
-1.410, 5.722e-8
-1.409, -6.117e-8
-1.408, -5.130e-8
-1.407, -1.302e-7
-1.406, -1.006e-7
-1.405, -5.130e-8
-1.404, -1.204e-7
-1.403, -1.401e-7
-1.402, -1.302e-7
-1.401, -1.894e-7
-1.400, -1.598e-7
-1.399, -1.697e-7
-1.398, -2.092e-7
-1.397, -2.388e-7
-1.396, -2.881e-7
-1.395, -3.078e-7
-1.394, -3.275e-7
-1.393, -1.401e-7
-1.392, -3.571e-7
-1.391, -2.092e-7
-1.390, -2.782e-7
-1.389, -3.374e-7
-1.388, -2.980e-7
-1.387, -3.374e-7
-1.386, -3.374e-7
-1.385, -4.065e-7
-1.384, -3.769e-7
-1.383, -3.571e-7
-1.382, -4.953e-7
-1.381, -5.446e-7
-1.380, -4.854e-7
-1.379, -5.150e-7
-1.378, -3.867e-7
-1.377, -4.163e-7
-1.376, -4.755e-7
-1.375, -5.150e-7
-1.374, -4.755e-7
-1.373, -4.065e-7
-1.372, -5.249e-7
-1.371, -5.643e-7
-1.370, -5.446e-7
-1.369, -5.643e-7
-1.368, -5.446e-7
-1.367, -5.841e-7
-1.366, -5.939e-7
-1.365, -5.249e-7
-1.364, -6.433e-7
-1.363, -6.334e-7
-1.362, -6.630e-7
-1.361, -6.729e-7
-1.360, -6.235e-7
-1.359, -6.531e-7
-1.358, -6.334e-7
-1.357, -7.715e-7
-1.356, -7.518e-7
-1.355, -7.321e-7
-1.354, -7.814e-7
-1.353, -6.827e-7
-1.352, -7.617e-7
-1.351, -6.827e-7
-1.350, -7.617e-7
-1.349, -8.307e-7
-1.348, -7.419e-7
-1.347, -7.912e-7
-1.346, -7.419e-7
-1.345, -8.011e-7
-1.344, -8.208e-7
-1.343, -8.800e-7
-1.342, -8.406e-7
-1.341, -8.208e-7
-1.340, -7.912e-7
-1.339, -8.800e-7
-1.338, -8.110e-7
-1.337, -8.702e-7
-1.336, -8.307e-7
-1.335, -8.899e-7
-1.334, -9.886e-7
-1.333, -7.715e-7
-1.332, -8.603e-7
-1.331, -9.787e-7
-1.330, -9.984e-7
-1.329, -9.491e-7
-1.328, -9.392e-7
-1.327, -9.392e-7
-1.326, -1.028e-6
-1.325, -1.058e-6
-1.324, -1.048e-6
-1.323, -9.294e-7
-1.322, -1.067e-6
-1.321, -1.038e-6
-1.320, -9.886e-7
-1.319, -1.028e-6
-1.318, -1.028e-6
-1.317, -1.097e-6
-1.316, -1.067e-6
-1.315, -1.038e-6
-1.314, -1.127e-6
-1.313, -1.087e-6
-1.312, -1.215e-6
-1.311, -1.146e-6
-1.310, -1.058e-6
-1.309, -1.186e-6
-1.308, -1.166e-6
-1.307, -1.077e-6
-1.306, -1.117e-6
-1.305, -1.225e-6
-1.304, -1.304e-6
-1.303, -1.176e-6
-1.302, -1.215e-6
-1.301, -1.186e-6
-1.300, -1.235e-6
-1.299, -1.275e-6
-1.298, -1.186e-6
-1.297, -1.265e-6
-1.296, -1.196e-6
-1.295, -1.324e-6
-1.294, -1.285e-6
-1.293, -1.314e-6
-1.292, -1.294e-6
-1.291, -1.334e-6
-1.290, -1.304e-6
-1.289, -1.344e-6
-1.288, -1.285e-6
-1.287, -1.413e-6
-1.286, -1.344e-6
-1.285, -1.344e-6
-1.284, -1.324e-6
-1.283, -1.324e-6
-1.282, -1.393e-6
-1.281, -1.334e-6
-1.280, -1.492e-6
-1.279, -1.452e-6
-1.278, -1.413e-6
-1.277, -1.541e-6
-1.276, -1.492e-6
-1.275, -1.531e-6
-1.274, -1.551e-6
-1.273, -1.452e-6
-1.272, -1.551e-6
-1.271, -1.531e-6
-1.270, -1.571e-6
-1.269, -1.492e-6
-1.268, -1.551e-6
-1.267, -1.669e-6
-1.266, -1.650e-6
-1.265, -1.600e-6
-1.264, -1.650e-6
-1.263, -1.561e-6
-1.262, -1.650e-6
-1.261, -1.669e-6
-1.260, -1.709e-6
-1.259, -1.669e-6
-1.258, -1.719e-6
-1.257, -1.669e-6
-1.256, -1.738e-6
-1.255, -1.719e-6
-1.254, -1.807e-6
-1.253, -1.817e-6
-1.252, -1.699e-6
-1.251, -1.837e-6
-1.250, -1.788e-6
-1.249, -1.975e-6
-1.248, -1.867e-6
-1.247, -1.817e-6
-1.246, -1.936e-6
-1.245, -1.896e-6
-1.244, -1.975e-6
-1.243, -1.926e-6
-1.242, -1.985e-6
-1.241, -1.995e-6
-1.240, -2.064e-6
-1.239, -2.054e-6
-1.238, -2.074e-6
-1.237, -2.044e-6
-1.236, -2.015e-6
-1.235, -2.103e-6
-1.234, -2.143e-6
-1.233, -2.074e-6
-1.232, -2.153e-6
-1.231, -2.202e-6
-1.230, -2.172e-6
-1.229, -2.222e-6
-1.228, -2.242e-6
-1.227, -2.311e-6
-1.226, -2.330e-6
-1.225, -2.380e-6
-1.224, -2.370e-6
-1.223, -2.380e-6
-1.222, -2.439e-6
-1.221, -2.399e-6
-1.220, -2.399e-6
-1.219, -2.587e-6
-1.218, -2.449e-6
-1.217, -2.518e-6
-1.216, -2.547e-6
-1.215, -2.577e-6
-1.214, -2.646e-6
-1.213, -2.695e-6
-1.212, -2.656e-6
-1.211, -2.587e-6
-1.210, -2.755e-6
-1.209, -2.735e-6
-1.208, -2.794e-6
-1.207, -2.794e-6
-1.206, -2.784e-6
-1.205, -2.883e-6
-1.204, -2.912e-6
-1.203, -2.893e-6
-1.202, -3.001e-6
-1.201, -2.952e-6
-1.200, -3.031e-6
-1.199, -3.051e-6
-1.198, -2.991e-6
-1.197, -3.149e-6
-1.196, -3.149e-6
-1.195, -3.149e-6
-1.194, -3.139e-6
-1.193, -3.199e-6
-1.192, -3.169e-6
-1.191, -3.307e-6
-1.190, -3.425e-6
-1.189, -3.406e-6
-1.188, -3.386e-6
-1.187, -3.435e-6
-1.186, -3.495e-6
-1.185, -3.583e-6
-1.184, -3.652e-6
-1.183, -3.524e-6
-1.182, -3.623e-6
-1.181, -3.721e-6
-1.180, -3.810e-6
-1.179, -3.800e-6
-1.178, -3.869e-6
-1.177, -3.948e-6
-1.176, -3.978e-6
-1.175, -3.889e-6
-1.174, -3.988e-6
-1.173, -4.047e-6
-1.172, -4.136e-6
-1.171, -4.165e-6
-1.170, -4.126e-6
-1.169, -4.284e-6
-1.168, -4.195e-6
-1.167, -4.402e-6
-1.166, -4.392e-6
-1.165, -4.481e-6
-1.164, -4.560e-6
-1.163, -4.590e-6
-1.162, -4.639e-6
-1.161, -4.600e-6
-1.160, -4.728e-6
-1.159, -4.807e-6
-1.158, -4.856e-6
-1.157, -4.886e-6
-1.156, -4.965e-6
-1.155, -5.004e-6
-1.154, -5.132e-6
-1.153, -5.073e-6
-1.152, -5.270e-6
-1.151, -5.310e-6
-1.150, -5.359e-6
-1.149, -5.379e-6
-1.148, -5.409e-6
-1.147, -5.527e-6
-1.146, -5.596e-6
-1.145, -5.635e-6
-1.144, -5.655e-6
-1.143, -5.665e-6
-1.142, -5.823e-6
-1.141, -5.764e-6
-1.140, -5.951e-6
-1.139, -6.079e-6
-1.138, -5.991e-6
-1.137, -6.148e-6
-1.136, -6.178e-6
-1.135, -6.168e-6
-1.134, -6.257e-6
-1.133, -6.218e-6
-1.132, -6.444e-6
-1.131, -6.474e-6
-1.130, -6.553e-6
-1.129, -6.622e-6
-1.128, -6.583e-6
-1.127, -6.809e-6
-1.126, -6.859e-6
-1.125, -6.948e-6
-1.124, -6.849e-6
-1.123, -7.076e-6
-1.122, -7.056e-6
-1.121, -7.105e-6
-1.120, -7.244e-6
-1.119, -7.283e-6
-1.118, -7.332e-6
-1.117, -7.401e-6
-1.116, -7.441e-6
-1.115, -7.520e-6
-1.114, -7.549e-6
-1.113, -7.589e-6
-1.112, -7.757e-6
-1.111, -7.806e-6
-1.110, -7.865e-6
-1.109, -7.845e-6
-1.108, -7.865e-6
-1.107, -8.013e-6
-1.106, -8.023e-6
-1.105, -8.102e-6
-1.104, -8.181e-6
-1.103, -8.141e-6
-1.102, -8.270e-6
-1.101, -8.299e-6
-1.100, -8.457e-6
-1.099, -8.516e-6
-1.098, -8.497e-6
-1.097, -8.497e-6
-1.096, -8.635e-6
-1.095, -8.556e-6
-1.094, -8.694e-6
-1.093, -8.714e-6
-1.092, -8.812e-6
-1.091, -8.901e-6
-1.090, -8.832e-6
-1.089, -8.862e-6
-1.088, -8.970e-6
-1.087, -9.000e-6
-1.086, -8.990e-6
-1.085, -9.049e-6
-1.084, -9.079e-6
-1.083, -9.108e-6
-1.082, -9.256e-6
-1.081, -9.187e-6
-1.080, -9.365e-6
-1.079, -9.237e-6
-1.078, -9.276e-6
-1.077, -9.375e-6
-1.076, -9.375e-6
-1.075, -9.562e-6
-1.074, -9.444e-6
-1.073, -9.473e-6
-1.072, -9.562e-6
-1.071, -9.592e-6
-1.070, -9.690e-6
-1.069, -9.710e-6
-1.068, -9.661e-6
-1.067, -9.720e-6
-1.066, -9.779e-6
-1.065, -9.759e-6
-1.064, -9.868e-6
-1.063, -9.838e-6
-1.062, -9.858e-6
-1.061, -9.858e-6
-1.060, -9.888e-6
-1.059, -9.976e-6
-1.058, -9.878e-6
-1.057, -9.947e-6
-1.056, -1.012e-5
-1.055, -1.011e-5
-1.054, -1.011e-5
-1.053, -1.008e-5
-1.052, -1.014e-5
-1.051, -1.014e-5
-1.050, -1.027e-5
-1.049, -1.034e-5
-1.048, -1.022e-5
-1.047, -1.029e-5
-1.046, -1.035e-5
-1.045, -1.042e-5
-1.044, -1.047e-5
-1.043, -1.043e-5
-1.042, -1.044e-5
-1.041, -1.050e-5
-1.040, -1.058e-5
-1.039, -1.061e-5
-1.038, -1.052e-5
-1.037, -1.067e-5
-1.036, -1.069e-5
-1.035, -1.073e-5
-1.034, -1.077e-5
-1.033, -1.069e-5
-1.032, -1.072e-5
-1.031, -1.080e-5
-1.030, -1.082e-5
-1.029, -1.084e-5
-1.028, -1.087e-5
-1.027, -1.084e-5
-1.026, -1.093e-5
-1.025, -1.093e-5
-1.024, -1.105e-5
-1.023, -1.115e-5
-1.022, -1.112e-5
-1.021, -1.116e-5
-1.020, -1.115e-5
-1.019, -1.116e-5
-1.018, -1.122e-5
-1.017, -1.126e-5
-1.016, -1.117e-5
-1.015, -1.130e-5
-1.014, -1.133e-5
-1.013, -1.121e-5
-1.012, -1.133e-5
-1.011, -1.151e-5
-1.010, -1.147e-5
-1.009, -1.146e-5
-1.008, -1.140e-5
-1.007, -1.156e-5
-1.006, -1.159e-5
-1.005, -1.161e-5
-1.004, -1.162e-5
-1.003, -1.159e-5
-1.002, -1.158e-5
-1.001, -1.174e-5
