Aug. 11, 2024   06:24:12
Cyclic Voltammetry
File: c:/users/guazh/data/20240802_batch_500/2024-08-02-exp80\exp80-2024-08-11t06_15_29-arkoh\exp80_cv_50mvs_efin_-1600mv.bin
Data Source:  Experiment
Instrument Model:  CHI760E
Header: CV ran at 50 mVs
Note: 

Init E (V) = -1
High E (V) = -1
Low E (V) = -1.6
Final E (V) = -1
Init P/N = N
Scan Rate (V/s) = 0.05
Segment = 7
Sample Interval (V) = 0.001
Quiet Time (sec) = 60
Sensitivity (A/V) = 0.001
Comp R (ohm) = 1.8

Results:

Channel 1:
Segment 1:

Segment 2:
Ep = -1.068V
ip = -1.308e-5A
Ah = -1.538e-5C

Segment 3:

Segment 4:
Ep = -1.075V
ip = -1.014e-5A
Ah = -1.181e-5C

Segment 5:

Segment 6:
Ep = -1.078V
ip = -7.410e-6A
Ah = -9.296e-6C

Segment 7:

Potential/V, Current/A

-1.000, -1.117e-7
-1.001, 2.011e-7
-1.002, 4.487e-7
-1.003, 6.579e-7
-1.004, 8.049e-7
-1.005, 9.489e-7
-1.006, 1.086e-6
-1.007, 1.241e-6
-1.008, 1.373e-6
-1.009, 1.454e-6
-1.010, 1.554e-6
-1.011, 1.683e-6
-1.012, 1.776e-6
-1.013, 1.888e-6
-1.014, 1.967e-6
-1.015, 2.058e-6
-1.016, 2.109e-6
-1.017, 2.229e-6
-1.018, 2.318e-6
-1.019, 2.377e-6
-1.020, 2.439e-6
-1.021, 2.522e-6
-1.022, 2.600e-6
-1.023, 2.696e-6
-1.024, 2.739e-6
-1.025, 2.777e-6
-1.026, 2.880e-6
-1.027, 2.954e-6
-1.028, 3.017e-6
-1.029, 3.042e-6
-1.030, 3.109e-6
-1.031, 3.165e-6
-1.032, 3.239e-6
-1.033, 3.308e-6
-1.034, 3.349e-6
-1.035, 3.390e-6
-1.036, 3.430e-6
-1.037, 3.526e-6
-1.038, 3.583e-6
-1.039, 3.606e-6
-1.040, 3.646e-6
-1.041, 3.706e-6
-1.042, 3.770e-6
-1.043, 3.831e-6
-1.044, 3.874e-6
-1.045, 3.890e-6
-1.046, 3.941e-6
-1.047, 4.027e-6
-1.048, 4.055e-6
-1.049, 4.114e-6
-1.050, 4.154e-6
-1.051, 4.194e-6
-1.052, 4.263e-6
-1.053, 4.306e-6
-1.054, 4.316e-6
-1.055, 4.360e-6
-1.056, 4.416e-6
-1.057, 4.464e-6
-1.058, 4.525e-6
-1.059, 4.552e-6
-1.060, 4.564e-6
-1.061, 4.641e-6
-1.062, 4.691e-6
-1.063, 4.737e-6
-1.064, 4.780e-6
-1.065, 4.785e-6
-1.066, 4.848e-6
-1.067, 4.903e-6
-1.068, 4.937e-6
-1.069, 4.973e-6
-1.070, 4.990e-6
-1.071, 5.047e-6
-1.072, 5.108e-6
-1.073, 5.141e-6
-1.074, 5.172e-6
-1.075, 5.207e-6
-1.076, 5.258e-6
-1.077, 5.317e-6
-1.078, 5.359e-6
-1.079, 5.390e-6
-1.080, 5.396e-6
-1.081, 5.463e-6
-1.082, 5.552e-6
-1.083, 5.549e-6
-1.084, 5.581e-6
-1.085, 5.620e-6
-1.086, 5.654e-6
-1.087, 5.730e-6
-1.088, 5.758e-6
-1.089, 5.808e-6
-1.090, 5.827e-6
-1.091, 5.853e-6
-1.092, 5.955e-6
-1.093, 5.995e-6
-1.094, 6.018e-6
-1.095, 6.034e-6
-1.096, 6.085e-6
-1.097, 6.156e-6
-1.098, 6.197e-6
-1.099, 6.233e-6
-1.100, 6.247e-6
-1.101, 6.319e-6
-1.102, 6.404e-6
-1.103, 6.414e-6
-1.104, 6.450e-6
-1.105, 6.483e-6
-1.106, 6.544e-6
-1.107, 6.593e-6
-1.108, 6.650e-6
-1.109, 6.683e-6
-1.110, 6.709e-6
-1.111, 6.765e-6
-1.112, 6.813e-6
-1.113, 6.885e-6
-1.114, 6.921e-6
-1.115, 6.954e-6
-1.116, 7.022e-6
-1.117, 7.080e-6
-1.118, 7.124e-6
-1.119, 7.173e-6
-1.120, 7.190e-6
-1.121, 7.235e-6
-1.122, 7.332e-6
-1.123, 7.377e-6
-1.124, 7.420e-6
-1.125, 7.458e-6
-1.126, 7.518e-6
-1.127, 7.570e-6
-1.128, 7.632e-6
-1.129, 7.667e-6
-1.130, 7.696e-6
-1.131, 7.767e-6
-1.132, 7.850e-6
-1.133, 7.895e-6
-1.134, 7.926e-6
-1.135, 7.986e-6
-1.136, 8.036e-6
-1.137, 8.119e-6
-1.138, 8.149e-6
-1.139, 8.194e-6
-1.140, 8.248e-6
-1.141, 8.306e-6
-1.142, 8.377e-6
-1.143, 8.449e-6
-1.144, 8.462e-6
-1.145, 8.529e-6
-1.146, 8.589e-6
-1.147, 8.654e-6
-1.148, 8.725e-6
-1.149, 8.762e-6
-1.150, 8.789e-6
-1.151, 8.864e-6
-1.152, 8.959e-6
-1.153, 9.001e-6
-1.154, 9.029e-6
-1.155, 9.070e-6
-1.156, 9.130e-6
-1.157, 9.224e-6
-1.158, 9.252e-6
-1.159, 9.307e-6
-1.160, 9.355e-6
-1.161, 9.401e-6
-1.162, 9.486e-6
-1.163, 9.550e-6
-1.164, 9.561e-6
-1.165, 9.640e-6
-1.166, 9.702e-6
-1.167, 9.752e-6
-1.168, 9.819e-6
-1.169, 9.831e-6
-1.170, 9.907e-6
-1.171, 9.945e-6
-1.172, 1.005e-5
-1.173, 1.008e-5
-1.174, 1.011e-5
-1.175, 1.017e-5
-1.176, 1.022e-5
-1.177, 1.031e-5
-1.178, 1.036e-5
-1.179, 1.040e-5
-1.180, 1.044e-5
-1.181, 1.051e-5
-1.182, 1.059e-5
-1.183, 1.063e-5
-1.184, 1.067e-5
-1.185, 1.068e-5
-1.186, 1.076e-5
-1.187, 1.084e-5
-1.188, 1.089e-5
-1.189, 1.091e-5
-1.190, 1.093e-5
-1.191, 1.102e-5
-1.192, 1.111e-5
-1.193, 1.115e-5
-1.194, 1.118e-5
-1.195, 1.120e-5
-1.196, 1.127e-5
-1.197, 1.135e-5
-1.198, 1.141e-5
-1.199, 1.141e-5
-1.200, 1.146e-5
-1.201, 1.154e-5
-1.202, 1.160e-5
-1.203, 1.163e-5
-1.204, 1.166e-5
-1.205, 1.167e-5
-1.206, 1.177e-5
-1.207, 1.184e-5
-1.208, 1.185e-5
-1.209, 1.186e-5
-1.210, 1.191e-5
-1.211, 1.198e-5
-1.212, 1.203e-5
-1.213, 1.205e-5
-1.214, 1.210e-5
-1.215, 1.212e-5
-1.216, 1.219e-5
-1.217, 1.222e-5
-1.218, 1.225e-5
-1.219, 1.227e-5
-1.220, 1.229e-5
-1.221, 1.236e-5
-1.222, 1.240e-5
-1.223, 1.242e-5
-1.224, 1.245e-5
-1.225, 1.245e-5
-1.226, 1.253e-5
-1.227, 1.257e-5
-1.228, 1.259e-5
-1.229, 1.261e-5
-1.230, 1.264e-5
-1.231, 1.266e-5
-1.232, 1.271e-5
-1.233, 1.271e-5
-1.234, 1.274e-5
-1.235, 1.274e-5
-1.236, 1.278e-5
-1.237, 1.282e-5
-1.238, 1.283e-5
-1.239, 1.284e-5
-1.240, 1.288e-5
-1.241, 1.289e-5
-1.242, 1.292e-5
-1.243, 1.293e-5
-1.244, 1.292e-5
-1.245, 1.293e-5
-1.246, 1.298e-5
-1.247, 1.299e-5
-1.248, 1.300e-5
-1.249, 1.300e-5
-1.250, 1.299e-5
-1.251, 1.301e-5
-1.252, 1.305e-5
-1.253, 1.304e-5
-1.254, 1.304e-5
-1.255, 1.303e-5
-1.256, 1.308e-5
-1.257, 1.310e-5
-1.258, 1.308e-5
-1.259, 1.308e-5
-1.260, 1.307e-5
-1.261, 1.310e-5
-1.262, 1.313e-5
-1.263, 1.312e-5
-1.264, 1.309e-5
-1.265, 1.312e-5
-1.266, 1.313e-5
-1.267, 1.314e-5
-1.268, 1.314e-5
-1.269, 1.313e-5
-1.270, 1.313e-5
-1.271, 1.314e-5
-1.272, 1.317e-5
-1.273, 1.314e-5
-1.274, 1.312e-5
-1.275, 1.314e-5
-1.276, 1.315e-5
-1.277, 1.316e-5
-1.278, 1.315e-5
-1.279, 1.313e-5
-1.280, 1.315e-5
-1.281, 1.318e-5
-1.282, 1.318e-5
-1.283, 1.316e-5
-1.284, 1.315e-5
-1.285, 1.315e-5
-1.286, 1.316e-5
-1.287, 1.318e-5
-1.288, 1.316e-5
-1.289, 1.315e-5
-1.290, 1.315e-5
-1.291, 1.316e-5
-1.292, 1.316e-5
-1.293, 1.317e-5
-1.294, 1.312e-5
-1.295, 1.313e-5
-1.296, 1.314e-5
-1.297, 1.316e-5
-1.298, 1.315e-5
-1.299, 1.313e-5
-1.300, 1.313e-5
-1.301, 1.312e-5
-1.302, 1.315e-5
-1.303, 1.315e-5
-1.304, 1.311e-5
-1.305, 1.311e-5
-1.306, 1.315e-5
-1.307, 1.315e-5
-1.308, 1.313e-5
-1.309, 1.311e-5
-1.310, 1.310e-5
-1.311, 1.311e-5
-1.312, 1.313e-5
-1.313, 1.313e-5
-1.314, 1.311e-5
-1.315, 1.312e-5
-1.316, 1.314e-5
-1.317, 1.312e-5
-1.318, 1.313e-5
-1.319, 1.312e-5
-1.320, 1.311e-5
-1.321, 1.317e-5
-1.322, 1.314e-5
-1.323, 1.313e-5
-1.324, 1.313e-5
-1.325, 1.310e-5
-1.326, 1.315e-5
-1.327, 1.316e-5
-1.328, 1.314e-5
-1.329, 1.314e-5
-1.330, 1.314e-5
-1.331, 1.316e-5
-1.332, 1.318e-5
-1.333, 1.317e-5
-1.334, 1.313e-5
-1.335, 1.315e-5
-1.336, 1.320e-5
-1.337, 1.320e-5
-1.338, 1.320e-5
-1.339, 1.317e-5
-1.340, 1.318e-5
-1.341, 1.323e-5
-1.342, 1.324e-5
-1.343, 1.323e-5
-1.344, 1.322e-5
-1.345, 1.322e-5
-1.346, 1.327e-5
-1.347, 1.328e-5
-1.348, 1.326e-5
-1.349, 1.327e-5
-1.350, 1.328e-5
-1.351, 1.331e-5
-1.352, 1.332e-5
-1.353, 1.332e-5
-1.354, 1.331e-5
-1.355, 1.334e-5
-1.356, 1.336e-5
-1.357, 1.339e-5
-1.358, 1.337e-5
-1.359, 1.337e-5
-1.360, 1.340e-5
-1.361, 1.345e-5
-1.362, 1.346e-5
-1.363, 1.345e-5
-1.364, 1.343e-5
-1.365, 1.347e-5
-1.366, 1.349e-5
-1.367, 1.353e-5
-1.368, 1.352e-5
-1.369, 1.351e-5
-1.370, 1.354e-5
-1.371, 1.359e-5
-1.372, 1.360e-5
-1.373, 1.360e-5
-1.374, 1.359e-5
-1.375, 1.362e-5
-1.376, 1.369e-5
-1.377, 1.368e-5
-1.378, 1.366e-5
-1.379, 1.369e-5
-1.380, 1.371e-5
-1.381, 1.373e-5
-1.382, 1.375e-5
-1.383, 1.377e-5
-1.384, 1.377e-5
-1.385, 1.379e-5
-1.386, 1.382e-5
-1.387, 1.384e-5
-1.388, 1.383e-5
-1.389, 1.386e-5
-1.390, 1.389e-5
-1.391, 1.392e-5
-1.392, 1.391e-5
-1.393, 1.393e-5
-1.394, 1.392e-5
-1.395, 1.396e-5
-1.396, 1.401e-5
-1.397, 1.401e-5
-1.398, 1.401e-5
-1.399, 1.405e-5
-1.400, 1.403e-5
-1.401, 1.409e-5
-1.402, 1.411e-5
-1.403, 1.410e-5
-1.404, 1.413e-5
-1.405, 1.412e-5
-1.406, 1.416e-5
-1.407, 1.418e-5
-1.408, 1.420e-5
-1.409, 1.417e-5
-1.410, 1.421e-5
-1.411, 1.425e-5
-1.412, 1.426e-5
-1.413, 1.427e-5
-1.414, 1.425e-5
-1.415, 1.429e-5
-1.416, 1.433e-5
-1.417, 1.433e-5
-1.418, 1.435e-5
-1.419, 1.432e-5
-1.420, 1.435e-5
-1.421, 1.439e-5
-1.422, 1.442e-5
-1.423, 1.439e-5
-1.424, 1.438e-5
-1.425, 1.443e-5
-1.426, 1.445e-5
-1.427, 1.448e-5
-1.428, 1.447e-5
-1.429, 1.445e-5
-1.430, 1.448e-5
-1.431, 1.454e-5
-1.432, 1.452e-5
-1.433, 1.454e-5
-1.434, 1.454e-5
-1.435, 1.456e-5
-1.436, 1.462e-5
-1.437, 1.459e-5
-1.438, 1.459e-5
-1.439, 1.457e-5
-1.440, 1.461e-5
-1.441, 1.464e-5
-1.442, 1.466e-5
-1.443, 1.464e-5
-1.444, 1.463e-5
-1.445, 1.467e-5
-1.446, 1.470e-5
-1.447, 1.470e-5
-1.448, 1.470e-5
-1.449, 1.471e-5
-1.450, 1.471e-5
-1.451, 1.476e-5
-1.452, 1.475e-5
-1.453, 1.476e-5
-1.454, 1.474e-5
-1.455, 1.478e-5
-1.456, 1.480e-5
-1.457, 1.480e-5
-1.458, 1.481e-5
-1.459, 1.477e-5
-1.460, 1.480e-5
-1.461, 1.484e-5
-1.462, 1.483e-5
-1.463, 1.485e-5
-1.464, 1.484e-5
-1.465, 1.483e-5
-1.466, 1.489e-5
-1.467, 1.490e-5
-1.468, 1.489e-5
-1.469, 1.488e-5
-1.470, 1.488e-5
-1.471, 1.492e-5
-1.472, 1.493e-5
-1.473, 1.492e-5
-1.474, 1.492e-5
-1.475, 1.493e-5
-1.476, 1.500e-5
-1.477, 1.499e-5
-1.478, 1.498e-5
-1.479, 1.496e-5
-1.480, 1.497e-5
-1.481, 1.500e-5
-1.482, 1.498e-5
-1.483, 1.496e-5
-1.484, 1.496e-5
-1.485, 1.499e-5
-1.486, 1.504e-5
-1.487, 1.505e-5
-1.488, 1.500e-5
-1.489, 1.502e-5
-1.490, 1.503e-5
-1.491, 1.507e-5
-1.492, 1.504e-5
-1.493, 1.506e-5
-1.494, 1.503e-5
-1.495, 1.506e-5
-1.496, 1.507e-5
-1.497, 1.506e-5
-1.498, 1.505e-5
-1.499, 1.505e-5
-1.500, 1.508e-5
-1.501, 1.510e-5
-1.502, 1.512e-5
-1.503, 1.510e-5
-1.504, 1.509e-5
-1.505, 1.509e-5
-1.506, 1.514e-5
-1.507, 1.513e-5
-1.508, 1.510e-5
-1.509, 1.507e-5
-1.510, 1.513e-5
-1.511, 1.517e-5
-1.512, 1.513e-5
-1.513, 1.511e-5
-1.514, 1.513e-5
-1.515, 1.512e-5
-1.516, 1.516e-5
-1.517, 1.517e-5
-1.518, 1.516e-5
-1.519, 1.515e-5
-1.520, 1.517e-5
-1.521, 1.520e-5
-1.522, 1.518e-5
-1.523, 1.516e-5
-1.524, 1.515e-5
-1.525, 1.518e-5
-1.526, 1.522e-5
-1.527, 1.520e-5
-1.528, 1.519e-5
-1.529, 1.515e-5
-1.530, 1.518e-5
-1.531, 1.522e-5
-1.532, 1.520e-5
-1.533, 1.519e-5
-1.534, 1.521e-5
-1.535, 1.521e-5
-1.536, 1.525e-5
-1.537, 1.525e-5
-1.538, 1.522e-5
-1.539, 1.523e-5
-1.540, 1.527e-5
-1.541, 1.531e-5
-1.542, 1.531e-5
-1.543, 1.528e-5
-1.544, 1.528e-5
-1.545, 1.533e-5
-1.546, 1.537e-5
-1.547, 1.535e-5
-1.548, 1.533e-5
-1.549, 1.532e-5
-1.550, 1.537e-5
-1.551, 1.539e-5
-1.552, 1.539e-5
-1.553, 1.537e-5
-1.554, 1.538e-5
-1.555, 1.541e-5
-1.556, 1.543e-5
-1.557, 1.544e-5
-1.558, 1.543e-5
-1.559, 1.539e-5
-1.560, 1.544e-5
-1.561, 1.550e-5
-1.562, 1.547e-5
-1.563, 1.548e-5
-1.564, 1.549e-5
-1.565, 1.552e-5
-1.566, 1.558e-5
-1.567, 1.557e-5
-1.568, 1.554e-5
-1.569, 1.553e-5
-1.570, 1.557e-5
-1.571, 1.563e-5
-1.572, 1.566e-5
-1.573, 1.563e-5
-1.574, 1.563e-5
-1.575, 1.570e-5
-1.576, 1.571e-5
-1.577, 1.574e-5
-1.578, 1.573e-5
-1.579, 1.572e-5
-1.580, 1.580e-5
-1.581, 1.585e-5
-1.582, 1.581e-5
-1.583, 1.584e-5
-1.584, 1.587e-5
-1.585, 1.592e-5
-1.586, 1.596e-5
-1.587, 1.600e-5
-1.588, 1.600e-5
-1.589, 1.603e-5
-1.590, 1.607e-5
-1.591, 1.614e-5
-1.592, 1.616e-5
-1.593, 1.615e-5
-1.594, 1.620e-5
-1.595, 1.625e-5
-1.596, 1.631e-5
-1.597, 1.634e-5
-1.598, 1.637e-5
-1.599, 1.640e-5
-1.600, 1.579e-5
-1.599, 1.527e-5
-1.598, 1.490e-5
-1.597, 1.458e-5
-1.596, 1.435e-5
-1.595, 1.413e-5
-1.594, 1.393e-5
-1.593, 1.372e-5
-1.592, 1.353e-5
-1.591, 1.337e-5
-1.590, 1.323e-5
-1.589, 1.311e-5
-1.588, 1.294e-5
-1.587, 1.277e-5
-1.586, 1.262e-5
-1.585, 1.251e-5
-1.584, 1.242e-5
-1.583, 1.226e-5
-1.582, 1.214e-5
-1.581, 1.202e-5
-1.580, 1.194e-5
-1.579, 1.186e-5
-1.578, 1.174e-5
-1.577, 1.160e-5
-1.576, 1.152e-5
-1.575, 1.144e-5
-1.574, 1.137e-5
-1.573, 1.125e-5
-1.572, 1.116e-5
-1.571, 1.104e-5
-1.570, 1.102e-5
-1.569, 1.094e-5
-1.568, 1.083e-5
-1.567, 1.074e-5
-1.566, 1.065e-5
-1.565, 1.058e-5
-1.564, 1.056e-5
-1.563, 1.046e-5
-1.562, 1.038e-5
-1.561, 1.031e-5
-1.560, 1.023e-5
-1.559, 1.021e-5
-1.558, 1.011e-5
-1.557, 1.004e-5
-1.556, 9.970e-6
-1.555, 9.924e-6
-1.554, 9.885e-6
-1.553, 9.805e-6
-1.552, 9.749e-6
-1.551, 9.676e-6
-1.550, 9.649e-6
-1.549, 9.589e-6
-1.548, 9.534e-6
-1.547, 9.482e-6
-1.546, 9.405e-6
-1.545, 9.357e-6
-1.544, 9.326e-6
-1.543, 9.266e-6
-1.542, 9.223e-6
-1.541, 9.167e-6
-1.540, 9.129e-6
-1.539, 9.103e-6
-1.538, 9.060e-6
-1.537, 8.966e-6
-1.536, 8.930e-6
-1.535, 8.911e-6
-1.534, 8.878e-6
-1.533, 8.828e-6
-1.532, 8.751e-6
-1.531, 8.716e-6
-1.530, 8.701e-6
-1.529, 8.661e-6
-1.528, 8.613e-6
-1.527, 8.543e-6
-1.526, 8.470e-6
-1.525, 8.487e-6
-1.524, 8.473e-6
-1.523, 8.382e-6
-1.522, 8.328e-6
-1.521, 8.333e-6
-1.520, 8.277e-6
-1.519, 8.259e-6
-1.518, 8.213e-6
-1.517, 8.155e-6
-1.516, 8.128e-6
-1.515, 8.130e-6
-1.514, 8.091e-6
-1.513, 8.056e-6
-1.512, 7.993e-6
-1.511, 7.953e-6
-1.510, 7.949e-6
-1.509, 7.901e-6
-1.508, 7.872e-6
-1.507, 7.825e-6
-1.506, 7.790e-6
-1.505, 7.769e-6
-1.504, 7.754e-6
-1.503, 7.708e-6
-1.502, 7.635e-6
-1.501, 7.625e-6
-1.500, 7.639e-6
-1.499, 7.582e-6
-1.498, 7.561e-6
-1.497, 7.504e-6
-1.496, 7.445e-6
-1.495, 7.459e-6
-1.494, 7.443e-6
-1.493, 7.399e-6
-1.492, 7.337e-6
-1.491, 7.310e-6
-1.490, 7.292e-6
-1.489, 7.286e-6
-1.488, 7.228e-6
-1.487, 7.173e-6
-1.486, 7.161e-6
-1.485, 7.148e-6
-1.484, 7.118e-6
-1.483, 7.072e-6
-1.482, 7.042e-6
-1.481, 6.998e-6
-1.480, 7.014e-6
-1.479, 6.992e-6
-1.478, 6.925e-6
-1.477, 6.896e-6
-1.476, 6.865e-6
-1.475, 6.847e-6
-1.474, 6.846e-6
-1.473, 6.805e-6
-1.472, 6.740e-6
-1.471, 6.729e-6
-1.470, 6.719e-6
-1.469, 6.713e-6
-1.468, 6.676e-6
-1.467, 6.646e-6
-1.466, 6.586e-6
-1.465, 6.584e-6
-1.464, 6.561e-6
-1.463, 6.525e-6
-1.462, 6.481e-6
-1.461, 6.440e-6
-1.460, 6.438e-6
-1.459, 6.402e-6
-1.458, 6.366e-6
-1.457, 6.334e-6
-1.456, 6.328e-6
-1.455, 6.285e-6
-1.454, 6.264e-6
-1.453, 6.236e-6
-1.452, 6.172e-6
-1.451, 6.148e-6
-1.450, 6.145e-6
-1.449, 6.135e-6
-1.448, 6.081e-6
-1.447, 6.062e-6
-1.446, 6.002e-6
-1.445, 6.008e-6
-1.444, 6.009e-6
-1.443, 5.934e-6
-1.442, 5.878e-6
-1.441, 5.862e-6
-1.440, 5.890e-6
-1.439, 5.866e-6
-1.438, 5.804e-6
-1.437, 5.735e-6
-1.436, 5.720e-6
-1.435, 5.727e-6
-1.434, 5.689e-6
-1.433, 5.636e-6
-1.432, 5.584e-6
-1.431, 5.569e-6
-1.430, 5.544e-6
-1.429, 5.539e-6
-1.428, 5.460e-6
-1.427, 5.442e-6
-1.426, 5.395e-6
-1.425, 5.390e-6
-1.424, 5.350e-6
-1.423, 5.313e-6
-1.422, 5.277e-6
-1.421, 5.231e-6
-1.420, 5.216e-6
-1.419, 5.208e-6
-1.418, 5.139e-6
-1.417, 5.076e-6
-1.416, 5.054e-6
-1.415, 5.070e-6
-1.414, 5.019e-6
-1.413, 4.957e-6
-1.412, 4.921e-6
-1.411, 4.879e-6
-1.410, 4.880e-6
-1.409, 4.867e-6
-1.408, 4.763e-6
-1.407, 4.750e-6
-1.406, 4.706e-6
-1.405, 4.689e-6
-1.404, 4.661e-6
-1.403, 4.607e-6
-1.402, 4.543e-6
-1.401, 4.526e-6
-1.400, 4.508e-6
-1.399, 4.509e-6
-1.398, 4.408e-6
-1.397, 4.363e-6
-1.396, 4.334e-6
-1.395, 4.315e-6
-1.394, 4.271e-6
-1.393, 4.222e-6
-1.392, 4.177e-6
-1.391, 4.139e-6
-1.390, 4.109e-6
-1.389, 4.078e-6
-1.388, 4.012e-6
-1.387, 3.969e-6
-1.386, 3.934e-6
-1.385, 3.903e-6
-1.384, 3.863e-6
-1.383, 3.794e-6
-1.382, 3.745e-6
-1.381, 3.713e-6
-1.380, 3.691e-6
-1.379, 3.637e-6
-1.378, 3.588e-6
-1.377, 3.531e-6
-1.376, 3.479e-6
-1.375, 3.478e-6
-1.374, 3.418e-6
-1.373, 3.345e-6
-1.372, 3.324e-6
-1.371, 3.277e-6
-1.370, 3.260e-6
-1.369, 3.209e-6
-1.368, 3.160e-6
-1.367, 3.114e-6
-1.366, 3.052e-6
-1.365, 3.021e-6
-1.364, 3.002e-6
-1.363, 2.938e-6
-1.362, 2.867e-6
-1.361, 2.833e-6
-1.360, 2.835e-6
-1.359, 2.758e-6
-1.358, 2.723e-6
-1.357, 2.679e-6
-1.356, 2.598e-6
-1.355, 2.601e-6
-1.354, 2.536e-6
-1.353, 2.479e-6
-1.352, 2.451e-6
-1.351, 2.411e-6
-1.350, 2.380e-6
-1.349, 2.318e-6
-1.348, 2.280e-6
-1.347, 2.230e-6
-1.346, 2.201e-6
-1.345, 2.187e-6
-1.344, 2.120e-6
-1.343, 2.049e-6
-1.342, 2.031e-6
-1.341, 1.993e-6
-1.340, 1.962e-6
-1.339, 1.919e-6
-1.338, 1.869e-6
-1.337, 1.849e-6
-1.336, 1.803e-6
-1.335, 1.769e-6
-1.334, 1.732e-6
-1.333, 1.677e-6
-1.332, 1.629e-6
-1.331, 1.609e-6
-1.330, 1.587e-6
-1.329, 1.522e-6
-1.328, 1.477e-6
-1.327, 1.439e-6
-1.326, 1.399e-6
-1.325, 1.402e-6
-1.324, 1.337e-6
-1.323, 1.309e-6
-1.322, 1.240e-6
-1.321, 1.230e-6
-1.320, 1.223e-6
-1.319, 1.153e-6
-1.318, 1.117e-6
-1.317, 1.080e-6
-1.316, 1.020e-6
-1.315, 1.019e-6
-1.314, 9.982e-7
-1.313, 9.262e-7
-1.312, 9.025e-7
-1.311, 8.808e-7
-1.310, 8.502e-7
-1.309, 8.364e-7
-1.308, 7.605e-7
-1.307, 7.151e-7
-1.306, 6.894e-7
-1.305, 6.628e-7
-1.304, 6.401e-7
-1.303, 5.858e-7
-1.302, 5.414e-7
-1.301, 5.306e-7
-1.300, 5.118e-7
-1.299, 4.655e-7
-1.298, 4.161e-7
-1.297, 3.648e-7
-1.296, 3.382e-7
-1.295, 3.234e-7
-1.294, 3.017e-7
-1.293, 2.336e-7
-1.292, 1.902e-7
-1.291, 1.784e-7
-1.290, 1.448e-7
-1.289, 1.172e-7
-1.288, 7.182e-8
-1.287, -2.171e-9
-1.286, -1.598e-8
-1.285, -2.684e-8
-1.284, -6.334e-8
-1.283, -1.235e-7
-1.282, -1.600e-7
-1.281, -1.798e-7
-1.280, -2.261e-7
-1.279, -2.587e-7
-1.278, -3.080e-7
-1.277, -3.406e-7
-1.276, -3.830e-7
-1.275, -4.008e-7
-1.274, -4.353e-7
-1.273, -4.984e-7
-1.272, -5.478e-7
-1.271, -5.635e-7
-1.270, -5.823e-7
-1.269, -6.070e-7
-1.268, -6.819e-7
-1.267, -7.283e-7
-1.266, -7.421e-7
-1.265, -7.727e-7
-1.264, -8.408e-7
-1.263, -8.714e-7
-1.262, -9.069e-7
-1.261, -9.503e-7
-1.260, -9.730e-7
-1.259, -1.008e-6
-1.258, -1.081e-6
-1.257, -1.124e-6
-1.256, -1.156e-6
-1.255, -1.173e-6
-1.254, -1.205e-6
-1.253, -1.285e-6
-1.252, -1.329e-6
-1.251, -1.359e-6
-1.250, -1.372e-6
-1.249, -1.438e-6
-1.248, -1.497e-6
-1.247, -1.528e-6
-1.246, -1.555e-6
-1.245, -1.592e-6
-1.244, -1.619e-6
-1.243, -1.693e-6
-1.242, -1.737e-6
-1.241, -1.777e-6
-1.240, -1.812e-6
-1.239, -1.851e-6
-1.238, -1.906e-6
-1.237, -1.984e-6
-1.236, -1.977e-6
-1.235, -2.032e-6
-1.234, -2.088e-6
-1.233, -2.135e-6
-1.232, -2.200e-6
-1.231, -2.220e-6
-1.230, -2.252e-6
-1.229, -2.324e-6
-1.228, -2.386e-6
-1.227, -2.439e-6
-1.226, -2.477e-6
-1.225, -2.508e-6
-1.224, -2.575e-6
-1.223, -2.622e-6
-1.222, -2.692e-6
-1.221, -2.733e-6
-1.220, -2.733e-6
-1.219, -2.800e-6
-1.218, -2.864e-6
-1.217, -2.931e-6
-1.216, -2.982e-6
-1.215, -3.019e-6
-1.214, -3.050e-6
-1.213, -3.146e-6
-1.212, -3.203e-6
-1.211, -3.223e-6
-1.210, -3.274e-6
-1.209, -3.305e-6
-1.208, -3.412e-6
-1.207, -3.457e-6
-1.206, -3.516e-6
-1.205, -3.543e-6
-1.204, -3.603e-6
-1.203, -3.687e-6
-1.202, -3.761e-6
-1.201, -3.772e-6
-1.200, -3.840e-6
-1.199, -3.886e-6
-1.198, -3.978e-6
-1.197, -4.058e-6
-1.196, -4.067e-6
-1.195, -4.126e-6
-1.194, -4.216e-6
-1.193, -4.282e-6
-1.192, -4.340e-6
-1.191, -4.414e-6
-1.190, -4.446e-6
-1.189, -4.543e-6
-1.188, -4.613e-6
-1.187, -4.686e-6
-1.186, -4.731e-6
-1.185, -4.779e-6
-1.184, -4.861e-6
-1.183, -4.960e-6
-1.182, -5.022e-6
-1.181, -5.084e-6
-1.180, -5.134e-6
-1.179, -5.217e-6
-1.178, -5.325e-6
-1.177, -5.395e-6
-1.176, -5.451e-6
-1.175, -5.526e-6
-1.174, -5.593e-6
-1.173, -5.698e-6
-1.172, -5.782e-6
-1.171, -5.847e-6
-1.170, -5.919e-6
-1.169, -6.014e-6
-1.168, -6.086e-6
-1.167, -6.200e-6
-1.166, -6.264e-6
-1.165, -6.317e-6
-1.164, -6.441e-6
-1.163, -6.523e-6
-1.162, -6.637e-6
-1.161, -6.730e-6
-1.160, -6.801e-6
-1.159, -6.904e-6
-1.158, -7.018e-6
-1.157, -7.134e-6
-1.156, -7.204e-6
-1.155, -7.266e-6
-1.154, -7.400e-6
-1.153, -7.517e-6
-1.152, -7.626e-6
-1.151, -7.716e-6
-1.150, -7.801e-6
-1.149, -7.913e-6
-1.148, -8.048e-6
-1.147, -8.158e-6
-1.146, -8.267e-6
-1.145, -8.348e-6
-1.144, -8.486e-6
-1.143, -8.615e-6
-1.142, -8.743e-6
-1.141, -8.840e-6
-1.140, -8.948e-6
-1.139, -9.097e-6
-1.138, -9.238e-6
-1.137, -9.356e-6
-1.136, -9.474e-6
-1.135, -9.596e-6
-1.134, -9.743e-6
-1.133, -9.900e-6
-1.132, -1.001e-5
-1.131, -1.016e-5
-1.130, -1.028e-5
-1.129, -1.043e-5
-1.128, -1.058e-5
-1.127, -1.077e-5
-1.126, -1.088e-5
-1.125, -1.101e-5
-1.124, -1.119e-5
-1.123, -1.135e-5
-1.122, -1.151e-5
-1.121, -1.166e-5
-1.120, -1.182e-5
-1.119, -1.199e-5
-1.118, -1.217e-5
-1.117, -1.235e-5
-1.116, -1.251e-5
-1.115, -1.268e-5
-1.114, -1.285e-5
-1.113, -1.307e-5
-1.112, -1.326e-5
-1.111, -1.343e-5
-1.110, -1.359e-5
-1.109, -1.380e-5
-1.108, -1.400e-5
-1.107, -1.421e-5
-1.106, -1.440e-5
-1.105, -1.459e-5
-1.104, -1.479e-5
-1.103, -1.503e-5
-1.102, -1.521e-5
-1.101, -1.543e-5
-1.100, -1.563e-5
-1.099, -1.585e-5
-1.098, -1.607e-5
-1.097, -1.632e-5
-1.096, -1.652e-5
-1.095, -1.671e-5
-1.094, -1.696e-5
-1.093, -1.719e-5
-1.092, -1.739e-5
-1.091, -1.763e-5
-1.090, -1.780e-5
-1.089, -1.803e-5
-1.088, -1.828e-5
-1.087, -1.848e-5
-1.086, -1.867e-5
-1.085, -1.884e-5
-1.084, -1.905e-5
-1.083, -1.925e-5
-1.082, -1.945e-5
-1.081, -1.959e-5
-1.080, -1.972e-5
-1.079, -1.991e-5
-1.078, -2.007e-5
-1.077, -2.019e-5
-1.076, -2.032e-5
-1.075, -2.041e-5
-1.074, -2.051e-5
-1.073, -2.059e-5
-1.072, -2.065e-5
-1.071, -2.070e-5
-1.070, -2.069e-5
-1.069, -2.070e-5
-1.068, -2.074e-5
-1.067, -2.071e-5
-1.066, -2.066e-5
-1.065, -2.058e-5
-1.064, -2.049e-5
-1.063, -2.045e-5
-1.062, -2.032e-5
-1.061, -2.020e-5
-1.060, -2.003e-5
-1.059, -1.988e-5
-1.058, -1.974e-5
-1.057, -1.956e-5
-1.056, -1.936e-5
-1.055, -1.918e-5
-1.054, -1.896e-5
-1.053, -1.876e-5
-1.052, -1.858e-5
-1.051, -1.835e-5
-1.050, -1.811e-5
-1.049, -1.790e-5
-1.048, -1.771e-5
-1.047, -1.753e-5
-1.046, -1.730e-5
-1.045, -1.706e-5
-1.044, -1.692e-5
-1.043, -1.674e-5
-1.042, -1.659e-5
-1.041, -1.642e-5
-1.040, -1.624e-5
-1.039, -1.608e-5
-1.038, -1.600e-5
-1.037, -1.586e-5
-1.036, -1.574e-5
-1.035, -1.564e-5
-1.034, -1.554e-5
-1.033, -1.547e-5
-1.032, -1.540e-5
-1.031, -1.530e-5
-1.030, -1.522e-5
-1.029, -1.518e-5
-1.028, -1.514e-5
-1.027, -1.510e-5
-1.026, -1.503e-5
-1.025, -1.500e-5
-1.024, -1.498e-5
-1.023, -1.497e-5
-1.022, -1.496e-5
-1.021, -1.492e-5
-1.020, -1.488e-5
-1.019, -1.488e-5
-1.018, -1.488e-5
-1.017, -1.488e-5
-1.016, -1.483e-5
-1.015, -1.482e-5
-1.014, -1.482e-5
-1.013, -1.484e-5
-1.012, -1.482e-5
-1.011, -1.480e-5
-1.010, -1.478e-5
-1.009, -1.478e-5
-1.008, -1.481e-5
-1.007, -1.479e-5
-1.006, -1.478e-5
-1.005, -1.477e-5
-1.004, -1.477e-5
-1.003, -1.477e-5
-1.002, -1.480e-5
-1.001, -1.475e-5
-1.000, -1.426e-5
-1.001, -1.362e-5
-1.002, -1.311e-5
-1.003, -1.264e-5
-1.004, -1.218e-5
-1.005, -1.176e-5
-1.006, -1.138e-5
-1.007, -1.103e-5
-1.008, -1.069e-5
-1.009, -1.033e-5
-1.010, -1.003e-5
-1.011, -9.740e-6
-1.012, -9.453e-6
-1.013, -9.182e-6
-1.014, -8.879e-6
-1.015, -8.613e-6
-1.016, -8.407e-6
-1.017, -8.167e-6
-1.018, -7.931e-6
-1.019, -7.695e-6
-1.020, -7.460e-6
-1.021, -7.261e-6
-1.022, -7.064e-6
-1.023, -6.866e-6
-1.024, -6.625e-6
-1.025, -6.412e-6
-1.026, -6.260e-6
-1.027, -6.076e-6
-1.028, -5.904e-6
-1.029, -5.715e-6
-1.030, -5.545e-6
-1.031, -5.389e-6
-1.032, -5.237e-6
-1.033, -5.068e-6
-1.034, -4.898e-6
-1.035, -4.746e-6
-1.036, -4.593e-6
-1.037, -4.449e-6
-1.038, -4.322e-6
-1.039, -4.156e-6
-1.040, -4.005e-6
-1.041, -3.897e-6
-1.042, -3.770e-6
-1.043, -3.644e-6
-1.044, -3.502e-6
-1.045, -3.368e-6
-1.046, -3.257e-6
-1.047, -3.160e-6
-1.048, -3.029e-6
-1.049, -2.878e-6
-1.050, -2.764e-6
-1.051, -2.674e-6
-1.052, -2.564e-6
-1.053, -2.475e-6
-1.054, -2.333e-6
-1.055, -2.218e-6
-1.056, -2.128e-6
-1.057, -2.046e-6
-1.058, -1.918e-6
-1.059, -1.814e-6
-1.060, -1.704e-6
-1.061, -1.626e-6
-1.062, -1.538e-6
-1.063, -1.429e-6
-1.064, -1.314e-6
-1.065, -1.209e-6
-1.066, -1.153e-6
-1.067, -1.067e-6
-1.068, -9.750e-7
-1.069, -8.635e-7
-1.070, -7.668e-7
-1.071, -7.135e-7
-1.072, -6.306e-7
-1.073, -5.507e-7
-1.074, -4.373e-7
-1.075, -3.544e-7
-1.076, -2.824e-7
-1.077, -2.024e-7
-1.078, -1.452e-7
-1.079, -1.697e-8
-1.080, 5.900e-8
-1.081, 9.846e-8
-1.082, 1.784e-7
-1.083, 2.386e-7
-1.084, 3.372e-7
-1.085, 4.418e-7
-1.086, 4.832e-7
-1.087, 5.424e-7
-1.088, 6.223e-7
-1.089, 7.269e-7
-1.090, 7.772e-7
-1.091, 8.581e-7
-1.092, 9.124e-7
-1.093, 9.617e-7
-1.094, 1.065e-6
-1.095, 1.134e-6
-1.096, 1.194e-6
-1.097, 1.240e-6
-1.098, 1.300e-6
-1.099, 1.387e-6
-1.100, 1.466e-6
-1.101, 1.508e-6
-1.102, 1.573e-6
-1.103, 1.637e-6
-1.104, 1.723e-6
-1.105, 1.783e-6
-1.106, 1.826e-6
-1.107, 1.896e-6
-1.108, 1.938e-6
-1.109, 2.022e-6
-1.110, 2.087e-6
-1.111, 2.142e-6
-1.112, 2.168e-6
-1.113, 2.259e-6
-1.114, 2.334e-6
-1.115, 2.373e-6
-1.116, 2.434e-6
-1.117, 2.478e-6
-1.118, 2.533e-6
-1.119, 2.610e-6
-1.120, 2.694e-6
-1.121, 2.717e-6
-1.122, 2.740e-6
-1.123, 2.810e-6
-1.124, 2.905e-6
-1.125, 2.957e-6
-1.126, 2.992e-6
-1.127, 3.026e-6
-1.128, 3.108e-6
-1.129, 3.170e-6
-1.130, 3.202e-6
-1.131, 3.256e-6
-1.132, 3.287e-6
-1.133, 3.343e-6
-1.134, 3.439e-6
-1.135, 3.478e-6
-1.136, 3.517e-6
-1.137, 3.545e-6
-1.138, 3.603e-6
-1.139, 3.664e-6
-1.140, 3.728e-6
-1.141, 3.768e-6
-1.142, 3.792e-6
-1.143, 3.866e-6
-1.144, 3.942e-6
-1.145, 3.954e-6
-1.146, 4.024e-6
-1.147, 4.051e-6
-1.148, 4.109e-6
-1.149, 4.172e-6
-1.150, 4.209e-6
-1.151, 4.239e-6
-1.152, 4.259e-6
-1.153, 4.327e-6
-1.154, 4.395e-6
-1.155, 4.444e-6
-1.156, 4.468e-6
-1.157, 4.498e-6
-1.158, 4.554e-6
-1.159, 4.617e-6
-1.160, 4.642e-6
-1.161, 4.691e-6
-1.162, 4.714e-6
-1.163, 4.753e-6
-1.164, 4.846e-6
-1.165, 4.863e-6
-1.166, 4.910e-6
-1.167, 4.952e-6
-1.168, 4.974e-6
-1.169, 5.053e-6
-1.170, 5.071e-6
-1.171, 5.104e-6
-1.172, 5.139e-6
-1.173, 5.174e-6
-1.174, 5.269e-6
-1.175, 5.276e-6
-1.176, 5.316e-6
-1.177, 5.334e-6
-1.178, 5.385e-6
-1.179, 5.437e-6
-1.180, 5.468e-6
-1.181, 5.496e-6
-1.182, 5.531e-6
-1.183, 5.561e-6
-1.184, 5.627e-6
-1.185, 5.662e-6
-1.186, 5.659e-6
-1.187, 5.687e-6
-1.188, 5.741e-6
-1.189, 5.786e-6
-1.190, 5.829e-6
-1.191, 5.859e-6
-1.192, 5.866e-6
-1.193, 5.903e-6
-1.194, 5.966e-6
-1.195, 5.981e-6
-1.196, 5.986e-6
-1.197, 6.021e-6
-1.198, 6.064e-6
-1.199, 6.125e-6
-1.200, 6.133e-6
-1.201, 6.141e-6
-1.202, 6.190e-6
-1.203, 6.217e-6
-1.204, 6.255e-6
-1.205, 6.296e-6
-1.206, 6.302e-6
-1.207, 6.329e-6
-1.208, 6.356e-6
-1.209, 6.412e-6
-1.210, 6.429e-6
-1.211, 6.429e-6
-1.212, 6.449e-6
-1.213, 6.479e-6
-1.214, 6.531e-6
-1.215, 6.565e-6
-1.216, 6.546e-6
-1.217, 6.577e-6
-1.218, 6.601e-6
-1.219, 6.638e-6
-1.220, 6.653e-6
-1.221, 6.658e-6
-1.222, 6.677e-6
-1.223, 6.707e-6
-1.224, 6.757e-6
-1.225, 6.746e-6
-1.226, 6.771e-6
-1.227, 6.769e-6
-1.228, 6.802e-6
-1.229, 6.877e-6
-1.230, 6.883e-6
-1.231, 6.875e-6
-1.232, 6.886e-6
-1.233, 6.907e-6
-1.234, 6.953e-6
-1.235, 6.962e-6
-1.236, 6.971e-6
-1.237, 6.945e-6
-1.238, 6.991e-6
-1.239, 7.056e-6
-1.240, 7.040e-6
-1.241, 7.033e-6
-1.242, 7.045e-6
-1.243, 7.066e-6
-1.244, 7.092e-6
-1.245, 7.112e-6
-1.246, 7.106e-6
-1.247, 7.108e-6
-1.248, 7.150e-6
-1.249, 7.171e-6
-1.250, 7.161e-6
-1.251, 7.151e-6
-1.252, 7.169e-6
-1.253, 7.195e-6
-1.254, 7.226e-6
-1.255, 7.220e-6
-1.256, 7.235e-6
-1.257, 7.227e-6
-1.258, 7.242e-6
-1.259, 7.269e-6
-1.260, 7.275e-6
-1.261, 7.263e-6
-1.262, 7.291e-6
-1.263, 7.309e-6
-1.264, 7.295e-6
-1.265, 7.315e-6
-1.266, 7.299e-6
-1.267, 7.317e-6
-1.268, 7.334e-6
-1.269, 7.353e-6
-1.270, 7.346e-6
-1.271, 7.335e-6
-1.272, 7.330e-6
-1.273, 7.345e-6
-1.274, 7.382e-6
-1.275, 7.366e-6
-1.276, 7.360e-6
-1.277, 7.351e-6
-1.278, 7.370e-6
-1.279, 7.391e-6
-1.280, 7.411e-6
-1.281, 7.375e-6
-1.282, 7.362e-6
-1.283, 7.389e-6
-1.284, 7.417e-6
-1.285, 7.407e-6
-1.286, 7.395e-6
-1.287, 7.389e-6
-1.288, 7.413e-6
-1.289, 7.425e-6
-1.290, 7.401e-6
-1.291, 7.405e-6
-1.292, 7.382e-6
-1.293, 7.425e-6
-1.294, 7.428e-6
-1.295, 7.414e-6
-1.296, 7.410e-6
-1.297, 7.391e-6
-1.298, 7.406e-6
-1.299, 7.432e-6
-1.300, 7.424e-6
-1.301, 7.400e-6
-1.302, 7.397e-6
-1.303, 7.397e-6
-1.304, 7.431e-6
-1.305, 7.428e-6
-1.306, 7.399e-6
-1.307, 7.410e-6
-1.308, 7.442e-6
-1.309, 7.426e-6
-1.310, 7.423e-6
-1.311, 7.426e-6
-1.312, 7.392e-6
-1.313, 7.425e-6
-1.314, 7.441e-6
-1.315, 7.409e-6
-1.316, 7.391e-6
-1.317, 7.400e-6
-1.318, 7.427e-6
-1.319, 7.422e-6
-1.320, 7.439e-6
-1.321, 7.416e-6
-1.322, 7.391e-6
-1.323, 7.404e-6
-1.324, 7.431e-6
-1.325, 7.427e-6
-1.326, 7.399e-6
-1.327, 7.407e-6
-1.328, 7.412e-6
-1.329, 7.435e-6
-1.330, 7.399e-6
-1.331, 7.380e-6
-1.332, 7.438e-6
-1.333, 7.418e-6
-1.334, 7.445e-6
-1.335, 7.420e-6
-1.336, 7.388e-6
-1.337, 7.411e-6
-1.338, 7.422e-6
-1.339, 7.417e-6
-1.340, 7.442e-6
-1.341, 7.412e-6
-1.342, 7.406e-6
-1.343, 7.410e-6
-1.344, 7.445e-6
-1.345, 7.438e-6
-1.346, 7.414e-6
-1.347, 7.415e-6
-1.348, 7.442e-6
-1.349, 7.450e-6
-1.350, 7.428e-6
-1.351, 7.426e-6
-1.352, 7.419e-6
-1.353, 7.458e-6
-1.354, 7.443e-6
-1.355, 7.438e-6
-1.356, 7.440e-6
-1.357, 7.449e-6
-1.358, 7.471e-6
-1.359, 7.479e-6
-1.360, 7.473e-6
-1.361, 7.465e-6
-1.362, 7.464e-6
-1.363, 7.465e-6
-1.364, 7.510e-6
-1.365, 7.499e-6
-1.366, 7.476e-6
-1.367, 7.494e-6
-1.368, 7.497e-6
-1.369, 7.526e-6
-1.370, 7.530e-6
-1.371, 7.531e-6
-1.372, 7.523e-6
-1.373, 7.546e-6
-1.374, 7.552e-6
-1.375, 7.553e-6
-1.376, 7.542e-6
-1.377, 7.528e-6
-1.378, 7.592e-6
-1.379, 7.588e-6
-1.380, 7.562e-6
-1.381, 7.571e-6
-1.382, 7.578e-6
-1.383, 7.626e-6
-1.384, 7.616e-6
-1.385, 7.621e-6
-1.386, 7.621e-6
-1.387, 7.602e-6
-1.388, 7.654e-6
-1.389, 7.665e-6
-1.390, 7.634e-6
-1.391, 7.644e-6
-1.392, 7.657e-6
-1.393, 7.684e-6
-1.394, 7.688e-6
-1.395, 7.683e-6
-1.396, 7.690e-6
-1.397, 7.676e-6
-1.398, 7.695e-6
-1.399, 7.719e-6
-1.400, 7.733e-6
-1.401, 7.699e-6
-1.402, 7.716e-6
-1.403, 7.741e-6
-1.404, 7.747e-6
-1.405, 7.756e-6
-1.406, 7.748e-6
-1.407, 7.733e-6
-1.408, 7.791e-6
-1.409, 7.814e-6
-1.410, 7.768e-6
-1.411, 7.784e-6
-1.412, 7.785e-6
-1.413, 7.816e-6
-1.414, 7.811e-6
-1.415, 7.810e-6
-1.416, 7.785e-6
-1.417, 7.791e-6
-1.418, 7.828e-6
-1.419, 7.841e-6
-1.420, 7.822e-6
-1.421, 7.836e-6
-1.422, 7.839e-6
-1.423, 7.857e-6
-1.424, 7.870e-6
-1.425, 7.836e-6
-1.426, 7.855e-6
-1.427, 7.842e-6
-1.428, 7.878e-6
-1.429, 7.872e-6
-1.430, 7.875e-6
-1.431, 7.858e-6
-1.432, 7.885e-6
-1.433, 7.894e-6
-1.434, 7.902e-6
-1.435, 7.899e-6
-1.436, 7.860e-6
-1.437, 7.878e-6
-1.438, 7.912e-6
-1.439, 7.924e-6
-1.440, 7.902e-6
-1.441, 7.887e-6
-1.442, 7.908e-6
-1.443, 7.923e-6
-1.444, 7.958e-6
-1.445, 7.915e-6
-1.446, 7.914e-6
-1.447, 7.936e-6
-1.448, 7.943e-6
-1.449, 7.963e-6
-1.450, 7.935e-6
-1.451, 7.936e-6
-1.452, 7.952e-6
-1.453, 7.988e-6
-1.454, 7.979e-6
-1.455, 7.968e-6
-1.456, 7.972e-6
-1.457, 7.971e-6
-1.458, 7.990e-6
-1.459, 8.015e-6
-1.460, 8.001e-6
-1.461, 7.988e-6
-1.462, 8.000e-6
-1.463, 8.047e-6
-1.464, 8.025e-6
-1.465, 8.007e-6
-1.466, 7.992e-6
-1.467, 8.024e-6
-1.468, 8.057e-6
-1.469, 8.048e-6
-1.470, 8.027e-6
-1.471, 8.045e-6
-1.472, 8.046e-6
-1.473, 8.093e-6
-1.474, 8.071e-6
-1.475, 8.076e-6
-1.476, 8.057e-6
-1.477, 8.067e-6
-1.478, 8.100e-6
-1.479, 8.129e-6
-1.480, 8.109e-6
-1.481, 8.084e-6
-1.482, 8.127e-6
-1.483, 8.130e-6
-1.484, 8.137e-6
-1.485, 8.126e-6
-1.486, 8.146e-6
-1.487, 8.139e-6
-1.488, 8.186e-6
-1.489, 8.166e-6
-1.490, 8.181e-6
-1.491, 8.153e-6
-1.492, 8.162e-6
-1.493, 8.197e-6
-1.494, 8.201e-6
-1.495, 8.203e-6
-1.496, 8.174e-6
-1.497, 8.209e-6
-1.498, 8.250e-6
-1.499, 8.250e-6
-1.500, 8.232e-6
-1.501, 8.229e-6
-1.502, 8.242e-6
-1.503, 8.296e-6
-1.504, 8.271e-6
-1.505, 8.286e-6
-1.506, 8.276e-6
-1.507, 8.274e-6
-1.508, 8.333e-6
-1.509, 8.324e-6
-1.510, 8.323e-6
-1.511, 8.312e-6
-1.512, 8.338e-6
-1.513, 8.363e-6
-1.514, 8.369e-6
-1.515, 8.358e-6
-1.516, 8.349e-6
-1.517, 8.381e-6
-1.518, 8.413e-6
-1.519, 8.417e-6
-1.520, 8.408e-6
-1.521, 8.404e-6
-1.522, 8.412e-6
-1.523, 8.469e-6
-1.524, 8.485e-6
-1.525, 8.486e-6
-1.526, 8.470e-6
-1.527, 8.528e-6
-1.528, 8.528e-6
-1.529, 8.556e-6
-1.530, 8.541e-6
-1.531, 8.545e-6
-1.532, 8.559e-6
-1.533, 8.609e-6
-1.534, 8.606e-6
-1.535, 8.608e-6
-1.536, 8.613e-6
-1.537, 8.628e-6
-1.538, 8.709e-6
-1.539, 8.724e-6
-1.540, 8.675e-6
-1.541, 8.695e-6
-1.542, 8.729e-6
-1.543, 8.750e-6
-1.544, 8.793e-6
-1.545, 8.787e-6
-1.546, 8.808e-6
-1.547, 8.818e-6
-1.548, 8.865e-6
-1.549, 8.884e-6
-1.550, 8.908e-6
-1.551, 8.922e-6
-1.552, 8.916e-6
-1.553, 8.958e-6
-1.554, 8.983e-6
-1.555, 8.985e-6
-1.556, 8.992e-6
-1.557, 9.030e-6
-1.558, 9.086e-6
-1.559, 9.116e-6
-1.560, 9.113e-6
-1.561, 9.119e-6
-1.562, 9.171e-6
-1.563, 9.196e-6
-1.564, 9.218e-6
-1.565, 9.227e-6
-1.566, 9.242e-6
-1.567, 9.262e-6
-1.568, 9.345e-6
-1.569, 9.370e-6
-1.570, 9.369e-6
-1.571, 9.386e-6
-1.572, 9.429e-6
-1.573, 9.482e-6
-1.574, 9.520e-6
-1.575, 9.541e-6
-1.576, 9.547e-6
-1.577, 9.615e-6
-1.578, 9.703e-6
-1.579, 9.678e-6
-1.580, 9.686e-6
-1.581, 9.718e-6
-1.582, 9.751e-6
-1.583, 9.844e-6
-1.584, 9.867e-6
-1.585, 9.895e-6
-1.586, 9.900e-6
-1.587, 9.984e-6
-1.588, 1.003e-5
-1.589, 1.008e-5
-1.590, 1.007e-5
-1.591, 1.014e-5
-1.592, 1.017e-5
-1.593, 1.024e-5
-1.594, 1.029e-5
-1.595, 1.030e-5
-1.596, 1.033e-5
-1.597, 1.040e-5
-1.598, 1.048e-5
-1.599, 1.049e-5
-1.600, 9.917e-6
-1.599, 9.422e-6
-1.598, 9.151e-6
-1.597, 9.015e-6
-1.596, 8.797e-6
-1.595, 8.624e-6
-1.594, 8.449e-6
-1.593, 8.349e-6
-1.592, 8.282e-6
-1.591, 8.123e-6
-1.590, 7.975e-6
-1.589, 7.881e-6
-1.588, 7.786e-6
-1.587, 7.697e-6
-1.586, 7.611e-6
-1.585, 7.487e-6
-1.584, 7.379e-6
-1.583, 7.333e-6
-1.582, 7.299e-6
-1.581, 7.183e-6
-1.580, 7.093e-6
-1.579, 6.993e-6
-1.578, 6.965e-6
-1.577, 6.904e-6
-1.576, 6.831e-6
-1.575, 6.716e-6
-1.574, 6.661e-6
-1.573, 6.637e-6
-1.572, 6.596e-6
-1.571, 6.490e-6
-1.570, 6.410e-6
-1.569, 6.361e-6
-1.568, 6.333e-6
-1.567, 6.278e-6
-1.566, 6.214e-6
-1.565, 6.131e-6
-1.564, 6.095e-6
-1.563, 6.041e-6
-1.562, 6.013e-6
-1.561, 5.961e-6
-1.560, 5.893e-6
-1.559, 5.845e-6
-1.558, 5.801e-6
-1.557, 5.780e-6
-1.556, 5.725e-6
-1.555, 5.656e-6
-1.554, 5.613e-6
-1.553, 5.588e-6
-1.552, 5.560e-6
-1.551, 5.500e-6
-1.550, 5.462e-6
-1.549, 5.393e-6
-1.548, 5.365e-6
-1.547, 5.361e-6
-1.546, 5.311e-6
-1.545, 5.248e-6
-1.544, 5.218e-6
-1.543, 5.197e-6
-1.542, 5.180e-6
-1.541, 5.108e-6
-1.540, 5.055e-6
-1.539, 5.034e-6
-1.538, 5.010e-6
-1.537, 4.989e-6
-1.536, 4.976e-6
-1.535, 4.897e-6
-1.534, 4.878e-6
-1.533, 4.868e-6
-1.532, 4.821e-6
-1.531, 4.801e-6
-1.530, 4.744e-6
-1.529, 4.692e-6
-1.528, 4.707e-6
-1.527, 4.688e-6
-1.526, 4.625e-6
-1.525, 4.610e-6
-1.524, 4.578e-6
-1.523, 4.565e-6
-1.522, 4.532e-6
-1.521, 4.513e-6
-1.520, 4.455e-6
-1.519, 4.432e-6
-1.518, 4.419e-6
-1.517, 4.395e-6
-1.516, 4.385e-6
-1.515, 4.333e-6
-1.514, 4.306e-6
-1.513, 4.300e-6
-1.512, 4.315e-6
-1.511, 4.230e-6
-1.510, 4.200e-6
-1.509, 4.179e-6
-1.508, 4.166e-6
-1.507, 4.156e-6
-1.506, 4.122e-6
-1.505, 4.090e-6
-1.504, 4.070e-6
-1.503, 4.070e-6
-1.502, 4.058e-6
-1.501, 4.030e-6
-1.500, 3.984e-6
-1.499, 3.952e-6
-1.498, 3.981e-6
-1.497, 3.935e-6
-1.496, 3.918e-6
-1.495, 3.864e-6
-1.494, 3.850e-6
-1.493, 3.878e-6
-1.492, 3.851e-6
-1.491, 3.765e-6
-1.490, 3.769e-6
-1.489, 3.755e-6
-1.488, 3.765e-6
-1.487, 3.760e-6
-1.486, 3.723e-6
-1.485, 3.660e-6
-1.484, 3.661e-6
-1.483, 3.654e-6
-1.482, 3.644e-6
-1.481, 3.605e-6
-1.480, 3.603e-6
-1.479, 3.570e-6
-1.478, 3.564e-6
-1.477, 3.559e-6
-1.476, 3.535e-6
-1.475, 3.493e-6
-1.474, 3.494e-6
-1.473, 3.509e-6
-1.472, 3.483e-6
-1.471, 3.433e-6
-1.470, 3.390e-6
-1.469, 3.401e-6
-1.468, 3.403e-6
-1.467, 3.388e-6
-1.466, 3.334e-6
-1.465, 3.328e-6
-1.464, 3.277e-6
-1.463, 3.323e-6
-1.462, 3.324e-6
-1.461, 3.240e-6
-1.460, 3.242e-6
-1.459, 3.200e-6
-1.458, 3.218e-6
-1.457, 3.232e-6
-1.456, 3.168e-6
-1.455, 3.152e-6
-1.454, 3.125e-6
-1.453, 3.153e-6
-1.452, 3.138e-6
-1.451, 3.080e-6
-1.450, 3.085e-6
-1.449, 3.057e-6
-1.448, 3.056e-6
-1.447, 3.042e-6
-1.446, 2.989e-6
-1.445, 2.992e-6
-1.444, 2.975e-6
-1.443, 2.973e-6
-1.442, 2.959e-6
-1.441, 2.942e-6
-1.440, 2.864e-6
-1.439, 2.900e-6
-1.438, 2.900e-6
-1.437, 2.882e-6
-1.436, 2.839e-6
-1.435, 2.815e-6
-1.434, 2.778e-6
-1.433, 2.795e-6
-1.432, 2.792e-6
-1.431, 2.752e-6
-1.430, 2.718e-6
-1.429, 2.712e-6
-1.428, 2.715e-6
-1.427, 2.696e-6
-1.426, 2.653e-6
-1.425, 2.613e-6
-1.424, 2.623e-6
-1.423, 2.613e-6
-1.422, 2.606e-6
-1.421, 2.553e-6
-1.420, 2.555e-6
-1.419, 2.522e-6
-1.418, 2.535e-6
-1.417, 2.515e-6
-1.416, 2.457e-6
-1.415, 2.442e-6
-1.414, 2.426e-6
-1.413, 2.409e-6
-1.412, 2.403e-6
-1.411, 2.376e-6
-1.410, 2.329e-6
-1.409, 2.344e-6
-1.408, 2.317e-6
-1.407, 2.299e-6
-1.406, 2.270e-6
-1.405, 2.253e-6
-1.404, 2.213e-6
-1.403, 2.208e-6
-1.402, 2.205e-6
-1.401, 2.154e-6
-1.400, 2.148e-6
-1.399, 2.113e-6
-1.398, 2.127e-6
-1.397, 2.081e-6
-1.396, 2.057e-6
-1.395, 2.000e-6
-1.394, 2.004e-6
-1.393, 2.003e-6
-1.392, 1.984e-6
-1.391, 1.944e-6
-1.390, 1.891e-6
-1.389, 1.876e-6
-1.388, 1.902e-6
-1.387, 1.873e-6
-1.386, 1.832e-6
-1.385, 1.792e-6
-1.384, 1.760e-6
-1.383, 1.762e-6
-1.382, 1.719e-6
-1.381, 1.689e-6
-1.380, 1.650e-6
-1.379, 1.637e-6
-1.378, 1.658e-6
-1.377, 1.594e-6
-1.376, 1.571e-6
-1.375, 1.542e-6
-1.374, 1.521e-6
-1.373, 1.508e-6
-1.372, 1.463e-6
-1.371, 1.432e-6
-1.370, 1.395e-6
-1.369, 1.407e-6
-1.368, 1.411e-6
-1.367, 1.360e-6
-1.366, 1.327e-6
-1.365, 1.281e-6
-1.364, 1.268e-6
-1.363, 1.242e-6
-1.362, 1.236e-6
-1.361, 1.204e-6
-1.360, 1.145e-6
-1.359, 1.126e-6
-1.358, 1.159e-6
-1.357, 1.106e-6
-1.356, 1.069e-6
-1.355, 1.034e-6
-1.354, 1.013e-6
-1.353, 9.894e-7
-1.352, 9.943e-7
-1.351, 9.469e-7
-1.350, 9.006e-7
-1.349, 8.868e-7
-1.348, 8.927e-7
-1.347, 8.453e-7
-1.346, 8.295e-7
-1.345, 7.782e-7
-1.344, 7.713e-7
-1.343, 7.792e-7
-1.342, 7.171e-7
-1.341, 7.102e-7
-1.340, 6.934e-7
-1.339, 6.529e-7
-1.338, 6.746e-7
-1.337, 6.381e-7
-1.336, 5.839e-7
-1.335, 5.543e-7
-1.334, 5.483e-7
-1.333, 5.454e-7
-1.332, 5.247e-7
-1.331, 4.684e-7
-1.330, 4.339e-7
-1.329, 4.300e-7
-1.328, 4.319e-7
-1.327, 4.004e-7
-1.326, 3.609e-7
-1.325, 3.313e-7
-1.324, 3.224e-7
-1.323, 3.283e-7
-1.322, 2.721e-7
-1.321, 2.613e-7
-1.320, 2.326e-7
-1.319, 2.178e-7
-1.318, 1.873e-7
-1.317, 1.922e-7
-1.316, 1.547e-7
-1.315, 1.083e-7
-1.314, 1.212e-7
-1.313, 1.073e-7
-1.312, 5.998e-8
-1.311, 3.927e-8
-1.310, 1.164e-8
-1.309, 1.066e-8
-1.308, 2.052e-8
-1.307, -2.486e-8
-1.306, -7.321e-8
-1.305, -9.886e-8
-1.304, -1.097e-7
-1.303, -1.393e-7
-1.302, -1.433e-7
-1.301, -1.699e-7
-1.300, -2.113e-7
-1.299, -2.182e-7
-1.298, -2.242e-7
-1.297, -2.656e-7
-1.296, -2.981e-7
-1.295, -3.149e-7
-1.294, -3.485e-7
-1.293, -3.100e-7
-1.292, -3.593e-7
-1.291, -3.919e-7
-1.290, -4.264e-7
-1.289, -4.353e-7
-1.288, -4.353e-7
-1.287, -4.826e-7
-1.286, -5.349e-7
-1.285, -5.586e-7
-1.284, -5.349e-7
-1.283, -5.527e-7
-1.282, -6.070e-7
-1.281, -6.267e-7
-1.280, -6.691e-7
-1.279, -6.632e-7
-1.278, -6.869e-7
-1.277, -7.214e-7
-1.276, -7.697e-7
-1.275, -7.905e-7
-1.274, -8.092e-7
-1.273, -8.003e-7
-1.272, -8.309e-7
-1.271, -8.812e-7
-1.270, -9.246e-7
-1.269, -9.177e-7
-1.268, -9.434e-7
-1.267, -9.720e-7
-1.266, -1.017e-6
-1.265, -1.064e-6
-1.264, -1.052e-6
-1.263, -1.064e-6
-1.262, -1.110e-6
-1.261, -1.143e-6
-1.260, -1.176e-6
-1.259, -1.183e-6
-1.258, -1.213e-6
-1.257, -1.240e-6
-1.256, -1.259e-6
-1.255, -1.320e-6
-1.254, -1.328e-6
-1.253, -1.369e-6
-1.252, -1.377e-6
-1.251, -1.437e-6
-1.250, -1.459e-6
-1.249, -1.482e-6
-1.248, -1.488e-6
-1.247, -1.542e-6
-1.246, -1.572e-6
-1.245, -1.601e-6
-1.244, -1.622e-6
-1.243, -1.627e-6
-1.242, -1.702e-6
-1.241, -1.750e-6
-1.240, -1.736e-6
-1.239, -1.795e-6
-1.238, -1.802e-6
-1.237, -1.838e-6
-1.236, -1.900e-6
-1.235, -1.922e-6
-1.234, -1.921e-6
-1.233, -1.976e-6
-1.232, -1.996e-6
-1.231, -2.056e-6
-1.230, -2.089e-6
-1.229, -2.112e-6
-1.228, -2.138e-6
-1.227, -2.179e-6
-1.226, -2.223e-6
-1.225, -2.284e-6
-1.224, -2.312e-6
-1.223, -2.312e-6
-1.222, -2.366e-6
-1.221, -2.407e-6
-1.220, -2.456e-6
-1.219, -2.457e-6
-1.218, -2.480e-6
-1.217, -2.533e-6
-1.216, -2.586e-6
-1.215, -2.638e-6
-1.214, -2.649e-6
-1.213, -2.670e-6
-1.212, -2.737e-6
-1.211, -2.777e-6
-1.210, -2.824e-6
-1.209, -2.874e-6
-1.208, -2.876e-6
-1.207, -2.925e-6
-1.206, -2.995e-6
-1.205, -3.010e-6
-1.204, -3.053e-6
-1.203, -3.091e-6
-1.202, -3.133e-6
-1.201, -3.186e-6
-1.200, -3.249e-6
-1.199, -3.261e-6
-1.198, -3.304e-6
-1.197, -3.369e-6
-1.196, -3.432e-6
-1.195, -3.465e-6
-1.194, -3.505e-6
-1.193, -3.542e-6
-1.192, -3.572e-6
-1.191, -3.649e-6
-1.190, -3.694e-6
-1.189, -3.733e-6
-1.188, -3.793e-6
-1.187, -3.832e-6
-1.186, -3.888e-6
-1.185, -3.974e-6
-1.184, -4.008e-6
-1.183, -4.011e-6
-1.182, -4.079e-6
-1.181, -4.156e-6
-1.180, -4.247e-6
-1.179, -4.263e-6
-1.178, -4.294e-6
-1.177, -4.380e-6
-1.176, -4.468e-6
-1.175, -4.500e-6
-1.174, -4.549e-6
-1.173, -4.595e-6
-1.172, -4.651e-6
-1.171, -4.754e-6
-1.170, -4.826e-6
-1.169, -4.828e-6
-1.168, -4.901e-6
-1.167, -4.997e-6
-1.166, -5.072e-6
-1.165, -5.137e-6
-1.164, -5.193e-6
-1.163, -5.258e-6
-1.162, -5.303e-6
-1.161, -5.412e-6
-1.160, -5.473e-6
-1.159, -5.528e-6
-1.158, -5.607e-6
-1.157, -5.700e-6
-1.156, -5.796e-6
-1.155, -5.866e-6
-1.154, -5.914e-6
-1.153, -5.980e-6
-1.152, -6.084e-6
-1.151, -6.164e-6
-1.150, -6.257e-6
-1.149, -6.312e-6
-1.148, -6.393e-6
-1.147, -6.502e-6
-1.146, -6.596e-6
-1.145, -6.683e-6
-1.144, -6.759e-6
-1.143, -6.845e-6
-1.142, -6.932e-6
-1.141, -7.057e-6
-1.140, -7.143e-6
-1.139, -7.232e-6
-1.138, -7.321e-6
-1.137, -7.427e-6
-1.136, -7.533e-6
-1.135, -7.648e-6
-1.134, -7.710e-6
-1.133, -7.813e-6
-1.132, -7.941e-6
-1.131, -8.059e-6
-1.130, -8.176e-6
-1.129, -8.286e-6
-1.128, -8.379e-6
-1.127, -8.497e-6
-1.126, -8.651e-6
-1.125, -8.740e-6
-1.124, -8.831e-6
-1.123, -8.974e-6
-1.122, -9.080e-6
-1.121, -9.240e-6
-1.120, -9.364e-6
-1.119, -9.475e-6
-1.118, -9.602e-6
-1.117, -9.740e-6
-1.116, -9.879e-6
-1.115, -1.002e-5
-1.114, -1.016e-5
-1.113, -1.029e-5
-1.112, -1.045e-5
-1.111, -1.059e-5
-1.110, -1.073e-5
-1.109, -1.087e-5
-1.108, -1.099e-5
-1.107, -1.117e-5
-1.106, -1.135e-5
-1.105, -1.151e-5
-1.104, -1.162e-5
-1.103, -1.178e-5
-1.102, -1.193e-5
-1.101, -1.212e-5
-1.100, -1.228e-5
-1.099, -1.243e-5
-1.098, -1.256e-5
-1.097, -1.274e-5
-1.096, -1.291e-5
-1.095, -1.306e-5
-1.094, -1.322e-5
-1.093, -1.335e-5
-1.092, -1.351e-5
-1.091, -1.368e-5
-1.090, -1.381e-5
-1.089, -1.394e-5
-1.088, -1.407e-5
-1.087, -1.420e-5
-1.086, -1.435e-5
-1.085, -1.447e-5
-1.084, -1.456e-5
-1.083, -1.465e-5
-1.082, -1.478e-5
-1.081, -1.488e-5
-1.080, -1.494e-5
-1.079, -1.501e-5
-1.078, -1.505e-5
-1.077, -1.512e-5
-1.076, -1.519e-5
-1.075, -1.520e-5
-1.074, -1.518e-5
-1.073, -1.518e-5
-1.072, -1.520e-5
-1.071, -1.516e-5
-1.070, -1.516e-5
-1.069, -1.508e-5
-1.068, -1.503e-5
-1.067, -1.499e-5
-1.066, -1.490e-5
-1.065, -1.482e-5
-1.064, -1.468e-5
-1.063, -1.458e-5
-1.062, -1.449e-5
-1.061, -1.438e-5
-1.060, -1.426e-5
-1.059, -1.412e-5
-1.058, -1.396e-5
-1.057, -1.385e-5
-1.056, -1.373e-5
-1.055, -1.358e-5
-1.054, -1.346e-5
-1.053, -1.330e-5
-1.052, -1.320e-5
-1.051, -1.308e-5
-1.050, -1.298e-5
-1.049, -1.282e-5
-1.048, -1.271e-5
-1.047, -1.263e-5
-1.046, -1.256e-5
-1.045, -1.244e-5
-1.044, -1.235e-5
-1.043, -1.226e-5
-1.042, -1.224e-5
-1.041, -1.218e-5
-1.040, -1.212e-5
-1.039, -1.203e-5
-1.038, -1.203e-5
-1.037, -1.201e-5
-1.036, -1.198e-5
-1.035, -1.197e-5
-1.034, -1.192e-5
-1.033, -1.190e-5
-1.032, -1.190e-5
-1.031, -1.191e-5
-1.030, -1.190e-5
-1.029, -1.188e-5
-1.028, -1.189e-5
-1.027, -1.192e-5
-1.026, -1.194e-5
-1.025, -1.192e-5
-1.024, -1.193e-5
-1.023, -1.195e-5
-1.022, -1.197e-5
-1.021, -1.200e-5
-1.020, -1.200e-5
-1.019, -1.200e-5
-1.018, -1.203e-5
-1.017, -1.204e-5
-1.016, -1.207e-5
-1.015, -1.209e-5
-1.014, -1.205e-5
-1.013, -1.208e-5
-1.012, -1.212e-5
-1.011, -1.216e-5
-1.010, -1.216e-5
-1.009, -1.216e-5
-1.008, -1.219e-5
-1.007, -1.220e-5
-1.006, -1.226e-5
-1.005, -1.224e-5
-1.004, -1.226e-5
-1.003, -1.228e-5
-1.002, -1.228e-5
-1.001, -1.232e-5
-1.000, -1.189e-5
-1.001, -1.133e-5
-1.002, -1.090e-5
-1.003, -1.051e-5
-1.004, -1.017e-5
-1.005, -9.827e-6
-1.006, -9.484e-6
-1.007, -9.191e-6
-1.008, -8.954e-6
-1.009, -8.689e-6
-1.010, -8.421e-6
-1.011, -8.178e-6
-1.012, -7.940e-6
-1.013, -7.748e-6
-1.014, -7.544e-6
-1.015, -7.303e-6
-1.016, -7.095e-6
-1.017, -6.906e-6
-1.018, -6.717e-6
-1.019, -6.555e-6
-1.020, -6.384e-6
-1.021, -6.193e-6
-1.022, -6.017e-6
-1.023, -5.890e-6
-1.024, -5.723e-6
-1.025, -5.553e-6
-1.026, -5.394e-6
-1.027, -5.251e-6
-1.028, -5.130e-6
-1.029, -4.987e-6
-1.030, -4.853e-6
-1.031, -4.689e-6
-1.032, -4.563e-6
-1.033, -4.464e-6
-1.034, -4.358e-6
-1.035, -4.209e-6
-1.036, -4.060e-6
-1.037, -3.964e-6
-1.038, -3.868e-6
-1.039, -3.735e-6
-1.040, -3.640e-6
-1.041, -3.513e-6
-1.042, -3.394e-6
-1.043, -3.310e-6
-1.044, -3.200e-6
-1.045, -3.101e-6
-1.046, -2.983e-6
-1.047, -2.887e-6
-1.048, -2.791e-6
-1.049, -2.729e-6
-1.050, -2.609e-6
-1.051, -2.504e-6
-1.052, -2.438e-6
-1.053, -2.340e-6
-1.054, -2.264e-6
-1.055, -2.174e-6
-1.056, -2.064e-6
-1.057, -1.976e-6
-1.058, -1.905e-6
-1.059, -1.838e-6
-1.060, -1.749e-6
-1.061, -1.658e-6
-1.062, -1.571e-6
-1.063, -1.499e-6
-1.064, -1.448e-6
-1.065, -1.376e-6
-1.066, -1.240e-6
-1.067, -1.208e-6
-1.068, -1.149e-6
-1.069, -1.064e-6
-1.070, -9.976e-7
-1.071, -8.871e-7
-1.072, -8.270e-7
-1.073, -7.865e-7
-1.074, -7.204e-7
-1.075, -6.296e-7
-1.076, -5.626e-7
-1.077, -4.787e-7
-1.078, -4.175e-7
-1.079, -3.958e-7
-1.080, -2.972e-7
-1.081, -2.311e-7
-1.082, -1.798e-7
-1.083, -1.294e-7
-1.084, -7.123e-8
-1.085, -2.171e-9
-1.086, 7.676e-8
-1.087, 1.142e-7
-1.088, 1.754e-7
-1.089, 2.534e-7
-1.090, 3.066e-7
-1.091, 3.540e-7
-1.092, 4.309e-7
-1.093, 4.744e-7
-1.094, 5.020e-7
-1.095, 5.770e-7
-1.096, 6.470e-7
-1.097, 7.013e-7
-1.098, 7.240e-7
-1.099, 7.861e-7
-1.100, 8.552e-7
-1.101, 9.035e-7
-1.102, 9.637e-7
-1.103, 1.001e-6
-1.104, 1.034e-6
-1.105, 1.109e-6
-1.106, 1.169e-6
-1.107, 1.222e-6
-1.108, 1.248e-6
-1.109, 1.287e-6
-1.110, 1.357e-6
-1.111, 1.425e-6
-1.112, 1.457e-6
-1.113, 1.490e-6
-1.114, 1.518e-6
-1.115, 1.594e-6
-1.116, 1.674e-6
-1.117, 1.701e-6
-1.118, 1.727e-6
-1.119, 1.754e-6
-1.120, 1.822e-6
-1.121, 1.886e-6
-1.122, 1.905e-6
-1.123, 1.950e-6
-1.124, 2.001e-6
-1.125, 2.051e-6
-1.126, 2.101e-6
-1.127, 2.152e-6
-1.128, 2.165e-6
-1.129, 2.189e-6
-1.130, 2.258e-6
-1.131, 2.306e-6
-1.132, 2.340e-6
-1.133, 2.387e-6
-1.134, 2.420e-6
-1.135, 2.468e-6
-1.136, 2.518e-6
-1.137, 2.555e-6
-1.138, 2.560e-6
-1.139, 2.613e-6
-1.140, 2.669e-6
-1.141, 2.709e-6
-1.142, 2.748e-6
-1.143, 2.771e-6
-1.144, 2.797e-6
-1.145, 2.856e-6
-1.146, 2.903e-6
-1.147, 2.912e-6
-1.148, 2.963e-6
-1.149, 2.982e-6
-1.150, 3.037e-6
-1.151, 3.088e-6
-1.152, 3.102e-6
-1.153, 3.116e-6
-1.154, 3.187e-6
-1.155, 3.204e-6
-1.156, 3.260e-6
-1.157, 3.287e-6
-1.158, 3.306e-6
-1.159, 3.338e-6
-1.160, 3.380e-6
-1.161, 3.422e-6
-1.162, 3.466e-6
-1.163, 3.467e-6
-1.164, 3.499e-6
-1.165, 3.555e-6
-1.166, 3.612e-6
-1.167, 3.628e-6
-1.168, 3.629e-6
-1.169, 3.675e-6
-1.170, 3.702e-6
-1.171, 3.755e-6
-1.172, 3.767e-6
-1.173, 3.781e-6
-1.174, 3.812e-6
-1.175, 3.850e-6
-1.176, 3.862e-6
-1.177, 3.935e-6
-1.178, 3.947e-6
-1.179, 3.952e-6
-1.180, 4.001e-6
-1.181, 4.033e-6
-1.182, 4.055e-6
-1.183, 4.087e-6
-1.184, 4.111e-6
-1.185, 4.140e-6
-1.186, 4.180e-6
-1.187, 4.201e-6
-1.188, 4.194e-6
-1.189, 4.245e-6
-1.190, 4.269e-6
-1.191, 4.326e-6
-1.192, 4.322e-6
-1.193, 4.334e-6
-1.194, 4.359e-6
-1.195, 4.400e-6
-1.196, 4.418e-6
-1.197, 4.443e-6
-1.198, 4.452e-6
-1.199, 4.479e-6
-1.200, 4.509e-6
-1.201, 4.532e-6
-1.202, 4.564e-6
-1.203, 4.562e-6
-1.204, 4.591e-6
-1.205, 4.645e-6
-1.206, 4.658e-6
-1.207, 4.679e-6
-1.208, 4.696e-6
-1.209, 4.697e-6
-1.210, 4.726e-6
-1.211, 4.774e-6
-1.212, 4.763e-6
-1.213, 4.769e-6
-1.214, 4.785e-6
-1.215, 4.824e-6
-1.216, 4.853e-6
-1.217, 4.859e-6
-1.218, 4.874e-6
-1.219, 4.884e-6
-1.220, 4.891e-6
-1.221, 4.947e-6
-1.222, 4.956e-6
-1.223, 4.953e-6
-1.224, 4.973e-6
-1.225, 5.005e-6
-1.226, 5.027e-6
-1.227, 5.021e-6
-1.228, 5.044e-6
-1.229, 5.073e-6
-1.230, 5.091e-6
-1.231, 5.100e-6
-1.232, 5.122e-6
-1.233, 5.119e-6
-1.234, 5.137e-6
-1.235, 5.189e-6
-1.236, 5.167e-6
-1.237, 5.173e-6
-1.238, 5.205e-6
-1.239, 5.205e-6
-1.240, 5.229e-6
-1.241, 5.259e-6
-1.242, 5.253e-6
-1.243, 5.257e-6
-1.244, 5.275e-6
-1.245, 5.299e-6
-1.246, 5.347e-6
-1.247, 5.301e-6
-1.248, 5.327e-6
-1.249, 5.304e-6
-1.250, 5.350e-6
-1.251, 5.363e-6
-1.252, 5.367e-6
-1.253, 5.376e-6
-1.254, 5.369e-6
-1.255, 5.407e-6
-1.256, 5.448e-6
-1.257, 5.426e-6
-1.258, 5.436e-6
-1.259, 5.439e-6
-1.260, 5.475e-6
-1.261, 5.471e-6
-1.262, 5.483e-6
-1.263, 5.468e-6
-1.264, 5.472e-6
-1.265, 5.530e-6
-1.266, 5.526e-6
-1.267, 5.522e-6
-1.268, 5.529e-6
-1.269, 5.547e-6
-1.270, 5.536e-6
-1.271, 5.571e-6
-1.272, 5.565e-6
-1.273, 5.550e-6
-1.274, 5.572e-6
-1.275, 5.578e-6
-1.276, 5.601e-6
-1.277, 5.591e-6
-1.278, 5.605e-6
-1.279, 5.577e-6
-1.280, 5.616e-6
-1.281, 5.628e-6
-1.282, 5.619e-6
-1.283, 5.624e-6
-1.284, 5.643e-6
-1.285, 5.652e-6
-1.286, 5.668e-6
-1.287, 5.655e-6
-1.288, 5.640e-6
-1.289, 5.676e-6
-1.290, 5.698e-6
-1.291, 5.692e-6
-1.292, 5.685e-6
-1.293, 5.704e-6
-1.294, 5.669e-6
-1.295, 5.715e-6
-1.296, 5.733e-6
-1.297, 5.706e-6
-1.298, 5.711e-6
-1.299, 5.720e-6
-1.300, 5.738e-6
-1.301, 5.729e-6
-1.302, 5.729e-6
-1.303, 5.713e-6
-1.304, 5.738e-6
-1.305, 5.756e-6
-1.306, 5.780e-6
-1.307, 5.757e-6
-1.308, 5.745e-6
-1.309, 5.753e-6
-1.310, 5.784e-6
-1.311, 5.807e-6
-1.312, 5.777e-6
-1.313, 5.756e-6
-1.314, 5.806e-6
-1.315, 5.796e-6
-1.316, 5.801e-6
-1.317, 5.782e-6
-1.318, 5.783e-6
-1.319, 5.804e-6
-1.320, 5.834e-6
-1.321, 5.825e-6
-1.322, 5.808e-6
-1.323, 5.810e-6
-1.324, 5.827e-6
-1.325, 5.842e-6
-1.326, 5.856e-6
-1.327, 5.812e-6
-1.328, 5.822e-6
-1.329, 5.835e-6
-1.330, 5.862e-6
-1.331, 5.856e-6
-1.332, 5.847e-6
-1.333, 5.845e-6
-1.334, 5.839e-6
-1.335, 5.862e-6
-1.336, 5.877e-6
-1.337, 5.885e-6
-1.338, 5.874e-6
-1.339, 5.892e-6
-1.340, 5.916e-6
-1.341, 5.892e-6
-1.342, 5.888e-6
-1.343, 5.870e-6
-1.344, 5.888e-6
-1.345, 5.936e-6
-1.346, 5.929e-6
-1.347, 5.908e-6
-1.348, 5.913e-6
-1.349, 5.912e-6
-1.350, 5.927e-6
-1.351, 5.959e-6
-1.352, 5.922e-6
-1.353, 5.907e-6
-1.354, 5.952e-6
-1.355, 5.983e-6
-1.356, 5.965e-6
-1.357, 5.959e-6
-1.358, 5.950e-6
-1.359, 5.961e-6
-1.360, 5.982e-6
-1.361, 5.979e-6
-1.362, 5.978e-6
-1.363, 5.974e-6
-1.364, 5.982e-6
-1.365, 6.012e-6
-1.366, 5.996e-6
-1.367, 6.005e-6
-1.368, 5.975e-6
-1.369, 5.977e-6
-1.370, 6.040e-6
-1.371, 6.011e-6
-1.372, 5.990e-6
-1.373, 6.005e-6
-1.374, 6.025e-6
-1.375, 6.057e-6
-1.376, 6.037e-6
-1.377, 6.024e-6
-1.378, 6.033e-6
-1.379, 6.035e-6
-1.380, 6.065e-6
-1.381, 6.057e-6
-1.382, 6.047e-6
-1.383, 6.062e-6
-1.384, 6.075e-6
-1.385, 6.071e-6
-1.386, 6.094e-6
-1.387, 6.083e-6
-1.388, 6.076e-6
-1.389, 6.081e-6
-1.390, 6.092e-6
-1.391, 6.123e-6
-1.392, 6.115e-6
-1.393, 6.110e-6
-1.394, 6.099e-6
-1.395, 6.131e-6
-1.396, 6.138e-6
-1.397, 6.117e-6
-1.398, 6.119e-6
-1.399, 6.131e-6
-1.400, 6.135e-6
-1.401, 6.144e-6
-1.402, 6.131e-6
-1.403, 6.157e-6
-1.404, 6.144e-6
-1.405, 6.175e-6
-1.406, 6.183e-6
-1.407, 6.146e-6
-1.408, 6.155e-6
-1.409, 6.166e-6
-1.410, 6.196e-6
-1.411, 6.189e-6
-1.412, 6.166e-6
-1.413, 6.163e-6
-1.414, 6.194e-6
-1.415, 6.205e-6
-1.416, 6.190e-6
-1.417, 6.178e-6
-1.418, 6.214e-6
-1.419, 6.198e-6
-1.420, 6.239e-6
-1.421, 6.247e-6
-1.422, 6.190e-6
-1.423, 6.216e-6
-1.424, 6.212e-6
-1.425, 6.234e-6
-1.426, 6.217e-6
-1.427, 6.229e-6
-1.428, 6.243e-6
-1.429, 6.238e-6
-1.430, 6.250e-6
-1.431, 6.255e-6
-1.432, 6.213e-6
-1.433, 6.232e-6
-1.434, 6.243e-6
-1.435, 6.284e-6
-1.436, 6.289e-6
-1.437, 6.267e-6
-1.438, 6.244e-6
-1.439, 6.266e-6
-1.440, 6.293e-6
-1.441, 6.266e-6
-1.442, 6.270e-6
-1.443, 6.265e-6
-1.444, 6.265e-6
-1.445, 6.313e-6
-1.446, 6.313e-6
-1.447, 6.278e-6
-1.448, 6.269e-6
-1.449, 6.306e-6
-1.450, 6.309e-6
-1.451, 6.298e-6
-1.452, 6.315e-6
-1.453, 6.281e-6
-1.454, 6.314e-6
-1.455, 6.363e-6
-1.456, 6.310e-6
-1.457, 6.300e-6
-1.458, 6.319e-6
-1.459, 6.329e-6
-1.460, 6.347e-6
-1.461, 6.331e-6
-1.462, 6.335e-6
-1.463, 6.322e-6
-1.464, 6.348e-6
-1.465, 6.364e-6
-1.466, 6.377e-6
-1.467, 6.359e-6
-1.468, 6.355e-6
-1.469, 6.382e-6
-1.470, 6.403e-6
-1.471, 6.399e-6
-1.472, 6.385e-6
-1.473, 6.366e-6
-1.474, 6.411e-6
-1.475, 6.446e-6
-1.476, 6.441e-6
-1.477, 6.406e-6
-1.478, 6.393e-6
-1.479, 6.444e-6
-1.480, 6.462e-6
-1.481, 6.475e-6
-1.482, 6.455e-6
-1.483, 6.425e-6
-1.484, 6.453e-6
-1.485, 6.508e-6
-1.486, 6.486e-6
-1.487, 6.489e-6
-1.488, 6.496e-6
-1.489, 6.494e-6
-1.490, 6.530e-6
-1.491, 6.499e-6
-1.492, 6.494e-6
-1.493, 6.490e-6
-1.494, 6.540e-6
-1.495, 6.549e-6
-1.496, 6.542e-6
-1.497, 6.523e-6
-1.498, 6.528e-6
-1.499, 6.565e-6
-1.500, 6.575e-6
-1.501, 6.581e-6
-1.502, 6.553e-6
-1.503, 6.576e-6
-1.504, 6.614e-6
-1.505, 6.613e-6
-1.506, 6.617e-6
-1.507, 6.602e-6
-1.508, 6.579e-6
-1.509, 6.648e-6
-1.510, 6.677e-6
-1.511, 6.646e-6
-1.512, 6.632e-6
-1.513, 6.652e-6
-1.514, 6.684e-6
-1.515, 6.709e-6
-1.516, 6.704e-6
-1.517, 6.697e-6
-1.518, 6.712e-6
-1.519, 6.737e-6
-1.520, 6.754e-6
-1.521, 6.764e-6
-1.522, 6.716e-6
-1.523, 6.776e-6
-1.524, 6.805e-6
-1.525, 6.832e-6
-1.526, 6.812e-6
-1.527, 6.808e-6
-1.528, 6.820e-6
-1.529, 6.848e-6
-1.530, 6.866e-6
-1.531, 6.903e-6
-1.532, 6.858e-6
-1.533, 6.869e-6
-1.534, 6.922e-6
-1.535, 6.937e-6
-1.536, 6.959e-6
-1.537, 6.948e-6
-1.538, 6.963e-6
-1.539, 6.987e-6
-1.540, 7.029e-6
-1.541, 7.032e-6
-1.542, 7.039e-6
-1.543, 7.041e-6
-1.544, 7.080e-6
-1.545, 7.132e-6
-1.546, 7.129e-6
-1.547, 7.126e-6
-1.548, 7.115e-6
-1.549, 7.210e-6
-1.550, 7.228e-6
-1.551, 7.227e-6
-1.552, 7.199e-6
-1.553, 7.234e-6
-1.554, 7.254e-6
-1.555, 7.318e-6
-1.556, 7.305e-6
-1.557, 7.325e-6
-1.558, 7.334e-6
-1.559, 7.382e-6
-1.560, 7.407e-6
-1.561, 7.424e-6
-1.562, 7.429e-6
-1.563, 7.474e-6
-1.564, 7.501e-6
-1.565, 7.534e-6
-1.566, 7.534e-6
-1.567, 7.543e-6
-1.568, 7.571e-6
-1.569, 7.627e-6
-1.570, 7.667e-6
-1.571, 7.673e-6
-1.572, 7.686e-6
-1.573, 7.703e-6
-1.574, 7.774e-6
-1.575, 7.805e-6
-1.576, 7.819e-6
-1.577, 7.827e-6
-1.578, 7.874e-6
-1.579, 7.908e-6
-1.580, 7.946e-6
-1.581, 7.996e-6
-1.582, 7.984e-6
-1.583, 8.017e-6
-1.584, 8.094e-6
-1.585, 8.125e-6
-1.586, 8.128e-6
-1.587, 8.156e-6
-1.588, 8.213e-6
-1.589, 8.265e-6
-1.590, 8.322e-6
-1.591, 8.332e-6
-1.592, 8.345e-6
-1.593, 8.367e-6
-1.594, 8.479e-6
-1.595, 8.514e-6
-1.596, 8.513e-6
-1.597, 8.532e-6
-1.598, 8.582e-6
-1.599, 8.626e-6
-1.600, 8.113e-6
-1.599, 7.640e-6
-1.598, 7.371e-6
-1.597, 7.164e-6
-1.596, 7.059e-6
-1.595, 6.906e-6
-1.594, 6.743e-6
-1.593, 6.638e-6
-1.592, 6.515e-6
-1.591, 6.465e-6
-1.590, 6.352e-6
-1.589, 6.243e-6
-1.588, 6.125e-6
-1.587, 6.033e-6
-1.586, 5.971e-6
-1.585, 5.940e-6
-1.584, 5.844e-6
-1.583, 5.737e-6
-1.582, 5.672e-6
-1.581, 5.621e-6
-1.580, 5.567e-6
-1.579, 5.469e-6
-1.578, 5.412e-6
-1.577, 5.347e-6
-1.576, 5.319e-6
-1.575, 5.278e-6
-1.574, 5.171e-6
-1.573, 5.111e-6
-1.572, 5.051e-6
-1.571, 5.016e-6
-1.570, 4.992e-6
-1.569, 4.920e-6
-1.568, 4.862e-6
-1.567, 4.786e-6
-1.566, 4.784e-6
-1.565, 4.753e-6
-1.564, 4.658e-6
-1.563, 4.615e-6
-1.562, 4.573e-6
-1.561, 4.567e-6
-1.560, 4.521e-6
-1.559, 4.470e-6
-1.558, 4.425e-6
-1.557, 4.359e-6
-1.556, 4.360e-6
-1.555, 4.333e-6
-1.554, 4.246e-6
-1.553, 4.190e-6
-1.552, 4.179e-6
-1.551, 4.162e-6
-1.550, 4.130e-6
-1.549, 4.089e-6
-1.548, 4.023e-6
-1.547, 3.988e-6
-1.546, 3.969e-6
-1.545, 3.945e-6
-1.544, 3.900e-6
-1.543, 3.853e-6
-1.542, 3.828e-6
-1.541, 3.829e-6
-1.540, 3.779e-6
-1.539, 3.741e-6
-1.538, 3.699e-6
-1.537, 3.680e-6
-1.536, 3.661e-6
-1.535, 3.625e-6
-1.534, 3.606e-6
-1.533, 3.547e-6
-1.532, 3.542e-6
-1.531, 3.542e-6
-1.530, 3.515e-6
-1.529, 3.440e-6
-1.528, 3.431e-6
-1.527, 3.407e-6
-1.526, 3.409e-6
-1.525, 3.386e-6
-1.524, 3.334e-6
-1.523, 3.270e-6
-1.522, 3.276e-6
-1.521, 3.287e-6
-1.520, 3.280e-6
-1.519, 3.211e-6
-1.518, 3.213e-6
-1.517, 3.171e-6
-1.516, 3.187e-6
-1.515, 3.163e-6
-1.514, 3.131e-6
-1.513, 3.058e-6
-1.512, 3.088e-6
-1.511, 3.089e-6
-1.510, 3.037e-6
-1.509, 3.020e-6
-1.508, 2.992e-6
-1.507, 2.966e-6
-1.506, 2.968e-6
-1.505, 2.958e-6
-1.504, 2.887e-6
-1.503, 2.892e-6
-1.502, 2.872e-6
-1.501, 2.896e-6
-1.500, 2.857e-6
-1.499, 2.819e-6
-1.498, 2.773e-6
-1.497, 2.759e-6
-1.496, 2.793e-6
-1.495, 2.747e-6
-1.494, 2.739e-6
-1.493, 2.723e-6
-1.492, 2.716e-6
-1.491, 2.710e-6
-1.490, 2.683e-6
-1.489, 2.665e-6
-1.488, 2.618e-6
-1.487, 2.624e-6
-1.486, 2.641e-6
-1.485, 2.592e-6
-1.484, 2.570e-6
-1.483, 2.532e-6
-1.482, 2.535e-6
-1.481, 2.547e-6
-1.480, 2.522e-6
-1.479, 2.498e-6
-1.478, 2.445e-6
-1.477, 2.449e-6
-1.476, 2.475e-6
-1.475, 2.451e-6
-1.474, 2.432e-6
-1.473, 2.390e-6
-1.472, 2.402e-6
-1.471, 2.386e-6
-1.470, 2.378e-6
-1.469, 2.340e-6
-1.468, 2.323e-6
-1.467, 2.275e-6
-1.466, 2.306e-6
-1.465, 2.293e-6
-1.464, 2.286e-6
-1.463, 2.236e-6
-1.462, 2.233e-6
-1.461, 2.247e-6
-1.460, 2.239e-6
-1.459, 2.187e-6
-1.458, 2.163e-6
-1.457, 2.143e-6
-1.456, 2.178e-6
-1.455, 2.164e-6
-1.454, 2.118e-6
-1.453, 2.110e-6
-1.452, 2.100e-6
-1.451, 2.101e-6
-1.450, 2.076e-6
-1.449, 2.067e-6
-1.448, 2.035e-6
-1.447, 2.024e-6
-1.446, 2.036e-6
-1.445, 2.020e-6
-1.444, 1.997e-6
-1.443, 1.987e-6
-1.442, 1.942e-6
-1.441, 1.978e-6
-1.440, 1.974e-6
-1.439, 1.931e-6
-1.438, 1.903e-6
-1.437, 1.908e-6
-1.436, 1.906e-6
-1.435, 1.888e-6
-1.434, 1.843e-6
-1.433, 1.816e-6
-1.432, 1.822e-6
-1.431, 1.849e-6
-1.430, 1.811e-6
-1.429, 1.769e-6
-1.428, 1.746e-6
-1.427, 1.740e-6
-1.426, 1.776e-6
-1.425, 1.750e-6
-1.424, 1.708e-6
-1.423, 1.711e-6
-1.422, 1.695e-6
-1.421, 1.722e-6
-1.420, 1.669e-6
-1.419, 1.644e-6
-1.418, 1.615e-6
-1.417, 1.615e-6
-1.416, 1.625e-6
-1.415, 1.586e-6
-1.414, 1.559e-6
-1.413, 1.544e-6
-1.412, 1.528e-6
-1.411, 1.539e-6
-1.410, 1.532e-6
-1.409, 1.489e-6
-1.408, 1.466e-6
-1.407, 1.465e-6
-1.406, 1.469e-6
-1.405, 1.454e-6
-1.404, 1.391e-6
-1.403, 1.383e-6
-1.402, 1.400e-6
-1.401, 1.385e-6
-1.400, 1.364e-6
-1.399, 1.336e-6
-1.398, 1.313e-6
-1.397, 1.314e-6
-1.396, 1.319e-6
-1.395, 1.285e-6
-1.394, 1.240e-6
-1.393, 1.211e-6
-1.392, 1.193e-6
-1.391, 1.204e-6
-1.390, 1.194e-6
-1.389, 1.150e-6
-1.388, 1.132e-6
-1.387, 1.101e-6
-1.386, 1.135e-6
-1.385, 1.111e-6
-1.384, 1.066e-6
-1.383, 1.044e-6
-1.382, 1.052e-6
-1.381, 1.034e-6
-1.380, 1.004e-6
-1.379, 9.657e-7
-1.378, 9.578e-7
-1.377, 9.410e-7
-1.376, 9.499e-7
-1.375, 9.213e-7
-1.374, 8.512e-7
-1.373, 8.424e-7
-1.372, 8.562e-7
-1.371, 8.414e-7
-1.370, 8.256e-7
-1.369, 7.812e-7
-1.368, 7.536e-7
-1.367, 7.634e-7
-1.366, 7.467e-7
-1.365, 7.180e-7
-1.364, 7.042e-7
-1.363, 6.667e-7
-1.362, 6.598e-7
-1.361, 6.638e-7
-1.360, 6.263e-7
-1.359, 5.898e-7
-1.358, 5.799e-7
-1.357, 5.720e-7
-1.356, 5.839e-7
-1.355, 5.355e-7
-1.354, 5.138e-7
-1.353, 4.901e-7
-1.352, 4.773e-7
-1.351, 4.901e-7
-1.350, 4.457e-7
-1.349, 4.181e-7
-1.348, 3.954e-7
-1.347, 3.826e-7
-1.346, 3.727e-7
-1.345, 3.787e-7
-1.344, 3.224e-7
-1.343, 3.106e-7
-1.342, 3.076e-7
-1.341, 3.224e-7
-1.340, 2.800e-7
-1.339, 2.534e-7
-1.338, 2.366e-7
-1.337, 2.198e-7
-1.336, 2.307e-7
-1.335, 2.129e-7
-1.334, 1.803e-7
-1.333, 1.448e-7
-1.332, 1.478e-7
-1.331, 1.290e-7
-1.330, 1.182e-7
-1.329, 7.478e-8
-1.328, 6.985e-8
-1.327, 5.703e-8
-1.326, 6.689e-8
-1.325, 2.545e-8
-1.324, -1.973e-10
-1.323, -1.894e-8
-1.322, -4.144e-9
-1.321, -1.796e-8
-1.320, -4.755e-8
-1.319, -7.715e-8
-1.318, -9.688e-8
-1.317, -9.195e-8
-1.316, -1.038e-7
-1.315, -1.186e-7
-1.314, -1.245e-7
-1.313, -1.679e-7
-1.312, -1.709e-7
-1.311, -1.837e-7
-1.310, -1.857e-7
-1.309, -2.320e-7
-1.308, -2.597e-7
-1.307, -2.557e-7
-1.306, -2.695e-7
-1.305, -2.725e-7
-1.304, -3.139e-7
-1.303, -3.445e-7
-1.302, -3.356e-7
-1.301, -3.366e-7
-1.300, -3.721e-7
-1.299, -3.988e-7
-1.298, -4.096e-7
-1.297, -4.254e-7
-1.296, -4.175e-7
-1.295, -4.560e-7
-1.294, -4.866e-7
-1.293, -4.925e-7
-1.292, -5.191e-7
-1.291, -5.004e-7
-1.290, -5.270e-7
-1.289, -5.675e-7
-1.288, -5.823e-7
-1.287, -5.902e-7
-1.286, -5.793e-7
-1.285, -6.119e-7
-1.284, -6.444e-7
-1.283, -6.780e-7
-1.282, -6.652e-7
-1.281, -6.760e-7
-1.280, -7.155e-7
-1.279, -7.480e-7
-1.278, -7.678e-7
-1.277, -7.737e-7
-1.276, -7.569e-7
-1.275, -8.043e-7
-1.274, -8.240e-7
-1.273, -8.595e-7
-1.272, -8.645e-7
-1.271, -8.605e-7
-1.270, -8.881e-7
-1.269, -9.177e-7
-1.268, -9.365e-7
-1.267, -9.444e-7
-1.266, -9.710e-7
-1.265, -9.957e-7
-1.264, -1.031e-6
-1.263, -1.053e-6
-1.262, -1.056e-6
-1.261, -1.052e-6
-1.260, -1.115e-6
-1.259, -1.124e-6
-1.258, -1.148e-6
-1.257, -1.165e-6
-1.256, -1.170e-6
-1.255, -1.195e-6
-1.254, -1.249e-6
-1.253, -1.245e-6
-1.252, -1.274e-6
-1.251, -1.292e-6
-1.250, -1.300e-6
-1.249, -1.351e-6
-1.248, -1.363e-6
-1.247, -1.412e-6
-1.246, -1.392e-6
-1.245, -1.441e-6
-1.244, -1.446e-6
-1.243, -1.488e-6
-1.242, -1.500e-6
-1.241, -1.501e-6
-1.240, -1.534e-6
-1.239, -1.566e-6
-1.238, -1.617e-6
-1.237, -1.612e-6
-1.236, -1.643e-6
-1.235, -1.683e-6
-1.234, -1.698e-6
-1.233, -1.741e-6
-1.232, -1.753e-6
-1.231, -1.757e-6
-1.230, -1.801e-6
-1.229, -1.862e-6
-1.228, -1.892e-6
-1.227, -1.888e-6
-1.226, -1.925e-6
-1.225, -1.940e-6
-1.224, -1.994e-6
-1.223, -2.003e-6
-1.222, -2.021e-6
-1.221, -2.046e-6
-1.220, -2.098e-6
-1.219, -2.114e-6
-1.218, -2.161e-6
-1.217, -2.170e-6
-1.216, -2.205e-6
-1.215, -2.244e-6
-1.214, -2.289e-6
-1.213, -2.317e-6
-1.212, -2.344e-6
-1.211, -2.360e-6
-1.210, -2.378e-6
-1.209, -2.432e-6
-1.208, -2.483e-6
-1.207, -2.483e-6
-1.206, -2.503e-6
-1.205, -2.572e-6
-1.204, -2.582e-6
-1.203, -2.648e-6
-1.202, -2.673e-6
-1.201, -2.693e-6
-1.200, -2.741e-6
-1.199, -2.782e-6
-1.198, -2.815e-6
-1.197, -2.838e-6
-1.196, -2.872e-6
-1.195, -2.913e-6
-1.194, -2.992e-6
-1.193, -3.020e-6
-1.192, -3.019e-6
-1.191, -3.072e-6
-1.190, -3.117e-6
-1.189, -3.174e-6
-1.188, -3.205e-6
-1.187, -3.217e-6
-1.186, -3.283e-6
-1.185, -3.320e-6
-1.184, -3.375e-6
-1.183, -3.437e-6
-1.182, -3.452e-6
-1.181, -3.475e-6
-1.180, -3.542e-6
-1.179, -3.574e-6
-1.178, -3.643e-6
-1.177, -3.674e-6
-1.176, -3.707e-6
-1.175, -3.763e-6
-1.174, -3.843e-6
-1.173, -3.874e-6
-1.172, -3.915e-6
-1.171, -3.954e-6
-1.170, -4.032e-6
-1.169, -4.088e-6
-1.168, -4.135e-6
-1.167, -4.171e-6
-1.166, -4.216e-6
-1.165, -4.288e-6
-1.164, -4.360e-6
-1.163, -4.406e-6
-1.162, -4.448e-6
-1.161, -4.506e-6
-1.160, -4.563e-6
-1.159, -4.650e-6
-1.158, -4.711e-6
-1.157, -4.740e-6
-1.156, -4.800e-6
-1.155, -4.880e-6
-1.154, -4.961e-6
-1.153, -5.028e-6
-1.152, -5.052e-6
-1.151, -5.100e-6
-1.150, -5.205e-6
-1.149, -5.280e-6
-1.148, -5.348e-6
-1.147, -5.383e-6
-1.146, -5.466e-6
-1.145, -5.564e-6
-1.144, -5.644e-6
-1.143, -5.700e-6
-1.142, -5.768e-6
-1.141, -5.838e-6
-1.140, -5.947e-6
-1.139, -6.021e-6
-1.138, -6.110e-6
-1.137, -6.175e-6
-1.136, -6.237e-6
-1.135, -6.351e-6
-1.134, -6.424e-6
-1.133, -6.500e-6
-1.132, -6.574e-6
-1.131, -6.657e-6
-1.130, -6.756e-6
-1.129, -6.853e-6
-1.128, -6.947e-6
-1.127, -7.021e-6
-1.126, -7.102e-6
-1.125, -7.212e-6
-1.124, -7.334e-6
-1.123, -7.412e-6
-1.122, -7.495e-6
-1.121, -7.571e-6
-1.120, -7.701e-6
-1.119, -7.802e-6
-1.118, -7.902e-6
-1.117, -7.974e-6
-1.116, -8.074e-6
-1.115, -8.202e-6
-1.114, -8.302e-6
-1.113, -8.407e-6
-1.112, -8.513e-6
-1.111, -8.587e-6
-1.110, -8.723e-6
-1.109, -8.829e-6
-1.108, -8.953e-6
-1.107, -9.045e-6
-1.106, -9.130e-6
-1.105, -9.265e-6
-1.104, -9.379e-6
-1.103, -9.508e-6
-1.102, -9.580e-6
-1.101, -9.675e-6
-1.100, -9.809e-6
-1.099, -9.938e-6
-1.098, -1.002e-5
-1.097, -1.012e-5
-1.096, -1.022e-5
-1.095, -1.031e-5
-1.094, -1.042e-5
-1.093, -1.051e-5
-1.092, -1.057e-5
-1.091, -1.067e-5
-1.090, -1.077e-5
-1.089, -1.084e-5
-1.088, -1.093e-5
-1.087, -1.098e-5
-1.086, -1.105e-5
-1.085, -1.109e-5
-1.084, -1.115e-5
-1.083, -1.120e-5
-1.082, -1.120e-5
-1.081, -1.124e-5
-1.080, -1.128e-5
-1.079, -1.129e-5
-1.078, -1.131e-5
-1.077, -1.128e-5
-1.076, -1.126e-5
-1.075, -1.129e-5
-1.074, -1.127e-5
-1.073, -1.123e-5
-1.072, -1.117e-5
-1.071, -1.114e-5
-1.070, -1.111e-5
-1.069, -1.106e-5
-1.068, -1.101e-5
-1.067, -1.092e-5
-1.066, -1.089e-5
-1.065, -1.082e-5
-1.064, -1.076e-5
-1.063, -1.072e-5
-1.062, -1.061e-5
-1.061, -1.054e-5
-1.060, -1.052e-5
-1.059, -1.046e-5
-1.058, -1.037e-5
-1.057, -1.029e-5
-1.056, -1.025e-5
-1.055, -1.020e-5
-1.054, -1.017e-5
-1.053, -1.011e-5
-1.052, -1.006e-5
-1.051, -1.000e-5
-1.050, -9.980e-6
-1.049, -9.983e-6
-1.048, -9.964e-6
-1.047, -9.901e-6
-1.046, -9.913e-6
-1.045, -9.914e-6
-1.044, -9.897e-6
-1.043, -9.872e-6
-1.042, -9.852e-6
-1.041, -9.835e-6
-1.040, -9.853e-6
-1.039, -9.884e-6
-1.038, -9.876e-6
-1.037, -9.870e-6
-1.036, -9.890e-6
-1.035, -9.921e-6
-1.034, -9.933e-6
-1.033, -9.951e-6
-1.032, -9.953e-6
-1.031, -9.964e-6
-1.030, -1.001e-5
-1.029, -1.003e-5
-1.028, -1.005e-5
-1.027, -1.005e-5
-1.026, -1.007e-5
-1.025, -1.010e-5
-1.024, -1.016e-5
-1.023, -1.016e-5
-1.022, -1.017e-5
-1.021, -1.019e-5
-1.020, -1.024e-5
-1.019, -1.028e-5
-1.018, -1.031e-5
-1.017, -1.029e-5
-1.016, -1.033e-5
-1.015, -1.038e-5
-1.014, -1.044e-5
-1.013, -1.042e-5
-1.012, -1.043e-5
-1.011, -1.047e-5
-1.010, -1.049e-5
-1.009, -1.054e-5
-1.008, -1.056e-5
-1.007, -1.057e-5
-1.006, -1.059e-5
-1.005, -1.062e-5
-1.004, -1.064e-5
-1.003, -1.069e-5
-1.002, -1.068e-5
-1.001, -1.070e-5
