Potential V vs RHE, Current mA cm-2
0.013299999999999867,0.0026129717708507226
0.012299999999999978,7.257468968307638e-05
0.011299999999999866,-0.0018391246898245477
0.010299999999999976,-0.0036259050615540887
0.009299999999999864,-0.005063251742216966
0.008299999999999974,-0.006878326339943808
0.007299999999999862,-0.008036974894533274
0.006299999999999972,-0.009195623449122739
0.00529999999999986,-0.010283536438718951
0.0042999999999999705,-0.011525652960000453
0.0032999999999998586,-0.012796063707279256
0.0022999999999999687,-0.013857097182178034
0.0012999999999998568,-0.014882762874580187
0.00029999999999996696,-0.015533530072518101
-0.000700000000000145,-0.01706141827637234
-0.0017000000000000348,-0.01785365660429676
-0.0027000000000001467,-0.018645894932221182
-0.0037000000000000366,-0.01933910346915505
-0.0047000000000001485,-0.020258665814067326
-0.005700000000000038,-0.021164081045980946
-0.00670000000000015,-0.022168526068885124
-0.00770000000000004,-0.02280514615382439
-0.008700000000000152,-0.023342736447773106
-0.009700000000000042,-0.023993503645711022
-0.010700000000000154,-0.025167714024599004
-0.011700000000000044,-0.026172159047503182
-0.012700000000000156,-0.026723896454450544
-0.013700000000000045,-0.02730392808739521
-0.014700000000000157,-0.02782737126834527
-0.015700000000000047,-0.02861960959626969
-0.01670000000000016,-0.02973723152316307
-0.01770000000000005,-0.030274821817111785
-0.01870000000000016,-0.03051532273808884
-0.01970000000000005,-0.03103876591903891
-0.020700000000000163,-0.03177441579496872
-0.021700000000000053,-0.03259494834889044
-0.022700000000000164,-0.03321742132083106
-0.023700000000000054,-0.033740864501781126
-0.024700000000000166,-0.03399551253575683
-0.025700000000000056,-0.03481604508967855
-0.026700000000000168,-0.03589122567757598
-0.027700000000000058,-0.03606099103355979
-0.02870000000000017,-0.03635808040653144
-0.02970000000000006,-0.036881523587481514
-0.03070000000000017,-0.037673761915405925
-0.03170000000000006,-0.03833867622634249
-0.03270000000000017,-0.03880553095529796
-0.03370000000000006,-0.03884797229429391
-0.034700000000000175,-0.039328974136248016
-0.035700000000000065,-0.04019194802916569
-0.03670000000000018,-0.04084271522710361
-0.03770000000000007,-0.04128127573006177
-0.03870000000000018,-0.04143689397304692
-0.03970000000000007,-0.04186130736300644
-0.04070000000000018,-0.042568663012938955
-0.04170000000000007,-0.04337504845386203
-0.04270000000000018,-0.04364384360083638
-0.04370000000000007,-0.04398337431280399
-0.044700000000000184,-0.04416728678178644
-0.045700000000000074,-0.044874642431718965
-0.046700000000000186,-0.04545467406466363
-0.047700000000000076,-0.04582249900262853
-0.04870000000000019,-0.04610544126260154
-0.04970000000000008,-0.04647326620056645
-0.05070000000000019,-0.047237210302493574
-0.05170000000000008,-0.047619182353457135
-0.05270000000000019,-0.04781724193543824
-0.05370000000000008,-0.0483972735683829
-0.05470000000000019,-0.04868021582835592
-0.05570000000000008,-0.04935927725229113
-0.056700000000000195,-0.050094927128220945
-0.057700000000000085,-0.050208104032210155
-0.058700000000000196,-0.050080780015222294
-0.059700000000000086,-0.05085887123014807
-0.0607000000000002,-0.05133987307210218
-0.06170000000000009,-0.0520189344960374
-0.0627000000000002,-0.052231141191017155
-0.06370000000000009,-0.05248578922499286
-0.0647000000000002,-0.05307996797093617
-0.06570000000000009,-0.05349023424789704
-0.0667000000000002,-0.0539287947508552
-0.0677000000000001,-0.05459370906179176
-0.0687000000000002,-0.054438090818806614
-0.0697000000000001,-0.05465029751378637
-0.07070000000000021,-0.05525862337272834
-0.0717000000000001,-0.05610745015264735
-0.07270000000000021,-0.056362098186623064
-0.0737000000000001,-0.05640453952561902
-0.07470000000000021,-0.05678651157658257
-0.0757000000000001,-0.05715433651454749
-0.07670000000000021,-0.0580597517464611
-0.0777000000000001,-0.058215369989446264
-0.07870000000000021,-0.05842757668442602
-0.0797000000000001,-0.05854075358841522
-0.08070000000000022,-0.05920566789935178
-0.0817000000000001,-0.060026200453273504
-0.08270000000000022,-0.05994131777528161
-0.08370000000000011,-0.059955464888280255
-0.08470000000000022,-0.060507202295227616
-0.08570000000000011,-0.06086088012019387
-0.08670000000000022,-0.061624824222121004
-0.08770000000000011,-0.06182288380410209
-0.08870000000000022,-0.062006796273084565
-0.08970000000000011,-0.06244535677604271
-0.09070000000000022,-0.06309612397398062
-0.09170000000000011,-0.06343565468594824
-0.09270000000000023,-0.06369030271992396
-0.09370000000000012,-0.06384592096290911
-0.09470000000000023,-0.06429862857886592
-0.09570000000000012,-0.06500598422879844
-0.09670000000000023,-0.06537380916676334
-0.09770000000000012,-0.0653313678277674
-0.09870000000000023,-0.06551528029674986
-0.09970000000000012,-0.06596798791270667
-0.10070000000000023,-0.06653387243265267
-0.10170000000000012,-0.0669865800486095
-0.10270000000000024,-0.0675524645685555
-0.10370000000000013,-0.06745343477756495
-0.10470000000000024,-0.06811834908850152
-0.10570000000000013,-0.06838714423547587
-0.10670000000000024,-0.06903791143341378
-0.10770000000000013,-0.06923597101539489
-0.10870000000000024,-0.0696603844053544
-0.10970000000000013,-0.0696320901793571
-0.11070000000000024,-0.07008479779531392
-0.11170000000000013,-0.07077800633224779
-0.11270000000000002,-0.07083459478424238
-0.11370000000000013,-0.07113168415721405
-0.11470000000000002,-0.07158439177317086
-0.11570000000000014,-0.07215027629311688
-0.11670000000000003,-0.07270201370006424
-0.11770000000000014,-0.07257468968307638
-0.11870000000000003,-0.0730273972990332
-0.11970000000000014,-0.07359328181897921
-0.12070000000000003,-0.07384792985295491
-0.12170000000000014,-0.07428649035591307
-0.12270000000000003,-0.07472505085887124
-0.12370000000000014,-0.0747957864238645
-0.12470000000000003,-0.0747957864238645
-0.12570000000000014,-0.07595584968975382
-0.12670000000000003,-0.07630952751472009
-0.12770000000000015,-0.07643685153170793
-0.12870000000000004,-0.07686126492166745
-0.12970000000000015,-0.0772149427466337
-0.13070000000000004,-0.07737056098961885
-0.13170000000000015,-0.07821938776953788
-0.13270000000000004,-0.07823353488253654
-0.13370000000000015,-0.07858721270750278
-0.13470000000000004,-0.0787569780634866
-0.13570000000000015,-0.07964824618240157
-0.13670000000000004,-0.07977557019938941
-0.13770000000000016,-0.08010095379835838
-0.13870000000000005,-0.08046877873632328
-0.13970000000000016,-0.08045463162332463
-0.14070000000000005,-0.0811478401602585
-0.14170000000000016,-0.08201081405317617
-0.14270000000000005,-0.08175616601920047
-0.14370000000000016,-0.08218057940915997
-0.14470000000000005,-0.08230790342614784
-0.14570000000000016,-0.0828313466070979
-0.14670000000000005,-0.08360943782202368
-0.14770000000000016,-0.08382164451700343
-0.14870000000000005,-0.08386408585599937
-0.14970000000000017,-0.08413288100297373
-0.15070000000000006,-0.0848260895399076
-0.15170000000000017,-0.08526465004286575
-0.15270000000000006,-0.08554759230283876
-0.15370000000000017,-0.08594371146680099
-0.15470000000000006,-0.08588712301480637
-0.15570000000000017,-0.08663692000373484
-0.15670000000000006,-0.0868491266987146
-0.15770000000000017,-0.0872735400886741
-0.15870000000000006,-0.08724524586267682
-0.15970000000000018,-0.08759892368764308
-0.16070000000000007,-0.08796674862560798
-0.16170000000000018,-0.08882972251852565
-0.16270000000000007,-0.08884386963152431
-0.16370000000000018,-0.0891268118914973
-0.16470000000000007,-0.08952293105545953
-0.16570000000000018,-0.08982002042843118
-0.16670000000000007,-0.09038590494837719
-0.16770000000000018,-0.0905839645303583
-0.16870000000000007,-0.09071128854734616
-0.16970000000000018,-0.09109326059830972
-0.17070000000000007,-0.09157426244026382
-0.17170000000000019,-0.09219673541220444
-0.17270000000000008,-0.09195623449122738
-0.1737000000000002,-0.09205526428221794
-0.17470000000000008,-0.09266359014115991
-0.1757000000000002,-0.09307385641812077
-0.17670000000000008,-0.09358315248607219
-0.1777000000000002,-0.09400756587603168
-0.17870000000000008,-0.09395097742403709
-0.1797000000000002,-0.09407830144102494
-0.18070000000000008,-0.094601744621975
-0.1817000000000002,-0.09505445223793182
-0.18270000000000008,-0.09519592336791832
-0.1837000000000002,-0.09516762914192102
-0.1847000000000001,-0.09540813006289808
-0.1857000000000002,-0.09639842797280361
-0.1867000000000001,-0.09697845960574826
-0.1877000000000002,-0.09656819332878741
-0.1887000000000001,-0.09687942981475771
-0.1897000000000002,-0.09727554897871993
-0.1907000000000001,-0.09775655082067403
-0.1917000000000001,-0.09818096421063353
-0.19269999999999998,-0.09835072956661735
-0.1937000000000001,-0.0981951113236322
-0.19469999999999998,-0.0983082882276214
-0.1957000000000001,-0.09893076119956201
-0.19669999999999999,-0.09948249860650937
-0.1977000000000001,-0.09938346881551882
-0.1987,-0.09969470530148912
-0.1997000000000001,-0.09968055818849049
-0.2007,-0.10003423601345675
-0.2017000000000001,-0.10076988588938657
-0.2027,-0.10057182630740545
-0.2037000000000001,-0.10095379835836901
-0.2047,-0.10115185794035012
-0.2057000000000001,-0.10129332907033663
-0.2067,-0.1017884780252894
-0.2077000000000001,-0.1022128914152489
-0.2087,-0.10185921359028265
-0.2097000000000001,-0.1022411856412462
-0.2107,-0.10276462882219627
-0.2117000000000001,-0.10294854129117871
-0.2127,-0.10275048170919761
-0.2137000000000001,-0.10313245376016117
-0.2147,-0.10330221911614497
-0.2157000000000001,-0.10367004405410989
-0.2167,-0.10410860455706805
-0.21770000000000012,-0.1041793401220613
-0.2187,-0.10422178146105725
-0.21970000000000012,-0.1043491054780451
-0.2207,-0.10487254865899517
-0.22170000000000012,-0.10481596020700056
-0.2227,-0.10536769761394793
-0.22370000000000012,-0.10526866782295738
-0.2247,-0.10531110916195333
-0.22570000000000012,-0.10550916874393444
-0.2267,-0.10608920037687909
-0.22770000000000012,-0.1061174946028764
-0.22870000000000001,-0.1060326119248845
-0.22970000000000013,-0.1060326119248845
-0.23070000000000002,-0.10662679067082782
-0.23170000000000013,-0.10683899736580757
-0.23270000000000002,-0.10705120406078733
-0.23370000000000013,-0.10665508489682511
-0.23470000000000002,-0.10710779251278192
-0.23570000000000013,-0.10715023385177787
-0.23670000000000002,-0.10726341075576709
-0.2376999999999999,-0.10756050012873873
-0.23870000000000002,-0.10747561745074685
-0.2396999999999999,-0.10723511652976979
-0.24070000000000003,-0.10798491351869824
-0.24169999999999991,-0.10811223753568612
-0.24270000000000003,-0.10777270682371849
-0.24369999999999992,-0.10825370866567262
-0.24470000000000003,-0.10812638464868475
-0.24569999999999992,-0.10846591536065237
-0.24670000000000003,-0.10894691720260646
-0.24769999999999992,-0.10886203452461457
-0.24870000000000003,-0.10853665092564563
-0.24969999999999992,-0.10903179988059837
-0.25070000000000003,-0.10920156523658218
-0.2516999999999999,-0.10898935854160242
-0.25270000000000004,-0.10925815368857679
-0.2536999999999999,-0.10921571234958084
-0.25470000000000004,-0.10921571234958084
-0.2556999999999999,-0.1098240382085228
-0.25670000000000004,-0.1099089208865147
-0.25769999999999993,-0.10986647954751874
-0.25870000000000004,-0.10958353728754573
-0.25969999999999993,-0.1097391555305309
-0.26070000000000004,-0.11016356892049041
-0.26169999999999993,-0.11030504005047691
-0.26270000000000004,-0.1103899227284688
-0.26369999999999993,-0.11014942180749175
-0.26470000000000005,-0.11037577561547016
-0.26569999999999994,-0.11030504005047691
-0.26670000000000005,-0.11084263034442562
-0.26769999999999994,-0.11111142549139998
-0.26870000000000005,-0.11071530632743777
-0.26969999999999994,-0.1106162765364472
-0.27070000000000005,-0.11108313126540269
-0.27169999999999994,-0.11138022063837434
-0.27270000000000005,-0.11098410147441214
-0.27369999999999994,-0.11102654281340808
-0.27470000000000006,-0.11099824858741078
-0.27569999999999995,-0.11119630816939187
-0.27670000000000006,-0.11183292825433114
-0.27769999999999995,-0.11142266197737029
-0.27870000000000006,-0.11154998599435814
-0.27969999999999995,-0.11153583888135948
-0.28070000000000006,-0.11177633980233655
-0.28169999999999995,-0.11197439938431765
-0.28270000000000006,-0.11169145712434464
-0.28369999999999995,-0.1117904869153352
-0.28470000000000006,-0.11159242733335409
-0.28569999999999995,-0.1120734291753082
-0.28670000000000007,-0.11227148875728932
-0.28769999999999996,-0.11217245896629877
-0.28870000000000007,-0.11197439938431765
-0.28969999999999996,-0.11196025227131902
-0.29070000000000007,-0.11254028390426365
-0.29169999999999996,-0.11269590214724882
-0.29270000000000007,-0.11242710700027447
-0.29369999999999996,-0.11238466566127853
-0.2947000000000001,-0.11242710700027447
-0.29569999999999996,-0.11276663771224207
-0.2967000000000001,-0.11276663771224207
-0.29769999999999996,-0.11278078482524072
-0.2987000000000001,-0.11279493193823936
-0.29969999999999997,-0.11255443101726233
-0.3007000000000001,-0.11345984624917593
-0.30169999999999997,-0.11329008089319213
-0.3027000000000001,-0.11309202131121103
-0.30369999999999997,-0.11285152039023398
-0.3047000000000001,-0.11313446265020698
-0.30569999999999997,-0.11348814047517325
-0.3067000000000001,-0.1137569356221476
-0.3077,-0.11385596541313814
-0.3087000000000001,-0.11324763955419619
-0.3097,-0.11357302315316514
-0.3107000000000001,-0.1139549952041287
-0.3117,-0.1138418183001395
-0.3127000000000001,-0.11402573076912197
-0.3137,-0.11371449428315164
-0.3147000000000001,-0.11388425963913544
-0.3157,-0.11418134901210711
-0.3167000000000001,-0.11449258549807742
-0.3177,-0.11429452591609632
-0.3187000000000001,-0.11442184993308416
-0.3197,-0.11463405662806392
-0.3207000000000001,-0.11461990951506526
-0.3217,-0.11501602867902748
-0.3227000000000001,-0.11471893930605583
-0.3237,-0.11463405662806392
-0.3247000000000001,-0.11484626332304368
-0.3257,-0.11512920558301669
-0.3267000000000001,-0.11522823537400724
-0.3277,-0.11500188156602882
-0.3287000000000001,-0.11510091135701939
-0.3297,-0.11514335269601533
-0.3307000000000001,-0.11529897093900049
-0.3317,-0.11589314968494381
-0.3327000000000001,-0.11562435453796945
-0.3337,-0.1153555593909951
-0.3347000000000001,-0.1156950901029627
-0.3357,-0.11572338432896
-0.3367000000000001,-0.11614779771891949
-0.3377,-0.11621853328391277
-0.3387000000000001,-0.11580826700695189
-0.3397,-0.11570923721596137
-0.3407000000000001,-0.11617609194491682
-0.3417,-0.11613365060592087
-0.3427000000000001,-0.11619023905791546
-0.3437,-0.11624682750991006
-0.3447000000000001,-0.11643073997889253
-0.3457,-0.11647318131788847
-0.3467000000000001,-0.11695418315984259
-0.3477,-0.11675612357786147
-0.3487000000000001,-0.11645903420488982
-0.3497,-0.11671368223886554
-0.3507000000000001,-0.11684100625585338
-0.3517,-0.11735030232380478
-0.3527000000000001,-0.1171522427418237
-0.3537,-0.11672782935186417
-0.3547000000000001,-0.11692588893384527
-0.3557,-0.11727956675881154
-0.35670000000000013,-0.1172937138718102
-0.3577,-0.11710980140282773
-0.35870000000000013,-0.11720883119381828
-0.3597,-0.11730786098480883
-0.36070000000000013,-0.11787374550475484
-0.3617,-0.1179727752957454
-0.3626999999999999,-0.11733615521080615
-0.3637,-0.11747762634079266
-0.3646999999999999,-0.11750592056678995
-0.3657,-0.11798692240874405
-0.3666999999999999,-0.11798692240874405
-0.3677,-0.11804351086073867
-0.3686999999999999,-0.1176615388097751
-0.36970000000000003,-0.11800106952174272
-0.3706999999999999,-0.11835474734670896
-0.37170000000000003,-0.11848207136369682
-0.3726999999999999,-0.11829815889471437
-0.37370000000000003,-0.11834060023371032
-0.3746999999999999,-0.1181142464257319
-0.37570000000000003,-0.11876501362366983
-0.3766999999999999,-0.11884989630166173
-0.37770000000000004,-0.11851036558969412
-0.3786999999999999,-0.11856695404168872
-0.37970000000000004,-0.11880745496266579
-0.3806999999999999,-0.11900551454464689
-0.38170000000000004,-0.11921772123962665
-0.38269999999999993,-0.11910454433563744
-0.38370000000000004,-0.11876501362366983
-0.38469999999999993,-0.118920631866655
-0.38570000000000004,-0.11944407504760506
-0.38669999999999993,-0.11937333948261179
-0.38770000000000004,-0.11900551454464689
-0.38869999999999993,-0.11899136743164823
-0.38970000000000005,-0.11916113278763205
-0.39069999999999994,-0.11942992793460638
-0.39170000000000005,-0.11975531153357535
-0.39269999999999994,-0.11947236927360234
-0.39370000000000005,-0.11928845680461989
-0.39469999999999994,-0.1193450452566145
-0.39570000000000005,-0.11985434132456589
-0.39669999999999994,-0.11991092977656051
-0.39770000000000005,-0.11993922400255783
-0.39869999999999994,-0.12008069513254432
-0.39970000000000006,-0.1196562817425848
-0.40069999999999995,-0.12008069513254432
-0.40170000000000006,-0.12071731521748358
-0.40269999999999995,-0.11992507688955915
-0.40370000000000006,-0.12030704894052272
-0.40469999999999995,-0.12043437295751057
-0.40570000000000006,-0.12037778450551596
-0.40669999999999995,-0.12068902099148628
-0.40770000000000006,-0.12054754986149978
-0.40869999999999995,-0.1202787547145254
-0.40970000000000006,-0.12054754986149978
-0.41069999999999995,-0.12067487387848763
-0.41170000000000007,-0.12087293346046873
-0.41269999999999996,-0.12070316810448493
-0.41370000000000007,-0.12046266718350787
-0.41469999999999996,-0.12039193161851462
-0.41570000000000007,-0.12085878634747008
-0.41669999999999996,-0.12121246417243635
-0.41770000000000007,-0.12097196325145929
-0.41869999999999996,-0.12077390366947817
-0.4197000000000001,-0.12084463923447143
-0.42069999999999996,-0.1213114939634269
-0.4217000000000001,-0.12142467086741611
-0.42269999999999996,-0.12111343438144578
-0.4237000000000001,-0.12085878634747008
-0.42469999999999997,-0.12097196325145929
-0.4257000000000001,-0.12141052375441745
-0.42669999999999997,-0.12155199488440395
-0.4277000000000001,-0.12100025747745657
-0.42869999999999997,-0.1210851401554485
-0.4297000000000001,-0.12121246417243635
-0.43069999999999997,-0.12173590735338641
-0.4317000000000001,-0.1216510246753945
-0.4327,-0.121509553545408
-0.4337000000000001,-0.12109928726844714
-0.4347,-0.12132564107642556
-0.4357000000000001,-0.12109928726844714
-0.4367,-0.12159443622339991
-0.4377000000000001,-0.12135393530242285
-0.4387,-0.12114172860744309
-0.4397000000000001,-0.1212549055114323
-0.4407,-0.1218773784833729
-0.4417000000000001,-0.12200470250036077
-0.4427,-0.12160858333639855
-0.4437000000000001,-0.12142467086741611
-0.4447,-0.121226611285435
-0.4457000000000001,-0.12191981982236885
-0.4467,-0.12204714383935672
-0.4477000000000001,-0.12133978818942417
-0.4487,-0.12166517178839317
-0.4497000000000001,-0.12153784777140529
-0.4507,-0.12203299672635806
-0.4517000000000001,-0.12200470250036077
-0.4527,-0.12204714383935672
-0.4537000000000001,-0.12169346601439045
-0.4547,-0.12191981982236885
-0.4557000000000001,-0.12213202651734863
-0.4567,-0.12244326300331891
-0.4577000000000001,-0.1219622611613648
-0.4587,-0.12177834869238235
-0.4597000000000001,-0.12214617363034727
-0.4607,-0.12259888124630408
-0.4617000000000001,-0.12257058702030678
-0.4627,-0.12193396693536751
-0.4637000000000001,-0.12214617363034727
-0.4647,-0.12193396693536751
-0.4657000000000001,-0.12251399856831217
-0.4667,-0.12265546969829867
-0.4677000000000001,-0.1221603207433459
-0.4687,-0.12224520342133782
-0.4697000000000001,-0.1223017918733324
-0.4707,-0.1227686466022879
-0.4717000000000001,-0.12248570434231489
-0.4727,-0.12269791103729463
-0.4737000000000001,-0.12247155722931624
-0.4747,-0.12238667455132432
-0.4757000000000001,-0.12315061865325144
-0.4767,-0.12303744174926225
-0.4777000000000001,-0.12271205815029328
-0.4787,-0.12269791103729463
-0.4797000000000001,-0.12257058702030678
-0.4807,-0.12295255907127035
-0.48170000000000013,-0.12315061865325144
-0.4827,-0.12286767639327843
-0.48370000000000013,-0.12266961681129733
-0.4847,-0.12274035237629059
-0.48570000000000013,-0.12298085329726763
