Potential V vs RHE, Current mA cm-2
0.4132999999999999,-0.0031477326421997065
0.4122999999999999,-0.005278287859796452
0.4112999999999999,-0.006019596580925731
0.4102999999999999,-0.006356297870293609
0.4092999999999999,-0.006603872347769991
0.4082999999999999,-0.0067991025071513665
0.4072999999999999,-0.0070297004490293665
0.4062999999999999,-0.0072065393615124975
0.4052999999999999,-0.0073296192446007545
0.4042999999999999,-0.007439966725990228
0.4032999999999999,-0.007529093537881725
0.4022999999999999,-0.007674808801767823
0.4012999999999999,-0.007817694643054193
0.4002999999999999,-0.007872868383748928
0.3992999999999999,-0.007947848082641776
0.3982999999999999,-0.008031316049333813
0.3972999999999999,-0.008116198727325717
0.3962999999999999,-0.00824352274431357
0.3952999999999999,-0.008250596300812893
0.3942999999999999,-0.008284549372009654
0.39329999999999987,-0.008355284937002907
0.39229999999999987,-0.008435923481095214
0.39129999999999987,-0.008546270962484686
0.39029999999999987,-0.008566076920682796
0.38929999999999987,-0.008591541724080368
0.38829999999999987,-0.008645300753475239
0.38729999999999987,-0.008704718628069569
0.38629999999999987,-0.008798089573860664
0.38529999999999986,-0.008832042645057424
0.38429999999999986,-0.00885609273715513
0.38329999999999986,-0.008877313406653107
0.38229999999999986,-0.008957951950745412
0.38129999999999986,-0.009030102227038529
0.38029999999999986,-0.009045664051337044
0.37929999999999986,-0.009051322896536505
0.37829999999999986,-0.009090934812932725
0.37729999999999986,-0.009185720470023683
0.37629999999999986,-0.00923240594291923
0.37529999999999986,-0.009247967767217743
0.37429999999999986,-0.00925221190111734
0.37329999999999985,-0.009311629775711672
0.37229999999999985,-0.009402171298903033
0.37129999999999985,-0.00943753908139966
0.37029999999999985,-0.00944602734919885
0.36929999999999985,-0.009453100905698175
0.36829999999999985,-0.009474321575196152
0.36729999999999985,-0.009567692520987244
0.36629999999999985,-0.009638428085980496
0.36529999999999985,-0.00961720741648252
0.36429999999999985,-0.009651160487679281
0.36329999999999985,-0.009666722311977795
0.36229999999999984,-0.009731799031771586
0.36129999999999984,-0.009782728638566728
0.36029999999999984,-0.009803949308064703
0.35929999999999984,-0.00981668170976349
0.35829999999999984,-0.009820925843663083
0.35729999999999984,-0.009890246697356473
0.35629999999999984,-0.009953908705850398
0.35529999999999984,-0.009946835149351073
0.35429999999999984,-0.009960982262349724
0.35329999999999984,-0.009970885241448778
0.35229999999999984,-0.01002747369344338
0.35129999999999983,-0.01010103868103636
0.35029999999999983,-0.010088306279337576
0.34929999999999983,-0.010082647434138114
0.34829999999999983,-0.010129332907033663
0.34729999999999983,-0.010211386162425836
0.34629999999999983,-0.010239680388423135
0.34529999999999983,-0.010256656924021517
0.34429999999999983,-0.01024392452232273
0.3432999999999998,-0.010276462882219627
0.3422999999999998,-0.010318904221215576
0.3412999999999998,-0.010378322095809907
0.3402999999999998,-0.010391054497508694
0.3392999999999998,-0.010383980941009369
0.3382999999999998,-0.010415104589606402
0.3372999999999998,-0.010473107752900867
0.3362999999999998,-0.010542428606594254
0.3352999999999998,-0.010555161008293039
0.3342999999999998,-0.010566478698691957
0.3332999999999998,-0.010548087451793715
0.3322999999999998,-0.01062023772808683
0.3312999999999998,-0.010659849644483051
0.3302999999999998,-0.010682485025280892
0.3292999999999998,-0.010678240891381297
0.3282999999999998,-0.010700876272179137
0.3272999999999998,-0.010761708858073333
0.3262999999999998,-0.01080556490836915
0.3252999999999999,-0.010812638464868476
0.3242999999999999,-0.010826785577867126
0.3232999999999999,-0.01083668855696618
0.3222999999999999,-0.010901765276759973
0.3212999999999999,-0.010959768440054439
0.3202999999999999,-0.010951280172255249
0.3192999999999999,-0.010968256707853629
0.3182999999999999,-0.010966841996553765
0.3172999999999999,-0.011047480540646071
0.3162999999999999,-0.011126704373438514
0.3152999999999999,-0.011095580724841481
0.3142999999999999,-0.011095580724841481
0.3132999999999999,-0.011105483703940539
0.3122999999999999,-0.011160657444635274
0.3112999999999999,-0.011229978298328662
0.3102999999999999,-0.01124129598872758
0.3092999999999999,-0.011245540122627176
0.3082999999999999,-0.011259687235625827
0.3072999999999999,-0.011303543285921643
0.3062999999999999,-0.01138418183001395
0.3052999999999999,-0.011382767118714086
0.3042999999999999,-0.011371449428315167
0.3032999999999999,-0.011378522984814489
0.3022999999999999,-0.011457746817606931
0.3012999999999999,-0.011521408826100858
0.3002999999999999,-0.011505847001802343
0.2992999999999999,-0.011491699888803693
0.2982999999999999,-0.011517164692201263
0.2972999999999999,-0.011570923721596136
0.2962999999999999,-0.011636000441389925
0.2952999999999999,-0.011644488709189117
0.2942999999999999,-0.011645903420488983
0.2932999999999999,-0.011648732843088714
0.2922999999999999,-0.011733615521080614
0.2912999999999999,-0.011754836190578589
0.2902999999999999,-0.01178030099397616
0.2892999999999999,-0.011778886282676296
0.2882999999999999,-0.01178030099397616
0.2872999999999999,-0.011841133579870357
0.2862999999999999,-0.011896307320565094
0.2852999999999999,-0.011879330784966714
0.2842999999999999,-0.011899136743164824
0.2832999999999999,-0.011907625010964014
0.2822999999999999,-0.011988263555056321
0.2812999999999999,-0.01203636373925173
0.2802999999999999,-0.012029290182752408
0.2792999999999999,-0.012027875471452542
0.2782999999999999,-0.012016557781053622
0.2772999999999999,-0.012077390366947818
0.2762999999999999,-0.012160858333639855
0.2752999999999999,-0.01213397881894242
0.2742999999999999,-0.01214529650934134
0.2732999999999999,-0.012162273044939722
0.2722999999999999,-0.012197640827436346
0.2712999999999999,-0.012261302835930273
0.2702999999999999,-0.012281108794128383
0.2692999999999999,-0.012271205815029329
0.26829999999999987,-0.012315061865325144
0.26729999999999987,-0.012371650317319745
0.26629999999999987,-0.012455118284011784
0.26529999999999987,-0.012456532995311648
0.26429999999999987,-0.012445215304912728
0.26329999999999987,-0.012449459438812323
0.26229999999999987,-0.012490486066508408
0.26129999999999987,-0.012551318652402605
0.26029999999999986,-0.012554148075002335
0.25929999999999986,-0.012520195003805573
0.25829999999999986,-0.012568295188000986
0.25729999999999986,-0.012623468928695722
0.25629999999999986,-0.012663080845091943
0.25529999999999986,-0.012668739690291404
0.25429999999999986,-0.012658836711192348
0.25329999999999986,-0.01267015440159127
0.25229999999999986,-0.01273806054398479
0.25129999999999986,-0.01279464899597939
0.25029999999999986,-0.012796063707279256
0.24929999999999986,-0.012777672460381011
0.24829999999999985,-0.012776257749081147
0.24729999999999985,-0.012858311004473318
0.24629999999999985,-0.012907825899968596
0.24529999999999985,-0.01292904656946657
0.24429999999999985,-0.01292621714686684
0.24329999999999985,-0.012909240611268462
0.24229999999999985,-0.012975732042362116
0.24129999999999985,-0.013030905783056851
0.24029999999999985,-0.013021002803957798
0.23929999999999985,-0.013029491071756986
0.23829999999999985,-0.013036564628256312
0.23729999999999984,-0.013090323657651183
0.23629999999999984,-0.013172376913043356
0.23529999999999984,-0.013152570954845245
0.23429999999999984,-0.013156815088744842
0.23329999999999984,-0.013169547490443625
0.23229999999999984,-0.013219062385938904
0.23129999999999984,-0.013294042084831748
0.23029999999999984,-0.013289797950932155
0.22929999999999984,-0.013288383239632289
0.22829999999999984,-0.013320921599529186
0.22729999999999984,-0.01337043649502446
0.22629999999999983,-0.013448245616517038
0.22529999999999983,-0.013458148595616094
0.22429999999999983,-0.013448245616517038
0.22329999999999983,-0.013493516378112722
0.22229999999999983,-0.013544445984907859
0.22129999999999983,-0.013643475775898415
0.22029999999999983,-0.01365903760019693
0.21929999999999983,-0.01365337875499747
0.21829999999999983,-0.01367884355839504
0.21729999999999983,-0.013756652679887616
0.21629999999999983,-0.01383870593527979
0.21529999999999982,-0.013865585449977224
0.21429999999999982,-0.013871244295176685
0.21329999999999982,-0.01390378265507358
0.21229999999999982,-0.013998568312164537
0.21129999999999982,-0.014070718588457654
0.21029999999999982,-0.01410608637095428
0.20929999999999982,-0.014113159927453607
0.20829999999999982,-0.014141454153450906
0.20729999999999982,-0.014217848563643616
0.20629999999999982,-0.014316878354634173
0.20529999999999982,-0.014331025467632824
0.20429999999999982,-0.014359319693630123
0.20329999999999981,-0.014387613919627423
0.2022999999999998,-0.014500790823616624
0.2012999999999998,-0.014571526388609878
0.20029999999999992,-0.014585673501608528
0.19929999999999992,-0.01461396772760583
0.19829999999999992,-0.014642261953603129
0.19729999999999992,-0.014741291744593682
0.19629999999999992,-0.014840321535584235
0.19529999999999992,-0.014854468648582884
0.19429999999999992,-0.014939351326574786
0.19329999999999992,-0.014981792665570736
0.19229999999999992,-0.01503838111756534
0.19129999999999991,-0.015123263795557243
0.1902999999999999,-0.015151558021554544
0.1892999999999999,-0.015179852247551842
0.1882999999999999,-0.015236440699546445
0.1872999999999999,-0.015307176264539698
0.1862999999999999,-0.015392058942531598
0.1852999999999999,-0.01543450028152755
0.1842999999999999,-0.01546279450752485
0.1832999999999999,-0.015505235846520802
0.1822999999999999,-0.015575971411514053
0.1812999999999999,-0.015675001202504608
0.1802999999999999,-0.015717442541500558
0.1792999999999999,-0.015745736767497857
0.1782999999999999,-0.01581647233249111
0.1772999999999999,-0.015929649236480315
0.1762999999999999,-0.016056973253468165
0.1752999999999999,-0.01608526747946547
0.1742999999999999,-0.01611356170546277
0.1732999999999999,-0.01614185593146007
0.1722999999999999,-0.016226738609451972
0.1712999999999999,-0.01629747417444522
0.1702999999999999,-0.016325768400442524
0.1692999999999999,-0.016368209739438477
0.1682999999999999,-0.016438945304431726
0.1672999999999999,-0.016537975095422278
0.1662999999999999,-0.01662285777341418
0.1652999999999999,-0.016693593338407434
0.1642999999999999,-0.01670774045140608
0.1632999999999999,-0.01673603467740338
0.1622999999999999,-0.016849211581392583
0.1612999999999999,-0.01693409425938449
0.1602999999999999,-0.01697653559838044
0.1592999999999999,-0.017004829824377742
0.15829999999999989,-0.017047271163373692
0.15729999999999988,-0.017146300954364244
0.15629999999999988,-0.017259477858353446
0.15529999999999988,-0.01731606631034805
0.15429999999999988,-0.017358507649344
0.15329999999999988,-0.017400948988339954
0.15229999999999988,-0.01748583166633185
0.15129999999999988,-0.017599008570321057
0.15029999999999988,-0.017641449909317007
0.14929999999999988,-0.01769803836131161
0.14829999999999988,-0.01774047970030756
0.14729999999999988,-0.01785365660429676
0.14629999999999987,-0.017966833508285963
0.14529999999999987,-0.018023421960280565
0.14429999999999987,-0.018051716186277867
0.14329999999999987,-0.018150745977268422
0.14229999999999987,-0.018278069994256275
0.14129999999999987,-0.018362952672248176
0.14029999999999987,-0.018447835350240076
0.13929999999999987,-0.01847612957623738
0.13829999999999987,-0.018546865141230634
0.13729999999999987,-0.018674189158218484
0.13629999999999987,-0.018773218949209036
0.13529999999999986,-0.01885810162720094
0.13429999999999986,-0.01892883719219419
0.13329999999999986,-0.018985425644188793
0.13229999999999986,-0.019126896774175294
0.13129999999999986,-0.019240073678164497
0.13029999999999986,-0.01933910346915505
0.12929999999999986,-0.019423986147146955
0.12829999999999986,-0.019494721712140204
0.12729999999999986,-0.01965033995512536
0.12629999999999986,-0.019791811085111865
0.12529999999999986,-0.019904987989101064
0.12429999999999986,-0.019989870667092968
0.12329999999999985,-0.020103047571082173
0.12229999999999985,-0.020272812927065977
0.12129999999999985,-0.02045672539604843
0.12029999999999985,-0.020569902300037635
0.11929999999999985,-0.02071137343002414
0.11829999999999985,-0.020824550334013342
0.11729999999999985,-0.021022609915994445
0.11629999999999985,-0.0212348166109742
0.11529999999999985,-0.021376287740960703
0.11429999999999985,-0.02153190598394586
0.11329999999999985,-0.021687524226931015
0.11229999999999984,-0.021871436695913467
0.11129999999999984,-0.022126084729889174
0.11029999999999984,-0.022281702972874327
0.10929999999999984,-0.02242317410286083
0.10829999999999984,-0.022607086571843286
0.10729999999999984,-0.022819293266823044
0.10629999999999984,-0.0230597941878001
0.10529999999999984,-0.023215412430785252
0.10429999999999984,-0.023399324899767704
0.10329999999999984,-0.02359738448174881
0.10229999999999984,-0.023809591176728567
0.10129999999999983,-0.024050092097705623
0.10029999999999983,-0.02424815167968673
0.09929999999999983,-0.024417917035670533
0.09829999999999983,-0.024630123730650287
0.09729999999999983,-0.024870624651627343
0.09629999999999983,-0.02509697845960575
0.09529999999999983,-0.025280890928588207
0.09429999999999983,-0.02540821494557606
0.09329999999999983,-0.025592127414558512
0.09229999999999983,-0.025818481222536924
0.09129999999999983,-0.026044835030515325
0.09029999999999982,-0.02621460038649913
0.08929999999999982,-0.026370218629484285
0.08829999999999982,-0.026539983985468085
0.08729999999999982,-0.026752190680447843
0.08629999999999982,-0.026978544488426247
0.08529999999999982,-0.027134162731411407
0.08429999999999982,-0.02727563386139791
0.08329999999999982,-0.02738881076538711
0.08229999999999982,-0.027601017460366868
0.08129999999999982,-0.027813224155346622
0.08029999999999982,-0.027940548172334476
0.07929999999999982,-0.02809616641531963
0.07829999999999981,-0.028237637545306133
0.07729999999999981,-0.028421550014288588
0.07629999999999981,-0.028633756709268345
0.07529999999999992,-0.028746933613257548
0.07429999999999992,-0.028874257630245398
0.07329999999999992,-0.029001581647233248
0.07229999999999992,-0.029171347003217055
0.07129999999999992,-0.02935525947219951
0.07029999999999992,-0.029482583489187364
0.06929999999999992,-0.029581613280177915
0.06829999999999992,-0.02970893729716577
0.06729999999999992,-0.029878702653149573
0.06629999999999991,-0.030048468009133376
0.06529999999999991,-0.030161644913122586
0.06429999999999991,-0.030232380478115835
0.06329999999999991,-0.030359704495103685
0.06229999999999991,-0.030501175625090193
0.06129999999999991,-0.030642646755076695
0.06029999999999991,-0.030741676546067253
0.05929999999999991,-0.03082655922405915
0.05829999999999991,-0.030939736128048352
0.05729999999999991,-0.031081207258034853
0.056299999999999906,-0.03123682550102001
0.055299999999999905,-0.03132170817901191
0.054299999999999904,-0.03137829663100652
0.0532999999999999,-0.03146317930899842
0.0522999999999999,-0.03160465043898492
0.0512999999999999,-0.03170368022997547
0.0502999999999999,-0.031802710020966025
0.0492999999999999,-0.03185929847296063
0.0482999999999999,-0.03193003403795388
0.0472999999999999,-0.032071505167940384
0.0462999999999999,-0.03219882918492823
0.045299999999999896,-0.03226956474992148
0.044299999999999895,-0.032326153201916084
0.043299999999999894,-0.03238274165391069
0.04229999999999989,-0.03249591855789989
0.04129999999999989,-0.0326090954618891
0.04029999999999989,-0.032722272365878304
0.03929999999999989,-0.03276471370487424
0.03829999999999989,-0.0328354492698675
0.03729999999999989,-0.03293447906085806
0.03629999999999989,-0.033104244416841865
0.03529999999999989,-0.03313253864283916
0.034299999999999886,-0.03318912709483376
0.033299999999999885,-0.03324571554682836
0.032299999999999884,-0.03331645111182161
0.031299999999999883,-0.033457922241808116
0.030299999999999883,-0.03352865780680137
0.02929999999999988,-0.03357109914579732
0.02829999999999988,-0.03368427604978652
0.02729999999999988,-0.03378330584077707
0.02629999999999988,-0.033910629857764926
0.025299999999999878,-0.03395307119676088
0.024299999999999877,-0.033967218309759524
0.023299999999999876,-0.03402380676175413
0.022299999999999875,-0.034094542326747385
0.021299999999999875,-0.03420771923073659
0.020299999999999874,-0.034264307682731185
0.019299999999999873,-0.034278454795729836
0.018299999999999872,-0.034349190360723085
0.01729999999999987,-0.034462367264712294
0.01629999999999987,-0.03453310282970555
0.01529999999999987,-0.03458969128170015
0.014299999999999868,-0.0346038383946988
0.013299999999999867,-0.03464627973369475
0.012299999999999978,-0.03475945663768395
0.011299999999999866,-0.03484433931567585
0.010299999999999976,-0.03490092776767045
0.009299999999999864,-0.034915074880669104
0.008299999999999974,-0.03495751621966506
0.007299999999999862,-0.0350565460106556
0.006299999999999972,-0.035127281575648865
0.00529999999999986,-0.03518387002764346
0.0042999999999999705,-0.03524045847963807
0.0032999999999998586,-0.03525460559263671
0.0022999999999999687,-0.03536778249662592
0.0012999999999998568,-0.03548095940061512
0.00029999999999996696,-0.03552340073961108
-0.000700000000000145,-0.03553754785260972
-0.0017000000000000348,-0.035565842078607024
-0.0027000000000001467,-0.035664871869597575
-0.0037000000000000366,-0.03576390166058813
-0.0047000000000001485,-0.03579219588658543
-0.005700000000000038,-0.035820490112582724
-0.00670000000000015,-0.03586293145157868
-0.00770000000000004,-0.035947814129570585
-0.008700000000000152,-0.03606099103355979
-0.009700000000000042,-0.036103432372555734
-0.010700000000000154,-0.03614587371155169
-0.011700000000000044,-0.036188315050547634
-0.012700000000000156,-0.036230756389543595
-0.013700000000000045,-0.03634393329353279
-0.014700000000000157,-0.036400521745527395
-0.015700000000000047,-0.03641466885852604
-0.01670000000000016,-0.036457110197522
-0.01770000000000005,-0.036499551536517946
-0.01870000000000016,-0.036584434214509846
-0.01970000000000005,-0.03664102266650445
-0.020700000000000163,-0.0366551697795031
-0.021700000000000053,-0.03672590534449635
-0.022700000000000164,-0.03679664090948961
-0.023700000000000054,-0.036867376474482856
-0.024700000000000166,-0.03689567070048015
-0.025700000000000056,-0.0369098178134788
-0.026700000000000168,-0.03693811203947611
-0.027700000000000058,-0.03703714183046666
-0.02870000000000017,-0.03710787739545991
-0.02970000000000006,-0.03717861296045316
-0.03070000000000017,-0.03717861296045316
-0.03170000000000006,-0.037206907186450464
-0.03270000000000017,-0.03727764275144372
-0.03370000000000006,-0.03736252542943562
-0.034700000000000175,-0.037419113881430224
-0.035700000000000065,-0.03747570233342482
-0.03670000000000018,-0.03748984944642347
-0.03770000000000007,-0.03754643789841807
-0.03870000000000018,-0.03763132057640997
-0.03970000000000007,-0.03764546768940863
-0.04070000000000018,-0.03768790902840457
-0.04170000000000007,-0.03771620325440188
-0.04270000000000018,-0.037801085932393785
-0.04370000000000007,-0.03791426283638299
-0.044700000000000184,-0.03792840994938163
-0.045700000000000074,-0.037970851288377586
-0.046700000000000186,-0.03798499840137624
-0.047700000000000076,-0.038112322418364084
-0.04870000000000019,-0.03839526467833709
-0.04970000000000008,-0.03860747137331685
-0.05070000000000019,-0.03873479539030471
-0.05170000000000008,-0.038777236729300654
-0.05270000000000019,-0.03874894250330335
-0.05370000000000008,-0.038763089616302
-0.05470000000000019,-0.038706501164307405
-0.05570000000000008,-0.0386499127123128
-0.056700000000000195,-0.03866405982531145
-0.057700000000000085,-0.03873479539030471
-0.058700000000000196,-0.03886211940729256
-0.059700000000000086,-0.03894700208528446
-0.0607000000000002,-0.03894700208528446
-0.06170000000000009,-0.039003590537279066
-0.0627000000000002,-0.03903188476327636
-0.06370000000000009,-0.039060178989273664
-0.0647000000000002,-0.039074326102272315
