May 2, 2025   03:22:11
Cyclic Voltammetry
File: c:/users/guazh/data/banditlqround7_x0exp1108_r5/2025-04-30-exp1213\exp1213-2025-05-02t03_14_04-arkoh\exp1213_cv_sr_800mvs_efin_-1400mv.bin
Data Source:  Experiment
Instrument Model:  CHI760E
Header: CV ran at 800 mVs
Note: 

Init E (V) = -1
High E (V) = -1
Low E (V) = -1.4
Final E (V) = -1
Init P/N = N
Scan Rate (V/s) = 0.8
Segment = 3
Sample Interval (V) = 0.001
Quiet Time (sec) = 2
Sensitivity (A/V) = 0.01
Comp R (ohm) = 1.1

Results:

Channel 1:
Segment 1:

Segment 2:

Segment 3:

Potential/V, Current/A

-1.000, 2.482e-5
-1.001, 1.451e-4
-1.002, 2.561e-4
-1.003, 3.547e-4
-1.004, 4.503e-4
-1.005, 5.397e-4
-1.006, 6.229e-4
-1.007, 7.000e-4
-1.008, 7.771e-4
-1.009, 8.511e-4
-1.010, 9.189e-4
-1.011, 9.806e-4
-1.012, 1.039e-3
-1.013, 1.095e-3
-1.014, 1.144e-3
-1.015, 1.190e-3
-1.016, 1.230e-3
-1.017, 1.270e-3
-1.018, 1.310e-3
-1.019, 1.344e-3
-1.020, 1.384e-3
-1.021, 1.418e-3
-1.022, 1.452e-3
-1.023, 1.486e-3
-1.024, 1.517e-3
-1.025, 1.548e-3
-1.026, 1.573e-3
-1.027, 1.597e-3
-1.028, 1.619e-3
-1.029, 1.637e-3
-1.030, 1.653e-3
-1.031, 1.671e-3
-1.032, 1.690e-3
-1.033, 1.708e-3
-1.034, 1.727e-3
-1.035, 1.745e-3
-1.036, 1.764e-3
-1.037, 1.782e-3
-1.038, 1.795e-3
-1.039, 1.810e-3
-1.040, 1.822e-3
-1.041, 1.832e-3
-1.042, 1.838e-3
-1.043, 1.847e-3
-1.044, 1.856e-3
-1.045, 1.865e-3
-1.046, 1.875e-3
-1.047, 1.884e-3
-1.048, 1.893e-3
-1.049, 1.906e-3
-1.050, 1.918e-3
-1.051, 1.927e-3
-1.052, 1.936e-3
-1.053, 1.943e-3
-1.054, 1.946e-3
-1.055, 1.952e-3
-1.056, 1.955e-3
-1.057, 1.955e-3
-1.058, 1.961e-3
-1.059, 1.964e-3
-1.060, 1.970e-3
-1.061, 1.976e-3
-1.062, 1.986e-3
-1.063, 1.992e-3
-1.064, 1.998e-3
-1.065, 2.004e-3
-1.066, 2.007e-3
-1.067, 2.010e-3
-1.068, 2.013e-3
-1.069, 2.013e-3
-1.070, 2.013e-3
-1.071, 2.017e-3
-1.072, 2.023e-3
-1.073, 2.026e-3
-1.074, 2.029e-3
-1.075, 2.035e-3
-1.076, 2.041e-3
-1.077, 2.047e-3
-1.078, 2.054e-3
-1.079, 2.057e-3
-1.080, 2.060e-3
-1.081, 2.060e-3
-1.082, 2.060e-3
-1.083, 2.060e-3
-1.084, 2.063e-3
-1.085, 2.063e-3
-1.086, 2.066e-3
-1.087, 2.069e-3
-1.088, 2.072e-3
-1.089, 2.081e-3
-1.090, 2.084e-3
-1.091, 2.087e-3
-1.092, 2.094e-3
-1.093, 2.094e-3
-1.094, 2.094e-3
-1.095, 2.097e-3
-1.096, 2.097e-3
-1.097, 2.094e-3
-1.098, 2.097e-3
-1.099, 2.100e-3
-1.100, 2.103e-3
-1.101, 2.106e-3
-1.102, 2.109e-3
-1.103, 2.115e-3
-1.104, 2.124e-3
-1.105, 2.128e-3
-1.106, 2.131e-3
-1.107, 2.134e-3
-1.108, 2.134e-3
-1.109, 2.134e-3
-1.110, 2.134e-3
-1.111, 2.137e-3
-1.112, 2.140e-3
-1.113, 2.143e-3
-1.114, 2.146e-3
-1.115, 2.152e-3
-1.116, 2.158e-3
-1.117, 2.164e-3
-1.118, 2.171e-3
-1.119, 2.174e-3
-1.120, 2.177e-3
-1.121, 2.177e-3
-1.122, 2.180e-3
-1.123, 2.180e-3
-1.124, 2.180e-3
-1.125, 2.183e-3
-1.126, 2.186e-3
-1.127, 2.192e-3
-1.128, 2.198e-3
-1.129, 2.205e-3
-1.130, 2.211e-3
-1.131, 2.217e-3
-1.132, 2.223e-3
-1.133, 2.226e-3
-1.134, 2.229e-3
-1.135, 2.232e-3
-1.136, 2.232e-3
-1.137, 2.232e-3
-1.138, 2.235e-3
-1.139, 2.238e-3
-1.140, 2.245e-3
-1.141, 2.251e-3
-1.142, 2.260e-3
-1.143, 2.266e-3
-1.144, 2.275e-3
-1.145, 2.282e-3
-1.146, 2.288e-3
-1.147, 2.294e-3
-1.148, 2.297e-3
-1.149, 2.300e-3
-1.150, 2.300e-3
-1.151, 2.306e-3
-1.152, 2.309e-3
-1.153, 2.316e-3
-1.154, 2.322e-3
-1.155, 2.328e-3
-1.156, 2.337e-3
-1.157, 2.346e-3
-1.158, 2.353e-3
-1.159, 2.362e-3
-1.160, 2.365e-3
-1.161, 2.371e-3
-1.162, 2.374e-3
-1.163, 2.377e-3
-1.164, 2.383e-3
-1.165, 2.386e-3
-1.166, 2.393e-3
-1.167, 2.402e-3
-1.168, 2.411e-3
-1.169, 2.420e-3
-1.170, 2.430e-3
-1.171, 2.439e-3
-1.172, 2.445e-3
-1.173, 2.451e-3
-1.174, 2.457e-3
-1.175, 2.464e-3
-1.176, 2.467e-3
-1.177, 2.473e-3
-1.178, 2.482e-3
-1.179, 2.485e-3
-1.180, 2.494e-3
-1.181, 2.504e-3
-1.182, 2.516e-3
-1.183, 2.525e-3
-1.184, 2.538e-3
-1.185, 2.547e-3
-1.186, 2.556e-3
-1.187, 2.562e-3
-1.188, 2.568e-3
-1.189, 2.575e-3
-1.190, 2.581e-3
-1.191, 2.587e-3
-1.192, 2.593e-3
-1.193, 2.605e-3
-1.194, 2.615e-3
-1.195, 2.624e-3
-1.196, 2.636e-3
-1.197, 2.649e-3
-1.198, 2.661e-3
-1.199, 2.673e-3
-1.200, 2.682e-3
-1.201, 2.686e-3
-1.202, 2.695e-3
-1.203, 2.704e-3
-1.204, 2.710e-3
-1.205, 2.716e-3
-1.206, 2.726e-3
-1.207, 2.741e-3
-1.208, 2.750e-3
-1.209, 2.766e-3
-1.210, 2.778e-3
-1.211, 2.790e-3
-1.212, 2.803e-3
-1.213, 2.812e-3
-1.214, 2.821e-3
-1.215, 2.830e-3
-1.216, 2.840e-3
-1.217, 2.846e-3
-1.218, 2.858e-3
-1.219, 2.867e-3
-1.220, 2.883e-3
-1.221, 2.895e-3
-1.222, 2.911e-3
-1.223, 2.926e-3
-1.224, 2.941e-3
-1.225, 2.954e-3
-1.226, 2.969e-3
-1.227, 2.978e-3
-1.228, 2.991e-3
-1.229, 3.003e-3
-1.230, 3.012e-3
-1.231, 3.025e-3
-1.232, 3.037e-3
-1.233, 3.052e-3
-1.234, 3.065e-3
-1.235, 3.080e-3
-1.236, 3.099e-3
-1.237, 3.114e-3
-1.238, 3.133e-3
-1.239, 3.148e-3
-1.240, 3.160e-3
-1.241, 3.173e-3
-1.242, 3.185e-3
-1.243, 3.194e-3
-1.244, 3.210e-3
-1.245, 3.222e-3
-1.246, 3.234e-3
-1.247, 3.253e-3
-1.248, 3.268e-3
-1.249, 3.287e-3
-1.250, 3.305e-3
-1.251, 3.324e-3
-1.252, 3.342e-3
-1.253, 3.358e-3
-1.254, 3.373e-3
-1.255, 3.388e-3
-1.256, 3.404e-3
-1.257, 3.419e-3
-1.258, 3.435e-3
-1.259, 3.450e-3
-1.260, 3.469e-3
-1.261, 3.487e-3
-1.262, 3.506e-3
-1.263, 3.527e-3
-1.264, 3.549e-3
-1.265, 3.567e-3
-1.266, 3.586e-3
-1.267, 3.604e-3
-1.268, 3.623e-3
-1.269, 3.638e-3
-1.270, 3.654e-3
-1.271, 3.672e-3
-1.272, 3.691e-3
-1.273, 3.709e-3
-1.274, 3.731e-3
-1.275, 3.752e-3
-1.276, 3.774e-3
-1.277, 3.799e-3
-1.278, 3.820e-3
-1.279, 3.839e-3
-1.280, 3.860e-3
-1.281, 3.879e-3
-1.282, 3.897e-3
-1.283, 3.916e-3
-1.284, 3.934e-3
-1.285, 3.953e-3
-1.286, 3.974e-3
-1.287, 3.999e-3
-1.288, 4.021e-3
-1.289, 4.045e-3
-1.290, 4.073e-3
-1.291, 4.098e-3
-1.292, 4.122e-3
-1.293, 4.144e-3
-1.294, 4.165e-3
-1.295, 4.190e-3
-1.296, 4.209e-3
-1.297, 4.230e-3
-1.298, 4.252e-3
-1.299, 4.273e-3
-1.300, 4.301e-3
-1.301, 4.326e-3
-1.302, 4.354e-3
-1.303, 4.381e-3
-1.304, 4.406e-3
-1.305, 4.434e-3
-1.306, 4.461e-3
-1.307, 4.486e-3
-1.308, 4.511e-3
-1.309, 4.532e-3
-1.310, 4.557e-3
-1.311, 4.582e-3
-1.312, 4.603e-3
-1.313, 4.631e-3
-1.314, 4.662e-3
-1.315, 4.686e-3
-1.316, 4.717e-3
-1.317, 4.748e-3
-1.318, 4.779e-3
-1.319, 4.807e-3
-1.320, 4.834e-3
-1.321, 4.862e-3
-1.322, 4.887e-3
-1.323, 4.912e-3
-1.324, 4.939e-3
-1.325, 4.967e-3
-1.326, 4.995e-3
-1.327, 5.029e-3
-1.328, 5.063e-3
-1.329, 5.097e-3
-1.330, 5.130e-3
-1.331, 5.164e-3
-1.332, 5.195e-3
-1.333, 5.229e-3
-1.334, 5.257e-3
-1.335, 5.288e-3
-1.336, 5.319e-3
-1.337, 5.346e-3
-1.338, 5.380e-3
-1.339, 5.411e-3
-1.340, 5.448e-3
-1.341, 5.482e-3
-1.342, 5.519e-3
-1.343, 5.556e-3
-1.344, 5.593e-3
-1.345, 5.630e-3
-1.346, 5.667e-3
-1.347, 5.701e-3
-1.348, 5.738e-3
-1.349, 5.769e-3
-1.350, 5.803e-3
-1.351, 5.836e-3
-1.352, 5.870e-3
-1.353, 5.907e-3
-1.354, 5.944e-3
-1.355, 5.984e-3
-1.356, 6.025e-3
-1.357, 6.065e-3
-1.358, 6.105e-3
-1.359, 6.148e-3
-1.360, 6.185e-3
-1.361, 6.222e-3
-1.362, 6.262e-3
-1.363, 6.299e-3
-1.364, 6.339e-3
-1.365, 6.379e-3
-1.366, 6.422e-3
-1.367, 6.465e-3
-1.368, 6.512e-3
-1.369, 6.558e-3
-1.370, 6.601e-3
-1.371, 6.647e-3
-1.372, 6.691e-3
-1.373, 6.737e-3
-1.374, 6.777e-3
-1.375, 6.823e-3
-1.376, 6.863e-3
-1.377, 6.906e-3
-1.378, 6.953e-3
-1.379, 6.996e-3
-1.380, 7.045e-3
-1.381, 7.094e-3
-1.382, 7.144e-3
-1.383, 7.196e-3
-1.384, 7.245e-3
-1.385, 7.295e-3
-1.386, 7.344e-3
-1.387, 7.393e-3
-1.388, 7.440e-3
-1.389, 7.483e-3
-1.390, 7.529e-3
-1.391, 7.578e-3
-1.392, 7.625e-3
-1.393, 7.677e-3
-1.394, 7.730e-3
-1.395, 7.782e-3
-1.396, 7.834e-3
-1.397, 7.893e-3
-1.398, 7.945e-3
-1.399, 8.001e-3
-1.400, 7.964e-3
-1.399, 7.767e-3
-1.398, 7.591e-3
-1.397, 7.427e-3
-1.396, 7.273e-3
-1.395, 7.125e-3
-1.394, 6.986e-3
-1.393, 6.857e-3
-1.392, 6.734e-3
-1.391, 6.613e-3
-1.390, 6.496e-3
-1.389, 6.385e-3
-1.388, 6.274e-3
-1.387, 6.166e-3
-1.386, 6.058e-3
-1.385, 5.954e-3
-1.384, 5.852e-3
-1.383, 5.747e-3
-1.382, 5.645e-3
-1.381, 5.550e-3
-1.380, 5.451e-3
-1.379, 5.365e-3
-1.378, 5.269e-3
-1.377, 5.183e-3
-1.376, 5.097e-3
-1.375, 5.007e-3
-1.374, 4.921e-3
-1.373, 4.831e-3
-1.372, 4.742e-3
-1.371, 4.653e-3
-1.370, 4.563e-3
-1.369, 4.480e-3
-1.368, 4.397e-3
-1.367, 4.317e-3
-1.366, 4.236e-3
-1.365, 4.159e-3
-1.364, 4.082e-3
-1.363, 4.008e-3
-1.362, 3.928e-3
-1.361, 3.854e-3
-1.360, 3.780e-3
-1.359, 3.700e-3
-1.358, 3.623e-3
-1.357, 3.546e-3
-1.356, 3.469e-3
-1.355, 3.395e-3
-1.354, 3.321e-3
-1.353, 3.250e-3
-1.352, 3.179e-3
-1.351, 3.111e-3
-1.350, 3.046e-3
-1.349, 2.978e-3
-1.348, 2.911e-3
-1.347, 2.843e-3
-1.346, 2.772e-3
-1.345, 2.704e-3
-1.344, 2.636e-3
-1.343, 2.565e-3
-1.342, 2.501e-3
-1.341, 2.433e-3
-1.340, 2.368e-3
-1.339, 2.306e-3
-1.338, 2.245e-3
-1.337, 2.183e-3
-1.336, 2.124e-3
-1.335, 2.060e-3
-1.334, 2.004e-3
-1.333, 1.939e-3
-1.332, 1.878e-3
-1.331, 1.816e-3
-1.330, 1.754e-3
-1.329, 1.693e-3
-1.328, 1.634e-3
-1.327, 1.576e-3
-1.326, 1.520e-3
-1.325, 1.465e-3
-1.324, 1.412e-3
-1.323, 1.360e-3
-1.322, 1.307e-3
-1.321, 1.255e-3
-1.320, 1.199e-3
-1.319, 1.144e-3
-1.318, 1.092e-3
-1.317, 1.033e-3
-1.316, 9.806e-4
-1.315, 9.282e-4
-1.314, 8.727e-4
-1.313, 8.264e-4
-1.312, 7.771e-4
-1.311, 7.278e-4
-1.310, 6.846e-4
-1.309, 6.384e-4
-1.308, 5.890e-4
-1.307, 5.428e-4
-1.306, 4.935e-4
-1.305, 4.441e-4
-1.304, 3.948e-4
-1.303, 3.455e-4
-1.302, 2.992e-4
-1.301, 2.530e-4
-1.300, 2.098e-4
-1.299, 1.666e-4
-1.298, 1.266e-4
-1.297, 8.648e-5
-1.296, 4.640e-5
-1.295, 3.239e-6
-1.294, -3.684e-5
-1.293, -8.000e-5
-1.292, -1.232e-4
-1.291, -1.663e-4
-1.290, -2.095e-4
-1.289, -2.527e-4
-1.288, -2.927e-4
-1.287, -3.297e-4
-1.286, -3.667e-4
-1.285, -4.037e-4
-1.284, -4.407e-4
-1.283, -4.716e-4
-1.282, -5.086e-4
-1.281, -5.425e-4
-1.280, -5.826e-4
-1.279, -6.195e-4
-1.278, -6.565e-4
-1.277, -6.935e-4
-1.276, -7.305e-4
-1.275, -7.675e-4
-1.274, -8.015e-4
-1.273, -8.354e-4
-1.272, -8.662e-4
-1.271, -8.970e-4
-1.270, -9.248e-4
-1.269, -9.525e-4
-1.268, -9.864e-4
-1.267, -1.017e-3
-1.266, -1.051e-3
-1.265, -1.079e-3
-1.264, -1.116e-3
-1.263, -1.147e-3
-1.262, -1.178e-3
-1.261, -1.208e-3
-1.260, -1.236e-3
-1.259, -1.261e-3
-1.258, -1.289e-3
-1.257, -1.313e-3
-1.256, -1.338e-3
-1.255, -1.363e-3
-1.254, -1.390e-3
-1.253, -1.418e-3
-1.252, -1.446e-3
-1.251, -1.477e-3
-1.250, -1.504e-3
-1.249, -1.532e-3
-1.248, -1.560e-3
-1.247, -1.588e-3
-1.246, -1.609e-3
-1.245, -1.631e-3
-1.244, -1.652e-3
-1.243, -1.674e-3
-1.242, -1.696e-3
-1.241, -1.717e-3
-1.240, -1.742e-3
-1.239, -1.770e-3
-1.238, -1.791e-3
-1.237, -1.819e-3
-1.236, -1.844e-3
-1.235, -1.865e-3
-1.234, -1.890e-3
-1.233, -1.911e-3
-1.232, -1.930e-3
-1.231, -1.948e-3
-1.230, -1.964e-3
-1.229, -1.985e-3
-1.228, -2.007e-3
-1.227, -2.029e-3
-1.226, -2.050e-3
-1.225, -2.072e-3
-1.224, -2.093e-3
-1.223, -2.118e-3
-1.222, -2.136e-3
-1.221, -2.158e-3
-1.220, -2.177e-3
-1.219, -2.192e-3
-1.218, -2.210e-3
-1.217, -2.229e-3
-1.216, -2.244e-3
-1.215, -2.263e-3
-1.214, -2.278e-3
-1.213, -2.300e-3
-1.212, -2.321e-3
-1.211, -2.343e-3
-1.210, -2.365e-3
-1.209, -2.383e-3
-1.208, -2.402e-3
-1.207, -2.420e-3
-1.206, -2.436e-3
-1.205, -2.454e-3
-1.204, -2.469e-3
-1.203, -2.482e-3
-1.202, -2.497e-3
-1.201, -2.516e-3
-1.200, -2.531e-3
-1.199, -2.553e-3
-1.198, -2.571e-3
-1.197, -2.593e-3
-1.196, -2.611e-3
-1.195, -2.630e-3
-1.194, -2.645e-3
-1.193, -2.661e-3
-1.192, -2.676e-3
-1.191, -2.691e-3
-1.190, -2.704e-3
-1.189, -2.716e-3
-1.188, -2.735e-3
-1.187, -2.750e-3
-1.186, -2.765e-3
-1.185, -2.784e-3
-1.184, -2.802e-3
-1.183, -2.824e-3
-1.182, -2.839e-3
-1.181, -2.858e-3
-1.180, -2.873e-3
-1.179, -2.886e-3
-1.178, -2.901e-3
-1.177, -2.916e-3
-1.176, -2.929e-3
-1.175, -2.944e-3
-1.174, -2.960e-3
-1.173, -2.975e-3
-1.172, -2.994e-3
-1.171, -3.012e-3
-1.170, -3.031e-3
-1.169, -3.049e-3
-1.168, -3.064e-3
-1.167, -3.083e-3
-1.166, -3.095e-3
-1.165, -3.108e-3
-1.164, -3.123e-3
-1.163, -3.135e-3
-1.162, -3.148e-3
-1.161, -3.163e-3
-1.160, -3.179e-3
-1.159, -3.197e-3
-1.158, -3.212e-3
-1.157, -3.231e-3
-1.156, -3.249e-3
-1.155, -3.265e-3
-1.154, -3.283e-3
-1.153, -3.293e-3
-1.152, -3.305e-3
-1.151, -3.317e-3
-1.150, -3.330e-3
-1.149, -3.342e-3
-1.148, -3.354e-3
-1.147, -3.367e-3
-1.146, -3.388e-3
-1.145, -3.404e-3
-1.144, -3.419e-3
-1.143, -3.438e-3
-1.142, -3.453e-3
-1.141, -3.471e-3
-1.140, -3.484e-3
-1.139, -3.496e-3
-1.138, -3.508e-3
-1.137, -3.521e-3
-1.136, -3.530e-3
-1.135, -3.545e-3
-1.134, -3.558e-3
-1.133, -3.573e-3
-1.132, -3.589e-3
-1.131, -3.607e-3
-1.130, -3.626e-3
-1.129, -3.641e-3
-1.128, -3.653e-3
-1.127, -3.669e-3
-1.126, -3.681e-3
-1.125, -3.690e-3
-1.124, -3.703e-3
-1.123, -3.712e-3
-1.122, -3.727e-3
-1.121, -3.737e-3
-1.120, -3.752e-3
-1.119, -3.767e-3
-1.118, -3.780e-3
-1.117, -3.795e-3
-1.116, -3.814e-3
-1.115, -3.826e-3
-1.114, -3.838e-3
-1.113, -3.851e-3
-1.112, -3.863e-3
-1.111, -3.872e-3
-1.110, -3.878e-3
-1.109, -3.891e-3
-1.108, -3.900e-3
-1.107, -3.915e-3
-1.106, -3.931e-3
-1.105, -3.943e-3
-1.104, -3.959e-3
-1.103, -3.977e-3
-1.102, -3.989e-3
-1.101, -4.002e-3
-1.100, -4.017e-3
-1.099, -4.023e-3
-1.098, -4.033e-3
-1.097, -4.042e-3
-1.096, -4.048e-3
-1.095, -4.060e-3
-1.094, -4.070e-3
-1.093, -4.082e-3
-1.092, -4.097e-3
-1.091, -4.107e-3
-1.090, -4.125e-3
-1.089, -4.134e-3
-1.088, -4.147e-3
-1.087, -4.159e-3
-1.086, -4.168e-3
-1.085, -4.174e-3
-1.084, -4.184e-3
-1.083, -4.187e-3
-1.082, -4.196e-3
-1.081, -4.202e-3
-1.080, -4.214e-3
-1.079, -4.227e-3
-1.078, -4.236e-3
-1.077, -4.245e-3
-1.076, -4.258e-3
-1.075, -4.267e-3
-1.074, -4.276e-3
-1.073, -4.285e-3
-1.072, -4.292e-3
-1.071, -4.295e-3
-1.070, -4.298e-3
-1.069, -4.307e-3
-1.068, -4.313e-3
-1.067, -4.319e-3
-1.066, -4.332e-3
-1.065, -4.341e-3
-1.064, -4.350e-3
-1.063, -4.359e-3
-1.062, -4.366e-3
-1.061, -4.375e-3
-1.060, -4.381e-3
-1.059, -4.384e-3
-1.058, -4.387e-3
-1.057, -4.390e-3
-1.056, -4.390e-3
-1.055, -4.399e-3
-1.054, -4.399e-3
-1.053, -4.406e-3
-1.052, -4.412e-3
-1.051, -4.418e-3
-1.050, -4.427e-3
-1.049, -4.433e-3
-1.048, -4.436e-3
-1.047, -4.440e-3
-1.046, -4.440e-3
-1.045, -4.440e-3
-1.044, -4.440e-3
-1.043, -4.436e-3
-1.042, -4.436e-3
-1.041, -4.436e-3
-1.040, -4.436e-3
-1.039, -4.440e-3
-1.038, -4.443e-3
-1.037, -4.446e-3
-1.036, -4.449e-3
-1.035, -4.449e-3
-1.034, -4.449e-3
-1.033, -4.449e-3
-1.032, -4.443e-3
-1.031, -4.440e-3
-1.030, -4.436e-3
-1.029, -4.433e-3
-1.028, -4.430e-3
-1.027, -4.427e-3
-1.026, -4.427e-3
-1.025, -4.424e-3
-1.024, -4.424e-3
-1.023, -4.421e-3
-1.022, -4.418e-3
-1.021, -4.415e-3
-1.020, -4.409e-3
-1.019, -4.399e-3
-1.018, -4.393e-3
-1.017, -4.384e-3
-1.016, -4.375e-3
-1.015, -4.369e-3
-1.014, -4.359e-3
-1.013, -4.353e-3
-1.012, -4.347e-3
-1.011, -4.341e-3
-1.010, -4.338e-3
-1.009, -4.329e-3
-1.008, -4.319e-3
-1.007, -4.313e-3
-1.006, -4.298e-3
-1.005, -4.285e-3
-1.004, -4.273e-3
-1.003, -4.258e-3
-1.002, -4.248e-3
-1.001, -4.233e-3
