Sept. 30, 2024   19:13:23
Cyclic Voltammetry
File: c:/users/guazh/data/20240922_batch_417_500/2024-09-22-exp493\exp493-2024-09-30t19_04_48-arkoh\exp493_cv_50mvs_efin_-1500mv.bin
Data Source:  Experiment
Instrument Model:  CHI760E
Header: CV ran at 50 mVs
Note: 

Init E (V) = -1
High E (V) = -1
Low E (V) = -1.5
Final E (V) = -1
Init P/N = N
Scan Rate (V/s) = 0.05
Segment = 7
Sample Interval (V) = 0.001
Quiet Time (sec) = 60
Sensitivity (A/V) = 0.001
Comp R (ohm) = 2.1

Results:

Channel 1:
Segment 1:

Segment 2:

Segment 3:

Segment 4:

Segment 5:

Segment 6:

Segment 7:

Potential/V, Current/A

-1.000, 7.564e-6
-1.001, 8.870e-6
-1.002, 9.151e-6
-1.003, 9.218e-6
-1.004, 9.556e-6
-1.005, 9.643e-6
-1.006, 9.352e-6
-1.007, 9.492e-6
-1.008, 9.617e-6
-1.009, 9.740e-6
-1.010, 9.978e-6
-1.011, 9.646e-6
-1.012, 9.710e-6
-1.013, 9.803e-6
-1.014, 1.001e-5
-1.015, 1.021e-5
-1.016, 9.817e-6
-1.017, 9.829e-6
-1.018, 1.006e-5
-1.019, 1.015e-5
-1.020, 1.039e-5
-1.021, 1.001e-5
-1.022, 9.996e-6
-1.023, 1.016e-5
-1.024, 1.046e-5
-1.025, 1.033e-5
-1.026, 1.030e-5
-1.027, 1.015e-5
-1.028, 1.034e-5
-1.029, 1.048e-5
-1.030, 1.059e-5
-1.031, 1.046e-5
-1.032, 1.020e-5
-1.033, 1.046e-5
-1.034, 1.077e-5
-1.035, 1.071e-5
-1.036, 1.053e-5
-1.037, 1.048e-5
-1.038, 1.058e-5
-1.039, 1.094e-5
-1.040, 1.087e-5
-1.041, 1.070e-5
-1.042, 1.055e-5
-1.043, 1.075e-5
-1.044, 1.099e-5
-1.045, 1.109e-5
-1.046, 1.084e-5
-1.047, 1.073e-5
-1.048, 1.088e-5
-1.049, 1.113e-5
-1.050, 1.120e-5
-1.051, 1.105e-5
-1.052, 1.081e-5
-1.053, 1.100e-5
-1.054, 1.130e-5
-1.055, 1.137e-5
-1.056, 1.112e-5
-1.057, 1.088e-5
-1.058, 1.120e-5
-1.059, 1.151e-5
-1.060, 1.140e-5
-1.061, 1.131e-5
-1.062, 1.107e-5
-1.063, 1.143e-5
-1.064, 1.151e-5
-1.065, 1.158e-5
-1.066, 1.145e-5
-1.067, 1.122e-5
-1.068, 1.155e-5
-1.069, 1.175e-5
-1.070, 1.167e-5
-1.071, 1.171e-5
-1.072, 1.138e-5
-1.073, 1.159e-5
-1.074, 1.202e-5
-1.075, 1.188e-5
-1.076, 1.174e-5
-1.077, 1.164e-5
-1.078, 1.185e-5
-1.079, 1.209e-5
-1.080, 1.199e-5
-1.081, 1.182e-5
-1.082, 1.184e-5
-1.083, 1.191e-5
-1.084, 1.231e-5
-1.085, 1.219e-5
-1.086, 1.206e-5
-1.087, 1.204e-5
-1.088, 1.215e-5
-1.089, 1.232e-5
-1.090, 1.249e-5
-1.091, 1.215e-5
-1.092, 1.216e-5
-1.093, 1.233e-5
-1.094, 1.261e-5
-1.095, 1.271e-5
-1.096, 1.244e-5
-1.097, 1.232e-5
-1.098, 1.254e-5
-1.099, 1.284e-5
-1.100, 1.288e-5
-1.101, 1.268e-5
-1.102, 1.255e-5
-1.103, 1.284e-5
-1.104, 1.303e-5
-1.105, 1.313e-5
-1.106, 1.294e-5
-1.107, 1.282e-5
-1.108, 1.296e-5
-1.109, 1.337e-5
-1.110, 1.337e-5
-1.111, 1.329e-5
-1.112, 1.314e-5
-1.113, 1.332e-5
-1.114, 1.373e-5
-1.115, 1.367e-5
-1.116, 1.354e-5
-1.117, 1.346e-5
-1.118, 1.369e-5
-1.119, 1.404e-5
-1.120, 1.407e-5
-1.121, 1.385e-5
-1.122, 1.394e-5
-1.123, 1.398e-5
-1.124, 1.444e-5
-1.125, 1.449e-5
-1.126, 1.421e-5
-1.127, 1.437e-5
-1.128, 1.443e-5
-1.129, 1.492e-5
-1.130, 1.494e-5
-1.131, 1.468e-5
-1.132, 1.474e-5
-1.133, 1.497e-5
-1.134, 1.540e-5
-1.135, 1.545e-5
-1.136, 1.519e-5
-1.137, 1.525e-5
-1.138, 1.560e-5
-1.139, 1.594e-5
-1.140, 1.596e-5
-1.141, 1.580e-5
-1.142, 1.580e-5
-1.143, 1.620e-5
-1.144, 1.662e-5
-1.145, 1.650e-5
-1.146, 1.655e-5
-1.147, 1.652e-5
-1.148, 1.685e-5
-1.149, 1.719e-5
-1.150, 1.727e-5
-1.151, 1.724e-5
-1.152, 1.716e-5
-1.153, 1.753e-5
-1.154, 1.807e-5
-1.155, 1.794e-5
-1.156, 1.795e-5
-1.157, 1.807e-5
-1.158, 1.839e-5
-1.159, 1.890e-5
-1.160, 1.885e-5
-1.161, 1.879e-5
-1.162, 1.902e-5
-1.163, 1.929e-5
-1.164, 1.986e-5
-1.165, 1.989e-5
-1.166, 1.974e-5
-1.167, 1.997e-5
-1.168, 2.027e-5
-1.169, 2.082e-5
-1.170, 2.092e-5
-1.171, 2.091e-5
-1.172, 2.105e-5
-1.173, 2.145e-5
-1.174, 2.202e-5
-1.175, 2.216e-5
-1.176, 2.209e-5
-1.177, 2.235e-5
-1.178, 2.291e-5
-1.179, 2.331e-5
-1.180, 2.341e-5
-1.181, 2.359e-5
-1.182, 2.362e-5
-1.183, 2.433e-5
-1.184, 2.463e-5
-1.185, 2.487e-5
-1.186, 2.501e-5
-1.187, 2.520e-5
-1.188, 2.591e-5
-1.189, 2.639e-5
-1.190, 2.655e-5
-1.191, 2.680e-5
-1.192, 2.691e-5
-1.193, 2.767e-5
-1.194, 2.813e-5
-1.195, 2.844e-5
-1.196, 2.856e-5
-1.197, 2.896e-5
-1.198, 2.967e-5
-1.199, 3.026e-5
-1.200, 3.041e-5
-1.201, 3.072e-5
-1.202, 3.114e-5
-1.203, 3.185e-5
-1.204, 3.244e-5
-1.205, 3.285e-5
-1.206, 3.310e-5
-1.207, 3.362e-5
-1.208, 3.436e-5
-1.209, 3.492e-5
-1.210, 3.551e-5
-1.211, 3.571e-5
-1.212, 3.616e-5
-1.213, 3.712e-5
-1.214, 3.769e-5
-1.215, 3.837e-5
-1.216, 3.866e-5
-1.217, 3.909e-5
-1.218, 4.020e-5
-1.219, 4.074e-5
-1.220, 4.149e-5
-1.221, 4.182e-5
-1.222, 4.232e-5
-1.223, 4.356e-5
-1.224, 4.421e-5
-1.225, 4.483e-5
-1.226, 4.541e-5
-1.227, 4.597e-5
-1.228, 4.735e-5
-1.229, 4.796e-5
-1.230, 4.863e-5
-1.231, 4.924e-5
-1.232, 4.990e-5
-1.233, 5.111e-5
-1.234, 5.209e-5
-1.235, 5.267e-5
-1.236, 5.345e-5
-1.237, 5.418e-5
-1.238, 5.544e-5
-1.239, 5.647e-5
-1.240, 5.718e-5
-1.241, 5.789e-5
-1.242, 5.892e-5
-1.243, 6.010e-5
-1.244, 6.114e-5
-1.245, 6.204e-5
-1.246, 6.295e-5
-1.247, 6.389e-5
-1.248, 6.512e-5
-1.249, 6.631e-5
-1.250, 6.736e-5
-1.251, 6.821e-5
-1.252, 6.931e-5
-1.253, 7.069e-5
-1.254, 7.195e-5
-1.255, 7.309e-5
-1.256, 7.402e-5
-1.257, 7.517e-5
-1.258, 7.670e-5
-1.259, 7.795e-5
-1.260, 7.921e-5
-1.261, 8.021e-5
-1.262, 8.142e-5
-1.263, 8.315e-5
-1.264, 8.452e-5
-1.265, 8.586e-5
-1.266, 8.696e-5
-1.267, 8.837e-5
-1.268, 9.001e-5
-1.269, 9.164e-5
-1.270, 9.287e-5
-1.271, 9.433e-5
-1.272, 9.566e-5
-1.273, 9.744e-5
-1.274, 9.925e-5
-1.275, 1.007e-4
-1.276, 1.019e-4
-1.277, 1.037e-4
-1.278, 1.055e-4
-1.279, 1.075e-4
-1.280, 1.091e-4
-1.281, 1.104e-4
-1.282, 1.122e-4
-1.283, 1.142e-4
-1.284, 1.162e-4
-1.285, 1.178e-4
-1.286, 1.195e-4
-1.287, 1.214e-4
-1.288, 1.234e-4
-1.289, 1.256e-4
-1.290, 1.276e-4
-1.291, 1.291e-4
-1.292, 1.313e-4
-1.293, 1.335e-4
-1.294, 1.357e-4
-1.295, 1.377e-4
-1.296, 1.395e-4
-1.297, 1.417e-4
-1.298, 1.442e-4
-1.299, 1.464e-4
-1.300, 1.486e-4
-1.301, 1.505e-4
-1.302, 1.530e-4
-1.303, 1.554e-4
-1.304, 1.579e-4
-1.305, 1.601e-4
-1.306, 1.623e-4
-1.307, 1.646e-4
-1.308, 1.675e-4
-1.309, 1.701e-4
-1.310, 1.725e-4
-1.311, 1.747e-4
-1.312, 1.772e-4
-1.313, 1.802e-4
-1.314, 1.830e-4
-1.315, 1.855e-4
-1.316, 1.879e-4
-1.317, 1.906e-4
-1.318, 1.936e-4
-1.319, 1.967e-4
-1.320, 1.992e-4
-1.321, 2.019e-4
-1.322, 2.047e-4
-1.323, 2.081e-4
-1.324, 2.110e-4
-1.325, 2.140e-4
-1.326, 2.166e-4
-1.327, 2.198e-4
-1.328, 2.231e-4
-1.329, 2.263e-4
-1.330, 2.295e-4
-1.331, 2.323e-4
-1.332, 2.356e-4
-1.333, 2.392e-4
-1.334, 2.424e-4
-1.335, 2.460e-4
-1.336, 2.488e-4
-1.337, 2.523e-4
-1.338, 2.561e-4
-1.339, 2.595e-4
-1.340, 2.633e-4
-1.341, 2.663e-4
-1.342, 2.701e-4
-1.343, 2.740e-4
-1.344, 2.777e-4
-1.345, 2.814e-4
-1.346, 2.850e-4
-1.347, 2.889e-4
-1.348, 2.931e-4
-1.349, 2.970e-4
-1.350, 3.009e-4
-1.351, 3.046e-4
-1.352, 3.087e-4
-1.353, 3.129e-4
-1.354, 3.172e-4
-1.355, 3.213e-4
-1.356, 3.252e-4
-1.357, 3.296e-4
-1.358, 3.340e-4
-1.359, 3.384e-4
-1.360, 3.427e-4
-1.361, 3.468e-4
-1.362, 3.516e-4
-1.363, 3.561e-4
-1.364, 3.607e-4
-1.365, 3.650e-4
-1.366, 3.697e-4
-1.367, 3.747e-4
-1.368, 3.795e-4
-1.369, 3.843e-4
-1.370, 3.891e-4
-1.371, 3.935e-4
-1.372, 3.987e-4
-1.373, 4.043e-4
-1.374, 4.091e-4
-1.375, 4.141e-4
-1.376, 4.188e-4
-1.377, 4.243e-4
-1.378, 4.299e-4
-1.379, 4.352e-4
-1.380, 4.404e-4
-1.381, 4.454e-4
-1.382, 4.512e-4
-1.383, 4.571e-4
-1.384, 4.626e-4
-1.385, 4.680e-4
-1.386, 4.735e-4
-1.387, 4.793e-4
-1.388, 4.854e-4
-1.389, 4.915e-4
-1.390, 4.969e-4
-1.391, 5.028e-4
-1.392, 5.087e-4
-1.393, 5.152e-4
-1.394, 5.214e-4
-1.395, 5.270e-4
-1.396, 5.336e-4
-1.397, 5.396e-4
-1.398, 5.463e-4
-1.399, 5.528e-4
-1.400, 5.588e-4
-1.401, 5.653e-4
-1.402, 5.722e-4
-1.403, 5.792e-4
-1.404, 5.861e-4
-1.405, 5.921e-4
-1.406, 5.989e-4
-1.407, 6.061e-4
-1.408, 6.135e-4
-1.409, 6.203e-4
-1.410, 6.273e-4
-1.411, 6.342e-4
-1.412, 6.415e-4
-1.413, 6.492e-4
-1.414, 6.563e-4
-1.415, 6.637e-4
-1.416, 6.712e-4
-1.417, 6.787e-4
-1.418, 6.865e-4
-1.419, 6.944e-4
-1.420, 7.018e-4
-1.421, 7.098e-4
-1.422, 7.176e-4
-1.423, 7.260e-4
-1.424, 7.342e-4
-1.425, 7.420e-4
-1.426, 7.500e-4
-1.427, 7.585e-4
-1.428, 7.673e-4
-1.429, 7.760e-4
-1.430, 7.838e-4
-1.431, 7.929e-4
-1.432, 8.012e-4
-1.433, 8.106e-4
-1.434, 8.196e-4
-1.435, 8.283e-4
-1.436, 8.373e-4
-1.437, 8.461e-4
-1.438, 8.555e-4
-1.439, 8.654e-4
-1.440, 8.749e-4
-1.441, 8.843e-4
-1.442, 8.937e-4
-1.443, 9.032e-4
-1.444, 9.134e-4
-1.445, 9.235e-4
-1.446, 9.330e-4
-1.447, 9.432e-4
-1.448, 9.534e-4
-1.449, 9.640e-4
-1.450, 9.744e-4
-1.451, 9.847e-4
-1.452, 9.951e-4
-1.453, 1.006e-3
-1.454, 1.017e-3
-1.455, 1.028e-3
-1.456, 1.038e-3
-1.457, 1.050e-3
-1.458, 1.062e-3
-1.459, 1.074e-3
-1.460, 1.085e-3
-1.461, 1.096e-3
-1.462, 1.108e-3
-1.463, 1.120e-3
-1.464, 1.132e-3
-1.465, 1.144e-3
-1.466, 1.156e-3
-1.467, 1.168e-3
-1.468, 1.182e-3
-1.469, 1.194e-3
-1.470, 1.206e-3
-1.471, 1.219e-3
-1.472, 1.232e-3
-1.473, 1.246e-3
-1.474, 1.259e-3
-1.475, 1.273e-3
-1.476, 1.287e-3
-1.477, 1.300e-3
-1.478, 1.315e-3
-1.479, 1.328e-3
-1.480, 1.343e-3
-1.481, 1.357e-3
-1.482, 1.372e-3
-1.483, 1.387e-3
-1.484, 1.402e-3
-1.485, 1.417e-3
-1.486, 1.432e-3
-1.487, 1.448e-3
-1.488, 1.464e-3
-1.489, 1.480e-3
-1.490, 1.496e-3
-1.491, 1.512e-3
-1.492, 1.528e-3
-1.493, 1.545e-3
-1.494, 1.563e-3
-1.495, 1.578e-3
-1.496, 1.596e-3
-1.497, 1.613e-3
-1.498, 1.631e-3
-1.499, 1.649e-3
-1.500, 1.635e-3
-1.499, 1.605e-3
-1.498, 1.577e-3
-1.497, 1.550e-3
-1.496, 1.524e-3
-1.495, 1.497e-3
-1.494, 1.471e-3
-1.493, 1.446e-3
-1.492, 1.422e-3
-1.491, 1.398e-3
-1.490, 1.373e-3
-1.489, 1.350e-3
-1.488, 1.328e-3
-1.487, 1.305e-3
-1.486, 1.284e-3
-1.485, 1.262e-3
-1.484, 1.241e-3
-1.483, 1.220e-3
-1.482, 1.200e-3
-1.481, 1.180e-3
-1.480, 1.160e-3
-1.479, 1.141e-3
-1.478, 1.123e-3
-1.477, 1.104e-3
-1.476, 1.087e-3
-1.475, 1.068e-3
-1.474, 1.051e-3
-1.473, 1.034e-3
-1.472, 1.018e-3
-1.471, 1.001e-3
-1.470, 9.845e-4
-1.469, 9.686e-4
-1.468, 9.530e-4
-1.467, 9.382e-4
-1.466, 9.229e-4
-1.465, 9.079e-4
-1.464, 8.935e-4
-1.463, 8.796e-4
-1.462, 8.656e-4
-1.461, 8.516e-4
-1.460, 8.377e-4
-1.459, 8.246e-4
-1.458, 8.122e-4
-1.457, 7.989e-4
-1.456, 7.865e-4
-1.455, 7.738e-4
-1.454, 7.614e-4
-1.453, 7.501e-4
-1.452, 7.381e-4
-1.451, 7.266e-4
-1.450, 7.153e-4
-1.449, 7.036e-4
-1.448, 6.934e-4
-1.447, 6.830e-4
-1.446, 6.723e-4
-1.445, 6.615e-4
-1.444, 6.508e-4
-1.443, 6.416e-4
-1.442, 6.322e-4
-1.441, 6.220e-4
-1.440, 6.123e-4
-1.439, 6.029e-4
-1.438, 5.941e-4
-1.437, 5.854e-4
-1.436, 5.762e-4
-1.435, 5.675e-4
-1.434, 5.587e-4
-1.433, 5.507e-4
-1.432, 5.425e-4
-1.431, 5.344e-4
-1.430, 5.263e-4
-1.429, 5.183e-4
-1.428, 5.108e-4
-1.427, 5.034e-4
-1.426, 4.959e-4
-1.425, 4.884e-4
-1.424, 4.813e-4
-1.423, 4.743e-4
-1.422, 4.675e-4
-1.421, 4.608e-4
-1.420, 4.539e-4
-1.419, 4.470e-4
-1.418, 4.409e-4
-1.417, 4.346e-4
-1.416, 4.285e-4
-1.415, 4.222e-4
-1.414, 4.157e-4
-1.413, 4.103e-4
-1.412, 4.046e-4
-1.411, 3.986e-4
-1.410, 3.929e-4
-1.409, 3.872e-4
-1.408, 3.821e-4
-1.407, 3.769e-4
-1.406, 3.713e-4
-1.405, 3.660e-4
-1.404, 3.610e-4
-1.403, 3.562e-4
-1.402, 3.514e-4
-1.401, 3.463e-4
-1.400, 3.413e-4
-1.399, 3.367e-4
-1.398, 3.323e-4
-1.397, 3.278e-4
-1.396, 3.232e-4
-1.395, 3.185e-4
-1.394, 3.143e-4
-1.393, 3.101e-4
-1.392, 3.062e-4
-1.391, 3.019e-4
-1.390, 2.975e-4
-1.389, 2.936e-4
-1.388, 2.899e-4
-1.387, 2.860e-4
-1.386, 2.824e-4
-1.385, 2.779e-4
-1.384, 2.745e-4
-1.383, 2.709e-4
-1.382, 2.674e-4
-1.381, 2.639e-4
-1.380, 2.599e-4
-1.379, 2.564e-4
-1.378, 2.534e-4
-1.377, 2.501e-4
-1.376, 2.467e-4
-1.375, 2.431e-4
-1.374, 2.398e-4
-1.373, 2.370e-4
-1.372, 2.339e-4
-1.371, 2.307e-4
-1.370, 2.272e-4
-1.369, 2.243e-4
-1.368, 2.217e-4
-1.367, 2.186e-4
-1.366, 2.156e-4
-1.365, 2.124e-4
-1.364, 2.098e-4
-1.363, 2.070e-4
-1.362, 2.044e-4
-1.361, 2.015e-4
-1.360, 1.985e-4
-1.359, 1.959e-4
-1.358, 1.934e-4
-1.357, 1.909e-4
-1.356, 1.883e-4
-1.355, 1.851e-4
-1.354, 1.829e-4
-1.353, 1.807e-4
-1.352, 1.782e-4
-1.351, 1.756e-4
-1.350, 1.728e-4
-1.349, 1.706e-4
-1.348, 1.685e-4
-1.347, 1.661e-4
-1.346, 1.638e-4
-1.345, 1.610e-4
-1.344, 1.590e-4
-1.343, 1.570e-4
-1.342, 1.548e-4
-1.341, 1.524e-4
-1.340, 1.500e-4
-1.339, 1.479e-4
-1.338, 1.461e-4
-1.337, 1.439e-4
-1.336, 1.417e-4
-1.335, 1.394e-4
-1.334, 1.374e-4
-1.333, 1.357e-4
-1.332, 1.337e-4
-1.331, 1.313e-4
-1.330, 1.291e-4
-1.329, 1.274e-4
-1.328, 1.257e-4
-1.327, 1.239e-4
-1.326, 1.215e-4
-1.325, 1.196e-4
-1.324, 1.178e-4
-1.323, 1.161e-4
-1.322, 1.144e-4
-1.321, 1.122e-4
-1.320, 1.104e-4
-1.319, 1.085e-4
-1.318, 1.069e-4
-1.317, 1.054e-4
-1.316, 1.032e-4
-1.315, 1.013e-4
-1.314, 9.979e-5
-1.313, 9.822e-5
-1.312, 9.670e-5
-1.311, 9.464e-5
-1.310, 9.285e-5
-1.309, 9.136e-5
-1.308, 8.994e-5
-1.307, 8.832e-5
-1.306, 8.642e-5
-1.305, 8.470e-5
-1.304, 8.345e-5
-1.303, 8.197e-5
-1.302, 8.043e-5
-1.301, 7.867e-5
-1.300, 7.713e-5
-1.299, 7.568e-5
-1.298, 7.441e-5
-1.297, 7.292e-5
-1.296, 7.132e-5
-1.295, 6.982e-5
-1.294, 6.830e-5
-1.293, 6.720e-5
-1.292, 6.585e-5
-1.291, 6.416e-5
-1.290, 6.285e-5
-1.289, 6.153e-5
-1.288, 6.039e-5
-1.287, 5.920e-5
-1.286, 5.759e-5
-1.285, 5.611e-5
-1.284, 5.501e-5
-1.283, 5.396e-5
-1.282, 5.284e-5
-1.281, 5.126e-5
-1.280, 4.977e-5
-1.279, 4.887e-5
-1.278, 4.792e-5
-1.277, 4.673e-5
-1.276, 4.546e-5
-1.275, 4.390e-5
-1.274, 4.306e-5
-1.273, 4.212e-5
-1.272, 4.106e-5
-1.271, 3.975e-5
-1.270, 3.839e-5
-1.269, 3.758e-5
-1.268, 3.678e-5
-1.267, 3.566e-5
-1.266, 3.449e-5
-1.265, 3.310e-5
-1.264, 3.246e-5
-1.263, 3.176e-5
-1.262, 3.062e-5
-1.261, 2.958e-5
-1.260, 2.843e-5
-1.259, 2.765e-5
-1.258, 2.695e-5
-1.257, 2.600e-5
-1.256, 2.492e-5
-1.255, 2.393e-5
-1.254, 2.303e-5
-1.253, 2.265e-5
-1.252, 2.171e-5
-1.251, 2.055e-5
-1.250, 1.967e-5
-1.249, 1.889e-5
-1.248, 1.852e-5
-1.247, 1.770e-5
-1.246, 1.657e-5
-1.245, 1.581e-5
-1.244, 1.518e-5
-1.243, 1.470e-5
-1.242, 1.407e-5
-1.241, 1.295e-5
-1.240, 1.229e-5
-1.239, 1.175e-5
-1.238, 1.130e-5
-1.237, 1.070e-5
-1.236, 9.742e-6
-1.235, 8.946e-6
-1.234, 8.572e-6
-1.233, 8.165e-6
-1.232, 7.592e-6
-1.231, 6.816e-6
-1.230, 5.990e-6
-1.229, 5.420e-6
-1.228, 5.450e-6
-1.227, 4.683e-6
-1.226, 4.058e-6
-1.225, 3.501e-6
-1.224, 3.040e-6
-1.223, 2.917e-6
-1.222, 2.211e-6
-1.221, 1.641e-6
-1.220, 1.002e-6
-1.219, 7.023e-7
-1.218, 6.687e-7
-1.217, -4.361e-8
-1.216, -5.754e-7
-1.215, -1.189e-6
-1.214, -1.438e-6
-1.213, -1.402e-6
-1.212, -1.863e-6
-1.211, -2.691e-6
-1.210, -3.072e-6
-1.209, -3.336e-6
-1.208, -3.222e-6
-1.207, -3.691e-6
-1.206, -4.487e-6
-1.205, -4.864e-6
-1.204, -4.857e-6
-1.203, -5.029e-6
-1.202, -5.470e-6
-1.201, -5.988e-6
-1.200, -6.326e-6
-1.199, -6.299e-6
-1.198, -6.524e-6
-1.197, -6.848e-6
-1.196, -7.351e-6
-1.195, -7.711e-6
-1.194, -7.639e-6
-1.193, -7.833e-6
-1.192, -8.103e-6
-1.191, -8.510e-6
-1.190, -8.924e-6
-1.189, -8.755e-6
-1.188, -8.871e-6
-1.187, -9.265e-6
-1.186, -9.556e-6
-1.185, -9.994e-6
-1.184, -9.688e-6
-1.183, -9.859e-6
-1.182, -1.014e-5
-1.181, -1.049e-5
-1.180, -1.074e-5
-1.179, -1.059e-5
-1.178, -1.076e-5
-1.177, -1.081e-5
-1.176, -1.127e-5
-1.175, -1.155e-5
-1.174, -1.135e-5
-1.173, -1.125e-5
-1.172, -1.145e-5
-1.171, -1.198e-5
-1.170, -1.204e-5
-1.169, -1.190e-5
-1.168, -1.189e-5
-1.167, -1.200e-5
-1.166, -1.249e-5
-1.165, -1.251e-5
-1.164, -1.231e-5
-1.163, -1.248e-5
-1.162, -1.248e-5
-1.161, -1.288e-5
-1.160, -1.300e-5
-1.159, -1.269e-5
-1.158, -1.285e-5
-1.157, -1.291e-5
-1.156, -1.315e-5
-1.155, -1.344e-5
-1.154, -1.309e-5
-1.153, -1.327e-5
-1.152, -1.334e-5
-1.151, -1.348e-5
-1.150, -1.373e-5
-1.149, -1.341e-5
-1.148, -1.349e-5
-1.147, -1.358e-5
-1.146, -1.383e-5
-1.145, -1.401e-5
-1.144, -1.379e-5
-1.143, -1.363e-5
-1.142, -1.391e-5
-1.141, -1.400e-5
-1.140, -1.424e-5
-1.139, -1.407e-5
-1.138, -1.389e-5
-1.137, -1.419e-5
-1.136, -1.422e-5
-1.135, -1.444e-5
-1.134, -1.420e-5
-1.133, -1.407e-5
-1.132, -1.417e-5
-1.131, -1.455e-5
-1.130, -1.451e-5
-1.129, -1.450e-5
-1.128, -1.407e-5
-1.127, -1.440e-5
-1.126, -1.475e-5
-1.125, -1.464e-5
-1.124, -1.455e-5
-1.123, -1.438e-5
-1.122, -1.451e-5
-1.121, -1.486e-5
-1.120, -1.478e-5
-1.119, -1.451e-5
-1.118, -1.450e-5
-1.117, -1.449e-5
-1.116, -1.482e-5
-1.115, -1.487e-5
-1.114, -1.457e-5
-1.113, -1.454e-5
-1.112, -1.458e-5
-1.111, -1.491e-5
-1.110, -1.492e-5
-1.109, -1.466e-5
-1.108, -1.455e-5
-1.107, -1.471e-5
-1.106, -1.491e-5
-1.105, -1.510e-5
-1.104, -1.465e-5
-1.103, -1.457e-5
-1.102, -1.470e-5
-1.101, -1.504e-5
-1.100, -1.498e-5
-1.099, -1.480e-5
-1.098, -1.466e-5
-1.097, -1.476e-5
-1.096, -1.508e-5
-1.095, -1.500e-5
-1.094, -1.482e-5
-1.093, -1.467e-5
-1.092, -1.487e-5
-1.091, -1.521e-5
-1.090, -1.512e-5
-1.089, -1.484e-5
-1.088, -1.476e-5
-1.087, -1.488e-5
-1.086, -1.537e-5
-1.085, -1.515e-5
-1.084, -1.497e-5
-1.083, -1.495e-5
-1.082, -1.499e-5
-1.081, -1.543e-5
-1.080, -1.524e-5
-1.079, -1.497e-5
-1.078, -1.511e-5
-1.077, -1.512e-5
-1.076, -1.543e-5
-1.075, -1.550e-5
-1.074, -1.508e-5
-1.073, -1.516e-5
-1.072, -1.519e-5
-1.071, -1.553e-5
-1.070, -1.550e-5
-1.069, -1.516e-5
-1.068, -1.510e-5
-1.067, -1.539e-5
-1.066, -1.562e-5
-1.065, -1.550e-5
-1.064, -1.525e-5
-1.063, -1.518e-5
-1.062, -1.547e-5
-1.061, -1.567e-5
-1.060, -1.548e-5
-1.059, -1.529e-5
-1.058, -1.521e-5
-1.057, -1.563e-5
-1.056, -1.576e-5
-1.055, -1.555e-5
-1.054, -1.536e-5
-1.053, -1.525e-5
-1.052, -1.562e-5
-1.051, -1.586e-5
-1.050, -1.561e-5
-1.049, -1.546e-5
-1.048, -1.536e-5
-1.047, -1.559e-5
-1.046, -1.594e-5
-1.045, -1.572e-5
-1.044, -1.545e-5
-1.043, -1.548e-5
-1.042, -1.579e-5
-1.041, -1.593e-5
-1.040, -1.579e-5
-1.039, -1.557e-5
-1.038, -1.555e-5
-1.037, -1.578e-5
-1.036, -1.596e-5
-1.035, -1.599e-5
-1.034, -1.562e-5
-1.033, -1.561e-5
-1.032, -1.595e-5
-1.031, -1.601e-5
-1.030, -1.616e-5
-1.029, -1.573e-5
-1.028, -1.569e-5
-1.027, -1.614e-5
-1.026, -1.608e-5
-1.025, -1.628e-5
-1.024, -1.587e-5
-1.023, -1.585e-5
-1.022, -1.633e-5
-1.021, -1.629e-5
-1.020, -1.618e-5
-1.019, -1.610e-5
-1.018, -1.589e-5
-1.017, -1.646e-5
-1.016, -1.638e-5
-1.015, -1.632e-5
-1.014, -1.622e-5
-1.013, -1.607e-5
-1.012, -1.645e-5
-1.011, -1.658e-5
-1.010, -1.647e-5
-1.009, -1.629e-5
-1.008, -1.624e-5
-1.007, -1.652e-5
-1.006, -1.675e-5
-1.005, -1.653e-5
-1.004, -1.640e-5
-1.003, -1.632e-5
-1.002, -1.669e-5
-1.001, -1.680e-5
-1.000, -1.479e-6
-1.001, 2.360e-6
-1.002, 3.115e-6
-1.003, 3.197e-6
-1.004, 3.432e-6
-1.005, 3.879e-6
-1.006, 4.344e-6
-1.007, 4.737e-6
-1.008, 4.699e-6
-1.009, 4.605e-6
-1.010, 5.075e-6
-1.011, 5.372e-6
-1.012, 5.660e-6
-1.013, 5.556e-6
-1.014, 5.505e-6
-1.015, 5.862e-6
-1.016, 6.149e-6
-1.017, 6.328e-6
-1.018, 6.303e-6
-1.019, 6.121e-6
-1.020, 6.398e-6
-1.021, 6.807e-6
-1.022, 6.887e-6
-1.023, 6.806e-6
-1.024, 6.687e-6
-1.025, 6.890e-6
-1.026, 7.325e-6
-1.027, 7.218e-6
-1.028, 7.155e-6
-1.029, 7.053e-6
-1.030, 7.358e-6
-1.031, 7.712e-6
-1.032, 7.560e-6
-1.033, 7.453e-6
-1.034, 7.429e-6
-1.035, 7.613e-6
-1.036, 8.016e-6
-1.037, 7.987e-6
-1.038, 7.754e-6
-1.039, 7.795e-6
-1.040, 7.813e-6
-1.041, 8.240e-6
-1.042, 8.315e-6
-1.043, 8.041e-6
-1.044, 7.958e-6
-1.045, 8.113e-6
-1.046, 8.406e-6
-1.047, 8.566e-6
-1.048, 8.265e-6
-1.049, 8.113e-6
-1.050, 8.390e-6
-1.051, 8.707e-6
-1.052, 8.695e-6
-1.053, 8.430e-6
-1.054, 8.378e-6
-1.055, 8.632e-6
-1.056, 8.962e-6
-1.057, 8.803e-6
-1.058, 8.675e-6
-1.059, 8.600e-6
-1.060, 8.766e-6
-1.061, 9.158e-6
-1.062, 9.080e-6
-1.063, 8.943e-6
-1.064, 8.857e-6
-1.065, 8.933e-6
-1.066, 9.485e-6
-1.067, 9.278e-6
-1.068, 9.072e-6
-1.069, 9.032e-6
-1.070, 9.244e-6
-1.071, 9.652e-6
-1.072, 9.494e-6
-1.073, 9.316e-6
-1.074, 9.286e-6
-1.075, 9.490e-6
-1.076, 9.870e-6
-1.077, 9.747e-6
-1.078, 9.497e-6
-1.079, 9.481e-6
-1.080, 9.638e-6
-1.081, 9.958e-6
-1.082, 1.001e-5
-1.083, 9.593e-6
-1.084, 9.649e-6
-1.085, 9.886e-6
-1.086, 1.025e-5
-1.087, 1.007e-5
-1.088, 9.775e-6
-1.089, 9.803e-6
-1.090, 1.005e-5
-1.091, 1.038e-5
-1.092, 1.020e-5
-1.093, 1.006e-5
-1.094, 9.893e-6
-1.095, 1.043e-5
-1.096, 1.051e-5
-1.097, 1.031e-5
-1.098, 1.017e-5
-1.099, 1.011e-5
-1.100, 1.043e-5
-1.101, 1.072e-5
-1.102, 1.052e-5
-1.103, 1.037e-5
-1.104, 1.024e-5
-1.105, 1.061e-5
-1.106, 1.088e-5
-1.107, 1.061e-5
-1.108, 1.052e-5
-1.109, 1.054e-5
-1.110, 1.077e-5
-1.111, 1.098e-5
-1.112, 1.088e-5
-1.113, 1.070e-5
-1.114, 1.073e-5
-1.115, 1.100e-5
-1.116, 1.117e-5
-1.117, 1.112e-5
-1.118, 1.088e-5
-1.119, 1.090e-5
-1.120, 1.127e-5
-1.121, 1.134e-5
-1.122, 1.140e-5
-1.123, 1.117e-5
-1.124, 1.111e-5
-1.125, 1.157e-5
-1.126, 1.164e-5
-1.127, 1.176e-5
-1.128, 1.138e-5
-1.129, 1.135e-5
-1.130, 1.195e-5
-1.131, 1.190e-5
-1.132, 1.195e-5
-1.133, 1.177e-5
-1.134, 1.176e-5
-1.135, 1.220e-5
-1.136, 1.227e-5
-1.137, 1.218e-5
-1.138, 1.218e-5
-1.139, 1.203e-5
-1.140, 1.253e-5
-1.141, 1.259e-5
-1.142, 1.260e-5
-1.143, 1.253e-5
-1.144, 1.246e-5
-1.145, 1.293e-5
-1.146, 1.298e-5
-1.147, 1.297e-5
-1.148, 1.291e-5
-1.149, 1.293e-5
-1.150, 1.328e-5
-1.151, 1.351e-5
-1.152, 1.348e-5
-1.153, 1.336e-5
-1.154, 1.341e-5
-1.155, 1.372e-5
-1.156, 1.393e-5
-1.157, 1.399e-5
-1.158, 1.381e-5
-1.159, 1.393e-5
-1.160, 1.417e-5
-1.161, 1.438e-5
-1.162, 1.458e-5
-1.163, 1.432e-5
-1.164, 1.446e-5
-1.165, 1.478e-5
-1.166, 1.510e-5
-1.167, 1.513e-5
-1.168, 1.499e-5
-1.169, 1.498e-5
-1.170, 1.554e-5
-1.171, 1.571e-5
-1.172, 1.578e-5
-1.173, 1.564e-5
-1.174, 1.579e-5
-1.175, 1.627e-5
-1.176, 1.650e-5
-1.177, 1.660e-5
-1.178, 1.649e-5
-1.179, 1.662e-5
-1.180, 1.710e-5
-1.181, 1.742e-5
-1.182, 1.738e-5
-1.183, 1.743e-5
-1.184, 1.760e-5
-1.185, 1.797e-5
-1.186, 1.849e-5
-1.187, 1.845e-5
-1.188, 1.846e-5
-1.189, 1.871e-5
-1.190, 1.916e-5
-1.191, 1.950e-5
-1.192, 1.963e-5
-1.193, 1.959e-5
-1.194, 1.996e-5
-1.195, 2.038e-5
-1.196, 2.084e-5
-1.197, 2.097e-5
-1.198, 2.094e-5
-1.199, 2.140e-5
-1.200, 2.180e-5
-1.201, 2.225e-5
-1.202, 2.253e-5
-1.203, 2.249e-5
-1.204, 2.282e-5
-1.205, 2.341e-5
-1.206, 2.390e-5
-1.207, 2.426e-5
-1.208, 2.414e-5
-1.209, 2.457e-5
-1.210, 2.530e-5
-1.211, 2.572e-5
-1.212, 2.592e-5
-1.213, 2.608e-5
-1.214, 2.643e-5
-1.215, 2.730e-5
-1.216, 2.776e-5
-1.217, 2.804e-5
-1.218, 2.818e-5
-1.219, 2.858e-5
-1.220, 2.947e-5
-1.221, 2.990e-5
-1.222, 3.026e-5
-1.223, 3.054e-5
-1.224, 3.107e-5
-1.225, 3.179e-5
-1.226, 3.257e-5
-1.227, 3.284e-5
-1.228, 3.320e-5
-1.229, 3.387e-5
-1.230, 3.455e-5
-1.231, 3.534e-5
-1.232, 3.562e-5
-1.233, 3.593e-5
-1.234, 3.679e-5
-1.235, 3.756e-5
-1.236, 3.829e-5
-1.237, 3.888e-5
-1.238, 3.911e-5
-1.239, 4.006e-5
-1.240, 4.094e-5
-1.241, 4.167e-5
-1.242, 4.231e-5
-1.243, 4.269e-5
-1.244, 4.359e-5
-1.245, 4.450e-5
-1.246, 4.554e-5
-1.247, 4.614e-5
-1.248, 4.655e-5
-1.249, 4.750e-5
-1.250, 4.866e-5
-1.251, 4.958e-5
-1.252, 5.022e-5
-1.253, 5.084e-5
-1.254, 5.197e-5
-1.255, 5.320e-5
-1.256, 5.406e-5
-1.257, 5.486e-5
-1.258, 5.557e-5
-1.259, 5.673e-5
-1.260, 5.805e-5
-1.261, 5.908e-5
-1.262, 5.981e-5
-1.263, 6.070e-5
-1.264, 6.190e-5
-1.265, 6.321e-5
-1.266, 6.444e-5
-1.267, 6.520e-5
-1.268, 6.631e-5
-1.269, 6.754e-5
-1.270, 6.899e-5
-1.271, 7.026e-5
-1.272, 7.104e-5
-1.273, 7.219e-5
-1.274, 7.365e-5
-1.275, 7.507e-5
-1.276, 7.646e-5
-1.277, 7.745e-5
-1.278, 7.859e-5
-1.279, 8.003e-5
-1.280, 8.175e-5
-1.281, 8.307e-5
-1.282, 8.425e-5
-1.283, 8.546e-5
-1.284, 8.692e-5
-1.285, 8.863e-5
-1.286, 9.033e-5
-1.287, 9.137e-5
-1.288, 9.286e-5
-1.289, 9.433e-5
-1.290, 9.631e-5
-1.291, 9.785e-5
-1.292, 9.905e-5
-1.293, 1.007e-4
-1.294, 1.022e-4
-1.295, 1.043e-4
-1.296, 1.059e-4
-1.297, 1.071e-4
-1.298, 1.090e-4
-1.299, 1.107e-4
-1.300, 1.127e-4
-1.301, 1.145e-4
-1.302, 1.159e-4
-1.303, 1.177e-4
-1.304, 1.196e-4
-1.305, 1.216e-4
-1.306, 1.237e-4
-1.307, 1.251e-4
-1.308, 1.271e-4
-1.309, 1.291e-4
-1.310, 1.311e-4
-1.311, 1.333e-4
-1.312, 1.349e-4
-1.313, 1.369e-4
-1.314, 1.391e-4
-1.315, 1.412e-4
-1.316, 1.435e-4
-1.317, 1.453e-4
-1.318, 1.472e-4
-1.319, 1.496e-4
-1.320, 1.519e-4
-1.321, 1.542e-4
-1.322, 1.562e-4
-1.323, 1.581e-4
-1.324, 1.606e-4
-1.325, 1.631e-4
-1.326, 1.655e-4
-1.327, 1.675e-4
-1.328, 1.696e-4
-1.329, 1.722e-4
-1.330, 1.749e-4
-1.331, 1.772e-4
-1.332, 1.795e-4
-1.333, 1.817e-4
-1.334, 1.843e-4
-1.335, 1.872e-4
-1.336, 1.895e-4
-1.337, 1.921e-4
-1.338, 1.943e-4
-1.339, 1.971e-4
-1.340, 1.999e-4
-1.341, 2.026e-4
-1.342, 2.049e-4
-1.343, 2.076e-4
-1.344, 2.104e-4
-1.345, 2.134e-4
-1.346, 2.163e-4
-1.347, 2.187e-4
-1.348, 2.213e-4
-1.349, 2.244e-4
-1.350, 2.274e-4
-1.351, 2.304e-4
-1.352, 2.331e-4
-1.353, 2.359e-4
-1.354, 2.389e-4
-1.355, 2.421e-4
-1.356, 2.452e-4
-1.357, 2.481e-4
-1.358, 2.510e-4
-1.359, 2.543e-4
-1.360, 2.576e-4
-1.361, 2.608e-4
-1.362, 2.638e-4
-1.363, 2.668e-4
-1.364, 2.702e-4
-1.365, 2.739e-4
-1.366, 2.771e-4
-1.367, 2.803e-4
-1.368, 2.834e-4
-1.369, 2.870e-4
-1.370, 2.910e-4
-1.371, 2.943e-4
-1.372, 2.976e-4
-1.373, 3.011e-4
-1.374, 3.048e-4
-1.375, 3.088e-4
-1.376, 3.122e-4
-1.377, 3.158e-4
-1.378, 3.196e-4
-1.379, 3.232e-4
-1.380, 3.275e-4
-1.381, 3.312e-4
-1.382, 3.351e-4
-1.383, 3.389e-4
-1.384, 3.428e-4
-1.385, 3.472e-4
-1.386, 3.514e-4
-1.387, 3.551e-4
-1.388, 3.591e-4
-1.389, 3.635e-4
-1.390, 3.680e-4
-1.391, 3.722e-4
-1.392, 3.762e-4
-1.393, 3.806e-4
-1.394, 3.850e-4
-1.395, 3.899e-4
-1.396, 3.941e-4
-1.397, 3.985e-4
-1.398, 4.029e-4
-1.399, 4.078e-4
-1.400, 4.127e-4
-1.401, 4.173e-4
-1.402, 4.220e-4
-1.403, 4.265e-4
-1.404, 4.317e-4
-1.405, 4.371e-4
-1.406, 4.417e-4
-1.407, 4.468e-4
-1.408, 4.515e-4
-1.409, 4.570e-4
-1.410, 4.627e-4
-1.411, 4.674e-4
-1.412, 4.728e-4
-1.413, 4.778e-4
-1.414, 4.837e-4
-1.415, 4.895e-4
-1.416, 4.948e-4
-1.417, 5.002e-4
-1.418, 5.061e-4
-1.419, 5.120e-4
-1.420, 5.181e-4
-1.421, 5.237e-4
-1.422, 5.295e-4
-1.423, 5.357e-4
-1.424, 5.419e-4
-1.425, 5.482e-4
-1.426, 5.546e-4
-1.427, 5.605e-4
-1.428, 5.669e-4
-1.429, 5.736e-4
-1.430, 5.804e-4
-1.431, 5.871e-4
-1.432, 5.931e-4
-1.433, 6.000e-4
-1.434, 6.077e-4
-1.435, 6.147e-4
-1.436, 6.219e-4
-1.437, 6.285e-4
-1.438, 6.354e-4
-1.439, 6.435e-4
-1.440, 6.510e-4
-1.441, 6.586e-4
-1.442, 6.657e-4
-1.443, 6.733e-4
-1.444, 6.815e-4
-1.445, 6.898e-4
-1.446, 6.978e-4
-1.447, 7.055e-4
-1.448, 7.134e-4
-1.449, 7.223e-4
-1.450, 7.308e-4
-1.451, 7.390e-4
-1.452, 7.478e-4
-1.453, 7.563e-4
-1.454, 7.657e-4
-1.455, 7.745e-4
-1.456, 7.836e-4
-1.457, 7.930e-4
-1.458, 8.020e-4
-1.459, 8.115e-4
-1.460, 8.218e-4
-1.461, 8.311e-4
-1.462, 8.409e-4
-1.463, 8.510e-4
-1.464, 8.609e-4
-1.465, 8.716e-4
-1.466, 8.815e-4
-1.467, 8.921e-4
-1.468, 9.024e-4
-1.469, 9.135e-4
-1.470, 9.249e-4
-1.471, 9.359e-4
-1.472, 9.468e-4
-1.473, 9.580e-4
-1.474, 9.700e-4
-1.475, 9.819e-4
-1.476, 9.938e-4
-1.477, 1.005e-3
-1.478, 1.017e-3
-1.479, 1.030e-3
-1.480, 1.042e-3
-1.481, 1.055e-3
-1.482, 1.068e-3
-1.483, 1.081e-3
-1.484, 1.094e-3
-1.485, 1.107e-3
-1.486, 1.121e-3
-1.487, 1.134e-3
-1.488, 1.149e-3
-1.489, 1.164e-3
-1.490, 1.177e-3
-1.491, 1.191e-3
-1.492, 1.206e-3
-1.493, 1.222e-3
-1.494, 1.236e-3
-1.495, 1.252e-3
-1.496, 1.267e-3
-1.497, 1.282e-3
-1.498, 1.298e-3
-1.499, 1.314e-3
-1.500, 1.302e-3
-1.499, 1.277e-3
-1.498, 1.253e-3
-1.497, 1.230e-3
-1.496, 1.209e-3
-1.495, 1.188e-3
-1.494, 1.166e-3
-1.493, 1.145e-3
-1.492, 1.125e-3
-1.491, 1.104e-3
-1.490, 1.086e-3
-1.489, 1.066e-3
-1.488, 1.047e-3
-1.487, 1.029e-3
-1.486, 1.011e-3
-1.485, 9.938e-4
-1.484, 9.759e-4
-1.483, 9.589e-4
-1.482, 9.426e-4
-1.481, 9.267e-4
-1.480, 9.111e-4
-1.479, 8.953e-4
-1.478, 8.796e-4
-1.477, 8.647e-4
-1.476, 8.502e-4
-1.475, 8.359e-4
-1.474, 8.217e-4
-1.473, 8.073e-4
-1.472, 7.942e-4
-1.471, 7.807e-4
-1.470, 7.678e-4
-1.469, 7.551e-4
-1.468, 7.418e-4
-1.467, 7.295e-4
-1.466, 7.177e-4
-1.465, 7.060e-4
-1.464, 6.943e-4
-1.463, 6.825e-4
-1.462, 6.711e-4
-1.461, 6.604e-4
-1.460, 6.497e-4
-1.459, 6.388e-4
-1.458, 6.280e-4
-1.457, 6.180e-4
-1.456, 6.080e-4
-1.455, 5.985e-4
-1.454, 5.883e-4
-1.453, 5.787e-4
-1.452, 5.695e-4
-1.451, 5.605e-4
-1.450, 5.517e-4
-1.449, 5.427e-4
-1.448, 5.337e-4
-1.447, 5.254e-4
-1.446, 5.172e-4
-1.445, 5.091e-4
-1.444, 5.011e-4
-1.443, 4.927e-4
-1.442, 4.851e-4
-1.441, 4.778e-4
-1.440, 4.704e-4
-1.439, 4.629e-4
-1.438, 4.553e-4
-1.437, 4.487e-4
-1.436, 4.418e-4
-1.435, 4.351e-4
-1.434, 4.282e-4
-1.433, 4.214e-4
-1.432, 4.151e-4
-1.431, 4.089e-4
-1.430, 4.029e-4
-1.429, 3.965e-4
-1.428, 3.906e-4
-1.427, 3.844e-4
-1.426, 3.791e-4
-1.425, 3.735e-4
-1.424, 3.677e-4
-1.423, 3.621e-4
-1.422, 3.567e-4
-1.421, 3.518e-4
-1.420, 3.466e-4
-1.419, 3.411e-4
-1.418, 3.364e-4
-1.417, 3.313e-4
-1.416, 3.268e-4
-1.415, 3.222e-4
-1.414, 3.171e-4
-1.413, 3.127e-4
-1.412, 3.081e-4
-1.411, 3.040e-4
-1.410, 2.998e-4
-1.409, 2.951e-4
-1.408, 2.910e-4
-1.407, 2.869e-4
-1.406, 2.831e-4
-1.405, 2.792e-4
-1.404, 2.751e-4
-1.403, 2.712e-4
-1.402, 2.675e-4
-1.401, 2.639e-4
-1.400, 2.605e-4
-1.399, 2.566e-4
-1.398, 2.529e-4
-1.397, 2.496e-4
-1.396, 2.465e-4
-1.395, 2.430e-4
-1.394, 2.397e-4
-1.393, 2.360e-4
-1.392, 2.332e-4
-1.391, 2.302e-4
-1.390, 2.269e-4
-1.389, 2.238e-4
-1.388, 2.205e-4
-1.387, 2.178e-4
-1.386, 2.153e-4
-1.385, 2.122e-4
-1.384, 2.093e-4
-1.383, 2.062e-4
-1.382, 2.036e-4
-1.381, 2.012e-4
-1.380, 1.986e-4
-1.379, 1.956e-4
-1.378, 1.928e-4
-1.377, 1.902e-4
-1.376, 1.880e-4
-1.375, 1.856e-4
-1.374, 1.829e-4
-1.373, 1.803e-4
-1.372, 1.781e-4
-1.371, 1.759e-4
-1.370, 1.735e-4
-1.369, 1.710e-4
-1.368, 1.686e-4
-1.367, 1.665e-4
-1.366, 1.643e-4
-1.365, 1.622e-4
-1.364, 1.598e-4
-1.363, 1.574e-4
-1.362, 1.555e-4
-1.361, 1.536e-4
-1.360, 1.517e-4
-1.359, 1.492e-4
-1.358, 1.469e-4
-1.357, 1.452e-4
-1.356, 1.435e-4
-1.355, 1.415e-4
-1.354, 1.393e-4
-1.353, 1.371e-4
-1.352, 1.355e-4
-1.351, 1.339e-4
-1.350, 1.318e-4
-1.349, 1.298e-4
-1.348, 1.279e-4
-1.347, 1.261e-4
-1.346, 1.247e-4
-1.345, 1.229e-4
-1.344, 1.208e-4
-1.343, 1.190e-4
-1.342, 1.173e-4
-1.341, 1.160e-4
-1.340, 1.143e-4
-1.339, 1.122e-4
-1.338, 1.106e-4
-1.337, 1.089e-4
-1.336, 1.078e-4
-1.335, 1.061e-4
-1.334, 1.041e-4
-1.333, 1.024e-4
-1.332, 1.010e-4
-1.331, 9.975e-5
-1.330, 9.808e-5
-1.329, 9.628e-5
-1.328, 9.471e-5
-1.327, 9.327e-5
-1.326, 9.214e-5
-1.325, 9.062e-5
-1.324, 8.880e-5
-1.323, 8.718e-5
-1.322, 8.597e-5
-1.321, 8.485e-5
-1.320, 8.330e-5
-1.319, 8.161e-5
-1.318, 8.000e-5
-1.317, 7.898e-5
-1.316, 7.778e-5
-1.315, 7.633e-5
-1.314, 7.470e-5
-1.313, 7.318e-5
-1.312, 7.222e-5
-1.311, 7.116e-5
-1.310, 6.953e-5
-1.309, 6.810e-5
-1.308, 6.679e-5
-1.307, 6.571e-5
-1.306, 6.467e-5
-1.305, 6.311e-5
-1.304, 6.192e-5
-1.303, 6.048e-5
-1.302, 5.960e-5
-1.301, 5.854e-5
-1.300, 5.724e-5
-1.299, 5.577e-5
-1.298, 5.464e-5
-1.297, 5.369e-5
-1.296, 5.267e-5
-1.295, 5.159e-5
-1.294, 5.008e-5
-1.293, 4.896e-5
-1.292, 4.817e-5
-1.291, 4.714e-5
-1.290, 4.606e-5
-1.289, 4.474e-5
-1.288, 4.364e-5
-1.287, 4.307e-5
-1.286, 4.193e-5
-1.285, 4.097e-5
-1.284, 3.973e-5
-1.283, 3.856e-5
-1.282, 3.818e-5
-1.281, 3.696e-5
-1.280, 3.608e-5
-1.279, 3.491e-5
-1.278, 3.378e-5
-1.277, 3.351e-5
-1.276, 3.251e-5
-1.275, 3.142e-5
-1.274, 3.045e-5
-1.273, 2.951e-5
-1.272, 2.903e-5
-1.271, 2.813e-5
-1.270, 2.714e-5
-1.269, 2.632e-5
-1.268, 2.534e-5
-1.267, 2.475e-5
-1.266, 2.412e-5
-1.265, 2.321e-5
-1.264, 2.226e-5
-1.263, 2.144e-5
-1.262, 2.086e-5
-1.261, 2.036e-5
-1.260, 1.950e-5
-1.259, 1.851e-5
-1.258, 1.779e-5
-1.257, 1.732e-5
-1.256, 1.695e-5
-1.255, 1.614e-5
-1.254, 1.505e-5
-1.253, 1.451e-5
-1.252, 1.409e-5
-1.251, 1.361e-5
-1.250, 1.292e-5
-1.249, 1.196e-5
-1.248, 1.150e-5
-1.247, 1.106e-5
-1.246, 1.067e-5
-1.245, 1.002e-5
-1.244, 9.208e-6
-1.243, 8.564e-6
-1.242, 8.373e-6
-1.241, 7.935e-6
-1.240, 7.288e-6
-1.239, 6.600e-6
-1.238, 6.101e-6
-1.237, 5.963e-6
-1.236, 5.568e-6
-1.235, 4.945e-6
-1.234, 4.249e-6
-1.233, 3.702e-6
-1.232, 3.733e-6
-1.231, 3.303e-6
-1.230, 2.843e-6
-1.229, 1.864e-6
-1.228, 1.741e-6
-1.227, 1.562e-6
-1.226, 1.401e-6
-1.225, 8.246e-7
-1.224, 2.386e-7
-1.223, -1.087e-7
-1.222, -1.699e-7
-1.221, -3.356e-7
-1.220, -7.500e-7
-1.219, -1.532e-6
-1.218, -1.705e-6
-1.217, -1.818e-6
-1.216, -2.002e-6
-1.215, -2.362e-6
-1.214, -3.140e-6
-1.213, -3.170e-6
-1.212, -3.211e-6
-1.211, -3.521e-6
-1.210, -3.757e-6
-1.209, -4.489e-6
-1.208, -4.541e-6
-1.207, -4.587e-6
-1.206, -4.752e-6
-1.205, -5.036e-6
-1.204, -5.629e-6
-1.203, -5.757e-6
-1.202, -5.717e-6
-1.201, -5.963e-6
-1.200, -6.164e-6
-1.199, -6.740e-6
-1.198, -6.874e-6
-1.197, -6.751e-6
-1.196, -6.857e-6
-1.195, -7.266e-6
-1.194, -7.592e-6
-1.193, -7.833e-6
-1.192, -7.573e-6
-1.191, -7.735e-6
-1.190, -8.055e-6
-1.189, -8.506e-6
-1.188, -8.550e-6
-1.187, -8.442e-6
-1.186, -8.436e-6
-1.185, -8.805e-6
-1.184, -9.243e-6
-1.183, -9.210e-6
-1.182, -9.152e-6
-1.181, -9.108e-6
-1.180, -9.504e-6
-1.179, -9.931e-6
-1.178, -9.837e-6
-1.177, -9.696e-6
-1.176, -9.677e-6
-1.175, -1.007e-5
-1.174, -1.039e-5
-1.173, -1.025e-5
-1.172, -1.015e-5
-1.171, -1.016e-5
-1.170, -1.061e-5
-1.169, -1.073e-5
-1.168, -1.072e-5
-1.167, -1.053e-5
-1.166, -1.071e-5
-1.165, -1.096e-5
-1.164, -1.110e-5
-1.163, -1.121e-5
-1.162, -1.092e-5
-1.161, -1.104e-5
-1.160, -1.136e-5
-1.159, -1.143e-5
-1.158, -1.163e-5
-1.157, -1.130e-5
-1.156, -1.126e-5
-1.155, -1.176e-5
-1.154, -1.179e-5
-1.153, -1.189e-5
-1.152, -1.161e-5
-1.151, -1.158e-5
-1.150, -1.212e-5
-1.149, -1.207e-5
-1.148, -1.217e-5
-1.147, -1.201e-5
-1.146, -1.194e-5
-1.145, -1.241e-5
-1.144, -1.245e-5
-1.143, -1.233e-5
-1.142, -1.226e-5
-1.141, -1.214e-5
-1.140, -1.261e-5
-1.139, -1.268e-5
-1.138, -1.265e-5
-1.137, -1.241e-5
-1.136, -1.246e-5
-1.135, -1.276e-5
-1.134, -1.300e-5
-1.133, -1.283e-5
-1.132, -1.266e-5
-1.131, -1.271e-5
-1.130, -1.296e-5
-1.129, -1.309e-5
-1.128, -1.307e-5
-1.127, -1.282e-5
-1.126, -1.293e-5
-1.125, -1.304e-5
-1.124, -1.325e-5
-1.123, -1.322e-5
-1.122, -1.305e-5
-1.121, -1.304e-5
-1.120, -1.317e-5
-1.119, -1.344e-5
-1.118, -1.325e-5
-1.117, -1.318e-5
-1.116, -1.293e-5
-1.115, -1.345e-5
-1.114, -1.358e-5
-1.113, -1.343e-5
-1.112, -1.329e-5
-1.111, -1.316e-5
-1.110, -1.349e-5
-1.109, -1.371e-5
-1.108, -1.350e-5
-1.107, -1.342e-5
-1.106, -1.332e-5
-1.105, -1.364e-5
-1.104, -1.382e-5
-1.103, -1.365e-5
-1.102, -1.349e-5
-1.101, -1.350e-5
-1.100, -1.368e-5
-1.099, -1.405e-5
-1.098, -1.377e-5
-1.097, -1.358e-5
-1.096, -1.364e-5
-1.095, -1.370e-5
-1.094, -1.415e-5
-1.093, -1.383e-5
-1.092, -1.367e-5
-1.091, -1.379e-5
-1.090, -1.390e-5
-1.089, -1.429e-5
-1.088, -1.395e-5
-1.087, -1.377e-5
-1.086, -1.391e-5
-1.085, -1.413e-5
-1.084, -1.429e-5
-1.083, -1.437e-5
-1.082, -1.395e-5
-1.081, -1.402e-5
-1.080, -1.434e-5
-1.079, -1.441e-5
-1.078, -1.446e-5
-1.077, -1.403e-5
-1.076, -1.426e-5
-1.075, -1.458e-5
-1.074, -1.459e-5
-1.073, -1.458e-5
-1.072, -1.423e-5
-1.071, -1.435e-5
-1.070, -1.466e-5
-1.069, -1.474e-5
-1.068, -1.465e-5
-1.067, -1.443e-5
-1.066, -1.442e-5
-1.065, -1.479e-5
-1.064, -1.484e-5
-1.063, -1.469e-5
-1.062, -1.457e-5
-1.061, -1.460e-5
-1.060, -1.489e-5
-1.059, -1.508e-5
-1.058, -1.479e-5
-1.057, -1.465e-5
-1.056, -1.474e-5
-1.055, -1.493e-5
-1.054, -1.516e-5
-1.053, -1.497e-5
-1.052, -1.468e-5
-1.051, -1.495e-5
-1.050, -1.514e-5
-1.049, -1.533e-5
-1.048, -1.510e-5
-1.047, -1.478e-5
-1.046, -1.513e-5
-1.045, -1.527e-5
-1.044, -1.541e-5
-1.043, -1.535e-5
-1.042, -1.491e-5
-1.041, -1.529e-5
-1.040, -1.545e-5
-1.039, -1.562e-5
-1.038, -1.544e-5
-1.037, -1.517e-5
-1.036, -1.534e-5
-1.035, -1.575e-5
-1.034, -1.580e-5
-1.033, -1.564e-5
-1.032, -1.529e-5
-1.031, -1.555e-5
-1.030, -1.595e-5
-1.029, -1.598e-5
-1.028, -1.568e-5
-1.027, -1.568e-5
-1.026, -1.576e-5
-1.025, -1.610e-5
-1.024, -1.630e-5
-1.023, -1.588e-5
-1.022, -1.589e-5
-1.021, -1.598e-5
-1.020, -1.634e-5
-1.019, -1.643e-5
-1.018, -1.607e-5
-1.017, -1.611e-5
-1.016, -1.623e-5
-1.015, -1.647e-5
-1.014, -1.668e-5
-1.013, -1.631e-5
-1.012, -1.623e-5
-1.011, -1.651e-5
-1.010, -1.662e-5
-1.009, -1.691e-5
-1.008, -1.647e-5
-1.007, -1.646e-5
-1.006, -1.656e-5
-1.005, -1.680e-5
-1.004, -1.709e-5
-1.003, -1.659e-5
-1.002, -1.665e-5
-1.001, -1.669e-5
-1.000, -1.671e-6
-1.001, 1.985e-6
-1.002, 3.030e-6
-1.003, 3.432e-6
-1.004, 3.960e-6
-1.005, 3.896e-6
-1.006, 4.069e-6
-1.007, 4.854e-6
-1.008, 4.979e-6
-1.009, 5.140e-6
-1.010, 5.148e-6
-1.011, 5.143e-6
-1.012, 5.765e-6
-1.013, 5.919e-6
-1.014, 5.897e-6
-1.015, 5.973e-6
-1.016, 5.972e-6
-1.017, 6.470e-6
-1.018, 6.611e-6
-1.019, 6.557e-6
-1.020, 6.547e-6
-1.021, 6.555e-6
-1.022, 6.924e-6
-1.023, 7.153e-6
-1.024, 7.194e-6
-1.025, 7.003e-6
-1.026, 7.055e-6
-1.027, 7.335e-6
-1.028, 7.542e-6
-1.029, 7.540e-6
-1.030, 7.381e-6
-1.031, 7.392e-6
-1.032, 7.615e-6
-1.033, 7.872e-6
-1.034, 7.874e-6
-1.035, 7.665e-6
-1.036, 7.747e-6
-1.037, 7.982e-6
-1.038, 8.158e-6
-1.039, 8.231e-6
-1.040, 7.886e-6
-1.041, 7.928e-6
-1.042, 8.267e-6
-1.043, 8.380e-6
-1.044, 8.376e-6
-1.045, 8.062e-6
-1.046, 8.118e-6
-1.047, 8.471e-6
-1.048, 8.681e-6
-1.049, 8.508e-6
-1.050, 8.379e-6
-1.051, 8.399e-6
-1.052, 8.626e-6
-1.053, 8.833e-6
-1.054, 8.765e-6
-1.055, 8.526e-6
-1.056, 8.543e-6
-1.057, 8.867e-6
-1.058, 9.150e-6
-1.059, 8.954e-6
-1.060, 8.718e-6
-1.061, 8.819e-6
-1.062, 8.982e-6
-1.063, 9.322e-6
-1.064, 9.146e-6
-1.065, 8.837e-6
-1.066, 9.057e-6
-1.067, 9.212e-6
-1.068, 9.431e-6
-1.069, 9.403e-6
-1.070, 9.115e-6
-1.071, 9.226e-6
-1.072, 9.437e-6
-1.073, 9.519e-6
-1.074, 9.560e-6
-1.075, 9.308e-6
-1.076, 9.312e-6
-1.077, 9.735e-6
-1.078, 9.694e-6
-1.079, 9.797e-6
-1.080, 9.266e-6
-1.081, 9.450e-6
-1.082, 9.875e-6
-1.083, 9.826e-6
-1.084, 9.834e-6
-1.085, 9.485e-6
-1.086, 9.687e-6
-1.087, 9.968e-6
-1.088, 9.915e-6
-1.089, 9.977e-6
-1.090, 9.703e-6
-1.091, 9.827e-6
-1.092, 1.007e-5
-1.093, 1.017e-5
-1.094, 1.000e-5
-1.095, 9.794e-6
-1.096, 9.799e-6
-1.097, 1.020e-5
-1.098, 1.028e-5
-1.099, 1.021e-5
-1.100, 9.933e-6
-1.101, 1.003e-5
-1.102, 1.027e-5
-1.103, 1.040e-5
-1.104, 1.027e-5
-1.105, 1.005e-5
-1.106, 1.025e-5
-1.107, 1.036e-5
-1.108, 1.046e-5
-1.109, 1.048e-5
-1.110, 1.015e-5
-1.111, 1.029e-5
-1.112, 1.052e-5
-1.113, 1.065e-5
-1.114, 1.067e-5
-1.115, 1.019e-5
-1.116, 1.054e-5
-1.117, 1.069e-5
-1.118, 1.089e-5
-1.119, 1.075e-5
-1.120, 1.052e-5
-1.121, 1.061e-5
-1.122, 1.098e-5
-1.123, 1.106e-5
-1.124, 1.090e-5
-1.125, 1.068e-5
-1.126, 1.085e-5
-1.127, 1.130e-5
-1.128, 1.126e-5
-1.129, 1.103e-5
-1.130, 1.101e-5
-1.131, 1.114e-5
-1.132, 1.149e-5
-1.133, 1.154e-5
-1.134, 1.129e-5
-1.135, 1.124e-5
-1.136, 1.140e-5
-1.137, 1.171e-5
-1.138, 1.189e-5
-1.139, 1.160e-5
-1.140, 1.150e-5
-1.141, 1.170e-5
-1.142, 1.195e-5
-1.143, 1.218e-5
-1.144, 1.184e-5
-1.145, 1.182e-5
-1.146, 1.205e-5
-1.147, 1.222e-5
-1.148, 1.245e-5
-1.149, 1.211e-5
-1.150, 1.222e-5
-1.151, 1.234e-5
-1.152, 1.258e-5
-1.153, 1.278e-5
-1.154, 1.258e-5
-1.155, 1.242e-5
-1.156, 1.265e-5
-1.157, 1.300e-5
-1.158, 1.309e-5
-1.159, 1.292e-5
-1.160, 1.284e-5
-1.161, 1.298e-5
-1.162, 1.339e-5
-1.163, 1.353e-5
-1.164, 1.323e-5
-1.165, 1.329e-5
-1.166, 1.344e-5
-1.167, 1.389e-5
-1.168, 1.396e-5
-1.169, 1.367e-5
-1.170, 1.387e-5
-1.171, 1.391e-5
-1.172, 1.432e-5
-1.173, 1.448e-5
-1.174, 1.426e-5
-1.175, 1.447e-5
-1.176, 1.455e-5
-1.177, 1.504e-5
-1.178, 1.520e-5
-1.179, 1.494e-5
-1.180, 1.508e-5
-1.181, 1.530e-5
-1.182, 1.559e-5
-1.183, 1.587e-5
-1.184, 1.575e-5
-1.185, 1.569e-5
-1.186, 1.612e-5
-1.187, 1.638e-5
-1.188, 1.671e-5
-1.189, 1.658e-5
-1.190, 1.663e-5
-1.191, 1.701e-5
-1.192, 1.731e-5
-1.193, 1.752e-5
-1.194, 1.760e-5
-1.195, 1.752e-5
-1.196, 1.796e-5
-1.197, 1.843e-5
-1.198, 1.857e-5
-1.199, 1.873e-5
-1.200, 1.862e-5
-1.201, 1.902e-5
-1.202, 1.950e-5
-1.203, 1.981e-5
-1.204, 1.983e-5
-1.205, 1.989e-5
-1.206, 2.023e-5
-1.207, 2.093e-5
-1.208, 2.100e-5
-1.209, 2.112e-5
-1.210, 2.130e-5
-1.211, 2.177e-5
-1.212, 2.228e-5
-1.213, 2.259e-5
-1.214, 2.260e-5
-1.215, 2.289e-5
-1.216, 2.329e-5
-1.217, 2.385e-5
-1.218, 2.424e-5
-1.219, 2.435e-5
-1.220, 2.452e-5
-1.221, 2.498e-5
-1.222, 2.578e-5
-1.223, 2.609e-5
-1.224, 2.620e-5
-1.225, 2.642e-5
-1.226, 2.704e-5
-1.227, 2.775e-5
-1.228, 2.821e-5
-1.229, 2.847e-5
-1.230, 2.864e-5
-1.231, 2.935e-5
-1.232, 2.992e-5
-1.233, 3.041e-5
-1.234, 3.068e-5
-1.235, 3.096e-5
-1.236, 3.173e-5
-1.237, 3.249e-5
-1.238, 3.304e-5
-1.239, 3.332e-5
-1.240, 3.372e-5
-1.241, 3.436e-5
-1.242, 3.543e-5
-1.243, 3.584e-5
-1.244, 3.625e-5
-1.245, 3.685e-5
-1.246, 3.744e-5
-1.247, 3.857e-5
-1.248, 3.908e-5
-1.249, 3.941e-5
-1.250, 4.017e-5
-1.251, 4.088e-5
-1.252, 4.207e-5
-1.253, 4.251e-5
-1.254, 4.319e-5
-1.255, 4.386e-5
-1.256, 4.466e-5
-1.257, 4.582e-5
-1.258, 4.657e-5
-1.259, 4.705e-5
-1.260, 4.784e-5
-1.261, 4.891e-5
-1.262, 5.003e-5
-1.263, 5.079e-5
-1.264, 5.136e-5
-1.265, 5.220e-5
-1.266, 5.347e-5
-1.267, 5.454e-5
-1.268, 5.556e-5
-1.269, 5.609e-5
-1.270, 5.707e-5
-1.271, 5.827e-5
-1.272, 5.949e-5
-1.273, 6.040e-5
-1.274, 6.131e-5
-1.275, 6.222e-5
-1.276, 6.349e-5
-1.277, 6.501e-5
-1.278, 6.572e-5
-1.279, 6.680e-5
-1.280, 6.792e-5
-1.281, 6.924e-5
-1.282, 7.085e-5
-1.283, 7.170e-5
-1.284, 7.273e-5
-1.285, 7.378e-5
-1.286, 7.538e-5
-1.287, 7.694e-5
-1.288, 7.795e-5
-1.289, 7.909e-5
-1.290, 8.033e-5
-1.291, 8.193e-5
-1.292, 8.345e-5
-1.293, 8.482e-5
-1.294, 8.577e-5
-1.295, 8.726e-5
-1.296, 8.897e-5
-1.297, 9.055e-5
-1.298, 9.195e-5
-1.299, 9.304e-5
-1.300, 9.458e-5
-1.301, 9.637e-5
-1.302, 9.803e-5
-1.303, 9.951e-5
-1.304, 1.009e-4
-1.305, 1.023e-4
-1.306, 1.044e-4
-1.307, 1.060e-4
-1.308, 1.076e-4
-1.309, 1.091e-4
-1.310, 1.106e-4
-1.311, 1.128e-4
-1.312, 1.145e-4
-1.313, 1.161e-4
-1.314, 1.178e-4
-1.315, 1.193e-4
-1.316, 1.216e-4
-1.317, 1.234e-4
-1.318, 1.252e-4
-1.319, 1.269e-4
-1.320, 1.285e-4
-1.321, 1.310e-4
-1.322, 1.328e-4
-1.323, 1.347e-4
-1.324, 1.364e-4
-1.325, 1.383e-4
-1.326, 1.406e-4
-1.327, 1.427e-4
-1.328, 1.447e-4
-1.329, 1.464e-4
-1.330, 1.485e-4
-1.331, 1.508e-4
-1.332, 1.529e-4
-1.333, 1.551e-4
-1.334, 1.569e-4
-1.335, 1.590e-4
-1.336, 1.615e-4
-1.337, 1.636e-4
-1.338, 1.659e-4
-1.339, 1.678e-4
-1.340, 1.701e-4
-1.341, 1.725e-4
-1.342, 1.750e-4
-1.343, 1.771e-4
-1.344, 1.792e-4
-1.345, 1.815e-4
-1.346, 1.842e-4
-1.347, 1.865e-4
-1.348, 1.889e-4
-1.349, 1.912e-4
-1.350, 1.935e-4
-1.351, 1.963e-4
-1.352, 1.988e-4
-1.353, 2.013e-4
-1.354, 2.035e-4
-1.355, 2.059e-4
-1.356, 2.088e-4
-1.357, 2.116e-4
-1.358, 2.140e-4
-1.359, 2.165e-4
-1.360, 2.190e-4
-1.361, 2.219e-4
-1.362, 2.249e-4
-1.363, 2.275e-4
-1.364, 2.300e-4
-1.365, 2.327e-4
-1.366, 2.357e-4
-1.367, 2.388e-4
-1.368, 2.415e-4
-1.369, 2.439e-4
-1.370, 2.472e-4
-1.371, 2.501e-4
-1.372, 2.533e-4
-1.373, 2.561e-4
-1.374, 2.588e-4
-1.375, 2.621e-4
-1.376, 2.651e-4
-1.377, 2.684e-4
-1.378, 2.716e-4
-1.379, 2.745e-4
-1.380, 2.777e-4
-1.381, 2.811e-4
-1.382, 2.846e-4
-1.383, 2.879e-4
-1.384, 2.908e-4
-1.385, 2.941e-4
-1.386, 2.980e-4
-1.387, 3.012e-4
-1.388, 3.049e-4
-1.389, 3.079e-4
-1.390, 3.116e-4
-1.391, 3.155e-4
-1.392, 3.190e-4
-1.393, 3.225e-4
-1.394, 3.261e-4
-1.395, 3.298e-4
-1.396, 3.339e-4
-1.397, 3.377e-4
-1.398, 3.415e-4
-1.399, 3.450e-4
-1.400, 3.491e-4
-1.401, 3.534e-4
-1.402, 3.574e-4
-1.403, 3.614e-4
-1.404, 3.652e-4
-1.405, 3.693e-4
-1.406, 3.740e-4
-1.407, 3.781e-4
-1.408, 3.824e-4
-1.409, 3.863e-4
-1.410, 3.909e-4
-1.411, 3.956e-4
-1.412, 4.003e-4
-1.413, 4.047e-4
-1.414, 4.089e-4
-1.415, 4.136e-4
-1.416, 4.187e-4
-1.417, 4.235e-4
-1.418, 4.281e-4
-1.419, 4.329e-4
-1.420, 4.377e-4
-1.421, 4.432e-4
-1.422, 4.482e-4
-1.423, 4.534e-4
-1.424, 4.581e-4
-1.425, 4.635e-4
-1.426, 4.692e-4
-1.427, 4.747e-4
-1.428, 4.802e-4
-1.429, 4.853e-4
-1.430, 4.908e-4
-1.431, 4.972e-4
-1.432, 5.027e-4
-1.433, 5.087e-4
-1.434, 5.144e-4
-1.435, 5.201e-4
-1.436, 5.269e-4
-1.437, 5.328e-4
-1.438, 5.392e-4
-1.439, 5.451e-4
-1.440, 5.515e-4
-1.441, 5.583e-4
-1.442, 5.653e-4
-1.443, 5.716e-4
-1.444, 5.782e-4
-1.445, 5.849e-4
-1.446, 5.922e-4
-1.447, 5.997e-4
-1.448, 6.064e-4
-1.449, 6.134e-4
-1.450, 6.209e-4
-1.451, 6.286e-4
-1.452, 6.365e-4
-1.453, 6.437e-4
-1.454, 6.513e-4
-1.455, 6.593e-4
-1.456, 6.672e-4
-1.457, 6.756e-4
-1.458, 6.840e-4
-1.459, 6.923e-4
-1.460, 7.008e-4
-1.461, 7.094e-4
-1.462, 7.182e-4
-1.463, 7.271e-4
-1.464, 7.361e-4
-1.465, 7.449e-4
-1.466, 7.545e-4
-1.467, 7.637e-4
-1.468, 7.731e-4
-1.469, 7.829e-4
-1.470, 7.923e-4
-1.471, 8.026e-4
-1.472, 8.126e-4
-1.473, 8.225e-4
-1.474, 8.330e-4
-1.475, 8.435e-4
-1.476, 8.547e-4
-1.477, 8.654e-4
-1.478, 8.756e-4
-1.479, 8.874e-4
-1.480, 8.982e-4
-1.481, 9.100e-4
-1.482, 9.218e-4
-1.483, 9.331e-4
-1.484, 9.452e-4
-1.485, 9.570e-4
-1.486, 9.700e-4
-1.487, 9.823e-4
-1.488, 9.944e-4
-1.489, 1.007e-3
-1.490, 1.021e-3
-1.491, 1.034e-3
-1.492, 1.047e-3
-1.493, 1.060e-3
-1.494, 1.074e-3
-1.495, 1.088e-3
-1.496, 1.102e-3
-1.497, 1.117e-3
-1.498, 1.132e-3
-1.499, 1.147e-3
-1.500, 1.133e-3
-1.499, 1.110e-3
-1.498, 1.090e-3
-1.497, 1.070e-3
-1.496, 1.050e-3
-1.495, 1.030e-3
-1.494, 1.012e-3
-1.493, 9.932e-4
-1.492, 9.746e-4
-1.491, 9.569e-4
-1.490, 9.389e-4
-1.489, 9.222e-4
-1.488, 9.056e-4
-1.487, 8.891e-4
-1.486, 8.734e-4
-1.485, 8.579e-4
-1.484, 8.430e-4
-1.483, 8.278e-4
-1.482, 8.122e-4
-1.481, 7.977e-4
-1.480, 7.842e-4
-1.479, 7.706e-4
-1.478, 7.569e-4
-1.477, 7.435e-4
-1.476, 7.299e-4
-1.475, 7.178e-4
-1.474, 7.055e-4
-1.473, 6.931e-4
-1.472, 6.810e-4
-1.471, 6.691e-4
-1.470, 6.574e-4
-1.469, 6.468e-4
-1.468, 6.355e-4
-1.467, 6.243e-4
-1.466, 6.137e-4
-1.465, 6.030e-4
-1.464, 5.932e-4
-1.463, 5.835e-4
-1.462, 5.732e-4
-1.461, 5.634e-4
-1.460, 5.540e-4
-1.459, 5.449e-4
-1.458, 5.361e-4
-1.457, 5.270e-4
-1.456, 5.179e-4
-1.455, 5.096e-4
-1.454, 5.013e-4
-1.453, 4.930e-4
-1.452, 4.848e-4
-1.451, 4.766e-4
-1.450, 4.690e-4
-1.449, 4.614e-4
-1.448, 4.541e-4
-1.447, 4.466e-4
-1.446, 4.388e-4
-1.445, 4.319e-4
-1.444, 4.250e-4
-1.443, 4.179e-4
-1.442, 4.115e-4
-1.441, 4.048e-4
-1.440, 3.986e-4
-1.439, 3.924e-4
-1.438, 3.861e-4
-1.437, 3.801e-4
-1.436, 3.740e-4
-1.435, 3.681e-4
-1.434, 3.627e-4
-1.433, 3.569e-4
-1.432, 3.512e-4
-1.431, 3.456e-4
-1.430, 3.404e-4
-1.429, 3.355e-4
-1.428, 3.302e-4
-1.427, 3.248e-4
-1.426, 3.198e-4
-1.425, 3.152e-4
-1.424, 3.109e-4
-1.423, 3.062e-4
-1.422, 3.013e-4
-1.421, 2.968e-4
-1.420, 2.924e-4
-1.419, 2.883e-4
-1.418, 2.842e-4
-1.417, 2.797e-4
-1.416, 2.755e-4
-1.415, 2.716e-4
-1.414, 2.679e-4
-1.413, 2.641e-4
-1.412, 2.600e-4
-1.411, 2.559e-4
-1.410, 2.524e-4
-1.409, 2.491e-4
-1.408, 2.458e-4
-1.407, 2.420e-4
-1.406, 2.384e-4
-1.405, 2.353e-4
-1.404, 2.323e-4
-1.403, 2.290e-4
-1.402, 2.255e-4
-1.401, 2.223e-4
-1.400, 2.194e-4
-1.399, 2.166e-4
-1.398, 2.134e-4
-1.397, 2.103e-4
-1.396, 2.074e-4
-1.395, 2.045e-4
-1.394, 2.021e-4
-1.393, 1.991e-4
-1.392, 1.964e-4
-1.391, 1.937e-4
-1.390, 1.911e-4
-1.389, 1.889e-4
-1.388, 1.863e-4
-1.387, 1.835e-4
-1.386, 1.810e-4
-1.385, 1.786e-4
-1.384, 1.766e-4
-1.383, 1.741e-4
-1.382, 1.714e-4
-1.381, 1.691e-4
-1.380, 1.670e-4
-1.379, 1.650e-4
-1.378, 1.627e-4
-1.377, 1.602e-4
-1.376, 1.581e-4
-1.375, 1.562e-4
-1.374, 1.544e-4
-1.373, 1.523e-4
-1.372, 1.499e-4
-1.371, 1.479e-4
-1.370, 1.460e-4
-1.369, 1.443e-4
-1.368, 1.423e-4
-1.367, 1.402e-4
-1.366, 1.381e-4
-1.365, 1.366e-4
-1.364, 1.349e-4
-1.363, 1.329e-4
-1.362, 1.308e-4
-1.361, 1.288e-4
-1.360, 1.274e-4
-1.359, 1.260e-4
-1.358, 1.240e-4
-1.357, 1.221e-4
-1.356, 1.203e-4
-1.355, 1.188e-4
-1.354, 1.175e-4
-1.353, 1.156e-4
-1.352, 1.138e-4
-1.351, 1.122e-4
-1.350, 1.106e-4
-1.349, 1.093e-4
-1.348, 1.076e-4
-1.347, 1.057e-4
-1.346, 1.042e-4
-1.345, 1.029e-4
-1.344, 1.017e-4
-1.343, 9.995e-5
-1.342, 9.812e-5
-1.341, 9.674e-5
-1.340, 9.558e-5
-1.339, 9.416e-5
-1.338, 9.273e-5
-1.337, 9.094e-5
-1.336, 8.952e-5
-1.335, 8.855e-5
-1.334, 8.716e-5
-1.333, 8.561e-5
-1.332, 8.411e-5
-1.331, 8.253e-5
-1.330, 8.167e-5
-1.329, 8.042e-5
-1.328, 7.904e-5
-1.327, 7.757e-5
-1.326, 7.600e-5
-1.325, 7.520e-5
-1.324, 7.395e-5
-1.323, 7.259e-5
-1.322, 7.117e-5
-1.321, 6.971e-5
-1.320, 6.894e-5
-1.319, 6.780e-5
-1.318, 6.638e-5
-1.317, 6.515e-5
-1.316, 6.368e-5
-1.315, 6.287e-5
-1.314, 6.189e-5
-1.313, 6.066e-5
-1.312, 5.935e-5
-1.311, 5.800e-5
-1.310, 5.725e-5
-1.309, 5.623e-5
-1.308, 5.501e-5
-1.307, 5.368e-5
-1.306, 5.255e-5
-1.305, 5.179e-5
-1.304, 5.087e-5
-1.303, 4.970e-5
-1.302, 4.835e-5
-1.301, 4.732e-5
-1.300, 4.670e-5
-1.299, 4.560e-5
-1.298, 4.465e-5
-1.297, 4.342e-5
-1.296, 4.234e-5
-1.295, 4.188e-5
-1.294, 4.078e-5
-1.293, 3.981e-5
-1.292, 3.865e-5
-1.291, 3.753e-5
-1.290, 3.713e-5
-1.289, 3.617e-5
-1.288, 3.526e-5
-1.287, 3.410e-5
-1.286, 3.313e-5
-1.285, 3.270e-5
-1.284, 3.191e-5
-1.283, 3.086e-5
-1.282, 2.990e-5
-1.281, 2.893e-5
-1.280, 2.844e-5
-1.279, 2.770e-5
-1.278, 2.683e-5
-1.277, 2.597e-5
-1.276, 2.509e-5
-1.275, 2.460e-5
-1.274, 2.390e-5
-1.273, 2.300e-5
-1.272, 2.225e-5
-1.271, 2.140e-5
-1.270, 2.088e-5
-1.269, 2.037e-5
-1.268, 1.966e-5
-1.267, 1.862e-5
-1.266, 1.795e-5
-1.265, 1.761e-5
-1.264, 1.708e-5
-1.263, 1.636e-5
-1.262, 1.545e-5
-1.261, 1.478e-5
-1.260, 1.454e-5
-1.259, 1.392e-5
-1.258, 1.334e-5
-1.257, 1.242e-5
-1.256, 1.193e-5
-1.255, 1.158e-5
-1.254, 1.109e-5
-1.253, 1.056e-5
-1.252, 9.879e-6
-1.251, 9.141e-6
-1.250, 8.971e-6
-1.249, 8.519e-6
-1.248, 8.044e-6
-1.247, 7.301e-6
-1.246, 6.728e-6
-1.245, 6.574e-6
-1.244, 6.295e-6
-1.243, 5.611e-6
-1.242, 4.980e-6
-1.241, 4.496e-6
-1.240, 4.441e-6
-1.239, 4.111e-6
-1.238, 3.631e-6
-1.237, 2.991e-6
-1.236, 2.689e-6
-1.235, 2.402e-6
-1.234, 2.309e-6
-1.233, 1.650e-6
-1.232, 1.151e-6
-1.231, 9.193e-7
-1.230, 5.977e-7
-1.229, 3.915e-7
-1.228, 6.097e-8
-1.227, -5.744e-7
-1.226, -7.984e-7
-1.225, -9.394e-7
-1.224, -9.986e-7
-1.223, -1.323e-6
-1.222, -2.133e-6
-1.221, -2.143e-6
-1.220, -2.254e-6
-1.219, -2.507e-6
-1.218, -2.708e-6
-1.217, -3.352e-6
-1.216, -3.448e-6
-1.215, -3.482e-6
-1.214, -3.650e-6
-1.213, -3.900e-6
-1.212, -4.499e-6
-1.211, -4.703e-6
-1.210, -4.546e-6
-1.209, -4.688e-6
-1.208, -4.988e-6
-1.207, -5.473e-6
-1.206, -5.718e-6
-1.205, -5.518e-6
-1.204, -5.588e-6
-1.203, -5.956e-6
-1.202, -6.452e-6
-1.201, -6.640e-6
-1.200, -6.411e-6
-1.199, -6.470e-6
-1.198, -6.772e-6
-1.197, -7.162e-6
-1.196, -7.330e-6
-1.195, -7.316e-6
-1.194, -7.215e-6
-1.193, -7.547e-6
-1.192, -7.916e-6
-1.191, -8.009e-6
-1.190, -7.966e-6
-1.189, -7.988e-6
-1.188, -8.113e-6
-1.187, -8.647e-6
-1.186, -8.661e-6
-1.185, -8.476e-6
-1.184, -8.608e-6
-1.183, -8.685e-6
-1.182, -9.354e-6
-1.181, -9.144e-6
-1.180, -9.103e-6
-1.179, -9.245e-6
-1.178, -9.339e-6
-1.177, -9.820e-6
-1.176, -9.677e-6
-1.175, -9.491e-6
-1.174, -9.671e-6
-1.173, -9.756e-6
-1.172, -1.018e-5
-1.171, -1.023e-5
-1.170, -9.920e-6
-1.169, -1.009e-5
-1.168, -1.017e-5
-1.167, -1.066e-5
-1.166, -1.063e-5
-1.165, -1.037e-5
-1.164, -1.036e-5
-1.163, -1.068e-5
-1.162, -1.101e-5
-1.161, -1.091e-5
-1.160, -1.070e-5
-1.159, -1.074e-5
-1.158, -1.097e-5
-1.157, -1.125e-5
-1.156, -1.114e-5
-1.155, -1.112e-5
-1.154, -1.095e-5
-1.153, -1.129e-5
-1.152, -1.157e-5
-1.151, -1.150e-5
-1.150, -1.125e-5
-1.149, -1.121e-5
-1.148, -1.144e-5
-1.147, -1.186e-5
-1.146, -1.165e-5
-1.145, -1.157e-5
-1.144, -1.148e-5
-1.143, -1.168e-5
-1.142, -1.208e-5
-1.141, -1.191e-5
-1.140, -1.162e-5
-1.139, -1.171e-5
-1.138, -1.196e-5
-1.137, -1.224e-5
-1.136, -1.202e-5
-1.135, -1.171e-5
-1.134, -1.192e-5
-1.133, -1.206e-5
-1.132, -1.236e-5
-1.131, -1.227e-5
-1.130, -1.193e-5
-1.129, -1.207e-5
-1.128, -1.231e-5
-1.127, -1.248e-5
-1.126, -1.243e-5
-1.125, -1.212e-5
-1.124, -1.211e-5
-1.123, -1.251e-5
-1.122, -1.261e-5
-1.121, -1.257e-5
-1.120, -1.234e-5
-1.119, -1.222e-5
-1.118, -1.266e-5
-1.117, -1.267e-5
-1.116, -1.263e-5
-1.115, -1.252e-5
-1.114, -1.239e-5
-1.113, -1.290e-5
-1.112, -1.277e-5
-1.111, -1.277e-5
-1.110, -1.275e-5
-1.109, -1.258e-5
-1.108, -1.286e-5
-1.107, -1.304e-5
-1.106, -1.301e-5
-1.105, -1.279e-5
-1.104, -1.266e-5
-1.103, -1.316e-5
-1.102, -1.315e-5
-1.101, -1.307e-5
-1.100, -1.299e-5
-1.099, -1.286e-5
-1.098, -1.328e-5
-1.097, -1.333e-5
-1.096, -1.324e-5
-1.095, -1.306e-5
-1.094, -1.298e-5
-1.093, -1.342e-5
-1.092, -1.343e-5
-1.091, -1.354e-5
-1.090, -1.319e-5
-1.089, -1.322e-5
-1.088, -1.359e-5
-1.087, -1.350e-5
-1.086, -1.373e-5
-1.085, -1.338e-5
-1.084, -1.337e-5
-1.083, -1.377e-5
-1.082, -1.381e-5
-1.081, -1.388e-5
-1.080, -1.350e-5
-1.079, -1.347e-5
-1.078, -1.401e-5
-1.077, -1.395e-5
-1.076, -1.393e-5
-1.075, -1.384e-5
-1.074, -1.370e-5
-1.073, -1.410e-5
-1.072, -1.416e-5
-1.071, -1.402e-5
-1.070, -1.401e-5
-1.069, -1.388e-5
-1.068, -1.421e-5
-1.067, -1.438e-5
-1.066, -1.421e-5
-1.065, -1.420e-5
-1.064, -1.400e-5
-1.063, -1.432e-5
-1.062, -1.450e-5
-1.061, -1.434e-5
-1.060, -1.429e-5
-1.059, -1.429e-5
-1.058, -1.447e-5
-1.057, -1.475e-5
-1.056, -1.452e-5
-1.055, -1.440e-5
-1.054, -1.442e-5
-1.053, -1.464e-5
-1.052, -1.478e-5
-1.051, -1.487e-5
-1.050, -1.461e-5
-1.049, -1.460e-5
-1.048, -1.483e-5
-1.047, -1.501e-5
-1.046, -1.498e-5
-1.045, -1.473e-5
-1.044, -1.478e-5
-1.043, -1.505e-5
-1.042, -1.527e-5
-1.041, -1.514e-5
-1.040, -1.491e-5
-1.039, -1.492e-5
-1.038, -1.525e-5
-1.037, -1.547e-5
-1.036, -1.528e-5
-1.035, -1.515e-5
-1.034, -1.517e-5
-1.033, -1.546e-5
-1.032, -1.566e-5
-1.031, -1.549e-5
-1.030, -1.540e-5
-1.029, -1.540e-5
-1.028, -1.563e-5
-1.027, -1.594e-5
-1.026, -1.573e-5
-1.025, -1.565e-5
-1.024, -1.572e-5
-1.023, -1.587e-5
-1.022, -1.621e-5
-1.021, -1.595e-5
-1.020, -1.571e-5
-1.019, -1.594e-5
-1.018, -1.612e-5
-1.017, -1.638e-5
-1.016, -1.626e-5
-1.015, -1.594e-5
-1.014, -1.624e-5
-1.013, -1.632e-5
-1.012, -1.663e-5
-1.011, -1.660e-5
-1.010, -1.624e-5
-1.009, -1.650e-5
-1.008, -1.664e-5
-1.007, -1.685e-5
-1.006, -1.682e-5
-1.005, -1.648e-5
-1.004, -1.661e-5
-1.003, -1.699e-5
-1.002, -1.714e-5
-1.001, -1.715e-5
