Apr. 5, 2025   16:22:32
Cyclic Voltammetry
File: c:/users/guazh/data/banditlqround7_x0exp994_r5/2025-03-28-exp991\exp991-2025-04-05t16_09_01-arkoh\exp991_cv_sr_50mvs_efin_-1700mv.bin
Data Source:  Experiment
Instrument Model:  CHI760E
Header: CV ran at 50 mVs
Note: 

Init E (V) = -1
High E (V) = -1
Low E (V) = -1.7
Final E (V) = -1
Init P/N = N
Scan Rate (V/s) = 0.05
Segment = 3
Sample Interval (V) = 0.001
Quiet Time (sec) = 2
Sensitivity (A/V) = 0.01
Comp R (ohm) = 2.0

Results:

Channel 1:
Segment 1:

Segment 2:

Segment 3:

Potential/V, Current/A

-1.000, -2.289e-7
-1.001, -4.144e-8
-1.002, 1.066e-7
-1.003, 4.736e-8
-1.004, 2.762e-8
-1.005, 1.953e-7
-1.006, 3.335e-7
-1.007, 4.025e-7
-1.008, 4.124e-7
-1.009, 4.223e-7
-1.010, 3.927e-7
-1.011, 5.209e-7
-1.012, 5.801e-7
-1.013, 6.492e-7
-1.014, 6.196e-7
-1.015, 6.985e-7
-1.016, 7.281e-7
-1.017, 7.873e-7
-1.018, 7.972e-7
-1.019, 8.761e-7
-1.020, 8.465e-7
-1.021, 9.156e-7
-1.022, 8.860e-7
-1.023, 8.564e-7
-1.024, 9.353e-7
-1.025, 1.014e-6
-1.026, 1.064e-6
-1.027, 1.113e-6
-1.028, 1.083e-6
-1.029, 1.113e-6
-1.030, 1.123e-6
-1.031, 1.152e-6
-1.032, 1.241e-6
-1.033, 1.231e-6
-1.034, 1.192e-6
-1.035, 1.182e-6
-1.036, 1.231e-6
-1.037, 1.360e-6
-1.038, 1.310e-6
-1.039, 1.360e-6
-1.040, 1.290e-6
-1.041, 1.350e-6
-1.042, 1.310e-6
-1.043, 1.360e-6
-1.044, 1.399e-6
-1.045, 1.369e-6
-1.046, 1.350e-6
-1.047, 1.419e-6
-1.048, 1.330e-6
-1.049, 1.458e-6
-1.050, 1.409e-6
-1.051, 1.468e-6
-1.052, 1.557e-6
-1.053, 1.458e-6
-1.054, 1.517e-6
-1.055, 1.478e-6
-1.056, 1.537e-6
-1.057, 1.537e-6
-1.058, 1.606e-6
-1.059, 1.626e-6
-1.060, 1.517e-6
-1.061, 1.557e-6
-1.062, 1.665e-6
-1.063, 1.606e-6
-1.064, 1.685e-6
-1.065, 1.567e-6
-1.066, 1.626e-6
-1.067, 1.705e-6
-1.068, 1.646e-6
-1.069, 1.626e-6
-1.070, 1.596e-6
-1.071, 1.646e-6
-1.072, 1.744e-6
-1.073, 1.646e-6
-1.074, 1.744e-6
-1.075, 1.695e-6
-1.076, 1.843e-6
-1.077, 1.843e-6
-1.078, 1.784e-6
-1.079, 1.764e-6
-1.080, 1.754e-6
-1.081, 1.803e-6
-1.082, 1.803e-6
-1.083, 1.833e-6
-1.084, 1.764e-6
-1.085, 1.803e-6
-1.086, 1.853e-6
-1.087, 1.882e-6
-1.088, 1.813e-6
-1.089, 1.873e-6
-1.090, 1.823e-6
-1.091, 1.803e-6
-1.092, 1.853e-6
-1.093, 1.882e-6
-1.094, 1.971e-6
-1.095, 1.853e-6
-1.096, 1.863e-6
-1.097, 1.961e-6
-1.098, 1.823e-6
-1.099, 1.912e-6
-1.100, 1.951e-6
-1.101, 2.030e-6
-1.102, 1.971e-6
-1.103, 1.942e-6
-1.104, 1.932e-6
-1.105, 1.932e-6
-1.106, 1.971e-6
-1.107, 2.011e-6
-1.108, 2.001e-6
-1.109, 2.080e-6
-1.110, 2.011e-6
-1.111, 1.961e-6
-1.112, 2.001e-6
-1.113, 2.011e-6
-1.114, 1.991e-6
-1.115, 2.070e-6
-1.116, 2.050e-6
-1.117, 2.129e-6
-1.118, 2.060e-6
-1.119, 2.090e-6
-1.120, 2.050e-6
-1.121, 2.070e-6
-1.122, 2.139e-6
-1.123, 2.050e-6
-1.124, 2.050e-6
-1.125, 2.060e-6
-1.126, 2.060e-6
-1.127, 2.198e-6
-1.128, 2.119e-6
-1.129, 2.060e-6
-1.130, 2.129e-6
-1.131, 2.149e-6
-1.132, 2.198e-6
-1.133, 2.159e-6
-1.134, 2.218e-6
-1.135, 2.169e-6
-1.136, 2.139e-6
-1.137, 2.257e-6
-1.138, 2.188e-6
-1.139, 2.267e-6
-1.140, 2.277e-6
-1.141, 2.257e-6
-1.142, 2.238e-6
-1.143, 2.287e-6
-1.144, 2.198e-6
-1.145, 2.208e-6
-1.146, 2.257e-6
-1.147, 2.247e-6
-1.148, 2.257e-6
-1.149, 2.238e-6
-1.150, 2.139e-6
-1.151, 2.267e-6
-1.152, 2.415e-6
-1.153, 2.326e-6
-1.154, 2.307e-6
-1.155, 2.317e-6
-1.156, 2.366e-6
-1.157, 2.287e-6
-1.158, 2.336e-6
-1.159, 2.356e-6
-1.160, 2.346e-6
-1.161, 2.307e-6
-1.162, 2.405e-6
-1.163, 2.326e-6
-1.164, 2.307e-6
-1.165, 2.336e-6
-1.166, 2.336e-6
-1.167, 2.346e-6
-1.168, 2.376e-6
-1.169, 2.445e-6
-1.170, 2.386e-6
-1.171, 2.307e-6
-1.172, 2.455e-6
-1.173, 2.277e-6
-1.174, 2.326e-6
-1.175, 2.356e-6
-1.176, 2.317e-6
-1.177, 2.405e-6
-1.178, 2.484e-6
-1.179, 2.514e-6
-1.180, 2.445e-6
-1.181, 2.465e-6
-1.182, 2.474e-6
-1.183, 2.356e-6
-1.184, 2.484e-6
-1.185, 2.376e-6
-1.186, 2.455e-6
-1.187, 2.405e-6
-1.188, 2.494e-6
-1.189, 2.415e-6
-1.190, 2.514e-6
-1.191, 2.504e-6
-1.192, 2.563e-6
-1.193, 2.514e-6
-1.194, 2.514e-6
-1.195, 2.543e-6
-1.196, 2.494e-6
-1.197, 2.622e-6
-1.198, 2.524e-6
-1.199, 2.553e-6
-1.200, 2.504e-6
-1.201, 2.583e-6
-1.202, 2.603e-6
-1.203, 2.622e-6
-1.204, 2.632e-6
-1.205, 2.613e-6
-1.206, 2.642e-6
-1.207, 2.672e-6
-1.208, 2.593e-6
-1.209, 2.603e-6
-1.210, 2.682e-6
-1.211, 2.593e-6
-1.212, 2.593e-6
-1.213, 2.672e-6
-1.214, 2.534e-6
-1.215, 2.662e-6
-1.216, 2.593e-6
-1.217, 2.760e-6
-1.218, 2.652e-6
-1.219, 2.632e-6
-1.220, 2.593e-6
-1.221, 2.711e-6
-1.222, 2.741e-6
-1.223, 2.691e-6
-1.224, 2.691e-6
-1.225, 2.672e-6
-1.226, 2.770e-6
-1.227, 2.741e-6
-1.228, 2.701e-6
-1.229, 2.928e-6
-1.230, 2.790e-6
-1.231, 2.889e-6
-1.232, 2.908e-6
-1.233, 2.948e-6
-1.234, 2.820e-6
-1.235, 2.899e-6
-1.236, 2.928e-6
-1.237, 2.978e-6
-1.238, 2.889e-6
-1.239, 2.859e-6
-1.240, 2.987e-6
-1.241, 2.908e-6
-1.242, 3.037e-6
-1.243, 2.958e-6
-1.244, 3.017e-6
-1.245, 2.987e-6
-1.246, 2.908e-6
-1.247, 3.066e-6
-1.248, 3.027e-6
-1.249, 3.086e-6
-1.250, 3.017e-6
-1.251, 3.056e-6
-1.252, 3.175e-6
-1.253, 3.116e-6
-1.254, 3.066e-6
-1.255, 3.155e-6
-1.256, 3.165e-6
-1.257, 3.303e-6
-1.258, 3.145e-6
-1.259, 3.175e-6
-1.260, 3.274e-6
-1.261, 3.303e-6
-1.262, 3.293e-6
-1.263, 3.234e-6
-1.264, 3.283e-6
-1.265, 3.293e-6
-1.266, 3.333e-6
-1.267, 3.431e-6
-1.268, 3.481e-6
-1.269, 3.412e-6
-1.270, 3.461e-6
-1.271, 3.510e-6
-1.272, 3.500e-6
-1.273, 3.540e-6
-1.274, 3.510e-6
-1.275, 3.520e-6
-1.276, 3.648e-6
-1.277, 3.737e-6
-1.278, 3.599e-6
-1.279, 3.639e-6
-1.280, 3.757e-6
-1.281, 3.935e-6
-1.282, 3.905e-6
-1.283, 3.935e-6
-1.284, 3.984e-6
-1.285, 3.954e-6
-1.286, 4.013e-6
-1.287, 4.132e-6
-1.288, 3.964e-6
-1.289, 4.161e-6
-1.290, 4.122e-6
-1.291, 4.083e-6
-1.292, 4.290e-6
-1.293, 4.290e-6
-1.294, 4.349e-6
-1.295, 4.369e-6
-1.296, 4.349e-6
-1.297, 4.457e-6
-1.298, 4.467e-6
-1.299, 4.566e-6
-1.300, 4.665e-6
-1.301, 4.714e-6
-1.302, 4.763e-6
-1.303, 4.822e-6
-1.304, 4.862e-6
-1.305, 4.990e-6
-1.306, 5.040e-6
-1.307, 5.257e-6
-1.308, 5.276e-6
-1.309, 5.296e-6
-1.310, 5.365e-6
-1.311, 5.385e-6
-1.312, 5.553e-6
-1.313, 5.622e-6
-1.314, 5.651e-6
-1.315, 5.799e-6
-1.316, 5.908e-6
-1.317, 6.006e-6
-1.318, 6.184e-6
-1.319, 6.362e-6
-1.320, 6.421e-6
-1.321, 6.431e-6
-1.322, 6.667e-6
-1.323, 6.697e-6
-1.324, 6.796e-6
-1.325, 7.023e-6
-1.326, 7.102e-6
-1.327, 7.240e-6
-1.328, 7.338e-6
-1.329, 7.486e-6
-1.330, 7.654e-6
-1.331, 7.871e-6
-1.332, 8.137e-6
-1.333, 8.256e-6
-1.334, 8.394e-6
-1.335, 8.562e-6
-1.336, 8.700e-6
-1.337, 8.956e-6
-1.338, 9.114e-6
-1.339, 9.390e-6
-1.340, 9.548e-6
-1.341, 9.775e-6
-1.342, 9.992e-6
-1.343, 1.018e-5
-1.344, 1.046e-5
-1.345, 1.064e-5
-1.346, 1.091e-5
-1.347, 1.130e-5
-1.348, 1.154e-5
-1.349, 1.175e-5
-1.350, 1.222e-5
-1.351, 1.237e-5
-1.352, 1.276e-5
-1.353, 1.294e-5
-1.354, 1.333e-5
-1.355, 1.360e-5
-1.356, 1.400e-5
-1.357, 1.449e-5
-1.358, 1.478e-5
-1.359, 1.512e-5
-1.360, 1.562e-5
-1.361, 1.591e-5
-1.362, 1.641e-5
-1.363, 1.677e-5
-1.364, 1.723e-5
-1.365, 1.772e-5
-1.366, 1.815e-5
-1.367, 1.866e-5
-1.368, 1.919e-5
-1.369, 1.968e-5
-1.370, 2.024e-5
-1.371, 2.076e-5
-1.372, 2.143e-5
-1.373, 2.202e-5
-1.374, 2.255e-5
-1.375, 2.320e-5
-1.376, 2.385e-5
-1.377, 2.460e-5
-1.378, 2.529e-5
-1.379, 2.598e-5
-1.380, 2.671e-5
-1.381, 2.747e-5
-1.382, 2.833e-5
-1.383, 2.916e-5
-1.384, 2.993e-5
-1.385, 3.070e-5
-1.386, 3.163e-5
-1.387, 3.260e-5
-1.388, 3.342e-5
-1.389, 3.444e-5
-1.390, 3.535e-5
-1.391, 3.635e-5
-1.392, 3.742e-5
-1.393, 3.842e-5
-1.394, 3.947e-5
-1.395, 4.067e-5
-1.396, 4.177e-5
-1.397, 4.306e-5
-1.398, 4.411e-5
-1.399, 4.539e-5
-1.400, 4.666e-5
-1.401, 4.803e-5
-1.402, 4.951e-5
-1.403, 5.069e-5
-1.404, 5.215e-5
-1.405, 5.356e-5
-1.406, 5.513e-5
-1.407, 5.672e-5
-1.408, 5.834e-5
-1.409, 6.001e-5
-1.410, 6.163e-5
-1.411, 6.334e-5
-1.412, 6.522e-5
-1.413, 6.694e-5
-1.414, 6.877e-5
-1.415, 7.083e-5
-1.416, 7.271e-5
-1.417, 7.485e-5
-1.418, 7.679e-5
-1.419, 7.896e-5
-1.420, 8.132e-5
-1.421, 8.350e-5
-1.422, 8.600e-5
-1.423, 8.833e-5
-1.424, 9.087e-5
-1.425, 9.340e-5
-1.426, 9.597e-5
-1.427, 9.875e-5
-1.428, 1.015e-4
-1.429, 1.043e-4
-1.430, 1.071e-4
-1.431, 1.102e-4
-1.432, 1.131e-4
-1.433, 1.163e-4
-1.434, 1.196e-4
-1.435, 1.228e-4
-1.436, 1.263e-4
-1.437, 1.297e-4
-1.438, 1.333e-4
-1.439, 1.370e-4
-1.440, 1.408e-4
-1.441, 1.445e-4
-1.442, 1.487e-4
-1.443, 1.528e-4
-1.444, 1.570e-4
-1.445, 1.612e-4
-1.446, 1.656e-4
-1.447, 1.702e-4
-1.448, 1.748e-4
-1.449, 1.794e-4
-1.450, 1.841e-4
-1.451, 1.890e-4
-1.452, 1.942e-4
-1.453, 1.995e-4
-1.454, 2.048e-4
-1.455, 2.104e-4
-1.456, 2.158e-4
-1.457, 2.216e-4
-1.458, 2.270e-4
-1.459, 2.330e-4
-1.460, 2.391e-4
-1.461, 2.452e-4
-1.462, 2.518e-4
-1.463, 2.585e-4
-1.464, 2.651e-4
-1.465, 2.722e-4
-1.466, 2.792e-4
-1.467, 2.864e-4
-1.468, 2.937e-4
-1.469, 3.013e-4
-1.470, 3.089e-4
-1.471, 3.171e-4
-1.472, 3.255e-4
-1.473, 3.336e-4
-1.474, 3.423e-4
-1.475, 3.506e-4
-1.476, 3.598e-4
-1.477, 3.686e-4
-1.478, 3.781e-4
-1.479, 3.876e-4
-1.480, 3.968e-4
-1.481, 4.069e-4
-1.482, 4.167e-4
-1.483, 4.268e-4
-1.484, 4.374e-4
-1.485, 4.484e-4
-1.486, 4.595e-4
-1.487, 4.704e-4
-1.488, 4.818e-4
-1.489, 4.936e-4
-1.490, 5.050e-4
-1.491, 5.179e-4
-1.492, 5.298e-4
-1.493, 5.424e-4
-1.494, 5.552e-4
-1.495, 5.685e-4
-1.496, 5.814e-4
-1.497, 5.955e-4
-1.498, 6.090e-4
-1.499, 6.228e-4
-1.500, 6.370e-4
-1.501, 6.516e-4
-1.502, 6.672e-4
-1.503, 6.818e-4
-1.504, 6.979e-4
-1.505, 7.133e-4
-1.506, 7.291e-4
-1.507, 7.448e-4
-1.508, 7.620e-4
-1.509, 7.792e-4
-1.510, 7.948e-4
-1.511, 8.137e-4
-1.512, 8.322e-4
-1.513, 8.477e-4
-1.514, 8.686e-4
-1.515, 8.841e-4
-1.516, 9.066e-4
-1.517, 9.243e-4
-1.518, 9.402e-4
-1.519, 9.626e-4
-1.520, 9.819e-4
-1.521, 1.005e-3
-1.522, 1.026e-3
-1.523, 1.050e-3
-1.524, 1.065e-3
-1.525, 1.091e-3
-1.526, 1.108e-3
-1.527, 1.132e-3
-1.528, 1.153e-3
-1.529, 1.173e-3
-1.530, 1.201e-3
-1.531, 1.222e-3
-1.532, 1.246e-3
-1.533, 1.272e-3
-1.534, 1.294e-3
-1.535, 1.321e-3
-1.536, 1.345e-3
-1.537, 1.368e-3
-1.538, 1.397e-3
-1.539, 1.420e-3
-1.540, 1.447e-3
-1.541, 1.474e-3
-1.542, 1.498e-3
-1.543, 1.529e-3
-1.544, 1.556e-3
-1.545, 1.587e-3
-1.546, 1.612e-3
-1.547, 1.639e-3
-1.548, 1.675e-3
-1.549, 1.695e-3
-1.550, 1.732e-3
-1.551, 1.759e-3
-1.552, 1.791e-3
-1.553, 1.822e-3
-1.554, 1.848e-3
-1.555, 1.885e-3
-1.556, 1.905e-3
-1.557, 1.949e-3
-1.558, 1.975e-3
-1.559, 2.014e-3
-1.560, 2.044e-3
-1.561, 2.073e-3
-1.562, 2.112e-3
-1.563, 2.137e-3
-1.564, 2.181e-3
-1.565, 2.213e-3
-1.566, 2.247e-3
-1.567, 2.287e-3
-1.568, 2.314e-3
-1.569, 2.352e-3
-1.570, 2.382e-3
-1.571, 2.415e-3
-1.572, 2.467e-3
-1.573, 2.499e-3
-1.574, 2.547e-3
-1.575, 2.580e-3
-1.576, 2.620e-3
-1.577, 2.659e-3
-1.578, 2.686e-3
-1.579, 2.727e-3
-1.580, 2.758e-3
-1.581, 2.796e-3
-1.582, 2.838e-3
-1.583, 2.884e-3
-1.584, 2.929e-3
-1.585, 2.966e-3
-1.586, 3.007e-3
-1.587, 3.051e-3
-1.588, 3.079e-3
-1.589, 3.132e-3
-1.590, 3.168e-3
-1.591, 3.213e-3
-1.592, 3.256e-3
-1.593, 3.302e-3
-1.594, 3.339e-3
-1.595, 3.387e-3
-1.596, 3.419e-3
-1.597, 3.475e-3
-1.598, 3.517e-3
-1.599, 3.565e-3
-1.600, 3.602e-3
-1.601, 3.655e-3
-1.602, 3.696e-3
-1.603, 3.737e-3
-1.604, 3.794e-3
-1.605, 3.817e-3
-1.606, 3.872e-3
-1.607, 3.965e-3
-1.608, 3.968e-3
-1.609, 4.007e-3
-1.610, 4.037e-3
-1.611, 4.115e-3
-1.612, 4.121e-3
-1.613, 4.215e-3
-1.614, 4.271e-3
-1.615, 4.318e-3
-1.616, 4.380e-3
-1.617, 4.386e-3
-1.618, 4.470e-3
-1.619, 4.504e-3
-1.620, 4.557e-3
-1.621, 4.620e-3
-1.622, 4.634e-3
-1.623, 4.711e-3
-1.624, 4.750e-3
-1.625, 4.802e-3
-1.626, 4.884e-3
-1.627, 4.922e-3
-1.628, 4.982e-3
-1.629, 5.011e-3
-1.630, 5.077e-3
-1.631, 5.121e-3
-1.632, 5.163e-3
-1.633, 5.228e-3
-1.634, 5.283e-3
-1.635, 5.328e-3
-1.636, 5.410e-3
-1.637, 5.429e-3
-1.638, 5.501e-3
-1.639, 5.601e-3
-1.640, 5.586e-3
-1.641, 5.699e-3
-1.642, 5.708e-3
-1.643, 5.772e-3
-1.644, 5.827e-3
-1.645, 5.905e-3
-1.646, 5.972e-3
-1.647, 6.000e-3
-1.648, 6.073e-3
-1.649, 6.115e-3
-1.650, 6.174e-3
-1.651, 6.228e-3
-1.652, 6.283e-3
-1.653, 6.361e-3
-1.654, 6.381e-3
-1.655, 6.463e-3
-1.656, 6.483e-3
-1.657, 6.565e-3
-1.658, 6.652e-3
-1.659, 6.684e-3
-1.660, 6.755e-3
-1.661, 6.800e-3
-1.662, 6.807e-3
-1.663, 6.917e-3
-1.664, 6.924e-3
-1.665, 7.019e-3
-1.666, 7.079e-3
-1.667, 7.138e-3
-1.668, 7.179e-3
-1.669, 7.254e-3
-1.670, 7.255e-3
-1.671, 7.388e-3
-1.672, 7.384e-3
-1.673, 7.384e-3
-1.674, 7.550e-3
-1.675, 7.491e-3
-1.676, 7.615e-3
-1.677, 7.622e-3
-1.678, 7.669e-3
-1.679, 7.772e-3
-1.680, 7.781e-3
-1.681, 7.884e-3
-1.682, 7.797e-3
-1.683, 7.997e-3
-1.684, 7.957e-3
-1.685, 8.059e-3
-1.686, 8.123e-3
-1.687, 8.165e-3
-1.688, 8.196e-3
-1.689, 8.244e-3
-1.690, 8.277e-3
-1.691, 8.348e-3
-1.692, 8.381e-3
-1.693, 8.450e-3
-1.694, 8.548e-3
-1.695, 8.584e-3
-1.696, 8.702e-3
-1.697, 8.614e-3
-1.698, 8.725e-3
-1.699, 8.721e-3
-1.700, 8.635e-3
-1.699, 8.615e-3
-1.698, 8.508e-3
-1.697, 8.510e-3
-1.696, 8.457e-3
-1.695, 8.470e-3
-1.694, 8.326e-3
-1.693, 8.293e-3
-1.692, 8.146e-3
-1.691, 8.000e-3
-1.690, 7.974e-3
-1.689, 7.849e-3
-1.688, 7.797e-3
-1.687, 7.687e-3
-1.686, 7.595e-3
-1.685, 7.538e-3
-1.684, 7.489e-3
-1.683, 7.412e-3
-1.682, 7.316e-3
-1.681, 7.271e-3
-1.680, 7.154e-3
-1.679, 7.096e-3
-1.678, 7.017e-3
-1.677, 6.977e-3
-1.676, 6.911e-3
-1.675, 6.843e-3
-1.674, 6.769e-3
-1.673, 6.691e-3
-1.672, 6.670e-3
-1.671, 6.574e-3
-1.670, 6.532e-3
-1.669, 6.430e-3
-1.668, 6.402e-3
-1.667, 6.292e-3
-1.666, 6.264e-3
-1.665, 6.188e-3
-1.664, 6.163e-3
-1.663, 6.088e-3
-1.662, 6.017e-3
-1.661, 5.940e-3
-1.660, 5.894e-3
-1.659, 5.799e-3
-1.658, 5.753e-3
-1.657, 5.672e-3
-1.656, 5.621e-3
-1.655, 5.553e-3
-1.654, 5.496e-3
-1.653, 5.455e-3
-1.652, 5.389e-3
-1.651, 5.350e-3
-1.650, 5.264e-3
-1.649, 5.236e-3
-1.648, 5.195e-3
-1.647, 5.085e-3
-1.646, 5.057e-3
-1.645, 4.995e-3
-1.644, 4.943e-3
-1.643, 4.889e-3
-1.642, 4.843e-3
-1.641, 4.768e-3
-1.640, 4.697e-3
-1.639, 4.670e-3
-1.638, 4.582e-3
-1.637, 4.559e-3
-1.636, 4.508e-3
-1.635, 4.457e-3
-1.634, 4.411e-3
-1.633, 4.356e-3
-1.632, 4.329e-3
-1.631, 4.260e-3
-1.630, 4.232e-3
-1.629, 4.173e-3
-1.628, 4.123e-3
-1.627, 4.076e-3
-1.626, 4.018e-3
-1.625, 3.966e-3
-1.624, 3.913e-3
-1.623, 3.856e-3
-1.622, 3.809e-3
-1.621, 3.762e-3
-1.620, 3.714e-3
-1.619, 3.663e-3
-1.618, 3.605e-3
-1.617, 3.582e-3
-1.616, 3.519e-3
-1.615, 3.475e-3
-1.614, 3.423e-3
-1.613, 3.371e-3
-1.612, 3.318e-3
-1.611, 3.280e-3
-1.610, 3.231e-3
-1.609, 3.189e-3
-1.608, 3.135e-3
-1.607, 3.099e-3
-1.606, 3.081e-3
-1.605, 3.031e-3
-1.604, 2.988e-3
-1.603, 2.943e-3
-1.602, 2.899e-3
-1.601, 2.856e-3
-1.600, 2.824e-3
-1.599, 2.785e-3
-1.598, 2.740e-3
-1.597, 2.712e-3
-1.596, 2.662e-3
-1.595, 2.631e-3
-1.594, 2.586e-3
-1.593, 2.549e-3
-1.592, 2.499e-3
-1.591, 2.480e-3
-1.590, 2.430e-3
-1.589, 2.406e-3
-1.588, 2.369e-3
-1.587, 2.335e-3
-1.586, 2.296e-3
-1.585, 2.260e-3
-1.584, 2.235e-3
-1.583, 2.193e-3
-1.582, 2.158e-3
-1.581, 2.119e-3
-1.580, 2.079e-3
-1.579, 2.059e-3
-1.578, 2.021e-3
-1.577, 1.998e-3
-1.576, 1.959e-3
-1.575, 1.928e-3
-1.574, 1.897e-3
-1.573, 1.863e-3
-1.572, 1.836e-3
-1.571, 1.804e-3
-1.570, 1.770e-3
-1.569, 1.743e-3
-1.568, 1.710e-3
-1.567, 1.682e-3
-1.566, 1.653e-3
-1.565, 1.630e-3
-1.564, 1.602e-3
-1.563, 1.575e-3
-1.562, 1.545e-3
-1.561, 1.518e-3
-1.560, 1.492e-3
-1.559, 1.462e-3
-1.558, 1.438e-3
-1.557, 1.412e-3
-1.556, 1.389e-3
-1.555, 1.366e-3
-1.554, 1.342e-3
-1.553, 1.317e-3
-1.552, 1.295e-3
-1.551, 1.275e-3
-1.550, 1.255e-3
-1.549, 1.236e-3
-1.548, 1.216e-3
-1.547, 1.197e-3
-1.546, 1.174e-3
-1.545, 1.155e-3
-1.544, 1.133e-3
-1.543, 1.113e-3
-1.542, 1.095e-3
-1.541, 1.070e-3
-1.540, 1.052e-3
-1.539, 1.030e-3
-1.538, 1.014e-3
-1.537, 9.948e-4
-1.536, 9.742e-4
-1.535, 9.550e-4
-1.534, 9.361e-4
-1.533, 9.178e-4
-1.532, 9.020e-4
-1.531, 8.812e-4
-1.530, 8.662e-4
-1.529, 8.483e-4
-1.528, 8.309e-4
-1.527, 8.147e-4
-1.526, 7.978e-4
-1.525, 7.834e-4
-1.524, 7.650e-4
-1.523, 7.511e-4
-1.522, 7.348e-4
-1.521, 7.203e-4
-1.520, 7.059e-4
-1.519, 6.913e-4
-1.518, 6.778e-4
-1.517, 6.634e-4
-1.516, 6.512e-4
-1.515, 6.354e-4
-1.514, 6.227e-4
-1.513, 6.098e-4
-1.512, 5.968e-4
-1.511, 5.856e-4
-1.510, 5.721e-4
-1.509, 5.610e-4
-1.508, 5.494e-4
-1.507, 5.382e-4
-1.506, 5.268e-4
-1.505, 5.154e-4
-1.504, 5.043e-4
-1.503, 4.940e-4
-1.502, 4.830e-4
-1.501, 4.733e-4
-1.500, 4.631e-4
-1.499, 4.530e-4
-1.498, 4.439e-4
-1.497, 4.339e-4
-1.496, 4.249e-4
-1.495, 4.160e-4
-1.494, 4.073e-4
-1.493, 3.986e-4
-1.492, 3.903e-4
-1.491, 3.819e-4
-1.490, 3.738e-4
-1.489, 3.656e-4
-1.488, 3.577e-4
-1.487, 3.502e-4
-1.486, 3.427e-4
-1.485, 3.356e-4
-1.484, 3.278e-4
-1.483, 3.212e-4
-1.482, 3.141e-4
-1.481, 3.071e-4
-1.480, 3.007e-4
-1.479, 2.938e-4
-1.478, 2.876e-4
-1.477, 2.816e-4
-1.476, 2.756e-4
-1.475, 2.695e-4
-1.474, 2.636e-4
-1.473, 2.582e-4
-1.472, 2.522e-4
-1.471, 2.468e-4
-1.470, 2.411e-4
-1.469, 2.363e-4
-1.468, 2.311e-4
-1.467, 2.261e-4
-1.466, 2.215e-4
-1.465, 2.167e-4
-1.464, 2.121e-4
-1.463, 2.073e-4
-1.462, 2.029e-4
-1.461, 1.983e-4
-1.460, 1.939e-4
-1.459, 1.896e-4
-1.458, 1.853e-4
-1.457, 1.815e-4
-1.456, 1.773e-4
-1.455, 1.734e-4
-1.454, 1.696e-4
-1.453, 1.657e-4
-1.452, 1.621e-4
-1.451, 1.586e-4
-1.450, 1.549e-4
-1.449, 1.514e-4
-1.448, 1.480e-4
-1.447, 1.448e-4
-1.446, 1.415e-4
-1.445, 1.385e-4
-1.444, 1.354e-4
-1.443, 1.323e-4
-1.442, 1.297e-4
-1.441, 1.267e-4
-1.440, 1.239e-4
-1.439, 1.211e-4
-1.438, 1.185e-4
-1.437, 1.161e-4
-1.436, 1.135e-4
-1.435, 1.111e-4
-1.434, 1.086e-4
-1.433, 1.062e-4
-1.432, 1.041e-4
-1.431, 1.017e-4
-1.430, 9.946e-5
-1.429, 9.727e-5
-1.428, 9.521e-5
-1.427, 9.314e-5
-1.426, 9.099e-5
-1.425, 8.906e-5
-1.424, 8.706e-5
-1.423, 8.515e-5
-1.422, 8.338e-5
-1.421, 8.151e-5
-1.420, 7.962e-5
-1.419, 7.804e-5
-1.418, 7.631e-5
-1.417, 7.477e-5
-1.416, 7.304e-5
-1.415, 7.143e-5
-1.414, 6.998e-5
-1.413, 6.842e-5
-1.412, 6.716e-5
-1.411, 6.551e-5
-1.410, 6.423e-5
-1.409, 6.288e-5
-1.408, 6.150e-5
-1.407, 6.023e-5
-1.406, 5.882e-5
-1.405, 5.766e-5
-1.404, 5.642e-5
-1.403, 5.526e-5
-1.402, 5.400e-5
-1.401, 5.278e-5
-1.400, 5.175e-5
-1.399, 5.063e-5
-1.398, 4.955e-5
-1.397, 4.848e-5
-1.396, 4.743e-5
-1.395, 4.642e-5
-1.394, 4.544e-5
-1.393, 4.441e-5
-1.392, 4.351e-5
-1.391, 4.259e-5
-1.390, 4.175e-5
-1.389, 4.088e-5
-1.388, 3.990e-5
-1.387, 3.912e-5
-1.386, 3.826e-5
-1.385, 3.742e-5
-1.384, 3.672e-5
-1.383, 3.585e-5
-1.382, 3.506e-5
-1.381, 3.428e-5
-1.380, 3.356e-5
-1.379, 3.294e-5
-1.378, 3.214e-5
-1.377, 3.148e-5
-1.376, 3.081e-5
-1.375, 3.011e-5
-1.374, 2.949e-5
-1.373, 2.876e-5
-1.372, 2.828e-5
-1.371, 2.756e-5
-1.370, 2.700e-5
-1.369, 2.643e-5
-1.368, 2.580e-5
-1.367, 2.536e-5
-1.366, 2.474e-5
-1.365, 2.412e-5
-1.364, 2.368e-5
-1.363, 2.305e-5
-1.362, 2.259e-5
-1.361, 2.211e-5
-1.360, 2.167e-5
-1.359, 2.134e-5
-1.358, 2.072e-5
-1.357, 2.029e-5
-1.356, 1.977e-5
-1.355, 1.937e-5
-1.354, 1.886e-5
-1.353, 1.849e-5
-1.352, 1.819e-5
-1.351, 1.779e-5
-1.350, 1.736e-5
-1.349, 1.708e-5
-1.348, 1.657e-5
-1.347, 1.629e-5
-1.346, 1.588e-5
-1.345, 1.560e-5
-1.344, 1.518e-5
-1.343, 1.481e-5
-1.342, 1.465e-5
-1.341, 1.415e-5
-1.340, 1.394e-5
-1.339, 1.360e-5
-1.338, 1.338e-5
-1.337, 1.307e-5
-1.336, 1.278e-5
-1.335, 1.257e-5
-1.334, 1.224e-5
-1.333, 1.198e-5
-1.332, 1.178e-5
-1.331, 1.132e-5
-1.330, 1.108e-5
-1.329, 1.089e-5
-1.328, 1.056e-5
-1.327, 1.052e-5
-1.326, 1.016e-5
-1.325, 9.884e-6
-1.324, 9.795e-6
-1.323, 9.519e-6
-1.322, 9.459e-6
-1.321, 9.025e-6
-1.320, 8.976e-6
-1.319, 8.690e-6
-1.318, 8.394e-6
-1.317, 8.315e-6
-1.316, 8.088e-6
-1.315, 7.822e-6
-1.314, 7.782e-6
-1.313, 7.615e-6
-1.312, 7.427e-6
-1.311, 7.210e-6
-1.310, 7.032e-6
-1.309, 6.954e-6
-1.308, 6.746e-6
-1.307, 6.559e-6
-1.306, 6.391e-6
-1.305, 6.302e-6
-1.304, 6.085e-6
-1.303, 5.888e-6
-1.302, 5.799e-6
-1.301, 5.760e-6
-1.300, 5.533e-6
-1.299, 5.375e-6
-1.298, 5.257e-6
-1.297, 5.217e-6
-1.296, 5.000e-6
-1.295, 4.832e-6
-1.294, 4.813e-6
-1.293, 4.615e-6
-1.292, 4.487e-6
-1.291, 4.379e-6
-1.290, 4.280e-6
-1.289, 4.112e-6
-1.288, 4.063e-6
-1.287, 4.033e-6
-1.286, 3.905e-6
-1.285, 3.787e-6
-1.284, 3.639e-6
-1.283, 3.570e-6
-1.282, 3.579e-6
-1.281, 3.313e-6
-1.280, 3.264e-6
-1.279, 3.175e-6
-1.278, 3.086e-6
-1.277, 2.968e-6
-1.276, 2.879e-6
-1.275, 2.760e-6
-1.274, 2.741e-6
-1.273, 2.504e-6
-1.272, 2.652e-6
-1.271, 2.504e-6
-1.270, 2.455e-6
-1.269, 2.356e-6
-1.268, 2.247e-6
-1.267, 2.030e-6
-1.266, 2.060e-6
-1.265, 2.001e-6
-1.264, 1.961e-6
-1.263, 1.873e-6
-1.262, 1.813e-6
-1.261, 1.774e-6
-1.260, 1.665e-6
-1.259, 1.656e-6
-1.258, 1.577e-6
-1.257, 1.626e-6
-1.256, 1.498e-6
-1.255, 1.419e-6
-1.254, 1.281e-6
-1.253, 1.202e-6
-1.252, 1.271e-6
-1.251, 1.271e-6
-1.250, 1.221e-6
-1.249, 1.113e-6
-1.248, 1.004e-6
-1.247, 1.024e-6
-1.246, 9.254e-7
-1.245, 8.169e-7
-1.244, 8.169e-7
-1.243, 7.380e-7
-1.242, 7.380e-7
-1.241, 7.281e-7
-1.240, 7.084e-7
-1.239, 6.985e-7
-1.238, 5.209e-7
-1.237, 5.998e-7
-1.236, 5.308e-7
-1.235, 3.433e-7
-1.234, 4.420e-7
-1.233, 3.433e-7
-1.232, 4.420e-7
-1.231, 2.841e-7
-1.230, 2.743e-7
-1.229, 1.066e-7
-1.228, 1.657e-7
-1.227, 1.756e-7
-1.226, 3.729e-7
-1.225, 6.709e-8
-1.224, 8.682e-8
-1.223, 7.893e-9
-1.222, -1.184e-8
-1.221, -4.144e-8
-1.220, -5.130e-8
-1.219, -1.006e-7
-1.218, -1.598e-7
-1.217, -1.204e-7
-1.216, -2.684e-7
-1.215, -2.289e-7
-1.214, -2.684e-7
-1.213, -2.684e-7
-1.212, -2.092e-7
-1.211, -3.275e-7
-1.210, -3.571e-7
-1.209, -3.473e-7
-1.208, -3.275e-7
-1.207, -4.262e-7
-1.206, -3.867e-7
-1.205, -4.558e-7
-1.204, -4.163e-7
-1.203, -5.347e-7
-1.202, -3.670e-7
-1.201, -5.150e-7
-1.200, -6.038e-7
-1.199, -4.657e-7
-1.198, -5.742e-7
-1.197, -5.643e-7
-1.196, -6.235e-7
-1.195, -5.742e-7
-1.194, -5.545e-7
-1.193, -6.137e-7
-1.192, -6.038e-7
-1.191, -6.235e-7
-1.190, -7.123e-7
-1.189, -6.729e-7
-1.188, -7.321e-7
-1.187, -6.827e-7
-1.186, -7.025e-7
-1.185, -8.504e-7
-1.184, -7.518e-7
-1.183, -8.406e-7
-1.182, -7.715e-7
-1.181, -7.912e-7
-1.180, -8.307e-7
-1.179, -8.208e-7
-1.178, -7.222e-7
-1.177, -8.307e-7
-1.176, -8.307e-7
-1.175, -9.688e-7
-1.174, -8.702e-7
-1.173, -9.195e-7
-1.172, -8.208e-7
-1.171, -9.392e-7
-1.170, -7.617e-7
-1.169, -8.011e-7
-1.168, -8.899e-7
-1.167, -8.998e-7
-1.166, -9.392e-7
-1.165, -1.028e-6
-1.164, -1.067e-6
-1.163, -1.117e-6
-1.162, -1.067e-6
-1.161, -1.058e-6
-1.160, -1.008e-6
-1.159, -1.048e-6
-1.158, -1.146e-6
-1.157, -1.028e-6
-1.156, -9.886e-7
-1.155, -1.107e-6
-1.154, -1.038e-6
-1.153, -1.146e-6
-1.152, -1.206e-6
-1.151, -1.196e-6
-1.150, -1.176e-6
-1.149, -1.166e-6
-1.148, -1.127e-6
-1.147, -1.166e-6
-1.146, -1.107e-6
-1.145, -1.176e-6
-1.144, -1.206e-6
-1.143, -1.225e-6
-1.142, -1.235e-6
-1.141, -1.225e-6
-1.140, -1.235e-6
-1.139, -1.275e-6
-1.138, -1.373e-6
-1.137, -1.373e-6
-1.136, -1.285e-6
-1.135, -1.413e-6
-1.134, -1.294e-6
-1.133, -1.265e-6
-1.132, -1.265e-6
-1.131, -1.285e-6
-1.130, -1.294e-6
-1.129, -1.324e-6
-1.128, -1.393e-6
-1.127, -1.521e-6
-1.126, -1.472e-6
-1.125, -1.442e-6
-1.124, -1.472e-6
-1.123, -1.531e-6
-1.122, -1.492e-6
-1.121, -1.521e-6
-1.120, -1.600e-6
-1.119, -1.482e-6
-1.118, -1.581e-6
-1.117, -1.669e-6
-1.116, -1.581e-6
-1.115, -1.650e-6
-1.114, -1.640e-6
-1.113, -1.689e-6
-1.112, -1.758e-6
-1.111, -1.650e-6
-1.110, -1.768e-6
-1.109, -1.729e-6
-1.108, -1.758e-6
-1.107, -1.788e-6
-1.106, -1.798e-6
-1.105, -1.817e-6
-1.104, -1.640e-6
-1.103, -1.659e-6
-1.102, -1.768e-6
-1.101, -1.748e-6
-1.100, -1.936e-6
-1.099, -1.867e-6
-1.098, -1.877e-6
-1.097, -1.975e-6
-1.096, -1.965e-6
-1.095, -2.005e-6
-1.094, -2.005e-6
-1.093, -1.906e-6
-1.092, -2.024e-6
-1.091, -2.054e-6
-1.090, -2.015e-6
-1.089, -2.064e-6
-1.088, -2.153e-6
-1.087, -2.163e-6
-1.086, -2.202e-6
-1.085, -2.281e-6
-1.084, -2.232e-6
-1.083, -2.242e-6
-1.082, -2.291e-6
-1.081, -2.350e-6
-1.080, -2.301e-6
-1.079, -2.330e-6
-1.078, -2.330e-6
-1.077, -2.320e-6
-1.076, -2.419e-6
-1.075, -2.518e-6
-1.074, -2.557e-6
-1.073, -2.538e-6
-1.072, -2.449e-6
-1.071, -2.478e-6
-1.070, -2.607e-6
-1.069, -2.518e-6
-1.068, -2.538e-6
-1.067, -2.528e-6
-1.066, -2.498e-6
-1.065, -2.656e-6
-1.064, -2.686e-6
-1.063, -2.705e-6
-1.062, -2.794e-6
-1.061, -2.735e-6
-1.060, -2.774e-6
-1.059, -2.774e-6
-1.058, -2.676e-6
-1.057, -2.774e-6
-1.056, -2.774e-6
-1.055, -2.804e-6
-1.054, -2.893e-6
-1.053, -2.912e-6
-1.052, -3.011e-6
-1.051, -2.932e-6
-1.050, -3.110e-6
-1.049, -3.159e-6
-1.048, -3.070e-6
-1.047, -3.060e-6
-1.046, -3.110e-6
-1.045, -3.169e-6
-1.044, -3.189e-6
-1.043, -3.129e-6
-1.042, -3.248e-6
-1.041, -3.297e-6
-1.040, -3.218e-6
-1.039, -3.228e-6
-1.038, -3.287e-6
-1.037, -3.406e-6
-1.036, -3.356e-6
-1.035, -3.435e-6
-1.034, -3.366e-6
-1.033, -3.386e-6
-1.032, -3.327e-6
-1.031, -3.425e-6
-1.030, -3.524e-6
-1.029, -3.554e-6
-1.028, -3.514e-6
-1.027, -3.524e-6
-1.026, -3.475e-6
-1.025, -3.593e-6
-1.024, -3.692e-6
-1.023, -3.751e-6
-1.022, -3.810e-6
-1.021, -3.702e-6
-1.020, -3.830e-6
-1.019, -3.850e-6
-1.018, -3.919e-6
-1.017, -3.919e-6
-1.016, -3.869e-6
-1.015, -3.948e-6
-1.014, -3.978e-6
-1.013, -3.968e-6
-1.012, -3.929e-6
-1.011, -3.968e-6
-1.010, -4.086e-6
-1.009, -4.086e-6
-1.008, -4.205e-6
-1.007, -4.254e-6
-1.006, -4.215e-6
-1.005, -4.254e-6
-1.004, -4.254e-6
-1.003, -4.274e-6
-1.002, -4.254e-6
-1.001, -4.264e-6
