Mar. 10, 2025   21:23:18
Cyclic Voltammetry
File: c:/users/guazh/data/banditlqround7_x0exp891_r5/2025-03-03-exp870\exp870-2025-03-10t21_18_25-h2koh\exp870_cv_50mvs_efin_-1400mv.bin
Data Source:  Experiment
Instrument Model:  CHI760E
Header: CV ran at 50 mVs
Note: 

Init E (V) = -1
High E (V) = -1
Low E (V) = -1.4
Final E (V) = -1
Init P/N = N
Scan Rate (V/s) = 0.05
Segment = 7
Sample Interval (V) = 0.001
Quiet Time (sec) = 60
Sensitivity (A/V) = 0.001
Comp R (ohm) = 1.8

Results:

Channel 1:
Segment 1:
Ep = -1.162V
ip = 1.517e-4A
Ah = 2.112e-4C

Segment 2:

Segment 3:

Segment 4:

Segment 5:

Segment 6:

Segment 7:

Potential/V, Current/A

-1.000, 1.659e-5
-1.001, 2.192e-5
-1.002, 2.349e-5
-1.003, 2.459e-5
-1.004, 2.493e-5
-1.005, 2.476e-5
-1.006, 2.511e-5
-1.007, 2.653e-5
-1.008, 2.725e-5
-1.009, 2.752e-5
-1.010, 2.752e-5
-1.011, 2.777e-5
-1.012, 2.899e-5
-1.013, 3.003e-5
-1.014, 3.023e-5
-1.015, 3.013e-5
-1.016, 3.058e-5
-1.017, 3.166e-5
-1.018, 3.287e-5
-1.019, 3.304e-5
-1.020, 3.296e-5
-1.021, 3.341e-5
-1.022, 3.474e-5
-1.023, 3.601e-5
-1.024, 3.640e-5
-1.025, 3.618e-5
-1.026, 3.701e-5
-1.027, 3.811e-5
-1.028, 3.945e-5
-1.029, 3.980e-5
-1.030, 3.989e-5
-1.031, 4.073e-5
-1.032, 4.191e-5
-1.033, 4.341e-5
-1.034, 4.406e-5
-1.035, 4.409e-5
-1.036, 4.489e-5
-1.037, 4.643e-5
-1.038, 4.788e-5
-1.039, 4.866e-5
-1.040, 4.875e-5
-1.041, 4.979e-5
-1.042, 5.136e-5
-1.043, 5.281e-5
-1.044, 5.389e-5
-1.045, 5.405e-5
-1.046, 5.498e-5
-1.047, 5.704e-5
-1.048, 5.853e-5
-1.049, 5.931e-5
-1.050, 6.014e-5
-1.051, 6.103e-5
-1.052, 6.300e-5
-1.053, 6.481e-5
-1.054, 6.579e-5
-1.055, 6.669e-5
-1.056, 6.762e-5
-1.057, 6.953e-5
-1.058, 7.191e-5
-1.059, 7.267e-5
-1.060, 7.357e-5
-1.061, 7.496e-5
-1.062, 7.695e-5
-1.063, 7.944e-5
-1.064, 8.042e-5
-1.065, 8.132e-5
-1.066, 8.287e-5
-1.067, 8.499e-5
-1.068, 8.753e-5
-1.069, 8.876e-5
-1.070, 8.979e-5
-1.071, 9.155e-5
-1.072, 9.357e-5
-1.073, 9.624e-5
-1.074, 9.758e-5
-1.075, 9.891e-5
-1.076, 1.007e-4
-1.077, 1.030e-4
-1.078, 1.055e-4
-1.079, 1.073e-4
-1.080, 1.082e-4
-1.081, 1.100e-4
-1.082, 1.129e-4
-1.083, 1.154e-4
-1.084, 1.173e-4
-1.085, 1.186e-4
-1.086, 1.203e-4
-1.087, 1.233e-4
-1.088, 1.260e-4
-1.089, 1.277e-4
-1.090, 1.291e-4
-1.091, 1.309e-4
-1.092, 1.339e-4
-1.093, 1.368e-4
-1.094, 1.386e-4
-1.095, 1.404e-4
-1.096, 1.423e-4
-1.097, 1.452e-4
-1.098, 1.484e-4
-1.099, 1.501e-4
-1.100, 1.521e-4
-1.101, 1.540e-4
-1.102, 1.568e-4
-1.103, 1.598e-4
-1.104, 1.619e-4
-1.105, 1.635e-4
-1.106, 1.661e-4
-1.107, 1.688e-4
-1.108, 1.719e-4
-1.109, 1.738e-4
-1.110, 1.756e-4
-1.111, 1.781e-4
-1.112, 1.808e-4
-1.113, 1.837e-4
-1.114, 1.862e-4
-1.115, 1.875e-4
-1.116, 1.898e-4
-1.117, 1.928e-4
-1.118, 1.957e-4
-1.119, 1.979e-4
-1.120, 1.992e-4
-1.121, 2.014e-4
-1.122, 2.044e-4
-1.123, 2.073e-4
-1.124, 2.094e-4
-1.125, 2.107e-4
-1.126, 2.126e-4
-1.127, 2.156e-4
-1.128, 2.178e-4
-1.129, 2.200e-4
-1.130, 2.215e-4
-1.131, 2.229e-4
-1.132, 2.255e-4
-1.133, 2.281e-4
-1.134, 2.296e-4
-1.135, 2.307e-4
-1.136, 2.323e-4
-1.137, 2.345e-4
-1.138, 2.371e-4
-1.139, 2.384e-4
-1.140, 2.394e-4
-1.141, 2.406e-4
-1.142, 2.427e-4
-1.143, 2.443e-4
-1.144, 2.452e-4
-1.145, 2.459e-4
-1.146, 2.471e-4
-1.147, 2.490e-4
-1.148, 2.507e-4
-1.149, 2.513e-4
-1.150, 2.514e-4
-1.151, 2.525e-4
-1.152, 2.534e-4
-1.153, 2.550e-4
-1.154, 2.556e-4
-1.155, 2.551e-4
-1.156, 2.555e-4
-1.157, 2.567e-4
-1.158, 2.575e-4
-1.159, 2.577e-4
-1.160, 2.571e-4
-1.161, 2.579e-4
-1.162, 2.583e-4
-1.163, 2.583e-4
-1.164, 2.582e-4
-1.165, 2.576e-4
-1.166, 2.571e-4
-1.167, 2.579e-4
-1.168, 2.582e-4
-1.169, 2.576e-4
-1.170, 2.568e-4
-1.171, 2.562e-4
-1.172, 2.564e-4
-1.173, 2.565e-4
-1.174, 2.556e-4
-1.175, 2.549e-4
-1.176, 2.540e-4
-1.177, 2.543e-4
-1.178, 2.543e-4
-1.179, 2.531e-4
-1.180, 2.519e-4
-1.181, 2.513e-4
-1.182, 2.510e-4
-1.183, 2.508e-4
-1.184, 2.495e-4
-1.185, 2.484e-4
-1.186, 2.480e-4
-1.187, 2.475e-4
-1.188, 2.475e-4
-1.189, 2.463e-4
-1.190, 2.447e-4
-1.191, 2.440e-4
-1.192, 2.442e-4
-1.193, 2.440e-4
-1.194, 2.431e-4
-1.195, 2.415e-4
-1.196, 2.410e-4
-1.197, 2.407e-4
-1.198, 2.406e-4
-1.199, 2.397e-4
-1.200, 2.383e-4
-1.201, 2.378e-4
-1.202, 2.380e-4
-1.203, 2.377e-4
-1.204, 2.369e-4
-1.205, 2.359e-4
-1.206, 2.354e-4
-1.207, 2.357e-4
-1.208, 2.360e-4
-1.209, 2.351e-4
-1.210, 2.343e-4
-1.211, 2.340e-4
-1.212, 2.347e-4
-1.213, 2.352e-4
-1.214, 2.345e-4
-1.215, 2.342e-4
-1.216, 2.343e-4
-1.217, 2.349e-4
-1.218, 2.356e-4
-1.219, 2.354e-4
-1.220, 2.353e-4
-1.221, 2.356e-4
-1.222, 2.367e-4
-1.223, 2.376e-4
-1.224, 2.377e-4
-1.225, 2.381e-4
-1.226, 2.390e-4
-1.227, 2.401e-4
-1.228, 2.418e-4
-1.229, 2.425e-4
-1.230, 2.429e-4
-1.231, 2.441e-4
-1.232, 2.460e-4
-1.233, 2.476e-4
-1.234, 2.486e-4
-1.235, 2.495e-4
-1.236, 2.513e-4
-1.237, 2.534e-4
-1.238, 2.555e-4
-1.239, 2.572e-4
-1.240, 2.584e-4
-1.241, 2.604e-4
-1.242, 2.632e-4
-1.243, 2.656e-4
-1.244, 2.677e-4
-1.245, 2.696e-4
-1.246, 2.722e-4
-1.247, 2.757e-4
-1.248, 2.787e-4
-1.249, 2.813e-4
-1.250, 2.840e-4
-1.251, 2.872e-4
-1.252, 2.911e-4
-1.253, 2.950e-4
-1.254, 2.984e-4
-1.255, 3.017e-4
-1.256, 3.057e-4
-1.257, 3.100e-4
-1.258, 3.148e-4
-1.259, 3.188e-4
-1.260, 3.230e-4
-1.261, 3.280e-4
-1.262, 3.336e-4
-1.263, 3.392e-4
-1.264, 3.443e-4
-1.265, 3.494e-4
-1.266, 3.552e-4
-1.267, 3.614e-4
-1.268, 3.683e-4
-1.269, 3.746e-4
-1.270, 3.806e-4
-1.271, 3.882e-4
-1.272, 3.958e-4
-1.273, 4.036e-4
-1.274, 4.114e-4
-1.275, 4.189e-4
-1.276, 4.279e-4
-1.277, 4.370e-4
-1.278, 4.466e-4
-1.279, 4.559e-4
-1.280, 4.656e-4
-1.281, 4.757e-4
-1.282, 4.867e-4
-1.283, 4.983e-4
-1.284, 5.095e-4
-1.285, 5.209e-4
-1.286, 5.330e-4
-1.287, 5.463e-4
-1.288, 5.597e-4
-1.289, 5.729e-4
-1.290, 5.867e-4
-1.291, 6.011e-4
-1.292, 6.171e-4
-1.293, 6.330e-4
-1.294, 6.480e-4
-1.295, 6.635e-4
-1.296, 6.796e-4
-1.297, 6.968e-4
-1.298, 7.156e-4
-1.299, 7.350e-4
-1.300, 7.543e-4
-1.301, 7.745e-4
-1.302, 7.957e-4
-1.303, 8.177e-4
-1.304, 8.390e-4
-1.305, 8.614e-4
-1.306, 8.852e-4
-1.307, 9.097e-4
-1.308, 9.349e-4
-1.309, 9.598e-4
-1.310, 9.858e-4
-1.311, 1.012e-3
-1.312, 1.040e-3
-1.313, 1.069e-3
-1.314, 1.098e-3
-1.315, 1.128e-3
-1.316, 1.159e-3
-1.317, 1.191e-3
-1.318, 1.224e-3
-1.319, 1.257e-3
-1.320, 1.290e-3
-1.321, 1.325e-3
-1.322, 1.362e-3
-1.323, 1.400e-3
-1.324, 1.439e-3
-1.325, 1.477e-3
-1.326, 1.516e-3
-1.327, 1.555e-3
-1.328, 1.597e-3
-1.329, 1.641e-3
-1.330, 1.681e-3
-1.331, 1.724e-3
-1.332, 1.766e-3
-1.333, 1.811e-3
-1.334, 1.851e-3
-1.335, 1.899e-3
-1.336, 1.947e-3
-1.337, 1.995e-3
-1.338, 2.047e-3
-1.339, 2.096e-3
-1.340, 2.145e-3
-1.341, 2.196e-3
-1.342, 2.247e-3
-1.343, 2.300e-3
-1.344, 2.355e-3
-1.345, 2.407e-3
-1.346, 2.457e-3
-1.347, 2.512e-3
-1.348, 2.568e-3
-1.349, 2.629e-3
-1.350, 2.686e-3
-1.351, 2.745e-3
-1.352, 2.805e-3
-1.353, 2.867e-3
-1.354, 2.936e-3
-1.355, 3.002e-3
-1.356, 3.068e-3
-1.357, 3.136e-3
-1.358, 3.204e-3
-1.359, 3.274e-3
-1.360, 3.340e-3
-1.361, 3.402e-3
-1.362, 3.472e-3
-1.363, 3.545e-3
-1.364, 3.616e-3
-1.365, 3.685e-3
-1.366, 3.754e-3
-1.367, 3.826e-3
-1.368, 3.904e-3
-1.369, 3.982e-3
-1.370, 4.056e-3
-1.371, 4.135e-3
-1.372, 4.220e-3
-1.373, 4.303e-3
-1.374, 4.372e-3
-1.375, 4.443e-3
-1.376, 4.523e-3
-1.377, 4.599e-3
-1.378, 4.688e-3
-1.379, 4.775e-3
-1.380, 4.856e-3
-1.381, 4.947e-3
-1.382, 5.028e-3
-1.383, 5.104e-3
-1.384, 5.192e-3
-1.385, 5.284e-3
-1.386, 5.349e-3
-1.387, 5.425e-3
-1.388, 5.518e-3
-1.389, 5.614e-3
-1.390, 5.710e-3
-1.391, 5.795e-3
-1.392, 5.881e-3
-1.393, 5.964e-3
-1.394, 6.062e-3
-1.395, 6.146e-3
-1.396, 6.226e-3
-1.397, 6.329e-3
-1.398, 6.448e-3
-1.399, 6.521e-3
-1.400, 6.510e-3
-1.399, 6.408e-3
-1.398, 6.302e-3
-1.397, 6.203e-3
-1.396, 6.114e-3
-1.395, 6.038e-3
-1.394, 5.957e-3
-1.393, 5.868e-3
-1.392, 5.782e-3
-1.391, 5.692e-3
-1.390, 5.605e-3
-1.389, 5.519e-3
-1.388, 5.421e-3
-1.387, 5.345e-3
-1.386, 5.256e-3
-1.385, 5.166e-3
-1.384, 5.074e-3
-1.383, 4.978e-3
-1.382, 4.895e-3
-1.381, 4.810e-3
-1.380, 4.714e-3
-1.379, 4.631e-3
-1.378, 4.547e-3
-1.377, 4.473e-3
-1.376, 4.394e-3
-1.375, 4.311e-3
-1.374, 4.221e-3
-1.373, 4.145e-3
-1.372, 4.073e-3
-1.371, 3.997e-3
-1.370, 3.914e-3
-1.369, 3.831e-3
-1.368, 3.744e-3
-1.367, 3.663e-3
-1.366, 3.586e-3
-1.365, 3.509e-3
-1.364, 3.439e-3
-1.363, 3.368e-3
-1.362, 3.294e-3
-1.361, 3.227e-3
-1.360, 3.164e-3
-1.359, 3.093e-3
-1.358, 3.029e-3
-1.357, 2.966e-3
-1.356, 2.898e-3
-1.355, 2.835e-3
-1.354, 2.769e-3
-1.353, 2.709e-3
-1.352, 2.646e-3
-1.351, 2.582e-3
-1.350, 2.523e-3
-1.349, 2.464e-3
-1.348, 2.408e-3
-1.347, 2.347e-3
-1.346, 2.287e-3
-1.345, 2.229e-3
-1.344, 2.168e-3
-1.343, 2.112e-3
-1.342, 2.064e-3
-1.341, 2.013e-3
-1.340, 1.961e-3
-1.339, 1.910e-3
-1.338, 1.856e-3
-1.337, 1.804e-3
-1.336, 1.756e-3
-1.335, 1.708e-3
-1.334, 1.661e-3
-1.333, 1.618e-3
-1.332, 1.575e-3
-1.331, 1.532e-3
-1.330, 1.490e-3
-1.329, 1.446e-3
-1.328, 1.405e-3
-1.327, 1.366e-3
-1.326, 1.328e-3
-1.325, 1.293e-3
-1.324, 1.257e-3
-1.323, 1.222e-3
-1.322, 1.187e-3
-1.321, 1.153e-3
-1.320, 1.121e-3
-1.319, 1.090e-3
-1.318, 1.060e-3
-1.317, 1.030e-3
-1.316, 1.001e-3
-1.315, 9.733e-4
-1.314, 9.459e-4
-1.313, 9.186e-4
-1.312, 8.929e-4
-1.311, 8.657e-4
-1.310, 8.397e-4
-1.309, 8.153e-4
-1.308, 7.919e-4
-1.307, 7.682e-4
-1.306, 7.446e-4
-1.305, 7.215e-4
-1.304, 7.004e-4
-1.303, 6.805e-4
-1.302, 6.605e-4
-1.301, 6.401e-4
-1.300, 6.209e-4
-1.299, 6.027e-4
-1.298, 5.851e-4
-1.297, 5.668e-4
-1.296, 5.492e-4
-1.295, 5.348e-4
-1.294, 5.213e-4
-1.293, 5.066e-4
-1.292, 4.921e-4
-1.291, 4.766e-4
-1.290, 4.614e-4
-1.289, 4.466e-4
-1.288, 4.331e-4
-1.287, 4.200e-4
-1.286, 4.070e-4
-1.285, 3.945e-4
-1.284, 3.826e-4
-1.283, 3.710e-4
-1.282, 3.599e-4
-1.281, 3.481e-4
-1.280, 3.369e-4
-1.279, 3.267e-4
-1.278, 3.169e-4
-1.277, 3.072e-4
-1.276, 2.973e-4
-1.275, 2.881e-4
-1.274, 2.796e-4
-1.273, 2.712e-4
-1.272, 2.628e-4
-1.271, 2.547e-4
-1.270, 2.464e-4
-1.269, 2.391e-4
-1.268, 2.320e-4
-1.267, 2.247e-4
-1.266, 2.170e-4
-1.265, 2.099e-4
-1.264, 2.036e-4
-1.263, 1.974e-4
-1.262, 1.912e-4
-1.261, 1.847e-4
-1.260, 1.785e-4
-1.259, 1.728e-4
-1.258, 1.678e-4
-1.257, 1.625e-4
-1.256, 1.572e-4
-1.255, 1.515e-4
-1.254, 1.465e-4
-1.253, 1.423e-4
-1.252, 1.380e-4
-1.251, 1.333e-4
-1.250, 1.286e-4
-1.249, 1.243e-4
-1.248, 1.207e-4
-1.247, 1.166e-4
-1.246, 1.122e-4
-1.245, 1.081e-4
-1.244, 1.048e-4
-1.243, 1.012e-4
-1.242, 9.776e-5
-1.241, 9.357e-5
-1.240, 9.044e-5
-1.239, 8.772e-5
-1.238, 8.479e-5
-1.237, 8.201e-5
-1.236, 7.899e-5
-1.235, 7.538e-5
-1.234, 7.309e-5
-1.233, 7.157e-5
-1.232, 6.866e-5
-1.231, 6.542e-5
-1.230, 6.212e-5
-1.229, 5.948e-5
-1.228, 5.754e-5
-1.227, 5.530e-5
-1.226, 5.275e-5
-1.225, 5.038e-5
-1.224, 4.858e-5
-1.223, 4.691e-5
-1.222, 4.512e-5
-1.221, 4.300e-5
-1.220, 4.077e-5
-1.219, 3.924e-5
-1.218, 3.800e-5
-1.217, 3.636e-5
-1.216, 3.450e-5
-1.215, 3.255e-5
-1.214, 3.097e-5
-1.213, 2.996e-5
-1.212, 2.862e-5
-1.211, 2.638e-5
-1.210, 2.464e-5
-1.209, 2.337e-5
-1.208, 2.272e-5
-1.207, 2.154e-5
-1.206, 1.969e-5
-1.205, 1.828e-5
-1.204, 1.737e-5
-1.203, 1.648e-5
-1.202, 1.553e-5
-1.201, 1.375e-5
-1.200, 1.226e-5
-1.199, 1.122e-5
-1.198, 1.085e-5
-1.197, 9.437e-6
-1.196, 7.848e-6
-1.195, 6.568e-6
-1.194, 6.787e-6
-1.193, 5.773e-6
-1.192, 5.438e-6
-1.191, 4.377e-6
-1.190, 2.702e-6
-1.189, 1.815e-6
-1.188, 9.173e-7
-1.187, -5.446e-8
-1.186, -8.102e-7
-1.185, -2.157e-6
-1.184, -2.643e-6
-1.183, -3.069e-6
-1.182, -3.806e-6
-1.181, -4.967e-6
-1.180, -5.994e-6
-1.179, -6.394e-6
-1.178, -6.725e-6
-1.177, -7.288e-6
-1.176, -8.390e-6
-1.175, -9.400e-6
-1.174, -9.840e-6
-1.173, -9.561e-6
-1.172, -9.907e-6
-1.171, -1.117e-5
-1.170, -1.206e-5
-1.169, -1.260e-5
-1.168, -1.257e-5
-1.167, -1.301e-5
-1.166, -1.428e-5
-1.165, -1.531e-5
-1.164, -1.579e-5
-1.163, -1.586e-5
-1.162, -1.610e-5
-1.161, -1.732e-5
-1.160, -1.804e-5
-1.159, -1.839e-5
-1.158, -1.842e-5
-1.157, -1.859e-5
-1.156, -1.966e-5
-1.155, -2.067e-5
-1.154, -2.081e-5
-1.153, -2.105e-5
-1.152, -2.152e-5
-1.151, -2.270e-5
-1.150, -2.336e-5
-1.149, -2.266e-5
-1.148, -2.193e-5
-1.147, -2.231e-5
-1.146, -2.320e-5
-1.145, -2.445e-5
-1.144, -2.458e-5
-1.143, -2.449e-5
-1.142, -2.522e-5
-1.141, -2.624e-5
-1.140, -2.717e-5
-1.139, -2.731e-5
-1.138, -2.663e-5
-1.137, -2.691e-5
-1.136, -2.775e-5
-1.135, -2.860e-5
-1.134, -2.918e-5
-1.133, -2.889e-5
-1.132, -2.922e-5
-1.131, -3.010e-5
-1.130, -3.093e-5
-1.129, -3.138e-5
-1.128, -3.093e-5
-1.127, -3.095e-5
-1.126, -3.161e-5
-1.125, -3.193e-5
-1.124, -3.176e-5
-1.123, -3.190e-5
-1.122, -3.235e-5
-1.121, -3.352e-5
-1.120, -3.443e-5
-1.119, -3.475e-5
-1.118, -3.430e-5
-1.117, -3.436e-5
-1.116, -3.528e-5
-1.115, -3.647e-5
-1.114, -3.619e-5
-1.113, -3.623e-5
-1.112, -3.590e-5
-1.111, -3.664e-5
-1.110, -3.766e-5
-1.109, -3.758e-5
-1.108, -3.719e-5
-1.107, -3.749e-5
-1.106, -3.829e-5
-1.105, -3.953e-5
-1.104, -3.959e-5
-1.103, -3.911e-5
-1.102, -3.948e-5
-1.101, -4.014e-5
-1.100, -4.098e-5
-1.099, -4.118e-5
-1.098, -4.080e-5
-1.097, -4.132e-5
-1.096, -4.162e-5
-1.095, -4.222e-5
-1.094, -4.252e-5
-1.093, -4.216e-5
-1.092, -4.230e-5
-1.091, -4.312e-5
-1.090, -4.349e-5
-1.089, -4.316e-5
-1.088, -4.222e-5
-1.087, -4.228e-5
-1.086, -4.386e-5
-1.085, -4.498e-5
-1.084, -4.555e-5
-1.083, -4.562e-5
-1.082, -4.538e-5
-1.081, -4.639e-5
-1.080, -4.695e-5
-1.079, -4.733e-5
-1.078, -4.740e-5
-1.077, -4.708e-5
-1.076, -4.750e-5
-1.075, -4.807e-5
-1.074, -4.759e-5
-1.073, -4.740e-5
-1.072, -4.757e-5
-1.071, -4.883e-5
-1.070, -4.990e-5
-1.069, -4.959e-5
-1.068, -4.919e-5
-1.067, -4.911e-5
-1.066, -4.976e-5
-1.065, -5.064e-5
-1.064, -5.029e-5
-1.063, -4.970e-5
-1.062, -4.971e-5
-1.061, -5.038e-5
-1.060, -5.078e-5
-1.059, -5.101e-5
-1.058, -5.038e-5
-1.057, -5.042e-5
-1.056, -5.119e-5
-1.055, -5.198e-5
-1.054, -5.222e-5
-1.053, -5.188e-5
-1.052, -5.200e-5
-1.051, -5.289e-5
-1.050, -5.326e-5
-1.049, -5.309e-5
-1.048, -5.241e-5
-1.047, -5.242e-5
-1.046, -5.339e-5
-1.045, -5.406e-5
-1.044, -5.384e-5
-1.043, -5.341e-5
-1.042, -5.348e-5
-1.041, -5.452e-5
-1.040, -5.491e-5
-1.039, -5.484e-5
-1.038, -5.464e-5
-1.037, -5.464e-5
-1.036, -5.532e-5
-1.035, -5.604e-5
-1.034, -5.579e-5
-1.033, -5.554e-5
-1.032, -5.521e-5
-1.031, -5.595e-5
-1.030, -5.682e-5
-1.029, -5.641e-5
-1.028, -5.609e-5
-1.027, -5.620e-5
-1.026, -5.678e-5
-1.025, -5.783e-5
-1.024, -5.793e-5
-1.023, -5.713e-5
-1.022, -5.741e-5
-1.021, -5.786e-5
-1.020, -5.830e-5
-1.019, -5.843e-5
-1.018, -5.782e-5
-1.017, -5.828e-5
-1.016, -5.913e-5
-1.015, -5.967e-5
-1.014, -5.974e-5
-1.013, -5.899e-5
-1.012, -5.907e-5
-1.011, -6.006e-5
-1.010, -6.052e-5
-1.009, -6.085e-5
-1.008, -6.028e-5
-1.007, -6.036e-5
-1.006, -6.131e-5
-1.005, -6.176e-5
-1.004, -6.174e-5
-1.003, -6.165e-5
-1.002, -6.151e-5
-1.001, -6.252e-5
-1.000, -3.210e-5
-1.001, -1.989e-5
-1.002, -1.526e-5
-1.003, -1.271e-5
-1.004, -1.095e-5
-1.005, -9.667e-6
-1.006, -7.783e-6
-1.007, -5.409e-6
-1.008, -4.190e-6
-1.009, -3.515e-6
-1.010, -2.673e-6
-1.011, -1.846e-6
-1.012, -2.794e-7
-1.013, 8.986e-7
-1.014, 1.150e-6
-1.015, 2.013e-6
-1.016, 2.757e-6
-1.017, 4.133e-6
-1.018, 5.117e-6
-1.019, 5.156e-6
-1.020, 5.665e-6
-1.021, 6.437e-6
-1.022, 7.707e-6
-1.023, 8.680e-6
-1.024, 8.709e-6
-1.025, 8.787e-6
-1.026, 9.712e-6
-1.027, 1.069e-5
-1.028, 1.147e-5
-1.029, 1.131e-5
-1.030, 1.146e-5
-1.031, 1.249e-5
-1.032, 1.334e-5
-1.033, 1.384e-5
-1.034, 1.384e-5
-1.035, 1.362e-5
-1.036, 1.464e-5
-1.037, 1.568e-5
-1.038, 1.620e-5
-1.039, 1.634e-5
-1.040, 1.617e-5
-1.041, 1.684e-5
-1.042, 1.792e-5
-1.043, 1.814e-5
-1.044, 1.797e-5
-1.045, 1.782e-5
-1.046, 1.853e-5
-1.047, 1.979e-5
-1.048, 2.006e-5
-1.049, 1.992e-5
-1.050, 2.012e-5
-1.051, 2.051e-5
-1.052, 2.169e-5
-1.053, 2.216e-5
-1.054, 2.171e-5
-1.055, 2.181e-5
-1.056, 2.236e-5
-1.057, 2.365e-5
-1.058, 2.420e-5
-1.059, 2.383e-5
-1.060, 2.374e-5
-1.061, 2.425e-5
-1.062, 2.503e-5
-1.063, 2.563e-5
-1.064, 2.522e-5
-1.065, 2.515e-5
-1.066, 2.586e-5
-1.067, 2.676e-5
-1.068, 2.731e-5
-1.069, 2.694e-5
-1.070, 2.678e-5
-1.071, 2.752e-5
-1.072, 2.829e-5
-1.073, 2.854e-5
-1.074, 2.845e-5
-1.075, 2.829e-5
-1.076, 2.885e-5
-1.077, 2.975e-5
-1.078, 3.006e-5
-1.079, 3.010e-5
-1.080, 2.974e-5
-1.081, 3.032e-5
-1.082, 3.142e-5
-1.083, 3.154e-5
-1.084, 3.125e-5
-1.085, 3.118e-5
-1.086, 3.170e-5
-1.087, 3.272e-5
-1.088, 3.288e-5
-1.089, 3.255e-5
-1.090, 3.253e-5
-1.091, 3.302e-5
-1.092, 3.397e-5
-1.093, 3.429e-5
-1.094, 3.414e-5
-1.095, 3.420e-5
-1.096, 3.477e-5
-1.097, 3.565e-5
-1.098, 3.605e-5
-1.099, 3.549e-5
-1.100, 3.548e-5
-1.101, 3.603e-5
-1.102, 3.684e-5
-1.103, 3.738e-5
-1.104, 3.690e-5
-1.105, 3.685e-5
-1.106, 3.758e-5
-1.107, 3.830e-5
-1.108, 3.875e-5
-1.109, 3.837e-5
-1.110, 3.814e-5
-1.111, 3.896e-5
-1.112, 3.975e-5
-1.113, 4.007e-5
-1.114, 3.998e-5
-1.115, 3.971e-5
-1.116, 4.040e-5
-1.117, 4.115e-5
-1.118, 4.136e-5
-1.119, 4.113e-5
-1.120, 4.089e-5
-1.121, 4.167e-5
-1.122, 4.258e-5
-1.123, 4.271e-5
-1.124, 4.254e-5
-1.125, 4.239e-5
-1.126, 4.295e-5
-1.127, 4.397e-5
-1.128, 4.415e-5
-1.129, 4.412e-5
-1.130, 4.416e-5
-1.131, 4.459e-5
-1.132, 4.556e-5
-1.133, 4.571e-5
-1.134, 4.533e-5
-1.135, 4.546e-5
-1.136, 4.592e-5
-1.137, 4.701e-5
-1.138, 4.718e-5
-1.139, 4.668e-5
-1.140, 4.673e-5
-1.141, 4.741e-5
-1.142, 4.829e-5
-1.143, 4.878e-5
-1.144, 4.822e-5
-1.145, 4.822e-5
-1.146, 4.921e-5
-1.147, 4.985e-5
-1.148, 5.010e-5
-1.149, 4.989e-5
-1.150, 4.981e-5
-1.151, 5.075e-5
-1.152, 5.141e-5
-1.153, 5.177e-5
-1.154, 5.164e-5
-1.155, 5.144e-5
-1.156, 5.245e-5
-1.157, 5.316e-5
-1.158, 5.345e-5
-1.159, 5.347e-5
-1.160, 5.338e-5
-1.161, 5.425e-5
-1.162, 5.517e-5
-1.163, 5.539e-5
-1.164, 5.516e-5
-1.165, 5.526e-5
-1.166, 5.613e-5
-1.167, 5.732e-5
-1.168, 5.757e-5
-1.169, 5.730e-5
-1.170, 5.754e-5
-1.171, 5.833e-5
-1.172, 5.939e-5
-1.173, 5.971e-5
-1.174, 5.949e-5
-1.175, 5.978e-5
-1.176, 6.060e-5
-1.177, 6.179e-5
-1.178, 6.209e-5
-1.179, 6.178e-5
-1.180, 6.201e-5
-1.181, 6.303e-5
-1.182, 6.385e-5
-1.183, 6.454e-5
-1.184, 6.426e-5
-1.185, 6.441e-5
-1.186, 6.557e-5
-1.187, 6.642e-5
-1.188, 6.706e-5
-1.189, 6.698e-5
-1.190, 6.728e-5
-1.191, 6.853e-5
-1.192, 6.934e-5
-1.193, 6.984e-5
-1.194, 7.014e-5
-1.195, 7.018e-5
-1.196, 7.153e-5
-1.197, 7.257e-5
-1.198, 7.302e-5
-1.199, 7.333e-5
-1.200, 7.358e-5
-1.201, 7.478e-5
-1.202, 7.605e-5
-1.203, 7.658e-5
-1.204, 7.688e-5
-1.205, 7.731e-5
-1.206, 7.852e-5
-1.207, 7.988e-5
-1.208, 8.032e-5
-1.209, 8.060e-5
-1.210, 8.139e-5
-1.211, 8.257e-5
-1.212, 8.380e-5
-1.213, 8.455e-5
-1.214, 8.496e-5
-1.215, 8.583e-5
-1.216, 8.710e-5
-1.217, 8.844e-5
-1.218, 8.945e-5
-1.219, 8.975e-5
-1.220, 9.065e-5
-1.221, 9.219e-5
-1.222, 9.362e-5
-1.223, 9.477e-5
-1.224, 9.535e-5
-1.225, 9.630e-5
-1.226, 9.820e-5
-1.227, 9.974e-5
-1.228, 1.010e-4
-1.229, 1.020e-4
-1.230, 1.028e-4
-1.231, 1.046e-4
-1.232, 1.063e-4
-1.233, 1.076e-4
-1.234, 1.087e-4
-1.235, 1.100e-4
-1.236, 1.121e-4
-1.237, 1.140e-4
-1.238, 1.156e-4
-1.239, 1.169e-4
-1.240, 1.185e-4
-1.241, 1.208e-4
-1.242, 1.232e-4
-1.243, 1.249e-4
-1.244, 1.266e-4
-1.245, 1.285e-4
-1.246, 1.311e-4
-1.247, 1.338e-4
-1.248, 1.359e-4
-1.249, 1.379e-4
-1.250, 1.404e-4
-1.251, 1.433e-4
-1.252, 1.464e-4
-1.253, 1.491e-4
-1.254, 1.515e-4
-1.255, 1.546e-4
-1.256, 1.581e-4
-1.257, 1.617e-4
-1.258, 1.652e-4
-1.259, 1.680e-4
-1.260, 1.718e-4
-1.261, 1.759e-4
-1.262, 1.802e-4
-1.263, 1.844e-4
-1.264, 1.880e-4
-1.265, 1.924e-4
-1.266, 1.977e-4
-1.267, 2.026e-4
-1.268, 2.076e-4
-1.269, 2.125e-4
-1.270, 2.178e-4
-1.271, 2.242e-4
-1.272, 2.303e-4
-1.273, 2.363e-4
-1.274, 2.425e-4
-1.275, 2.488e-4
-1.276, 2.563e-4
-1.277, 2.637e-4
-1.278, 2.712e-4
-1.279, 2.788e-4
-1.280, 2.868e-4
-1.281, 2.957e-4
-1.282, 3.051e-4
-1.283, 3.142e-4
-1.284, 3.233e-4
-1.285, 3.333e-4
-1.286, 3.440e-4
-1.287, 3.553e-4
-1.288, 3.663e-4
-1.289, 3.778e-4
-1.290, 3.899e-4
-1.291, 4.033e-4
-1.292, 4.169e-4
-1.293, 4.303e-4
-1.294, 4.443e-4
-1.295, 4.590e-4
-1.296, 4.745e-4
-1.297, 4.908e-4
-1.298, 5.072e-4
-1.299, 5.237e-4
-1.300, 5.414e-4
-1.301, 5.603e-4
-1.302, 5.798e-4
-1.303, 5.995e-4
-1.304, 6.197e-4
-1.305, 6.407e-4
-1.306, 6.629e-4
-1.307, 6.857e-4
-1.308, 7.089e-4
-1.309, 7.327e-4
-1.310, 7.576e-4
-1.311, 7.831e-4
-1.312, 8.096e-4
-1.313, 8.367e-4
-1.314, 8.640e-4
-1.315, 8.925e-4
-1.316, 9.234e-4
-1.317, 9.545e-4
-1.318, 9.861e-4
-1.319, 1.019e-3
-1.320, 1.051e-3
-1.321, 1.085e-3
-1.322, 1.120e-3
-1.323, 1.156e-3
-1.324, 1.193e-3
-1.325, 1.230e-3
-1.326, 1.270e-3
-1.327, 1.310e-3
-1.328, 1.350e-3
-1.329, 1.393e-3
-1.330, 1.435e-3
-1.331, 1.478e-3
-1.332, 1.523e-3
-1.333, 1.572e-3
-1.334, 1.618e-3
-1.335, 1.666e-3
-1.336, 1.714e-3
-1.337, 1.763e-3
-1.338, 1.813e-3
-1.339, 1.864e-3
-1.340, 1.914e-3
-1.341, 1.966e-3
-1.342, 2.021e-3
-1.343, 2.076e-3
-1.344, 2.129e-3
-1.345, 2.185e-3
-1.346, 2.245e-3
-1.347, 2.304e-3
-1.348, 2.365e-3
-1.349, 2.425e-3
-1.350, 2.488e-3
-1.351, 2.549e-3
-1.352, 2.610e-3
-1.353, 2.672e-3
-1.354, 2.736e-3
-1.355, 2.799e-3
-1.356, 2.866e-3
-1.357, 2.937e-3
-1.358, 3.011e-3
-1.359, 3.074e-3
-1.360, 3.141e-3
-1.361, 3.213e-3
-1.362, 3.288e-3
-1.363, 3.354e-3
-1.364, 3.425e-3
-1.365, 3.496e-3
-1.366, 3.576e-3
-1.367, 3.654e-3
-1.368, 3.734e-3
-1.369, 3.816e-3
-1.370, 3.895e-3
-1.371, 3.976e-3
-1.372, 4.060e-3
-1.373, 4.136e-3
-1.374, 4.211e-3
-1.375, 4.295e-3
-1.376, 4.380e-3
-1.377, 4.459e-3
-1.378, 4.531e-3
-1.379, 4.612e-3
-1.380, 4.698e-3
-1.381, 4.782e-3
-1.382, 4.873e-3
-1.383, 4.964e-3
-1.384, 5.054e-3
-1.385, 5.147e-3
-1.386, 5.235e-3
-1.387, 5.320e-3
-1.388, 5.399e-3
-1.389, 5.488e-3
-1.390, 5.593e-3
-1.391, 5.675e-3
-1.392, 5.760e-3
-1.393, 5.854e-3
-1.394, 5.933e-3
-1.395, 6.034e-3
-1.396, 6.137e-3
-1.397, 6.253e-3
-1.398, 6.356e-3
-1.399, 6.449e-3
-1.400, 6.444e-3
-1.399, 6.353e-3
-1.398, 6.253e-3
-1.397, 6.171e-3
-1.396, 6.069e-3
-1.395, 5.981e-3
-1.394, 5.897e-3
-1.393, 5.809e-3
-1.392, 5.715e-3
-1.391, 5.615e-3
-1.390, 5.527e-3
-1.389, 5.448e-3
-1.388, 5.365e-3
-1.387, 5.280e-3
-1.386, 5.187e-3
-1.385, 5.101e-3
-1.384, 5.021e-3
-1.383, 4.943e-3
-1.382, 4.861e-3
-1.381, 4.776e-3
-1.380, 4.699e-3
-1.379, 4.611e-3
-1.378, 4.533e-3
-1.377, 4.460e-3
-1.376, 4.374e-3
-1.375, 4.311e-3
-1.374, 4.236e-3
-1.373, 4.151e-3
-1.372, 4.069e-3
-1.371, 3.986e-3
-1.370, 3.905e-3
-1.369, 3.824e-3
-1.368, 3.747e-3
-1.367, 3.668e-3
-1.366, 3.589e-3
-1.365, 3.512e-3
-1.364, 3.436e-3
-1.363, 3.368e-3
-1.362, 3.299e-3
-1.361, 3.229e-3
-1.360, 3.157e-3
-1.359, 3.085e-3
-1.358, 3.012e-3
-1.357, 2.945e-3
-1.356, 2.881e-3
-1.355, 2.818e-3
-1.354, 2.755e-3
-1.353, 2.697e-3
-1.352, 2.638e-3
-1.351, 2.580e-3
-1.350, 2.511e-3
-1.349, 2.455e-3
-1.348, 2.402e-3
-1.347, 2.343e-3
-1.346, 2.291e-3
-1.345, 2.243e-3
-1.344, 2.196e-3
-1.343, 2.145e-3
-1.342, 2.092e-3
-1.341, 2.043e-3
-1.340, 1.994e-3
-1.339, 1.947e-3
-1.338, 1.899e-3
-1.337, 1.850e-3
-1.336, 1.804e-3
-1.335, 1.758e-3
-1.334, 1.711e-3
-1.333, 1.667e-3
-1.332, 1.624e-3
-1.331, 1.582e-3
-1.330, 1.537e-3
-1.329, 1.494e-3
-1.328, 1.457e-3
-1.327, 1.418e-3
-1.326, 1.380e-3
-1.325, 1.343e-3
-1.324, 1.306e-3
-1.323, 1.271e-3
-1.322, 1.239e-3
-1.321, 1.206e-3
-1.320, 1.174e-3
-1.319, 1.142e-3
-1.318, 1.109e-3
-1.317, 1.075e-3
-1.316, 1.041e-3
-1.315, 1.009e-3
-1.314, 9.804e-4
-1.313, 9.529e-4
-1.312, 9.258e-4
-1.311, 8.983e-4
-1.310, 8.720e-4
-1.309, 8.463e-4
-1.308, 8.214e-4
-1.307, 7.961e-4
-1.306, 7.714e-4
-1.305, 7.469e-4
-1.304, 7.232e-4
-1.303, 7.008e-4
-1.302, 6.798e-4
-1.301, 6.585e-4
-1.300, 6.387e-4
-1.299, 6.176e-4
-1.298, 5.974e-4
-1.297, 5.786e-4
-1.296, 5.610e-4
-1.295, 5.438e-4
-1.294, 5.265e-4
-1.293, 5.102e-4
-1.292, 4.949e-4
-1.291, 4.795e-4
-1.290, 4.654e-4
-1.289, 4.517e-4
-1.288, 4.383e-4
-1.287, 4.244e-4
-1.286, 4.103e-4
-1.285, 3.973e-4
-1.284, 3.848e-4
-1.283, 3.728e-4
-1.282, 3.609e-4
-1.281, 3.491e-4
-1.280, 3.376e-4
-1.279, 3.273e-4
-1.278, 3.169e-4
-1.277, 3.065e-4
-1.276, 2.960e-4
-1.275, 2.864e-4
-1.274, 2.773e-4
-1.273, 2.684e-4
-1.272, 2.596e-4
-1.271, 2.506e-4
-1.270, 2.423e-4
-1.269, 2.347e-4
-1.268, 2.271e-4
-1.267, 2.191e-4
-1.266, 2.115e-4
-1.265, 2.044e-4
-1.264, 1.980e-4
-1.263, 1.916e-4
-1.262, 1.848e-4
-1.261, 1.789e-4
-1.260, 1.730e-4
-1.259, 1.669e-4
-1.258, 1.611e-4
-1.257, 1.551e-4
-1.256, 1.492e-4
-1.255, 1.435e-4
-1.254, 1.386e-4
-1.253, 1.339e-4
-1.252, 1.290e-4
-1.251, 1.239e-4
-1.250, 1.197e-4
-1.249, 1.157e-4
-1.248, 1.121e-4
-1.247, 1.078e-4
-1.246, 1.035e-4
-1.245, 9.985e-5
-1.244, 9.661e-5
-1.243, 9.327e-5
-1.242, 8.966e-5
-1.241, 8.595e-5
-1.240, 8.295e-5
-1.239, 8.020e-5
-1.238, 7.732e-5
-1.237, 7.428e-5
-1.236, 7.105e-5
-1.235, 6.838e-5
-1.234, 6.623e-5
-1.233, 6.383e-5
-1.232, 6.117e-5
-1.231, 5.836e-5
-1.230, 5.598e-5
-1.229, 5.400e-5
-1.228, 5.219e-5
-1.227, 4.968e-5
-1.226, 4.737e-5
-1.225, 4.532e-5
-1.224, 4.388e-5
-1.223, 4.231e-5
-1.222, 3.995e-5
-1.221, 3.801e-5
-1.220, 3.638e-5
-1.219, 3.496e-5
-1.218, 3.378e-5
-1.217, 3.160e-5
-1.216, 2.995e-5
-1.215, 2.844e-5
-1.214, 2.717e-5
-1.213, 2.607e-5
-1.212, 2.441e-5
-1.211, 2.253e-5
-1.210, 2.151e-5
-1.209, 2.054e-5
-1.208, 1.957e-5
-1.207, 1.760e-5
-1.206, 1.566e-5
-1.205, 1.469e-5
-1.204, 1.403e-5
-1.203, 1.344e-5
-1.202, 1.199e-5
-1.201, 1.023e-5
-1.200, 9.437e-6
-1.199, 8.976e-6
-1.198, 8.206e-6
-1.197, 7.150e-6
-1.196, 5.864e-6
-1.195, 4.994e-6
-1.194, 4.762e-6
-1.193, 4.045e-6
-1.192, 2.969e-6
-1.191, 1.884e-6
-1.190, 1.101e-6
-1.189, 7.220e-7
-1.188, 3.343e-7
-1.187, -9.947e-7
-1.186, -1.876e-6
-1.185, -2.449e-6
-1.184, -2.511e-6
-1.183, -2.870e-6
-1.182, -4.224e-6
-1.181, -5.805e-6
-1.180, -6.816e-6
-1.179, -7.181e-6
-1.178, -6.783e-6
-1.177, -7.354e-6
-1.176, -8.612e-6
-1.175, -9.331e-6
-1.174, -9.674e-6
-1.173, -9.870e-6
-1.172, -1.081e-5
-1.171, -1.167e-5
-1.170, -1.159e-5
-1.169, -1.120e-5
-1.168, -1.079e-5
-1.167, -1.180e-5
-1.166, -1.323e-5
-1.165, -1.388e-5
-1.164, -1.414e-5
-1.163, -1.445e-5
-1.162, -1.534e-5
-1.161, -1.640e-5
-1.160, -1.645e-5
-1.159, -1.596e-5
-1.158, -1.627e-5
-1.157, -1.708e-5
-1.156, -1.824e-5
-1.155, -1.869e-5
-1.154, -1.830e-5
-1.153, -1.836e-5
-1.152, -1.919e-5
-1.151, -2.024e-5
-1.150, -2.087e-5
-1.149, -2.096e-5
-1.148, -2.101e-5
-1.147, -2.143e-5
-1.146, -2.177e-5
-1.145, -2.205e-5
-1.144, -2.183e-5
-1.143, -2.174e-5
-1.142, -2.277e-5
-1.141, -2.361e-5
-1.140, -2.390e-5
-1.139, -2.389e-5
-1.138, -2.348e-5
-1.137, -2.414e-5
-1.136, -2.501e-5
-1.135, -2.539e-5
-1.134, -2.548e-5
-1.133, -2.530e-5
-1.132, -2.585e-5
-1.131, -2.699e-5
-1.130, -2.698e-5
-1.129, -2.701e-5
-1.128, -2.648e-5
-1.127, -2.692e-5
-1.126, -2.785e-5
-1.125, -2.802e-5
-1.124, -2.797e-5
-1.123, -2.808e-5
-1.122, -2.873e-5
-1.121, -2.977e-5
-1.120, -2.966e-5
-1.119, -2.945e-5
-1.118, -2.969e-5
-1.117, -2.995e-5
-1.116, -3.086e-5
-1.115, -3.121e-5
-1.114, -3.057e-5
-1.113, -3.053e-5
-1.112, -3.084e-5
-1.111, -3.150e-5
-1.110, -3.164e-5
-1.109, -3.115e-5
-1.108, -3.145e-5
-1.107, -3.251e-5
-1.106, -3.354e-5
-1.105, -3.427e-5
-1.104, -3.370e-5
-1.103, -3.336e-5
-1.102, -3.375e-5
-1.101, -3.433e-5
-1.100, -3.453e-5
-1.099, -3.457e-5
-1.098, -3.464e-5
-1.097, -3.616e-5
-1.096, -3.734e-5
-1.095, -3.726e-5
-1.094, -3.673e-5
-1.093, -3.630e-5
-1.092, -3.668e-5
-1.091, -3.768e-5
-1.090, -3.738e-5
-1.089, -3.728e-5
-1.088, -3.706e-5
-1.087, -3.776e-5
-1.086, -3.885e-5
-1.085, -3.866e-5
-1.084, -3.833e-5
-1.083, -3.789e-5
-1.082, -3.823e-5
-1.081, -3.929e-5
-1.080, -3.924e-5
-1.079, -3.903e-5
-1.078, -3.919e-5
-1.077, -3.981e-5
-1.076, -4.079e-5
-1.075, -4.080e-5
-1.074, -4.005e-5
-1.073, -3.988e-5
-1.072, -4.010e-5
-1.071, -4.116e-5
-1.070, -4.155e-5
-1.069, -4.116e-5
-1.068, -4.085e-5
-1.067, -4.138e-5
-1.066, -4.211e-5
-1.065, -4.247e-5
-1.064, -4.202e-5
-1.063, -4.165e-5
-1.062, -4.221e-5
-1.061, -4.286e-5
-1.060, -4.281e-5
-1.059, -4.272e-5
-1.058, -4.213e-5
-1.057, -4.285e-5
-1.056, -4.374e-5
-1.055, -4.403e-5
-1.054, -4.406e-5
-1.053, -4.338e-5
-1.052, -4.410e-5
-1.051, -4.517e-5
-1.050, -4.587e-5
-1.049, -4.602e-5
-1.048, -4.529e-5
-1.047, -4.549e-5
-1.046, -4.616e-5
-1.045, -4.590e-5
-1.044, -4.546e-5
-1.043, -4.528e-5
-1.042, -4.560e-5
-1.041, -4.647e-5
-1.040, -4.633e-5
-1.039, -4.620e-5
-1.038, -4.619e-5
-1.037, -4.662e-5
-1.036, -4.749e-5
-1.035, -4.761e-5
-1.034, -4.675e-5
-1.033, -4.654e-5
-1.032, -4.703e-5
-1.031, -4.822e-5
-1.030, -4.893e-5
-1.029, -4.856e-5
-1.028, -4.853e-5
-1.027, -4.933e-5
-1.026, -4.989e-5
-1.025, -5.008e-5
-1.024, -4.936e-5
-1.023, -4.892e-5
-1.022, -4.949e-5
-1.021, -5.013e-5
-1.020, -5.053e-5
-1.019, -5.021e-5
-1.018, -4.996e-5
-1.017, -5.051e-5
-1.016, -5.108e-5
-1.015, -5.129e-5
-1.014, -5.108e-5
-1.013, -5.063e-5
-1.012, -5.130e-5
-1.011, -5.241e-5
-1.010, -5.240e-5
-1.009, -5.238e-5
-1.008, -5.203e-5
-1.007, -5.267e-5
-1.006, -5.374e-5
-1.005, -5.362e-5
-1.004, -5.325e-5
-1.003, -5.319e-5
-1.002, -5.383e-5
-1.001, -5.476e-5
-1.000, -2.488e-5
-1.001, -1.267e-5
-1.002, -9.055e-6
-1.003, -7.829e-6
-1.004, -6.891e-6
-1.005, -5.238e-6
-1.006, -3.063e-6
-1.007, -9.532e-7
-1.008, 4.124e-8
-1.009, 6.766e-7
-1.010, 1.759e-6
-1.011, 2.900e-6
-1.012, 3.915e-6
-1.013, 3.889e-6
-1.014, 3.844e-6
-1.015, 4.795e-6
-1.016, 5.957e-6
-1.017, 7.141e-6
-1.018, 7.393e-6
-1.019, 7.280e-6
-1.020, 7.870e-6
-1.021, 9.030e-6
-1.022, 9.981e-6
-1.023, 1.034e-5
-1.024, 1.012e-5
-1.025, 1.065e-5
-1.026, 1.183e-5
-1.027, 1.228e-5
-1.028, 1.238e-5
-1.029, 1.237e-5
-1.030, 1.278e-5
-1.031, 1.384e-5
-1.032, 1.440e-5
-1.033, 1.429e-5
-1.034, 1.431e-5
-1.035, 1.461e-5
-1.036, 1.568e-5
-1.037, 1.649e-5
-1.038, 1.626e-5
-1.039, 1.630e-5
-1.040, 1.659e-5
-1.041, 1.771e-5
-1.042, 1.869e-5
-1.043, 1.840e-5
-1.044, 1.800e-5
-1.045, 1.830e-5
-1.046, 1.897e-5
-1.047, 1.976e-5
-1.048, 1.960e-5
-1.049, 1.911e-5
-1.050, 1.967e-5
-1.051, 2.035e-5
-1.052, 2.107e-5
-1.053, 2.077e-5
-1.054, 2.035e-5
-1.055, 2.058e-5
-1.056, 2.105e-5
-1.057, 2.170e-5
-1.058, 2.181e-5
-1.059, 2.149e-5
-1.060, 2.208e-5
-1.061, 2.283e-5
-1.062, 2.348e-5
-1.063, 2.333e-5
-1.064, 2.276e-5
-1.065, 2.308e-5
-1.066, 2.412e-5
-1.067, 2.469e-5
-1.068, 2.469e-5
-1.069, 2.430e-5
-1.070, 2.453e-5
-1.071, 2.543e-5
-1.072, 2.606e-5
-1.073, 2.581e-5
-1.074, 2.587e-5
-1.075, 2.631e-5
-1.076, 2.680e-5
-1.077, 2.732e-5
-1.078, 2.688e-5
-1.079, 2.667e-5
-1.080, 2.666e-5
-1.081, 2.767e-5
-1.082, 2.837e-5
-1.083, 2.809e-5
-1.084, 2.764e-5
-1.085, 2.794e-5
-1.086, 2.861e-5
-1.087, 2.937e-5
-1.088, 2.906e-5
-1.089, 2.855e-5
-1.090, 2.905e-5
-1.091, 2.983e-5
-1.092, 3.063e-5
-1.093, 3.023e-5
-1.094, 2.980e-5
-1.095, 3.033e-5
-1.096, 3.091e-5
-1.097, 3.153e-5
-1.098, 3.135e-5
-1.099, 3.077e-5
-1.100, 3.113e-5
-1.101, 3.193e-5
-1.102, 3.250e-5
-1.103, 3.255e-5
-1.104, 3.186e-5
-1.105, 3.204e-5
-1.106, 3.296e-5
-1.107, 3.341e-5
-1.108, 3.337e-5
-1.109, 3.285e-5
-1.110, 3.304e-5
-1.111, 3.388e-5
-1.112, 3.440e-5
-1.113, 3.423e-5
-1.114, 3.417e-5
-1.115, 3.427e-5
-1.116, 3.511e-5
-1.117, 3.574e-5
-1.118, 3.546e-5
-1.119, 3.524e-5
-1.120, 3.537e-5
-1.121, 3.614e-5
-1.122, 3.685e-5
-1.123, 3.650e-5
-1.124, 3.622e-5
-1.125, 3.652e-5
-1.126, 3.732e-5
-1.127, 3.815e-5
-1.128, 3.768e-5
-1.129, 3.732e-5
-1.130, 3.780e-5
-1.131, 3.835e-5
-1.132, 3.914e-5
-1.133, 3.892e-5
-1.134, 3.842e-5
-1.135, 3.896e-5
-1.136, 3.948e-5
-1.137, 4.008e-5
-1.138, 4.004e-5
-1.139, 3.963e-5
-1.140, 4.006e-5
-1.141, 4.077e-5
-1.142, 4.136e-5
-1.143, 4.138e-5
-1.144, 4.094e-5
-1.145, 4.131e-5
-1.146, 4.207e-5
-1.147, 4.271e-5
-1.148, 4.249e-5
-1.149, 4.227e-5
-1.150, 4.265e-5
-1.151, 4.353e-5
-1.152, 4.409e-5
-1.153, 4.391e-5
-1.154, 4.375e-5
-1.155, 4.394e-5
-1.156, 4.488e-5
-1.157, 4.561e-5
-1.158, 4.534e-5
-1.159, 4.526e-5
-1.160, 4.555e-5
-1.161, 4.633e-5
-1.162, 4.713e-5
-1.163, 4.696e-5
-1.164, 4.686e-5
-1.165, 4.719e-5
-1.166, 4.796e-5
-1.167, 4.874e-5
-1.168, 4.860e-5
-1.169, 4.843e-5
-1.170, 4.899e-5
-1.171, 4.977e-5
-1.172, 5.049e-5
-1.173, 5.049e-5
-1.174, 5.020e-5
-1.175, 5.078e-5
-1.176, 5.175e-5
-1.177, 5.271e-5
-1.178, 5.268e-5
-1.179, 5.238e-5
-1.180, 5.296e-5
-1.181, 5.388e-5
-1.182, 5.461e-5
-1.183, 5.467e-5
-1.184, 5.445e-5
-1.185, 5.493e-5
-1.186, 5.604e-5
-1.187, 5.672e-5
-1.188, 5.683e-5
-1.189, 5.682e-5
-1.190, 5.732e-5
-1.191, 5.845e-5
-1.192, 5.922e-5
-1.193, 5.921e-5
-1.194, 5.941e-5
-1.195, 5.986e-5
-1.196, 6.103e-5
-1.197, 6.182e-5
-1.198, 6.196e-5
-1.199, 6.216e-5
-1.200, 6.263e-5
-1.201, 6.375e-5
-1.202, 6.472e-5
-1.203, 6.486e-5
-1.204, 6.493e-5
-1.205, 6.572e-5
-1.206, 6.676e-5
-1.207, 6.775e-5
-1.208, 6.795e-5
-1.209, 6.809e-5
-1.210, 6.905e-5
-1.211, 6.997e-5
-1.212, 7.115e-5
-1.213, 7.139e-5
-1.214, 7.150e-5
-1.215, 7.253e-5
-1.216, 7.358e-5
-1.217, 7.469e-5
-1.218, 7.511e-5
-1.219, 7.532e-5
-1.220, 7.634e-5
-1.221, 7.764e-5
-1.222, 7.874e-5
-1.223, 7.938e-5
-1.224, 7.961e-5
-1.225, 8.065e-5
-1.226, 8.215e-5
-1.227, 8.335e-5
-1.228, 8.416e-5
-1.229, 8.471e-5
-1.230, 8.569e-5
-1.231, 8.734e-5
-1.232, 8.854e-5
-1.233, 8.921e-5
-1.234, 9.014e-5
-1.235, 9.136e-5
-1.236, 9.305e-5
-1.237, 9.464e-5
-1.238, 9.557e-5
-1.239, 9.674e-5
-1.240, 9.815e-5
-1.241, 1.000e-4
-1.242, 1.019e-4
-1.243, 1.028e-4
-1.244, 1.040e-4
-1.245, 1.058e-4
-1.246, 1.079e-4
-1.247, 1.102e-4
-1.248, 1.114e-4
-1.249, 1.130e-4
-1.250, 1.152e-4
-1.251, 1.176e-4
-1.252, 1.201e-4
-1.253, 1.219e-4
-1.254, 1.237e-4
-1.255, 1.263e-4
-1.256, 1.291e-4
-1.257, 1.320e-4
-1.258, 1.344e-4
-1.259, 1.368e-4
-1.260, 1.400e-4
-1.261, 1.433e-4
-1.262, 1.468e-4
-1.263, 1.497e-4
-1.264, 1.529e-4
-1.265, 1.565e-4
-1.266, 1.609e-4
-1.267, 1.651e-4
-1.268, 1.688e-4
-1.269, 1.729e-4
-1.270, 1.774e-4
-1.271, 1.826e-4
-1.272, 1.877e-4
-1.273, 1.924e-4
-1.274, 1.975e-4
-1.275, 2.031e-4
-1.276, 2.094e-4
-1.277, 2.156e-4
-1.278, 2.216e-4
-1.279, 2.280e-4
-1.280, 2.350e-4
-1.281, 2.426e-4
-1.282, 2.505e-4
-1.283, 2.577e-4
-1.284, 2.657e-4
-1.285, 2.742e-4
-1.286, 2.835e-4
-1.287, 2.931e-4
-1.288, 3.022e-4
-1.289, 3.119e-4
-1.290, 3.227e-4
-1.291, 3.339e-4
-1.292, 3.456e-4
-1.293, 3.573e-4
-1.294, 3.692e-4
-1.295, 3.822e-4
-1.296, 3.959e-4
-1.297, 4.101e-4
-1.298, 4.244e-4
-1.299, 4.391e-4
-1.300, 4.549e-4
-1.301, 4.717e-4
-1.302, 4.886e-4
-1.303, 5.059e-4
-1.304, 5.240e-4
-1.305, 5.430e-4
-1.306, 5.633e-4
-1.307, 5.836e-4
-1.308, 6.040e-4
-1.309, 6.253e-4
-1.310, 6.480e-4
-1.311, 6.718e-4
-1.312, 6.957e-4
-1.313, 7.210e-4
-1.314, 7.463e-4
-1.315, 7.721e-4
-1.316, 7.999e-4
-1.317, 8.283e-4
-1.318, 8.565e-4
-1.319, 8.864e-4
-1.320, 9.178e-4
-1.321, 9.501e-4
-1.322, 9.831e-4
-1.323, 1.017e-3
-1.324, 1.050e-3
-1.325, 1.085e-3
-1.326, 1.123e-3
-1.327, 1.161e-3
-1.328, 1.197e-3
-1.329, 1.235e-3
-1.330, 1.275e-3
-1.331, 1.317e-3
-1.332, 1.360e-3
-1.333, 1.406e-3
-1.334, 1.449e-3
-1.335, 1.494e-3
-1.336, 1.539e-3
-1.337, 1.586e-3
-1.338, 1.633e-3
-1.339, 1.683e-3
-1.340, 1.731e-3
-1.341, 1.782e-3
-1.342, 1.834e-3
-1.343, 1.887e-3
-1.344, 1.939e-3
-1.345, 1.998e-3
-1.346, 2.057e-3
-1.347, 2.114e-3
-1.348, 2.169e-3
-1.349, 2.224e-3
-1.350, 2.281e-3
-1.351, 2.341e-3
-1.352, 2.399e-3
-1.353, 2.464e-3
-1.354, 2.528e-3
-1.355, 2.587e-3
-1.356, 2.654e-3
-1.357, 2.728e-3
-1.358, 2.798e-3
-1.359, 2.863e-3
-1.360, 2.927e-3
-1.361, 2.998e-3
-1.362, 3.070e-3
-1.363, 3.146e-3
-1.364, 3.219e-3
-1.365, 3.286e-3
-1.366, 3.360e-3
-1.367, 3.438e-3
-1.368, 3.514e-3
-1.369, 3.593e-3
-1.370, 3.670e-3
-1.371, 3.740e-3
-1.372, 3.815e-3
-1.373, 3.889e-3
-1.374, 3.966e-3
-1.375, 4.052e-3
-1.376, 4.130e-3
-1.377, 4.201e-3
-1.378, 4.280e-3
-1.379, 4.360e-3
-1.380, 4.437e-3
-1.381, 4.524e-3
-1.382, 4.615e-3
-1.383, 4.694e-3
-1.384, 4.776e-3
-1.385, 4.867e-3
-1.386, 4.961e-3
-1.387, 5.042e-3
-1.388, 5.128e-3
-1.389, 5.219e-3
-1.390, 5.317e-3
-1.391, 5.403e-3
-1.392, 5.495e-3
-1.393, 5.590e-3
-1.394, 5.677e-3
-1.395, 5.766e-3
-1.396, 5.860e-3
-1.397, 5.930e-3
-1.398, 6.001e-3
-1.399, 6.079e-3
-1.400, 6.104e-3
-1.399, 6.042e-3
-1.398, 5.963e-3
-1.397, 5.886e-3
-1.396, 5.802e-3
-1.395, 5.708e-3
-1.394, 5.604e-3
-1.393, 5.498e-3
-1.392, 5.408e-3
-1.391, 5.325e-3
-1.390, 5.241e-3
-1.389, 5.160e-3
-1.388, 5.085e-3
-1.387, 5.018e-3
-1.386, 4.936e-3
-1.385, 4.854e-3
-1.384, 4.772e-3
-1.383, 4.691e-3
-1.382, 4.629e-3
-1.381, 4.562e-3
-1.380, 4.503e-3
-1.379, 4.413e-3
-1.378, 4.313e-3
-1.377, 4.221e-3
-1.376, 4.150e-3
-1.375, 4.088e-3
-1.374, 4.019e-3
-1.373, 3.944e-3
-1.372, 3.866e-3
-1.371, 3.799e-3
-1.370, 3.729e-3
-1.369, 3.647e-3
-1.368, 3.573e-3
-1.367, 3.497e-3
-1.366, 3.424e-3
-1.365, 3.353e-3
-1.364, 3.290e-3
-1.363, 3.233e-3
-1.362, 3.166e-3
-1.361, 3.095e-3
-1.360, 3.029e-3
-1.359, 2.966e-3
-1.358, 2.909e-3
-1.357, 2.854e-3
-1.356, 2.806e-3
-1.355, 2.751e-3
-1.354, 2.689e-3
-1.353, 2.627e-3
-1.352, 2.568e-3
-1.351, 2.506e-3
-1.350, 2.445e-3
-1.349, 2.383e-3
-1.348, 2.329e-3
-1.347, 2.271e-3
-1.346, 2.213e-3
-1.345, 2.158e-3
-1.344, 2.107e-3
-1.343, 2.055e-3
-1.342, 2.004e-3
-1.341, 1.952e-3
-1.340, 1.902e-3
-1.339, 1.854e-3
-1.338, 1.806e-3
-1.337, 1.757e-3
-1.336, 1.710e-3
-1.335, 1.664e-3
-1.334, 1.619e-3
-1.333, 1.574e-3
-1.332, 1.534e-3
-1.331, 1.495e-3
-1.330, 1.457e-3
-1.329, 1.419e-3
-1.328, 1.382e-3
-1.327, 1.345e-3
-1.326, 1.307e-3
-1.325, 1.271e-3
-1.324, 1.236e-3
-1.323, 1.202e-3
-1.322, 1.167e-3
-1.321, 1.134e-3
-1.320, 1.102e-3
-1.319, 1.071e-3
-1.318, 1.041e-3
-1.317, 1.011e-3
-1.316, 9.847e-4
-1.315, 9.579e-4
-1.314, 9.299e-4
-1.313, 9.028e-4
-1.312, 8.745e-4
-1.311, 8.469e-4
-1.310, 8.212e-4
-1.309, 7.965e-4
-1.308, 7.723e-4
-1.307, 7.484e-4
-1.306, 7.247e-4
-1.305, 7.022e-4
-1.304, 6.828e-4
-1.303, 6.631e-4
-1.302, 6.425e-4
-1.301, 6.223e-4
-1.300, 6.034e-4
-1.299, 5.851e-4
-1.298, 5.676e-4
-1.297, 5.500e-4
-1.296, 5.328e-4
-1.295, 5.164e-4
-1.294, 5.009e-4
-1.293, 4.861e-4
-1.292, 4.708e-4
-1.291, 4.560e-4
-1.290, 4.418e-4
-1.289, 4.278e-4
-1.288, 4.145e-4
-1.287, 4.007e-4
-1.286, 3.875e-4
-1.285, 3.753e-4
-1.284, 3.631e-4
-1.283, 3.514e-4
-1.282, 3.396e-4
-1.281, 3.278e-4
-1.280, 3.179e-4
-1.279, 3.088e-4
-1.278, 2.986e-4
-1.277, 2.880e-4
-1.276, 2.779e-4
-1.275, 2.686e-4
-1.274, 2.598e-4
-1.273, 2.509e-4
-1.272, 2.420e-4
-1.271, 2.330e-4
-1.270, 2.250e-4
-1.269, 2.178e-4
-1.268, 2.106e-4
-1.267, 2.030e-4
-1.266, 1.958e-4
-1.265, 1.892e-4
-1.264, 1.830e-4
-1.263, 1.769e-4
-1.262, 1.703e-4
-1.261, 1.640e-4
-1.260, 1.585e-4
-1.259, 1.532e-4
-1.258, 1.483e-4
-1.257, 1.427e-4
-1.256, 1.373e-4
-1.255, 1.327e-4
-1.254, 1.281e-4
-1.253, 1.237e-4
-1.252, 1.194e-4
-1.251, 1.150e-4
-1.250, 1.111e-4
-1.249, 1.077e-4
-1.248, 1.042e-4
-1.247, 1.001e-4
-1.246, 9.585e-5
-1.245, 9.253e-5
-1.244, 8.949e-5
-1.243, 8.616e-5
-1.242, 8.252e-5
-1.241, 7.898e-5
-1.240, 7.628e-5
-1.239, 7.368e-5
-1.238, 7.094e-5
-1.237, 6.812e-5
-1.236, 6.510e-5
-1.235, 6.257e-5
-1.234, 6.041e-5
-1.233, 5.818e-5
-1.232, 5.563e-5
-1.231, 5.311e-5
-1.230, 5.095e-5
-1.229, 4.887e-5
-1.228, 4.723e-5
-1.227, 4.483e-5
-1.226, 4.258e-5
-1.225, 4.088e-5
-1.224, 3.943e-5
-1.223, 3.802e-5
-1.222, 3.578e-5
-1.221, 3.376e-5
-1.220, 3.210e-5
-1.219, 3.096e-5
-1.218, 2.988e-5
-1.217, 2.800e-5
-1.216, 2.628e-5
-1.215, 2.503e-5
-1.214, 2.403e-5
-1.213, 2.329e-5
-1.212, 2.168e-5
-1.211, 1.977e-5
-1.210, 1.862e-5
-1.209, 1.774e-5
-1.208, 1.691e-5
-1.207, 1.537e-5
-1.206, 1.370e-5
-1.205, 1.309e-5
-1.204, 1.248e-5
-1.203, 1.162e-5
-1.202, 1.043e-5
-1.201, 8.952e-6
-1.200, 7.986e-6
-1.199, 7.654e-6
-1.198, 6.911e-6
-1.197, 5.859e-6
-1.196, 4.770e-6
-1.195, 4.002e-6
-1.194, 3.712e-6
-1.193, 3.142e-6
-1.192, 2.180e-6
-1.191, 9.825e-7
-1.190, 2.553e-7
-1.189, -1.028e-7
-1.188, -4.116e-7
-1.187, -1.635e-6
-1.186, -2.567e-6
-1.185, -3.388e-6
-1.184, -3.538e-6
-1.183, -3.660e-6
-1.182, -5.202e-6
-1.181, -6.032e-6
-1.180, -6.312e-6
-1.179, -6.591e-6
-1.178, -6.615e-6
-1.177, -7.551e-6
-1.176, -8.380e-6
-1.175, -8.776e-6
-1.174, -8.733e-6
-1.173, -8.713e-6
-1.172, -1.002e-5
-1.171, -1.097e-5
-1.170, -1.039e-5
-1.169, -1.026e-5
-1.168, -1.042e-5
-1.167, -1.161e-5
-1.166, -1.288e-5
-1.165, -1.321e-5
-1.164, -1.336e-5
-1.163, -1.356e-5
-1.162, -1.431e-5
-1.161, -1.533e-5
-1.160, -1.555e-5
-1.159, -1.555e-5
-1.158, -1.577e-5
-1.157, -1.622e-5
-1.156, -1.697e-5
-1.155, -1.720e-5
-1.154, -1.686e-5
-1.153, -1.706e-5
-1.152, -1.764e-5
-1.151, -1.853e-5
-1.150, -1.896e-5
-1.149, -1.854e-5
-1.148, -1.862e-5
-1.147, -1.952e-5
-1.146, -2.045e-5
-1.145, -2.103e-5
-1.144, -2.084e-5
-1.143, -2.072e-5
-1.142, -2.163e-5
-1.141, -2.199e-5
-1.140, -2.196e-5
-1.139, -2.188e-5
-1.138, -2.165e-5
-1.137, -2.272e-5
-1.136, -2.359e-5
-1.135, -2.364e-5
-1.134, -2.357e-5
-1.133, -2.315e-5
-1.132, -2.387e-5
-1.131, -2.491e-5
-1.130, -2.516e-5
-1.129, -2.507e-5
-1.128, -2.464e-5
-1.127, -2.524e-5
-1.126, -2.634e-5
-1.125, -2.647e-5
-1.124, -2.623e-5
-1.123, -2.680e-5
-1.122, -2.796e-5
-1.121, -2.911e-5
-1.120, -2.879e-5
-1.119, -2.801e-5
-1.118, -2.802e-5
-1.117, -2.837e-5
-1.116, -2.922e-5
-1.115, -2.965e-5
-1.114, -2.955e-5
-1.113, -2.926e-5
-1.112, -2.913e-5
-1.111, -2.957e-5
-1.110, -2.980e-5
-1.109, -2.962e-5
-1.108, -2.940e-5
-1.107, -3.004e-5
-1.106, -3.045e-5
-1.105, -3.075e-5
-1.104, -3.022e-5
-1.103, -3.015e-5
-1.102, -3.107e-5
-1.101, -3.167e-5
-1.100, -3.178e-5
-1.099, -3.141e-5
-1.098, -3.085e-5
-1.097, -3.155e-5
-1.096, -3.218e-5
-1.095, -3.246e-5
-1.094, -3.241e-5
-1.093, -3.208e-5
-1.092, -3.256e-5
-1.091, -3.353e-5
-1.090, -3.351e-5
-1.089, -3.324e-5
-1.088, -3.296e-5
-1.087, -3.352e-5
-1.086, -3.467e-5
-1.085, -3.469e-5
-1.084, -3.428e-5
-1.083, -3.402e-5
-1.082, -3.429e-5
-1.081, -3.508e-5
-1.080, -3.519e-5
-1.079, -3.475e-5
-1.078, -3.468e-5
-1.077, -3.508e-5
-1.076, -3.594e-5
-1.075, -3.625e-5
-1.074, -3.555e-5
-1.073, -3.560e-5
-1.072, -3.590e-5
-1.071, -3.669e-5
-1.070, -3.709e-5
-1.069, -3.669e-5
-1.068, -3.645e-5
-1.067, -3.715e-5
-1.066, -3.845e-5
-1.065, -3.907e-5
-1.064, -3.870e-5
-1.063, -3.814e-5
-1.062, -3.874e-5
-1.061, -3.900e-5
-1.060, -3.925e-5
-1.059, -3.908e-5
-1.058, -3.861e-5
-1.057, -3.923e-5
-1.056, -4.000e-5
-1.055, -3.996e-5
-1.054, -3.964e-5
-1.053, -3.929e-5
-1.052, -3.985e-5
-1.051, -4.070e-5
-1.050, -4.074e-5
-1.049, -4.053e-5
-1.048, -4.021e-5
-1.047, -4.079e-5
-1.046, -4.147e-5
-1.045, -4.133e-5
-1.044, -4.077e-5
-1.043, -4.080e-5
-1.042, -4.145e-5
-1.041, -4.267e-5
-1.040, -4.271e-5
-1.039, -4.238e-5
-1.038, -4.214e-5
-1.037, -4.227e-5
-1.036, -4.276e-5
-1.035, -4.298e-5
-1.034, -4.245e-5
-1.033, -4.237e-5
-1.032, -4.285e-5
-1.031, -4.376e-5
-1.030, -4.407e-5
-1.029, -4.348e-5
-1.028, -4.321e-5
-1.027, -4.416e-5
-1.026, -4.513e-5
-1.025, -4.545e-5
-1.024, -4.529e-5
-1.023, -4.498e-5
-1.022, -4.603e-5
-1.021, -4.644e-5
-1.020, -4.649e-5
-1.019, -4.637e-5
-1.018, -4.596e-5
-1.017, -4.691e-5
-1.016, -4.773e-5
-1.015, -4.775e-5
-1.014, -4.757e-5
-1.013, -4.702e-5
-1.012, -4.762e-5
-1.011, -4.855e-5
-1.010, -4.844e-5
-1.009, -4.820e-5
-1.008, -4.768e-5
-1.007, -4.831e-5
-1.006, -4.932e-5
-1.005, -4.946e-5
-1.004, -4.924e-5
-1.003, -4.922e-5
-1.002, -4.968e-5
-1.001, -5.067e-5
