Jan. 15, 2025   00:36:57
Cyclic Voltammetry
File: c:/users/guazh/data/banditlqround7_x0exp772_r5/2025-01-10-exp848\exp848-2025-01-15t00_24_42-h2koh\exp848_cv_sr_800mvs_efin_-1500mv.bin
Data Source:  Experiment
Instrument Model:  CHI760E
Header: CV ran at 800 mVs
Note: 

Init E (V) = -1
High E (V) = -1
Low E (V) = -1.5
Final E (V) = -1
Init P/N = N
Scan Rate (V/s) = 0.8
Segment = 3
Sample Interval (V) = 0.001
Quiet Time (sec) = 2
Sensitivity (A/V) = 0.01
Comp R (ohm) = 1.6

Results:

Channel 1:
Segment 1:

Segment 2:

Segment 3:

Potential/V, Current/A

-1.000, -9.093e-6
-1.001, 8.957e-5
-1.002, 1.636e-4
-1.003, 2.221e-4
-1.004, 2.715e-4
-1.005, 3.085e-4
-1.006, 3.393e-4
-1.007, 3.640e-4
-1.008, 3.855e-4
-1.009, 4.040e-4
-1.010, 4.225e-4
-1.011, 4.380e-4
-1.012, 4.595e-4
-1.013, 4.780e-4
-1.014, 4.965e-4
-1.015, 5.120e-4
-1.016, 5.305e-4
-1.017, 5.428e-4
-1.018, 5.551e-4
-1.019, 5.644e-4
-1.020, 5.736e-4
-1.021, 5.829e-4
-1.022, 5.890e-4
-1.023, 5.983e-4
-1.024, 6.106e-4
-1.025, 6.229e-4
-1.026, 6.353e-4
-1.027, 6.507e-4
-1.028, 6.661e-4
-1.029, 6.815e-4
-1.030, 6.939e-4
-1.031, 7.062e-4
-1.032, 7.154e-4
-1.033, 7.216e-4
-1.034, 7.309e-4
-1.035, 7.401e-4
-1.036, 7.463e-4
-1.037, 7.555e-4
-1.038, 7.709e-4
-1.039, 7.833e-4
-1.040, 7.987e-4
-1.041, 8.141e-4
-1.042, 8.326e-4
-1.043, 8.480e-4
-1.044, 8.603e-4
-1.045, 8.727e-4
-1.046, 8.850e-4
-1.047, 8.943e-4
-1.048, 9.066e-4
-1.049, 9.158e-4
-1.050, 9.313e-4
-1.051, 9.436e-4
-1.052, 9.590e-4
-1.053, 9.744e-4
-1.054, 9.960e-4
-1.055, 1.014e-3
-1.056, 1.030e-3
-1.057, 1.048e-3
-1.058, 1.064e-3
-1.059, 1.082e-3
-1.060, 1.095e-3
-1.061, 1.107e-3
-1.062, 1.119e-3
-1.063, 1.132e-3
-1.064, 1.147e-3
-1.065, 1.166e-3
-1.066, 1.184e-3
-1.067, 1.203e-3
-1.068, 1.221e-3
-1.069, 1.246e-3
-1.070, 1.264e-3
-1.071, 1.283e-3
-1.072, 1.298e-3
-1.073, 1.314e-3
-1.074, 1.329e-3
-1.075, 1.344e-3
-1.076, 1.360e-3
-1.077, 1.378e-3
-1.078, 1.394e-3
-1.079, 1.415e-3
-1.080, 1.437e-3
-1.081, 1.462e-3
-1.082, 1.486e-3
-1.083, 1.505e-3
-1.084, 1.526e-3
-1.085, 1.545e-3
-1.086, 1.566e-3
-1.087, 1.579e-3
-1.088, 1.594e-3
-1.089, 1.613e-3
-1.090, 1.631e-3
-1.091, 1.650e-3
-1.092, 1.671e-3
-1.093, 1.693e-3
-1.094, 1.714e-3
-1.095, 1.736e-3
-1.096, 1.761e-3
-1.097, 1.782e-3
-1.098, 1.807e-3
-1.099, 1.822e-3
-1.100, 1.841e-3
-1.101, 1.859e-3
-1.102, 1.878e-3
-1.103, 1.893e-3
-1.104, 1.909e-3
-1.105, 1.933e-3
-1.106, 1.955e-3
-1.107, 1.980e-3
-1.108, 2.004e-3
-1.109, 2.032e-3
-1.110, 2.057e-3
-1.111, 2.081e-3
-1.112, 2.100e-3
-1.113, 2.118e-3
-1.114, 2.137e-3
-1.115, 2.155e-3
-1.116, 2.171e-3
-1.117, 2.189e-3
-1.118, 2.211e-3
-1.119, 2.235e-3
-1.120, 2.260e-3
-1.121, 2.285e-3
-1.122, 2.309e-3
-1.123, 2.334e-3
-1.124, 2.356e-3
-1.125, 2.377e-3
-1.126, 2.393e-3
-1.127, 2.414e-3
-1.128, 2.430e-3
-1.129, 2.445e-3
-1.130, 2.464e-3
-1.131, 2.482e-3
-1.132, 2.507e-3
-1.133, 2.531e-3
-1.134, 2.556e-3
-1.135, 2.578e-3
-1.136, 2.605e-3
-1.137, 2.627e-3
-1.138, 2.649e-3
-1.139, 2.670e-3
-1.140, 2.692e-3
-1.141, 2.710e-3
-1.142, 2.729e-3
-1.143, 2.747e-3
-1.144, 2.766e-3
-1.145, 2.784e-3
-1.146, 2.806e-3
-1.147, 2.830e-3
-1.148, 2.852e-3
-1.149, 2.880e-3
-1.150, 2.901e-3
-1.151, 2.923e-3
-1.152, 2.945e-3
-1.153, 2.963e-3
-1.154, 2.978e-3
-1.155, 2.994e-3
-1.156, 3.009e-3
-1.157, 3.025e-3
-1.158, 3.043e-3
-1.159, 3.065e-3
-1.160, 3.089e-3
-1.161, 3.114e-3
-1.162, 3.139e-3
-1.163, 3.163e-3
-1.164, 3.188e-3
-1.165, 3.213e-3
-1.166, 3.234e-3
-1.167, 3.253e-3
-1.168, 3.271e-3
-1.169, 3.287e-3
-1.170, 3.308e-3
-1.171, 3.324e-3
-1.172, 3.348e-3
-1.173, 3.370e-3
-1.174, 3.398e-3
-1.175, 3.419e-3
-1.176, 3.447e-3
-1.177, 3.469e-3
-1.178, 3.493e-3
-1.179, 3.512e-3
-1.180, 3.530e-3
-1.181, 3.549e-3
-1.182, 3.567e-3
-1.183, 3.586e-3
-1.184, 3.607e-3
-1.185, 3.629e-3
-1.186, 3.651e-3
-1.187, 3.678e-3
-1.188, 3.706e-3
-1.189, 3.731e-3
-1.190, 3.758e-3
-1.191, 3.783e-3
-1.192, 3.808e-3
-1.193, 3.829e-3
-1.194, 3.851e-3
-1.195, 3.873e-3
-1.196, 3.891e-3
-1.197, 3.913e-3
-1.198, 3.934e-3
-1.199, 3.956e-3
-1.200, 3.984e-3
-1.201, 4.008e-3
-1.202, 4.033e-3
-1.203, 4.061e-3
-1.204, 4.082e-3
-1.205, 4.104e-3
-1.206, 4.122e-3
-1.207, 4.141e-3
-1.208, 4.156e-3
-1.209, 4.172e-3
-1.210, 4.187e-3
-1.211, 4.206e-3
-1.212, 4.230e-3
-1.213, 4.255e-3
-1.214, 4.283e-3
-1.215, 4.304e-3
-1.216, 4.329e-3
-1.217, 4.354e-3
-1.218, 4.375e-3
-1.219, 4.391e-3
-1.220, 4.412e-3
-1.221, 4.434e-3
-1.222, 4.455e-3
-1.223, 4.474e-3
-1.224, 4.495e-3
-1.225, 4.523e-3
-1.226, 4.548e-3
-1.227, 4.579e-3
-1.228, 4.603e-3
-1.229, 4.637e-3
-1.230, 4.668e-3
-1.231, 4.696e-3
-1.232, 4.717e-3
-1.233, 4.742e-3
-1.234, 4.764e-3
-1.235, 4.785e-3
-1.236, 4.801e-3
-1.237, 4.822e-3
-1.238, 4.841e-3
-1.239, 4.859e-3
-1.240, 4.884e-3
-1.241, 4.905e-3
-1.242, 4.930e-3
-1.243, 4.955e-3
-1.244, 4.979e-3
-1.245, 4.998e-3
-1.246, 5.023e-3
-1.247, 5.044e-3
-1.248, 5.066e-3
-1.249, 5.084e-3
-1.250, 5.109e-3
-1.251, 5.134e-3
-1.252, 5.161e-3
-1.253, 5.189e-3
-1.254, 5.220e-3
-1.255, 5.251e-3
-1.256, 5.282e-3
-1.257, 5.312e-3
-1.258, 5.343e-3
-1.259, 5.368e-3
-1.260, 5.389e-3
-1.261, 5.411e-3
-1.262, 5.430e-3
-1.263, 5.445e-3
-1.264, 5.463e-3
-1.265, 5.476e-3
-1.266, 5.494e-3
-1.267, 5.513e-3
-1.268, 5.534e-3
-1.269, 5.559e-3
-1.270, 5.578e-3
-1.271, 5.599e-3
-1.272, 5.614e-3
-1.273, 5.630e-3
-1.274, 5.639e-3
-1.275, 5.648e-3
-1.276, 5.655e-3
-1.277, 5.664e-3
-1.278, 5.670e-3
-1.279, 5.685e-3
-1.280, 5.701e-3
-1.281, 5.716e-3
-1.282, 5.732e-3
-1.283, 5.747e-3
-1.284, 5.759e-3
-1.285, 5.772e-3
-1.286, 5.784e-3
-1.287, 5.793e-3
-1.288, 5.806e-3
-1.289, 5.815e-3
-1.290, 5.827e-3
-1.291, 5.840e-3
-1.292, 5.858e-3
-1.293, 5.877e-3
-1.294, 5.898e-3
-1.295, 5.920e-3
-1.296, 5.938e-3
-1.297, 5.954e-3
-1.298, 5.966e-3
-1.299, 5.975e-3
-1.300, 5.984e-3
-1.301, 5.991e-3
-1.302, 5.997e-3
-1.303, 6.000e-3
-1.304, 6.003e-3
-1.305, 6.009e-3
-1.306, 6.015e-3
-1.307, 6.018e-3
-1.308, 6.025e-3
-1.309, 6.034e-3
-1.310, 6.037e-3
-1.311, 6.040e-3
-1.312, 6.043e-3
-1.313, 6.037e-3
-1.314, 6.037e-3
-1.315, 6.034e-3
-1.316, 6.025e-3
-1.317, 6.018e-3
-1.318, 6.015e-3
-1.319, 6.015e-3
-1.320, 6.021e-3
-1.321, 6.028e-3
-1.322, 6.034e-3
-1.323, 6.040e-3
-1.324, 6.043e-3
-1.325, 6.040e-3
-1.326, 6.034e-3
-1.327, 6.028e-3
-1.328, 6.018e-3
-1.329, 6.006e-3
-1.330, 6.000e-3
-1.331, 5.997e-3
-1.332, 5.991e-3
-1.333, 5.984e-3
-1.334, 5.972e-3
-1.335, 5.963e-3
-1.336, 5.951e-3
-1.337, 5.935e-3
-1.338, 5.920e-3
-1.339, 5.901e-3
-1.340, 5.880e-3
-1.341, 5.861e-3
-1.342, 5.843e-3
-1.343, 5.824e-3
-1.344, 5.806e-3
-1.345, 5.793e-3
-1.346, 5.781e-3
-1.347, 5.772e-3
-1.348, 5.769e-3
-1.349, 5.769e-3
-1.350, 5.762e-3
-1.351, 5.756e-3
-1.352, 5.747e-3
-1.353, 5.735e-3
-1.354, 5.716e-3
-1.355, 5.698e-3
-1.356, 5.676e-3
-1.357, 5.655e-3
-1.358, 5.633e-3
-1.359, 5.611e-3
-1.360, 5.590e-3
-1.361, 5.565e-3
-1.362, 5.537e-3
-1.363, 5.510e-3
-1.364, 5.476e-3
-1.365, 5.445e-3
-1.366, 5.411e-3
-1.367, 5.374e-3
-1.368, 5.337e-3
-1.369, 5.297e-3
-1.370, 5.260e-3
-1.371, 5.223e-3
-1.372, 5.192e-3
-1.373, 5.164e-3
-1.374, 5.143e-3
-1.375, 5.121e-3
-1.376, 5.106e-3
-1.377, 5.084e-3
-1.378, 5.069e-3
-1.379, 5.044e-3
-1.380, 5.019e-3
-1.381, 4.992e-3
-1.382, 4.967e-3
-1.383, 4.945e-3
-1.384, 4.924e-3
-1.385, 4.908e-3
-1.386, 4.893e-3
-1.387, 4.878e-3
-1.388, 4.862e-3
-1.389, 4.847e-3
-1.390, 4.825e-3
-1.391, 4.804e-3
-1.392, 4.776e-3
-1.393, 4.748e-3
-1.394, 4.723e-3
-1.395, 4.696e-3
-1.396, 4.668e-3
-1.397, 4.640e-3
-1.398, 4.616e-3
-1.399, 4.594e-3
-1.400, 4.575e-3
-1.401, 4.557e-3
-1.402, 4.538e-3
-1.403, 4.523e-3
-1.404, 4.511e-3
-1.405, 4.492e-3
-1.406, 4.480e-3
-1.407, 4.468e-3
-1.408, 4.452e-3
-1.409, 4.437e-3
-1.410, 4.428e-3
-1.411, 4.421e-3
-1.412, 4.418e-3
-1.413, 4.418e-3
-1.414, 4.421e-3
-1.415, 4.424e-3
-1.416, 4.428e-3
-1.417, 4.424e-3
-1.418, 4.424e-3
-1.419, 4.421e-3
-1.420, 4.421e-3
-1.421, 4.415e-3
-1.422, 4.412e-3
-1.423, 4.412e-3
-1.424, 4.412e-3
-1.425, 4.415e-3
-1.426, 4.415e-3
-1.427, 4.418e-3
-1.428, 4.424e-3
-1.429, 4.434e-3
-1.430, 4.437e-3
-1.431, 4.443e-3
-1.432, 4.446e-3
-1.433, 4.449e-3
-1.434, 4.449e-3
-1.435, 4.449e-3
-1.436, 4.449e-3
-1.437, 4.452e-3
-1.438, 4.461e-3
-1.439, 4.474e-3
-1.440, 4.489e-3
-1.441, 4.511e-3
-1.442, 4.532e-3
-1.443, 4.548e-3
-1.444, 4.566e-3
-1.445, 4.579e-3
-1.446, 4.594e-3
-1.447, 4.606e-3
-1.448, 4.619e-3
-1.449, 4.628e-3
-1.450, 4.643e-3
-1.451, 4.653e-3
-1.452, 4.668e-3
-1.453, 4.683e-3
-1.454, 4.702e-3
-1.455, 4.720e-3
-1.456, 4.736e-3
-1.457, 4.751e-3
-1.458, 4.764e-3
-1.459, 4.773e-3
-1.460, 4.779e-3
-1.461, 4.785e-3
-1.462, 4.794e-3
-1.463, 4.804e-3
-1.464, 4.816e-3
-1.465, 4.828e-3
-1.466, 4.847e-3
-1.467, 4.865e-3
-1.468, 4.884e-3
-1.469, 4.899e-3
-1.470, 4.915e-3
-1.471, 4.933e-3
-1.472, 4.949e-3
-1.473, 4.964e-3
-1.474, 4.979e-3
-1.475, 4.989e-3
-1.476, 5.001e-3
-1.477, 5.010e-3
-1.478, 5.023e-3
-1.479, 5.035e-3
-1.480, 5.047e-3
-1.481, 5.063e-3
-1.482, 5.078e-3
-1.483, 5.093e-3
-1.484, 5.109e-3
-1.485, 5.121e-3
-1.486, 5.130e-3
-1.487, 5.134e-3
-1.488, 5.134e-3
-1.489, 5.130e-3
-1.490, 5.130e-3
-1.491, 5.134e-3
-1.492, 5.143e-3
-1.493, 5.152e-3
-1.494, 5.161e-3
-1.495, 5.171e-3
-1.496, 5.183e-3
-1.497, 5.195e-3
-1.498, 5.211e-3
-1.499, 5.217e-3
-1.500, 5.134e-3
-1.499, 4.915e-3
-1.498, 4.727e-3
-1.497, 4.563e-3
-1.496, 4.418e-3
-1.495, 4.289e-3
-1.494, 4.169e-3
-1.493, 4.058e-3
-1.492, 3.947e-3
-1.491, 3.848e-3
-1.490, 3.749e-3
-1.489, 3.654e-3
-1.488, 3.555e-3
-1.487, 3.462e-3
-1.486, 3.370e-3
-1.485, 3.281e-3
-1.484, 3.191e-3
-1.483, 3.105e-3
-1.482, 3.022e-3
-1.481, 2.945e-3
-1.480, 2.871e-3
-1.479, 2.800e-3
-1.478, 2.732e-3
-1.477, 2.664e-3
-1.476, 2.599e-3
-1.475, 2.534e-3
-1.474, 2.467e-3
-1.473, 2.402e-3
-1.472, 2.334e-3
-1.471, 2.269e-3
-1.470, 2.211e-3
-1.469, 2.152e-3
-1.468, 2.100e-3
-1.467, 2.047e-3
-1.466, 1.998e-3
-1.465, 1.952e-3
-1.464, 1.906e-3
-1.463, 1.853e-3
-1.462, 1.807e-3
-1.461, 1.758e-3
-1.460, 1.705e-3
-1.459, 1.653e-3
-1.458, 1.600e-3
-1.457, 1.554e-3
-1.456, 1.511e-3
-1.455, 1.468e-3
-1.454, 1.428e-3
-1.453, 1.391e-3
-1.452, 1.354e-3
-1.451, 1.320e-3
-1.450, 1.280e-3
-1.449, 1.243e-3
-1.448, 1.206e-3
-1.447, 1.162e-3
-1.446, 1.119e-3
-1.445, 1.079e-3
-1.444, 1.036e-3
-1.443, 9.991e-4
-1.442, 9.590e-4
-1.441, 9.220e-4
-1.440, 8.912e-4
-1.439, 8.603e-4
-1.438, 8.295e-4
-1.437, 7.987e-4
-1.436, 7.648e-4
-1.435, 7.339e-4
-1.434, 7.000e-4
-1.433, 6.661e-4
-1.432, 6.322e-4
-1.431, 5.983e-4
-1.430, 5.705e-4
-1.429, 5.397e-4
-1.428, 5.150e-4
-1.427, 4.904e-4
-1.426, 4.688e-4
-1.425, 4.472e-4
-1.424, 4.256e-4
-1.423, 4.010e-4
-1.422, 3.794e-4
-1.421, 3.516e-4
-1.420, 3.208e-4
-1.419, 2.961e-4
-1.418, 2.653e-4
-1.417, 2.406e-4
-1.416, 2.160e-4
-1.415, 1.913e-4
-1.414, 1.728e-4
-1.413, 1.543e-4
-1.412, 1.358e-4
-1.411, 1.204e-4
-1.410, 1.019e-4
-1.409, 8.340e-5
-1.408, 6.182e-5
-1.407, 3.715e-5
-1.406, 1.557e-5
-1.405, -6.010e-6
-1.404, -3.376e-5
-1.403, -5.226e-5
-1.402, -7.384e-5
-1.401, -8.925e-5
-1.400, -1.047e-4
-1.399, -1.170e-4
-1.398, -1.324e-4
-1.397, -1.448e-4
-1.396, -1.602e-4
-1.395, -1.756e-4
-1.394, -1.941e-4
-1.393, -2.157e-4
-1.392, -2.342e-4
-1.391, -2.557e-4
-1.390, -2.742e-4
-1.389, -2.897e-4
-1.388, -3.051e-4
-1.387, -3.143e-4
-1.386, -3.267e-4
-1.385, -3.390e-4
-1.384, -3.482e-4
-1.383, -3.606e-4
-1.382, -3.760e-4
-1.381, -3.914e-4
-1.380, -4.068e-4
-1.379, -4.253e-4
-1.378, -4.438e-4
-1.377, -4.623e-4
-1.376, -4.777e-4
-1.375, -4.901e-4
-1.374, -5.024e-4
-1.373, -5.116e-4
-1.372, -5.240e-4
-1.371, -5.271e-4
-1.370, -5.394e-4
-1.369, -5.486e-4
-1.368, -5.610e-4
-1.367, -5.764e-4
-1.366, -5.887e-4
-1.365, -6.041e-4
-1.364, -6.195e-4
-1.363, -6.319e-4
-1.362, -6.442e-4
-1.361, -6.535e-4
-1.360, -6.596e-4
-1.359, -6.658e-4
-1.358, -6.689e-4
-1.357, -6.781e-4
-1.356, -6.874e-4
-1.355, -6.997e-4
-1.354, -7.120e-4
-1.353, -7.244e-4
-1.352, -7.398e-4
-1.351, -7.583e-4
-1.350, -7.675e-4
-1.349, -7.799e-4
-1.348, -7.860e-4
-1.347, -7.953e-4
-1.346, -7.984e-4
-1.345, -8.015e-4
-1.344, -8.045e-4
-1.343, -8.138e-4
-1.342, -8.200e-4
-1.341, -8.323e-4
-1.340, -8.446e-4
-1.339, -8.539e-4
-1.338, -8.662e-4
-1.337, -8.754e-4
-1.336, -8.878e-4
-1.335, -8.939e-4
-1.334, -9.001e-4
-1.333, -9.032e-4
-1.332, -9.063e-4
-1.331, -9.094e-4
-1.330, -9.186e-4
-1.329, -9.248e-4
-1.328, -9.309e-4
-1.327, -9.433e-4
-1.326, -9.556e-4
-1.325, -9.679e-4
-1.324, -9.803e-4
-1.323, -9.895e-4
-1.322, -9.988e-4
-1.321, -1.005e-3
-1.320, -1.008e-3
-1.319, -1.014e-3
-1.318, -1.017e-3
-1.317, -1.020e-3
-1.316, -1.027e-3
-1.315, -1.033e-3
-1.314, -1.039e-3
-1.313, -1.051e-3
-1.312, -1.057e-3
-1.311, -1.073e-3
-1.310, -1.082e-3
-1.309, -1.091e-3
-1.308, -1.097e-3
-1.307, -1.101e-3
-1.306, -1.104e-3
-1.305, -1.110e-3
-1.304, -1.110e-3
-1.303, -1.116e-3
-1.302, -1.122e-3
-1.301, -1.131e-3
-1.300, -1.144e-3
-1.299, -1.156e-3
-1.298, -1.168e-3
-1.297, -1.178e-3
-1.296, -1.187e-3
-1.295, -1.193e-3
-1.294, -1.196e-3
-1.293, -1.196e-3
-1.292, -1.196e-3
-1.291, -1.196e-3
-1.290, -1.199e-3
-1.289, -1.202e-3
-1.288, -1.212e-3
-1.287, -1.221e-3
-1.286, -1.233e-3
-1.285, -1.245e-3
-1.284, -1.258e-3
-1.283, -1.267e-3
-1.282, -1.276e-3
-1.281, -1.286e-3
-1.280, -1.295e-3
-1.279, -1.304e-3
-1.278, -1.307e-3
-1.277, -1.316e-3
-1.276, -1.329e-3
-1.275, -1.341e-3
-1.274, -1.353e-3
-1.273, -1.369e-3
-1.272, -1.381e-3
-1.271, -1.396e-3
-1.270, -1.406e-3
-1.269, -1.415e-3
-1.268, -1.421e-3
-1.267, -1.424e-3
-1.266, -1.424e-3
-1.265, -1.427e-3
-1.264, -1.427e-3
-1.263, -1.430e-3
-1.262, -1.437e-3
-1.261, -1.440e-3
-1.260, -1.452e-3
-1.259, -1.461e-3
-1.258, -1.470e-3
-1.257, -1.480e-3
-1.256, -1.486e-3
-1.255, -1.492e-3
-1.254, -1.498e-3
-1.253, -1.504e-3
-1.252, -1.507e-3
-1.251, -1.511e-3
-1.250, -1.520e-3
-1.249, -1.529e-3
-1.248, -1.541e-3
-1.247, -1.554e-3
-1.246, -1.566e-3
-1.245, -1.578e-3
-1.244, -1.594e-3
-1.243, -1.606e-3
-1.242, -1.622e-3
-1.241, -1.628e-3
-1.240, -1.634e-3
-1.239, -1.643e-3
-1.238, -1.646e-3
-1.237, -1.652e-3
-1.236, -1.662e-3
-1.235, -1.671e-3
-1.234, -1.683e-3
-1.233, -1.699e-3
-1.232, -1.714e-3
-1.231, -1.729e-3
-1.230, -1.742e-3
-1.229, -1.760e-3
-1.228, -1.770e-3
-1.227, -1.779e-3
-1.226, -1.785e-3
-1.225, -1.794e-3
-1.224, -1.803e-3
-1.223, -1.813e-3
-1.222, -1.825e-3
-1.221, -1.840e-3
-1.220, -1.859e-3
-1.219, -1.874e-3
-1.218, -1.893e-3
-1.217, -1.911e-3
-1.216, -1.927e-3
-1.215, -1.942e-3
-1.214, -1.951e-3
-1.213, -1.964e-3
-1.212, -1.979e-3
-1.211, -1.992e-3
-1.210, -2.004e-3
-1.209, -2.019e-3
-1.208, -2.035e-3
-1.207, -2.056e-3
-1.206, -2.072e-3
-1.205, -2.090e-3
-1.204, -2.112e-3
-1.203, -2.127e-3
-1.202, -2.146e-3
-1.201, -2.161e-3
-1.200, -2.173e-3
-1.199, -2.186e-3
-1.198, -2.195e-3
-1.197, -2.207e-3
-1.196, -2.223e-3
-1.195, -2.238e-3
-1.194, -2.257e-3
-1.193, -2.275e-3
-1.192, -2.297e-3
-1.191, -2.321e-3
-1.190, -2.343e-3
-1.189, -2.365e-3
-1.188, -2.380e-3
-1.187, -2.395e-3
-1.186, -2.411e-3
-1.185, -2.426e-3
-1.184, -2.442e-3
-1.183, -2.460e-3
-1.182, -2.479e-3
-1.181, -2.503e-3
-1.180, -2.528e-3
-1.179, -2.553e-3
-1.178, -2.583e-3
-1.177, -2.605e-3
-1.176, -2.630e-3
-1.175, -2.651e-3
-1.174, -2.670e-3
-1.173, -2.688e-3
-1.172, -2.707e-3
-1.171, -2.722e-3
-1.170, -2.744e-3
-1.169, -2.762e-3
-1.168, -2.784e-3
-1.167, -2.809e-3
-1.166, -2.833e-3
-1.165, -2.858e-3
-1.164, -2.889e-3
-1.163, -2.910e-3
-1.162, -2.935e-3
-1.161, -2.957e-3
-1.160, -2.975e-3
-1.159, -2.994e-3
-1.158, -3.012e-3
-1.157, -3.034e-3
-1.156, -3.049e-3
-1.155, -3.074e-3
-1.154, -3.101e-3
-1.153, -3.126e-3
-1.152, -3.157e-3
-1.151, -3.188e-3
-1.150, -3.216e-3
-1.149, -3.243e-3
-1.148, -3.265e-3
-1.147, -3.290e-3
-1.146, -3.311e-3
-1.145, -3.333e-3
-1.144, -3.354e-3
-1.143, -3.376e-3
-1.142, -3.401e-3
-1.141, -3.428e-3
-1.140, -3.456e-3
-1.139, -3.484e-3
-1.138, -3.512e-3
-1.137, -3.539e-3
-1.136, -3.564e-3
-1.135, -3.586e-3
-1.134, -3.607e-3
-1.133, -3.622e-3
-1.132, -3.644e-3
-1.131, -3.659e-3
-1.130, -3.681e-3
-1.129, -3.703e-3
-1.128, -3.727e-3
-1.127, -3.752e-3
-1.126, -3.777e-3
-1.125, -3.801e-3
-1.124, -3.832e-3
-1.123, -3.857e-3
-1.122, -3.881e-3
-1.121, -3.900e-3
-1.120, -3.918e-3
-1.119, -3.937e-3
-1.118, -3.955e-3
-1.117, -3.977e-3
-1.116, -4.002e-3
-1.115, -4.023e-3
-1.114, -4.051e-3
-1.113, -4.076e-3
-1.112, -4.100e-3
-1.111, -4.128e-3
-1.110, -4.150e-3
-1.109, -4.171e-3
-1.108, -4.193e-3
-1.107, -4.214e-3
-1.106, -4.236e-3
-1.105, -4.251e-3
-1.104, -4.267e-3
-1.103, -4.285e-3
-1.102, -4.304e-3
-1.101, -4.319e-3
-1.100, -4.338e-3
-1.099, -4.359e-3
-1.098, -4.384e-3
-1.097, -4.406e-3
-1.096, -4.430e-3
-1.095, -4.452e-3
-1.094, -4.470e-3
-1.093, -4.483e-3
-1.092, -4.498e-3
-1.091, -4.510e-3
-1.090, -4.526e-3
-1.089, -4.541e-3
-1.088, -4.560e-3
-1.087, -4.581e-3
-1.086, -4.603e-3
-1.085, -4.625e-3
-1.084, -4.649e-3
-1.083, -4.665e-3
-1.082, -4.683e-3
-1.081, -4.699e-3
-1.080, -4.711e-3
-1.079, -4.720e-3
-1.078, -4.732e-3
-1.077, -4.745e-3
-1.076, -4.757e-3
-1.075, -4.772e-3
-1.074, -4.785e-3
-1.073, -4.800e-3
-1.072, -4.813e-3
-1.071, -4.828e-3
-1.070, -4.840e-3
-1.069, -4.853e-3
-1.068, -4.865e-3
-1.067, -4.874e-3
-1.066, -4.880e-3
-1.065, -4.887e-3
-1.064, -4.893e-3
-1.063, -4.899e-3
-1.062, -4.908e-3
-1.061, -4.924e-3
-1.060, -4.942e-3
-1.059, -4.964e-3
-1.058, -4.982e-3
-1.057, -5.001e-3
-1.056, -5.016e-3
-1.055, -5.028e-3
-1.054, -5.038e-3
-1.053, -5.041e-3
-1.052, -5.050e-3
-1.051, -5.053e-3
-1.050, -5.059e-3
-1.049, -5.065e-3
-1.048, -5.075e-3
-1.047, -5.084e-3
-1.046, -5.090e-3
-1.045, -5.093e-3
-1.044, -5.096e-3
-1.043, -5.099e-3
-1.042, -5.102e-3
-1.041, -5.102e-3
-1.040, -5.102e-3
-1.039, -5.105e-3
-1.038, -5.105e-3
-1.037, -5.105e-3
-1.036, -5.109e-3
-1.035, -5.109e-3
-1.034, -5.115e-3
-1.033, -5.121e-3
-1.032, -5.127e-3
-1.031, -5.136e-3
-1.030, -5.146e-3
-1.029, -5.152e-3
-1.028, -5.155e-3
-1.027, -5.155e-3
-1.026, -5.155e-3
-1.025, -5.152e-3
-1.024, -5.149e-3
-1.023, -5.149e-3
-1.022, -5.149e-3
-1.021, -5.149e-3
-1.020, -5.152e-3
-1.019, -5.158e-3
-1.018, -5.161e-3
-1.017, -5.167e-3
-1.016, -5.170e-3
-1.015, -5.170e-3
-1.014, -5.170e-3
-1.013, -5.170e-3
-1.012, -5.164e-3
-1.011, -5.158e-3
-1.010, -5.155e-3
-1.009, -5.149e-3
-1.008, -5.152e-3
-1.007, -5.155e-3
-1.006, -5.155e-3
-1.005, -5.161e-3
-1.004, -5.167e-3
-1.003, -5.164e-3
-1.002, -5.167e-3
-1.001, -5.164e-3
