Potential V vs RHE, Current mA cm-2
0.013299999999999867,0.12863969849672777
0.012299999999999978,-1.2671569112891135
0.011299999999999866,-2.3144676865791998
0.010299999999999976,-3.1420737970002466
0.009299999999999864,-3.840941179133574
0.008299999999999974,-4.364384360083638
0.007299999999999862,-4.800115440442069
0.006299999999999972,-5.149549131508733
0.00529999999999986,-5.453712060979717
0.0042999999999999705,-5.715433651454749
0.0032999999999998586,-5.977155241929781
0.0022999999999999687,-6.196435493408861
0.0012999999999998568,-6.500598422879844
0.00029999999999996696,-6.762320013354876
-0.000700000000000145,-7.024041603829907
-0.0017000000000000348,-7.243321855308987
-0.0027000000000001467,-7.50504344578402
-0.0037000000000000366,-7.679052935667419
-0.0047000000000001485,-7.853062425550818
-0.005700000000000038,-7.984630576438266
-0.00670000000000015,-8.11478401602585
-0.00770000000000004,-8.246352166913299
-0.008700000000000152,-8.332649556205066
-0.009700000000000042,-8.464217707092514
-0.010700000000000154,-8.638227196975913
-0.011700000000000044,-8.812236686859313
-0.012700000000000156,-8.987660888042578
-0.013700000000000045,-9.205526428221793
-0.014700000000000157,-9.423391968401008
-0.015700000000000047,-9.641257508580225
-0.01670000000000016,-9.81668170976349
-0.01770000000000005,-9.99069119964689
-0.01870000000000016,-10.120844639234473
-0.01970000000000005,-10.208556739826104
-0.020700000000000163,-10.340124890713554
-0.021700000000000053,-10.470278330301136
-0.022700000000000164,-10.557990430892769
-0.023700000000000054,-10.688143870480351
-0.024700000000000166,-10.906009410659568
-0.025700000000000056,-11.081433611842833
-0.026700000000000168,-11.299299152022046
-0.027700000000000058,-11.517164692201263
-0.02870000000000017,-11.778886282676295
-0.02970000000000006,-11.996751822855511
-0.03070000000000017,-12.170761312738911
-0.03170000000000006,-12.346185513922174
-0.03270000000000017,-12.520195003805576
-0.03370000000000006,-12.651763154693022
-0.034700000000000175,-12.825772644576423
-0.035700000000000065,-12.955926084164007
-0.03670000000000018,-13.175206335643086
-0.03770000000000007,-13.349215825526485
-0.03870000000000018,-13.567081365705702
-0.03970000000000007,-13.784946905884919
-0.04070000000000018,-14.090524546655764
-0.04170000000000007,-14.345172580631472
-0.04270000000000018,-14.57152638860988
-0.04370000000000007,-14.826174422585586
-0.044700000000000184,-15.05252823056399
-0.045700000000000074,-15.307176264539699
-0.046700000000000186,-15.491088733522153
-0.047700000000000076,-15.660854089505953
-0.04870000000000019,-15.830619445489761
-0.04970000000000008,-16.014531914472215
-0.05070000000000019,-16.22673860945197
-0.05170000000000008,-16.495533756426326
-0.05270000000000019,-16.750181790402035
-0.05370000000000008,-17.018976937376394
-0.05470000000000019,-17.2736249713521
-0.05570000000000008,-17.627302796318357
-0.056700000000000195,-17.881950830294063
-0.057700000000000085,-18.15074597726842
-0.058700000000000196,-18.362952672248177
-0.059700000000000086,-18.589306480226583
-0.0607000000000002,-18.80151317520634
-0.06170000000000009,-19.01371987018609
-0.0627000000000002,-19.2400736781645
-0.06370000000000009,-19.49472171214021
-0.0647000000000002,-19.721075520118614
-0.06570000000000009,-20.01816489309027
-0.0667000000000002,-20.329401379060574
-0.0677000000000001,-20.683079204026836
-0.0687000000000002,-21.022609915994444
-0.0697000000000001,-21.291405062968803
-0.07070000000000021,-21.58849443594046
-0.0717000000000001,-21.857289582914817
-0.07270000000000021,-22.15437895588647
-0.0737000000000001,-22.33829142486893
-0.07470000000000021,-22.550498119848687
-0.0757000000000001,-22.819293266823045
-0.07670000000000021,-23.073941300798747
-0.0777000000000001,-23.342736447773106
-0.07870000000000021,-23.639825820744765
-0.0797000000000001,-23.951062306715073
-0.08070000000000022,-24.24815167968673
-0.0817000000000001,-24.559388165657033
-0.08270000000000022,-24.9130659906233
-0.08370000000000011,-25.210155363594954
-0.08470000000000022,-25.563833188561212
-0.08570000000000011,-25.77603988354097
-0.08670000000000022,-26.044835030515326
-0.08770000000000011,-26.29948306449103
-0.08870000000000022,-26.568278211465387
-0.08970000000000011,-26.780484906445146
-0.09070000000000022,-27.00683871442355
-0.09170000000000011,-27.34636942639116
-0.09270000000000023,-27.65760591236147
-0.09370000000000012,-28.011283737327723
-0.09470000000000023,-28.350814449295335
-0.09570000000000012,-28.746933613257543
-0.09670000000000023,-29.100611438223805
-0.09770000000000012,-29.440142150191413
-0.09870000000000023,-29.708937297165768
-0.09970000000000012,-29.96358533114148
-0.10070000000000023,-30.232380478115836
-0.10170000000000012,-30.487028512091538
-0.10270000000000024,-30.71338232006995
-0.10370000000000013,-30.968030354045652
-0.10470000000000024,-31.27926684001596
-0.10570000000000013,-31.618797551983565
-0.10670000000000024,-31.972475376949827
-0.10770000000000013,-32.32615320191609
-0.10870000000000024,-32.66568391388369
-0.10970000000000013,-33.01936173884996
-0.11070000000000024,-33.330598224820264
-0.11170000000000013,-33.627687597791926
-0.11270000000000002,-33.85404140577033
-0.11370000000000013,-34.15113077874198
-0.11470000000000002,-34.377484586720385
-0.11570000000000014,-34.58969128170015
-0.11670000000000003,-34.85848642867451
-0.11770000000000014,-35.11313446265021
-0.11870000000000003,-35.46681228761647
-0.11970000000000014,-35.806342999584075
-0.12070000000000003,-36.16002082455034
-0.12170000000000014,-36.47125731052064
-0.12270000000000003,-36.8532293614842
-0.12370000000000014,-37.164465847454515
-0.12470000000000003,-37.47570233342482
-0.12570000000000014,-37.77279170639648
-0.12670000000000003,-38.08402819236679
-0.12770000000000015,-38.33867622634249
-0.12870000000000004,-38.607471373316855
-0.12970000000000015,-38.86211940729255
-0.13070000000000004,-39.130914554266916
-0.13170000000000015,-39.38556258824262
-0.13270000000000004,-39.696799074212926
-0.13370000000000015,-40.03632978618054
-0.13470000000000004,-40.34756627215084
-0.13570000000000015,-40.743685436113054
-0.13670000000000004,-41.04077480908471
-0.13770000000000016,-41.352011295055014
-0.13870000000000005,-41.66324778102533
-0.13970000000000016,-41.91789581500104
-0.14070000000000005,-42.130102509980794
-0.14170000000000016,-42.3564563179592
-0.14270000000000005,-42.568663012938956
-0.14370000000000016,-42.79501682091736
-0.14470000000000005,-43.04966485489307
-0.14570000000000016,-43.36090134086337
-0.14670000000000005,-43.70043205283099
-0.14770000000000016,-44.054109877797245
-0.14870000000000005,-44.4077877027635
-0.14970000000000017,-44.74731841473111
-0.15070000000000006,-45.10099623969737
-0.15170000000000017,-45.45467406466363
-0.15270000000000006,-45.75176343763528
-0.15370000000000017,-46.02055858460964
-0.15470000000000006,-46.27520661858535
-0.15570000000000017,-46.501560426563756
-0.15670000000000006,-46.79864979953541
-0.15770000000000017,-47.02500360751382
-0.15870000000000006,-47.36453431948143
-0.15970000000000018,-47.67577080545174
-0.16070000000000007,-48.071889969413945
-0.16170000000000018,-48.36897934238561
-0.16270000000000007,-48.76509850634781
-0.16370000000000018,-49.076334992318124
-0.16470000000000007,-49.41586570428573
-0.16570000000000018,-49.68466085126009
-0.16670000000000007,-49.939308885235796
-0.16770000000000018,-50.20810403221015
-0.16870000000000007,-50.46275206618586
-0.16970000000000018,-50.73154721316022
-0.17070000000000007,-51.028636586131874
-0.17170000000000019,-51.33987307210218
-0.17270000000000008,-51.65110955807249
-0.1737000000000002,-52.033081609036046
-0.17470000000000008,-52.42920077299826
-0.1757000000000002,-52.78287859796452
-0.17670000000000008,-53.16485064892808
-0.1777000000000002,-53.518528473894335
-0.17870000000000008,-53.872206298860604
-0.1797000000000002,-54.16929567183226
-0.18070000000000008,-54.480532157802564
-0.1817000000000002,-54.791768643772876
-0.18270000000000008,-55.046416677748574
-0.1837000000000002,-55.357653163718886
-0.1847000000000001,-55.65474253669055
-0.1857000000000002,-55.96597902266086
-0.1867000000000001,-56.36209818662306
-0.1877000000000002,-56.70162889859067
-0.1887000000000001,-57.05530672355693
-0.1897000000000002,-57.45142588751914
-0.1907000000000001,-57.7485152604908
-0.1917000000000001,-58.05975174646111
-0.19269999999999998,-58.31439978043681
-0.1937000000000001,-58.583194927411164
-0.19469999999999998,-58.79540162239092
-0.1957000000000001,-59.02175543036933
-0.19669999999999999,-59.23396212534908
-0.1977000000000001,-59.502757272323436
-0.1987,-59.842287984291055
-0.1997000000000001,-60.19596580925731
-0.2007,-60.59208497321952
-0.2017000000000001,-60.889174346191176
-0.2027,-61.242852171157445
-0.2037000000000001,-61.5965299961237
-0.2047,-61.89361936909536
-0.2057000000000001,-62.11997317707376
-0.2067,-62.41706255004542
-0.2077000000000001,-62.72829903601572
-0.2087,-63.02538840898739
-0.2097000000000001,-63.29418355596174
-0.2107,-63.59127292893339
-0.2117000000000001,-63.98739209289561
-0.2127,-64.34106991786187
-0.2137000000000001,-64.77963042082003
-0.2147,-65.11916113278764
-0.2157000000000001,-65.60016297474175
-0.2167,-66.03872347769992
-0.21770000000000012,-66.43484264166212
-0.2187,-66.73193201463377
-0.21970000000000012,-67.08560983960004
-0.2207,-67.39684632557035
-0.22170000000000012,-67.693935698542
-0.2227,-67.9202895065204
-0.22370000000000012,-68.21737887949207
-0.2247,-68.48617402646643
-0.22570000000000012,-68.74082206044213
-0.2267,-69.0944998854084
-0.22770000000000012,-69.39158925838004
-0.22870000000000001,-69.74526708334632
-0.22970000000000013,-70.09894490831257
-0.23070000000000002,-70.43847562028017
-0.23170000000000013,-70.70727076725453
-0.23270000000000002,-71.06094859222078
-0.23370000000000013,-71.35803796519245
-0.23470000000000002,-71.66927445116276
-0.23570000000000013,-71.92392248513846
-0.23670000000000002,-72.27760031010472
-0.2376999999999999,-72.63127813507097
-0.23870000000000002,-73.01325018603454
-0.2396999999999999,-73.40936934999675
-0.24070000000000003,-73.8479298529549
-0.24169999999999991,-74.28649035591307
-0.24270000000000003,-74.72505085887124
-0.24369999999999992,-75.14946424883075
-0.24470000000000003,-75.5880247517889
-0.24569999999999992,-75.94170257675518
-0.24670000000000003,-76.23879194972683
-0.24769999999999992,-76.55002843569714
-0.24870000000000003,-76.81882358267148
-0.24969999999999992,-77.03103027765125
-0.25070000000000003,-77.28567831162695
-0.2516999999999999,-77.46959078060941
-0.25270000000000004,-77.7242388145851
-0.2536999999999999,-77.99303396155948
-0.25470000000000004,-78.29012333453113
-0.2556999999999999,-78.64380115949739
-0.25670000000000004,-78.91259630647174
-0.25769999999999993,-79.20968567944341
-0.25870000000000004,-79.42189237442317
-0.25969999999999993,-79.64824618240156
-0.26070000000000004,-79.7755701993894
-0.26169999999999993,-79.90289421637728
-0.26270000000000004,-80.00192400736783
-0.26369999999999993,-80.12924802435568
-0.26470000000000005,-80.21413070234757
-0.26569999999999994,-80.42633739732734
-0.26670000000000005,-80.65269120530574
-0.26769999999999994,-80.86489790028548
-0.26870000000000005,-81.09125170826391
-0.26969999999999994,-81.30345840324367
-0.27070000000000005,-81.47322375922747
-0.27169999999999994,-81.65713622820991
-0.27270000000000005,-81.82690158419373
-0.27369999999999994,-81.95422560118158
-0.27470000000000006,-82.13813807016405
-0.27569999999999995,-82.26546208715187
-0.27670000000000006,-82.43522744313569
-0.27769999999999995,-82.61913991211814
-0.27870000000000006,-82.87378794609386
-0.27969999999999995,-83.14258309306821
-0.28070000000000006,-83.43967246603985
-0.28169999999999995,-83.75090895201016
-0.28270000000000006,-84.00555698598588
-0.28369999999999995,-84.23191079396429
-0.28470000000000006,-84.40167614994809
-0.28569999999999995,-84.52900016693594
-0.28670000000000007,-84.6563241839238
-0.28769999999999996,-84.75535397491434
-0.28870000000000007,-84.84023665290624
-0.28969999999999996,-84.8826779919022
-0.29070000000000007,-84.92511933089816
-0.29169999999999996,-85.01000200889004
-0.29270000000000007,-85.09488468688197
-0.29369999999999996,-85.13732602587791
-0.2947000000000001,-85.23635581686847
-0.29569999999999996,-85.36367983385631
-0.2967000000000001,-85.40612117285227
-0.29769999999999996,-85.44856251184822
-0.2987000000000001,-85.49100385084417
-0.29969999999999997,-85.40612117285227
-0.3007000000000001,-85.40612117285227
-0.30169999999999997,-85.36367983385631
-0.3027000000000001,-85.23635581686847
-0.30369999999999997,-85.13732602587791
-0.3047000000000001,-85.09488468688197
-0.30569999999999997,-85.09488468688197
-0.3067000000000001,-85.17976736487385
-0.3077,-85.27879715586442
-0.3087000000000001,-85.36367983385631
-0.3097,-85.44856251184822
-0.3107000000000001,-85.49100385084417
-0.3117,-85.44856251184822
-0.3127000000000001,-85.36367983385631
-0.3137,-85.27879715586442
-0.3147000000000001,-85.13732602587791
-0.3157,-84.96756066989411
-0.3167000000000001,-84.8826779919022
-0.3177,-84.84023665290624
-0.3187000000000001,-84.75535397491434
-0.3197,-84.6563241839238
-0.3207000000000001,-84.48655882793999
-0.3217,-84.35923481095215
-0.3227000000000001,-84.18946945496833
-0.3237,-83.96311564698992
-0.3247000000000001,-83.75090895201016
-0.3257,-83.48211380503581
-0.3267000000000001,-83.18502443206415
-0.3277,-82.9162292850898
-0.3287000000000001,-82.6615812511141
-0.3297,-82.39278610413973
-0.3307000000000001,-82.13813807016405
-0.3317,-81.95422560118158
-0.3327000000000001,-81.78446024519776
-0.3337,-81.65713622820991
-0.3347000000000001,-81.61469488921396
-0.3357,-81.61469488921396
-0.3367000000000001,-81.51566509822342
-0.3377,-81.43078242023151
-0.3387000000000001,-81.30345840324367
-0.3397,-81.13369304725985
-0.3407000000000001,-80.86489790028548
-0.3417,-80.61024986630979
-0.3427000000000001,-80.29901338033947
-0.3437,-80.00192400736783
-0.3447000000000001,-79.69068752139752
-0.3457,-79.37945103542721
-0.3467000000000001,-79.08236166245555
-0.3477,-78.72868383748929
-0.3487000000000001,-78.33256467352709
-0.3497,-77.95059262256353
-0.3507000000000001,-77.46959078060941
-0.3517,-77.03103027765125
-0.3527000000000001,-76.55002843569714
-0.3537,-76.02658525474708
-0.3547000000000001,-75.50314207379701
-0.3557,-74.93725755385098
-0.35670000000000013,-74.41381437290093
-0.3577,-73.89037119195086
-0.35870000000000013,-73.45181068899271
-0.3597,-73.0556915250305
-0.36070000000000013,-72.75860215205884
-0.3617,-72.44736566608852
-0.3626999999999999,-72.23515897110877
-0.3637,-71.92392248513846
-0.3646999999999999,-71.7117157901587
-0.3657,-71.35803796519245
-0.3666999999999999,-71.0043601402262
-0.3677,-70.62238808926263
-0.3686999999999999,-70.26871026429637
-0.36970000000000003,-69.95747377832606
-0.3706999999999999,-69.6603844053544
-0.37170000000000003,-69.43403059737601
-0.3726999999999999,-69.22182390239624
-0.37370000000000003,-69.0096172074165
-0.3746999999999999,-68.78326339943808
-0.37570000000000003,-68.57105670445833
-0.3766999999999999,-68.25982021848802
-0.37770000000000004,-67.96273084551636
-0.3786999999999999,-67.56661168155415
-0.37970000000000004,-67.17049251759194
-0.3806999999999999,-66.81681469262568
-0.38170000000000004,-66.43484264166212
-0.38269999999999993,-66.03872347769992
-0.38370000000000004,-65.64260431373769
-0.38469999999999993,-65.3030736017701
-0.38570000000000004,-64.99183711579978
-0.38669999999999993,-64.72304196882543
-0.38770000000000004,-64.46839393484973
-0.38869999999999993,-64.19959878787537
-0.38970000000000005,-63.98739209289561
-0.39069999999999994,-63.81762673691181
-0.39170000000000005,-63.54883158993744
-0.39269999999999994,-63.37906623395363
-0.39370000000000005,-63.20930087796983
-0.39469999999999994,-62.98294706999144
-0.39570000000000005,-62.77074037501168
-0.39669999999999994,-62.64341635802381
-0.39770000000000005,-62.544386567033264
-0.39869999999999994,-62.501945228037314
-0.39970000000000006,-62.501945228037314
-0.40069999999999995,-62.544386567033264
-0.40170000000000006,-62.58682790602922
-0.40269999999999995,-62.64341635802381
-0.40370000000000006,-62.58682790602922
-0.40469999999999995,-62.58682790602922
-0.40570000000000006,-62.544386567033264
-0.40669999999999995,-62.544386567033264
-0.40770000000000006,-62.459503889041365
-0.40869999999999995,-62.41706255004542
-0.40970000000000006,-62.41706255004542
-0.41069999999999995,-62.41706255004542
-0.41170000000000007,-62.459503889041365
-0.41269999999999996,-62.459503889041365
-0.41370000000000007,-62.501945228037314
-0.41469999999999996,-62.58682790602922
-0.41570000000000007,-62.72829903601572
-0.41669999999999996,-62.77074037501168
-0.41770000000000007,-62.855623053003576
-0.41869999999999996,-62.89806439199953
-0.4197000000000001,-62.94050573099548
-0.42069999999999996,-62.94050573099548
-0.4217000000000001,-62.94050573099548
-0.42269999999999996,-62.94050573099548
-0.4237000000000001,-62.98294706999144
-0.42469999999999997,-63.11027108697928
-0.4257000000000001,-63.29418355596174
-0.42669999999999997,-63.5063902509415
-0.4277000000000001,-63.81762673691181
-0.42869999999999997,-64.11471610988345
-0.4297000000000001,-64.34106991786187
-0.43069999999999997,-64.59571795183757
-0.4317000000000001,-64.77963042082003
-0.4327,-64.99183711579978
-0.4337000000000001,-65.16160247178358
-0.4347,-65.34551494076604
-0.4357000000000001,-65.4728389577539
-0.4367,-65.68504565273366
-0.4377000000000001,-65.82651678272015
-0.4387,-66.03872347769992
-0.4397000000000001,-66.25093017267966
-0.4407,-66.51972531965401
-0.4417000000000001,-66.77437335362974
-0.4427,-67.00072716160814
-0.4437000000000001,-67.21293385658788
-0.4447,-67.39684632557035
-0.4457000000000001,-67.52417034255821
-0.4467,-67.6090530205501
-0.4477000000000001,-67.693935698542
-0.4487,-67.82125971552985
-0.4497000000000001,-67.96273084551636
-0.4507,-68.13249620150016
-0.4517000000000001,-68.30226155748396
-0.4527,-68.57105670445833
-0.4537000000000001,-68.82570473843404
-0.4547,-69.0944998854084
-0.4557000000000001,-69.30670658038814
-0.4567,-69.53306038836655
-0.4577000000000001,-69.78770842234226
-0.4587,-70.01406223032066
-0.4597000000000001,-70.22626892530042
-0.4607,-70.43847562028017
-0.4617000000000001,-70.57994675026669
-0.4627,-70.74971210625048
-0.4637000000000001,-70.87703612323833
-0.4647,-71.06094859222078
-0.4657000000000001,-71.2307139482046
-0.4667,-71.4004793041884
-0.4677000000000001,-71.6268331121668
-0.4687,-71.83903980714656
-0.4697000000000001,-72.05124650212633
-0.4707,-72.27760031010472
-0.4717000000000001,-72.44736566608852
-0.4727,-72.57468968307639
-0.4737000000000001,-72.63127813507097
-0.4747,-72.63127813507097
-0.4757000000000001,-72.57468968307639
-0.4767,-72.57468968307639
-0.4777000000000001,-72.63127813507097
-0.4787,-72.75860215205884
-0.4797000000000001,-72.8859261690467
-0.4807,-73.01325018603454
-0.48170000000000013,-73.15472131602105
-0.4827,-73.32448667200485
-0.48370000000000013,-73.49425202798865
-0.4847,-73.72060583596706
-0.48570000000000013,-73.80548851395896
-0.4867,-72.63127813507097
-0.48570000000000013,-69.53306038836655
-0.4847,-66.87340314462028
-0.48370000000000013,-64.55327661284163
-0.4827,-62.501945228037314
-0.48170000000000013,-60.67696765121143
-0.4807,-58.97931409137338
-0.4797000000000001,-57.408984548523186
-0.4787,-55.838655005673
-0.4777000000000001,-54.43809081880661
-0.4767,-53.03752663194023
-0.4757000000000001,-51.69355089706845
-0.4747,-50.29298671020206
-0.4737000000000001,-48.97730520132757
-0.4727,-47.67577080545174
-0.4717000000000001,-46.41667774857186
-0.4707,-45.143437578693316
-0.4697000000000001,-43.92678586080939
-0.4687,-42.752575481921404
-0.4677000000000001,-41.66324778102533
-0.4667,-40.616361419125205
-0.4657000000000001,-39.61191639622103
-0.4647,-38.6499127123128
-0.4637000000000001,-37.687909028404576
-0.4627,-36.768346683492304
-0.4617000000000001,-35.848784338580025
-0.4607,-34.90092776767045
