Potential V vs RHE, Current mA cm-2
0.4132999999999999,0.0036782493796490953
0.4122999999999999,0.0018065863299276518
0.4112999999999999,0.001309456779155078
0.4102999999999999,0.0010234021543223677
0.4092999999999999,0.0007959165773040697
0.4082999999999999,0.0005934713902933828
0.4072999999999999,0.0003812646953136274
0.4062999999999999,0.0002165923000093371
0.4052999999999999,8.263328702511679e-05
0.4042999999999999,-5.136816729809948e-05
0.4032999999999999,-0.0001853271802823198
0.4022999999999999,-0.0003625905061554089
0.4012999999999999,-0.0004701085649451517
0.4002999999999999,-0.0005733824898352993
0.3992999999999999,-0.000715702446601722
0.3982999999999999,-0.000860851825967875
0.3972999999999999,-0.000985063478096025
0.3962999999999999,-0.0010842347402165642
0.3952999999999999,-0.0011846792425069816
0.3942999999999999,-0.0012879531673971292
0.39329999999999987,-0.001408062156755671
0.39229999999999987,-0.0015222293586547794
0.39129999999999987,-0.0016127708818461418
0.39029999999999987,-0.001699068271137909
0.38929999999999987,-0.0017627302796318356
0.38829999999999987,-0.001892883719219419
0.38729999999999987,-0.0019975723554094315
0.38629999999999987,-0.002085284456001064
0.38529999999999986,-0.0021602641548939113
0.38429999999999986,-0.002246561544185678
0.38329999999999986,-0.002366812004674206
0.38229999999999986,-0.0024460358374666486
0.38129999999999986,-0.0025266743815589555
0.38029999999999986,-0.0026158011934504523
0.37929999999999986,-0.002670974934145189
0.37829999999999986,-0.0027671753025360116
0.37729999999999986,-0.002869034516126294
0.37629999999999986,-0.0029213788342213006
0.37529999999999986,-0.0030218233365117185
0.37429999999999986,-0.0030911441902051052
0.37329999999999985,-0.0031675386003978175
0.37229999999999985,-0.0032835449269867497
0.37129999999999985,-0.003354280491980002
0.37029999999999985,-0.0034179425004739286
0.36929999999999985,-0.0034915074880669107
0.36829999999999985,-0.0035650724756598924
0.36729999999999985,-0.0036782493796490953
0.36629999999999985,-0.003744740810742752
0.36529999999999985,-0.003811232241836409
0.36429999999999985,-0.0038890413633289856
0.36329999999999985,-0.003956947505722507
0.36229999999999984,-0.004070124409711711
0.36129999999999984,-0.004129542284306042
0.36029999999999984,-0.004186130736300643
0.35929999999999984,-0.0042526221673943
0.35829999999999984,-0.004333260711486607
0.35729999999999984,-0.004436534636376755
0.35629999999999984,-0.004500196644870682
0.35529999999999984,-0.004538393849967038
0.35429999999999984,-0.004594982301961639
0.35329999999999984,-0.004679864979953542
0.35229999999999984,-0.004744941699747333
0.35129999999999983,-0.0048071889969413945
0.35029999999999983,-0.0048595333150364016
0.34929999999999983,-0.0049189511896307325
0.34829999999999983,-0.005003833867622635
0.34729999999999983,-0.005100034236013457
0.34629999999999983,-0.005148134420208869
0.34529999999999983,-0.005183502202705494
0.34429999999999983,-0.005238675943400231
0.3432999999999998,-0.005313655642293078
0.3422999999999998,-0.005378732362086869
0.3412999999999998,-0.005445223793180526
0.3402999999999998,-0.005484835709576748
0.3392999999999998,-0.005537180027671754
0.3382999999999998,-0.00560084203616568
0.3372999999999998,-0.005708360094955422
0.3362999999999998,-0.005757874990450699
0.3352999999999998,-0.005810219308545706
0.3342999999999998,-0.0058653930492404424
0.3332999999999998,-0.005924810923834774
0.3322999999999998,-0.006030914271324651
0.3312999999999998,-0.006054964363422357
0.3302999999999998,-0.006107308681517363
0.3292999999999998,-0.0061624824222121
0.3282999999999998,-0.006213412029007242
0.3272999999999998,-0.0063110271086979286
0.3262999999999998,-0.0063364919120954995
0.3252999999999999,-0.006386006807590775
0.3242999999999999,-0.0064524982386844325
0.3232999999999999,-0.006500598422879843
0.3222999999999999,-0.006599628213870396
0.3212999999999999,-0.006630751862467427
0.3202999999999999,-0.0066576313771648625
0.3192999999999999,-0.006722708096958655
0.3182999999999999,-0.006773637703753795
0.3172999999999999,-0.0068542762478461024
0.3162999999999999,-0.006919352967639895
0.3152999999999999,-0.006960379595335981
0.3142999999999999,-0.0069915032439330106
0.3132999999999999,-0.007069312365425588
0.3122999999999999,-0.0071457067756183
0.3112999999999999,-0.007203709938912767
0.3102999999999999,-0.007216442340611552
0.3092999999999999,-0.007287177905604803
0.3082999999999999,-0.0073296192446007545
0.3072999999999999,-0.0073989400982941425
0.3062999999999999,-0.007451284416389148
0.3052999999999999,-0.00749938460058456
0.3042999999999999,-0.007541825939580511
0.3032999999999999,-0.007618220349773223
0.3022999999999999,-0.00767905293566742
0.3012999999999999,-0.007717250140763775
0.3002999999999999,-0.007758276768459861
0.2992999999999999,-0.007799303396155947
0.2982999999999999,-0.007865794827249604
0.2972999999999999,-0.007922383279244206
0.2962999999999999,-0.007964824618240158
0.2952999999999999,-0.008032730760633678
0.2942999999999999,-0.008062439697930844
0.2932999999999999,-0.008121857572525176
0.2922999999999999,-0.008206740250517076
0.2912999999999999,-0.008239278610413974
0.2902999999999999,-0.008276061104210466
0.2892999999999999,-0.00833689369010466
0.2882999999999999,-0.008386408585599936
0.2872999999999999,-0.008465632418392379
0.2862999999999999,-0.0084769501087913
0.2852999999999999,-0.00850807375738833
0.2842999999999999,-0.008564662209382932
0.2832999999999999,-0.0086226653726774
0.2822999999999999,-0.00871037747326903
0.2812999999999999,-0.008748574678365387
0.2802999999999999,-0.008761307080064173
0.2792999999999999,-0.008809407264259583
0.2782999999999999,-0.008867410427554049
0.2772999999999999,-0.008938145992547301
0.2762999999999999,-0.008979172620243388
0.2752999999999999,-0.009004637423640958
0.2742999999999999,-0.009059811164335695
0.2732999999999999,-0.009109326059830971
0.2722999999999999,-0.009165914511825572
0.2712999999999999,-0.009223917675120038
0.2702999999999999,-0.00926070016891653
0.2692999999999999,-0.009308800353111941
0.26829999999999987,-0.009356900537307353
0.26729999999999987,-0.009421977257101142
0.26629999999999987,-0.009461589173497365
0.26529999999999987,-0.009498371667293856
0.26429999999999987,-0.009537983583690079
0.26329999999999987,-0.00961720741648252
0.26229999999999987,-0.0096624781780782
0.26129999999999987,-0.009710578362273611
0.26029999999999986,-0.009743116722170509
0.25929999999999986,-0.009777069793367269
0.25829999999999986,-0.00983365824536187
0.25729999999999986,-0.009924199768553231
0.25629999999999986,-0.009944005726751342
0.25529999999999986,-0.01000766773524527
0.25429999999999986,-0.010038791383842298
0.25329999999999986,-0.010081232722838252
0.25229999999999986,-0.010159041844330828
0.25129999999999986,-0.010187336070328129
0.25029999999999986,-0.010235436254523542
0.24929999999999986,-0.010267974614420437
0.24829999999999985,-0.010293439417818007
0.24729999999999985,-0.010391054497508694
0.24629999999999985,-0.010416519300906266
0.24529999999999985,-0.010485840154599652
0.24429999999999985,-0.010519793225796412
0.24329999999999985,-0.010532525627495199
0.24229999999999985,-0.010632970129785617
0.24129999999999985,-0.010681070313981028
0.24029999999999985,-0.010688143870480352
0.23929999999999985,-0.010737658765975629
0.23829999999999985,-0.010798491351869825
0.23729999999999984,-0.010855079803864428
0.23629999999999984,-0.010914497678458758
0.23529999999999984,-0.010918741812358352
0.23429999999999984,-0.010961183151354303
0.23329999999999984,-0.01102767458244796
0.23229999999999984,-0.011099824858741078
0.23129999999999984,-0.011154998599435815
0.23029999999999984,-0.01118470753673298
0.22929999999999984,-0.011217245896629875
0.22829999999999984,-0.011283737327723533
0.22729999999999984,-0.011345984624917593
0.22629999999999983,-0.011375693562214758
0.22529999999999983,-0.01142096432381044
0.22429999999999983,-0.011457746817606931
0.22329999999999983,-0.011519994114800992
0.22229999999999983,-0.011589314968494382
0.22129999999999983,-0.011633171018790198
0.22029999999999983,-0.01169258889338453
0.21929999999999983,-0.011733615521080614
0.21829999999999983,-0.01178313041657589
0.21729999999999983,-0.011838304157270628
0.21629999999999983,-0.011870842517167522
0.21529999999999982,-0.011921772123962664
0.21429999999999982,-0.01193733394826118
0.21329999999999982,-0.011999581245455242
0.21229999999999982,-0.012098611036445793
0.21129999999999982,-0.012112758149444444
0.21029999999999982,-0.012169346601439045
0.20929999999999982,-0.012200470250036077
0.20829999999999982,-0.012247155722931623
0.20729999999999982,-0.012332038400923524
0.20629999999999982,-0.0123532590704215
0.20529999999999982,-0.012394285698117586
0.20429999999999982,-0.012446630016212592
0.20329999999999981,-0.012481997798709218
0.2022999999999998,-0.012578198167100041
0.2012999999999998,-0.012613565949596667
0.20029999999999992,-0.012637616041694373
0.19929999999999992,-0.01270410747278803
0.19829999999999992,-0.012745134100484116
0.19729999999999992,-0.012827187355876287
0.19629999999999992,-0.012865384560972644
0.19529999999999992,-0.012885190519170754
0.19429999999999992,-0.012999782134459821
0.19329999999999992,-0.013074761833352669
0.19229999999999992,-0.013110129615849295
0.19129999999999991,-0.013152570954845245
0.1902999999999999,-0.013165303356544032
0.1892999999999999,-0.013214818252039308
0.1882999999999999,-0.01328555381703256
0.1872999999999999,-0.013352045248126216
0.1862999999999999,-0.013394486587122167
0.1852999999999999,-0.01341995139051974
0.1842999999999999,-0.013475125131214474
0.1832999999999999,-0.01351615175891056
0.1822999999999999,-0.013601034436902462
0.1812999999999999,-0.013661867022796658
0.1802999999999999,-0.013691575960093825
0.1792999999999999,-0.013732602587789912
0.1782999999999999,-0.013769385081586403
0.1772999999999999,-0.013855682470878171
0.1762999999999999,-0.013902367943773714
0.1752999999999999,-0.01393773572627034
0.1742999999999999,-0.013975932931366699
0.1732999999999999,-0.014026862538161837
0.1722999999999999,-0.014123062906552662
0.1712999999999999,-0.014140039442151042
0.1702999999999999,-0.014175407224647668
0.1692999999999999,-0.014231995676642267
0.1682999999999999,-0.014288584128636872
0.1672999999999999,-0.014373466806628774
0.1662999999999999,-0.014415908145624722
0.1652999999999999,-0.014472496597619325
0.1642999999999999,-0.014500790823616624
0.1632999999999999,-0.014543232162612576
0.1622999999999999,-0.014642261953603129
0.1612999999999999,-0.014684703292599082
0.1602999999999999,-0.014712997518596381
0.1592999999999999,-0.014755438857592333
0.15829999999999989,-0.014826174422585584
0.15729999999999988,-0.014896909987578835
0.15629999999999988,-0.014953498439573438
0.15529999999999988,-0.014995939778569388
0.15429999999999988,-0.01505252823056399
0.15329999999999988,-0.015109116682558592
0.15229999999999988,-0.015165705134553195
0.15129999999999988,-0.015208146473549147
0.15029999999999988,-0.015250587812545097
0.14929999999999988,-0.015307176264539698
0.14829999999999988,-0.015377911829532949
0.14729999999999988,-0.015448647394526203
0.14629999999999987,-0.015491088733522153
0.14529999999999987,-0.015533530072518101
0.14429999999999987,-0.015575971411514053
0.14329999999999987,-0.015646706976507305
0.14229999999999987,-0.01573158965449921
0.14129999999999987,-0.015745736767497857
0.14029999999999987,-0.01580232521949246
0.13929999999999987,-0.01581647233249111
0.13829999999999987,-0.015873060784485714
0.13729999999999987,-0.015957943462477614
0.13629999999999987,-0.016000384801473564
0.13529999999999986,-0.016042826140469518
0.13429999999999986,-0.01608526747946547
0.13329999999999986,-0.01615600304445872
0.13229999999999986,-0.01625503283544927
0.13129999999999986,-0.016283327061446574
0.13029999999999986,-0.016339915513441175
0.12929999999999986,-0.016396503965435776
0.12829999999999986,-0.016424798191433075
0.12729999999999986,-0.01650968086942498
0.12629999999999986,-0.01658041643441823
0.12529999999999986,-0.01660871066041553
0.12429999999999986,-0.01666529911241013
0.12329999999999985,-0.01670774045140608
0.12229999999999985,-0.016792623129397985
0.12129999999999985,-0.016863358694391237
0.12029999999999985,-0.01687750580738989
0.11929999999999985,-0.01693409425938449
0.11829999999999985,-0.01697653559838044
0.11729999999999985,-0.01706141827637234
0.11629999999999985,-0.017160448067362895
0.11529999999999985,-0.017174595180361543
0.11429999999999985,-0.017231183632356147
0.11329999999999985,-0.0173019191973494
0.11229999999999984,-0.017358507649344
0.11129999999999984,-0.0174150961013386
0.11029999999999984,-0.017443390327335904
0.10929999999999984,-0.017499978779330502
0.10829999999999984,-0.017584861457322406
0.10729999999999984,-0.017641449909317007
0.10629999999999984,-0.01769803836131161
0.10529999999999984,-0.01774047970030756
0.10429999999999984,-0.017797068152302163
0.10329999999999984,-0.01785365660429676
0.10229999999999984,-0.017938539282288665
0.10129999999999983,-0.017995127734283266
0.10029999999999983,-0.01803756907327922
0.09929999999999983,-0.018094157525273817
0.09829999999999983,-0.01816489309026707
0.09729999999999983,-0.018249775768258973
0.09629999999999983,-0.018278069994256275
0.09529999999999983,-0.018348805559249524
0.09429999999999983,-0.018405394011244126
0.09329999999999983,-0.01847612957623738
0.09229999999999983,-0.018575159367227933
0.09129999999999983,-0.018631747819222534
0.09029999999999982,-0.018688336271217135
0.08929999999999982,-0.018744924723211737
0.08829999999999982,-0.018801513175206338
0.08729999999999982,-0.018886395853198238
0.08629999999999982,-0.01892883719219419
0.08529999999999982,-0.018985425644188793
0.08429999999999982,-0.019056161209182042
0.08329999999999982,-0.019084455435179344
0.08229999999999982,-0.019197632339168547
0.08129999999999982,-0.019254220791163148
0.08029999999999982,-0.01928251501716045
0.07929999999999982,-0.019367397695152354
0.07829999999999981,-0.019438133260145606
0.07729999999999981,-0.01950886882513886
0.07629999999999981,-0.019579604390132108
0.07529999999999992,-0.019607898616129407
0.07429999999999992,-0.019664487068124008
0.07329999999999992,-0.01973522263311726
0.07229999999999992,-0.019834252424107815
0.07129999999999992,-0.019876693763103765
0.07029999999999992,-0.019919135102099715
0.06929999999999992,-0.01997572355409432
0.06829999999999992,-0.02006060623208622
0.06729999999999992,-0.020131341797079472
0.06629999999999991,-0.020216224475071376
0.06529999999999991,-0.020272812927065977
0.06429999999999991,-0.020357695605057877
0.06329999999999991,-0.02041428405705248
0.06229999999999991,-0.02048501962204573
0.06129999999999991,-0.020541608074040336
0.06029999999999991,-0.020612343639033585
0.05929999999999991,-0.020654784978029535
0.05829999999999991,-0.02075381476902009
0.05729999999999991,-0.020824550334013342
0.056299999999999906,-0.020895285899006594
0.055299999999999905,-0.020951874351001196
0.054299999999999904,-0.021022609915994445
0.0532999999999999,-0.021079198367989046
0.0522999999999999,-0.0211782281589796
0.0512999999999999,-0.0212348166109742
0.0502999999999999,-0.021291405062968803
0.0492999999999999,-0.021362140627962056
0.0482999999999999,-0.021418729079956657
0.0472999999999999,-0.02153190598394586
0.0462999999999999,-0.021602641548939108
0.045299999999999896,-0.02165923000093371
0.044299999999999895,-0.021729965565926962
0.043299999999999894,-0.021800701130920214
0.04229999999999989,-0.02189973092191077
0.04129999999999989,-0.02198461359990267
0.04029999999999989,-0.02208364339089322
0.03929999999999989,-0.022126084729889174
0.03829999999999989,-0.022168526068885124
0.03729999999999989,-0.022281702972874327
0.03629999999999989,-0.022366585650866227
0.03529999999999989,-0.02239487987686353
0.034299999999999886,-0.022479762554855433
0.033299999999999885,-0.022550498119848682
0.032299999999999884,-0.02264952791083924
0.031299999999999883,-0.02270611636283384
0.030299999999999883,-0.02276270481482844
0.02929999999999988,-0.022833440379821688
0.02829999999999988,-0.022918323057813595
0.02729999999999988,-0.023017352848804146
0.02629999999999988,-0.0230880884137974
0.025299999999999878,-0.023144676865792004
0.024299999999999877,-0.023215412430785252
0.023299999999999876,-0.023286147995778505
0.022299999999999875,-0.023371030673770405
0.021299999999999875,-0.02347006046476096
0.020299999999999874,-0.02354079602975421
0.019299999999999873,-0.023611531594747465
0.018299999999999872,-0.023682267159740714
0.01729999999999987,-0.02378129695073127
0.01629999999999987,-0.023866179628723165
0.01529999999999987,-0.023965209419713723
0.014299999999999868,-0.024035944984706972
0.013299999999999867,-0.024092533436701577
0.012299999999999978,-0.02420571034069078
0.011299999999999866,-0.02429059301868268
0.010299999999999976,-0.02434718147067728
0.009299999999999864,-0.024432064148669184
0.008299999999999974,-0.024516946826661085
0.007299999999999862,-0.02461597661765164
0.006299999999999972,-0.024700859295643543
0.00529999999999986,-0.02475744774763814
0.0042999999999999705,-0.02482818331263139
0.0032999999999998586,-0.024884771764625994
0.0022999999999999687,-0.0250262428946125
0.0012999999999998568,-0.0251111255726044
0.00029999999999996696,-0.025167714024599004
-0.000700000000000145,-0.025252596702590904
-0.0017000000000000348,-0.025323332267584157
-0.0027000000000001467,-0.025422362058574708
-0.0037000000000000366,-0.025521391849565263
-0.0047000000000001485,-0.025563833188561213
-0.005700000000000038,-0.025662862979551764
-0.00670000000000015,-0.02576189277054232
-0.00770000000000004,-0.025846775448534223
-0.008700000000000152,-0.025959952352523425
-0.009700000000000042,-0.02600239369151937
-0.010700000000000154,-0.02614386482150588
-0.011700000000000044,-0.02622874749949778
-0.012700000000000156,-0.02632777729048833
-0.013700000000000045,-0.026412659968480235
-0.014700000000000157,-0.02649754264647214
-0.015700000000000047,-0.02656827821146539
-0.01670000000000016,-0.026667308002455942
-0.01770000000000005,-0.026766337793446494
-0.01870000000000016,-0.026851220471438397
-0.01970000000000005,-0.02695025026242895
-0.020700000000000163,-0.0270209858274222
-0.021700000000000053,-0.027105868505414105
-0.022700000000000164,-0.02723319252240196
-0.023700000000000054,-0.02731807520039386
-0.024700000000000166,-0.02738881076538711
-0.025700000000000056,-0.027473693443379014
-0.026700000000000168,-0.027544429008372267
-0.027700000000000058,-0.027671753025360117
-0.02870000000000017,-0.02775663570335202
-0.02970000000000006,-0.027855665494342572
-0.03070000000000017,-0.027926401059335824
-0.03170000000000006,-0.02802543085032638
-0.03270000000000017,-0.02815275486731423
-0.03370000000000006,-0.028237637545306133
-0.034700000000000175,-0.028308373110299385
-0.035700000000000065,-0.028407402901289937
-0.03670000000000018,-0.02850643269228049
-0.03770000000000007,-0.028633756709268345
-0.03870000000000018,-0.028718639387260245
-0.03970000000000007,-0.028789374952253494
-0.04070000000000018,-0.02888840474324405
-0.04170000000000007,-0.0289591403082373
-0.04270000000000018,-0.029100611438223806
-0.04370000000000007,-0.029199641229214358
-0.044700000000000184,-0.029256229681208955
-0.045700000000000074,-0.02935525947219951
-0.046700000000000186,-0.02946843637618871
-0.047700000000000076,-0.029581613280177915
-0.04870000000000019,-0.02969479018416712
-0.04970000000000008,-0.029765525749160374
-0.05070000000000019,-0.029850408427152274
-0.05170000000000008,-0.029963585331141473
-0.05270000000000019,-0.03006261512213203
-0.05370000000000008,-0.030161644913122586
-0.05470000000000019,-0.030232380478115835
-0.05570000000000008,-0.03033141026910639
-0.056700000000000195,-0.03044458717309559
-0.057700000000000085,-0.030543616964086147
-0.058700000000000196,-0.030628499642078044
-0.059700000000000086,-0.030713382320069947
-0.0607000000000002,-0.030784117885063196
-0.06170000000000009,-0.030911441902051046
-0.0627000000000002,-0.031024618806040256
