Mar. 12, 2025   02:38:21
Cyclic Voltammetry
File: c:/users/guazh/data/banditlqround7_x0exp891_r5/2025-03-03-exp882\exp882-2025-03-12t02_23_09-arkoh\exp882_cv_sr_500mvs_efin_-1600mv.bin
Data Source:  Experiment
Instrument Model:  CHI760E
Header: CV ran at 500 mVs
Note: 

Init E (V) = -1
High E (V) = -1
Low E (V) = -1.6
Final E (V) = -1
Init P/N = N
Scan Rate (V/s) = 0.5
Segment = 3
Sample Interval (V) = 0.001
Quiet Time (sec) = 2
Sensitivity (A/V) = 0.01
Comp R (ohm) = 2.0

Results:

Channel 1:
Segment 1:

Segment 2:

Segment 3:

Potential/V, Current/A

-1.000, 2.482e-5
-1.001, 6.490e-5
-1.002, 8.648e-5
-1.003, 9.573e-5
-1.004, 1.050e-4
-1.005, 1.081e-4
-1.006, 1.111e-4
-1.007, 1.142e-4
-1.008, 1.142e-4
-1.009, 1.142e-4
-1.010, 1.142e-4
-1.011, 1.142e-4
-1.012, 1.173e-4
-1.013, 1.173e-4
-1.014, 1.173e-4
-1.015, 1.204e-4
-1.016, 1.204e-4
-1.017, 1.173e-4
-1.018, 1.173e-4
-1.019, 1.173e-4
-1.020, 1.173e-4
-1.021, 1.173e-4
-1.022, 1.204e-4
-1.023, 1.204e-4
-1.024, 1.235e-4
-1.025, 1.204e-4
-1.026, 1.204e-4
-1.027, 1.204e-4
-1.028, 1.204e-4
-1.029, 1.204e-4
-1.030, 1.204e-4
-1.031, 1.204e-4
-1.032, 1.204e-4
-1.033, 1.204e-4
-1.034, 1.204e-4
-1.035, 1.204e-4
-1.036, 1.204e-4
-1.037, 1.204e-4
-1.038, 1.204e-4
-1.039, 1.235e-4
-1.040, 1.235e-4
-1.041, 1.235e-4
-1.042, 1.235e-4
-1.043, 1.235e-4
-1.044, 1.204e-4
-1.045, 1.204e-4
-1.046, 1.204e-4
-1.047, 1.235e-4
-1.048, 1.235e-4
-1.049, 1.235e-4
-1.050, 1.235e-4
-1.051, 1.204e-4
-1.052, 1.204e-4
-1.053, 1.204e-4
-1.054, 1.235e-4
-1.055, 1.235e-4
-1.056, 1.235e-4
-1.057, 1.235e-4
-1.058, 1.235e-4
-1.059, 1.235e-4
-1.060, 1.204e-4
-1.061, 1.235e-4
-1.062, 1.204e-4
-1.063, 1.235e-4
-1.064, 1.235e-4
-1.065, 1.235e-4
-1.066, 1.235e-4
-1.067, 1.235e-4
-1.068, 1.235e-4
-1.069, 1.235e-4
-1.070, 1.235e-4
-1.071, 1.235e-4
-1.072, 1.235e-4
-1.073, 1.266e-4
-1.074, 1.235e-4
-1.075, 1.235e-4
-1.076, 1.235e-4
-1.077, 1.204e-4
-1.078, 1.204e-4
-1.079, 1.204e-4
-1.080, 1.235e-4
-1.081, 1.235e-4
-1.082, 1.266e-4
-1.083, 1.235e-4
-1.084, 1.235e-4
-1.085, 1.235e-4
-1.086, 1.235e-4
-1.087, 1.235e-4
-1.088, 1.235e-4
-1.089, 1.235e-4
-1.090, 1.266e-4
-1.091, 1.266e-4
-1.092, 1.235e-4
-1.093, 1.235e-4
-1.094, 1.235e-4
-1.095, 1.235e-4
-1.096, 1.235e-4
-1.097, 1.266e-4
-1.098, 1.266e-4
-1.099, 1.266e-4
-1.100, 1.266e-4
-1.101, 1.235e-4
-1.102, 1.235e-4
-1.103, 1.235e-4
-1.104, 1.235e-4
-1.105, 1.235e-4
-1.106, 1.266e-4
-1.107, 1.266e-4
-1.108, 1.266e-4
-1.109, 1.235e-4
-1.110, 1.235e-4
-1.111, 1.235e-4
-1.112, 1.235e-4
-1.113, 1.235e-4
-1.114, 1.266e-4
-1.115, 1.266e-4
-1.116, 1.266e-4
-1.117, 1.235e-4
-1.118, 1.266e-4
-1.119, 1.266e-4
-1.120, 1.235e-4
-1.121, 1.266e-4
-1.122, 1.266e-4
-1.123, 1.266e-4
-1.124, 1.266e-4
-1.125, 1.266e-4
-1.126, 1.266e-4
-1.127, 1.266e-4
-1.128, 1.235e-4
-1.129, 1.235e-4
-1.130, 1.266e-4
-1.131, 1.266e-4
-1.132, 1.266e-4
-1.133, 1.266e-4
-1.134, 1.266e-4
-1.135, 1.266e-4
-1.136, 1.235e-4
-1.137, 1.266e-4
-1.138, 1.266e-4
-1.139, 1.266e-4
-1.140, 1.266e-4
-1.141, 1.266e-4
-1.142, 1.266e-4
-1.143, 1.266e-4
-1.144, 1.235e-4
-1.145, 1.266e-4
-1.146, 1.266e-4
-1.147, 1.266e-4
-1.148, 1.266e-4
-1.149, 1.266e-4
-1.150, 1.266e-4
-1.151, 1.266e-4
-1.152, 1.266e-4
-1.153, 1.266e-4
-1.154, 1.266e-4
-1.155, 1.266e-4
-1.156, 1.296e-4
-1.157, 1.296e-4
-1.158, 1.296e-4
-1.159, 1.266e-4
-1.160, 1.266e-4
-1.161, 1.266e-4
-1.162, 1.266e-4
-1.163, 1.266e-4
-1.164, 1.296e-4
-1.165, 1.296e-4
-1.166, 1.296e-4
-1.167, 1.296e-4
-1.168, 1.266e-4
-1.169, 1.296e-4
-1.170, 1.266e-4
-1.171, 1.266e-4
-1.172, 1.296e-4
-1.173, 1.296e-4
-1.174, 1.296e-4
-1.175, 1.296e-4
-1.176, 1.296e-4
-1.177, 1.266e-4
-1.178, 1.296e-4
-1.179, 1.296e-4
-1.180, 1.296e-4
-1.181, 1.327e-4
-1.182, 1.327e-4
-1.183, 1.296e-4
-1.184, 1.296e-4
-1.185, 1.296e-4
-1.186, 1.296e-4
-1.187, 1.296e-4
-1.188, 1.296e-4
-1.189, 1.296e-4
-1.190, 1.327e-4
-1.191, 1.327e-4
-1.192, 1.296e-4
-1.193, 1.296e-4
-1.194, 1.296e-4
-1.195, 1.296e-4
-1.196, 1.296e-4
-1.197, 1.327e-4
-1.198, 1.327e-4
-1.199, 1.327e-4
-1.200, 1.327e-4
-1.201, 1.327e-4
-1.202, 1.327e-4
-1.203, 1.327e-4
-1.204, 1.327e-4
-1.205, 1.327e-4
-1.206, 1.327e-4
-1.207, 1.327e-4
-1.208, 1.327e-4
-1.209, 1.327e-4
-1.210, 1.327e-4
-1.211, 1.327e-4
-1.212, 1.327e-4
-1.213, 1.327e-4
-1.214, 1.358e-4
-1.215, 1.358e-4
-1.216, 1.358e-4
-1.217, 1.358e-4
-1.218, 1.327e-4
-1.219, 1.358e-4
-1.220, 1.327e-4
-1.221, 1.327e-4
-1.222, 1.358e-4
-1.223, 1.358e-4
-1.224, 1.358e-4
-1.225, 1.358e-4
-1.226, 1.358e-4
-1.227, 1.358e-4
-1.228, 1.358e-4
-1.229, 1.358e-4
-1.230, 1.389e-4
-1.231, 1.389e-4
-1.232, 1.389e-4
-1.233, 1.389e-4
-1.234, 1.358e-4
-1.235, 1.358e-4
-1.236, 1.358e-4
-1.237, 1.358e-4
-1.238, 1.389e-4
-1.239, 1.389e-4
-1.240, 1.389e-4
-1.241, 1.420e-4
-1.242, 1.389e-4
-1.243, 1.389e-4
-1.244, 1.389e-4
-1.245, 1.389e-4
-1.246, 1.389e-4
-1.247, 1.420e-4
-1.248, 1.420e-4
-1.249, 1.420e-4
-1.250, 1.420e-4
-1.251, 1.420e-4
-1.252, 1.420e-4
-1.253, 1.389e-4
-1.254, 1.389e-4
-1.255, 1.420e-4
-1.256, 1.420e-4
-1.257, 1.451e-4
-1.258, 1.420e-4
-1.259, 1.420e-4
-1.260, 1.420e-4
-1.261, 1.420e-4
-1.262, 1.420e-4
-1.263, 1.420e-4
-1.264, 1.451e-4
-1.265, 1.451e-4
-1.266, 1.451e-4
-1.267, 1.451e-4
-1.268, 1.451e-4
-1.269, 1.451e-4
-1.270, 1.451e-4
-1.271, 1.481e-4
-1.272, 1.481e-4
-1.273, 1.481e-4
-1.274, 1.481e-4
-1.275, 1.481e-4
-1.276, 1.481e-4
-1.277, 1.481e-4
-1.278, 1.481e-4
-1.279, 1.512e-4
-1.280, 1.512e-4
-1.281, 1.543e-4
-1.282, 1.543e-4
-1.283, 1.543e-4
-1.284, 1.512e-4
-1.285, 1.512e-4
-1.286, 1.512e-4
-1.287, 1.512e-4
-1.288, 1.543e-4
-1.289, 1.574e-4
-1.290, 1.574e-4
-1.291, 1.574e-4
-1.292, 1.574e-4
-1.293, 1.574e-4
-1.294, 1.574e-4
-1.295, 1.574e-4
-1.296, 1.605e-4
-1.297, 1.605e-4
-1.298, 1.636e-4
-1.299, 1.636e-4
-1.300, 1.636e-4
-1.301, 1.605e-4
-1.302, 1.636e-4
-1.303, 1.605e-4
-1.304, 1.605e-4
-1.305, 1.666e-4
-1.306, 1.666e-4
-1.307, 1.697e-4
-1.308, 1.697e-4
-1.309, 1.697e-4
-1.310, 1.697e-4
-1.311, 1.697e-4
-1.312, 1.697e-4
-1.313, 1.728e-4
-1.314, 1.728e-4
-1.315, 1.759e-4
-1.316, 1.759e-4
-1.317, 1.759e-4
-1.318, 1.759e-4
-1.319, 1.759e-4
-1.320, 1.759e-4
-1.321, 1.790e-4
-1.322, 1.821e-4
-1.323, 1.821e-4
-1.324, 1.851e-4
-1.325, 1.851e-4
-1.326, 1.851e-4
-1.327, 1.882e-4
-1.328, 1.882e-4
-1.329, 1.882e-4
-1.330, 1.913e-4
-1.331, 1.944e-4
-1.332, 1.944e-4
-1.333, 1.944e-4
-1.334, 1.975e-4
-1.335, 1.975e-4
-1.336, 1.975e-4
-1.337, 2.006e-4
-1.338, 2.036e-4
-1.339, 2.036e-4
-1.340, 2.067e-4
-1.341, 2.067e-4
-1.342, 2.067e-4
-1.343, 2.098e-4
-1.344, 2.098e-4
-1.345, 2.129e-4
-1.346, 2.129e-4
-1.347, 2.160e-4
-1.348, 2.221e-4
-1.349, 2.221e-4
-1.350, 2.252e-4
-1.351, 2.252e-4
-1.352, 2.252e-4
-1.353, 2.283e-4
-1.354, 2.283e-4
-1.355, 2.314e-4
-1.356, 2.345e-4
-1.357, 2.376e-4
-1.358, 2.406e-4
-1.359, 2.406e-4
-1.360, 2.406e-4
-1.361, 2.437e-4
-1.362, 2.468e-4
-1.363, 2.499e-4
-1.364, 2.561e-4
-1.365, 2.591e-4
-1.366, 2.591e-4
-1.367, 2.622e-4
-1.368, 2.653e-4
-1.369, 2.653e-4
-1.370, 2.684e-4
-1.371, 2.715e-4
-1.372, 2.746e-4
-1.373, 2.776e-4
-1.374, 2.807e-4
-1.375, 2.838e-4
-1.376, 2.869e-4
-1.377, 2.900e-4
-1.378, 2.931e-4
-1.379, 2.961e-4
-1.380, 2.992e-4
-1.381, 3.054e-4
-1.382, 3.085e-4
-1.383, 3.115e-4
-1.384, 3.146e-4
-1.385, 3.177e-4
-1.386, 3.208e-4
-1.387, 3.270e-4
-1.388, 3.300e-4
-1.389, 3.362e-4
-1.390, 3.393e-4
-1.391, 3.424e-4
-1.392, 3.455e-4
-1.393, 3.485e-4
-1.394, 3.547e-4
-1.395, 3.578e-4
-1.396, 3.640e-4
-1.397, 3.701e-4
-1.398, 3.763e-4
-1.399, 3.825e-4
-1.400, 3.855e-4
-1.401, 3.917e-4
-1.402, 3.948e-4
-1.403, 4.010e-4
-1.404, 4.071e-4
-1.405, 4.133e-4
-1.406, 4.195e-4
-1.407, 4.256e-4
-1.408, 4.318e-4
-1.409, 4.349e-4
-1.410, 4.410e-4
-1.411, 4.472e-4
-1.412, 4.565e-4
-1.413, 4.626e-4
-1.414, 4.719e-4
-1.415, 4.811e-4
-1.416, 4.873e-4
-1.417, 4.935e-4
-1.418, 4.996e-4
-1.419, 5.058e-4
-1.420, 5.120e-4
-1.421, 5.212e-4
-1.422, 5.305e-4
-1.423, 5.397e-4
-1.424, 5.489e-4
-1.425, 5.582e-4
-1.426, 5.674e-4
-1.427, 5.767e-4
-1.428, 5.859e-4
-1.429, 5.952e-4
-1.430, 6.044e-4
-1.431, 6.137e-4
-1.432, 6.260e-4
-1.433, 6.353e-4
-1.434, 6.476e-4
-1.435, 6.569e-4
-1.436, 6.692e-4
-1.437, 6.815e-4
-1.438, 6.939e-4
-1.439, 7.062e-4
-1.440, 7.185e-4
-1.441, 7.309e-4
-1.442, 7.401e-4
-1.443, 7.524e-4
-1.444, 7.648e-4
-1.445, 7.802e-4
-1.446, 7.956e-4
-1.447, 8.110e-4
-1.448, 8.264e-4
-1.449, 8.449e-4
-1.450, 8.603e-4
-1.451, 8.758e-4
-1.452, 8.912e-4
-1.453, 9.066e-4
-1.454, 9.220e-4
-1.455, 9.374e-4
-1.456, 9.559e-4
-1.457, 9.744e-4
-1.458, 9.929e-4
-1.459, 1.011e-3
-1.460, 1.030e-3
-1.461, 1.048e-3
-1.462, 1.070e-3
-1.463, 1.092e-3
-1.464, 1.110e-3
-1.465, 1.135e-3
-1.466, 1.153e-3
-1.467, 1.175e-3
-1.468, 1.196e-3
-1.469, 1.215e-3
-1.470, 1.236e-3
-1.471, 1.258e-3
-1.472, 1.286e-3
-1.473, 1.314e-3
-1.474, 1.341e-3
-1.475, 1.366e-3
-1.476, 1.394e-3
-1.477, 1.418e-3
-1.478, 1.443e-3
-1.479, 1.468e-3
-1.480, 1.492e-3
-1.481, 1.517e-3
-1.482, 1.542e-3
-1.483, 1.573e-3
-1.484, 1.603e-3
-1.485, 1.634e-3
-1.486, 1.668e-3
-1.487, 1.702e-3
-1.488, 1.736e-3
-1.489, 1.767e-3
-1.490, 1.798e-3
-1.491, 1.828e-3
-1.492, 1.856e-3
-1.493, 1.887e-3
-1.494, 1.918e-3
-1.495, 1.949e-3
-1.496, 1.983e-3
-1.497, 2.017e-3
-1.498, 2.054e-3
-1.499, 2.087e-3
-1.500, 2.124e-3
-1.501, 2.161e-3
-1.502, 2.198e-3
-1.503, 2.235e-3
-1.504, 2.269e-3
-1.505, 2.306e-3
-1.506, 2.340e-3
-1.507, 2.374e-3
-1.508, 2.411e-3
-1.509, 2.448e-3
-1.510, 2.485e-3
-1.511, 2.528e-3
-1.512, 2.571e-3
-1.513, 2.618e-3
-1.514, 2.664e-3
-1.515, 2.707e-3
-1.516, 2.747e-3
-1.517, 2.784e-3
-1.518, 2.818e-3
-1.519, 2.849e-3
-1.520, 2.883e-3
-1.521, 2.923e-3
-1.522, 2.969e-3
-1.523, 3.019e-3
-1.524, 3.071e-3
-1.525, 3.120e-3
-1.526, 3.167e-3
-1.527, 3.213e-3
-1.528, 3.253e-3
-1.529, 3.293e-3
-1.530, 3.333e-3
-1.531, 3.373e-3
-1.532, 3.413e-3
-1.533, 3.453e-3
-1.534, 3.496e-3
-1.535, 3.543e-3
-1.536, 3.586e-3
-1.537, 3.635e-3
-1.538, 3.684e-3
-1.539, 3.734e-3
-1.540, 3.783e-3
-1.541, 3.836e-3
-1.542, 3.882e-3
-1.543, 3.928e-3
-1.544, 3.974e-3
-1.545, 4.017e-3
-1.546, 4.058e-3
-1.547, 4.101e-3
-1.548, 4.144e-3
-1.549, 4.190e-3
-1.550, 4.236e-3
-1.551, 4.286e-3
-1.552, 4.332e-3
-1.553, 4.375e-3
-1.554, 4.415e-3
-1.555, 4.458e-3
-1.556, 4.505e-3
-1.557, 4.557e-3
-1.558, 4.606e-3
-1.559, 4.656e-3
-1.560, 4.705e-3
-1.561, 4.754e-3
-1.562, 4.804e-3
-1.563, 4.850e-3
-1.564, 4.896e-3
-1.565, 4.933e-3
-1.566, 4.973e-3
-1.567, 5.013e-3
-1.568, 5.060e-3
-1.569, 5.100e-3
-1.570, 5.149e-3
-1.571, 5.198e-3
-1.572, 5.248e-3
-1.573, 5.294e-3
-1.574, 5.337e-3
-1.575, 5.380e-3
-1.576, 5.423e-3
-1.577, 5.467e-3
-1.578, 5.513e-3
-1.579, 5.556e-3
-1.580, 5.608e-3
-1.581, 5.651e-3
-1.582, 5.692e-3
-1.583, 5.735e-3
-1.584, 5.772e-3
-1.585, 5.806e-3
-1.586, 5.840e-3
-1.587, 5.873e-3
-1.588, 5.920e-3
-1.589, 5.960e-3
-1.590, 6.006e-3
-1.591, 6.049e-3
-1.592, 6.099e-3
-1.593, 6.142e-3
-1.594, 6.185e-3
-1.595, 6.219e-3
-1.596, 6.247e-3
-1.597, 6.259e-3
-1.598, 6.271e-3
-1.599, 6.277e-3
-1.600, 6.277e-3
-1.599, 6.213e-3
-1.598, 6.185e-3
-1.597, 6.169e-3
-1.596, 6.154e-3
-1.595, 6.126e-3
-1.594, 6.086e-3
-1.593, 6.034e-3
-1.592, 5.975e-3
-1.591, 5.907e-3
-1.590, 5.830e-3
-1.589, 5.753e-3
-1.588, 5.692e-3
-1.587, 5.636e-3
-1.586, 5.578e-3
-1.585, 5.519e-3
-1.584, 5.467e-3
-1.583, 5.423e-3
-1.582, 5.356e-3
-1.581, 5.275e-3
-1.580, 5.201e-3
-1.579, 5.137e-3
-1.578, 5.084e-3
-1.577, 5.044e-3
-1.576, 5.016e-3
-1.575, 4.989e-3
-1.574, 4.967e-3
-1.573, 4.921e-3
-1.572, 4.859e-3
-1.571, 4.794e-3
-1.570, 4.733e-3
-1.569, 4.653e-3
-1.568, 4.575e-3
-1.567, 4.520e-3
-1.566, 4.477e-3
-1.565, 4.443e-3
-1.564, 4.409e-3
-1.563, 4.378e-3
-1.562, 4.344e-3
-1.561, 4.307e-3
-1.560, 4.258e-3
-1.559, 4.209e-3
-1.558, 4.162e-3
-1.557, 4.116e-3
-1.556, 4.076e-3
-1.555, 4.027e-3
-1.554, 3.980e-3
-1.553, 3.934e-3
-1.552, 3.894e-3
-1.551, 3.848e-3
-1.550, 3.808e-3
-1.549, 3.774e-3
-1.548, 3.740e-3
-1.547, 3.697e-3
-1.546, 3.657e-3
-1.545, 3.610e-3
-1.544, 3.573e-3
-1.543, 3.530e-3
-1.542, 3.484e-3
-1.541, 3.435e-3
-1.540, 3.388e-3
-1.539, 3.342e-3
-1.538, 3.299e-3
-1.537, 3.259e-3
-1.536, 3.222e-3
-1.535, 3.182e-3
-1.534, 3.151e-3
-1.533, 3.114e-3
-1.532, 3.074e-3
-1.531, 3.034e-3
-1.530, 2.994e-3
-1.529, 2.951e-3
-1.528, 2.911e-3
-1.527, 2.871e-3
-1.526, 2.830e-3
-1.525, 2.790e-3
-1.524, 2.747e-3
-1.523, 2.707e-3
-1.522, 2.667e-3
-1.521, 2.627e-3
-1.520, 2.590e-3
-1.519, 2.562e-3
-1.518, 2.538e-3
-1.517, 2.516e-3
-1.516, 2.482e-3
-1.515, 2.442e-3
-1.514, 2.396e-3
-1.513, 2.353e-3
-1.512, 2.316e-3
-1.511, 2.285e-3
-1.510, 2.251e-3
-1.509, 2.226e-3
-1.508, 2.201e-3
-1.507, 2.171e-3
-1.506, 2.143e-3
-1.505, 2.109e-3
-1.504, 2.075e-3
-1.503, 2.035e-3
-1.502, 1.998e-3
-1.501, 1.967e-3
-1.500, 1.936e-3
-1.499, 1.912e-3
-1.498, 1.890e-3
-1.497, 1.869e-3
-1.496, 1.844e-3
-1.495, 1.819e-3
-1.494, 1.791e-3
-1.493, 1.758e-3
-1.492, 1.727e-3
-1.491, 1.693e-3
-1.490, 1.665e-3
-1.489, 1.634e-3
-1.488, 1.613e-3
-1.487, 1.588e-3
-1.486, 1.566e-3
-1.485, 1.545e-3
-1.484, 1.517e-3
-1.483, 1.489e-3
-1.482, 1.462e-3
-1.481, 1.437e-3
-1.480, 1.412e-3
-1.479, 1.388e-3
-1.478, 1.366e-3
-1.477, 1.347e-3
-1.476, 1.326e-3
-1.475, 1.301e-3
-1.474, 1.286e-3
-1.473, 1.258e-3
-1.472, 1.236e-3
-1.471, 1.218e-3
-1.470, 1.199e-3
-1.469, 1.178e-3
-1.468, 1.153e-3
-1.467, 1.132e-3
-1.466, 1.110e-3
-1.465, 1.085e-3
-1.464, 1.067e-3
-1.463, 1.048e-3
-1.462, 1.036e-3
-1.461, 1.021e-3
-1.460, 9.991e-4
-1.459, 9.775e-4
-1.458, 9.590e-4
-1.457, 9.436e-4
-1.456, 9.220e-4
-1.455, 9.035e-4
-1.454, 8.850e-4
-1.453, 8.696e-4
-1.452, 8.511e-4
-1.451, 8.357e-4
-1.450, 8.203e-4
-1.449, 8.048e-4
-1.448, 7.925e-4
-1.447, 7.740e-4
-1.446, 7.555e-4
-1.445, 7.370e-4
-1.444, 7.247e-4
-1.443, 7.093e-4
-1.442, 6.969e-4
-1.441, 6.846e-4
-1.440, 6.692e-4
-1.439, 6.538e-4
-1.438, 6.384e-4
-1.437, 6.260e-4
-1.436, 6.137e-4
-1.435, 5.983e-4
-1.434, 5.859e-4
-1.433, 5.705e-4
-1.432, 5.582e-4
-1.431, 5.428e-4
-1.430, 5.335e-4
-1.429, 5.212e-4
-1.428, 5.089e-4
-1.427, 4.996e-4
-1.426, 4.904e-4
-1.425, 4.780e-4
-1.424, 4.688e-4
-1.423, 4.565e-4
-1.422, 4.441e-4
-1.421, 4.349e-4
-1.420, 4.256e-4
-1.419, 4.164e-4
-1.418, 4.071e-4
-1.417, 3.948e-4
-1.416, 3.855e-4
-1.415, 3.732e-4
-1.414, 3.609e-4
-1.413, 3.547e-4
-1.412, 3.455e-4
-1.411, 3.393e-4
-1.410, 3.331e-4
-1.409, 3.239e-4
-1.408, 3.177e-4
-1.407, 3.085e-4
-1.406, 2.992e-4
-1.405, 2.900e-4
-1.404, 2.807e-4
-1.403, 2.746e-4
-1.402, 2.684e-4
-1.401, 2.591e-4
-1.400, 2.530e-4
-1.399, 2.437e-4
-1.398, 2.376e-4
-1.397, 2.283e-4
-1.396, 2.252e-4
-1.395, 2.191e-4
-1.394, 2.129e-4
-1.393, 2.067e-4
-1.392, 2.006e-4
-1.391, 1.944e-4
-1.390, 1.882e-4
-1.389, 1.821e-4
-1.388, 1.759e-4
-1.387, 1.697e-4
-1.386, 1.636e-4
-1.385, 1.605e-4
-1.384, 1.543e-4
-1.383, 1.481e-4
-1.382, 1.420e-4
-1.381, 1.358e-4
-1.380, 1.327e-4
-1.379, 1.266e-4
-1.378, 1.235e-4
-1.377, 1.204e-4
-1.376, 1.142e-4
-1.375, 1.111e-4
-1.374, 1.050e-4
-1.373, 1.019e-4
-1.372, 9.573e-5
-1.371, 9.265e-5
-1.370, 8.957e-5
-1.369, 8.648e-5
-1.368, 8.032e-5
-1.367, 7.723e-5
-1.366, 7.415e-5
-1.365, 6.798e-5
-1.364, 6.490e-5
-1.363, 6.182e-5
-1.362, 5.873e-5
-1.361, 5.565e-5
-1.360, 5.257e-5
-1.359, 4.949e-5
-1.358, 4.640e-5
-1.357, 4.332e-5
-1.356, 3.715e-5
-1.355, 3.715e-5
-1.354, 3.099e-5
-1.353, 2.790e-5
-1.352, 2.790e-5
-1.351, 2.482e-5
-1.350, 2.174e-5
-1.349, 1.865e-5
-1.348, 1.249e-5
-1.347, 1.249e-5
-1.346, 9.405e-6
-1.345, 6.322e-6
-1.344, 6.322e-6
-1.343, 3.239e-6
-1.342, 1.559e-7
-1.341, -2.927e-6
-1.340, -6.010e-6
-1.339, -9.093e-6
-1.338, -9.093e-6
-1.337, -1.218e-5
-1.336, -1.218e-5
-1.335, -1.526e-5
-1.334, -1.526e-5
-1.333, -1.834e-5
-1.332, -2.143e-5
-1.331, -2.451e-5
-1.330, -2.451e-5
-1.329, -2.759e-5
-1.328, -2.759e-5
-1.327, -3.068e-5
-1.326, -3.068e-5
-1.325, -3.376e-5
-1.324, -3.684e-5
-1.323, -3.684e-5
-1.322, -3.992e-5
-1.321, -4.301e-5
-1.320, -3.992e-5
-1.319, -4.301e-5
-1.318, -4.301e-5
-1.317, -4.609e-5
-1.316, -4.917e-5
-1.315, -4.917e-5
-1.314, -5.226e-5
-1.313, -5.226e-5
-1.312, -5.534e-5
-1.311, -5.534e-5
-1.310, -5.226e-5
-1.309, -5.534e-5
-1.308, -5.842e-5
-1.307, -5.842e-5
-1.306, -6.151e-5
-1.305, -6.459e-5
-1.304, -6.459e-5
-1.303, -6.459e-5
-1.302, -6.459e-5
-1.301, -6.459e-5
-1.300, -6.767e-5
-1.299, -6.767e-5
-1.298, -7.076e-5
-1.297, -7.076e-5
-1.296, -7.076e-5
-1.295, -7.384e-5
-1.294, -7.384e-5
-1.293, -7.384e-5
-1.292, -7.384e-5
-1.291, -7.692e-5
-1.290, -7.692e-5
-1.289, -8.000e-5
-1.288, -8.000e-5
-1.287, -8.000e-5
-1.286, -8.000e-5
-1.285, -8.000e-5
-1.284, -8.000e-5
-1.283, -8.000e-5
-1.282, -8.309e-5
-1.281, -8.617e-5
-1.280, -8.617e-5
-1.279, -8.617e-5
-1.278, -8.617e-5
-1.277, -8.617e-5
-1.276, -8.617e-5
-1.275, -8.617e-5
-1.274, -8.925e-5
-1.273, -8.925e-5
-1.272, -9.234e-5
-1.271, -9.234e-5
-1.270, -9.234e-5
-1.269, -8.925e-5
-1.268, -9.234e-5
-1.267, -9.234e-5
-1.266, -9.234e-5
-1.265, -9.542e-5
-1.264, -9.542e-5
-1.263, -9.542e-5
-1.262, -9.542e-5
-1.261, -9.542e-5
-1.260, -9.542e-5
-1.259, -9.542e-5
-1.258, -9.542e-5
-1.257, -9.850e-5
-1.256, -9.850e-5
-1.255, -1.016e-4
-1.254, -1.016e-4
-1.253, -9.850e-5
-1.252, -9.850e-5
-1.251, -9.850e-5
-1.250, -1.016e-4
-1.249, -1.016e-4
-1.248, -1.016e-4
-1.247, -1.047e-4
-1.246, -1.047e-4
-1.245, -1.047e-4
-1.244, -1.016e-4
-1.243, -1.047e-4
-1.242, -1.016e-4
-1.241, -1.047e-4
-1.240, -1.047e-4
-1.239, -1.078e-4
-1.238, -1.078e-4
-1.237, -1.047e-4
-1.236, -1.047e-4
-1.235, -1.047e-4
-1.234, -1.047e-4
-1.233, -1.078e-4
-1.232, -1.078e-4
-1.231, -1.078e-4
-1.230, -1.078e-4
-1.229, -1.108e-4
-1.228, -1.078e-4
-1.227, -1.078e-4
-1.226, -1.078e-4
-1.225, -1.078e-4
-1.224, -1.078e-4
-1.223, -1.108e-4
-1.222, -1.108e-4
-1.221, -1.108e-4
-1.220, -1.108e-4
-1.219, -1.108e-4
-1.218, -1.108e-4
-1.217, -1.108e-4
-1.216, -1.108e-4
-1.215, -1.139e-4
-1.214, -1.139e-4
-1.213, -1.139e-4
-1.212, -1.139e-4
-1.211, -1.139e-4
-1.210, -1.108e-4
-1.209, -1.139e-4
-1.208, -1.139e-4
-1.207, -1.139e-4
-1.206, -1.170e-4
-1.205, -1.139e-4
-1.204, -1.139e-4
-1.203, -1.139e-4
-1.202, -1.139e-4
-1.201, -1.139e-4
-1.200, -1.139e-4
-1.199, -1.170e-4
-1.198, -1.170e-4
-1.197, -1.170e-4
-1.196, -1.170e-4
-1.195, -1.170e-4
-1.194, -1.139e-4
-1.193, -1.170e-4
-1.192, -1.170e-4
-1.191, -1.170e-4
-1.190, -1.170e-4
-1.189, -1.170e-4
-1.188, -1.201e-4
-1.187, -1.170e-4
-1.186, -1.139e-4
-1.185, -1.170e-4
-1.184, -1.170e-4
-1.183, -1.170e-4
-1.182, -1.201e-4
-1.181, -1.201e-4
-1.180, -1.201e-4
-1.179, -1.201e-4
-1.178, -1.170e-4
-1.177, -1.170e-4
-1.176, -1.170e-4
-1.175, -1.201e-4
-1.174, -1.201e-4
-1.173, -1.201e-4
-1.172, -1.232e-4
-1.171, -1.201e-4
-1.170, -1.201e-4
-1.169, -1.201e-4
-1.168, -1.201e-4
-1.167, -1.201e-4
-1.166, -1.201e-4
-1.165, -1.201e-4
-1.164, -1.201e-4
-1.163, -1.201e-4
-1.162, -1.201e-4
-1.161, -1.201e-4
-1.160, -1.201e-4
-1.159, -1.201e-4
-1.158, -1.201e-4
-1.157, -1.232e-4
-1.156, -1.232e-4
-1.155, -1.232e-4
-1.154, -1.201e-4
-1.153, -1.232e-4
-1.152, -1.201e-4
-1.151, -1.201e-4
-1.150, -1.201e-4
-1.149, -1.201e-4
-1.148, -1.232e-4
-1.147, -1.232e-4
-1.146, -1.232e-4
-1.145, -1.232e-4
-1.144, -1.201e-4
-1.143, -1.232e-4
-1.142, -1.232e-4
-1.141, -1.232e-4
-1.140, -1.232e-4
-1.139, -1.232e-4
-1.138, -1.263e-4
-1.137, -1.263e-4
-1.136, -1.232e-4
-1.135, -1.232e-4
-1.134, -1.232e-4
-1.133, -1.232e-4
-1.132, -1.232e-4
-1.131, -1.232e-4
-1.130, -1.232e-4
-1.129, -1.232e-4
-1.128, -1.232e-4
-1.127, -1.201e-4
-1.126, -1.232e-4
-1.125, -1.232e-4
-1.124, -1.232e-4
-1.123, -1.232e-4
-1.122, -1.263e-4
-1.121, -1.263e-4
-1.120, -1.232e-4
-1.119, -1.232e-4
-1.118, -1.232e-4
-1.117, -1.232e-4
-1.116, -1.232e-4
-1.115, -1.232e-4
-1.114, -1.263e-4
-1.113, -1.263e-4
-1.112, -1.263e-4
-1.111, -1.232e-4
-1.110, -1.232e-4
-1.109, -1.232e-4
-1.108, -1.232e-4
-1.107, -1.232e-4
-1.106, -1.263e-4
-1.105, -1.263e-4
-1.104, -1.263e-4
-1.103, -1.232e-4
-1.102, -1.232e-4
-1.101, -1.232e-4
-1.100, -1.232e-4
-1.099, -1.263e-4
-1.098, -1.263e-4
-1.097, -1.263e-4
-1.096, -1.263e-4
-1.095, -1.263e-4
-1.094, -1.263e-4
-1.093, -1.232e-4
-1.092, -1.232e-4
-1.091, -1.263e-4
-1.090, -1.263e-4
-1.089, -1.263e-4
-1.088, -1.263e-4
-1.087, -1.263e-4
-1.086, -1.263e-4
-1.085, -1.263e-4
-1.084, -1.263e-4
-1.083, -1.263e-4
-1.082, -1.263e-4
-1.081, -1.293e-4
-1.080, -1.263e-4
-1.079, -1.263e-4
-1.078, -1.263e-4
-1.077, -1.263e-4
-1.076, -1.263e-4
-1.075, -1.263e-4
-1.074, -1.293e-4
-1.073, -1.293e-4
-1.072, -1.293e-4
-1.071, -1.293e-4
-1.070, -1.293e-4
-1.069, -1.263e-4
-1.068, -1.263e-4
-1.067, -1.263e-4
-1.066, -1.263e-4
-1.065, -1.293e-4
-1.064, -1.293e-4
-1.063, -1.293e-4
-1.062, -1.293e-4
-1.061, -1.263e-4
-1.060, -1.293e-4
-1.059, -1.293e-4
-1.058, -1.293e-4
-1.057, -1.293e-4
-1.056, -1.293e-4
-1.055, -1.324e-4
-1.054, -1.293e-4
-1.053, -1.293e-4
-1.052, -1.293e-4
-1.051, -1.293e-4
-1.050, -1.293e-4
-1.049, -1.324e-4
-1.048, -1.324e-4
-1.047, -1.324e-4
-1.046, -1.324e-4
-1.045, -1.324e-4
-1.044, -1.324e-4
-1.043, -1.324e-4
-1.042, -1.324e-4
-1.041, -1.324e-4
-1.040, -1.324e-4
-1.039, -1.355e-4
-1.038, -1.355e-4
-1.037, -1.355e-4
-1.036, -1.355e-4
-1.035, -1.355e-4
-1.034, -1.324e-4
-1.033, -1.355e-4
-1.032, -1.355e-4
-1.031, -1.355e-4
-1.030, -1.355e-4
-1.029, -1.355e-4
-1.028, -1.355e-4
-1.027, -1.355e-4
-1.026, -1.355e-4
-1.025, -1.386e-4
-1.024, -1.386e-4
-1.023, -1.417e-4
-1.022, -1.417e-4
-1.021, -1.417e-4
-1.020, -1.386e-4
-1.019, -1.386e-4
-1.018, -1.386e-4
-1.017, -1.386e-4
-1.016, -1.417e-4
-1.015, -1.417e-4
-1.014, -1.448e-4
-1.013, -1.448e-4
-1.012, -1.448e-4
-1.011, -1.448e-4
-1.010, -1.448e-4
-1.009, -1.448e-4
-1.008, -1.448e-4
-1.007, -1.478e-4
-1.006, -1.478e-4
-1.005, -1.478e-4
-1.004, -1.509e-4
-1.003, -1.478e-4
-1.002, -1.478e-4
-1.001, -1.509e-4
