Potential V vs RHE, Current mA cm-2
0.013299999999999867,-0.2202705493889862
0.012299999999999978,-1.0925815368857679
0.011299999999999866,-1.7033124050375041
0.010299999999999976,-2.226755585987568
0.009299999999999864,-2.618630616050183
0.008299999999999974,-2.8803522065252145
0.007299999999999862,-3.0996324580042955
0.006299999999999972,-3.317497998183511
0.00529999999999986,-3.4915074880669104
0.0042999999999999705,-3.6655169779503103
0.0032999999999998586,-3.7970851288377587
0.0022999999999999687,-3.884797229429391
0.0012999999999998568,-3.927238568425342
0.00029999999999996696,-4.014950669016974
-0.000700000000000145,-4.0588067193127895
-0.0017000000000000348,-4.146518819904423
-0.0027000000000001467,-4.23281620919619
-0.0037000000000000366,-4.276672259492005
-0.0047000000000001485,-4.3205283097878215
-0.005700000000000038,-4.276672259492005
-0.00670000000000015,-4.3205283097878215
-0.00770000000000004,-4.364384360083638
-0.008700000000000152,-4.406825699079589
-0.009700000000000042,-4.406825699079589
-0.010700000000000154,-4.494537799671222
-0.011700000000000044,-4.494537799671222
-0.012700000000000156,-4.450681749375406
-0.013700000000000045,-4.450681749375406
-0.014700000000000157,-4.494537799671222
-0.015700000000000047,-4.538393849967037
-0.01670000000000016,-4.582249900262854
-0.01770000000000005,-4.538393849967037
-0.01870000000000016,-4.538393849967037
-0.01970000000000005,-4.538393849967037
-0.020700000000000163,-4.538393849967037
-0.021700000000000053,-4.582249900262854
-0.022700000000000164,-4.582249900262854
-0.023700000000000054,-4.626105950558669
-0.024700000000000166,-4.582249900262854
-0.025700000000000056,-4.582249900262854
-0.026700000000000168,-4.538393849967037
-0.027700000000000058,-4.582249900262854
-0.02870000000000017,-4.582249900262854
-0.02970000000000006,-4.626105950558669
-0.03070000000000017,-4.626105950558669
-0.03170000000000006,-4.582249900262854
-0.03270000000000017,-4.582249900262854
-0.03370000000000006,-4.538393849967037
-0.034700000000000175,-4.582249900262854
-0.035700000000000065,-4.626105950558669
-0.03670000000000018,-4.626105950558669
-0.03770000000000007,-4.582249900262854
-0.03870000000000018,-4.582249900262854
-0.03970000000000007,-4.538393849967037
-0.04070000000000018,-4.538393849967037
-0.04170000000000007,-4.582249900262854
-0.04270000000000018,-4.582249900262854
-0.04370000000000007,-4.626105950558669
-0.044700000000000184,-4.582249900262854
-0.045700000000000074,-4.538393849967037
-0.046700000000000186,-4.538393849967037
-0.047700000000000076,-4.582249900262854
-0.04870000000000019,-4.538393849967037
-0.04970000000000008,-4.582249900262854
-0.05070000000000019,-4.582249900262854
-0.05170000000000008,-4.582249900262854
-0.05270000000000019,-4.538393849967037
-0.05370000000000008,-4.494537799671222
-0.05470000000000019,-4.538393849967037
-0.05570000000000008,-4.538393849967037
-0.056700000000000195,-4.538393849967037
-0.057700000000000085,-4.494537799671222
-0.058700000000000196,-4.494537799671222
-0.059700000000000086,-4.494537799671222
-0.0607000000000002,-4.494537799671222
-0.06170000000000009,-4.494537799671222
-0.0627000000000002,-4.538393849967037
-0.06370000000000009,-4.538393849967037
-0.0647000000000002,-4.538393849967037
-0.06570000000000009,-4.494537799671222
-0.0667000000000002,-4.450681749375406
-0.0677000000000001,-4.494537799671222
-0.0687000000000002,-4.494537799671222
-0.0697000000000001,-4.494537799671222
-0.07070000000000021,-4.494537799671222
-0.0717000000000001,-4.494537799671222
-0.07270000000000021,-4.450681749375406
-0.0737000000000001,-4.450681749375406
-0.07470000000000021,-4.450681749375406
-0.0757000000000001,-4.494537799671222
-0.07670000000000021,-4.494537799671222
-0.0777000000000001,-4.450681749375406
-0.07870000000000021,-4.450681749375406
-0.0797000000000001,-4.406825699079589
-0.08070000000000022,-4.406825699079589
-0.0817000000000001,-4.406825699079589
-0.08270000000000022,-4.450681749375406
-0.08370000000000011,-4.494537799671222
-0.08470000000000022,-4.450681749375406
-0.08570000000000011,-4.406825699079589
-0.08670000000000022,-4.406825699079589
-0.08770000000000011,-4.406825699079589
-0.08870000000000022,-4.450681749375406
-0.08970000000000011,-4.450681749375406
-0.09070000000000022,-4.450681749375406
-0.09170000000000011,-4.406825699079589
-0.09270000000000023,-4.406825699079589
-0.09370000000000012,-4.364384360083638
-0.09470000000000023,-4.406825699079589
-0.09570000000000012,-4.406825699079589
-0.09670000000000023,-4.450681749375406
-0.09770000000000012,-4.406825699079589
-0.09870000000000023,-4.406825699079589
-0.09970000000000012,-4.406825699079589
-0.10070000000000023,-4.364384360083638
-0.10170000000000012,-4.364384360083638
-0.10270000000000024,-4.406825699079589
-0.10370000000000013,-4.450681749375406
-0.10470000000000024,-4.406825699079589
-0.10570000000000013,-4.364384360083638
-0.10670000000000024,-4.364384360083638
-0.10770000000000013,-4.364384360083638
-0.10870000000000024,-4.406825699079589
-0.10970000000000013,-4.406825699079589
-0.11070000000000024,-4.406825699079589
-0.11170000000000013,-4.364384360083638
-0.11270000000000002,-4.364384360083638
-0.11370000000000013,-4.364384360083638
-0.11470000000000002,-4.364384360083638
-0.11570000000000014,-4.406825699079589
-0.11670000000000003,-4.406825699079589
-0.11770000000000014,-4.406825699079589
-0.11870000000000003,-4.406825699079589
-0.11970000000000014,-4.364384360083638
-0.12070000000000003,-4.364384360083638
-0.12170000000000014,-4.364384360083638
-0.12270000000000003,-4.406825699079589
-0.12370000000000014,-4.406825699079589
-0.12470000000000003,-4.406825699079589
-0.12570000000000014,-4.364384360083638
-0.12670000000000003,-4.364384360083638
-0.12770000000000015,-4.364384360083638
-0.12870000000000004,-4.406825699079589
-0.12970000000000015,-4.406825699079589
-0.13070000000000004,-4.406825699079589
-0.13170000000000015,-4.364384360083638
-0.13270000000000004,-4.364384360083638
-0.13370000000000015,-4.364384360083638
-0.13470000000000004,-4.364384360083638
-0.13570000000000015,-4.406825699079589
-0.13670000000000004,-4.406825699079589
-0.13770000000000016,-4.406825699079589
-0.13870000000000005,-4.406825699079589
-0.13970000000000016,-4.364384360083638
-0.14070000000000005,-4.364384360083638
-0.14170000000000016,-4.406825699079589
-0.14270000000000005,-4.406825699079589
-0.14370000000000016,-4.450681749375406
-0.14470000000000005,-4.450681749375406
-0.14570000000000016,-4.406825699079589
-0.14670000000000005,-4.406825699079589
-0.14770000000000016,-4.406825699079589
-0.14870000000000005,-4.406825699079589
-0.14970000000000017,-4.450681749375406
-0.15070000000000006,-4.450681749375406
-0.15170000000000017,-4.406825699079589
-0.15270000000000006,-4.406825699079589
-0.15370000000000017,-4.406825699079589
-0.15470000000000006,-4.406825699079589
-0.15570000000000017,-4.450681749375406
-0.15670000000000006,-4.450681749375406
-0.15770000000000017,-4.450681749375406
-0.15870000000000006,-4.450681749375406
-0.15970000000000018,-4.406825699079589
-0.16070000000000007,-4.406825699079589
-0.16170000000000018,-4.450681749375406
-0.16270000000000007,-4.494537799671222
-0.16370000000000018,-4.494537799671222
-0.16470000000000007,-4.494537799671222
-0.16570000000000018,-4.450681749375406
-0.16670000000000007,-4.450681749375406
-0.16770000000000018,-4.450681749375406
-0.16870000000000007,-4.494537799671222
-0.16970000000000018,-4.494537799671222
-0.17070000000000007,-4.494537799671222
-0.17170000000000019,-4.494537799671222
-0.17270000000000008,-4.450681749375406
-0.1737000000000002,-4.450681749375406
-0.17470000000000008,-4.494537799671222
-0.1757000000000002,-4.494537799671222
-0.17670000000000008,-4.538393849967037
-0.1777000000000002,-4.538393849967037
-0.17870000000000008,-4.494537799671222
-0.1797000000000002,-4.494537799671222
-0.18070000000000008,-4.494537799671222
-0.1817000000000002,-4.538393849967037
-0.18270000000000008,-4.582249900262854
-0.1837000000000002,-4.582249900262854
-0.1847000000000001,-4.582249900262854
-0.1857000000000002,-4.538393849967037
-0.1867000000000001,-4.538393849967037
-0.1877000000000002,-4.538393849967037
-0.1887000000000001,-4.582249900262854
-0.1897000000000002,-4.582249900262854
-0.1907000000000001,-4.626105950558669
-0.1917000000000001,-4.582249900262854
-0.19269999999999998,-4.582249900262854
-0.1937000000000001,-4.582249900262854
-0.19469999999999998,-4.626105950558669
-0.1957000000000001,-4.626105950558669
-0.19669999999999999,-4.668547289554621
-0.1977000000000001,-4.668547289554621
-0.1987,-4.668547289554621
-0.1997000000000001,-4.668547289554621
-0.2007,-4.668547289554621
-0.2017000000000001,-4.668547289554621
-0.2027,-4.712403339850438
-0.2037000000000001,-4.712403339850438
-0.2047,-4.756259390146253
-0.2057000000000001,-4.712403339850438
-0.2067,-4.712403339850438
-0.2077000000000001,-4.712403339850438
-0.2087,-4.756259390146253
-0.2097000000000001,-4.800115440442069
-0.2107,-4.843971490737885
-0.2117000000000001,-4.843971490737885
-0.2127,-4.800115440442069
-0.2137000000000001,-4.800115440442069
-0.2147,-4.800115440442069
-0.2157000000000001,-4.887827541033701
-0.2167,-4.9302688800296535
-0.21770000000000012,-4.9302688800296535
-0.2187,-4.9302688800296535
-0.21970000000000012,-4.9302688800296535
-0.2207,-4.9302688800296535
-0.22170000000000012,-4.974124930325469
-0.2227,-5.017980980621284
-0.22370000000000012,-5.017980980621284
-0.2247,-5.017980980621284
-0.22570000000000012,-5.017980980621284
-0.2267,-5.017980980621284
-0.22770000000000012,-5.0618370309171015
-0.22870000000000001,-5.105693081212917
-0.22970000000000013,-5.149549131508733
-0.23070000000000002,-5.149549131508733
-0.23170000000000013,-5.149549131508733
-0.23270000000000002,-5.149549131508733
-0.23370000000000013,-5.191990470504685
-0.23470000000000002,-5.191990470504685
-0.23570000000000013,-5.279702571096316
-0.23670000000000002,-5.323558621392133
-0.2376999999999999,-5.323558621392133
-0.23870000000000002,-5.367414671687949
-0.2396999999999999,-5.323558621392133
-0.24070000000000003,-5.367414671687949
-0.24169999999999991,-5.411270721983764
-0.24270000000000003,-5.453712060979717
-0.24369999999999992,-5.5414241615713475
-0.24470000000000003,-5.5414241615713475
-0.24569999999999992,-5.5414241615713475
-0.24670000000000003,-5.5414241615713475
-0.24769999999999992,-5.585280211867165
-0.24870000000000003,-5.672992312458796
-0.24969999999999992,-5.715433651454749
-0.25070000000000003,-5.759289701750564
-0.2516999999999999,-5.759289701750564
-0.25270000000000004,-5.759289701750564
-0.2536999999999999,-5.80314575204638
-0.25470000000000004,-5.847001802342197
-0.2556999999999999,-5.9347139029338285
-0.25670000000000004,-6.021011292225596
-0.25769999999999993,-6.021011292225596
-0.25870000000000004,-6.064867342521412
-0.25969999999999993,-6.108723392817228
-0.26070000000000004,-6.108723392817228
-0.26169999999999993,-6.196435493408861
-0.26270000000000004,-6.282732882700628
-0.26369999999999993,-6.326588932996443
-0.26470000000000005,-6.37044498329226
-0.26569999999999994,-6.37044498329226
-0.26670000000000005,-6.458157083883892
-0.26769999999999994,-6.500598422879844
-0.26870000000000005,-6.588310523471475
-0.26969999999999994,-6.632166573767292
-0.27070000000000005,-6.719878674358924
-0.27169999999999994,-6.762320013354876
-0.27270000000000005,-6.806176063650692
-0.27369999999999994,-6.850032113946507
-0.27470000000000006,-6.93774421453814
-0.27569999999999995,-7.024041603829907
-0.27670000000000006,-7.111753704421539
-0.27769999999999995,-7.199465805013171
-0.27870000000000006,-7.243321855308987
-0.27969999999999995,-7.28576319430494
-0.28070000000000006,-7.37347529489657
-0.28169999999999995,-7.4173313451923875
-0.28270000000000006,-7.5474847847799715
-0.28369999999999995,-7.635196885371603
-0.28470000000000006,-7.722908985963235
-0.28569999999999995,-7.7653503249591855
-0.28670000000000007,-7.853062425550818
-0.28769999999999996,-7.896918475846635
-0.28870000000000007,-8.027071915434218
-0.28969999999999996,-8.158640066321666
-0.29070000000000007,-8.288793505909249
-0.29169999999999996,-8.332649556205066
-0.29270000000000007,-8.4203616567967
-0.29369999999999996,-8.464217707092514
-0.2947000000000001,-8.638227196975913
-0.29569999999999996,-8.725939297567548
-0.2967000000000001,-8.85609273715513
-0.29769999999999996,-8.943804837746763
-0.2987000000000001,-9.073958277334345
-0.29969999999999997,-9.161670377925978
-0.3007000000000001,-9.24938247851761
-0.30169999999999997,-9.379535918105192
-0.3027000000000001,-9.55496011928846
-0.30369999999999997,-9.685113558876042
-0.3047000000000001,-9.772825659467674
-0.30569999999999997,-9.85912304875944
-0.3067000000000001,-9.99069119964689
-0.3077,-10.120844639234473
-0.3087000000000001,-10.25241279012192
-0.3097,-10.42642228000532
-0.3107000000000001,-10.557990430892769
-0.3117,-10.688143870480351
-0.3127000000000001,-10.819712021367803
-0.3137,-10.949865460955383
-0.3147000000000001,-11.081433611842833
-0.3157,-11.299299152022046
-0.3167000000000001,-11.473308641905447
-0.3177,-11.604876792792895
-0.3187000000000001,-11.73503023238048
-0.3197,-11.909039722263879
-0.3207000000000001,-12.040607873151327
-0.3217,-12.214617363034726
-0.3227000000000001,-12.432482903213943
-0.3237,-12.607907104397206
-0.3247000000000001,-12.73806054398479
-0.3257,-12.913484745168056
-0.3267000000000001,-13.087494235051453
-0.3277,-13.261503724934855
-0.3287000000000001,-13.47936926511407
-0.3297,-13.698649516593148
-0.3307000000000001,-13.872659006476551
-0.3317,-14.046668496359947
-0.3327000000000001,-14.175407224647667
-0.3337,-14.401761032626075
-0.3347000000000001,-14.61396772760583
-0.3357,-14.868615761581536
-0.3367000000000001,-15.094969569559943
-0.3377,-15.264734925543747
-0.3387000000000001,-15.491088733522153
-0.3397,-15.660854089505953
-0.3407000000000001,-15.87306078448571
-0.3417,-16.141855931460068
-0.3427000000000001,-16.354062626439823
-0.3437,-16.622857773414182
-0.3447000000000001,-16.835064468393938
-0.3457,-17.018976937376394
-0.3467000000000001,-17.231183632356142
-0.3477,-17.48583166633185
-0.3487000000000001,-17.71218547431026
-0.3497,-18.009274847281915
-0.3507000000000001,-18.27806999425627
-0.3517,-18.49027668923603
-0.3527000000000001,-18.716630497214435
-0.3537,-18.97127853119014
-0.3547000000000001,-19.2400736781645
-0.3557,-19.579604390132108
-0.35670000000000013,-19.848399537106463
-0.3577,-20.10304757108217
-0.35870000000000013,-20.371842718056527
-0.3597,-20.584049413036283
-0.36070000000000013,-20.89528589900659
-0.3617,-21.2065223849769
-0.3626999999999999,-21.503611757948562
-0.3637,-21.814848243918867
-0.3646999999999999,-22.069496277894572
-0.3657,-22.33829142486893
-0.3666999999999999,-22.63538079784059
-0.3677,-22.946617283810895
-0.3686999999999999,-23.24370665678255
-0.36970000000000003,-23.597384481748815
-0.3706999999999999,-23.951062306715073
-0.37170000000000003,-24.20571034069078
-0.3726999999999999,-24.516946826661083
-0.37370000000000003,-24.814036199632742
-0.3746999999999999,-25.167714024599
-0.37570000000000003,-25.521391849565262
-0.3766999999999999,-25.86092256153287
-0.37770000000000004,-26.17215904750318
-0.3786999999999999,-26.525836872469437
-0.37970000000000004,-26.822926245441096
-0.3806999999999999,-27.134162731411404
-0.38170000000000004,-27.530281895373616
-0.38269999999999993,-27.912253946337174
-0.38370000000000004,-28.265931771303435
-0.38469999999999993,-28.619609596269694
-0.38570000000000004,-28.91669896924135
-0.38669999999999993,-29.27037679420761
-0.38770000000000004,-29.62405461917387
-0.38869999999999993,-30.04846800913338
-0.38970000000000005,-30.444587173095588
-0.39069999999999994,-30.8407063370578
-0.39170000000000005,-31.137795710029454
-0.39269999999999994,-31.533914873991666
-0.39370000000000005,-31.887592698957924
-0.39469999999999994,-32.283711862920136
-0.39570000000000005,-32.70812525287965
-0.39669999999999994,-33.10424441684186
-0.39770000000000005,-33.50036358080407
-0.39869999999999994,-33.89648274476628
-0.39970000000000006,-34.236013456733886
-0.40069999999999995,-34.632132620696105
-0.40170000000000006,-35.07069312365426
-0.40269999999999995,-35.50925362661242
-0.40370000000000006,-35.94781412957058
-0.40469999999999995,-36.329786180534136
-0.40570000000000006,-36.725905344496354
-0.40669999999999995,-37.122024508458566
-0.40770000000000006,-37.56058501141672
-0.40869999999999995,-37.99914551437489
-0.40970000000000006,-38.46600024333035
-0.41069999999999995,-38.90456074628851
-0.41170000000000007,-39.30067991025072
-0.41269999999999996,-39.739240413208876
-0.41370000000000007,-40.135359577171094
-0.41469999999999996,-40.559772967130606
-0.41570000000000007,-41.083216148080666
-0.41669999999999996,-41.52177665103883
-0.41770000000000007,-41.96033715399699
-0.41869999999999996,-42.4413389959511
-0.4197000000000001,-42.87989949890926
-0.42069999999999996,-43.31846000186743
-0.4217000000000001,-43.79946184382153
-0.42269999999999996,-44.28046368577565
-0.4237000000000001,-44.74731841473111
-0.42469999999999997,-45.22832025668522
-0.4257000000000001,-45.666880759643384
-0.42669999999999997,-46.147882601597495
-0.4277000000000001,-46.628884443551605
-0.42869999999999997,-47.10988628550572
-0.4297000000000001,-47.633329466455784
-0.43069999999999997,-48.114331308409895
-0.4317000000000001,-48.59533315036401
-0.4327,-49.03389365332217
-0.4337000000000001,-49.557336834272235
-0.4347,-50.024191563227696
-0.4357000000000001,-50.60422319617236
-0.4367,-51.071077925127824
-0.4377000000000001,-51.594521106077885
-0.4387,-52.075522948032
-0.4397000000000001,-52.55652478998611
-0.4407,-53.03752663194023
-0.4417000000000001,-53.56096981289029
-0.4427,-54.1268543328363
-0.4437000000000001,-54.65029751378637
-0.4447,-55.17374069473642
-0.4457000000000001,-55.65474253669055
-0.4467,-56.1781857176406
-0.4477000000000001,-56.70162889859067
-0.4487,-57.26751341853669
-0.4497000000000001,-57.8333979384827
-0.4507,-58.35684111943277
-0.4517000000000001,-58.92272563937878
-0.4527,-59.403727481332886
-0.4537000000000001,-59.92717066228296
-0.4547,-60.49305518222897
-0.4557000000000001,-61.11552815416958
-0.4567,-61.63897133511965
-0.4577000000000001,-62.16241451606972
-0.4587,-62.72829903601572
-0.4597000000000001,-63.251742216965795
-0.4607,-63.77518539791585
-0.4617000000000001,-64.34106991786187
-0.4627,-64.94939577680383
-0.4637000000000001,-65.5577216357458
-0.4647,-66.08116481669586
-0.4657000000000001,-66.64704933664189
-0.4667,-67.21293385658788
-0.4677000000000001,-67.7788183765339
-0.4687,-68.38714423547587
-0.4697000000000001,-69.0096172074165
-0.4707,-69.57550172736251
-0.4717000000000001,-70.14138624730852
-0.4727,-70.70727076725453
-0.4737000000000001,-71.2307139482046
-0.4747,-71.8814811461425
-0.4757000000000001,-72.53224834408043
-0.4767,-73.09813286402644
-0.4777000000000001,-73.72060583596706
-0.4787,-74.28649035591307
-0.4797000000000001,-74.8523748758591
-0.4807,-75.46070073480107
-0.48170000000000013,-76.02658525474708
-0.4827,-76.67735245268499
-0.48370000000000013,-77.28567831162695
-0.4847,-77.90815128356756
-0.48570000000000013,-78.51647714250953
-0.4867,-78.43159446451764
-0.48570000000000013,-77.243236972631
-0.4847,-76.33782174071737
-0.48370000000000013,-75.5880247517889
-0.4827,-74.80993353686314
-0.48170000000000013,-74.06013654793468
-0.4807,-73.32448667200485
-0.4797000000000001,-72.57468968307639
-0.4787,-71.8814811461425
-0.4777000000000001,-71.2307139482046
-0.4767,-70.57994675026669
-0.4757000000000001,-69.87259110033416
-0.4747,-69.22182390239624
-0.4737000000000001,-68.52861536546239
-0.4727,-67.82125971552985
-0.4717000000000001,-67.128051178596
-0.4707,-66.51972531965401
-0.4697000000000001,-65.91139946071206
-0.4687,-65.20404381077954
-0.4677000000000001,-64.51083527384567
-0.4667,-63.902509414903705
-0.4657000000000001,-63.251742216965795
-0.4647,-62.58682790602922
-0.4637000000000001,-62.02094338608321
-0.4627,-61.412617527141244
-0.4617000000000001,-60.761850329203334
-0.4607,-60.11108313126541
