Potential V vs RHE, Current mA cm-2
0.013299999999999867,-0.2202705493889862
0.012299999999999978,-0.9617207416482519
0.011299999999999866,-1.5717442541500557
0.010299999999999976,-1.9650339955125358
0.009299999999999864,-2.226755585987568
0.008299999999999974,-2.4446211261667834
0.007299999999999862,-2.618630616050183
0.006299999999999972,-2.794054817233447
0.00529999999999986,-2.924208256821031
0.0042999999999999705,-2.968064307116847
0.0032999999999998586,-3.0119203574126634
0.0022999999999999687,-3.0996324580042955
0.0012999999999998568,-3.1859298472960624
0.00029999999999996696,-3.2297858975918787
-0.000700000000000145,-3.273641947887695
-0.0017000000000000348,-3.2297858975918787
-0.0027000000000001467,-3.273641947887695
-0.0037000000000000366,-3.361354048479327
-0.0047000000000001485,-3.403795387475278
-0.005700000000000038,-3.403795387475278
-0.00670000000000015,-3.403795387475278
-0.00770000000000004,-3.403795387475278
-0.008700000000000152,-3.447651437771094
-0.009700000000000042,-3.4915074880669104
-0.010700000000000154,-3.4915074880669104
-0.011700000000000044,-3.4915074880669104
-0.012700000000000156,-3.4915074880669104
-0.013700000000000045,-3.5353635383627267
-0.014700000000000157,-3.579219588658543
-0.015700000000000047,-3.5353635383627267
-0.01670000000000016,-3.5353635383627267
-0.01770000000000005,-3.5353635383627267
-0.01870000000000016,-3.579219588658543
-0.01970000000000005,-3.579219588658543
-0.020700000000000163,-3.579219588658543
-0.021700000000000053,-3.5353635383627267
-0.022700000000000164,-3.5353635383627267
-0.023700000000000054,-3.579219588658543
-0.024700000000000166,-3.623075638954359
-0.025700000000000056,-3.579219588658543
-0.026700000000000168,-3.579219588658543
-0.027700000000000058,-3.5353635383627267
-0.02870000000000017,-3.579219588658543
-0.02970000000000006,-3.623075638954359
-0.03070000000000017,-3.579219588658543
-0.03170000000000006,-3.5353635383627267
-0.03270000000000017,-3.5353635383627267
-0.03370000000000006,-3.579219588658543
-0.034700000000000175,-3.579219588658543
-0.035700000000000065,-3.579219588658543
-0.03670000000000018,-3.5353635383627267
-0.03770000000000007,-3.5353635383627267
-0.03870000000000018,-3.579219588658543
-0.03970000000000007,-3.623075638954359
-0.04070000000000018,-3.579219588658543
-0.04170000000000007,-3.4915074880669104
-0.04270000000000018,-3.5353635383627267
-0.04370000000000007,-3.5353635383627267
-0.044700000000000184,-3.579219588658543
-0.045700000000000074,-3.5353635383627267
-0.046700000000000186,-3.4915074880669104
-0.047700000000000076,-3.4915074880669104
-0.04870000000000019,-3.5353635383627267
-0.04970000000000008,-3.579219588658543
-0.05070000000000019,-3.5353635383627267
-0.05170000000000008,-3.4915074880669104
-0.05270000000000019,-3.4915074880669104
-0.05370000000000008,-3.5353635383627267
-0.05470000000000019,-3.5353635383627267
-0.05570000000000008,-3.4915074880669104
-0.056700000000000195,-3.4915074880669104
-0.057700000000000085,-3.4915074880669104
-0.058700000000000196,-3.4915074880669104
-0.059700000000000086,-3.5353635383627267
-0.0607000000000002,-3.4915074880669104
-0.06170000000000009,-3.447651437771094
-0.0627000000000002,-3.4915074880669104
-0.06370000000000009,-3.4915074880669104
-0.0647000000000002,-3.5353635383627267
-0.06570000000000009,-3.4915074880669104
-0.0667000000000002,-3.447651437771094
-0.0677000000000001,-3.447651437771094
-0.0687000000000002,-3.4915074880669104
-0.0697000000000001,-3.4915074880669104
-0.07070000000000021,-3.447651437771094
-0.0717000000000001,-3.403795387475278
-0.07270000000000021,-3.447651437771094
-0.0737000000000001,-3.447651437771094
-0.07470000000000021,-3.4915074880669104
-0.0757000000000001,-3.447651437771094
-0.07670000000000021,-3.403795387475278
-0.0777000000000001,-3.403795387475278
-0.07870000000000021,-3.447651437771094
-0.0797000000000001,-3.447651437771094
-0.08070000000000022,-3.447651437771094
-0.0817000000000001,-3.403795387475278
-0.08270000000000022,-3.403795387475278
-0.08370000000000011,-3.403795387475278
-0.08470000000000022,-3.447651437771094
-0.08570000000000011,-3.403795387475278
-0.08670000000000022,-3.403795387475278
-0.08770000000000011,-3.403795387475278
-0.08870000000000022,-3.403795387475278
-0.08970000000000011,-3.447651437771094
-0.09070000000000022,-3.403795387475278
-0.09170000000000011,-3.403795387475278
-0.09270000000000023,-3.403795387475278
-0.09370000000000012,-3.403795387475278
-0.09470000000000023,-3.447651437771094
-0.09570000000000012,-3.403795387475278
-0.09670000000000023,-3.361354048479327
-0.09770000000000012,-3.403795387475278
-0.09870000000000023,-3.403795387475278
-0.09970000000000012,-3.403795387475278
-0.10070000000000023,-3.403795387475278
-0.10170000000000012,-3.361354048479327
-0.10270000000000024,-3.361354048479327
-0.10370000000000013,-3.403795387475278
-0.10470000000000024,-3.447651437771094
-0.10570000000000013,-3.361354048479327
-0.10670000000000024,-3.361354048479327
-0.10770000000000013,-3.361354048479327
-0.10870000000000024,-3.403795387475278
-0.10970000000000013,-3.403795387475278
-0.11070000000000024,-3.403795387475278
-0.11170000000000013,-3.361354048479327
-0.11270000000000002,-3.361354048479327
-0.11370000000000013,-3.403795387475278
-0.11470000000000002,-3.403795387475278
-0.11570000000000014,-3.361354048479327
-0.11670000000000003,-3.361354048479327
-0.11770000000000014,-3.361354048479327
-0.11870000000000003,-3.403795387475278
-0.11970000000000014,-3.403795387475278
-0.12070000000000003,-3.403795387475278
-0.12170000000000014,-3.361354048479327
-0.12270000000000003,-3.361354048479327
-0.12370000000000014,-3.403795387475278
-0.12470000000000003,-3.403795387475278
-0.12570000000000014,-3.361354048479327
-0.12670000000000003,-3.361354048479327
-0.12770000000000015,-3.361354048479327
-0.12870000000000004,-3.403795387475278
-0.12970000000000015,-3.403795387475278
-0.13070000000000004,-3.361354048479327
-0.13170000000000015,-3.361354048479327
-0.13270000000000004,-3.361354048479327
-0.13370000000000015,-3.403795387475278
-0.13470000000000004,-3.403795387475278
-0.13570000000000015,-3.361354048479327
-0.13670000000000004,-3.361354048479327
-0.13770000000000016,-3.317497998183511
-0.13870000000000005,-3.403795387475278
-0.13970000000000016,-3.403795387475278
-0.14070000000000005,-3.361354048479327
-0.14170000000000016,-3.361354048479327
-0.14270000000000005,-3.361354048479327
-0.14370000000000016,-3.403795387475278
-0.14470000000000005,-3.447651437771094
-0.14570000000000016,-3.403795387475278
-0.14670000000000005,-3.361354048479327
-0.14770000000000016,-3.361354048479327
-0.14870000000000005,-3.403795387475278
-0.14970000000000017,-3.447651437771094
-0.15070000000000006,-3.403795387475278
-0.15170000000000017,-3.361354048479327
-0.15270000000000006,-3.361354048479327
-0.15370000000000017,-3.447651437771094
-0.15470000000000006,-3.447651437771094
-0.15570000000000017,-3.403795387475278
-0.15670000000000006,-3.361354048479327
-0.15770000000000017,-3.403795387475278
-0.15870000000000006,-3.447651437771094
-0.15970000000000018,-3.447651437771094
-0.16070000000000007,-3.403795387475278
-0.16170000000000018,-3.403795387475278
-0.16270000000000007,-3.403795387475278
-0.16370000000000018,-3.447651437771094
-0.16470000000000007,-3.4915074880669104
-0.16570000000000018,-3.447651437771094
-0.16670000000000007,-3.403795387475278
-0.16770000000000018,-3.403795387475278
-0.16870000000000007,-3.447651437771094
-0.16970000000000018,-3.4915074880669104
-0.17070000000000007,-3.447651437771094
-0.17170000000000019,-3.447651437771094
-0.17270000000000008,-3.447651437771094
-0.1737000000000002,-3.447651437771094
-0.17470000000000008,-3.4915074880669104
-0.1757000000000002,-3.4915074880669104
-0.17670000000000008,-3.447651437771094
-0.1777000000000002,-3.447651437771094
-0.17870000000000008,-3.4915074880669104
-0.1797000000000002,-3.5353635383627267
-0.18070000000000008,-3.4915074880669104
-0.1817000000000002,-3.447651437771094
-0.18270000000000008,-3.447651437771094
-0.1837000000000002,-3.4915074880669104
-0.1847000000000001,-3.579219588658543
-0.1857000000000002,-3.5353635383627267
-0.1867000000000001,-3.4915074880669104
-0.1877000000000002,-3.4915074880669104
-0.1887000000000001,-3.579219588658543
-0.1897000000000002,-3.579219588658543
-0.1907000000000001,-3.579219588658543
-0.1917000000000001,-3.4915074880669104
-0.19269999999999998,-3.5353635383627267
-0.1937000000000001,-3.579219588658543
-0.19469999999999998,-3.623075638954359
-0.1957000000000001,-3.579219588658543
-0.19669999999999999,-3.579219588658543
-0.1977000000000001,-3.579219588658543
-0.1987,-3.623075638954359
-0.1997000000000001,-3.623075638954359
-0.2007,-3.623075638954359
-0.2017000000000001,-3.623075638954359
-0.2027,-3.623075638954359
-0.2037000000000001,-3.6655169779503103
-0.2047,-3.7093730282461257
-0.2057000000000001,-3.7093730282461257
-0.2067,-3.6655169779503103
-0.2077000000000001,-3.6655169779503103
-0.2087,-3.7532290785419424
-0.2097000000000001,-3.7532290785419424
-0.2107,-3.7532290785419424
-0.2117000000000001,-3.7093730282461257
-0.2127,-3.7093730282461257
-0.2137000000000001,-3.7970851288377587
-0.2147,-3.840941179133574
-0.2157000000000001,-3.840941179133574
-0.2167,-3.7970851288377587
-0.21770000000000012,-3.840941179133574
-0.2187,-3.840941179133574
-0.21970000000000012,-3.927238568425342
-0.2207,-3.884797229429391
-0.22170000000000012,-3.884797229429391
-0.2227,-3.884797229429391
-0.22370000000000012,-3.927238568425342
-0.2247,-3.971094618721158
-0.22570000000000012,-3.971094618721158
-0.2267,-3.971094618721158
-0.22770000000000012,-3.971094618721158
-0.22870000000000001,-4.0588067193127895
-0.22970000000000013,-4.102662769608606
-0.23070000000000002,-4.102662769608606
-0.23170000000000013,-4.0588067193127895
-0.23270000000000002,-4.102662769608606
-0.23370000000000013,-4.146518819904423
-0.23470000000000002,-4.1889601589003735
-0.23570000000000013,-4.1889601589003735
-0.23670000000000002,-4.1889601589003735
-0.2376999999999999,-4.1889601589003735
-0.23870000000000002,-4.276672259492005
-0.2396999999999999,-4.3205283097878215
-0.24070000000000003,-4.364384360083638
-0.24169999999999991,-4.3205283097878215
-0.24270000000000003,-4.364384360083638
-0.24369999999999992,-4.406825699079589
-0.24470000000000003,-4.450681749375406
-0.24569999999999992,-4.494537799671222
-0.24670000000000003,-4.494537799671222
-0.24769999999999992,-4.494537799671222
-0.24870000000000003,-4.582249900262854
-0.24969999999999992,-4.668547289554621
-0.25070000000000003,-4.668547289554621
-0.2516999999999999,-4.668547289554621
-0.25270000000000004,-4.712403339850438
-0.2536999999999999,-4.800115440442069
-0.25470000000000004,-4.843971490737885
-0.2556999999999999,-4.843971490737885
-0.25670000000000004,-4.887827541033701
-0.25769999999999993,-4.9302688800296535
-0.25870000000000004,-4.974124930325469
-0.25969999999999993,-5.0618370309171015
-0.26070000000000004,-5.105693081212917
-0.26169999999999993,-5.105693081212917
-0.26270000000000004,-5.149549131508733
-0.26369999999999993,-5.235846520800501
-0.26470000000000005,-5.323558621392133
-0.26569999999999994,-5.367414671687949
-0.26670000000000005,-5.367414671687949
-0.26769999999999994,-5.453712060979717
-0.26870000000000005,-5.5414241615713475
-0.26969999999999994,-5.629136262162981
-0.27070000000000005,-5.672992312458796
-0.27169999999999994,-5.672992312458796
-0.27270000000000005,-5.715433651454749
-0.27369999999999994,-5.847001802342197
-0.27470000000000006,-5.9347139029338285
-0.27569999999999995,-5.977155241929781
-0.27670000000000006,-6.021011292225596
-0.27769999999999995,-6.064867342521412
-0.27870000000000006,-6.196435493408861
-0.27969999999999995,-6.282732882700628
-0.28070000000000006,-6.326588932996443
-0.28169999999999995,-6.37044498329226
-0.28270000000000006,-6.458157083883892
-0.28369999999999995,-6.588310523471475
-0.28470000000000006,-6.6760226240631075
-0.28569999999999995,-6.762320013354876
-0.28670000000000007,-6.806176063650692
-0.28769999999999996,-6.893888164242324
-0.28870000000000007,-7.024041603829907
-0.28969999999999996,-7.155609754717355
-0.29070000000000007,-7.199465805013171
-0.29169999999999996,-7.28576319430494
-0.29270000000000007,-7.37347529489657
-0.29369999999999996,-7.50504344578402
-0.2947000000000001,-7.635196885371603
-0.29569999999999996,-7.722908985963235
-0.2967000000000001,-7.809206375255003
-0.29769999999999996,-7.896918475846635
-0.2987000000000001,-8.070927965730034
-0.29969999999999997,-8.202496116617484
-0.3007000000000001,-8.288793505909249
-0.30169999999999997,-8.376505606500881
-0.3027000000000001,-8.508073757388331
-0.30369999999999997,-8.638227196975913
-0.3047000000000001,-8.812236686859313
-0.30569999999999997,-8.899948787450944
-0.3067000000000001,-8.987660888042578
-0.3077,-9.161670377925978
-0.3087000000000001,-9.335679867809377
-0.3097,-9.467248018696827
-0.3107000000000001,-9.59740145828441
-0.3117,-9.685113558876042
-0.3127000000000001,-9.81668170976349
-0.3137,-10.034547249942705
-0.3147000000000001,-10.208556739826104
-0.3157,-10.340124890713554
-0.3167000000000001,-10.42642228000532
-0.3177,-10.601846481188586
-0.3187000000000001,-10.819712021367803
-0.3197,-10.993721511251199
-0.3207000000000001,-11.123874950838783
-0.3217,-11.299299152022046
-0.3227000000000001,-11.42945259160963
-0.3237,-11.691174182084664
-0.3247000000000001,-11.86659838326793
-0.3257,-12.040607873151327
-0.3267000000000001,-12.170761312738911
-0.3277,-12.346185513922174
-0.3287000000000001,-12.607907104397206
-0.3297,-12.825772644576423
-0.3307000000000001,-12.955926084164007
-0.3317,-13.13135028534727
-0.3327000000000001,-13.349215825526485
-0.3337,-13.610937416001518
-0.3347000000000001,-13.828802956180734
-0.3357,-14.002812446064135
-0.3367000000000001,-14.175407224647667
-0.3377,-14.401761032626075
-0.3387000000000001,-14.65640906660178
-0.3397,-14.868615761581536
-0.3407000000000001,-15.094969569559943
-0.3417,-15.264734925543747
-0.3427000000000001,-15.533530072518102
-0.3437,-15.78817810649381
-0.3447000000000001,-16.056973253468165
-0.3457,-16.269179948447924
-0.3467000000000001,-16.495533756426326
-0.3477,-16.750181790402035
-0.3487000000000001,-17.018976937376394
-0.3497,-17.2736249713521
-0.3507000000000001,-17.48583166633185
-0.3517,-17.71218547431026
-0.3527000000000001,-17.966833508285966
-0.3537,-18.320511333252224
-0.3547000000000001,-18.589306480226583
-0.3557,-18.843954514202288
-0.35670000000000013,-19.056161209182044
-0.3577,-19.3249563561564
-0.35870000000000013,-19.678634181122664
-0.3597,-19.97572355409432
-0.36070000000000013,-20.244518701068674
-0.3617,-20.499166735044383
-0.3626999999999999,-20.76796188201874
-0.3637,-21.107492593986347
-0.3646999999999999,-21.461170418952605
-0.3657,-21.729965565926964
-0.3666999999999999,-21.98461359990267
-0.3677,-22.295850085872978
-0.3686999999999999,-22.63538079784059
-0.36970000000000003,-23.031499961802798
-0.3706999999999999,-23.300295108777156
-0.37170000000000003,-23.597384481748815
-0.3726999999999999,-23.908620967719123
-0.37370000000000003,-24.24815167968673
-0.3746999999999999,-24.64427084364894
-0.37570000000000003,-24.95550732961925
-0.3766999999999999,-25.210155363594954
-0.37770000000000004,-25.563833188561212
-0.3786999999999999,-25.959952352523427
-0.37970000000000004,-26.34192440348698
-0.3806999999999999,-26.65316088945729
-0.38170000000000004,-26.9643973754276
-0.38269999999999993,-27.303928087395207
-0.38370000000000004,-27.700047251357418
-0.38469999999999993,-28.09616641531963
-0.38570000000000004,-28.435697127287238
-0.38669999999999993,-28.746933613257543
-0.38770000000000004,-29.14305277721976
-0.38869999999999993,-29.581613280177915
-0.38970000000000005,-29.96358533114148
-0.39069999999999994,-30.317263156107735
-0.39170000000000005,-30.670940981073993
-0.39269999999999994,-31.052913032037555
-0.39370000000000005,-31.449032195999767
-0.39469999999999994,-31.887592698957924
-0.39570000000000005,-32.24127052392419
-0.39669999999999994,-32.62324257488775
-0.39770000000000005,-33.01936173884996
-0.39869999999999994,-33.45792224180811
-0.39970000000000006,-33.89648274476628
-0.40069999999999995,-34.278454795729836
-0.40170000000000006,-34.67457395969205
-0.40269999999999995,-35.07069312365426
-0.40370000000000006,-35.50925362661242
-0.40469999999999995,-35.99025546856653
-0.40570000000000006,-36.37222751953009
-0.40669999999999995,-36.768346683492304
-0.40770000000000006,-37.164465847454515
-0.40869999999999995,-37.645467689408626
-0.40970000000000006,-38.12646953136274
-0.41069999999999995,-38.522588695324956
-0.41170000000000007,-38.94700208528445
-0.41269999999999996,-39.34312124924667
-0.41370000000000007,-39.82412309120078
-0.41469999999999996,-40.30512493315489
-0.41570000000000007,-40.743685436113054
-0.41669999999999996,-41.182245939071215
-0.41770000000000007,-41.606659329030734
-0.41869999999999996,-42.087661170984845
-0.4197000000000001,-42.6111043519349
-0.42069999999999996,-43.04966485489307
-0.4217000000000001,-43.48822535785123
-0.42269999999999996,-43.92678586080939
-0.4237000000000001,-44.4077877027635
-0.42469999999999997,-44.97367222270952
-0.4257000000000001,-45.412232725667685
-0.42669999999999997,-45.89323456762179
-0.4277000000000001,-46.3176479575813
-0.42869999999999997,-46.84109113853137
-0.4297000000000001,-47.36453431948143
-0.43069999999999997,-47.84553616143554
-0.4317000000000001,-48.2840966643937
-0.4327,-48.80753984534376
-0.4337000000000001,-49.33098302629383
-0.4347,-49.85442620724389
-0.4357000000000001,-50.335428049198
-0.4367,-50.81642989115212
-0.4377000000000001,-51.29743173310623
-0.4387,-51.86331625305225
-0.4397000000000001,-52.386759434002315
-0.4407,-52.86776127595642
-0.4417000000000001,-53.39120445690648
-0.4427,-53.872206298860604
-0.4437000000000001,-54.43809081880661
-0.4447,-55.003975338752625
-0.4457000000000001,-55.527418519702685
-0.4467,-56.008420361656796
-0.4477000000000001,-56.53186354260687
-0.4487,-57.097748062552874
-0.4497000000000001,-57.66363258249889
-0.4507,-58.18707576344896
-0.4517000000000001,-58.71051894439902
-0.4527,-59.23396212534908
-0.4537000000000001,-59.7998466452951
-0.4547,-60.36573116524111
-0.4557000000000001,-60.93161568518713
-0.4567,-61.455058866137186
-0.4577000000000001,-61.97850204708726
-0.4587,-62.544386567033264
-0.4597000000000001,-63.15271242597524
-0.4607,-63.732744058919906
-0.4617000000000001,-64.25618723986996
-0.4627,-64.77963042082003
-0.4637000000000001,-65.34551494076604
-0.4647,-65.99628213870396
-0.4657000000000001,-66.51972531965401
-0.4667,-67.08560983960004
-0.4677000000000001,-67.65149435954605
-0.4687,-68.25982021848802
-0.4697000000000001,-68.86814607742998
-0.4707,-69.4906190493706
-0.4717000000000001,-70.05650356931662
-0.4727,-70.57994675026669
-0.4737000000000001,-71.18827260920865
-0.4747,-71.83903980714656
-0.4757000000000001,-72.40492432709259
-0.4767,-72.97080884703858
-0.4777000000000001,-73.57913470598055
-0.4787,-74.20160767792116
-0.4797000000000001,-74.80993353686314
-0.4807,-75.4182593958051
-0.48170000000000013,-75.98414391575112
-0.4827,-76.5924697746931
-0.48370000000000013,-77.20079563363505
-0.4847,-77.86570994457162
-0.48570000000000013,-78.47403580351359
-0.4867,-78.38915312552167
-0.48570000000000013,-77.28567831162695
-0.4847,-76.42270441870929
-0.48370000000000013,-75.6729074297808
-0.4827,-74.93725755385098
-0.48170000000000013,-74.20160767792116
-0.4807,-73.45181068899271
-0.4797000000000001,-72.80104349105478
-0.4787,-72.15027629311687
-0.4777000000000001,-71.4004793041884
-0.4767,-70.70727076725453
-0.4757000000000001,-70.05650356931662
-0.4747,-69.39158925838004
-0.4737000000000001,-68.74082206044213
-0.4727,-68.04761352350828
-0.4717000000000001,-67.34025787357575
-0.4707,-66.64704933664189
-0.4697000000000001,-66.03872347769992
-0.4687,-65.43039761875795
-0.4677000000000001,-64.72304196882543
-0.4667,-64.0722747708875
-0.4657000000000001,-63.421507572949594
-0.4647,-62.81318171400764
-0.4637000000000001,-62.20485585506566
-0.4627,-61.53994154412909
