Potential V vs RHE, Current mA cm-2
0.4132999999999999,-0.0013186524026042009
0.4122999999999999,-0.00308124121110605
0.4112999999999999,-0.0035551694965608367
0.4102999999999999,-0.003797085128837758
0.4092999999999999,-0.0040234389368161635
0.4082999999999999,-0.004193204292799968
0.4072999999999999,-0.004330431288886877
0.4062999999999999,-0.004453511171975136
0.4052999999999999,-0.004568102787264204
0.4042999999999999,-0.004689767959052597
0.4032999999999999,-0.0047987007291422044
0.4022999999999999,-0.0048934863862331625
0.4012999999999999,-0.004999589733723039
0.4002999999999999,-0.0050646664535168315
0.3992999999999999,-0.00520472287220347
0.3982999999999999,-0.005310826219693348
0.3972999999999999,-0.005333461600491188
0.3962999999999999,-0.005442394370580797
0.3952999999999999,-0.005520203492073373
0.3942999999999999,-0.005613574437864466
0.39329999999999987,-0.005699871827156233
0.39229999999999987,-0.005753630856551104
0.39129999999999987,-0.005851245936241792
0.39029999999999987,-0.005893687275237743
0.38929999999999987,-0.005967252262830724
0.38829999999999987,-0.006052134940822627
0.38729999999999987,-0.006097405702418308
0.38629999999999987,-0.00617097069001129
0.38529999999999986,-0.006257268079303057
0.38429999999999986,-0.006315271242597524
0.38329999999999986,-0.006412886322288211
0.38229999999999986,-0.006446839393484972
0.38129999999999986,-0.006510501401978899
0.38029999999999986,-0.0065727486991729615
0.37929999999999986,-0.006639240130266616
0.37829999999999986,-0.006715634540459329
0.37729999999999986,-0.0067651494359546056
0.37629999999999986,-0.006814664331449882
0.37529999999999986,-0.0068712527834444825
0.37429999999999986,-0.00692642652413922
0.37329999999999985,-0.006994332666532741
0.37229999999999985,-0.007039603428128423
0.37129999999999985,-0.007096191880123024
0.37029999999999985,-0.007161268599916816
0.36929999999999985,-0.007224930608410743
0.36829999999999985,-0.007285763194304939
0.36729999999999985,-0.00732820453330089
0.36629999999999985,-0.007396110675694412
0.36529999999999985,-0.007441381437290093
0.36429999999999985,-0.00751636113618294
0.36329999999999985,-0.007554558341279296
0.36229999999999984,-0.007604073236774573
0.36129999999999984,-0.007649343998370253
0.36029999999999984,-0.007707347161664719
0.35929999999999984,-0.007779497437957837
0.35829999999999984,-0.007823353488253653
0.35729999999999984,-0.007857306559450413
0.35629999999999984,-0.007928042124443665
0.35529999999999984,-0.007954921639141101
0.35429999999999984,-0.008031316049333813
0.35329999999999984,-0.008079416233529224
0.35229999999999984,-0.00812044286122531
0.35129999999999983,-0.008184104869719239
0.35029999999999983,-0.008215228518316268
0.34929999999999983,-0.008276061104210466
0.34829999999999983,-0.008332649556205066
0.34729999999999983,-0.008394896853399128
0.34629999999999983,-0.0084203616567967
0.34529999999999983,-0.008457144150593189
0.34429999999999983,-0.008510903179988061
0.3432999999999998,-0.008575979899781852
0.3422999999999998,-0.00860002999187956
0.3412999999999998,-0.008655203732574295
0.3402999999999998,-0.00871320689586876
0.3392999999999998,-0.00874715996706552
0.3382999999999998,-0.008805163130359988
0.3372999999999998,-0.008826383799857963
0.3362999999999998,-0.00885609273715513
0.3352999999999998,-0.00892399887954865
0.3342999999999998,-0.008987660888042577
0.3332999999999998,-0.009045664051337044
0.3322999999999998,-0.009085275967733264
0.3312999999999998,-0.00910649663723124
0.3302999999999998,-0.009158840955326247
0.3292999999999998,-0.009221088252520309
0.3282999999999998,-0.00927201785931545
0.3272999999999998,-0.009315873909611267
0.3262999999999998,-0.009335679867809378
0.3252999999999999,-0.009389438897204248
0.3242999999999999,-0.009441783215299255
0.3232999999999999,-0.00946300388479723
0.3222999999999999,-0.009537983583690079
0.3212999999999999,-0.009564863098387513
0.3202999999999999,-0.009610133859983196
0.3192999999999999,-0.009669551734577526
0.3182999999999999,-0.009713407784873344
0.3172999999999999,-0.009740287299570776
0.3162999999999999,-0.009798290462865246
0.3152999999999999,-0.00981668170976349
0.3142999999999999,-0.009888831986056607
0.3132999999999999,-0.009942591015451478
0.3122999999999999,-0.009959567551049858
0.3112999999999999,-0.010006253023945404
0.3102999999999999,-0.010043035517741895
0.3092999999999999,-0.010113771082735147
0.3082999999999999,-0.010150553576531638
0.3072999999999999,-0.010174603668629344
0.3062999999999999,-0.010235436254523542
0.3052999999999999,-0.010270804037020168
0.3042999999999999,-0.010309001242116523
0.3032999999999999,-0.010361345560211527
0.3022999999999999,-0.0103868103636091
0.3012999999999999,-0.010410860455706805
0.3002999999999999,-0.010473107752900867
0.2992999999999999,-0.010511304957997222
0.2982999999999999,-0.010567893409991824
0.2972999999999999,-0.010584869945590204
0.2962999999999999,-0.010651361376683863
0.2952999999999999,-0.010681070313981028
0.2942999999999999,-0.010743317611175088
0.2932999999999999,-0.010771611837172389
0.2922999999999999,-0.010795661929270096
0.2912999999999999,-0.010840932690865775
0.2902999999999999,-0.010883374029861727
0.2892999999999999,-0.010934303636656869
0.2882999999999999,-0.010995136222551065
0.2872999999999999,-0.011029089293747827
0.2862999999999999,-0.011060212942344856
0.2852999999999999,-0.011094166013541618
0.2842999999999999,-0.011147925042936489
0.2832999999999999,-0.011183292825433113
0.2822999999999999,-0.011227148875728931
0.2812999999999999,-0.011266760792125153
0.2802999999999999,-0.011286566750323261
0.2792999999999999,-0.011382767118714086
0.2782999999999999,-0.01141813490121071
0.2772999999999999,-0.011445014415908148
0.2762999999999999,-0.011497358734003153
0.2752999999999999,-0.011504432290502478
0.2742999999999999,-0.01156102074249708
0.2732999999999999,-0.011630341596190467
0.2722999999999999,-0.011640244575289522
0.2712999999999999,-0.011699662449883852
0.2702999999999999,-0.01172371254198156
0.2692999999999999,-0.01178030099397616
0.26829999999999987,-0.011832645312071167
0.26729999999999987,-0.011838304157270628
0.26629999999999987,-0.011894892609265227
0.26529999999999987,-0.011916113278763203
0.26429999999999987,-0.01195148106125983
0.26329999999999987,-0.012017972492353486
0.26229999999999987,-0.012047681429650653
0.26129999999999987,-0.012084463923447144
0.26029999999999986,-0.012143881798041475
0.25929999999999986,-0.012187737848337292
0.25829999999999986,-0.012223105630833916
0.25729999999999986,-0.01226554696982987
0.25629999999999986,-0.012278279371528653
0.25529999999999986,-0.012332038400923524
0.25429999999999986,-0.012371650317319745
0.25329999999999986,-0.012421165212815022
0.25229999999999986,-0.012450874150112189
0.25129999999999986,-0.012489071355208544
0.25029999999999986,-0.012525853849005035
0.24929999999999986,-0.012571124610600715
0.24829999999999985,-0.012603662970497611
0.24729999999999985,-0.012651763154693022
0.24629999999999985,-0.012678642669390458
0.24529999999999985,-0.012739475255284655
0.24429999999999985,-0.012796063707279256
0.24329999999999985,-0.012817284376777233
0.24229999999999985,-0.012855481581873588
0.24129999999999985,-0.012913484745168053
0.24029999999999985,-0.012923387724267111
0.23929999999999985,-0.012999782134459821
0.23829999999999985,-0.013028076360457124
0.23729999999999984,-0.013046467607355368
0.23629999999999984,-0.013087494235051454
0.23529999999999984,-0.013112959038449026
0.23429999999999984,-0.013179450469542681
0.23329999999999984,-0.013216232963339174
0.23229999999999984,-0.013254430168435529
0.23129999999999984,-0.01328555381703256
0.23029999999999984,-0.013325165733428781
0.22929999999999984,-0.013371851206324326
0.22829999999999984,-0.013429854369618792
0.22729999999999984,-0.013446830905217174
0.22629999999999983,-0.0135104929137111
0.22529999999999983,-0.013524640026709752
0.22429999999999983,-0.013564251943105973
0.22329999999999983,-0.013622255106400437
0.22229999999999983,-0.013632158085499493
0.22129999999999983,-0.01365903760019693
0.22029999999999983,-0.013705723073092474
0.21929999999999983,-0.013769385081586403
0.21829999999999983,-0.013797679307583703
0.21729999999999983,-0.013847194203078981
0.21629999999999983,-0.013867000161277088
0.21529999999999982,-0.01390378265507358
0.21429999999999982,-0.013956126973168587
0.21329999999999982,-0.013987250621765616
0.21229999999999982,-0.014024033115562108
0.21129999999999982,-0.014057986186758867
0.21029999999999982,-0.014091939257955632
0.20929999999999982,-0.014161260111649017
0.20829999999999982,-0.014175407224647668
0.20729999999999982,-0.014217848563643616
0.20629999999999982,-0.01427443701563822
0.20529999999999982,-0.01430273124163552
0.20429999999999982,-0.014359319693630123
0.20329999999999981,-0.014387613919627423
0.2022999999999998,-0.014430055258623373
0.2012999999999998,-0.014458349484620674
0.20029999999999992,-0.014486643710617976
0.19929999999999992,-0.014571526388609878
0.19829999999999992,-0.014599820614607179
0.19729999999999992,-0.014628114840604478
0.19629999999999992,-0.01465640906660178
0.19529999999999992,-0.014670556179600431
0.19429999999999992,-0.014797880196588285
0.19329999999999992,-0.014868615761581536
0.19229999999999992,-0.014840321535584235
0.19129999999999991,-0.014882762874580187
0.1902999999999999,-0.014896909987578835
0.1892999999999999,-0.014953498439573438
0.1882999999999999,-0.01501008689156804
0.1872999999999999,-0.01503838111756534
0.1862999999999999,-0.015066675343562642
0.1852999999999999,-0.01509496956955994
0.1842999999999999,-0.015151558021554544
0.1832999999999999,-0.015193999360550494
0.1822999999999999,-0.015208146473549147
0.1812999999999999,-0.015250587812545097
0.1802999999999999,-0.015307176264539698
0.1792999999999999,-0.015335470490536997
0.1782999999999999,-0.015392058942531598
0.1772999999999999,-0.015420353168528897
0.1762999999999999,-0.01543450028152755
0.1752999999999999,-0.015476941620523503
0.1742999999999999,-0.015533530072518101
0.1732999999999999,-0.015561824298515404
0.1722999999999999,-0.015604265637511355
0.1712999999999999,-0.015632559863508654
0.1702999999999999,-0.015660854089505957
0.1692999999999999,-0.015717442541500558
0.1682999999999999,-0.015774030993495156
0.1672999999999999,-0.01580232521949246
0.1662999999999999,-0.01583061944548976
0.1652999999999999,-0.01585891367148706
0.1642999999999999,-0.015929649236480315
0.1632999999999999,-0.01597209057547626
0.1622999999999999,-0.015986237688474913
0.1612999999999999,-0.016028679027470863
0.1602999999999999,-0.016042826140469518
0.1592999999999999,-0.016099414592464115
0.15829999999999989,-0.016127708818461418
0.15729999999999988,-0.016170150157457368
0.15629999999999988,-0.016212591496453318
0.15529999999999988,-0.01624088572245062
0.15429999999999988,-0.016283327061446574
0.15329999999999988,-0.016354062626439823
0.15229999999999988,-0.016354062626439823
0.15129999999999988,-0.016396503965435776
0.15029999999999988,-0.016410651078434424
0.14929999999999988,-0.01648138664342768
0.14829999999999988,-0.016537975095422278
0.14729999999999988,-0.016552122208420932
0.14629999999999987,-0.01659456354741688
0.14529999999999987,-0.01665115199941148
0.14429999999999987,-0.016693593338407434
0.14329999999999987,-0.016750181790402035
0.14229999999999987,-0.016806770242396636
0.14129999999999987,-0.016820917355395284
0.14029999999999987,-0.01683506446839394
0.13929999999999987,-0.016891652920388536
0.13829999999999987,-0.01693409425938449
0.13729999999999987,-0.016962388485381792
0.13629999999999987,-0.017018976937376393
0.13529999999999986,-0.017047271163373692
0.13429999999999986,-0.017118006728366945
0.13329999999999986,-0.017160448067362895
0.13229999999999986,-0.017160448067362895
0.13129999999999986,-0.017174595180361543
0.13029999999999986,-0.017259477858353446
0.12929999999999986,-0.01728777208435075
0.12829999999999986,-0.01734436053634535
0.12729999999999986,-0.017372654762342652
0.12629999999999986,-0.017400948988339954
0.12529999999999986,-0.0174150961013386
0.12429999999999986,-0.017499978779330502
0.12329999999999985,-0.017542420118326456
0.12229999999999985,-0.017570714344323755
0.12129999999999985,-0.017599008570321057
0.12029999999999985,-0.017627302796318356
0.11929999999999985,-0.01768389124831296
0.11829999999999985,-0.01772633258730891
0.11729999999999985,-0.01776877392630486
0.11629999999999985,-0.017797068152302163
0.11529999999999985,-0.017825362378299462
0.11429999999999985,-0.017881950830294063
0.11329999999999985,-0.017924392169290013
0.11229999999999984,-0.017952686395287316
0.11129999999999984,-0.018009274847281917
0.11029999999999984,-0.018023421960280565
0.10929999999999984,-0.018080010412275173
0.10829999999999984,-0.01812245175127112
0.10729999999999984,-0.01813659886426977
0.10629999999999984,-0.018193187316264375
0.10529999999999984,-0.018235628655260322
0.10429999999999984,-0.018292217107254923
0.10329999999999984,-0.018348805559249524
0.10229999999999984,-0.018377099785246823
0.10129999999999983,-0.018391246898245478
0.10029999999999983,-0.018447835350240076
0.09929999999999983,-0.01849027668923603
0.09829999999999983,-0.018546865141230634
0.09729999999999983,-0.01858930648022658
0.09629999999999983,-0.018603453593225232
0.09529999999999983,-0.018645894932221182
0.09429999999999983,-0.018716630497214438
0.09329999999999983,-0.018759071836210388
0.09229999999999983,-0.018815660288204986
0.09129999999999983,-0.018843954514202284
0.09029999999999982,-0.01885810162720094
0.08929999999999982,-0.01891469007919554
0.08829999999999982,-0.01897127853119014
0.08729999999999982,-0.018985425644188793
0.08629999999999982,-0.019027866983184743
0.08529999999999982,-0.019084455435179344
0.08429999999999982,-0.0191551910001726
0.08329999999999982,-0.019197632339168547
0.08229999999999982,-0.01922592656516585
0.08129999999999982,-0.01928251501716045
0.08029999999999982,-0.0192966621301591
0.07929999999999982,-0.019367397695152354
0.07829999999999981,-0.0194098390341483
0.07729999999999981,-0.019423986147146955
0.07629999999999981,-0.019466427486142905
0.07529999999999992,-0.019494721712140204
0.07429999999999992,-0.019551310164134805
0.07329999999999992,-0.019607898616129407
0.07229999999999992,-0.01963619284212671
0.07129999999999992,-0.01967863418112266
0.07029999999999992,-0.01970692840711996
0.06929999999999992,-0.019763516859114563
0.06829999999999992,-0.019834252424107815
0.06729999999999992,-0.019820105311109164
0.06629999999999991,-0.019890840876102416
0.06529999999999991,-0.019933282215098366
0.06429999999999991,-0.019961576441095665
0.06329999999999991,-0.02003231200608892
0.06229999999999991,-0.02006060623208622
0.06129999999999991,-0.02008890045808352
0.06029999999999991,-0.02015963602307677
0.05929999999999991,-0.02020207736207272
0.05829999999999991,-0.020272812927065977
0.05729999999999991,-0.020286960040064625
0.056299999999999906,-0.020315254266061927
0.055299999999999905,-0.020357695605057877
0.054299999999999904,-0.020400136944053827
0.0532999999999999,-0.020470872509047083
0.0522999999999999,-0.020499166735044382
0.0512999999999999,-0.020513313848043033
0.0502999999999999,-0.020569902300037635
0.0492999999999999,-0.020640637865030884
0.0482999999999999,-0.020668932091028186
0.0472999999999999,-0.02071137343002414
0.0462999999999999,-0.02073966765602144
0.045299999999999896,-0.02079625610801604
0.044299999999999895,-0.02085284456001064
0.043299999999999894,-0.020909433012005242
0.04229999999999989,-0.020937727238002544
0.04129999999999989,-0.020980168576998495
0.04029999999999989,-0.021050904141991744
0.03929999999999989,-0.021093345480987697
0.03829999999999989,-0.021135786819983647
0.03729999999999989,-0.021164081045980946
0.03629999999999989,-0.02122066949797555
0.03529999999999989,-0.02124896372397285
0.034299999999999886,-0.021319699288966102
0.033299999999999885,-0.021376287740960703
0.032299999999999884,-0.021390434853959358
0.031299999999999883,-0.021447023305953956
0.030299999999999883,-0.021475317531951258
0.02929999999999988,-0.021546053096944507
0.02829999999999988,-0.02161678866193776
0.02729999999999988,-0.021645082887935062
0.02629999999999988,-0.021687524226931015
0.025299999999999878,-0.021744112678925617
0.024299999999999877,-0.021772406904922915
0.023299999999999876,-0.021843142469916164
0.022299999999999875,-0.021871436695913467
0.021299999999999875,-0.021928025147908068
0.020299999999999874,-0.02198461359990267
0.019299999999999873,-0.022027054938898623
0.018299999999999872,-0.022097790503891875
0.01729999999999987,-0.022111937616890523
0.01629999999999987,-0.022168526068885124
0.01529999999999987,-0.022210967407881078
0.014299999999999868,-0.022295850085872978
0.013299999999999867,-0.022338291424868928
0.012299999999999978,-0.02238073276386488
0.011299999999999866,-0.02240902698986218
0.010299999999999976,-0.022479762554855433
0.009299999999999864,-0.022536351006850038
0.008299999999999974,-0.022592939458844635
0.007299999999999862,-0.022621233684841938
0.006299999999999972,-0.022663675023837888
0.00529999999999986,-0.02270611636283384
0.0042999999999999705,-0.02276270481482844
0.0032999999999998586,-0.022833440379821688
0.0022999999999999687,-0.022890028831816296
0.0012999999999998568,-0.022918323057813595
0.00029999999999996696,-0.022946617283810897
-0.000700000000000145,-0.023017352848804146
-0.0017000000000000348,-0.0230597941878001
-0.0027000000000001467,-0.023116382639794698
-0.0037000000000000366,-0.023158823978790648
-0.0047000000000001485,-0.023172971091789302
-0.005700000000000038,-0.02327200088277985
-0.00670000000000015,-0.023314442221775804
-0.00770000000000004,-0.023342736447773106
-0.008700000000000152,-0.02341347201276636
-0.009700000000000042,-0.023441766238763657
-0.010700000000000154,-0.02354079602975421
-0.011700000000000044,-0.023611531594747465
-0.012700000000000156,-0.023625678707746112
-0.013700000000000045,-0.023682267159740714
-0.014700000000000157,-0.023724708498736664
-0.015700000000000047,-0.02378129695073127
-0.01670000000000016,-0.023837885402725866
-0.01770000000000005,-0.023866179628723165
-0.01870000000000016,-0.02390862096771912
-0.01970000000000005,-0.023965209419713723
-0.020700000000000163,-0.024035944984706972
-0.021700000000000053,-0.024078386323702922
-0.022700000000000164,-0.024120827662698876
-0.023700000000000054,-0.024191563227692125
-0.024700000000000166,-0.02423400456668808
-0.025700000000000056,-0.02427644590568403
-0.026700000000000168,-0.02434718147067728
-0.027700000000000058,-0.02438962280967323
-0.02870000000000017,-0.024417917035670533
-0.02970000000000006,-0.024460358374666487
-0.03070000000000017,-0.024545241052658383
-0.03170000000000006,-0.024587682391654337
-0.03270000000000017,-0.024630123730650287
-0.03370000000000006,-0.02468671218264489
-0.034700000000000175,-0.024729153521640842
-0.035700000000000065,-0.02479988908663409
-0.03670000000000018,-0.024870624651627343
-0.03770000000000007,-0.024913065990623297
-0.03870000000000018,-0.024955507329619247
-0.03970000000000007,-0.024983801555616546
-0.04070000000000018,-0.02506868423360845
-0.04170000000000007,-0.02509697845960575
-0.04270000000000018,-0.025139419798601705
-0.04370000000000007,-0.025181861137597652
-0.044700000000000184,-0.025224302476593602
-0.045700000000000074,-0.025309185154585506
-0.046700000000000186,-0.025365773606580107
-0.047700000000000076,-0.02537992071957876
-0.04870000000000019,-0.02545065628457201
-0.04970000000000008,-0.025493097623567964
-0.05070000000000019,-0.02553553896256391
-0.05170000000000008,-0.025606274527557166
-0.05270000000000019,-0.02562042164055581
-0.05370000000000008,-0.025662862979551764
-0.05470000000000019,-0.025719451431546365
-0.05570000000000008,-0.02577603988354097
-0.056700000000000195,-0.025860922561532867
-0.057700000000000085,-0.02587506967453152
-0.058700000000000196,-0.025931658126526123
-0.059700000000000086,-0.025988246578520724
-0.0607000000000002,-0.026030687917516674
-0.06170000000000009,-0.026101423482509926
-0.0627000000000002,-0.026158011934504528
