Aug. 3, 2024   07:51:52
Cyclic Voltammetry
File: c:/users/guazh/data/20240802_batch_500/2024-08-02-exp4\exp4-2024-08-03t07_32_04-arkoh\exp4_cv_sr_700mvs_efin_-1700mv.bin
Data Source:  Experiment
Instrument Model:  CHI760E
Header: CV ran at 700 mVs
Note: 

Init E (V) = -1
High E (V) = -1
Low E (V) = -1.7
Final E (V) = -1
Init P/N = N
Scan Rate (V/s) = 0.7
Segment = 3
Sample Interval (V) = 0.001
Quiet Time (sec) = 2
Sensitivity (A/V) = 0.01
Comp R (ohm) = 1.6

Results:

Channel 1:
Segment 1:

Segment 2:

Segment 3:

Potential/V, Current/A

-1.000, -9.093e-6
-1.001, 3.407e-5
-1.002, 6.798e-5
-1.003, 9.882e-5
-1.004, 1.204e-4
-1.005, 1.420e-4
-1.006, 1.636e-4
-1.007, 1.821e-4
-1.008, 2.006e-4
-1.009, 2.160e-4
-1.010, 2.283e-4
-1.011, 2.345e-4
-1.012, 2.437e-4
-1.013, 2.499e-4
-1.014, 2.561e-4
-1.015, 2.622e-4
-1.016, 2.684e-4
-1.017, 2.776e-4
-1.018, 2.869e-4
-1.019, 2.931e-4
-1.020, 3.023e-4
-1.021, 3.085e-4
-1.022, 3.115e-4
-1.023, 3.146e-4
-1.024, 3.177e-4
-1.025, 3.177e-4
-1.026, 3.208e-4
-1.027, 3.208e-4
-1.028, 3.270e-4
-1.029, 3.331e-4
-1.030, 3.393e-4
-1.031, 3.455e-4
-1.032, 3.485e-4
-1.033, 3.547e-4
-1.034, 3.547e-4
-1.035, 3.547e-4
-1.036, 3.578e-4
-1.037, 3.547e-4
-1.038, 3.547e-4
-1.039, 3.578e-4
-1.040, 3.609e-4
-1.041, 3.670e-4
-1.042, 3.701e-4
-1.043, 3.763e-4
-1.044, 3.794e-4
-1.045, 3.825e-4
-1.046, 3.825e-4
-1.047, 3.794e-4
-1.048, 3.794e-4
-1.049, 3.763e-4
-1.050, 3.794e-4
-1.051, 3.794e-4
-1.052, 3.825e-4
-1.053, 3.886e-4
-1.054, 3.917e-4
-1.055, 3.948e-4
-1.056, 3.979e-4
-1.057, 3.979e-4
-1.058, 3.979e-4
-1.059, 3.979e-4
-1.060, 3.948e-4
-1.061, 3.948e-4
-1.062, 3.948e-4
-1.063, 3.979e-4
-1.064, 4.010e-4
-1.065, 4.040e-4
-1.066, 4.102e-4
-1.067, 4.133e-4
-1.068, 4.133e-4
-1.069, 4.133e-4
-1.070, 4.133e-4
-1.071, 4.102e-4
-1.072, 4.071e-4
-1.073, 4.071e-4
-1.074, 4.071e-4
-1.075, 4.102e-4
-1.076, 4.133e-4
-1.077, 4.164e-4
-1.078, 4.195e-4
-1.079, 4.195e-4
-1.080, 4.225e-4
-1.081, 4.225e-4
-1.082, 4.225e-4
-1.083, 4.195e-4
-1.084, 4.195e-4
-1.085, 4.195e-4
-1.086, 4.195e-4
-1.087, 4.225e-4
-1.088, 4.225e-4
-1.089, 4.287e-4
-1.090, 4.318e-4
-1.091, 4.287e-4
-1.092, 4.318e-4
-1.093, 4.287e-4
-1.094, 4.256e-4
-1.095, 4.256e-4
-1.096, 4.225e-4
-1.097, 4.225e-4
-1.098, 4.225e-4
-1.099, 4.256e-4
-1.100, 4.287e-4
-1.101, 4.318e-4
-1.102, 4.318e-4
-1.103, 4.349e-4
-1.104, 4.318e-4
-1.105, 4.287e-4
-1.106, 4.287e-4
-1.107, 4.256e-4
-1.108, 4.225e-4
-1.109, 4.225e-4
-1.110, 4.256e-4
-1.111, 4.287e-4
-1.112, 4.318e-4
-1.113, 4.349e-4
-1.114, 4.349e-4
-1.115, 4.349e-4
-1.116, 4.318e-4
-1.117, 4.318e-4
-1.118, 4.287e-4
-1.119, 4.256e-4
-1.120, 4.256e-4
-1.121, 4.256e-4
-1.122, 4.287e-4
-1.123, 4.287e-4
-1.124, 4.318e-4
-1.125, 4.349e-4
-1.126, 4.349e-4
-1.127, 4.349e-4
-1.128, 4.318e-4
-1.129, 4.287e-4
-1.130, 4.256e-4
-1.131, 4.225e-4
-1.132, 4.225e-4
-1.133, 4.225e-4
-1.134, 4.256e-4
-1.135, 4.256e-4
-1.136, 4.287e-4
-1.137, 4.318e-4
-1.138, 4.318e-4
-1.139, 4.287e-4
-1.140, 4.256e-4
-1.141, 4.256e-4
-1.142, 4.195e-4
-1.143, 4.195e-4
-1.144, 4.195e-4
-1.145, 4.195e-4
-1.146, 4.225e-4
-1.147, 4.225e-4
-1.148, 4.256e-4
-1.149, 4.256e-4
-1.150, 4.256e-4
-1.151, 4.225e-4
-1.152, 4.225e-4
-1.153, 4.195e-4
-1.154, 4.133e-4
-1.155, 4.164e-4
-1.156, 4.133e-4
-1.157, 4.164e-4
-1.158, 4.164e-4
-1.159, 4.195e-4
-1.160, 4.195e-4
-1.161, 4.195e-4
-1.162, 4.164e-4
-1.163, 4.133e-4
-1.164, 4.102e-4
-1.165, 4.071e-4
-1.166, 4.071e-4
-1.167, 4.040e-4
-1.168, 4.040e-4
-1.169, 4.071e-4
-1.170, 4.102e-4
-1.171, 4.133e-4
-1.172, 4.133e-4
-1.173, 4.133e-4
-1.174, 4.102e-4
-1.175, 4.102e-4
-1.176, 4.071e-4
-1.177, 4.040e-4
-1.178, 4.010e-4
-1.179, 4.010e-4
-1.180, 4.010e-4
-1.181, 4.040e-4
-1.182, 4.071e-4
-1.183, 4.071e-4
-1.184, 4.071e-4
-1.185, 4.071e-4
-1.186, 4.040e-4
-1.187, 4.040e-4
-1.188, 3.979e-4
-1.189, 3.948e-4
-1.190, 3.948e-4
-1.191, 3.979e-4
-1.192, 3.979e-4
-1.193, 4.010e-4
-1.194, 4.040e-4
-1.195, 4.071e-4
-1.196, 4.071e-4
-1.197, 4.071e-4
-1.198, 4.071e-4
-1.199, 4.040e-4
-1.200, 4.010e-4
-1.201, 3.979e-4
-1.202, 3.979e-4
-1.203, 4.010e-4
-1.204, 4.010e-4
-1.205, 4.040e-4
-1.206, 4.040e-4
-1.207, 4.071e-4
-1.208, 4.071e-4
-1.209, 4.040e-4
-1.210, 4.040e-4
-1.211, 4.010e-4
-1.212, 4.010e-4
-1.213, 3.979e-4
-1.214, 4.010e-4
-1.215, 4.040e-4
-1.216, 4.071e-4
-1.217, 4.102e-4
-1.218, 4.133e-4
-1.219, 4.133e-4
-1.220, 4.164e-4
-1.221, 4.133e-4
-1.222, 4.133e-4
-1.223, 4.102e-4
-1.224, 4.102e-4
-1.225, 4.102e-4
-1.226, 4.102e-4
-1.227, 4.164e-4
-1.228, 4.195e-4
-1.229, 4.225e-4
-1.230, 4.256e-4
-1.231, 4.256e-4
-1.232, 4.256e-4
-1.233, 4.225e-4
-1.234, 4.225e-4
-1.235, 4.225e-4
-1.236, 4.225e-4
-1.237, 4.225e-4
-1.238, 4.225e-4
-1.239, 4.287e-4
-1.240, 4.318e-4
-1.241, 4.349e-4
-1.242, 4.380e-4
-1.243, 4.410e-4
-1.244, 4.410e-4
-1.245, 4.410e-4
-1.246, 4.410e-4
-1.247, 4.410e-4
-1.248, 4.410e-4
-1.249, 4.410e-4
-1.250, 4.441e-4
-1.251, 4.472e-4
-1.252, 4.534e-4
-1.253, 4.565e-4
-1.254, 4.565e-4
-1.255, 4.565e-4
-1.256, 4.565e-4
-1.257, 4.565e-4
-1.258, 4.595e-4
-1.259, 4.595e-4
-1.260, 4.626e-4
-1.261, 4.626e-4
-1.262, 4.688e-4
-1.263, 4.750e-4
-1.264, 4.780e-4
-1.265, 4.811e-4
-1.266, 4.811e-4
-1.267, 4.811e-4
-1.268, 4.811e-4
-1.269, 4.811e-4
-1.270, 4.811e-4
-1.271, 4.811e-4
-1.272, 4.842e-4
-1.273, 4.873e-4
-1.274, 4.904e-4
-1.275, 4.965e-4
-1.276, 4.996e-4
-1.277, 5.027e-4
-1.278, 5.058e-4
-1.279, 5.058e-4
-1.280, 5.058e-4
-1.281, 5.058e-4
-1.282, 5.058e-4
-1.283, 5.089e-4
-1.284, 5.120e-4
-1.285, 5.150e-4
-1.286, 5.212e-4
-1.287, 5.243e-4
-1.288, 5.274e-4
-1.289, 5.305e-4
-1.290, 5.335e-4
-1.291, 5.335e-4
-1.292, 5.335e-4
-1.293, 5.335e-4
-1.294, 5.335e-4
-1.295, 5.366e-4
-1.296, 5.397e-4
-1.297, 5.428e-4
-1.298, 5.459e-4
-1.299, 5.489e-4
-1.300, 5.551e-4
-1.301, 5.551e-4
-1.302, 5.582e-4
-1.303, 5.613e-4
-1.304, 5.613e-4
-1.305, 5.613e-4
-1.306, 5.644e-4
-1.307, 5.674e-4
-1.308, 5.705e-4
-1.309, 5.736e-4
-1.310, 5.767e-4
-1.311, 5.798e-4
-1.312, 5.829e-4
-1.313, 5.890e-4
-1.314, 5.890e-4
-1.315, 5.890e-4
-1.316, 5.890e-4
-1.317, 5.890e-4
-1.318, 5.921e-4
-1.319, 5.921e-4
-1.320, 5.952e-4
-1.321, 6.014e-4
-1.322, 6.014e-4
-1.323, 6.075e-4
-1.324, 6.075e-4
-1.325, 6.106e-4
-1.326, 6.137e-4
-1.327, 6.137e-4
-1.328, 6.137e-4
-1.329, 6.168e-4
-1.330, 6.199e-4
-1.331, 6.229e-4
-1.332, 6.260e-4
-1.333, 6.291e-4
-1.334, 6.353e-4
-1.335, 6.384e-4
-1.336, 6.384e-4
-1.337, 6.414e-4
-1.338, 6.384e-4
-1.339, 6.414e-4
-1.340, 6.414e-4
-1.341, 6.414e-4
-1.342, 6.414e-4
-1.343, 6.445e-4
-1.344, 6.507e-4
-1.345, 6.538e-4
-1.346, 6.569e-4
-1.347, 6.599e-4
-1.348, 6.630e-4
-1.349, 6.630e-4
-1.350, 6.630e-4
-1.351, 6.661e-4
-1.352, 6.630e-4
-1.353, 6.661e-4
-1.354, 6.661e-4
-1.355, 6.692e-4
-1.356, 6.723e-4
-1.357, 6.754e-4
-1.358, 6.815e-4
-1.359, 6.815e-4
-1.360, 6.846e-4
-1.361, 6.877e-4
-1.362, 6.877e-4
-1.363, 6.908e-4
-1.364, 6.908e-4
-1.365, 6.939e-4
-1.366, 6.939e-4
-1.367, 6.969e-4
-1.368, 7.000e-4
-1.369, 7.031e-4
-1.370, 7.062e-4
-1.371, 7.062e-4
-1.372, 7.093e-4
-1.373, 7.093e-4
-1.374, 7.093e-4
-1.375, 7.093e-4
-1.376, 7.124e-4
-1.377, 7.154e-4
-1.378, 7.185e-4
-1.379, 7.247e-4
-1.380, 7.278e-4
-1.381, 7.309e-4
-1.382, 7.339e-4
-1.383, 7.339e-4
-1.384, 7.370e-4
-1.385, 7.339e-4
-1.386, 7.370e-4
-1.387, 7.370e-4
-1.388, 7.370e-4
-1.389, 7.401e-4
-1.390, 7.432e-4
-1.391, 7.494e-4
-1.392, 7.524e-4
-1.393, 7.555e-4
-1.394, 7.586e-4
-1.395, 7.617e-4
-1.396, 7.617e-4
-1.397, 7.617e-4
-1.398, 7.648e-4
-1.399, 7.648e-4
-1.400, 7.679e-4
-1.401, 7.709e-4
-1.402, 7.740e-4
-1.403, 7.802e-4
-1.404, 7.863e-4
-1.405, 7.894e-4
-1.406, 7.894e-4
-1.407, 7.925e-4
-1.408, 7.925e-4
-1.409, 7.956e-4
-1.410, 7.956e-4
-1.411, 7.987e-4
-1.412, 8.018e-4
-1.413, 8.048e-4
-1.414, 8.079e-4
-1.415, 8.141e-4
-1.416, 8.203e-4
-1.417, 8.233e-4
-1.418, 8.264e-4
-1.419, 8.264e-4
-1.420, 8.326e-4
-1.421, 8.326e-4
-1.422, 8.357e-4
-1.423, 8.388e-4
-1.424, 8.418e-4
-1.425, 8.480e-4
-1.426, 8.511e-4
-1.427, 8.573e-4
-1.428, 8.634e-4
-1.429, 8.665e-4
-1.430, 8.696e-4
-1.431, 8.696e-4
-1.432, 8.727e-4
-1.433, 8.758e-4
-1.434, 8.788e-4
-1.435, 8.850e-4
-1.436, 8.881e-4
-1.437, 8.943e-4
-1.438, 9.004e-4
-1.439, 9.066e-4
-1.440, 9.128e-4
-1.441, 9.158e-4
-1.442, 9.189e-4
-1.443, 9.220e-4
-1.444, 9.251e-4
-1.445, 9.282e-4
-1.446, 9.313e-4
-1.447, 9.343e-4
-1.448, 9.405e-4
-1.449, 9.498e-4
-1.450, 9.559e-4
-1.451, 9.652e-4
-1.452, 9.713e-4
-1.453, 9.744e-4
-1.454, 9.806e-4
-1.455, 9.837e-4
-1.456, 9.898e-4
-1.457, 9.898e-4
-1.458, 9.960e-4
-1.459, 1.002e-3
-1.460, 1.008e-3
-1.461, 1.014e-3
-1.462, 1.024e-3
-1.463, 1.033e-3
-1.464, 1.039e-3
-1.465, 1.045e-3
-1.466, 1.051e-3
-1.467, 1.058e-3
-1.468, 1.064e-3
-1.469, 1.067e-3
-1.470, 1.076e-3
-1.471, 1.082e-3
-1.472, 1.092e-3
-1.473, 1.101e-3
-1.474, 1.107e-3
-1.475, 1.116e-3
-1.476, 1.122e-3
-1.477, 1.129e-3
-1.478, 1.135e-3
-1.479, 1.144e-3
-1.480, 1.147e-3
-1.481, 1.156e-3
-1.482, 1.162e-3
-1.483, 1.172e-3
-1.484, 1.184e-3
-1.485, 1.193e-3
-1.486, 1.203e-3
-1.487, 1.209e-3
-1.488, 1.218e-3
-1.489, 1.227e-3
-1.490, 1.236e-3
-1.491, 1.246e-3
-1.492, 1.255e-3
-1.493, 1.267e-3
-1.494, 1.277e-3
-1.495, 1.289e-3
-1.496, 1.301e-3
-1.497, 1.314e-3
-1.498, 1.326e-3
-1.499, 1.335e-3
-1.500, 1.344e-3
-1.501, 1.354e-3
-1.502, 1.360e-3
-1.503, 1.369e-3
-1.504, 1.378e-3
-1.505, 1.391e-3
-1.506, 1.403e-3
-1.507, 1.415e-3
-1.508, 1.431e-3
-1.509, 1.446e-3
-1.510, 1.458e-3
-1.511, 1.474e-3
-1.512, 1.486e-3
-1.513, 1.499e-3
-1.514, 1.511e-3
-1.515, 1.523e-3
-1.516, 1.536e-3
-1.517, 1.548e-3
-1.518, 1.563e-3
-1.519, 1.579e-3
-1.520, 1.594e-3
-1.521, 1.613e-3
-1.522, 1.628e-3
-1.523, 1.643e-3
-1.524, 1.659e-3
-1.525, 1.671e-3
-1.526, 1.687e-3
-1.527, 1.699e-3
-1.528, 1.717e-3
-1.529, 1.733e-3
-1.530, 1.751e-3
-1.531, 1.770e-3
-1.532, 1.785e-3
-1.533, 1.804e-3
-1.534, 1.822e-3
-1.535, 1.841e-3
-1.536, 1.856e-3
-1.537, 1.872e-3
-1.538, 1.887e-3
-1.539, 1.902e-3
-1.540, 1.921e-3
-1.541, 1.943e-3
-1.542, 1.964e-3
-1.543, 1.986e-3
-1.544, 2.007e-3
-1.545, 2.029e-3
-1.546, 2.047e-3
-1.547, 2.069e-3
-1.548, 2.087e-3
-1.549, 2.106e-3
-1.550, 2.124e-3
-1.551, 2.146e-3
-1.552, 2.164e-3
-1.553, 2.186e-3
-1.554, 2.211e-3
-1.555, 2.232e-3
-1.556, 2.257e-3
-1.557, 2.279e-3
-1.558, 2.303e-3
-1.559, 2.325e-3
-1.560, 2.343e-3
-1.561, 2.365e-3
-1.562, 2.386e-3
-1.563, 2.411e-3
-1.564, 2.433e-3
-1.565, 2.457e-3
-1.566, 2.485e-3
-1.567, 2.510e-3
-1.568, 2.538e-3
-1.569, 2.565e-3
-1.570, 2.590e-3
-1.571, 2.615e-3
-1.572, 2.639e-3
-1.573, 2.664e-3
-1.574, 2.686e-3
-1.575, 2.713e-3
-1.576, 2.738e-3
-1.577, 2.766e-3
-1.578, 2.793e-3
-1.579, 2.824e-3
-1.580, 2.855e-3
-1.581, 2.883e-3
-1.582, 2.911e-3
-1.583, 2.938e-3
-1.584, 2.966e-3
-1.585, 2.994e-3
-1.586, 3.022e-3
-1.587, 3.049e-3
-1.588, 3.077e-3
-1.589, 3.105e-3
-1.590, 3.133e-3
-1.591, 3.163e-3
-1.592, 3.194e-3
-1.593, 3.222e-3
-1.594, 3.247e-3
-1.595, 3.274e-3
-1.596, 3.302e-3
-1.597, 3.333e-3
-1.598, 3.364e-3
-1.599, 3.395e-3
-1.600, 3.429e-3
-1.601, 3.462e-3
-1.602, 3.496e-3
-1.603, 3.533e-3
-1.604, 3.564e-3
-1.605, 3.598e-3
-1.606, 3.629e-3
-1.607, 3.657e-3
-1.608, 3.688e-3
-1.609, 3.718e-3
-1.610, 3.749e-3
-1.611, 3.783e-3
-1.612, 3.820e-3
-1.613, 3.857e-3
-1.614, 3.894e-3
-1.615, 3.931e-3
-1.616, 3.965e-3
-1.617, 4.002e-3
-1.618, 4.033e-3
-1.619, 4.061e-3
-1.620, 4.088e-3
-1.621, 4.116e-3
-1.622, 4.147e-3
-1.623, 4.175e-3
-1.624, 4.212e-3
-1.625, 4.246e-3
-1.626, 4.283e-3
-1.627, 4.317e-3
-1.628, 4.357e-3
-1.629, 4.394e-3
-1.630, 4.431e-3
-1.631, 4.464e-3
-1.632, 4.495e-3
-1.633, 4.529e-3
-1.634, 4.560e-3
-1.635, 4.594e-3
-1.636, 4.628e-3
-1.637, 4.659e-3
-1.638, 4.696e-3
-1.639, 4.733e-3
-1.640, 4.773e-3
-1.641, 4.810e-3
-1.642, 4.847e-3
-1.643, 4.881e-3
-1.644, 4.918e-3
-1.645, 4.955e-3
-1.646, 4.989e-3
-1.647, 5.029e-3
-1.648, 5.066e-3
-1.649, 5.103e-3
-1.650, 5.143e-3
-1.651, 5.180e-3
-1.652, 5.220e-3
-1.653, 5.254e-3
-1.654, 5.288e-3
-1.655, 5.319e-3
-1.656, 5.349e-3
-1.657, 5.383e-3
-1.658, 5.420e-3
-1.659, 5.457e-3
-1.660, 5.494e-3
-1.661, 5.531e-3
-1.662, 5.565e-3
-1.663, 5.602e-3
-1.664, 5.636e-3
-1.665, 5.664e-3
-1.666, 5.695e-3
-1.667, 5.722e-3
-1.668, 5.753e-3
-1.669, 5.784e-3
-1.670, 5.821e-3
-1.671, 5.855e-3
-1.672, 5.895e-3
-1.673, 5.944e-3
-1.674, 5.984e-3
-1.675, 6.028e-3
-1.676, 6.065e-3
-1.677, 6.102e-3
-1.678, 6.142e-3
-1.679, 6.176e-3
-1.680, 6.210e-3
-1.681, 6.243e-3
-1.682, 6.277e-3
-1.683, 6.317e-3
-1.684, 6.354e-3
-1.685, 6.391e-3
-1.686, 6.432e-3
-1.687, 6.465e-3
-1.688, 6.499e-3
-1.689, 6.536e-3
-1.690, 6.570e-3
-1.691, 6.604e-3
-1.692, 6.638e-3
-1.693, 6.666e-3
-1.694, 6.700e-3
-1.695, 6.728e-3
-1.696, 6.758e-3
-1.697, 6.789e-3
-1.698, 6.817e-3
-1.699, 6.851e-3
-1.700, 6.842e-3
-1.699, 6.786e-3
-1.698, 6.731e-3
-1.697, 6.675e-3
-1.696, 6.629e-3
-1.695, 6.586e-3
-1.694, 6.546e-3
-1.693, 6.506e-3
-1.692, 6.462e-3
-1.691, 6.416e-3
-1.690, 6.370e-3
-1.689, 6.314e-3
-1.688, 6.265e-3
-1.687, 6.206e-3
-1.686, 6.151e-3
-1.685, 6.102e-3
-1.684, 6.049e-3
-1.683, 5.997e-3
-1.682, 5.947e-3
-1.681, 5.901e-3
-1.680, 5.858e-3
-1.679, 5.812e-3
-1.678, 5.769e-3
-1.677, 5.725e-3
-1.676, 5.676e-3
-1.675, 5.630e-3
-1.674, 5.574e-3
-1.673, 5.522e-3
-1.672, 5.476e-3
-1.671, 5.426e-3
-1.670, 5.380e-3
-1.669, 5.337e-3
-1.668, 5.288e-3
-1.667, 5.241e-3
-1.666, 5.198e-3
-1.665, 5.152e-3
-1.664, 5.109e-3
-1.663, 5.060e-3
-1.662, 5.013e-3
-1.661, 4.973e-3
-1.660, 4.933e-3
-1.659, 4.893e-3
-1.658, 4.850e-3
-1.657, 4.810e-3
-1.656, 4.773e-3
-1.655, 4.730e-3
-1.654, 4.693e-3
-1.653, 4.653e-3
-1.652, 4.609e-3
-1.651, 4.569e-3
-1.650, 4.532e-3
-1.649, 4.489e-3
-1.648, 4.449e-3
-1.647, 4.406e-3
-1.646, 4.363e-3
-1.645, 4.317e-3
-1.644, 4.273e-3
-1.643, 4.236e-3
-1.642, 4.190e-3
-1.641, 4.147e-3
-1.640, 4.101e-3
-1.639, 4.061e-3
-1.638, 4.021e-3
-1.637, 3.980e-3
-1.636, 3.940e-3
-1.635, 3.900e-3
-1.634, 3.873e-3
-1.633, 3.839e-3
-1.632, 3.799e-3
-1.631, 3.762e-3
-1.630, 3.721e-3
-1.629, 3.684e-3
-1.628, 3.647e-3
-1.627, 3.607e-3
-1.626, 3.570e-3
-1.625, 3.536e-3
-1.624, 3.506e-3
-1.623, 3.475e-3
-1.622, 3.441e-3
-1.621, 3.407e-3
-1.620, 3.370e-3
-1.619, 3.336e-3
-1.618, 3.299e-3
-1.617, 3.262e-3
-1.616, 3.225e-3
-1.615, 3.191e-3
-1.614, 3.160e-3
-1.613, 3.126e-3
-1.612, 3.093e-3
-1.611, 3.062e-3
-1.610, 3.028e-3
-1.609, 2.991e-3
-1.608, 2.954e-3
-1.607, 2.920e-3
-1.606, 2.886e-3
-1.605, 2.849e-3
-1.604, 2.815e-3
-1.603, 2.784e-3
-1.602, 2.753e-3
-1.601, 2.723e-3
-1.600, 2.692e-3
-1.599, 2.661e-3
-1.598, 2.627e-3
-1.597, 2.596e-3
-1.596, 2.568e-3
-1.595, 2.534e-3
-1.594, 2.507e-3
-1.593, 2.479e-3
-1.592, 2.451e-3
-1.591, 2.427e-3
-1.590, 2.399e-3
-1.589, 2.374e-3
-1.588, 2.353e-3
-1.587, 2.325e-3
-1.586, 2.297e-3
-1.585, 2.272e-3
-1.584, 2.242e-3
-1.583, 2.208e-3
-1.582, 2.177e-3
-1.581, 2.143e-3
-1.580, 2.115e-3
-1.579, 2.084e-3
-1.578, 2.063e-3
-1.577, 2.038e-3
-1.576, 2.017e-3
-1.575, 1.995e-3
-1.574, 1.967e-3
-1.573, 1.939e-3
-1.572, 1.912e-3
-1.571, 1.881e-3
-1.570, 1.853e-3
-1.569, 1.828e-3
-1.568, 1.801e-3
-1.567, 1.779e-3
-1.566, 1.758e-3
-1.565, 1.739e-3
-1.564, 1.721e-3
-1.563, 1.699e-3
-1.562, 1.684e-3
-1.561, 1.662e-3
-1.560, 1.640e-3
-1.559, 1.619e-3
-1.558, 1.594e-3
-1.557, 1.573e-3
-1.556, 1.548e-3
-1.555, 1.526e-3
-1.554, 1.502e-3
-1.553, 1.483e-3
-1.552, 1.462e-3
-1.551, 1.440e-3
-1.550, 1.418e-3
-1.549, 1.397e-3
-1.548, 1.378e-3
-1.547, 1.360e-3
-1.546, 1.341e-3
-1.545, 1.320e-3
-1.544, 1.301e-3
-1.543, 1.283e-3
-1.542, 1.264e-3
-1.541, 1.252e-3
-1.540, 1.236e-3
-1.539, 1.221e-3
-1.538, 1.212e-3
-1.537, 1.203e-3
-1.536, 1.181e-3
-1.535, 1.159e-3
-1.534, 1.141e-3
-1.533, 1.122e-3
-1.532, 1.104e-3
-1.531, 1.085e-3
-1.530, 1.073e-3
-1.529, 1.055e-3
-1.528, 1.036e-3
-1.527, 1.021e-3
-1.526, 1.005e-3
-1.525, 9.898e-4
-1.524, 9.744e-4
-1.523, 9.590e-4
-1.522, 9.436e-4
-1.521, 9.313e-4
-1.520, 9.189e-4
-1.519, 9.066e-4
-1.518, 8.943e-4
-1.517, 8.819e-4
-1.516, 8.665e-4
-1.515, 8.542e-4
-1.514, 8.357e-4
-1.513, 8.233e-4
-1.512, 8.079e-4
-1.511, 7.925e-4
-1.510, 7.802e-4
-1.509, 7.679e-4
-1.508, 7.617e-4
-1.507, 7.494e-4
-1.506, 7.401e-4
-1.505, 7.309e-4
-1.504, 7.216e-4
-1.503, 7.093e-4
-1.502, 6.969e-4
-1.501, 6.846e-4
-1.500, 6.723e-4
-1.499, 6.569e-4
-1.498, 6.476e-4
-1.497, 6.353e-4
-1.496, 6.260e-4
-1.495, 6.168e-4
-1.494, 6.075e-4
-1.493, 6.014e-4
-1.492, 5.890e-4
-1.491, 5.798e-4
-1.490, 5.705e-4
-1.489, 5.613e-4
-1.488, 5.489e-4
-1.487, 5.397e-4
-1.486, 5.305e-4
-1.485, 5.243e-4
-1.484, 5.150e-4
-1.483, 5.089e-4
-1.482, 5.027e-4
-1.481, 4.935e-4
-1.480, 4.873e-4
-1.479, 4.750e-4
-1.478, 4.657e-4
-1.477, 4.565e-4
-1.476, 4.472e-4
-1.475, 4.410e-4
-1.474, 4.349e-4
-1.473, 4.287e-4
-1.472, 4.225e-4
-1.471, 4.164e-4
-1.470, 4.133e-4
-1.469, 4.040e-4
-1.468, 3.979e-4
-1.467, 3.886e-4
-1.466, 3.825e-4
-1.465, 3.732e-4
-1.464, 3.670e-4
-1.463, 3.609e-4
-1.462, 3.547e-4
-1.461, 3.485e-4
-1.460, 3.455e-4
-1.459, 3.393e-4
-1.458, 3.362e-4
-1.457, 3.300e-4
-1.456, 3.208e-4
-1.455, 3.146e-4
-1.454, 3.085e-4
-1.453, 3.023e-4
-1.452, 2.961e-4
-1.451, 2.900e-4
-1.450, 2.869e-4
-1.449, 2.838e-4
-1.448, 2.807e-4
-1.447, 2.776e-4
-1.446, 2.715e-4
-1.445, 2.684e-4
-1.444, 2.591e-4
-1.443, 2.530e-4
-1.442, 2.468e-4
-1.441, 2.406e-4
-1.440, 2.376e-4
-1.439, 2.345e-4
-1.438, 2.314e-4
-1.437, 2.283e-4
-1.436, 2.252e-4
-1.435, 2.221e-4
-1.434, 2.160e-4
-1.433, 2.129e-4
-1.432, 2.067e-4
-1.431, 2.006e-4
-1.430, 1.975e-4
-1.429, 1.913e-4
-1.428, 1.882e-4
-1.427, 1.851e-4
-1.426, 1.851e-4
-1.425, 1.821e-4
-1.424, 1.790e-4
-1.423, 1.759e-4
-1.422, 1.728e-4
-1.421, 1.666e-4
-1.420, 1.605e-4
-1.419, 1.574e-4
-1.418, 1.512e-4
-1.417, 1.481e-4
-1.416, 1.451e-4
-1.415, 1.420e-4
-1.414, 1.420e-4
-1.413, 1.420e-4
-1.412, 1.389e-4
-1.411, 1.358e-4
-1.410, 1.358e-4
-1.409, 1.266e-4
-1.408, 1.235e-4
-1.407, 1.204e-4
-1.406, 1.142e-4
-1.405, 1.142e-4
-1.404, 1.081e-4
-1.403, 1.081e-4
-1.402, 1.081e-4
-1.401, 1.081e-4
-1.400, 1.050e-4
-1.399, 1.019e-4
-1.398, 9.882e-5
-1.397, 9.265e-5
-1.396, 8.957e-5
-1.395, 8.648e-5
-1.394, 8.340e-5
-1.393, 8.032e-5
-1.392, 8.032e-5
-1.391, 7.723e-5
-1.390, 7.723e-5
-1.389, 7.723e-5
-1.388, 7.415e-5
-1.387, 7.415e-5
-1.386, 7.107e-5
-1.385, 6.490e-5
-1.384, 6.182e-5
-1.383, 5.873e-5
-1.382, 5.565e-5
-1.381, 5.257e-5
-1.380, 5.257e-5
-1.379, 5.257e-5
-1.378, 5.257e-5
-1.377, 5.257e-5
-1.376, 4.949e-5
-1.375, 4.640e-5
-1.374, 4.640e-5
-1.373, 4.024e-5
-1.372, 3.715e-5
-1.371, 3.407e-5
-1.370, 3.099e-5
-1.369, 2.790e-5
-1.368, 3.099e-5
-1.367, 3.099e-5
-1.366, 2.790e-5
-1.365, 2.790e-5
-1.364, 2.482e-5
-1.363, 2.482e-5
-1.362, 2.174e-5
-1.361, 1.557e-5
-1.360, 1.557e-5
-1.359, 1.249e-5
-1.358, 9.405e-6
-1.357, 9.405e-6
-1.356, 9.405e-6
-1.355, 9.405e-6
-1.354, 9.405e-6
-1.353, 9.405e-6
-1.352, 6.322e-6
-1.351, 3.239e-6
-1.350, 1.559e-7
-1.349, -2.927e-6
-1.348, -6.010e-6
-1.347, -9.093e-6
-1.346, -9.093e-6
-1.345, -9.093e-6
-1.344, -9.093e-6
-1.343, -9.093e-6
-1.342, -9.093e-6
-1.341, -1.218e-5
-1.340, -1.218e-5
-1.339, -1.526e-5
-1.338, -1.834e-5
-1.337, -2.143e-5
-1.336, -2.451e-5
-1.335, -2.451e-5
-1.334, -2.759e-5
-1.333, -2.759e-5
-1.332, -2.759e-5
-1.331, -2.759e-5
-1.330, -2.759e-5
-1.329, -3.068e-5
-1.328, -3.068e-5
-1.327, -3.376e-5
-1.326, -3.684e-5
-1.325, -3.992e-5
-1.324, -4.301e-5
-1.323, -4.301e-5
-1.322, -4.609e-5
-1.321, -4.301e-5
-1.320, -4.301e-5
-1.319, -4.301e-5
-1.318, -4.609e-5
-1.317, -4.609e-5
-1.316, -4.917e-5
-1.315, -5.226e-5
-1.314, -5.534e-5
-1.313, -5.842e-5
-1.312, -6.151e-5
-1.311, -6.151e-5
-1.310, -6.151e-5
-1.309, -6.151e-5
-1.308, -6.151e-5
-1.307, -6.151e-5
-1.306, -6.151e-5
-1.305, -6.459e-5
-1.304, -6.767e-5
-1.303, -7.076e-5
-1.302, -7.384e-5
-1.301, -7.692e-5
-1.300, -8.000e-5
-1.299, -8.000e-5
-1.298, -8.000e-5
-1.297, -8.000e-5
-1.296, -7.692e-5
-1.295, -8.000e-5
-1.294, -8.000e-5
-1.293, -8.309e-5
-1.292, -8.617e-5
-1.291, -8.925e-5
-1.290, -9.234e-5
-1.289, -9.542e-5
-1.288, -9.542e-5
-1.287, -9.850e-5
-1.286, -9.850e-5
-1.285, -9.850e-5
-1.284, -9.850e-5
-1.283, -9.850e-5
-1.282, -1.016e-4
-1.281, -1.016e-4
-1.280, -1.078e-4
-1.279, -1.108e-4
-1.278, -1.139e-4
-1.277, -1.170e-4
-1.276, -1.170e-4
-1.275, -1.170e-4
-1.274, -1.170e-4
-1.273, -1.170e-4
-1.272, -1.170e-4
-1.271, -1.201e-4
-1.270, -1.201e-4
-1.269, -1.232e-4
-1.268, -1.293e-4
-1.267, -1.293e-4
-1.266, -1.355e-4
-1.265, -1.355e-4
-1.264, -1.386e-4
-1.263, -1.386e-4
-1.262, -1.386e-4
-1.261, -1.386e-4
-1.260, -1.386e-4
-1.259, -1.417e-4
-1.258, -1.417e-4
-1.257, -1.478e-4
-1.256, -1.509e-4
-1.255, -1.540e-4
-1.254, -1.571e-4
-1.253, -1.602e-4
-1.252, -1.602e-4
-1.251, -1.602e-4
-1.250, -1.632e-4
-1.249, -1.632e-4
-1.248, -1.632e-4
-1.247, -1.663e-4
-1.246, -1.663e-4
-1.245, -1.725e-4
-1.244, -1.756e-4
-1.243, -1.787e-4
-1.242, -1.817e-4
-1.241, -1.848e-4
-1.240, -1.848e-4
-1.239, -1.848e-4
-1.238, -1.848e-4
-1.237, -1.848e-4
-1.236, -1.910e-4
-1.235, -1.910e-4
-1.234, -1.941e-4
-1.233, -2.002e-4
-1.232, -2.033e-4
-1.231, -2.064e-4
-1.230, -2.095e-4
-1.229, -2.126e-4
-1.228, -2.157e-4
-1.227, -2.126e-4
-1.226, -2.126e-4
-1.225, -2.157e-4
-1.224, -2.157e-4
-1.223, -2.187e-4
-1.222, -2.249e-4
-1.221, -2.280e-4
-1.220, -2.342e-4
-1.219, -2.372e-4
-1.218, -2.403e-4
-1.217, -2.434e-4
-1.216, -2.434e-4
-1.215, -2.434e-4
-1.214, -2.465e-4
-1.213, -2.465e-4
-1.212, -2.496e-4
-1.211, -2.527e-4
-1.210, -2.588e-4
-1.209, -2.619e-4
-1.208, -2.681e-4
-1.207, -2.712e-4
-1.206, -2.742e-4
-1.205, -2.742e-4
-1.204, -2.773e-4
-1.203, -2.773e-4
-1.202, -2.804e-4
-1.201, -2.835e-4
-1.200, -2.866e-4
-1.199, -2.897e-4
-1.198, -2.958e-4
-1.197, -2.989e-4
-1.196, -3.051e-4
-1.195, -3.082e-4
-1.194, -3.112e-4
-1.193, -3.112e-4
-1.192, -3.143e-4
-1.191, -3.143e-4
-1.190, -3.143e-4
-1.189, -3.205e-4
-1.188, -3.205e-4
-1.187, -3.267e-4
-1.186, -3.328e-4
-1.185, -3.359e-4
-1.184, -3.421e-4
-1.183, -3.452e-4
-1.182, -3.513e-4
-1.181, -3.513e-4
-1.180, -3.544e-4
-1.179, -3.544e-4
-1.178, -3.575e-4
-1.177, -3.637e-4
-1.176, -3.667e-4
-1.175, -3.729e-4
-1.174, -3.791e-4
-1.173, -3.852e-4
-1.172, -3.883e-4
-1.171, -3.945e-4
-1.170, -3.976e-4
-1.169, -3.976e-4
-1.168, -4.006e-4
-1.167, -4.006e-4
-1.166, -4.037e-4
-1.165, -4.068e-4
-1.164, -4.130e-4
-1.163, -4.191e-4
-1.162, -4.222e-4
-1.161, -4.315e-4
-1.160, -4.346e-4
-1.159, -4.407e-4
-1.158, -4.438e-4
-1.157, -4.438e-4
-1.156, -4.469e-4
-1.155, -4.500e-4
-1.154, -4.561e-4
-1.153, -4.592e-4
-1.152, -4.654e-4
-1.151, -4.716e-4
-1.150, -4.777e-4
-1.149, -4.839e-4
-1.148, -4.901e-4
-1.147, -4.962e-4
-1.146, -4.962e-4
-1.145, -4.993e-4
-1.144, -5.024e-4
-1.143, -5.055e-4
-1.142, -5.116e-4
-1.141, -5.178e-4
-1.140, -5.240e-4
-1.139, -5.301e-4
-1.138, -5.363e-4
-1.137, -5.425e-4
-1.136, -5.517e-4
-1.135, -5.548e-4
-1.134, -5.548e-4
-1.133, -5.579e-4
-1.132, -5.610e-4
-1.131, -5.671e-4
-1.130, -5.702e-4
-1.129, -5.795e-4
-1.128, -5.856e-4
-1.127, -5.949e-4
-1.126, -6.041e-4
-1.125, -6.103e-4
-1.124, -6.134e-4
-1.123, -6.195e-4
-1.122, -6.226e-4
-1.121, -6.257e-4
-1.120, -6.257e-4
-1.119, -6.350e-4
-1.118, -6.442e-4
-1.117, -6.504e-4
-1.116, -6.596e-4
-1.115, -6.658e-4
-1.114, -6.750e-4
-1.113, -6.812e-4
-1.112, -6.874e-4
-1.111, -6.935e-4
-1.110, -6.966e-4
-1.109, -6.997e-4
-1.108, -7.059e-4
-1.107, -7.090e-4
-1.106, -7.151e-4
-1.105, -7.244e-4
-1.104, -7.305e-4
-1.103, -7.398e-4
-1.102, -7.490e-4
-1.101, -7.552e-4
-1.100, -7.614e-4
-1.099, -7.645e-4
-1.098, -7.706e-4
-1.097, -7.737e-4
-1.096, -7.799e-4
-1.095, -7.860e-4
-1.094, -7.953e-4
-1.093, -8.045e-4
-1.092, -8.138e-4
-1.091, -8.230e-4
-1.090, -8.323e-4
-1.089, -8.385e-4
-1.088, -8.446e-4
-1.087, -8.477e-4
-1.086, -8.539e-4
-1.085, -8.569e-4
-1.084, -8.631e-4
-1.083, -8.693e-4
-1.082, -8.785e-4
-1.081, -8.878e-4
-1.080, -8.970e-4
-1.079, -9.094e-4
-1.078, -9.155e-4
-1.077, -9.248e-4
-1.076, -9.309e-4
-1.075, -9.371e-4
-1.074, -9.402e-4
-1.073, -9.464e-4
-1.072, -9.525e-4
-1.071, -9.587e-4
-1.070, -9.710e-4
-1.069, -9.803e-4
-1.068, -9.895e-4
-1.067, -9.988e-4
-1.066, -1.008e-3
-1.065, -1.014e-3
-1.064, -1.020e-3
-1.063, -1.023e-3
-1.062, -1.030e-3
-1.061, -1.042e-3
-1.060, -1.048e-3
-1.059, -1.057e-3
-1.058, -1.064e-3
-1.057, -1.073e-3
-1.056, -1.082e-3
-1.055, -1.091e-3
-1.054, -1.101e-3
-1.053, -1.104e-3
-1.052, -1.113e-3
-1.051, -1.116e-3
-1.050, -1.122e-3
-1.049, -1.131e-3
-1.048, -1.138e-3
-1.047, -1.150e-3
-1.046, -1.159e-3
-1.045, -1.168e-3
-1.044, -1.181e-3
-1.043, -1.187e-3
-1.042, -1.193e-3
-1.041, -1.199e-3
-1.040, -1.202e-3
-1.039, -1.208e-3
-1.038, -1.218e-3
-1.037, -1.224e-3
-1.036, -1.233e-3
-1.035, -1.245e-3
-1.034, -1.255e-3
-1.033, -1.267e-3
-1.032, -1.279e-3
-1.031, -1.289e-3
-1.030, -1.295e-3
-1.029, -1.301e-3
-1.028, -1.304e-3
-1.027, -1.310e-3
-1.026, -1.313e-3
-1.025, -1.322e-3
-1.024, -1.329e-3
-1.023, -1.338e-3
-1.022, -1.347e-3
-1.021, -1.359e-3
-1.020, -1.366e-3
-1.019, -1.372e-3
-1.018, -1.378e-3
-1.017, -1.384e-3
-1.016, -1.390e-3
-1.015, -1.396e-3
-1.014, -1.403e-3
-1.013, -1.409e-3
-1.012, -1.415e-3
-1.011, -1.418e-3
-1.010, -1.424e-3
-1.009, -1.433e-3
-1.008, -1.440e-3
-1.007, -1.449e-3
-1.006, -1.458e-3
-1.005, -1.464e-3
-1.004, -1.477e-3
-1.003, -1.483e-3
-1.002, -1.495e-3
-1.001, -1.511e-3
