Apr. 5, 2025   14:42:47
Linear Sweep Voltammetry
File: c:/users/guazh/data/banditlqround7_x0exp994_r5/2025-03-28-exp990\1acid_3ac-2025-04-05t14_39_33-lsvinphos\1acid_3ac_lsv_50mvs_efin_-2300mv.bin
Data Source:  Experiment
Instrument Model:  CHI760E
Header: LSV ran at 50 mVs with Efin at -2300mV
Note: 

Init E (V) = -0.6
Final E (V) = -2.3
Scan Rate (V/s) = 0.05
Sample Interval (V) = 0.001
Quiet Time (sec) = 2
Sensitivity (A/V) = 1e-4
Comp R (ohm) = 9.1

Results:

Channel 1:
Ep = -2.037V
ip = 6.752e-4A
Ah = 1.028e-3C

Potential/V, Current/A

-0.600, 2.865e-6
-0.601, 2.983e-6
-0.602, 3.034e-6
-0.603, 3.062e-6
-0.604, 3.099e-6
-0.605, 3.139e-6
-0.606, 3.168e-6
-0.607, 3.195e-6
-0.608, 3.226e-6
-0.609, 3.261e-6
-0.610, 3.293e-6
-0.611, 3.329e-6
-0.612, 3.358e-6
-0.613, 3.385e-6
-0.614, 3.410e-6
-0.615, 3.443e-6
-0.616, 3.473e-6
-0.617, 3.503e-6
-0.618, 3.538e-6
-0.619, 3.568e-6
-0.620, 3.605e-6
-0.621, 3.634e-6
-0.622, 3.659e-6
-0.623, 3.691e-6
-0.624, 3.724e-6
-0.625, 3.757e-6
-0.626, 3.787e-6
-0.627, 3.824e-6
-0.628, 3.855e-6
-0.629, 3.885e-6
-0.630, 3.920e-6
-0.631, 3.953e-6
-0.632, 3.978e-6
-0.633, 4.018e-6
-0.634, 4.052e-6
-0.635, 4.074e-6
-0.636, 4.104e-6
-0.637, 4.134e-6
-0.638, 4.168e-6
-0.639, 4.206e-6
-0.640, 4.239e-6
-0.641, 4.264e-6
-0.642, 4.293e-6
-0.643, 4.325e-6
-0.644, 4.359e-6
-0.645, 4.395e-6
-0.646, 4.434e-6
-0.647, 4.461e-6
-0.648, 4.490e-6
-0.649, 4.525e-6
-0.650, 4.560e-6
-0.651, 4.598e-6
-0.652, 4.630e-6
-0.653, 4.665e-6
-0.654, 4.699e-6
-0.655, 4.730e-6
-0.656, 4.759e-6
-0.657, 4.791e-6
-0.658, 4.824e-6
-0.659, 4.857e-6
-0.660, 4.892e-6
-0.661, 4.923e-6
-0.662, 4.957e-6
-0.663, 4.989e-6
-0.664, 5.028e-6
-0.665, 5.077e-6
-0.666, 5.111e-6
-0.667, 5.128e-6
-0.668, 5.156e-6
-0.669, 5.188e-6
-0.670, 5.222e-6
-0.671, 5.256e-6
-0.672, 5.287e-6
-0.673, 5.319e-6
-0.674, 5.356e-6
-0.675, 5.389e-6
-0.676, 5.419e-6
-0.677, 5.450e-6
-0.678, 5.492e-6
-0.679, 5.523e-6
-0.680, 5.556e-6
-0.681, 5.585e-6
-0.682, 5.609e-6
-0.683, 5.638e-6
-0.684, 5.670e-6
-0.685, 5.703e-6
-0.686, 5.738e-6
-0.687, 5.768e-6
-0.688, 5.797e-6
-0.689, 5.829e-6
-0.690, 5.860e-6
-0.691, 5.890e-6
-0.692, 5.917e-6
-0.693, 5.943e-6
-0.694, 5.975e-6
-0.695, 6.004e-6
-0.696, 6.032e-6
-0.697, 6.062e-6
-0.698, 6.090e-6
-0.699, 6.122e-6
-0.700, 6.145e-6
-0.701, 6.171e-6
-0.702, 6.202e-6
-0.703, 6.226e-6
-0.704, 6.248e-6
-0.705, 6.277e-6
-0.706, 6.301e-6
-0.707, 6.326e-6
-0.708, 6.353e-6
-0.709, 6.379e-6
-0.710, 6.411e-6
-0.711, 6.434e-6
-0.712, 6.454e-6
-0.713, 6.476e-6
-0.714, 6.502e-6
-0.715, 6.528e-6
-0.716, 6.548e-6
-0.717, 6.570e-6
-0.718, 6.596e-6
-0.719, 6.615e-6
-0.720, 6.638e-6
-0.721, 6.659e-6
-0.722, 6.679e-6
-0.723, 6.702e-6
-0.724, 6.726e-6
-0.725, 6.742e-6
-0.726, 6.759e-6
-0.727, 6.777e-6
-0.728, 6.796e-6
-0.729, 6.817e-6
-0.730, 6.834e-6
-0.731, 6.851e-6
-0.732, 6.866e-6
-0.733, 6.881e-6
-0.734, 6.899e-6
-0.735, 6.918e-6
-0.736, 6.930e-6
-0.737, 6.948e-6
-0.738, 6.964e-6
-0.739, 6.972e-6
-0.740, 6.987e-6
-0.741, 6.997e-6
-0.742, 7.010e-6
-0.743, 7.021e-6
-0.744, 7.035e-6
-0.745, 7.046e-6
-0.746, 7.057e-6
-0.747, 7.067e-6
-0.748, 7.077e-6
-0.749, 7.088e-6
-0.750, 7.100e-6
-0.751, 7.107e-6
-0.752, 7.116e-6
-0.753, 7.124e-6
-0.754, 7.131e-6
-0.755, 7.140e-6
-0.756, 7.150e-6
-0.757, 7.152e-6
-0.758, 7.161e-6
-0.759, 7.175e-6
-0.760, 7.173e-6
-0.761, 7.176e-6
-0.762, 7.182e-6
-0.763, 7.187e-6
-0.764, 7.190e-6
-0.765, 7.198e-6
-0.766, 7.199e-6
-0.767, 7.198e-6
-0.768, 7.205e-6
-0.769, 7.215e-6
-0.770, 7.219e-6
-0.771, 7.214e-6
-0.772, 7.212e-6
-0.773, 7.212e-6
-0.774, 7.213e-6
-0.775, 7.217e-6
-0.776, 7.216e-6
-0.777, 7.206e-6
-0.778, 7.198e-6
-0.779, 7.200e-6
-0.780, 7.199e-6
-0.781, 7.195e-6
-0.782, 7.194e-6
-0.783, 7.191e-6
-0.784, 7.194e-6
-0.785, 7.196e-6
-0.786, 7.190e-6
-0.787, 7.186e-6
-0.788, 7.182e-6
-0.789, 7.179e-6
-0.790, 7.179e-6
-0.791, 7.175e-6
-0.792, 7.170e-6
-0.793, 7.165e-6
-0.794, 7.160e-6
-0.795, 7.156e-6
-0.796, 7.149e-6
-0.797, 7.142e-6
-0.798, 7.137e-6
-0.799, 7.131e-6
-0.800, 7.126e-6
-0.801, 7.120e-6
-0.802, 7.112e-6
-0.803, 7.104e-6
-0.804, 7.099e-6
-0.805, 7.093e-6
-0.806, 7.085e-6
-0.807, 7.076e-6
-0.808, 7.069e-6
-0.809, 7.063e-6
-0.810, 7.056e-6
-0.811, 7.048e-6
-0.812, 7.040e-6
-0.813, 7.031e-6
-0.814, 7.025e-6
-0.815, 7.018e-6
-0.816, 7.008e-6
-0.817, 7.000e-6
-0.818, 6.990e-6
-0.819, 6.987e-6
-0.820, 6.982e-6
-0.821, 6.970e-6
-0.822, 6.961e-6
-0.823, 6.950e-6
-0.824, 6.942e-6
-0.825, 6.936e-6
-0.826, 6.925e-6
-0.827, 6.914e-6
-0.828, 6.906e-6
-0.829, 6.898e-6
-0.830, 6.891e-6
-0.831, 6.880e-6
-0.832, 6.873e-6
-0.833, 6.863e-6
-0.834, 6.852e-6
-0.835, 6.846e-6
-0.836, 6.836e-6
-0.837, 6.825e-6
-0.838, 6.817e-6
-0.839, 6.808e-6
-0.840, 6.799e-6
-0.841, 6.788e-6
-0.842, 6.777e-6
-0.843, 6.768e-6
-0.844, 6.760e-6
-0.845, 6.751e-6
-0.846, 6.742e-6
-0.847, 6.731e-6
-0.848, 6.721e-6
-0.849, 6.715e-6
-0.850, 6.706e-6
-0.851, 6.697e-6
-0.852, 6.687e-6
-0.853, 6.675e-6
-0.854, 6.667e-6
-0.855, 6.659e-6
-0.856, 6.650e-6
-0.857, 6.641e-6
-0.858, 6.630e-6
-0.859, 6.624e-6
-0.860, 6.616e-6
-0.861, 6.606e-6
-0.862, 6.597e-6
-0.863, 6.586e-6
-0.864, 6.578e-6
-0.865, 6.571e-6
-0.866, 6.560e-6
-0.867, 6.551e-6
-0.868, 6.542e-6
-0.869, 6.534e-6
-0.870, 6.529e-6
-0.871, 6.520e-6
-0.872, 6.508e-6
-0.873, 6.501e-6
-0.874, 6.497e-6
-0.875, 6.499e-6
-0.876, 6.490e-6
-0.877, 6.477e-6
-0.878, 6.461e-6
-0.879, 6.453e-6
-0.880, 6.447e-6
-0.881, 6.438e-6
-0.882, 6.429e-6
-0.883, 6.421e-6
-0.884, 6.415e-6
-0.885, 6.409e-6
-0.886, 6.399e-6
-0.887, 6.392e-6
-0.888, 6.384e-6
-0.889, 6.379e-6
-0.890, 6.372e-6
-0.891, 6.363e-6
-0.892, 6.355e-6
-0.893, 6.347e-6
-0.894, 6.344e-6
-0.895, 6.345e-6
-0.896, 6.338e-6
-0.897, 6.329e-6
-0.898, 6.320e-6
-0.899, 6.316e-6
-0.900, 6.306e-6
-0.901, 6.298e-6
-0.902, 6.290e-6
-0.903, 6.282e-6
-0.904, 6.276e-6
-0.905, 6.272e-6
-0.906, 6.264e-6
-0.907, 6.258e-6
-0.908, 6.251e-6
-0.909, 6.250e-6
-0.910, 6.248e-6
-0.911, 6.239e-6
-0.912, 6.231e-6
-0.913, 6.224e-6
-0.914, 6.219e-6
-0.915, 6.215e-6
-0.916, 6.209e-6
-0.917, 6.203e-6
-0.918, 6.199e-6
-0.919, 6.195e-6
-0.920, 6.191e-6
-0.921, 6.185e-6
-0.922, 6.179e-6
-0.923, 6.173e-6
-0.924, 6.168e-6
-0.925, 6.165e-6
-0.926, 6.162e-6
-0.927, 6.156e-6
-0.928, 6.151e-6
-0.929, 6.147e-6
-0.930, 6.143e-6
-0.931, 6.139e-6
-0.932, 6.134e-6
-0.933, 6.126e-6
-0.934, 6.125e-6
-0.935, 6.123e-6
-0.936, 6.118e-6
-0.937, 6.114e-6
-0.938, 6.108e-6
-0.939, 6.104e-6
-0.940, 6.100e-6
-0.941, 6.098e-6
-0.942, 6.092e-6
-0.943, 6.087e-6
-0.944, 6.085e-6
-0.945, 6.081e-6
-0.946, 6.076e-6
-0.947, 6.072e-6
-0.948, 6.070e-6
-0.949, 6.067e-6
-0.950, 6.066e-6
-0.951, 6.060e-6
-0.952, 6.055e-6
-0.953, 6.052e-6
-0.954, 6.050e-6
-0.955, 6.049e-6
-0.956, 6.043e-6
-0.957, 6.040e-6
-0.958, 6.037e-6
-0.959, 6.035e-6
-0.960, 6.034e-6
-0.961, 6.029e-6
-0.962, 6.024e-6
-0.963, 6.022e-6
-0.964, 6.022e-6
-0.965, 6.018e-6
-0.966, 6.015e-6
-0.967, 6.013e-6
-0.968, 6.010e-6
-0.969, 6.009e-6
-0.970, 6.008e-6
-0.971, 6.003e-6
-0.972, 6.001e-6
-0.973, 5.999e-6
-0.974, 5.997e-6
-0.975, 5.996e-6
-0.976, 5.994e-6
-0.977, 5.990e-6
-0.978, 5.988e-6
-0.979, 5.989e-6
-0.980, 5.986e-6
-0.981, 5.979e-6
-0.982, 5.976e-6
-0.983, 5.972e-6
-0.984, 5.971e-6
-0.985, 5.969e-6
-0.986, 5.966e-6
-0.987, 5.965e-6
-0.988, 5.965e-6
-0.989, 5.965e-6
-0.990, 5.963e-6
-0.991, 5.959e-6
-0.992, 5.958e-6
-0.993, 5.956e-6
-0.994, 5.957e-6
-0.995, 5.966e-6
-0.996, 5.958e-6
-0.997, 5.951e-6
-0.998, 5.951e-6
-0.999, 5.950e-6
-1.000, 5.949e-6
-1.001, 5.947e-6
-1.002, 5.944e-6
-1.003, 5.945e-6
-1.004, 5.943e-6
-1.005, 5.943e-6
-1.006, 5.940e-6
-1.007, 5.938e-6
-1.008, 5.938e-6
-1.009, 5.939e-6
-1.010, 5.939e-6
-1.011, 5.937e-6
-1.012, 5.934e-6
-1.013, 5.932e-6
-1.014, 5.935e-6
-1.015, 5.934e-6
-1.016, 5.933e-6
-1.017, 5.931e-6
-1.018, 5.931e-6
-1.019, 5.931e-6
-1.020, 5.932e-6
-1.021, 5.929e-6
-1.022, 5.927e-6
-1.023, 5.924e-6
-1.024, 5.926e-6
-1.025, 5.925e-6
-1.026, 5.922e-6
-1.027, 5.919e-6
-1.028, 5.918e-6
-1.029, 5.920e-6
-1.030, 5.923e-6
-1.031, 5.920e-6
-1.032, 5.917e-6
-1.033, 5.916e-6
-1.034, 5.915e-6
-1.035, 5.916e-6
-1.036, 5.914e-6
-1.037, 5.913e-6
-1.038, 5.912e-6
-1.039, 5.912e-6
-1.040, 5.912e-6
-1.041, 5.910e-6
-1.042, 5.908e-6
-1.043, 5.909e-6
-1.044, 5.909e-6
-1.045, 5.909e-6
-1.046, 5.908e-6
-1.047, 5.907e-6
-1.048, 5.905e-6
-1.049, 5.907e-6
-1.050, 5.906e-6
-1.051, 5.904e-6
-1.052, 5.903e-6
-1.053, 5.903e-6
-1.054, 5.904e-6
-1.055, 5.904e-6
-1.056, 5.902e-6
-1.057, 5.901e-6
-1.058, 5.900e-6
-1.059, 5.901e-6
-1.060, 5.901e-6
-1.061, 5.899e-6
-1.062, 5.898e-6
-1.063, 5.898e-6
-1.064, 5.898e-6
-1.065, 5.898e-6
-1.066, 5.896e-6
-1.067, 5.895e-6
-1.068, 5.895e-6
-1.069, 5.895e-6
-1.070, 5.895e-6
-1.071, 5.894e-6
-1.072, 5.892e-6
-1.073, 5.892e-6
-1.074, 5.892e-6
-1.075, 5.894e-6
-1.076, 5.892e-6
-1.077, 5.891e-6
-1.078, 5.891e-6
-1.079, 5.890e-6
-1.080, 5.889e-6
-1.081, 5.888e-6
-1.082, 5.886e-6
-1.083, 5.885e-6
-1.084, 5.886e-6
-1.085, 5.885e-6
-1.086, 5.884e-6
-1.087, 5.883e-6
-1.088, 5.882e-6
-1.089, 5.883e-6
-1.090, 5.882e-6
-1.091, 5.880e-6
-1.092, 5.879e-6
-1.093, 5.878e-6
-1.094, 5.878e-6
-1.095, 5.876e-6
-1.096, 5.873e-6
-1.097, 5.872e-6
-1.098, 5.871e-6
-1.099, 5.871e-6
-1.100, 5.871e-6
-1.101, 5.869e-6
-1.102, 5.868e-6
-1.103, 5.865e-6
-1.104, 5.866e-6
-1.105, 5.865e-6
-1.106, 5.862e-6
-1.107, 5.860e-6
-1.108, 5.858e-6
-1.109, 5.858e-6
-1.110, 5.857e-6
-1.111, 5.853e-6
-1.112, 5.851e-6
-1.113, 5.852e-6
-1.114, 5.850e-6
-1.115, 5.849e-6
-1.116, 5.847e-6
-1.117, 5.844e-6
-1.118, 5.843e-6
-1.119, 5.841e-6
-1.120, 5.840e-6
-1.121, 5.837e-6
-1.122, 5.834e-6
-1.123, 5.832e-6
-1.124, 5.832e-6
-1.125, 5.829e-6
-1.126, 5.826e-6
-1.127, 5.822e-6
-1.128, 5.821e-6
-1.129, 5.820e-6
-1.130, 5.817e-6
-1.131, 5.813e-6
-1.132, 5.811e-6
-1.133, 5.809e-6
-1.134, 5.809e-6
-1.135, 5.806e-6
-1.136, 5.802e-6
-1.137, 5.798e-6
-1.138, 5.795e-6
-1.139, 5.797e-6
-1.140, 5.795e-6
-1.141, 5.790e-6
-1.142, 5.790e-6
-1.143, 5.784e-6
-1.144, 5.782e-6
-1.145, 5.781e-6
-1.146, 5.778e-6
-1.147, 5.777e-6
-1.148, 5.771e-6
-1.149, 5.769e-6
-1.150, 5.767e-6
-1.151, 5.765e-6
-1.152, 5.763e-6
-1.153, 5.761e-6
-1.154, 5.759e-6
-1.155, 5.756e-6
-1.156, 5.752e-6
-1.157, 5.737e-6
-1.158, 5.732e-6
-1.159, 5.730e-6
-1.160, 5.726e-6
-1.161, 5.722e-6
-1.162, 5.717e-6
-1.163, 5.715e-6
-1.164, 5.714e-6
-1.165, 5.712e-6
-1.166, 5.712e-6
-1.167, 5.708e-6
-1.168, 5.704e-6
-1.169, 5.703e-6
-1.170, 5.700e-6
-1.171, 5.697e-6
-1.172, 5.694e-6
-1.173, 5.689e-6
-1.174, 5.689e-6
-1.175, 5.685e-6
-1.176, 5.681e-6
-1.177, 5.679e-6
-1.178, 5.677e-6
-1.179, 5.674e-6
-1.180, 5.672e-6
-1.181, 5.669e-6
-1.182, 5.666e-6
-1.183, 5.662e-6
-1.184, 5.660e-6
-1.185, 5.659e-6
-1.186, 5.654e-6
-1.187, 5.652e-6
-1.188, 5.648e-6
-1.189, 5.646e-6
-1.190, 5.645e-6
-1.191, 5.640e-6
-1.192, 5.638e-6
-1.193, 5.637e-6
-1.194, 5.635e-6
-1.195, 5.634e-6
-1.196, 5.630e-6
-1.197, 5.630e-6
-1.198, 5.626e-6
-1.199, 5.617e-6
-1.200, 5.614e-6
-1.201, 5.617e-6
-1.202, 5.616e-6
-1.203, 5.614e-6
-1.204, 5.621e-6
-1.205, 5.618e-6
-1.206, 5.615e-6
-1.207, 5.611e-6
-1.208, 5.609e-6
-1.209, 5.608e-6
-1.210, 5.606e-6
-1.211, 5.593e-6
-1.212, 5.591e-6
-1.213, 5.589e-6
-1.214, 5.589e-6
-1.215, 5.587e-6
-1.216, 5.585e-6
-1.217, 5.583e-6
-1.218, 5.581e-6
-1.219, 5.583e-6
-1.220, 5.588e-6
-1.221, 5.590e-6
-1.222, 5.591e-6
-1.223, 5.590e-6
-1.224, 5.591e-6
-1.225, 5.585e-6
-1.226, 5.575e-6
-1.227, 5.573e-6
-1.228, 5.572e-6
-1.229, 5.576e-6
-1.230, 5.579e-6
-1.231, 5.585e-6
-1.232, 5.582e-6
-1.233, 5.583e-6
-1.234, 5.587e-6
-1.235, 5.587e-6
-1.236, 5.584e-6
-1.237, 5.570e-6
-1.238, 5.569e-6
-1.239, 5.570e-6
-1.240, 5.570e-6
-1.241, 5.570e-6
-1.242, 5.569e-6
-1.243, 5.570e-6
-1.244, 5.580e-6
-1.245, 5.587e-6
-1.246, 5.585e-6
-1.247, 5.583e-6
-1.248, 5.573e-6
-1.249, 5.574e-6
-1.250, 5.574e-6
-1.251, 5.574e-6
-1.252, 5.574e-6
-1.253, 5.576e-6
-1.254, 5.578e-6
-1.255, 5.582e-6
-1.256, 5.585e-6
-1.257, 5.588e-6
-1.258, 5.589e-6
-1.259, 5.594e-6
-1.260, 5.597e-6
-1.261, 5.598e-6
-1.262, 5.598e-6
-1.263, 5.599e-6
-1.264, 5.602e-6
-1.265, 5.601e-6
-1.266, 5.599e-6
-1.267, 5.592e-6
-1.268, 5.591e-6
-1.269, 5.594e-6
-1.270, 5.595e-6
-1.271, 5.596e-6
-1.272, 5.598e-6
-1.273, 5.601e-6
-1.274, 5.604e-6
-1.275, 5.605e-6
-1.276, 5.606e-6
-1.277, 5.606e-6
-1.278, 5.609e-6
-1.279, 5.612e-6
-1.280, 5.619e-6
-1.281, 5.619e-6
-1.282, 5.648e-6
-1.283, 5.632e-6
-1.284, 5.624e-6
-1.285, 5.626e-6
-1.286, 5.628e-6
-1.287, 5.630e-6
-1.288, 5.636e-6
-1.289, 5.640e-6
-1.290, 5.647e-6
-1.291, 5.651e-6
-1.292, 5.652e-6
-1.293, 5.660e-6
-1.294, 5.695e-6
-1.295, 5.668e-6
-1.296, 5.666e-6
-1.297, 5.665e-6
-1.298, 5.668e-6
-1.299, 5.674e-6
-1.300, 5.679e-6
-1.301, 5.679e-6
-1.302, 5.680e-6
-1.303, 5.677e-6
-1.304, 5.682e-6
-1.305, 5.685e-6
-1.306, 5.687e-6
-1.307, 5.692e-6
-1.308, 5.701e-6
-1.309, 5.706e-6
-1.310, 5.719e-6
-1.311, 5.725e-6
-1.312, 5.730e-6
-1.313, 5.729e-6
-1.314, 5.729e-6
-1.315, 5.726e-6
-1.316, 5.727e-6
-1.317, 5.731e-6
-1.318, 5.736e-6
-1.319, 5.742e-6
-1.320, 5.746e-6
-1.321, 5.749e-6
-1.322, 5.752e-6
-1.323, 5.759e-6
-1.324, 5.778e-6
-1.325, 5.784e-6
-1.326, 5.783e-6
-1.327, 5.789e-6
-1.328, 5.796e-6
-1.329, 5.795e-6
-1.330, 5.796e-6
-1.331, 5.800e-6
-1.332, 5.805e-6
-1.333, 5.806e-6
-1.334, 5.803e-6
-1.335, 5.807e-6
-1.336, 5.808e-6
-1.337, 5.812e-6
-1.338, 5.816e-6
-1.339, 5.823e-6
-1.340, 5.827e-6
-1.341, 5.830e-6
-1.342, 5.834e-6
-1.343, 5.838e-6
-1.344, 5.846e-6
-1.345, 5.849e-6
-1.346, 5.853e-6
-1.347, 5.868e-6
-1.348, 5.877e-6
-1.349, 5.886e-6
-1.350, 5.891e-6
-1.351, 5.893e-6
-1.352, 5.885e-6
-1.353, 5.885e-6
-1.354, 5.890e-6
-1.355, 5.895e-6
-1.356, 5.898e-6
-1.357, 5.904e-6
-1.358, 5.909e-6
-1.359, 5.914e-6
-1.360, 5.920e-6
-1.361, 5.922e-6
-1.362, 5.929e-6
-1.363, 5.945e-6
-1.364, 5.951e-6
-1.365, 5.949e-6
-1.366, 5.945e-6
-1.367, 5.949e-6
-1.368, 5.956e-6
-1.369, 5.973e-6
-1.370, 5.979e-6
-1.371, 5.983e-6
-1.372, 5.990e-6
-1.373, 5.995e-6
-1.374, 6.004e-6
-1.375, 5.998e-6
-1.376, 5.997e-6
-1.377, 6.002e-6
-1.378, 6.006e-6
-1.379, 6.015e-6
-1.380, 6.020e-6
-1.381, 6.022e-6
-1.382, 6.030e-6
-1.383, 6.036e-6
-1.384, 6.045e-6
-1.385, 6.052e-6
-1.386, 6.063e-6
-1.387, 6.076e-6
-1.388, 6.077e-6
-1.389, 6.083e-6
-1.390, 6.090e-6
-1.391, 6.086e-6
-1.392, 6.086e-6
-1.393, 6.092e-6
-1.394, 6.099e-6
-1.395, 6.111e-6
-1.396, 6.120e-6
-1.397, 6.125e-6
-1.398, 6.132e-6
-1.399, 6.138e-6
-1.400, 6.144e-6
-1.401, 6.149e-6
-1.402, 6.154e-6
-1.403, 6.160e-6
-1.404, 6.168e-6
-1.405, 6.177e-6
-1.406, 6.171e-6
-1.407, 6.174e-6
-1.408, 6.180e-6
-1.409, 6.189e-6
-1.410, 6.193e-6
-1.411, 6.199e-6
-1.412, 6.204e-6
-1.413, 6.210e-6
-1.414, 6.218e-6
-1.415, 6.224e-6
-1.416, 6.228e-6
-1.417, 6.235e-6
-1.418, 6.244e-6
-1.419, 6.255e-6
-1.420, 6.262e-6
-1.421, 6.274e-6
-1.422, 6.285e-6
-1.423, 6.288e-6
-1.424, 6.294e-6
-1.425, 6.301e-6
-1.426, 6.306e-6
-1.427, 6.314e-6
-1.428, 6.323e-6
-1.429, 6.332e-6
-1.430, 6.340e-6
-1.431, 6.344e-6
-1.432, 6.351e-6
-1.433, 6.360e-6
-1.434, 6.371e-6
-1.435, 6.373e-6
-1.436, 6.372e-6
-1.437, 6.377e-6
-1.438, 6.387e-6
-1.439, 6.395e-6
-1.440, 6.402e-6
-1.441, 6.408e-6
-1.442, 6.416e-6
-1.443, 6.425e-6
-1.444, 6.434e-6
-1.445, 6.441e-6
-1.446, 6.448e-6
-1.447, 6.456e-6
-1.448, 6.469e-6
-1.449, 6.487e-6
-1.450, 6.493e-6
-1.451, 6.501e-6
-1.452, 6.508e-6
-1.453, 6.517e-6
-1.454, 6.528e-6
-1.455, 6.534e-6
-1.456, 6.542e-6
-1.457, 6.550e-6
-1.458, 6.559e-6
-1.459, 6.571e-6
-1.460, 6.579e-6
-1.461, 6.585e-6
-1.462, 6.589e-6
-1.463, 6.596e-6
-1.464, 6.606e-6
-1.465, 6.615e-6
-1.466, 6.623e-6
-1.467, 6.633e-6
-1.468, 6.643e-6
-1.469, 6.654e-6
-1.470, 6.662e-6
-1.471, 6.672e-6
-1.472, 6.681e-6
-1.473, 6.693e-6
-1.474, 6.703e-6
-1.475, 6.714e-6
-1.476, 6.726e-6
-1.477, 6.740e-6
-1.478, 6.748e-6
-1.479, 6.759e-6
-1.480, 6.767e-6
-1.481, 6.790e-6
-1.482, 6.807e-6
-1.483, 6.815e-6
-1.484, 6.817e-6
-1.485, 6.822e-6
-1.486, 6.831e-6
-1.487, 6.840e-6
-1.488, 6.852e-6
-1.489, 6.866e-6
-1.490, 6.875e-6
-1.491, 6.890e-6
-1.492, 6.908e-6
-1.493, 6.928e-6
-1.494, 6.939e-6
-1.495, 6.947e-6
-1.496, 6.958e-6
-1.497, 6.967e-6
-1.498, 6.970e-6
-1.499, 6.984e-6
-1.500, 6.995e-6
-1.501, 7.005e-6
-1.502, 7.016e-6
-1.503, 7.030e-6
-1.504, 7.046e-6
-1.505, 7.058e-6
-1.506, 7.071e-6
-1.507, 7.099e-6
-1.508, 7.120e-6
-1.509, 7.119e-6
-1.510, 7.128e-6
-1.511, 7.140e-6
-1.512, 7.154e-6
-1.513, 7.170e-6
-1.514, 7.185e-6
-1.515, 7.214e-6
-1.516, 7.230e-6
-1.517, 7.249e-6
-1.518, 7.266e-6
-1.519, 7.279e-6
-1.520, 7.284e-6
-1.521, 7.287e-6
-1.522, 7.301e-6
-1.523, 7.319e-6
-1.524, 7.337e-6
-1.525, 7.351e-6
-1.526, 7.367e-6
-1.527, 7.381e-6
-1.528, 7.399e-6
-1.529, 7.419e-6
-1.530, 7.435e-6
-1.531, 7.451e-6
-1.532, 7.470e-6
-1.533, 7.489e-6
-1.534, 7.508e-6
-1.535, 7.525e-6
-1.536, 7.544e-6
-1.537, 7.562e-6
-1.538, 7.583e-6
-1.539, 7.617e-6
-1.540, 7.639e-6
-1.541, 7.648e-6
-1.542, 7.660e-6
-1.543, 7.680e-6
-1.544, 7.706e-6
-1.545, 7.730e-6
-1.546, 7.746e-6
-1.547, 7.770e-6
-1.548, 7.789e-6
-1.549, 7.819e-6
-1.550, 7.834e-6
-1.551, 7.852e-6
-1.552, 7.875e-6
-1.553, 7.899e-6
-1.554, 7.922e-6
-1.555, 7.948e-6
-1.556, 7.988e-6
-1.557, 8.005e-6
-1.558, 8.016e-6
-1.559, 8.040e-6
-1.560, 8.066e-6
-1.561, 8.098e-6
-1.562, 8.126e-6
-1.563, 8.152e-6
-1.564, 8.182e-6
-1.565, 8.206e-6
-1.566, 8.234e-6
-1.567, 8.258e-6
-1.568, 8.284e-6
-1.569, 8.311e-6
-1.570, 8.335e-6
-1.571, 8.361e-6
-1.572, 8.388e-6
-1.573, 8.418e-6
-1.574, 8.467e-6
-1.575, 8.500e-6
-1.576, 8.515e-6
-1.577, 8.536e-6
-1.578, 8.566e-6
-1.579, 8.598e-6
-1.580, 8.627e-6
-1.581, 8.659e-6
-1.582, 8.701e-6
-1.583, 8.722e-6
-1.584, 8.755e-6
-1.585, 8.788e-6
-1.586, 8.818e-6
-1.587, 8.864e-6
-1.588, 8.904e-6
-1.589, 8.933e-6
-1.590, 8.955e-6
-1.591, 8.987e-6
-1.592, 9.020e-6
-1.593, 9.059e-6
-1.594, 9.094e-6
-1.595, 9.131e-6
-1.596, 9.168e-6
-1.597, 9.205e-6
-1.598, 9.262e-6
-1.599, 9.294e-6
-1.600, 9.321e-6
-1.601, 9.356e-6
-1.602, 9.394e-6
-1.603, 9.447e-6
-1.604, 9.484e-6
-1.605, 9.515e-6
-1.606, 9.562e-6
-1.607, 9.601e-6
-1.608, 9.642e-6
-1.609, 9.688e-6
-1.610, 9.745e-6
-1.611, 9.799e-6
-1.612, 9.821e-6
-1.613, 9.866e-6
-1.614, 9.913e-6
-1.615, 9.957e-6
-1.616, 1.000e-5
-1.617, 1.005e-5
-1.618, 1.010e-5
-1.619, 1.015e-5
-1.620, 1.021e-5
-1.621, 1.025e-5
-1.622, 1.030e-5
-1.623, 1.036e-5
-1.624, 1.040e-5
-1.625, 1.046e-5
-1.626, 1.053e-5
-1.627, 1.056e-5
-1.628, 1.062e-5
-1.629, 1.067e-5
-1.630, 1.073e-5
-1.631, 1.079e-5
-1.632, 1.085e-5
-1.633, 1.091e-5
-1.634, 1.097e-5
-1.635, 1.103e-5
-1.636, 1.109e-5
-1.637, 1.116e-5
-1.638, 1.124e-5
-1.639, 1.130e-5
-1.640, 1.135e-5
-1.641, 1.142e-5
-1.642, 1.148e-5
-1.643, 1.155e-5
-1.644, 1.162e-5
-1.645, 1.170e-5
-1.646, 1.178e-5
-1.647, 1.184e-5
-1.648, 1.191e-5
-1.649, 1.199e-5
-1.650, 1.205e-5
-1.651, 1.214e-5
-1.652, 1.220e-5
-1.653, 1.227e-5
-1.654, 1.236e-5
-1.655, 1.244e-5
-1.656, 1.252e-5
-1.657, 1.261e-5
-1.658, 1.269e-5
-1.659, 1.279e-5
-1.660, 1.288e-5
-1.661, 1.297e-5
-1.662, 1.306e-5
-1.663, 1.315e-5
-1.664, 1.324e-5
-1.665, 1.334e-5
-1.666, 1.344e-5
-1.667, 1.354e-5
-1.668, 1.365e-5
-1.669, 1.375e-5
-1.670, 1.385e-5
-1.671, 1.396e-5
-1.672, 1.407e-5
-1.673, 1.419e-5
-1.674, 1.428e-5
-1.675, 1.439e-5
-1.676, 1.451e-5
-1.677, 1.463e-5
-1.678, 1.475e-5
-1.679, 1.488e-5
-1.680, 1.500e-5
-1.681, 1.513e-5
-1.682, 1.526e-5
-1.683, 1.539e-5
-1.684, 1.553e-5
-1.685, 1.567e-5
-1.686, 1.581e-5
-1.687, 1.595e-5
-1.688, 1.611e-5
-1.689, 1.626e-5
-1.690, 1.641e-5
-1.691, 1.656e-5
-1.692, 1.672e-5
-1.693, 1.688e-5
-1.694, 1.704e-5
-1.695, 1.720e-5
-1.696, 1.737e-5
-1.697, 1.754e-5
-1.698, 1.773e-5
-1.699, 1.790e-5
-1.700, 1.808e-5
-1.701, 1.826e-5
-1.702, 1.845e-5
-1.703, 1.865e-5
-1.704, 1.885e-5
-1.705, 1.904e-5
-1.706, 1.924e-5
-1.707, 1.947e-5
-1.708, 1.967e-5
-1.709, 1.988e-5
-1.710, 2.009e-5
-1.711, 2.031e-5
-1.712, 2.053e-5
-1.713, 2.077e-5
-1.714, 2.102e-5
-1.715, 2.127e-5
-1.716, 2.150e-5
-1.717, 2.174e-5
-1.718, 2.200e-5
-1.719, 2.225e-5
-1.720, 2.251e-5
-1.721, 2.278e-5
-1.722, 2.307e-5
-1.723, 2.333e-5
-1.724, 2.359e-5
-1.725, 2.387e-5
-1.726, 2.416e-5
-1.727, 2.445e-5
-1.728, 2.476e-5
-1.729, 2.507e-5
-1.730, 2.538e-5
-1.731, 2.570e-5
-1.732, 2.602e-5
-1.733, 2.635e-5
-1.734, 2.668e-5
-1.735, 2.701e-5
-1.736, 2.735e-5
-1.737, 2.770e-5
-1.738, 2.805e-5
-1.739, 2.844e-5
-1.740, 2.879e-5
-1.741, 2.914e-5
-1.742, 2.953e-5
-1.743, 2.991e-5
-1.744, 3.031e-5
-1.745, 3.071e-5
-1.746, 3.112e-5
-1.747, 3.153e-5
-1.748, 3.196e-5
-1.749, 3.239e-5
-1.750, 3.283e-5
-1.751, 3.326e-5
-1.752, 3.369e-5
-1.753, 3.416e-5
-1.754, 3.463e-5
-1.755, 3.510e-5
-1.756, 3.558e-5
-1.757, 3.606e-5
-1.758, 3.654e-5
-1.759, 3.705e-5
-1.760, 3.757e-5
-1.761, 3.808e-5
-1.762, 3.863e-5
-1.763, 3.918e-5
-1.764, 3.971e-5
-1.765, 4.026e-5
-1.766, 4.082e-5
-1.767, 4.140e-5
-1.768, 4.199e-5
-1.769, 4.259e-5
-1.770, 4.322e-5
-1.771, 4.383e-5
-1.772, 4.445e-5
-1.773, 4.509e-5
-1.774, 4.572e-5
-1.775, 4.638e-5
-1.776, 4.704e-5
-1.777, 4.775e-5
-1.778, 4.846e-5
-1.779, 4.916e-5
-1.780, 4.988e-5
-1.781, 5.060e-5
-1.782, 5.133e-5
-1.783, 5.210e-5
-1.784, 5.290e-5
-1.785, 5.367e-5
-1.786, 5.447e-5
-1.787, 5.529e-5
-1.788, 5.617e-5
-1.789, 5.700e-5
-1.790, 5.784e-5
-1.791, 5.871e-5
-1.792, 5.958e-5
-1.793, 6.048e-5
-1.794, 6.141e-5
-1.795, 6.233e-5
-1.796, 6.329e-5
-1.797, 6.429e-5
-1.798, 6.528e-5
-1.799, 6.627e-5
-1.800, 6.729e-5
-1.801, 6.832e-5
-1.802, 6.937e-5
-1.803, 7.043e-5
-1.804, 7.151e-5
-1.805, 7.261e-5
-1.806, 7.374e-5
-1.807, 7.487e-5
-1.808, 7.602e-5
-1.809, 7.719e-5
-1.810, 7.839e-5
-1.811, 7.960e-5
-1.812, 8.084e-5
-1.813, 8.212e-5
-1.814, 8.339e-5
-1.815, 8.467e-5
-1.816, 8.597e-5
-1.817, 8.732e-5
-1.818, 8.865e-5
-1.819, 8.999e-5
-1.820, 9.136e-5
-1.821, 9.277e-5
-1.822, 9.410e-5
-1.823, 9.548e-5
-1.824, 9.692e-5
-1.825, 9.843e-5
-1.826, 9.992e-5
-1.827, 1.015e-4
-1.828, 1.030e-4
-1.829, 1.046e-4
-1.830, 1.062e-4
-1.831, 1.079e-4
-1.832, 1.095e-4
-1.833, 1.112e-4
-1.834, 1.129e-4
-1.835, 1.146e-4
-1.836, 1.164e-4
-1.837, 1.181e-4
-1.838, 1.197e-4
-1.839, 1.215e-4
-1.840, 1.233e-4
-1.841, 1.251e-4
-1.842, 1.270e-4
-1.843, 1.290e-4
-1.844, 1.309e-4
-1.845, 1.329e-4
-1.846, 1.350e-4
-1.847, 1.370e-4
-1.848, 1.391e-4
-1.849, 1.412e-4
-1.850, 1.433e-4
-1.851, 1.452e-4
-1.852, 1.473e-4
-1.853, 1.495e-4
-1.854, 1.516e-4
-1.855, 1.539e-4
-1.856, 1.561e-4
-1.857, 1.585e-4
-1.858, 1.608e-4
-1.859, 1.632e-4
-1.860, 1.655e-4
-1.861, 1.680e-4
-1.862, 1.705e-4
-1.863, 1.730e-4
-1.864, 1.754e-4
-1.865, 1.780e-4
-1.866, 1.805e-4
-1.867, 1.828e-4
-1.868, 1.848e-4
-1.869, 1.872e-4
-1.870, 1.898e-4
-1.871, 1.923e-4
-1.872, 1.950e-4
-1.873, 1.978e-4
-1.874, 2.006e-4
-1.875, 2.032e-4
-1.876, 2.060e-4
-1.877, 2.089e-4
-1.878, 2.117e-4
-1.879, 2.146e-4
-1.880, 2.175e-4
-1.881, 2.205e-4
-1.882, 2.234e-4
-1.883, 2.265e-4
-1.884, 2.295e-4
-1.885, 2.325e-4
-1.886, 2.357e-4
-1.887, 2.389e-4
-1.888, 2.421e-4
-1.889, 2.454e-4
-1.890, 2.487e-4
-1.891, 2.521e-4
-1.892, 2.555e-4
-1.893, 2.589e-4
-1.894, 2.624e-4
-1.895, 2.659e-4
-1.896, 2.693e-4
-1.897, 2.727e-4
-1.898, 2.762e-4
-1.899, 2.797e-4
-1.900, 2.833e-4
-1.901, 2.868e-4
-1.902, 2.904e-4
-1.903, 2.939e-4
-1.904, 2.974e-4
-1.905, 3.008e-4
-1.906, 3.043e-4
-1.907, 3.081e-4
-1.908, 3.118e-4
-1.909, 3.153e-4
-1.910, 3.191e-4
-1.911, 3.231e-4
-1.912, 3.271e-4
-1.913, 3.310e-4
-1.914, 3.350e-4
-1.915, 3.391e-4
-1.916, 3.431e-4
-1.917, 3.472e-4
-1.918, 3.514e-4
-1.919, 3.555e-4
-1.920, 3.595e-4
-1.921, 3.637e-4
-1.922, 3.678e-4
-1.923, 3.719e-4
-1.924, 3.760e-4
-1.925, 3.802e-4
-1.926, 3.845e-4
-1.927, 3.885e-4
-1.928, 3.925e-4
-1.929, 3.966e-4
-1.930, 4.007e-4
-1.931, 4.049e-4
-1.932, 4.094e-4
-1.933, 4.139e-4
-1.934, 4.186e-4
-1.935, 4.231e-4
-1.936, 4.277e-4
-1.937, 4.322e-4
-1.938, 4.368e-4
-1.939, 4.416e-4
-1.940, 4.463e-4
-1.941, 4.509e-4
-1.942, 4.556e-4
-1.943, 4.602e-4
-1.944, 4.647e-4
-1.945, 4.695e-4
-1.946, 4.742e-4
-1.947, 4.790e-4
-1.948, 4.838e-4
-1.949, 4.887e-4
-1.950, 4.936e-4
-1.951, 4.985e-4
-1.952, 5.034e-4
-1.953, 5.083e-4
-1.954, 5.132e-4
-1.955, 5.181e-4
-1.956, 5.230e-4
-1.957, 5.281e-4
-1.958, 5.331e-4
-1.959, 5.381e-4
-1.960, 5.434e-4
-1.961, 5.487e-4
-1.962, 5.540e-4
-1.963, 5.590e-4
-1.964, 5.643e-4
-1.965, 5.696e-4
-1.966, 5.749e-4
-1.967, 5.801e-4
-1.968, 5.852e-4
-1.969, 5.906e-4
-1.970, 5.962e-4
-1.971, 6.018e-4
-1.972, 6.076e-4
-1.973, 6.133e-4
-1.974, 6.188e-4
-1.975, 6.240e-4
-1.976, 6.292e-4
-1.977, 6.346e-4
-1.978, 6.400e-4
-1.979, 6.454e-4
-1.980, 6.511e-4
-1.981, 6.567e-4
-1.982, 6.625e-4
-1.983, 6.681e-4
-1.984, 6.740e-4
-1.985, 6.798e-4
-1.986, 6.855e-4
-1.987, 6.913e-4
-1.988, 6.972e-4
-1.989, 7.031e-4
-1.990, 7.091e-4
-1.991, 7.150e-4
-1.992, 7.209e-4
-1.993, 7.267e-4
-1.994, 7.327e-4
-1.995, 7.387e-4
-1.996, 7.452e-4
-1.997, 7.514e-4
-1.998, 7.575e-4
-1.999, 7.638e-4
-2.000, 7.696e-4
-2.001, 7.752e-4
-2.002, 7.812e-4
-2.003, 7.873e-4
-2.004, 7.937e-4
-2.005, 8.002e-4
-2.006, 8.066e-4
-2.007, 8.128e-4
-2.008, 8.190e-4
-2.009, 8.253e-4
-2.010, 8.318e-4
-2.011, 8.383e-4
-2.012, 8.447e-4
-2.013, 8.514e-4
-2.014, 8.583e-4
-2.015, 8.650e-4
-2.016, 8.722e-4
-2.017, 8.793e-4
-2.018, 8.862e-4
-2.019, 8.930e-4
-2.020, 8.996e-4
-2.021, 9.061e-4
-2.022, 9.129e-4
-2.023, 9.197e-4
-2.024, 9.267e-4
-2.025, 9.336e-4
-2.026, 9.403e-4
-2.027, 9.470e-4
-2.028, 9.542e-4
-2.029, 9.614e-4
-2.030, 9.683e-4
-2.031, 9.744e-4
-2.032, 9.807e-4
-2.033, 9.871e-4
-2.034, 9.944e-4
-2.035, 1.001e-3
-2.036, 1.008e-3
-2.037, 1.011e-3
-2.038, 1.011e-3
-2.039, 1.011e-3
-2.040, 1.011e-3
-2.041, 1.011e-3
-2.042, 1.011e-3
-2.043, 1.011e-3
-2.044, 1.011e-3
-2.045, 1.011e-3
-2.046, 1.011e-3
-2.047, 1.011e-3
-2.048, 1.011e-3
-2.049, 1.011e-3
-2.050, 1.011e-3
-2.051, 1.011e-3
-2.052, 1.011e-3
-2.053, 1.011e-3
-2.054, 1.011e-3
-2.055, 1.011e-3
-2.056, 1.011e-3
-2.057, 1.011e-3
-2.058, 1.011e-3
-2.059, 1.011e-3
-2.060, 1.011e-3
-2.061, 1.011e-3
-2.062, 1.011e-3
-2.063, 1.011e-3
-2.064, 1.011e-3
-2.065, 1.011e-3
-2.066, 1.011e-3
-2.067, 1.011e-3
-2.068, 1.011e-3
-2.069, 1.011e-3
-2.070, 1.011e-3
-2.071, 1.011e-3
-2.072, 1.011e-3
-2.073, 1.011e-3
-2.074, 1.011e-3
-2.075, 1.011e-3
-2.076, 1.011e-3
-2.077, 1.011e-3
-2.078, 1.011e-3
-2.079, 1.011e-3
-2.080, 1.011e-3
-2.081, 1.011e-3
-2.082, 1.011e-3
-2.083, 1.011e-3
-2.084, 1.011e-3
-2.085, 1.011e-3
-2.086, 1.011e-3
-2.087, 1.011e-3
-2.088, 1.011e-3
-2.089, 1.011e-3
-2.090, 1.011e-3
-2.091, 1.011e-3
-2.092, 1.011e-3
-2.093, 1.011e-3
-2.094, 1.011e-3
-2.095, 1.011e-3
-2.096, 1.011e-3
-2.097, 1.011e-3
-2.098, 1.011e-3
-2.099, 1.011e-3
-2.100, 1.011e-3
-2.101, 1.011e-3
-2.102, 1.011e-3
-2.103, 1.011e-3
-2.104, 1.011e-3
-2.105, 1.011e-3
-2.106, 1.011e-3
-2.107, 1.011e-3
-2.108, 1.011e-3
-2.109, 1.011e-3
-2.110, 1.011e-3
-2.111, 1.011e-3
-2.112, 1.011e-3
-2.113, 1.011e-3
-2.114, 1.011e-3
-2.115, 1.011e-3
-2.116, 1.011e-3
-2.117, 1.011e-3
-2.118, 1.011e-3
-2.119, 1.011e-3
-2.120, 1.011e-3
-2.121, 1.011e-3
-2.122, 1.011e-3
-2.123, 1.011e-3
-2.124, 1.011e-3
-2.125, 1.011e-3
-2.126, 1.011e-3
-2.127, 1.011e-3
-2.128, 1.011e-3
-2.129, 1.011e-3
-2.130, 1.011e-3
-2.131, 1.011e-3
-2.132, 1.011e-3
-2.133, 1.011e-3
-2.134, 1.011e-3
-2.135, 1.011e-3
-2.136, 1.011e-3
-2.137, 1.011e-3
-2.138, 1.011e-3
-2.139, 1.011e-3
-2.140, 1.011e-3
-2.141, 1.011e-3
-2.142, 1.011e-3
-2.143, 1.011e-3
-2.144, 1.011e-3
-2.145, 1.011e-3
-2.146, 1.011e-3
-2.147, 1.011e-3
-2.148, 1.011e-3
-2.149, 1.011e-3
-2.150, 1.011e-3
-2.151, 1.011e-3
-2.152, 1.011e-3
-2.153, 1.011e-3
-2.154, 1.011e-3
-2.155, 1.011e-3
-2.156, 1.011e-3
-2.157, 1.011e-3
-2.158, 1.011e-3
-2.159, 1.011e-3
-2.160, 1.011e-3
-2.161, 1.011e-3
-2.162, 1.011e-3
-2.163, 1.011e-3
-2.164, 1.011e-3
-2.165, 1.011e-3
-2.166, 1.011e-3
-2.167, 1.011e-3
-2.168, 1.011e-3
-2.169, 1.011e-3
-2.170, 1.011e-3
-2.171, 1.011e-3
-2.172, 1.011e-3
-2.173, 1.011e-3
-2.174, 1.011e-3
-2.175, 1.011e-3
-2.176, 1.011e-3
-2.177, 1.011e-3
-2.178, 1.011e-3
-2.179, 1.011e-3
-2.180, 1.011e-3
-2.181, 1.011e-3
-2.182, 1.011e-3
-2.183, 1.011e-3
-2.184, 1.011e-3
-2.185, 1.011e-3
-2.186, 1.011e-3
-2.187, 1.011e-3
-2.188, 1.011e-3
-2.189, 1.011e-3
-2.190, 1.011e-3
-2.191, 1.011e-3
-2.192, 1.011e-3
-2.193, 1.011e-3
-2.194, 1.011e-3
-2.195, 1.011e-3
-2.196, 1.011e-3
-2.197, 1.011e-3
-2.198, 1.011e-3
-2.199, 1.011e-3
-2.200, 1.011e-3
-2.201, 1.011e-3
-2.202, 1.011e-3
-2.203, 1.011e-3
-2.204, 1.011e-3
-2.205, 1.011e-3
-2.206, 1.011e-3
-2.207, 1.011e-3
-2.208, 1.011e-3
-2.209, 1.011e-3
-2.210, 1.011e-3
-2.211, 1.011e-3
-2.212, 1.011e-3
-2.213, 1.011e-3
-2.214, 1.011e-3
-2.215, 1.011e-3
-2.216, 1.011e-3
-2.217, 1.011e-3
-2.218, 1.011e-3
-2.219, 1.011e-3
-2.220, 1.011e-3
-2.221, 1.011e-3
-2.222, 1.011e-3
-2.223, 1.011e-3
-2.224, 1.011e-3
-2.225, 1.011e-3
-2.226, 1.011e-3
-2.227, 1.011e-3
-2.228, 1.011e-3
-2.229, 1.011e-3
-2.230, 1.011e-3
-2.231, 1.011e-3
-2.232, 1.011e-3
-2.233, 1.011e-3
-2.234, 1.011e-3
-2.235, 1.011e-3
-2.236, 1.011e-3
-2.237, 1.011e-3
-2.238, 1.011e-3
-2.239, 1.011e-3
-2.240, 1.011e-3
-2.241, 1.011e-3
-2.242, 1.011e-3
-2.243, 1.011e-3
-2.244, 1.011e-3
-2.245, 1.011e-3
-2.246, 1.011e-3
-2.247, 1.011e-3
-2.248, 1.011e-3
-2.249, 1.011e-3
-2.250, 1.011e-3
-2.251, 1.011e-3
-2.252, 1.011e-3
-2.253, 1.011e-3
-2.254, 1.011e-3
-2.255, 1.011e-3
-2.256, 1.011e-3
-2.257, 1.011e-3
-2.258, 1.011e-3
-2.259, 1.011e-3
-2.260, 1.011e-3
-2.261, 1.011e-3
-2.262, 1.011e-3
-2.263, 1.011e-3
-2.264, 1.011e-3
-2.265, 1.011e-3
-2.266, 1.011e-3
-2.267, 1.011e-3
-2.268, 1.011e-3
-2.269, 1.011e-3
-2.270, 1.011e-3
-2.271, 1.011e-3
-2.272, 1.011e-3
-2.273, 1.011e-3
-2.274, 1.011e-3
-2.275, 1.011e-3
-2.276, 1.011e-3
-2.277, 1.011e-3
-2.278, 1.011e-3
-2.279, 1.011e-3
-2.280, 1.011e-3
-2.281, 1.011e-3
-2.282, 1.011e-3
-2.283, 1.011e-3
-2.284, 1.011e-3
-2.285, 1.011e-3
-2.286, 1.011e-3
-2.287, 1.011e-3
-2.288, 1.011e-3
-2.289, 1.011e-3
-2.290, 1.011e-3
-2.291, 1.011e-3
-2.292, 1.011e-3
-2.293, 1.011e-3
-2.294, 1.011e-3
-2.295, 1.011e-3
-2.296, 1.011e-3
-2.297, 1.011e-3
-2.298, 1.011e-3
-2.299, 1.011e-3
