Potential V vs RHE, Current mA cm-2
0.013299999999999867,-0.010590528790789665
0.012299999999999978,-0.013619425683800706
0.011299999999999866,-0.01469885040559773
0.010299999999999976,-0.015575971411514053
0.009299999999999864,-0.01629747417444522
0.008299999999999974,-0.016863358694391237
0.007299999999999862,-0.0174150961013386
0.006299999999999972,-0.017910245056291362
0.00529999999999986,-0.018235628655260322
0.0042999999999999705,-0.01858930648022658
0.0032999999999998586,-0.01892883719219419
0.0022999999999999687,-0.019579604390132108
0.0012999999999998568,-0.019721075520118612
0.00029999999999996696,-0.02006060623208622
-0.000700000000000145,-0.02042843117005113
-0.0017000000000000348,-0.020612343639033585
-0.0027000000000001467,-0.020824550334013342
-0.0037000000000000366,-0.021135786819983647
-0.0047000000000001485,-0.021390434853959358
-0.005700000000000038,-0.021715818452928314
-0.00670000000000015,-0.02204120205189727
-0.00770000000000004,-0.022338291424868928
-0.008700000000000152,-0.022578792345845984
-0.009700000000000042,-0.022663675023837888
-0.010700000000000154,-0.022904175944814944
-0.011700000000000044,-0.023300295108777156
-0.012700000000000156,-0.023639825820744764
-0.013700000000000045,-0.023668120046742062
-0.014700000000000157,-0.024035944984706972
-0.015700000000000047,-0.024106680549700225
-0.01670000000000016,-0.024163269001694826
-0.01770000000000005,-0.024898918877624646
-0.01870000000000016,-0.024969654442617898
-0.01970000000000005,-0.0251111255726044
-0.020700000000000163,-0.025252596702590904
-0.021700000000000053,-0.02545065628457201
-0.022700000000000164,-0.02591751101352747
-0.023700000000000054,-0.026087276369511275
-0.024700000000000166,-0.02627118883849373
-0.025700000000000056,-0.026426807081478886
-0.026700000000000168,-0.02656827821146539
-0.027700000000000058,-0.027261486748399254
-0.02870000000000017,-0.02731807520039386
-0.02970000000000006,-0.02740295787838576
-0.03070000000000017,-0.027671753025360117
-0.03170000000000006,-0.027869812607341227
-0.03270000000000017,-0.028336667336296688
-0.03370000000000006,-0.02849228557928184
-0.034700000000000175,-0.028732786500258897
-0.035700000000000065,-0.02902987587323055
-0.03670000000000018,-0.02912890566422111
-0.03770000000000007,-0.029609907506175218
-0.03870000000000018,-0.029624054619173872
-0.03970000000000007,-0.03002017378313608
-0.04070000000000018,-0.03006261512213203
-0.04170000000000007,-0.03051532273808884
-0.04270000000000018,-0.031052913032037555
-0.04370000000000007,-0.031137795710029458
-0.044700000000000184,-0.031250972614018664
-0.045700000000000074,-0.03154806198699031
-0.046700000000000186,-0.03190173981195658
-0.047700000000000076,-0.03221297629792688
-0.04870000000000019,-0.0326090954618891
-0.04970000000000008,-0.032708125252879645
-0.05070000000000019,-0.03318912709483376
-0.05170000000000008,-0.03342962801581082
-0.05270000000000019,-0.03393892408376223
-0.05370000000000008,-0.03393892408376223
-0.05470000000000019,-0.03441992592571634
-0.05570000000000008,-0.034915074880669104
-0.056700000000000195,-0.034929221993667756
-0.057700000000000085,-0.035650724756598924
-0.058700000000000196,-0.035565842078607024
-0.059700000000000086,-0.03593366701657193
-0.0607000000000002,-0.03644296308452335
-0.06170000000000009,-0.036782493796490956
-0.0627000000000002,-0.03756058501141672
-0.06370000000000009,-0.03761717346341132
-0.0647000000000002,-0.03816891087035869
-0.06570000000000009,-0.03821135220935464
-0.0667000000000002,-0.038621618486315505
-0.0677000000000001,-0.03954118083122777
-0.0687000000000002,-0.03973924041320888
-0.0697000000000001,-0.04003632978618053
-0.07070000000000021,-0.04060221430612655
-0.0717000000000001,-0.041012480583087416
-0.07270000000000021,-0.04139445263405097
-0.0737000000000001,-0.041649100668026684
-0.07470000000000021,-0.042186690961975394
-0.0757000000000001,-0.042582810125937606
-0.07670000000000021,-0.04314869464588362
-0.0777000000000001,-0.04357310803584313
-0.07870000000000021,-0.044039962764798594
-0.0797000000000001,-0.04443608192876081
-0.08070000000000022,-0.04480390686672571
-0.0817000000000001,-0.04545467406466363
-0.08270000000000022,-0.046048852810606944
-0.08370000000000011,-0.04628935373158401
-0.08470000000000022,-0.04684109113853137
-0.08570000000000011,-0.04737868143248008
-0.08670000000000022,-0.04787383038743284
-0.08770000000000011,-0.04842556779438021
-0.08870000000000022,-0.04893486386233162
-0.08970000000000011,-0.04934513013929248
-0.09070000000000022,-0.05017980980621285
-0.09170000000000011,-0.050745694326158865
-0.09270000000000023,-0.05146719708909004
-0.09370000000000012,-0.05200478738303874
-0.09470000000000023,-0.052415053659999614
-0.09570000000000012,-0.052938496840949666
-0.09670000000000023,-0.053348763117910536
-0.09770000000000012,-0.05401367742884709
-0.09870000000000023,-0.05459370906179176
-0.09970000000000012,-0.054975681112755324
-0.10070000000000023,-0.05572547810168379
-0.10170000000000012,-0.05622062705663656
-0.10270000000000024,-0.05695627693256638
-0.10370000000000013,-0.05740898454852319
-0.10470000000000024,-0.05786169216448
-0.10570000000000013,-0.05844172379742466
-0.10670000000000024,-0.05888028430038283
-0.10770000000000013,-0.05971496396730319
-0.10870000000000024,-0.060408172504237065
-0.10970000000000013,-0.060606232086218174
-0.11070000000000024,-0.06149750020513314
-0.11170000000000013,-0.062134120290072405
-0.11270000000000002,-0.06291221150499818
-0.11370000000000013,-0.06359127292893339
-0.11470000000000002,-0.06407227477088752
-0.11570000000000014,-0.06492110155080652
-0.11670000000000003,-0.06540210339276065
-0.11770000000000014,-0.06618019460768641
-0.11870000000000003,-0.06643484264166212
-0.11970000000000014,-0.06712805117859601
-0.12070000000000003,-0.06783540682852851
-0.12170000000000014,-0.06837299712247723
-0.12270000000000003,-0.06916523545040164
-0.12370000000000014,-0.06967453151835307
-0.12470000000000003,-0.07024041603829907
-0.12570000000000014,-0.07086288901023968
-0.12670000000000003,-0.07152780332117625
-0.12770000000000015,-0.07254639545707908
-0.12870000000000004,-0.07299910307303589
-0.12970000000000015,-0.07367816449697111
-0.13070000000000004,-0.07435722592090632
-0.13170000000000015,-0.0750787286838375
-0.13270000000000004,-0.07588511412476057
-0.13370000000000015,-0.07611146793273897
-0.13470000000000004,-0.0769037062606634
-0.13570000000000015,-0.0776393561365932
-0.13670000000000004,-0.07824768199553518
-0.13770000000000016,-0.07928042124443666
-0.13870000000000005,-0.07997362978137053
-0.13970000000000016,-0.08070927965730033
-0.14070000000000005,-0.08130345840324366
-0.14170000000000016,-0.08196837271418023
-0.14270000000000005,-0.08259084568612084
-0.14370000000000016,-0.08308599464107361
-0.14470000000000005,-0.08366602627401826
-0.14570000000000016,-0.08433094058495484
-0.14670000000000005,-0.085052443347886
-0.14770000000000016,-0.08560418075483338
-0.14870000000000005,-0.0864813017607497
-0.14970000000000017,-0.08696230360270381
-0.15070000000000006,-0.08748574678365387
-0.15170000000000017,-0.08847604469355938
-0.15270000000000006,-0.08916925323049325
-0.15370000000000017,-0.08946634260346491
-0.15470000000000006,-0.090555670304361
-0.15570000000000017,-0.09096593658132186
-0.15670000000000006,-0.09175817490924627
-0.15770000000000017,-0.0924938247851761
-0.15870000000000006,-0.09311629775711672
-0.15970000000000018,-0.09362559382506812
-0.16070000000000007,-0.09436124370099794
-0.16170000000000018,-0.09536568872390214
-0.16270000000000007,-0.09607304437383464
-0.16370000000000018,-0.09695016537975096
-0.16470000000000007,-0.09740287299570777
-0.16570000000000018,-0.09792631617665784
-0.16670000000000007,-0.09852049492260115
-0.16770000000000018,-0.09953908705850398
-0.16870000000000007,-0.09966641107549183
-0.16970000000000018,-0.10030303116043109
-0.17070000000000007,-0.10127918195733798
-0.17170000000000019,-0.10167530112130019
-0.17270000000000008,-0.10256656924021516
-0.1737000000000002,-0.10317489509915713
-0.17470000000000008,-0.1036983382801072
-0.1757000000000002,-0.1042925170260505
-0.17670000000000008,-0.10505646112797762
-0.1777000000000002,-0.10573552255191283
-0.17870000000000008,-0.10645702531484401
-0.1797000000000002,-0.10675411468781566
-0.18070000000000008,-0.10744732322474954
-0.1817000000000002,-0.10835273845666317
-0.18270000000000008,-0.10907424121959435
-0.1837000000000002,-0.10975330264352953
-0.1847000000000001,-0.1101918631464877
-0.1857000000000002,-0.11087092457042293
-0.1867000000000001,-0.11160657444635275
-0.1877000000000002,-0.11194610515832035
-0.1887000000000001,-0.11256857813026097
-0.1897000000000002,-0.11310616842420969
-0.1907000000000001,-0.1137569356221476
-0.1917000000000001,-0.11435111436809091
-0.19269999999999998,-0.11517164692201265
-0.1937000000000001,-0.11585070834594786
-0.19469999999999998,-0.11604876792792895
-0.1957000000000001,-0.11661465244787497
-0.19669999999999999,-0.1171522427418237
-0.1977000000000001,-0.11774642148776701
-0.1987,-0.11839718868570492
-0.1997000000000001,-0.11890648475365632
-0.2007,-0.1192601625786226
-0.2017000000000001,-0.12000995956755106
-0.2027,-0.12044852007050923
-0.2037000000000001,-0.12100025747745657
-0.2047,-0.12179249580538101
-0.2057000000000001,-0.12218861496934323
-0.2067,-0.12288182350627709
-0.2077000000000001,-0.1231930599922474
-0.2087,-0.12387212141618263
-0.2097000000000001,-0.12462191840511107
-0.2107,-0.12500389045607466
-0.2117000000000001,-0.12588101146199096
-0.2127,-0.12668739690291403
-0.2137000000000001,-0.12762110636082497
-0.2147,-0.1282294322197669
-0.2157000000000001,-0.12880946385271158
-0.2167,-0.12913484745168055
-0.21770000000000012,-0.12965829063263062
-0.2187,-0.1295734079546387
-0.21970000000000012,-0.13028076360457122
-0.2207,-0.13110129615849295
-0.22170000000000012,-0.13142667975746194
-0.2227,-0.131950122938412
-0.22370000000000012,-0.13254430168435527
-0.2247,-0.13296871507431476
-0.22570000000000012,-0.1335063053682635
-0.2267,-0.13371851206324328
-0.22770000000000012,-0.13451075039116767
-0.22870000000000001,-0.1350200464591191
-0.22970000000000013,-0.1350766349111137
-0.23070000000000002,-0.13584057901304084
-0.23170000000000013,-0.13626499240300033
-0.23270000000000002,-0.13725529031290584
-0.23370000000000013,-0.13776458638085728
-0.23470000000000002,-0.13871244295176685
-0.23570000000000013,-0.13985835910465752
-0.23670000000000002,-0.14042424362460354
-0.2376999999999999,-0.14161260111649018
-0.23870000000000002,-0.1421784856364362
-0.2396999999999999,-0.1426028990263957
-0.24070000000000003,-0.1434517258063147
-0.24169999999999991,-0.14415908145624726
-0.24270000000000003,-0.14500790823616627
-0.24369999999999992,-0.14486643710617977
-0.24470000000000003,-0.14571526388609876
-0.24569999999999992,-0.14628114840604478
-0.24670000000000003,-0.14712997518596382
-0.24769999999999992,-0.14826174422585583
-0.24870000000000003,-0.14868615761581536
-0.24969999999999992,-0.14911057100577488
-0.25070000000000003,-0.1496764555257209
-0.2516999999999999,-0.1506667534356264
-0.25270000000000004,-0.1512326379555724
-0.2536999999999999,-0.15151558021554543
-0.25470000000000004,-0.15250587812545094
-0.2556999999999999,-0.15278882038542396
-0.25670000000000004,-0.15363764716534298
-0.25769999999999993,-0.15392058942531597
-0.25870000000000004,-0.1543450028152755
-0.25969999999999993,-0.15491088733522151
-0.26070000000000004,-0.15561824298515403
-0.26169999999999993,-0.15618412750510002
-0.26270000000000004,-0.15717442541500556
-0.26369999999999993,-0.15759883880496509
-0.26470000000000005,-0.1585891367148706
-0.26569999999999994,-0.15957943462477614
-0.26670000000000005,-0.16071120366466815
-0.26769999999999994,-0.1619844438345467
-0.26870000000000005,-0.16311621287443873
-0.26969999999999994,-0.16438945304431726
-0.27070000000000005,-0.16523827982423628
-0.27169999999999994,-0.16651151999411481
-0.27270000000000005,-0.16820917355395287
-0.27369999999999994,-0.1696238848538179
-0.27470000000000006,-0.17061418276372342
-0.27569999999999995,-0.17174595180361546
-0.27670000000000006,-0.17259477858353447
-0.27769999999999995,-0.173868018753413
-0.27870000000000006,-0.17542420118326454
-0.27969999999999995,-0.17754626813306212
-0.28070000000000006,-0.17924392169290015
-0.28169999999999995,-0.18122451751271118
-0.28270000000000006,-0.18362952672248176
-0.28369999999999995,-0.18631747819222533
-0.28470000000000006,-0.18872248740199588
-0.28569999999999995,-0.19112749661176645
-0.28670000000000007,-0.193532505821537
-0.28769999999999996,-0.19551310164134805
-0.28870000000000007,-0.19791811085111863
-0.28969999999999996,-0.20060606232086217
-0.29070000000000007,-0.20343548492059227
-0.29169999999999996,-0.20711373430024138
-0.29270000000000007,-0.21065051254990397
-0.29369999999999996,-0.2151775887094721
-0.2947000000000001,-0.21871436695913468
-0.29569999999999996,-0.22239261633878374
-0.2967000000000001,-0.22536351006850036
-0.29769999999999996,-0.22805146153824393
-0.2987000000000001,-0.23116382639794697
-0.29969999999999997,-0.23583237368750162
-0.3007000000000001,-0.2397935653271237
-0.30169999999999997,-0.24658417956647588
-0.3027000000000001,-0.25592127414558513
-0.30369999999999997,-0.26044835030515323
-0.3047000000000001,-0.2652583687246944
-0.30569999999999997,-0.2731807520039386
-0.3067000000000001,-0.27841518381343927
-0.3077,-0.28364961562293983
-0.3087000000000001,-0.29058170099227854
-0.3097,-0.29779672862159023
-0.3107000000000001,-0.3050117562509019
-0.3117,-0.31265119727017304
-0.3127000000000001,-0.32128093619934983
-0.3137,-0.3309009730384321
-0.3147000000000001,-0.3408039521374874
-0.3157,-0.35169722914644813
-0.3167000000000001,-0.36329786180534146
-0.3177,-0.3757473212441537
-0.3187000000000001,-0.38862119407292556
-0.3197,-0.4034756627215085
-0.3207000000000001,-0.4190374870200239
-0.3217,-0.43615549374839085
-0.3227000000000001,-0.4536979138667173
-0.3237,-0.47378681432480074
-0.3247000000000001,-0.4943001281728438
-0.3257,-0.5166525667107114
-0.3267000000000001,-0.5409856010683901
-0.3277,-0.5656015776860417
-0.3287000000000001,-0.5927640346434504
-0.3297,-0.6210582606407511
-0.3307000000000001,-0.6518989669778088
-0.3317,-0.6855690959145968
-0.3327000000000001,-0.7198051093713307
-0.3337,-0.7587096701176191
-0.3347000000000001,-0.7986045287738132
-0.3357,-0.841187338899751
-0.3367000000000001,-0.8890045808351891
-0.3377,-0.9393683031103843
-0.3387000000000001,-0.9951079283250667
-0.3397,-1.0524037359696008
-0.3407000000000001,-1.112104552823905
-0.3417,-1.175483619057859
-0.3427000000000001,-1.2385797430318397
-0.3437,-1.3088908946351319
-0.3447000000000001,-1.3891050253374793
-0.3457,-1.4698850405597732
-0.3467000000000001,-1.5561824298515403
-0.3477,-1.643894530443173
-0.3487000000000001,-1.7330213423346699
-0.3497,-1.822148154226167
-0.3507000000000001,-1.92117794521672
-0.3517,-2.011719468408082
-0.3527000000000001,-2.1093345480987695
-0.3537,-2.2126084729889177
-0.3547000000000001,-2.3158823978790646
-0.3557,-2.4234004566688077
-0.35670000000000013,-2.536577360658011
-0.3577,-2.6511689759470785
-0.35870000000000013,-2.765760591236147
-0.3597,-2.8803522065252145
-0.36070000000000013,-2.9836261314153627
-0.3617,-3.0854853450056448
-0.3626999999999999,-3.1859298472960624
-0.3637,-3.287789060886346
-0.3646999999999999,-3.386818851876898
-0.3657,-3.4801897976679905
-0.3666999999999999,-3.573560743459083
-0.3677,-3.65985813275085
-0.3686999999999999,-3.7320084090439667
-0.36970000000000003,-3.7970851288377587
-0.3706999999999999,-3.840941179133574
-0.37170000000000003,-3.8664059825311448
-0.3726999999999999,-3.8947002085284463
-0.37370000000000003,-3.914506166726557
-0.3746999999999999,-3.922994434525747
-0.37570000000000003,-3.9215797232258818
-0.3766999999999999,-3.9116767441268263
-0.37770000000000004,-3.9116767441268263
-0.3786999999999999,-3.889041363328986
-0.37970000000000004,-3.8579177147319554
-0.3806999999999999,-3.823964643535194
-0.38170000000000004,-3.7928409949381634
-0.38269999999999993,-3.7603026350412674
-0.38370000000000004,-3.702299471746801
-0.38469999999999993,-3.6527845762515243
-0.38570000000000004,-3.591951990357328
-0.38669999999999993,-3.4801897976679905
-0.38570000000000004,-3.2962773286855356
-0.38469999999999993,-3.125097261401866
-0.38370000000000004,-2.970893729716577
-0.38269999999999993,-2.8251784658304784
-0.38170000000000004,-2.6808779132442444
-0.3806999999999999,-2.552139184956526
-0.37970000000000004,-2.420571034069078
-0.3786999999999999,-2.30880884137974
-0.37770000000000004,-2.205534916489592
-0.3766999999999999,-2.1093345480987695
-0.37570000000000003,-2.023037158807002
-0.3746999999999999,-1.9480574599141556
-0.37370000000000003,-1.8716630497214433
-0.3726999999999999,-1.8065863299276517
-0.37170000000000003,-1.7641449909317006
-0.3706999999999999,-1.7146300954364246
-0.36970000000000003,-1.6792623129397986
-0.3686999999999999,-1.6424798191433077
-0.3677,-1.5816472332491107
-0.3666999999999999,-1.5307176264539697
-0.3657,-1.4684703292599082
-0.3646999999999999,-1.4140039442151042
-0.3637,-1.3603863859502194
-0.3626999999999999,-1.3087494235051453
-0.3617,-1.2605077681797476
-0.36070000000000013,-1.2101440459045523
-0.3597,-1.1607706215392626
-0.35870000000000013,-1.1143680909036895
-0.3577,-1.0707949828678462
-0.35670000000000013,-1.0307586530816657
-0.3557,-0.9897320253855796
-0.3547000000000001,-0.9498371667293856
-0.3537,-0.9133376151928677
-0.3527000000000001,-0.8785357172161878
-0.3517,-0.8501000200889006
-0.3507000000000001,-0.8216643229616133
-0.3497,-0.7928042124443665
-0.3487000000000001,-0.7656417554869578
-0.3477,-0.7410257788693063
-0.3467000000000001,-0.7220686474511148
-0.3457,-0.6999991511732202
-0.3447000000000001,-0.6734025787357575
-0.3437,-0.6483621887281462
-0.3427000000000001,-0.6289806439199952
-0.3417,-0.6079014455520062
-0.3407000000000001,-0.5883784296138688
-0.3397,-0.5709774806255288
-0.3387000000000001,-0.5537180027671754
-0.3377,-0.53815617846866
-0.3367000000000001,-0.5254237767698746
-0.3357,-0.5109937215112512
-0.3347000000000001,-0.49868573320242543
-0.3337,-0.48114331308409897
-0.3327000000000001,-0.47109886285505725
-0.3317,-0.46119588375600196
-0.3307000000000001,-0.44959525109710863
-0.3297,-0.4365799071383503
-0.3287000000000001,-0.4239889765695515
-0.3277,-0.4116809882607257
-0.3267000000000001,-0.3990900576919268
-0.3257,-0.38918707859287155
-0.3247000000000001,-0.3787182149738703
-0.3237,-0.36711758231497704
-0.3227000000000001,-0.3577804877358678
-0.3217,-0.347453095246853
-0.3207000000000001,-0.33811600066774383
-0.3197,-0.32976920399854004
-0.3187000000000001,-0.32099799393937684
-0.3177,-0.31265119727017304
-0.3167000000000001,-0.3047288139909289
-0.3157,-0.2972308441016442
-0.3147000000000001,-0.28930846082239997
-0.3137,-0.2820934331930883
-0.3127000000000001,-0.2754442900837227
-0.3117,-0.26851220471438403
-0.3107000000000001,-0.2617215904750318
-0.3097,-0.25493097623567956
-0.3087000000000001,-0.24842330425630044
-0.3077,-0.2423400456668808
-0.3067000000000001,-0.23668120046742064
-0.30569999999999997,-0.23003205735805496
-0.3047000000000001,-0.2228170297287433
-0.30369999999999997,-0.21659230000933713
-0.3027000000000001,-0.21107492593986346
-0.30169999999999997,-0.20584049413036284
-0.3007000000000001,-0.2007475334508487
-0.29969999999999997,-0.19607898616129407
-0.2987000000000001,-0.19042014096183393
-0.29769999999999996,-0.1861760070622388
-0.2967000000000001,-0.18136598864269768
-0.29569999999999996,-0.17641449909317006
-0.2947000000000001,-0.17103859615368294
-0.29369999999999996,-0.1655212220842093
-0.29270000000000007,-0.16113561705462764
-0.29169999999999996,-0.15660854089505957
-0.29070000000000007,-0.15236440699546444
-0.28969999999999996,-0.14896909987578838
-0.28870000000000007,-0.14500790823616627
-0.28769999999999996,-0.14118818772653066
-0.28670000000000007,-0.13725529031290584
-0.28569999999999995,-0.13366192361124865
-0.28470000000000006,-0.12964414351963197
-0.28369999999999995,-0.12603662970497612
