Potential V vs RHE, Current mA cm-2
0.4132999999999999,-0.010665508489682512
0.4122999999999999,-0.012542830384603416
0.4112999999999999,-0.012999782134459821
0.4102999999999999,-0.013240283055436878
0.4092999999999999,-0.013435513214818253
0.4082999999999999,-0.013592546169103272
0.4072999999999999,-0.013773629215486
0.4062999999999999,-0.013908026788973175
0.4052999999999999,-0.01406647445455806
0.4042999999999999,-0.014231995676642267
0.4032999999999999,-0.014359319693630123
0.4022999999999999,-0.014486643710617976
0.4012999999999999,-0.014628114840604478
0.4002999999999999,-0.014741291744593682
0.3992999999999999,-0.014868615761581536
0.3982999999999999,-0.014967645552572089
0.3972999999999999,-0.01505252823056399
0.3962999999999999,-0.015151558021554544
0.3952999999999999,-0.015236440699546445
0.3942999999999999,-0.015335470490536997
0.39329999999999987,-0.015448647394526203
0.39229999999999987,-0.015547677185516754
0.39129999999999987,-0.015632559863508654
0.39029999999999987,-0.015703295428501907
0.38929999999999987,-0.01580232521949246
0.38829999999999987,-0.015901355010483013
0.38729999999999987,-0.01597209057547626
0.38629999999999987,-0.016028679027470863
0.38529999999999986,-0.01614185593146007
0.38429999999999986,-0.01618429727045602
0.38329999999999986,-0.016283327061446574
0.38229999999999986,-0.016368209739438477
0.38129999999999986,-0.016453092417430374
0.38029999999999986,-0.016552122208420932
0.37929999999999986,-0.01660871066041553
0.37829999999999986,-0.01670774045140608
0.37729999999999986,-0.016778476016399334
0.37629999999999986,-0.01683506446839394
0.37529999999999986,-0.016948241372383138
0.37429999999999986,-0.017004829824377742
0.37329999999999985,-0.017089712502369642
0.37229999999999985,-0.017174595180361543
0.37129999999999985,-0.0172453307453548
0.37029999999999985,-0.0173302134233467
0.36929999999999985,-0.0173868018753413
0.36829999999999985,-0.017443390327335904
0.36729999999999985,-0.0175282730053278
0.36629999999999985,-0.017599008570321057
0.36529999999999985,-0.01765559702231566
0.36429999999999985,-0.017754626813306213
0.36329999999999985,-0.01781121526530081
0.36229999999999984,-0.017867803717295416
0.36129999999999984,-0.017938539282288665
0.36029999999999984,-0.018023421960280565
0.35929999999999984,-0.018108304638272472
0.35829999999999984,-0.01816489309026707
0.35729999999999984,-0.018249775768258973
0.35629999999999984,-0.018348805559249524
0.35529999999999984,-0.018447835350240076
0.35429999999999984,-0.018546865141230634
0.35329999999999984,-0.018645894932221182
0.35229999999999984,-0.018702483384215783
0.35129999999999983,-0.018759071836210388
0.35029999999999983,-0.018801513175206338
0.34929999999999983,-0.018843954514202284
0.34829999999999983,-0.018942984305192843
0.34729999999999983,-0.019042014096183394
0.34629999999999983,-0.019112749661176646
0.34529999999999983,-0.019197632339168547
0.34429999999999983,-0.019240073678164497
0.3432999999999998,-0.0193249563561564
0.3422999999999998,-0.019367397695152354
0.3412999999999998,-0.0194098390341483
0.3402999999999998,-0.01950886882513886
0.3392999999999998,-0.01950886882513886
0.3382999999999998,-0.019607898616129407
0.3372999999999998,-0.01970692840711996
0.3362999999999998,-0.019749369746115915
0.3352999999999998,-0.019848399537106463
0.3342999999999998,-0.019904987989101064
0.3332999999999998,-0.019961576441095665
0.3322999999999998,-0.02003231200608892
0.3312999999999998,-0.02006060623208622
0.3302999999999998,-0.020145488910078124
0.3292999999999998,-0.020187930249074077
0.3282999999999998,-0.020258665814067326
0.3272999999999998,-0.02032940137906058
0.3262999999999998,-0.02038598983105518
0.3252999999999999,-0.02045672539604843
0.3242999999999999,-0.020513313848043033
0.3232999999999999,-0.020584049413036282
0.3222999999999999,-0.020640637865030884
0.3212999999999999,-0.020697226317025485
0.3202999999999999,-0.02073966765602144
0.3192999999999999,-0.020810403221014687
0.3182999999999999,-0.02086699167300929
0.3172999999999999,-0.020923580125003893
0.3162999999999999,-0.020994315689997142
0.3152999999999999,-0.021050904141991744
0.3142999999999999,-0.021107492593986348
0.3132999999999999,-0.02119237527197825
0.3122999999999999,-0.02124896372397285
0.3112999999999999,-0.021333846401964753
0.3102999999999999,-0.021418729079956657
0.3092999999999999,-0.021517758870947205
0.3082999999999999,-0.021602641548939108
0.3072999999999999,-0.021645082887935062
0.3062999999999999,-0.021715818452928314
0.3052999999999999,-0.021772406904922915
0.3042999999999999,-0.021800701130920214
0.3032999999999999,-0.021871436695913467
0.3022999999999999,-0.021913878034909417
0.3012999999999999,-0.021956319373905367
0.3002999999999999,-0.02208364339089322
0.2992999999999999,-0.022126084729889174
0.2982999999999999,-0.022196820294882423
0.2972999999999999,-0.022253408746877028
0.2962999999999999,-0.022338291424868928
0.2952999999999999,-0.022437321215859483
0.2942999999999999,-0.022508056780852735
0.2932999999999999,-0.022578792345845984
0.2922999999999999,-0.022635380797840585
0.2912999999999999,-0.022663675023837888
0.2902999999999999,-0.02272026347583249
0.2892999999999999,-0.02277685192782709
0.2882999999999999,-0.02280514615382439
0.2872999999999999,-0.02287588171881764
0.2862999999999999,-0.022946617283810897
0.2852999999999999,-0.023017352848804146
0.2842999999999999,-0.02313052975279335
0.2832999999999999,-0.0232012653177866
0.2822999999999999,-0.023286147995778505
0.2812999999999999,-0.023342736447773106
0.2802999999999999,-0.023399324899767704
0.2792999999999999,-0.02345591335176231
0.2782999999999999,-0.023512501803756906
0.2772999999999999,-0.02356909025575151
0.2762999999999999,-0.023611531594747465
0.2752999999999999,-0.02365397293374341
0.2742999999999999,-0.02373885561173532
0.2732999999999999,-0.023809591176728567
0.2722999999999999,-0.02389447385472047
0.2712999999999999,-0.02397935653271237
0.2702999999999999,-0.024035944984706972
0.2692999999999999,-0.024050092097705623
0.26829999999999987,-0.024134974775697527
0.26729999999999987,-0.024163269001694826
0.26629999999999987,-0.02420571034069078
0.26529999999999987,-0.02427644590568403
0.26429999999999987,-0.024318887244679982
0.26329999999999987,-0.024417917035670533
0.26229999999999987,-0.024446211261667832
0.26129999999999987,-0.024502799713662437
0.26029999999999986,-0.024587682391654337
0.25929999999999986,-0.024644270843648942
0.25829999999999986,-0.02474330063463949
0.25729999999999986,-0.02482818331263139
0.25629999999999986,-0.024898918877624646
0.25529999999999986,-0.024969654442617898
0.25429999999999986,-0.025040390007611147
0.25329999999999986,-0.02506868423360845
0.25229999999999986,-0.02512527268560305
0.25129999999999986,-0.025139419798601705
0.25029999999999986,-0.025210155363594954
0.24929999999999986,-0.025238449589592253
0.24829999999999985,-0.025323332267584157
0.24729999999999985,-0.025422362058574708
0.24629999999999985,-0.02546480339757066
0.24529999999999985,-0.025592127414558512
0.24429999999999985,-0.025634568753554465
0.24329999999999985,-0.025691157205549067
0.24229999999999985,-0.025790186996539618
0.24129999999999985,-0.025832628335535568
0.24029999999999985,-0.025889216787530173
0.23929999999999985,-0.025959952352523425
0.23829999999999985,-0.02600239369151937
0.23729999999999984,-0.026044835030515325
0.23629999999999984,-0.026115570595508578
0.23529999999999984,-0.026158011934504528
0.23429999999999984,-0.02621460038649913
0.23329999999999984,-0.02628533595149238
0.23229999999999984,-0.026384365742482933
0.23129999999999984,-0.02645510130747619
0.23029999999999984,-0.026539983985468085
0.22929999999999984,-0.02659657243746269
0.22829999999999984,-0.02668145511545459
0.22729999999999984,-0.026709749341451892
0.22629999999999983,-0.026766337793446494
0.22529999999999983,-0.026837073358439746
0.22429999999999983,-0.026865367584437045
0.22329999999999983,-0.026936103149430297
0.22229999999999983,-0.026978544488426247
0.22129999999999983,-0.027049280053419503
0.22029999999999983,-0.027134162731411407
0.21929999999999983,-0.027190751183406005
0.21829999999999983,-0.027289780974396556
0.21729999999999983,-0.02736051653938981
0.21629999999999983,-0.02736051653938981
0.21529999999999982,-0.02743125210438306
0.21429999999999982,-0.027459546330380363
0.21329999999999982,-0.027516134782374965
0.21229999999999982,-0.027601017460366868
0.21129999999999982,-0.02762931168636417
0.21029999999999982,-0.027714194364356067
0.20929999999999982,-0.02775663570335202
0.20829999999999982,-0.027813224155346622
0.20729999999999982,-0.027898106833338522
0.20629999999999982,-0.027940548172334476
0.20529999999999982,-0.028011283737327728
0.20429999999999982,-0.02811031352831828
0.20329999999999981,-0.028181049093311532
0.2022999999999998,-0.02829422599730073
0.2012999999999998,-0.028379108675292634
0.20029999999999992,-0.028435697127287232
0.19929999999999992,-0.02850643269228049
0.19829999999999992,-0.028534726918277787
0.19729999999999992,-0.028591315370272388
0.19629999999999992,-0.028662050935265648
0.19529999999999992,-0.028704492274261594
0.19429999999999992,-0.028860110517246747
0.19329999999999992,-0.0289591403082373
0.19229999999999992,-0.029001581647233248
0.19129999999999991,-0.029086464325225152
0.1902999999999999,-0.029157199890218404
0.1892999999999999,-0.02922793545521166
0.1882999999999999,-0.02935525947219951
0.1872999999999999,-0.02946843637618871
0.1862999999999999,-0.029567466167179264
0.1852999999999999,-0.02972308441016442
0.1842999999999999,-0.029807967088156324
0.1832999999999999,-0.029906996879146875
0.1822999999999999,-0.029991879557138775
0.1812999999999999,-0.03010505646112798
0.1802999999999999,-0.030246527591114486
0.1792999999999999,-0.030387998721100987
0.1782999999999999,-0.030600205416080745
0.1772999999999999,-0.030812412111060502
0.1762999999999999,-0.031010471693041605
0.1752999999999999,-0.031250972614018664
0.1742999999999999,-0.03149147353499571
0.1732999999999999,-0.03174612156897143
0.1722999999999999,-0.03202906382894443
0.1712999999999999,-0.03229785897591879
0.1702999999999999,-0.032637389687886396
0.1692999999999999,-0.032991067512852655
0.1682999999999999,-0.03341548090281216
0.1672999999999999,-0.03385404140577032
0.1662999999999999,-0.034278454795729836
0.1652999999999999,-0.034745309524685304
0.1642999999999999,-0.03521216425364076
0.1632999999999999,-0.035679018982596226
0.1622999999999999,-0.036202462163546285
0.1612999999999999,-0.0366834640055004
0.1602999999999999,-0.037150318734455866
0.1592999999999999,-0.03764546768940863
0.15829999999999989,-0.03808402819236679
0.15729999999999988,-0.038494294469327645
0.15629999999999988,-0.03889041363328985
0.15529999999999988,-0.03930067991025072
0.15429999999999988,-0.03971094618721158
0.15329999999999988,-0.040078771125176486
0.15229999999999988,-0.0404465960631414
0.15129999999999988,-0.04075783254911171
0.15029999999999988,-0.04104077480908471
0.14929999999999988,-0.04132371706905772
0.14829999999999988,-0.04156421799003478
0.14729999999999988,-0.04176227757201588
0.14629999999999987,-0.041988631379994285
0.14529999999999987,-0.042186690961975394
0.14429999999999987,-0.04237060343095785
0.14329999999999987,-0.042568663012938955
0.14229999999999987,-0.04276672259492006
0.14129999999999987,-0.04289404661190791
0.14029999999999987,-0.04304966485489307
0.13929999999999987,-0.043191135984879565
0.13829999999999987,-0.04333260711486608
0.13729999999999987,-0.043459931131853924
0.13629999999999987,-0.04354481380984583
0.13529999999999986,-0.04361554937483908
0.13429999999999986,-0.04364384360083638
0.13329999999999986,-0.04367213782683368
0.13229999999999986,-0.043757020504825585
0.13129999999999986,-0.04379946184382154
0.13029999999999986,-0.043912638747810734
0.12929999999999986,-0.044025815651799936
0.12829999999999986,-0.04406825699079589
0.12729999999999986,-0.044138992555789146
0.12629999999999986,-0.044138992555789146
0.12529999999999986,-0.04416728678178644
0.12429999999999986,-0.0442097281207824
0.12329999999999985,-0.04423802234677969
0.12229999999999985,-0.044266316572777
0.12129999999999985,-0.0442946107987743
0.12029999999999985,-0.044308757911772946
0.11929999999999985,-0.0443794934767662
0.11829999999999985,-0.0444077877027635
0.11729999999999985,-0.044464376154758095
0.11629999999999985,-0.044492670380755404
0.11529999999999985,-0.044492670380755404
0.11429999999999985,-0.0445209646067527
0.11329999999999985,-0.04453511171975136
0.11229999999999984,-0.04453511171975136
0.11129999999999984,-0.044591700171745956
0.11029999999999984,-0.04460584728474461
0.10929999999999984,-0.04463414151074191
0.10829999999999984,-0.044676582849737856
0.10729999999999984,-0.044690729962736514
0.10629999999999984,-0.04470487707573516
0.10529999999999984,-0.04476146552772976
0.10429999999999984,-0.04480390686672571
0.10329999999999984,-0.04484634820572166
0.10229999999999984,-0.044860495318720314
0.10129999999999983,-0.04483220109272301
0.10029999999999983,-0.04484634820572166
0.09929999999999983,-0.04488878954471761
0.09829999999999983,-0.04490293665771626
0.09729999999999983,-0.04493123088371357
0.09629999999999983,-0.04491708377071492
0.09529999999999983,-0.044959525109710866
0.09429999999999983,-0.04498781933570817
0.09329999999999983,-0.045044407787702766
0.09229999999999983,-0.04517173180469062
0.09129999999999983,-0.04528490870867982
0.09029999999999982,-0.04541223272566768
0.08929999999999982,-0.045511262516658234
0.08829999999999982,-0.04553955674265553
0.08729999999999982,-0.045511262516658234
0.08629999999999982,-0.04548296829066093
0.08529999999999982,-0.04545467406466363
0.08429999999999982,-0.04546882117766228
0.08329999999999982,-0.04549711540365958
0.08229999999999982,-0.04556785096865284
0.08129999999999982,-0.04563858653364609
0.08029999999999982,-0.045666880759643376
0.07929999999999982,-0.045695174985640685
0.07829999999999981,-0.045681027872642034
0.07729999999999981,-0.045681027872642034
0.07629999999999981,-0.045709322098639336
0.07529999999999992,-0.04572346921163799
0.07429999999999992,-0.04580835188962989
0.07329999999999992,-0.04585079322862584
0.07229999999999992,-0.045893234567621795
0.07129999999999992,-0.04593567590661774
0.07029999999999992,-0.04594982301961639
0.06929999999999992,-0.04594982301961639
0.06829999999999992,-0.04597811724561369
0.06729999999999992,-0.045963970132615044
0.06629999999999991,-0.04597811724561369
0.06529999999999991,-0.04603470569760829
0.06429999999999991,-0.046062999923605595
0.06329999999999991,-0.0461195883756002
0.06229999999999991,-0.0461761768275948
0.06129999999999991,-0.0462044710535921
0.06029999999999991,-0.04628935373158401
0.05929999999999991,-0.0463742364095759
0.05829999999999991,-0.046515707539562405
0.05729999999999991,-0.04662888444355161
0.056299999999999906,-0.04675620846053946
0.055299999999999905,-0.04684109113853137
0.054299999999999904,-0.04685523825153001
0.0532999999999999,-0.04685523825153001
0.0522999999999999,-0.046869385364528664
0.0512999999999999,-0.046869385364528664
0.0502999999999999,-0.04694012092952192
0.0492999999999999,-0.04712403339850437
0.0482999999999999,-0.047265504528490876
0.0472999999999999,-0.04732209298048548
0.0462999999999999,-0.047251357415492225
0.045299999999999896,-0.04719476896349762
0.044299999999999895,-0.04715232762450167
0.043299999999999894,-0.047166474737500325
0.04229999999999989,-0.047251357415492225
0.04129999999999989,-0.047336240093484125
0.04029999999999989,-0.04747771122347064
0.03929999999999989,-0.047633329466455786
0.03829999999999989,-0.04776065348344364
0.03729999999999989,-0.04787383038743284
0.03629999999999989,-0.04797286017842339
0.03529999999999989,-0.04801530151741934
0.034299999999999886,-0.048071889969413945
0.033299999999999885,-0.04805774285641529
0.032299999999999884,-0.04804359574341665
0.031299999999999883,-0.04805774285641529
0.030299999999999883,-0.0481143313084099
0.02929999999999988,-0.04821336109940045
0.02829999999999988,-0.04832653800338965
0.02729999999999988,-0.04846800913337616
0.02629999999999988,-0.04852459758537076
0.025299999999999878,-0.04855289181136806
0.024299999999999877,-0.04856703892436671
0.023299999999999876,-0.04858118603736536
0.022299999999999875,-0.04859533315036401
0.021299999999999875,-0.04866606871535726
0.020299999999999874,-0.04879339273234512
0.019299999999999873,-0.04887827541033701
0.018299999999999872,-0.04899145231432622
0.01729999999999987,-0.04907633499231812
0.01629999999999987,-0.049118776331314076
0.01529999999999987,-0.049189511896307325
0.014299999999999868,-0.04923195323530328
0.013299999999999867,-0.04930268880029653
0.012299999999999978,-0.04937342436528978
0.011299999999999866,-0.04941586570428573
0.010299999999999976,-0.049472454156280335
0.009299999999999864,-0.04950074838227764
0.008299999999999974,-0.04951489549527628
0.007299999999999862,-0.04955733683427224
0.006299999999999972,-0.04958563106026953
0.00529999999999986,-0.04964221951226414
0.0042999999999999705,-0.04976954352925199
0.0032999999999998586,-0.049911014659238494
0.0022999999999999687,-0.05015151558021554
0.0012999999999998568,-0.050392016501192606
0.00029999999999996696,-0.05056178185717641
-0.000700000000000145,-0.05068910587416426
-0.0017000000000000348,-0.05068910587416426
-0.0027000000000001467,-0.050660811648166965
-0.0037000000000000366,-0.05057592897017506
-0.0047000000000001485,-0.05050519340518181
-0.005700000000000038,-0.05057592897017506
-0.00670000000000015,-0.050731547213160214
-0.00770000000000004,-0.05095790102113862
-0.008700000000000152,-0.05117010771611837
-0.009700000000000042,-0.05124084328111162
-0.010700000000000154,-0.05124084328111162
-0.011700000000000044,-0.05117010771611837
-0.012700000000000156,-0.05108522503812647
-0.013700000000000045,-0.05108522503812647
-0.014700000000000157,-0.051127666377122426
-0.015700000000000047,-0.05119840194211568
-0.01670000000000016,-0.05132572595910353
-0.01770000000000005,-0.05145304997609138
-0.01870000000000016,-0.051580373993079236
-0.01970000000000005,-0.05162281533207519
-0.020700000000000163,-0.051651109558072485
-0.021700000000000053,-0.05163696244507385
-0.022700000000000164,-0.051665256671071136
-0.023700000000000054,-0.051665256671071136
-0.024700000000000166,-0.051735992236064385
-0.025700000000000056,-0.051735992236064385
-0.026700000000000168,-0.05179258068805899
-0.027700000000000058,-0.051863316253052245
-0.02870000000000017,-0.05191990470504685
-0.02970000000000006,-0.05197649315704145
-0.03070000000000017,-0.05206137583503335
-0.03170000000000006,-0.05214625851302525
-0.03270000000000017,-0.05225943541701446
-0.03370000000000006,-0.05237261232100365
-0.034700000000000175,-0.05249993633799151
-0.035700000000000065,-0.05262726035497937
-0.03670000000000018,-0.05259896612898206
-0.03770000000000007,-0.05255652478998611
-0.03870000000000018,-0.052514083450990165
-0.03970000000000007,-0.052514083450990165
-0.04070000000000018,-0.052613113241980716
-0.04170000000000007,-0.05274043725896857
-0.04270000000000018,-0.052896055501953726
-0.04370000000000007,-0.052980938179945626
-0.044700000000000184,-0.05300923240594292
-0.045700000000000074,-0.05307996797093617
-0.046700000000000186,-0.05317899776192673
-0.047700000000000076,-0.053348763117910536
-0.04870000000000019,-0.053575116925888934
-0.04970000000000008,-0.05373073516887409
-0.05070000000000019,-0.05377317650787005
-0.05170000000000008,-0.05374488228187274
-0.05270000000000019,-0.05365999960388084
-0.05370000000000008,-0.053589264038887585
-0.05470000000000019,-0.053589264038887585
-0.05570000000000008,-0.05365999960388084
-0.056700000000000195,-0.0538439120728633
-0.057700000000000085,-0.0540419716548444
-0.058700000000000196,-0.05429661968882011
-0.059700000000000086,-0.05446638504480392
-0.0607000000000002,-0.05460785617479042
-0.06170000000000009,-0.05470688596578097
-0.0627000000000002,-0.054749327304776926
-0.06370000000000009,-0.05470688596578097
-0.0647000000000002,-0.05469273885278232
-0.06570000000000009,-0.05467859173978367
-0.0667000000000002,-0.05472103307877962
