Potential V vs RHE, Current mA cm-2
0.013299999999999867,31.321708179011907
0.012299999999999978,29.751378636161718
0.011299999999999866,28.435697127287238
0.010299999999999976,27.43125210438306
0.009299999999999864,26.65316088945729
0.008299999999999974,25.90336390052882
0.007299999999999862,25.04039000761115
0.006299999999999972,23.93691519371642
0.00529999999999986,22.72026347583249
0.0042999999999999705,21.376287740960702
0.0032999999999998586,20.14548891007812
0.0022999999999999687,19.22592656516585
0.0012999999999998568,18.40539401124413
0.00029999999999996696,17.797068152302163
-0.000700000000000145,17.047271163373694
-0.0017000000000000348,16.184297270456018
-0.0027000000000001467,15.05252823056399
-0.0037000000000000366,13.824558822281137
-0.0047000000000001485,12.68996035978938
-0.005700000000000038,11.686930048185067
-0.00670000000000015,10.901765276759972
-0.00770000000000004,10.292024706518141
-0.008700000000000152,9.680869424976446
-0.009700000000000042,8.939560703847167
-0.010700000000000154,7.936530392242855
-0.011700000000000044,6.801931929751096
-0.012700000000000156,5.624892128263387
-0.013700000000000045,4.6218618166590755
-0.014700000000000157,3.8791383842299307
-0.015700000000000047,3.225541763692284
-0.01670000000000016,2.7898106833338523
-0.01770000000000005,2.0909433012005243
-0.01870000000000016,1.2626298351295453
-0.01970000000000005,0.17231183632356148
-0.020700000000000163,-0.9617207416482519
-0.021700000000000053,-1.9650339955125358
-0.022700000000000164,-2.7501987669376318
-0.023700000000000054,-3.403795387475278
-0.024700000000000166,-3.840941179133574
-0.025700000000000056,-4.406825699079589
-0.026700000000000168,-5.149549131508733
-0.027700000000000058,-6.108723392817228
-0.02870000000000017,-7.199465805013171
-0.02970000000000006,-8.202496116617484
-0.03070000000000017,-9.073958277334345
-0.03170000000000006,-9.728969609171857
-0.03270000000000017,-10.208556739826104
-0.03370000000000006,-10.688143870480351
-0.034700000000000175,-11.343155202317865
-0.035700000000000065,-12.258473413330542
-0.03670000000000018,-13.261503724934855
-0.03770000000000007,-14.26028990263957
-0.03870000000000018,-15.222293586547794
-0.03970000000000007,-15.830619445489761
-0.04070000000000018,-16.354062626439823
-0.04170000000000007,-16.70774045140608
-0.04270000000000018,-17.2736249713521
-0.04370000000000007,-18.06586329927652
-0.044700000000000184,-19.01371987018609
-0.045700000000000074,-20.10304757108217
-0.046700000000000186,-21.022609915994444
-0.047700000000000076,-21.67337711393236
-0.04870000000000019,-22.253408746877028
-0.04970000000000008,-22.592939458844636
-0.05070000000000019,-23.073941300798747
-0.05170000000000008,-23.823738289727217
-0.05270000000000019,-24.64427084364894
-0.05370000000000008,-25.691157205549064
-0.05470000000000019,-26.61071955046134
-0.05570000000000008,-27.38881076538711
-0.056700000000000195,-27.954695285333123
-0.057700000000000085,-28.393255788291288
-0.058700000000000196,-28.746933613257543
-0.059700000000000086,-29.35525947219951
-0.0607000000000002,-30.147497800123933
-0.06170000000000009,-31.095354371033505
-0.0627000000000002,-32.09979939393769
-0.06370000000000009,-32.97692039985401
-0.0647000000000002,-33.54280491980002
-0.06570000000000009,-33.98136542275818
-0.0667000000000002,-34.278454795729836
-0.0677000000000001,-34.8018979766799
-0.0687000000000002,-35.50925362661242
-0.0697000000000001,-36.4288159715247
-0.07070000000000021,-37.47570233342482
-0.0717000000000001,-38.33867622634249
-0.07270000000000021,-38.98944342428042
-0.0737000000000001,-39.42800392723857
-0.07470000000000021,-39.82412309120078
-0.0757000000000001,-40.220242255162994
-0.07670000000000021,-40.87100945310091
-0.0777000000000001,-41.70568912002128
-0.07870000000000021,-42.752575481921404
-0.0797000000000001,-43.57310803584313
-0.08070000000000022,-44.36534636376755
-0.0817000000000001,-44.84634820572166
-0.08270000000000022,-45.27076159568118
-0.08370000000000011,-45.666880759643384
-0.08470000000000022,-46.19032394059345
-0.08570000000000011,-46.982562268517874
-0.08670000000000022,-47.8879775004315
-0.08770000000000011,-48.84998118433972
-0.08870000000000022,-49.72710219025603
-0.08970000000000011,-50.29298671020206
-0.09070000000000022,-50.64666453516831
-0.09170000000000011,-50.98619524713592
-0.09270000000000023,-51.424755750094086
-0.09370000000000012,-52.11796428702795
-0.09470000000000023,-53.03752663194023
-0.09570000000000012,-54.0419716548444
-0.09670000000000023,-54.876651321764776
-0.09770000000000012,-55.527418519702685
-0.09870000000000023,-55.96597902266086
-0.09970000000000012,-56.30550973462846
-0.10070000000000023,-56.70162889859067
-0.10170000000000012,-57.352396096528594
-0.10270000000000024,-58.18707576344896
-0.10370000000000013,-59.14907944735718
-0.10470000000000024,-60.02620045327351
-0.10570000000000013,-60.761850329203334
-0.10670000000000024,-61.242852171157445
-0.10770000000000013,-61.53994154412909
-0.10870000000000024,-61.97850204708726
-0.10970000000000013,-62.459503889041365
-0.11070000000000024,-63.251742216965795
-0.11170000000000013,-64.11471610988345
-0.11270000000000002,-65.0767197937917
-0.11370000000000013,-65.91139946071206
-0.11470000000000002,-66.43484264166212
-0.11570000000000014,-66.77437335362974
-0.11670000000000003,-67.08560983960004
-0.11770000000000014,-67.52417034255821
-0.11870000000000003,-68.25982021848802
-0.11970000000000014,-69.0944998854084
-0.12070000000000003,-70.05650356931662
-0.12170000000000014,-70.87703612323833
-0.12270000000000003,-71.48536198218031
-0.12370000000000014,-71.8814811461425
-0.12470000000000003,-72.19271763211282
-0.12570000000000014,-72.57468968307639
-0.12670000000000003,-73.15472131602105
-0.12770000000000015,-73.93281253094682
-0.12870000000000004,-74.89481621485504
-0.12970000000000015,-75.77193722077136
-0.13070000000000004,-76.46514575770523
-0.13170000000000015,-76.94614759965934
-0.13270000000000004,-77.243236972631
-0.13370000000000015,-77.68179747558916
-0.13470000000000004,-78.12035797854733
-0.13570000000000015,-78.9550376454677
-0.13670000000000004,-79.7755701993894
-0.13770000000000016,-80.7800152222936
-0.13870000000000005,-81.57225355021802
-0.13970000000000016,-82.09569673116808
-0.14070000000000005,-82.43522744313569
-0.14170000000000016,-82.746463929106
-0.14270000000000005,-83.18502443206415
-0.14370000000000016,-83.92067430799398
-0.14470000000000005,-84.75535397491434
-0.14570000000000016,-85.70321054582392
-0.14670000000000005,-86.58033155174023
-0.14770000000000016,-87.14621607168625
-0.14870000000000005,-87.58477657464444
-0.14970000000000017,-87.89601306061473
-0.15070000000000006,-88.27798511157829
-0.15170000000000017,-88.9004580835189
-0.15270000000000006,-89.76343197643658
-0.15370000000000017,-90.68299432134886
-0.15470000000000006,-91.56011532726518
-0.15570000000000017,-92.25332386419905
-0.15670000000000006,-92.7767670451491
-0.15770000000000017,-93.03141507912481
-0.15870000000000006,-93.46997558208298
-0.15970000000000018,-93.99341876303303
-0.16070000000000007,-94.87053976894937
-0.16170000000000018,-95.79010211386164
-0.16270000000000007,-96.69551734577524
-0.16370000000000018,-97.44531433470372
-0.16470000000000007,-97.92631617665783
-0.16570000000000018,-98.3082882276214
-0.16670000000000007,-98.6195247135917
-0.16770000000000018,-99.18540923353773
-0.16870000000000007,-99.87861777047159
-0.16970000000000018,-100.79818011538387
-0.17070000000000007,-101.80262513828804
-0.17170000000000019,-102.67974614420436
-0.17270000000000008,-103.28807200314633
-0.1737000000000002,-103.7266325061045
-0.17470000000000008,-103.98128054008019
-0.1757000000000002,-104.41984104303836
-0.17670000000000008,-104.98572556298437
-0.1777000000000002,-105.82040522990474
-0.17870000000000008,-106.78240891381296
-0.1797000000000002,-107.68782414572658
-0.18070000000000008,-108.39517979565912
-0.1817000000000002,-108.87618163761321
-0.18270000000000008,-109.21571234958083
-0.1837000000000002,-109.56939017454708
-0.1847000000000001,-110.09283335549715
-0.1857000000000002,-110.82848323142699
-0.1867000000000001,-111.74804557633925
-0.1877000000000002,-112.71004926024747
-0.1887000000000001,-113.53058181416918
-0.1897000000000002,-114.05402499511925
-0.1907000000000001,-114.4925854980774
-0.1917000000000001,-114.76138064505177
-0.19269999999999998,-115.19994114800993
-0.1937000000000001,-115.72338432896
-0.19469999999999998,-116.62879956087362
-0.1957000000000001,-117.63324458377778
-0.19669999999999999,-118.51036558969413
-0.1977000000000001,-119.1186914486361
-0.1987,-119.55725195159425
-0.1997000000000001,-119.9109297765605
-0.2007,-120.29290182752408
-0.2017000000000001,-121.00025747745659
-0.2027,-121.82079003137831
-0.2037000000000001,-122.82523505428249
-0.2047,-123.65991472120285
-0.2057000000000001,-124.39556459713268
-0.2067,-124.87656643908679
-0.2077000000000001,-125.23024426405304
-0.2087,-125.62636342801528
-0.2097000000000001,-126.05077681797478
-0.2107,-126.84301514589919
-0.2117000000000001,-127.76257749081147
-0.2127,-128.71043406172103
-0.2137000000000001,-129.50267238964545
-0.2147,-130.02611557059552
-0.2157000000000001,-130.46467607355368
-0.2167,-130.76176544652535
-0.21770000000000012,-131.24276728847948
-0.2187,-131.95012293841197
-0.21970000000000012,-132.81309683132966
-0.2207,-133.81754185423384
-0.22170000000000012,-134.69466286015015
-0.2227,-135.34543005808808
-0.22370000000000012,-135.74154922205025
-0.2247,-136.08107993401788
-0.22570000000000012,-136.43475775898415
-0.2267,-137.12796629591801
-0.22770000000000012,-137.9626459628384
-0.22870000000000001,-138.96709098574257
-0.22970000000000013,-139.80177065266292
-0.23070000000000002,-140.53742052859275
-0.23170000000000013,-140.9759810315509
-0.23270000000000002,-141.3155117435185
-0.23370000000000013,-141.75407224647665
-0.23470000000000002,-142.17848563643616
-0.23570000000000013,-143.0273124163552
-0.23670000000000002,-143.87613919627424
-0.2376999999999999,-145.00790823616626
-0.23870000000000002,-145.7152638860988
-0.2396999999999999,-146.28114840604482
-0.24070000000000003,-146.7055617960043
-0.24169999999999991,-147.1299751859638
-0.24270000000000003,-147.55438857592333
-0.24369999999999992,-148.26174422585584
-0.24470000000000003,-149.25204213576137
-0.24569999999999992,-150.24234004566688
-0.24670000000000003,-151.09116682558593
-0.24769999999999992,-151.65705134553193
-0.24870000000000003,-152.22293586547795
-0.24969999999999992,-152.50587812545095
-0.25070000000000003,-152.93029151541046
-0.2516999999999999,-153.49617603535648
-0.25270000000000004,-154.3450028152755
-0.2536999999999999,-155.33530072518104
-0.25470000000000004,-156.18412750510007
-0.2556999999999999,-157.03295428501906
-0.25670000000000004,-157.45736767497857
-0.25769999999999993,-157.88178106493808
-0.25870000000000004,-158.3061944548976
-0.25969999999999993,-158.87207897484362
-0.26070000000000004,-159.57943462477613
-0.26169999999999993,-160.42826140469515
-0.26270000000000004,-161.2770881846142
-0.26369999999999993,-162.2673860945197
-0.26470000000000005,-162.8332706144657
-0.26569999999999994,-163.25768400442522
-0.26670000000000005,-163.68209739438475
-0.26769999999999994,-164.24798191433075
-0.26870000000000005,-165.09680869424977
-0.26969999999999994,-165.94563547416882
-0.27070000000000005,-166.93593338407433
-0.27169999999999994,-167.78476016399335
-0.27270000000000005,-168.35064468393938
-0.27369999999999994,-168.91652920388537
-0.27470000000000006,-169.19947146385837
-0.27569999999999995,-169.6238848538179
-0.27670000000000006,-170.33124050375042
-0.27769999999999995,-171.18006728366944
-0.27870000000000006,-172.31183632356147
-0.27969999999999995,-173.16066310348046
-0.28070000000000006,-173.86801875341303
-0.28169999999999995,-174.43390327335902
-0.28270000000000006,-174.71684553333202
-0.28369999999999995,-175.28273005327804
-0.28470000000000006,-175.70714344323756
-0.28569999999999995,-176.55597022315658
-0.28670000000000007,-177.54626813306209
-0.28769999999999996,-178.53656604296762
-0.28870000000000007,-179.38539282288664
-0.28969999999999996,-179.95127734283267
-0.29070000000000007,-180.5171618627787
-0.29169999999999996,-180.94157525273818
-0.29270000000000007,-181.5074597726842
-0.29369999999999996,-182.21481542261674
-0.2947000000000001,-183.20511333252225
-0.29569999999999996,-184.19541124242778
-0.2967000000000001,-185.0442380223468
-0.29769999999999996,-185.6101225422928
-0.2987000000000001,-186.17600706223882
-0.29969999999999997,-186.45894932221185
-0.3007000000000001,-186.88336271217133
-0.30169999999999997,-187.73218949209036
-0.3027000000000001,-188.58101627200938
-0.30369999999999997,-189.57131418191491
-0.3047000000000001,-190.42014096183394
-0.30569999999999997,-191.268967741753
-0.3067000000000001,-191.69338113171247
-0.3077,-192.11779452167198
-0.3087000000000001,-192.54220791163152
-0.3097,-193.10809243157752
-0.3107000000000001,-193.9569192114965
-0.3117,-194.94721712140205
-0.3127000000000001,-195.93751503130758
-0.3137,-196.7863418112266
-0.3147000000000001,-197.35222633117263
-0.3157,-197.77663972113214
-0.3167000000000001,-198.20105311109162
-0.3177,-198.76693763103765
-0.3187000000000001,-199.61576441095667
-0.3197,-200.6060623208622
-0.3207000000000001,-201.59636023076774
-0.3217,-202.58665814067325
-0.3227000000000001,-203.43548492059227
-0.3237,-204.0013694405383
-0.3247000000000001,-204.2843117005113
-0.3257,-204.8501962204573
-0.3267000000000001,-205.27460961041683
-0.3277,-205.98196526034934
-0.3287000000000001,-206.97226317025488
-0.3297,-207.8210899501739
-0.3307000000000001,-208.6699167300929
-0.3317,-209.23580125003892
-0.3327000000000001,-209.51874351001192
-0.3337,-209.8016857699849
-0.3347000000000001,-210.36757028993094
-0.3357,-211.21639706985
-0.3367000000000001,-212.2066949797555
-0.3377,-213.19699288966103
-0.3387000000000001,-214.18729079956654
-0.3397,-214.75317531951256
-0.3407000000000001,-215.31905983945856
-0.3417,-215.7434732294181
-0.3427000000000001,-216.3093577493641
-0.3437,-217.01671339929663
-0.3447000000000001,-218.14848243918865
-0.3457,-219.13878034909416
-0.3467000000000001,-219.98760712901318
-0.3477,-220.6949627789457
-0.3487000000000001,-221.11937616890526
-0.3497,-221.68526068885126
-0.3507000000000001,-222.10967407881074
-0.3517,-222.81702972874328
-0.3527000000000001,-223.80732763864881
-0.3537,-224.79762554855435
-0.3547000000000001,-225.64645232847332
-0.3557,-226.49527910839237
-0.35670000000000013,-227.06116362833836
-0.3577,-227.4855770182979
-0.35870000000000013,-228.0514615382439
-0.3597,-228.61734605818995
-0.36070000000000013,-229.32470170812243
-0.3617,-230.45647074801445
-0.3626999999999999,-231.44676865792
-0.3637,-232.15412430785253
-0.3646999999999999,-232.43706656782552
-0.3657,-232.86147995778504
-0.3666999999999999,-233.28589334774458
-0.3677,-233.85177786769057
-0.3686999999999999,-234.9835469075826
-0.36970000000000003,-236.25678707746113
-0.3706999999999999,-237.24708498736666
-0.37170000000000003,-238.0959117672857
-0.3726999999999999,-238.5203251572452
-0.37370000000000003,-239.0862096771912
-0.3746999999999999,-239.5106230671507
-0.37570000000000003,-239.93503645711021
-0.3766999999999999,-240.64239210704275
-0.37770000000000004,-241.49121888696175
-0.3786999999999999,-242.62298792685377
-0.37970000000000004,-243.47181470677282
-0.3806999999999999,-244.32064148669184
-0.38170000000000004,-244.74505487665132
-0.38269999999999993,-245.16946826661086
-0.38370000000000004,-245.73535278655686
-0.38469999999999993,-246.30123730650286
-0.38570000000000004,-247.1500640864219
-0.38669999999999993,-247.2915352164084
-0.38570000000000004,-245.73535278655686
-0.38469999999999993,-244.17917035670533
-0.38370000000000004,-242.34004566688077
-0.38269999999999993,-240.21797871708318
-0.38170000000000004,-238.0959117672857
-0.3806999999999999,-231.8711820478795
-0.37970000000000004,-230.31499961802797
-0.3786999999999999,-228.90028831816295
-0.37770000000000004,-227.7685192782709
-0.3766999999999999,-226.35380797840588
-0.37570000000000003,-225.08056780852735
-0.3746999999999999,-223.2414431187028
-0.37370000000000003,-221.40231842887826
-0.3726999999999999,-219.7046648690402
-0.37170000000000003,-218.28995356917517
-0.3706999999999999,-217.01671339929663
-0.36970000000000003,-215.88494435940459
-0.3686999999999999,-214.75317531951256
-0.3677,-213.33846401964755
-0.3666999999999999,-211.499339329823
-0.3657,-209.8016857699849
-0.3646999999999999,-208.24550334013338
-0.3637,-206.68932091028185
-0.3626999999999999,-205.55755187038983
-0.3617,-204.42578283049778
-0.36070000000000013,-203.29401379060576
-0.3597,-202.16224475071377
-0.35870000000000013,-200.7475334508487
-0.3577,-199.04987989101065
-0.35670000000000013,-197.35222633117263
-0.3557,-195.93751503130758
-0.3547000000000001,-194.66427486142905
-0.3537,-193.3910346915505
-0.3527000000000001,-192.40073678164498
-0.3517,-191.12749661176645
-0.3507000000000001,-189.8542564418879
-0.3497,-188.4395451420229
-0.3487000000000001,-186.74189158218485
-0.3477,-185.1857091523333
-0.3467000000000001,-183.91246898245475
-0.3457,-182.78069994256273
-0.3447000000000001,-181.79040203265723
-0.3437,-180.65863299276518
-0.3427000000000001,-179.38539282288664
-0.3417,-177.9706815230216
-0.3407000000000001,-176.4144990931701
-0.3397,-174.71684553333202
-0.3387000000000001,-173.44360536345349
-0.3377,-172.31183632356147
-0.3367000000000001,-171.32153841365593
-0.3357,-170.33124050375042
-0.3347000000000001,-169.19947146385837
-0.3337,-167.78476016399335
-0.3327000000000001,-166.22857773414182
-0.3317,-164.67239530429026
-0.3307000000000001,-163.25768400442522
-0.3297,-161.9844438345467
-0.3287000000000001,-161.1356170546277
-0.3277,-160.14531914472215
-0.3267000000000001,-159.15502123481662
-0.3257,-157.88178106493808
-0.3247000000000001,-156.46706976507306
-0.3237,-154.76941620523502
-0.3227000000000001,-153.35470490536997
-0.3217,-152.22293586547795
-0.3207000000000001,-151.23263795557244
-0.3197,-150.24234004566688
-0.3187000000000001,-149.39351326574788
-0.3177,-148.26174422585584
-0.3167000000000001,-146.8470329259908
-0.3157,-145.29085049613926
-0.3147000000000001,-143.87613919627424
-0.3137,-142.6028990263957
-0.3127000000000001,-141.47112998650366
-0.3117,-140.66474454558062
-0.3107000000000001,-139.70274086167237
-0.3097,-138.7548842907628
-0.3087000000000001,-137.43920278188833
-0.3077,-136.03863859502192
-0.3067000000000001,-134.42586771317576
-0.30569999999999997,-133.12433331729994
-0.3047000000000001,-132.03500561640385
-0.30369999999999997,-131.1154432714916
-0.3027000000000001,-130.23832226557528
-0.30169999999999997,-129.27631858166706
-0.3007000000000001,-128.10210820277908
-0.29969999999999997,-126.71569112891132
-0.2987000000000001,-125.272685603049
-0.29769999999999996,-123.91456275517855
-0.2967000000000001,-122.74035237629057
-0.29569999999999996,-121.82079003137831
-0.2947000000000001,-121.04269881645253
-0.29369999999999996,-120.08069513254432
-0.29270000000000007,-118.99136743164823
-0.29169999999999996,-117.63324458377778
-0.29070000000000007,-116.20438617091412
-0.28969999999999996,-114.80382198404773
-0.28870000000000007,-113.58717026616378
-0.28769999999999996,-112.58272524325962
-0.28670000000000007,-111.74804557633925
-0.28569999999999995,-110.96995436141347
-0.28470000000000006,-110.00795067750525
-0.28369999999999995,-108.73471050762672
-0.28270000000000006,-107.39073477275493
-0.28169999999999995,-105.94772924689259
-0.28070000000000006,-104.68863619001272
-0.27969999999999995,-103.68419116710854
-0.27870000000000006,-102.80707016119221
-0.27769999999999995,-102.11386162425833
-0.27670000000000006,-101.15185794035013
-0.27569999999999995,-100.02008890045809
-0.27470000000000006,-98.7044073915836
-0.27369999999999994,-97.36043165671182
-0.27270000000000005,-96.04475014783733
-0.27169999999999994,-95.04030512493317
-0.27070000000000005,-94.13488989301955
-0.26969999999999994,-93.42753424308701
-0.26870000000000005,-92.56456035016936
