Potential V vs RHE, Current mA cm-2
0.4132999999999999,0.001396037110706818
0.4122999999999999,-0.00011835474734670897
0.4112999999999999,-0.00047704065031449033
0.4102999999999999,-0.000672412280825852
0.4092999999999999,-0.0008232205053914648
0.4082999999999999,-0.0009529495315890887
0.4072999999999999,-0.0011275249059924343
0.4062999999999999,-0.001320067113904066
0.4052999999999999,-0.0014939351326574788
0.4042999999999999,-0.001619844438345467
0.4032999999999999,-0.001697653559838044
0.4022999999999999,-0.0017966833508285967
0.4012999999999999,-0.001861760070622388
0.4002999999999999,-0.0019438133260145604
0.3992999999999999,-0.002096602146399984
0.3982999999999999,-0.002222511452087973
0.3972999999999999,-0.0023682267159740714
0.3962999999999999,-0.0024913065990623292
0.3952999999999999,-0.0026242894612496428
0.3942999999999999,-0.0027077574279416802
0.39329999999999987,-0.0027997136624329073
0.39229999999999987,-0.0028492285579281838
0.39129999999999987,-0.0029128905664221106
0.39029999999999987,-0.003006261512213203
0.38929999999999987,-0.003119438416202406
0.38829999999999987,-0.0032538359896895843
0.38729999999999987,-0.003359939337179462
0.38629999999999987,-0.003436333747372174
0.38529999999999986,-0.003518387002764346
0.38429999999999986,-0.003586293145157868
0.38329999999999986,-0.00366268755535058
0.38229999999999986,-0.003739081965543292
0.38129999999999986,-0.0038055733966369486
0.38029999999999986,-0.003921579723225882
0.37929999999999986,-0.003990900576919269
0.37829999999999986,-0.004082856811410495
0.37729999999999986,-0.00420452198319889
0.37629999999999986,-0.004313454753288497
0.37529999999999986,-0.004416728678178645
0.37429999999999986,-0.004470487707573516
0.37329999999999985,-0.004522832025668522
0.37229999999999985,-0.004587908745462314
0.37129999999999985,-0.004609129414960289
0.37029999999999985,-0.004694012092952192
0.36929999999999985,-0.0047817241935438235
0.36829999999999985,-0.004883583407134106
0.36729999999999985,-0.0049698807964258735
0.36629999999999985,-0.005026469248420475
0.36529999999999985,-0.005070325298716291
0.36429999999999985,-0.005145304997609138
0.36329999999999985,-0.00521886998520212
0.36229999999999984,-0.005344779290890109
0.36129999999999984,-0.005482006286977017
0.36029999999999984,-0.005661674622059877
0.35929999999999984,-0.00579182806164746
0.35829999999999984,-0.005878125450939227
0.35729999999999984,-0.005914907944735718
0.35629999999999984,-0.005913493233435853
0.35529999999999984,-0.005912078522135988
0.35429999999999984,-0.005970081685430455
0.35329999999999984,-0.006076185032920332
0.35229999999999984,-0.006197850204708726
0.35129999999999983,-0.0063534684476938795
0.35029999999999983,-0.006492110155080654
0.34929999999999983,-0.006589725234771341
0.34829999999999983,-0.006654801954565132
0.34729999999999983,-0.006728366942158114
0.34629999999999983,-0.006725537519558384
0.34529999999999983,-0.006746758189056361
0.34429999999999983,-0.006762320013354876
0.3432999999999998,-0.006844373268747047
0.3422999999999998,-0.006958964884036116
0.3412999999999998,-0.007090533034923564
0.3402999999999998,-0.007200880516313037
0.3392999999999998,-0.007227760031010472
0.3382999999999998,-0.007251810123108177
0.3372999999999998,-0.007270201370006423
0.3362999999999998,-0.007282933771705209
0.3352999999999998,-0.007369231160996976
0.3342999999999998,-0.007437137303390498
0.3332999999999998,-0.007524849403982131
0.3322999999999998,-0.007596999680275247
0.3312999999999998,-0.007625293906272548
0.3302999999999998,-0.00769885889386553
0.3292999999999998,-0.007773838592758377
0.3282999999999998,-0.007838915312552168
0.3272999999999998,-0.00790965087754542
0.3262999999999998,-0.007947848082641776
0.3252999999999999,-0.00799877768943692
0.3242999999999999,-0.008056780852731385
0.3232999999999999,-0.008102051614327066
0.3222999999999999,-0.008209569673116807
0.3212999999999999,-0.00825766985731222
0.3202999999999999,-0.008338308401404525
0.3192999999999999,-0.008413288100297373
0.3182999999999999,-0.008495341355689546
0.3172999999999999,-0.008532123849486036
0.3162999999999999,-0.008564662209382932
0.3152999999999999,-0.008575979899781852
0.3142999999999999,-0.008615591816178074
0.3132999999999999,-0.008691986226370785
0.3122999999999999,-0.008786771883461744
0.3112999999999999,-0.0088815575405527
0.3102999999999999,-0.00892682830214838
0.3092999999999999,-0.008953707816845817
0.3082999999999999,-0.008990490310642309
0.3072999999999999,-0.009024443381839069
0.3062999999999999,-0.009082446545133535
0.3052999999999999,-0.009140449708428004
0.3042999999999999,-0.009208355850821524
0.3032999999999999,-0.009304556219212345
0.3022999999999999,-0.009369632939006138
0.3012999999999999,-0.009396512453703574
0.3002999999999999,-0.009438953792699524
0.2992999999999999,-0.009444612637898985
0.2982999999999999,-0.00948563926559507
0.2972999999999999,-0.009554960119288457
0.2962999999999999,-0.009601645592184002
0.2952999999999999,-0.009669551734577526
0.2942999999999999,-0.009716237207473073
0.2932999999999999,-0.009788387483766188
0.2922999999999999,-0.009881758429557281
0.2912999999999999,-0.009898734965155663
0.2902999999999999,-0.009944005726751342
0.2892999999999999,-0.00997654408664824
0.2882999999999999,-0.01000766773524527
0.2872999999999999,-0.0100670856098396
0.2862999999999999,-0.010125088773134068
0.2852999999999999,-0.010180262513828803
0.2842999999999999,-0.010239680388423135
0.2832999999999999,-0.010294854129117872
0.2822999999999999,-0.010323148355115172
0.2812999999999999,-0.010348613158512742
0.2802999999999999,-0.010383980941009369
0.2792999999999999,-0.010480181309400191
0.2782999999999999,-0.010546672740493849
0.2772999999999999,-0.010615993594187237
0.2762999999999999,-0.010641458397584805
0.2752999999999999,-0.01065702022188332
0.2742999999999999,-0.010683899736580757
0.2732999999999999,-0.010744732322474953
0.2722999999999999,-0.010833859134366451
0.2712999999999999,-0.010966841996553765
0.2702999999999999,-0.011043236406746476
0.2692999999999999,-0.011074360055343508
0.26829999999999987,-0.011111142549139998
0.26729999999999987,-0.011099824858741078
0.26629999999999987,-0.011115386683039593
0.26529999999999987,-0.011188951670632576
0.26429999999999987,-0.011268175503425019
0.26329999999999987,-0.01135305818141692
0.26229999999999987,-0.011405402499511925
0.26129999999999987,-0.0114549173950072
0.26029999999999986,-0.011548288340798294
0.25929999999999986,-0.011589314968494382
0.25829999999999986,-0.01160912092669249
0.25729999999999986,-0.011652976976988307
0.25629999999999986,-0.011650147554388578
0.25529999999999986,-0.011729371387181019
0.25429999999999986,-0.011773227437476835
0.25329999999999986,-0.011859524826768601
0.25229999999999986,-0.011958554617759154
0.25129999999999986,-0.011992507688955914
0.25029999999999986,-0.01201938720365335
0.24929999999999986,-0.012016557781053622
0.24829999999999985,-0.012033534316652
0.24729999999999985,-0.012114172860744309
0.24629999999999985,-0.012172176024038774
0.24529999999999985,-0.012281108794128383
0.24429999999999985,-0.012377309162519206
0.24329999999999985,-0.012432482903213941
0.24229999999999985,-0.012445215304912728
0.24129999999999985,-0.012449459438812323
0.24029999999999985,-0.012474924242209893
0.23929999999999985,-0.01253858625070382
0.23829999999999985,-0.012620639506095991
0.23729999999999984,-0.012706936895387759
0.23629999999999984,-0.01277484303778128
0.23529999999999984,-0.012811625531577771
0.23429999999999984,-0.0128469933140744
0.23329999999999984,-0.012896508209569675
0.23229999999999984,-0.012916314167767784
0.23129999999999984,-0.012948852527664681
0.23029999999999984,-0.012994123289260362
0.22929999999999984,-0.013035149916956448
0.22829999999999984,-0.013093153080250913
0.22729999999999984,-0.013129935574047406
0.22629999999999983,-0.013172376913043356
0.22529999999999983,-0.013228965365037957
0.22429999999999983,-0.013298286218731345
0.22329999999999983,-0.013411463122720546
0.22229999999999983,-0.013514737047610694
0.22129999999999983,-0.013588302035203677
0.22029999999999983,-0.013630743374199627
0.21929999999999983,-0.013622255106400437
0.21829999999999983,-0.013633572796799357
0.21729999999999983,-0.01367601413579531
0.21629999999999983,-0.01368167298099477
0.21529999999999982,-0.013753823257287886
0.21429999999999982,-0.013814655843182085
0.21329999999999982,-0.013896709098574253
0.21229999999999982,-0.014001397734764267
0.21129999999999982,-0.014039594939860626
0.21029999999999982,-0.01410325694835455
0.20929999999999982,-0.014132965885651718
0.20829999999999982,-0.014147112998650365
0.20729999999999982,-0.014175407224647668
0.20629999999999982,-0.014189554337646317
0.20529999999999982,-0.014231995676642267
0.20429999999999982,-0.01430273124163552
0.20329999999999981,-0.014359319693630123
0.2022999999999998,-0.014415908145624722
0.2012999999999998,-0.014415908145624722
0.20029999999999992,-0.014458349484620674
0.19929999999999992,-0.014500790823616624
0.19829999999999992,-0.014557379275611227
0.19729999999999992,-0.014642261953603129
0.19629999999999992,-0.014684703292599082
0.19529999999999992,-0.014741291744593682
0.19429999999999992,-0.014812027309586936
0.19329999999999992,-0.014840321535584235
0.19229999999999992,-0.014812027309586936
0.19129999999999991,-0.014840321535584235
0.1902999999999999,-0.014911057100577486
0.1892999999999999,-0.014995939778569388
0.1882999999999999,-0.01509496956955994
0.1872999999999999,-0.015165705134553195
0.1862999999999999,-0.015151558021554544
0.1852999999999999,-0.015151558021554544
0.1842999999999999,-0.015165705134553195
0.1832999999999999,-0.015193999360550494
0.1822999999999999,-0.015250587812545097
0.1812999999999999,-0.015293029151541045
0.1802999999999999,-0.015377911829532949
0.1792999999999999,-0.015406206055530251
0.1782999999999999,-0.01543450028152755
0.1772999999999999,-0.01546279450752485
0.1762999999999999,-0.01546279450752485
0.1752999999999999,-0.015519382959519455
0.1742999999999999,-0.015533530072518101
0.1732999999999999,-0.015575971411514053
0.1722999999999999,-0.015632559863508654
0.1712999999999999,-0.015632559863508654
0.1702999999999999,-0.01568914831550326
0.1692999999999999,-0.015745736767497857
0.1682999999999999,-0.01580232521949246
0.1672999999999999,-0.01585891367148706
0.1662999999999999,-0.015873060784485714
0.1652999999999999,-0.01591550212348166
0.1642999999999999,-0.015986237688474913
0.1632999999999999,-0.016014531914472215
0.1622999999999999,-0.016042826140469518
0.1612999999999999,-0.016056973253468165
0.1602999999999999,-0.01611356170546277
0.1592999999999999,-0.016170150157457368
0.15829999999999989,-0.01625503283544927
0.15729999999999988,-0.016311621287443873
0.15629999999999988,-0.016368209739438477
0.15529999999999988,-0.016424798191433075
0.15429999999999988,-0.016424798191433075
0.15329999999999988,-0.016438945304431726
0.15229999999999988,-0.016438945304431726
0.15129999999999988,-0.01646723953042903
0.15029999999999988,-0.016537975095422278
0.14929999999999988,-0.01660871066041553
0.14829999999999988,-0.016679446225408782
0.14729999999999988,-0.016721887564404736
0.14629999999999987,-0.016792623129397985
0.14529999999999987,-0.01691994714638584
0.14429999999999987,-0.01699068271137909
0.14329999999999987,-0.017018976937376393
0.14229999999999987,-0.017047271163373692
0.14129999999999987,-0.017004829824377742
0.14029999999999987,-0.01703312405037504
0.13929999999999987,-0.017047271163373692
0.13829999999999987,-0.017103859615368294
0.13729999999999987,-0.017231183632356147
0.13629999999999987,-0.01731606631034805
0.13529999999999986,-0.017400948988339954
0.13429999999999986,-0.017443390327335904
0.13329999999999986,-0.017471684553333203
0.13229999999999986,-0.017542420118326456
0.13129999999999986,-0.017613155683319705
0.13029999999999986,-0.01772633258730891
0.12929999999999986,-0.01776877392630486
0.12829999999999986,-0.01781121526530081
0.12729999999999986,-0.017825362378299462
0.12629999999999986,-0.017797068152302163
0.12529999999999986,-0.017797068152302163
0.12429999999999986,-0.017839509491298113
0.12329999999999985,-0.017881950830294063
0.12229999999999985,-0.017952686395287316
0.12129999999999985,-0.018009274847281917
0.12029999999999985,-0.018051716186277867
0.11929999999999985,-0.018080010412275173
0.11829999999999985,-0.018094157525273817
0.11729999999999985,-0.018108304638272472
0.11629999999999985,-0.01812245175127112
0.11529999999999985,-0.018150745977268422
0.11429999999999985,-0.018221481542261674
0.11329999999999985,-0.018306364220253574
0.11229999999999984,-0.018391246898245478
0.11129999999999984,-0.018433688237241428
0.11029999999999984,-0.018447835350240076
0.10929999999999984,-0.018419541124242777
0.10829999999999984,-0.018447835350240076
0.10729999999999984,-0.01847612957623738
0.10629999999999984,-0.01856101225422928
0.10529999999999984,-0.018617600706223883
0.10429999999999984,-0.018674189158218484
0.10329999999999984,-0.018716630497214438
0.10229999999999984,-0.018744924723211737
0.10129999999999983,-0.018759071836210388
0.10029999999999983,-0.01882980740120364
0.09929999999999983,-0.018843954514202284
0.09829999999999983,-0.018942984305192843
0.09729999999999983,-0.018999572757187444
0.09629999999999983,-0.018985425644188793
0.09529999999999983,-0.019042014096183394
0.09429999999999983,-0.019098602548177995
0.09329999999999983,-0.019197632339168547
0.09229999999999983,-0.01928251501716045
0.09129999999999983,-0.0192966621301591
0.09029999999999982,-0.01933910346915505
0.08929999999999982,-0.01933910346915505
0.08829999999999982,-0.019367397695152354
0.08729999999999982,-0.019423986147146955
0.08629999999999982,-0.019452280373144254
0.08529999999999982,-0.019551310164134805
0.08429999999999982,-0.01967863418112266
0.08329999999999982,-0.019777663972113214
0.08229999999999982,-0.019848399537106463
0.08129999999999982,-0.019862546650105117
0.08029999999999982,-0.019834252424107815
0.07929999999999982,-0.019834252424107815
0.07829999999999981,-0.019862546650105117
0.07729999999999981,-0.019919135102099715
0.07629999999999981,-0.02004645911908757
0.07529999999999992,-0.020173783136075422
0.07429999999999992,-0.020230371588070024
0.07329999999999992,-0.020272812927065977
0.07229999999999992,-0.020258665814067326
0.07129999999999992,-0.020244518701068675
0.07029999999999992,-0.020286960040064625
0.06929999999999992,-0.02032940137906058
0.06829999999999992,-0.02042843117005113
0.06729999999999992,-0.020541608074040336
0.06629999999999991,-0.020612343639033585
0.06529999999999991,-0.020668932091028186
0.06429999999999991,-0.020654784978029535
0.06329999999999991,-0.020683079204026837
0.06229999999999991,-0.02071137343002414
0.06129999999999991,-0.020767961882018737
0.06029999999999991,-0.02086699167300929
0.05929999999999991,-0.020980168576998495
0.05829999999999991,-0.021065051254990398
0.05729999999999991,-0.021107492593986348
0.056299999999999906,-0.021065051254990398
0.055299999999999905,-0.021093345480987697
0.054299999999999904,-0.021050904141991744
0.0532999999999999,-0.021093345480987697
0.0522999999999999,-0.0212065223849769
0.0512999999999999,-0.021333846401964753
0.0502999999999999,-0.021461170418952607
0.0492999999999999,-0.021489464644949906
0.0482999999999999,-0.021447023305953956
0.0472999999999999,-0.021432876192955305
0.0462999999999999,-0.021432876192955305
0.045299999999999896,-0.02150361175794856
0.044299999999999895,-0.021560200209943158
0.043299999999999894,-0.021645082887935062
0.04229999999999989,-0.021701671339929663
0.04129999999999989,-0.021744112678925617
0.04029999999999989,-0.021786554017921567
0.03929999999999989,-0.021786554017921567
0.03829999999999989,-0.021814848243918866
0.03729999999999989,-0.02189973092191077
0.03629999999999989,-0.02199876071290132
0.03529999999999989,-0.022069496277894573
0.034299999999999886,-0.022111937616890523
0.033299999999999885,-0.022168526068885124
0.032299999999999884,-0.02218267318188378
0.031299999999999883,-0.022196820294882423
0.030299999999999883,-0.022225114520879725
0.02929999999999988,-0.022253408746877028
0.02829999999999988,-0.02230999719887163
0.02729999999999988,-0.022366585650866227
0.02629999999999988,-0.022437321215859483
0.025299999999999878,-0.022493909667854084
0.024299999999999877,-0.022508056780852735
0.023299999999999876,-0.022607086571843286
0.022299999999999875,-0.022663675023837888
0.021299999999999875,-0.02273441058883114
0.020299999999999874,-0.022847587492820343
0.019299999999999873,-0.022890028831816296
0.018299999999999872,-0.022904175944814944
0.01729999999999987,-0.022918323057813595
0.01629999999999987,-0.022918323057813595
0.01529999999999987,-0.022960764396809545
0.014299999999999868,-0.023017352848804146
0.013299999999999867,-0.0230880884137974
0.012299999999999978,-0.02313052975279335
0.011299999999999866,-0.02318711820478795
0.010299999999999976,-0.0232295595437839
0.009299999999999864,-0.023314442221775804
0.008299999999999974,-0.023441766238763657
0.007299999999999862,-0.023583237368750162
0.006299999999999972,-0.023668120046742062
0.00529999999999986,-0.02373885561173532
0.0042999999999999705,-0.023753002724733966
0.0032999999999998586,-0.02373885561173532
0.0022999999999999687,-0.02373885561173532
0.0012999999999998568,-0.02373885561173532
0.00029999999999996696,-0.023767149837732617
-0.000700000000000145,-0.023866179628723165
-0.0017000000000000348,-0.02395106230671507
-0.0027000000000001467,-0.024021797871708325
-0.0037000000000000366,-0.024106680549700225
-0.0047000000000001485,-0.024219857453689427
-0.005700000000000038,-0.02434718147067728
-0.00670000000000015,-0.024432064148669184
-0.00770000000000004,-0.024502799713662437
-0.008700000000000152,-0.02447450548766513
-0.009700000000000042,-0.024432064148669184
-0.010700000000000154,-0.024460358374666487
-0.011700000000000044,-0.024460358374666487
-0.012700000000000156,-0.024502799713662437
-0.013700000000000045,-0.02457353527865569
-0.014700000000000157,-0.024630123730650287
-0.015700000000000047,-0.024644270843648942
-0.01670000000000016,-0.024700859295643543
-0.01770000000000005,-0.02474330063463949
-0.01870000000000016,-0.024771594860636792
-0.01970000000000005,-0.024842330425630044
-0.020700000000000163,-0.024913065990623297
-0.021700000000000053,-0.0249979486686152
-0.022700000000000164,-0.025040390007611147
-0.023700000000000054,-0.025040390007611147
-0.024700000000000166,-0.02506868423360845
-0.025700000000000056,-0.0250545371206098
-0.026700000000000168,-0.0251111255726044
-0.027700000000000058,-0.02515356691160035
-0.02870000000000017,-0.025238449589592253
-0.02970000000000006,-0.02537992071957876
-0.03070000000000017,-0.025493097623567964
-0.03170000000000006,-0.025563833188561213
-0.03270000000000017,-0.025606274527557166
-0.03370000000000006,-0.025577980301559864
-0.034700000000000175,-0.025606274527557166
-0.035700000000000065,-0.025606274527557166
-0.03670000000000018,-0.025634568753554465
-0.03770000000000007,-0.025705304318547718
-0.03870000000000018,-0.025790186996539618
-0.03970000000000007,-0.025860922561532867
-0.04070000000000018,-0.02590336390052882
-0.04170000000000007,-0.025931658126526123
-0.04270000000000018,-0.025959952352523425
-0.04370000000000007,-0.025974099465522073
-0.044700000000000184,-0.026030687917516674
-0.045700000000000074,-0.026058982143513973
-0.046700000000000186,-0.02612971770850723
-0.047700000000000076,-0.02621460038649913
-0.04870000000000019,-0.02629948306449103
-0.04970000000000008,-0.026356071516485634
-0.05070000000000019,-0.026384365742482933
-0.05170000000000008,-0.026398512855481584
-0.05270000000000019,-0.026426807081478886
-0.05370000000000008,-0.026469248420474833
-0.05470000000000019,-0.026539983985468085
-0.05570000000000008,-0.02661071955046134
-0.056700000000000195,-0.026667308002455942
-0.057700000000000085,-0.02668145511545459
-0.058700000000000196,-0.026709749341451892
-0.059700000000000086,-0.026766337793446494
-0.0607000000000002,-0.02682292624544109
-0.06170000000000009,-0.026907808923433
-0.0627000000000002,-0.026992691601424906
