Potential V vs RHE, Current mA cm-2
0.013299999999999867,15.646706976507305
0.012299999999999978,13.997153600864674
0.011299999999999866,12.60649239309734
0.010299999999999976,11.418134901210712
0.009299999999999864,10.36417498281126
0.008299999999999974,9.390853608504113
0.007299999999999862,8.444411748894403
0.006299999999999972,7.560217186478756
0.00529999999999986,6.76373472465474
0.0042999999999999705,6.028084848724921
0.0032999999999998586,5.322143910092268
0.0022999999999999687,4.62044710535921
0.0012999999999998568,3.9371415475243974
0.00029999999999996696,3.321742132083106
-0.000700000000000145,2.737466365238846
-0.0017000000000000348,2.161678866193776
-0.0027000000000001467,1.5901355010483011
-0.0037000000000000366,1.0239680388423136
-0.0047000000000001485,0.5142475575009409
-0.005700000000000038,0.03381160006677438
-0.00670000000000015,-0.4694012092952191
-0.00770000000000004,-0.9690772404075502
-0.008700000000000152,-1.4486643710617975
-0.009700000000000042,-1.884395451420229
-0.010700000000000154,-2.3017352848804147
-0.011700000000000044,-2.7247339635400607
-0.012700000000000156,-3.153391487399167
-0.013700000000000045,-3.5636577643600273
-0.014700000000000157,-3.945629815323587
-0.015700000000000047,-4.296478217690116
-0.01670000000000016,-4.664303155655026
-0.01770000000000005,-5.059007608317371
-0.01870000000000016,-5.4296619688820105
-0.01970000000000005,-5.762119124350295
-0.020700000000000163,-6.0592084973219515
-0.021700000000000053,-6.391665652790236
-0.022700000000000164,-6.745343477756495
-0.023700000000000054,-7.072141788025317
-0.024700000000000166,-7.372060583596706
-0.025700000000000056,-7.645099864470658
-0.026700000000000168,-7.935115680942991
-0.027700000000000058,-8.256255146012354
-0.02870000000000017,-8.554759230283878
-0.02970000000000006,-8.824969088558099
-0.03070000000000017,-9.090934812932726
-0.03170000000000006,-9.358315248607218
-0.03270000000000017,-9.648331065079551
-0.03370000000000006,-9.924199768553231
-0.034700000000000175,-10.151968287831503
-0.035700000000000065,-10.392469208808558
-0.03670000000000018,-10.669752623582108
-0.03770000000000007,-10.94845074965552
-0.03870000000000018,-11.218660607929742
-0.03970000000000007,-11.432282014209362
-0.04070000000000018,-11.660050533487633
-0.04170000000000007,-11.914698567463338
-0.04270000000000018,-12.186323137037425
-0.04370000000000007,-12.428238769314348
-0.044700000000000184,-12.644689598193699
-0.045700000000000074,-12.830016778476018
-0.046700000000000186,-13.06910298815321
-0.047700000000000076,-13.281309683132966
-0.04870000000000019,-13.50483406851164
-0.04970000000000008,-13.72128489739099
-0.05070000000000019,-13.967444663567507
-0.05170000000000008,-14.203701450644967
-0.05270000000000019,-14.415908145624723
-0.05370000000000008,-14.62811484060448
-0.05470000000000019,-14.840321535584234
-0.05570000000000008,-15.02423400456669
-0.056700000000000195,-15.236440699546446
-0.057700000000000085,-15.491088733522153
-0.058700000000000196,-15.731589654499205
-0.059700000000000086,-15.901355010483012
-0.0607000000000002,-16.014531914472215
-0.06170000000000009,-16.269179948447924
-0.0627000000000002,-16.52382798242363
-0.06370000000000009,-16.736034677403385
-0.0647000000000002,-16.919947146385837
-0.06570000000000009,-17.061418276372343
-0.0667000000000002,-17.2453307453548
-0.0677000000000001,-17.45753744033455
-0.0687000000000002,-17.655597022315657
-0.0697000000000001,-17.839509491298113
-0.07070000000000021,-18.05171618627787
-0.0717000000000001,-18.263922881257624
-0.07270000000000021,-18.47612957623738
-0.0737000000000001,-18.702483384215785
-0.07470000000000021,-18.88639585319824
-0.0757000000000001,-19.042014096183394
-0.07670000000000021,-19.22592656516585
-0.0777000000000001,-19.466427486142905
-0.07870000000000021,-19.65033995512536
-0.0797000000000001,-19.820105311109163
-0.08070000000000022,-19.98987066709297
-0.0817000000000001,-20.17378313607542
-0.08270000000000022,-20.38598983105518
-0.08370000000000011,-20.626490752032236
-0.08470000000000022,-20.78210899501739
-0.08570000000000011,-20.923580125003895
-0.08670000000000022,-21.107492593986347
-0.08770000000000011,-21.319699288966106
-0.08870000000000022,-21.503611757948562
-0.08970000000000011,-21.67337711393236
-0.09070000000000022,-21.857289582914817
-0.09170000000000011,-22.069496277894572
-0.09270000000000023,-22.253408746877028
-0.09370000000000012,-22.46561544185678
-0.09470000000000023,-22.621233684841933
-0.09570000000000012,-22.734410588831135
-0.09670000000000023,-22.91832305781359
-0.09770000000000012,-23.144676865792
-0.09870000000000023,-23.385177786769056
-0.09970000000000012,-23.56909025575151
-0.10070000000000023,-23.710561385738018
-0.10170000000000012,-23.88032674172182
-0.10270000000000024,-24.078386323702922
-0.10370000000000013,-24.27644590568403
-0.10470000000000024,-24.460358374666487
-0.10570000000000013,-24.630123730650286
-0.10670000000000024,-24.799889086634096
-0.10770000000000013,-25.054537120609798
-0.10870000000000024,-25.252596702590903
-0.10970000000000013,-25.39406783257741
-0.11070000000000024,-25.521391849565262
-0.11170000000000013,-25.705304318547718
-0.11270000000000002,-25.94580523952477
-0.11370000000000013,-26.20045327350048
-0.11470000000000002,-26.34192440348698
-0.11570000000000014,-26.469248420474838
-0.11670000000000003,-26.62486666345999
-0.11770000000000014,-26.808779132442442
-0.11870000000000003,-27.00683871442355
-0.11970000000000014,-27.190751183406004
-0.12070000000000003,-27.34636942639116
-0.12170000000000014,-27.530281895373616
-0.12270000000000003,-27.728341477354718
-0.12370000000000014,-27.954695285333123
-0.12470000000000003,-28.13860775431558
-0.12570000000000014,-28.280078884302082
-0.12670000000000003,-28.478138466283188
-0.12770000000000015,-28.704492274261593
-0.12870000000000004,-28.88840474324405
-0.12970000000000015,-29.044022986229205
-0.13070000000000004,-29.22793545521166
-0.13170000000000015,-29.42599503719276
-0.13270000000000004,-29.609907506175215
-0.13370000000000015,-29.836261314153624
-0.13470000000000004,-30.03432089613473
-0.13570000000000015,-30.204086252118536
-0.13670000000000004,-30.43044006009694
-0.13770000000000016,-30.685088094072643
-0.13870000000000005,-30.897294789052403
-0.13970000000000016,-31.067060145036205
-0.14070000000000005,-31.23682550102001
-0.14170000000000016,-31.47732642199707
-0.14270000000000005,-31.703680229975475
-0.14370000000000016,-31.915886924955227
-0.14470000000000005,-32.09979939393769
-0.14570000000000016,-32.31200608891744
-0.14670000000000005,-32.51006567089854
-0.14770000000000016,-32.87789060886345
-0.14870000000000005,-33.25986265982701
-0.14970000000000017,-33.41548090281216
-0.15070000000000006,-33.45792224180811
-0.15170000000000017,-33.61354048479327
-0.15270000000000006,-33.86818851876898
-0.15370000000000017,-34.12283655274469
-0.15470000000000006,-34.41992592571634
-0.15570000000000017,-34.64627973369475
-0.15670000000000006,-34.84433931567585
-0.15770000000000017,-35.05654601065561
-0.15870000000000006,-35.268752705635364
-0.15970000000000018,-35.49510651361377
-0.16070000000000007,-35.735607434590825
-0.16170000000000018,-36.03269680756248
-0.16270000000000007,-36.30149195453684
-0.16370000000000018,-36.54199287551389
-0.16470000000000007,-36.69761111849905
-0.16570000000000018,-36.86737647448285
-0.16670000000000007,-37.136171621457216
-0.16770000000000018,-37.39081965543292
-0.16870000000000007,-37.716203254401876
-0.16970000000000018,-38.05573396636949
-0.17070000000000007,-38.31038200034519
-0.17170000000000019,-38.55088292132225
-0.17270000000000008,-38.84797229429391
-0.1737000000000002,-39.060178989273666
-0.17470000000000008,-39.244091458256115
-0.1757000000000002,-39.49873949223183
-0.17670000000000008,-39.82412309120078
-0.1777000000000002,-40.135359577171094
-0.17870000000000008,-40.4183018371441
-0.1797000000000002,-40.743685436113054
-0.18070000000000008,-41.02662769608606
-0.1817000000000002,-41.281275730061765
-0.18270000000000008,-41.63495355502803
-0.1837000000000002,-41.96033715399699
-0.1847000000000001,-42.186690961975394
-0.1857000000000002,-42.42719188295245
-0.1867000000000001,-42.681839916928155
-0.1877000000000002,-42.99307640289846
-0.1887000000000001,-43.31846000186743
-0.1897000000000002,-43.58725514884178
-0.1907000000000001,-43.89849163481209
-0.1917000000000001,-44.28046368577565
-0.19269999999999998,-44.619994397743255
-0.1937000000000001,-44.93123088371356
-0.19469999999999998,-45.17173180469062
-0.1957000000000001,-45.39808561266902
-0.19669999999999999,-45.69517498564068
-0.1977000000000001,-46.02055858460964
-0.1987,-46.3176479575813
-0.1997000000000001,-46.628884443551605
-0.2007,-46.99670938151652
-0.2017000000000001,-47.27965164148953
-0.2027,-47.619182353457134
-0.2037000000000001,-48.001154404420696
-0.2047,-48.2840966643937
-0.2057000000000001,-48.567038924366706
-0.2067,-48.93486386233162
-0.2077000000000001,-49.24610034830193
-0.2087,-49.571483947270885
-0.2097000000000001,-49.84027909424525
-0.2107,-50.12322135421825
-0.2117000000000001,-50.47689917918451
-0.2127,-50.80228277815347
-0.2137000000000001,-51.15596060311972
-0.2147,-51.52378554108463
-0.2157000000000001,-51.86331625305225
-0.2167,-52.14625851302525
-0.21770000000000012,-52.57067190298476
-0.2187,-52.91020261495237
-0.21970000000000012,-53.19314487492538
-0.2207,-53.518528473894335
-0.22170000000000012,-53.85805918586195
-0.2227,-54.43809081880661
-0.22370000000000012,-54.989828225753975
-0.2247,-55.28691759872564
-0.22570000000000012,-55.49912429370539
-0.2267,-55.6971838756865
-0.22770000000000012,-56.05086170065276
-0.22870000000000001,-56.43283375161632
-0.22970000000000013,-56.84310002857717
-0.23070000000000002,-57.182630740544774
-0.23170000000000013,-57.50801433951374
-0.23270000000000002,-57.889986390477304
-0.23370000000000013,-58.22951710244491
-0.23470000000000002,-58.54075358841522
-0.23570000000000013,-58.809548735389576
-0.23670000000000002,-59.20566789935179
-0.2376999999999999,-59.72911108030185
-0.23870000000000002,-60.12523024426406
-0.2396999999999999,-60.43646673023436
-0.24070000000000003,-60.775997442201984
-0.24169999999999991,-61.05893970217499
-0.24270000000000003,-61.412617527141244
-0.24369999999999992,-61.7662953521075
-0.24470000000000003,-62.07753183807781
-0.24569999999999992,-62.51609234103597
-0.24670000000000003,-62.96879995699278
-0.24769999999999992,-63.37906623395363
-0.24870000000000003,-63.74689117191855
-0.24969999999999992,-63.973244979896954
-0.25070000000000003,-64.34106991786187
-0.2516999999999999,-64.82207175981598
-0.25270000000000004,-65.3030736017701
-0.2536999999999999,-65.64260431373769
-0.25470000000000004,-65.8972523477134
-0.2556999999999999,-66.20848883368372
-0.25670000000000004,-66.59046088464727
-0.25769999999999993,-67.00072716160814
-0.25870000000000004,-67.35440498657438
-0.25969999999999993,-67.65149435954605
-0.26070000000000004,-68.07590774950557
-0.26169999999999993,-68.51446825246373
-0.26270000000000004,-68.99547009441784
-0.26369999999999993,-69.26426524139221
-0.26470000000000005,-69.57550172736251
-0.26569999999999994,-69.99991511732202
-0.26670000000000005,-70.38188716828559
-0.26769999999999994,-70.82044767124374
-0.26870000000000005,-71.2307139482046
-0.26969999999999994,-71.47121486918165
-0.27070000000000005,-71.81074558114926
-0.27169999999999994,-72.09368784112228
-0.27270000000000005,-72.40492432709259
-0.27369999999999994,-72.71616081306288
-0.27470000000000006,-73.0273972990332
-0.27569999999999995,-73.43766357599405
-0.27670000000000006,-73.81963562695762
-0.27769999999999995,-74.25819612991579
-0.27870000000000006,-74.55528550288744
-0.27969999999999995,-75.14946424883075
-0.28070000000000006,-75.6729074297808
-0.28169999999999995,-75.91340835075786
-0.28270000000000006,-75.8992612377592
-0.28369999999999995,-76.0407323677457
-0.28470000000000006,-76.43685153170793
-0.28569999999999995,-77.03103027765125
-0.28670000000000007,-77.63935613659322
-0.28769999999999996,-78.03547530055542
-0.28870000000000007,-78.36085889952437
-0.28969999999999996,-78.6155069335001
-0.29070000000000007,-78.7852722894839
-0.29169999999999996,-78.8984491934731
-0.29270000000000007,-79.30871547043395
-0.29369999999999996,-79.61995195640426
-0.2947000000000001,-80.04436534636378
-0.29569999999999996,-80.39804317133003
-0.2967000000000001,-80.79416233529224
-0.29769999999999996,-81.3176055162423
-0.2987000000000001,-81.71372468020452
-0.29969999999999997,-81.96837271418022
-0.3007000000000001,-82.19472652215863
-0.30169999999999997,-82.59084568612084
-0.3027000000000001,-82.98696485008304
-0.30369999999999997,-83.39723112704392
-0.3047000000000001,-83.75090895201016
-0.30569999999999997,-83.99140987298723
-0.3067000000000001,-84.21776368096563
-0.3077,-84.47241171494134
-0.3087000000000001,-84.64217707092514
-0.3097,-84.95341355689546
-0.3107000000000001,-85.50515096384281
-0.3117,-85.98615280579692
-0.3127000000000001,-86.46715464775104
-0.3137,-86.93400937670651
-0.3147000000000001,-87.30183431467142
-0.3157,-87.52818812264981
-0.3167000000000001,-87.72624770463094
-0.3177,-87.96674862560798
-0.3187000000000001,-88.26383799857963
-0.3197,-88.5892215975486
-0.3207000000000001,-88.95704653551351
-0.3217,-89.32487147347842
-0.3227000000000001,-89.72099063744062
-0.3237,-89.96149155841768
-0.3247000000000001,-90.04637423640959
-0.3257,-90.20199247939475
-0.3267000000000001,-90.5273760783637
-0.3277,-91.05081925931376
-0.3287000000000001,-91.44693842327598
-0.3297,-91.72988068324898
-0.3307000000000001,-92.06941139521659
-0.3317,-92.30991231619365
-0.3327000000000001,-92.5221190111734
-0.3337,-92.79091415814774
-0.3347000000000001,-93.07385641812076
-0.3357,-93.37094579109242
-0.3367000000000001,-93.72462361605868
-0.3377,-94.07830144102493
-0.3387000000000001,-94.4319792659912
-0.3397,-94.78565709095746
-0.3407000000000001,-95.13933491592371
-0.3417,-95.37983583690077
-0.3427000000000001,-95.59204253188052
-0.3437,-96.4267221988009
-0.3447000000000001,-97.37457876971048
-0.3457,-97.53019701269562
-0.3467000000000001,-97.34628454371318
-0.3477,-97.55849123869294
-0.3487000000000001,-97.91216906365919
-0.3497,-98.52049492260115
-0.3507000000000001,-99.00149676455526
-0.3517,-99.34102747652288
-0.3527000000000001,-99.85032354447429
-0.3537,-100.14741291744595
-0.3547000000000001,-100.44450229041762
-0.3557,-100.74159166338926
-0.35670000000000013,-101.23674061834203
-0.3577,-101.63285978230424
-0.35870000000000013,-102.02897894626645
-0.3597,-102.48168656222326
-0.36070000000000013,-102.86365861318681
-0.3617,-103.35880756813957
-0.3626999999999999,-103.82566229709504
-0.3637,-104.16519300906265
-0.3646999999999999,-104.5471650600262
-0.3657,-104.97157844998573
-0.3666999999999999,-105.48087451793714
-0.3677,-106.17408305487102
-0.3686999999999999,-106.69752623582107
-0.36970000000000003,-107.17852807777518
-0.3706999999999999,-107.88588372770771
-0.37170000000000003,-108.46591536065236
-0.3726999999999999,-108.90447586361051
-0.37370000000000003,-109.22985946257948
-0.3746999999999999,-109.58353728754575
-0.37570000000000003,-110.16356892049039
-0.3766999999999999,-110.85677745742427
-0.37770000000000004,-111.66316289834735
-0.3786999999999999,-112.41295988727582
-0.37970000000000004,-112.89396172922991
-0.3806999999999999,-113.26178666719483
-0.38170000000000004,-113.9549952041287
-0.38269999999999993,-114.60576240206663
-0.38370000000000004,-115.04432290502479
-0.38469999999999993,-115.63850165096811
-0.38570000000000004,-116.36000441389926
-0.38669999999999993,-115.3838536169924
-0.38570000000000004,-112.73834348624479
-0.38469999999999993,-110.50309963245802
-0.38370000000000004,-108.4517682476537
-0.38269999999999993,-106.41458397584806
-0.38170000000000004,-104.46228238203432
-0.3806999999999999,-102.5524221272165
-0.37970000000000004,-100.78403300238521
-0.3786999999999999,-99.02979099055257
-0.37770000000000004,-97.30384320471723
-0.3766999999999999,-95.73351366186702
-0.37570000000000003,-94.30465524900335
-0.3746999999999999,-92.73432570615316
-0.37370000000000003,-91.13570193730567
-0.3726999999999999,-89.31072436047977
-0.37170000000000003,-87.48574678365387
-0.3706999999999999,-85.77394611081716
-0.36970000000000003,-84.34508769795349
-0.3686999999999999,-83.21331865806147
-0.3677,-81.99666694017753
-0.3666999999999999,-80.70927965730034
-0.3657,-79.30871547043395
-0.3646999999999999,-77.79497437957838
-0.3637,-76.39441019271199
-0.3626999999999999,-74.92311044085234
-0.3617,-73.55084047998325
-0.36070000000000013,-72.23515897110877
-0.3597,-70.89118323623698
-0.35870000000000013,-69.6603844053544
-0.3577,-68.38714423547587
-0.35670000000000013,-67.1563454045933
-0.3557,-65.91139946071206
-0.3547000000000001,-64.70889485582677
-0.3537,-63.49224313794284
-0.3527000000000001,-62.31803275905487
-0.3517,-61.11552815416958
-0.3507000000000001,-59.95546488828025
-0.3497,-58.63978337940577
-0.3487000000000001,-57.36654320952724
-0.3477,-56.093303039648696
-0.3467000000000001,-54.989828225753975
-0.3457,-53.91464763785655
-0.3447000000000001,-52.81117282396182
-0.3437,-51.665256671071134
-0.3427000000000001,-50.56178185717641
-0.3417,-49.444159930283035
-0.3407000000000001,-48.32653800338966
-0.3397,-47.33624009348412
-0.3387000000000001,-46.176176827594794
-0.3377,-45.086849126698716
-0.3367000000000001,-44.2097281207824
-0.3357,-43.19113598487957
-0.3347000000000001,-42.087661170984845
-0.3337,-40.99833347008877
-0.3327000000000001,-40.02218267318189
-0.3317,-39.046031876275016
-0.3307000000000001,-38.05573396636949
-0.3297,-37.07958316946261
-0.3287000000000001,-36.11757948555439
-0.3277,-35.169722914644815
-0.3267000000000001,-34.236013456733886
-0.3257,-33.330598224820264
-0.3247000000000001,-32.45347721890394
-0.3237,-31.56220909998897
-0.3227000000000001,-30.769970772064546
-0.3217,-29.935291105144174
-0.3207000000000001,-28.987434534234602
-0.3197,-28.12446064131693
-0.3187000000000001,-27.247339635400607
-0.3177,-26.455101307476184
-0.3167000000000001,-25.691157205549064
-0.3157,-24.9130659906233
-0.3147000000000001,-24.134974775697525
-0.3137,-23.328589334774456
-0.3127000000000001,-22.46561544185678
-0.3117,-21.659230000933714
-0.3107000000000001,-20.95187435100119
-0.3097,-20.202077362072725
-0.3087000000000001,-19.452280373144255
-0.3077,-18.716630497214435
-0.3067000000000001,-18.02342196028057
-0.30569999999999997,-17.3302134233467
-0.3047000000000001,-16.637004886412832
-0.30369999999999997,-15.972090575476265
-0.3027000000000001,-15.278882038542395
-0.30169999999999997,-14.62811484060448
-0.3007000000000001,-13.991494755665215
-0.29969999999999997,-13.361948227225271
-0.2987000000000001,-12.69278978238911
-0.29769999999999996,-12.053340274850113
-0.2967000000000001,-11.394084809113005
-0.29569999999999996,-10.795661929270095
-0.2947000000000001,-10.168944823429884
-0.29369999999999996,-9.542227717589672
-0.29270000000000007,-8.943804837746763
-0.29169999999999996,-8.373676183901154
-0.29070000000000007,-7.824768199553517
-0.28969999999999996,-7.237663010109527
-0.28870000000000007,-6.632166573767292
-0.28769999999999996,-6.064867342521412
-0.28670000000000007,-5.520203492073373
-0.28569999999999995,-4.992516177223715
-0.28470000000000006,-4.436534636376755
-0.28369999999999995,-3.8763089616302007
-0.28270000000000006,-3.3429628015810815
-0.28169999999999995,-2.867619804826429
-0.28070000000000006,-2.380959117672857
-0.27969999999999995,-1.8787366062207687
-0.27870000000000006,-1.3449660327816904
-0.27769999999999995,-0.8270402259011005
-0.27670000000000006,-0.3430674902172714
-0.27569999999999995,0.1323462421023742
-0.27470000000000006,0.6189361936909535
-0.27369999999999994,1.1453502683707337
-0.27270000000000005,1.6410651078434426
-0.27169999999999994,2.092358012500389
-0.27070000000000005,2.5295038041586855
-0.26969999999999994,2.994943821814283
-0.26870000000000005,3.4900927767670455
-0.26769999999999994,3.9781681752204827
-0.26670000000000005,4.443608192876081
-0.26569999999999994,4.875095139334916
-0.26470000000000005,5.316485064892808
