Potential V vs RHE, Current mA cm-2
0.013299999999999867,12.384382719018532
0.012299999999999978,10.46603419640154
0.011299999999999866,8.546270962484687
0.010299999999999976,6.75807587945528
0.009299999999999864,4.9698807964258735
0.008299999999999974,3.313253864283916
0.007299999999999862,1.6990682711379093
0.006299999999999972,0.12863969849672777
0.00529999999999986,-1.3980177065266295
0.0042999999999999705,-2.924208256821031
0.0032999999999998586,-4.406825699079589
0.0022999999999999687,-5.977155241929781
0.0012999999999998568,-7.50504344578402
0.00029999999999996696,-9.031516938338395
-0.000700000000000145,-10.557990430892769
-0.0017000000000000348,-12.084463923447142
-0.0027000000000001467,-13.523225315409885
-0.0037000000000000366,-14.925204213576137
-0.0047000000000001485,-16.22673860945197
-0.005700000000000038,-17.48583166633185
-0.00670000000000015,-18.80151317520634
-0.00770000000000004,-20.06060623208622
-0.008700000000000152,-21.376287740960702
-0.009700000000000042,-22.67782213683654
-0.010700000000000154,-24.035944984706973
-0.011700000000000044,-25.39406783257741
-0.012700000000000156,-26.69560222845324
-0.013700000000000045,-28.011283737327723
-0.014700000000000157,-29.22793545521166
-0.015700000000000047,-30.402145834099635
-0.01670000000000016,-31.533914873991666
-0.01770000000000005,-32.62324257488775
-0.01870000000000016,-33.755011614779775
-0.01970000000000005,-34.90092776767045
-0.020700000000000163,-36.07513814655844
-0.021700000000000053,-37.249348525446415
-0.022700000000000164,-38.42355890433439
-0.023700000000000054,-39.61191639622103
-0.024700000000000166,-40.743685436113054
-0.025700000000000056,-41.91789581500104
-0.026700000000000168,-42.96478217690117
-0.027700000000000058,-44.011668538801295
-0.02870000000000017,-45.01611356170547
-0.02970000000000006,-45.97811724561369
-0.03070000000000017,-47.02500360751382
-0.03170000000000006,-47.987007291422046
-0.03270000000000017,-49.03389365332217
-0.03370000000000006,-50.0807800152223
-0.034700000000000175,-51.21254905511432
-0.035700000000000065,-52.30187675601041
-0.03670000000000018,-53.348763117910536
-0.03770000000000007,-54.39564947981066
-0.03870000000000018,-55.357653163718886
-0.03970000000000007,-56.30550973462846
-0.04070000000000018,-57.22507207954074
-0.04170000000000007,-58.10219308545706
-0.04270000000000018,-59.02175543036933
-0.04370000000000007,-59.9696120012789
-0.044700000000000184,-60.974057024183075
-0.045700000000000074,-61.936060708091304
-0.046700000000000186,-62.98294706999144
-0.047700000000000076,-63.98739209289561
-0.04870000000000019,-64.94939577680383
-0.04970000000000008,-65.91139946071206
-0.05070000000000019,-66.77437335362974
-0.05170000000000008,-67.65149435954605
-0.05270000000000019,-68.48617402646643
-0.05370000000000008,-69.3491479193841
-0.05470000000000019,-70.22626892530042
-0.05570000000000008,-71.10338993121674
-0.056700000000000195,-72.05124650212633
-0.057700000000000085,-73.01325018603454
-0.058700000000000196,-73.97525386994278
-0.059700000000000086,-74.93725755385098
-0.0607000000000002,-75.85681989876326
-0.06170000000000009,-76.71979379168094
-0.0627000000000002,-77.55447345860131
-0.06370000000000009,-78.33256467352709
-0.0647000000000002,-79.1248030014515
-0.06570000000000009,-79.94533555537322
-0.0667000000000002,-80.73757388329766
-0.0677000000000001,-81.65713622820991
-0.0687000000000002,-82.56255146012353
-0.0697000000000001,-83.43967246603985
-0.07070000000000021,-84.40167614994809
-0.0717000000000001,-85.27879715586442
-0.07270000000000021,-86.14177104878208
-0.0737000000000001,-86.97645071570246
-0.07470000000000021,-87.75454193062824
-0.0757000000000001,-88.54678025855264
-0.07670000000000021,-89.28243013448247
-0.0777000000000001,-90.11710980140283
-0.07870000000000021,-90.93764235532454
-0.0797000000000001,-91.81476336124088
-0.08070000000000022,-92.6918843671572
-0.0817000000000001,-93.61144671206948
-0.08270000000000022,-94.47442060498715
-0.08370000000000011,-95.35154161090348
-0.08470000000000022,-96.12963282582925
-0.08570000000000011,-96.96431249274961
-0.08670000000000022,-97.74240370767538
-0.08770000000000011,-98.49220069660386
-0.08870000000000022,-99.27029191152963
-0.08970000000000011,-100.02008890045809
-0.09070000000000022,-100.79818011538387
-0.09170000000000011,-101.63285978230424
-0.09270000000000023,-102.4958336752219
-0.09370000000000012,-103.41539602013418
-0.09470000000000023,-104.2925170260505
-0.09570000000000012,-105.11304957997223
-0.09670000000000023,-105.86284656890071
-0.09770000000000012,-106.55605510583456
-0.09870000000000023,-107.30585209476303
-0.09970000000000012,-107.99906063169689
-0.10070000000000023,-108.77715184662266
-0.10170000000000012,-109.56939017454708
-0.10270000000000024,-110.40406984146746
-0.10370000000000013,-111.22460239538917
-0.10470000000000024,-112.10172340130552
-0.10570000000000013,-113.00713863321914
-0.10670000000000024,-113.84181830013951
-0.10770000000000013,-114.67649796705987
-0.10870000000000024,-115.45458918198564
-0.10970000000000013,-116.28926884890602
-0.11070000000000024,-117.10980140282774
-0.11170000000000013,-117.90203973075215
-0.11270000000000002,-118.68013094567793
-0.11370000000000013,-119.47236927360234
-0.11470000000000002,-120.29290182752408
-0.11570000000000014,-121.12758149444444
-0.11670000000000003,-121.96226116136481
-0.11770000000000014,-122.82523505428249
-0.11870000000000003,-123.65991472120285
-0.11970000000000014,-124.43800593612862
-0.12070000000000003,-125.272685603049
-0.12170000000000014,-126.05077681797478
-0.12270000000000003,-126.80057380690324
-0.12370000000000014,-127.66354769982091
-0.12470000000000003,-128.41334468874936
-0.12570000000000014,-129.2338772426711
-0.12670000000000003,-130.11099824858744
-0.12770000000000015,-131.03056059349967
-0.12870000000000004,-131.89353448641737
-0.12970000000000015,-132.7706554923337
-0.13070000000000004,-133.5628938202581
-0.13170000000000015,-134.38342637417986
-0.13270000000000004,-135.1332233631083
-0.13370000000000015,-135.82643190004217
-0.13470000000000004,-136.51964043697603
-0.13570000000000015,-137.2694374259045
-0.13670000000000004,-138.04752864083028
-0.13770000000000016,-138.88220830775063
-0.13870000000000005,-139.70274086167237
-0.13970000000000016,-140.53742052859275
-0.14070000000000005,-141.41454153450906
-0.14170000000000016,-142.17848563643616
-0.14270000000000005,-143.0273124163552
-0.14370000000000016,-143.87613919627424
-0.14470000000000005,-144.58349484620675
-0.14570000000000016,-145.29085049613926
-0.14670000000000005,-145.9982061460718
-0.14770000000000016,-146.7055617960043
-0.14870000000000005,-147.55438857592333
-0.14970000000000017,-148.40321535584232
-0.15070000000000006,-149.25204213576137
-0.15170000000000017,-150.1008689156804
-0.15270000000000006,-150.94969569559944
-0.15370000000000017,-151.7985224755184
-0.15470000000000006,-152.50587812545095
-0.15570000000000017,-153.35470490536997
-0.15670000000000006,-154.0620605553025
-0.15770000000000017,-154.76941620523502
-0.15870000000000006,-155.47677185516753
-0.15970000000000018,-156.18412750510007
-0.16070000000000007,-157.03295428501906
-0.16170000000000018,-157.7403099349516
-0.16270000000000007,-158.5891367148706
-0.16370000000000018,-159.57943462477613
-0.16470000000000007,-160.42826140469515
-0.16570000000000018,-161.2770881846142
-0.16670000000000007,-161.9844438345467
-0.16770000000000018,-162.6917994844792
-0.16870000000000007,-163.54062626439824
-0.16970000000000018,-164.10651078434424
-0.17070000000000007,-164.9553375642633
-0.17170000000000019,-165.6626932141958
-0.17270000000000008,-166.51151999411482
-0.1737000000000002,-167.36034677403384
-0.17470000000000008,-168.20917355395284
-0.1757000000000002,-169.0580003338719
-0.17670000000000008,-169.9068271137909
-0.1777000000000002,-170.61418276372342
-0.17870000000000008,-171.46300954364247
-0.1797000000000002,-172.17036519357498
-0.18070000000000008,-172.87772084350746
-0.1817000000000002,-173.58507649344
-0.18270000000000008,-174.2924321433725
-0.1837000000000002,-175.14125892329156
-0.1847000000000001,-175.99008570321055
-0.1857000000000002,-176.8389124831296
-0.1867000000000001,-177.6877392630486
-0.1877000000000002,-178.53656604296762
-0.1887000000000001,-179.38539282288664
-0.1897000000000002,-180.23421960280567
-0.1907000000000001,-180.94157525273818
-0.1917000000000001,-181.5074597726842
-0.19269999999999998,-182.21481542261674
-0.1937000000000001,-182.92217107254925
-0.19469999999999998,-183.77099785246824
-0.1957000000000001,-184.47835350240078
-0.19669999999999999,-185.3271802823198
-0.1977000000000001,-186.17600706223882
-0.1987,-187.30777610213087
-0.1997000000000001,-188.01513175206335
-0.2007,-188.72248740199586
-0.2017000000000001,-189.57131418191491
-0.2027,-190.27866983184742
-0.2037000000000001,-190.84455435179345
-0.2047,-191.551910001726
-0.2057000000000001,-192.11779452167198
-0.2067,-192.966621301591
-0.2077000000000001,-193.81544808151003
-0.2087,-194.66427486142905
-0.2097000000000001,-195.37163051136156
-0.2107,-196.2204572912806
-0.2117000000000001,-197.0692840711996
-0.2127,-197.91811085111863
-0.2137000000000001,-198.48399537106465
-0.2147,-199.04987989101065
-0.2157000000000001,-199.75723554094319
-0.2167,-200.4645911908757
-0.21770000000000012,-201.31341797079472
-0.2187,-202.02077362072723
-0.21970000000000012,-202.86960040064628
-0.2207,-203.57695605057876
-0.22170000000000012,-204.42578283049778
-0.2227,-205.27460961041683
-0.22370000000000012,-205.98196526034934
-0.2247,-206.83079204026836
-0.22570000000000012,-207.67961882018741
-0.2267,-208.3869744701199
-0.22770000000000012,-209.0943301200524
-0.22870000000000001,-209.8016857699849
-0.22970000000000013,-210.36757028993094
-0.23070000000000002,-211.07492593986345
-0.23170000000000013,-211.782281589796
-0.23270000000000002,-212.631108369715
-0.23370000000000013,-213.33846401964755
-0.23470000000000002,-214.18729079956654
-0.23570000000000013,-214.89464644949908
-0.23670000000000002,-215.6020020994316
-0.2376999999999999,-216.3093577493641
-0.23870000000000002,-216.87524226931012
-0.2396999999999999,-217.44112678925615
-0.24070000000000003,-218.14848243918865
-0.24169999999999991,-218.99730921910768
-0.24270000000000003,-219.7046648690402
-0.24369999999999992,-220.5534916489592
-0.24470000000000003,-221.26084729889175
-0.24569999999999992,-222.10967407881074
-0.24670000000000003,-222.81702972874328
-0.24769999999999992,-223.38291424868927
-0.24870000000000003,-224.2317410286083
-0.24969999999999992,-224.93909667854084
-0.25070000000000003,-225.64645232847332
-0.2516999999999999,-226.35380797840588
-0.25270000000000004,-227.06116362833836
-0.2536999999999999,-227.7685192782709
-0.25470000000000004,-228.61734605818995
-0.2556999999999999,-229.32470170812243
-0.25670000000000004,-230.17352848804146
-0.25769999999999993,-230.880884137974
-0.25870000000000004,-231.729710917893
-0.25969999999999993,-232.57853769781204
-0.26070000000000004,-233.1444222177581
-0.26169999999999993,-233.85177786769057
-0.26270000000000004,-234.55913351762308
-0.26369999999999993,-235.26648916755556
-0.26470000000000005,-235.97384481748813
-0.26569999999999994,-236.82267159740715
-0.26670000000000005,-237.53002724733966
-0.26769999999999994,-238.37885402725868
-0.26870000000000005,-239.36915193716422
-0.26969999999999994,-240.35944984706975
-0.27070000000000005,-241.20827662698875
-0.27169999999999994,-242.05710340690777
-0.27270000000000005,-242.90593018682682
-0.27369999999999994,-243.6132858367593
-0.27470000000000006,-244.32064148669184
-0.27569999999999995,-245.02799713662432
-0.27670000000000006,-245.87682391654337
-0.27769999999999995,-246.5841795664759
-0.27870000000000006,-247.2915352164084
-0.27969999999999995,-248.14036199632744
-0.28070000000000006,-248.9891887762465
-0.28169999999999995,-249.979486686152
-0.28270000000000006,-250.6868423360845
-0.28369999999999995,-251.53566911600356
-0.28470000000000006,-252.243024765936
-0.28569999999999995,-252.95038041586852
-0.28670000000000007,-253.65773606580112
-0.28769999999999996,-254.36509171573357
-0.28870000000000007,-255.07244736566614
-0.28969999999999996,-255.92127414558513
-0.29070000000000007,-256.77010092550415
-0.29169999999999996,-257.6189277054232
-0.29270000000000007,-258.4677544853422
-0.29369999999999996,-259.4580523952477
-0.2947000000000001,-260.16540804518024
-0.29569999999999996,-260.8727636951128
-0.2967000000000001,-261.7215904750318
-0.29769999999999996,-262.42894612496434
-0.2987000000000001,-262.9948306449103
-0.29969999999999997,-263.84365742482936
-0.3007000000000001,-264.6924842047484
-0.30169999999999997,-265.39983985468086
-0.3027000000000001,-266.3901377645864
-0.30369999999999997,-267.38043567449193
-0.3047000000000001,-268.22926245441096
-0.30569999999999997,-269.07808923433
-0.3067000000000001,-269.926916014249
-0.3077,-270.63427166418154
-0.3087000000000001,-271.341627314114
-0.3097,-272.04898296404656
-0.3107000000000001,-272.7563386139791
-0.3117,-273.4636942639116
-0.3127000000000001,-274.1710499138441
-0.3137,-274.87840556377665
-0.3147000000000001,-275.58576121370913
-0.3157,-276.43458799362816
-0.3167000000000001,-277.2834147735472
-0.3177,-277.9907704234797
-0.3187000000000001,-278.8395972033987
-0.3197,-279.5469528533313
-0.3207000000000001,-280.11283737327733
-0.3217,-280.67872189322327
-0.3227000000000001,-281.3860775431558
-0.3237,-282.2349043230748
-0.3247000000000001,-283.08373110299385
-0.3257,-283.9325578829129
-0.3267000000000001,-284.9228557928184
-0.3277,-285.6302114427509
-0.3287000000000001,-286.47903822266994
-0.3297,-287.1863938726024
-0.3307000000000001,-287.893749522535
-0.3317,-288.742576302454
-0.3327000000000001,-289.4499319523865
-0.3337,-290.157287602319
-0.3347000000000001,-290.86464325225154
-0.3357,-291.71347003217056
-0.3367000000000001,-292.56229681208964
-0.3377,-293.55259472199515
-0.3387000000000001,-294.2599503719276
-0.3397,-295.10877715184665
-0.3407000000000001,-296.0990750617522
-0.3417,-296.80643071168464
-0.3427000000000001,-297.51378636161724
-0.3437,-298.2211420115498
-0.3447000000000001,-298.9284976614822
-0.3457,-299.7773244414013
-0.3467000000000001,-300.6261512213203
-0.3477,-301.47497800123926
-0.3487000000000001,-302.32380478115834
-0.3497,-303.17263156107737
-0.3507000000000001,-304.1629294709828
-0.3517,-305.0117562509019
-0.3527000000000001,-305.8605830308209
-0.3537,-306.56793868075346
-0.3547000000000001,-307.4167654606725
-0.3557,-308.124121110605
-0.35670000000000013,-308.8314767605375
-0.3577,-309.53883241047004
-0.35870000000000013,-310.38765919038906
-0.3597,-311.2364859703081
-0.36070000000000013,-312.2267838802136
-0.3617,-313.21708179011915
-0.3626999999999999,-314.0659085700381
-0.3637,-315.19767760993017
-0.3646999999999999,-316.04650438984913
-0.3657,-316.8953311697682
-0.3666999999999999,-317.60268681970075
-0.3677,-318.16857133964675
-0.3686999999999999,-318.8759269895793
-0.36970000000000003,-319.58328263951176
-0.3706999999999999,-320.2906382894443
-0.37170000000000003,-321.1394650693634
-0.3726999999999999,-321.98829184928235
-0.37370000000000003,-322.83711862920137
-0.3746999999999999,-323.68594540912045
-0.37570000000000003,-324.5347721890394
-0.3766999999999999,-325.3835989689584
-0.37770000000000004,-326.23242574887746
-0.3786999999999999,-326.93978139880994
-0.37970000000000004,-327.6471370487425
-0.3806999999999999,-328.3544926986751
-0.38170000000000004,-329.0618483486075
-0.38269999999999993,-329.9106751285266
-0.38370000000000004,-330.7595019084456
-0.38469999999999993,-331.4668575583781
-0.38570000000000004,-332.45715546828364
-0.38669999999999993,-331.89127094833765
-0.38570000000000004,-328.7789060886345
-0.38469999999999993,-325.80801235891795
-0.38370000000000004,-322.97858975918786
-0.38269999999999993,-320.00769602947133
-0.38170000000000004,-317.1782734297412
-0.3806999999999999,-314.20737970002466
-0.37970000000000004,-311.5194282302811
-0.3786999999999999,-308.8314767605375
-0.37770000000000004,-306.1435252907939
-0.3766999999999999,-303.5970449510368
-0.37570000000000003,-300.9090934812933
-0.3746999999999999,-298.2211420115498
-0.37370000000000003,-295.67466167179265
-0.3726999999999999,-292.9867102020491
-0.37170000000000003,-290.29875873230554
-0.3706999999999999,-287.610807262562
-0.36970000000000003,-285.0643269228049
-0.3686999999999999,-282.3763754530613
-0.3677,-279.97136624329073
-0.3666999999999999,-277.56635703352015
-0.3657,-275.1613478237496
-0.3646999999999999,-272.7563386139791
-0.3637,-270.35132940420846
-0.3626999999999999,-267.80484906445145
-0.3617,-265.2583687246944
-0.36070000000000013,-262.8533595149238
-0.3597,-260.4483503051532
-0.35870000000000013,-258.0433410953827
-0.3577,-255.63833188561213
-0.35670000000000013,-253.23332267584152
-0.3557,-250.828313466071
-0.3547000000000001,-248.56477538628693
-0.3537,-246.30123730650286
-0.3527000000000001,-244.17917035670533
-0.3517,-241.9156322769213
-0.3507000000000001,-239.65209419713722
-0.3497,-237.38855611735315
-0.3487000000000001,-234.9835469075826
-0.3477,-232.57853769781204
-0.3467000000000001,-230.17352848804146
-0.3457,-227.7685192782709
-0.3447000000000001,-225.50498119848683
-0.3437,-223.09997198871628
-0.3427000000000001,-220.97790503891872
-0.3417,-218.85583808912116
-0.3407000000000001,-216.59230000933712
-0.3397,-214.47023305953954
-0.3387000000000001,-212.34816610974204
-0.3377,-210.08462802995794
-0.3367000000000001,-207.8210899501739
-0.3357,-205.55755187038983
-0.3347000000000001,-203.29401379060576
-0.3337,-201.03047571082172
-0.3327000000000001,-198.90840876102413
-0.3317,-196.6448706812401
-0.3307000000000001,-194.52280373144254
-0.3297,-192.54220791163152
-0.3287000000000001,-190.42014096183394
-0.3277,-188.29807401203638
-0.3267000000000001,-186.17600706223882
-0.3257,-183.91246898245475
-0.3247000000000001,-181.79040203265723
-0.3237,-179.66833508285964
-0.3227000000000001,-177.54626813306209
-0.3217,-175.56567231325104
-0.3207000000000001,-173.44360536345349
-0.3197,-171.46300954364247
-0.3187000000000001,-169.3409425938449
-0.3177,-167.36034677403384
-0.3167000000000001,-165.2382798242363
-0.3157,-163.25768400442522
-0.3147000000000001,-161.1356170546277
-0.3137,-159.15502123481662
-0.3127000000000001,-157.03295428501906
-0.3117,-154.9108873352215
-0.3107000000000001,-152.93029151541046
-0.3097,-150.94969569559944
-0.3087000000000001,-148.96909987578834
-0.3077,-146.9885040559773
-0.3067000000000001,-145.14937936615277
-0.30569999999999997,-143.16878354634173
-0.3047000000000001,-141.27307040452254
-0.30369999999999997,-139.36321014970477
-0.3027000000000001,-137.39676144289237
-0.30169999999999997,-135.47275407507593
-0.3007000000000001,-133.46386402926754
-0.29969999999999997,-131.5115624354538
-0.2987000000000001,-129.5451137286414
-0.29769999999999996,-127.66354769982091
-0.2967000000000001,-125.88101146199097
-0.29569999999999996,-124.09847522416102
-0.2947000000000001,-122.30179187333242
-0.29369999999999996,-120.47681429650652
-0.29270000000000007,-118.68013094567793
-0.29169999999999996,-116.85515336885203
-0.29070000000000007,-114.97358734003153
-0.28969999999999996,-113.06372708521374
-0.28870000000000007,-111.09727837840134
-0.28769999999999996,-109.21571234958083
-0.28670000000000007,-107.34829343375898
-0.28569999999999995,-105.5516100829304
-0.28470000000000006,-103.85395652309235
-0.28369999999999995,-102.11386162425833
-0.28270000000000006,-100.45864940341626
-0.28169999999999995,-98.74684873057957
-0.28070000000000006,-97.04919517074151
-0.27969999999999995,-95.26665893291157
-0.27870000000000006,-93.42753424308701
-0.27769999999999995,-91.60255666626112
-0.27670000000000006,-89.76343197643658
-0.27569999999999995,-87.98089573860662
-0.27470000000000006,-86.18421238777805
-0.27369999999999994,-84.48655882793999
-0.27270000000000005,-82.8313466070979
-0.27169999999999994,-81.1761343862558
-0.27070000000000005,-79.52092216541372
-0.26969999999999994,-77.86570994457162
-0.26870000000000005,-76.15390927173492
-0.26769999999999994,-74.41381437290093
