Potential V vs RHE, Current mA cm-2
0.013299999999999867,10.596187635989125
0.012299999999999978,8.764136502663902
0.011299999999999866,7.019797469930312
0.010299999999999976,5.275458437196722
0.009299999999999864,3.5311194044631313
0.008299999999999974,1.8730777610213083
0.007299999999999862,0.17231183632356148
0.006299999999999972,-1.5717442541500557
0.00529999999999986,-3.2297858975918787
0.0042999999999999705,-4.9302688800296535
0.0032999999999998586,-6.588310523471475
0.0022999999999999687,-8.202496116617484
0.0012999999999998568,-9.772825659467674
0.00029999999999996696,-11.299299152022046
-0.000700000000000145,-12.869628694872238
-0.0017000000000000348,-14.345172580631472
-0.0027000000000001467,-15.78817810649381
-0.0037000000000000366,-17.188742293360193
-0.0047000000000001485,-18.53271802823198
-0.005700000000000038,-19.97572355409432
-0.00670000000000015,-21.333846401964752
-0.00770000000000004,-22.776851927827092
-0.008700000000000152,-24.20571034069078
-0.009700000000000042,-25.60627452755716
-0.010700000000000154,-27.00683871442355
-0.011700000000000044,-28.478138466283188
-0.012700000000000156,-29.836261314153624
-0.013700000000000045,-31.19438416202406
-0.014700000000000157,-32.49591855789989
-0.015700000000000047,-33.81160006677438
-0.01670000000000016,-35.07069312365426
-0.01770000000000005,-36.28734484153819
-0.01870000000000016,-37.47570233342482
-0.01970000000000005,-38.692354051308754
-0.020700000000000163,-39.86656443019674
-0.021700000000000053,-41.139804600075266
-0.022700000000000164,-42.39889765695515
-0.023700000000000054,-43.61554937483908
-0.024700000000000166,-44.88878954471762
-0.025700000000000056,-46.147882601597495
-0.026700000000000168,-47.36453431948143
-0.027700000000000058,-48.55289181136806
-0.02870000000000017,-49.76954352925199
-0.02970000000000006,-50.90131256914402
-0.03070000000000017,-52.033081609036046
-0.03170000000000006,-53.12240930993213
-0.03270000000000017,-54.2117370108282
-0.03370000000000006,-55.25862337272834
-0.034700000000000175,-56.30550973462846
-0.035700000000000065,-57.45142588751914
-0.03670000000000018,-58.498312249419264
-0.03770000000000007,-59.6300812893113
-0.03870000000000018,-60.761850329203334
-0.03970000000000007,-61.80873669110345
-0.04070000000000018,-62.89806439199953
-0.04170000000000007,-64.02983343189156
-0.04270000000000018,-65.0767197937917
-0.04370000000000007,-66.16604749468777
-0.044700000000000184,-67.21293385658788
-0.045700000000000074,-68.21737887949207
-0.046700000000000186,-69.1793825634003
-0.047700000000000076,-70.09894490831257
-0.04870000000000019,-71.06094859222078
-0.04970000000000008,-72.00880516313036
-0.05070000000000019,-72.97080884703858
-0.05170000000000008,-73.93281253094682
-0.05270000000000019,-74.97969889284694
-0.05370000000000008,-75.98414391575112
-0.05470000000000019,-77.03103027765125
-0.05570000000000008,-78.07791663955136
-0.056700000000000195,-79.1248030014515
-0.057700000000000085,-80.12924802435568
-0.058700000000000196,-81.13369304725985
-0.059700000000000086,-82.09569673116808
-0.0607000000000002,-83.0011119630817
-0.06170000000000009,-83.96311564698992
-0.0627000000000002,-84.8826779919022
-0.06370000000000009,-85.80224033681448
-0.0647000000000002,-86.75009690772404
-0.06570000000000009,-87.66965925263632
-0.0667000000000002,-88.63166293654454
-0.0677000000000001,-89.63610795944872
-0.0687000000000002,-90.6405529823529
-0.0697000000000001,-91.64499800525708
-0.07070000000000021,-92.6070016891653
-0.0717000000000001,-93.61144671206948
-0.07270000000000021,-94.55930328297906
-0.0737000000000001,-95.47886562789132
-0.07470000000000021,-96.44086931179956
-0.0757000000000001,-97.40287299570777
-0.07670000000000021,-98.26584688862545
-0.0777000000000001,-99.14296789454177
-0.07870000000000021,-100.02008890045809
-0.0797000000000001,-100.88306279337576
-0.08070000000000022,-101.76018379929208
-0.0817000000000001,-102.63730480520842
-0.08270000000000022,-103.50027869812607
-0.08370000000000011,-104.46228238203432
-0.08470000000000022,-105.38184472694657
-0.08570000000000011,-106.30140707185885
-0.08670000000000022,-107.26341075576708
-0.08770000000000011,-108.1688259876807
-0.08870000000000022,-109.13082967158894
-0.08970000000000011,-110.05039201650122
-0.09070000000000022,-110.92751302241753
-0.09170000000000011,-111.7904869153352
-0.09270000000000023,-112.62516658225556
-0.09370000000000012,-113.48814047517324
-0.09470000000000023,-114.3228201420936
-0.09570000000000012,-115.10091135701937
-0.09670000000000023,-115.93559102393975
-0.09770000000000012,-116.81271202985609
-0.09870000000000023,-117.71812726176971
-0.09970000000000012,-118.63768960668197
-0.10070000000000023,-119.5996932905902
-0.10170000000000012,-120.60413831349437
-0.10270000000000024,-121.56614199740261
-0.10370000000000013,-122.48570434231489
-0.10470000000000024,-123.43356091322445
-0.10570000000000013,-124.31068191914078
-0.10670000000000024,-125.23024426405304
-0.10770000000000013,-126.09321815697072
-0.10870000000000024,-126.88545648489513
-0.10970000000000013,-127.76257749081147
-0.11070000000000024,-128.62555138372915
-0.11170000000000013,-129.4602310506495
-0.11270000000000002,-130.37979339556176
-0.11370000000000013,-131.28520862747538
-0.11470000000000002,-132.16232963339172
-0.11570000000000014,-133.08189197830401
-0.11670000000000003,-133.9873072102176
-0.11770000000000014,-134.86442821613394
-0.11870000000000003,-135.74154922205025
-0.11970000000000014,-136.60452311496792
-0.12070000000000003,-137.43920278188833
-0.12170000000000014,-138.23144110981272
-0.12270000000000003,-139.0095323247385
-0.12370000000000014,-139.84421199165885
-0.12470000000000003,-140.66474454558062
-0.12570000000000014,-141.47112998650366
-0.12670000000000003,-142.31995676642268
-0.12770000000000015,-143.3102546763282
-0.12870000000000004,-144.15908145624724
-0.12970000000000015,-145.00790823616626
-0.13070000000000004,-145.9982061460718
-0.13170000000000015,-146.9885040559773
-0.13270000000000004,-147.83733083589632
-0.13370000000000015,-148.68615761581535
-0.13470000000000004,-149.53498439573437
-0.13570000000000015,-150.38381117565342
-0.13670000000000004,-151.23263795557244
-0.13770000000000016,-152.0814647354914
-0.13870000000000005,-152.93029151541046
-0.13970000000000016,-153.77911829532948
-0.14070000000000005,-154.486473945262
-0.14170000000000016,-155.33530072518104
-0.14270000000000005,-156.18412750510007
-0.14370000000000016,-157.03295428501906
-0.14470000000000005,-157.88178106493808
-0.14570000000000016,-158.87207897484362
-0.14670000000000005,-159.72090575476264
-0.14770000000000016,-160.71120366466818
-0.14870000000000005,-161.5600304445872
-0.14970000000000017,-162.40885722450622
-0.15070000000000006,-163.25768400442522
-0.15170000000000017,-164.10651078434424
-0.15270000000000006,-164.9553375642633
-0.15370000000000017,-165.8041643441823
-0.15470000000000006,-166.51151999411482
-0.15570000000000017,-167.36034677403384
-0.15670000000000006,-168.20917355395284
-0.15770000000000017,-169.0580003338719
-0.15870000000000006,-170.0482982437774
-0.15970000000000018,-170.89712502369645
-0.16070000000000007,-171.88742293360195
-0.16170000000000018,-172.87772084350746
-0.16270000000000007,-173.72654762342648
-0.16370000000000018,-174.57537440334553
-0.16470000000000007,-175.42420118326456
-0.16570000000000018,-176.27302796318358
-0.16670000000000007,-176.98038361311612
-0.16770000000000018,-177.82921039303508
-0.16870000000000007,-178.67803717295413
-0.16970000000000018,-179.52686395287316
-0.17070000000000007,-180.23421960280567
-0.17170000000000019,-181.08304638272472
-0.17270000000000008,-181.93187316264374
-0.1737000000000002,-182.78069994256273
-0.17470000000000008,-183.62952672248176
-0.1757000000000002,-184.47835350240078
-0.17670000000000008,-185.46865141230631
-0.1777000000000002,-186.31747819222534
-0.17870000000000008,-187.16630497214436
-0.1797000000000002,-188.01513175206335
-0.18070000000000008,-188.72248740199586
-0.1817000000000002,-189.57131418191491
-0.18270000000000008,-190.27866983184742
-0.1837000000000002,-191.12749661176645
-0.1847000000000001,-191.9763233916855
-0.1857000000000002,-192.683679041618
-0.1867000000000001,-193.532505821537
-0.1877000000000002,-194.38133260145605
-0.1887000000000001,-195.37163051136156
-0.1897000000000002,-196.2204572912806
-0.1907000000000001,-197.21075520118612
-0.1917000000000001,-198.05958198110514
-0.19269999999999998,-199.04987989101065
-0.1937000000000001,-199.89870667092967
-0.19469999999999998,-200.7475334508487
-0.1957000000000001,-201.73783136075423
-0.19669999999999999,-202.58665814067325
-0.1977000000000001,-203.29401379060576
-0.1987,-204.14284057052478
-0.1997000000000001,-204.8501962204573
-0.2007,-205.69902300037634
-0.2017000000000001,-206.54784978029537
-0.2027,-207.25520543022787
-0.2037000000000001,-208.24550334013338
-0.2047,-208.95285899006592
-0.2057000000000001,-209.94315689997146
-0.2067,-210.79198367989048
-0.2077000000000001,-211.64081045980947
-0.2087,-212.48963723972852
-0.2097000000000001,-213.47993514963403
-0.2107,-214.18729079956654
-0.2117000000000001,-215.03611757948556
-0.2127,-215.88494435940459
-0.2137000000000001,-216.73377113932364
-0.2147,-217.58259791924263
-0.2157000000000001,-218.43142469916165
-0.2167,-219.28025147908068
-0.21770000000000012,-220.1290782589997
-0.2187,-220.97790503891872
-0.21970000000000012,-221.82673181883774
-0.2207,-222.81702972874328
-0.22170000000000012,-223.6658565086623
-0.2227,-224.5146832885813
-0.22370000000000012,-225.36351006850035
-0.2247,-226.21233684841937
-0.22570000000000012,-227.06116362833836
-0.2267,-227.9099904082574
-0.22770000000000012,-228.61734605818995
-0.22870000000000001,-229.46617283810895
-0.22970000000000013,-230.17352848804146
-0.23070000000000002,-231.0223552679605
-0.23170000000000013,-231.8711820478795
-0.23270000000000002,-232.72000882779852
-0.23370000000000013,-233.56883560771757
-0.23470000000000002,-234.4176623876366
-0.23570000000000013,-235.40796029754208
-0.23670000000000002,-236.3982582074476
-0.2376999999999999,-237.24708498736666
-0.23870000000000002,-238.0959117672857
-0.2396999999999999,-238.94473854720468
-0.24070000000000003,-239.7935653271237
-0.24169999999999991,-240.50092097705624
-0.24270000000000003,-241.34974775697523
-0.24369999999999992,-242.05710340690777
-0.24470000000000003,-242.76445905684034
-0.24569999999999992,-243.47181470677282
-0.24670000000000003,-244.32064148669184
-0.24769999999999992,-245.16946826661086
-0.24870000000000003,-246.01829504652986
-0.24969999999999992,-247.0085929564354
-0.25070000000000003,-247.85741973635444
-0.2516999999999999,-248.84771764625998
-0.25270000000000004,-249.69654442617897
-0.2536999999999999,-250.545371206098
-0.25470000000000004,-251.39419798601702
-0.2556999999999999,-252.10155363594956
-0.25670000000000004,-252.95038041586852
-0.25769999999999993,-253.65773606580112
-0.25870000000000004,-254.50656284572008
-0.25969999999999993,-255.35538962563913
-0.26070000000000004,-256.20421640555816
-0.26169999999999993,-256.91157205549064
-0.26270000000000004,-257.76039883540966
-0.26369999999999993,-258.60922561532874
-0.26470000000000005,-259.4580523952477
-0.26569999999999994,-260.3068791751668
-0.26670000000000005,-261.2971770850723
-0.26769999999999994,-262.1460038649913
-0.26870000000000005,-262.9948306449103
-0.26969999999999994,-263.84365742482936
-0.27070000000000005,-264.6924842047484
-0.27169999999999994,-265.5413109846674
-0.27270000000000005,-266.2486666345999
-0.27369999999999994,-266.9560222845325
-0.27470000000000006,-267.6633779344649
-0.27569999999999995,-268.37073358439744
-0.27670000000000006,-269.07808923433
-0.27769999999999995,-269.926916014249
-0.27870000000000006,-270.775742794168
-0.27969999999999995,-271.4830984441005
-0.28070000000000006,-272.47339635400607
-0.28169999999999995,-273.3222231339251
-0.28270000000000006,-274.1710499138441
-0.28369999999999995,-275.1613478237496
-0.28470000000000006,-276.01017460366864
-0.28569999999999995,-276.8590013835877
-0.28670000000000007,-277.56635703352015
-0.28769999999999996,-278.4151838134392
-0.28870000000000007,-279.1225394633717
-0.28969999999999996,-279.82989511330425
-0.29070000000000007,-280.67872189322327
-0.29169999999999996,-281.3860775431558
-0.29270000000000007,-282.2349043230748
-0.29369999999999996,-283.08373110299385
-0.2947000000000001,-283.9325578829129
-0.29569999999999996,-284.7813846628319
-0.2967000000000001,-285.6302114427509
-0.29769999999999996,-286.47903822266994
-0.2987000000000001,-287.327865002589
-0.29969999999999997,-288.03522065252145
-0.3007000000000001,-288.8840474324405
-0.30169999999999997,-289.59140308237295
-0.3027000000000001,-290.29875873230554
-0.30369999999999997,-290.86464325225154
-0.3047000000000001,-291.71347003217056
-0.30569999999999997,-292.4208256821031
-0.3067000000000001,-293.26965246202207
-0.3077,-294.11847924194115
-0.3087000000000001,-294.96730602186017
-0.3097,-295.67466167179265
-0.3107000000000001,-296.52348845171167
-0.3117,-297.3723152316307
-0.3127000000000001,-298.2211420115498
-0.3137,-299.06996879146874
-0.3147000000000001,-299.7773244414013
-0.3157,-300.6261512213203
-0.3167000000000001,-301.33350687125284
-0.3177,-302.0408625211853
-0.3187000000000001,-302.88968930110434
-0.3197,-303.5970449510368
-0.3207000000000001,-304.3044006009694
-0.3217,-305.0117562509019
-0.3227000000000001,-305.8605830308209
-0.3237,-306.70940981073994
-0.3247000000000001,-307.4167654606725
-0.3257,-308.2655922405915
-0.3267000000000001,-308.972947890524
-0.3277,-309.821774670443
-0.3287000000000001,-310.6706014503621
-0.3297,-311.5194282302811
-0.3307000000000001,-312.36825501020013
-0.3317,-313.21708179011915
-0.3327000000000001,-314.0659085700381
-0.3337,-314.77326421997066
-0.3347000000000001,-315.6220909998897
-0.3357,-316.3294466498222
-0.3367000000000001,-317.03680229975475
-0.3377,-317.60268681970075
-0.3387000000000001,-318.4515135996198
-0.3397,-319.15886924955225
-0.3407000000000001,-320.00769602947133
-0.3417,-320.8565228093903
-0.3427000000000001,-321.7053495893094
-0.3437,-322.41270523924186
-0.3447000000000001,-323.2615320191609
-0.3457,-323.9688876690934
-0.3467000000000001,-324.81771444901244
-0.3477,-325.6665412289314
-0.3487000000000001,-326.23242574887746
-0.3497,-326.79831026882346
-0.3507000000000001,-327.505665918756
-0.3517,-328.2130215686885
-0.3527000000000001,-329.0618483486075
-0.3537,-329.76920399854004
-0.3547000000000001,-330.618030778459
-0.3557,-331.4668575583781
-0.35670000000000013,-332.3156843382971
-0.3577,-333.02303998822964
-0.35870000000000013,-333.87186676814866
-0.3597,-334.7206935480677
-0.36070000000000013,-335.5695203279867
-0.3617,-336.27687597791925
-0.3626999999999999,-336.9842316278517
-0.3637,-337.69158727778427
-0.3646999999999999,-338.39894292771675
-0.3657,-339.2477697076358
-0.3666999999999999,-339.95512535756825
-0.3677,-340.80395213748733
-0.3686999999999999,-341.65277891740635
-0.36970000000000003,-342.5016056973254
-0.3706999999999999,-343.49190360723094
-0.37170000000000003,-344.48220151713645
-0.3726999999999999,-345.33102829705547
-0.37370000000000003,-346.1798550769745
-0.3746999999999999,-347.0286818568935
-0.37570000000000003,-347.87750863681254
-0.3766999999999999,-348.86780654671804
-0.37770000000000004,-349.71663332663707
-0.3786999999999999,-350.5654601065561
-0.37970000000000004,-351.2728157564886
-0.3806999999999999,-351.9801714064211
-0.38170000000000004,-352.68752705635364
-0.38269999999999993,-353.3948827062862
-0.38370000000000004,-354.2437094862052
-0.38469999999999993,-355.09253626612417
-0.38570000000000004,-356.08283417602973
-0.38669999999999993,-355.7998919160567
-0.38570000000000004,-352.8289981863402
-0.38469999999999993,-349.9995755866101
-0.38370000000000004,-347.17015298688
-0.38269999999999993,-344.1992592571634
-0.38170000000000004,-341.3698366574333
-0.3806999999999999,-338.6818851876898
-0.37970000000000004,-335.9939337179462
-0.3786999999999999,-333.44745337818915
-0.37770000000000004,-330.7595019084456
-0.3766999999999999,-328.071550438702
-0.37570000000000003,-325.5250700989449
-0.3746999999999999,-322.83711862920137
-0.37370000000000003,-320.1491671594578
-0.3726999999999999,-317.60268681970075
-0.37170000000000003,-315.0562064799437
-0.3706999999999999,-312.50972614018656
-0.36970000000000003,-309.9632458004295
-0.3686999999999999,-307.55823659065896
-0.3677,-305.1532273808884
-0.3666999999999999,-302.74821817111786
-0.3657,-300.2017378313608
-0.3646999999999999,-297.79672862159026
-0.3637,-295.25024828183314
-0.3626999999999999,-292.8452390720626
-0.3617,-290.29875873230554
-0.36070000000000013,-287.893749522535
-0.3597,-285.3472691827779
-0.35870000000000013,-282.9422599730073
-0.3577,-280.5372507632368
-0.35670000000000013,-278.2737126834527
-0.3557,-275.86870347368216
-0.3547000000000001,-273.7466365238846
-0.3537,-271.4830984441005
-0.3527000000000001,-269.07808923433
-0.3517,-266.8145511545459
-0.3507000000000001,-264.40954194477536
-0.3497,-262.0045327350048
-0.3487000000000001,-259.59952352523425
-0.3477,-257.1945143154637
-0.3467000000000001,-254.93097623567962
-0.3457,-252.52596702590907
-0.3447000000000001,-250.262428946125
-0.3437,-247.99889086634093
-0.3427000000000001,-245.73535278655686
-0.3417,-243.6132858367593
-0.3407000000000001,-241.34974775697523
-0.3397,-239.2276808071777
-0.3387000000000001,-236.96414272739366
-0.3377,-234.7006046476096
-0.3367000000000001,-232.43706656782552
-0.3357,-230.17352848804146
-0.3347000000000001,-227.9099904082574
-0.3337,-225.64645232847332
-0.3327000000000001,-223.38291424868927
-0.3317,-221.11937616890526
-0.3307000000000001,-218.85583808912116
-0.3297,-216.73377113932364
-0.3287000000000001,-214.61170418952605
-0.3277,-212.48963723972852
-0.3267000000000001,-210.36757028993094
-0.3257,-208.3869744701199
-0.3247000000000001,-206.26490752032234
-0.3237,-204.14284057052478
-0.3227000000000001,-201.87930249074074
-0.3217,-199.75723554094319
-0.3207000000000001,-197.63516859114563
-0.3197,-195.37163051136156
-0.3187000000000001,-193.249563561564
-0.3177,-191.12749661176645
-0.3167000000000001,-189.0054296619689
-0.3157,-186.88336271217133
-0.3147000000000001,-184.9027668923603
-0.3137,-182.92217107254925
-0.3127000000000001,-180.94157525273818
-0.3117,-178.96097943292713
-0.3107000000000001,-176.8389124831296
-0.3097,-174.85831666331853
-0.3087000000000001,-172.73624971352098
-0.3077,-170.61418276372342
-0.3067000000000001,-168.63358694391238
-0.30569999999999997,-166.65299112410133
-0.3047000000000001,-164.53092417430375
-0.30369999999999997,-162.5503283544927
-0.3027000000000001,-160.5697325346817
-0.30169999999999997,-158.4476655848841
-0.3007000000000001,-156.46706976507306
-0.29969999999999997,-154.486473945262
-0.2987000000000001,-152.64734925543743
-0.29769999999999996,-150.8082245656129
-0.2967000000000001,-148.82762874580186
-0.29569999999999996,-146.9885040559773
-0.2947000000000001,-145.00790823616626
-0.29369999999999996,-143.0273124163552
-0.29270000000000007,-141.14574638753473
-0.29169999999999996,-139.1792976807223
-0.29070000000000007,-137.2694374259045
-0.28969999999999996,-135.3029887190921
-0.28870000000000007,-133.37898135127566
-0.28769999999999996,-131.4266797574619
-0.28670000000000007,-129.4602310506495
-0.28569999999999995,-127.62110636082497
-0.28470000000000006,-125.7536874450031
-0.28369999999999995,-123.91456275517855
-0.28270000000000006,-122.08958517835266
-0.28169999999999995,-120.29290182752408
-0.28070000000000006,-118.46792425069816
-0.27969999999999995,-116.62879956087362
-0.27870000000000006,-114.76138064505177
-0.27769999999999995,-112.96469729422319
-0.27670000000000006,-111.09727837840134
-0.27569999999999995,-109.17327101058488
-0.27470000000000006,-107.30585209476303
-0.27369999999999994,-105.50916874393444
-0.27270000000000005,-103.64174982811258
-0.27169999999999994,-101.84506647728399
-0.27070000000000005,-100.02008890045809
-0.26969999999999994,-98.26584688862545
-0.26870000000000005,-96.52575198979144
