Potential V vs RHE, Current mA cm-2
0.013299999999999867,13.08325010115186
0.012299999999999978,11.20734291753082
0.011299999999999866,9.419147834501414
0.010299999999999976,7.7186648520636405
0.009299999999999864,6.1044792589176335
0.008299999999999974,4.534149716067443
0.007299999999999862,2.8761080726256196
0.006299999999999972,1.2626298351295453
0.00529999999999986,-0.3947044526623452
0.0042999999999999705,-2.052746096104168
0.0032999999999998586,-3.579219588658543
0.0022999999999999687,-5.105693081212917
0.0012999999999998568,-6.500598422879844
0.00029999999999996696,-7.853062425550818
-0.000700000000000145,-9.205526428221793
-0.0017000000000000348,-10.514134380596953
-0.0027000000000001467,-11.86659838326793
-0.0037000000000000366,-13.30535977523067
-0.0047000000000001485,-14.65640906660178
-0.005700000000000038,-16.056973253468165
-0.00670000000000015,-17.4433903273359
-0.00770000000000004,-18.716630497214435
-0.008700000000000152,-19.93328221509837
-0.009700000000000042,-21.107492593986347
-0.010700000000000154,-22.253408746877028
-0.011700000000000044,-23.427619125765005
-0.012700000000000156,-24.64427084364894
-0.013700000000000045,-25.86092256153287
-0.014700000000000157,-27.134162731411404
-0.015700000000000047,-28.393255788291288
-0.01670000000000016,-29.581613280177915
-0.01770000000000005,-30.71338232006995
-0.01870000000000016,-31.802710020966025
-0.01970000000000005,-32.84959638286615
-0.020700000000000163,-33.85404140577033
-0.021700000000000053,-34.90092776767045
-0.022700000000000164,-35.94781412957058
-0.023700000000000054,-37.07958316946261
-0.024700000000000166,-38.16891087035869
-0.025700000000000056,-39.34312124924667
-0.026700000000000168,-40.3900076111468
-0.027700000000000058,-41.47933531204288
-0.02870000000000017,-42.483780334947056
-0.02970000000000006,-43.40334267985933
-0.03070000000000017,-44.3229050247716
-0.03170000000000006,-45.27076159568118
-0.03270000000000017,-46.19032394059345
-0.03370000000000006,-47.19476896349763
-0.034700000000000175,-48.1992139864018
-0.035700000000000065,-49.28854168729788
-0.03670000000000018,-50.29298671020206
-0.03770000000000007,-51.25499039411028
-0.03870000000000018,-52.17455273902255
-0.03970000000000007,-53.03752663194023
-0.04070000000000018,-53.872206298860604
-0.04170000000000007,-54.73518019177827
-0.04270000000000018,-55.612301197694585
-0.04370000000000007,-56.57430488160282
-0.044700000000000184,-57.57874990450699
-0.045700000000000074,-58.583194927411164
-0.046700000000000186,-59.502757272323436
-0.047700000000000076,-60.40817250423707
-0.04870000000000019,-61.28529351015339
-0.04970000000000008,-62.06338472507916
-0.05070000000000019,-62.855623053003576
-0.05170000000000008,-63.6761556069253
-0.05270000000000019,-64.51083527384567
-0.05370000000000008,-65.38795627976201
-0.05470000000000019,-66.29337151167562
-0.05570000000000008,-67.25537519558385
-0.056700000000000195,-68.17493754049613
-0.057700000000000085,-69.05205854641244
-0.058700000000000196,-69.8301497613382
-0.059700000000000086,-70.57994675026669
-0.0607000000000002,-71.27315528720055
-0.06170000000000009,-72.05124650212633
-0.0627000000000002,-72.84348483005074
-0.06370000000000009,-73.6781644969711
-0.0647000000000002,-74.54113838988879
-0.06570000000000009,-75.46070073480107
-0.0667000000000002,-76.29538040172143
-0.0677000000000001,-77.11591295564315
-0.0687000000000002,-77.86570994457162
-0.0697000000000001,-78.60135982050144
-0.07070000000000021,-79.2945683574353
-0.0717000000000001,-80.00192400736783
-0.07270000000000021,-80.73757388329766
-0.0737000000000001,-81.57225355021802
-0.07470000000000021,-82.43522744313569
-0.0757000000000001,-83.31234844905201
-0.07670000000000021,-84.09043966397778
-0.0777000000000001,-84.8826779919022
-0.07870000000000021,-85.61832786783202
-0.0797000000000001,-86.32568351776455
-0.08070000000000022,-86.97645071570246
-0.0817000000000001,-87.66965925263632
-0.08270000000000022,-88.46189758056073
-0.08370000000000011,-89.23998879548651
-0.08470000000000022,-90.07466846240689
-0.08570000000000011,-90.89520101632861
-0.08670000000000022,-91.72988068324898
-0.08770000000000011,-92.50797189817473
-0.08870000000000022,-93.21532754810727
-0.08970000000000011,-93.95097742403709
-0.09070000000000022,-94.601744621975
-0.09170000000000011,-95.30910027190752
-0.09270000000000023,-96.04475014783733
-0.09370000000000012,-96.87942981475771
-0.09470000000000023,-97.74240370767538
-0.09570000000000012,-98.57708337459576
-0.09670000000000023,-99.41176304151614
-0.09770000000000012,-100.18985425644189
-0.09870000000000023,-100.88306279337576
-0.09970000000000012,-101.59041844330828
-0.10070000000000023,-102.28362698024215
-0.10170000000000012,-102.97683551717601
-0.10270000000000024,-103.68419116710854
-0.10370000000000013,-104.50472372103027
-0.10470000000000024,-105.33940338795064
-0.10570000000000013,-106.21652439386696
-0.10670000000000024,-106.99461560879273
-0.10770000000000013,-107.78685393671715
-0.10870000000000024,-108.52250381264696
-0.10970000000000013,-109.21571234958083
-0.11070000000000024,-109.92306799951335
-0.11170000000000013,-110.6162765364472
-0.11270000000000002,-111.35192641237703
-0.11370000000000013,-112.18660607929739
-0.11470000000000002,-112.96469729422319
-0.11570000000000014,-113.79937696114357
-0.11670000000000003,-114.57746817606933
-0.11770000000000014,-115.36970650399375
-0.11870000000000003,-116.10535637992358
-0.11970000000000014,-116.85515336885203
-0.12070000000000003,-117.54836190578591
-0.12170000000000014,-118.24157044271978
-0.12270000000000003,-118.99136743164823
-0.12370000000000014,-119.769458646574
-0.12470000000000003,-120.60413831349437
-0.12570000000000014,-121.43881798041474
-0.12670000000000003,-122.21690919534053
-0.12770000000000015,-122.95255907127036
-0.12870000000000004,-123.74479739919475
-0.12970000000000015,-124.48044727512458
-0.13070000000000004,-125.14536158606113
-0.13170000000000015,-125.83857012299501
-0.13270000000000004,-126.57421999892482
-0.13370000000000015,-127.4088996658452
-0.13470000000000004,-128.18699088077096
-0.13570000000000015,-129.02167054769134
-0.13670000000000004,-129.89879155360765
-0.13770000000000016,-130.7193241075294
-0.13870000000000005,-131.46912109645783
-0.13970000000000016,-132.16232963339172
-0.14070000000000005,-132.81309683132966
-0.14170000000000016,-133.52045248126214
-0.14270000000000005,-134.256102357192
-0.14370000000000016,-135.03419357211774
-0.14470000000000005,-135.91131457803408
-0.14570000000000016,-136.7884355839504
-0.14670000000000005,-137.6089681378721
-0.14770000000000016,-138.40120646579655
-0.14870000000000005,-139.09441500273041
-0.14970000000000017,-139.80177065266292
-0.15070000000000006,-140.41009651160488
-0.15170000000000017,-141.10330504853877
-0.15270000000000006,-141.89554337646317
-0.15370000000000017,-142.6028990263957
-0.15470000000000006,-143.3102546763282
-0.15570000000000017,-144.30055258623375
-0.15670000000000006,-145.00790823616626
-0.15770000000000017,-145.7152638860988
-0.15870000000000006,-146.4226195360313
-0.15970000000000018,-147.1299751859638
-0.16070000000000007,-147.6958597059098
-0.16170000000000018,-148.26174422585584
-0.16270000000000007,-149.1105710057749
-0.16370000000000018,-149.8179266557074
-0.16470000000000007,-150.66675343562642
-0.16570000000000018,-151.5155802155454
-0.16670000000000007,-152.36440699546444
-0.16770000000000018,-153.07176264539694
-0.16870000000000007,-153.77911829532948
-0.16970000000000018,-154.486473945262
-0.17070000000000007,-155.19382959519453
-0.17170000000000019,-156.04265637511355
-0.17270000000000008,-156.60854089505958
-0.1737000000000002,-157.45736767497857
-0.17470000000000008,-158.1647233249111
-0.1757000000000002,-159.01355010483013
-0.17670000000000008,-159.86237688474912
-0.1777000000000002,-160.5697325346817
-0.17870000000000008,-161.2770881846142
-0.1797000000000002,-161.9844438345467
-0.18070000000000008,-162.5503283544927
-0.1817000000000002,-163.39915513441173
-0.18270000000000008,-164.10651078434424
-0.1837000000000002,-164.9553375642633
-0.1847000000000001,-165.8041643441823
-0.1857000000000002,-166.65299112410133
-0.1867000000000001,-167.50181790402033
-0.1877000000000002,-168.20917355395284
-0.1887000000000001,-168.91652920388537
-0.1897000000000002,-169.6238848538179
-0.1907000000000001,-170.33124050375042
-0.1917000000000001,-171.03859615368293
-0.19269999999999998,-171.74595180361547
-0.1937000000000001,-172.45330745354798
-0.19469999999999998,-173.16066310348046
-0.1957000000000001,-174.0094898833995
-0.19669999999999999,-174.85831666331853
-0.1977000000000001,-175.56567231325104
-0.1987,-176.4144990931701
-0.1997000000000001,-176.98038361311612
-0.2007,-177.6877392630486
-0.2017000000000001,-178.3950949129811
-0.2027,-179.10245056291362
-0.2037000000000001,-179.80980621284618
-0.2047,-180.5171618627787
-0.2057000000000001,-181.36598864269772
-0.2067,-182.07334429263022
-0.2077000000000001,-182.78069994256273
-0.2087,-183.48805559249527
-0.2097000000000001,-184.05394011244127
-0.2107,-184.7612957623738
-0.2117000000000001,-185.3271802823198
-0.2127,-186.03453593225234
-0.2137000000000001,-186.88336271217133
-0.2147,-187.59071836210387
-0.2157000000000001,-188.58101627200938
-0.2167,-189.2883719219419
-0.21770000000000012,-190.13719870186094
-0.2187,-190.84455435179345
-0.21970000000000012,-191.551910001726
-0.2207,-192.2592656516585
-0.22170000000000012,-192.966621301591
-0.2227,-193.6739769515235
-0.22370000000000012,-194.52280373144254
-0.2247,-195.37163051136156
-0.22570000000000012,-196.0789861612941
-0.2267,-196.92781294121312
-0.22770000000000012,-197.63516859114563
-0.22870000000000001,-198.3425242410781
-0.22970000000000013,-198.90840876102413
-0.23070000000000002,-199.47429328097016
-0.23170000000000013,-200.18164893090267
-0.23270000000000002,-200.88900458083523
-0.23370000000000013,-201.73783136075423
-0.23470000000000002,-202.58665814067325
-0.23570000000000013,-203.43548492059227
-0.23670000000000002,-204.14284057052478
-0.2376999999999999,-204.8501962204573
-0.23870000000000002,-205.41608074040332
-0.2396999999999999,-205.98196526034934
-0.24070000000000003,-206.68932091028185
-0.24169999999999991,-207.3966765602144
-0.24270000000000003,-208.1040322101469
-0.24369999999999992,-208.8113878600794
-0.24470000000000003,-209.51874351001192
-0.24569999999999992,-210.22609915994445
-0.24670000000000003,-211.07492593986345
-0.24769999999999992,-211.782281589796
-0.24870000000000003,-212.34816610974204
-0.24969999999999992,-213.05552175967455
-0.25070000000000003,-213.76287740960703
-0.2516999999999999,-214.47023305953954
-0.25270000000000004,-215.17758870947208
-0.2536999999999999,-215.88494435940459
-0.25470000000000004,-216.87524226931012
-0.2556999999999999,-217.72406904922914
-0.25670000000000004,-218.57289582914817
-0.25769999999999993,-219.42172260906716
-0.25870000000000004,-220.1290782589997
-0.25969999999999993,-220.83643390893224
-0.26070000000000004,-221.54378955886475
-0.26169999999999993,-222.25114520879725
-0.26270000000000004,-222.81702972874328
-0.26369999999999993,-223.52438537867582
-0.26470000000000005,-224.2317410286083
-0.26569999999999994,-224.93909667854084
-0.26670000000000005,-225.64645232847332
-0.26769999999999994,-226.35380797840588
-0.26870000000000005,-227.06116362833836
-0.26969999999999994,-227.7685192782709
-0.27070000000000005,-228.47587492820347
-0.27169999999999994,-229.18323057813595
-0.27270000000000005,-229.74911509808197
-0.27369999999999994,-230.45647074801445
-0.27470000000000006,-231.163826397947
-0.27569999999999995,-232.01265317786604
-0.27670000000000006,-232.72000882779852
-0.27769999999999995,-233.56883560771757
-0.27870000000000006,-234.27619125765005
-0.27969999999999995,-235.12501803756908
-0.28070000000000006,-235.69090255751513
-0.28169999999999995,-236.3982582074476
-0.28270000000000006,-236.96414272739366
-0.28369999999999995,-237.67149837732615
-0.28470000000000006,-238.5203251572452
-0.28569999999999995,-239.36915193716422
-0.28670000000000007,-240.21797871708318
-0.28769999999999996,-240.92533436701575
-0.28870000000000007,-241.6326900169483
-0.28969999999999996,-242.34004566688077
-0.29070000000000007,-242.90593018682682
-0.29169999999999996,-243.47181470677282
-0.29270000000000007,-244.17917035670533
-0.29369999999999996,-244.8865260066378
-0.2947000000000001,-245.73535278655686
-0.29569999999999996,-246.5841795664759
-0.2967000000000001,-247.4330063463949
-0.29769999999999996,-248.14036199632744
-0.2987000000000001,-248.70624651627344
-0.29969999999999997,-249.41360216620598
-0.3007000000000001,-250.1209578161385
-0.30169999999999997,-250.6868423360845
-0.3027000000000001,-251.39419798601702
-0.30369999999999997,-252.10155363594956
-0.3047000000000001,-252.95038041586852
-0.30569999999999997,-253.79920719578757
-0.3067000000000001,-254.50656284572008
-0.3077,-255.21391849565262
-0.3087000000000001,-255.92127414558513
-0.3097,-256.77010092550415
-0.3107000000000001,-257.33598544545015
-0.3117,-257.90186996539614
-0.3127000000000001,-258.60922561532874
-0.3137,-259.3165812652612
-0.3147000000000001,-260.02393691519376
-0.3157,-260.8727636951128
-0.3167000000000001,-261.7215904750318
-0.3177,-262.57041725495077
-0.3187000000000001,-263.27777290488336
-0.3197,-263.98512855481584
-0.3207000000000001,-264.55101307476184
-0.3217,-265.11689759470784
-0.3227000000000001,-265.82425324464043
-0.3237,-266.6730800245594
-0.3247000000000001,-267.5219068044785
-0.3257,-268.22926245441096
-0.3267000000000001,-269.07808923433
-0.3277,-269.926916014249
-0.3287000000000001,-270.63427166418154
-0.3297,-271.4830984441005
-0.3307000000000001,-272.1904540940331
-0.3317,-273.03928087395207
-0.3327000000000001,-274.0295787838576
-0.3337,-274.87840556377665
-0.3347000000000001,-275.7272323436957
-0.3357,-276.43458799362816
-0.3367000000000001,-277.4248859035337
-0.3377,-278.1322415534662
-0.3387000000000001,-278.9810683333853
-0.3397,-279.6884239833177
-0.3407000000000001,-280.3957796332503
-0.3417,-280.9616641531963
-0.3427000000000001,-281.66901980312883
-0.3437,-282.3763754530613
-0.3447000000000001,-283.22520223298034
-0.3457,-284.07402901289936
-0.3467000000000001,-284.9228557928184
-0.3477,-285.7716825727374
-0.3487000000000001,-286.76198048264297
-0.3497,-287.46933613257545
-0.3507000000000001,-288.176691782508
-0.3517,-288.8840474324405
-0.3527000000000001,-289.59140308237295
-0.3537,-290.29875873230554
-0.3547000000000001,-291.14758551222457
-0.3557,-291.9964122921436
-0.35670000000000013,-292.70376794207607
-0.3577,-293.55259472199515
-0.35870000000000013,-294.4014215019141
-0.3597,-295.25024828183314
-0.36070000000000013,-295.9576039317657
-0.3617,-296.6649595816982
-0.3626999999999999,-297.51378636161724
-0.3637,-298.3626131415362
-0.3646999999999999,-299.3529110514418
-0.3657,-300.2017378313608
-0.3666999999999999,-301.1920357412663
-0.3677,-301.8993913911989
-0.3686999999999999,-302.74821817111786
-0.36970000000000003,-303.5970449510368
-0.3706999999999999,-304.1629294709828
-0.37170000000000003,-305.0117562509019
-0.3726999999999999,-305.71911190083443
-0.37370000000000003,-306.56793868075346
-0.3746999999999999,-307.4167654606725
-0.37570000000000003,-308.407063370578
-0.3766999999999999,-309.255890150497
-0.37770000000000004,-310.10471693041603
-0.3786999999999999,-310.81207258034857
-0.37970000000000004,-311.5194282302811
-0.3806999999999999,-312.2267838802136
-0.38170000000000004,-312.9341395301461
-0.38269999999999993,-313.6414951800786
-0.38370000000000004,-314.49032195999763
-0.38469999999999993,-315.4806198699032
-0.38570000000000004,-316.47091777980876
-0.38669999999999993,-315.9050332598627
-0.38570000000000004,-313.0756106601326
-0.38469999999999993,-310.2461880604026
-0.38370000000000004,-307.4167654606725
-0.38269999999999993,-304.4458717309559
-0.38170000000000004,-301.6164491312258
-0.3806999999999999,-298.9284976614822
-0.37970000000000004,-296.0990750617522
-0.3786999999999999,-293.55259472199515
-0.37770000000000004,-291.0061143822381
-0.3766999999999999,-288.45963404248096
-0.37570000000000003,-285.7716825727374
-0.3746999999999999,-283.22520223298034
-0.37370000000000003,-280.5372507632368
-0.3726999999999999,-277.84929929349323
-0.37170000000000003,-275.1613478237496
-0.3706999999999999,-272.47339635400607
-0.36970000000000003,-269.926916014249
-0.3686999999999999,-267.5219068044785
-0.3677,-265.11689759470784
-0.3666999999999999,-262.7118883849373
-0.3657,-260.4483503051532
-0.3646999999999999,-257.90186996539614
-0.3637,-255.35538962563913
-0.3626999999999999,-252.80890928588207
-0.3617,-250.262428946125
-0.36070000000000013,-247.85741973635444
-0.3597,-245.45241052658386
-0.35870000000000013,-243.18887244679982
-0.3577,-241.06680549700224
-0.35670000000000013,-238.66179628723168
-0.3557,-236.25678707746113
-0.3547000000000001,-233.71030673770406
-0.3537,-231.163826397947
-0.3527000000000001,-228.75881718817644
-0.3517,-226.35380797840588
-0.3507000000000001,-224.09026989862178
-0.3497,-221.96820294882426
-0.3487000000000001,-219.8461359990267
-0.3477,-217.58259791924263
-0.3467000000000001,-215.4605309694451
-0.3457,-213.33846401964755
-0.3447000000000001,-211.07492593986345
-0.3437,-208.6699167300929
-0.3427000000000001,-206.26490752032234
-0.3417,-204.0013694405383
-0.3407000000000001,-201.73783136075423
-0.3397,-199.47429328097016
-0.3387000000000001,-197.21075520118612
-0.3377,-195.23015938137505
-0.3367000000000001,-193.10809243157752
-0.3357,-190.98602548177996
-0.3347000000000001,-188.72248740199586
-0.3337,-186.45894932221185
-0.3327000000000001,-184.19541124242778
-0.3317,-181.93187316264374
-0.3307000000000001,-179.80980621284618
-0.3297,-177.6877392630486
-0.3287000000000001,-175.70714344323756
-0.3277,-173.72654762342648
-0.3267000000000001,-171.60448067362896
-0.3257,-169.48241372383137
-0.3247000000000001,-167.36034677403384
-0.3237,-165.2382798242363
-0.3227000000000001,-162.97474174445222
-0.3217,-160.99414592464117
-0.3207000000000001,-158.87207897484362
-0.3197,-156.89148315503257
-0.3187000000000001,-155.05235846520802
-0.3177,-153.07176264539694
-0.3167000000000001,-151.23263795557244
-0.3157,-149.25204213576137
-0.3147000000000001,-147.27144631595033
-0.3137,-145.14937936615277
-0.3127000000000001,-143.16878354634173
-0.3117,-141.14574638753473
-0.3107000000000001,-139.1792976807223
-0.3097,-137.2694374259045
-0.3087000000000001,-135.34543005808808
-0.3077,-133.52045248126214
-0.3067000000000001,-131.63888645244168
-0.30569999999999997,-129.75732042362114
-0.3047000000000001,-127.80501882980741
-0.30369999999999997,-125.83857012299501
-0.3027000000000001,-123.78723873819072
-0.30169999999999997,-121.86323137037427
-0.3007000000000001,-119.9109297765605
-0.29969999999999997,-118.07180508673595
-0.2987000000000001,-116.28926884890602
-0.29769999999999996,-114.53502683707337
-0.2967000000000001,-112.75249059924342
-0.29569999999999996,-110.96995436141347
-0.2947000000000001,-109.08838833259297
-0.29369999999999996,-107.20682230377247
-0.29270000000000007,-105.38184472694657
-0.29169999999999996,-103.50027869812607
-0.29070000000000007,-101.6753011213002
-0.28969999999999996,-99.87861777047159
-0.28870000000000007,-98.2234055496295
-0.28769999999999996,-96.52575198979144
-0.28670000000000007,-94.78565709095746
-0.28569999999999995,-93.08800353111941
-0.28470000000000006,-91.33376151928677
-0.28369999999999995,-89.55122528145681
-0.28270000000000006,-87.71210059163228
-0.28169999999999995,-85.92956435380233
-0.28070000000000006,-84.23191079396429
-0.27969999999999995,-82.56255146012353
-0.27870000000000006,-80.90733923928146
-0.27769999999999995,-79.33700969643127
-0.27670000000000006,-77.68179747558916
-0.27569999999999995,-76.02658525474708
-0.27470000000000006,-74.32893169490903
-0.27369999999999994,-72.57468968307639
-0.27270000000000005,-70.79215344524643
-0.27169999999999994,-69.05205854641244
-0.27070000000000005,-67.34025787357575
-0.26969999999999994,-65.7274869917296
-0.26870000000000005,-64.19959878787537
-0.26769999999999994,-62.64341635802381
