Jan. 14, 2025   18:14:19
Linear Sweep Voltammetry
File: c:/users/guazh/data/banditlqround7_x0exp772_r5/2025-01-10-exp845\1acid_1ac-2025-01-14t18_11_07-lsvinphos\1acid_1ac_lsv_50mvs_efin_-2100mv.bin
Data Source:  Experiment
Instrument Model:  CHI760E
Header: LSV ran at 50 mVs with Efin at -2100mV
Note: 

Init E (V) = -0.6
Final E (V) = -2.1
Scan Rate (V/s) = 0.05
Sample Interval (V) = 0.001
Quiet Time (sec) = 2
Sensitivity (A/V) = 1e-4
Comp R (ohm) = 9.8

Results:

Channel 1:
Ep = -1.932V
ip = 9.491e-4A
Ah = 1.384e-3C

Potential/V, Current/A

-0.600, 3.348e-6
-0.601, 3.466e-6
-0.602, 3.517e-6
-0.603, 3.560e-6
-0.604, 3.599e-6
-0.605, 3.634e-6
-0.606, 3.670e-6
-0.607, 3.706e-6
-0.608, 3.743e-6
-0.609, 3.782e-6
-0.610, 3.814e-6
-0.611, 3.849e-6
-0.612, 3.886e-6
-0.613, 3.923e-6
-0.614, 3.961e-6
-0.615, 3.993e-6
-0.616, 4.029e-6
-0.617, 4.064e-6
-0.618, 4.102e-6
-0.619, 4.140e-6
-0.620, 4.173e-6
-0.621, 4.206e-6
-0.622, 4.242e-6
-0.623, 4.282e-6
-0.624, 4.319e-6
-0.625, 4.355e-6
-0.626, 4.388e-6
-0.627, 4.427e-6
-0.628, 4.468e-6
-0.629, 4.506e-6
-0.630, 4.543e-6
-0.631, 4.578e-6
-0.632, 4.615e-6
-0.633, 4.656e-6
-0.634, 4.696e-6
-0.635, 4.732e-6
-0.636, 4.768e-6
-0.637, 4.804e-6
-0.638, 4.848e-6
-0.639, 4.886e-6
-0.640, 4.921e-6
-0.641, 4.959e-6
-0.642, 4.997e-6
-0.643, 5.039e-6
-0.644, 5.080e-6
-0.645, 5.114e-6
-0.646, 5.152e-6
-0.647, 5.190e-6
-0.648, 5.233e-6
-0.649, 5.273e-6
-0.650, 5.307e-6
-0.651, 5.346e-6
-0.652, 5.385e-6
-0.653, 5.426e-6
-0.654, 5.467e-6
-0.655, 5.503e-6
-0.656, 5.542e-6
-0.657, 5.580e-6
-0.658, 5.623e-6
-0.659, 5.662e-6
-0.660, 5.697e-6
-0.661, 5.733e-6
-0.662, 5.772e-6
-0.663, 5.813e-6
-0.664, 5.854e-6
-0.665, 5.888e-6
-0.666, 5.924e-6
-0.667, 5.959e-6
-0.668, 6.000e-6
-0.669, 6.040e-6
-0.670, 6.076e-6
-0.671, 6.110e-6
-0.672, 6.146e-6
-0.673, 6.184e-6
-0.674, 6.220e-6
-0.675, 6.255e-6
-0.676, 6.289e-6
-0.677, 6.325e-6
-0.678, 6.366e-6
-0.679, 6.402e-6
-0.680, 6.435e-6
-0.681, 6.468e-6
-0.682, 6.503e-6
-0.683, 6.541e-6
-0.684, 6.577e-6
-0.685, 6.609e-6
-0.686, 6.641e-6
-0.687, 6.674e-6
-0.688, 6.710e-6
-0.689, 6.745e-6
-0.690, 6.775e-6
-0.691, 6.806e-6
-0.692, 6.839e-6
-0.693, 6.872e-6
-0.694, 6.905e-6
-0.695, 6.932e-6
-0.696, 6.960e-6
-0.697, 6.991e-6
-0.698, 7.022e-6
-0.699, 7.053e-6
-0.700, 7.080e-6
-0.701, 7.105e-6
-0.702, 7.134e-6
-0.703, 7.164e-6
-0.704, 7.193e-6
-0.705, 7.217e-6
-0.706, 7.240e-6
-0.707, 7.264e-6
-0.708, 7.292e-6
-0.709, 7.319e-6
-0.710, 7.341e-6
-0.711, 7.361e-6
-0.712, 7.384e-6
-0.713, 7.410e-6
-0.714, 7.432e-6
-0.715, 7.454e-6
-0.716, 7.473e-6
-0.717, 7.493e-6
-0.718, 7.516e-6
-0.719, 7.536e-6
-0.720, 7.553e-6
-0.721, 7.571e-6
-0.722, 7.587e-6
-0.723, 7.610e-6
-0.724, 7.626e-6
-0.725, 7.640e-6
-0.726, 7.654e-6
-0.727, 7.670e-6
-0.728, 7.686e-6
-0.729, 7.703e-6
-0.730, 7.714e-6
-0.731, 7.726e-6
-0.732, 7.738e-6
-0.733, 7.752e-6
-0.734, 7.766e-6
-0.735, 7.773e-6
-0.736, 7.782e-6
-0.737, 7.792e-6
-0.738, 7.804e-6
-0.739, 7.814e-6
-0.740, 7.819e-6
-0.741, 7.826e-6
-0.742, 7.833e-6
-0.743, 7.843e-6
-0.744, 7.851e-6
-0.745, 7.855e-6
-0.746, 7.857e-6
-0.747, 7.860e-6
-0.748, 7.868e-6
-0.749, 7.873e-6
-0.750, 7.874e-6
-0.751, 7.874e-6
-0.752, 7.877e-6
-0.753, 7.882e-6
-0.754, 7.881e-6
-0.755, 7.881e-6
-0.756, 7.880e-6
-0.757, 7.879e-6
-0.758, 7.881e-6
-0.759, 7.880e-6
-0.760, 7.876e-6
-0.761, 7.873e-6
-0.762, 7.871e-6
-0.763, 7.871e-6
-0.764, 7.868e-6
-0.765, 7.862e-6
-0.766, 7.859e-6
-0.767, 7.853e-6
-0.768, 7.854e-6
-0.769, 7.850e-6
-0.770, 7.840e-6
-0.771, 7.834e-6
-0.772, 7.826e-6
-0.773, 7.823e-6
-0.774, 7.818e-6
-0.775, 7.806e-6
-0.776, 7.798e-6
-0.777, 7.790e-6
-0.778, 7.786e-6
-0.779, 7.779e-6
-0.780, 7.767e-6
-0.781, 7.757e-6
-0.782, 7.748e-6
-0.783, 7.742e-6
-0.784, 7.734e-6
-0.785, 7.721e-6
-0.786, 7.709e-6
-0.787, 7.699e-6
-0.788, 7.691e-6
-0.789, 7.681e-6
-0.790, 7.669e-6
-0.791, 7.655e-6
-0.792, 7.644e-6
-0.793, 7.637e-6
-0.794, 7.626e-6
-0.795, 7.613e-6
-0.796, 7.599e-6
-0.797, 7.587e-6
-0.798, 7.578e-6
-0.799, 7.567e-6
-0.800, 7.551e-6
-0.801, 7.537e-6
-0.802, 7.525e-6
-0.803, 7.515e-6
-0.804, 7.503e-6
-0.805, 7.488e-6
-0.806, 7.475e-6
-0.807, 7.460e-6
-0.808, 7.450e-6
-0.809, 7.439e-6
-0.810, 7.422e-6
-0.811, 7.407e-6
-0.812, 7.395e-6
-0.813, 7.385e-6
-0.814, 7.372e-6
-0.815, 7.357e-6
-0.816, 7.342e-6
-0.817, 7.329e-6
-0.818, 7.318e-6
-0.819, 7.309e-6
-0.820, 7.295e-6
-0.821, 7.276e-6
-0.822, 7.263e-6
-0.823, 7.252e-6
-0.824, 7.241e-6
-0.825, 7.224e-6
-0.826, 7.208e-6
-0.827, 7.195e-6
-0.828, 7.185e-6
-0.829, 7.173e-6
-0.830, 7.157e-6
-0.831, 7.140e-6
-0.832, 7.128e-6
-0.833, 7.118e-6
-0.834, 7.103e-6
-0.835, 7.088e-6
-0.836, 7.073e-6
-0.837, 7.059e-6
-0.838, 7.050e-6
-0.839, 7.036e-6
-0.840, 7.021e-6
-0.841, 7.005e-6
-0.842, 6.992e-6
-0.843, 6.983e-6
-0.844, 6.972e-6
-0.845, 6.956e-6
-0.846, 6.942e-6
-0.847, 6.929e-6
-0.848, 6.919e-6
-0.849, 6.907e-6
-0.850, 6.891e-6
-0.851, 6.878e-6
-0.852, 6.865e-6
-0.853, 6.857e-6
-0.854, 6.845e-6
-0.855, 6.829e-6
-0.856, 6.815e-6
-0.857, 6.803e-6
-0.858, 6.795e-6
-0.859, 6.783e-6
-0.860, 6.766e-6
-0.861, 6.753e-6
-0.862, 6.742e-6
-0.863, 6.733e-6
-0.864, 6.721e-6
-0.865, 6.707e-6
-0.866, 6.693e-6
-0.867, 6.682e-6
-0.868, 6.674e-6
-0.869, 6.663e-6
-0.870, 6.650e-6
-0.871, 6.637e-6
-0.872, 6.627e-6
-0.873, 6.619e-6
-0.874, 6.608e-6
-0.875, 6.594e-6
-0.876, 6.581e-6
-0.877, 6.570e-6
-0.878, 6.562e-6
-0.879, 6.551e-6
-0.880, 6.536e-6
-0.881, 6.525e-6
-0.882, 6.514e-6
-0.883, 6.508e-6
-0.884, 6.499e-6
-0.885, 6.485e-6
-0.886, 6.474e-6
-0.887, 6.464e-6
-0.888, 6.457e-6
-0.889, 6.448e-6
-0.890, 6.435e-6
-0.891, 6.423e-6
-0.892, 6.414e-6
-0.893, 6.407e-6
-0.894, 6.400e-6
-0.895, 6.387e-6
-0.896, 6.376e-6
-0.897, 6.368e-6
-0.898, 6.360e-6
-0.899, 6.353e-6
-0.900, 6.341e-6
-0.901, 6.328e-6
-0.902, 6.321e-6
-0.903, 6.314e-6
-0.904, 6.307e-6
-0.905, 6.296e-6
-0.906, 6.283e-6
-0.907, 6.276e-6
-0.908, 6.271e-6
-0.909, 6.262e-6
-0.910, 6.253e-6
-0.911, 6.242e-6
-0.912, 6.234e-6
-0.913, 6.229e-6
-0.914, 6.221e-6
-0.915, 6.212e-6
-0.916, 6.203e-6
-0.917, 6.195e-6
-0.918, 6.191e-6
-0.919, 6.185e-6
-0.920, 6.175e-6
-0.921, 6.166e-6
-0.922, 6.160e-6
-0.923, 6.156e-6
-0.924, 6.149e-6
-0.925, 6.139e-6
-0.926, 6.129e-6
-0.927, 6.123e-6
-0.928, 6.120e-6
-0.929, 6.113e-6
-0.930, 6.103e-6
-0.931, 6.094e-6
-0.932, 6.089e-6
-0.933, 6.085e-6
-0.934, 6.079e-6
-0.935, 6.070e-6
-0.936, 6.062e-6
-0.937, 6.056e-6
-0.938, 6.052e-6
-0.939, 6.045e-6
-0.940, 6.038e-6
-0.941, 6.029e-6
-0.942, 6.025e-6
-0.943, 6.021e-6
-0.944, 6.014e-6
-0.945, 6.008e-6
-0.946, 6.000e-6
-0.947, 5.995e-6
-0.948, 5.992e-6
-0.949, 5.986e-6
-0.950, 5.979e-6
-0.951, 5.972e-6
-0.952, 5.966e-6
-0.953, 5.963e-6
-0.954, 5.958e-6
-0.955, 5.952e-6
-0.956, 5.945e-6
-0.957, 5.939e-6
-0.958, 5.936e-6
-0.959, 5.933e-6
-0.960, 5.926e-6
-0.961, 5.920e-6
-0.962, 5.916e-6
-0.963, 5.912e-6
-0.964, 5.909e-6
-0.965, 5.902e-6
-0.966, 5.897e-6
-0.967, 5.893e-6
-0.968, 5.891e-6
-0.969, 5.888e-6
-0.970, 5.880e-6
-0.971, 5.874e-6
-0.972, 5.871e-6
-0.973, 5.870e-6
-0.974, 5.866e-6
-0.975, 5.859e-6
-0.976, 5.853e-6
-0.977, 5.848e-6
-0.978, 5.847e-6
-0.979, 5.843e-6
-0.980, 5.837e-6
-0.981, 5.830e-6
-0.982, 5.828e-6
-0.983, 5.825e-6
-0.984, 5.821e-6
-0.985, 5.815e-6
-0.986, 5.810e-6
-0.987, 5.805e-6
-0.988, 5.804e-6
-0.989, 5.798e-6
-0.990, 5.793e-6
-0.991, 5.787e-6
-0.992, 5.783e-6
-0.993, 5.783e-6
-0.994, 5.778e-6
-0.995, 5.774e-6
-0.996, 5.767e-6
-0.997, 5.763e-6
-0.998, 5.763e-6
-0.999, 5.759e-6
-1.000, 5.753e-6
-1.001, 5.748e-6
-1.002, 5.745e-6
-1.003, 5.744e-6
-1.004, 5.741e-6
-1.005, 5.734e-6
-1.006, 5.730e-6
-1.007, 5.726e-6
-1.008, 5.725e-6
-1.009, 5.723e-6
-1.010, 5.715e-6
-1.011, 5.711e-6
-1.012, 5.708e-6
-1.013, 5.706e-6
-1.014, 5.703e-6
-1.015, 5.697e-6
-1.016, 5.692e-6
-1.017, 5.690e-6
-1.018, 5.688e-6
-1.019, 5.687e-6
-1.020, 5.680e-6
-1.021, 5.675e-6
-1.022, 5.672e-6
-1.023, 5.671e-6
-1.024, 5.670e-6
-1.025, 5.665e-6
-1.026, 5.658e-6
-1.027, 5.657e-6
-1.028, 5.656e-6
-1.029, 5.654e-6
-1.030, 5.650e-6
-1.031, 5.644e-6
-1.032, 5.641e-6
-1.033, 5.641e-6
-1.034, 5.640e-6
-1.035, 5.634e-6
-1.036, 5.631e-6
-1.037, 5.629e-6
-1.038, 5.626e-6
-1.039, 5.624e-6
-1.040, 5.618e-6
-1.041, 5.614e-6
-1.042, 5.611e-6
-1.043, 5.610e-6
-1.044, 5.606e-6
-1.045, 5.600e-6
-1.046, 5.597e-6
-1.047, 5.592e-6
-1.048, 5.591e-6
-1.049, 5.587e-6
-1.050, 5.580e-6
-1.051, 5.577e-6
-1.052, 5.573e-6
-1.053, 5.572e-6
-1.054, 5.570e-6
-1.055, 5.563e-6
-1.056, 5.557e-6
-1.057, 5.555e-6
-1.058, 5.554e-6
-1.059, 5.551e-6
-1.060, 5.547e-6
-1.061, 5.542e-6
-1.062, 5.539e-6
-1.063, 5.539e-6
-1.064, 5.537e-6
-1.065, 5.533e-6
-1.066, 5.527e-6
-1.067, 5.524e-6
-1.068, 5.525e-6
-1.069, 5.520e-6
-1.070, 5.512e-6
-1.071, 5.505e-6
-1.072, 5.501e-6
-1.073, 5.499e-6
-1.074, 5.495e-6
-1.075, 5.490e-6
-1.076, 5.482e-6
-1.077, 5.477e-6
-1.078, 5.478e-6
-1.079, 5.475e-6
-1.080, 5.469e-6
-1.081, 5.465e-6
-1.082, 5.462e-6
-1.083, 5.461e-6
-1.084, 5.458e-6
-1.085, 5.454e-6
-1.086, 5.449e-6
-1.087, 5.445e-6
-1.088, 5.446e-6
-1.089, 5.444e-6
-1.090, 5.437e-6
-1.091, 5.432e-6
-1.092, 5.429e-6
-1.093, 5.426e-6
-1.094, 5.424e-6
-1.095, 5.419e-6
-1.096, 5.415e-6
-1.097, 5.412e-6
-1.098, 5.412e-6
-1.099, 5.409e-6
-1.100, 5.407e-6
-1.101, 5.404e-6
-1.102, 5.401e-6
-1.103, 5.398e-6
-1.104, 5.397e-6
-1.105, 5.392e-6
-1.106, 5.388e-6
-1.107, 5.388e-6
-1.108, 5.387e-6
-1.109, 5.386e-6
-1.110, 5.379e-6
-1.111, 5.373e-6
-1.112, 5.368e-6
-1.113, 5.370e-6
-1.114, 5.368e-6
-1.115, 5.363e-6
-1.116, 5.357e-6
-1.117, 5.360e-6
-1.118, 5.360e-6
-1.119, 5.355e-6
-1.120, 5.349e-6
-1.121, 5.345e-6
-1.122, 5.343e-6
-1.123, 5.340e-6
-1.124, 5.336e-6
-1.125, 5.333e-6
-1.126, 5.331e-6
-1.127, 5.328e-6
-1.128, 5.328e-6
-1.129, 5.325e-6
-1.130, 5.319e-6
-1.131, 5.314e-6
-1.132, 5.310e-6
-1.133, 5.313e-6
-1.134, 5.310e-6
-1.135, 5.307e-6
-1.136, 5.298e-6
-1.137, 5.296e-6
-1.138, 5.297e-6
-1.139, 5.298e-6
-1.140, 5.295e-6
-1.141, 5.288e-6
-1.142, 5.288e-6
-1.143, 5.287e-6
-1.144, 5.286e-6
-1.145, 5.285e-6
-1.146, 5.283e-6
-1.147, 5.279e-6
-1.148, 5.281e-6
-1.149, 5.280e-6
-1.150, 5.275e-6
-1.151, 5.275e-6
-1.152, 5.271e-6
-1.153, 5.272e-6
-1.154, 5.267e-6
-1.155, 5.262e-6
-1.156, 5.262e-6
-1.157, 5.261e-6
-1.158, 5.261e-6
-1.159, 5.259e-6
-1.160, 5.256e-6
-1.161, 5.254e-6
-1.162, 5.249e-6
-1.163, 5.250e-6
-1.164, 5.244e-6
-1.165, 5.238e-6
-1.166, 5.235e-6
-1.167, 5.234e-6
-1.168, 5.240e-6
-1.169, 5.240e-6
-1.170, 5.231e-6
-1.171, 5.231e-6
-1.172, 5.228e-6
-1.173, 5.228e-6
-1.174, 5.227e-6
-1.175, 5.220e-6
-1.176, 5.221e-6
-1.177, 5.224e-6
-1.178, 5.224e-6
-1.179, 5.219e-6
-1.180, 5.217e-6
-1.181, 5.214e-6
-1.182, 5.211e-6
-1.183, 5.217e-6
-1.184, 5.217e-6
-1.185, 5.217e-6
-1.186, 5.217e-6
-1.187, 5.216e-6
-1.188, 5.216e-6
-1.189, 5.215e-6
-1.190, 5.209e-6
-1.191, 5.208e-6
-1.192, 5.210e-6
-1.193, 5.211e-6
-1.194, 5.206e-6
-1.195, 5.204e-6
-1.196, 5.200e-6
-1.197, 5.202e-6
-1.198, 5.205e-6
-1.199, 5.206e-6
-1.200, 5.202e-6
-1.201, 5.198e-6
-1.202, 5.197e-6
-1.203, 5.198e-6
-1.204, 5.197e-6
-1.205, 5.193e-6
-1.206, 5.193e-6
-1.207, 5.194e-6
-1.208, 5.194e-6
-1.209, 5.200e-6
-1.210, 5.198e-6
-1.211, 5.197e-6
-1.212, 5.194e-6
-1.213, 5.194e-6
-1.214, 5.193e-6
-1.215, 5.185e-6
-1.216, 5.181e-6
-1.217, 5.180e-6
-1.218, 5.182e-6
-1.219, 5.189e-6
-1.220, 5.186e-6
-1.221, 5.183e-6
-1.222, 5.180e-6
-1.223, 5.178e-6
-1.224, 5.179e-6
-1.225, 5.177e-6
-1.226, 5.170e-6
-1.227, 5.178e-6
-1.228, 5.182e-6
-1.229, 5.192e-6
-1.230, 5.189e-6
-1.231, 5.186e-6
-1.232, 5.180e-6
-1.233, 5.183e-6
-1.234, 5.178e-6
-1.235, 5.174e-6
-1.236, 5.174e-6
-1.237, 5.173e-6
-1.238, 5.173e-6
-1.239, 5.173e-6
-1.240, 5.176e-6
-1.241, 5.182e-6
-1.242, 5.179e-6
-1.243, 5.182e-6
-1.244, 5.180e-6
-1.245, 5.174e-6
-1.246, 5.173e-6
-1.247, 5.170e-6
-1.248, 5.173e-6
-1.249, 5.175e-6
-1.250, 5.170e-6
-1.251, 5.168e-6
-1.252, 5.167e-6
-1.253, 5.170e-6
-1.254, 5.174e-6
-1.255, 5.169e-6
-1.256, 5.167e-6
-1.257, 5.169e-6
-1.258, 5.171e-6
-1.259, 5.176e-6
-1.260, 5.177e-6
-1.261, 5.175e-6
-1.262, 5.174e-6
-1.263, 5.173e-6
-1.264, 5.171e-6
-1.265, 5.167e-6
-1.266, 5.164e-6
-1.267, 5.166e-6
-1.268, 5.170e-6
-1.269, 5.171e-6
-1.270, 5.172e-6
-1.271, 5.169e-6
-1.272, 5.166e-6
-1.273, 5.167e-6
-1.274, 5.166e-6
-1.275, 5.169e-6
-1.276, 5.163e-6
-1.277, 5.167e-6
-1.278, 5.173e-6
-1.279, 5.173e-6
-1.280, 5.170e-6
-1.281, 5.163e-6
-1.282, 5.163e-6
-1.283, 5.165e-6
-1.284, 5.166e-6
-1.285, 5.162e-6
-1.286, 5.163e-6
-1.287, 5.163e-6
-1.288, 5.165e-6
-1.289, 5.168e-6
-1.290, 5.167e-6
-1.291, 5.168e-6
-1.292, 5.170e-6
-1.293, 5.173e-6
-1.294, 5.173e-6
-1.295, 5.172e-6
-1.296, 5.166e-6
-1.297, 5.164e-6
-1.298, 5.165e-6
-1.299, 5.171e-6
-1.300, 5.172e-6
-1.301, 5.167e-6
-1.302, 5.170e-6
-1.303, 5.171e-6
-1.304, 5.172e-6
-1.305, 5.170e-6
-1.306, 5.172e-6
-1.307, 5.168e-6
-1.308, 5.170e-6
-1.309, 5.179e-6
-1.310, 5.177e-6
-1.311, 5.174e-6
-1.312, 5.181e-6
-1.313, 5.189e-6
-1.314, 5.184e-6
-1.315, 5.180e-6
-1.316, 5.179e-6
-1.317, 5.179e-6
-1.318, 5.183e-6
-1.319, 5.184e-6
-1.320, 5.183e-6
-1.321, 5.181e-6
-1.322, 5.177e-6
-1.323, 5.185e-6
-1.324, 5.189e-6
-1.325, 5.191e-6
-1.326, 5.182e-6
-1.327, 5.184e-6
-1.328, 5.188e-6
-1.329, 5.191e-6
-1.330, 5.190e-6
-1.331, 5.187e-6
-1.332, 5.188e-6
-1.333, 5.187e-6
-1.334, 5.189e-6
-1.335, 5.194e-6
-1.336, 5.194e-6
-1.337, 5.192e-6
-1.338, 5.190e-6
-1.339, 5.194e-6
-1.340, 5.195e-6
-1.341, 5.187e-6
-1.342, 5.188e-6
-1.343, 5.194e-6
-1.344, 5.200e-6
-1.345, 5.201e-6
-1.346, 5.201e-6
-1.347, 5.203e-6
-1.348, 5.204e-6
-1.349, 5.209e-6
-1.350, 5.219e-6
-1.351, 5.216e-6
-1.352, 5.218e-6
-1.353, 5.224e-6
-1.354, 5.223e-6
-1.355, 5.213e-6
-1.356, 5.210e-6
-1.357, 5.210e-6
-1.358, 5.219e-6
-1.359, 5.217e-6
-1.360, 5.215e-6
-1.361, 5.217e-6
-1.362, 5.213e-6
-1.363, 5.226e-6
-1.364, 5.234e-6
-1.365, 5.230e-6
-1.366, 5.222e-6
-1.367, 5.226e-6
-1.368, 5.235e-6
-1.369, 5.240e-6
-1.370, 5.239e-6
-1.371, 5.239e-6
-1.372, 5.243e-6
-1.373, 5.245e-6
-1.374, 5.254e-6
-1.375, 5.253e-6
-1.376, 5.250e-6
-1.377, 5.252e-6
-1.378, 5.258e-6
-1.379, 5.258e-6
-1.380, 5.262e-6
-1.381, 5.260e-6
-1.382, 5.261e-6
-1.383, 5.267e-6
-1.384, 5.271e-6
-1.385, 5.267e-6
-1.386, 5.273e-6
-1.387, 5.269e-6
-1.388, 5.267e-6
-1.389, 5.274e-6
-1.390, 5.274e-6
-1.391, 5.277e-6
-1.392, 5.282e-6
-1.393, 5.288e-6
-1.394, 5.285e-6
-1.395, 5.284e-6
-1.396, 5.288e-6
-1.397, 5.290e-6
-1.398, 5.296e-6
-1.399, 5.304e-6
-1.400, 5.302e-6
-1.401, 5.302e-6
-1.402, 5.299e-6
-1.403, 5.310e-6
-1.404, 5.316e-6
-1.405, 5.312e-6
-1.406, 5.311e-6
-1.407, 5.314e-6
-1.408, 5.318e-6
-1.409, 5.323e-6
-1.410, 5.317e-6
-1.411, 5.317e-6
-1.412, 5.322e-6
-1.413, 5.327e-6
-1.414, 5.328e-6
-1.415, 5.327e-6
-1.416, 5.328e-6
-1.417, 5.334e-6
-1.418, 5.338e-6
-1.419, 5.344e-6
-1.420, 5.354e-6
-1.421, 5.359e-6
-1.422, 5.366e-6
-1.423, 5.372e-6
-1.424, 5.376e-6
-1.425, 5.376e-6
-1.426, 5.375e-6
-1.427, 5.376e-6
-1.428, 5.382e-6
-1.429, 5.392e-6
-1.430, 5.393e-6
-1.431, 5.390e-6
-1.432, 5.392e-6
-1.433, 5.397e-6
-1.434, 5.402e-6
-1.435, 5.404e-6
-1.436, 5.406e-6
-1.437, 5.404e-6
-1.438, 5.414e-6
-1.439, 5.420e-6
-1.440, 5.423e-6
-1.441, 5.425e-6
-1.442, 5.425e-6
-1.443, 5.435e-6
-1.444, 5.441e-6
-1.445, 5.438e-6
-1.446, 5.434e-6
-1.447, 5.435e-6
-1.448, 5.440e-6
-1.449, 5.451e-6
-1.450, 5.455e-6
-1.451, 5.455e-6
-1.452, 5.463e-6
-1.453, 5.479e-6
-1.454, 5.494e-6
-1.455, 5.488e-6
-1.456, 5.484e-6
-1.457, 5.484e-6
-1.458, 5.492e-6
-1.459, 5.496e-6
-1.460, 5.503e-6
-1.461, 5.500e-6
-1.462, 5.505e-6
-1.463, 5.515e-6
-1.464, 5.526e-6
-1.465, 5.531e-6
-1.466, 5.538e-6
-1.467, 5.552e-6
-1.468, 5.566e-6
-1.469, 5.565e-6
-1.470, 5.568e-6
-1.471, 5.577e-6
-1.472, 5.588e-6
-1.473, 5.585e-6
-1.474, 5.590e-6
-1.475, 5.594e-6
-1.476, 5.602e-6
-1.477, 5.604e-6
-1.478, 5.618e-6
-1.479, 5.629e-6
-1.480, 5.635e-6
-1.481, 5.639e-6
-1.482, 5.641e-6
-1.483, 5.647e-6
-1.484, 5.663e-6
-1.485, 5.668e-6
-1.486, 5.668e-6
-1.487, 5.674e-6
-1.488, 5.685e-6
-1.489, 5.692e-6
-1.490, 5.686e-6
-1.491, 5.691e-6
-1.492, 5.695e-6
-1.493, 5.702e-6
-1.494, 5.712e-6
-1.495, 5.717e-6
-1.496, 5.726e-6
-1.497, 5.731e-6
-1.498, 5.742e-6
-1.499, 5.753e-6
-1.500, 5.758e-6
-1.501, 5.763e-6
-1.502, 5.771e-6
-1.503, 5.786e-6
-1.504, 5.800e-6
-1.505, 5.805e-6
-1.506, 5.811e-6
-1.507, 5.819e-6
-1.508, 5.827e-6
-1.509, 5.840e-6
-1.510, 5.847e-6
-1.511, 5.855e-6
-1.512, 5.867e-6
-1.513, 5.879e-6
-1.514, 5.888e-6
-1.515, 5.891e-6
-1.516, 5.898e-6
-1.517, 5.901e-6
-1.518, 5.914e-6
-1.519, 5.927e-6
-1.520, 5.935e-6
-1.521, 5.942e-6
-1.522, 5.943e-6
-1.523, 5.951e-6
-1.524, 5.966e-6
-1.525, 5.980e-6
-1.526, 5.995e-6
-1.527, 6.006e-6
-1.528, 6.015e-6
-1.529, 6.024e-6
-1.530, 6.030e-6
-1.531, 6.042e-6
-1.532, 6.055e-6
-1.533, 6.068e-6
-1.534, 6.083e-6
-1.535, 6.094e-6
-1.536, 6.097e-6
-1.537, 6.102e-6
-1.538, 6.115e-6
-1.539, 6.136e-6
-1.540, 6.151e-6
-1.541, 6.164e-6
-1.542, 6.169e-6
-1.543, 6.178e-6
-1.544, 6.189e-6
-1.545, 6.203e-6
-1.546, 6.213e-6
-1.547, 6.224e-6
-1.548, 6.246e-6
-1.549, 6.266e-6
-1.550, 6.276e-6
-1.551, 6.277e-6
-1.552, 6.288e-6
-1.553, 6.308e-6
-1.554, 6.325e-6
-1.555, 6.338e-6
-1.556, 6.339e-6
-1.557, 6.354e-6
-1.558, 6.368e-6
-1.559, 6.385e-6
-1.560, 6.399e-6
-1.561, 6.406e-6
-1.562, 6.415e-6
-1.563, 6.431e-6
-1.564, 6.449e-6
-1.565, 6.463e-6
-1.566, 6.484e-6
-1.567, 6.498e-6
-1.568, 6.515e-6
-1.569, 6.534e-6
-1.570, 6.546e-6
-1.571, 6.554e-6
-1.572, 6.571e-6
-1.573, 6.593e-6
-1.574, 6.622e-6
-1.575, 6.636e-6
-1.576, 6.651e-6
-1.577, 6.672e-6
-1.578, 6.701e-6
-1.579, 6.711e-6
-1.580, 6.740e-6
-1.581, 6.760e-6
-1.582, 6.786e-6
-1.583, 6.803e-6
-1.584, 6.829e-6
-1.585, 6.857e-6
-1.586, 6.865e-6
-1.587, 6.872e-6
-1.588, 6.891e-6
-1.589, 6.907e-6
-1.590, 6.934e-6
-1.591, 6.951e-6
-1.592, 6.977e-6
-1.593, 7.005e-6
-1.594, 7.022e-6
-1.595, 7.047e-6
-1.596, 7.071e-6
-1.597, 7.097e-6
-1.598, 7.108e-6
-1.599, 7.121e-6
-1.600, 7.141e-6
-1.601, 7.159e-6
-1.602, 7.176e-6
-1.603, 7.201e-6
-1.604, 7.228e-6
-1.605, 7.244e-6
-1.606, 7.255e-6
-1.607, 7.276e-6
-1.608, 7.316e-6
-1.609, 7.345e-6
-1.610, 7.365e-6
-1.611, 7.387e-6
-1.612, 7.422e-6
-1.613, 7.452e-6
-1.614, 7.482e-6
-1.615, 7.513e-6
-1.616, 7.547e-6
-1.617, 7.561e-6
-1.618, 7.585e-6
-1.619, 7.614e-6
-1.620, 7.638e-6
-1.621, 7.661e-6
-1.622, 7.689e-6
-1.623, 7.727e-6
-1.624, 7.766e-6
-1.625, 7.797e-6
-1.626, 7.825e-6
-1.627, 7.854e-6
-1.628, 7.882e-6
-1.629, 7.911e-6
-1.630, 7.945e-6
-1.631, 7.983e-6
-1.632, 8.017e-6
-1.633, 8.049e-6
-1.634, 8.086e-6
-1.635, 8.122e-6
-1.636, 8.154e-6
-1.637, 8.193e-6
-1.638, 8.245e-6
-1.639, 8.298e-6
-1.640, 8.338e-6
-1.641, 8.374e-6
-1.642, 8.407e-6
-1.643, 8.465e-6
-1.644, 8.521e-6
-1.645, 8.567e-6
-1.646, 8.618e-6
-1.647, 8.664e-6
-1.648, 8.713e-6
-1.649, 8.766e-6
-1.650, 8.812e-6
-1.651, 8.861e-6
-1.652, 8.900e-6
-1.653, 8.958e-6
-1.654, 9.018e-6
-1.655, 9.072e-6
-1.656, 9.120e-6
-1.657, 9.173e-6
-1.658, 9.243e-6
-1.659, 9.308e-6
-1.660, 9.370e-6
-1.661, 9.430e-6
-1.662, 9.484e-6
-1.663, 9.560e-6
-1.664, 9.639e-6
-1.665, 9.711e-6
-1.666, 9.777e-6
-1.667, 9.850e-6
-1.668, 9.924e-6
-1.669, 1.001e-5
-1.670, 1.009e-5
-1.671, 1.017e-5
-1.672, 1.025e-5
-1.673, 1.033e-5
-1.674, 1.042e-5
-1.675, 1.051e-5
-1.676, 1.059e-5
-1.677, 1.068e-5
-1.678, 1.079e-5
-1.679, 1.090e-5
-1.680, 1.100e-5
-1.681, 1.110e-5
-1.682, 1.121e-5
-1.683, 1.133e-5
-1.684, 1.145e-5
-1.685, 1.157e-5
-1.686, 1.169e-5
-1.687, 1.181e-5
-1.688, 1.195e-5
-1.689, 1.207e-5
-1.690, 1.221e-5
-1.691, 1.235e-5
-1.692, 1.249e-5
-1.693, 1.264e-5
-1.694, 1.281e-5
-1.695, 1.297e-5
-1.696, 1.313e-5
-1.697, 1.330e-5
-1.698, 1.348e-5
-1.699, 1.367e-5
-1.700, 1.385e-5
-1.701, 1.404e-5
-1.702, 1.423e-5
-1.703, 1.443e-5
-1.704, 1.465e-5
-1.705, 1.487e-5
-1.706, 1.510e-5
-1.707, 1.533e-5
-1.708, 1.557e-5
-1.709, 1.583e-5
-1.710, 1.609e-5
-1.711, 1.637e-5
-1.712, 1.666e-5
-1.713, 1.695e-5
-1.714, 1.726e-5
-1.715, 1.758e-5
-1.716, 1.789e-5
-1.717, 1.821e-5
-1.718, 1.855e-5
-1.719, 1.892e-5
-1.720, 1.928e-5
-1.721, 1.967e-5
-1.722, 2.006e-5
-1.723, 2.046e-5
-1.724, 2.088e-5
-1.725, 2.130e-5
-1.726, 2.175e-5
-1.727, 2.220e-5
-1.728, 2.268e-5
-1.729, 2.318e-5
-1.730, 2.368e-5
-1.731, 2.422e-5
-1.732, 2.477e-5
-1.733, 2.534e-5
-1.734, 2.593e-5
-1.735, 2.653e-5
-1.736, 2.717e-5
-1.737, 2.782e-5
-1.738, 2.848e-5
-1.739, 2.919e-5
-1.740, 2.992e-5
-1.741, 3.067e-5
-1.742, 3.143e-5
-1.743, 3.224e-5
-1.744, 3.308e-5
-1.745, 3.395e-5
-1.746, 3.484e-5
-1.747, 3.576e-5
-1.748, 3.673e-5
-1.749, 3.773e-5
-1.750, 3.876e-5
-1.751, 3.983e-5
-1.752, 4.094e-5
-1.753, 4.209e-5
-1.754, 4.327e-5
-1.755, 4.446e-5
-1.756, 4.572e-5
-1.757, 4.702e-5
-1.758, 4.838e-5
-1.759, 4.979e-5
-1.760, 5.124e-5
-1.761, 5.273e-5
-1.762, 5.426e-5
-1.763, 5.588e-5
-1.764, 5.755e-5
-1.765, 5.926e-5
-1.766, 6.101e-5
-1.767, 6.282e-5
-1.768, 6.471e-5
-1.769, 6.667e-5
-1.770, 6.867e-5
-1.771, 7.074e-5
-1.772, 7.287e-5
-1.773, 7.506e-5
-1.774, 7.732e-5
-1.775, 7.968e-5
-1.776, 8.210e-5
-1.777, 8.457e-5
-1.778, 8.715e-5
-1.779, 8.979e-5
-1.780, 9.249e-5
-1.781, 9.528e-5
-1.782, 9.816e-5
-1.783, 1.011e-4
-1.784, 1.042e-4
-1.785, 1.073e-4
-1.786, 1.105e-4
-1.787, 1.138e-4
-1.788, 1.172e-4
-1.789, 1.207e-4
-1.790, 1.243e-4
-1.791, 1.280e-4
-1.792, 1.317e-4
-1.793, 1.356e-4
-1.794, 1.396e-4
-1.795, 1.436e-4
-1.796, 1.478e-4
-1.797, 1.520e-4
-1.798, 1.564e-4
-1.799, 1.608e-4
-1.800, 1.654e-4
-1.801, 1.700e-4
-1.802, 1.747e-4
-1.803, 1.794e-4
-1.804, 1.843e-4
-1.805, 1.892e-4
-1.806, 1.942e-4
-1.807, 1.993e-4
-1.808, 2.044e-4
-1.809, 2.095e-4
-1.810, 2.148e-4
-1.811, 2.201e-4
-1.812, 2.254e-4
-1.813, 2.307e-4
-1.814, 2.361e-4
-1.815, 2.415e-4
-1.816, 2.469e-4
-1.817, 2.524e-4
-1.818, 2.578e-4
-1.819, 2.633e-4
-1.820, 2.688e-4
-1.821, 2.742e-4
-1.822, 2.797e-4
-1.823, 2.851e-4
-1.824, 2.905e-4
-1.825, 2.959e-4
-1.826, 3.013e-4
-1.827, 3.067e-4
-1.828, 3.120e-4
-1.829, 3.173e-4
-1.830, 3.226e-4
-1.831, 3.278e-4
-1.832, 3.330e-4
-1.833, 3.382e-4
-1.834, 3.434e-4
-1.835, 3.486e-4
-1.836, 3.538e-4
-1.837, 3.590e-4
-1.838, 3.642e-4
-1.839, 3.694e-4
-1.840, 3.746e-4
-1.841, 3.798e-4
-1.842, 3.851e-4
-1.843, 3.904e-4
-1.844, 3.957e-4
-1.845, 4.010e-4
-1.846, 4.064e-4
-1.847, 4.117e-4
-1.848, 4.171e-4
-1.849, 4.225e-4
-1.850, 4.280e-4
-1.851, 4.334e-4
-1.852, 4.389e-4
-1.853, 4.444e-4
-1.854, 4.500e-4
-1.855, 4.556e-4
-1.856, 4.612e-4
-1.857, 4.669e-4
-1.858, 4.725e-4
-1.859, 4.782e-4
-1.860, 4.840e-4
-1.861, 4.898e-4
-1.862, 4.956e-4
-1.863, 5.014e-4
-1.864, 5.074e-4
-1.865, 5.133e-4
-1.866, 5.193e-4
-1.867, 5.253e-4
-1.868, 5.314e-4
-1.869, 5.376e-4
-1.870, 5.438e-4
-1.871, 5.499e-4
-1.872, 5.562e-4
-1.873, 5.624e-4
-1.874, 5.687e-4
-1.875, 5.751e-4
-1.876, 5.815e-4
-1.877, 5.880e-4
-1.878, 5.945e-4
-1.879, 6.010e-4
-1.880, 6.077e-4
-1.881, 6.143e-4
-1.882, 6.210e-4
-1.883, 6.278e-4
-1.884, 6.346e-4
-1.885, 6.415e-4
-1.886, 6.483e-4
-1.887, 6.553e-4
-1.888, 6.623e-4
-1.889, 6.694e-4
-1.890, 6.765e-4
-1.891, 6.837e-4
-1.892, 6.909e-4
-1.893, 6.982e-4
-1.894, 7.055e-4
-1.895, 7.130e-4
-1.896, 7.204e-4
-1.897, 7.278e-4
-1.898, 7.354e-4
-1.899, 7.430e-4
-1.900, 7.506e-4
-1.901, 7.583e-4
-1.902, 7.660e-4
-1.903, 7.738e-4
-1.904, 7.817e-4
-1.905, 7.897e-4
-1.906, 7.977e-4
-1.907, 8.056e-4
-1.908, 8.137e-4
-1.909, 8.218e-4
-1.910, 8.300e-4
-1.911, 8.382e-4
-1.912, 8.465e-4
-1.913, 8.547e-4
-1.914, 8.631e-4
-1.915, 8.716e-4
-1.916, 8.800e-4
-1.917, 8.886e-4
-1.918, 8.972e-4
-1.919, 9.058e-4
-1.920, 9.146e-4
-1.921, 9.233e-4
-1.922, 9.321e-4
-1.923, 9.409e-4
-1.924, 9.498e-4
-1.925, 9.588e-4
-1.926, 9.678e-4
-1.927, 9.769e-4
-1.928, 9.859e-4
-1.929, 9.951e-4
-1.930, 1.004e-3
-1.931, 1.011e-3
-1.932, 1.011e-3
-1.933, 1.011e-3
-1.934, 1.011e-3
-1.935, 1.011e-3
-1.936, 1.011e-3
-1.937, 1.011e-3
-1.938, 1.011e-3
-1.939, 1.011e-3
-1.940, 1.011e-3
-1.941, 1.011e-3
-1.942, 1.011e-3
-1.943, 1.011e-3
-1.944, 1.011e-3
-1.945, 1.011e-3
-1.946, 1.011e-3
-1.947, 1.011e-3
-1.948, 1.011e-3
-1.949, 1.011e-3
-1.950, 1.011e-3
-1.951, 1.011e-3
-1.952, 1.011e-3
-1.953, 1.011e-3
-1.954, 1.011e-3
-1.955, 1.011e-3
-1.956, 1.011e-3
-1.957, 1.011e-3
-1.958, 1.011e-3
-1.959, 1.011e-3
-1.960, 1.011e-3
-1.961, 1.011e-3
-1.962, 1.011e-3
-1.963, 1.011e-3
-1.964, 1.011e-3
-1.965, 1.011e-3
-1.966, 1.011e-3
-1.967, 1.011e-3
-1.968, 1.011e-3
-1.969, 1.011e-3
-1.970, 1.011e-3
-1.971, 1.011e-3
-1.972, 1.011e-3
-1.973, 1.011e-3
-1.974, 1.011e-3
-1.975, 1.011e-3
-1.976, 1.011e-3
-1.977, 1.011e-3
-1.978, 1.011e-3
-1.979, 1.011e-3
-1.980, 1.011e-3
-1.981, 1.011e-3
-1.982, 1.011e-3
-1.983, 1.011e-3
-1.984, 1.011e-3
-1.985, 1.011e-3
-1.986, 1.011e-3
-1.987, 1.011e-3
-1.988, 1.011e-3
-1.989, 1.011e-3
-1.990, 1.011e-3
-1.991, 1.011e-3
-1.992, 1.011e-3
-1.993, 1.011e-3
-1.994, 1.011e-3
-1.995, 1.011e-3
-1.996, 1.011e-3
-1.997, 1.011e-3
-1.998, 1.011e-3
-1.999, 1.011e-3
-2.000, 1.011e-3
-2.001, 1.011e-3
-2.002, 1.011e-3
-2.003, 1.011e-3
-2.004, 1.011e-3
-2.005, 1.011e-3
-2.006, 1.011e-3
-2.007, 1.011e-3
-2.008, 1.011e-3
-2.009, 1.011e-3
-2.010, 1.011e-3
-2.011, 1.011e-3
-2.012, 1.011e-3
-2.013, 1.011e-3
-2.014, 1.011e-3
-2.015, 1.011e-3
-2.016, 1.011e-3
-2.017, 1.011e-3
-2.018, 1.011e-3
-2.019, 1.011e-3
-2.020, 1.011e-3
-2.021, 1.011e-3
-2.022, 1.011e-3
-2.023, 1.011e-3
-2.024, 1.011e-3
-2.025, 1.011e-3
-2.026, 1.011e-3
-2.027, 1.011e-3
-2.028, 1.011e-3
-2.029, 1.011e-3
-2.030, 1.011e-3
-2.031, 1.011e-3
-2.032, 1.011e-3
-2.033, 1.011e-3
-2.034, 1.011e-3
-2.035, 1.011e-3
-2.036, 1.011e-3
-2.037, 1.011e-3
-2.038, 1.011e-3
-2.039, 1.011e-3
-2.040, 1.011e-3
-2.041, 1.011e-3
-2.042, 1.011e-3
-2.043, 1.011e-3
-2.044, 1.011e-3
-2.045, 1.011e-3
-2.046, 1.011e-3
-2.047, 1.011e-3
-2.048, 1.011e-3
-2.049, 1.011e-3
-2.050, 1.011e-3
-2.051, 1.011e-3
-2.052, 1.011e-3
-2.053, 1.011e-3
-2.054, 1.011e-3
-2.055, 1.011e-3
-2.056, 1.011e-3
-2.057, 1.011e-3
-2.058, 1.011e-3
-2.059, 1.011e-3
-2.060, 1.011e-3
-2.061, 1.011e-3
-2.062, 1.011e-3
-2.063, 1.011e-3
-2.064, 1.011e-3
-2.065, 1.011e-3
-2.066, 1.011e-3
-2.067, 1.011e-3
-2.068, 1.011e-3
-2.069, 1.011e-3
-2.070, 1.011e-3
-2.071, 1.011e-3
-2.072, 1.011e-3
-2.073, 1.011e-3
-2.074, 1.011e-3
-2.075, 1.011e-3
-2.076, 1.011e-3
-2.077, 1.011e-3
-2.078, 1.011e-3
-2.079, 1.011e-3
-2.080, 1.011e-3
-2.081, 1.011e-3
-2.082, 1.011e-3
-2.083, 1.011e-3
-2.084, 1.011e-3
-2.085, 1.011e-3
-2.086, 1.011e-3
-2.087, 1.011e-3
-2.088, 1.011e-3
-2.089, 1.011e-3
-2.090, 1.011e-3
-2.091, 1.011e-3
-2.092, 1.011e-3
-2.093, 1.011e-3
-2.094, 1.011e-3
-2.095, 1.011e-3
-2.096, 1.011e-3
-2.097, 1.011e-3
-2.098, 1.011e-3
-2.099, 1.011e-3
