Jan. 8, 2025   19:53:03
Linear Sweep Voltammetry
File: c:/users/guazh/data/banditlqround7_x0exp772_r5/2025-01-08-exp801\1acid_1ac-2025-01-08t19_49_54-lsvinphos\1acid_1ac_lsv_50mvs_efin_-2100mv.bin
Data Source:  Experiment
Instrument Model:  CHI760E
Header: LSV ran at 50 mVs with Efin at -2100mV
Note: 

Init E (V) = -0.6
Final E (V) = -2.1
Scan Rate (V/s) = 0.05
Sample Interval (V) = 0.001
Quiet Time (sec) = 2
Sensitivity (A/V) = 1e-4
Comp R (ohm) = 9.6

Results:

Channel 1:
Ep = -1.915V
ip = 9.243e-4A
Ah = 1.050e-3C

Potential/V, Current/A

-0.600, 3.130e-6
-0.601, 3.257e-6
-0.602, 3.300e-6
-0.603, 3.332e-6
-0.604, 3.371e-6
-0.605, 3.415e-6
-0.606, 3.454e-6
-0.607, 3.480e-6
-0.608, 3.509e-6
-0.609, 3.546e-6
-0.610, 3.588e-6
-0.611, 3.623e-6
-0.612, 3.652e-6
-0.613, 3.682e-6
-0.614, 3.719e-6
-0.615, 3.762e-6
-0.616, 3.797e-6
-0.617, 3.827e-6
-0.618, 3.856e-6
-0.619, 3.894e-6
-0.620, 3.937e-6
-0.621, 3.972e-6
-0.622, 4.001e-6
-0.623, 4.029e-6
-0.624, 4.068e-6
-0.625, 4.112e-6
-0.626, 4.147e-6
-0.627, 4.176e-6
-0.628, 4.206e-6
-0.629, 4.241e-6
-0.630, 4.285e-6
-0.631, 4.322e-6
-0.632, 4.351e-6
-0.633, 4.381e-6
-0.634, 4.420e-6
-0.635, 4.465e-6
-0.636, 4.503e-6
-0.637, 4.533e-6
-0.638, 4.565e-6
-0.639, 4.603e-6
-0.640, 4.649e-6
-0.641, 4.686e-6
-0.642, 4.714e-6
-0.643, 4.745e-6
-0.644, 4.786e-6
-0.645, 4.829e-6
-0.646, 4.868e-6
-0.647, 4.896e-6
-0.648, 4.926e-6
-0.649, 4.967e-6
-0.650, 5.012e-6
-0.651, 5.050e-6
-0.652, 5.081e-6
-0.653, 5.111e-6
-0.654, 5.151e-6
-0.655, 5.195e-6
-0.656, 5.232e-6
-0.657, 5.262e-6
-0.658, 5.293e-6
-0.659, 5.333e-6
-0.660, 5.376e-6
-0.661, 5.412e-6
-0.662, 5.439e-6
-0.663, 5.471e-6
-0.664, 5.511e-6
-0.665, 5.556e-6
-0.666, 5.592e-6
-0.667, 5.620e-6
-0.668, 5.650e-6
-0.669, 5.688e-6
-0.670, 5.731e-6
-0.671, 5.766e-6
-0.672, 5.794e-6
-0.673, 5.825e-6
-0.674, 5.862e-6
-0.675, 5.903e-6
-0.676, 5.934e-6
-0.677, 5.959e-6
-0.678, 5.988e-6
-0.679, 6.026e-6
-0.680, 6.067e-6
-0.681, 6.100e-6
-0.682, 6.124e-6
-0.683, 6.152e-6
-0.684, 6.186e-6
-0.685, 6.224e-6
-0.686, 6.254e-6
-0.687, 6.277e-6
-0.688, 6.304e-6
-0.689, 6.339e-6
-0.690, 6.377e-6
-0.691, 6.408e-6
-0.692, 6.430e-6
-0.693, 6.455e-6
-0.694, 6.488e-6
-0.695, 6.524e-6
-0.696, 6.552e-6
-0.697, 6.572e-6
-0.698, 6.594e-6
-0.699, 6.628e-6
-0.700, 6.661e-6
-0.701, 6.687e-6
-0.702, 6.706e-6
-0.703, 6.726e-6
-0.704, 6.757e-6
-0.705, 6.791e-6
-0.706, 6.813e-6
-0.707, 6.830e-6
-0.708, 6.848e-6
-0.709, 6.874e-6
-0.710, 6.905e-6
-0.711, 6.926e-6
-0.712, 6.940e-6
-0.713, 6.958e-6
-0.714, 6.982e-6
-0.715, 7.011e-6
-0.716, 7.029e-6
-0.717, 7.041e-6
-0.718, 7.059e-6
-0.719, 7.080e-6
-0.720, 7.106e-6
-0.721, 7.121e-6
-0.722, 7.131e-6
-0.723, 7.145e-6
-0.724, 7.166e-6
-0.725, 7.188e-6
-0.726, 7.203e-6
-0.727, 7.210e-6
-0.728, 7.219e-6
-0.729, 7.238e-6
-0.730, 7.258e-6
-0.731, 7.269e-6
-0.732, 7.273e-6
-0.733, 7.281e-6
-0.734, 7.298e-6
-0.735, 7.315e-6
-0.736, 7.325e-6
-0.737, 7.326e-6
-0.738, 7.330e-6
-0.739, 7.345e-6
-0.740, 7.360e-6
-0.741, 7.366e-6
-0.742, 7.367e-6
-0.743, 7.371e-6
-0.744, 7.381e-6
-0.745, 7.395e-6
-0.746, 7.397e-6
-0.747, 7.396e-6
-0.748, 7.397e-6
-0.749, 7.406e-6
-0.750, 7.418e-6
-0.751, 7.419e-6
-0.752, 7.414e-6
-0.753, 7.413e-6
-0.754, 7.421e-6
-0.755, 7.428e-6
-0.756, 7.430e-6
-0.757, 7.422e-6
-0.758, 7.419e-6
-0.759, 7.425e-6
-0.760, 7.431e-6
-0.761, 7.429e-6
-0.762, 7.421e-6
-0.763, 7.416e-6
-0.764, 7.419e-6
-0.765, 7.424e-6
-0.766, 7.420e-6
-0.767, 7.410e-6
-0.768, 7.404e-6
-0.769, 7.407e-6
-0.770, 7.409e-6
-0.771, 7.403e-6
-0.772, 7.390e-6
-0.773, 7.381e-6
-0.774, 7.384e-6
-0.775, 7.383e-6
-0.776, 7.376e-6
-0.777, 7.364e-6
-0.778, 7.354e-6
-0.779, 7.352e-6
-0.780, 7.353e-6
-0.781, 7.344e-6
-0.782, 7.330e-6
-0.783, 7.319e-6
-0.784, 7.318e-6
-0.785, 7.317e-6
-0.786, 7.306e-6
-0.787, 7.291e-6
-0.788, 7.279e-6
-0.789, 7.276e-6
-0.790, 7.274e-6
-0.791, 7.262e-6
-0.792, 7.245e-6
-0.793, 7.234e-6
-0.794, 7.231e-6
-0.795, 7.228e-6
-0.796, 7.215e-6
-0.797, 7.198e-6
-0.798, 7.185e-6
-0.799, 7.181e-6
-0.800, 7.177e-6
-0.801, 7.164e-6
-0.802, 7.145e-6
-0.803, 7.133e-6
-0.804, 7.126e-6
-0.805, 7.122e-6
-0.806, 7.108e-6
-0.807, 7.090e-6
-0.808, 7.075e-6
-0.809, 7.071e-6
-0.810, 7.066e-6
-0.811, 7.050e-6
-0.812, 7.033e-6
-0.813, 7.018e-6
-0.814, 7.013e-6
-0.815, 7.007e-6
-0.816, 6.991e-6
-0.817, 6.972e-6
-0.818, 6.958e-6
-0.819, 6.957e-6
-0.820, 6.953e-6
-0.821, 6.935e-6
-0.822, 6.916e-6
-0.823, 6.900e-6
-0.824, 6.894e-6
-0.825, 6.891e-6
-0.826, 6.874e-6
-0.827, 6.855e-6
-0.828, 6.840e-6
-0.829, 6.835e-6
-0.830, 6.829e-6
-0.831, 6.813e-6
-0.832, 6.794e-6
-0.833, 6.780e-6
-0.834, 6.775e-6
-0.835, 6.768e-6
-0.836, 6.752e-6
-0.837, 6.732e-6
-0.838, 6.719e-6
-0.839, 6.714e-6
-0.840, 6.707e-6
-0.841, 6.692e-6
-0.842, 6.672e-6
-0.843, 6.659e-6
-0.844, 6.654e-6
-0.845, 6.648e-6
-0.846, 6.633e-6
-0.847, 6.613e-6
-0.848, 6.600e-6
-0.849, 6.595e-6
-0.850, 6.588e-6
-0.851, 6.574e-6
-0.852, 6.555e-6
-0.853, 6.541e-6
-0.854, 6.537e-6
-0.855, 6.530e-6
-0.856, 6.514e-6
-0.857, 6.496e-6
-0.858, 6.484e-6
-0.859, 6.480e-6
-0.860, 6.474e-6
-0.861, 6.458e-6
-0.862, 6.441e-6
-0.863, 6.430e-6
-0.864, 6.424e-6
-0.865, 6.420e-6
-0.866, 6.404e-6
-0.867, 6.386e-6
-0.868, 6.374e-6
-0.869, 6.370e-6
-0.870, 6.367e-6
-0.871, 6.352e-6
-0.872, 6.333e-6
-0.873, 6.322e-6
-0.874, 6.318e-6
-0.875, 6.314e-6
-0.876, 6.298e-6
-0.877, 6.281e-6
-0.878, 6.269e-6
-0.879, 6.268e-6
-0.880, 6.262e-6
-0.881, 6.248e-6
-0.882, 6.231e-6
-0.883, 6.222e-6
-0.884, 6.219e-6
-0.885, 6.214e-6
-0.886, 6.201e-6
-0.887, 6.187e-6
-0.888, 6.175e-6
-0.889, 6.175e-6
-0.890, 6.170e-6
-0.891, 6.156e-6
-0.892, 6.141e-6
-0.893, 6.129e-6
-0.894, 6.129e-6
-0.895, 6.123e-6
-0.896, 6.112e-6
-0.897, 6.096e-6
-0.898, 6.085e-6
-0.899, 6.085e-6
-0.900, 6.081e-6
-0.901, 6.066e-6
-0.902, 6.052e-6
-0.903, 6.043e-6
-0.904, 6.041e-6
-0.905, 6.038e-6
-0.906, 6.023e-6
-0.907, 6.009e-6
-0.908, 6.000e-6
-0.909, 6.001e-6
-0.910, 5.997e-6
-0.911, 5.984e-6
-0.912, 5.969e-6
-0.913, 5.962e-6
-0.914, 5.961e-6
-0.915, 5.958e-6
-0.916, 5.946e-6
-0.917, 5.932e-6
-0.918, 5.925e-6
-0.919, 5.924e-6
-0.920, 5.921e-6
-0.921, 5.910e-6
-0.922, 5.897e-6
-0.923, 5.890e-6
-0.924, 5.890e-6
-0.925, 5.887e-6
-0.926, 5.876e-6
-0.927, 5.863e-6
-0.928, 5.857e-6
-0.929, 5.859e-6
-0.930, 5.856e-6
-0.931, 5.843e-6
-0.932, 5.831e-6
-0.933, 5.824e-6
-0.934, 5.826e-6
-0.935, 5.823e-6
-0.936, 5.811e-6
-0.937, 5.799e-6
-0.938, 5.793e-6
-0.939, 5.795e-6
-0.940, 5.792e-6
-0.941, 5.780e-6
-0.942, 5.769e-6
-0.943, 5.762e-6
-0.944, 5.764e-6
-0.945, 5.762e-6
-0.946, 5.750e-6
-0.947, 5.740e-6
-0.948, 5.734e-6
-0.949, 5.737e-6
-0.950, 5.735e-6
-0.951, 5.722e-6
-0.952, 5.710e-6
-0.953, 5.708e-6
-0.954, 5.709e-6
-0.955, 5.708e-6
-0.956, 5.697e-6
-0.957, 5.686e-6
-0.958, 5.681e-6
-0.959, 5.682e-6
-0.960, 5.683e-6
-0.961, 5.672e-6
-0.962, 5.661e-6
-0.963, 5.658e-6
-0.964, 5.660e-6
-0.965, 5.658e-6
-0.966, 5.649e-6
-0.967, 5.638e-6
-0.968, 5.634e-6
-0.969, 5.637e-6
-0.970, 5.636e-6
-0.971, 5.627e-6
-0.972, 5.617e-6
-0.973, 5.615e-6
-0.974, 5.618e-6
-0.975, 5.614e-6
-0.976, 5.605e-6
-0.977, 5.597e-6
-0.978, 5.593e-6
-0.979, 5.597e-6
-0.980, 5.594e-6
-0.981, 5.585e-6
-0.982, 5.576e-6
-0.983, 5.573e-6
-0.984, 5.578e-6
-0.985, 5.577e-6
-0.986, 5.566e-6
-0.987, 5.557e-6
-0.988, 5.556e-6
-0.989, 5.560e-6
-0.990, 5.558e-6
-0.991, 5.548e-6
-0.992, 5.540e-6
-0.993, 5.539e-6
-0.994, 5.543e-6
-0.995, 5.542e-6
-0.996, 5.531e-6
-0.997, 5.523e-6
-0.998, 5.522e-6
-0.999, 5.527e-6
-1.000, 5.525e-6
-1.001, 5.518e-6
-1.002, 5.509e-6
-1.003, 5.508e-6
-1.004, 5.513e-6
-1.005, 5.510e-6
-1.006, 5.501e-6
-1.007, 5.493e-6
-1.008, 5.493e-6
-1.009, 5.498e-6
-1.010, 5.497e-6
-1.011, 5.489e-6
-1.012, 5.483e-6
-1.013, 5.481e-6
-1.014, 5.486e-6
-1.015, 5.484e-6
-1.016, 5.475e-6
-1.017, 5.469e-6
-1.018, 5.467e-6
-1.019, 5.474e-6
-1.020, 5.472e-6
-1.021, 5.461e-6
-1.022, 5.456e-6
-1.023, 5.455e-6
-1.024, 5.463e-6
-1.025, 5.463e-6
-1.026, 5.452e-6
-1.027, 5.447e-6
-1.028, 5.444e-6
-1.029, 5.450e-6
-1.030, 5.450e-6
-1.031, 5.442e-6
-1.032, 5.436e-6
-1.033, 5.435e-6
-1.034, 5.438e-6
-1.035, 5.438e-6
-1.036, 5.430e-6
-1.037, 5.424e-6
-1.038, 5.424e-6
-1.039, 5.430e-6
-1.040, 5.428e-6
-1.041, 5.421e-6
-1.042, 5.414e-6
-1.043, 5.416e-6
-1.044, 5.421e-6
-1.045, 5.420e-6
-1.046, 5.413e-6
-1.047, 5.406e-6
-1.048, 5.407e-6
-1.049, 5.412e-6
-1.050, 5.412e-6
-1.051, 5.406e-6
-1.052, 5.398e-6
-1.053, 5.400e-6
-1.054, 5.406e-6
-1.055, 5.405e-6
-1.056, 5.397e-6
-1.057, 5.392e-6
-1.058, 5.392e-6
-1.059, 5.397e-6
-1.060, 5.398e-6
-1.061, 5.390e-6
-1.062, 5.385e-6
-1.063, 5.385e-6
-1.064, 5.389e-6
-1.065, 5.388e-6
-1.066, 5.380e-6
-1.067, 5.375e-6
-1.068, 5.376e-6
-1.069, 5.381e-6
-1.070, 5.383e-6
-1.071, 5.377e-6
-1.072, 5.372e-6
-1.073, 5.371e-6
-1.074, 5.374e-6
-1.075, 5.375e-6
-1.076, 5.369e-6
-1.077, 5.362e-6
-1.078, 5.364e-6
-1.079, 5.370e-6
-1.080, 5.370e-6
-1.081, 5.365e-6
-1.082, 5.359e-6
-1.083, 5.360e-6
-1.084, 5.366e-6
-1.085, 5.367e-6
-1.086, 5.360e-6
-1.087, 5.354e-6
-1.088, 5.356e-6
-1.089, 5.364e-6
-1.090, 5.362e-6
-1.091, 5.357e-6
-1.092, 5.353e-6
-1.093, 5.355e-6
-1.094, 5.364e-6
-1.095, 5.363e-6
-1.096, 5.356e-6
-1.097, 5.351e-6
-1.098, 5.352e-6
-1.099, 5.360e-6
-1.100, 5.360e-6
-1.101, 5.355e-6
-1.102, 5.353e-6
-1.103, 5.354e-6
-1.104, 5.360e-6
-1.105, 5.359e-6
-1.106, 5.352e-6
-1.107, 5.350e-6
-1.108, 5.350e-6
-1.109, 5.357e-6
-1.110, 5.358e-6
-1.111, 5.352e-6
-1.112, 5.348e-6
-1.113, 5.351e-6
-1.114, 5.357e-6
-1.115, 5.358e-6
-1.116, 5.350e-6
-1.117, 5.344e-6
-1.118, 5.348e-6
-1.119, 5.354e-6
-1.120, 5.354e-6
-1.121, 5.348e-6
-1.122, 5.344e-6
-1.123, 5.349e-6
-1.124, 5.357e-6
-1.125, 5.356e-6
-1.126, 5.353e-6
-1.127, 5.349e-6
-1.128, 5.352e-6
-1.129, 5.358e-6
-1.130, 5.358e-6
-1.131, 5.352e-6
-1.132, 5.349e-6
-1.133, 5.353e-6
-1.134, 5.360e-6
-1.135, 5.359e-6
-1.136, 5.354e-6
-1.137, 5.350e-6
-1.138, 5.352e-6
-1.139, 5.361e-6
-1.140, 5.365e-6
-1.141, 5.359e-6
-1.142, 5.354e-6
-1.143, 5.358e-6
-1.144, 5.363e-6
-1.145, 5.363e-6
-1.146, 5.356e-6
-1.147, 5.355e-6
-1.148, 5.360e-6
-1.149, 5.368e-6
-1.150, 5.367e-6
-1.151, 5.359e-6
-1.152, 5.357e-6
-1.153, 5.362e-6
-1.154, 5.368e-6
-1.155, 5.367e-6
-1.156, 5.363e-6
-1.157, 5.361e-6
-1.158, 5.368e-6
-1.159, 5.376e-6
-1.160, 5.374e-6
-1.161, 5.370e-6
-1.162, 5.369e-6
-1.163, 5.375e-6
-1.164, 5.384e-6
-1.165, 5.383e-6
-1.166, 5.377e-6
-1.167, 5.375e-6
-1.168, 5.379e-6
-1.169, 5.385e-6
-1.170, 5.383e-6
-1.171, 5.380e-6
-1.172, 5.379e-6
-1.173, 5.380e-6
-1.174, 5.388e-6
-1.175, 5.390e-6
-1.176, 5.390e-6
-1.177, 5.392e-6
-1.178, 5.395e-6
-1.179, 5.401e-6
-1.180, 5.401e-6
-1.181, 5.401e-6
-1.182, 5.402e-6
-1.183, 5.408e-6
-1.184, 5.416e-6
-1.185, 5.416e-6
-1.186, 5.411e-6
-1.187, 5.410e-6
-1.188, 5.419e-6
-1.189, 5.426e-6
-1.190, 5.429e-6
-1.191, 5.426e-6
-1.192, 5.422e-6
-1.193, 5.428e-6
-1.194, 5.434e-6
-1.195, 5.436e-6
-1.196, 5.432e-6
-1.197, 5.433e-6
-1.198, 5.440e-6
-1.199, 5.445e-6
-1.200, 5.446e-6
-1.201, 5.445e-6
-1.202, 5.445e-6
-1.203, 5.451e-6
-1.204, 5.459e-6
-1.205, 5.449e-6
-1.206, 5.445e-6
-1.207, 5.444e-6
-1.208, 5.454e-6
-1.209, 5.465e-6
-1.210, 5.467e-6
-1.211, 5.463e-6
-1.212, 5.462e-6
-1.213, 5.466e-6
-1.214, 5.472e-6
-1.215, 5.470e-6
-1.216, 5.465e-6
-1.217, 5.464e-6
-1.218, 5.474e-6
-1.219, 5.477e-6
-1.220, 5.477e-6
-1.221, 5.471e-6
-1.222, 5.474e-6
-1.223, 5.487e-6
-1.224, 5.499e-6
-1.225, 5.503e-6
-1.226, 5.503e-6
-1.227, 5.514e-6
-1.228, 5.518e-6
-1.229, 5.530e-6
-1.230, 5.533e-6
-1.231, 5.530e-6
-1.232, 5.525e-6
-1.233, 5.535e-6
-1.234, 5.549e-6
-1.235, 5.554e-6
-1.236, 5.552e-6
-1.237, 5.553e-6
-1.238, 5.557e-6
-1.239, 5.569e-6
-1.240, 5.565e-6
-1.241, 5.560e-6
-1.242, 5.548e-6
-1.243, 5.555e-6
-1.244, 5.575e-6
-1.245, 5.578e-6
-1.246, 5.573e-6
-1.247, 5.585e-6
-1.248, 5.607e-6
-1.249, 5.610e-6
-1.250, 5.612e-6
-1.251, 5.610e-6
-1.252, 5.615e-6
-1.253, 5.628e-6
-1.254, 5.643e-6
-1.255, 5.647e-6
-1.256, 5.642e-6
-1.257, 5.640e-6
-1.258, 5.649e-6
-1.259, 5.660e-6
-1.260, 5.663e-6
-1.261, 5.661e-6
-1.262, 5.665e-6
-1.263, 5.670e-6
-1.264, 5.680e-6
-1.265, 5.686e-6
-1.266, 5.690e-6
-1.267, 5.698e-6
-1.268, 5.714e-6
-1.269, 5.729e-6
-1.270, 5.733e-6
-1.271, 5.733e-6
-1.272, 5.739e-6
-1.273, 5.758e-6
-1.274, 5.766e-6
-1.275, 5.768e-6
-1.276, 5.773e-6
-1.277, 5.771e-6
-1.278, 5.782e-6
-1.279, 5.790e-6
-1.280, 5.789e-6
-1.281, 5.798e-6
-1.282, 5.798e-6
-1.283, 5.816e-6
-1.284, 5.835e-6
-1.285, 5.837e-6
-1.286, 5.827e-6
-1.287, 5.825e-6
-1.288, 5.829e-6
-1.289, 5.843e-6
-1.290, 5.848e-6
-1.291, 5.852e-6
-1.292, 5.863e-6
-1.293, 5.877e-6
-1.294, 5.887e-6
-1.295, 5.892e-6
-1.296, 5.894e-6
-1.297, 5.899e-6
-1.298, 5.912e-6
-1.299, 5.918e-6
-1.300, 5.922e-6
-1.301, 5.920e-6
-1.302, 5.929e-6
-1.303, 5.940e-6
-1.304, 5.955e-6
-1.305, 5.963e-6
-1.306, 5.959e-6
-1.307, 5.958e-6
-1.308, 5.966e-6
-1.309, 5.976e-6
-1.310, 5.975e-6
-1.311, 5.974e-6
-1.312, 5.980e-6
-1.313, 6.002e-6
-1.314, 6.018e-6
-1.315, 6.031e-6
-1.316, 6.032e-6
-1.317, 6.040e-6
-1.318, 6.053e-6
-1.319, 6.059e-6
-1.320, 6.076e-6
-1.321, 6.088e-6
-1.322, 6.090e-6
-1.323, 6.104e-6
-1.324, 6.126e-6
-1.325, 6.136e-6
-1.326, 6.142e-6
-1.327, 6.152e-6
-1.328, 6.159e-6
-1.329, 6.167e-6
-1.330, 6.172e-6
-1.331, 6.185e-6
-1.332, 6.192e-6
-1.333, 6.213e-6
-1.334, 6.234e-6
-1.335, 6.248e-6
-1.336, 6.249e-6
-1.337, 6.246e-6
-1.338, 6.260e-6
-1.339, 6.279e-6
-1.340, 6.291e-6
-1.341, 6.287e-6
-1.342, 6.300e-6
-1.343, 6.314e-6
-1.344, 6.326e-6
-1.345, 6.339e-6
-1.346, 6.341e-6
-1.347, 6.342e-6
-1.348, 6.354e-6
-1.349, 6.369e-6
-1.350, 6.383e-6
-1.351, 6.373e-6
-1.352, 6.379e-6
-1.353, 6.399e-6
-1.354, 6.410e-6
-1.355, 6.424e-6
-1.356, 6.440e-6
-1.357, 6.451e-6
-1.358, 6.474e-6
-1.359, 6.490e-6
-1.360, 6.485e-6
-1.361, 6.484e-6
-1.362, 6.485e-6
-1.363, 6.505e-6
-1.364, 6.521e-6
-1.365, 6.524e-6
-1.366, 6.533e-6
-1.367, 6.528e-6
-1.368, 6.548e-6
-1.369, 6.573e-6
-1.370, 6.587e-6
-1.371, 6.577e-6
-1.372, 6.595e-6
-1.373, 6.608e-6
-1.374, 6.629e-6
-1.375, 6.629e-6
-1.376, 6.629e-6
-1.377, 6.640e-6
-1.378, 6.669e-6
-1.379, 6.685e-6
-1.380, 6.688e-6
-1.381, 6.693e-6
-1.382, 6.702e-6
-1.383, 6.717e-6
-1.384, 6.734e-6
-1.385, 6.752e-6
-1.386, 6.762e-6
-1.387, 6.772e-6
-1.388, 6.804e-6
-1.389, 6.831e-6
-1.390, 6.833e-6
-1.391, 6.834e-6
-1.392, 6.843e-6
-1.393, 6.864e-6
-1.394, 6.887e-6
-1.395, 6.914e-6
-1.396, 6.909e-6
-1.397, 6.906e-6
-1.398, 6.927e-6
-1.399, 6.944e-6
-1.400, 6.953e-6
-1.401, 6.960e-6
-1.402, 6.975e-6
-1.403, 6.992e-6
-1.404, 7.017e-6
-1.405, 7.018e-6
-1.406, 7.022e-6
-1.407, 7.042e-6
-1.408, 7.062e-6
-1.409, 7.091e-6
-1.410, 7.115e-6
-1.411, 7.121e-6
-1.412, 7.114e-6
-1.413, 7.122e-6
-1.414, 7.168e-6
-1.415, 7.183e-6
-1.416, 7.186e-6
-1.417, 7.195e-6
-1.418, 7.214e-6
-1.419, 7.233e-6
-1.420, 7.236e-6
-1.421, 7.239e-6
-1.422, 7.255e-6
-1.423, 7.279e-6
-1.424, 7.296e-6
-1.425, 7.306e-6
-1.426, 7.306e-6
-1.427, 7.320e-6
-1.428, 7.339e-6
-1.429, 7.374e-6
-1.430, 7.388e-6
-1.431, 7.390e-6
-1.432, 7.410e-6
-1.433, 7.445e-6
-1.434, 7.467e-6
-1.435, 7.472e-6
-1.436, 7.476e-6
-1.437, 7.485e-6
-1.438, 7.506e-6
-1.439, 7.536e-6
-1.440, 7.549e-6
-1.441, 7.555e-6
-1.442, 7.574e-6
-1.443, 7.597e-6
-1.444, 7.619e-6
-1.445, 7.630e-6
-1.446, 7.641e-6
-1.447, 7.650e-6
-1.448, 7.690e-6
-1.449, 7.715e-6
-1.450, 7.719e-6
-1.451, 7.724e-6
-1.452, 7.733e-6
-1.453, 7.758e-6
-1.454, 7.785e-6
-1.455, 7.812e-6
-1.456, 7.829e-6
-1.457, 7.854e-6
-1.458, 7.879e-6
-1.459, 7.905e-6
-1.460, 7.921e-6
-1.461, 7.921e-6
-1.462, 7.943e-6
-1.463, 7.964e-6
-1.464, 7.984e-6
-1.465, 8.007e-6
-1.466, 8.019e-6
-1.467, 8.029e-6
-1.468, 8.071e-6
-1.469, 8.102e-6
-1.470, 8.114e-6
-1.471, 8.119e-6
-1.472, 8.142e-6
-1.473, 8.175e-6
-1.474, 8.199e-6
-1.475, 8.210e-6
-1.476, 8.227e-6
-1.477, 8.260e-6
-1.478, 8.290e-6
-1.479, 8.322e-6
-1.480, 8.339e-6
-1.481, 8.361e-6
-1.482, 8.371e-6
-1.483, 8.389e-6
-1.484, 8.409e-6
-1.485, 8.429e-6
-1.486, 8.444e-6
-1.487, 8.463e-6
-1.488, 8.508e-6
-1.489, 8.520e-6
-1.490, 8.546e-6
-1.491, 8.569e-6
-1.492, 8.588e-6
-1.493, 8.621e-6
-1.494, 8.649e-6
-1.495, 8.671e-6
-1.496, 8.687e-6
-1.497, 8.709e-6
-1.498, 8.743e-6
-1.499, 8.780e-6
-1.500, 8.799e-6
-1.501, 8.831e-6
-1.502, 8.862e-6
-1.503, 8.885e-6
-1.504, 8.906e-6
-1.505, 8.922e-6
-1.506, 8.939e-6
-1.507, 8.963e-6
-1.508, 8.985e-6
-1.509, 9.023e-6
-1.510, 9.055e-6
-1.511, 9.081e-6
-1.512, 9.098e-6
-1.513, 9.137e-6
-1.514, 9.169e-6
-1.515, 9.191e-6
-1.516, 9.209e-6
-1.517, 9.245e-6
-1.518, 9.294e-6
-1.519, 9.341e-6
-1.520, 9.366e-6
-1.521, 9.388e-6
-1.522, 9.410e-6
-1.523, 9.470e-6
-1.524, 9.515e-6
-1.525, 9.529e-6
-1.526, 9.574e-6
-1.527, 9.626e-6
-1.528, 9.659e-6
-1.529, 9.688e-6
-1.530, 9.709e-6
-1.531, 9.730e-6
-1.532, 9.762e-6
-1.533, 9.822e-6
-1.534, 9.876e-6
-1.535, 9.908e-6
-1.536, 9.929e-6
-1.537, 9.951e-6
-1.538, 9.997e-6
-1.539, 1.004e-5
-1.540, 1.009e-5
-1.541, 1.013e-5
-1.542, 1.016e-5
-1.543, 1.021e-5
-1.544, 1.026e-5
-1.545, 1.028e-5
-1.546, 1.030e-5
-1.547, 1.035e-5
-1.548, 1.041e-5
-1.549, 1.047e-5
-1.550, 1.051e-5
-1.551, 1.053e-5
-1.552, 1.058e-5
-1.553, 1.061e-5
-1.554, 1.067e-5
-1.555, 1.072e-5
-1.556, 1.076e-5
-1.557, 1.083e-5
-1.558, 1.088e-5
-1.559, 1.093e-5
-1.560, 1.097e-5
-1.561, 1.101e-5
-1.562, 1.107e-5
-1.563, 1.113e-5
-1.564, 1.116e-5
-1.565, 1.120e-5
-1.566, 1.124e-5
-1.567, 1.131e-5
-1.568, 1.136e-5
-1.569, 1.142e-5
-1.570, 1.148e-5
-1.571, 1.151e-5
-1.572, 1.155e-5
-1.573, 1.161e-5
-1.574, 1.169e-5
-1.575, 1.171e-5
-1.576, 1.174e-5
-1.577, 1.179e-5
-1.578, 1.185e-5
-1.579, 1.193e-5
-1.580, 1.198e-5
-1.581, 1.203e-5
-1.582, 1.208e-5
-1.583, 1.216e-5
-1.584, 1.221e-5
-1.585, 1.230e-5
-1.586, 1.235e-5
-1.587, 1.240e-5
-1.588, 1.245e-5
-1.589, 1.251e-5
-1.590, 1.257e-5
-1.591, 1.262e-5
-1.592, 1.267e-5
-1.593, 1.275e-5
-1.594, 1.284e-5
-1.595, 1.289e-5
-1.596, 1.295e-5
-1.597, 1.302e-5
-1.598, 1.311e-5
-1.599, 1.322e-5
-1.600, 1.331e-5
-1.601, 1.338e-5
-1.602, 1.347e-5
-1.603, 1.354e-5
-1.604, 1.362e-5
-1.605, 1.368e-5
-1.606, 1.374e-5
-1.607, 1.384e-5
-1.608, 1.397e-5
-1.609, 1.408e-5
-1.610, 1.416e-5
-1.611, 1.422e-5
-1.612, 1.430e-5
-1.613, 1.440e-5
-1.614, 1.449e-5
-1.615, 1.459e-5
-1.616, 1.466e-5
-1.617, 1.475e-5
-1.618, 1.488e-5
-1.619, 1.500e-5
-1.620, 1.507e-5
-1.621, 1.516e-5
-1.622, 1.528e-5
-1.623, 1.539e-5
-1.624, 1.552e-5
-1.625, 1.562e-5
-1.626, 1.574e-5
-1.627, 1.587e-5
-1.628, 1.598e-5
-1.629, 1.607e-5
-1.630, 1.618e-5
-1.631, 1.629e-5
-1.632, 1.642e-5
-1.633, 1.655e-5
-1.634, 1.666e-5
-1.635, 1.678e-5
-1.636, 1.690e-5
-1.637, 1.700e-5
-1.638, 1.713e-5
-1.639, 1.728e-5
-1.640, 1.739e-5
-1.641, 1.750e-5
-1.642, 1.764e-5
-1.643, 1.778e-5
-1.644, 1.791e-5
-1.645, 1.804e-5
-1.646, 1.817e-5
-1.647, 1.834e-5
-1.648, 1.854e-5
-1.649, 1.870e-5
-1.650, 1.883e-5
-1.651, 1.895e-5
-1.652, 1.907e-5
-1.653, 1.921e-5
-1.654, 1.937e-5
-1.655, 1.951e-5
-1.656, 1.967e-5
-1.657, 1.982e-5
-1.658, 1.994e-5
-1.659, 2.010e-5
-1.660, 2.027e-5
-1.661, 2.039e-5
-1.662, 2.054e-5
-1.663, 2.072e-5
-1.664, 2.092e-5
-1.665, 2.109e-5
-1.666, 2.128e-5
-1.667, 2.148e-5
-1.668, 2.165e-5
-1.669, 2.183e-5
-1.670, 2.203e-5
-1.671, 2.220e-5
-1.672, 2.240e-5
-1.673, 2.261e-5
-1.674, 2.284e-5
-1.675, 2.311e-5
-1.676, 2.334e-5
-1.677, 2.356e-5
-1.678, 2.378e-5
-1.679, 2.404e-5
-1.680, 2.426e-5
-1.681, 2.452e-5
-1.682, 2.482e-5
-1.683, 2.509e-5
-1.684, 2.532e-5
-1.685, 2.556e-5
-1.686, 2.580e-5
-1.687, 2.604e-5
-1.688, 2.634e-5
-1.689, 2.663e-5
-1.690, 2.692e-5
-1.691, 2.720e-5
-1.692, 2.751e-5
-1.693, 2.785e-5
-1.694, 2.818e-5
-1.695, 2.850e-5
-1.696, 2.878e-5
-1.697, 2.909e-5
-1.698, 2.945e-5
-1.699, 2.982e-5
-1.700, 3.014e-5
-1.701, 3.047e-5
-1.702, 3.081e-5
-1.703, 3.120e-5
-1.704, 3.157e-5
-1.705, 3.193e-5
-1.706, 3.228e-5
-1.707, 3.267e-5
-1.708, 3.309e-5
-1.709, 3.357e-5
-1.710, 3.396e-5
-1.711, 3.438e-5
-1.712, 3.485e-5
-1.713, 3.530e-5
-1.714, 3.577e-5
-1.715, 3.623e-5
-1.716, 3.670e-5
-1.717, 3.716e-5
-1.718, 3.766e-5
-1.719, 3.820e-5
-1.720, 3.878e-5
-1.721, 3.931e-5
-1.722, 3.989e-5
-1.723, 4.045e-5
-1.724, 4.097e-5
-1.725, 4.154e-5
-1.726, 4.212e-5
-1.727, 4.276e-5
-1.728, 4.342e-5
-1.729, 4.406e-5
-1.730, 4.471e-5
-1.731, 4.543e-5
-1.732, 4.605e-5
-1.733, 4.675e-5
-1.734, 4.742e-5
-1.735, 4.815e-5
-1.736, 4.881e-5
-1.737, 4.955e-5
-1.738, 5.036e-5
-1.739, 5.122e-5
-1.740, 5.211e-5
-1.741, 5.303e-5
-1.742, 5.391e-5
-1.743, 5.475e-5
-1.744, 5.571e-5
-1.745, 5.666e-5
-1.746, 5.756e-5
-1.747, 5.851e-5
-1.748, 5.950e-5
-1.749, 6.053e-5
-1.750, 6.151e-5
-1.751, 6.250e-5
-1.752, 6.355e-5
-1.753, 6.464e-5
-1.754, 6.571e-5
-1.755, 6.683e-5
-1.756, 6.798e-5
-1.757, 6.917e-5
-1.758, 7.042e-5
-1.759, 7.170e-5
-1.760, 7.298e-5
-1.761, 7.428e-5
-1.762, 7.557e-5
-1.763, 7.693e-5
-1.764, 7.848e-5
-1.765, 8.008e-5
-1.766, 8.150e-5
-1.767, 8.300e-5
-1.768, 8.455e-5
-1.769, 8.608e-5
-1.770, 8.764e-5
-1.771, 8.918e-5
-1.772, 9.075e-5
-1.773, 9.239e-5
-1.774, 9.420e-5
-1.775, 9.603e-5
-1.776, 9.792e-5
-1.777, 9.991e-5
-1.778, 1.019e-4
-1.779, 1.039e-4
-1.780, 1.060e-4
-1.781, 1.080e-4
-1.782, 1.102e-4
-1.783, 1.123e-4
-1.784, 1.145e-4
-1.785, 1.166e-4
-1.786, 1.189e-4
-1.787, 1.212e-4
-1.788, 1.235e-4
-1.789, 1.259e-4
-1.790, 1.285e-4
-1.791, 1.312e-4
-1.792, 1.338e-4
-1.793, 1.365e-4
-1.794, 1.392e-4
-1.795, 1.421e-4
-1.796, 1.450e-4
-1.797, 1.479e-4
-1.798, 1.508e-4
-1.799, 1.538e-4
-1.800, 1.568e-4
-1.801, 1.599e-4
-1.802, 1.631e-4
-1.803, 1.664e-4
-1.804, 1.699e-4
-1.805, 1.734e-4
-1.806, 1.769e-4
-1.807, 1.805e-4
-1.808, 1.842e-4
-1.809, 1.881e-4
-1.810, 1.918e-4
-1.811, 1.956e-4
-1.812, 1.996e-4
-1.813, 2.036e-4
-1.814, 2.077e-4
-1.815, 2.119e-4
-1.816, 2.160e-4
-1.817, 2.203e-4
-1.818, 2.247e-4
-1.819, 2.290e-4
-1.820, 2.336e-4
-1.821, 2.382e-4
-1.822, 2.429e-4
-1.823, 2.476e-4
-1.824, 2.524e-4
-1.825, 2.572e-4
-1.826, 2.620e-4
-1.827, 2.670e-4
-1.828, 2.722e-4
-1.829, 2.773e-4
-1.830, 2.825e-4
-1.831, 2.878e-4
-1.832, 2.931e-4
-1.833, 2.985e-4
-1.834, 3.040e-4
-1.835, 3.095e-4
-1.836, 3.150e-4
-1.837, 3.205e-4
-1.838, 3.262e-4
-1.839, 3.321e-4
-1.840, 3.380e-4
-1.841, 3.438e-4
-1.842, 3.499e-4
-1.843, 3.559e-4
-1.844, 3.620e-4
-1.845, 3.682e-4
-1.846, 3.746e-4
-1.847, 3.811e-4
-1.848, 3.876e-4
-1.849, 3.942e-4
-1.850, 4.010e-4
-1.851, 4.074e-4
-1.852, 4.139e-4
-1.853, 4.208e-4
-1.854, 4.276e-4
-1.855, 4.346e-4
-1.856, 4.416e-4
-1.857, 4.489e-4
-1.858, 4.563e-4
-1.859, 4.638e-4
-1.860, 4.713e-4
-1.861, 4.786e-4
-1.862, 4.861e-4
-1.863, 4.936e-4
-1.864, 5.013e-4
-1.865, 5.090e-4
-1.866, 5.168e-4
-1.867, 5.249e-4
-1.868, 5.329e-4
-1.869, 5.410e-4
-1.870, 5.494e-4
-1.871, 5.577e-4
-1.872, 5.660e-4
-1.873, 5.747e-4
-1.874, 5.835e-4
-1.875, 5.921e-4
-1.876, 6.009e-4
-1.877, 6.100e-4
-1.878, 6.190e-4
-1.879, 6.282e-4
-1.880, 6.374e-4
-1.881, 6.467e-4
-1.882, 6.562e-4
-1.883, 6.662e-4
-1.884, 6.761e-4
-1.885, 6.860e-4
-1.886, 6.958e-4
-1.887, 7.057e-4
-1.888, 7.158e-4
-1.889, 7.263e-4
-1.890, 7.368e-4
-1.891, 7.472e-4
-1.892, 7.573e-4
-1.893, 7.675e-4
-1.894, 7.782e-4
-1.895, 7.891e-4
-1.896, 8.000e-4
-1.897, 8.109e-4
-1.898, 8.220e-4
-1.899, 8.335e-4
-1.900, 8.448e-4
-1.901, 8.559e-4
-1.902, 8.672e-4
-1.903, 8.791e-4
-1.904, 8.908e-4
-1.905, 9.025e-4
-1.906, 9.142e-4
-1.907, 9.263e-4
-1.908, 9.383e-4
-1.909, 9.502e-4
-1.910, 9.627e-4
-1.911, 9.744e-4
-1.912, 9.869e-4
-1.913, 9.991e-4
-1.914, 1.010e-3
-1.915, 1.011e-3
-1.916, 1.011e-3
-1.917, 1.011e-3
-1.918, 1.011e-3
-1.919, 1.011e-3
-1.920, 1.011e-3
-1.921, 1.011e-3
-1.922, 1.011e-3
-1.923, 1.011e-3
-1.924, 1.011e-3
-1.925, 1.011e-3
-1.926, 1.011e-3
-1.927, 1.011e-3
-1.928, 1.011e-3
-1.929, 1.011e-3
-1.930, 1.011e-3
-1.931, 1.011e-3
-1.932, 1.011e-3
-1.933, 1.011e-3
-1.934, 1.011e-3
-1.935, 1.011e-3
-1.936, 1.011e-3
-1.937, 1.011e-3
-1.938, 1.011e-3
-1.939, 1.011e-3
-1.940, 1.011e-3
-1.941, 1.011e-3
-1.942, 1.011e-3
-1.943, 1.011e-3
-1.944, 1.011e-3
-1.945, 1.011e-3
-1.946, 1.011e-3
-1.947, 1.011e-3
-1.948, 1.011e-3
-1.949, 1.011e-3
-1.950, 1.011e-3
-1.951, 1.011e-3
-1.952, 1.011e-3
-1.953, 1.011e-3
-1.954, 1.011e-3
-1.955, 1.011e-3
-1.956, 1.011e-3
-1.957, 1.011e-3
-1.958, 1.011e-3
-1.959, 1.011e-3
-1.960, 1.011e-3
-1.961, 1.011e-3
-1.962, 1.011e-3
-1.963, 1.011e-3
-1.964, 1.011e-3
-1.965, 1.011e-3
-1.966, 1.011e-3
-1.967, 1.011e-3
-1.968, 1.011e-3
-1.969, 1.011e-3
-1.970, 1.011e-3
-1.971, 1.011e-3
-1.972, 1.011e-3
-1.973, 1.011e-3
-1.974, 1.011e-3
-1.975, 1.011e-3
-1.976, 1.011e-3
-1.977, 1.011e-3
-1.978, 1.011e-3
-1.979, 1.011e-3
-1.980, 1.011e-3
-1.981, 1.011e-3
-1.982, 1.011e-3
-1.983, 1.011e-3
-1.984, 1.011e-3
-1.985, 1.011e-3
-1.986, 1.011e-3
-1.987, 1.011e-3
-1.988, 1.011e-3
-1.989, 1.011e-3
-1.990, 1.011e-3
-1.991, 1.011e-3
-1.992, 1.011e-3
-1.993, 1.011e-3
-1.994, 1.011e-3
-1.995, 1.011e-3
-1.996, 1.011e-3
-1.997, 1.011e-3
-1.998, 1.011e-3
-1.999, 1.011e-3
-2.000, 1.011e-3
-2.001, 1.011e-3
-2.002, 1.011e-3
-2.003, 1.011e-3
-2.004, 1.011e-3
-2.005, 1.011e-3
-2.006, 1.011e-3
-2.007, 1.011e-3
-2.008, 1.011e-3
-2.009, 1.011e-3
-2.010, 1.011e-3
-2.011, 1.011e-3
-2.012, 1.011e-3
-2.013, 1.011e-3
-2.014, 1.011e-3
-2.015, 1.011e-3
-2.016, 1.011e-3
-2.017, 1.011e-3
-2.018, 1.011e-3
-2.019, 1.011e-3
-2.020, 1.011e-3
-2.021, 1.011e-3
-2.022, 1.011e-3
-2.023, 1.011e-3
-2.024, 1.011e-3
-2.025, 1.011e-3
-2.026, 1.011e-3
-2.027, 1.011e-3
-2.028, 1.011e-3
-2.029, 1.011e-3
-2.030, 1.011e-3
-2.031, 1.011e-3
-2.032, 1.011e-3
-2.033, 1.011e-3
-2.034, 1.011e-3
-2.035, 1.011e-3
-2.036, 1.011e-3
-2.037, 1.011e-3
-2.038, 1.011e-3
-2.039, 1.011e-3
-2.040, 1.011e-3
-2.041, 1.011e-3
-2.042, 1.011e-3
-2.043, 1.011e-3
-2.044, 1.011e-3
-2.045, 1.011e-3
-2.046, 1.011e-3
-2.047, 1.011e-3
-2.048, 1.011e-3
-2.049, 1.011e-3
-2.050, 1.011e-3
-2.051, 1.011e-3
-2.052, 1.011e-3
-2.053, 1.011e-3
-2.054, 1.011e-3
-2.055, 1.011e-3
-2.056, 1.011e-3
-2.057, 1.011e-3
-2.058, 1.011e-3
-2.059, 1.011e-3
-2.060, 1.011e-3
-2.061, 1.011e-3
-2.062, 1.011e-3
-2.063, 1.011e-3
-2.064, 1.011e-3
-2.065, 1.011e-3
-2.066, 1.011e-3
-2.067, 1.011e-3
-2.068, 1.011e-3
-2.069, 1.011e-3
-2.070, 1.011e-3
-2.071, 1.011e-3
-2.072, 1.011e-3
-2.073, 1.011e-3
-2.074, 1.011e-3
-2.075, 1.011e-3
-2.076, 1.011e-3
-2.077, 1.011e-3
-2.078, 1.011e-3
-2.079, 1.011e-3
-2.080, 1.011e-3
-2.081, 1.011e-3
-2.082, 1.011e-3
-2.083, 1.011e-3
-2.084, 1.011e-3
-2.085, 1.011e-3
-2.086, 1.011e-3
-2.087, 1.011e-3
-2.088, 1.011e-3
-2.089, 1.011e-3
-2.090, 1.011e-3
-2.091, 1.011e-3
-2.092, 1.011e-3
-2.093, 1.011e-3
-2.094, 1.011e-3
-2.095, 1.011e-3
-2.096, 1.011e-3
-2.097, 1.011e-3
-2.098, 1.011e-3
-2.099, 1.011e-3
