July 15, 2024   23:15:49
Cyclic Voltammetry
File: c:/users/guazh/data/20240709_batch67/2024-07-10-exp56\exp56-2024-07-15t23_10_53-h2koh\exp56_cv_50mvs_efin_-1400mv.bin
Data Source:  Experiment
Instrument Model:  CHI760E
Header: CV ran at 50 mVs
Note: 

Init E (V) = -1
High E (V) = -1
Low E (V) = -1.4
Final E (V) = -1
Init P/N = N
Scan Rate (V/s) = 0.05
Segment = 7
Sample Interval (V) = 0.001
Quiet Time (sec) = 60
Sensitivity (A/V) = 0.001
Comp R (ohm) = 1.7

Results:

Channel 1:
Segment 1:

Segment 2:

Segment 3:

Segment 4:

Segment 5:

Segment 6:

Segment 7:

Potential/V, Current/A

-1.000, 4.379e-6
-1.001, 5.090e-6
-1.002, 5.616e-6
-1.003, 5.882e-6
-1.004, 6.081e-6
-1.005, 6.345e-6
-1.006, 6.646e-6
-1.007, 6.935e-6
-1.008, 7.105e-6
-1.009, 7.261e-6
-1.010, 7.487e-6
-1.011, 7.727e-6
-1.012, 7.907e-6
-1.013, 8.031e-6
-1.014, 8.114e-6
-1.015, 8.315e-6
-1.016, 8.576e-6
-1.017, 8.766e-6
-1.018, 8.904e-6
-1.019, 9.011e-6
-1.020, 9.136e-6
-1.021, 9.379e-6
-1.022, 9.549e-6
-1.023, 9.690e-6
-1.024, 9.765e-6
-1.025, 9.918e-6
-1.026, 1.011e-5
-1.027, 1.029e-5
-1.028, 1.039e-5
-1.029, 1.051e-5
-1.030, 1.070e-5
-1.031, 1.097e-5
-1.032, 1.108e-5
-1.033, 1.116e-5
-1.034, 1.127e-5
-1.035, 1.140e-5
-1.036, 1.163e-5
-1.037, 1.188e-5
-1.038, 1.199e-5
-1.039, 1.206e-5
-1.040, 1.218e-5
-1.041, 1.243e-5
-1.042, 1.263e-5
-1.043, 1.267e-5
-1.044, 1.284e-5
-1.045, 1.297e-5
-1.046, 1.322e-5
-1.047, 1.342e-5
-1.048, 1.352e-5
-1.049, 1.363e-5
-1.050, 1.387e-5
-1.051, 1.404e-5
-1.052, 1.429e-5
-1.053, 1.439e-5
-1.054, 1.447e-5
-1.055, 1.469e-5
-1.056, 1.487e-5
-1.057, 1.513e-5
-1.058, 1.523e-5
-1.059, 1.533e-5
-1.060, 1.552e-5
-1.061, 1.576e-5
-1.062, 1.599e-5
-1.063, 1.614e-5
-1.064, 1.621e-5
-1.065, 1.640e-5
-1.066, 1.667e-5
-1.067, 1.686e-5
-1.068, 1.702e-5
-1.069, 1.711e-5
-1.070, 1.725e-5
-1.071, 1.747e-5
-1.072, 1.769e-5
-1.073, 1.783e-5
-1.074, 1.789e-5
-1.075, 1.806e-5
-1.076, 1.830e-5
-1.077, 1.846e-5
-1.078, 1.861e-5
-1.079, 1.872e-5
-1.080, 1.886e-5
-1.081, 1.913e-5
-1.082, 1.933e-5
-1.083, 1.944e-5
-1.084, 1.955e-5
-1.085, 1.968e-5
-1.086, 1.996e-5
-1.087, 2.018e-5
-1.088, 2.028e-5
-1.089, 2.038e-5
-1.090, 2.052e-5
-1.091, 2.070e-5
-1.092, 2.087e-5
-1.093, 2.091e-5
-1.094, 2.100e-5
-1.095, 2.108e-5
-1.096, 2.130e-5
-1.097, 2.156e-5
-1.098, 2.164e-5
-1.099, 2.180e-5
-1.100, 2.193e-5
-1.101, 2.216e-5
-1.102, 2.232e-5
-1.103, 2.233e-5
-1.104, 2.238e-5
-1.105, 2.251e-5
-1.106, 2.269e-5
-1.107, 2.292e-5
-1.108, 2.293e-5
-1.109, 2.307e-5
-1.110, 2.318e-5
-1.111, 2.327e-5
-1.112, 2.345e-5
-1.113, 2.348e-5
-1.114, 2.348e-5
-1.115, 2.357e-5
-1.116, 2.379e-5
-1.117, 2.396e-5
-1.118, 2.395e-5
-1.119, 2.408e-5
-1.120, 2.414e-5
-1.121, 2.423e-5
-1.122, 2.440e-5
-1.123, 2.443e-5
-1.124, 2.446e-5
-1.125, 2.452e-5
-1.126, 2.463e-5
-1.127, 2.480e-5
-1.128, 2.483e-5
-1.129, 2.484e-5
-1.130, 2.496e-5
-1.131, 2.506e-5
-1.132, 2.522e-5
-1.133, 2.524e-5
-1.134, 2.529e-5
-1.135, 2.538e-5
-1.136, 2.547e-5
-1.137, 2.560e-5
-1.138, 2.571e-5
-1.139, 2.578e-5
-1.140, 2.585e-5
-1.141, 2.594e-5
-1.142, 2.604e-5
-1.143, 2.607e-5
-1.144, 2.600e-5
-1.145, 2.606e-5
-1.146, 2.618e-5
-1.147, 2.632e-5
-1.148, 2.640e-5
-1.149, 2.637e-5
-1.150, 2.647e-5
-1.151, 2.661e-5
-1.152, 2.673e-5
-1.153, 2.679e-5
-1.154, 2.674e-5
-1.155, 2.682e-5
-1.156, 2.694e-5
-1.157, 2.706e-5
-1.158, 2.715e-5
-1.159, 2.720e-5
-1.160, 2.726e-5
-1.161, 2.739e-5
-1.162, 2.749e-5
-1.163, 2.755e-5
-1.164, 2.759e-5
-1.165, 2.759e-5
-1.166, 2.775e-5
-1.167, 2.786e-5
-1.168, 2.786e-5
-1.169, 2.789e-5
-1.170, 2.796e-5
-1.171, 2.808e-5
-1.172, 2.824e-5
-1.173, 2.823e-5
-1.174, 2.829e-5
-1.175, 2.834e-5
-1.176, 2.845e-5
-1.177, 2.857e-5
-1.178, 2.865e-5
-1.179, 2.869e-5
-1.180, 2.874e-5
-1.181, 2.893e-5
-1.182, 2.906e-5
-1.183, 2.916e-5
-1.184, 2.919e-5
-1.185, 2.920e-5
-1.186, 2.934e-5
-1.187, 2.948e-5
-1.188, 2.957e-5
-1.189, 2.961e-5
-1.190, 2.970e-5
-1.191, 2.987e-5
-1.192, 2.997e-5
-1.193, 3.003e-5
-1.194, 3.012e-5
-1.195, 3.018e-5
-1.196, 3.031e-5
-1.197, 3.052e-5
-1.198, 3.056e-5
-1.199, 3.063e-5
-1.200, 3.081e-5
-1.201, 3.097e-5
-1.202, 3.112e-5
-1.203, 3.115e-5
-1.204, 3.114e-5
-1.205, 3.125e-5
-1.206, 3.145e-5
-1.207, 3.159e-5
-1.208, 3.166e-5
-1.209, 3.169e-5
-1.210, 3.188e-5
-1.211, 3.203e-5
-1.212, 3.219e-5
-1.213, 3.228e-5
-1.214, 3.232e-5
-1.215, 3.243e-5
-1.216, 3.262e-5
-1.217, 3.277e-5
-1.218, 3.284e-5
-1.219, 3.292e-5
-1.220, 3.299e-5
-1.221, 3.322e-5
-1.222, 3.336e-5
-1.223, 3.350e-5
-1.224, 3.355e-5
-1.225, 3.366e-5
-1.226, 3.385e-5
-1.227, 3.396e-5
-1.228, 3.408e-5
-1.229, 3.410e-5
-1.230, 3.419e-5
-1.231, 3.441e-5
-1.232, 3.463e-5
-1.233, 3.472e-5
-1.234, 3.478e-5
-1.235, 3.485e-5
-1.236, 3.498e-5
-1.237, 3.509e-5
-1.238, 3.522e-5
-1.239, 3.530e-5
-1.240, 3.537e-5
-1.241, 3.561e-5
-1.242, 3.580e-5
-1.243, 3.585e-5
-1.244, 3.597e-5
-1.245, 3.599e-5
-1.246, 3.616e-5
-1.247, 3.636e-5
-1.248, 3.641e-5
-1.249, 3.651e-5
-1.250, 3.664e-5
-1.251, 3.678e-5
-1.252, 3.694e-5
-1.253, 3.698e-5
-1.254, 3.706e-5
-1.255, 3.719e-5
-1.256, 3.726e-5
-1.257, 3.741e-5
-1.258, 3.751e-5
-1.259, 3.759e-5
-1.260, 3.769e-5
-1.261, 3.780e-5
-1.262, 3.800e-5
-1.263, 3.803e-5
-1.264, 3.810e-5
-1.265, 3.821e-5
-1.266, 3.834e-5
-1.267, 3.848e-5
-1.268, 3.848e-5
-1.269, 3.859e-5
-1.270, 3.864e-5
-1.271, 3.879e-5
-1.272, 3.896e-5
-1.273, 3.895e-5
-1.274, 3.903e-5
-1.275, 3.910e-5
-1.276, 3.926e-5
-1.277, 3.935e-5
-1.278, 3.936e-5
-1.279, 3.937e-5
-1.280, 3.939e-5
-1.281, 3.956e-5
-1.282, 3.969e-5
-1.283, 3.969e-5
-1.284, 3.962e-5
-1.285, 3.946e-5
-1.286, 3.931e-5
-1.287, 3.939e-5
-1.288, 3.942e-5
-1.289, 3.919e-5
-1.290, 3.855e-5
-1.291, 3.870e-5
-1.292, 3.891e-5
-1.293, 3.893e-5
-1.294, 3.893e-5
-1.295, 3.907e-5
-1.296, 3.915e-5
-1.297, 3.932e-5
-1.298, 3.934e-5
-1.299, 3.937e-5
-1.300, 3.949e-5
-1.301, 3.959e-5
-1.302, 3.977e-5
-1.303, 3.979e-5
-1.304, 3.984e-5
-1.305, 3.995e-5
-1.306, 4.005e-5
-1.307, 4.025e-5
-1.308, 4.036e-5
-1.309, 4.039e-5
-1.310, 4.035e-5
-1.311, 4.047e-5
-1.312, 4.063e-5
-1.313, 4.067e-5
-1.314, 4.083e-5
-1.315, 4.089e-5
-1.316, 4.118e-5
-1.317, 4.139e-5
-1.318, 4.144e-5
-1.319, 4.157e-5
-1.320, 4.166e-5
-1.321, 4.186e-5
-1.322, 4.205e-5
-1.323, 4.212e-5
-1.324, 4.228e-5
-1.325, 4.241e-5
-1.326, 4.259e-5
-1.327, 4.276e-5
-1.328, 4.289e-5
-1.329, 4.295e-5
-1.330, 4.314e-5
-1.331, 4.337e-5
-1.332, 4.361e-5
-1.333, 4.372e-5
-1.334, 4.383e-5
-1.335, 4.398e-5
-1.336, 4.426e-5
-1.337, 4.447e-5
-1.338, 4.463e-5
-1.339, 4.478e-5
-1.340, 4.499e-5
-1.341, 4.523e-5
-1.342, 4.546e-5
-1.343, 4.556e-5
-1.344, 4.573e-5
-1.345, 4.588e-5
-1.346, 4.616e-5
-1.347, 4.646e-5
-1.348, 4.663e-5
-1.349, 4.680e-5
-1.350, 4.694e-5
-1.351, 4.705e-5
-1.352, 4.726e-5
-1.353, 4.739e-5
-1.354, 4.764e-5
-1.355, 4.787e-5
-1.356, 4.825e-5
-1.357, 4.852e-5
-1.358, 4.861e-5
-1.359, 4.883e-5
-1.360, 4.907e-5
-1.361, 4.936e-5
-1.362, 4.966e-5
-1.363, 4.991e-5
-1.364, 5.018e-5
-1.365, 5.043e-5
-1.366, 5.078e-5
-1.367, 5.113e-5
-1.368, 5.135e-5
-1.369, 5.159e-5
-1.370, 5.194e-5
-1.371, 5.227e-5
-1.372, 5.264e-5
-1.373, 5.290e-5
-1.374, 5.320e-5
-1.375, 5.353e-5
-1.376, 5.389e-5
-1.377, 5.423e-5
-1.378, 5.433e-5
-1.379, 5.462e-5
-1.380, 5.506e-5
-1.381, 5.556e-5
-1.382, 5.598e-5
-1.383, 5.627e-5
-1.384, 5.659e-5
-1.385, 5.693e-5
-1.386, 5.740e-5
-1.387, 5.778e-5
-1.388, 5.741e-5
-1.389, 5.701e-5
-1.390, 5.705e-5
-1.391, 5.743e-5
-1.392, 5.785e-5
-1.393, 5.819e-5
-1.394, 5.861e-5
-1.395, 5.896e-5
-1.396, 5.935e-5
-1.397, 5.974e-5
-1.398, 6.010e-5
-1.399, 6.041e-5
-1.400, 5.916e-5
-1.399, 5.770e-5
-1.398, 5.677e-5
-1.397, 5.583e-5
-1.396, 5.494e-5
-1.395, 5.420e-5
-1.394, 5.353e-5
-1.393, 5.283e-5
-1.392, 5.210e-5
-1.391, 5.135e-5
-1.390, 5.070e-5
-1.389, 5.014e-5
-1.388, 4.957e-5
-1.387, 4.890e-5
-1.386, 4.826e-5
-1.385, 4.765e-5
-1.384, 4.710e-5
-1.383, 4.661e-5
-1.382, 4.596e-5
-1.381, 4.539e-5
-1.380, 4.479e-5
-1.379, 4.425e-5
-1.378, 4.382e-5
-1.377, 4.322e-5
-1.376, 4.264e-5
-1.375, 4.216e-5
-1.374, 4.163e-5
-1.373, 4.125e-5
-1.372, 4.071e-5
-1.371, 4.012e-5
-1.370, 3.967e-5
-1.369, 3.926e-5
-1.368, 3.880e-5
-1.367, 3.826e-5
-1.366, 3.773e-5
-1.365, 3.728e-5
-1.364, 3.692e-5
-1.363, 3.655e-5
-1.362, 3.608e-5
-1.361, 3.561e-5
-1.360, 3.523e-5
-1.359, 3.486e-5
-1.358, 3.450e-5
-1.357, 3.408e-5
-1.356, 3.359e-5
-1.355, 3.318e-5
-1.354, 3.288e-5
-1.353, 3.250e-5
-1.352, 3.216e-5
-1.351, 3.165e-5
-1.350, 3.132e-5
-1.349, 3.101e-5
-1.348, 3.068e-5
-1.347, 3.030e-5
-1.346, 2.984e-5
-1.345, 2.956e-5
-1.344, 2.930e-5
-1.343, 2.895e-5
-1.342, 2.863e-5
-1.341, 2.823e-5
-1.340, 2.787e-5
-1.339, 2.762e-5
-1.338, 2.726e-5
-1.337, 2.691e-5
-1.336, 2.651e-5
-1.335, 2.622e-5
-1.334, 2.597e-5
-1.333, 2.570e-5
-1.332, 2.541e-5
-1.331, 2.504e-5
-1.330, 2.472e-5
-1.329, 2.449e-5
-1.328, 2.425e-5
-1.327, 2.390e-5
-1.326, 2.359e-5
-1.325, 2.330e-5
-1.324, 2.307e-5
-1.323, 2.286e-5
-1.322, 2.257e-5
-1.321, 2.224e-5
-1.320, 2.192e-5
-1.319, 2.178e-5
-1.318, 2.153e-5
-1.317, 2.120e-5
-1.316, 2.095e-5
-1.315, 2.066e-5
-1.314, 2.052e-5
-1.313, 2.032e-5
-1.312, 2.004e-5
-1.311, 1.976e-5
-1.310, 1.948e-5
-1.309, 1.934e-5
-1.308, 1.916e-5
-1.307, 1.890e-5
-1.306, 1.861e-5
-1.305, 1.838e-5
-1.304, 1.822e-5
-1.303, 1.808e-5
-1.302, 1.779e-5
-1.301, 1.756e-5
-1.300, 1.734e-5
-1.299, 1.721e-5
-1.298, 1.707e-5
-1.297, 1.679e-5
-1.296, 1.657e-5
-1.295, 1.636e-5
-1.294, 1.618e-5
-1.293, 1.607e-5
-1.292, 1.580e-5
-1.291, 1.556e-5
-1.290, 1.543e-5
-1.289, 1.529e-5
-1.288, 1.519e-5
-1.287, 1.492e-5
-1.286, 1.467e-5
-1.285, 1.456e-5
-1.284, 1.443e-5
-1.283, 1.428e-5
-1.282, 1.411e-5
-1.281, 1.385e-5
-1.280, 1.371e-5
-1.279, 1.363e-5
-1.278, 1.349e-5
-1.277, 1.333e-5
-1.276, 1.310e-5
-1.275, 1.296e-5
-1.274, 1.287e-5
-1.273, 1.272e-5
-1.272, 1.262e-5
-1.271, 1.234e-5
-1.270, 1.219e-5
-1.269, 1.217e-5
-1.268, 1.201e-5
-1.267, 1.184e-5
-1.266, 1.164e-5
-1.265, 1.150e-5
-1.264, 1.147e-5
-1.263, 1.136e-5
-1.262, 1.118e-5
-1.261, 1.096e-5
-1.260, 1.082e-5
-1.259, 1.080e-5
-1.258, 1.073e-5
-1.257, 1.055e-5
-1.256, 1.037e-5
-1.255, 1.023e-5
-1.254, 1.019e-5
-1.253, 1.009e-5
-1.252, 9.931e-6
-1.251, 9.778e-6
-1.250, 9.669e-6
-1.249, 9.592e-6
-1.248, 9.512e-6
-1.247, 9.381e-6
-1.246, 9.211e-6
-1.245, 9.086e-6
-1.244, 9.074e-6
-1.243, 8.980e-6
-1.242, 8.803e-6
-1.241, 8.670e-6
-1.240, 8.543e-6
-1.239, 8.476e-6
-1.238, 8.415e-6
-1.237, 8.283e-6
-1.236, 8.158e-6
-1.235, 7.988e-6
-1.234, 7.992e-6
-1.233, 7.917e-6
-1.232, 7.786e-6
-1.231, 7.659e-6
-1.230, 7.550e-6
-1.229, 7.474e-6
-1.228, 7.452e-6
-1.227, 7.282e-6
-1.226, 7.158e-6
-1.225, 7.035e-6
-1.224, 6.980e-6
-1.223, 6.924e-6
-1.222, 6.768e-6
-1.221, 6.651e-6
-1.220, 6.568e-6
-1.219, 6.490e-6
-1.218, 6.447e-6
-1.217, 6.336e-6
-1.216, 6.157e-6
-1.215, 6.099e-6
-1.214, 6.036e-6
-1.213, 5.999e-6
-1.212, 5.880e-6
-1.211, 5.736e-6
-1.210, 5.654e-6
-1.209, 5.609e-6
-1.208, 5.551e-6
-1.207, 5.491e-6
-1.206, 5.287e-6
-1.205, 5.200e-6
-1.204, 5.178e-6
-1.203, 5.101e-6
-1.202, 5.064e-6
-1.201, 4.867e-6
-1.200, 4.782e-6
-1.199, 4.804e-6
-1.198, 4.710e-6
-1.197, 4.621e-6
-1.196, 4.446e-6
-1.195, 4.377e-6
-1.194, 4.370e-6
-1.193, 4.254e-6
-1.192, 4.256e-6
-1.191, 4.064e-6
-1.190, 3.983e-6
-1.189, 3.979e-6
-1.188, 3.908e-6
-1.187, 3.777e-6
-1.186, 3.659e-6
-1.185, 3.530e-6
-1.184, 3.555e-6
-1.183, 3.517e-6
-1.182, 3.405e-6
-1.181, 3.264e-6
-1.180, 3.171e-6
-1.179, 3.175e-6
-1.178, 3.114e-6
-1.177, 2.956e-6
-1.176, 2.883e-6
-1.175, 2.755e-6
-1.174, 2.765e-6
-1.173, 2.752e-6
-1.172, 2.616e-6
-1.171, 2.479e-6
-1.170, 2.418e-6
-1.169, 2.353e-6
-1.168, 2.356e-6
-1.167, 2.231e-6
-1.166, 2.076e-6
-1.165, 2.001e-6
-1.164, 1.970e-6
-1.163, 1.991e-6
-1.162, 1.842e-6
-1.161, 1.681e-6
-1.160, 1.642e-6
-1.159, 1.594e-6
-1.158, 1.581e-6
-1.157, 1.505e-6
-1.156, 1.324e-6
-1.155, 1.275e-6
-1.154, 1.231e-6
-1.153, 1.177e-6
-1.152, 1.076e-6
-1.151, 9.252e-7
-1.150, 8.631e-7
-1.149, 8.493e-7
-1.148, 8.226e-7
-1.147, 7.200e-7
-1.146, 5.681e-7
-1.145, 4.467e-7
-1.144, 4.813e-7
-1.143, 4.191e-7
-1.142, 2.800e-7
-1.141, 2.080e-7
-1.140, 1.162e-7
-1.139, 9.846e-8
-1.138, 3.927e-8
-1.137, -4.065e-8
-1.136, -1.709e-7
-1.135, -2.666e-7
-1.134, -2.932e-7
-1.133, -3.465e-7
-1.132, -4.580e-7
-1.131, -5.537e-7
-1.130, -6.247e-7
-1.129, -6.681e-7
-1.128, -6.997e-7
-1.127, -8.358e-7
-1.126, -9.513e-7
-1.125, -1.042e-6
-1.124, -1.076e-6
-1.123, -1.053e-6
-1.122, -1.251e-6
-1.121, -1.312e-6
-1.120, -1.416e-6
-1.119, -1.462e-6
-1.118, -1.482e-6
-1.117, -1.597e-6
-1.116, -1.704e-6
-1.115, -1.801e-6
-1.114, -1.839e-6
-1.113, -1.887e-6
-1.112, -2.025e-6
-1.111, -2.144e-6
-1.110, -2.184e-6
-1.109, -2.230e-6
-1.108, -2.276e-6
-1.107, -2.393e-6
-1.106, -2.557e-6
-1.105, -2.610e-6
-1.104, -2.622e-6
-1.103, -2.675e-6
-1.102, -2.731e-6
-1.101, -2.885e-6
-1.100, -2.981e-6
-1.099, -3.048e-6
-1.098, -3.108e-6
-1.097, -3.154e-6
-1.096, -3.358e-6
-1.095, -3.385e-6
-1.094, -3.426e-6
-1.093, -3.535e-6
-1.092, -3.576e-6
-1.091, -3.759e-6
-1.090, -3.810e-6
-1.089, -3.862e-6
-1.088, -3.936e-6
-1.087, -4.042e-6
-1.086, -4.167e-6
-1.085, -4.231e-6
-1.084, -4.283e-6
-1.083, -4.376e-6
-1.082, -4.474e-6
-1.081, -4.596e-6
-1.080, -4.720e-6
-1.079, -4.714e-6
-1.078, -4.774e-6
-1.077, -4.907e-6
-1.076, -5.033e-6
-1.075, -5.173e-6
-1.074, -5.215e-6
-1.073, -5.261e-6
-1.072, -5.370e-6
-1.071, -5.467e-6
-1.070, -5.596e-6
-1.069, -5.632e-6
-1.068, -5.656e-6
-1.067, -5.827e-6
-1.066, -5.922e-6
-1.065, -6.019e-6
-1.064, -6.047e-6
-1.063, -6.087e-6
-1.062, -6.222e-6
-1.061, -6.363e-6
-1.060, -6.448e-6
-1.059, -6.488e-6
-1.058, -6.537e-6
-1.057, -6.660e-6
-1.056, -6.746e-6
-1.055, -6.871e-6
-1.054, -6.871e-6
-1.053, -6.941e-6
-1.052, -7.044e-6
-1.051, -7.161e-6
-1.050, -7.224e-6
-1.049, -7.259e-6
-1.048, -7.274e-6
-1.047, -7.422e-6
-1.046, -7.535e-6
-1.045, -7.628e-6
-1.044, -7.647e-6
-1.043, -7.656e-6
-1.042, -7.796e-6
-1.041, -7.900e-6
-1.040, -7.963e-6
-1.039, -8.000e-6
-1.038, -8.022e-6
-1.037, -8.125e-6
-1.036, -8.214e-6
-1.035, -8.291e-6
-1.034, -8.288e-6
-1.033, -8.301e-6
-1.032, -8.386e-6
-1.031, -8.471e-6
-1.030, -8.524e-6
-1.029, -8.520e-6
-1.028, -8.537e-6
-1.027, -8.639e-6
-1.026, -8.690e-6
-1.025, -8.777e-6
-1.024, -8.777e-6
-1.023, -8.782e-6
-1.022, -8.896e-6
-1.021, -8.906e-6
-1.020, -8.955e-6
-1.019, -8.958e-6
-1.018, -8.906e-6
-1.017, -8.988e-6
-1.016, -9.042e-6
-1.015, -9.074e-6
-1.014, -9.072e-6
-1.013, -9.035e-6
-1.012, -9.136e-6
-1.011, -9.166e-6
-1.010, -9.214e-6
-1.009, -9.183e-6
-1.008, -9.155e-6
-1.007, -9.241e-6
-1.006, -9.310e-6
-1.005, -9.299e-6
-1.004, -9.279e-6
-1.003, -9.258e-6
-1.002, -9.284e-6
-1.001, -9.350e-6
-1.000, -8.486e-6
-1.001, -7.445e-6
-1.002, -6.679e-6
-1.003, -6.228e-6
-1.004, -5.736e-6
-1.005, -5.249e-6
-1.006, -4.881e-6
-1.007, -4.431e-6
-1.008, -4.157e-6
-1.009, -3.840e-6
-1.010, -3.515e-6
-1.011, -3.279e-6
-1.012, -2.954e-6
-1.013, -2.715e-6
-1.014, -2.536e-6
-1.015, -2.245e-6
-1.016, -2.019e-6
-1.017, -1.748e-6
-1.018, -1.539e-6
-1.019, -1.428e-6
-1.020, -1.206e-6
-1.021, -9.582e-7
-1.022, -7.658e-7
-1.023, -6.079e-7
-1.024, -4.639e-7
-1.025, -2.686e-7
-1.026, -8.110e-8
-1.027, 7.182e-8
-1.028, 2.395e-7
-1.029, 2.997e-7
-1.030, 5.474e-7
-1.031, 6.904e-7
-1.032, 8.256e-7
-1.033, 9.746e-7
-1.034, 1.068e-6
-1.035, 1.187e-6
-1.036, 1.365e-6
-1.037, 1.515e-6
-1.038, 1.658e-6
-1.039, 1.735e-6
-1.040, 1.855e-6
-1.041, 2.024e-6
-1.042, 2.157e-6
-1.043, 2.272e-6
-1.044, 2.328e-6
-1.045, 2.435e-6
-1.046, 2.584e-6
-1.047, 2.735e-6
-1.048, 2.807e-6
-1.049, 2.889e-6
-1.050, 2.973e-6
-1.051, 3.120e-6
-1.052, 3.259e-6
-1.053, 3.335e-6
-1.054, 3.418e-6
-1.055, 3.490e-6
-1.056, 3.671e-6
-1.057, 3.746e-6
-1.058, 3.814e-6
-1.059, 3.902e-6
-1.060, 4.002e-6
-1.061, 4.159e-6
-1.062, 4.254e-6
-1.063, 4.364e-6
-1.064, 4.349e-6
-1.065, 4.476e-6
-1.066, 4.630e-6
-1.067, 4.695e-6
-1.068, 4.764e-6
-1.069, 4.794e-6
-1.070, 4.882e-6
-1.071, 5.086e-6
-1.072, 5.244e-6
-1.073, 5.205e-6
-1.074, 5.263e-6
-1.075, 5.356e-6
-1.076, 5.485e-6
-1.077, 5.606e-6
-1.078, 5.605e-6
-1.079, 5.698e-6
-1.080, 5.725e-6
-1.081, 5.860e-6
-1.082, 5.978e-6
-1.083, 5.976e-6
-1.084, 6.080e-6
-1.085, 6.137e-6
-1.086, 6.266e-6
-1.087, 6.355e-6
-1.088, 6.415e-6
-1.089, 6.415e-6
-1.090, 6.522e-6
-1.091, 6.635e-6
-1.092, 6.760e-6
-1.093, 6.812e-6
-1.094, 6.840e-6
-1.095, 6.895e-6
-1.096, 6.958e-6
-1.097, 7.082e-6
-1.098, 7.162e-6
-1.099, 7.149e-6
-1.100, 7.233e-6
-1.101, 7.388e-6
-1.102, 7.479e-6
-1.103, 7.551e-6
-1.104, 7.554e-6
-1.105, 7.600e-6
-1.106, 7.693e-6
-1.107, 7.778e-6
-1.108, 7.873e-6
-1.109, 7.839e-6
-1.110, 7.939e-6
-1.111, 8.109e-6
-1.112, 8.122e-6
-1.113, 8.177e-6
-1.114, 8.194e-6
-1.115, 8.273e-6
-1.116, 8.385e-6
-1.117, 8.471e-6
-1.118, 8.525e-6
-1.119, 8.543e-6
-1.120, 8.617e-6
-1.121, 8.758e-6
-1.122, 8.791e-6
-1.123, 8.863e-6
-1.124, 8.889e-6
-1.125, 8.939e-6
-1.126, 9.041e-6
-1.127, 9.148e-6
-1.128, 9.148e-6
-1.129, 9.216e-6
-1.130, 9.275e-6
-1.131, 9.384e-6
-1.132, 9.460e-6
-1.133, 9.496e-6
-1.134, 9.497e-6
-1.135, 9.551e-6
-1.136, 9.696e-6
-1.137, 9.767e-6
-1.138, 9.827e-6
-1.139, 9.884e-6
-1.140, 9.945e-6
-1.141, 9.986e-6
-1.142, 1.010e-5
-1.143, 1.011e-5
-1.144, 1.014e-5
-1.145, 1.019e-5
-1.146, 1.030e-5
-1.147, 1.042e-5
-1.148, 1.042e-5
-1.149, 1.050e-5
-1.150, 1.050e-5
-1.151, 1.062e-5
-1.152, 1.070e-5
-1.153, 1.076e-5
-1.154, 1.077e-5
-1.155, 1.081e-5
-1.156, 1.094e-5
-1.157, 1.101e-5
-1.158, 1.104e-5
-1.159, 1.108e-5
-1.160, 1.110e-5
-1.161, 1.130e-5
-1.162, 1.135e-5
-1.163, 1.134e-5
-1.164, 1.142e-5
-1.165, 1.146e-5
-1.166, 1.154e-5
-1.167, 1.166e-5
-1.168, 1.175e-5
-1.169, 1.178e-5
-1.170, 1.182e-5
-1.171, 1.190e-5
-1.172, 1.193e-5
-1.173, 1.193e-5
-1.174, 1.200e-5
-1.175, 1.204e-5
-1.176, 1.213e-5
-1.177, 1.223e-5
-1.178, 1.229e-5
-1.179, 1.228e-5
-1.180, 1.236e-5
-1.181, 1.241e-5
-1.182, 1.252e-5
-1.183, 1.258e-5
-1.184, 1.261e-5
-1.185, 1.265e-5
-1.186, 1.273e-5
-1.187, 1.285e-5
-1.188, 1.287e-5
-1.189, 1.289e-5
-1.190, 1.300e-5
-1.191, 1.307e-5
-1.192, 1.319e-5
-1.193, 1.318e-5
-1.194, 1.324e-5
-1.195, 1.328e-5
-1.196, 1.339e-5
-1.197, 1.350e-5
-1.198, 1.353e-5
-1.199, 1.351e-5
-1.200, 1.357e-5
-1.201, 1.367e-5
-1.202, 1.380e-5
-1.203, 1.385e-5
-1.204, 1.385e-5
-1.205, 1.393e-5
-1.206, 1.402e-5
-1.207, 1.414e-5
-1.208, 1.418e-5
-1.209, 1.420e-5
-1.210, 1.432e-5
-1.211, 1.441e-5
-1.212, 1.445e-5
-1.213, 1.449e-5
-1.214, 1.449e-5
-1.215, 1.457e-5
-1.216, 1.470e-5
-1.217, 1.484e-5
-1.218, 1.489e-5
-1.219, 1.483e-5
-1.220, 1.493e-5
-1.221, 1.500e-5
-1.222, 1.512e-5
-1.223, 1.516e-5
-1.224, 1.517e-5
-1.225, 1.522e-5
-1.226, 1.534e-5
-1.227, 1.547e-5
-1.228, 1.559e-5
-1.229, 1.559e-5
-1.230, 1.560e-5
-1.231, 1.570e-5
-1.232, 1.577e-5
-1.233, 1.586e-5
-1.234, 1.589e-5
-1.235, 1.599e-5
-1.236, 1.606e-5
-1.237, 1.610e-5
-1.238, 1.617e-5
-1.239, 1.622e-5
-1.240, 1.626e-5
-1.241, 1.640e-5
-1.242, 1.648e-5
-1.243, 1.653e-5
-1.244, 1.657e-5
-1.245, 1.659e-5
-1.246, 1.675e-5
-1.247, 1.685e-5
-1.248, 1.689e-5
-1.249, 1.692e-5
-1.250, 1.698e-5
-1.251, 1.712e-5
-1.252, 1.717e-5
-1.253, 1.726e-5
-1.254, 1.728e-5
-1.255, 1.737e-5
-1.256, 1.746e-5
-1.257, 1.757e-5
-1.258, 1.761e-5
-1.259, 1.765e-5
-1.260, 1.770e-5
-1.261, 1.787e-5
-1.262, 1.797e-5
-1.263, 1.801e-5
-1.264, 1.807e-5
-1.265, 1.812e-5
-1.266, 1.826e-5
-1.267, 1.839e-5
-1.268, 1.842e-5
-1.269, 1.850e-5
-1.270, 1.856e-5
-1.271, 1.871e-5
-1.272, 1.881e-5
-1.273, 1.884e-5
-1.274, 1.895e-5
-1.275, 1.900e-5
-1.276, 1.912e-5
-1.277, 1.925e-5
-1.278, 1.931e-5
-1.279, 1.935e-5
-1.280, 1.941e-5
-1.281, 1.956e-5
-1.282, 1.973e-5
-1.283, 1.977e-5
-1.284, 1.985e-5
-1.285, 1.993e-5
-1.286, 2.007e-5
-1.287, 2.023e-5
-1.288, 2.023e-5
-1.289, 2.029e-5
-1.290, 2.039e-5
-1.291, 2.054e-5
-1.292, 2.071e-5
-1.293, 2.071e-5
-1.294, 2.078e-5
-1.295, 2.090e-5
-1.296, 2.100e-5
-1.297, 2.117e-5
-1.298, 2.124e-5
-1.299, 2.126e-5
-1.300, 2.147e-5
-1.301, 2.162e-5
-1.302, 2.171e-5
-1.303, 2.178e-5
-1.304, 2.180e-5
-1.305, 2.191e-5
-1.306, 2.202e-5
-1.307, 2.216e-5
-1.308, 2.229e-5
-1.309, 2.231e-5
-1.310, 2.241e-5
-1.311, 2.259e-5
-1.312, 2.274e-5
-1.313, 2.285e-5
-1.314, 2.290e-5
-1.315, 2.299e-5
-1.316, 2.321e-5
-1.317, 2.329e-5
-1.318, 2.344e-5
-1.319, 2.348e-5
-1.320, 2.359e-5
-1.321, 2.381e-5
-1.322, 2.392e-5
-1.323, 2.403e-5
-1.324, 2.414e-5
-1.325, 2.423e-5
-1.326, 2.441e-5
-1.327, 2.457e-5
-1.328, 2.469e-5
-1.329, 2.477e-5
-1.330, 2.487e-5
-1.331, 2.508e-5
-1.332, 2.526e-5
-1.333, 2.532e-5
-1.334, 2.543e-5
-1.335, 2.554e-5
-1.336, 2.575e-5
-1.337, 2.591e-5
-1.338, 2.598e-5
-1.339, 2.606e-5
-1.340, 2.619e-5
-1.341, 2.638e-5
-1.342, 2.661e-5
-1.343, 2.670e-5
-1.344, 2.679e-5
-1.345, 2.694e-5
-1.346, 2.711e-5
-1.347, 2.730e-5
-1.348, 2.734e-5
-1.349, 2.727e-5
-1.350, 2.735e-5
-1.351, 2.735e-5
-1.352, 2.751e-5
-1.353, 2.762e-5
-1.354, 2.773e-5
-1.355, 2.788e-5
-1.356, 2.809e-5
-1.357, 2.833e-5
-1.358, 2.849e-5
-1.359, 2.857e-5
-1.360, 2.875e-5
-1.361, 2.902e-5
-1.362, 2.919e-5
-1.363, 2.941e-5
-1.364, 2.950e-5
-1.365, 2.966e-5
-1.366, 2.995e-5
-1.367, 3.016e-5
-1.368, 3.033e-5
-1.369, 3.045e-5
-1.370, 3.059e-5
-1.371, 3.089e-5
-1.372, 3.113e-5
-1.373, 3.138e-5
-1.374, 3.149e-5
-1.375, 3.168e-5
-1.376, 3.200e-5
-1.377, 3.222e-5
-1.378, 3.244e-5
-1.379, 3.258e-5
-1.380, 3.281e-5
-1.381, 3.311e-5
-1.382, 3.333e-5
-1.383, 3.359e-5
-1.384, 3.382e-5
-1.385, 3.403e-5
-1.386, 3.433e-5
-1.387, 3.464e-5
-1.388, 3.485e-5
-1.389, 3.507e-5
-1.390, 3.535e-5
-1.391, 3.570e-5
-1.392, 3.600e-5
-1.393, 3.621e-5
-1.394, 3.642e-5
-1.395, 3.668e-5
-1.396, 3.703e-5
-1.397, 3.738e-5
-1.398, 3.760e-5
-1.399, 3.791e-5
-1.400, 3.673e-5
-1.399, 3.544e-5
-1.398, 3.465e-5
-1.397, 3.397e-5
-1.396, 3.336e-5
-1.395, 3.280e-5
-1.394, 3.241e-5
-1.393, 3.202e-5
-1.392, 3.157e-5
-1.391, 3.108e-5
-1.390, 3.074e-5
-1.389, 3.044e-5
-1.388, 3.011e-5
-1.387, 2.974e-5
-1.386, 2.932e-5
-1.385, 2.895e-5
-1.384, 2.873e-5
-1.383, 2.842e-5
-1.382, 2.806e-5
-1.381, 2.766e-5
-1.380, 2.732e-5
-1.379, 2.710e-5
-1.378, 2.687e-5
-1.377, 2.657e-5
-1.376, 2.620e-5
-1.375, 2.591e-5
-1.374, 2.571e-5
-1.373, 2.545e-5
-1.372, 2.522e-5
-1.371, 2.483e-5
-1.370, 2.453e-5
-1.369, 2.434e-5
-1.368, 2.412e-5
-1.367, 2.381e-5
-1.366, 2.349e-5
-1.365, 2.322e-5
-1.364, 2.299e-5
-1.363, 2.281e-5
-1.362, 2.255e-5
-1.361, 2.224e-5
-1.360, 2.200e-5
-1.359, 2.182e-5
-1.358, 2.166e-5
-1.357, 2.131e-5
-1.356, 2.106e-5
-1.355, 2.084e-5
-1.354, 2.067e-5
-1.353, 2.054e-5
-1.352, 2.024e-5
-1.351, 1.994e-5
-1.350, 1.972e-5
-1.349, 1.953e-5
-1.348, 1.939e-5
-1.347, 1.913e-5
-1.346, 1.887e-5
-1.345, 1.866e-5
-1.344, 1.851e-5
-1.343, 1.834e-5
-1.342, 1.810e-5
-1.341, 1.782e-5
-1.340, 1.760e-5
-1.339, 1.750e-5
-1.338, 1.733e-5
-1.337, 1.713e-5
-1.336, 1.687e-5
-1.335, 1.666e-5
-1.334, 1.651e-5
-1.333, 1.639e-5
-1.332, 1.617e-5
-1.331, 1.589e-5
-1.330, 1.572e-5
-1.329, 1.562e-5
-1.328, 1.544e-5
-1.327, 1.530e-5
-1.326, 1.500e-5
-1.325, 1.487e-5
-1.324, 1.475e-5
-1.323, 1.461e-5
-1.322, 1.445e-5
-1.321, 1.420e-5
-1.320, 1.407e-5
-1.319, 1.395e-5
-1.318, 1.383e-5
-1.317, 1.363e-5
-1.316, 1.339e-5
-1.315, 1.325e-5
-1.314, 1.316e-5
-1.313, 1.303e-5
-1.312, 1.284e-5
-1.311, 1.263e-5
-1.310, 1.250e-5
-1.309, 1.241e-5
-1.308, 1.229e-5
-1.307, 1.215e-5
-1.306, 1.192e-5
-1.305, 1.176e-5
-1.304, 1.173e-5
-1.303, 1.155e-5
-1.302, 1.140e-5
-1.301, 1.123e-5
-1.300, 1.110e-5
-1.299, 1.105e-5
-1.298, 1.094e-5
-1.297, 1.077e-5
-1.296, 1.058e-5
-1.295, 1.042e-5
-1.294, 1.037e-5
-1.293, 1.024e-5
-1.292, 1.009e-5
-1.291, 9.899e-6
-1.290, 9.774e-6
-1.289, 9.758e-6
-1.288, 9.656e-6
-1.287, 9.489e-6
-1.286, 9.343e-6
-1.285, 9.179e-6
-1.284, 9.161e-6
-1.283, 9.066e-6
-1.282, 8.928e-6
-1.281, 8.767e-6
-1.280, 8.622e-6
-1.279, 8.592e-6
-1.278, 8.499e-6
-1.277, 8.331e-6
-1.276, 8.218e-6
-1.275, 8.090e-6
-1.274, 8.044e-6
-1.273, 8.000e-6
-1.272, 7.858e-6
-1.271, 7.686e-6
-1.270, 7.573e-6
-1.269, 7.544e-6
-1.268, 7.499e-6
-1.267, 7.334e-6
-1.266, 7.184e-6
-1.265, 7.115e-6
-1.264, 7.080e-6
-1.263, 7.041e-6
-1.262, 6.879e-6
-1.261, 6.717e-6
-1.260, 6.628e-6
-1.259, 6.594e-6
-1.258, 6.532e-6
-1.257, 6.443e-6
-1.256, 6.293e-6
-1.255, 6.195e-6
-1.254, 6.142e-6
-1.253, 6.104e-6
-1.252, 5.980e-6
-1.251, 5.792e-6
-1.250, 5.746e-6
-1.249, 5.747e-6
-1.248, 5.643e-6
-1.247, 5.560e-6
-1.246, 5.454e-6
-1.245, 5.329e-6
-1.244, 5.364e-6
-1.243, 5.285e-6
-1.242, 5.022e-6
-1.241, 4.872e-6
-1.240, 4.823e-6
-1.239, 4.799e-6
-1.238, 4.757e-6
-1.237, 4.652e-6
-1.236, 4.512e-6
-1.235, 4.398e-6
-1.234, 4.392e-6
-1.233, 4.334e-6
-1.232, 4.223e-6
-1.231, 4.136e-6
-1.230, 4.057e-6
-1.229, 4.015e-6
-1.228, 3.948e-6
-1.227, 3.866e-6
-1.226, 3.756e-6
-1.225, 3.633e-6
-1.224, 3.679e-6
-1.223, 3.634e-6
-1.222, 3.500e-6
-1.221, 3.417e-6
-1.220, 3.299e-6
-1.219, 3.300e-6
-1.218, 3.259e-6
-1.217, 3.168e-6
-1.216, 3.055e-6
-1.215, 2.970e-6
-1.214, 2.953e-6
-1.213, 2.948e-6
-1.212, 2.833e-6
-1.211, 2.702e-6
-1.210, 2.666e-6
-1.209, 2.615e-6
-1.208, 2.603e-6
-1.207, 2.514e-6
-1.206, 2.396e-6
-1.205, 2.342e-6
-1.204, 2.317e-6
-1.203, 2.281e-6
-1.202, 2.192e-6
-1.201, 2.076e-6
-1.200, 2.074e-6
-1.199, 2.016e-6
-1.198, 1.964e-6
-1.197, 1.923e-6
-1.196, 1.784e-6
-1.195, 1.732e-6
-1.194, 1.722e-6
-1.193, 1.687e-6
-1.192, 1.630e-6
-1.191, 1.483e-6
-1.190, 1.434e-6
-1.189, 1.424e-6
-1.188, 1.415e-6
-1.187, 1.285e-6
-1.186, 1.182e-6
-1.185, 1.089e-6
-1.184, 1.125e-6
-1.183, 1.099e-6
-1.182, 9.903e-7
-1.181, 9.124e-7
-1.180, 8.236e-7
-1.179, 8.384e-7
-1.178, 8.147e-7
-1.177, 6.796e-7
-1.176, 5.957e-7
-1.175, 5.523e-7
-1.174, 5.118e-7
-1.173, 5.138e-7
-1.172, 4.083e-7
-1.171, 3.510e-7
-1.170, 2.662e-7
-1.169, 2.346e-7
-1.168, 2.642e-7
-1.167, 1.103e-7
-1.166, 4.519e-8
-1.165, 9.669e-9
-1.164, -6.630e-8
-1.163, -6.531e-8
-1.162, -1.225e-7
-1.161, -2.912e-7
-1.160, -3.159e-7
-1.159, -3.031e-7
-1.158, -3.268e-7
-1.157, -4.452e-7
-1.156, -5.379e-7
-1.155, -6.030e-7
-1.154, -5.902e-7
-1.153, -6.277e-7
-1.152, -7.224e-7
-1.151, -8.122e-7
-1.150, -8.901e-7
-1.149, -8.585e-7
-1.148, -8.852e-7
-1.147, -1.016e-6
-1.146, -1.071e-6
-1.145, -1.169e-6
-1.144, -1.144e-6
-1.143, -1.167e-6
-1.142, -1.260e-6
-1.141, -1.363e-6
-1.140, -1.454e-6
-1.139, -1.418e-6
-1.138, -1.451e-6
-1.137, -1.586e-6
-1.136, -1.643e-6
-1.135, -1.708e-6
-1.134, -1.725e-6
-1.133, -1.724e-6
-1.132, -1.844e-6
-1.131, -1.911e-6
-1.130, -2.008e-6
-1.129, -2.011e-6
-1.128, -1.977e-6
-1.127, -2.116e-6
-1.126, -2.203e-6
-1.125, -2.248e-6
-1.124, -2.283e-6
-1.123, -2.299e-6
-1.122, -2.378e-6
-1.121, -2.519e-6
-1.120, -2.514e-6
-1.119, -2.520e-6
-1.118, -2.558e-6
-1.117, -2.672e-6
-1.116, -2.790e-6
-1.115, -2.817e-6
-1.114, -2.827e-6
-1.113, -2.843e-6
-1.112, -2.941e-6
-1.111, -3.062e-6
-1.110, -3.073e-6
-1.109, -3.068e-6
-1.108, -3.149e-6
-1.107, -3.226e-6
-1.106, -3.311e-6
-1.105, -3.395e-6
-1.104, -3.388e-6
-1.103, -3.403e-6
-1.102, -3.486e-6
-1.101, -3.612e-6
-1.100, -3.674e-6
-1.099, -3.641e-6
-1.098, -3.717e-6
-1.097, -3.783e-6
-1.096, -3.849e-6
-1.095, -3.966e-6
-1.094, -3.943e-6
-1.093, -3.958e-6
-1.092, -4.066e-6
-1.091, -4.162e-6
-1.090, -4.224e-6
-1.089, -4.217e-6
-1.088, -4.265e-6
-1.087, -4.386e-6
-1.086, -4.456e-6
-1.085, -4.534e-6
-1.084, -4.537e-6
-1.083, -4.530e-6
-1.082, -4.660e-6
-1.081, -4.751e-6
-1.080, -4.793e-6
-1.079, -4.789e-6
-1.078, -4.853e-6
-1.077, -4.949e-6
-1.076, -5.045e-6
-1.075, -5.111e-6
-1.074, -5.115e-6
-1.073, -5.158e-6
-1.072, -5.228e-6
-1.071, -5.336e-6
-1.070, -5.380e-6
-1.069, -5.449e-6
-1.068, -5.429e-6
-1.067, -5.538e-6
-1.066, -5.655e-6
-1.065, -5.692e-6
-1.064, -5.716e-6
-1.063, -5.732e-6
-1.062, -5.813e-6
-1.061, -5.998e-6
-1.060, -5.993e-6
-1.059, -5.971e-6
-1.058, -6.055e-6
-1.057, -6.098e-6
-1.056, -6.259e-6
-1.055, -6.285e-6
-1.054, -6.262e-6
-1.053, -6.343e-6
-1.052, -6.379e-6
-1.051, -6.522e-6
-1.050, -6.531e-6
-1.049, -6.568e-6
-1.048, -6.585e-6
-1.047, -6.679e-6
-1.046, -6.766e-6
-1.045, -6.820e-6
-1.044, -6.807e-6
-1.043, -6.823e-6
-1.042, -6.932e-6
-1.041, -7.008e-6
-1.040, -7.095e-6
-1.039, -7.057e-6
-1.038, -7.101e-6
-1.037, -7.181e-6
-1.036, -7.254e-6
-1.035, -7.298e-6
-1.034, -7.338e-6
-1.033, -7.323e-6
-1.032, -7.423e-6
-1.031, -7.476e-6
-1.030, -7.533e-6
-1.029, -7.506e-6
-1.028, -7.526e-6
-1.027, -7.650e-6
-1.026, -7.665e-6
-1.025, -7.751e-6
-1.024, -7.776e-6
-1.023, -7.756e-6
-1.022, -7.855e-6
-1.021, -7.942e-6
-1.020, -7.992e-6
-1.019, -7.971e-6
-1.018, -7.977e-6
-1.017, -8.092e-6
-1.016, -8.118e-6
-1.015, -8.175e-6
-1.014, -8.164e-6
-1.013, -8.164e-6
-1.012, -8.268e-6
-1.011, -8.317e-6
-1.010, -8.384e-6
-1.009, -8.365e-6
-1.008, -8.374e-6
-1.007, -8.468e-6
-1.006, -8.510e-6
-1.005, -8.575e-6
-1.004, -8.583e-6
-1.003, -8.589e-6
-1.002, -8.667e-6
-1.001, -8.738e-6
-1.000, -7.904e-6
-1.001, -6.999e-6
-1.002, -6.384e-6
-1.003, -5.976e-6
-1.004, -5.541e-6
-1.005, -5.189e-6
-1.006, -4.836e-6
-1.007, -4.489e-6
-1.008, -4.279e-6
-1.009, -4.001e-6
-1.010, -3.734e-6
-1.011, -3.486e-6
-1.012, -3.217e-6
-1.013, -3.013e-6
-1.014, -2.842e-6
-1.015, -2.664e-6
-1.016, -2.414e-6
-1.017, -2.200e-6
-1.018, -2.020e-6
-1.019, -1.918e-6
-1.020, -1.745e-6
-1.021, -1.524e-6
-1.022, -1.358e-6
-1.023, -1.210e-6
-1.024, -1.099e-6
-1.025, -9.611e-7
-1.026, -7.451e-7
-1.027, -6.010e-7
-1.028, -4.452e-7
-1.029, -3.968e-7
-1.030, -2.449e-7
-1.031, -8.208e-8
-1.032, 4.617e-8
-1.033, 1.922e-7
-1.034, 2.593e-7
-1.035, 3.648e-7
-1.036, 5.336e-7
-1.037, 6.608e-7
-1.038, 7.575e-7
-1.039, 8.226e-7
-1.040, 9.469e-7
-1.041, 1.113e-6
-1.042, 1.192e-6
-1.043, 1.300e-6
-1.044, 1.372e-6
-1.045, 1.439e-6
-1.046, 1.599e-6
-1.047, 1.705e-6
-1.048, 1.799e-6
-1.049, 1.845e-6
-1.050, 1.976e-6
-1.051, 2.112e-6
-1.052, 2.206e-6
-1.053, 2.298e-6
-1.054, 2.331e-6
-1.055, 2.384e-6
-1.056, 2.544e-6
-1.057, 2.663e-6
-1.058, 2.704e-6
-1.059, 2.773e-6
-1.060, 2.843e-6
-1.061, 2.972e-6
-1.062, 3.111e-6
-1.063, 3.137e-6
-1.064, 3.209e-6
-1.065, 3.251e-6
-1.066, 3.411e-6
-1.067, 3.516e-6
-1.068, 3.523e-6
-1.069, 3.603e-6
-1.070, 3.673e-6
-1.071, 3.799e-6
-1.072, 3.916e-6
-1.073, 3.912e-6
-1.074, 3.997e-6
-1.075, 4.070e-6
-1.076, 4.170e-6
-1.077, 4.266e-6
-1.078, 4.293e-6
-1.079, 4.351e-6
-1.080, 4.418e-6
-1.081, 4.532e-6
-1.082, 4.649e-6
-1.083, 4.679e-6
-1.084, 4.670e-6
-1.085, 4.767e-6
-1.086, 4.888e-6
-1.087, 4.991e-6
-1.088, 5.045e-6
-1.089, 5.064e-6
-1.090, 5.114e-6
-1.091, 5.241e-6
-1.092, 5.340e-6
-1.093, 5.350e-6
-1.094, 5.405e-6
-1.095, 5.484e-6
-1.096, 5.568e-6
-1.097, 5.653e-6
-1.098, 5.695e-6
-1.099, 5.720e-6
-1.100, 5.794e-6
-1.101, 5.912e-6
-1.102, 5.977e-6
-1.103, 6.045e-6
-1.104, 6.061e-6
-1.105, 6.154e-6
-1.106, 6.224e-6
-1.107, 6.314e-6
-1.108, 6.356e-6
-1.109, 6.366e-6
-1.110, 6.414e-6
-1.111, 6.560e-6
-1.112, 6.628e-6
-1.113, 6.655e-6
-1.114, 6.704e-6
-1.115, 6.741e-6
-1.116, 6.857e-6
-1.117, 6.932e-6
-1.118, 6.950e-6
-1.119, 6.982e-6
-1.120, 7.045e-6
-1.121, 7.152e-6
-1.122, 7.207e-6
-1.123, 7.265e-6
-1.124, 7.312e-6
-1.125, 7.308e-6
-1.126, 7.402e-6
-1.127, 7.507e-6
-1.128, 7.515e-6
-1.129, 7.555e-6
-1.130, 7.630e-6
-1.131, 7.731e-6
-1.132, 7.807e-6
-1.133, 7.815e-6
-1.134, 7.872e-6
-1.135, 7.916e-6
-1.136, 8.010e-6
-1.137, 8.100e-6
-1.138, 8.087e-6
-1.139, 8.138e-6
-1.140, 8.195e-6
-1.141, 8.281e-6
-1.142, 8.374e-6
-1.143, 8.388e-6
-1.144, 8.402e-6
-1.145, 8.480e-6
-1.146, 8.582e-6
-1.147, 8.618e-6
-1.148, 8.655e-6
-1.149, 8.678e-6
-1.150, 8.775e-6
-1.151, 8.846e-6
-1.152, 8.913e-6
-1.153, 8.984e-6
-1.154, 8.942e-6
-1.155, 9.022e-6
-1.156, 9.104e-6
-1.157, 9.177e-6
-1.158, 9.227e-6
-1.159, 9.224e-6
-1.160, 9.323e-6
-1.161, 9.361e-6
-1.162, 9.462e-6
-1.163, 9.523e-6
-1.164, 9.472e-6
-1.165, 9.618e-6
-1.166, 9.687e-6
-1.167, 9.734e-6
-1.168, 9.805e-6
-1.169, 9.853e-6
-1.170, 9.885e-6
-1.171, 9.979e-6
-1.172, 1.002e-5
-1.173, 1.007e-5
-1.174, 1.007e-5
-1.175, 1.014e-5
-1.176, 1.026e-5
-1.177, 1.033e-5
-1.178, 1.037e-5
-1.179, 1.036e-5
-1.180, 1.040e-5
-1.181, 1.054e-5
-1.182, 1.062e-5
-1.183, 1.063e-5
-1.184, 1.062e-5
-1.185, 1.073e-5
-1.186, 1.085e-5
-1.187, 1.087e-5
-1.188, 1.093e-5
-1.189, 1.092e-5
-1.190, 1.098e-5
-1.191, 1.113e-5
-1.192, 1.117e-5
-1.193, 1.115e-5
-1.194, 1.121e-5
-1.195, 1.127e-5
-1.196, 1.139e-5
-1.197, 1.142e-5
-1.198, 1.145e-5
-1.199, 1.148e-5
-1.200, 1.156e-5
-1.201, 1.163e-5
-1.202, 1.172e-5
-1.203, 1.174e-5
-1.204, 1.175e-5
-1.205, 1.183e-5
-1.206, 1.194e-5
-1.207, 1.201e-5
-1.208, 1.205e-5
-1.209, 1.203e-5
-1.210, 1.212e-5
-1.211, 1.226e-5
-1.212, 1.229e-5
-1.213, 1.231e-5
-1.214, 1.238e-5
-1.215, 1.243e-5
-1.216, 1.253e-5
-1.217, 1.263e-5
-1.218, 1.264e-5
-1.219, 1.268e-5
-1.220, 1.272e-5
-1.221, 1.283e-5
-1.222, 1.291e-5
-1.223, 1.290e-5
-1.224, 1.293e-5
-1.225, 1.300e-5
-1.226, 1.311e-5
-1.227, 1.323e-5
-1.228, 1.326e-5
-1.229, 1.331e-5
-1.230, 1.331e-5
-1.231, 1.345e-5
-1.232, 1.354e-5
-1.233, 1.351e-5
-1.234, 1.358e-5
-1.235, 1.363e-5
-1.236, 1.372e-5
-1.237, 1.384e-5
-1.238, 1.389e-5
-1.239, 1.388e-5
-1.240, 1.396e-5
-1.241, 1.409e-5
-1.242, 1.416e-5
-1.243, 1.418e-5
-1.244, 1.424e-5
-1.245, 1.430e-5
-1.246, 1.439e-5
-1.247, 1.449e-5
-1.248, 1.450e-5
-1.249, 1.457e-5
-1.250, 1.462e-5
-1.251, 1.473e-5
-1.252, 1.486e-5
-1.253, 1.485e-5
-1.254, 1.494e-5
-1.255, 1.497e-5
-1.256, 1.507e-5
-1.257, 1.519e-5
-1.258, 1.522e-5
-1.259, 1.526e-5
-1.260, 1.532e-5
-1.261, 1.543e-5
-1.262, 1.555e-5
-1.263, 1.555e-5
-1.264, 1.561e-5
-1.265, 1.571e-5
-1.266, 1.581e-5
-1.267, 1.591e-5
-1.268, 1.591e-5
-1.269, 1.595e-5
-1.270, 1.604e-5
-1.271, 1.617e-5
-1.272, 1.631e-5
-1.273, 1.631e-5
-1.274, 1.639e-5
-1.275, 1.643e-5
-1.276, 1.654e-5
-1.277, 1.669e-5
-1.278, 1.667e-5
-1.279, 1.672e-5
-1.280, 1.686e-5
-1.281, 1.698e-5
-1.282, 1.712e-5
-1.283, 1.714e-5
-1.284, 1.719e-5
-1.285, 1.728e-5
-1.286, 1.740e-5
-1.287, 1.749e-5
-1.288, 1.751e-5
-1.289, 1.762e-5
-1.290, 1.772e-5
-1.291, 1.783e-5
-1.292, 1.792e-5
-1.293, 1.797e-5
-1.294, 1.803e-5
-1.295, 1.812e-5
-1.296, 1.824e-5
-1.297, 1.838e-5
-1.298, 1.837e-5
-1.299, 1.843e-5
-1.300, 1.854e-5
-1.301, 1.867e-5
-1.302, 1.877e-5
-1.303, 1.881e-5
-1.304, 1.888e-5
-1.305, 1.897e-5
-1.306, 1.913e-5
-1.307, 1.929e-5
-1.308, 1.930e-5
-1.309, 1.939e-5
-1.310, 1.946e-5
-1.311, 1.960e-5
-1.312, 1.975e-5
-1.313, 1.979e-5
-1.314, 1.985e-5
-1.315, 1.995e-5
-1.316, 2.009e-5
-1.317, 2.024e-5
-1.318, 2.031e-5
-1.319, 2.037e-5
-1.320, 2.049e-5
-1.321, 2.065e-5
-1.322, 2.078e-5
-1.323, 2.084e-5
-1.324, 2.088e-5
-1.325, 2.105e-5
-1.326, 2.113e-5
-1.327, 2.130e-5
-1.328, 2.133e-5
-1.329, 2.135e-5
-1.330, 2.152e-5
-1.331, 2.165e-5
-1.332, 2.186e-5
-1.333, 2.189e-5
-1.334, 2.195e-5
-1.335, 2.209e-5
-1.336, 2.223e-5
-1.337, 2.241e-5
-1.338, 2.247e-5
-1.339, 2.252e-5
-1.340, 2.266e-5
-1.341, 2.281e-5
-1.342, 2.296e-5
-1.343, 2.310e-5
-1.344, 2.313e-5
-1.345, 2.333e-5
-1.346, 2.350e-5
-1.347, 2.359e-5
-1.348, 2.367e-5
-1.349, 2.372e-5
-1.350, 2.392e-5
-1.351, 2.410e-5
-1.352, 2.427e-5
-1.353, 2.437e-5
-1.354, 2.443e-5
-1.355, 2.458e-5
-1.356, 2.481e-5
-1.357, 2.498e-5
-1.358, 2.508e-5
-1.359, 2.513e-5
-1.360, 2.534e-5
-1.361, 2.555e-5
-1.362, 2.572e-5
-1.363, 2.583e-5
-1.364, 2.591e-5
-1.365, 2.604e-5
-1.366, 2.630e-5
-1.367, 2.646e-5
-1.368, 2.659e-5
-1.369, 2.671e-5
-1.370, 2.689e-5
-1.371, 2.706e-5
-1.372, 2.729e-5
-1.373, 2.738e-5
-1.374, 2.749e-5
-1.375, 2.770e-5
-1.376, 2.797e-5
-1.377, 2.817e-5
-1.378, 2.829e-5
-1.379, 2.846e-5
-1.380, 2.859e-5
-1.381, 2.886e-5
-1.382, 2.912e-5
-1.383, 2.923e-5
-1.384, 2.943e-5
-1.385, 2.951e-5
-1.386, 2.984e-5
-1.387, 3.004e-5
-1.388, 3.026e-5
-1.389, 3.047e-5
-1.390, 3.063e-5
-1.391, 3.091e-5
-1.392, 3.122e-5
-1.393, 3.140e-5
-1.394, 3.159e-5
-1.395, 3.175e-5
-1.396, 3.208e-5
-1.397, 3.235e-5
-1.398, 3.251e-5
-1.399, 3.272e-5
-1.400, 3.154e-5
-1.399, 3.022e-5
-1.398, 2.949e-5
-1.397, 2.882e-5
-1.396, 2.818e-5
-1.395, 2.772e-5
-1.394, 2.738e-5
-1.393, 2.700e-5
-1.392, 2.656e-5
-1.391, 2.607e-5
-1.390, 2.576e-5
-1.389, 2.546e-5
-1.388, 2.518e-5
-1.387, 2.481e-5
-1.386, 2.445e-5
-1.385, 2.411e-5
-1.384, 2.390e-5
-1.383, 2.368e-5
-1.382, 2.331e-5
-1.381, 2.301e-5
-1.380, 2.273e-5
-1.379, 2.255e-5
-1.378, 2.230e-5
-1.377, 2.202e-5
-1.376, 2.170e-5
-1.375, 2.145e-5
-1.374, 2.131e-5
-1.373, 2.110e-5
-1.372, 2.083e-5
-1.371, 2.052e-5
-1.370, 2.023e-5
-1.369, 2.010e-5
-1.368, 1.994e-5
-1.367, 1.966e-5
-1.366, 1.943e-5
-1.365, 1.921e-5
-1.364, 1.916e-5
-1.363, 1.890e-5
-1.362, 1.862e-5
-1.361, 1.833e-5
-1.360, 1.811e-5
-1.359, 1.799e-5
-1.358, 1.778e-5
-1.357, 1.752e-5
-1.356, 1.731e-5
-1.355, 1.714e-5
-1.354, 1.703e-5
-1.353, 1.681e-5
-1.352, 1.655e-5
-1.351, 1.632e-5
-1.350, 1.612e-5
-1.349, 1.598e-5
-1.348, 1.588e-5
-1.347, 1.565e-5
-1.346, 1.542e-5
-1.345, 1.524e-5
-1.344, 1.512e-5
-1.343, 1.497e-5
-1.342, 1.476e-5
-1.341, 1.452e-5
-1.340, 1.433e-5
-1.339, 1.421e-5
-1.338, 1.414e-5
-1.337, 1.387e-5
-1.336, 1.368e-5
-1.335, 1.354e-5
-1.334, 1.341e-5
-1.333, 1.333e-5
-1.332, 1.311e-5
-1.331, 1.293e-5
-1.330, 1.277e-5
-1.329, 1.265e-5
-1.328, 1.255e-5
-1.327, 1.234e-5
-1.326, 1.209e-5
-1.325, 1.198e-5
-1.324, 1.189e-5
-1.323, 1.175e-5
-1.322, 1.160e-5
-1.321, 1.139e-5
-1.320, 1.128e-5
-1.319, 1.118e-5
-1.318, 1.108e-5
-1.317, 1.090e-5
-1.316, 1.067e-5
-1.315, 1.058e-5
-1.314, 1.053e-5
-1.313, 1.041e-5
-1.312, 1.023e-5
-1.311, 1.005e-5
-1.310, 9.900e-6
-1.309, 9.888e-6
-1.308, 9.798e-6
-1.307, 9.607e-6
-1.306, 9.393e-6
-1.305, 9.267e-6
-1.304, 9.226e-6
-1.303, 9.170e-6
-1.302, 8.955e-6
-1.301, 8.802e-6
-1.300, 8.681e-6
-1.299, 8.633e-6
-1.298, 8.542e-6
-1.297, 8.426e-6
-1.296, 8.287e-6
-1.295, 8.136e-6
-1.294, 8.123e-6
-1.293, 8.053e-6
-1.292, 7.904e-6
-1.291, 7.734e-6
-1.290, 7.602e-6
-1.289, 7.519e-6
-1.288, 7.472e-6
-1.287, 7.328e-6
-1.286, 7.160e-6
-1.285, 7.056e-6
-1.284, 7.023e-6
-1.283, 6.972e-6
-1.282, 6.799e-6
-1.281, 6.656e-6
-1.280, 6.580e-6
-1.279, 6.495e-6
-1.278, 6.445e-6
-1.277, 6.303e-6
-1.276, 6.186e-6
-1.275, 6.069e-6
-1.274, 6.050e-6
-1.273, 6.002e-6
-1.272, 5.851e-6
-1.271, 5.755e-6
-1.270, 5.653e-6
-1.269, 5.588e-6
-1.268, 5.576e-6
-1.267, 5.423e-6
-1.266, 5.300e-6
-1.265, 5.205e-6
-1.264, 5.160e-6
-1.263, 5.160e-6
-1.262, 4.991e-6
-1.261, 4.883e-6
-1.260, 4.822e-6
-1.259, 4.753e-6
-1.258, 4.723e-6
-1.257, 4.583e-6
-1.256, 4.462e-6
-1.255, 4.443e-6
-1.254, 4.430e-6
-1.253, 4.392e-6
-1.252, 4.249e-6
-1.251, 4.127e-6
-1.250, 4.045e-6
-1.249, 3.987e-6
-1.248, 3.969e-6
-1.247, 3.882e-6
-1.246, 3.714e-6
-1.245, 3.702e-6
-1.244, 3.667e-6
-1.243, 3.630e-6
-1.242, 3.503e-6
-1.241, 3.367e-6
-1.240, 3.340e-6
-1.239, 3.301e-6
-1.238, 3.259e-6
-1.237, 3.186e-6
-1.236, 3.049e-6
-1.235, 2.990e-6
-1.234, 2.970e-6
-1.233, 2.952e-6
-1.232, 2.840e-6
-1.231, 2.675e-6
-1.230, 2.625e-6
-1.229, 2.628e-6
-1.228, 2.584e-6
-1.227, 2.512e-6
-1.226, 2.407e-6
-1.225, 2.333e-6
-1.224, 2.333e-6
-1.223, 2.281e-6
-1.222, 2.197e-6
-1.221, 2.083e-6
-1.220, 1.994e-6
-1.219, 2.015e-6
-1.218, 1.987e-6
-1.217, 1.893e-6
-1.216, 1.788e-6
-1.215, 1.704e-6
-1.214, 1.715e-6
-1.213, 1.692e-6
-1.212, 1.574e-6
-1.211, 1.494e-6
-1.210, 1.404e-6
-1.209, 1.392e-6
-1.208, 1.399e-6
-1.207, 1.314e-6
-1.206, 1.247e-6
-1.205, 1.188e-6
-1.204, 1.141e-6
-1.203, 1.132e-6
-1.202, 1.018e-6
-1.201, 9.400e-7
-1.200, 8.828e-7
-1.199, 8.828e-7
-1.198, 8.493e-7
-1.197, 7.269e-7
-1.196, 6.559e-7
-1.195, 5.651e-7
-1.194, 5.730e-7
-1.193, 5.592e-7
-1.192, 4.418e-7
-1.191, 3.698e-7
-1.190, 3.145e-7
-1.189, 2.632e-7
-1.188, 3.056e-7
-1.187, 1.665e-7
-1.186, 8.860e-8
-1.185, 5.505e-8
-1.184, 2.249e-8
-1.183, 1.657e-8
-1.182, -7.518e-8
-1.181, -1.778e-7
-1.180, -1.926e-7
-1.179, -2.281e-7
-1.178, -2.567e-7
-1.177, -3.258e-7
-1.176, -4.570e-7
-1.175, -4.718e-7
-1.174, -5.132e-7
-1.173, -5.004e-7
-1.172, -5.576e-7
-1.171, -6.997e-7
-1.170, -7.175e-7
-1.169, -7.658e-7
-1.168, -7.579e-7
-1.167, -8.329e-7
-1.166, -9.444e-7
-1.165, -9.858e-7
-1.164, -9.710e-7
-1.163, -1.031e-6
-1.162, -1.063e-6
-1.161, -1.159e-6
-1.160, -1.239e-6
-1.159, -1.237e-6
-1.158, -1.263e-6
-1.157, -1.352e-6
-1.156, -1.407e-6
-1.155, -1.524e-6
-1.154, -1.510e-6
-1.153, -1.545e-6
-1.152, -1.601e-6
-1.151, -1.678e-6
-1.150, -1.756e-6
-1.149, -1.712e-6
-1.148, -1.766e-6
-1.147, -1.895e-6
-1.146, -1.943e-6
-1.145, -2.033e-6
-1.144, -2.002e-6
-1.143, -1.992e-6
-1.142, -2.123e-6
-1.141, -2.219e-6
-1.140, -2.273e-6
-1.139, -2.260e-6
-1.138, -2.259e-6
-1.137, -2.381e-6
-1.136, -2.434e-6
-1.135, -2.503e-6
-1.134, -2.543e-6
-1.133, -2.527e-6
-1.132, -2.637e-6
-1.131, -2.690e-6
-1.130, -2.741e-6
-1.129, -2.754e-6
-1.128, -2.760e-6
-1.127, -2.872e-6
-1.126, -2.955e-6
-1.125, -3.014e-6
-1.124, -3.011e-6
-1.123, -3.017e-6
-1.122, -3.080e-6
-1.121, -3.212e-6
-1.120, -3.221e-6
-1.119, -3.220e-6
-1.118, -3.252e-6
-1.117, -3.330e-6
-1.116, -3.427e-6
-1.115, -3.478e-6
-1.114, -3.492e-6
-1.113, -3.552e-6
-1.112, -3.555e-6
-1.111, -3.689e-6
-1.110, -3.709e-6
-1.109, -3.715e-6
-1.108, -3.764e-6
-1.107, -3.842e-6
-1.106, -3.924e-6
-1.105, -3.979e-6
-1.104, -3.936e-6
-1.103, -4.004e-6
-1.102, -4.056e-6
-1.101, -4.130e-6
-1.100, -4.181e-6
-1.099, -4.183e-6
-1.098, -4.207e-6
-1.097, -4.308e-6
-1.096, -4.383e-6
-1.095, -4.464e-6
-1.094, -4.460e-6
-1.093, -4.435e-6
-1.092, -4.517e-6
-1.091, -4.654e-6
-1.090, -4.716e-6
-1.089, -4.716e-6
-1.088, -4.715e-6
-1.087, -4.802e-6
-1.086, -4.881e-6
-1.085, -4.953e-6
-1.084, -4.986e-6
-1.083, -4.969e-6
-1.082, -5.061e-6
-1.081, -5.125e-6
-1.080, -5.187e-6
-1.079, -5.224e-6
-1.078, -5.242e-6
-1.077, -5.343e-6
-1.076, -5.398e-6
-1.075, -5.430e-6
-1.074, -5.450e-6
-1.073, -5.455e-6
-1.072, -5.570e-6
-1.071, -5.655e-6
-1.070, -5.646e-6
-1.069, -5.685e-6
-1.068, -5.702e-6
-1.067, -5.784e-6
-1.066, -5.894e-6
-1.065, -5.937e-6
-1.064, -5.956e-6
-1.063, -5.936e-6
-1.062, -6.046e-6
-1.061, -6.143e-6
-1.060, -6.179e-6
-1.059, -6.197e-6
-1.058, -6.195e-6
-1.057, -6.282e-6
-1.056, -6.358e-6
-1.055, -6.431e-6
-1.054, -6.434e-6
-1.053, -6.445e-6
-1.052, -6.518e-6
-1.051, -6.609e-6
-1.050, -6.637e-6
-1.049, -6.651e-6
-1.048, -6.695e-6
-1.047, -6.726e-6
-1.046, -6.829e-6
-1.045, -6.891e-6
-1.044, -6.891e-6
-1.043, -6.965e-6
-1.042, -6.984e-6
-1.041, -7.066e-6
-1.040, -7.092e-6
-1.039, -7.102e-6
-1.038, -7.131e-6
-1.037, -7.195e-6
-1.036, -7.280e-6
-1.035, -7.331e-6
-1.034, -7.323e-6
-1.033, -7.388e-6
-1.032, -7.402e-6
-1.031, -7.488e-6
-1.030, -7.545e-6
-1.029, -7.518e-6
-1.028, -7.542e-6
-1.027, -7.626e-6
-1.026, -7.700e-6
-1.025, -7.729e-6
-1.024, -7.761e-6
-1.023, -7.793e-6
-1.022, -7.836e-6
-1.021, -7.939e-6
-1.020, -7.959e-6
-1.019, -7.945e-6
-1.018, -7.983e-6
-1.017, -8.025e-6
-1.016, -8.122e-6
-1.015, -8.193e-6
-1.014, -8.148e-6
-1.013, -8.167e-6
-1.012, -8.237e-6
-1.011, -8.323e-6
-1.010, -8.398e-6
-1.009, -8.369e-6
-1.008, -8.380e-6
-1.007, -8.452e-6
-1.006, -8.546e-6
-1.005, -8.611e-6
-1.004, -8.573e-6
-1.003, -8.599e-6
-1.002, -8.688e-6
-1.001, -8.740e-6
