Sept. 9, 2024   06:03:43
Cyclic Voltammetry
File: c:/users/guazh/data/20240903_batch_252_500/2024-09-03-exp304\exp304-2024-09-09t05_39_56-h2koh\exp304_cv_sr_600mvs_efin_-1800mv.bin
Data Source:  Experiment
Instrument Model:  CHI760E
Header: CV ran at 600 mVs
Note: 

Init E (V) = -1
High E (V) = -1
Low E (V) = -1.8
Final E (V) = -1
Init P/N = N
Scan Rate (V/s) = 0.6
Segment = 3
Sample Interval (V) = 0.001
Quiet Time (sec) = 2
Sensitivity (A/V) = 0.01
Comp R (ohm) = 2.4

Results:

Channel 1:
Segment 1:

Segment 2:

Segment 3:

Potential/V, Current/A

-1.000, 6.322e-6
-1.001, 1.557e-5
-1.002, 2.174e-5
-1.003, 2.482e-5
-1.004, 2.482e-5
-1.005, 2.790e-5
-1.006, 2.790e-5
-1.007, 2.790e-5
-1.008, 3.099e-5
-1.009, 3.099e-5
-1.010, 3.099e-5
-1.011, 3.099e-5
-1.012, 3.099e-5
-1.013, 3.407e-5
-1.014, 3.407e-5
-1.015, 3.407e-5
-1.016, 3.407e-5
-1.017, 3.715e-5
-1.018, 3.715e-5
-1.019, 3.715e-5
-1.020, 3.715e-5
-1.021, 3.715e-5
-1.022, 3.715e-5
-1.023, 3.715e-5
-1.024, 3.715e-5
-1.025, 3.715e-5
-1.026, 3.715e-5
-1.027, 4.024e-5
-1.028, 4.024e-5
-1.029, 4.024e-5
-1.030, 4.024e-5
-1.031, 4.024e-5
-1.032, 4.024e-5
-1.033, 4.024e-5
-1.034, 4.024e-5
-1.035, 4.024e-5
-1.036, 4.024e-5
-1.037, 4.332e-5
-1.038, 4.024e-5
-1.039, 4.332e-5
-1.040, 4.332e-5
-1.041, 4.332e-5
-1.042, 4.332e-5
-1.043, 4.332e-5
-1.044, 4.332e-5
-1.045, 4.332e-5
-1.046, 4.332e-5
-1.047, 4.332e-5
-1.048, 4.332e-5
-1.049, 4.640e-5
-1.050, 4.640e-5
-1.051, 4.640e-5
-1.052, 4.640e-5
-1.053, 4.640e-5
-1.054, 4.640e-5
-1.055, 4.640e-5
-1.056, 4.640e-5
-1.057, 4.640e-5
-1.058, 4.949e-5
-1.059, 4.640e-5
-1.060, 4.949e-5
-1.061, 4.949e-5
-1.062, 4.949e-5
-1.063, 4.949e-5
-1.064, 4.949e-5
-1.065, 4.949e-5
-1.066, 4.949e-5
-1.067, 4.949e-5
-1.068, 4.949e-5
-1.069, 5.257e-5
-1.070, 5.257e-5
-1.071, 4.949e-5
-1.072, 5.257e-5
-1.073, 5.257e-5
-1.074, 5.257e-5
-1.075, 5.257e-5
-1.076, 5.257e-5
-1.077, 5.257e-5
-1.078, 5.565e-5
-1.079, 5.257e-5
-1.080, 5.257e-5
-1.081, 5.565e-5
-1.082, 5.565e-5
-1.083, 5.565e-5
-1.084, 5.565e-5
-1.085, 5.565e-5
-1.086, 5.565e-5
-1.087, 5.565e-5
-1.088, 5.565e-5
-1.089, 5.565e-5
-1.090, 5.565e-5
-1.091, 5.565e-5
-1.092, 5.873e-5
-1.093, 5.873e-5
-1.094, 5.873e-5
-1.095, 5.873e-5
-1.096, 5.873e-5
-1.097, 5.873e-5
-1.098, 5.873e-5
-1.099, 5.873e-5
-1.100, 5.873e-5
-1.101, 6.182e-5
-1.102, 6.182e-5
-1.103, 5.873e-5
-1.104, 6.182e-5
-1.105, 6.182e-5
-1.106, 6.182e-5
-1.107, 6.182e-5
-1.108, 6.182e-5
-1.109, 6.182e-5
-1.110, 6.182e-5
-1.111, 6.182e-5
-1.112, 6.182e-5
-1.113, 6.182e-5
-1.114, 6.182e-5
-1.115, 6.182e-5
-1.116, 6.490e-5
-1.117, 6.490e-5
-1.118, 6.490e-5
-1.119, 6.490e-5
-1.120, 6.490e-5
-1.121, 6.490e-5
-1.122, 6.490e-5
-1.123, 6.490e-5
-1.124, 6.490e-5
-1.125, 6.490e-5
-1.126, 6.798e-5
-1.127, 6.798e-5
-1.128, 6.798e-5
-1.129, 6.798e-5
-1.130, 6.798e-5
-1.131, 6.798e-5
-1.132, 6.798e-5
-1.133, 6.798e-5
-1.134, 6.798e-5
-1.135, 6.798e-5
-1.136, 7.107e-5
-1.137, 6.798e-5
-1.138, 7.107e-5
-1.139, 7.107e-5
-1.140, 7.107e-5
-1.141, 7.107e-5
-1.142, 7.107e-5
-1.143, 7.107e-5
-1.144, 7.107e-5
-1.145, 7.107e-5
-1.146, 7.107e-5
-1.147, 7.107e-5
-1.148, 7.415e-5
-1.149, 7.415e-5
-1.150, 7.415e-5
-1.151, 7.415e-5
-1.152, 7.415e-5
-1.153, 7.415e-5
-1.154, 7.415e-5
-1.155, 7.415e-5
-1.156, 7.415e-5
-1.157, 7.723e-5
-1.158, 7.723e-5
-1.159, 7.723e-5
-1.160, 7.723e-5
-1.161, 7.723e-5
-1.162, 7.723e-5
-1.163, 7.723e-5
-1.164, 7.723e-5
-1.165, 7.723e-5
-1.166, 7.723e-5
-1.167, 8.032e-5
-1.168, 8.032e-5
-1.169, 8.032e-5
-1.170, 8.032e-5
-1.171, 8.032e-5
-1.172, 8.032e-5
-1.173, 8.032e-5
-1.174, 8.032e-5
-1.175, 8.032e-5
-1.176, 8.032e-5
-1.177, 8.340e-5
-1.178, 8.340e-5
-1.179, 8.340e-5
-1.180, 8.340e-5
-1.181, 8.340e-5
-1.182, 8.340e-5
-1.183, 8.340e-5
-1.184, 8.340e-5
-1.185, 8.340e-5
-1.186, 8.648e-5
-1.187, 8.648e-5
-1.188, 8.648e-5
-1.189, 8.648e-5
-1.190, 8.648e-5
-1.191, 8.648e-5
-1.192, 8.648e-5
-1.193, 8.648e-5
-1.194, 8.648e-5
-1.195, 8.957e-5
-1.196, 8.957e-5
-1.197, 8.957e-5
-1.198, 8.957e-5
-1.199, 8.957e-5
-1.200, 8.957e-5
-1.201, 8.957e-5
-1.202, 9.265e-5
-1.203, 9.265e-5
-1.204, 9.265e-5
-1.205, 9.265e-5
-1.206, 9.265e-5
-1.207, 9.265e-5
-1.208, 9.265e-5
-1.209, 9.573e-5
-1.210, 9.573e-5
-1.211, 9.573e-5
-1.212, 9.573e-5
-1.213, 9.573e-5
-1.214, 9.573e-5
-1.215, 9.573e-5
-1.216, 9.573e-5
-1.217, 9.882e-5
-1.218, 9.882e-5
-1.219, 9.882e-5
-1.220, 9.882e-5
-1.221, 9.882e-5
-1.222, 9.882e-5
-1.223, 9.882e-5
-1.224, 9.882e-5
-1.225, 1.019e-4
-1.226, 1.019e-4
-1.227, 1.019e-4
-1.228, 1.019e-4
-1.229, 1.019e-4
-1.230, 1.050e-4
-1.231, 1.019e-4
-1.232, 1.050e-4
-1.233, 1.050e-4
-1.234, 1.050e-4
-1.235, 1.050e-4
-1.236, 1.050e-4
-1.237, 1.050e-4
-1.238, 1.050e-4
-1.239, 1.081e-4
-1.240, 1.081e-4
-1.241, 1.081e-4
-1.242, 1.081e-4
-1.243, 1.081e-4
-1.244, 1.081e-4
-1.245, 1.081e-4
-1.246, 1.111e-4
-1.247, 1.111e-4
-1.248, 1.111e-4
-1.249, 1.111e-4
-1.250, 1.111e-4
-1.251, 1.142e-4
-1.252, 1.142e-4
-1.253, 1.111e-4
-1.254, 1.142e-4
-1.255, 1.142e-4
-1.256, 1.142e-4
-1.257, 1.142e-4
-1.258, 1.173e-4
-1.259, 1.173e-4
-1.260, 1.173e-4
-1.261, 1.173e-4
-1.262, 1.173e-4
-1.263, 1.173e-4
-1.264, 1.173e-4
-1.265, 1.204e-4
-1.266, 1.204e-4
-1.267, 1.204e-4
-1.268, 1.204e-4
-1.269, 1.204e-4
-1.270, 1.235e-4
-1.271, 1.204e-4
-1.272, 1.235e-4
-1.273, 1.235e-4
-1.274, 1.266e-4
-1.275, 1.235e-4
-1.276, 1.266e-4
-1.277, 1.266e-4
-1.278, 1.266e-4
-1.279, 1.266e-4
-1.280, 1.266e-4
-1.281, 1.296e-4
-1.282, 1.296e-4
-1.283, 1.296e-4
-1.284, 1.296e-4
-1.285, 1.296e-4
-1.286, 1.296e-4
-1.287, 1.296e-4
-1.288, 1.327e-4
-1.289, 1.327e-4
-1.290, 1.327e-4
-1.291, 1.327e-4
-1.292, 1.327e-4
-1.293, 1.358e-4
-1.294, 1.358e-4
-1.295, 1.358e-4
-1.296, 1.358e-4
-1.297, 1.358e-4
-1.298, 1.389e-4
-1.299, 1.389e-4
-1.300, 1.389e-4
-1.301, 1.389e-4
-1.302, 1.420e-4
-1.303, 1.420e-4
-1.304, 1.420e-4
-1.305, 1.420e-4
-1.306, 1.420e-4
-1.307, 1.420e-4
-1.308, 1.420e-4
-1.309, 1.451e-4
-1.310, 1.451e-4
-1.311, 1.451e-4
-1.312, 1.451e-4
-1.313, 1.481e-4
-1.314, 1.481e-4
-1.315, 1.481e-4
-1.316, 1.481e-4
-1.317, 1.481e-4
-1.318, 1.512e-4
-1.319, 1.512e-4
-1.320, 1.512e-4
-1.321, 1.512e-4
-1.322, 1.512e-4
-1.323, 1.543e-4
-1.324, 1.543e-4
-1.325, 1.543e-4
-1.326, 1.543e-4
-1.327, 1.574e-4
-1.328, 1.574e-4
-1.329, 1.574e-4
-1.330, 1.574e-4
-1.331, 1.574e-4
-1.332, 1.605e-4
-1.333, 1.605e-4
-1.334, 1.605e-4
-1.335, 1.636e-4
-1.336, 1.636e-4
-1.337, 1.636e-4
-1.338, 1.636e-4
-1.339, 1.666e-4
-1.340, 1.666e-4
-1.341, 1.666e-4
-1.342, 1.697e-4
-1.343, 1.666e-4
-1.344, 1.697e-4
-1.345, 1.697e-4
-1.346, 1.697e-4
-1.347, 1.728e-4
-1.348, 1.728e-4
-1.349, 1.728e-4
-1.350, 1.759e-4
-1.351, 1.759e-4
-1.352, 1.790e-4
-1.353, 1.790e-4
-1.354, 1.790e-4
-1.355, 1.790e-4
-1.356, 1.821e-4
-1.357, 1.821e-4
-1.358, 1.851e-4
-1.359, 1.851e-4
-1.360, 1.882e-4
-1.361, 1.882e-4
-1.362, 1.913e-4
-1.363, 1.913e-4
-1.364, 1.913e-4
-1.365, 1.944e-4
-1.366, 1.944e-4
-1.367, 1.975e-4
-1.368, 2.006e-4
-1.369, 2.006e-4
-1.370, 2.006e-4
-1.371, 2.036e-4
-1.372, 2.067e-4
-1.373, 2.067e-4
-1.374, 2.098e-4
-1.375, 2.098e-4
-1.376, 2.129e-4
-1.377, 2.129e-4
-1.378, 2.160e-4
-1.379, 2.160e-4
-1.380, 2.191e-4
-1.381, 2.221e-4
-1.382, 2.221e-4
-1.383, 2.252e-4
-1.384, 2.252e-4
-1.385, 2.283e-4
-1.386, 2.314e-4
-1.387, 2.314e-4
-1.388, 2.345e-4
-1.389, 2.376e-4
-1.390, 2.376e-4
-1.391, 2.406e-4
-1.392, 2.437e-4
-1.393, 2.437e-4
-1.394, 2.468e-4
-1.395, 2.499e-4
-1.396, 2.530e-4
-1.397, 2.530e-4
-1.398, 2.561e-4
-1.399, 2.591e-4
-1.400, 2.622e-4
-1.401, 2.653e-4
-1.402, 2.653e-4
-1.403, 2.684e-4
-1.404, 2.715e-4
-1.405, 2.746e-4
-1.406, 2.776e-4
-1.407, 2.807e-4
-1.408, 2.838e-4
-1.409, 2.838e-4
-1.410, 2.869e-4
-1.411, 2.869e-4
-1.412, 2.900e-4
-1.413, 2.931e-4
-1.414, 2.961e-4
-1.415, 2.992e-4
-1.416, 3.023e-4
-1.417, 3.054e-4
-1.418, 3.054e-4
-1.419, 3.085e-4
-1.420, 3.115e-4
-1.421, 3.146e-4
-1.422, 3.177e-4
-1.423, 3.208e-4
-1.424, 3.239e-4
-1.425, 3.270e-4
-1.426, 3.300e-4
-1.427, 3.331e-4
-1.428, 3.362e-4
-1.429, 3.393e-4
-1.430, 3.424e-4
-1.431, 3.455e-4
-1.432, 3.485e-4
-1.433, 3.516e-4
-1.434, 3.547e-4
-1.435, 3.578e-4
-1.436, 3.609e-4
-1.437, 3.640e-4
-1.438, 3.670e-4
-1.439, 3.701e-4
-1.440, 3.732e-4
-1.441, 3.763e-4
-1.442, 3.794e-4
-1.443, 3.825e-4
-1.444, 3.886e-4
-1.445, 3.917e-4
-1.446, 3.948e-4
-1.447, 3.979e-4
-1.448, 4.010e-4
-1.449, 4.040e-4
-1.450, 4.102e-4
-1.451, 4.133e-4
-1.452, 4.256e-4
-1.453, 4.256e-4
-1.454, 4.287e-4
-1.455, 4.318e-4
-1.456, 4.349e-4
-1.457, 4.380e-4
-1.458, 4.472e-4
-1.459, 4.503e-4
-1.460, 4.534e-4
-1.461, 4.565e-4
-1.462, 4.626e-4
-1.463, 4.657e-4
-1.464, 4.719e-4
-1.465, 4.750e-4
-1.466, 4.780e-4
-1.467, 4.811e-4
-1.468, 4.873e-4
-1.469, 4.935e-4
-1.470, 4.965e-4
-1.471, 5.027e-4
-1.472, 5.058e-4
-1.473, 5.089e-4
-1.474, 5.120e-4
-1.475, 5.212e-4
-1.476, 5.274e-4
-1.477, 5.305e-4
-1.478, 5.366e-4
-1.479, 5.428e-4
-1.480, 5.489e-4
-1.481, 5.551e-4
-1.482, 5.613e-4
-1.483, 5.674e-4
-1.484, 5.736e-4
-1.485, 5.767e-4
-1.486, 5.829e-4
-1.487, 5.859e-4
-1.488, 5.921e-4
-1.489, 5.921e-4
-1.490, 6.014e-4
-1.491, 6.075e-4
-1.492, 6.106e-4
-1.493, 6.199e-4
-1.494, 6.260e-4
-1.495, 6.322e-4
-1.496, 6.384e-4
-1.497, 6.445e-4
-1.498, 6.538e-4
-1.499, 6.599e-4
-1.500, 6.661e-4
-1.501, 6.692e-4
-1.502, 6.784e-4
-1.503, 6.846e-4
-1.504, 6.877e-4
-1.505, 6.939e-4
-1.506, 7.000e-4
-1.507, 7.062e-4
-1.508, 7.154e-4
-1.509, 7.185e-4
-1.510, 7.247e-4
-1.511, 7.309e-4
-1.512, 7.370e-4
-1.513, 7.432e-4
-1.514, 7.463e-4
-1.515, 7.586e-4
-1.516, 7.679e-4
-1.517, 7.740e-4
-1.518, 7.833e-4
-1.519, 7.894e-4
-1.520, 7.956e-4
-1.521, 8.048e-4
-1.522, 8.110e-4
-1.523, 8.203e-4
-1.524, 8.264e-4
-1.525, 8.326e-4
-1.526, 8.388e-4
-1.527, 8.449e-4
-1.528, 8.480e-4
-1.529, 8.511e-4
-1.530, 8.696e-4
-1.531, 8.758e-4
-1.532, 8.850e-4
-1.533, 8.973e-4
-1.534, 9.097e-4
-1.535, 9.189e-4
-1.536, 9.282e-4
-1.537, 9.374e-4
-1.538, 9.374e-4
-1.539, 9.528e-4
-1.540, 9.590e-4
-1.541, 9.683e-4
-1.542, 9.744e-4
-1.543, 9.806e-4
-1.544, 9.837e-4
-1.545, 9.898e-4
-1.546, 9.960e-4
-1.547, 1.005e-3
-1.548, 1.014e-3
-1.549, 1.024e-3
-1.550, 1.033e-3
-1.551, 1.039e-3
-1.552, 1.061e-3
-1.553, 1.067e-3
-1.554, 1.079e-3
-1.555, 1.092e-3
-1.556, 1.101e-3
-1.557, 1.110e-3
-1.558, 1.119e-3
-1.559, 1.129e-3
-1.560, 1.141e-3
-1.561, 1.150e-3
-1.562, 1.162e-3
-1.563, 1.172e-3
-1.564, 1.196e-3
-1.565, 1.203e-3
-1.566, 1.215e-3
-1.567, 1.227e-3
-1.568, 1.236e-3
-1.569, 1.252e-3
-1.570, 1.264e-3
-1.571, 1.273e-3
-1.572, 1.283e-3
-1.573, 1.286e-3
-1.574, 1.292e-3
-1.575, 1.310e-3
-1.576, 1.317e-3
-1.577, 1.326e-3
-1.578, 1.335e-3
-1.579, 1.347e-3
-1.580, 1.360e-3
-1.581, 1.369e-3
-1.582, 1.381e-3
-1.583, 1.388e-3
-1.584, 1.406e-3
-1.585, 1.415e-3
-1.586, 1.425e-3
-1.587, 1.437e-3
-1.588, 1.452e-3
-1.589, 1.462e-3
-1.590, 1.471e-3
-1.591, 1.477e-3
-1.592, 1.489e-3
-1.593, 1.499e-3
-1.594, 1.502e-3
-1.595, 1.526e-3
-1.596, 1.536e-3
-1.597, 1.548e-3
-1.598, 1.557e-3
-1.599, 1.569e-3
-1.600, 1.579e-3
-1.601, 1.591e-3
-1.602, 1.603e-3
-1.603, 1.610e-3
-1.604, 1.625e-3
-1.605, 1.637e-3
-1.606, 1.650e-3
-1.607, 1.659e-3
-1.608, 1.671e-3
-1.609, 1.677e-3
-1.610, 1.684e-3
-1.611, 1.687e-3
-1.612, 1.702e-3
-1.613, 1.705e-3
-1.614, 1.708e-3
-1.615, 1.714e-3
-1.616, 1.730e-3
-1.617, 1.736e-3
-1.618, 1.742e-3
-1.619, 1.770e-3
-1.620, 1.776e-3
-1.621, 1.788e-3
-1.622, 1.795e-3
-1.623, 1.804e-3
-1.624, 1.813e-3
-1.625, 1.816e-3
-1.626, 1.844e-3
-1.627, 1.850e-3
-1.628, 1.856e-3
-1.629, 1.869e-3
-1.630, 1.884e-3
-1.631, 1.899e-3
-1.632, 1.909e-3
-1.633, 1.927e-3
-1.634, 1.939e-3
-1.635, 1.952e-3
-1.636, 1.961e-3
-1.637, 1.973e-3
-1.638, 1.980e-3
-1.639, 1.983e-3
-1.640, 2.004e-3
-1.641, 2.010e-3
-1.642, 2.020e-3
-1.643, 2.035e-3
-1.644, 2.054e-3
-1.645, 2.060e-3
-1.646, 2.078e-3
-1.647, 2.103e-3
-1.648, 2.118e-3
-1.649, 2.137e-3
-1.650, 2.149e-3
-1.651, 2.155e-3
-1.652, 2.168e-3
-1.653, 2.183e-3
-1.654, 2.192e-3
-1.655, 2.205e-3
-1.656, 2.214e-3
-1.657, 2.223e-3
-1.658, 2.232e-3
-1.659, 2.235e-3
-1.660, 2.245e-3
-1.661, 2.260e-3
-1.662, 2.272e-3
-1.663, 2.269e-3
-1.664, 2.300e-3
-1.665, 2.322e-3
-1.666, 2.353e-3
-1.667, 2.371e-3
-1.668, 2.386e-3
-1.669, 2.337e-3
-1.670, 2.183e-3
-1.671, 2.137e-3
-1.672, 2.134e-3
-1.673, 2.035e-3
-1.674, 2.334e-3
-1.675, 2.571e-3
-1.676, 2.571e-3
-1.677, 2.590e-3
-1.678, 2.608e-3
-1.679, 2.639e-3
-1.680, 2.655e-3
-1.681, 2.673e-3
-1.682, 2.695e-3
-1.683, 2.707e-3
-1.684, 2.723e-3
-1.685, 2.738e-3
-1.686, 2.750e-3
-1.687, 2.769e-3
-1.688, 2.790e-3
-1.689, 2.809e-3
-1.690, 2.830e-3
-1.691, 2.849e-3
-1.692, 2.871e-3
-1.693, 2.904e-3
-1.694, 2.923e-3
-1.695, 2.935e-3
-1.696, 2.957e-3
-1.697, 2.969e-3
-1.698, 3.019e-3
-1.699, 3.071e-3
-1.700, 3.102e-3
-1.701, 3.120e-3
-1.702, 3.157e-3
-1.703, 3.225e-3
-1.704, 3.253e-3
-1.705, 3.278e-3
-1.706, 3.330e-3
-1.707, 3.355e-3
-1.708, 3.379e-3
-1.709, 3.385e-3
-1.710, 3.398e-3
-1.711, 3.404e-3
-1.712, 3.407e-3
-1.713, 3.429e-3
-1.714, 3.456e-3
-1.715, 3.466e-3
-1.716, 3.503e-3
-1.717, 3.530e-3
-1.718, 3.580e-3
-1.719, 3.635e-3
-1.720, 3.666e-3
-1.721, 3.715e-3
-1.722, 3.749e-3
-1.723, 3.792e-3
-1.724, 3.808e-3
-1.725, 3.839e-3
-1.726, 3.839e-3
-1.727, 3.851e-3
-1.728, 3.873e-3
-1.729, 3.910e-3
-1.730, 3.943e-3
-1.731, 3.984e-3
-1.732, 3.993e-3
-1.733, 4.011e-3
-1.734, 4.024e-3
-1.735, 4.042e-3
-1.736, 4.088e-3
-1.737, 4.141e-3
-1.738, 4.150e-3
-1.739, 4.165e-3
-1.740, 4.175e-3
-1.741, 4.199e-3
-1.742, 4.249e-3
-1.743, 4.292e-3
-1.744, 4.363e-3
-1.745, 4.434e-3
-1.746, 4.501e-3
-1.747, 4.523e-3
-1.748, 4.551e-3
-1.749, 4.569e-3
-1.750, 4.588e-3
-1.751, 4.603e-3
-1.752, 4.628e-3
-1.753, 4.680e-3
-1.754, 4.690e-3
-1.755, 4.702e-3
-1.756, 4.733e-3
-1.757, 4.751e-3
-1.758, 4.770e-3
-1.759, 4.779e-3
-1.760, 4.825e-3
-1.761, 4.865e-3
-1.762, 4.890e-3
-1.763, 4.912e-3
-1.764, 4.939e-3
-1.765, 4.967e-3
-1.766, 4.995e-3
-1.767, 5.019e-3
-1.768, 5.072e-3
-1.769, 5.084e-3
-1.770, 5.084e-3
-1.771, 5.078e-3
-1.772, 5.084e-3
-1.773, 5.121e-3
-1.774, 5.161e-3
-1.775, 5.201e-3
-1.776, 5.214e-3
-1.777, 5.297e-3
-1.778, 5.300e-3
-1.779, 5.340e-3
-1.780, 5.386e-3
-1.781, 5.389e-3
-1.782, 5.405e-3
-1.783, 5.433e-3
-1.784, 5.430e-3
-1.785, 5.430e-3
-1.786, 5.445e-3
-1.787, 5.470e-3
-1.788, 5.531e-3
-1.789, 5.590e-3
-1.790, 5.608e-3
-1.791, 5.722e-3
-1.792, 5.840e-3
-1.793, 5.904e-3
-1.794, 5.951e-3
-1.795, 5.991e-3
-1.796, 6.012e-3
-1.797, 6.049e-3
-1.798, 6.136e-3
-1.799, 6.256e-3
-1.800, 6.299e-3
-1.799, 6.265e-3
-1.798, 6.302e-3
-1.797, 6.342e-3
-1.796, 6.358e-3
-1.795, 6.364e-3
-1.794, 6.358e-3
-1.793, 6.333e-3
-1.792, 6.287e-3
-1.791, 6.247e-3
-1.790, 6.160e-3
-1.789, 6.077e-3
-1.788, 5.963e-3
-1.787, 5.914e-3
-1.786, 5.852e-3
-1.785, 5.775e-3
-1.784, 5.698e-3
-1.783, 5.639e-3
-1.782, 5.608e-3
-1.781, 5.602e-3
-1.780, 5.571e-3
-1.779, 5.516e-3
-1.778, 5.485e-3
-1.777, 5.393e-3
-1.776, 5.322e-3
-1.775, 5.254e-3
-1.774, 5.186e-3
-1.773, 5.137e-3
-1.772, 5.087e-3
-1.771, 5.026e-3
-1.770, 4.955e-3
-1.769, 4.884e-3
-1.768, 4.847e-3
-1.767, 4.801e-3
-1.766, 4.785e-3
-1.765, 4.757e-3
-1.764, 4.754e-3
-1.763, 4.727e-3
-1.762, 4.693e-3
-1.761, 4.677e-3
-1.760, 4.643e-3
-1.759, 4.628e-3
-1.758, 4.600e-3
-1.757, 4.554e-3
-1.756, 4.505e-3
-1.755, 4.474e-3
-1.754, 4.437e-3
-1.753, 4.403e-3
-1.752, 4.357e-3
-1.751, 4.323e-3
-1.750, 4.307e-3
-1.749, 4.298e-3
-1.748, 4.276e-3
-1.747, 4.239e-3
-1.746, 4.196e-3
-1.745, 4.175e-3
-1.744, 4.144e-3
-1.743, 4.116e-3
-1.742, 4.095e-3
-1.741, 4.051e-3
-1.740, 4.024e-3
-1.739, 3.984e-3
-1.738, 3.947e-3
-1.737, 3.910e-3
-1.736, 3.863e-3
-1.735, 3.842e-3
-1.734, 3.811e-3
-1.733, 3.780e-3
-1.732, 3.746e-3
-1.731, 3.715e-3
-1.730, 3.691e-3
-1.729, 3.663e-3
-1.728, 3.632e-3
-1.727, 3.604e-3
-1.726, 3.577e-3
-1.725, 3.549e-3
-1.724, 3.506e-3
-1.723, 3.484e-3
-1.722, 3.447e-3
-1.721, 3.407e-3
-1.720, 3.370e-3
-1.719, 3.333e-3
-1.718, 3.305e-3
-1.717, 3.262e-3
-1.716, 3.234e-3
-1.715, 3.197e-3
-1.714, 3.176e-3
-1.713, 3.148e-3
-1.712, 3.126e-3
-1.711, 3.102e-3
-1.710, 3.065e-3
-1.709, 3.028e-3
-1.708, 3.009e-3
-1.707, 2.982e-3
-1.706, 2.957e-3
-1.705, 2.923e-3
-1.704, 2.901e-3
-1.703, 2.877e-3
-1.702, 2.846e-3
-1.701, 2.797e-3
-1.700, 2.797e-3
-1.699, 2.775e-3
-1.698, 2.747e-3
-1.697, 2.716e-3
-1.696, 2.689e-3
-1.695, 2.661e-3
-1.694, 2.639e-3
-1.693, 2.599e-3
-1.692, 2.584e-3
-1.691, 2.547e-3
-1.690, 2.522e-3
-1.689, 2.491e-3
-1.688, 2.464e-3
-1.687, 2.430e-3
-1.686, 2.411e-3
-1.685, 2.386e-3
-1.684, 2.368e-3
-1.683, 2.346e-3
-1.682, 2.331e-3
-1.681, 2.303e-3
-1.680, 2.272e-3
-1.679, 2.238e-3
-1.678, 2.217e-3
-1.677, 2.192e-3
-1.676, 2.168e-3
-1.675, 2.140e-3
-1.674, 2.121e-3
-1.673, 2.091e-3
-1.672, 2.060e-3
-1.671, 2.035e-3
-1.670, 2.020e-3
-1.669, 2.001e-3
-1.668, 1.980e-3
-1.667, 1.955e-3
-1.666, 1.933e-3
-1.665, 1.909e-3
-1.664, 1.890e-3
-1.663, 1.865e-3
-1.662, 1.847e-3
-1.661, 1.825e-3
-1.660, 1.807e-3
-1.659, 1.785e-3
-1.658, 1.764e-3
-1.657, 1.739e-3
-1.656, 1.724e-3
-1.655, 1.699e-3
-1.654, 1.674e-3
-1.653, 1.656e-3
-1.652, 1.637e-3
-1.651, 1.619e-3
-1.650, 1.600e-3
-1.649, 1.582e-3
-1.648, 1.563e-3
-1.647, 1.542e-3
-1.646, 1.526e-3
-1.645, 1.499e-3
-1.644, 1.477e-3
-1.643, 1.455e-3
-1.642, 1.458e-3
-1.641, 1.434e-3
-1.640, 1.415e-3
-1.639, 1.394e-3
-1.638, 1.375e-3
-1.637, 1.357e-3
-1.636, 1.338e-3
-1.635, 1.317e-3
-1.634, 1.298e-3
-1.633, 1.283e-3
-1.632, 1.261e-3
-1.631, 1.240e-3
-1.630, 1.224e-3
-1.629, 1.206e-3
-1.628, 1.196e-3
-1.627, 1.178e-3
-1.626, 1.159e-3
-1.625, 1.144e-3
-1.624, 1.129e-3
-1.623, 1.116e-3
-1.622, 1.101e-3
-1.621, 1.085e-3
-1.620, 1.073e-3
-1.619, 1.061e-3
-1.618, 1.045e-3
-1.617, 1.033e-3
-1.616, 1.018e-3
-1.615, 1.005e-3
-1.614, 9.929e-4
-1.613, 9.775e-4
-1.612, 9.652e-4
-1.611, 9.559e-4
-1.610, 9.405e-4
-1.609, 9.251e-4
-1.608, 9.097e-4
-1.607, 8.973e-4
-1.606, 8.850e-4
-1.605, 8.758e-4
-1.604, 8.634e-4
-1.603, 8.511e-4
-1.602, 8.388e-4
-1.601, 8.264e-4
-1.600, 8.172e-4
-1.599, 8.079e-4
-1.598, 7.956e-4
-1.597, 7.833e-4
-1.596, 7.709e-4
-1.595, 7.586e-4
-1.594, 7.494e-4
-1.593, 7.401e-4
-1.592, 7.278e-4
-1.591, 7.185e-4
-1.590, 7.093e-4
-1.589, 6.969e-4
-1.588, 6.877e-4
-1.587, 6.784e-4
-1.586, 6.661e-4
-1.585, 6.599e-4
-1.584, 6.538e-4
-1.583, 6.445e-4
-1.582, 6.353e-4
-1.581, 6.229e-4
-1.580, 6.168e-4
-1.579, 6.044e-4
-1.578, 5.983e-4
-1.577, 5.859e-4
-1.576, 5.767e-4
-1.575, 5.674e-4
-1.574, 5.582e-4
-1.573, 5.551e-4
-1.572, 5.428e-4
-1.571, 5.335e-4
-1.570, 5.274e-4
-1.569, 5.181e-4
-1.568, 5.120e-4
-1.567, 5.027e-4
-1.566, 4.965e-4
-1.565, 4.904e-4
-1.564, 4.842e-4
-1.563, 4.750e-4
-1.562, 4.688e-4
-1.561, 4.626e-4
-1.560, 4.565e-4
-1.559, 4.472e-4
-1.558, 4.410e-4
-1.557, 4.349e-4
-1.556, 4.256e-4
-1.555, 4.195e-4
-1.554, 4.133e-4
-1.553, 4.071e-4
-1.552, 4.010e-4
-1.551, 3.917e-4
-1.550, 3.886e-4
-1.549, 3.825e-4
-1.548, 3.763e-4
-1.547, 3.701e-4
-1.546, 3.640e-4
-1.545, 3.578e-4
-1.544, 3.547e-4
-1.543, 3.455e-4
-1.542, 3.424e-4
-1.541, 3.362e-4
-1.540, 3.300e-4
-1.539, 3.270e-4
-1.538, 3.208e-4
-1.537, 3.146e-4
-1.536, 3.085e-4
-1.535, 3.023e-4
-1.534, 2.992e-4
-1.533, 2.931e-4
-1.532, 2.869e-4
-1.531, 2.838e-4
-1.530, 2.807e-4
-1.529, 2.746e-4
-1.528, 2.715e-4
-1.527, 2.653e-4
-1.526, 2.622e-4
-1.525, 2.561e-4
-1.524, 2.530e-4
-1.523, 2.468e-4
-1.522, 2.437e-4
-1.521, 2.376e-4
-1.520, 2.376e-4
-1.519, 2.345e-4
-1.518, 2.314e-4
-1.517, 2.221e-4
-1.516, 2.191e-4
-1.515, 2.160e-4
-1.514, 2.160e-4
-1.513, 2.098e-4
-1.512, 2.067e-4
-1.511, 2.036e-4
-1.510, 2.006e-4
-1.509, 1.975e-4
-1.508, 1.944e-4
-1.507, 1.882e-4
-1.506, 1.851e-4
-1.505, 1.821e-4
-1.504, 1.790e-4
-1.503, 1.759e-4
-1.502, 1.728e-4
-1.501, 1.697e-4
-1.500, 1.666e-4
-1.499, 1.636e-4
-1.498, 1.605e-4
-1.497, 1.574e-4
-1.496, 1.543e-4
-1.495, 1.512e-4
-1.494, 1.481e-4
-1.493, 1.481e-4
-1.492, 1.451e-4
-1.491, 1.420e-4
-1.490, 1.389e-4
-1.489, 1.358e-4
-1.488, 1.358e-4
-1.487, 1.327e-4
-1.486, 1.296e-4
-1.485, 1.266e-4
-1.484, 1.235e-4
-1.483, 1.204e-4
-1.482, 1.204e-4
-1.481, 1.173e-4
-1.480, 1.173e-4
-1.479, 1.142e-4
-1.478, 1.111e-4
-1.477, 1.081e-4
-1.476, 1.050e-4
-1.475, 1.050e-4
-1.474, 1.019e-4
-1.473, 9.882e-5
-1.472, 9.882e-5
-1.471, 9.573e-5
-1.470, 9.265e-5
-1.469, 9.265e-5
-1.468, 9.265e-5
-1.467, 8.957e-5
-1.466, 8.648e-5
-1.465, 8.340e-5
-1.464, 8.340e-5
-1.463, 8.032e-5
-1.462, 8.032e-5
-1.461, 7.723e-5
-1.460, 7.723e-5
-1.459, 7.415e-5
-1.458, 7.415e-5
-1.457, 7.107e-5
-1.456, 7.107e-5
-1.455, 6.798e-5
-1.454, 6.798e-5
-1.453, 6.490e-5
-1.452, 6.490e-5
-1.451, 6.182e-5
-1.450, 6.182e-5
-1.449, 6.182e-5
-1.448, 6.182e-5
-1.447, 5.873e-5
-1.446, 5.565e-5
-1.445, 5.565e-5
-1.444, 5.257e-5
-1.443, 5.257e-5
-1.442, 5.257e-5
-1.441, 4.949e-5
-1.440, 4.949e-5
-1.439, 4.640e-5
-1.438, 4.640e-5
-1.437, 4.332e-5
-1.436, 4.332e-5
-1.435, 4.332e-5
-1.434, 4.332e-5
-1.433, 4.024e-5
-1.432, 4.024e-5
-1.431, 3.715e-5
-1.430, 3.715e-5
-1.429, 3.715e-5
-1.428, 3.715e-5
-1.427, 3.407e-5
-1.426, 3.407e-5
-1.425, 3.099e-5
-1.424, 3.099e-5
-1.423, 3.099e-5
-1.422, 3.099e-5
-1.421, 2.790e-5
-1.420, 2.790e-5
-1.419, 2.790e-5
-1.418, 2.790e-5
-1.417, 2.482e-5
-1.416, 2.482e-5
-1.415, 2.482e-5
-1.414, 2.174e-5
-1.413, 2.174e-5
-1.412, 2.174e-5
-1.411, 2.174e-5
-1.410, 2.174e-5
-1.409, 1.865e-5
-1.408, 1.865e-5
-1.407, 1.865e-5
-1.406, 1.865e-5
-1.405, 1.557e-5
-1.404, 1.557e-5
-1.403, 1.557e-5
-1.402, 1.249e-5
-1.401, 1.249e-5
-1.400, 1.249e-5
-1.399, 1.249e-5
-1.398, 1.249e-5
-1.397, 9.405e-6
-1.396, 9.405e-6
-1.395, 9.405e-6
-1.394, 9.405e-6
-1.393, 6.322e-6
-1.392, 9.405e-6
-1.391, 6.322e-6
-1.390, 6.322e-6
-1.389, 6.322e-6
-1.388, 6.322e-6
-1.387, 6.322e-6
-1.386, 6.322e-6
-1.385, 3.239e-6
-1.384, 3.239e-6
-1.383, 3.239e-6
-1.382, 3.239e-6
-1.381, 3.239e-6
-1.380, 3.239e-6
-1.379, 3.239e-6
-1.378, 1.559e-7
-1.377, 1.559e-7
-1.376, 1.559e-7
-1.375, 1.559e-7
-1.374, -2.927e-6
-1.373, -2.927e-6
-1.372, -2.927e-6
-1.371, -2.927e-6
-1.370, -2.927e-6
-1.369, -2.927e-6
-1.368, -2.927e-6
-1.367, -6.010e-6
-1.366, -2.927e-6
-1.365, -6.010e-6
-1.364, -6.010e-6
-1.363, -6.010e-6
-1.362, -6.010e-6
-1.361, -6.010e-6
-1.360, -6.010e-6
-1.359, -6.010e-6
-1.358, -6.010e-6
-1.357, -6.010e-6
-1.356, -9.093e-6
-1.355, -9.093e-6
-1.354, -6.010e-6
-1.353, -9.093e-6
-1.352, -9.093e-6
-1.351, -9.093e-6
-1.350, -9.093e-6
-1.349, -9.093e-6
-1.348, -9.093e-6
-1.347, -1.218e-5
-1.346, -9.093e-6
-1.345, -9.093e-6
-1.344, -1.218e-5
-1.343, -1.218e-5
-1.342, -1.218e-5
-1.341, -1.218e-5
-1.340, -1.218e-5
-1.339, -1.218e-5
-1.338, -1.218e-5
-1.337, -1.218e-5
-1.336, -1.218e-5
-1.335, -1.526e-5
-1.334, -1.218e-5
-1.333, -1.218e-5
-1.332, -1.526e-5
-1.331, -1.526e-5
-1.330, -1.526e-5
-1.329, -1.526e-5
-1.328, -1.526e-5
-1.327, -1.526e-5
-1.326, -1.526e-5
-1.325, -1.526e-5
-1.324, -1.526e-5
-1.323, -1.526e-5
-1.322, -1.526e-5
-1.321, -1.526e-5
-1.320, -1.526e-5
-1.319, -1.526e-5
-1.318, -1.526e-5
-1.317, -1.834e-5
-1.316, -1.834e-5
-1.315, -1.834e-5
-1.314, -1.834e-5
-1.313, -1.834e-5
-1.312, -1.834e-5
-1.311, -1.834e-5
-1.310, -1.834e-5
-1.309, -1.834e-5
-1.308, -1.834e-5
-1.307, -1.834e-5
-1.306, -1.834e-5
-1.305, -2.143e-5
-1.304, -1.834e-5
-1.303, -2.143e-5
-1.302, -2.143e-5
-1.301, -2.143e-5
-1.300, -2.143e-5
-1.299, -2.143e-5
-1.298, -2.143e-5
-1.297, -2.143e-5
-1.296, -2.143e-5
-1.295, -2.143e-5
-1.294, -2.143e-5
-1.293, -2.143e-5
-1.292, -2.143e-5
-1.291, -2.451e-5
-1.290, -2.143e-5
-1.289, -2.143e-5
-1.288, -2.143e-5
-1.287, -2.451e-5
-1.286, -2.451e-5
-1.285, -2.451e-5
-1.284, -2.451e-5
-1.283, -2.451e-5
-1.282, -2.451e-5
-1.281, -2.451e-5
-1.280, -2.451e-5
-1.279, -2.451e-5
-1.278, -2.451e-5
-1.277, -2.451e-5
-1.276, -2.451e-5
-1.275, -2.759e-5
-1.274, -2.451e-5
-1.273, -2.451e-5
-1.272, -2.451e-5
-1.271, -2.759e-5
-1.270, -2.451e-5
-1.269, -2.451e-5
-1.268, -2.451e-5
-1.267, -2.759e-5
-1.266, -2.759e-5
-1.265, -2.759e-5
-1.264, -2.759e-5
-1.263, -2.759e-5
-1.262, -2.759e-5
-1.261, -2.759e-5
-1.260, -2.759e-5
-1.259, -2.759e-5
-1.258, -2.759e-5
-1.257, -2.759e-5
-1.256, -2.759e-5
-1.255, -2.759e-5
-1.254, -3.068e-5
-1.253, -2.759e-5
-1.252, -3.068e-5
-1.251, -3.068e-5
-1.250, -3.068e-5
-1.249, -3.068e-5
-1.248, -3.068e-5
-1.247, -3.068e-5
-1.246, -3.068e-5
-1.245, -3.068e-5
-1.244, -3.068e-5
-1.243, -3.068e-5
-1.242, -3.068e-5
-1.241, -3.068e-5
-1.240, -3.068e-5
-1.239, -3.068e-5
-1.238, -3.068e-5
-1.237, -3.068e-5
-1.236, -3.068e-5
-1.235, -3.376e-5
-1.234, -3.068e-5
-1.233, -3.376e-5
-1.232, -3.376e-5
-1.231, -3.376e-5
-1.230, -3.376e-5
-1.229, -3.376e-5
-1.228, -3.376e-5
-1.227, -3.376e-5
-1.226, -3.376e-5
-1.225, -3.376e-5
-1.224, -3.376e-5
-1.223, -3.684e-5
-1.222, -3.376e-5
-1.221, -3.684e-5
-1.220, -3.376e-5
-1.219, -3.684e-5
-1.218, -3.376e-5
-1.217, -3.684e-5
-1.216, -3.684e-5
-1.215, -3.684e-5
-1.214, -3.684e-5
-1.213, -3.684e-5
-1.212, -3.992e-5
-1.211, -3.992e-5
-1.210, -3.684e-5
-1.209, -3.992e-5
-1.208, -3.992e-5
-1.207, -3.992e-5
-1.206, -3.992e-5
-1.205, -3.992e-5
-1.204, -3.992e-5
-1.203, -3.992e-5
-1.202, -3.992e-5
-1.201, -3.992e-5
-1.200, -4.301e-5
-1.199, -3.992e-5
-1.198, -4.301e-5
-1.197, -4.301e-5
-1.196, -4.301e-5
-1.195, -4.301e-5
-1.194, -4.301e-5
-1.193, -4.301e-5
-1.192, -4.301e-5
-1.191, -4.609e-5
-1.190, -4.609e-5
-1.189, -4.301e-5
-1.188, -4.609e-5
-1.187, -4.609e-5
-1.186, -4.609e-5
-1.185, -4.609e-5
-1.184, -4.609e-5
-1.183, -4.609e-5
-1.182, -4.917e-5
-1.181, -4.609e-5
-1.180, -4.917e-5
-1.179, -4.609e-5
-1.178, -4.917e-5
-1.177, -5.226e-5
-1.176, -4.917e-5
-1.175, -4.917e-5
-1.174, -5.226e-5
-1.173, -5.226e-5
-1.172, -5.226e-5
-1.171, -5.226e-5
-1.170, -5.226e-5
-1.169, -5.226e-5
-1.168, -5.226e-5
-1.167, -5.534e-5
-1.166, -5.534e-5
-1.165, -5.534e-5
-1.164, -5.534e-5
-1.163, -5.534e-5
-1.162, -5.534e-5
-1.161, -5.842e-5
-1.160, -5.842e-5
-1.159, -5.842e-5
-1.158, -5.842e-5
-1.157, -5.842e-5
-1.156, -6.151e-5
-1.155, -6.151e-5
-1.154, -6.151e-5
-1.153, -6.151e-5
-1.152, -6.151e-5
-1.151, -6.151e-5
-1.150, -6.151e-5
-1.149, -6.459e-5
-1.148, -6.459e-5
-1.147, -6.459e-5
-1.146, -6.459e-5
-1.145, -6.767e-5
-1.144, -6.767e-5
-1.143, -6.767e-5
-1.142, -6.767e-5
-1.141, -6.767e-5
-1.140, -6.767e-5
-1.139, -7.076e-5
-1.138, -7.076e-5
-1.137, -7.076e-5
-1.136, -7.076e-5
-1.135, -7.384e-5
-1.134, -7.384e-5
-1.133, -7.384e-5
-1.132, -7.384e-5
-1.131, -7.692e-5
-1.130, -7.692e-5
-1.129, -7.692e-5
-1.128, -7.692e-5
-1.127, -7.692e-5
-1.126, -8.000e-5
-1.125, -8.000e-5
-1.124, -8.000e-5
-1.123, -8.309e-5
-1.122, -8.309e-5
-1.121, -8.309e-5
-1.120, -8.309e-5
-1.119, -8.309e-5
-1.118, -8.617e-5
-1.117, -8.617e-5
-1.116, -8.617e-5
-1.115, -8.925e-5
-1.114, -8.925e-5
-1.113, -8.925e-5
-1.112, -9.234e-5
-1.111, -9.234e-5
-1.110, -9.234e-5
-1.109, -9.542e-5
-1.108, -9.542e-5
-1.107, -9.542e-5
-1.106, -9.850e-5
-1.105, -9.850e-5
-1.104, -9.850e-5
-1.103, -1.016e-4
-1.102, -1.016e-4
-1.101, -1.016e-4
-1.100, -1.016e-4
-1.099, -1.047e-4
-1.098, -1.047e-4
-1.097, -1.078e-4
-1.096, -1.078e-4
-1.095, -1.108e-4
-1.094, -1.108e-4
-1.093, -1.108e-4
-1.092, -1.108e-4
-1.091, -1.139e-4
-1.090, -1.139e-4
-1.089, -1.139e-4
-1.088, -1.170e-4
-1.087, -1.170e-4
-1.086, -1.201e-4
-1.085, -1.201e-4
-1.084, -1.232e-4
-1.083, -1.232e-4
-1.082, -1.232e-4
-1.081, -1.263e-4
-1.080, -1.263e-4
-1.079, -1.263e-4
-1.078, -1.263e-4
-1.077, -1.293e-4
-1.076, -1.293e-4
-1.075, -1.324e-4
-1.074, -1.324e-4
-1.073, -1.355e-4
-1.072, -1.355e-4
-1.071, -1.355e-4
-1.070, -1.386e-4
-1.069, -1.386e-4
-1.068, -1.386e-4
-1.067, -1.417e-4
-1.066, -1.448e-4
-1.065, -1.448e-4
-1.064, -1.448e-4
-1.063, -1.448e-4
-1.062, -1.478e-4
-1.061, -1.478e-4
-1.060, -1.509e-4
-1.059, -1.509e-4
-1.058, -1.509e-4
-1.057, -1.540e-4
-1.056, -1.571e-4
-1.055, -1.571e-4
-1.054, -1.571e-4
-1.053, -1.602e-4
-1.052, -1.602e-4
-1.051, -1.602e-4
-1.050, -1.602e-4
-1.049, -1.632e-4
-1.048, -1.632e-4
-1.047, -1.663e-4
-1.046, -1.663e-4
-1.045, -1.694e-4
-1.044, -1.694e-4
-1.043, -1.694e-4
-1.042, -1.725e-4
-1.041, -1.725e-4
-1.040, -1.725e-4
-1.039, -1.725e-4
-1.038, -1.756e-4
-1.037, -1.756e-4
-1.036, -1.787e-4
-1.035, -1.787e-4
-1.034, -1.787e-4
-1.033, -1.817e-4
-1.032, -1.817e-4
-1.031, -1.817e-4
-1.030, -1.848e-4
-1.029, -1.848e-4
-1.028, -1.848e-4
-1.027, -1.879e-4
-1.026, -1.879e-4
-1.025, -1.910e-4
-1.024, -1.910e-4
-1.023, -1.910e-4
-1.022, -1.941e-4
-1.021, -1.941e-4
-1.020, -1.941e-4
-1.019, -1.941e-4
-1.018, -1.972e-4
-1.017, -1.972e-4
-1.016, -1.972e-4
-1.015, -2.002e-4
-1.014, -2.002e-4
-1.013, -2.033e-4
-1.012, -2.033e-4
-1.011, -2.033e-4
-1.010, -2.033e-4
-1.009, -2.064e-4
-1.008, -2.064e-4
-1.007, -2.064e-4
-1.006, -2.095e-4
-1.005, -2.095e-4
-1.004, -2.126e-4
-1.003, -2.126e-4
-1.002, -2.126e-4
-1.001, -2.126e-4
