Potential V vs RHE, Current mA cm-2
0.4132999999999999,0.0053688293829878145
0.4122999999999999,0.003429260190872849
0.4112999999999999,0.002931281813320356
0.4102999999999999,0.002659657243746269
0.4092999999999999,0.0024163269001694827
0.4082999999999999,0.002192802514790807
0.4072999999999999,0.001919763233916855
0.4062999999999999,0.0017980980621284616
0.4052999999999999,0.001652382798242363
0.4042999999999999,0.001498179266557074
0.4032999999999999,0.0013178035758242817
0.4022999999999999,0.001137852298481449
0.4012999999999999,0.0010248168656222328
0.4002999999999999,0.00092012822943222
0.3992999999999999,0.0007804962241355406
0.3982999999999999,0.0006046476095623166
0.3972999999999999,0.00045949823019616386
0.3962999999999999,0.0003590537279057463
0.3952999999999999,0.0002863375670926834
0.3942999999999999,0.0001537791182953295
0.39329999999999987,1.7033124050375042e-05
0.39229999999999987,-0.00011975531153357535
0.39129999999999987,-0.00021192375271978248
0.39029999999999987,-0.00027742488590353376
0.38929999999999987,-0.00037518143672420767
0.38829999999999987,-0.0005203308160903605
0.38729999999999987,-0.000636195671549307
0.38629999999999987,-0.0007240492432709258
0.38529999999999986,-0.0008008680668535972
0.38429999999999986,-0.0008874483984053377
0.38329999999999986,-0.0010074159166338925
0.38229999999999986,-0.001123280772092839
0.38129999999999986,-0.001173503023238048
0.38029999999999986,-0.001255839220890193
0.37929999999999986,-0.0013271406704033909
0.37829999999999986,-0.0014500790823616626
0.37729999999999986,-0.0015745736767497859
0.37629999999999986,-0.0016339915513441175
0.37529999999999986,-0.0017103859615368294
0.37429999999999986,-0.001778292103930351
0.37329999999999985,-0.001897127853119014
0.37229999999999985,-0.0020230371588070024
0.37129999999999985,-0.0020612343639033583
0.37029999999999985,-0.0021234816610974203
0.36929999999999985,-0.002198461359990267
0.36829999999999985,-0.0022890028831816294
0.36729999999999985,-0.0024219857453689425
0.36629999999999985,-0.002475744774763814
0.36529999999999985,-0.00251111255726044
0.36429999999999985,-0.0025889216787530174
0.36329999999999985,-0.0026950250262428948
0.36229999999999984,-0.002811031352831828
0.36129999999999984,-0.0028619609596269692
0.36029999999999984,-0.00289591403082373
0.35929999999999984,-0.0029822114201154973
0.35829999999999984,-0.0030670940981073996
0.35729999999999984,-0.0031816857133964674
0.35629999999999984,-0.003256665412289315
0.35529999999999984,-0.0032609095461889094
0.35429999999999984,-0.003357109914579732
0.35329999999999984,-0.0034589691281700146
0.35229999999999984,-0.0035551694965608367
0.35129999999999983,-0.0036089285259557086
0.35029999999999983,-0.003628734484153819
0.34929999999999983,-0.0036853229361484205
0.34829999999999983,-0.0038027439740372193
0.34729999999999983,-0.003927238568425341
0.34629999999999983,-0.0039682651961214285
0.34529999999999983,-0.003978168175220483
0.34429999999999983,-0.004020609514216435
0.3432999999999998,-0.004149348242504153
0.3422999999999998,-0.00423847505439565
0.3412999999999998,-0.004286575238591061
0.3402999999999998,-0.0043403342679859324
0.3392999999999998,-0.004384190318281749
0.3382999999999998,-0.004481805397972436
0.3372999999999998,-0.004586494034162449
0.3362999999999998,-0.004603470569760829
0.3352999999999998,-0.004660059021755431
0.3342999999999998,-0.004712403339850436
0.3332999999999998,-0.0048071889969413945
0.3322999999999998,-0.004884998118433972
0.3312999999999998,-0.004920365900930597
0.3302999999999998,-0.004989686754623983
0.3292999999999998,-0.00502788395972034
0.3282999999999998,-0.005114181349012107
0.3272999999999998,-0.00518491691400536
0.3262999999999998,-0.00522452883040158
0.3252999999999999,-0.005272629014596992
0.3242999999999999,-0.005310826219693348
0.3232999999999999,-0.005402782454184575
0.3222999999999999,-0.005497568111275533
0.3212999999999999,-0.005549912429370539
0.3202999999999999,-0.005571133098868514
0.3192999999999999,-0.005623477416963521
0.3182999999999999,-0.005704115961055828
0.3172999999999999,-0.005779095659948674
0.3162999999999999,-0.005838513534543006
0.3152999999999999,-0.005856904781441252
0.3142999999999999,-0.005897931409137338
0.3132999999999999,-0.006001205334027485
0.3122999999999999,-0.006071940899020738
0.3112999999999999,-0.006127114639715474
0.3102999999999999,-0.006166726556111695
0.3092999999999999,-0.00618794722560967
0.3082999999999999,-0.006278488748801033
0.3072999999999999,-0.0063647861380928
0.3062999999999999,-0.006384592096290911
0.3052999999999999,-0.006422789301387267
0.3042999999999999,-0.006459571795183757
0.3032999999999999,-0.006565675142673635
0.3022999999999999,-0.006633581285067157
0.3012999999999999,-0.006671778490163513
0.3002999999999999,-0.006708560983960004
0.2992999999999999,-0.006729781653457979
0.2982999999999999,-0.006814664331449882
0.2972999999999999,-0.006903791143341379
0.2962999999999999,-0.006939158925838005
0.2952999999999999,-0.0069787708422342255
0.2942999999999999,-0.007008479779531391
0.2932999999999999,-0.007084874189724104
0.2922999999999999,-0.007169756867716005
0.2912999999999999,-0.007182489269414791
0.2902999999999999,-0.007205124650212632
0.2892999999999999,-0.007264542524806964
0.2882999999999999,-0.00732254568810143
0.2872999999999999,-0.007414501922592657
0.2862999999999999,-0.007445625571189688
0.2852999999999999,-0.0074710903745872585
0.2842999999999999,-0.007517775847482805
0.2832999999999999,-0.0075998291028749766
0.2822999999999999,-0.007674808801767823
0.2812999999999999,-0.00770451773906499
0.2802999999999999,-0.007713006006864179
0.2792999999999999,-0.007776668015358107
0.2782999999999999,-0.007830427044752978
0.2772999999999999,-0.007922383279244206
0.2762999999999999,-0.007959165773040696
0.2752999999999999,-0.007963409906940291
0.2742999999999999,-0.008017168936335162
0.2732999999999999,-0.008100636903027201
0.2722999999999999,-0.008171372468020452
0.2712999999999999,-0.008196837271418022
0.2702999999999999,-0.008225131497415323
0.2692999999999999,-0.008244937455613433
0.26829999999999987,-0.008346796669203717
0.26729999999999987,-0.008400555698598587
0.26629999999999987,-0.0084203616567967
0.26529999999999987,-0.008455729439293324
0.26429999999999987,-0.008479779531391032
0.26329999999999987,-0.008567491631982662
0.26229999999999987,-0.008655203732574295
0.26129999999999987,-0.008682083247271731
0.26029999999999986,-0.008697645071570247
0.25929999999999986,-0.008734427565366736
0.25829999999999986,-0.008816480820758909
0.25729999999999986,-0.00892682830214838
0.25629999999999986,-0.008914095900449595
0.25529999999999986,-0.008946634260346491
0.25429999999999986,-0.008983416754142982
0.25329999999999986,-0.009044249340037178
0.25229999999999986,-0.009129132018029082
0.25129999999999986,-0.009129132018029082
0.25029999999999986,-0.009168743934425303
0.24929999999999986,-0.009212599984721119
0.24829999999999985,-0.009290409106213695
0.24729999999999985,-0.009375291784205599
0.24629999999999985,-0.009383780052004787
0.24529999999999985,-0.009447442060498716
0.24429999999999985,-0.009475736286496016
0.24329999999999985,-0.009528080604591021
0.24229999999999985,-0.009607304437383465
0.24129999999999985,-0.009628525106881438
0.24029999999999985,-0.00963984279728036
0.23929999999999985,-0.009689357692775636
0.23829999999999985,-0.009762922680368618
0.23729999999999984,-0.00983931709056133
0.23629999999999984,-0.009860537760059306
0.23529999999999984,-0.009866196605258766
0.23429999999999984,-0.009888831986056607
0.23329999999999984,-0.009986447065747294
0.23229999999999984,-0.010048694362941356
0.23129999999999984,-0.010085476856737845
0.23029999999999984,-0.010108112237535688
0.22929999999999984,-0.010157627133030964
0.22829999999999984,-0.01022411856412462
0.22729999999999984,-0.010276462882219627
0.22629999999999983,-0.010306171819516792
0.22529999999999983,-0.010324563066415037
0.22429999999999983,-0.010350027869812609
0.22329999999999983,-0.010444813526903567
0.22229999999999983,-0.010512719669297088
0.22129999999999983,-0.010541013895294387
0.22029999999999983,-0.010560819853492498
0.21929999999999983,-0.01062023772808683
0.21829999999999983,-0.010672582046181836
0.21729999999999983,-0.010726341075576708
0.21629999999999983,-0.010763123569373199
0.21529999999999982,-0.010773026548472254
0.21429999999999982,-0.010811223753568612
0.21329999999999982,-0.010896106431560512
0.21229999999999982,-0.010969671419153495
0.21129999999999982,-0.011000795067750525
0.21029999999999982,-0.011023430448548366
0.20929999999999982,-0.011057383519745126
0.20829999999999982,-0.011138022063837433
0.20729999999999982,-0.011235637143528121
0.20629999999999982,-0.011249784256526773
0.20529999999999982,-0.011259687235625827
0.20429999999999982,-0.011309202131121104
0.20329999999999981,-0.011361546449216109
0.2022999999999998,-0.011445014415908148
0.2012999999999998,-0.011470479219305718
0.20029999999999992,-0.011484626332304368
0.19929999999999992,-0.011536970650399374
0.19829999999999992,-0.01160912092669249
0.19729999999999992,-0.011682685914285472
0.19629999999999992,-0.011709565428982908
0.19529999999999992,-0.011705321295083315
0.19429999999999992,-0.01181425406517292
0.19329999999999992,-0.011890648475365634
0.19229999999999992,-0.01194299279346064
0.19129999999999991,-0.011961384040358885
0.1902999999999999,-0.01197411644205767
0.1892999999999999,-0.012005240090654701
0.1882999999999999,-0.01208587863474701
0.1872999999999999,-0.012162273044939722
0.1862999999999999,-0.012203299672635807
0.1852999999999999,-0.012207543806535402
0.1842999999999999,-0.012234423321232837
0.1832999999999999,-0.012302329463626359
0.1822999999999999,-0.012399944543317045
0.1812999999999999,-0.012416921078915425
0.1802999999999999,-0.012453703572711918
0.1792999999999999,-0.012472094819610162
0.1782999999999999,-0.012540000962003686
0.1772999999999999,-0.012656007288592617
0.1762999999999999,-0.012656007288592617
0.1752999999999999,-0.012681472091990189
0.1742999999999999,-0.012711181029287354
0.1732999999999999,-0.01277484303778128
0.1722999999999999,-0.012872458117471968
0.1712999999999999,-0.012885190519170754
0.1702999999999999,-0.01291772887906765
0.1692999999999999,-0.012940364259865491
0.1682999999999999,-0.012994123289260362
0.1672999999999999,-0.01311154432714916
0.1662999999999999,-0.013118617883648485
0.1652999999999999,-0.01314266797574619
0.1642999999999999,-0.013187938737341873
0.1632999999999999,-0.013247356611936205
0.1622999999999999,-0.01335628938202581
0.1612999999999999,-0.013383168896723247
0.1602999999999999,-0.013388827741922706
0.1592999999999999,-0.013452489750416635
0.15829999999999989,-0.013503419357211773
0.15729999999999988,-0.013588302035203677
0.15629999999999988,-0.013634987508099224
0.15529999999999988,-0.013630743374199627
0.15429999999999988,-0.01367601413579531
0.15329999999999988,-0.013746749700788562
0.15229999999999988,-0.01381607055448195
0.15129999999999988,-0.013855682470878171
0.15029999999999988,-0.013874073717776415
0.14929999999999988,-0.01390944150027304
0.14829999999999988,-0.013985835910465752
0.14729999999999988,-0.014056571475459002
0.14629999999999987,-0.014087695124056035
0.14529999999999987,-0.014113159927453607
0.14429999999999987,-0.014131551174351852
0.14329999999999987,-0.01424614278964092
0.14229999999999987,-0.014345172580631472
0.14129999999999987,-0.014359319693630123
0.14029999999999987,-0.014373466806628774
0.13929999999999987,-0.014387613919627423
0.13829999999999987,-0.014486643710617976
0.13729999999999987,-0.014571526388609878
0.13629999999999987,-0.014585673501608528
0.13529999999999986,-0.014628114840604478
0.13429999999999986,-0.01465640906660178
0.13329999999999986,-0.014712997518596381
0.13229999999999986,-0.014797880196588285
0.13129999999999986,-0.014840321535584235
0.13029999999999986,-0.014868615761581536
0.12929999999999986,-0.014911057100577486
0.12829999999999986,-0.014953498439573438
0.12729999999999986,-0.015066675343562642
0.12629999999999986,-0.01509496956955994
0.12529999999999986,-0.015109116682558592
0.12429999999999986,-0.015165705134553195
0.12329999999999985,-0.015222293586547794
0.12229999999999985,-0.015307176264539698
0.12129999999999985,-0.015349617603535646
0.12029999999999985,-0.0153637647165343
0.11929999999999985,-0.015420353168528897
0.11829999999999985,-0.015476941620523503
0.11729999999999985,-0.015561824298515404
0.11629999999999985,-0.015604265637511355
0.11529999999999985,-0.015618412750510005
0.11429999999999985,-0.015660854089505957
0.11329999999999985,-0.015745736767497857
0.11229999999999984,-0.01581647233249111
0.11129999999999984,-0.01584476655848841
0.11029999999999984,-0.01588720789748436
0.10929999999999984,-0.01591550212348166
0.10829999999999984,-0.016000384801473564
0.10729999999999984,-0.016056973253468165
0.10629999999999984,-0.016099414592464115
0.10529999999999984,-0.01614185593146007
0.10429999999999984,-0.01615600304445872
0.10329999999999984,-0.016283327061446574
0.10229999999999984,-0.016325768400442524
0.10129999999999983,-0.016368209739438477
0.10029999999999983,-0.016410651078434424
0.09929999999999983,-0.016424798191433075
0.09829999999999983,-0.01650968086942498
0.09729999999999983,-0.01660871066041553
0.09629999999999983,-0.01662285777341418
0.09529999999999983,-0.016693593338407434
0.09429999999999983,-0.01670774045140608
0.09329999999999983,-0.016750181790402035
0.09229999999999983,-0.01687750580738989
0.09129999999999983,-0.01691994714638584
0.09029999999999982,-0.016948241372383138
0.08929999999999982,-0.01697653559838044
0.08829999999999982,-0.017047271163373692
0.08729999999999982,-0.017146300954364244
0.08629999999999982,-0.017160448067362895
0.08529999999999982,-0.017202889406358845
0.08429999999999982,-0.0172453307453548
0.08329999999999982,-0.01731606631034805
0.08229999999999982,-0.0174150961013386
0.08129999999999982,-0.017457537440334552
0.08029999999999982,-0.017471684553333203
0.07929999999999982,-0.0175282730053278
0.07829999999999981,-0.017599008570321057
0.07729999999999981,-0.01769803836131161
0.07629999999999981,-0.01772633258730891
0.07529999999999992,-0.017754626813306213
0.07429999999999992,-0.017797068152302163
0.07329999999999992,-0.017867803717295416
0.07229999999999992,-0.017966833508285963
0.07129999999999992,-0.017995127734283266
0.07029999999999992,-0.018023421960280565
0.06929999999999992,-0.018051716186277867
0.06829999999999992,-0.01816489309026707
0.06729999999999992,-0.018249775768258973
0.06629999999999991,-0.018292217107254923
0.06529999999999991,-0.018348805559249524
0.06429999999999991,-0.018377099785246823
0.06329999999999991,-0.01847612957623738
0.06229999999999991,-0.01856101225422928
0.06129999999999991,-0.018603453593225232
0.06029999999999991,-0.018631747819222534
0.05929999999999991,-0.018674189158218484
0.05829999999999991,-0.018759071836210388
0.05729999999999991,-0.01885810162720094
0.056299999999999906,-0.018886395853198238
0.055299999999999905,-0.01892883719219419
0.054299999999999904,-0.01897127853119014
0.0532999999999999,-0.019056161209182042
0.0522999999999999,-0.019169338113171244
0.0512999999999999,-0.019211779452167198
0.0502999999999999,-0.019240073678164497
0.0492999999999999,-0.0192966621301591
0.0482999999999999,-0.019353250582153703
0.0472999999999999,-0.019452280373144254
0.0462999999999999,-0.01950886882513886
0.045299999999999896,-0.019537163051136158
0.044299999999999895,-0.019607898616129407
0.043299999999999894,-0.019664487068124008
0.04229999999999989,-0.019777663972113214
0.04129999999999989,-0.019834252424107815
0.04029999999999989,-0.019890840876102416
0.03929999999999989,-0.019933282215098366
0.03829999999999989,-0.02000401778009162
0.03729999999999989,-0.02011719468408082
0.03629999999999989,-0.020145488910078124
0.03529999999999989,-0.020187930249074077
0.034299999999999886,-0.020230371588070024
0.033299999999999885,-0.02032940137906058
0.032299999999999884,-0.02042843117005113
0.031299999999999883,-0.020470872509047083
0.030299999999999883,-0.020513313848043033
0.02929999999999988,-0.020569902300037635
0.02829999999999988,-0.020683079204026837
0.02729999999999988,-0.02075381476902009
0.02629999999999988,-0.020824550334013342
0.025299999999999878,-0.02085284456001064
0.024299999999999877,-0.02088113878600794
0.023299999999999876,-0.020980168576998495
0.022299999999999875,-0.021093345480987697
0.021299999999999875,-0.021149933932982302
0.020299999999999874,-0.021164081045980946
0.019299999999999873,-0.02122066949797555
0.018299999999999872,-0.021319699288966102
0.01729999999999987,-0.021432876192955305
0.01629999999999987,-0.021461170418952607
0.01529999999999987,-0.02153190598394586
0.014299999999999868,-0.02157434732294181
0.013299999999999867,-0.02167337711393236
0.012299999999999978,-0.021786554017921567
0.011299999999999866,-0.021828995356917517
0.010299999999999976,-0.021885583808912118
0.009299999999999864,-0.02194217226090672
0.008299999999999974,-0.022012907825899968
0.007299999999999862,-0.022140231842887825
0.006299999999999972,-0.022210967407881078
0.00529999999999986,-0.022239261633878377
0.0042999999999999705,-0.02230999719887163
0.0032999999999998586,-0.02239487987686353
0.0022999999999999687,-0.022522203893851383
0.0012999999999998568,-0.022564645232847336
0.00029999999999996696,-0.022607086571843286
-0.000700000000000145,-0.02267782213683654
-0.0017000000000000348,-0.02277685192782709
-0.0027000000000001467,-0.022890028831816296
-0.0037000000000000366,-0.022946617283810897
-0.0047000000000001485,-0.022989058622806844
-0.005700000000000038,-0.0230597941878001
-0.00670000000000015,-0.023158823978790648
-0.00770000000000004,-0.02324370665678255
-0.008700000000000152,-0.023314442221775804
-0.009700000000000042,-0.023342736447773106
-0.010700000000000154,-0.023441766238763657
-0.011700000000000044,-0.02355494314275286
-0.012700000000000156,-0.023639825820744764
-0.013700000000000045,-0.023682267159740714
-0.014700000000000157,-0.02373885561173532
-0.015700000000000047,-0.023809591176728567
-0.01670000000000016,-0.02390862096771912
-0.01770000000000005,-0.024021797871708325
-0.01870000000000016,-0.024106680549700225
-0.01970000000000005,-0.024149121888696175
-0.020700000000000163,-0.02417741611469348
-0.021700000000000053,-0.02426229879268538
-0.022700000000000164,-0.02438962280967323
-0.023700000000000054,-0.024446211261667832
-0.024700000000000166,-0.024516946826661085
-0.025700000000000056,-0.024559388165657038
-0.026700000000000168,-0.02467256506964624
-0.027700000000000058,-0.02479988908663409
-0.02870000000000017,-0.024842330425630044
-0.02970000000000006,-0.024870624651627343
-0.03070000000000017,-0.024969654442617898
-0.03170000000000006,-0.0250545371206098
-0.03270000000000017,-0.025181861137597652
-0.03370000000000006,-0.025210155363594954
-0.034700000000000175,-0.025266743815589552
-0.035700000000000065,-0.02535162649358146
-0.03670000000000018,-0.02543650917157336
-0.03770000000000007,-0.025577980301559864
-0.03870000000000018,-0.025634568753554465
-0.03970000000000007,-0.025677010092550415
-0.04070000000000018,-0.025747745657543668
-0.04170000000000007,-0.025818481222536924
-0.04270000000000018,-0.025959952352523425
-0.04370000000000007,-0.026030687917516674
-0.044700000000000184,-0.026073129256512624
-0.045700000000000074,-0.02612971770850723
-0.046700000000000186,-0.02622874749949778
-0.047700000000000076,-0.026370218629484285
-0.04870000000000019,-0.026440954194477534
-0.04970000000000008,-0.026483395533473487
-0.05070000000000019,-0.02652583687246944
-0.05170000000000008,-0.02665316088945729
-0.05270000000000019,-0.02673804356744919
-0.05370000000000008,-0.026808779132442447
-0.05470000000000019,-0.026851220471438397
-0.05570000000000008,-0.02692195603643165
-0.056700000000000195,-0.027049280053419503
-0.057700000000000085,-0.027148309844410055
-0.058700000000000196,-0.027219045409403307
-0.059700000000000086,-0.027261486748399254
-0.0607000000000002,-0.02730392808739521
-0.06170000000000009,-0.027445399217381712
-0.0627000000000002,-0.027572723234369562
