Potential V vs RHE, Current mA cm-2
0.013299999999999867,18.221481542261674
0.012299999999999978,16.24088572245062
0.011299999999999866,14.812027309586934
0.010299999999999976,12.919143590367515
0.009299999999999864,11.469064508005852
0.008299999999999974,10.168944823429884
0.007299999999999862,8.293037639808846
0.006299999999999972,6.900961720741648
0.00529999999999986,5.419758989782956
0.0042999999999999705,4.159251221603208
0.0032999999999998586,2.8534726918277786
0.0022999999999999687,1.4387613919627424
0.0012999999999998568,0.3874894250330335
0.00029999999999996696,-1.0309001242116522
-0.000700000000000145,-2.1531905983945863
-0.0017000000000000348,-3.2623242574887747
-0.0027000000000001467,-4.559614519465013
-0.0037000000000000366,-5.466444462678503
-0.0047000000000001485,-6.729781653457979
-0.005700000000000038,-7.749788500660671
-0.00670000000000015,-8.789601306061472
-0.00770000000000004,-9.949664571950803
-0.008700000000000152,-10.758879435473604
-0.009700000000000042,-11.947236927360233
-0.010700000000000154,-12.828602067176153
-0.011700000000000044,-13.7127966295918
-0.012700000000000156,-14.812027309586934
-0.013700000000000045,-15.575971411514052
-0.014700000000000157,-16.60871066041553
-0.015700000000000047,-17.34436053634535
-0.01670000000000016,-18.164893090267068
-0.01770000000000005,-19.22592656516585
-0.01870000000000016,-19.791811085111863
-0.01970000000000005,-20.69722631702549
-0.020700000000000163,-21.404581966958006
-0.021700000000000053,-22.15437895588647
-0.022700000000000164,-23.1163826397947
-0.023700000000000054,-23.66812004674206
-0.024700000000000166,-24.57353527865569
-0.025700000000000056,-25.252596702590903
-0.026700000000000168,-25.959952352523427
-0.027700000000000058,-26.794632019443796
-0.02870000000000017,-27.275633861397907
-0.02970000000000006,-28.13860775431558
-0.03070000000000017,-28.718639387260247
-0.03170000000000006,-29.35525947219951
-0.03270000000000017,-30.147497800123933
-0.03370000000000006,-30.37385160810234
-0.034700000000000175,-31.23682550102001
-0.035700000000000065,-32.05735805494172
-0.03670000000000018,-32.53835989689585
-0.03770000000000007,-33.203274207832415
-0.03870000000000018,-33.61354048479327
-0.03970000000000007,-34.292601908728486
-0.04070000000000018,-34.6604268466934
-0.04170000000000007,-35.04239889765696
-0.04270000000000018,-35.82049011258273
-0.04370000000000007,-36.08928525955708
-0.044700000000000184,-36.45711019752199
-0.045700000000000074,-36.98055337847206
-0.046700000000000186,-37.716203254401876
-0.047700000000000076,-38.522588695324956
-0.04870000000000019,-38.791383842299304
-0.04970000000000008,-39.28653279725207
-0.05070000000000019,-39.640210622218326
-0.05170000000000008,-40.24853648116029
-0.05270000000000019,-40.97003924409146
-0.05370000000000008,-40.814421001106304
-0.05470000000000019,-41.719836233019926
-0.05570000000000008,-42.214985187972694
-0.056700000000000195,-42.073514057986195
-0.057700000000000085,-42.752575481921404
-0.058700000000000196,-43.17698887188092
-0.059700000000000086,-43.58725514884178
-0.0607000000000002,-43.61554937483908
-0.06170000000000009,-43.85605029581614
-0.0627000000000002,-44.195581007783744
-0.06370000000000009,-44.535111719751356
-0.0647000000000002,-45.42637983866633
-0.06570000000000009,-45.42637983866633
-0.0667000000000002,-45.29905582167847
-0.0677000000000001,-45.73761632463664
-0.0687000000000002,-46.204471053592094
-0.0697000000000001,-46.95426804252057
-0.07070000000000021,-47.10988628550572
-0.0717000000000001,-47.29379875448818
-0.07270000000000021,-47.972860178423396
-0.0737000000000001,-48.100184195411245
-0.07470000000000021,-48.29824377739235
-0.0757000000000001,-48.59533315036401
-0.07670000000000021,-49.019746540323524
-0.0777000000000001,-49.387571478288436
-0.07870000000000021,-49.34513013929248
-0.0797000000000001,-49.8261319812466
-0.08070000000000022,-50.12322135421825
-0.0817000000000001,-50.61837030917101
-0.08270000000000022,-50.81642989115212
-0.08370000000000011,-50.63251742216966
-0.08470000000000022,-51.09937215112513
-0.08570000000000011,-51.31157884610488
-0.08670000000000022,-51.594521106077885
-0.08770000000000011,-51.962346044042796
-0.08870000000000022,-51.792580688059
-0.08970000000000011,-52.25943541701445
-0.09070000000000022,-52.514083450990164
-0.09170000000000011,-52.74043725896857
-0.09270000000000023,-53.17899776192673
-0.09370000000000012,-53.023379518941574
-0.09470000000000023,-53.46194002189973
-0.09570000000000012,-53.68829382987814
-0.09670000000000023,-53.7873236208687
-0.09770000000000012,-54.0136774288471
-0.09870000000000023,-54.16929567183226
-0.09970000000000012,-54.82006286977017
-0.10070000000000023,-54.933239773759375
-0.10170000000000012,-54.66444462678501
-0.10270000000000024,-55.046416677748574
-0.10370000000000013,-55.51327140670405
-0.10470000000000024,-55.6971838756865
-0.10570000000000013,-55.484977180706736
-0.10670000000000024,-55.64059542369189
-0.10770000000000013,-56.26306839563251
-0.10870000000000024,-56.14989149164331
-0.10970000000000013,-56.475275090612264
-0.11070000000000024,-56.74407023758662
-0.11170000000000013,-57.05530672355693
-0.11270000000000002,-57.29580764453399
-0.11370000000000013,-57.027012497559625
-0.11470000000000002,-57.32410187053129
-0.11570000000000014,-57.73436814749215
-0.11670000000000003,-57.70607392149485
-0.11770000000000014,-58.38513534543006
-0.11870000000000003,-58.880284300382826
-0.11970000000000014,-58.85199007438552
-0.12070000000000003,-58.05975174646111
-0.12170000000000014,-57.87583927747865
-0.12270000000000003,-57.91828061647461
-0.12370000000000014,-57.649485469500235
-0.12470000000000003,-58.39928245842871
-0.12570000000000014,-58.65393049240442
-0.12670000000000003,-58.72466605739767
-0.12770000000000015,-59.17737367335449
-0.12870000000000004,-59.5734928373167
-0.12970000000000015,-60.25255426125191
-0.13070000000000004,-60.30914271324652
-0.13170000000000015,-60.36573116524111
-0.13270000000000004,-60.74770321620468
-0.13370000000000015,-60.63452631221547
-0.13470000000000004,-60.93161568518713
-0.13570000000000015,-60.91746857218848
-0.13670000000000004,-60.53549652122492
-0.13770000000000016,-61.412617527141244
-0.13870000000000005,-61.851178030099405
-0.13970000000000016,-61.53994154412909
-0.14070000000000005,-60.988204137181725
-0.14170000000000016,-61.61067710912235
-0.14270000000000005,-62.04923761208051
-0.14370000000000016,-61.6531184481183
-0.14470000000000005,-62.03509049908186
-0.14570000000000016,-62.61512213202652
-0.14670000000000005,-62.48779811503867
-0.14770000000000016,-62.41706255004542
-0.14870000000000005,-62.74244614901438
-0.14970000000000017,-63.322477781959044
-0.15070000000000006,-63.52053736394014
-0.15170000000000017,-63.803479623913155
-0.15270000000000006,-64.02983343189156
-0.15370000000000017,-63.831773849910455
-0.15470000000000006,-64.31277569186457
-0.15570000000000017,-64.48254104784839
-0.15670000000000006,-64.69474774282813
-0.15770000000000017,-65.31722071476874
-0.15870000000000006,-64.99183711579978
-0.15970000000000018,-65.3030736017701
-0.16070000000000007,-65.5860158617431
-0.16170000000000018,-65.5860158617431
-0.16270000000000007,-65.7557812177269
-0.16370000000000018,-65.65675142673635
-0.16470000000000007,-66.05287059069857
-0.16570000000000018,-65.76992833072556
-0.16670000000000007,-66.02457636470128
-0.16770000000000018,-67.11390406559734
-0.16870000000000007,-66.76022624063107
-0.16970000000000018,-66.47728398065809
-0.17070000000000007,-67.3261107605771
-0.17170000000000019,-67.99102507151366
-0.17270000000000008,-68.01931929751096
-0.1737000000000002,-68.0051721845123
-0.17470000000000008,-68.42958557447183
-0.1757000000000002,-68.67008649544888
-0.17670000000000008,-69.151088337403
-0.1777000000000002,-69.27841235439085
-0.17870000000000008,-69.19352967639895
-0.1797000000000002,-69.8018555353409
-0.18070000000000008,-69.92917955232878
-0.1817000000000002,-70.11309202131122
-0.18270000000000008,-70.29700449029367
-0.1837000000000002,-70.21212181230177
-0.1847000000000001,-70.72141788025318
-0.1857000000000002,-70.82044767124374
-0.1867000000000001,-71.15997838321134
-0.1877000000000002,-71.98051093713306
-0.1887000000000001,-72.32004164910067
-0.1897000000000002,-72.8293377170521
-0.1907000000000001,-72.8859261690467
-0.1917000000000001,-72.75860215205884
-0.19269999999999998,-73.2537511070116
-0.1937000000000001,-73.23960399401295
-0.19469999999999998,-73.197162655017
-0.1957000000000001,-73.40936934999675
-0.19669999999999999,-73.80548851395896
-0.1977000000000001,-74.13087211292792
-0.1987,-74.27234324291443
-0.1997000000000001,-74.96555177984828
-0.2007,-75.20605270082535
-0.2017000000000001,-75.20605270082535
-0.2027,-75.50314207379701
-0.2037000000000001,-75.65876031678216
-0.2047,-75.96999680275246
-0.2057000000000001,-76.08317370674168
-0.2067,-76.38026307971333
-0.2077000000000001,-76.7339409046796
-0.2087,-76.69149956568363
-0.2097000000000001,-77.22908985963235
-0.2107,-77.45544366761075
-0.2117000000000001,-77.69594458858782
-0.2127,-78.40330023852034
-0.2137000000000001,-78.45988869051493
-0.2147,-78.7852722894839
-0.2157000000000001,-78.64380115949739
-0.2167,-78.9550376454677
-0.21770000000000012,-79.91704132937592
-0.2187,-80.32730760633679
-0.21970000000000012,-81.82690158419373
-0.2207,-81.55810643721937
-0.22170000000000012,-80.11510091135703
-0.2227,-80.01607112036648
-0.22370000000000012,-81.24686995124905
-0.2247,-80.65269120530574
-0.22570000000000012,-79.1530972274488
-0.2267,-80.45463162332464
-0.22770000000000012,-82.36449187814243
-0.22870000000000001,-82.90208217209116
-0.22970000000000013,-82.6615812511141
-0.23070000000000002,-82.42108033013703
-0.23170000000000013,-83.45381957903851
-0.23270000000000002,-84.00555698598588
-0.23370000000000013,-83.83579163000208
-0.23470000000000002,-84.9109722178995
-0.23570000000000013,-84.92511933089816
-0.23670000000000002,-84.16117522897105
-0.2376999999999999,-85.80224033681448
-0.23870000000000002,-86.32568351776455
-0.2396999999999999,-85.15147313887655
-0.24070000000000003,-85.12317891287925
-0.24169999999999991,-86.36812485676049
-0.24270000000000003,-86.50959598674699
-0.24369999999999992,-86.09932970978613
-0.24470000000000003,-86.97645071570246
-0.24569999999999992,-87.33012854066871
-0.24670000000000003,-87.25939297567547
-0.24769999999999992,-87.99504285160528
-0.24870000000000003,-88.53263314555399
-0.24969999999999992,-89.22584168248785
-0.25070000000000003,-89.60781373345144
-0.2516999999999999,-89.56537239445547
-0.25270000000000004,-89.93319733242038
-0.2536999999999999,-90.20199247939475
-0.25470000000000004,-90.59811164335694
-0.2556999999999999,-90.98008369432051
-0.25670000000000004,-91.13570193730567
-0.25769999999999993,-91.77232202224494
-0.25870000000000004,-93.04556219212347
-0.25969999999999993,-93.96512453703575
-0.26070000000000004,-94.29050813600469
-0.26169999999999993,-93.66803516406408
-0.26270000000000004,-92.7767670451491
-0.26369999999999993,-93.55485826007487
-0.26470000000000005,-94.4885677179858
-0.26569999999999994,-93.97927165003438
-0.26670000000000005,-93.85194763304654
-0.26769999999999994,-94.5451561699804
-0.26870000000000005,-95.04030512493317
-0.26969999999999994,-96.01645592184003
-0.27070000000000005,-96.624781780782
-0.27169999999999994,-97.36043165671182
-0.27270000000000005,-98.20925843663085
-0.27369999999999994,-98.26584688862545
-0.27470000000000006,-98.80343718257416
-0.27569999999999995,-99.60982262349724
-0.27670000000000006,-100.387913838423
-0.27769999999999995,-100.57182630740544
-0.27870000000000006,-100.28888404743245
-0.27969999999999995,-101.22259350534338
-0.28070000000000006,-101.74603668629344
-0.28169999999999995,-101.76018379929208
-0.28270000000000006,-102.39680388423135
-0.28369999999999995,-102.80707016119221
-0.28470000000000006,-103.30221911614498
-0.28569999999999995,-103.88225074908964
-0.28670000000000007,-104.44813526903565
-0.28769999999999996,-105.09890246697358
-0.28870000000000007,-105.7496696649115
-0.28969999999999996,-106.54190799283592
-0.29070000000000007,-107.10779251278193
-0.29169999999999996,-107.50391167674414
-0.29270000000000007,-108.4517682476537
-0.29369999999999996,-108.66397494263347
-0.2947000000000001,-108.93277008960783
-0.29569999999999996,-109.56939017454708
-0.2967000000000001,-109.9655093385093
-0.29769999999999996,-110.48895251945936
-0.2987000000000001,-111.05483703940537
-0.29969999999999997,-111.93195804532172
-0.3007000000000001,-112.10172340130552
-0.30169999999999997,-112.68175503425017
-0.3027000000000001,-113.67205294415571
-0.30369999999999997,-114.0681721081179
-0.3047000000000001,-114.95944022703287
-0.30569999999999997,-115.51117763398025
-0.3067000000000001,-116.03462081493029
-0.3077,-117.06736006383179
-0.3087000000000001,-117.61909747077915
-0.3097,-118.2274233297211
-0.3107000000000001,-118.77916073666849
-0.3117,-119.5996932905902
-0.3127000000000001,-120.60413831349437
-0.3137,-120.78805078247684
-0.3147000000000001,-121.00025747745659
-0.3157,-121.83493714437697
-0.3167000000000001,-122.91011773227437
-0.3177,-123.91456275517855
-0.3187000000000001,-124.11262233715966
-0.3197,-124.89071355208544
-0.3207000000000001,-125.88101146199097
-0.3217,-126.54592577292753
-0.3227000000000001,-127.05522184087894
-0.3237,-127.4937823438371
-0.3247000000000001,-128.65384560972643
-0.3257,-129.07825899968594
-0.3267000000000001,-128.469933140744
-0.3277,-132.798949718331
-0.3287000000000001,-134.80783976413935
-0.3297,-131.97841716440928
-0.3307000000000001,-132.6291843623472
-0.3317,-135.95375591703004
-0.3327000000000001,-135.09078202411234
-0.3337,-133.2233631082905
-0.3347000000000001,-135.43031273607997
-0.3357,-136.5337875499747
-0.3367000000000001,-135.95375591703004
-0.3377,-137.5806739118748
-0.3387000000000001,-139.10856211572906
-0.3397,-139.57541684468453
-0.3407000000000001,-140.608156093586
-0.3417,-141.61260111649017
-0.3427000000000001,-142.6028990263957
-0.3437,-143.5931969363012
-0.3447000000000001,-144.72496597619326
-0.3457,-144.86643710617977
-0.3467000000000001,-145.85673501608528
-0.3477,-146.8470329259908
-0.3487000000000001,-146.5640906660178
-0.3497,-147.6958597059098
-0.3507000000000001,-149.1105710057749
-0.3517,-149.25204213576137
-0.3527000000000001,-149.6764555257209
-0.3537,-151.37410908555893
-0.3547000000000001,-152.64734925543743
-0.3557,-152.0814647354914
-0.35670000000000013,-153.49617603535648
-0.3577,-155.61824298515404
-0.35870000000000013,-155.61824298515404
-0.3597,-157.03295428501906
-0.36070000000000013,-158.1647233249111
-0.3617,-158.87207897484362
-0.3626999999999999,-159.86237688474912
-0.3637,-160.28679027470866
-0.3646999999999999,-161.1356170546277
-0.3657,-161.9844438345467
-0.3666999999999999,-162.40885722450622
-0.3677,-162.97474174445222
-0.3686999999999999,-163.82356852437124
-0.36970000000000003,-164.67239530429026
-0.3706999999999999,-165.94563547416882
-0.37170000000000003,-166.79446225408785
-0.3726999999999999,-167.21887564404733
-0.37370000000000003,-167.92623129397984
-0.3746999999999999,-169.19947146385837
-0.37570000000000003,-169.9068271137909
-0.3766999999999999,-170.89712502369645
-0.37770000000000004,-172.0288940635885
-0.3786999999999999,-172.45330745354798
-0.37970000000000004,-173.72654762342648
-0.3806999999999999,-174.57537440334553
-0.38170000000000004,-175.56567231325104
-0.38269999999999993,-177.82921039303508
-0.38370000000000004,-178.1121526530081
-0.38469999999999993,-177.9706815230216
-0.38570000000000004,-179.66833508285964
-0.38669999999999993,-179.38539282288664
-0.38570000000000004,-176.55597022315658
-0.38469999999999993,-174.150961013386
-0.38370000000000004,-172.31183632356147
-0.38269999999999993,-170.47271163373694
-0.38170000000000004,-168.91652920388537
-0.3806999999999999,-166.93593338407433
-0.37970000000000004,-164.81386643427678
-0.3786999999999999,-163.68209739438475
-0.37770000000000004,-161.84297270456022
-0.3766999999999999,-159.57943462477613
-0.37570000000000003,-157.59883880496508
-0.3746999999999999,-155.90118524512707
-0.37370000000000003,-154.9108873352215
-0.3726999999999999,-152.78882038542397
-0.37170000000000003,-150.8082245656129
-0.3706999999999999,-149.1105710057749
-0.36970000000000003,-146.9885040559773
-0.3686999999999999,-145.29085049613926
-0.3677,-143.3102546763282
-0.3666999999999999,-141.75407224647665
-0.3657,-140.82036278856575
-0.3646999999999999,-139.02367943773717
-0.3637,-137.04308361792607
-0.3626999999999999,-135.57178386606648
-0.3617,-134.256102357192
-0.36070000000000013,-132.71406704033907
-0.3597,-130.95982502850646
-0.35870000000000013,-129.601702180636
-0.3577,-128.18699088077096
-0.35670000000000013,-126.82886803290056
-0.3557,-125.35756828104091
-0.3547000000000001,-123.54673781721365
-0.3537,-122.4432630033189
-0.3527000000000001,-121.3680824154215
-0.3517,-119.769458646574
-0.3507000000000001,-118.2274233297211
-0.3497,-116.62879956087362
-0.3487000000000001,-115.5253247469789
-0.3477,-114.28037880309766
-0.3467000000000001,-113.24763955419618
-0.3457,-112.07342917530822
-0.3447000000000001,-110.26259871148096
-0.3437,-109.39962481856328
-0.3427000000000001,-107.631235693732
-0.3417,-105.8062581169061
-0.3407000000000001,-104.2925170260505
-0.3397,-102.3826567712327
-0.3387000000000001,-101.29332907033663
-0.3377,-100.37376672542435
-0.3367000000000001,-98.94490831256067
-0.3357,-97.94046328965649
-0.3347000000000001,-96.55404621578876
-0.3337,-95.53545407988594
-0.3327000000000001,-94.72906863896286
-0.3317,-93.86609474604518
-0.3307000000000001,-92.56456035016936
-0.3297,-90.99423080731917
-0.3287000000000001,-89.98978578441499
-0.3277,-88.7023985015378
-0.3267000000000001,-86.46715464775104
-0.3257,-85.01000200889004
-0.3247000000000001,-83.99140987298723
-0.3237,-82.95867062408576
-0.3227000000000001,-81.85519581019103
-0.3217,-80.93563346527876
-0.3207000000000001,-79.88874710337862
-0.3197,-78.33256467352709
-0.3187000000000001,-77.61106191059591
-0.3177,-76.42270441870929
-0.3167000000000001,-74.80993353686314
-0.3157,-73.77719428796166
-0.3147000000000001,-72.74445503906018
-0.3137,-71.78245135515196
-0.3127000000000001,-70.77800633224777
-0.3117,-70.28285737729502
-0.3107000000000001,-69.6037959533598
-0.3097,-66.97243293561084
-0.3087000000000001,-65.26063226277414
-0.3077,-64.29862857886593
-0.3067000000000001,-62.81318171400764
-0.30569999999999997,-61.384323301143944
-0.3047000000000001,-60.19596580925731
-0.30369999999999997,-59.99790622727621
-0.3027000000000001,-59.46031593332749
-0.30169999999999997,-58.35684111943277
-0.3007000000000001,-57.550455678509685
-0.29969999999999997,-56.53186354260687
-0.2987000000000001,-55.7254781016838
-0.29769999999999996,-54.38150236681201
-0.2967000000000001,-53.348763117910536
-0.29569999999999996,-52.49993633799151
-0.2947000000000001,-51.05693081212917
-0.29369999999999996,-50.109074241219595
-0.29270000000000007,-49.16121767031002
-0.29169999999999996,-48.1709197604045
-0.29070000000000007,-47.29379875448818
-0.28969999999999996,-46.2327652795894
-0.28870000000000007,-45.624439420647434
-0.28769999999999996,-44.648288623740555
-0.28670000000000007,-43.43163690585662
-0.28569999999999995,-42.653545690930855
-0.28470000000000006,-41.620806442029384
-0.28369999999999995,-40.77197966211036
-0.28270000000000006,-39.79582886520348
-0.28169999999999995,-38.74894250330336
-0.28070000000000006,-38.04158685337084
-0.27969999999999995,-37.00884760446935
-0.27870000000000006,-36.230756389543586
-0.27769999999999995,-35.367782496625914
-0.27670000000000006,-34.5472499427042
-0.27569999999999995,-33.89648274476628
-0.27470000000000006,-32.79300793087155
-0.27369999999999994,-32.170534958930936
-0.27270000000000005,-31.30756106601326
-0.27169999999999994,-30.345557382105042
-0.27070000000000005,-29.751378636161718
-0.26969999999999994,-28.775227839254843
-0.26870000000000005,-28.11031352831828
-0.26769999999999994,-27.261486748399253
-0.26670000000000005,-26.32777729048833
-0.26569999999999994,-25.691157205549064
-0.26470000000000005,-24.799889086634096
