Dec. 27, 2024   11:02:37
Cyclic Voltammetry
File: c:/users/guazh/data/banditlqround7_x0exp136_r20/2024-12-24-exp757\exp757-2024-12-27t10_55_21-h2koh\exp757_cv_sr_500mvs_efin_-1400mv.bin
Data Source:  Experiment
Instrument Model:  CHI760E
Header: CV ran at 500 mVs
Note: 

Init E (V) = -1
High E (V) = -1
Low E (V) = -1.4
Final E (V) = -1
Init P/N = N
Scan Rate (V/s) = 0.5
Segment = 3
Sample Interval (V) = 0.001
Quiet Time (sec) = 2
Sensitivity (A/V) = 0.01
Comp R (ohm) = 1.4

Results:

Channel 1:
Segment 1:

Segment 2:

Segment 3:

Potential/V, Current/A

-1.000, -1.335e-3
-1.001, -1.205e-3
-1.002, -1.073e-3
-1.003, -9.433e-4
-1.004, -8.200e-4
-1.005, -7.028e-4
-1.006, -5.918e-4
-1.007, -4.870e-4
-1.008, -3.791e-4
-1.009, -2.650e-4
-1.010, -1.478e-4
-1.011, -2.759e-5
-1.012, 8.648e-5
-1.013, 1.944e-4
-1.014, 2.931e-4
-1.015, 3.886e-4
-1.016, 4.842e-4
-1.017, 5.890e-4
-1.018, 7.000e-4
-1.019, 8.141e-4
-1.020, 9.251e-4
-1.021, 1.027e-3
-1.022, 1.125e-3
-1.023, 1.212e-3
-1.024, 1.304e-3
-1.025, 1.400e-3
-1.026, 1.502e-3
-1.027, 1.610e-3
-1.028, 1.714e-3
-1.029, 1.813e-3
-1.030, 1.906e-3
-1.031, 1.992e-3
-1.032, 2.078e-3
-1.033, 2.168e-3
-1.034, 2.263e-3
-1.035, 2.368e-3
-1.036, 2.476e-3
-1.037, 2.575e-3
-1.038, 2.667e-3
-1.039, 2.750e-3
-1.040, 2.827e-3
-1.041, 2.911e-3
-1.042, 2.997e-3
-1.043, 3.093e-3
-1.044, 3.191e-3
-1.045, 3.284e-3
-1.046, 3.370e-3
-1.047, 3.450e-3
-1.048, 3.524e-3
-1.049, 3.604e-3
-1.050, 3.691e-3
-1.051, 3.780e-3
-1.052, 3.876e-3
-1.053, 3.971e-3
-1.054, 4.064e-3
-1.055, 4.141e-3
-1.056, 4.215e-3
-1.057, 4.286e-3
-1.058, 4.357e-3
-1.059, 4.434e-3
-1.060, 4.514e-3
-1.061, 4.594e-3
-1.062, 4.674e-3
-1.063, 4.745e-3
-1.064, 4.810e-3
-1.065, 4.875e-3
-1.066, 4.945e-3
-1.067, 5.029e-3
-1.068, 5.121e-3
-1.069, 5.217e-3
-1.070, 5.312e-3
-1.071, 5.396e-3
-1.072, 5.470e-3
-1.073, 5.541e-3
-1.074, 5.608e-3
-1.075, 5.679e-3
-1.076, 5.750e-3
-1.077, 5.824e-3
-1.078, 5.895e-3
-1.079, 5.963e-3
-1.080, 6.025e-3
-1.081, 6.086e-3
-1.082, 6.148e-3
-1.083, 6.216e-3
-1.084, 6.290e-3
-1.085, 6.367e-3
-1.086, 6.456e-3
-1.087, 6.543e-3
-1.088, 6.620e-3
-1.089, 6.694e-3
-1.090, 6.752e-3
-1.091, 6.817e-3
-1.092, 6.888e-3
-1.093, 6.965e-3
-1.094, 7.036e-3
-1.095, 7.104e-3
-1.096, 7.162e-3
-1.097, 7.212e-3
-1.098, 7.261e-3
-1.099, 7.310e-3
-1.100, 7.369e-3
-1.101, 7.430e-3
-1.102, 7.492e-3
-1.103, 7.557e-3
-1.104, 7.622e-3
-1.105, 7.693e-3
-1.106, 7.760e-3
-1.107, 7.834e-3
-1.108, 7.902e-3
-1.109, 7.964e-3
-1.110, 8.029e-3
-1.111, 8.093e-3
-1.112, 8.161e-3
-1.113, 8.223e-3
-1.114, 8.275e-3
-1.115, 8.325e-3
-1.116, 8.371e-3
-1.117, 8.429e-3
-1.118, 8.494e-3
-1.119, 8.568e-3
-1.120, 8.633e-3
-1.121, 8.691e-3
-1.122, 8.738e-3
-1.123, 8.775e-3
-1.124, 8.821e-3
-1.125, 8.880e-3
-1.126, 8.947e-3
-1.127, 9.021e-3
-1.128, 9.095e-3
-1.129, 9.163e-3
-1.130, 9.225e-3
-1.131, 9.283e-3
-1.132, 9.342e-3
-1.133, 9.404e-3
-1.134, 9.462e-3
-1.135, 9.527e-3
-1.136, 9.589e-3
-1.137, 9.644e-3
-1.138, 9.684e-3
-1.139, 9.715e-3
-1.140, 9.743e-3
-1.141, 9.774e-3
-1.142, 9.820e-3
-1.143, 9.878e-3
-1.144, 9.946e-3
-1.145, 1.001e-2
-1.146, 1.007e-2
-1.147, 1.013e-2
-1.148, 1.018e-2
-1.149, 1.024e-2
-1.150, 1.030e-2
-1.151, 1.037e-2
-1.152, 1.044e-2
-1.153, 1.050e-2
-1.154, 1.055e-2
-1.155, 1.059e-2
-1.156, 1.062e-2
-1.157, 1.065e-2
-1.158, 1.067e-2
-1.159, 1.070e-2
-1.160, 1.074e-2
-1.161, 1.080e-2
-1.162, 1.085e-2
-1.163, 1.089e-2
-1.164, 1.093e-2
-1.165, 1.097e-2
-1.166, 1.101e-2
-1.167, 1.106e-2
-1.168, 1.112e-2
-1.169, 1.119e-2
-1.170, 1.127e-2
-1.171, 1.133e-2
-1.172, 1.138e-2
-1.173, 1.143e-2
-1.174, 1.147e-2
-1.175, 1.151e-2
-1.176, 1.156e-2
-1.177, 1.161e-2
-1.178, 1.166e-2
-1.179, 1.169e-2
-1.180, 1.173e-2
-1.181, 1.175e-2
-1.182, 1.177e-2
-1.183, 1.180e-2
-1.184, 1.185e-2
-1.185, 1.189e-2
-1.186, 1.195e-2
-1.187, 1.201e-2
-1.188, 1.206e-2
-1.189, 1.210e-2
-1.190, 1.214e-2
-1.191, 1.218e-2
-1.192, 1.225e-2
-1.193, 1.232e-2
-1.194, 1.239e-2
-1.195, 1.245e-2
-1.196, 1.250e-2
-1.197, 1.253e-2
-1.198, 1.256e-2
-1.199, 1.258e-2
-1.200, 1.261e-2
-1.201, 1.264e-2
-1.202, 1.267e-2
-1.203, 1.270e-2
-1.204, 1.275e-2
-1.205, 1.280e-2
-1.206, 1.286e-2
-1.207, 1.293e-2
-1.208, 1.302e-2
-1.209, 1.312e-2
-1.210, 1.321e-2
-1.211, 1.329e-2
-1.212, 1.334e-2
-1.213, 1.334e-2
-1.214, 1.330e-2
-1.215, 1.322e-2
-1.216, 1.314e-2
-1.217, 1.308e-2
-1.218, 1.305e-2
-1.219, 1.308e-2
-1.220, 1.318e-2
-1.221, 1.336e-2
-1.222, 1.358e-2
-1.223, 1.379e-2
-1.224, 1.398e-2
-1.225, 1.412e-2
-1.226, 1.423e-2
-1.227, 1.432e-2
-1.228, 1.434e-2
-1.229, 1.433e-2
-1.230, 1.427e-2
-1.231, 1.414e-2
-1.232, 1.399e-2
-1.233, 1.386e-2
-1.234, 1.376e-2
-1.235, 1.369e-2
-1.236, 1.366e-2
-1.237, 1.367e-2
-1.238, 1.372e-2
-1.239, 1.382e-2
-1.240, 1.394e-2
-1.241, 1.407e-2
-1.242, 1.419e-2
-1.243, 1.429e-2
-1.244, 1.438e-2
-1.245, 1.445e-2
-1.246, 1.449e-2
-1.247, 1.451e-2
-1.248, 1.449e-2
-1.249, 1.446e-2
-1.250, 1.444e-2
-1.251, 1.442e-2
-1.252, 1.440e-2
-1.253, 1.439e-2
-1.254, 1.439e-2
-1.255, 1.440e-2
-1.256, 1.445e-2
-1.257, 1.452e-2
-1.258, 1.463e-2
-1.259, 1.474e-2
-1.260, 1.485e-2
-1.261, 1.494e-2
-1.262, 1.501e-2
-1.263, 1.508e-2
-1.264, 1.512e-2
-1.265, 1.516e-2
-1.266, 1.519e-2
-1.267, 1.520e-2
-1.268, 1.522e-2
-1.269, 1.524e-2
-1.270, 1.527e-2
-1.271, 1.530e-2
-1.272, 1.533e-2
-1.273, 1.534e-2
-1.274, 1.536e-2
-1.275, 1.539e-2
-1.276, 1.544e-2
-1.277, 1.551e-2
-1.278, 1.558e-2
-1.279, 1.564e-2
-1.280, 1.568e-2
-1.281, 1.571e-2
-1.282, 1.574e-2
-1.283, 1.577e-2
-1.284, 1.579e-2
-1.285, 1.581e-2
-1.286, 1.583e-2
-1.287, 1.585e-2
-1.288, 1.586e-2
-1.289, 1.587e-2
-1.290, 1.590e-2
-1.291, 1.595e-2
-1.292, 1.599e-2
-1.293, 1.604e-2
-1.294, 1.608e-2
-1.295, 1.612e-2
-1.296, 1.615e-2
-1.297, 1.619e-2
-1.298, 1.621e-2
-1.299, 1.623e-2
-1.300, 1.624e-2
-1.301, 1.627e-2
-1.302, 1.629e-2
-1.303, 1.632e-2
-1.304, 1.633e-2
-1.305, 1.632e-2
-1.306, 1.632e-2
-1.307, 1.632e-2
-1.308, 1.634e-2
-1.309, 1.637e-2
-1.310, 1.641e-2
-1.311, 1.645e-2
-1.312, 1.649e-2
-1.313, 1.653e-2
-1.314, 1.656e-2
-1.315, 1.659e-2
-1.316, 1.663e-2
-1.317, 1.666e-2
-1.318, 1.667e-2
-1.319, 1.670e-2
-1.320, 1.672e-2
-1.321, 1.674e-2
-1.322, 1.676e-2
-1.323, 1.677e-2
-1.324, 1.679e-2
-1.325, 1.681e-2
-1.326, 1.684e-2
-1.327, 1.687e-2
-1.328, 1.691e-2
-1.329, 1.695e-2
-1.330, 1.698e-2
-1.331, 1.700e-2
-1.332, 1.702e-2
-1.333, 1.703e-2
-1.334, 1.706e-2
-1.335, 1.710e-2
-1.336, 1.714e-2
-1.337, 1.717e-2
-1.338, 1.719e-2
-1.339, 1.720e-2
-1.340, 1.720e-2
-1.341, 1.723e-2
-1.342, 1.727e-2
-1.343, 1.732e-2
-1.344, 1.743e-2
-1.345, 1.752e-2
-1.346, 1.755e-2
-1.347, 1.761e-2
-1.348, 1.768e-2
-1.349, 1.770e-2
-1.350, 1.774e-2
-1.351, 1.777e-2
-1.352, 1.777e-2
-1.353, 1.777e-2
-1.354, 1.775e-2
-1.355, 1.774e-2
-1.356, 1.774e-2
-1.357, 1.774e-2
-1.358, 1.778e-2
-1.359, 1.785e-2
-1.360, 1.793e-2
-1.361, 1.804e-2
-1.362, 1.816e-2
-1.363, 1.824e-2
-1.364, 1.828e-2
-1.365, 1.830e-2
-1.366, 1.831e-2
-1.367, 1.832e-2
-1.368, 1.830e-2
-1.369, 1.827e-2
-1.370, 1.824e-2
-1.371, 1.820e-2
-1.372, 1.817e-2
-1.373, 1.815e-2
-1.374, 1.815e-2
-1.375, 1.817e-2
-1.376, 1.819e-2
-1.377, 1.825e-2
-1.378, 1.832e-2
-1.379, 1.842e-2
-1.380, 1.851e-2
-1.381, 1.857e-2
-1.382, 1.862e-2
-1.383, 1.866e-2
-1.384, 1.869e-2
-1.385, 1.873e-2
-1.386, 1.877e-2
-1.387, 1.879e-2
-1.388, 1.880e-2
-1.389, 1.877e-2
-1.390, 1.875e-2
-1.391, 1.874e-2
-1.392, 1.875e-2
-1.393, 1.877e-2
-1.394, 1.879e-2
-1.395, 1.881e-2
-1.396, 1.882e-2
-1.397, 1.883e-2
-1.398, 1.885e-2
-1.399, 1.890e-2
-1.400, 1.887e-2
-1.399, 1.867e-2
-1.398, 1.848e-2
-1.397, 1.829e-2
-1.396, 1.809e-2
-1.395, 1.789e-2
-1.394, 1.768e-2
-1.393, 1.746e-2
-1.392, 1.724e-2
-1.391, 1.703e-2
-1.390, 1.682e-2
-1.389, 1.663e-2
-1.388, 1.644e-2
-1.387, 1.625e-2
-1.386, 1.607e-2
-1.385, 1.588e-2
-1.384, 1.570e-2
-1.383, 1.554e-2
-1.382, 1.538e-2
-1.381, 1.522e-2
-1.380, 1.505e-2
-1.379, 1.488e-2
-1.378, 1.471e-2
-1.377, 1.455e-2
-1.376, 1.439e-2
-1.375, 1.423e-2
-1.374, 1.407e-2
-1.373, 1.391e-2
-1.372, 1.375e-2
-1.371, 1.360e-2
-1.370, 1.345e-2
-1.369, 1.330e-2
-1.368, 1.315e-2
-1.367, 1.299e-2
-1.366, 1.284e-2
-1.365, 1.269e-2
-1.364, 1.255e-2
-1.363, 1.243e-2
-1.362, 1.230e-2
-1.361, 1.215e-2
-1.360, 1.199e-2
-1.359, 1.185e-2
-1.358, 1.170e-2
-1.357, 1.156e-2
-1.356, 1.144e-2
-1.355, 1.132e-2
-1.354, 1.118e-2
-1.353, 1.104e-2
-1.352, 1.089e-2
-1.351, 1.074e-2
-1.350, 1.061e-2
-1.349, 1.049e-2
-1.348, 1.037e-2
-1.347, 1.025e-2
-1.346, 1.011e-2
-1.345, 9.974e-3
-1.344, 9.838e-3
-1.343, 9.706e-3
-1.342, 9.582e-3
-1.341, 9.465e-3
-1.340, 9.345e-3
-1.339, 9.222e-3
-1.338, 9.095e-3
-1.337, 8.963e-3
-1.336, 8.830e-3
-1.335, 8.688e-3
-1.334, 8.553e-3
-1.333, 8.429e-3
-1.332, 8.309e-3
-1.331, 8.192e-3
-1.330, 8.078e-3
-1.329, 7.955e-3
-1.328, 7.828e-3
-1.327, 7.702e-3
-1.326, 7.578e-3
-1.325, 7.467e-3
-1.324, 7.366e-3
-1.323, 7.270e-3
-1.322, 7.175e-3
-1.321, 7.079e-3
-1.320, 6.971e-3
-1.319, 6.857e-3
-1.318, 6.740e-3
-1.317, 6.632e-3
-1.316, 6.527e-3
-1.315, 6.428e-3
-1.314, 6.330e-3
-1.313, 6.225e-3
-1.312, 6.114e-3
-1.311, 6.000e-3
-1.310, 5.889e-3
-1.309, 5.784e-3
-1.308, 5.688e-3
-1.307, 5.599e-3
-1.306, 5.507e-3
-1.305, 5.417e-3
-1.304, 5.328e-3
-1.303, 5.229e-3
-1.302, 5.127e-3
-1.301, 5.026e-3
-1.300, 4.927e-3
-1.299, 4.834e-3
-1.298, 4.748e-3
-1.297, 4.659e-3
-1.296, 4.566e-3
-1.295, 4.471e-3
-1.294, 4.366e-3
-1.293, 4.261e-3
-1.292, 4.162e-3
-1.291, 4.076e-3
-1.290, 3.987e-3
-1.289, 3.900e-3
-1.288, 3.808e-3
-1.287, 3.709e-3
-1.286, 3.604e-3
-1.285, 3.503e-3
-1.284, 3.404e-3
-1.283, 3.318e-3
-1.282, 3.241e-3
-1.281, 3.163e-3
-1.280, 3.089e-3
-1.279, 3.006e-3
-1.278, 2.917e-3
-1.277, 2.815e-3
-1.276, 2.716e-3
-1.275, 2.624e-3
-1.274, 2.538e-3
-1.273, 2.460e-3
-1.272, 2.386e-3
-1.271, 2.303e-3
-1.270, 2.214e-3
-1.269, 2.118e-3
-1.268, 2.017e-3
-1.267, 1.924e-3
-1.266, 1.841e-3
-1.265, 1.764e-3
-1.264, 1.690e-3
-1.263, 1.610e-3
-1.262, 1.526e-3
-1.261, 1.440e-3
-1.260, 1.347e-3
-1.259, 1.261e-3
-1.258, 1.184e-3
-1.257, 1.107e-3
-1.256, 1.036e-3
-1.255, 9.652e-4
-1.254, 8.850e-4
-1.253, 7.987e-4
-1.252, 7.062e-4
-1.251, 6.199e-4
-1.250, 5.397e-4
-1.249, 4.688e-4
-1.248, 4.010e-4
-1.247, 3.331e-4
-1.246, 2.622e-4
-1.245, 1.851e-4
-1.244, 9.882e-5
-1.243, 1.249e-5
-1.242, -7.076e-5
-1.241, -1.448e-4
-1.240, -2.095e-4
-1.239, -2.742e-4
-1.238, -3.452e-4
-1.237, -4.161e-4
-1.236, -4.993e-4
-1.235, -5.826e-4
-1.234, -6.658e-4
-1.233, -7.398e-4
-1.232, -8.045e-4
-1.231, -8.662e-4
-1.230, -9.309e-4
-1.229, -1.005e-3
-1.228, -1.085e-3
-1.227, -1.168e-3
-1.226, -1.249e-3
-1.225, -1.326e-3
-1.224, -1.393e-3
-1.223, -1.455e-3
-1.222, -1.517e-3
-1.221, -1.585e-3
-1.220, -1.659e-3
-1.219, -1.733e-3
-1.218, -1.813e-3
-1.217, -1.887e-3
-1.216, -1.948e-3
-1.215, -2.007e-3
-1.214, -2.062e-3
-1.213, -2.121e-3
-1.212, -2.189e-3
-1.211, -2.263e-3
-1.210, -2.343e-3
-1.209, -2.420e-3
-1.208, -2.488e-3
-1.207, -2.550e-3
-1.206, -2.608e-3
-1.205, -2.667e-3
-1.204, -2.731e-3
-1.203, -2.802e-3
-1.202, -2.879e-3
-1.201, -2.957e-3
-1.200, -3.024e-3
-1.199, -3.083e-3
-1.198, -3.138e-3
-1.197, -3.188e-3
-1.196, -3.243e-3
-1.195, -3.308e-3
-1.194, -3.373e-3
-1.193, -3.447e-3
-1.192, -3.515e-3
-1.191, -3.573e-3
-1.190, -3.629e-3
-1.189, -3.678e-3
-1.188, -3.737e-3
-1.187, -3.804e-3
-1.186, -3.878e-3
-1.185, -3.959e-3
-1.184, -4.033e-3
-1.183, -4.100e-3
-1.182, -4.153e-3
-1.181, -4.202e-3
-1.180, -4.251e-3
-1.179, -4.307e-3
-1.178, -4.369e-3
-1.177, -4.436e-3
-1.176, -4.495e-3
-1.175, -4.551e-3
-1.174, -4.600e-3
-1.173, -4.646e-3
-1.172, -4.695e-3
-1.171, -4.751e-3
-1.170, -4.816e-3
-1.169, -4.883e-3
-1.168, -4.954e-3
-1.167, -5.022e-3
-1.166, -5.084e-3
-1.165, -5.139e-3
-1.164, -5.195e-3
-1.163, -5.250e-3
-1.162, -5.309e-3
-1.161, -5.374e-3
-1.160, -5.442e-3
-1.159, -5.503e-3
-1.158, -5.559e-3
-1.157, -5.608e-3
-1.156, -5.651e-3
-1.155, -5.691e-3
-1.154, -5.741e-3
-1.153, -5.802e-3
-1.152, -5.867e-3
-1.151, -5.935e-3
-1.150, -5.990e-3
-1.149, -6.040e-3
-1.148, -6.083e-3
-1.147, -6.123e-3
-1.146, -6.166e-3
-1.145, -6.225e-3
-1.144, -6.286e-3
-1.143, -6.351e-3
-1.142, -6.410e-3
-1.141, -6.468e-3
-1.140, -6.527e-3
-1.139, -6.585e-3
-1.138, -6.647e-3
-1.137, -6.712e-3
-1.136, -6.780e-3
-1.135, -6.851e-3
-1.134, -6.912e-3
-1.133, -6.965e-3
-1.132, -7.011e-3
-1.131, -7.051e-3
-1.130, -7.091e-3
-1.129, -7.137e-3
-1.128, -7.190e-3
-1.127, -7.248e-3
-1.126, -7.307e-3
-1.125, -7.359e-3
-1.124, -7.399e-3
-1.123, -7.433e-3
-1.122, -7.470e-3
-1.121, -7.513e-3
-1.120, -7.572e-3
-1.119, -7.640e-3
-1.118, -7.708e-3
-1.117, -7.769e-3
-1.116, -7.822e-3
-1.115, -7.865e-3
-1.114, -7.908e-3
-1.113, -7.957e-3
-1.112, -8.010e-3
-1.111, -8.065e-3
-1.110, -8.121e-3
-1.109, -8.173e-3
-1.108, -8.219e-3
-1.107, -8.259e-3
-1.106, -8.300e-3
-1.105, -8.343e-3
-1.104, -8.395e-3
-1.103, -8.454e-3
-1.102, -8.522e-3
-1.101, -8.589e-3
-1.100, -8.651e-3
-1.099, -8.703e-3
-1.098, -8.744e-3
-1.097, -8.784e-3
-1.096, -8.824e-3
-1.095, -8.873e-3
-1.094, -8.922e-3
-1.093, -8.975e-3
-1.092, -9.024e-3
-1.091, -9.058e-3
-1.090, -9.089e-3
-1.089, -9.114e-3
-1.088, -9.147e-3
-1.087, -9.194e-3
-1.086, -9.246e-3
-1.085, -9.311e-3
-1.084, -9.385e-3
-1.083, -9.459e-3
-1.082, -9.520e-3
-1.081, -9.573e-3
-1.080, -9.619e-3
-1.079, -9.662e-3
-1.078, -9.712e-3
-1.077, -9.770e-3
-1.076, -9.826e-3
-1.075, -9.869e-3
-1.074, -9.887e-3
-1.073, -9.897e-3
-1.072, -9.906e-3
-1.071, -9.931e-3
-1.070, -9.977e-3
-1.069, -1.004e-2
-1.068, -1.011e-2
-1.067, -1.017e-2
-1.066, -1.022e-2
-1.065, -1.027e-2
-1.064, -1.032e-2
-1.063, -1.037e-2
-1.062, -1.042e-2
-1.061, -1.047e-2
-1.060, -1.052e-2
-1.059, -1.055e-2
-1.058, -1.058e-2
-1.057, -1.060e-2
-1.056, -1.061e-2
-1.055, -1.063e-2
-1.054, -1.065e-2
-1.053, -1.068e-2
-1.052, -1.072e-2
-1.051, -1.077e-2
-1.050, -1.083e-2
-1.049, -1.088e-2
-1.048, -1.093e-2
-1.047, -1.098e-2
-1.046, -1.103e-2
-1.045, -1.110e-2
-1.044, -1.117e-2
-1.043, -1.124e-2
-1.042, -1.131e-2
-1.041, -1.136e-2
-1.040, -1.139e-2
-1.039, -1.142e-2
-1.038, -1.144e-2
-1.037, -1.148e-2
-1.036, -1.152e-2
-1.035, -1.156e-2
-1.034, -1.159e-2
-1.033, -1.162e-2
-1.032, -1.164e-2
-1.031, -1.166e-2
-1.030, -1.169e-2
-1.029, -1.173e-2
-1.028, -1.179e-2
-1.027, -1.185e-2
-1.026, -1.191e-2
-1.025, -1.197e-2
-1.024, -1.202e-2
-1.023, -1.207e-2
-1.022, -1.212e-2
-1.021, -1.217e-2
-1.020, -1.222e-2
-1.019, -1.228e-2
-1.018, -1.233e-2
-1.017, -1.237e-2
-1.016, -1.240e-2
-1.015, -1.242e-2
-1.014, -1.244e-2
-1.013, -1.246e-2
-1.012, -1.248e-2
-1.011, -1.251e-2
-1.010, -1.254e-2
-1.009, -1.256e-2
-1.008, -1.258e-2
-1.007, -1.260e-2
-1.006, -1.263e-2
-1.005, -1.267e-2
-1.004, -1.271e-2
-1.003, -1.276e-2
-1.002, -1.282e-2
-1.001, -1.287e-2
