Potential V vs RHE, Current mA cm-2
0.013299999999999867,26.129717708507226
0.012299999999999978,23.639825820744765
0.011299999999999866,21.63093577493641
0.010299999999999976,19.622045729128057
0.009299999999999864,17.570714344323754
0.008299999999999974,15.4769416205235
0.007299999999999862,13.344971691626892
0.006299999999999972,11.51292055830167
0.00529999999999986,9.986447065747294
0.0042999999999999705,8.63398306307632
0.0032999999999998586,7.49938460058456
0.0022999999999999687,6.14833530921345
0.0012999999999998568,4.708159205950842
0.00029999999999996696,3.0939736128048354
-0.000700000000000145,1.3934906303670611
-0.0017000000000000348,-0.1330535977523067
-0.0027000000000001467,-1.4854468648582886
-0.0037000000000000366,-2.576189277054232
-0.0047000000000001485,-3.4915074880669104
-0.005700000000000038,-4.538393849967037
-0.00670000000000015,-5.715433651454749
-0.00770000000000004,-7.111753704421539
-0.008700000000000152,-8.55051509638428
-0.009700000000000042,-9.99069119964689
-0.010700000000000154,-11.299299152022046
-0.011700000000000044,-12.302329463626359
-0.012700000000000156,-13.217647674639037
-0.013700000000000045,-14.002812446064135
-0.014700000000000157,-15.01008689156804
-0.015700000000000047,-16.184297270456018
-0.01670000000000016,-17.542420118326454
-0.01770000000000005,-18.92883719219419
-0.01870000000000016,-20.202077362072725
-0.01970000000000005,-21.2065223849769
-0.020700000000000163,-22.027054938898623
-0.021700000000000053,-22.72026347583249
-0.022700000000000164,-23.639825820744765
-0.023700000000000054,-24.729153521640843
-0.024700000000000166,-25.959952352523427
-0.025700000000000056,-27.34636942639116
-0.026700000000000168,-28.577168257273744
-0.027700000000000058,-29.62405461917387
-0.02870000000000017,-30.444587173095588
-0.02970000000000006,-31.095354371033505
-0.03070000000000017,-31.930034037953877
-0.03170000000000006,-32.84959638286615
-0.03270000000000017,-34.02380676175414
-0.03370000000000006,-35.38192960962457
-0.034700000000000175,-36.5985813275085
-0.035700000000000065,-37.73035036740053
-0.03670000000000018,-38.607471373316855
-0.03770000000000007,-39.38556258824262
-0.03870000000000018,-40.092918238175145
-0.03970000000000007,-40.91345079209687
-0.04070000000000018,-42.04521983198889
-0.04170000000000007,-43.31846000186743
-0.04270000000000018,-44.619994397743255
-0.04370000000000007,-45.85079322862584
-0.044700000000000184,-46.75620846053947
-0.045700000000000074,-47.54844678846388
-0.046700000000000186,-48.156772647405845
-0.047700000000000076,-48.97730520132757
-0.04870000000000019,-50.024191563227696
-0.04970000000000008,-51.25499039411028
-0.05070000000000019,-52.59896612898206
-0.05170000000000008,-53.82976495986464
-0.05270000000000019,-54.834209982768826
-0.05370000000000008,-55.6971838756865
-0.05470000000000019,-56.36209818662306
-0.05570000000000008,-57.14018940154883
-0.056700000000000195,-58.10219308545706
-0.057700000000000085,-59.27640346434504
-0.058700000000000196,-60.59208497321952
-0.059700000000000086,-61.851178030099405
-0.0607000000000002,-62.98294706999144
-0.06170000000000009,-63.902509414903705
-0.0627000000000002,-64.72304196882543
-0.06370000000000009,-65.43039761875795
-0.0647000000000002,-66.29337151167562
-0.06570000000000009,-67.48172900356225
-0.0667000000000002,-68.78326339943808
-0.0677000000000001,-70.14138624730852
-0.0687000000000002,-71.35803796519245
-0.0697000000000001,-72.32004164910067
-0.07070000000000021,-73.15472131602105
-0.0717000000000001,-73.80548851395896
-0.07270000000000021,-74.66846240687663
-0.0737000000000001,-75.77193722077136
-0.07470000000000021,-77.03103027765125
-0.0757000000000001,-78.43159446451764
-0.07670000000000021,-79.69068752139752
-0.0777000000000001,-80.82245656128954
-0.07870000000000021,-81.69957756720586
-0.0797000000000001,-82.39278610413973
-0.08070000000000022,-83.26990711005605
-0.0817000000000001,-84.27435213296022
-0.08270000000000022,-85.49100385084417
-0.08370000000000011,-86.89156803771054
-0.08470000000000022,-88.23554377258235
-0.08570000000000011,-89.42390126446898
-0.08670000000000022,-90.41419917437449
-0.08770000000000011,-91.24887884129487
-0.08870000000000022,-92.04111716921928
-0.08970000000000011,-92.90409106213696
-0.09070000000000022,-94.17733123201549
-0.09170000000000011,-95.52130696688728
-0.09270000000000023,-97.00675383174556
-0.09370000000000012,-98.3082882276214
-0.09470000000000023,-99.35517458952152
-0.09570000000000012,-100.18985425644189
-0.09670000000000023,-101.02453392336226
-0.09770000000000012,-101.92994915527588
-0.09870000000000023,-103.16074798615847
-0.09970000000000012,-104.46228238203432
-0.10070000000000023,-105.99017058588855
-0.10170000000000012,-107.34829343375898
-0.10270000000000024,-108.52250381264696
-0.10370000000000013,-109.44206615755924
-0.10470000000000024,-110.26259871148096
-0.10570000000000013,-111.18216105639323
-0.10670000000000024,-112.18660607929739
-0.10770000000000013,-113.58717026616378
-0.10870000000000024,-114.97358734003153
-0.10970000000000013,-116.37415152689792
-0.11070000000000024,-117.71812726176971
-0.11170000000000013,-118.63768960668197
-0.11270000000000002,-119.55725195159425
-0.11370000000000013,-120.43437295751058
-0.11470000000000002,-121.33978818942418
-0.11570000000000014,-122.65546969829869
-0.11670000000000003,-123.95700409417452
-0.11770000000000014,-125.5273336370247
-0.11870000000000003,-126.88545648489513
-0.11970000000000014,-127.93234284679528
-0.12070000000000003,-128.89434653070347
-0.12170000000000014,-129.6299964066333
-0.12270000000000003,-130.5495587515456
-0.12370000000000014,-131.76621046942952
-0.12470000000000003,-133.03945063930803
-0.12570000000000014,-134.56733884316228
-0.12670000000000003,-135.91131457803408
-0.12770000000000015,-137.04308361792607
-0.12870000000000004,-138.00508730183432
-0.12970000000000015,-138.79732562975875
-0.13070000000000004,-139.6602995226764
-0.13170000000000015,-140.74962722357247
-0.13270000000000004,-142.03701450644968
-0.13370000000000015,-143.5931969363012
-0.13470000000000004,-145.00790823616626
-0.13570000000000015,-146.28114840604482
-0.13670000000000004,-147.4129174459368
-0.13770000000000016,-148.40321535584232
-0.13870000000000005,-149.25204213576137
-0.13970000000000016,-150.24234004566688
-0.14070000000000005,-151.65705134553193
-0.14170000000000016,-153.07176264539694
-0.14270000000000005,-154.6279450752485
-0.14370000000000016,-156.04265637511355
-0.14470000000000005,-157.31589654499206
-0.14570000000000016,-158.3061944548976
-0.14670000000000005,-159.01355010483013
-0.14770000000000016,-160.14531914472215
-0.14870000000000005,-161.41855931460069
-0.14970000000000017,-162.8332706144657
-0.15070000000000006,-164.38945304431726
-0.15170000000000017,-165.8041643441823
-0.15270000000000006,-167.07740451406085
-0.15370000000000017,-168.06770242396635
-0.15470000000000006,-168.77505807389886
-0.15570000000000017,-169.7653559838044
-0.15670000000000006,-170.75565389370993
-0.15770000000000017,-172.17036519357498
-0.15870000000000006,-173.58507649344
-0.15970000000000018,-175.14125892329156
-0.16070000000000007,-176.4144990931701
-0.16170000000000018,-177.54626813306209
-0.16270000000000007,-178.3950949129811
-0.16370000000000018,-179.24392169290016
-0.16470000000000007,-180.37569073279218
-0.16570000000000018,-181.79040203265723
-0.16670000000000007,-183.34658446250873
-0.16770000000000018,-184.9027668923603
-0.16870000000000007,-186.31747819222534
-0.16970000000000018,-187.59071836210387
-0.17070000000000007,-188.4395451420229
-0.17170000000000019,-189.2883719219419
-0.17270000000000008,-190.27866983184742
-0.1737000000000002,-191.551910001726
-0.17470000000000008,-192.966621301591
-0.1757000000000002,-194.52280373144254
-0.17670000000000008,-195.93751503130758
-0.1777000000000002,-197.0692840711996
-0.17870000000000008,-198.05958198110514
-0.1797000000000002,-199.04987989101065
-0.18070000000000008,-200.04017780091618
-0.1817000000000002,-201.31341797079472
-0.18270000000000008,-202.7281292706598
-0.1837000000000002,-204.2843117005113
-0.1847000000000001,-205.84049413036286
-0.1857000000000002,-207.25520543022787
-0.1867000000000001,-208.24550334013338
-0.1877000000000002,-209.23580125003892
-0.1887000000000001,-210.08462802995794
-0.1897000000000002,-210.93345480987696
-0.1907000000000001,-212.34816610974204
-0.1917000000000001,-213.90434853959354
-0.19269999999999998,-215.31905983945856
-0.1937000000000001,-216.59230000933712
-0.19469999999999998,-217.72406904922914
-0.1957000000000001,-218.71436695913465
-0.19669999999999999,-219.42172260906716
-0.1977000000000001,-220.41202051897272
-0.1987,-221.68526068885126
-0.1997000000000001,-223.09997198871628
-0.2007,-224.79762554855435
-0.2017000000000001,-226.21233684841937
-0.2027,-227.4855770182979
-0.2037000000000001,-228.61734605818995
-0.2047,-229.46617283810895
-0.2057000000000001,-230.45647074801445
-0.2067,-231.729710917893
-0.2077000000000001,-233.28589334774458
-0.2087,-235.12501803756908
-0.2097000000000001,-236.6812004674206
-0.2107,-237.9544406372992
-0.2117000000000001,-238.94473854720468
-0.2127,-239.7935653271237
-0.2137000000000001,-240.35944984706975
-0.2147,-241.20827662698875
-0.2157000000000001,-242.62298792685377
-0.2167,-243.8962280967323
-0.21770000000000012,-245.45241052658386
-0.2187,-246.8671218264489
-0.21970000000000012,-247.99889086634093
-0.2207,-248.84771764625998
-0.22170000000000012,-249.5550732961925
-0.2227,-250.4039000761115
-0.22370000000000012,-251.39419798601702
-0.2247,-252.80890928588207
-0.22570000000000012,-254.36509171573357
-0.2267,-255.49686075562562
-0.22770000000000012,-256.62862979551767
-0.22870000000000001,-257.4774565754367
-0.22970000000000013,-258.0433410953827
-0.23070000000000002,-258.7506967453152
-0.23170000000000013,-259.4580523952477
-0.23270000000000002,-260.58982143513975
-0.23370000000000013,-262.0045327350048
-0.23470000000000002,-263.41924403486985
-0.23570000000000013,-264.83395533473487
-0.23670000000000002,-265.9657243746269
-0.2376999999999999,-267.38043567449193
-0.23870000000000002,-268.22926245441096
-0.2396999999999999,-268.93661810434344
-0.24070000000000003,-270.49280053419506
-0.24169999999999991,-271.62456957408705
-0.24270000000000003,-272.8978097439656
-0.24369999999999992,-274.87840556377665
-0.24470000000000003,-275.58576121370913
-0.24569999999999992,-276.15164573365513
-0.24670000000000003,-276.5760591236147
-0.24769999999999992,-277.1419436435607
-0.24870000000000003,-278.1322415534662
-0.24969999999999992,-279.5469528533313
-0.25070000000000003,-280.9616641531963
-0.2516999999999999,-282.2349043230748
-0.25270000000000004,-283.08373110299385
-0.2536999999999999,-283.79108675292633
-0.25470000000000004,-284.35697127287233
-0.2556999999999999,-285.0643269228049
-0.25670000000000004,-286.0546248327104
-0.25769999999999993,-287.1863938726024
-0.25870000000000004,-288.176691782508
-0.25969999999999993,-289.1669896924135
-0.26070000000000004,-289.87434534234603
-0.26169999999999993,-290.44022986229203
-0.26270000000000004,-291.0061143822381
-0.26369999999999993,-291.28905664221105
-0.26470000000000005,-291.85494116215705
-0.26569999999999994,-292.56229681208964
-0.26670000000000005,-293.6940658519816
-0.26769999999999994,-294.96730602186017
-0.26870000000000005,-296.0990750617522
-0.26969999999999994,-297.0893729716577
-0.27070000000000005,-297.79672862159026
-0.27169999999999994,-298.2211420115498
-0.27270000000000005,-298.78702653149577
-0.27369999999999994,-299.6358533114148
-0.27470000000000006,-300.76762235130684
-0.27569999999999995,-302.0408625211853
-0.27670000000000006,-303.4555738210504
-0.27769999999999995,-304.72881399092887
-0.27870000000000006,-305.8605830308209
-0.27969999999999995,-306.70940981073994
-0.28070000000000006,-307.69970772064545
-0.28169999999999995,-308.54853450056453
-0.28270000000000006,-309.6803035404565
-0.28369999999999995,-310.81207258034857
-0.28470000000000006,-311.80237049025413
-0.28569999999999995,-312.79266840015964
-0.28670000000000007,-313.35855292010564
-0.28769999999999996,-313.78296631006515
-0.28870000000000007,-314.20737970002466
-0.28969999999999996,-314.6317930899841
-0.29070000000000007,-315.4806198699032
-0.29169999999999996,-316.6123889097952
-0.29270000000000007,-318.16857133964675
-0.29369999999999996,-319.30034037953874
-0.2947000000000001,-320.1491671594578
-0.29569999999999996,-320.71505167940376
-0.2967000000000001,-320.9979939393768
-0.29769999999999996,-321.42240732933635
-0.2987000000000001,-321.8468207192958
-0.29969999999999997,-322.6956474992149
-0.3007000000000001,-323.68594540912045
-0.30169999999999997,-324.67624331902596
-0.3027000000000001,-325.5250700989449
-0.30369999999999997,-326.23242574887746
-0.3047000000000001,-326.93978139880994
-0.30569999999999997,-327.788608178729
-0.3067000000000001,-328.3544926986751
-0.3077,-329.0618483486075
-0.3087000000000001,-330.05214625851306
-0.3097,-330.9009730384321
-0.3107000000000001,-331.74979981835105
-0.3117,-332.1742132083106
-0.3127000000000001,-332.3156843382971
-0.3137,-332.59862659827013
-0.3147000000000001,-332.8815688582431
-0.3157,-333.44745337818915
-0.3167000000000001,-334.2962801581082
-0.3177,-335.2865780680136
-0.3187000000000001,-335.9939337179462
-0.3197,-336.27687597791925
-0.3207000000000001,-336.4183471079057
-0.3217,-336.4183471079057
-0.3227000000000001,-336.5598182378922
-0.3237,-336.70128936787876
-0.3247000000000001,-336.9842316278517
-0.3257,-337.5501161477977
-0.3267000000000001,-338.1160006677438
-0.3277,-338.5404140577033
-0.3287000000000001,-338.8233563176763
-0.3297,-338.8233563176763
-0.3307000000000001,-338.96482744766274
-0.3317,-339.2477697076358
-0.3327000000000001,-339.95512535756825
-0.3337,-340.80395213748733
-0.3347000000000001,-341.65277891740635
-0.3357,-342.07719230736586
-0.3367000000000001,-342.21866343735235
-0.3377,-342.21866343735235
-0.3387000000000001,-342.07719230736586
-0.3397,-341.9357211773794
-0.3407000000000001,-342.3601345673389
-0.3417,-342.92601908728494
-0.3427000000000001,-343.63337473721737
-0.3437,-343.9163169971904
-0.3447000000000001,-343.9163169971904
-0.3457,-343.49190360723094
-0.3467000000000001,-343.49190360723094
-0.3477,-343.9163169971904
-0.3487000000000001,-344.48220151713645
-0.3497,-345.04808603708244
-0.3507000000000001,-345.47249942704195
-0.3517,-345.7554416870149
-0.3527000000000001,-346.1798550769745
-0.3537,-346.3213262069609
-0.3547000000000001,-346.3213262069609
-0.3557,-346.604268466934
-0.35670000000000013,-346.604268466934
-0.3577,-347.0286818568935
-0.35870000000000013,-347.73603750682605
-0.3597,-348.44339315675853
-0.36070000000000013,-349.0092776767046
-0.3617,-349.0092776767046
-0.3626999999999999,-349.0092776767046
-0.3637,-348.86780654671804
-0.3646999999999999,-348.72633541673156
-0.3657,-349.0092776767046
-0.3666999999999999,-349.71663332663707
-0.3677,-350.42398897656955
-0.3686999999999999,-350.98987349651554
-0.36970000000000003,-351.2728157564886
-0.3706999999999999,-351.4142868864751
-0.37170000000000003,-351.4142868864751
-0.3726999999999999,-351.5557580164616
-0.37370000000000003,-351.9801714064211
-0.3746999999999999,-352.68752705635364
-0.37570000000000003,-353.3948827062862
-0.3766999999999999,-353.96076722623224
-0.37770000000000004,-354.3851806161917
-0.3786999999999999,-354.3851806161917
-0.37970000000000004,-354.3851806161917
-0.3806999999999999,-354.3851806161917
-0.38170000000000004,-354.3851806161917
-0.38269999999999993,-355.09253626612417
-0.38370000000000004,-355.7998919160567
-0.38469999999999993,-356.50724756598925
-0.38570000000000004,-356.93166095594876
-0.38669999999999993,-354.66812287616466
-0.38570000000000004,-348.301922026772
-0.38469999999999993,-342.64307682731186
-0.38370000000000004,-337.5501161477977
-0.38269999999999993,-333.1645111182162
-0.38170000000000004,-329.3447906085805
-0.3806999999999999,-325.3835989689584
-0.37970000000000004,-321.1394650693634
-0.3786999999999999,-316.6123889097952
-0.37770000000000004,-311.80237049025413
-0.3766999999999999,-307.1338232006995
-0.37570000000000003,-302.88968930110434
-0.3746999999999999,-298.78702653149577
-0.37370000000000003,-294.96730602186017
-0.3726999999999999,-291.28905664221105
-0.37170000000000003,-287.46933613257545
-0.3706999999999999,-283.64961562293985
-0.36970000000000003,-279.5469528533313
-0.3686999999999999,-275.30281895373616
-0.3677,-271.341627314114
-0.3666999999999999,-267.5219068044785
-0.3657,-263.98512855481584
-0.3646999999999999,-260.58982143513975
-0.3637,-257.33598544545015
-0.3626999999999999,-253.94067832577412
-0.3617,-250.4039000761115
-0.36070000000000013,-246.8671218264489
-0.3597,-243.3303435767863
-0.35870000000000013,-240.0765075870967
-0.3577,-237.10561385738015
-0.35670000000000013,-234.13472012766357
-0.3557,-231.3052975279335
-0.3547000000000001,-228.33440379821695
-0.3537,-224.93909667854084
-0.3527000000000001,-221.54378955886475
-0.3517,-218.14848243918865
-0.3507000000000001,-214.89464644949908
-0.3497,-211.782281589796
-0.3487000000000001,-208.95285899006592
-0.3477,-206.40637865030885
-0.3467000000000001,-203.85989831055176
-0.3457,-200.88900458083523
-0.3447000000000001,-197.91811085111863
-0.3437,-194.52280373144254
-0.3427000000000001,-191.551910001726
-0.3417,-188.72248740199586
-0.3407000000000001,-186.31747819222534
-0.3397,-183.91246898245475
-0.3387000000000001,-181.5074597726842
-0.3377,-178.96097943292713
-0.3367000000000001,-176.27302796318358
-0.3357,-173.44360536345349
-0.3347000000000001,-170.61418276372342
-0.3337,-167.78476016399335
-0.3327000000000001,-165.5212220842093
-0.3317,-163.39915513441173
-0.3307000000000001,-161.2770881846142
-0.3297,-159.15502123481662
-0.3287000000000001,-156.75001202504606
-0.3277,-154.203531685289
-0.3267000000000001,-151.5155802155454
-0.3257,-149.1105710057749
-0.3247000000000001,-146.8470329259908
-0.3237,-144.86643710617977
-0.3227000000000001,-143.0273124163552
-0.3217,-141.10330504853877
-0.3207000000000001,-138.92464964674662
-0.3197,-136.43475775898415
-0.3187000000000001,-133.94486587122168
-0.3177,-131.63888645244168
-0.3167000000000001,-129.3753483726576
-0.3157,-127.4937823438371
-0.3147000000000001,-125.7536874450031
-0.3137,-123.91456275517855
-0.3127000000000001,-121.96226116136481
-0.3117,-119.64213462958614
-0.3107000000000001,-117.33615521080614
-0.3097,-115.01602867902749
-0.3087000000000001,-112.79493193823936
-0.3077,-111.01239570040943
-0.3067000000000001,-109.25815368857677
-0.30569999999999997,-107.78685393671715
-0.3047000000000001,-106.07505326388046
-0.30369999999999997,-104.06616321807209
-0.3027000000000001,-101.88750781627995
-0.30169999999999997,-99.53908705850398
-0.3007000000000001,-97.40287299570777
-0.29969999999999997,-95.60618964487918
-0.2987000000000001,-94.03586010202899
-0.29769999999999996,-92.6070016891653
-0.2967000000000001,-90.99423080731917
-0.29569999999999996,-89.15510611749461
-0.2947000000000001,-87.06133339369435
-0.29369999999999996,-84.92511933089816
-0.29270000000000007,-82.8313466070979
-0.29169999999999996,-80.99222191727335
-0.29070000000000007,-79.42189237442317
-0.28969999999999996,-78.03547530055542
-0.28870000000000007,-76.63491111368903
-0.28769999999999996,-75.06458157083884
-0.28670000000000007,-73.197162655017
-0.28569999999999995,-71.18827260920865
-0.28470000000000006,-69.13694122440434
-0.28369999999999995,-67.25537519558385
-0.28270000000000006,-65.7274869917296
-0.28169999999999995,-64.38351125685783
-0.28070000000000006,-63.15271242597524
-0.27969999999999995,-61.7662953521075
-0.27870000000000006,-60.06864179226946
-0.27769999999999995,-58.22951710244491
-0.27670000000000006,-56.22062705663656
-0.27569999999999995,-54.35320814081471
-0.27470000000000006,-52.86776127595642
-0.27369999999999994,-51.46719708909004
-0.27270000000000005,-50.335428049198
-0.27169999999999994,-49.03389365332217
-0.27070000000000005,-47.54844678846388
-0.26969999999999994,-45.79420477663124
-0.26870000000000005,-43.88434452181344
-0.26769999999999994,-42.130102509980794
