Dec. 29, 2024   00:03:33
Cyclic Voltammetry
File: c:/users/guazh/data/banditlqround7_x0exp136_r20/2024-12-24-exp772\exp772-2024-12-28t23_54_21-h2koh\exp772_cv_sr_900mvs_efin_-1400mv.bin
Data Source:  Experiment
Instrument Model:  CHI760E
Header: CV ran at 900 mVs
Note: 

Init E (V) = -1
High E (V) = -1
Low E (V) = -1.4
Final E (V) = -1
Init P/N = N
Scan Rate (V/s) = 0.9
Segment = 3
Sample Interval (V) = 0.001
Quiet Time (sec) = 2
Sensitivity (A/V) = 0.01
Comp R (ohm) = 1.3

Results:

Channel 1:
Segment 1:

Segment 2:

Segment 3:

Potential/V, Current/A

-1.000, -1.551e-3
-1.001, -1.350e-3
-1.002, -1.162e-3
-1.003, -9.895e-4
-1.004, -8.200e-4
-1.005, -6.535e-4
-1.006, -4.993e-4
-1.007, -3.575e-4
-1.008, -2.126e-4
-1.009, -8.617e-5
-1.010, 2.482e-5
-1.011, 1.420e-4
-1.012, 2.499e-4
-1.013, 3.485e-4
-1.014, 4.565e-4
-1.015, 5.613e-4
-1.016, 6.692e-4
-1.017, 7.771e-4
-1.018, 8.943e-4
-1.019, 1.008e-3
-1.020, 1.122e-3
-1.021, 1.236e-3
-1.022, 1.344e-3
-1.023, 1.449e-3
-1.024, 1.545e-3
-1.025, 1.634e-3
-1.026, 1.717e-3
-1.027, 1.801e-3
-1.028, 1.875e-3
-1.029, 1.961e-3
-1.030, 2.041e-3
-1.031, 2.134e-3
-1.032, 2.226e-3
-1.033, 2.325e-3
-1.034, 2.420e-3
-1.035, 2.525e-3
-1.036, 2.624e-3
-1.037, 2.716e-3
-1.038, 2.806e-3
-1.039, 2.892e-3
-1.040, 2.966e-3
-1.041, 3.046e-3
-1.042, 3.120e-3
-1.043, 3.188e-3
-1.044, 3.268e-3
-1.045, 3.345e-3
-1.046, 3.432e-3
-1.047, 3.515e-3
-1.048, 3.607e-3
-1.049, 3.703e-3
-1.050, 3.799e-3
-1.051, 3.894e-3
-1.052, 3.987e-3
-1.053, 4.079e-3
-1.054, 4.159e-3
-1.055, 4.239e-3
-1.056, 4.313e-3
-1.057, 4.387e-3
-1.058, 4.458e-3
-1.059, 4.535e-3
-1.060, 4.616e-3
-1.061, 4.702e-3
-1.062, 4.794e-3
-1.063, 4.890e-3
-1.064, 4.982e-3
-1.065, 5.084e-3
-1.066, 5.180e-3
-1.067, 5.275e-3
-1.068, 5.368e-3
-1.069, 5.445e-3
-1.070, 5.522e-3
-1.071, 5.599e-3
-1.072, 5.670e-3
-1.073, 5.738e-3
-1.074, 5.818e-3
-1.075, 5.895e-3
-1.076, 5.984e-3
-1.077, 6.068e-3
-1.078, 6.166e-3
-1.079, 6.265e-3
-1.080, 6.367e-3
-1.081, 6.469e-3
-1.082, 6.561e-3
-1.083, 6.660e-3
-1.084, 6.746e-3
-1.085, 6.826e-3
-1.086, 6.909e-3
-1.087, 6.983e-3
-1.088, 7.051e-3
-1.089, 7.138e-3
-1.090, 7.218e-3
-1.091, 7.307e-3
-1.092, 7.397e-3
-1.093, 7.495e-3
-1.094, 7.594e-3
-1.095, 7.702e-3
-1.096, 7.800e-3
-1.097, 7.902e-3
-1.098, 8.004e-3
-1.099, 8.093e-3
-1.100, 8.177e-3
-1.101, 8.266e-3
-1.102, 8.346e-3
-1.103, 8.417e-3
-1.104, 8.503e-3
-1.105, 8.590e-3
-1.106, 8.679e-3
-1.107, 8.778e-3
-1.108, 8.880e-3
-1.109, 8.984e-3
-1.110, 9.092e-3
-1.111, 9.197e-3
-1.112, 9.299e-3
-1.113, 9.407e-3
-1.114, 9.499e-3
-1.115, 9.589e-3
-1.116, 9.678e-3
-1.117, 9.761e-3
-1.118, 9.838e-3
-1.119, 9.928e-3
-1.120, 1.001e-2
-1.121, 1.011e-2
-1.122, 1.021e-2
-1.123, 1.032e-2
-1.124, 1.042e-2
-1.125, 1.053e-2
-1.126, 1.064e-2
-1.127, 1.074e-2
-1.128, 1.085e-2
-1.129, 1.094e-2
-1.130, 1.103e-2
-1.131, 1.111e-2
-1.132, 1.119e-2
-1.133, 1.127e-2
-1.134, 1.136e-2
-1.135, 1.144e-2
-1.136, 1.154e-2
-1.137, 1.164e-2
-1.138, 1.175e-2
-1.139, 1.186e-2
-1.140, 1.197e-2
-1.141, 1.208e-2
-1.142, 1.219e-2
-1.143, 1.230e-2
-1.144, 1.239e-2
-1.145, 1.248e-2
-1.146, 1.257e-2
-1.147, 1.265e-2
-1.148, 1.273e-2
-1.149, 1.282e-2
-1.150, 1.291e-2
-1.151, 1.301e-2
-1.152, 1.311e-2
-1.153, 1.323e-2
-1.154, 1.334e-2
-1.155, 1.345e-2
-1.156, 1.357e-2
-1.157, 1.367e-2
-1.158, 1.378e-2
-1.159, 1.388e-2
-1.160, 1.398e-2
-1.161, 1.407e-2
-1.162, 1.416e-2
-1.163, 1.425e-2
-1.164, 1.435e-2
-1.165, 1.444e-2
-1.166, 1.454e-2
-1.167, 1.465e-2
-1.168, 1.476e-2
-1.169, 1.487e-2
-1.170, 1.499e-2
-1.171, 1.511e-2
-1.172, 1.522e-2
-1.173, 1.534e-2
-1.174, 1.544e-2
-1.175, 1.554e-2
-1.176, 1.563e-2
-1.177, 1.572e-2
-1.178, 1.580e-2
-1.179, 1.590e-2
-1.180, 1.599e-2
-1.181, 1.608e-2
-1.182, 1.619e-2
-1.183, 1.630e-2
-1.184, 1.641e-2
-1.185, 1.653e-2
-1.186, 1.665e-2
-1.187, 1.676e-2
-1.188, 1.687e-2
-1.189, 1.697e-2
-1.190, 1.707e-2
-1.191, 1.717e-2
-1.192, 1.727e-2
-1.193, 1.735e-2
-1.194, 1.745e-2
-1.195, 1.755e-2
-1.196, 1.765e-2
-1.197, 1.777e-2
-1.198, 1.787e-2
-1.199, 1.799e-2
-1.200, 1.811e-2
-1.201, 1.824e-2
-1.202, 1.835e-2
-1.203, 1.847e-2
-1.204, 1.858e-2
-1.205, 1.867e-2
-1.206, 1.877e-2
-1.207, 1.887e-2
-1.208, 1.895e-2
-1.209, 1.906e-2
-1.210, 1.915e-2
-1.211, 1.926e-2
-1.212, 1.937e-2
-1.213, 1.949e-2
-1.214, 1.961e-2
-1.215, 1.973e-2
-1.216, 1.985e-2
-1.217, 1.996e-2
-1.218, 2.007e-2
-1.219, 2.018e-2
-1.220, 2.028e-2
-1.221, 2.037e-2
-1.222, 2.047e-2
-1.223, 2.056e-2
-1.224, 2.065e-2
-1.225, 2.075e-2
-1.226, 2.085e-2
-1.227, 2.095e-2
-1.228, 2.107e-2
-1.229, 2.118e-2
-1.230, 2.131e-2
-1.231, 2.142e-2
-1.232, 2.152e-2
-1.233, 2.164e-2
-1.234, 2.174e-2
-1.235, 2.184e-2
-1.236, 2.193e-2
-1.237, 2.202e-2
-1.238, 2.211e-2
-1.239, 2.220e-2
-1.240, 2.230e-2
-1.241, 2.240e-2
-1.242, 2.251e-2
-1.243, 2.262e-2
-1.244, 2.273e-2
-1.245, 2.285e-2
-1.246, 2.296e-2
-1.247, 2.307e-2
-1.248, 2.319e-2
-1.249, 2.328e-2
-1.250, 2.338e-2
-1.251, 2.347e-2
-1.252, 2.357e-2
-1.253, 2.365e-2
-1.254, 2.375e-2
-1.255, 2.386e-2
-1.256, 2.397e-2
-1.257, 2.409e-2
-1.258, 2.420e-2
-1.259, 2.431e-2
-1.260, 2.443e-2
-1.261, 2.457e-2
-1.262, 2.469e-2
-1.263, 2.480e-2
-1.264, 2.491e-2
-1.265, 2.500e-2
-1.266, 2.510e-2
-1.267, 2.520e-2
-1.268, 2.528e-2
-1.269, 2.537e-2
-1.270, 2.546e-2
-1.271, 2.555e-2
-1.272, 2.565e-2
-1.273, 2.575e-2
-1.274, 2.586e-2
-1.275, 2.597e-2
-1.276, 2.608e-2
-1.277, 2.619e-2
-1.278, 2.629e-2
-1.279, 2.639e-2
-1.280, 2.649e-2
-1.281, 2.659e-2
-1.282, 2.668e-2
-1.283, 2.676e-2
-1.284, 2.686e-2
-1.285, 2.696e-2
-1.286, 2.706e-2
-1.287, 2.716e-2
-1.288, 2.727e-2
-1.289, 2.739e-2
-1.290, 2.751e-2
-1.291, 2.762e-2
-1.292, 2.772e-2
-1.293, 2.783e-2
-1.294, 2.791e-2
-1.295, 2.800e-2
-1.296, 2.808e-2
-1.297, 2.816e-2
-1.298, 2.823e-2
-1.299, 2.831e-2
-1.300, 2.840e-2
-1.301, 2.849e-2
-1.302, 2.858e-2
-1.303, 2.869e-2
-1.304, 2.880e-2
-1.305, 2.891e-2
-1.306, 2.902e-2
-1.307, 2.912e-2
-1.308, 2.922e-2
-1.309, 2.930e-2
-1.310, 2.938e-2
-1.311, 2.946e-2
-1.312, 2.954e-2
-1.313, 2.960e-2
-1.314, 2.968e-2
-1.315, 2.976e-2
-1.316, 2.984e-2
-1.317, 2.992e-2
-1.318, 3.002e-2
-1.319, 3.011e-2
-1.320, 3.021e-2
-1.321, 3.030e-2
-1.322, 3.040e-2
-1.323, 3.049e-2
-1.324, 3.058e-2
-1.325, 3.065e-2
-1.326, 3.073e-2
-1.327, 3.080e-2
-1.328, 3.087e-2
-1.329, 3.095e-2
-1.330, 3.102e-2
-1.331, 3.110e-2
-1.332, 3.120e-2
-1.333, 3.129e-2
-1.334, 3.139e-2
-1.335, 3.149e-2
-1.336, 3.159e-2
-1.337, 3.169e-2
-1.338, 3.178e-2
-1.339, 3.185e-2
-1.340, 3.192e-2
-1.341, 3.199e-2
-1.342, 3.206e-2
-1.343, 3.211e-2
-1.344, 3.218e-2
-1.345, 3.224e-2
-1.346, 3.233e-2
-1.347, 3.242e-2
-1.348, 3.249e-2
-1.349, 3.256e-2
-1.350, 3.264e-2
-1.351, 3.272e-2
-1.352, 3.279e-2
-1.353, 3.285e-2
-1.354, 3.291e-2
-1.355, 3.296e-2
-1.356, 3.303e-2
-1.357, 3.308e-2
-1.358, 3.311e-2
-1.359, 3.314e-2
-1.360, 3.317e-2
-1.361, 3.322e-2
-1.362, 3.326e-2
-1.363, 3.329e-2
-1.364, 3.333e-2
-1.365, 3.338e-2
-1.366, 3.344e-2
-1.367, 3.350e-2
-1.368, 3.356e-2
-1.369, 3.360e-2
-1.370, 3.364e-2
-1.371, 3.371e-2
-1.372, 3.378e-2
-1.373, 3.383e-2
-1.374, 3.389e-2
-1.375, 3.394e-2
-1.376, 3.400e-2
-1.377, 3.407e-2
-1.378, 3.416e-2
-1.379, 3.424e-2
-1.380, 3.432e-2
-1.381, 3.437e-2
-1.382, 3.444e-2
-1.383, 3.451e-2
-1.384, 3.456e-2
-1.385, 3.462e-2
-1.386, 3.467e-2
-1.387, 3.470e-2
-1.388, 3.473e-2
-1.389, 3.475e-2
-1.390, 3.478e-2
-1.391, 3.482e-2
-1.392, 3.486e-2
-1.393, 3.489e-2
-1.394, 3.494e-2
-1.395, 3.501e-2
-1.396, 3.507e-2
-1.397, 3.512e-2
-1.398, 3.516e-2
-1.399, 3.519e-2
-1.400, 3.503e-2
-1.399, 3.457e-2
-1.398, 3.412e-2
-1.397, 3.368e-2
-1.396, 3.328e-2
-1.395, 3.288e-2
-1.394, 3.252e-2
-1.393, 3.217e-2
-1.392, 3.184e-2
-1.391, 3.152e-2
-1.390, 3.122e-2
-1.389, 3.093e-2
-1.388, 3.062e-2
-1.387, 3.033e-2
-1.386, 3.003e-2
-1.385, 2.971e-2
-1.384, 2.940e-2
-1.383, 2.909e-2
-1.382, 2.876e-2
-1.381, 2.846e-2
-1.380, 2.815e-2
-1.379, 2.785e-2
-1.378, 2.757e-2
-1.377, 2.729e-2
-1.376, 2.701e-2
-1.375, 2.674e-2
-1.374, 2.647e-2
-1.373, 2.620e-2
-1.372, 2.593e-2
-1.371, 2.565e-2
-1.370, 2.536e-2
-1.369, 2.508e-2
-1.368, 2.480e-2
-1.367, 2.451e-2
-1.366, 2.425e-2
-1.365, 2.398e-2
-1.364, 2.372e-2
-1.363, 2.347e-2
-1.362, 2.324e-2
-1.361, 2.301e-2
-1.360, 2.278e-2
-1.359, 2.254e-2
-1.358, 2.232e-2
-1.357, 2.208e-2
-1.356, 2.184e-2
-1.355, 2.160e-2
-1.354, 2.136e-2
-1.353, 2.111e-2
-1.352, 2.085e-2
-1.351, 2.061e-2
-1.350, 2.037e-2
-1.349, 2.014e-2
-1.348, 1.992e-2
-1.347, 1.970e-2
-1.346, 1.949e-2
-1.345, 1.928e-2
-1.344, 1.907e-2
-1.343, 1.886e-2
-1.342, 1.865e-2
-1.341, 1.843e-2
-1.340, 1.820e-2
-1.339, 1.798e-2
-1.338, 1.776e-2
-1.337, 1.753e-2
-1.336, 1.731e-2
-1.335, 1.710e-2
-1.334, 1.689e-2
-1.333, 1.669e-2
-1.332, 1.650e-2
-1.331, 1.631e-2
-1.330, 1.613e-2
-1.329, 1.594e-2
-1.328, 1.575e-2
-1.327, 1.557e-2
-1.326, 1.537e-2
-1.325, 1.516e-2
-1.324, 1.496e-2
-1.323, 1.475e-2
-1.322, 1.454e-2
-1.321, 1.435e-2
-1.320, 1.415e-2
-1.319, 1.396e-2
-1.318, 1.377e-2
-1.317, 1.359e-2
-1.316, 1.341e-2
-1.315, 1.325e-2
-1.314, 1.308e-2
-1.313, 1.290e-2
-1.312, 1.273e-2
-1.311, 1.255e-2
-1.310, 1.236e-2
-1.309, 1.218e-2
-1.308, 1.199e-2
-1.307, 1.180e-2
-1.306, 1.162e-2
-1.305, 1.144e-2
-1.304, 1.127e-2
-1.303, 1.110e-2
-1.302, 1.094e-2
-1.301, 1.078e-2
-1.300, 1.063e-2
-1.299, 1.048e-2
-1.298, 1.033e-2
-1.297, 1.017e-2
-1.296, 1.001e-2
-1.295, 9.838e-3
-1.294, 9.669e-3
-1.293, 9.496e-3
-1.292, 9.317e-3
-1.291, 9.154e-3
-1.290, 8.987e-3
-1.289, 8.836e-3
-1.288, 8.688e-3
-1.287, 8.540e-3
-1.286, 8.402e-3
-1.285, 8.269e-3
-1.284, 8.130e-3
-1.283, 7.988e-3
-1.282, 7.853e-3
-1.281, 7.699e-3
-1.280, 7.538e-3
-1.279, 7.381e-3
-1.278, 7.221e-3
-1.277, 7.048e-3
-1.276, 6.894e-3
-1.275, 6.740e-3
-1.274, 6.598e-3
-1.273, 6.456e-3
-1.272, 6.324e-3
-1.271, 6.191e-3
-1.270, 6.065e-3
-1.269, 5.941e-3
-1.268, 5.809e-3
-1.267, 5.679e-3
-1.266, 5.534e-3
-1.265, 5.383e-3
-1.264, 5.238e-3
-1.263, 5.084e-3
-1.262, 4.927e-3
-1.261, 4.785e-3
-1.260, 4.637e-3
-1.259, 4.505e-3
-1.258, 4.378e-3
-1.257, 4.255e-3
-1.256, 4.135e-3
-1.255, 4.021e-3
-1.254, 3.900e-3
-1.253, 3.777e-3
-1.252, 3.657e-3
-1.251, 3.530e-3
-1.250, 3.388e-3
-1.249, 3.253e-3
-1.248, 3.111e-3
-1.247, 2.966e-3
-1.246, 2.830e-3
-1.245, 2.704e-3
-1.244, 2.575e-3
-1.243, 2.457e-3
-1.242, 2.340e-3
-1.241, 2.229e-3
-1.240, 2.128e-3
-1.239, 2.020e-3
-1.238, 1.906e-3
-1.237, 1.795e-3
-1.236, 1.668e-3
-1.235, 1.536e-3
-1.234, 1.406e-3
-1.233, 1.273e-3
-1.232, 1.138e-3
-1.231, 1.014e-3
-1.230, 8.881e-4
-1.229, 7.679e-4
-1.228, 6.538e-4
-1.227, 5.489e-4
-1.226, 4.441e-4
-1.225, 3.455e-4
-1.224, 2.499e-4
-1.223, 1.420e-4
-1.222, 4.024e-5
-1.221, -7.384e-5
-1.220, -1.972e-4
-1.219, -3.174e-4
-1.218, -4.376e-4
-1.217, -5.795e-4
-1.216, -6.935e-4
-1.215, -8.200e-4
-1.214, -9.279e-4
-1.213, -1.036e-3
-1.212, -1.138e-3
-1.211, -1.236e-3
-1.210, -1.326e-3
-1.209, -1.424e-3
-1.208, -1.520e-3
-1.207, -1.622e-3
-1.206, -1.729e-3
-1.205, -1.847e-3
-1.204, -1.961e-3
-1.203, -2.075e-3
-1.202, -2.201e-3
-1.201, -2.312e-3
-1.200, -2.426e-3
-1.199, -2.531e-3
-1.198, -2.627e-3
-1.197, -2.725e-3
-1.196, -2.815e-3
-1.195, -2.901e-3
-1.194, -2.994e-3
-1.193, -3.089e-3
-1.192, -3.179e-3
-1.191, -3.286e-3
-1.190, -3.401e-3
-1.189, -3.512e-3
-1.188, -3.626e-3
-1.187, -3.749e-3
-1.186, -3.851e-3
-1.185, -3.962e-3
-1.184, -4.060e-3
-1.183, -4.159e-3
-1.182, -4.248e-3
-1.181, -4.338e-3
-1.180, -4.418e-3
-1.179, -4.507e-3
-1.178, -4.600e-3
-1.177, -4.692e-3
-1.176, -4.797e-3
-1.175, -4.905e-3
-1.174, -5.013e-3
-1.173, -5.121e-3
-1.172, -5.244e-3
-1.171, -5.346e-3
-1.170, -5.457e-3
-1.169, -5.556e-3
-1.168, -5.645e-3
-1.167, -5.734e-3
-1.166, -5.818e-3
-1.165, -5.895e-3
-1.164, -5.978e-3
-1.163, -6.061e-3
-1.162, -6.151e-3
-1.161, -6.246e-3
-1.160, -6.354e-3
-1.159, -6.456e-3
-1.158, -6.567e-3
-1.157, -6.681e-3
-1.156, -6.780e-3
-1.155, -6.881e-3
-1.154, -6.974e-3
-1.153, -7.066e-3
-1.152, -7.146e-3
-1.151, -7.230e-3
-1.150, -7.304e-3
-1.149, -7.381e-3
-1.148, -7.467e-3
-1.147, -7.547e-3
-1.146, -7.640e-3
-1.145, -7.742e-3
-1.144, -7.843e-3
-1.143, -7.945e-3
-1.142, -8.059e-3
-1.141, -8.155e-3
-1.140, -8.256e-3
-1.139, -8.349e-3
-1.138, -8.435e-3
-1.137, -8.518e-3
-1.136, -8.596e-3
-1.135, -8.666e-3
-1.134, -8.750e-3
-1.133, -8.830e-3
-1.132, -8.907e-3
-1.131, -9.003e-3
-1.130, -9.101e-3
-1.129, -9.206e-3
-1.128, -9.308e-3
-1.127, -9.419e-3
-1.126, -9.514e-3
-1.125, -9.619e-3
-1.124, -9.712e-3
-1.123, -9.798e-3
-1.122, -9.884e-3
-1.121, -9.968e-3
-1.120, -1.004e-2
-1.119, -1.013e-2
-1.118, -1.021e-2
-1.117, -1.029e-2
-1.116, -1.037e-2
-1.115, -1.047e-2
-1.114, -1.056e-2
-1.113, -1.065e-2
-1.112, -1.076e-2
-1.111, -1.086e-2
-1.110, -1.096e-2
-1.109, -1.105e-2
-1.108, -1.114e-2
-1.107, -1.122e-2
-1.106, -1.131e-2
-1.105, -1.138e-2
-1.104, -1.145e-2
-1.103, -1.152e-2
-1.102, -1.160e-2
-1.101, -1.168e-2
-1.100, -1.178e-2
-1.099, -1.187e-2
-1.098, -1.197e-2
-1.097, -1.207e-2
-1.096, -1.216e-2
-1.095, -1.226e-2
-1.094, -1.234e-2
-1.093, -1.242e-2
-1.092, -1.250e-2
-1.091, -1.256e-2
-1.090, -1.263e-2
-1.089, -1.271e-2
-1.088, -1.278e-2
-1.087, -1.285e-2
-1.086, -1.294e-2
-1.085, -1.303e-2
-1.084, -1.312e-2
-1.083, -1.321e-2
-1.082, -1.332e-2
-1.081, -1.341e-2
-1.080, -1.351e-2
-1.079, -1.359e-2
-1.078, -1.367e-2
-1.077, -1.375e-2
-1.076, -1.382e-2
-1.075, -1.388e-2
-1.074, -1.395e-2
-1.073, -1.403e-2
-1.072, -1.411e-2
-1.071, -1.419e-2
-1.070, -1.427e-2
-1.069, -1.436e-2
-1.068, -1.447e-2
-1.067, -1.457e-2
-1.066, -1.466e-2
-1.065, -1.475e-2
-1.064, -1.483e-2
-1.063, -1.491e-2
-1.062, -1.498e-2
-1.061, -1.505e-2
-1.060, -1.511e-2
-1.059, -1.518e-2
-1.058, -1.525e-2
-1.057, -1.532e-2
-1.056, -1.540e-2
-1.055, -1.549e-2
-1.054, -1.558e-2
-1.053, -1.567e-2
-1.052, -1.576e-2
-1.051, -1.584e-2
-1.050, -1.593e-2
-1.049, -1.601e-2
-1.048, -1.609e-2
-1.047, -1.616e-2
-1.046, -1.622e-2
-1.045, -1.628e-2
-1.044, -1.634e-2
-1.043, -1.641e-2
-1.042, -1.649e-2
-1.041, -1.659e-2
-1.040, -1.667e-2
-1.039, -1.677e-2
-1.038, -1.686e-2
-1.037, -1.698e-2
-1.036, -1.707e-2
-1.035, -1.716e-2
-1.034, -1.723e-2
-1.033, -1.731e-2
-1.032, -1.739e-2
-1.031, -1.744e-2
-1.030, -1.750e-2
-1.029, -1.756e-2
-1.028, -1.762e-2
-1.027, -1.769e-2
-1.026, -1.776e-2
-1.025, -1.784e-2
-1.024, -1.793e-2
-1.023, -1.802e-2
-1.022, -1.812e-2
-1.021, -1.819e-2
-1.020, -1.828e-2
-1.019, -1.836e-2
-1.018, -1.843e-2
-1.017, -1.849e-2
-1.016, -1.856e-2
-1.015, -1.861e-2
-1.014, -1.867e-2
-1.013, -1.874e-2
-1.012, -1.880e-2
-1.011, -1.887e-2
-1.010, -1.895e-2
-1.009, -1.903e-2
-1.008, -1.912e-2
-1.007, -1.922e-2
-1.006, -1.929e-2
-1.005, -1.937e-2
-1.004, -1.945e-2
-1.003, -1.952e-2
-1.002, -1.958e-2
-1.001, -1.964e-2
