Dec. 29, 2024   00:01:16
Cyclic Voltammetry
File: c:/users/guazh/data/banditlqround7_x0exp136_r20/2024-12-24-exp772\exp772-2024-12-28t23_54_21-h2koh\exp772_cv_sr_300mvs_efin_-1400mv.bin
Data Source:  Experiment
Instrument Model:  CHI760E
Header: CV ran at 300 mVs
Note: 

Init E (V) = -1
High E (V) = -1
Low E (V) = -1.4
Final E (V) = -1
Init P/N = N
Scan Rate (V/s) = 0.3
Segment = 3
Sample Interval (V) = 0.001
Quiet Time (sec) = 2
Sensitivity (A/V) = 0.01
Comp R (ohm) = 1.3

Results:

Channel 1:
Segment 1:

Segment 2:

Segment 3:

Potential/V, Current/A

-1.000, -2.029e-3
-1.001, -1.822e-3
-1.002, -1.671e-3
-1.003, -1.566e-3
-1.004, -1.464e-3
-1.005, -1.338e-3
-1.006, -1.193e-3
-1.007, -1.088e-3
-1.008, -1.017e-3
-1.009, -9.433e-4
-1.010, -8.354e-4
-1.011, -7.120e-4
-1.012, -6.165e-4
-1.013, -5.641e-4
-1.014, -5.024e-4
-1.015, -4.068e-4
-1.016, -2.927e-4
-1.017, -2.064e-4
-1.018, -1.602e-4
-1.019, -1.047e-4
-1.020, -1.526e-5
-1.021, 8.648e-5
-1.022, 1.666e-4
-1.023, 2.067e-4
-1.024, 2.530e-4
-1.025, 3.362e-4
-1.026, 4.318e-4
-1.027, 5.058e-4
-1.028, 5.459e-4
-1.029, 5.890e-4
-1.030, 6.692e-4
-1.031, 7.679e-4
-1.032, 8.480e-4
-1.033, 8.819e-4
-1.034, 9.282e-4
-1.035, 1.005e-3
-1.036, 1.101e-3
-1.037, 1.166e-3
-1.038, 1.193e-3
-1.039, 1.230e-3
-1.040, 1.301e-3
-1.041, 1.400e-3
-1.042, 1.458e-3
-1.043, 1.483e-3
-1.044, 1.526e-3
-1.045, 1.591e-3
-1.046, 1.702e-3
-1.047, 1.773e-3
-1.048, 1.804e-3
-1.049, 1.828e-3
-1.050, 1.890e-3
-1.051, 2.007e-3
-1.052, 2.072e-3
-1.053, 2.100e-3
-1.054, 2.128e-3
-1.055, 2.158e-3
-1.056, 2.282e-3
-1.057, 2.365e-3
-1.058, 2.380e-3
-1.059, 2.414e-3
-1.060, 2.476e-3
-1.061, 2.581e-3
-1.062, 2.645e-3
-1.063, 2.679e-3
-1.064, 2.707e-3
-1.065, 2.784e-3
-1.066, 2.877e-3
-1.067, 2.932e-3
-1.068, 2.954e-3
-1.069, 2.988e-3
-1.070, 3.062e-3
-1.071, 3.170e-3
-1.072, 3.216e-3
-1.073, 3.222e-3
-1.074, 3.268e-3
-1.075, 3.364e-3
-1.076, 3.466e-3
-1.077, 3.536e-3
-1.078, 3.570e-3
-1.079, 3.617e-3
-1.080, 3.694e-3
-1.081, 3.792e-3
-1.082, 3.863e-3
-1.083, 3.894e-3
-1.084, 3.928e-3
-1.085, 3.974e-3
-1.086, 4.039e-3
-1.087, 4.150e-3
-1.088, 4.178e-3
-1.089, 4.221e-3
-1.090, 4.326e-3
-1.091, 4.384e-3
-1.092, 4.434e-3
-1.093, 4.468e-3
-1.094, 4.508e-3
-1.095, 4.609e-3
-1.096, 4.720e-3
-1.097, 4.671e-3
-1.098, 4.748e-3
-1.099, 4.828e-3
-1.100, 4.902e-3
-1.101, 5.004e-3
-1.102, 5.084e-3
-1.103, 5.183e-3
-1.104, 5.214e-3
-1.105, 5.254e-3
-1.106, 5.389e-3
-1.107, 5.457e-3
-1.108, 5.528e-3
-1.109, 5.568e-3
-1.110, 5.648e-3
-1.111, 5.735e-3
-1.112, 5.775e-3
-1.113, 5.806e-3
-1.114, 5.821e-3
-1.115, 5.883e-3
-1.116, 6.009e-3
-1.117, 6.095e-3
-1.118, 6.129e-3
-1.119, 6.176e-3
-1.120, 6.253e-3
-1.121, 6.358e-3
-1.122, 6.432e-3
-1.123, 6.469e-3
-1.124, 6.509e-3
-1.125, 6.589e-3
-1.126, 6.694e-3
-1.127, 6.764e-3
-1.128, 6.805e-3
-1.129, 6.805e-3
-1.130, 6.906e-3
-1.131, 6.999e-3
-1.132, 7.067e-3
-1.133, 7.070e-3
-1.134, 7.187e-3
-1.135, 7.267e-3
-1.136, 7.369e-3
-1.137, 7.449e-3
-1.138, 7.486e-3
-1.139, 7.526e-3
-1.140, 7.600e-3
-1.141, 7.677e-3
-1.142, 7.760e-3
-1.143, 7.813e-3
-1.144, 7.853e-3
-1.145, 7.945e-3
-1.146, 8.053e-3
-1.147, 8.140e-3
-1.148, 8.177e-3
-1.149, 8.217e-3
-1.150, 8.303e-3
-1.151, 8.408e-3
-1.152, 8.485e-3
-1.153, 8.522e-3
-1.154, 8.562e-3
-1.155, 8.642e-3
-1.156, 8.750e-3
-1.157, 8.827e-3
-1.158, 8.873e-3
-1.159, 8.920e-3
-1.160, 9.012e-3
-1.161, 9.117e-3
-1.162, 9.191e-3
-1.163, 9.219e-3
-1.164, 9.228e-3
-1.165, 9.320e-3
-1.166, 9.438e-3
-1.167, 9.545e-3
-1.168, 9.598e-3
-1.169, 9.613e-3
-1.170, 9.697e-3
-1.171, 9.829e-3
-1.172, 9.925e-3
-1.173, 9.974e-3
-1.174, 1.001e-2
-1.175, 1.012e-2
-1.176, 1.021e-2
-1.177, 1.018e-2
-1.178, 1.024e-2
-1.179, 1.031e-2
-1.180, 1.027e-2
-1.181, 1.025e-2
-1.182, 1.025e-2
-1.183, 1.024e-2
-1.184, 1.026e-2
-1.185, 1.033e-2
-1.186, 1.043e-2
-1.187, 1.050e-2
-1.188, 1.063e-2
-1.189, 1.072e-2
-1.190, 1.070e-2
-1.191, 1.081e-2
-1.192, 1.091e-2
-1.193, 1.099e-2
-1.194, 1.108e-2
-1.195, 1.124e-2
-1.196, 1.150e-2
-1.197, 1.151e-2
-1.198, 1.159e-2
-1.199, 1.160e-2
-1.200, 1.148e-2
-1.201, 1.162e-2
-1.202, 1.177e-2
-1.203, 1.187e-2
-1.204, 1.198e-2
-1.205, 1.212e-2
-1.206, 1.224e-2
-1.207, 1.231e-2
-1.208, 1.236e-2
-1.209, 1.239e-2
-1.210, 1.246e-2
-1.211, 1.256e-2
-1.212, 1.263e-2
-1.213, 1.266e-2
-1.214, 1.269e-2
-1.215, 1.275e-2
-1.216, 1.286e-2
-1.217, 1.293e-2
-1.218, 1.295e-2
-1.219, 1.297e-2
-1.220, 1.305e-2
-1.221, 1.315e-2
-1.222, 1.325e-2
-1.223, 1.328e-2
-1.224, 1.331e-2
-1.225, 1.338e-2
-1.226, 1.347e-2
-1.227, 1.355e-2
-1.228, 1.359e-2
-1.229, 1.363e-2
-1.230, 1.370e-2
-1.231, 1.380e-2
-1.232, 1.386e-2
-1.233, 1.388e-2
-1.234, 1.391e-2
-1.235, 1.399e-2
-1.236, 1.408e-2
-1.237, 1.416e-2
-1.238, 1.419e-2
-1.239, 1.420e-2
-1.240, 1.427e-2
-1.241, 1.436e-2
-1.242, 1.442e-2
-1.243, 1.444e-2
-1.244, 1.447e-2
-1.245, 1.453e-2
-1.246, 1.462e-2
-1.247, 1.469e-2
-1.248, 1.471e-2
-1.249, 1.474e-2
-1.250, 1.479e-2
-1.251, 1.486e-2
-1.252, 1.492e-2
-1.253, 1.494e-2
-1.254, 1.496e-2
-1.255, 1.503e-2
-1.256, 1.513e-2
-1.257, 1.519e-2
-1.258, 1.520e-2
-1.259, 1.522e-2
-1.260, 1.526e-2
-1.261, 1.535e-2
-1.262, 1.542e-2
-1.263, 1.545e-2
-1.264, 1.547e-2
-1.265, 1.552e-2
-1.266, 1.562e-2
-1.267, 1.567e-2
-1.268, 1.568e-2
-1.269, 1.569e-2
-1.270, 1.575e-2
-1.271, 1.584e-2
-1.272, 1.590e-2
-1.273, 1.591e-2
-1.274, 1.592e-2
-1.275, 1.597e-2
-1.276, 1.606e-2
-1.277, 1.611e-2
-1.278, 1.611e-2
-1.279, 1.612e-2
-1.280, 1.616e-2
-1.281, 1.623e-2
-1.282, 1.627e-2
-1.283, 1.628e-2
-1.284, 1.628e-2
-1.285, 1.630e-2
-1.286, 1.637e-2
-1.287, 1.641e-2
-1.288, 1.640e-2
-1.289, 1.639e-2
-1.290, 1.643e-2
-1.291, 1.650e-2
-1.292, 1.653e-2
-1.293, 1.651e-2
-1.294, 1.652e-2
-1.295, 1.656e-2
-1.296, 1.663e-2
-1.297, 1.668e-2
-1.298, 1.668e-2
-1.299, 1.667e-2
-1.300, 1.671e-2
-1.301, 1.677e-2
-1.302, 1.680e-2
-1.303, 1.679e-2
-1.304, 1.678e-2
-1.305, 1.682e-2
-1.306, 1.688e-2
-1.307, 1.692e-2
-1.308, 1.691e-2
-1.309, 1.690e-2
-1.310, 1.693e-2
-1.311, 1.700e-2
-1.312, 1.703e-2
-1.313, 1.702e-2
-1.314, 1.701e-2
-1.315, 1.704e-2
-1.316, 1.711e-2
-1.317, 1.714e-2
-1.318, 1.712e-2
-1.319, 1.709e-2
-1.320, 1.711e-2
-1.321, 1.716e-2
-1.322, 1.719e-2
-1.323, 1.717e-2
-1.324, 1.715e-2
-1.325, 1.716e-2
-1.326, 1.721e-2
-1.327, 1.723e-2
-1.328, 1.721e-2
-1.329, 1.719e-2
-1.330, 1.722e-2
-1.331, 1.726e-2
-1.332, 1.729e-2
-1.333, 1.727e-2
-1.334, 1.725e-2
-1.335, 1.726e-2
-1.336, 1.731e-2
-1.337, 1.736e-2
-1.338, 1.735e-2
-1.339, 1.733e-2
-1.340, 1.736e-2
-1.341, 1.740e-2
-1.342, 1.741e-2
-1.343, 1.740e-2
-1.344, 1.739e-2
-1.345, 1.743e-2
-1.346, 1.748e-2
-1.347, 1.753e-2
-1.348, 1.755e-2
-1.349, 1.756e-2
-1.350, 1.759e-2
-1.351, 1.767e-2
-1.352, 1.772e-2
-1.353, 1.772e-2
-1.354, 1.773e-2
-1.355, 1.776e-2
-1.356, 1.788e-2
-1.357, 1.790e-2
-1.358, 1.790e-2
-1.359, 1.788e-2
-1.360, 1.782e-2
-1.361, 1.790e-2
-1.362, 1.792e-2
-1.363, 1.787e-2
-1.364, 1.782e-2
-1.365, 1.781e-2
-1.366, 1.784e-2
-1.367, 1.785e-2
-1.368, 1.780e-2
-1.369, 1.775e-2
-1.370, 1.775e-2
-1.371, 1.779e-2
-1.372, 1.781e-2
-1.373, 1.778e-2
-1.374, 1.776e-2
-1.375, 1.779e-2
-1.376, 1.785e-2
-1.377, 1.788e-2
-1.378, 1.787e-2
-1.379, 1.787e-2
-1.380, 1.792e-2
-1.381, 1.798e-2
-1.382, 1.801e-2
-1.383, 1.801e-2
-1.384, 1.800e-2
-1.385, 1.805e-2
-1.386, 1.811e-2
-1.387, 1.814e-2
-1.388, 1.813e-2
-1.389, 1.811e-2
-1.390, 1.813e-2
-1.391, 1.819e-2
-1.392, 1.822e-2
-1.393, 1.823e-2
-1.394, 1.823e-2
-1.395, 1.827e-2
-1.396, 1.834e-2
-1.397, 1.839e-2
-1.398, 1.838e-2
-1.399, 1.838e-2
-1.400, 1.826e-2
-1.399, 1.791e-2
-1.398, 1.756e-2
-1.397, 1.719e-2
-1.396, 1.684e-2
-1.395, 1.655e-2
-1.394, 1.631e-2
-1.393, 1.607e-2
-1.392, 1.577e-2
-1.391, 1.547e-2
-1.390, 1.523e-2
-1.389, 1.505e-2
-1.388, 1.483e-2
-1.387, 1.457e-2
-1.386, 1.432e-2
-1.385, 1.409e-2
-1.384, 1.391e-2
-1.383, 1.370e-2
-1.382, 1.345e-2
-1.381, 1.320e-2
-1.380, 1.301e-2
-1.379, 1.285e-2
-1.378, 1.266e-2
-1.377, 1.243e-2
-1.376, 1.220e-2
-1.375, 1.202e-2
-1.374, 1.187e-2
-1.373, 1.170e-2
-1.372, 1.148e-2
-1.371, 1.128e-2
-1.370, 1.111e-2
-1.369, 1.098e-2
-1.368, 1.082e-2
-1.367, 1.063e-2
-1.366, 1.044e-2
-1.365, 1.028e-2
-1.364, 1.016e-2
-1.363, 1.002e-2
-1.362, 9.826e-3
-1.361, 9.635e-3
-1.360, 9.493e-3
-1.359, 9.379e-3
-1.358, 9.240e-3
-1.357, 9.061e-3
-1.356, 8.876e-3
-1.355, 8.741e-3
-1.354, 8.633e-3
-1.353, 8.497e-3
-1.352, 8.325e-3
-1.351, 8.152e-3
-1.350, 8.022e-3
-1.349, 7.927e-3
-1.348, 7.800e-3
-1.347, 7.637e-3
-1.346, 7.474e-3
-1.345, 7.356e-3
-1.344, 7.270e-3
-1.343, 7.153e-3
-1.342, 6.993e-3
-1.341, 6.835e-3
-1.340, 6.718e-3
-1.339, 6.638e-3
-1.338, 6.530e-3
-1.337, 6.376e-3
-1.336, 6.222e-3
-1.335, 6.111e-3
-1.334, 6.037e-3
-1.333, 5.932e-3
-1.332, 5.787e-3
-1.331, 5.639e-3
-1.330, 5.534e-3
-1.329, 5.463e-3
-1.328, 5.365e-3
-1.327, 5.223e-3
-1.326, 5.078e-3
-1.325, 4.979e-3
-1.324, 4.912e-3
-1.323, 4.819e-3
-1.322, 4.683e-3
-1.321, 4.548e-3
-1.320, 4.455e-3
-1.319, 4.391e-3
-1.318, 4.307e-3
-1.317, 4.178e-3
-1.316, 4.045e-3
-1.315, 3.959e-3
-1.314, 3.900e-3
-1.313, 3.814e-3
-1.312, 3.688e-3
-1.311, 3.558e-3
-1.310, 3.472e-3
-1.309, 3.416e-3
-1.308, 3.336e-3
-1.307, 3.213e-3
-1.306, 3.086e-3
-1.305, 3.006e-3
-1.304, 2.960e-3
-1.303, 2.883e-3
-1.302, 2.769e-3
-1.301, 2.645e-3
-1.300, 2.571e-3
-1.299, 2.525e-3
-1.298, 2.457e-3
-1.297, 2.340e-3
-1.296, 2.226e-3
-1.295, 2.152e-3
-1.294, 2.112e-3
-1.293, 2.044e-3
-1.292, 1.930e-3
-1.291, 1.816e-3
-1.290, 1.748e-3
-1.289, 1.708e-3
-1.288, 1.647e-3
-1.287, 1.539e-3
-1.286, 1.425e-3
-1.285, 1.360e-3
-1.284, 1.326e-3
-1.283, 1.264e-3
-1.282, 1.159e-3
-1.281, 1.048e-3
-1.280, 9.837e-4
-1.279, 9.528e-4
-1.278, 8.973e-4
-1.277, 7.925e-4
-1.276, 6.846e-4
-1.275, 6.260e-4
-1.274, 5.983e-4
-1.273, 5.428e-4
-1.272, 4.441e-4
-1.271, 3.424e-4
-1.270, 2.838e-4
-1.269, 2.561e-4
-1.268, 2.036e-4
-1.267, 1.081e-4
-1.266, 6.322e-6
-1.265, -4.917e-5
-1.264, -7.384e-5
-1.263, -1.201e-4
-1.262, -2.157e-4
-1.261, -3.143e-4
-1.260, -3.667e-4
-1.259, -3.883e-4
-1.258, -4.346e-4
-1.257, -5.301e-4
-1.256, -6.257e-4
-1.255, -6.781e-4
-1.254, -6.997e-4
-1.253, -7.429e-4
-1.252, -8.354e-4
-1.251, -9.309e-4
-1.250, -9.803e-4
-1.249, -1.002e-3
-1.248, -1.045e-3
-1.247, -1.134e-3
-1.246, -1.227e-3
-1.245, -1.276e-3
-1.244, -1.292e-3
-1.243, -1.332e-3
-1.242, -1.418e-3
-1.241, -1.507e-3
-1.240, -1.554e-3
-1.239, -1.569e-3
-1.238, -1.609e-3
-1.237, -1.696e-3
-1.236, -1.782e-3
-1.235, -1.828e-3
-1.234, -1.844e-3
-1.233, -1.877e-3
-1.232, -1.961e-3
-1.231, -2.050e-3
-1.230, -2.093e-3
-1.229, -2.112e-3
-1.228, -2.146e-3
-1.227, -2.229e-3
-1.226, -2.315e-3
-1.225, -2.355e-3
-1.224, -2.365e-3
-1.223, -2.402e-3
-1.222, -2.482e-3
-1.221, -2.565e-3
-1.220, -2.608e-3
-1.219, -2.614e-3
-1.218, -2.648e-3
-1.217, -2.725e-3
-1.216, -2.809e-3
-1.215, -2.849e-3
-1.214, -2.858e-3
-1.213, -2.889e-3
-1.212, -2.969e-3
-1.211, -3.052e-3
-1.210, -3.095e-3
-1.209, -3.105e-3
-1.208, -3.135e-3
-1.207, -3.216e-3
-1.206, -3.299e-3
-1.205, -3.339e-3
-1.204, -3.351e-3
-1.203, -3.382e-3
-1.202, -3.459e-3
-1.201, -3.539e-3
-1.200, -3.576e-3
-1.199, -3.582e-3
-1.198, -3.613e-3
-1.197, -3.690e-3
-1.196, -3.774e-3
-1.195, -3.814e-3
-1.194, -3.814e-3
-1.193, -3.835e-3
-1.192, -3.934e-3
-1.191, -4.020e-3
-1.190, -4.063e-3
-1.189, -4.070e-3
-1.188, -4.107e-3
-1.187, -4.177e-3
-1.186, -4.248e-3
-1.185, -4.279e-3
-1.184, -4.267e-3
-1.183, -4.292e-3
-1.182, -4.366e-3
-1.181, -4.446e-3
-1.180, -4.483e-3
-1.179, -4.480e-3
-1.178, -4.514e-3
-1.177, -4.584e-3
-1.176, -4.662e-3
-1.175, -4.699e-3
-1.174, -4.705e-3
-1.173, -4.732e-3
-1.172, -4.800e-3
-1.171, -4.871e-3
-1.170, -4.905e-3
-1.169, -4.908e-3
-1.168, -4.936e-3
-1.167, -5.010e-3
-1.166, -5.087e-3
-1.165, -5.127e-3
-1.164, -5.142e-3
-1.163, -5.173e-3
-1.162, -5.253e-3
-1.161, -5.340e-3
-1.160, -5.380e-3
-1.159, -5.392e-3
-1.158, -5.423e-3
-1.157, -5.494e-3
-1.156, -5.583e-3
-1.155, -5.623e-3
-1.154, -5.633e-3
-1.153, -5.660e-3
-1.152, -5.734e-3
-1.151, -5.818e-3
-1.150, -5.858e-3
-1.149, -5.870e-3
-1.148, -5.913e-3
-1.147, -6.003e-3
-1.146, -6.086e-3
-1.145, -6.117e-3
-1.144, -6.126e-3
-1.143, -6.160e-3
-1.142, -6.243e-3
-1.141, -6.333e-3
-1.140, -6.376e-3
-1.139, -6.379e-3
-1.138, -6.388e-3
-1.137, -6.481e-3
-1.136, -6.561e-3
-1.135, -6.610e-3
-1.134, -6.604e-3
-1.133, -6.666e-3
-1.132, -6.749e-3
-1.131, -6.820e-3
-1.130, -6.875e-3
-1.129, -6.888e-3
-1.128, -6.921e-3
-1.127, -6.999e-3
-1.126, -7.091e-3
-1.125, -7.140e-3
-1.124, -7.153e-3
-1.123, -7.180e-3
-1.122, -7.273e-3
-1.121, -7.368e-3
-1.120, -7.418e-3
-1.119, -7.433e-3
-1.118, -7.473e-3
-1.117, -7.547e-3
-1.116, -7.637e-3
-1.115, -7.677e-3
-1.114, -7.689e-3
-1.113, -7.717e-3
-1.112, -7.794e-3
-1.111, -7.883e-3
-1.110, -7.933e-3
-1.109, -7.951e-3
-1.108, -7.988e-3
-1.107, -8.068e-3
-1.106, -8.152e-3
-1.105, -8.195e-3
-1.104, -8.204e-3
-1.103, -8.238e-3
-1.102, -8.312e-3
-1.101, -8.401e-3
-1.100, -8.448e-3
-1.099, -8.460e-3
-1.098, -8.491e-3
-1.097, -8.577e-3
-1.096, -8.660e-3
-1.095, -8.713e-3
-1.094, -8.725e-3
-1.093, -8.756e-3
-1.092, -8.839e-3
-1.091, -8.929e-3
-1.090, -8.981e-3
-1.089, -8.999e-3
-1.088, -9.036e-3
-1.087, -9.117e-3
-1.086, -9.206e-3
-1.085, -9.252e-3
-1.084, -9.258e-3
-1.083, -9.292e-3
-1.082, -9.372e-3
-1.081, -9.465e-3
-1.080, -9.517e-3
-1.079, -9.536e-3
-1.078, -9.570e-3
-1.077, -9.659e-3
-1.076, -9.749e-3
-1.075, -9.801e-3
-1.074, -9.820e-3
-1.073, -9.853e-3
-1.072, -9.927e-3
-1.071, -1.001e-2
-1.070, -1.006e-2
-1.069, -1.008e-2
-1.068, -1.012e-2
-1.067, -1.021e-2
-1.066, -1.029e-2
-1.065, -1.034e-2
-1.064, -1.037e-2
-1.063, -1.040e-2
-1.062, -1.049e-2
-1.061, -1.057e-2
-1.060, -1.061e-2
-1.059, -1.063e-2
-1.058, -1.066e-2
-1.057, -1.073e-2
-1.056, -1.081e-2
-1.055, -1.086e-2
-1.054, -1.087e-2
-1.053, -1.090e-2
-1.052, -1.098e-2
-1.051, -1.106e-2
-1.050, -1.111e-2
-1.049, -1.111e-2
-1.048, -1.114e-2
-1.047, -1.121e-2
-1.046, -1.130e-2
-1.045, -1.134e-2
-1.044, -1.135e-2
-1.043, -1.138e-2
-1.042, -1.146e-2
-1.041, -1.154e-2
-1.040, -1.159e-2
-1.039, -1.160e-2
-1.038, -1.162e-2
-1.037, -1.169e-2
-1.036, -1.176e-2
-1.035, -1.181e-2
-1.034, -1.181e-2
-1.033, -1.184e-2
-1.032, -1.191e-2
-1.031, -1.199e-2
-1.030, -1.203e-2
-1.029, -1.204e-2
-1.028, -1.207e-2
-1.027, -1.215e-2
-1.026, -1.223e-2
-1.025, -1.227e-2
-1.024, -1.228e-2
-1.023, -1.231e-2
-1.022, -1.238e-2
-1.021, -1.246e-2
-1.020, -1.250e-2
-1.019, -1.251e-2
-1.018, -1.254e-2
-1.017, -1.261e-2
-1.016, -1.269e-2
-1.015, -1.273e-2
-1.014, -1.274e-2
-1.013, -1.276e-2
-1.012, -1.283e-2
-1.011, -1.290e-2
-1.010, -1.292e-2
-1.009, -1.292e-2
-1.008, -1.294e-2
-1.007, -1.301e-2
-1.006, -1.308e-2
-1.005, -1.311e-2
-1.004, -1.311e-2
-1.003, -1.311e-2
-1.002, -1.318e-2
-1.001, -1.326e-2
