Potential V vs RHE, Current mA cm-2
0.013299999999999867,5.989887643628566
0.012299999999999978,4.396922719980535
0.011299999999999866,3.069923520707129
0.010299999999999976,2.273441058883114
0.009299999999999864,1.2247155722931624
0.008299999999999974,0.06548698607075255
0.007299999999999862,-0.5824366421544356
0.006299999999999972,-1.254990394110274
0.00529999999999986,-2.2875881718817643
0.0042999999999999705,-2.9468436376188714
0.0032999999999998586,-3.371257027578382
0.0022999999999999687,-4.234230920496055
0.0012999999999998568,-4.978369064225063
0.00029999999999996696,-5.286776127595641
-0.000700000000000145,-5.902175543036933
-0.0017000000000000348,-6.709975695259868
-0.0027000000000001467,-7.0297004490293675
-0.0037000000000000366,-7.4244049016917115
-0.0047000000000001485,-8.201081405317618
-0.005700000000000038,-8.628324217876859
-0.00670000000000015,-8.841945624156478
-0.00770000000000004,-9.505445223793181
-0.008700000000000152,-10.079818011538388
-0.009700000000000042,-10.239680388423137
-0.010700000000000154,-10.731999920776168
-0.011700000000000044,-11.396914231712735
-0.012700000000000156,-11.593559102393977
-0.013700000000000045,-11.879330784966712
-0.014700000000000157,-12.555562786302202
-0.015700000000000047,-12.871043406172104
-0.01670000000000016,-13.008270402259011
-0.01770000000000005,-13.593960880403138
-0.01870000000000016,-14.09193925795563
-0.01970000000000005,-14.161260111649016
-0.020700000000000163,-14.57152638860988
-0.021700000000000053,-15.151558021554543
-0.022700000000000164,-15.307176264539699
-0.023700000000000054,-15.519382959519453
-0.024700000000000166,-16.15600304445872
-0.025700000000000056,-16.438945304431726
-0.026700000000000168,-16.50968086942498
-0.027700000000000058,-17.061418276372343
-0.02870000000000017,-17.528273005327804
-0.02970000000000006,-17.599008570321057
-0.03070000000000017,-17.995127734283265
-0.03170000000000006,-18.546865141230633
-0.03270000000000017,-18.674189158218486
-0.03370000000000006,-18.88639585319824
-0.034700000000000175,-19.49472171214021
-0.035700000000000065,-19.749369746115914
-0.03670000000000018,-19.791811085111863
-0.03770000000000007,-20.34354849205923
-0.03870000000000018,-20.86699167300929
-0.03970000000000007,-20.89528589900659
-0.04070000000000018,-21.2631108369715
-0.04170000000000007,-21.857289582914817
-0.04270000000000018,-21.97046648690402
-0.04370000000000007,-22.196820294882425
-0.044700000000000184,-22.80514615382439
-0.045700000000000074,-23.088088413797397
-0.046700000000000186,-23.15882397879065
-0.047700000000000076,-23.682267159740714
-0.04870000000000019,-24.134974775697525
-0.04970000000000008,-24.17741611469348
-0.05070000000000019,-24.57353527865569
-0.05170000000000008,-25.153566911600354
-0.05270000000000019,-25.295038041586857
-0.05370000000000008,-25.507244736566612
-0.05470000000000019,-26.11557059550858
-0.05570000000000008,-26.370218629484285
-0.056700000000000195,-26.440954194477534
-0.057700000000000085,-27.00683871442355
-0.058700000000000196,-27.501987669376312
-0.059700000000000086,-27.530281895373616
-0.0607000000000002,-27.926401059335824
-0.06170000000000009,-28.53472691827779
-0.0627000000000002,-28.676198048264297
-0.06370000000000009,-28.93084608224
-0.0647000000000002,-29.581613280177915
-0.06570000000000009,-29.850408427152274
-0.0667000000000002,-29.949438218142824
-0.0677000000000001,-30.51532273808884
-0.0687000000000002,-30.939736128048356
-0.0697000000000001,-30.982177467044306
-0.07070000000000021,-31.449032195999767
-0.0717000000000001,-32.08565228093904
-0.07270000000000021,-32.19882918492823
-0.0737000000000001,-32.38274165391069
-0.07470000000000021,-33.01936173884996
-0.0757000000000001,-33.38718667681487
-0.07670000000000021,-33.48621646780542
-0.0777000000000001,-33.98136542275818
-0.07870000000000021,-34.44822015171364
-0.0797000000000001,-34.53310282970554
-0.08070000000000022,-34.94336910666641
-0.0817000000000001,-35.55169496560837
-0.08270000000000022,-35.664871869597576
-0.08370000000000011,-35.89122567757598
-0.08470000000000022,-36.584434214509855
-0.08570000000000011,-36.95225915247476
-0.08670000000000022,-37.093730282461266
-0.08770000000000011,-37.702056141403226
-0.08870000000000022,-38.253793548350586
-0.08970000000000011,-38.35282333934114
-0.09070000000000022,-38.692354051308754
-0.09170000000000011,-39.328974136248014
-0.09270000000000023,-39.45629815323587
-0.09370000000000012,-39.59776928322238
-0.09470000000000023,-40.220242255162994
-0.09570000000000012,-40.5880671931279
-0.09670000000000023,-40.729538323114404
-0.09770000000000012,-41.25298150406447
-0.09870000000000023,-41.69154200702263
-0.09970000000000012,-41.74813045901723
-0.10070000000000023,-42.172543848976744
-0.10170000000000012,-42.79501682091736
-0.10270000000000024,-42.93648795090387
-0.10370000000000013,-43.120400419886316
-0.10470000000000024,-43.78531473082289
-0.10570000000000013,-44.096551216793195
-0.10670000000000024,-44.181433894785094
-0.10770000000000013,-44.78975975372706
-0.10870000000000024,-45.29905582167847
-0.10970000000000013,-45.28490870867982
-0.11070000000000024,-45.666880759643384
-0.11170000000000013,-46.36008929657725
-0.11270000000000002,-46.61473733055296
-0.11370000000000013,-46.84109113853137
-0.11470000000000002,-47.40697565847737
-0.11570000000000014,-47.689917918450384
-0.11670000000000003,-47.85968327443419
-0.11770000000000014,-48.51045047237211
-0.11870000000000003,-48.97730520132757
-0.11970000000000014,-48.93486386233162
-0.12070000000000003,-49.27439457429922
-0.12170000000000014,-49.925161772237146
-0.12270000000000003,-50.12322135421825
-0.12370000000000014,-50.40616361419126
-0.12470000000000003,-51.05693081212917
-0.12570000000000014,-51.325725959103536
-0.12670000000000003,-51.410608637095436
-0.12770000000000015,-51.976493157041446
-0.12870000000000004,-52.471642111994214
-0.12970000000000015,-52.55652478998611
-0.13070000000000004,-52.966791066946975
-0.13170000000000015,-53.603411151886235
-0.13270000000000004,-53.7307351688741
-0.13370000000000015,-53.971236089851146
-0.13470000000000004,-54.65029751378637
-0.13570000000000015,-54.933239773759375
-0.13670000000000004,-55.032269564749924
-0.13770000000000016,-55.5840069716973
-0.13870000000000005,-56.079155926650046
-0.13970000000000016,-56.1781857176406
-0.14070000000000005,-56.58845199460147
-0.14170000000000016,-57.182630740544774
-0.14270000000000005,-57.30995475753264
-0.14370000000000016,-57.564602791508335
-0.14470000000000005,-58.30025266743816
-0.14570000000000016,-58.61148915340847
-0.14670000000000005,-58.68222471840172
-0.14770000000000016,-59.21981501235043
-0.14870000000000005,-59.72911108030185
-0.14970000000000017,-59.81399375829375
-0.15070000000000006,-60.23840714825326
-0.15170000000000017,-60.86088012019388
-0.15270000000000006,-61.01649836317903
-0.15370000000000017,-61.27114639715474
-0.15470000000000006,-61.89361936909536
-0.15570000000000017,-62.10582606407511
-0.15670000000000006,-62.14826740307106
-0.15770000000000017,-62.68585769701977
-0.15870000000000006,-63.350772007956344
-0.15970000000000018,-63.54883158993744
-0.16070000000000007,-63.91665652790236
-0.16170000000000018,-64.44009970885242
-0.16270000000000007,-64.41180548285512
-0.16370000000000018,-64.58157083883891
-0.16470000000000007,-65.26063226277414
-0.16570000000000018,-65.5860158617431
-0.16670000000000007,-65.74163410472826
-0.16770000000000018,-66.39240130266617
-0.16870000000000007,-66.9582858226122
-0.16970000000000018,-66.98658004860948
-0.17070000000000007,-67.25537519558385
-0.17170000000000019,-67.79296548953256
-0.17270000000000008,-67.9202895065204
-0.1737000000000002,-68.20323176649342
-0.17470000000000008,-68.93888164242324
-0.1757000000000002,-69.23597101539488
-0.17670000000000008,-69.36329503238275
-0.1777000000000002,-69.92917955232878
-0.17870000000000008,-70.45262273327883
-0.1797000000000002,-70.60824097626397
-0.18070000000000008,-71.01850725322484
-0.1817000000000002,-71.5136562081776
-0.18270000000000008,-71.61268599916815
-0.1837000000000002,-72.00880516313036
-0.1847000000000001,-72.90007328204534
-0.1857000000000002,-73.09813286402644
-0.1867000000000001,-72.90007328204534
-0.1877000000000002,-73.4235164629954
-0.1887000000000001,-73.97525386994278
-0.1897000000000002,-74.07428366093333
-0.1907000000000001,-74.48454993789417
-0.1917000000000001,-75.13531713583208
-0.19269999999999998,-75.23434692682265
-0.1937000000000001,-75.4182593958051
-0.19469999999999998,-76.11146793273898
-0.1957000000000001,-76.50758709670117
-0.19669999999999999,-76.53588132269847
-0.1977000000000001,-77.08761872964584
-0.1987,-77.56862057159996
-0.1997000000000001,-77.55447345860131
-0.2007,-78.02132818755678
-0.2017000000000001,-78.72868383748929
-0.2027,-78.85600785447714
-0.2037000000000001,-79.13895011445015
-0.2047,-79.86045287738132
-0.2057000000000001,-80.34145471933543
-0.2067,-80.45463162332464
-0.2077000000000001,-80.8083094482909
-0.2087,-81.20442861225311
-0.2097000000000001,-81.43078242023151
-0.2107,-82.08154961816942
-0.2117000000000001,-82.8313466070979
-0.2127,-82.95867062408576
-0.2137000000000001,-83.04355330207765
-0.2147,-83.53870225703042
-0.2157000000000001,-83.87823296899803
-0.2167,-84.01970409898453
-0.21770000000000012,-84.59973573192919
-0.2187,-85.0241491218887
-0.21970000000000012,-85.052443347886
-0.2207,-85.40612117285227
-0.22170000000000012,-85.97200569279828
-0.2227,-86.08518259678749
-0.22370000000000012,-86.35397774376185
-0.2247,-87.075480506693
-0.22570000000000012,-87.20280452368085
-0.2267,-87.075480506693
-0.22770000000000012,-87.64136502663902
-0.22870000000000001,-88.17895532058775
-0.22970000000000013,-88.15066109459043
-0.23070000000000002,-88.47604469355939
-0.23170000000000013,-89.0985176655
-0.23270000000000002,-89.31072436047977
-0.23370000000000013,-89.53707816845818
-0.23470000000000002,-90.11710980140283
-0.23570000000000013,-90.34346360938125
-0.23670000000000002,-90.37175783537855
-0.2376999999999999,-90.8669067903313
-0.23870000000000002,-91.29132018029082
-0.2396999999999999,-91.26302595429351
-0.24070000000000003,-91.64499800525708
-0.24169999999999991,-92.28161809019635
-0.24270000000000003,-92.35235365518959
-0.24369999999999992,-92.42308922018285
-0.24470000000000003,-92.98897374012887
-0.24569999999999992,-93.24362177410455
-0.24670000000000003,-93.28606311310051
-0.24769999999999992,-93.80950629405058
-0.24870000000000003,-94.13488989301955
-0.24969999999999992,-94.05000721502763
-0.25070000000000003,-94.38953792699526
-0.2516999999999999,-94.99786378593721
-0.25270000000000004,-95.05445223793181
-0.2536999999999999,-95.05445223793181
-0.25470000000000004,-95.43642428889537
-0.2556999999999999,-95.56374830588322
-0.25670000000000004,-95.64863098387512
-0.25769999999999993,-96.27110395581576
-0.25870000000000004,-96.6813702327766
-0.25969999999999993,-96.5116048767928
-0.26070000000000004,-96.73795868477121
-0.26169999999999993,-97.21896052672531
-0.26270000000000004,-97.27554897871993
-0.26369999999999993,-97.30384320471723
-0.26470000000000005,-97.69996236867944
-0.26569999999999994,-97.84143349866595
-0.26670000000000005,-97.94046328965649
-0.26769999999999994,-98.37902379261465
-0.26870000000000005,-98.5629362615971
-0.26969999999999994,-98.52049492260115
-0.27070000000000005,-99.05808521654988
-0.27169999999999994,-99.66641107549184
-0.27270000000000005,-99.69470530148914
-0.27369999999999994,-99.83617643147564
-0.27470000000000006,-100.387913838423
-0.27569999999999995,-100.43035517741896
-0.27670000000000006,-100.10497157844999
-0.27769999999999995,-100.45864940341626
-0.27870000000000006,-100.92550413237171
-0.27969999999999995,-100.76988588938657
-0.28070000000000006,-100.79818011538387
-0.28169999999999995,-101.19429927934607
-0.28270000000000006,-101.23674061834203
-0.28369999999999995,-101.3640646353299
-0.28470000000000006,-101.87336070328129
-0.28569999999999995,-102.02897894626645
-0.28670000000000007,-101.74603668629344
-0.28769999999999996,-102.09971451125969
-0.28870000000000007,-102.4958336752219
-0.28969999999999996,-102.2977740932408
-0.29070000000000007,-102.36850965823406
-0.29169999999999996,-102.73633459619896
-0.29270000000000007,-102.86365861318681
-0.29369999999999996,-103.01927685617197
-0.2947000000000001,-103.24563066415038
-0.29569999999999996,-102.90609995218277
-0.2967000000000001,-102.5241279012192
-0.29769999999999996,-103.00512974317333
-0.2987000000000001,-103.40124890713554
-0.29969999999999997,-103.18904221215577
-0.3007000000000001,-103.21733643815308
-0.30169999999999997,-103.47198447212878
-0.3027000000000001,-103.47198447212878
-0.30369999999999997,-103.64174982811258
-0.3047000000000001,-104.06616321807209
-0.30569999999999997,-104.02372187907615
-0.3067000000000001,-103.78322095809908
-0.3077,-104.32081125204782
-0.3087000000000001,-104.67448907701407
-0.3097,-104.2359285740559
-0.3107000000000001,-104.26422280005319
-0.3117,-104.61790062501946
-0.3127000000000001,-104.56131217302486
-0.3137,-104.5471650600262
-0.3147000000000001,-104.74522464200732
-0.3157,-104.68863619001272
-0.3167000000000001,-104.5471650600262
-0.3177,-104.87254865899517
-0.3187000000000001,-105.11304957997223
-0.3197,-104.95743133698709
-0.3207000000000001,-105.16963803196683
-0.3217,-105.50916874393444
-0.3227000000000001,-105.36769761394793
-0.3237,-105.38184472694657
-0.3247000000000001,-105.7213754389142
-0.3257,-105.63649276092228
-0.3267000000000001,-105.4384331789412
-0.3277,-105.73552255191284
-0.3287000000000001,-105.83455234290338
-0.3297,-105.48087451793714
-0.3307000000000001,-105.56575719592904
-0.3317,-105.86284656890071
-0.3327000000000001,-105.56575719592904
-0.3337,-105.59405142192634
-0.3347000000000001,-106.2589657328629
-0.3357,-106.51361376683862
-0.3367000000000001,-106.41458397584806
-0.3377,-106.73996757481702
-0.3387000000000001,-106.99461560879273
-0.3397,-106.82485025280893
-0.3407000000000001,-107.07949828678463
-0.3417,-107.50391167674414
-0.3427000000000001,-107.33414632076033
-0.3437,-107.24926364276843
-0.3447000000000001,-107.7161183717239
-0.3457,-107.84344238871174
-0.3467000000000001,-107.74441259772121
-0.3477,-108.18297310067936
-0.3487000000000001,-108.48006247365102
-0.3497,-108.39517979565912
-0.3507000000000001,-108.77715184662266
-0.3517,-109.32888925357003
-0.3527000000000001,-109.3147421405714
-0.3537,-109.34303636656868
-0.3547000000000001,-109.86647954751875
-0.3557,-109.937215112512
-0.35670000000000013,-109.90892088651471
-0.3577,-110.40406984146746
-0.35870000000000013,-110.81433611842832
-0.3597,-110.7577476664337
-0.36070000000000013,-110.99824858741079
-0.3617,-111.43680909036894
-0.3626999999999999,-111.3377792993784
-0.3637,-111.49339754236355
-0.3646999999999999,-112.24319453129202
-0.3657,-112.63931369525422
-0.3666999999999999,-112.66760792125153
-0.3677,-113.10616842420968
-0.3686999999999999,-113.55887604016648
-0.36970000000000003,-113.67205294415571
-0.3706999999999999,-114.11061344711386
-0.37170000000000003,-114.73308641905447
-0.3726999999999999,-114.83211621004502
-0.37370000000000003,-115.10091135701937
-0.3746999999999999,-115.82241411995055
-0.37570000000000003,-116.17609194491682
-0.3766999999999999,-116.27512173590738
-0.37770000000000004,-116.89759470784797
-0.3786999999999999,-117.44933211479534
-0.37970000000000004,-117.8030099397616
-0.3806999999999999,-118.46792425069816
-0.38170000000000004,-118.94892609265229
-0.38269999999999993,-119.10454433563743
-0.38370000000000004,-119.69872308158075
-0.38469999999999993,-120.57584408749706
-0.38570000000000004,-120.80219789547547
-0.38669999999999993,-119.2601625786226
-0.38570000000000004,-116.88344759484934
-0.38469999999999993,-114.93114600103557
-0.38370000000000004,-112.72419637324612
-0.38269999999999993,-110.6162765364472
-0.38170000000000004,-108.57909226464157
-0.3806999999999999,-106.4004368628494
-0.37970000000000004,-104.61790062501946
-0.3786999999999999,-103.24563066415038
-0.37770000000000004,-101.46309442632044
-0.3766999999999999,-99.46835149351072
-0.37570000000000003,-98.09608153264163
-0.3746999999999999,-96.73795868477121
-0.37370000000000003,-94.8280984299534
-0.3726999999999999,-93.21532754810727
-0.37170000000000003,-92.01282294322199
-0.3706999999999999,-90.47078762636909
-0.36970000000000003,-89.05607632650405
-0.3686999999999999,-87.69795347863361
-0.3677,-86.24080083977263
-0.3666999999999999,-84.6846184099211
-0.3657,-83.49626091803447
-0.3646999999999999,-82.09569673116808
-0.3637,-80.44048451032599
-0.3626999999999999,-79.25212701843935
-0.3617,-78.17694643054192
-0.36070000000000013,-76.53588132269847
-0.3597,-75.17775847482805
-0.35870000000000013,-74.25819612991579
-0.3577,-73.01325018603454
-0.35670000000000013,-71.58439177317086
-0.3557,-70.65068231525994
-0.3547000000000001,-69.6603844053544
-0.3537,-68.20323176649342
-0.3527000000000001,-66.94413870961354
-0.3517,-66.02457636470128
-0.3507000000000001,-64.79377753381868
-0.3497,-63.56297870293609
-0.3487000000000001,-62.74244614901438
-0.3477,-61.5965299961237
-0.3467000000000001,-60.43646673023436
-0.3457,-59.7149639673032
-0.3447000000000001,-58.69637183140037
-0.3437,-57.28166053153533
-0.3427000000000001,-56.23477416963521
-0.3417,-55.49912429370539
-0.3407000000000001,-54.31076680181876
-0.3397,-53.17899776192673
-0.3387000000000001,-52.471642111994214
-0.3377,-51.52378554108463
-0.3367000000000001,-50.37786938819396
-0.3357,-49.58563106026953
-0.3347000000000001,-48.69436294135456
-0.3337,-47.449416997473335
-0.3327000000000001,-46.60059021755431
-0.3317,-45.963970132615046
-0.3307000000000001,-44.84634820572166
-0.3297,-43.85605029581614
-0.3287000000000001,-43.23357732387552
-0.3277,-42.2715736399673
-0.3267000000000001,-41.06906903508202
-0.3257,-40.37586049814815
-0.3247000000000001,-39.654357735216976
-0.3237,-38.57917714731955
-0.3227000000000001,-37.78693881939513
-0.3217,-37.136171621457216
-0.3207000000000001,-36.07513814655844
-0.3197,-35.14142868864751
-0.3187000000000001,-34.5755441687015
-0.3177,-33.698423162785176
-0.3167000000000001,-32.67983102688235
-0.3157,-32.12809361993498
-0.3147000000000001,-31.449032195999767
-0.3137,-30.359704495103685
-0.3127000000000001,-29.66649595816982
-0.3117,-29.18549411621571
-0.3107000000000001,-28.166901980312883
-0.3097,-27.261486748399253
-0.3087000000000001,-26.837073358439746
-0.3077,-26.044835030515326
-0.3067000000000001,-25.054537120609798
-0.30569999999999997,-24.488652600663784
-0.3047000000000001,-23.852032515724517
-0.30369999999999997,-22.87588171881764
-0.3027000000000001,-22.239261633878378
-0.30169999999999997,-21.800701130920213
-0.3007000000000001,-20.85284456001064
-0.29969999999999997,-20.046459119087572
-0.2987000000000001,-19.721075520118614
-0.29769999999999996,-18.985425644188794
-0.2967000000000001,-18.08001041227517
-0.29569999999999996,-17.627302796318357
-0.2947000000000001,-17.118006728366943
-0.29369999999999996,-16.19844438345467
-0.29270000000000007,-15.632559863508657
-0.29169999999999996,-15.250587812545096
-0.29070000000000007,-14.359319693630123
-0.28969999999999996,-13.616596261200979
-0.28870000000000007,-13.296871507431481
-0.28769999999999996,-12.610736526996936
-0.28670000000000007,-11.73220080978075
-0.28569999999999995,-11.334666934518673
-0.28470000000000006,-10.82820028916699
-0.28369999999999995,-9.928443902452829
-0.28270000000000006,-9.421977257101144
-0.28169999999999995,-9.078202411233942
-0.28070000000000006,-8.25766985731222
-0.27969999999999995,-7.548899496079835
-0.27870000000000006,-7.28576319430494
-0.27769999999999995,-6.646313686765942
-0.27670000000000006,-5.828610555443951
-0.27569999999999995,-5.486250420876612
-0.27470000000000006,-5.066081164816696
-0.27369999999999994,-4.193204292799969
-0.27270000000000005,-3.7249348525446417
-0.27169999999999994,-3.4434073038714996
-0.27070000000000005,-2.69361031494303
-0.26969999999999994,-2.0357695605057877
-0.26870000000000005,-1.8179040203265722
-0.26769999999999994,-1.207739036694782
-0.26670000000000005,-0.4121054016506852
-0.26569999999999994,-0.12474924242209892
