Apr. 22, 2025   07:41:15
Cyclic Voltammetry
File: c:/users/guazh/data/banditlqround7_x0exp590_r20/2025-04-16-exp1154\exp1154-2025-04-22t07_36_19-arkoh\exp1154_cv_50mvs_efin_-1400mv.bin
Data Source:  Experiment
Instrument Model:  CHI760E
Header: CV ran at 50 mVs
Note: 

Init E (V) = -1
High E (V) = -1
Low E (V) = -1.4
Final E (V) = -1
Init P/N = N
Scan Rate (V/s) = 0.05
Segment = 7
Sample Interval (V) = 0.001
Quiet Time (sec) = 60
Sensitivity (A/V) = 0.001
Comp R (ohm) = 1.3

Results:

Channel 1:
Segment 1:

Segment 2:

Segment 3:

Segment 4:

Segment 5:

Segment 6:

Segment 7:

Potential/V, Current/A

-1.000, 9.755e-7
-1.001, 1.255e-6
-1.002, 1.357e-6
-1.003, 1.433e-6
-1.004, 1.560e-6
-1.005, 1.669e-6
-1.006, 1.739e-6
-1.007, 1.755e-6
-1.008, 1.844e-6
-1.009, 1.880e-6
-1.010, 2.006e-6
-1.011, 2.036e-6
-1.012, 2.064e-6
-1.013, 2.115e-6
-1.014, 2.214e-6
-1.015, 2.315e-6
-1.016, 2.290e-6
-1.017, 2.339e-6
-1.018, 2.388e-6
-1.019, 2.469e-6
-1.020, 2.558e-6
-1.021, 2.587e-6
-1.022, 2.557e-6
-1.023, 2.671e-6
-1.024, 2.752e-6
-1.025, 2.820e-6
-1.026, 2.870e-6
-1.027, 2.863e-6
-1.028, 2.939e-6
-1.029, 2.982e-6
-1.030, 3.094e-6
-1.031, 3.153e-6
-1.032, 3.142e-6
-1.033, 3.211e-6
-1.034, 3.296e-6
-1.035, 3.398e-6
-1.036, 3.416e-6
-1.037, 3.453e-6
-1.038, 3.540e-6
-1.039, 3.618e-6
-1.040, 3.711e-6
-1.041, 3.758e-6
-1.042, 3.783e-6
-1.043, 3.906e-6
-1.044, 3.966e-6
-1.045, 4.087e-6
-1.046, 4.120e-6
-1.047, 4.170e-6
-1.048, 4.251e-6
-1.049, 4.349e-6
-1.050, 4.471e-6
-1.051, 4.532e-6
-1.052, 4.569e-6
-1.053, 4.673e-6
-1.054, 4.777e-6
-1.055, 4.893e-6
-1.056, 4.986e-6
-1.057, 5.031e-6
-1.058, 5.109e-6
-1.059, 5.271e-6
-1.060, 5.368e-6
-1.061, 5.450e-6
-1.062, 5.499e-6
-1.063, 5.636e-6
-1.064, 5.743e-6
-1.065, 5.885e-6
-1.066, 5.985e-6
-1.067, 6.006e-6
-1.068, 6.179e-6
-1.069, 6.296e-6
-1.070, 6.454e-6
-1.071, 6.544e-6
-1.072, 6.626e-6
-1.073, 6.735e-6
-1.074, 6.915e-6
-1.075, 7.055e-6
-1.076, 7.174e-6
-1.077, 7.285e-6
-1.078, 7.404e-6
-1.079, 7.572e-6
-1.080, 7.744e-6
-1.081, 7.827e-6
-1.082, 7.973e-6
-1.083, 8.082e-6
-1.084, 8.285e-6
-1.085, 8.453e-6
-1.086, 8.562e-6
-1.087, 8.682e-6
-1.088, 8.850e-6
-1.089, 9.059e-6
-1.090, 9.250e-6
-1.091, 9.373e-6
-1.092, 9.511e-6
-1.093, 9.667e-6
-1.094, 9.865e-6
-1.095, 1.005e-5
-1.096, 1.024e-5
-1.097, 1.037e-5
-1.098, 1.053e-5
-1.099, 1.075e-5
-1.100, 1.097e-5
-1.101, 1.110e-5
-1.102, 1.128e-5
-1.103, 1.146e-5
-1.104, 1.169e-5
-1.105, 1.192e-5
-1.106, 1.208e-5
-1.107, 1.221e-5
-1.108, 1.242e-5
-1.109, 1.267e-5
-1.110, 1.292e-5
-1.111, 1.309e-5
-1.112, 1.324e-5
-1.113, 1.345e-5
-1.114, 1.372e-5
-1.115, 1.397e-5
-1.116, 1.416e-5
-1.117, 1.436e-5
-1.118, 1.457e-5
-1.119, 1.483e-5
-1.120, 1.509e-5
-1.121, 1.529e-5
-1.122, 1.549e-5
-1.123, 1.568e-5
-1.124, 1.600e-5
-1.125, 1.625e-5
-1.126, 1.644e-5
-1.127, 1.664e-5
-1.128, 1.687e-5
-1.129, 1.721e-5
-1.130, 1.746e-5
-1.131, 1.768e-5
-1.132, 1.790e-5
-1.133, 1.813e-5
-1.134, 1.841e-5
-1.135, 1.870e-5
-1.136, 1.892e-5
-1.137, 1.912e-5
-1.138, 1.941e-5
-1.139, 1.966e-5
-1.140, 2.001e-5
-1.141, 2.024e-5
-1.142, 2.043e-5
-1.143, 2.069e-5
-1.144, 2.099e-5
-1.145, 2.129e-5
-1.146, 2.156e-5
-1.147, 2.175e-5
-1.148, 2.202e-5
-1.149, 2.234e-5
-1.150, 2.261e-5
-1.151, 2.288e-5
-1.152, 2.309e-5
-1.153, 2.334e-5
-1.154, 2.369e-5
-1.155, 2.399e-5
-1.156, 2.424e-5
-1.157, 2.445e-5
-1.158, 2.470e-5
-1.159, 2.504e-5
-1.160, 2.535e-5
-1.161, 2.558e-5
-1.162, 2.579e-5
-1.163, 2.605e-5
-1.164, 2.639e-5
-1.165, 2.670e-5
-1.166, 2.695e-5
-1.167, 2.717e-5
-1.168, 2.742e-5
-1.169, 2.776e-5
-1.170, 2.805e-5
-1.171, 2.829e-5
-1.172, 2.850e-5
-1.173, 2.875e-5
-1.174, 2.906e-5
-1.175, 2.937e-5
-1.176, 2.957e-5
-1.177, 2.980e-5
-1.178, 3.008e-5
-1.179, 3.038e-5
-1.180, 3.069e-5
-1.181, 3.090e-5
-1.182, 3.112e-5
-1.183, 3.135e-5
-1.184, 3.164e-5
-1.185, 3.194e-5
-1.186, 3.216e-5
-1.187, 3.238e-5
-1.188, 3.261e-5
-1.189, 3.293e-5
-1.190, 3.317e-5
-1.191, 3.343e-5
-1.192, 3.360e-5
-1.193, 3.384e-5
-1.194, 3.413e-5
-1.195, 3.439e-5
-1.196, 3.463e-5
-1.197, 3.480e-5
-1.198, 3.504e-5
-1.199, 3.532e-5
-1.200, 3.560e-5
-1.201, 3.579e-5
-1.202, 3.599e-5
-1.203, 3.620e-5
-1.204, 3.652e-5
-1.205, 3.678e-5
-1.206, 3.696e-5
-1.207, 3.716e-5
-1.208, 3.737e-5
-1.209, 3.766e-5
-1.210, 3.790e-5
-1.211, 3.813e-5
-1.212, 3.828e-5
-1.213, 3.848e-5
-1.214, 3.875e-5
-1.215, 3.902e-5
-1.216, 3.924e-5
-1.217, 3.941e-5
-1.218, 3.959e-5
-1.219, 3.990e-5
-1.220, 4.011e-5
-1.221, 4.034e-5
-1.222, 4.051e-5
-1.223, 4.072e-5
-1.224, 4.098e-5
-1.225, 4.124e-5
-1.226, 4.145e-5
-1.227, 4.162e-5
-1.228, 4.181e-5
-1.229, 4.213e-5
-1.230, 4.238e-5
-1.231, 4.259e-5
-1.232, 4.276e-5
-1.233, 4.296e-5
-1.234, 4.324e-5
-1.235, 4.349e-5
-1.236, 4.372e-5
-1.237, 4.388e-5
-1.238, 4.406e-5
-1.239, 4.437e-5
-1.240, 4.459e-5
-1.241, 4.484e-5
-1.242, 4.501e-5
-1.243, 4.521e-5
-1.244, 4.552e-5
-1.245, 4.575e-5
-1.246, 4.598e-5
-1.247, 4.616e-5
-1.248, 4.636e-5
-1.249, 4.670e-5
-1.250, 4.700e-5
-1.251, 4.720e-5
-1.252, 4.738e-5
-1.253, 4.761e-5
-1.254, 4.791e-5
-1.255, 4.817e-5
-1.256, 4.843e-5
-1.257, 4.862e-5
-1.258, 4.887e-5
-1.259, 4.918e-5
-1.260, 4.945e-5
-1.261, 4.971e-5
-1.262, 4.993e-5
-1.263, 5.020e-5
-1.264, 5.051e-5
-1.265, 5.081e-5
-1.266, 5.109e-5
-1.267, 5.135e-5
-1.268, 5.159e-5
-1.269, 5.193e-5
-1.270, 5.228e-5
-1.271, 5.256e-5
-1.272, 5.278e-5
-1.273, 5.310e-5
-1.274, 5.348e-5
-1.275, 5.383e-5
-1.276, 5.416e-5
-1.277, 5.446e-5
-1.278, 5.477e-5
-1.279, 5.519e-5
-1.280, 5.562e-5
-1.281, 5.594e-5
-1.282, 5.629e-5
-1.283, 5.663e-5
-1.284, 5.708e-5
-1.285, 5.754e-5
-1.286, 5.789e-5
-1.287, 5.832e-5
-1.288, 5.872e-5
-1.289, 5.925e-5
-1.290, 5.977e-5
-1.291, 6.018e-5
-1.292, 6.064e-5
-1.293, 6.116e-5
-1.294, 6.170e-5
-1.295, 6.231e-5
-1.296, 6.280e-5
-1.297, 6.334e-5
-1.298, 6.390e-5
-1.299, 6.456e-5
-1.300, 6.518e-5
-1.301, 6.581e-5
-1.302, 6.643e-5
-1.303, 6.706e-5
-1.304, 6.783e-5
-1.305, 6.856e-5
-1.306, 6.929e-5
-1.307, 6.999e-5
-1.308, 7.072e-5
-1.309, 7.157e-5
-1.310, 7.243e-5
-1.311, 7.323e-5
-1.312, 7.406e-5
-1.313, 7.491e-5
-1.314, 7.584e-5
-1.315, 7.684e-5
-1.316, 7.779e-5
-1.317, 7.867e-5
-1.318, 7.967e-5
-1.319, 8.075e-5
-1.320, 8.182e-5
-1.321, 8.289e-5
-1.322, 8.392e-5
-1.323, 8.500e-5
-1.324, 8.619e-5
-1.325, 8.739e-5
-1.326, 8.858e-5
-1.327, 8.974e-5
-1.328, 9.089e-5
-1.329, 9.224e-5
-1.330, 9.362e-5
-1.331, 9.487e-5
-1.332, 9.617e-5
-1.333, 9.746e-5
-1.334, 9.890e-5
-1.335, 1.004e-4
-1.336, 1.018e-4
-1.337, 1.032e-4
-1.338, 1.047e-4
-1.339, 1.062e-4
-1.340, 1.078e-4
-1.341, 1.093e-4
-1.342, 1.109e-4
-1.343, 1.125e-4
-1.344, 1.143e-4
-1.345, 1.160e-4
-1.346, 1.177e-4
-1.347, 1.194e-4
-1.348, 1.211e-4
-1.349, 1.230e-4
-1.350, 1.249e-4
-1.351, 1.268e-4
-1.352, 1.286e-4
-1.353, 1.305e-4
-1.354, 1.326e-4
-1.355, 1.347e-4
-1.356, 1.368e-4
-1.357, 1.388e-4
-1.358, 1.409e-4
-1.359, 1.432e-4
-1.360, 1.455e-4
-1.361, 1.478e-4
-1.362, 1.501e-4
-1.363, 1.524e-4
-1.364, 1.549e-4
-1.365, 1.574e-4
-1.366, 1.599e-4
-1.367, 1.624e-4
-1.368, 1.650e-4
-1.369, 1.677e-4
-1.370, 1.705e-4
-1.371, 1.732e-4
-1.372, 1.759e-4
-1.373, 1.788e-4
-1.374, 1.817e-4
-1.375, 1.847e-4
-1.376, 1.877e-4
-1.377, 1.907e-4
-1.378, 1.938e-4
-1.379, 1.970e-4
-1.380, 2.004e-4
-1.381, 2.037e-4
-1.382, 2.070e-4
-1.383, 2.104e-4
-1.384, 2.139e-4
-1.385, 2.175e-4
-1.386, 2.212e-4
-1.387, 2.248e-4
-1.388, 2.286e-4
-1.389, 2.324e-4
-1.390, 2.363e-4
-1.391, 2.403e-4
-1.392, 2.443e-4
-1.393, 2.484e-4
-1.394, 2.526e-4
-1.395, 2.569e-4
-1.396, 2.613e-4
-1.397, 2.656e-4
-1.398, 2.700e-4
-1.399, 2.746e-4
-1.400, 2.737e-4
-1.399, 2.686e-4
-1.398, 2.637e-4
-1.397, 2.589e-4
-1.396, 2.542e-4
-1.395, 2.494e-4
-1.394, 2.448e-4
-1.393, 2.400e-4
-1.392, 2.355e-4
-1.391, 2.309e-4
-1.390, 2.266e-4
-1.389, 2.222e-4
-1.388, 2.178e-4
-1.387, 2.134e-4
-1.386, 2.093e-4
-1.385, 2.052e-4
-1.384, 2.012e-4
-1.383, 1.971e-4
-1.382, 1.931e-4
-1.381, 1.893e-4
-1.380, 1.855e-4
-1.379, 1.818e-4
-1.378, 1.781e-4
-1.377, 1.743e-4
-1.376, 1.709e-4
-1.375, 1.674e-4
-1.374, 1.639e-4
-1.373, 1.605e-4
-1.372, 1.571e-4
-1.371, 1.539e-4
-1.370, 1.507e-4
-1.369, 1.475e-4
-1.368, 1.444e-4
-1.367, 1.413e-4
-1.366, 1.383e-4
-1.365, 1.354e-4
-1.364, 1.325e-4
-1.363, 1.297e-4
-1.362, 1.269e-4
-1.361, 1.242e-4
-1.360, 1.216e-4
-1.359, 1.190e-4
-1.358, 1.163e-4
-1.357, 1.138e-4
-1.356, 1.113e-4
-1.355, 1.089e-4
-1.354, 1.066e-4
-1.353, 1.041e-4
-1.352, 1.019e-4
-1.351, 9.963e-5
-1.350, 9.744e-5
-1.349, 9.534e-5
-1.348, 9.310e-5
-1.347, 9.100e-5
-1.346, 8.897e-5
-1.345, 8.700e-5
-1.344, 8.505e-5
-1.343, 8.302e-5
-1.342, 8.108e-5
-1.341, 7.931e-5
-1.340, 7.750e-5
-1.339, 7.575e-5
-1.338, 7.389e-5
-1.337, 7.218e-5
-1.336, 7.056e-5
-1.335, 6.897e-5
-1.334, 6.734e-5
-1.333, 6.570e-5
-1.332, 6.413e-5
-1.331, 6.265e-5
-1.330, 6.126e-5
-1.329, 5.984e-5
-1.328, 5.835e-5
-1.327, 5.691e-5
-1.326, 5.557e-5
-1.325, 5.434e-5
-1.324, 5.305e-5
-1.323, 5.170e-5
-1.322, 5.044e-5
-1.321, 4.924e-5
-1.320, 4.813e-5
-1.319, 4.694e-5
-1.318, 4.575e-5
-1.317, 4.460e-5
-1.316, 4.355e-5
-1.315, 4.256e-5
-1.314, 4.154e-5
-1.313, 4.043e-5
-1.312, 3.943e-5
-1.311, 3.847e-5
-1.310, 3.760e-5
-1.309, 3.662e-5
-1.308, 3.572e-5
-1.307, 3.475e-5
-1.306, 3.392e-5
-1.305, 3.311e-5
-1.304, 3.233e-5
-1.303, 3.144e-5
-1.302, 3.064e-5
-1.301, 2.986e-5
-1.300, 2.919e-5
-1.299, 2.844e-5
-1.298, 2.766e-5
-1.297, 2.690e-5
-1.296, 2.627e-5
-1.295, 2.567e-5
-1.294, 2.501e-5
-1.293, 2.428e-5
-1.292, 2.362e-5
-1.291, 2.304e-5
-1.290, 2.256e-5
-1.289, 2.194e-5
-1.288, 2.132e-5
-1.287, 2.071e-5
-1.286, 2.020e-5
-1.285, 1.977e-5
-1.284, 1.924e-5
-1.283, 1.865e-5
-1.282, 1.813e-5
-1.281, 1.767e-5
-1.280, 1.727e-5
-1.279, 1.680e-5
-1.278, 1.630e-5
-1.277, 1.582e-5
-1.276, 1.542e-5
-1.275, 1.503e-5
-1.274, 1.468e-5
-1.273, 1.421e-5
-1.272, 1.378e-5
-1.271, 1.346e-5
-1.270, 1.311e-5
-1.269, 1.276e-5
-1.268, 1.235e-5
-1.267, 1.195e-5
-1.266, 1.167e-5
-1.265, 1.136e-5
-1.264, 1.109e-5
-1.263, 1.069e-5
-1.262, 1.035e-5
-1.261, 1.012e-5
-1.260, 9.885e-6
-1.259, 9.551e-6
-1.258, 9.229e-6
-1.257, 8.915e-6
-1.256, 8.701e-6
-1.255, 8.481e-6
-1.254, 8.185e-6
-1.253, 7.951e-6
-1.252, 7.646e-6
-1.251, 7.439e-6
-1.250, 7.298e-6
-1.249, 7.043e-6
-1.248, 6.788e-6
-1.247, 6.535e-6
-1.246, 6.330e-6
-1.245, 6.241e-6
-1.244, 5.988e-6
-1.243, 5.755e-6
-1.242, 5.528e-6
-1.241, 5.376e-6
-1.240, 5.267e-6
-1.239, 5.053e-6
-1.238, 4.794e-6
-1.237, 4.633e-6
-1.236, 4.502e-6
-1.235, 4.388e-6
-1.234, 4.213e-6
-1.233, 4.045e-6
-1.232, 3.841e-6
-1.231, 3.719e-6
-1.230, 3.629e-6
-1.229, 3.437e-6
-1.228, 3.282e-6
-1.227, 3.082e-6
-1.226, 2.991e-6
-1.225, 2.935e-6
-1.224, 2.801e-6
-1.223, 2.632e-6
-1.222, 2.433e-6
-1.221, 2.377e-6
-1.220, 2.339e-6
-1.219, 2.189e-6
-1.218, 2.047e-6
-1.217, 1.882e-6
-1.216, 1.820e-6
-1.215, 1.767e-6
-1.214, 1.632e-6
-1.213, 1.463e-6
-1.212, 1.365e-6
-1.211, 1.275e-6
-1.210, 1.276e-6
-1.209, 1.174e-6
-1.208, 1.015e-6
-1.207, 8.858e-7
-1.206, 8.019e-7
-1.205, 8.216e-7
-1.204, 7.180e-7
-1.203, 5.809e-7
-1.202, 4.428e-7
-1.201, 4.063e-7
-1.200, 3.944e-7
-1.199, 3.037e-7
-1.198, 1.725e-7
-1.197, 6.788e-8
-1.196, 2.545e-8
-1.195, 2.545e-8
-1.194, -6.926e-8
-1.193, -1.857e-7
-1.192, -3.297e-7
-1.191, -3.425e-7
-1.190, -3.218e-7
-1.189, -3.919e-7
-1.188, -5.182e-7
-1.187, -6.602e-7
-1.186, -6.642e-7
-1.185, -6.287e-7
-1.184, -7.066e-7
-1.183, -8.201e-7
-1.182, -9.572e-7
-1.181, -9.690e-7
-1.180, -9.167e-7
-1.179, -1.026e-6
-1.178, -1.130e-6
-1.177, -1.234e-6
-1.176, -1.257e-6
-1.175, -1.230e-6
-1.174, -1.303e-6
-1.173, -1.382e-6
-1.172, -1.482e-6
-1.171, -1.556e-6
-1.170, -1.509e-6
-1.169, -1.577e-6
-1.168, -1.638e-6
-1.167, -1.769e-6
-1.166, -1.779e-6
-1.165, -1.715e-6
-1.164, -1.793e-6
-1.163, -1.886e-6
-1.162, -1.965e-6
-1.161, -2.017e-6
-1.160, -1.966e-6
-1.159, -2.030e-6
-1.158, -2.106e-6
-1.157, -2.223e-6
-1.156, -2.216e-6
-1.155, -2.211e-6
-1.154, -2.220e-6
-1.153, -2.330e-6
-1.152, -2.412e-6
-1.151, -2.424e-6
-1.150, -2.418e-6
-1.149, -2.441e-6
-1.148, -2.543e-6
-1.147, -2.639e-6
-1.146, -2.646e-6
-1.145, -2.593e-6
-1.144, -2.646e-6
-1.143, -2.716e-6
-1.142, -2.842e-6
-1.141, -2.822e-6
-1.140, -2.798e-6
-1.139, -2.866e-6
-1.138, -2.936e-6
-1.137, -3.043e-6
-1.136, -3.030e-6
-1.135, -2.984e-6
-1.134, -3.012e-6
-1.133, -3.107e-6
-1.132, -3.213e-6
-1.131, -3.219e-6
-1.130, -3.175e-6
-1.129, -3.198e-6
-1.128, -3.297e-6
-1.127, -3.364e-6
-1.126, -3.373e-6
-1.125, -3.362e-6
-1.124, -3.379e-6
-1.123, -3.500e-6
-1.122, -3.554e-6
-1.121, -3.548e-6
-1.120, -3.494e-6
-1.119, -3.573e-6
-1.118, -3.640e-6
-1.117, -3.722e-6
-1.116, -3.722e-6
-1.115, -3.670e-6
-1.114, -3.723e-6
-1.113, -3.843e-6
-1.112, -3.891e-6
-1.111, -3.888e-6
-1.110, -3.853e-6
-1.109, -3.866e-6
-1.108, -3.996e-6
-1.107, -4.065e-6
-1.106, -4.076e-6
-1.105, -4.015e-6
-1.104, -4.031e-6
-1.103, -4.148e-6
-1.102, -4.222e-6
-1.101, -4.214e-6
-1.100, -4.175e-6
-1.099, -4.213e-6
-1.098, -4.321e-6
-1.097, -4.415e-6
-1.096, -4.375e-6
-1.095, -4.359e-6
-1.094, -4.369e-6
-1.093, -4.457e-6
-1.092, -4.537e-6
-1.091, -4.572e-6
-1.090, -4.490e-6
-1.089, -4.512e-6
-1.088, -4.622e-6
-1.087, -4.707e-6
-1.086, -4.697e-6
-1.085, -4.653e-6
-1.084, -4.653e-6
-1.083, -4.820e-6
-1.082, -4.851e-6
-1.081, -4.884e-6
-1.080, -4.831e-6
-1.079, -4.827e-6
-1.078, -4.950e-6
-1.077, -5.018e-6
-1.076, -5.026e-6
-1.075, -5.015e-6
-1.074, -4.988e-6
-1.073, -5.138e-6
-1.072, -5.177e-6
-1.071, -5.214e-6
-1.070, -5.156e-6
-1.069, -5.162e-6
-1.068, -5.278e-6
-1.067, -5.348e-6
-1.066, -5.365e-6
-1.065, -5.327e-6
-1.064, -5.294e-6
-1.063, -5.441e-6
-1.062, -5.548e-6
-1.061, -5.514e-6
-1.060, -5.498e-6
-1.059, -5.498e-6
-1.058, -5.596e-6
-1.057, -5.707e-6
-1.056, -5.695e-6
-1.055, -5.634e-6
-1.054, -5.639e-6
-1.053, -5.774e-6
-1.052, -5.863e-6
-1.051, -5.861e-6
-1.050, -5.829e-6
-1.049, -5.797e-6
-1.048, -5.927e-6
-1.047, -6.006e-6
-1.046, -6.036e-6
-1.045, -5.971e-6
-1.044, -6.000e-6
-1.043, -6.107e-6
-1.042, -6.185e-6
-1.041, -6.225e-6
-1.040, -6.163e-6
-1.039, -6.154e-6
-1.038, -6.289e-6
-1.037, -6.364e-6
-1.036, -6.409e-6
-1.035, -6.353e-6
-1.034, -6.337e-6
-1.033, -6.466e-6
-1.032, -6.533e-6
-1.031, -6.554e-6
-1.030, -6.517e-6
-1.029, -6.488e-6
-1.028, -6.658e-6
-1.027, -6.729e-6
-1.026, -6.749e-6
-1.025, -6.711e-6
-1.024, -6.726e-6
-1.023, -6.834e-6
-1.022, -6.916e-6
-1.021, -6.905e-6
-1.020, -6.895e-6
-1.019, -6.881e-6
-1.018, -7.044e-6
-1.017, -7.120e-6
-1.016, -7.115e-6
-1.015, -7.084e-6
-1.014, -7.114e-6
-1.013, -7.190e-6
-1.012, -7.316e-6
-1.011, -7.326e-6
-1.010, -7.301e-6
-1.009, -7.308e-6
-1.008, -7.395e-6
-1.007, -7.478e-6
-1.006, -7.548e-6
-1.005, -7.528e-6
-1.004, -7.504e-6
-1.003, -7.626e-6
-1.002, -7.730e-6
-1.001, -7.729e-6
-1.000, -4.801e-6
-1.001, -3.371e-6
-1.002, -2.996e-6
-1.003, -2.657e-6
-1.004, -2.313e-6
-1.005, -1.945e-6
-1.006, -1.707e-6
-1.007, -1.548e-6
-1.008, -1.447e-6
-1.009, -1.229e-6
-1.010, -9.858e-7
-1.011, -8.112e-7
-1.012, -7.362e-7
-1.013, -6.474e-7
-1.014, -5.339e-7
-1.015, -2.774e-7
-1.016, -1.531e-7
-1.017, -1.334e-7
-1.018, -4.163e-8
-1.019, 1.953e-8
-1.020, 2.011e-7
-1.021, 3.461e-7
-1.022, 3.520e-7
-1.023, 4.161e-7
-1.024, 4.990e-7
-1.025, 6.786e-7
-1.026, 7.940e-7
-1.027, 7.654e-7
-1.028, 7.792e-7
-1.029, 8.887e-7
-1.030, 9.953e-7
-1.031, 1.165e-6
-1.032, 1.102e-6
-1.033, 1.104e-6
-1.034, 1.206e-6
-1.035, 1.312e-6
-1.036, 1.460e-6
-1.037, 1.420e-6
-1.038, 1.416e-6
-1.039, 1.478e-6
-1.040, 1.626e-6
-1.041, 1.705e-6
-1.042, 1.691e-6
-1.043, 1.660e-6
-1.044, 1.738e-6
-1.045, 1.863e-6
-1.046, 1.969e-6
-1.047, 1.931e-6
-1.048, 1.930e-6
-1.049, 1.955e-6
-1.050, 2.122e-6
-1.051, 2.205e-6
-1.052, 2.150e-6
-1.053, 2.134e-6
-1.054, 2.197e-6
-1.055, 2.323e-6
-1.056, 2.385e-6
-1.057, 2.339e-6
-1.058, 2.340e-6
-1.059, 2.390e-6
-1.060, 2.497e-6
-1.061, 2.584e-6
-1.062, 2.542e-6
-1.063, 2.525e-6
-1.064, 2.550e-6
-1.065, 2.674e-6
-1.066, 2.801e-6
-1.067, 2.723e-6
-1.068, 2.694e-6
-1.069, 2.745e-6
-1.070, 2.890e-6
-1.071, 2.947e-6
-1.072, 2.858e-6
-1.073, 2.862e-6
-1.074, 2.907e-6
-1.075, 3.050e-6
-1.076, 3.122e-6
-1.077, 3.086e-6
-1.078, 3.048e-6
-1.079, 3.089e-6
-1.080, 3.184e-6
-1.081, 3.260e-6
-1.082, 3.204e-6
-1.083, 3.182e-6
-1.084, 3.231e-6
-1.085, 3.357e-6
-1.086, 3.426e-6
-1.087, 3.385e-6
-1.088, 3.341e-6
-1.089, 3.382e-6
-1.090, 3.518e-6
-1.091, 3.566e-6
-1.092, 3.508e-6
-1.093, 3.498e-6
-1.094, 3.544e-6
-1.095, 3.643e-6
-1.096, 3.714e-6
-1.097, 3.673e-6
-1.098, 3.624e-6
-1.099, 3.680e-6
-1.100, 3.780e-6
-1.101, 3.880e-6
-1.102, 3.812e-6
-1.103, 3.796e-6
-1.104, 3.829e-6
-1.105, 3.922e-6
-1.106, 4.038e-6
-1.107, 3.932e-6
-1.108, 3.943e-6
-1.109, 3.988e-6
-1.110, 4.082e-6
-1.111, 4.169e-6
-1.112, 4.094e-6
-1.113, 4.060e-6
-1.114, 4.150e-6
-1.115, 4.212e-6
-1.116, 4.304e-6
-1.117, 4.264e-6
-1.118, 4.215e-6
-1.119, 4.265e-6
-1.120, 4.374e-6
-1.121, 4.428e-6
-1.122, 4.410e-6
-1.123, 4.397e-6
-1.124, 4.430e-6
-1.125, 4.516e-6
-1.126, 4.585e-6
-1.127, 4.577e-6
-1.128, 4.516e-6
-1.129, 4.574e-6
-1.130, 4.679e-6
-1.131, 4.744e-6
-1.132, 4.730e-6
-1.133, 4.666e-6
-1.134, 4.717e-6
-1.135, 4.806e-6
-1.136, 4.894e-6
-1.137, 4.866e-6
-1.138, 4.835e-6
-1.139, 4.872e-6
-1.140, 4.997e-6
-1.141, 5.058e-6
-1.142, 5.033e-6
-1.143, 4.997e-6
-1.144, 5.040e-6
-1.145, 5.161e-6
-1.146, 5.242e-6
-1.147, 5.188e-6
-1.148, 5.189e-6
-1.149, 5.209e-6
-1.150, 5.317e-6
-1.151, 5.402e-6
-1.152, 5.378e-6
-1.153, 5.362e-6
-1.154, 5.412e-6
-1.155, 5.512e-6
-1.156, 5.624e-6
-1.157, 5.566e-6
-1.158, 5.506e-6
-1.159, 5.571e-6
-1.160, 5.711e-6
-1.161, 5.763e-6
-1.162, 5.748e-6
-1.163, 5.728e-6
-1.164, 5.748e-6
-1.165, 5.890e-6
-1.166, 5.966e-6
-1.167, 5.954e-6
-1.168, 5.933e-6
-1.169, 5.941e-6
-1.170, 6.106e-6
-1.171, 6.149e-6
-1.172, 6.145e-6
-1.173, 6.128e-6
-1.174, 6.187e-6
-1.175, 6.305e-6
-1.176, 6.386e-6
-1.177, 6.351e-6
-1.178, 6.383e-6
-1.179, 6.375e-6
-1.180, 6.494e-6
-1.181, 6.627e-6
-1.182, 6.603e-6
-1.183, 6.581e-6
-1.184, 6.642e-6
-1.185, 6.753e-6
-1.186, 6.884e-6
-1.187, 6.846e-6
-1.188, 6.833e-6
-1.189, 6.893e-6
-1.190, 7.031e-6
-1.191, 7.129e-6
-1.192, 7.112e-6
-1.193, 7.133e-6
-1.194, 7.164e-6
-1.195, 7.318e-6
-1.196, 7.381e-6
-1.197, 7.430e-6
-1.198, 7.376e-6
-1.199, 7.458e-6
-1.200, 7.589e-6
-1.201, 7.707e-6
-1.202, 7.712e-6
-1.203, 7.669e-6
-1.204, 7.742e-6
-1.205, 7.888e-6
-1.206, 8.006e-6
-1.207, 8.020e-6
-1.208, 8.005e-6
-1.209, 8.081e-6
-1.210, 8.272e-6
-1.211, 8.344e-6
-1.212, 8.379e-6
-1.213, 8.367e-6
-1.214, 8.405e-6
-1.215, 8.628e-6
-1.216, 8.697e-6
-1.217, 8.724e-6
-1.218, 8.766e-6
-1.219, 8.819e-6
-1.220, 9.002e-6
-1.221, 9.121e-6
-1.222, 9.138e-6
-1.223, 9.182e-6
-1.224, 9.240e-6
-1.225, 9.407e-6
-1.226, 9.542e-6
-1.227, 9.564e-6
-1.228, 9.638e-6
-1.229, 9.731e-6
-1.230, 9.862e-6
-1.231, 1.004e-5
-1.232, 1.004e-5
-1.233, 1.007e-5
-1.234, 1.016e-5
-1.235, 1.038e-5
-1.236, 1.050e-5
-1.237, 1.057e-5
-1.238, 1.058e-5
-1.239, 1.070e-5
-1.240, 1.090e-5
-1.241, 1.106e-5
-1.242, 1.114e-5
-1.243, 1.118e-5
-1.244, 1.130e-5
-1.245, 1.149e-5
-1.246, 1.166e-5
-1.247, 1.173e-5
-1.248, 1.182e-5
-1.249, 1.193e-5
-1.250, 1.212e-5
-1.251, 1.234e-5
-1.252, 1.243e-5
-1.253, 1.247e-5
-1.254, 1.263e-5
-1.255, 1.287e-5
-1.256, 1.307e-5
-1.257, 1.314e-5
-1.258, 1.325e-5
-1.259, 1.338e-5
-1.260, 1.366e-5
-1.261, 1.388e-5
-1.262, 1.398e-5
-1.263, 1.410e-5
-1.264, 1.425e-5
-1.265, 1.450e-5
-1.266, 1.479e-5
-1.267, 1.488e-5
-1.268, 1.503e-5
-1.269, 1.526e-5
-1.270, 1.551e-5
-1.271, 1.579e-5
-1.272, 1.593e-5
-1.273, 1.613e-5
-1.274, 1.634e-5
-1.275, 1.665e-5
-1.276, 1.691e-5
-1.277, 1.712e-5
-1.278, 1.729e-5
-1.279, 1.757e-5
-1.280, 1.791e-5
-1.281, 1.826e-5
-1.282, 1.850e-5
-1.283, 1.870e-5
-1.284, 1.903e-5
-1.285, 1.938e-5
-1.286, 1.977e-5
-1.287, 2.005e-5
-1.288, 2.028e-5
-1.289, 2.065e-5
-1.290, 2.109e-5
-1.291, 2.151e-5
-1.292, 2.185e-5
-1.293, 2.219e-5
-1.294, 2.258e-5
-1.295, 2.309e-5
-1.296, 2.355e-5
-1.297, 2.396e-5
-1.298, 2.439e-5
-1.299, 2.487e-5
-1.300, 2.542e-5
-1.301, 2.600e-5
-1.302, 2.649e-5
-1.303, 2.695e-5
-1.304, 2.754e-5
-1.305, 2.814e-5
-1.306, 2.882e-5
-1.307, 2.939e-5
-1.308, 2.997e-5
-1.309, 3.066e-5
-1.310, 3.137e-5
-1.311, 3.217e-5
-1.312, 3.283e-5
-1.313, 3.351e-5
-1.314, 3.432e-5
-1.315, 3.513e-5
-1.316, 3.603e-5
-1.317, 3.683e-5
-1.318, 3.763e-5
-1.319, 3.856e-5
-1.320, 3.948e-5
-1.321, 4.052e-5
-1.322, 4.144e-5
-1.323, 4.237e-5
-1.324, 4.343e-5
-1.325, 4.449e-5
-1.326, 4.565e-5
-1.327, 4.675e-5
-1.328, 4.777e-5
-1.329, 4.900e-5
-1.330, 5.023e-5
-1.331, 5.148e-5
-1.332, 5.270e-5
-1.333, 5.388e-5
-1.334, 5.524e-5
-1.335, 5.663e-5
-1.336, 5.802e-5
-1.337, 5.938e-5
-1.338, 6.077e-5
-1.339, 6.218e-5
-1.340, 6.378e-5
-1.341, 6.535e-5
-1.342, 6.686e-5
-1.343, 6.839e-5
-1.344, 7.000e-5
-1.345, 7.169e-5
-1.346, 7.346e-5
-1.347, 7.513e-5
-1.348, 7.682e-5
-1.349, 7.864e-5
-1.350, 8.056e-5
-1.351, 8.251e-5
-1.352, 8.439e-5
-1.353, 8.628e-5
-1.354, 8.828e-5
-1.355, 9.037e-5
-1.356, 9.254e-5
-1.357, 9.461e-5
-1.358, 9.671e-5
-1.359, 9.894e-5
-1.360, 1.012e-4
-1.361, 1.036e-4
-1.362, 1.059e-4
-1.363, 1.083e-4
-1.364, 1.107e-4
-1.365, 1.132e-4
-1.366, 1.158e-4
-1.367, 1.183e-4
-1.368, 1.208e-4
-1.369, 1.236e-4
-1.370, 1.263e-4
-1.371, 1.292e-4
-1.372, 1.320e-4
-1.373, 1.349e-4
-1.374, 1.378e-4
-1.375, 1.409e-4
-1.376, 1.440e-4
-1.377, 1.470e-4
-1.378, 1.502e-4
-1.379, 1.534e-4
-1.380, 1.567e-4
-1.381, 1.602e-4
-1.382, 1.637e-4
-1.383, 1.671e-4
-1.384, 1.707e-4
-1.385, 1.744e-4
-1.386, 1.782e-4
-1.387, 1.819e-4
-1.388, 1.856e-4
-1.389, 1.895e-4
-1.390, 1.935e-4
-1.391, 1.976e-4
-1.392, 2.016e-4
-1.393, 2.058e-4
-1.394, 2.100e-4
-1.395, 2.144e-4
-1.396, 2.188e-4
-1.397, 2.233e-4
-1.398, 2.277e-4
-1.399, 2.324e-4
-1.400, 2.312e-4
-1.399, 2.265e-4
-1.398, 2.220e-4
-1.397, 2.174e-4
-1.396, 2.131e-4
-1.395, 2.087e-4
-1.394, 2.045e-4
-1.393, 2.003e-4
-1.392, 1.960e-4
-1.391, 1.919e-4
-1.390, 1.879e-4
-1.389, 1.839e-4
-1.388, 1.800e-4
-1.387, 1.761e-4
-1.386, 1.723e-4
-1.385, 1.686e-4
-1.384, 1.650e-4
-1.383, 1.613e-4
-1.382, 1.577e-4
-1.381, 1.542e-4
-1.380, 1.508e-4
-1.379, 1.475e-4
-1.378, 1.442e-4
-1.377, 1.409e-4
-1.376, 1.378e-4
-1.375, 1.347e-4
-1.374, 1.317e-4
-1.373, 1.288e-4
-1.372, 1.258e-4
-1.371, 1.229e-4
-1.370, 1.202e-4
-1.369, 1.175e-4
-1.368, 1.148e-4
-1.367, 1.121e-4
-1.366, 1.095e-4
-1.365, 1.070e-4
-1.364, 1.046e-4
-1.363, 1.021e-4
-1.362, 9.967e-5
-1.361, 9.730e-5
-1.360, 9.508e-5
-1.359, 9.291e-5
-1.358, 9.064e-5
-1.357, 8.844e-5
-1.356, 8.629e-5
-1.355, 8.427e-5
-1.354, 8.233e-5
-1.353, 8.029e-5
-1.352, 7.828e-5
-1.351, 7.639e-5
-1.350, 7.453e-5
-1.349, 7.281e-5
-1.348, 7.098e-5
-1.347, 6.915e-5
-1.346, 6.748e-5
-1.345, 6.583e-5
-1.344, 6.429e-5
-1.343, 6.263e-5
-1.342, 6.102e-5
-1.341, 5.949e-5
-1.340, 5.809e-5
-1.339, 5.668e-5
-1.338, 5.518e-5
-1.337, 5.372e-5
-1.336, 5.240e-5
-1.335, 5.109e-5
-1.334, 4.981e-5
-1.333, 4.854e-5
-1.332, 4.725e-5
-1.331, 4.599e-5
-1.330, 4.490e-5
-1.329, 4.378e-5
-1.328, 4.261e-5
-1.327, 4.143e-5
-1.326, 4.035e-5
-1.325, 3.935e-5
-1.324, 3.838e-5
-1.323, 3.729e-5
-1.322, 3.631e-5
-1.321, 3.534e-5
-1.320, 3.445e-5
-1.319, 3.359e-5
-1.318, 3.266e-5
-1.317, 3.170e-5
-1.316, 3.085e-5
-1.315, 3.005e-5
-1.314, 2.936e-5
-1.313, 2.847e-5
-1.312, 2.765e-5
-1.311, 2.688e-5
-1.310, 2.622e-5
-1.309, 2.558e-5
-1.308, 2.481e-5
-1.307, 2.403e-5
-1.306, 2.338e-5
-1.305, 2.276e-5
-1.304, 2.224e-5
-1.303, 2.154e-5
-1.302, 2.087e-5
-1.301, 2.030e-5
-1.300, 1.978e-5
-1.299, 1.927e-5
-1.298, 1.869e-5
-1.297, 1.807e-5
-1.296, 1.761e-5
-1.295, 1.710e-5
-1.294, 1.668e-5
-1.293, 1.612e-5
-1.292, 1.558e-5
-1.291, 1.510e-5
-1.290, 1.476e-5
-1.289, 1.435e-5
-1.288, 1.388e-5
-1.287, 1.340e-5
-1.286, 1.297e-5
-1.285, 1.267e-5
-1.284, 1.231e-5
-1.283, 1.187e-5
-1.282, 1.144e-5
-1.281, 1.110e-5
-1.280, 1.079e-5
-1.279, 1.056e-5
-1.278, 1.016e-5
-1.277, 9.755e-6
-1.276, 9.465e-6
-1.275, 9.171e-6
-1.274, 8.960e-6
-1.273, 8.616e-6
-1.272, 8.223e-6
-1.271, 7.982e-6
-1.270, 7.763e-6
-1.269, 7.573e-6
-1.268, 7.214e-6
-1.267, 6.898e-6
-1.266, 6.686e-6
-1.265, 6.490e-6
-1.264, 6.332e-6
-1.263, 6.064e-6
-1.262, 5.708e-6
-1.261, 5.547e-6
-1.260, 5.414e-6
-1.259, 5.223e-6
-1.258, 4.989e-6
-1.257, 4.713e-6
-1.256, 4.541e-6
-1.255, 4.391e-6
-1.254, 4.285e-6
-1.253, 4.057e-6
-1.252, 3.824e-6
-1.251, 3.647e-6
-1.250, 3.506e-6
-1.249, 3.443e-6
-1.248, 3.230e-6
-1.247, 3.000e-6
-1.246, 2.833e-6
-1.245, 2.752e-6
-1.244, 2.701e-6
-1.243, 2.457e-6
-1.242, 2.271e-6
-1.241, 2.149e-6
-1.240, 2.080e-6
-1.239, 2.004e-6
-1.238, 1.778e-6
-1.237, 1.634e-6
-1.236, 1.532e-6
-1.235, 1.468e-6
-1.234, 1.432e-6
-1.233, 1.229e-6
-1.232, 1.087e-6
-1.231, 9.894e-7
-1.230, 9.154e-7
-1.229, 8.216e-7
-1.228, 7.003e-7
-1.227, 5.079e-7
-1.226, 4.832e-7
-1.225, 4.408e-7
-1.224, 4.211e-7
-1.223, 2.593e-7
-1.222, 6.985e-8
-1.221, 4.815e-8
-1.220, -3.966e-8
-1.219, -4.854e-8
-1.218, -1.403e-7
-1.217, -3.149e-7
-1.216, -3.781e-7
-1.215, -3.978e-7
-1.214, -4.244e-7
-1.213, -5.320e-7
-1.212, -6.602e-7
-1.211, -7.382e-7
-1.210, -7.115e-7
-1.209, -7.668e-7
-1.208, -8.635e-7
-1.207, -9.838e-7
-1.206, -1.055e-6
-1.205, -1.043e-6
-1.204, -1.039e-6
-1.203, -1.185e-6
-1.202, -1.311e-6
-1.201, -1.326e-6
-1.200, -1.320e-6
-1.199, -1.303e-6
-1.198, -1.440e-6
-1.197, -1.578e-6
-1.196, -1.605e-6
-1.195, -1.606e-6
-1.194, -1.603e-6
-1.193, -1.682e-6
-1.192, -1.808e-6
-1.191, -1.849e-6
-1.190, -1.894e-6
-1.189, -1.790e-6
-1.188, -1.914e-6
-1.187, -2.082e-6
-1.186, -2.075e-6
-1.185, -2.067e-6
-1.184, -2.017e-6
-1.183, -2.132e-6
-1.182, -2.263e-6
-1.181, -2.303e-6
-1.180, -2.239e-6
-1.179, -2.219e-6
-1.178, -2.349e-6
-1.177, -2.464e-6
-1.176, -2.494e-6
-1.175, -2.459e-6
-1.174, -2.437e-6
-1.173, -2.466e-6
-1.172, -2.661e-6
-1.171, -2.676e-6
-1.170, -2.619e-6
-1.169, -2.618e-6
-1.168, -2.693e-6
-1.167, -2.804e-6
-1.166, -2.846e-6
-1.165, -2.772e-6
-1.164, -2.747e-6
-1.163, -2.882e-6
-1.162, -2.963e-6
-1.161, -3.003e-6
-1.160, -2.928e-6
-1.159, -2.911e-6
-1.158, -3.027e-6
-1.157, -3.151e-6
-1.156, -3.157e-6
-1.155, -3.106e-6
-1.154, -3.064e-6
-1.153, -3.178e-6
-1.152, -3.283e-6
-1.151, -3.283e-6
-1.150, -3.262e-6
-1.149, -3.217e-6
-1.148, -3.331e-6
-1.147, -3.429e-6
-1.146, -3.444e-6
-1.145, -3.396e-6
-1.144, -3.370e-6
-1.143, -3.426e-6
-1.142, -3.576e-6
-1.141, -3.576e-6
-1.140, -3.506e-6
-1.139, -3.521e-6
-1.138, -3.603e-6
-1.137, -3.686e-6
-1.136, -3.705e-6
-1.135, -3.634e-6
-1.134, -3.646e-6
-1.133, -3.726e-6
-1.132, -3.796e-6
-1.131, -3.864e-6
-1.130, -3.777e-6
-1.129, -3.759e-6
-1.128, -3.841e-6
-1.127, -3.940e-6
-1.126, -3.975e-6
-1.125, -3.899e-6
-1.124, -3.868e-6
-1.123, -3.979e-6
-1.122, -4.044e-6
-1.121, -4.101e-6
-1.120, -4.002e-6
-1.119, -4.012e-6
-1.118, -4.129e-6
-1.117, -4.171e-6
-1.116, -4.208e-6
-1.115, -4.137e-6
-1.114, -4.121e-6
-1.113, -4.219e-6
-1.112, -4.303e-6
-1.111, -4.336e-6
-1.110, -4.267e-6
-1.109, -4.217e-6
-1.108, -4.337e-6
-1.107, -4.436e-6
-1.106, -4.462e-6
-1.105, -4.391e-6
-1.104, -4.343e-6
-1.103, -4.457e-6
-1.102, -4.567e-6
-1.101, -4.558e-6
-1.100, -4.484e-6
-1.099, -4.468e-6
-1.098, -4.598e-6
-1.097, -4.670e-6
-1.096, -4.659e-6
-1.095, -4.602e-6
-1.094, -4.610e-6
-1.093, -4.645e-6
-1.092, -4.758e-6
-1.091, -4.790e-6
-1.090, -4.725e-6
-1.089, -4.687e-6
-1.088, -4.818e-6
-1.087, -4.877e-6
-1.086, -4.927e-6
-1.085, -4.829e-6
-1.084, -4.820e-6
-1.083, -4.975e-6
-1.082, -4.983e-6
-1.081, -5.067e-6
-1.080, -4.970e-6
-1.079, -4.927e-6
-1.078, -5.057e-6
-1.077, -5.134e-6
-1.076, -5.165e-6
-1.075, -5.099e-6
-1.074, -5.056e-6
-1.073, -5.204e-6
-1.072, -5.291e-6
-1.071, -5.254e-6
-1.070, -5.228e-6
-1.069, -5.149e-6
-1.068, -5.293e-6
-1.067, -5.420e-6
-1.066, -5.389e-6
-1.065, -5.350e-6
-1.064, -5.287e-6
-1.063, -5.420e-6
-1.062, -5.566e-6
-1.061, -5.527e-6
-1.060, -5.444e-6
-1.059, -5.434e-6
-1.058, -5.533e-6
-1.057, -5.656e-6
-1.056, -5.660e-6
-1.055, -5.604e-6
-1.054, -5.559e-6
-1.053, -5.673e-6
-1.052, -5.791e-6
-1.051, -5.789e-6
-1.050, -5.717e-6
-1.049, -5.722e-6
-1.048, -5.838e-6
-1.047, -5.922e-6
-1.046, -5.912e-6
-1.045, -5.870e-6
-1.044, -5.821e-6
-1.043, -5.974e-6
-1.042, -6.092e-6
-1.041, -6.074e-6
-1.040, -5.992e-6
-1.039, -5.990e-6
-1.038, -6.139e-6
-1.037, -6.194e-6
-1.036, -6.216e-6
-1.035, -6.154e-6
-1.034, -6.120e-6
-1.033, -6.286e-6
-1.032, -6.362e-6
-1.031, -6.370e-6
-1.030, -6.329e-6
-1.029, -6.289e-6
-1.028, -6.428e-6
-1.027, -6.513e-6
-1.026, -6.502e-6
-1.025, -6.482e-6
-1.024, -6.476e-6
-1.023, -6.595e-6
-1.022, -6.668e-6
-1.021, -6.710e-6
-1.020, -6.628e-6
-1.019, -6.645e-6
-1.018, -6.749e-6
-1.017, -6.892e-6
-1.016, -6.849e-6
-1.015, -6.794e-6
-1.014, -6.830e-6
-1.013, -6.942e-6
-1.012, -7.032e-6
-1.011, -7.053e-6
-1.010, -6.992e-6
-1.009, -6.973e-6
-1.008, -7.123e-6
-1.007, -7.222e-6
-1.006, -7.228e-6
-1.005, -7.192e-6
-1.004, -7.150e-6
-1.003, -7.326e-6
-1.002, -7.422e-6
-1.001, -7.444e-6
-1.000, -4.164e-6
-1.001, -2.845e-6
-1.002, -2.480e-6
-1.003, -2.254e-6
-1.004, -1.939e-6
-1.005, -1.600e-6
-1.006, -1.368e-6
-1.007, -1.315e-6
-1.008, -1.198e-6
-1.009, -1.045e-6
-1.010, -7.806e-7
-1.011, -6.257e-7
-1.012, -5.862e-7
-1.013, -5.270e-7
-1.014, -4.096e-7
-1.015, -1.926e-7
-1.016, -7.617e-8
-1.017, -7.912e-8
-1.018, -3.157e-9
-1.019, 7.182e-8
-1.020, 2.543e-7
-1.021, 3.717e-7
-1.022, 3.392e-7
-1.023, 3.639e-7
-1.024, 4.941e-7
-1.025, 6.579e-7
-1.026, 7.723e-7
-1.027, 6.835e-7
-1.028, 6.934e-7
-1.029, 8.177e-7
-1.030, 9.459e-7
-1.031, 1.042e-6
-1.032, 9.943e-7
-1.033, 9.785e-7
-1.034, 1.114e-6
-1.035, 1.252e-6
-1.036, 1.272e-6
-1.037, 1.288e-6
-1.038, 1.237e-6
-1.039, 1.346e-6
-1.040, 1.484e-6
-1.041, 1.511e-6
-1.042, 1.496e-6
-1.043, 1.484e-6
-1.044, 1.564e-6
-1.045, 1.670e-6
-1.046, 1.728e-6
-1.047, 1.718e-6
-1.048, 1.662e-6
-1.049, 1.746e-6
-1.050, 1.931e-6
-1.051, 1.920e-6
-1.052, 1.914e-6
-1.053, 1.862e-6
-1.054, 1.966e-6
-1.055, 2.074e-6
-1.056, 2.104e-6
-1.057, 2.039e-6
-1.058, 2.066e-6
-1.059, 2.105e-6
-1.060, 2.235e-6
-1.061, 2.287e-6
-1.062, 2.233e-6
-1.063, 2.210e-6
-1.064, 2.237e-6
-1.065, 2.386e-6
-1.066, 2.457e-6
-1.067, 2.349e-6
-1.068, 2.343e-6
-1.069, 2.426e-6
-1.070, 2.525e-6
-1.071, 2.557e-6
-1.072, 2.493e-6
-1.073, 2.483e-6
-1.074, 2.574e-6
-1.075, 2.667e-6
-1.076, 2.679e-6
-1.077, 2.678e-6
-1.078, 2.592e-6
-1.079, 2.672e-6
-1.080, 2.799e-6
-1.081, 2.823e-6
-1.082, 2.778e-6
-1.083, 2.691e-6
-1.084, 2.799e-6
-1.085, 2.975e-6
-1.086, 2.922e-6
-1.087, 2.879e-6
-1.088, 2.817e-6
-1.089, 2.932e-6
-1.090, 3.076e-6
-1.091, 3.035e-6
-1.092, 2.999e-6
-1.093, 2.951e-6
-1.094, 3.022e-6
-1.095, 3.134e-6
-1.096, 3.146e-6
-1.097, 3.105e-6
-1.098, 3.061e-6
-1.099, 3.143e-6
-1.100, 3.247e-6
-1.101, 3.251e-6
-1.102, 3.242e-6
-1.103, 3.172e-6
-1.104, 3.249e-6
-1.105, 3.349e-6
-1.106, 3.353e-6
-1.107, 3.312e-6
-1.108, 3.292e-6
-1.109, 3.364e-6
-1.110, 3.440e-6
-1.111, 3.487e-6
-1.112, 3.399e-6
-1.113, 3.360e-6
-1.114, 3.454e-6
-1.115, 3.555e-6
-1.116, 3.599e-6
-1.117, 3.529e-6
-1.118, 3.498e-6
-1.119, 3.600e-6
-1.120, 3.642e-6
-1.121, 3.676e-6
-1.122, 3.635e-6
-1.123, 3.602e-6
-1.124, 3.660e-6
-1.125, 3.779e-6
-1.126, 3.808e-6
-1.127, 3.755e-6
-1.128, 3.708e-6
-1.129, 3.769e-6
-1.130, 3.876e-6
-1.131, 3.912e-6
-1.132, 3.857e-6
-1.133, 3.812e-6
-1.134, 3.866e-6
-1.135, 3.983e-6
-1.136, 4.000e-6
-1.137, 3.930e-6
-1.138, 3.944e-6
-1.139, 3.984e-6
-1.140, 4.104e-6
-1.141, 4.111e-6
-1.142, 4.036e-6
-1.143, 4.063e-6
-1.144, 4.100e-6
-1.145, 4.211e-6
-1.146, 4.223e-6
-1.147, 4.139e-6
-1.148, 4.142e-6
-1.149, 4.222e-6
-1.150, 4.347e-6
-1.151, 4.342e-6
-1.152, 4.285e-6
-1.153, 4.275e-6
-1.154, 4.359e-6
-1.155, 4.457e-6
-1.156, 4.481e-6
-1.157, 4.385e-6
-1.158, 4.393e-6
-1.159, 4.463e-6
-1.160, 4.581e-6
-1.161, 4.576e-6
-1.162, 4.532e-6
-1.163, 4.505e-6
-1.164, 4.591e-6
-1.165, 4.669e-6
-1.166, 4.737e-6
-1.167, 4.664e-6
-1.168, 4.622e-6
-1.169, 4.722e-6
-1.170, 4.806e-6
-1.171, 4.843e-6
-1.172, 4.782e-6
-1.173, 4.754e-6
-1.174, 4.870e-6
-1.175, 5.000e-6
-1.176, 4.986e-6
-1.177, 4.903e-6
-1.178, 4.934e-6
-1.179, 5.004e-6
-1.180, 5.099e-6
-1.181, 5.130e-6
-1.182, 5.068e-6
-1.183, 5.100e-6
-1.184, 5.135e-6
-1.185, 5.248e-6
-1.186, 5.289e-6
-1.187, 5.223e-6
-1.188, 5.250e-6
-1.189, 5.343e-6
-1.190, 5.431e-6
-1.191, 5.455e-6
-1.192, 5.379e-6
-1.193, 5.396e-6
-1.194, 5.512e-6
-1.195, 5.587e-6
-1.196, 5.640e-6
-1.197, 5.596e-6
-1.198, 5.578e-6
-1.199, 5.678e-6
-1.200, 5.803e-6
-1.201, 5.814e-6
-1.202, 5.798e-6
-1.203, 5.747e-6
-1.204, 5.900e-6
-1.205, 6.013e-6
-1.206, 6.011e-6
-1.207, 6.006e-6
-1.208, 5.967e-6
-1.209, 6.101e-6
-1.210, 6.268e-6
-1.211, 6.248e-6
-1.212, 6.202e-6
-1.213, 6.236e-6
-1.214, 6.347e-6
-1.215, 6.497e-6
-1.216, 6.494e-6
-1.217, 6.455e-6
-1.218, 6.461e-6
-1.219, 6.636e-6
-1.220, 6.741e-6
-1.221, 6.790e-6
-1.222, 6.733e-6
-1.223, 6.778e-6
-1.224, 6.900e-6
-1.225, 7.028e-6
-1.226, 7.070e-6
-1.227, 7.049e-6
-1.228, 7.128e-6
-1.229, 7.273e-6
-1.230, 7.385e-6
-1.231, 7.425e-6
-1.232, 7.388e-6
-1.233, 7.463e-6
-1.234, 7.618e-6
-1.235, 7.755e-6
-1.236, 7.792e-6
-1.237, 7.803e-6
-1.238, 7.836e-6
-1.239, 8.021e-6
-1.240, 8.139e-6
-1.241, 8.210e-6
-1.242, 8.199e-6
-1.243, 8.243e-6
-1.244, 8.455e-6
-1.245, 8.635e-6
-1.246, 8.652e-6
-1.247, 8.677e-6
-1.248, 8.746e-6
-1.249, 8.933e-6
-1.250, 9.096e-6
-1.251, 9.174e-6
-1.252, 9.189e-6
-1.253, 9.253e-6
-1.254, 9.489e-6
-1.255, 9.669e-6
-1.256, 9.730e-6
-1.257, 9.758e-6
-1.258, 9.889e-6
-1.259, 1.009e-5
-1.260, 1.029e-5
-1.261, 1.041e-5
-1.262, 1.041e-5
-1.263, 1.058e-5
-1.264, 1.077e-5
-1.265, 1.098e-5
-1.266, 1.114e-5
-1.267, 1.118e-5
-1.268, 1.129e-5
-1.269, 1.157e-5
-1.270, 1.178e-5
-1.271, 1.194e-5
-1.272, 1.202e-5
-1.273, 1.216e-5
-1.274, 1.247e-5
-1.275, 1.269e-5
-1.276, 1.283e-5
-1.277, 1.297e-5
-1.278, 1.315e-5
-1.279, 1.346e-5
-1.280, 1.375e-5
-1.281, 1.391e-5
-1.282, 1.410e-5
-1.283, 1.430e-5
-1.284, 1.463e-5
-1.285, 1.497e-5
-1.286, 1.515e-5
-1.287, 1.536e-5
-1.288, 1.562e-5
-1.289, 1.599e-5
-1.290, 1.634e-5
-1.291, 1.659e-5
-1.292, 1.684e-5
-1.293, 1.716e-5
-1.294, 1.757e-5
-1.295, 1.800e-5
-1.296, 1.827e-5
-1.297, 1.855e-5
-1.298, 1.896e-5
-1.299, 1.942e-5
-1.300, 1.991e-5
-1.301, 2.027e-5
-1.302, 2.066e-5
-1.303, 2.111e-5
-1.304, 2.166e-5
-1.305, 2.219e-5
-1.306, 2.265e-5
-1.307, 2.309e-5
-1.308, 2.363e-5
-1.309, 2.426e-5
-1.310, 2.490e-5
-1.311, 2.548e-5
-1.312, 2.600e-5
-1.313, 2.667e-5
-1.314, 2.739e-5
-1.315, 2.811e-5
-1.316, 2.879e-5
-1.317, 2.944e-5
-1.318, 3.020e-5
-1.319, 3.107e-5
-1.320, 3.193e-5
-1.321, 3.270e-5
-1.322, 3.350e-5
-1.323, 3.438e-5
-1.324, 3.535e-5
-1.325, 3.637e-5
-1.326, 3.729e-5
-1.327, 3.822e-5
-1.328, 3.927e-5
-1.329, 4.034e-5
-1.330, 4.152e-5
-1.331, 4.259e-5
-1.332, 4.362e-5
-1.333, 4.481e-5
-1.334, 4.608e-5
-1.335, 4.739e-5
-1.336, 4.854e-5
-1.337, 4.976e-5
-1.338, 5.116e-5
-1.339, 5.250e-5
-1.340, 5.401e-5
-1.341, 5.537e-5
-1.342, 5.670e-5
-1.343, 5.829e-5
-1.344, 5.982e-5
-1.345, 6.145e-5
-1.346, 6.305e-5
-1.347, 6.454e-5
-1.348, 6.624e-5
-1.349, 6.800e-5
-1.350, 6.978e-5
-1.351, 7.152e-5
-1.352, 7.322e-5
-1.353, 7.513e-5
-1.354, 7.707e-5
-1.355, 7.907e-5
-1.356, 8.105e-5
-1.357, 8.304e-5
-1.358, 8.511e-5
-1.359, 8.729e-5
-1.360, 8.949e-5
-1.361, 9.169e-5
-1.362, 9.381e-5
-1.363, 9.614e-5
-1.364, 9.846e-5
-1.365, 1.010e-4
-1.366, 1.034e-4
-1.367, 1.057e-4
-1.368, 1.083e-4
-1.369, 1.110e-4
-1.370, 1.137e-4
-1.371, 1.164e-4
-1.372, 1.190e-4
-1.373, 1.218e-4
-1.374, 1.247e-4
-1.375, 1.277e-4
-1.376, 1.306e-4
-1.377, 1.336e-4
-1.378, 1.367e-4
-1.379, 1.399e-4
-1.380, 1.431e-4
-1.381, 1.464e-4
-1.382, 1.497e-4
-1.383, 1.531e-4
-1.384, 1.566e-4
-1.385, 1.602e-4
-1.386, 1.638e-4
-1.387, 1.673e-4
-1.388, 1.711e-4
-1.389, 1.750e-4
-1.390, 1.789e-4
-1.391, 1.828e-4
-1.392, 1.867e-4
-1.393, 1.907e-4
-1.394, 1.949e-4
-1.395, 1.992e-4
-1.396, 2.035e-4
-1.397, 2.078e-4
-1.398, 2.123e-4
-1.399, 2.169e-4
-1.400, 2.156e-4
-1.399, 2.108e-4
-1.398, 2.063e-4
-1.397, 2.019e-4
-1.396, 1.977e-4
-1.395, 1.936e-4
-1.394, 1.893e-4
-1.393, 1.851e-4
-1.392, 1.811e-4
-1.391, 1.771e-4
-1.390, 1.732e-4
-1.389, 1.694e-4
-1.388, 1.654e-4
-1.387, 1.616e-4
-1.386, 1.580e-4
-1.385, 1.545e-4
-1.384, 1.510e-4
-1.383, 1.474e-4
-1.382, 1.439e-4
-1.381, 1.407e-4
-1.380, 1.375e-4
-1.379, 1.342e-4
-1.378, 1.310e-4
-1.377, 1.279e-4
-1.376, 1.251e-4
-1.375, 1.221e-4
-1.374, 1.192e-4
-1.373, 1.164e-4
-1.372, 1.136e-4
-1.371, 1.109e-4
-1.370, 1.083e-4
-1.369, 1.057e-4
-1.368, 1.031e-4
-1.367, 1.006e-4
-1.366, 9.824e-5
-1.365, 9.593e-5
-1.364, 9.355e-5
-1.363, 9.120e-5
-1.362, 8.893e-5
-1.361, 8.681e-5
-1.360, 8.472e-5
-1.359, 8.258e-5
-1.358, 8.044e-5
-1.357, 7.845e-5
-1.356, 7.659e-5
-1.355, 7.469e-5
-1.354, 7.276e-5
-1.353, 7.083e-5
-1.352, 6.907e-5
-1.351, 6.740e-5
-1.350, 6.573e-5
-1.349, 6.400e-5
-1.348, 6.233e-5
-1.347, 6.071e-5
-1.346, 5.927e-5
-1.345, 5.779e-5
-1.344, 5.624e-5
-1.343, 5.468e-5
-1.342, 5.327e-5
-1.341, 5.202e-5
-1.340, 5.068e-5
-1.339, 4.931e-5
-1.338, 4.797e-5
-1.337, 4.667e-5
-1.336, 4.553e-5
-1.335, 4.440e-5
-1.334, 4.315e-5
-1.333, 4.197e-5
-1.332, 4.083e-5
-1.331, 3.982e-5
-1.330, 3.882e-5
-1.329, 3.770e-5
-1.328, 3.664e-5
-1.327, 3.564e-5
-1.326, 3.474e-5
-1.325, 3.387e-5
-1.324, 3.287e-5
-1.323, 3.194e-5
-1.322, 3.106e-5
-1.321, 3.030e-5
-1.320, 2.954e-5
-1.319, 2.862e-5
-1.318, 2.774e-5
-1.317, 2.703e-5
-1.316, 2.634e-5
-1.315, 2.564e-5
-1.314, 2.485e-5
-1.313, 2.410e-5
-1.312, 2.341e-5
-1.311, 2.286e-5
-1.310, 2.227e-5
-1.309, 2.156e-5
-1.308, 2.085e-5
-1.307, 2.030e-5
-1.306, 1.981e-5
-1.305, 1.927e-5
-1.304, 1.862e-5
-1.303, 1.802e-5
-1.302, 1.748e-5
-1.301, 1.709e-5
-1.300, 1.664e-5
-1.299, 1.606e-5
-1.298, 1.548e-5
-1.297, 1.506e-5
-1.296, 1.470e-5
-1.295, 1.432e-5
-1.294, 1.378e-5
-1.293, 1.329e-5
-1.292, 1.290e-5
-1.291, 1.257e-5
-1.290, 1.224e-5
-1.289, 1.177e-5
-1.288, 1.135e-5
-1.287, 1.105e-5
-1.286, 1.072e-5
-1.285, 1.044e-5
-1.284, 1.003e-5
-1.283, 9.644e-6
-1.282, 9.350e-6
-1.281, 9.103e-6
-1.280, 8.849e-6
-1.279, 8.473e-6
-1.278, 8.115e-6
-1.277, 7.880e-6
-1.276, 7.686e-6
-1.275, 7.451e-6
-1.274, 7.111e-6
-1.273, 6.825e-6
-1.272, 6.599e-6
-1.271, 6.414e-6
-1.270, 6.228e-6
-1.269, 5.909e-6
-1.268, 5.648e-6
-1.267, 5.451e-6
-1.266, 5.308e-6
-1.265, 5.121e-6
-1.264, 4.847e-6
-1.263, 4.604e-6
-1.262, 4.418e-6
-1.261, 4.314e-6
-1.260, 4.193e-6
-1.259, 3.918e-6
-1.258, 3.689e-6
-1.257, 3.521e-6
-1.256, 3.478e-6
-1.255, 3.327e-6
-1.254, 3.048e-6
-1.253, 2.894e-6
-1.252, 2.755e-6
-1.251, 2.668e-6
-1.250, 2.601e-6
-1.249, 2.328e-6
-1.248, 2.181e-6
-1.247, 2.049e-6
-1.246, 2.035e-6
-1.245, 1.919e-6
-1.244, 1.687e-6
-1.243, 1.538e-6
-1.242, 1.471e-6
-1.241, 1.402e-6
-1.240, 1.328e-6
-1.239, 1.135e-6
-1.238, 9.548e-7
-1.237, 9.361e-7
-1.236, 8.858e-7
-1.235, 8.118e-7
-1.234, 6.095e-7
-1.233, 4.813e-7
-1.232, 4.152e-7
-1.231, 4.398e-7
-1.230, 3.382e-7
-1.229, 1.192e-7
-1.228, -1.184e-9
-1.227, -1.697e-8
-1.226, 7.695e-9
-1.225, -9.392e-8
-1.224, -2.626e-7
-1.223, -3.495e-7
-1.222, -3.968e-7
-1.221, -3.919e-7
-1.220, -4.452e-7
-1.219, -6.247e-7
-1.218, -7.332e-7
-1.217, -7.313e-7
-1.216, -7.224e-7
-1.215, -7.559e-7
-1.214, -9.641e-7
-1.213, -1.018e-6
-1.212, -1.048e-6
-1.211, -1.046e-6
-1.210, -1.070e-6
-1.209, -1.211e-6
-1.208, -1.313e-6
-1.207, -1.319e-6
-1.206, -1.317e-6
-1.205, -1.343e-6
-1.204, -1.472e-6
-1.203, -1.590e-6
-1.202, -1.588e-6
-1.201, -1.548e-6
-1.200, -1.607e-6
-1.199, -1.705e-6
-1.198, -1.815e-6
-1.197, -1.818e-6
-1.196, -1.766e-6
-1.195, -1.849e-6
-1.194, -1.947e-6
-1.193, -2.057e-6
-1.192, -2.015e-6
-1.191, -1.978e-6
-1.190, -2.040e-6
-1.189, -2.137e-6
-1.188, -2.209e-6
-1.187, -2.225e-6
-1.186, -2.150e-6
-1.185, -2.267e-6
-1.184, -2.326e-6
-1.183, -2.460e-6
-1.182, -2.419e-6
-1.181, -2.333e-6
-1.180, -2.400e-6
-1.179, -2.525e-6
-1.178, -2.594e-6
-1.177, -2.602e-6
-1.176, -2.487e-6
-1.175, -2.564e-6
-1.174, -2.680e-6
-1.173, -2.751e-6
-1.172, -2.738e-6
-1.171, -2.677e-6
-1.170, -2.734e-6
-1.169, -2.850e-6
-1.168, -2.902e-6
-1.167, -2.888e-6
-1.166, -2.837e-6
-1.165, -2.877e-6
-1.164, -2.964e-6
-1.163, -3.065e-6
-1.162, -3.036e-6
-1.161, -2.977e-6
-1.160, -3.009e-6
-1.159, -3.119e-6
-1.158, -3.239e-6
-1.157, -3.156e-6
-1.156, -3.091e-6
-1.155, -3.169e-6
-1.154, -3.224e-6
-1.153, -3.351e-6
-1.152, -3.310e-6
-1.151, -3.261e-6
-1.150, -3.295e-6
-1.149, -3.364e-6
-1.148, -3.436e-6
-1.147, -3.462e-6
-1.146, -3.379e-6
-1.145, -3.431e-6
-1.144, -3.493e-6
-1.143, -3.602e-6
-1.142, -3.526e-6
-1.141, -3.467e-6
-1.140, -3.536e-6
-1.139, -3.608e-6
-1.138, -3.702e-6
-1.137, -3.676e-6
-1.136, -3.604e-6
-1.135, -3.607e-6
-1.134, -3.724e-6
-1.133, -3.781e-6
-1.132, -3.774e-6
-1.131, -3.703e-6
-1.130, -3.733e-6
-1.129, -3.852e-6
-1.128, -3.881e-6
-1.127, -3.882e-6
-1.126, -3.841e-6
-1.125, -3.835e-6
-1.124, -3.932e-6
-1.123, -4.032e-6
-1.122, -4.012e-6
-1.121, -3.914e-6
-1.120, -3.941e-6
-1.119, -4.070e-6
-1.118, -4.147e-6
-1.117, -4.096e-6
-1.116, -4.021e-6
-1.115, -4.047e-6
-1.114, -4.187e-6
-1.113, -4.242e-6
-1.112, -4.179e-6
-1.111, -4.133e-6
-1.110, -4.161e-6
-1.109, -4.274e-6
-1.108, -4.322e-6
-1.107, -4.317e-6
-1.106, -4.210e-6
-1.105, -4.255e-6
-1.104, -4.379e-6
-1.103, -4.420e-6
-1.102, -4.395e-6
-1.101, -4.343e-6
-1.100, -4.366e-6
-1.099, -4.477e-6
-1.098, -4.555e-6
-1.097, -4.508e-6
-1.096, -4.430e-6
-1.095, -4.456e-6
-1.094, -4.594e-6
-1.093, -4.672e-6
-1.092, -4.605e-6
-1.091, -4.535e-6
-1.090, -4.598e-6
-1.089, -4.733e-6
-1.088, -4.755e-6
-1.087, -4.743e-6
-1.086, -4.672e-6
-1.085, -4.700e-6
-1.084, -4.794e-6
-1.083, -4.887e-6
-1.082, -4.808e-6
-1.081, -4.799e-6
-1.080, -4.799e-6
-1.079, -4.914e-6
-1.078, -5.012e-6
-1.077, -4.905e-6
-1.076, -4.902e-6
-1.075, -4.957e-6
-1.074, -5.058e-6
-1.073, -5.117e-6
-1.072, -5.025e-6
-1.071, -4.966e-6
-1.070, -5.056e-6
-1.069, -5.139e-6
-1.068, -5.248e-6
-1.067, -5.181e-6
-1.066, -5.094e-6
-1.065, -5.184e-6
-1.064, -5.274e-6
-1.063, -5.345e-6
-1.062, -5.278e-6
-1.061, -5.241e-6
-1.060, -5.297e-6
-1.059, -5.423e-6
-1.058, -5.477e-6
-1.057, -5.397e-6
-1.056, -5.358e-6
-1.055, -5.393e-6
-1.054, -5.572e-6
-1.053, -5.569e-6
-1.052, -5.521e-6
-1.051, -5.478e-6
-1.050, -5.519e-6
-1.049, -5.635e-6
-1.048, -5.705e-6
-1.047, -5.630e-6
-1.046, -5.587e-6
-1.045, -5.642e-6
-1.044, -5.767e-6
-1.043, -5.833e-6
-1.042, -5.750e-6
-1.041, -5.752e-6
-1.040, -5.789e-6
-1.039, -5.892e-6
-1.038, -5.968e-6
-1.037, -5.875e-6
-1.036, -5.844e-6
-1.035, -5.937e-6
-1.034, -6.037e-6
-1.033, -6.128e-6
-1.032, -6.004e-6
-1.031, -6.025e-6
-1.030, -6.045e-6
-1.029, -6.159e-6
-1.028, -6.254e-6
-1.027, -6.212e-6
-1.026, -6.150e-6
-1.025, -6.221e-6
-1.024, -6.350e-6
-1.023, -6.424e-6
-1.022, -6.349e-6
-1.021, -6.264e-6
-1.020, -6.376e-6
-1.019, -6.516e-6
-1.018, -6.543e-6
-1.017, -6.478e-6
-1.016, -6.434e-6
-1.015, -6.515e-6
-1.014, -6.673e-6
-1.013, -6.712e-6
-1.012, -6.621e-6
-1.011, -6.609e-6
-1.010, -6.689e-6
-1.009, -6.836e-6
-1.008, -6.870e-6
-1.007, -6.831e-6
-1.006, -6.814e-6
-1.005, -6.860e-6
-1.004, -7.005e-6
-1.003, -7.085e-6
-1.002, -6.972e-6
-1.001, -6.979e-6
