Potential V vs RHE, Current mA cm-2
0.013299999999999867,-0.03794255706238028
0.012299999999999978,-0.12503218468207195
0.011299999999999866,-0.17160448067362896
0.010299999999999976,-0.20343548492059227
0.009299999999999864,-0.23003205735805496
0.008299999999999974,-0.25464803397570657
0.007299999999999862,-0.2740295787838576
0.006299999999999972,-0.29652348845171167
0.00529999999999986,-0.30953883241047003
0.0042999999999999705,-0.32255417636922834
0.0032999999999998586,-0.33981365422758186
0.0022999999999999687,-0.35565842078607024
0.0012999999999998568,-0.3686737647448286
0.00029999999999996696,-0.3799914551437488
-0.000700000000000145,-0.38918707859287155
-0.0017000000000000348,-0.4007877112517649
-0.0027000000000001467,-0.4153592376403748
-0.0037000000000000366,-0.42526221673943004
-0.0047000000000001485,-0.4336090134086337
-0.005700000000000038,-0.4392678586080939
-0.00670000000000015,-0.4483220109272302
-0.00770000000000004,-0.4578005766363259
-0.008700000000000152,-0.4692597381652327
-0.009700000000000042,-0.47661623692453087
-0.010700000000000154,-0.4804359574341665
-0.011700000000000044,-0.4852459758537076
-0.012700000000000156,-0.49529042608274926
-0.013700000000000045,-0.5027883959720341
-0.014700000000000157,-0.5121254905511432
-0.015700000000000047,-0.5138231441109813
-0.01670000000000016,-0.5176428646206169
-0.01770000000000005,-0.5240090654700096
-0.01870000000000016,-0.5275458437196722
-0.01970000000000005,-0.5346194002189975
-0.020700000000000163,-0.5353267558689299
-0.021700000000000053,-0.537590293948714
-0.022700000000000164,-0.5433906102781606
-0.023700000000000054,-0.5452297349679852
-0.024700000000000166,-0.5503226956474992
-0.025700000000000056,-0.5530106471172429
-0.026700000000000168,-0.5521618203373237
-0.027700000000000058,-0.5573962521468245
-0.02870000000000017,-0.5562644831069326
-0.02970000000000006,-0.557254781016838
-0.03070000000000017,-0.559801261356595
-0.03170000000000006,-0.5634795107362441
-0.03270000000000017,-0.5639039241262036
-0.03370000000000006,-0.5647527509061226
-0.034700000000000175,-0.5648942220361092
-0.035700000000000065,-0.5609330303964871
-0.03670000000000018,-0.5633380396062576
-0.03770000000000007,-0.5672992312458797
-0.03870000000000018,-0.5702701249755963
-0.03970000000000007,-0.5687139425457448
-0.04070000000000018,-0.5657430488160282
-0.04170000000000007,-0.5647527509061226
-0.04270000000000018,-0.5656015776860417
-0.04370000000000007,-0.5672992312458797
-0.044700000000000184,-0.5705530672355693
-0.045700000000000074,-0.5692798270656908
-0.046700000000000186,-0.5688554136757313
-0.047700000000000076,-0.5691383559357043
-0.04870000000000019,-0.5684310002857718
-0.04970000000000008,-0.5694212981956773
-0.05070000000000019,-0.5687139425457448
-0.05170000000000008,-0.5708360094955423
-0.05270000000000019,-0.5715433651454748
-0.05370000000000008,-0.5705530672355693
-0.05470000000000019,-0.5704115961055828
-0.05570000000000008,-0.5688554136757313
-0.056700000000000195,-0.5701286538456097
-0.057700000000000085,-0.5730995475753263
-0.058700000000000196,-0.5719677785354343
-0.059700000000000086,-0.5716848362754614
-0.0607000000000002,-0.5699871827156233
-0.06170000000000009,-0.5735239609652859
-0.0627000000000002,-0.5755045567850969
-0.06370000000000009,-0.5746557300051779
-0.0647000000000002,-0.5742313166152184
-0.06570000000000009,-0.5714018940154882
-0.0667000000000002,-0.5721092496654209
-0.0677000000000001,-0.5770607392149485
-0.0687000000000002,-0.5779095659948674
-0.0697000000000001,-0.576070441305043
-0.07070000000000021,-0.5743727877452048
-0.0717000000000001,-0.5746557300051779
-0.07270000000000021,-0.576636325824989
-0.0737000000000001,-0.5801731040746516
-0.07470000000000021,-0.5820122287644761
-0.0757000000000001,-0.5784754505148135
-0.07670000000000021,-0.579748690684692
-0.0777000000000001,-0.5811634019845571
-0.07870000000000021,-0.5824366421544356
-0.0797000000000001,-0.5849831224941927
-0.08070000000000022,-0.5808804597245841
-0.0817000000000001,-0.5849831224941927
-0.08270000000000022,-0.5861148915340847
-0.08370000000000011,-0.5854075358841522
-0.08470000000000022,-0.5852660647541656
-0.08570000000000011,-0.5851245936241791
-0.08670000000000022,-0.5913493233435854
-0.08770000000000011,-0.5913493233435854
-0.08870000000000022,-0.5926225635134639
-0.08970000000000011,-0.5919152078635314
-0.09070000000000022,-0.5895101986537608
-0.09170000000000011,-0.5927640346434504
-0.09270000000000023,-0.5975740530629915
-0.09370000000000012,-0.598281408712924
-0.09470000000000023,-0.5961593417631265
-0.09570000000000012,-0.594886101593248
-0.09670000000000023,-0.5967252262830725
-0.09770000000000012,-0.5994131777528161
-0.09870000000000023,-0.6057793786022087
-0.09970000000000012,-0.6028084848724922
-0.10070000000000023,-0.6021011292225595
-0.10170000000000012,-0.6035158405224247
-0.10270000000000024,-0.6050720229522761
-0.10370000000000013,-0.6080429166819927
-0.10470000000000024,-0.6100235125018038
-0.10570000000000013,-0.6087502723319252
-0.10670000000000024,-0.6103064547617768
-0.10770000000000013,-0.6114382238016689
-0.10870000000000024,-0.6131358773615069
-0.10970000000000013,-0.6105893970217499
-0.11070000000000024,-0.6161067710912235
-0.11170000000000013,-0.6183703091710075
-0.11270000000000002,-0.6186532514309806
-0.11370000000000013,-0.619926491600859
-0.11470000000000002,-0.617380011261102
-0.11570000000000014,-0.6178044246510616
-0.11670000000000003,-0.6196435493408861
-0.11770000000000014,-0.6260097501902787
-0.11870000000000003,-0.6279903460100897
-0.11970000000000014,-0.6243120966304406
-0.12070000000000003,-0.6260097501902787
-0.12170000000000014,-0.6262926924502518
-0.12270000000000003,-0.6277074037501167
-0.12370000000000014,-0.6335077200795635
-0.12470000000000003,-0.6315271242597523
-0.12570000000000014,-0.6313856531297658
-0.12670000000000003,-0.6313856531297658
-0.12770000000000015,-0.6344980179894689
-0.12870000000000004,-0.6369030271992394
-0.12970000000000015,-0.6383177384991046
-0.13070000000000004,-0.6390250941490371
-0.13170000000000015,-0.6384592096290911
-0.13270000000000004,-0.6422789301387266
-0.13370000000000015,-0.6453912949984297
-0.13470000000000004,-0.6415715744887941
-0.13570000000000015,-0.6427033435286861
-0.13670000000000004,-0.6436936414385916
-0.13770000000000016,-0.6480792464681732
-0.13870000000000005,-0.6523233803677684
-0.13970000000000016,-0.6493524866380518
-0.14070000000000005,-0.6500598422879843
-0.14170000000000016,-0.6499183711579978
-0.14270000000000005,-0.6552942740974849
-0.14370000000000016,-0.6571333987873096
-0.14470000000000005,-0.6538795627976199
-0.14570000000000016,-0.6568504565273365
-0.14670000000000005,-0.6560016297474174
-0.14770000000000016,-0.658123696697215
-0.14870000000000005,-0.6650557820665538
-0.14970000000000017,-0.6605287059069856
-0.15070000000000006,-0.6625093017267967
-0.15170000000000017,-0.6620848883368372
-0.15270000000000006,-0.6646313686765942
-0.15370000000000017,-0.6676022624063108
-0.15470000000000006,-0.6663290222364323
-0.15570000000000017,-0.6690169737061759
-0.15670000000000006,-0.6684510891862299
-0.15770000000000017,-0.6707146272660139
-0.15870000000000006,-0.6717049251759195
-0.15970000000000018,-0.6702902138760544
-0.16070000000000007,-0.6734025787357575
-0.16170000000000018,-0.6787784816752446
-0.16270000000000007,-0.6779296548953256
-0.16370000000000018,-0.6793443661951906
-0.16470000000000007,-0.6790614239352176
-0.16570000000000018,-0.6794858373251772
-0.16670000000000007,-0.6820323176649342
-0.16770000000000018,-0.6841543846147318
-0.16870000000000007,-0.6848617402646643
-0.16970000000000018,-0.6841543846147318
-0.17070000000000007,-0.6862764515645293
-0.17170000000000019,-0.6906620565941108
-0.17270000000000008,-0.6922182390239625
-0.1737000000000002,-0.692359710153949
-0.17470000000000008,-0.6922182390239625
-0.1757000000000002,-0.6927841235439085
-0.17670000000000008,-0.6957550172736251
-0.1777000000000002,-0.7011309202131122
-0.17870000000000008,-0.7011309202131122
-0.1797000000000002,-0.6999991511732202
-0.18070000000000008,-0.7018382758630447
-0.1817000000000002,-0.7045262273327882
-0.18270000000000008,-0.7065068231525994
-0.1837000000000002,-0.7077800633224779
-0.1847000000000001,-0.7084874189724104
-0.1857000000000002,-0.7082044767124374
-0.1867000000000001,-0.710326543662235
-0.1877000000000002,-0.7145706775618301
-0.1887000000000001,-0.7217857051911418
-0.1897000000000002,-0.7198051093713307
-0.1907000000000001,-0.7206539361512496
-0.1917000000000001,-0.7234833587509798
-0.19269999999999998,-0.7250395411808312
-0.1937000000000001,-0.7285763194304938
-0.19469999999999998,-0.7281519060405344
-0.1957000000000001,-0.7287177905604804
-0.19669999999999999,-0.7352254625398595
-0.1977000000000001,-0.7379134140096032
-0.1987,-0.7391866541794817
-0.1997000000000001,-0.7406013654793466
-0.2007,-0.7406013654793466
-0.2017000000000001,-0.7452699127689013
-0.2027,-0.750504344578402
-0.2037000000000001,-0.7529093537881726
-0.2047,-0.7520605270082534
-0.2057000000000001,-0.7531922960481455
-0.2067,-0.7575779010777272
-0.2077000000000001,-0.7616805638473357
-0.2087,-0.7701688316465259
-0.2097000000000001,-0.7697444182565665
-0.2107,-0.7687541203466609
-0.2117000000000001,-0.7728567831162695
-0.2127,-0.7780912149257702
-0.2137000000000001,-0.7824768199553517
-0.2147,-0.7845988869051493
-0.2157000000000001,-0.7862965404649873
-0.2167,-0.7892674341947039
-0.21770000000000012,-0.7947848082641775
-0.2187,-0.7991704132937593
-0.21970000000000012,-0.8058195564031249
-0.2207,-0.8056780852731383
-0.22170000000000012,-0.8106295748226661
-0.2227,-0.8164298911521127
-0.22370000000000012,-0.8178446024519777
-0.2247,-0.8215228518316268
-0.22570000000000012,-0.8259084568612085
-0.2267,-0.8326990711005606
-0.22770000000000012,-0.8383579163000208
-0.22870000000000001,-0.841187338899751
-0.22970000000000013,-0.8427435213296024
-0.23070000000000002,-0.8475535397491435
-0.23170000000000013,-0.8550515096384281
-0.23270000000000002,-0.8641056619575644
-0.23370000000000013,-0.8672180268172675
-0.23470000000000002,-0.8707548050669301
-0.23570000000000013,-0.8735842276666601
-0.23670000000000002,-0.8799504285160528
-0.2376999999999999,-0.8894289942251485
-0.23870000000000002,-0.8972099063744062
-0.2396999999999999,-0.8993319733242039
-0.24070000000000003,-0.9045664051337045
-0.24169999999999991,-0.9113570193730566
-0.24270000000000003,-0.9194208737822873
-0.24369999999999992,-0.9266359014115991
-0.24470000000000003,-0.9307385641812077
-0.24569999999999992,-0.9345582846908432
-0.24670000000000003,-0.941490370060182
-0.24769999999999992,-0.9519592336791831
-0.24870000000000003,-0.9628525106881439
-0.24969999999999992,-0.9689357692775638
-0.25070000000000003,-0.9736043165671182
-0.2516999999999999,-0.9809608153264163
-0.25270000000000004,-0.9895905542555933
-0.2536999999999999,-0.9985032354447428
-0.25470000000000004,-1.0093965124537037
-0.2556999999999999,-1.015904184433083
-0.25670000000000004,-1.023260683192381
-0.25769999999999993,-1.0341539602013416
-0.25870000000000004,-1.0416519300906264
-0.25969999999999993,-1.0504231401497897
-0.26070000000000004,-1.063155541848575
-0.26169999999999993,-1.0719267519077382
-0.26270000000000004,-1.0829615000466857
-0.26369999999999993,-1.0904594699359704
-0.26470000000000005,-1.0989477377351606
-0.26569999999999994,-1.110972783784013
-0.26670000000000005,-1.1320519821520023
-0.26769999999999994,-1.139267009781314
-0.26870000000000005,-1.1508676424402073
-0.26969999999999994,-1.159497381369384
-0.27070000000000005,-1.1708150717683043
-0.27169999999999994,-1.1832645312071168
-0.27270000000000005,-1.1998166534155377
-0.27369999999999994,-1.2150955354540802
-0.27470000000000006,-1.2245741011631757
-0.27569999999999995,-1.2351844359121635
-0.27670000000000006,-1.2493315489108139
-0.27769999999999995,-1.2619224794796127
-0.27870000000000006,-1.277484303778128
-0.27969999999999995,-1.2899337632169405
-0.28070000000000006,-1.3004026268359417
-0.28169999999999995,-1.3146912109645787
-0.28270000000000006,-1.3267162570134312
-0.28369999999999995,-1.3429854369618792
-0.28470000000000006,-1.3526054738009616
-0.28569999999999995,-1.3719870186091125
-0.28670000000000007,-1.3899538521173986
-0.28769999999999996,-1.4115989350053335
-0.28870000000000007,-1.4288584128636872
-0.28969999999999996,-1.4472496597619326
-0.29070000000000007,-1.4698850405597732
-0.29169999999999996,-1.4868615761581534
-0.29270000000000007,-1.5038381117565338
-0.29369999999999996,-1.5208146473549145
-0.2947000000000001,-1.53920589425316
-0.29569999999999996,-1.5632559863508655
-0.2967000000000001,-1.583061944548976
-0.29769999999999996,-1.6056973253468165
-0.2987000000000001,-1.6240885722450622
-0.29969999999999997,-1.6410651078434426
-0.3007000000000001,-1.6594563547416883
-0.30169999999999997,-1.6820917355395286
-0.3027000000000001,-1.7174595180361545
-0.30369999999999997,-1.7358507649344
-0.3047000000000001,-1.7556567231325106
-0.30569999999999997,-1.778292103930351
-0.3067000000000001,-1.7995127734283267
-0.3077,-1.8263922881257622
-0.3087000000000001,-1.8532718028231983
-0.3097,-1.8787366062207687
-0.3107000000000001,-1.9042014096183393
-0.3117,-1.9282515017160449
-0.3127000000000001,-1.9523015938137507
-0.3137,-1.9763516859114565
-0.3147000000000001,-2.0060606232086218
-0.3157,-2.038598983105518
-0.3167000000000001,-2.0668932091028185
-0.3177,-2.0937727238002544
-0.3187000000000001,-2.1206522384976902
-0.3197,-2.150361175794856
-0.3207000000000001,-2.1828995356917518
-0.3217,-2.215437895588648
-0.3227000000000001,-2.2437321215859485
-0.3237,-2.272026347583249
-0.3247000000000001,-2.3003205735805494
-0.3257,-2.3328589334774454
-0.3267000000000001,-2.382373828972722
-0.3277,-2.412082766269888
-0.3287000000000001,-2.4432064148669186
-0.3297,-2.4771594860636794
-0.3307000000000001,-2.506868423360845
-0.3317,-2.5379920719578757
-0.3327000000000001,-2.5747745657543666
-0.3337,-2.621460038649913
-0.3347000000000001,-2.663901377645864
-0.3357,-2.69643973754276
-0.3367000000000001,-2.7318075200393857
-0.3377,-2.768590013835877
-0.3387000000000001,-2.8039577963325026
-0.3397,-2.8534726918277786
-0.3407000000000001,-2.8987434534234597
-0.3417,-2.9397700811195464
-0.3427000000000001,-2.9807967088156326
-0.3437,-3.0161644913122583
-0.3447000000000001,-3.0529469851087487
-0.3457,-3.1067060145036205
-0.3467000000000001,-3.164709177798087
-0.3477,-3.2099799393937682
-0.3487000000000001,-3.2524212783897193
-0.3497,-3.2962773286855356
-0.3507000000000001,-3.347206935480677
-0.3517,-3.3953071196760884
-0.3527000000000001,-3.447651437771094
-0.3537,-3.4999957558661006
-0.3547000000000001,-3.543851806161917
-0.3557,-3.593366701657193
-0.35670000000000013,-3.6485404423519294
-0.3577,-3.7037141830466664
-0.35870000000000013,-3.7560585011416725
-0.3597,-3.801329262737354
-0.36070000000000013,-3.84518531303317
-0.3617,-3.903188476327636
-0.3626999999999999,-3.982412309120079
-0.3637,-4.04748902891387
-0.3646999999999999,-4.098418635709011
-0.3657,-4.152177665103882
-0.3666999999999999,-4.211595539698214
-0.3677,-4.276672259492005
-0.3686999999999999,-4.348822535785122
-0.36970000000000003,-4.411069832979184
-0.3706999999999999,-4.471902418873381
-0.37170000000000003,-4.5369791386671725
-0.3726999999999999,-4.607714703660425
-0.37370000000000003,-4.678450268653676
-0.3746999999999999,-4.737868143248008
-0.37570000000000003,-4.798700729142205
-0.3766999999999999,-4.866606871535726
-0.37770000000000004,-4.928854168729788
-0.3786999999999999,-5.020810403221016
-0.37970000000000004,-5.108522503812647
-0.3806999999999999,-5.1792580688059
-0.38170000000000004,-5.249993633799152
-0.38269999999999993,-5.3178997761926725
-0.38370000000000004,-5.39853832028498
-0.38469999999999993,-5.487665132176478
-0.38570000000000004,-5.5668889649689195
-0.38669999999999993,-5.641868663861766
-0.38770000000000004,-5.714018940154883
-0.38869999999999993,-5.781925082548405
-0.38970000000000005,-5.882369584838822
-0.39069999999999994,-5.99130235492843
-0.39170000000000005,-6.084673300719523
-0.39269999999999994,-6.1624824222121
-0.39370000000000005,-6.2431209663044065
-0.39469999999999994,-6.305368263498468
-0.39570000000000005,-6.40156863188929
-0.39669999999999994,-6.54728389577539
-0.39770000000000005,-6.653387243265268
-0.39869999999999994,-6.7410993438569
-0.39970000000000006,-6.831640867048262
-0.40069999999999995,-6.9122794111405685
-0.40170000000000006,-6.998576800432337
-0.40269999999999995,-7.083459478424238
-0.40370000000000006,-7.198051093713307
-0.40469999999999995,-7.33952222369981
-0.40570000000000006,-7.458357972888473
-0.40669999999999995,-7.5474847847799715
-0.40770000000000006,-7.630952751472008
-0.40869999999999995,-7.727153119862831
-0.40970000000000006,-7.847403580351358
-0.41069999999999995,-7.983215865138402
-0.41170000000000007,-8.10912517082639
-0.41269999999999996,-8.220887363515727
-0.41370000000000007,-8.325575999705741
-0.41469999999999996,-8.452900016693595
-0.41570000000000007,-8.594371146680096
-0.41669999999999996,-8.72169516366795
-0.41770000000000007,-8.823554377258235
-0.41869999999999996,-8.916925323049327
-0.4197000000000001,-9.051322896536504
-0.42069999999999996,-9.221088252520309
-0.4217000000000001,-9.382365340704922
-0.42269999999999996,-9.505445223793181
-0.4237000000000001,-9.61437799388279
-0.42469999999999997,-9.728969609171857
-0.4257000000000001,-9.854878914859846
-0.42669999999999997,-10.05010907424122
-0.4277000000000001,-10.225533275424485
-0.42869999999999997,-10.361345560211529
-0.4297000000000001,-10.477351886800463
-0.43069999999999997,-10.613164171587506
-0.4317000000000001,-10.790003084070635
-0.4327,-10.982403820852278
-0.4337000000000001,-11.135192641237705
-0.4347,-11.258272524325962
-0.4357000000000001,-11.382767118714085
-0.4367,-11.531311805199914
-0.4377000000000001,-11.744933211479534
-0.4387,-11.95996932905902
-0.4397000000000001,-12.122661128543498
-0.4407,-12.262717547230139
-0.4417000000000001,-12.394285698117587
-0.4427,-12.55273336370247
-0.4437000000000001,-12.817284376777232
-0.4447,-13.035149916956447
-0.4457000000000001,-13.217647674639037
-0.4467,-13.401560143621493
-0.4477000000000001,-13.5387871397084
-0.4487,-13.667525867996119
-0.4497000000000001,-13.841535357879518
-0.4507,-14.161260111649016
-0.4517000000000001,-14.415908145624723
-0.4527,-14.62811484060448
-0.4537000000000001,-14.797880196588284
-0.4547,-14.925204213576137
-0.4557000000000001,-15.05252823056399
-0.4567,-15.293029151541045
-0.4577000000000001,-15.731589654499205
-0.4587,-15.972090575476265
-0.4597000000000001,-16.15600304445872
-0.4607,-16.29747417444522
-0.4617000000000001,-16.438945304431726
-0.4627,-16.59456354741688
-0.4637000000000001,-16.90580003338719
-0.4647,-17.316066310348052
-0.4657000000000001,-17.599008570321057
-0.4667,-17.797068152302163
-0.4677000000000001,-17.938539282288666
-0.4687,-18.13659886426977
-0.4697000000000001,-18.44783535024008
-0.4707,-18.80151317520634
-0.4717000000000001,-19.084455435179343
-0.4727,-19.31080924315775
-0.4737000000000001,-19.508868825138855
-0.4747,-19.749369746115914
-0.4757000000000001,-20.117194684080822
-0.4767,-20.47087250904708
-0.4777000000000001,-20.75381476902009
-0.4787,-20.980168576998494
-0.4797000000000001,-21.248963723972853
-0.4807,-21.63093577493641
-0.48170000000000013,-21.99876071290132
-0.4827,-22.253408746877028
-0.48370000000000013,-22.42317410286083
-0.4847,-22.550498119848687
-0.48570000000000013,-23.003205735805498
-0.4867,-23.54079602975421
-0.4876999999999999,-23.88032674172182
-0.4887,-24.23400456668808
-0.4896999999999999,-24.502799713662437
-0.4907,-24.686712182644893
-0.4916999999999999,-24.898918877624645
-0.4927,-25.309185154585506
-0.4936999999999999,-25.846775448534224
-0.49470000000000003,-26.242894612496432
-0.4956999999999999,-26.497542646472137
-0.49670000000000003,-26.65316088945729
-0.4976999999999999,-26.936103149430302
-0.49870000000000003,-27.65760591236147
-0.4996999999999999,-28.011283737327723
-0.5007,-28.407402901289935
-0.5016999999999999,-28.775227839254843
-0.5027,-29.086464325225155
