Potential V vs RHE, Current mA cm-2
0.013299999999999867,-0.030897294789052406
0.012299999999999978,-0.08682083247271731
0.011299999999999866,-0.11643073997889253
0.010299999999999976,-0.14117404061353203
0.009299999999999864,-0.1585891367148706
0.008299999999999974,-0.1731606631034805
0.007299999999999862,-0.19013719870186094
0.006299999999999972,-0.2040013694405383
0.00529999999999986,-0.21291405062968802
0.0042999999999999705,-0.2228170297287433
0.0032999999999998586,-0.23144676865792
0.0022999999999999687,-0.24248151679686727
0.0012999999999998568,-0.2540821494557606
0.00029999999999996696,-0.2631363017748969
-0.000700000000000145,-0.269361031494303
-0.0017000000000000348,-0.28308373110299384
-0.0027000000000001467,-0.289025518562427
-0.0037000000000000366,-0.29397700811195465
-0.0047000000000001485,-0.2992114399214552
-0.005700000000000038,-0.30529469851087493
-0.00670000000000015,-0.30897294789052404
-0.00770000000000004,-0.31632944664982215
-0.008700000000000152,-0.3194418115095253
-0.009700000000000042,-0.3236859454091204
-0.010700000000000154,-0.3260909546188909
-0.011700000000000044,-0.3287789060886345
-0.012700000000000156,-0.3345792224180812
-0.013700000000000045,-0.33769158727778426
-0.014700000000000157,-0.34037953874752785
-0.015700000000000047,-0.34037953874752785
-0.01670000000000016,-0.3405210098775144
-0.01770000000000005,-0.3456139705570285
-0.01870000000000016,-0.346321326206961
-0.01970000000000005,-0.3492922199366776
-0.020700000000000163,-0.3502825178465831
-0.021700000000000053,-0.34915074880669106
-0.022700000000000164,-0.35240458479638065
-0.023700000000000054,-0.3538192960962457
-0.024700000000000166,-0.3552340073961107
-0.025700000000000056,-0.35537547852609724
-0.026700000000000168,-0.3542437094862052
-0.027700000000000058,-0.35622430530601623
-0.02870000000000017,-0.35636577643600276
-0.02970000000000006,-0.36018549694563834
-0.03070000000000017,-0.3580634299958408
-0.03170000000000006,-0.35594136304604324
-0.03270000000000017,-0.3591951990357328
-0.03370000000000006,-0.3589122567757598
-0.034700000000000175,-0.35792195886585426
-0.035700000000000065,-0.3583463722558138
-0.03670000000000018,-0.3589122567757598
-0.03770000000000007,-0.35990255468566534
-0.03870000000000018,-0.35961961242569235
-0.03970000000000007,-0.35990255468566534
-0.04070000000000018,-0.3586293145157868
-0.04170000000000007,-0.3591951990357328
-0.04270000000000018,-0.3600440258156518
-0.04370000000000007,-0.3577804877358678
-0.044700000000000184,-0.3586293145157868
-0.045700000000000074,-0.3574975454758948
-0.046700000000000186,-0.3574975454758948
-0.047700000000000076,-0.35990255468566534
-0.04870000000000019,-0.35905372790574636
-0.04970000000000008,-0.3583463722558138
-0.05070000000000019,-0.35792195886585426
-0.05170000000000008,-0.35792195886585426
-0.05270000000000019,-0.3580634299958408
-0.05370000000000008,-0.3583463722558138
-0.05470000000000019,-0.3582049011258273
-0.05570000000000008,-0.35622430530601623
-0.056700000000000195,-0.35693166095594875
-0.057700000000000085,-0.35961961242569235
-0.058700000000000196,-0.3580634299958408
-0.059700000000000086,-0.3584878433858003
-0.0607000000000002,-0.3574975454758948
-0.06170000000000009,-0.3574975454758948
-0.0627000000000002,-0.3583463722558138
-0.06370000000000009,-0.3586293145157868
-0.0647000000000002,-0.35735607434590827
-0.06570000000000009,-0.35792195886585426
-0.0667000000000002,-0.3567901898259622
-0.0677000000000001,-0.3570731320859353
-0.0687000000000002,-0.35961961242569235
-0.0697000000000001,-0.3574975454758948
-0.07070000000000021,-0.35608283417602976
-0.0717000000000001,-0.35933667016571935
-0.07270000000000021,-0.3584878433858003
-0.0737000000000001,-0.3591951990357328
-0.07470000000000021,-0.3597610835556788
-0.0757000000000001,-0.3567901898259622
-0.07670000000000021,-0.35735607434590827
-0.0777000000000001,-0.35905372790574636
-0.07870000000000021,-0.3614587371155169
-0.0797000000000001,-0.3603269680756248
-0.08070000000000022,-0.3589122567757598
-0.0817000000000001,-0.35905372790574636
-0.08270000000000022,-0.3597610835556788
-0.08370000000000011,-0.3614587371155169
-0.08470000000000022,-0.36343933293532793
-0.08570000000000011,-0.3603269680756248
-0.08670000000000022,-0.36244903502542236
-0.08770000000000011,-0.36244903502542236
-0.08870000000000022,-0.3625905061554089
-0.08970000000000011,-0.36343933293532793
-0.09070000000000022,-0.3617416793754899
-0.09170000000000011,-0.36358080406531446
-0.09270000000000023,-0.365702871015112
-0.09370000000000012,-0.3652784576251525
-0.09470000000000023,-0.3652784576251525
-0.09570000000000012,-0.3649955153651795
-0.09670000000000023,-0.3647125731052065
-0.09770000000000012,-0.36683464005500405
-0.09870000000000023,-0.36839082248485555
-0.09970000000000012,-0.36768346683492303
-0.10070000000000023,-0.36740052457495004
-0.10170000000000012,-0.3672590534449635
-0.10270000000000024,-0.36768346683492303
-0.10370000000000013,-0.366268755535058
-0.10470000000000024,-0.3688152358748151
-0.10570000000000013,-0.3695225915247476
-0.10670000000000024,-0.37192760073451814
-0.10770000000000013,-0.3717861296045316
-0.10870000000000024,-0.3720690718645046
-0.10970000000000013,-0.37192760073451814
-0.11070000000000024,-0.3717861296045316
-0.11170000000000013,-0.37192760073451814
-0.11270000000000002,-0.3744740810742752
-0.11370000000000013,-0.3744740810742752
-0.11470000000000002,-0.3734837831643697
-0.11570000000000014,-0.3737667254243427
-0.11670000000000003,-0.37461555220426174
-0.11770000000000014,-0.37617173463411324
-0.11870000000000003,-0.3773035036740053
-0.11970000000000014,-0.37772791706396475
-0.12070000000000003,-0.3740496676843157
-0.12170000000000014,-0.37560585011416725
-0.12270000000000003,-0.37885968610385684
-0.12370000000000014,-0.37942557062380283
-0.12470000000000003,-0.3798499840137623
-0.12570000000000014,-0.37815233045392427
-0.12670000000000003,-0.37716203254401875
-0.12770000000000015,-0.38041586853370835
-0.12870000000000004,-0.38055733966369487
-0.12970000000000015,-0.3818305798335734
-0.13070000000000004,-0.38013292627373535
-0.13170000000000015,-0.3812646953136274
-0.13270000000000004,-0.3828208777434789
-0.13370000000000015,-0.38197205096355985
-0.13470000000000004,-0.3823964643535194
-0.13570000000000015,-0.38013292627373535
-0.13670000000000004,-0.3818305798335734
-0.13770000000000016,-0.38664059825311453
-0.13870000000000005,-0.384518531303317
-0.13970000000000016,-0.384518531303317
-0.14070000000000005,-0.38480147356329
-0.14170000000000016,-0.38338676226342494
-0.14270000000000005,-0.385933242603182
-0.14370000000000016,-0.38607471373316854
-0.14470000000000005,-0.3872064827730605
-0.14570000000000016,-0.386499127123128
-0.14670000000000005,-0.38791383842299304
-0.14770000000000016,-0.386216184863155
-0.14870000000000005,-0.38862119407292556
-0.14970000000000017,-0.3898944342428041
-0.15070000000000006,-0.3874894250330335
-0.15170000000000017,-0.3881967806829661
-0.15270000000000006,-0.38918707859287155
-0.15370000000000017,-0.3900359053727906
-0.15470000000000006,-0.3903188476327636
-0.15570000000000017,-0.38961149198283107
-0.15670000000000006,-0.3910262032826961
-0.15770000000000017,-0.3917335589326287
-0.15870000000000006,-0.39229944345257467
-0.15970000000000018,-0.39244091458256114
-0.16070000000000007,-0.3920165011926017
-0.16170000000000018,-0.39357268362245323
-0.16270000000000007,-0.3937141547524397
-0.16370000000000018,-0.3954118083122777
-0.16470000000000007,-0.3959776928322238
-0.16570000000000018,-0.3941385681423992
-0.16670000000000007,-0.39696799074212924
-0.16770000000000018,-0.39682651961214277
-0.16870000000000007,-0.3978168175220483
-0.16970000000000018,-0.3978168175220483
-0.17070000000000007,-0.39682651961214277
-0.17170000000000019,-0.3986656443019673
-0.17270000000000008,-0.4007877112517649
-0.1737000000000002,-0.4013535957717109
-0.17470000000000008,-0.39965594221187284
-0.1757000000000002,-0.40022182673181883
-0.17670000000000008,-0.40290977820156243
-0.1777000000000002,-0.40489037402137346
-0.17870000000000008,-0.40531478741133303
-0.1797000000000002,-0.4031927204615355
-0.18070000000000008,-0.4019194802916569
-0.1817000000000002,-0.40573920080129255
-0.18270000000000008,-0.4084271522710361
-0.1837000000000002,-0.40970039244091466
-0.1847000000000001,-0.4081442100110631
-0.1857000000000002,-0.40998333470088766
-0.1867000000000001,-0.41026627696086065
-0.1877000000000002,-0.4121054016506852
-0.1887000000000001,-0.4128127573006177
-0.1897000000000002,-0.4122468727806717
-0.1907000000000001,-0.4149348242504153
-0.1917000000000001,-0.4118224593907122
-0.19269999999999998,-0.41818866024010487
-0.1937000000000001,-0.4190374870200239
-0.19469999999999998,-0.4190374870200239
-0.1957000000000001,-0.42002778492992937
-0.19669999999999999,-0.42172543848976746
-0.1977000000000001,-0.423564563179592
-0.1987,-0.423847505439565
-0.1997000000000001,-0.423564563179592
-0.2007,-0.4263939857793221
-0.2017000000000001,-0.4280916393391601
-0.2027,-0.4263939857793221
-0.2037000000000001,-0.4333260711486608
-0.2047,-0.4312040041988632
-0.2057000000000001,-0.43304312888868773
-0.2067,-0.43587255148841775
-0.2077000000000001,-0.43898491634812087
-0.2087,-0.43898491634812087
-0.2097000000000001,-0.4396922719980534
-0.2107,-0.44167286781786447
-0.2117000000000001,-0.4436534636376755
-0.2127,-0.44761465527729766
-0.2137000000000001,-0.45100996239697366
-0.2147,-0.45086849126698714
-0.2157000000000001,-0.4522832025668522
-0.2167,-0.4542637983866633
-0.21770000000000012,-0.4572346921163799
-0.2187,-0.45963970132615045
-0.21970000000000012,-0.4604885281060694
-0.2207,-0.46388383522574556
-0.22170000000000012,-0.465157075395624
-0.2227,-0.46897679590525965
-0.22370000000000012,-0.4740697565847738
-0.2247,-0.4744941699747333
-0.22570000000000012,-0.4764747657945444
-0.2267,-0.4793041883942744
-0.22770000000000012,-0.48284096664393705
-0.22870000000000001,-0.48651921602358617
-0.22970000000000013,-0.48694362941354563
-0.23070000000000002,-0.49260247461300577
-0.23170000000000013,-0.4943001281728438
-0.23270000000000002,-0.4978369064225064
-0.23370000000000013,-0.502222511452088
-0.23470000000000002,-0.5040616361419126
-0.23570000000000013,-0.5077398855215616
-0.23670000000000002,-0.5117010771611837
-0.2376999999999999,-0.5146719708909003
-0.23870000000000002,-0.5189161047904954
-0.2396999999999999,-0.5223114119101716
-0.24070000000000003,-0.5261311324198072
-0.24169999999999991,-0.5316485064892809
-0.24270000000000003,-0.5356096981289029
-0.24369999999999992,-0.539287947508552
-0.24470000000000003,-0.5416929567183226
-0.24569999999999992,-0.5473518019177827
-0.24670000000000003,-0.5531521182472294
-0.24769999999999992,-0.5565474253669055
-0.24870000000000003,-0.562347741696352
-0.24969999999999992,-0.5657430488160282
-0.25070000000000003,-0.5694212981956773
-0.2516999999999999,-0.576636325824989
-0.25270000000000004,-0.5837098823243142
-0.2536999999999999,-0.5876710739639363
-0.25470000000000004,-0.5926225635134639
-0.2556999999999999,-0.5984228798429104
-0.25670000000000004,-0.6025255426125191
-0.25769999999999993,-0.6107308681517364
-0.25870000000000004,-0.6176629535210749
-0.25969999999999993,-0.6219070874206701
-0.26070000000000004,-0.6274244614901437
-0.26169999999999993,-0.634215075729496
-0.26270000000000004,-0.6402983343189155
-0.26369999999999993,-0.6476548330782137
-0.26470000000000005,-0.658689581217161
-0.26569999999999994,-0.6616604749468776
-0.26670000000000005,-0.6692999159661489
-0.26769999999999994,-0.6773637703753796
-0.26870000000000005,-0.6857105670445833
-0.26969999999999994,-0.6903791143341379
-0.27070000000000005,-0.6980185553534091
-0.27169999999999994,-0.7087703612323834
-0.27270000000000005,-0.7161268599916816
-0.27369999999999994,-0.7251810123108178
-0.27470000000000006,-0.73197162655017
-0.27569999999999995,-0.7379134140096032
-0.27670000000000006,-0.7482408064986178
-0.27769999999999995,-0.7596999680275246
-0.27870000000000006,-0.7676223513067688
-0.27969999999999995,-0.774412965546121
-0.28070000000000006,-0.7830427044752977
-0.28169999999999995,-0.7937945103542721
-0.28270000000000006,-0.8053951430131653
-0.28369999999999995,-0.8151566509822342
-0.28470000000000006,-0.8223716786115459
-0.28569999999999995,-0.8307184752807496
-0.28670000000000007,-0.8427435213296024
-0.28769999999999996,-0.8547685673784552
-0.28870000000000007,-0.8669350845572944
-0.28969999999999996,-0.8755648234864712
-0.29070000000000007,-0.8858922159754858
-0.29169999999999996,-0.8966440218544603
-0.29270000000000007,-0.9106496637231241
-0.29369999999999996,-0.9223917675120039
-0.2947000000000001,-0.932860631131005
-0.29569999999999996,-0.9430465524900334
-0.2967000000000001,-0.9556374830588322
-0.29769999999999996,-0.9686528270175907
-0.2987000000000001,-0.9820925843663083
-0.29969999999999997,-0.9968055818849048
-0.3007000000000001,-1.0071329743739197
-0.30169999999999997,-1.020431260592651
-0.3027000000000001,-1.0345783735913012
-0.30369999999999997,-1.0478766598100326
-0.3047000000000001,-1.0647117242784265
-0.30569999999999997,-1.0778685393671714
-0.3067000000000001,-1.0913082967158894
-0.3077,-1.1064457076244452
-0.3087000000000001,-1.1214416474030147
-0.3097,-1.137569356221476
-0.3107000000000001,-1.1542629495598833
-0.3117,-1.1696833027284124
-0.3127000000000001,-1.1855280692869008
-0.3137,-1.200241066805497
-0.3147000000000001,-1.2160858333639855
-0.3157,-1.2350429647821768
-0.3167000000000001,-1.2531512694204494
-0.3177,-1.2738060543984788
-0.3187000000000001,-1.2889434653070349
-0.3197,-1.3042223473455772
-0.3207000000000001,-1.3219062385938902
-0.3217,-1.3444001482617445
-0.3227000000000001,-1.3661867022796659
-0.3237,-1.3842950069179385
-0.3247000000000001,-1.4032521383361298
-0.3257,-1.421784856364362
-0.3267000000000001,-1.4415908145624723
-0.3277,-1.462811484060448
-0.3287000000000001,-1.4840321535584236
-0.3297,-1.5094969569559942
-0.3307000000000001,-1.5293029151541047
-0.3317,-1.5491088733522151
-0.3327000000000001,-1.5717442541500557
-0.3337,-1.5929649236480312
-0.3347000000000001,-1.6156003044458718
-0.3357,-1.6424798191433077
-0.3367000000000001,-1.6665299112410132
-0.3377,-1.690580003338719
-0.3387000000000001,-1.7132153841365596
-0.3397,-1.7358507649344
-0.3407000000000001,-1.7627302796318356
-0.3417,-1.7924392169290013
-0.3427000000000001,-1.8193187316264372
-0.3437,-1.8433688237241426
-0.3447000000000001,-1.8702483384215782
-0.3457,-1.895713141819149
-0.3467000000000001,-1.9197632339168547
-0.3477,-1.9537163051136157
-0.3487000000000001,-1.9834252424107812
-0.3497,-2.0103047571082175
-0.3507000000000001,-2.0371842718056525
-0.3517,-2.0640637865030884
-0.3527000000000001,-2.095187435100119
-0.3537,-2.12914050629688
-0.3547000000000001,-2.1602641548939108
-0.3557,-2.1913878034909415
-0.35670000000000013,-2.2196820294882422
-0.3577,-2.249390966785408
-0.35870000000000013,-2.280514615382439
-0.3597,-2.3172971091789303
-0.36070000000000013,-2.354079602975421
-0.3617,-2.388032674172182
-0.3626999999999999,-2.424815167968673
-0.3637,-2.4545241052658384
-0.3646999999999999,-2.4842330425630044
-0.3657,-2.5238449589592253
-0.3666999999999999,-2.5662862979551764
-0.3677,-2.6030687917516673
-0.3686999999999999,-2.6384365742482934
-0.36970000000000003,-2.6723896454450546
-0.3706999999999999,-2.706342716641815
-0.37170000000000003,-2.7501987669376318
-0.3726999999999999,-2.798298951133043
-0.37370000000000003,-2.833666733629668
-0.3746999999999999,-2.8718639387260247
-0.37570000000000003,-2.9086464325225156
-0.3766999999999999,-2.942599503719276
-0.37770000000000004,-2.996358533114148
-0.3786999999999999,-3.047288139909289
-0.37970000000000004,-3.0854853450056448
-0.3806999999999999,-3.129341395301461
-0.38170000000000004,-3.1703680229975473
-0.38269999999999993,-3.2099799393937682
-0.38370000000000004,-3.2524212783897193
-0.38469999999999993,-3.2991067512852656
-0.38570000000000004,-3.355695203279867
-0.38669999999999993,-3.405210098775143
-0.38770000000000004,-3.453310282970554
-0.38869999999999993,-3.4943369106666404
-0.38970000000000005,-3.543851806161917
-0.39069999999999994,-3.5976108355567886
-0.39170000000000005,-3.6527845762515243
-0.39269999999999994,-3.7037141830466664
-0.39370000000000005,-3.748984944642347
-0.39469999999999994,-3.794255706238028
-0.39570000000000005,-3.8466000243330347
-0.39669999999999994,-3.9130914554266916
-0.39770000000000005,-3.9767534639206183
-0.39869999999999994,-4.027683070715759
-0.39970000000000006,-4.074368543611305
-0.40069999999999995,-4.122468727806717
-0.40170000000000006,-4.1833013137009125
-0.40269999999999995,-4.25545158999403
-0.40370000000000006,-4.3205283097878215
-0.40469999999999995,-4.378531473082289
-0.40570000000000006,-4.4379493476766205
-0.40669999999999995,-4.495952510971087
-0.40770000000000006,-4.556785096865283
-0.40869999999999995,-4.61761768275948
-0.40970000000000006,-4.691182670352461
-0.41069999999999995,-4.756259390146253
-0.41170000000000007,-4.81709197604045
-0.41269999999999996,-4.870851005435322
-0.41370000000000007,-4.9302688800296535
-0.41469999999999996,-4.996760311123309
-0.41570000000000007,-5.0943753908139975
-0.41669999999999996,-5.167940378406978
-0.41770000000000007,-5.23301709820077
-0.41869999999999996,-5.296679106694698
-0.4197000000000001,-5.368829382987815
-0.42069999999999996,-5.4551267722795815
-0.4217000000000001,-5.538594738971618
-0.42269999999999996,-5.616403860464195
-0.4237000000000001,-5.689968848057178
-0.42469999999999997,-5.75504556785097
-0.4257000000000001,-5.821536998944626
-0.42669999999999997,-5.899346120437204
-0.4277000000000001,-6.009693601826676
-0.42869999999999997,-6.1044792589176335
-0.4297000000000001,-6.1907766482094
-0.43069999999999997,-6.270000481001842
-0.4317000000000001,-6.34498017989469
-0.4327,-6.414301033588076
-0.4337000000000001,-6.502013134179709
-0.4347,-6.633581285067157
-0.4357000000000001,-6.7283669421581145
-0.4367,-6.824567310548938
-0.4377000000000001,-6.90944998854084
-0.4387,-6.988673821333281
-0.4397000000000001,-7.063653520226129
-0.4407,-7.16268331121668
-0.4417000000000001,-7.302739729903319
-0.4427,-7.414501922592657
-0.4437000000000001,-7.514946424883075
-0.4447,-7.6012438141748415
-0.4457000000000001,-7.697444182565665
-0.4467,-7.813450509154598
-0.4477000000000001,-7.94360394874218
-0.4487,-8.055366141431518
-0.4497000000000001,-8.154395932422071
-0.4507,-8.24352274431357
-0.4517000000000001,-8.355284937002907
-0.4527,-8.496756066989409
-0.4537000000000001,-8.629738929176723
-0.4547,-8.748574678365387
-0.4557000000000001,-8.84477504675621
-0.4567,-8.939560703847167
-0.4577000000000001,-9.049908185236639
-0.4587,-9.2295765203195
-0.4597000000000001,-9.393683031103844
-0.4607,-9.523836470691428
-0.4617000000000001,-9.65116048767928
-0.4627,-9.765752102968348
-0.4637000000000001,-9.871855450458227
-0.4647,-10.006253023945405
-0.4657000000000001,-10.194409626827454
-0.4667,-10.367004405410988
-0.4677000000000001,-10.504231401497897
-0.4687,-10.62023772808683
-0.4697000000000001,-10.731999920776168
-0.4707,-10.883374029861727
-0.4717000000000001,-11.082848323142695
-0.4727,-11.279493193823937
-0.4737000000000001,-11.436526148108957
-0.4747,-11.565264876396675
-0.4757000000000001,-11.681271202985608
-0.4767,-11.835474734670896
-0.4777000000000001,-12.071731521748358
-0.4787,-12.276864660228789
-0.4797000000000001,-12.448044727512457
-0.4807,-12.613565949596667
-0.48170000000000013,-12.73806054398479
-0.4827,-12.865384560972643
-0.48370000000000013,-13.033735205656583
-0.4847,-13.309603909130265
-0.48570000000000013,-13.531713583209076
-0.4867,-13.732602587789911
-0.4876999999999999,-13.88963554207493
-0.4887,-14.01271542516319
-0.4896999999999999,-14.13438059695158
-0.4907,-14.331025467632822
-0.4916999999999999,-14.67055617960043
-0.4927,-14.925204213576137
-0.4936999999999999,-15.137410908555893
-0.49470000000000003,-15.321323377538347
-0.4956999999999999,-15.462794507524851
-0.49670000000000003,-15.590118524512702
-0.4976999999999999,-15.74573676749786
-0.49870000000000003,-16.099414592464115
-0.4996999999999999,-16.438945304431726
