Potential V vs RHE, Current mA cm-2
0.013299999999999867,13.257259591035258
0.012299999999999978,12.210373229135131
0.011299999999999866,11.38135240741422
0.010299999999999976,10.553746296993173
0.009299999999999864,9.768581525568079
0.008299999999999974,9.157426244026382
0.007299999999999862,8.590127012780503
0.006299999999999972,8.110539882126256
0.00529999999999986,7.630952751472008
0.0042999999999999705,7.107509570521944
0.0032999999999998586,6.5840663895718805
0.0022999999999999687,6.016767158326001
0.0012999999999998568,5.581036077967569
0.00029999999999996696,5.18774633660509
-0.000700000000000145,4.839727356838291
-0.0017000000000000348,4.44643761547581
-0.0027000000000001467,4.01070653511738
-0.0037000000000000366,3.5311194044631313
-0.0047000000000001485,3.0939736128048354
-0.005700000000000038,2.7898106833338523
-0.00670000000000015,2.4842330425630044
-0.00770000000000004,2.178655401792157
-0.008700000000000152,1.8292217107254924
-0.009700000000000042,1.4373466806628774
-0.010700000000000154,1.0010497157844997
-0.011700000000000044,0.6520404381077953
-0.012700000000000156,0.3903188476327636
-0.013700000000000045,0.12863969849672777
-0.014700000000000157,-0.1330535977523067
-0.015700000000000047,-0.4384190318281749
-0.01670000000000016,-0.8745745255765657
-0.01770000000000005,-1.1798692240874404
-0.01870000000000016,-1.4854468648582886
-0.01970000000000005,-1.7471684553333202
-0.020700000000000163,-1.9650339955125358
-0.021700000000000053,-2.226755585987568
-0.022700000000000164,-2.532333226758415
-0.023700000000000054,-2.8803522065252145
-0.024700000000000166,-3.2297858975918787
-0.025700000000000056,-3.447651437771094
-0.026700000000000168,-3.623075638954359
-0.027700000000000058,-3.840941179133574
-0.02870000000000017,-4.102662769608606
-0.02970000000000006,-4.406825699079589
-0.03070000000000017,-4.756259390146253
-0.03170000000000006,-5.017980980621284
-0.03270000000000017,-5.235846520800501
-0.03370000000000006,-5.411270721983764
-0.034700000000000175,-5.585280211867165
-0.035700000000000065,-5.890857852638012
-0.03670000000000018,-6.196435493408861
-0.03770000000000007,-6.458157083883892
-0.03870000000000018,-6.719878674358924
-0.03970000000000007,-6.850032113946507
-0.04070000000000018,-7.024041603829907
-0.04170000000000007,-7.243321855308987
-0.04270000000000018,-7.5474847847799715
-0.04370000000000007,-7.853062425550818
-0.044700000000000184,-8.11478401602585
-0.045700000000000074,-8.332649556205066
-0.046700000000000186,-8.508073757388331
-0.047700000000000076,-8.638227196975913
-0.04870000000000019,-8.85609273715513
-0.04970000000000008,-9.11781432763016
-0.05070000000000019,-9.423391968401008
-0.05170000000000008,-9.641257508580225
-0.05270000000000019,-9.81668170976349
-0.05370000000000008,-9.946835149351072
-0.05470000000000019,-10.120844639234473
-0.05570000000000008,-10.382566229709504
-0.056700000000000195,-10.644287820184536
-0.057700000000000085,-10.906009410659568
-0.058700000000000196,-11.123874950838783
-0.059700000000000086,-11.299299152022046
-0.0607000000000002,-11.42945259160963
-0.06170000000000009,-11.647318131788847
-0.0627000000000002,-11.86659838326793
-0.06370000000000009,-12.170761312738911
-0.0647000000000002,-12.432482903213943
-0.06570000000000009,-12.607907104397206
-0.0667000000000002,-12.73806054398479
-0.0677000000000001,-12.913484745168056
-0.0687000000000002,-13.087494235051453
-0.0697000000000001,-13.349215825526485
-0.07070000000000021,-13.654793466297335
-0.0717000000000001,-13.872659006476551
-0.07270000000000021,-14.002812446064135
-0.0737000000000001,-14.13438059695158
-0.07470000000000021,-14.30273124163552
-0.0757000000000001,-14.529085049613924
-0.07670000000000021,-14.741291744593681
-0.0777000000000001,-15.01008689156804
-0.07870000000000021,-15.179852247551842
-0.0797000000000001,-15.307176264539699
-0.08070000000000022,-15.448647394526201
-0.0817000000000001,-15.618412750510005
-0.08270000000000022,-15.830619445489761
-0.08370000000000011,-16.099414592464115
-0.08470000000000022,-16.354062626439823
-0.08570000000000011,-16.580416434418233
-0.08670000000000022,-16.70774045140608
-0.08770000000000011,-16.877505807389888
-0.08870000000000022,-17.061418276372343
-0.08970000000000011,-17.316066310348052
-0.09070000000000022,-17.584861457322408
-0.09170000000000011,-17.797068152302163
-0.09270000000000023,-17.924392169290012
-0.09370000000000012,-18.009274847281915
-0.09470000000000023,-18.19318731626437
-0.09570000000000012,-18.44783535024008
-0.09670000000000023,-18.716630497214435
-0.09770000000000012,-18.97127853119014
-0.09870000000000023,-19.197632339168546
-0.09970000000000012,-19.3249563561564
-0.10070000000000023,-19.409839034148305
-0.10170000000000012,-19.636192842126707
-0.10270000000000024,-19.890840876102416
-0.10370000000000013,-20.159636023076775
-0.10470000000000024,-20.414284057052477
-0.10570000000000013,-20.626490752032236
-0.10670000000000024,-20.76796188201874
-0.10770000000000013,-20.93772723800254
-0.10870000000000024,-21.2065223849769
-0.10970000000000013,-21.461170418952605
-0.11070000000000024,-21.729965565926964
-0.11170000000000013,-21.94217226090672
-0.11270000000000002,-22.111937616890522
-0.11370000000000013,-22.196820294882425
-0.11470000000000002,-22.38073276386488
-0.11570000000000014,-22.63538079784059
-0.11670000000000003,-22.946617283810895
-0.11770000000000014,-23.2012653177866
-0.11870000000000003,-23.342736447773106
-0.11970000000000014,-23.385177786769056
-0.12070000000000003,-23.55494314275286
-0.12170000000000014,-23.767149837732617
-0.12270000000000003,-24.078386323702922
-0.12370000000000014,-24.432064148669184
-0.12470000000000003,-24.686712182644893
-0.12570000000000014,-24.870624651627345
-0.12670000000000003,-24.997948668615198
-0.12770000000000015,-25.167714024599
-0.12870000000000004,-25.39406783257741
-0.12970000000000015,-25.73359854454502
-0.13070000000000004,-26.087276369511276
-0.13170000000000015,-26.34192440348698
-0.13270000000000004,-26.568278211465387
-0.13370000000000015,-26.738043567449193
-0.13470000000000004,-26.86536758443705
-0.13570000000000015,-27.091721392415455
-0.13670000000000004,-27.303928087395207
-0.13770000000000016,-27.530281895373616
-0.13870000000000005,-27.742488590353368
-0.13970000000000016,-27.954695285333123
-0.14070000000000005,-28.13860775431558
-0.14170000000000016,-28.350814449295335
-0.14270000000000005,-28.662050935265643
-0.14370000000000016,-28.959140308237306
-0.14470000000000005,-29.22793545521166
-0.14570000000000016,-29.440142150191413
-0.14670000000000005,-29.581613280177915
-0.14770000000000016,-29.708937297165768
-0.14870000000000005,-29.921143992145527
-0.14970000000000017,-30.189939139119886
-0.15070000000000006,-30.444587173095588
-0.15170000000000017,-30.670940981073993
-0.15270000000000006,-30.8407063370578
-0.15370000000000017,-31.23682550102001
-0.15470000000000006,-31.49147353499572
-0.15570000000000017,-31.717827342974125
-0.15670000000000006,-32.01491671594578
-0.15770000000000017,-32.283711862920136
-0.15870000000000006,-32.49591855789989
-0.15970000000000018,-32.66568391388369
-0.16070000000000007,-32.807155043870196
-0.16170000000000018,-33.06180307784591
-0.16270000000000007,-33.373039563816214
-0.16370000000000018,-33.81160006677438
-0.16470000000000007,-34.193572117737936
-0.16570000000000018,-34.50480860370825
-0.16670000000000007,-34.67457395969205
-0.16770000000000018,-34.8018979766799
-0.16870000000000007,-34.98581044566235
-0.16970000000000018,-35.240458479638065
-0.17070000000000007,-35.50925362661242
-0.17170000000000019,-35.721460321592176
-0.17270000000000008,-35.90537279057463
-0.1737000000000002,-36.03269680756248
-0.17470000000000008,-36.244903502542236
-0.1757000000000002,-36.55613998851254
-0.17670000000000008,-36.95225915247476
-0.1777000000000002,-37.291789864442364
-0.17870000000000008,-37.51814367242077
-0.1797000000000002,-37.73035036740053
-0.18070000000000008,-37.90011572338433
-0.1817000000000002,-38.12646953136274
-0.18270000000000008,-38.42355890433439
-0.1837000000000002,-38.777236729300654
-0.1847000000000001,-39.046031876275016
-0.1857000000000002,-39.21579723225882
-0.1867000000000001,-39.34312124924667
-0.1877000000000002,-39.47044526623452
-0.1887000000000001,-39.696799074212926
-0.1897000000000002,-39.95144710818864
-0.1907000000000001,-40.30512493315489
-0.1917000000000001,-40.559772967130606
-0.19269999999999998,-40.78612677510901
-0.1937000000000001,-40.95589213109281
-0.19469999999999998,-41.182245939071215
-0.1957000000000001,-41.47933531204288
-0.19669999999999999,-41.79057179801318
-0.1977000000000001,-42.130102509980794
-0.1987,-42.39889765695515
-0.1997000000000001,-42.6111043519349
-0.2007,-42.79501682091736
-0.2017000000000001,-43.04966485489307
-0.2027,-43.40334267985933
-0.2037000000000001,-43.75702050482558
-0.2047,-44.054109877797245
-0.2057000000000001,-44.3229050247716
-0.2067,-44.535111719751356
-0.2077000000000001,-44.704877075735155
-0.2087,-45.01611356170547
-0.2097000000000001,-45.36979138667173
-0.2107,-45.75176343763528
-0.2117000000000001,-46.062999923605595
-0.2127,-46.27520661858535
-0.2137000000000001,-46.501560426563756
-0.2147,-46.713767121543505
-0.2157000000000001,-47.10988628550572
-0.2167,-47.54844678846388
-0.21770000000000012,-47.93041883942744
-0.2187,-48.2840966643937
-0.21970000000000012,-48.55289181136806
-0.2207,-48.76509850634781
-0.22170000000000012,-49.03389365332217
-0.2227,-49.41586570428573
-0.22370000000000012,-49.81198486824794
-0.2247,-50.1656626932142
-0.22570000000000012,-50.50519340518181
-0.2267,-50.77398855215617
-0.22770000000000012,-51.028636586131874
-0.22870000000000001,-51.424755750094086
-0.22970000000000013,-51.82087491405629
-0.23070000000000002,-52.30187675601041
-0.23170000000000013,-52.74043725896857
-0.23270000000000002,-53.16485064892808
-0.23370000000000013,-53.30632177891458
-0.23470000000000002,-53.476087134898386
-0.23570000000000013,-53.82976495986464
-0.23670000000000002,-54.2117370108282
-0.2376999999999999,-54.65029751378637
-0.23870000000000002,-55.046416677748574
-0.2396999999999999,-55.357653163718886
-0.24070000000000003,-55.65474253669055
-0.24169999999999991,-56.008420361656796
-0.24270000000000003,-56.44698086461496
-0.24369999999999992,-56.927982706569075
-0.24470000000000003,-57.352396096528594
-0.24569999999999992,-57.70607392149485
-0.24670000000000003,-58.017310407465146
-0.24769999999999992,-58.35684111943277
-0.24870000000000003,-58.75296028339497
-0.24969999999999992,-59.19152078635314
-0.25070000000000003,-59.67252262830725
-0.2516999999999999,-60.11108313126541
-0.25270000000000004,-60.45061384323302
-0.2536999999999999,-60.761850329203334
-0.25470000000000004,-61.15796949316553
-0.2556999999999999,-61.53994154412909
-0.25670000000000004,-62.02094338608321
-0.25769999999999993,-62.459503889041365
-0.25870000000000004,-62.81318171400764
-0.25969999999999993,-63.06782974798333
-0.26070000000000004,-63.3366248949577
-0.26169999999999993,-63.77518539791585
-0.26270000000000004,-64.34106991786187
-0.26369999999999993,-65.03427845479574
-0.26470000000000005,-65.7274869917296
-0.26569999999999994,-66.34995996367022
-0.26670000000000005,-66.81681469262568
-0.26769999999999994,-67.17049251759194
-0.26870000000000005,-67.43928766456631
-0.26969999999999994,-67.82125971552985
-0.27070000000000005,-68.34470289647993
-0.27169999999999994,-68.86814607742998
-0.27270000000000005,-69.3491479193841
-0.27369999999999994,-69.70282574435035
-0.27470000000000006,-70.14138624730852
-0.27569999999999995,-70.62238808926263
-0.27670000000000006,-71.18827260920865
-0.27769999999999995,-71.75415712915466
-0.27870000000000006,-72.27760031010472
-0.27969999999999995,-72.67371947406694
-0.28070000000000006,-73.09813286402644
-0.28169999999999995,-73.62157604497652
-0.28270000000000006,-74.28649035591307
-0.28369999999999995,-74.97969889284694
-0.28470000000000006,-75.54558341279296
-0.28569999999999995,-76.11146793273898
-0.28670000000000007,-76.5924697746931
-0.28769999999999996,-77.0734716166472
-0.28870000000000007,-77.59691479759726
-0.28969999999999996,-78.20524065653922
-0.29070000000000007,-78.91259630647174
-0.29169999999999996,-79.52092216541372
-0.29270000000000007,-80.17168936335163
-0.29369999999999996,-80.73757388329766
-0.2947000000000001,-81.26101706424771
-0.29569999999999996,-81.78446024519776
-0.2967000000000001,-82.35034476514379
-0.29769999999999996,-82.95867062408576
-0.2987000000000001,-83.56699648302772
-0.29969999999999997,-84.13288100297372
-0.3007000000000001,-84.6563241839238
-0.30169999999999997,-85.27879715586442
-0.3027000000000001,-86.01444703179425
-0.30369999999999997,-86.84912669871461
-0.3047000000000001,-87.62721791364037
-0.30569999999999997,-88.37701490256885
-0.3067000000000001,-88.9853407615108
-0.3077,-89.59366662045278
-0.3087000000000001,-90.15955114039879
-0.3097,-90.81031833833671
-0.3107000000000001,-91.51767398826922
-0.3117,-92.2108825252031
-0.3127000000000001,-92.86164972314101
-0.3137,-93.51241692107894
-0.3147000000000001,-94.21977257101145
-0.3157,-94.95542244694126
-0.3167000000000001,-95.64863098387512
-0.3177,-96.31354529481169
-0.3187000000000001,-96.87942981475771
-0.3197,-97.36043165671182
-0.3207000000000001,-97.92631617665783
-0.3217,-98.66196605258766
-0.3227000000000001,-99.53908705850398
-0.3237,-100.40206095142165
-0.3247000000000001,-101.27918195733798
-0.3257,-101.97239049427183
-0.3267000000000001,-102.4958336752219
-0.3277,-103.01927685617197
-0.3287000000000001,-103.7266325061045
-0.3297,-104.73107752900866
-0.3307000000000001,-106.07505326388046
-0.3317,-106.78240891381296
-0.3327000000000001,-107.16438096477653
-0.3337,-108.0839433096888
-0.3347000000000001,-108.91862297660917
-0.3357,-109.9655093385093
-0.3367000000000001,-110.96995436141347
-0.3377,-111.74804557633925
-0.3387000000000001,-112.01684072331359
-0.3397,-112.39881277427718
-0.3407000000000001,-112.75249059924342
-0.3417,-113.27593378019348
-0.3427000000000001,-113.88425963913545
-0.3437,-114.67649796705987
-0.3447000000000001,-115.4970305209816
-0.3457,-116.28926884890602
-0.3467000000000001,-117.02491872483584
-0.3477,-117.85959839175621
-0.3487000000000001,-118.86404341466037
-0.3497,-119.9109297765605
-0.3507000000000001,-120.9153747994647
-0.3517,-121.82079003137831
-0.3527000000000001,-122.52814568131083
-0.3537,-123.2213542182447
-0.3547000000000001,-123.95700409417452
-0.3557,-124.7916837610949
-0.35670000000000013,-125.6688047670112
-0.3577,-126.5317786599289
-0.35870000000000013,-127.32401698785328
-0.3597,-128.01722552478716
-0.36070000000000013,-128.66799272272507
-0.3617,-129.41778971165354
-0.3626999999999999,-130.28076360457123
-0.3637,-131.32764996647134
-0.3646999999999999,-132.33209498937555
-0.3657,-133.29409867328377
-0.3666999999999999,-134.17121967920008
-0.3677,-134.9068695551299
-0.3686999999999999,-135.74154922205025
-0.36970000000000003,-136.60452311496792
-0.3706999999999999,-137.52408545988024
-0.37170000000000003,-138.48608914378846
-0.3726999999999999,-139.44809282769666
-0.37370000000000003,-140.2686253816184
-0.3746999999999999,-140.9759810315509
-0.37570000000000003,-141.61260111649017
-0.3766999999999999,-142.4614278964092
-0.37770000000000004,-143.3102546763282
-0.3786999999999999,-144.15908145624724
-0.37970000000000004,-145.00790823616626
-0.3806999999999999,-145.9982061460718
-0.38170000000000004,-147.1299751859638
-0.38269999999999993,-148.26174422585584
-0.38370000000000004,-149.39351326574788
-0.38469999999999993,-150.38381117565342
-0.38570000000000004,-151.23263795557244
-0.38669999999999993,-151.93999360550492
-0.38770000000000004,-152.78882038542397
-0.38869999999999993,-153.77911829532948
-0.38970000000000005,-154.9108873352215
-0.39069999999999994,-155.90118524512707
-0.39170000000000005,-156.89148315503257
-0.39269999999999994,-157.7403099349516
-0.39370000000000005,-158.73060784485713
-0.39469999999999994,-159.43796349478964
-0.39570000000000005,-160.28679027470866
-0.39669999999999994,-161.2770881846142
-0.39770000000000005,-162.2673860945197
-0.39869999999999994,-163.39915513441173
-0.39970000000000006,-164.38945304431726
-0.40069999999999995,-165.3797509542228
-0.40170000000000006,-166.65299112410133
-0.40269999999999995,-168.49211581392586
-0.40370000000000006,-169.7653559838044
-0.40469999999999995,-170.18976937376394
-0.40570000000000006,-171.03859615368293
-0.40669999999999995,-171.88742293360195
-0.40770000000000006,-172.59477858353446
-0.40869999999999995,-173.302134233467
-0.40970000000000006,-174.2924321433725
-0.41069999999999995,-175.28273005327804
-0.41170000000000007,-176.27302796318358
-0.41269999999999996,-177.2633258730891
-0.41370000000000007,-178.53656604296762
-0.41469999999999996,-179.66833508285964
-0.41570000000000007,-180.5171618627787
-0.41669999999999996,-181.64893090267074
-0.41770000000000007,-182.78069994256273
-0.41869999999999996,-183.62952672248176
-0.4197000000000001,-184.47835350240078
-0.42069999999999996,-185.1857091523333
-0.4217000000000001,-186.17600706223882
-0.42269999999999996,-187.30777610213087
-0.4237000000000001,-188.4395451420229
-0.42469999999999997,-189.42984305192843
-0.4257000000000001,-190.27866983184742
-0.42669999999999997,-190.84455435179345
-0.4277000000000001,-191.41043887173947
-0.42869999999999997,-192.11779452167198
-0.4297000000000001,-193.249563561564
-0.43069999999999997,-194.2398614714695
-0.4317000000000001,-195.08868825138856
-0.4327,-196.0789861612941
-0.4337000000000001,-196.92781294121312
-0.4347,-197.63516859114563
-0.4357000000000001,-198.3425242410781
-0.4367,-199.04987989101065
-0.4377000000000001,-199.75723554094319
-0.4387,-200.3231200608892
-0.4397000000000001,-200.88900458083523
-0.4407,-201.59636023076774
-0.4417000000000001,-202.44518701068677
-0.4427,-203.29401379060576
-0.4437000000000001,-204.2843117005113
-0.4447,-204.9916673504438
-0.4457000000000001,-205.69902300037634
-0.4467,-206.12343639033585
-0.4477000000000001,-206.68932091028185
-0.4487,-207.25520543022787
-0.4497000000000001,-207.96256108016038
-0.4507,-208.6699167300929
-0.4517000000000001,-209.23580125003892
-0.4527,-209.66021463999843
-0.4537000000000001,-210.08462802995794
-0.4547,-210.50904141991748
-0.4557000000000001,-210.93345480987696
-0.4567,-211.64081045980947
-0.4577000000000001,-212.34816610974204
-0.4587,-212.914050629688
-0.4597000000000001,-213.62140627962054
-0.4607,-214.04581966958003
-0.4617000000000001,-214.18729079956654
-0.4627,-214.75317531951256
-0.4637000000000001,-215.6020020994316
-0.4647,-216.59230000933712
-0.4657000000000001,-216.59230000933712
-0.4667,-217.01671339929663
-0.4677000000000001,-217.58259791924263
-0.4687,-218.00701130920217
-0.4697000000000001,-218.43142469916165
-0.4707,-218.85583808912116
-0.4717000000000001,-219.28025147908068
-0.4727,-219.28025147908068
-0.4737000000000001,-219.28025147908068
-0.4747,-219.42172260906716
-0.4757000000000001,-219.8461359990267
-0.4767,-220.1290782589997
-0.4777000000000001,-220.41202051897272
-0.4787,-220.5534916489592
-0.4797000000000001,-220.5534916489592
-0.4807,-220.6949627789457
-0.48170000000000013,-220.6949627789457
-0.4827,-220.97790503891872
-0.48370000000000013,-221.11937616890526
-0.4847,-221.26084729889175
-0.48570000000000013,-221.11937616890526
-0.4867,-219.98760712901318
-0.48570000000000013,-216.87524226931012
-0.4847,-214.18729079956654
-0.48370000000000013,-211.782281589796
-0.4827,-209.51874351001192
-0.48170000000000013,-207.25520543022787
-0.4807,-204.5672539604843
-0.4797000000000001,-202.02077362072723
-0.4787,-199.47429328097016
-0.4777000000000001,-197.21075520118612
-0.4767,-195.08868825138856
-0.4757000000000001,-193.249563561564
-0.4747,-191.268967741753
-0.4737000000000001,-189.1469007919554
-0.4727,-186.88336271217133
-0.4717000000000001,-184.6198246323873
-0.4707,-182.21481542261674
-0.4697000000000001,-180.09274847281918
-0.4687,-178.25362378299462
-0.4677000000000001,-176.27302796318358
-0.4667,-174.2924321433725
-0.4657000000000001,-172.31183632356147
-0.4647,-170.47271163373694
