Potential V vs RHE, Current mA cm-2
0.013299999999999867,11.33891106841827
0.012299999999999978,10.20431260592651
0.011299999999999866,9.245138344618015
0.010299999999999976,8.416117522897103
0.009299999999999864,7.630952751472008
0.008299999999999974,6.975941419634496
0.007299999999999862,6.366200849392665
0.006299999999999972,5.8427576684426015
0.00529999999999986,5.3631705377883545
0.0042999999999999705,4.839727356838291
0.0032999999999998586,4.316284175888227
0.0022999999999999687,3.748984944642347
0.0012999999999998568,3.225541763692284
0.00029999999999996696,2.745954633038036
-0.000700000000000145,2.30880884137974
-0.0017000000000000348,1.9169338113171246
-0.0027000000000001467,1.6113561705462767
-0.0037000000000000366,1.219056727093702
-0.0047000000000001485,0.7829012333453113
-0.005700000000000038,0.3467457395969205
-0.00670000000000015,-0.04582249900262853
-0.00770000000000004,-0.48199213986401795
-0.008700000000000152,-0.8308599464107361
-0.009700000000000042,-1.1362961160515976
-0.010700000000000154,-1.4415908145624723
-0.011700000000000044,-1.7471684553333202
-0.012700000000000156,-2.095187435100119
-0.013700000000000045,-2.4446211261667834
-0.014700000000000157,-2.8379108675292635
-0.015700000000000047,-3.1859298472960624
-0.01670000000000016,-3.4915074880669104
-0.01770000000000005,-3.7532290785419424
-0.01870000000000016,-4.014950669016974
-0.01970000000000005,-4.276672259492005
-0.020700000000000163,-4.538393849967037
-0.021700000000000053,-4.843971490737885
-0.022700000000000164,-5.235846520800501
-0.023700000000000054,-5.585280211867165
-0.024700000000000166,-5.847001802342197
-0.025700000000000056,-6.152579443113044
-0.026700000000000168,-6.326588932996443
-0.027700000000000058,-6.54445447317566
-0.02870000000000017,-6.762320013354876
-0.02970000000000006,-7.067897654125724
-0.03070000000000017,-7.37347529489657
-0.03170000000000006,-7.722908985963235
-0.03270000000000017,-8.027071915434218
-0.03370000000000006,-8.246352166913299
-0.034700000000000175,-8.464217707092514
-0.035700000000000065,-8.68208324727173
-0.03670000000000018,-8.85609273715513
-0.03770000000000007,-9.073958277334345
-0.03870000000000018,-9.379535918105192
-0.03970000000000007,-9.641257508580225
-0.04070000000000018,-9.946835149351072
-0.04170000000000007,-10.164700689530287
-0.04270000000000018,-10.382566229709504
-0.04370000000000007,-10.601846481188586
-0.044700000000000184,-10.775855971071984
-0.045700000000000074,-10.949865460955383
-0.046700000000000186,-11.255443101726232
-0.047700000000000076,-11.517164692201263
-0.04870000000000019,-11.82274233297211
-0.04970000000000008,-12.084463923447142
-0.05070000000000019,-12.258473413330542
-0.05170000000000008,-12.432482903213943
-0.05270000000000019,-12.607907104397206
-0.05370000000000008,-12.781916594280606
-0.05470000000000019,-13.043638184755638
-0.05570000000000008,-13.30535977523067
-0.056700000000000195,-13.610937416001518
-0.057700000000000085,-13.872659006476551
-0.058700000000000196,-14.046668496359947
-0.059700000000000086,-14.26028990263957
-0.0607000000000002,-14.401761032626075
-0.06170000000000009,-14.57152638860988
-0.0627000000000002,-14.783733083589633
-0.06370000000000009,-15.05252823056399
-0.0647000000000002,-15.307176264539699
-0.06570000000000009,-15.575971411514052
-0.0667000000000002,-15.78817810649381
-0.0677000000000001,-15.972090575476265
-0.0687000000000002,-16.099414592464115
-0.0697000000000001,-16.22673860945197
-0.07070000000000021,-16.438945304431726
-0.0717000000000001,-16.665299112410132
-0.07270000000000021,-16.919947146385837
-0.0737000000000001,-17.188742293360193
-0.07470000000000021,-17.40094898833995
-0.0757000000000001,-17.627302796318357
-0.07670000000000021,-17.797068152302163
-0.0777000000000001,-17.924392169290012
-0.07870000000000021,-18.10830463827247
-0.0797000000000001,-18.320511333252224
-0.08070000000000022,-18.589306480226583
-0.0817000000000001,-18.843954514202288
-0.08270000000000022,-19.112749661176647
-0.08370000000000011,-19.3249563561564
-0.08470000000000022,-19.49472171214021
-0.08570000000000011,-19.636192842126707
-0.08670000000000022,-19.763516859114564
-0.08770000000000011,-19.97572355409432
-0.08870000000000022,-20.202077362072725
-0.08970000000000011,-20.456725396048434
-0.09070000000000022,-20.72552054302279
-0.09170000000000011,-20.980168576998494
-0.09270000000000023,-21.149933932982297
-0.09370000000000012,-21.333846401964752
-0.09470000000000023,-21.503611757948562
-0.09570000000000012,-21.67337711393236
-0.09670000000000023,-21.94217226090672
-0.09770000000000012,-22.253408746877028
-0.09870000000000023,-22.508056780852733
-0.09970000000000012,-22.72026347583249
-0.10070000000000023,-22.861734605818995
-0.10170000000000012,-22.989058622806844
-0.10270000000000024,-23.1163826397947
-0.10370000000000013,-23.342736447773106
-0.10470000000000024,-23.597384481748815
-0.10570000000000013,-23.908620967719123
-0.10670000000000024,-24.20571034069078
-0.10770000000000013,-24.516946826661083
-0.10870000000000024,-24.729153521640843
-0.10970000000000013,-24.9130659906233
-0.11070000000000024,-25.04039000761115
-0.11170000000000013,-25.210155363594954
-0.11270000000000002,-25.39406783257741
-0.11370000000000013,-25.648715866553115
-0.11470000000000002,-25.91751101352747
-0.11570000000000014,-26.21460038649913
-0.11670000000000003,-26.483395533473487
-0.11770000000000014,-26.69560222845324
-0.11870000000000003,-26.86536758443705
-0.11970000000000014,-27.049280053419505
-0.12070000000000003,-27.261486748399253
-0.12170000000000014,-27.530281895373616
-0.12270000000000003,-27.827371268345274
-0.12370000000000014,-28.09616641531963
-0.12470000000000003,-28.350814449295335
-0.12570000000000014,-28.53472691827779
-0.12670000000000003,-28.704492274261593
-0.12770000000000015,-28.831816291249446
-0.12870000000000004,-29.058170099227848
-0.12970000000000015,-29.31281813320356
-0.13070000000000004,-29.581613280177915
-0.13170000000000015,-29.878702653149578
-0.13270000000000004,-30.147497800123933
-0.13370000000000015,-30.402145834099635
-0.13470000000000004,-30.571911190083444
-0.13570000000000015,-30.7558236590659
-0.13670000000000004,-30.968030354045652
-0.13770000000000016,-31.19438416202406
-0.13870000000000005,-31.49147353499572
-0.13970000000000016,-31.84515135996197
-0.14070000000000005,-32.09979939393769
-0.14170000000000016,-32.368594540912035
-0.14270000000000005,-32.58080123589179
-0.14370000000000016,-32.764713704874254
-0.14470000000000005,-32.93447906085806
-0.14570000000000016,-33.14668575583781
-0.14670000000000005,-33.41548090281216
-0.14770000000000016,-33.712570275783825
-0.14870000000000005,-34.02380676175414
-0.14970000000000017,-34.33504324772444
-0.15070000000000006,-34.5472499427042
-0.15170000000000017,-34.75945663768395
-0.15270000000000006,-34.94336910666641
-0.15370000000000017,-35.11313446265021
-0.15470000000000006,-35.38192960962457
-0.15570000000000017,-35.679018982596226
-0.15670000000000006,-35.99025546856653
-0.15770000000000017,-36.244903502542236
-0.15870000000000006,-36.4288159715247
-0.15970000000000018,-36.64102266650445
-0.16070000000000007,-36.768346683492304
-0.16170000000000018,-37.037141830466666
-0.16270000000000007,-37.249348525446415
-0.16370000000000018,-37.60302635041268
-0.16470000000000007,-37.94255706238028
-0.16570000000000018,-38.253793548350586
-0.16670000000000007,-38.522588695324956
-0.16770000000000018,-38.734795390304704
-0.16870000000000007,-38.94700208528445
-0.16970000000000018,-39.130914554266916
-0.17070000000000007,-39.38556258824262
-0.17170000000000019,-39.654357735216976
-0.17270000000000008,-39.99388844718459
-0.1737000000000002,-40.30512493315489
-0.17470000000000008,-40.616361419125205
-0.1757000000000002,-40.828568114104954
-0.17670000000000008,-40.99833347008877
-0.1777000000000002,-41.22468727806717
-0.17870000000000008,-41.43689397304693
-0.1797000000000002,-41.70568912002128
-0.18070000000000008,-42.00277849299294
-0.1817000000000002,-42.3564563179592
-0.18270000000000008,-42.653545690930855
-0.1837000000000002,-42.96478217690117
-0.1847000000000001,-43.23357732387552
-0.1857000000000002,-43.44578401885527
-0.1867000000000001,-43.657990713835034
-0.1877000000000002,-43.88434452181344
-0.1887000000000001,-44.138992555789144
-0.1897000000000002,-44.45022904175945
-0.1907000000000001,-44.704877075735155
-0.1917000000000001,-44.97367222270952
-0.19269999999999998,-45.22832025668522
-0.1937000000000001,-45.53955674265553
-0.19469999999999998,-45.85079322862584
-0.1957000000000001,-46.147882601597495
-0.19669999999999999,-46.544001765559706
-0.1977000000000001,-46.94012092952192
-0.1987,-47.27965164148953
-0.1997000000000001,-47.54844678846388
-0.2007,-47.76065348344364
-0.2017000000000001,-47.8879775004315
-0.2027,-48.071889969413945
-0.2037000000000001,-48.2840966643937
-0.2047,-48.59533315036401
-0.2057000000000001,-48.93486386233162
-0.2067,-49.33098302629383
-0.2077000000000001,-49.72710219025603
-0.2087,-50.024191563227696
-0.2097000000000001,-50.2505453712061
-0.2107,-50.46275206618586
-0.2117000000000001,-50.73154721316022
-0.2127,-50.98619524713592
-0.2137000000000001,-51.33987307210218
-0.2147,-51.69355089706845
-0.2157000000000001,-52.033081609036046
-0.2167,-52.386759434002315
-0.21770000000000012,-52.64140746797801
-0.2187,-52.95264395394832
-0.21970000000000012,-53.26388043991864
-0.2207,-53.56096981289029
-0.22170000000000012,-53.9570889768525
-0.2227,-54.35320814081471
-0.22370000000000012,-54.73518019177827
-0.2247,-55.088858016744524
-0.22570000000000012,-55.357653163718886
-0.2267,-55.56985985869864
-0.22770000000000012,-55.838655005673
-0.22870000000000001,-56.13574437864466
-0.22970000000000013,-56.489422203610914
-0.23070000000000002,-56.927982706569075
-0.23170000000000013,-57.352396096528594
-0.23270000000000002,-57.8333979384827
-0.23370000000000013,-58.18707576344896
-0.23470000000000002,-58.498312249419264
-0.23570000000000013,-58.71051894439902
-0.23670000000000002,-59.02175543036933
-0.2376999999999999,-59.31884480334099
-0.23870000000000002,-59.7149639673032
-0.2396999999999999,-60.15352447026136
-0.24070000000000003,-60.59208497321952
-0.24169999999999991,-60.974057024183075
-0.24270000000000003,-61.327734849149344
-0.24369999999999992,-61.63897133511965
-0.24470000000000003,-61.97850204708726
-0.24569999999999992,-62.37462121104946
-0.24670000000000003,-62.81318171400764
-0.24769999999999992,-63.29418355596174
-0.24870000000000003,-63.81762673691181
-0.24969999999999992,-64.19959878787537
-0.25070000000000003,-64.55327661284163
-0.2516999999999999,-64.90695443780788
-0.25270000000000004,-65.20404381077954
-0.2536999999999999,-65.5577216357458
-0.25470000000000004,-65.99628213870396
-0.2556999999999999,-66.43484264166212
-0.25670000000000004,-66.87340314462028
-0.25769999999999993,-67.25537519558385
-0.25870000000000004,-67.693935698542
-0.25969999999999993,-68.04761352350828
-0.26070000000000004,-68.38714423547587
-0.26169999999999993,-68.78326339943808
-0.26270000000000004,-69.22182390239624
-0.26369999999999993,-69.78770842234226
-0.26470000000000005,-70.31115160329232
-0.26569999999999994,-70.8345947842424
-0.26670000000000005,-71.31559662619651
-0.26769999999999994,-71.7965984681506
-0.26870000000000005,-72.19271763211282
-0.26969999999999994,-72.57468968307639
-0.27070000000000005,-73.01325018603454
-0.27169999999999994,-73.49425202798865
-0.27270000000000005,-74.0176952089387
-0.27369999999999994,-74.54113838988879
-0.27470000000000006,-75.06458157083884
-0.27569999999999995,-75.5880247517889
-0.27670000000000006,-76.02658525474708
-0.27769999999999995,-76.42270441870929
-0.27870000000000006,-76.9037062606634
-0.27969999999999995,-77.38470810261751
-0.28070000000000006,-77.95059262256353
-0.28169999999999995,-78.47403580351359
-0.28270000000000006,-79.0399203234596
-0.28369999999999995,-79.52092216541372
-0.28470000000000006,-80.00192400736783
-0.28569999999999995,-80.46877873632329
-0.28670000000000007,-80.99222191727335
-0.28769999999999996,-81.57225355021802
-0.28870000000000007,-82.22302074815593
-0.28969999999999996,-82.87378794609386
-0.29070000000000007,-83.43967246603985
-0.29169999999999996,-84.00555698598588
-0.29270000000000007,-84.48655882793999
-0.29369999999999996,-84.92511933089816
-0.2947000000000001,-85.36367983385631
-0.29569999999999996,-85.84468167581042
-0.2967000000000001,-86.45300753475239
-0.29769999999999996,-87.10377473269031
-0.2987000000000001,-87.79698326962418
-0.29969999999999997,-88.5043389195567
-0.3007000000000001,-89.11266477849867
-0.30169999999999997,-89.67854929844468
-0.3027000000000001,-90.20199247939475
-0.30369999999999997,-90.76787699934074
-0.3047000000000001,-91.37620285828272
-0.30569999999999997,-92.08355850821525
-0.3067000000000001,-92.81920838414506
-0.3077,-93.61144671206948
-0.3087000000000001,-94.26221391000739
-0.3097,-94.8280984299534
-0.3107000000000001,-95.39398294989942
-0.3117,-96.00230880884139
-0.3127000000000001,-96.69551734577524
-0.3137,-97.44531433470372
-0.3147000000000001,-98.2234055496295
-0.3157,-98.97320253855796
-0.3167000000000001,-99.70885241448778
-0.3177,-100.45864940341626
-0.3187000000000001,-101.15185794035013
-0.3197,-101.76018379929208
-0.3207000000000001,-102.3260683192381
-0.3217,-102.93439417818009
-0.3227000000000001,-103.59930848911664
-0.3237,-104.41984104303836
-0.3247000000000001,-105.25452070995874
-0.3257,-106.07505326388046
-0.3267000000000001,-106.86729159180487
-0.3277,-107.64538280673065
-0.3287000000000001,-108.52250381264696
-0.3297,-109.39962481856328
-0.3307000000000001,-110.17771603348905
-0.3317,-111.01239570040943
-0.3327000000000001,-111.74804557633925
-0.3337,-112.3563714352812
-0.3347000000000001,-112.96469729422319
-0.3357,-113.53058181416918
-0.3367000000000001,-114.1530547861098
-0.3377,-114.84626332304367
-0.3387000000000001,-115.62435453796945
-0.3397,-116.54391688288172
-0.3407000000000001,-117.46347922779398
-0.3417,-118.42548291170223
-0.3427000000000001,-119.3450452566145
-0.3437,-120.16557781053622
-0.3447000000000001,-120.85878634747009
-0.3457,-121.52370065840667
-0.3467000000000001,-122.1320265173486
-0.3477,-122.74035237629057
-0.3487000000000001,-123.4760022522204
-0.3497,-124.18335790215292
-0.3507000000000001,-124.9614491170787
-0.3517,-125.6688047670112
-0.3527000000000001,-126.36201330394509
-0.3537,-127.14010451887084
-0.3547000000000001,-128.05966686378312
-0.3557,-128.9792292086954
-0.35670000000000013,-129.89879155360765
-0.3577,-130.84664812451723
-0.35870000000000013,-131.72376913043357
-0.3597,-132.516007458358
-0.36070000000000013,-133.3365400122797
-0.3617,-134.08633700120816
-0.3626999999999999,-134.77954553814206
-0.3637,-135.6142252050624
-0.3646999999999999,-136.51964043697603
-0.3657,-137.48164412088425
-0.3666999999999999,-138.44364780479248
-0.3677,-139.3207688107088
-0.3686999999999999,-140.22618404262244
-0.36970000000000003,-141.01842237054686
-0.3706999999999999,-141.89554337646317
-0.37170000000000003,-142.6028990263957
-0.3726999999999999,-143.3102546763282
-0.37370000000000003,-143.87613919627424
-0.3746999999999999,-144.72496597619326
-0.37570000000000003,-145.43232162612577
-0.3766999999999999,-146.28114840604482
-0.37770000000000004,-147.27144631595033
-0.3786999999999999,-148.26174422585584
-0.37970000000000004,-149.39351326574788
-0.3806999999999999,-150.38381117565342
-0.38170000000000004,-151.37410908555893
-0.38269999999999993,-152.36440699546444
-0.38370000000000004,-153.07176264539694
-0.38469999999999993,-153.920589425316
-0.38570000000000004,-154.76941620523502
-0.38669999999999993,-155.61824298515404
-0.38770000000000004,-156.32559863508658
-0.38869999999999993,-156.75001202504606
-0.38970000000000005,-157.17442541500557
-0.39069999999999994,-157.45736767497857
-0.39170000000000005,-158.1647233249111
-0.39269999999999994,-159.01355010483013
-0.39370000000000005,-160.28679027470866
-0.39469999999999994,-161.5600304445872
-0.39570000000000005,-163.25768400442522
-0.39669999999999994,-164.9553375642633
-0.39770000000000005,-166.51151999411482
-0.39869999999999994,-167.92623129397984
-0.39970000000000006,-169.19947146385837
-0.40069999999999995,-170.18976937376394
-0.40170000000000006,-171.03859615368293
-0.40269999999999995,-171.74595180361547
-0.40370000000000006,-172.73624971352098
-0.40469999999999995,-173.72654762342648
-0.40570000000000006,-174.85831666331853
-0.40669999999999995,-175.84861457322407
-0.40770000000000006,-176.98038361311612
-0.40869999999999995,-177.82921039303508
-0.40970000000000006,-178.81950830294062
-0.41069999999999995,-179.80980621284618
-0.41170000000000007,-180.65863299276518
-0.41269999999999996,-181.79040203265723
-0.41370000000000007,-182.92217107254925
-0.41469999999999996,-184.19541124242778
-0.41570000000000007,-185.3271802823198
-0.41669999999999996,-186.60042045219836
-0.41770000000000007,-187.44924723211736
-0.41869999999999996,-188.29807401203638
-0.4197000000000001,-189.0054296619689
-0.42069999999999996,-189.71278531190143
-0.4217000000000001,-190.27866983184742
-0.42269999999999996,-190.98602548177996
-0.4237000000000001,-191.9763233916855
-0.42469999999999997,-192.966621301591
-0.4257000000000001,-194.2398614714695
-0.42669999999999997,-195.51310164134807
-0.4277000000000001,-196.6448706812401
-0.42869999999999997,-197.63516859114563
-0.4297000000000001,-198.62546650105114
-0.43069999999999997,-199.47429328097016
-0.4317000000000001,-200.18164893090267
-0.4327,-200.88900458083523
-0.4337000000000001,-201.73783136075423
-0.4347,-202.44518701068677
-0.4357000000000001,-203.29401379060576
-0.4367,-204.2843117005113
-0.4377000000000001,-205.41608074040332
-0.4387,-206.68932091028185
-0.4397000000000001,-207.8210899501739
-0.4407,-208.95285899006592
-0.4417000000000001,-209.94315689997146
-0.4427,-210.79198367989048
-0.4437000000000001,-211.64081045980947
-0.4447,-212.34816610974204
-0.4457000000000001,-213.05552175967455
-0.4467,-213.76287740960703
-0.4477000000000001,-214.47023305953954
-0.4487,-215.17758870947208
-0.4497000000000001,-215.88494435940459
-0.4507,-217.01671339929663
-0.4517000000000001,-218.28995356917517
-0.4527,-219.5631937390537
-0.4537000000000001,-220.5534916489592
-0.4547,-221.40231842887826
-0.4557000000000001,-221.82673181883774
-0.4567,-222.10967407881074
-0.4577000000000001,-222.3926163387838
-0.4587,-222.6755585987568
-0.4597000000000001,-223.2414431187028
-0.4607,-224.09026989862178
-0.4617000000000001,-225.22203893851383
-0.4627,-226.21233684841937
-0.4637000000000001,-227.34410588831142
-0.4647,-228.61734605818995
-0.4657000000000001,-229.74911509808197
-0.4667,-230.45647074801445
-0.4677000000000001,-231.0223552679605
-0.4687,-231.163826397947
-0.4697000000000001,-231.3052975279335
-0.4707,-231.44676865792
-0.4717000000000001,-231.8711820478795
-0.4727,-232.29559543783904
-0.4737000000000001,-233.00295108777152
-0.4747,-233.71030673770406
-0.4757000000000001,-234.4176623876366
-0.4767,-235.12501803756908
-0.4777000000000001,-235.54943142752862
-0.4787,-235.97384481748813
-0.4797000000000001,-236.53972933743412
-0.4807,-236.96414272739366
-0.48170000000000013,-238.66179628723168
-0.4827,-238.8032674172182
-0.48370000000000013,-239.0862096771912
-0.4847,-239.36915193716422
-0.48570000000000013,-239.65209419713722
-0.4867,-238.8032674172182
-0.48570000000000013,-236.1153159474746
-0.4847,-233.71030673770406
-0.48370000000000013,-231.3052975279335
-0.4827,-228.90028831816295
-0.48170000000000013,-226.35380797840588
-0.4807,-223.9487987686353
-0.4797000000000001,-221.40231842887826
-0.4787,-219.13878034909416
-0.4777000000000001,-217.01671339929663
-0.4767,-214.89464644949908
-0.4757000000000001,-212.914050629688
-0.4747,-210.79198367989048
-0.4737000000000001,-208.8113878600794
-0.4727,-206.54784978029537
-0.4717000000000001,-204.2843117005113
-0.4707,-202.02077362072723
-0.4697000000000001,-199.75723554094319
-0.4687,-197.49369746115914
-0.4677000000000001,-195.37163051136156
-0.4667,-193.249563561564
-0.4657000000000001,-191.268967741753
-0.4647,-189.1469007919554
