Potential V vs RHE, Current mA cm-2
0.013299999999999867,-1.6594563547416883
0.012299999999999978,-5.411270721983764
0.011299999999999866,-8.464217707092514
0.010299999999999976,-11.081433611842833
0.009299999999999864,-13.3930718758223
0.008299999999999974,-15.491088733522153
0.007299999999999862,-17.48583166633185
0.006299999999999972,-19.3249563561564
0.00529999999999986,-20.93772723800254
0.0042999999999999705,-22.38073276386488
0.0032999999999998586,-23.47006046476096
0.0022999999999999687,-24.389622809673234
0.0012999999999998568,-25.04039000761115
0.00029999999999996696,-25.521391849565262
-0.000700000000000145,-25.91751101352747
-0.0017000000000000348,-26.29948306449103
-0.0027000000000001467,-26.738043567449193
-0.0037000000000000366,-27.34636942639116
-0.0047000000000001485,-27.912253946337174
-0.005700000000000038,-28.577168257273744
-0.00670000000000015,-29.18549411621571
-0.00770000000000004,-29.62405461917387
-0.008700000000000152,-29.96358533114148
-0.009700000000000042,-30.10505646112798
-0.010700000000000154,-30.189939139119886
-0.011700000000000044,-30.10505646112798
-0.012700000000000156,-30.10505646112798
-0.013700000000000045,-30.10505646112798
-0.014700000000000157,-30.232380478115836
-0.015700000000000047,-30.487028512091538
-0.01670000000000016,-30.88314767605375
-0.01770000000000005,-31.23682550102001
-0.01870000000000016,-31.49147353499572
-0.01970000000000005,-31.76026868197007
-0.020700000000000163,-31.802710020966025
-0.021700000000000053,-31.76026868197007
-0.022700000000000164,-31.618797551983565
-0.023700000000000054,-31.40659085700382
-0.024700000000000166,-31.27926684001596
-0.025700000000000056,-31.27926684001596
-0.026700000000000168,-31.40659085700382
-0.027700000000000058,-31.661238890979522
-0.02870000000000017,-31.972475376949827
-0.02970000000000006,-32.32615320191609
-0.03070000000000017,-32.53835989689585
-0.03170000000000006,-32.66568391388369
-0.03270000000000017,-32.66568391388369
-0.03370000000000006,-32.53835989689585
-0.034700000000000175,-32.283711862920136
-0.035700000000000065,-32.14224073293363
-0.03670000000000018,-32.01491671594578
-0.03770000000000007,-32.05735805494172
-0.03870000000000018,-32.184682071929586
-0.03970000000000007,-32.41103587990799
-0.04070000000000018,-32.764713704874254
-0.04170000000000007,-33.01936173884996
-0.04270000000000018,-33.231568433829715
-0.04370000000000007,-33.288156885824314
-0.044700000000000184,-33.18912709483376
-0.045700000000000074,-32.97692039985401
-0.046700000000000186,-32.764713704874254
-0.047700000000000076,-32.53835989689585
-0.04870000000000019,-32.45347721890394
-0.04970000000000008,-32.45347721890394
-0.05070000000000019,-32.62324257488775
-0.05170000000000008,-32.892037721862096
-0.05270000000000019,-33.18912709483376
-0.05370000000000008,-33.45792224180811
-0.05470000000000019,-33.627687597791926
-0.05570000000000008,-33.627687597791926
-0.056700000000000195,-33.50036358080407
-0.057700000000000085,-33.288156885824314
-0.058700000000000196,-33.01936173884996
-0.059700000000000086,-32.807155043870196
-0.0607000000000002,-32.70812525287965
-0.06170000000000009,-32.807155043870196
-0.0627000000000002,-33.01936173884996
-0.06370000000000009,-33.231568433829715
-0.0647000000000002,-33.50036358080407
-0.06570000000000009,-33.670128936787876
-0.0667000000000002,-33.755011614779775
-0.0677000000000001,-33.670128936787876
-0.0687000000000002,-33.45792224180811
-0.0697000000000001,-33.18912709483376
-0.07070000000000021,-33.01936173884996
-0.0717000000000001,-32.807155043870196
-0.07270000000000021,-32.807155043870196
-0.0737000000000001,-32.93447906085806
-0.07470000000000021,-33.10424441684186
-0.0757000000000001,-33.45792224180811
-0.07670000000000021,-33.670128936787876
-0.0777000000000001,-33.89648274476628
-0.07870000000000021,-33.93892408376223
-0.0797000000000001,-33.89648274476628
-0.08070000000000022,-33.712570275783825
-0.0817000000000001,-33.50036358080407
-0.08270000000000022,-33.330598224820264
-0.08370000000000011,-33.231568433829715
-0.08470000000000022,-33.288156885824314
-0.08570000000000011,-33.45792224180811
-0.08670000000000022,-33.755011614779775
-0.08770000000000011,-34.10868943974604
-0.08870000000000022,-34.377484586720385
-0.08970000000000011,-34.462367264712285
-0.09070000000000022,-34.41992592571634
-0.09170000000000011,-34.33504324772444
-0.09270000000000023,-34.06624810075008
-0.09370000000000012,-33.81160006677438
-0.09470000000000023,-33.670128936787876
-0.09570000000000012,-33.54280491980002
-0.09670000000000023,-33.627687597791926
-0.09770000000000012,-33.755011614779775
-0.09870000000000023,-34.10868943974604
-0.09970000000000012,-34.41992592571634
-0.10070000000000023,-34.58969128170015
-0.10170000000000012,-34.67457395969205
-0.10270000000000024,-34.67457395969205
-0.10370000000000013,-34.50480860370825
-0.10470000000000024,-34.278454795729836
-0.10570000000000013,-34.06624810075008
-0.10670000000000024,-33.85404140577033
-0.10770000000000013,-33.85404140577033
-0.10870000000000024,-33.89648274476628
-0.10970000000000013,-34.10868943974604
-0.11070000000000024,-34.41992592571634
-0.11170000000000013,-34.67457395969205
-0.11270000000000002,-34.85848642867451
-0.11370000000000013,-34.90092776767045
-0.11470000000000002,-34.75945663768395
-0.11570000000000014,-34.58969128170015
-0.11670000000000003,-34.278454795729836
-0.11770000000000014,-34.06624810075008
-0.11870000000000003,-33.98136542275818
-0.11970000000000014,-33.98136542275818
-0.12070000000000003,-34.193572117737936
-0.12170000000000014,-34.41992592571634
-0.12270000000000003,-34.75945663768395
-0.12370000000000014,-34.98581044566235
-0.12470000000000003,-35.15557580164616
-0.12570000000000014,-35.198017140642115
-0.12670000000000003,-35.15557580164616
-0.12770000000000015,-34.94336910666641
-0.12870000000000004,-34.717015298688004
-0.12970000000000015,-34.5472499427042
-0.13070000000000004,-34.50480860370825
-0.13170000000000015,-34.58969128170015
-0.13270000000000004,-34.75945663768395
-0.13370000000000015,-35.02825178465831
-0.13470000000000004,-35.32534115762997
-0.13570000000000015,-35.50925362661242
-0.13670000000000004,-35.594136304604326
-0.13770000000000016,-35.55169496560837
-0.13870000000000005,-35.38192960962457
-0.13970000000000016,-35.11313446265021
-0.14070000000000005,-34.94336910666641
-0.14170000000000016,-34.8018979766799
-0.14270000000000005,-34.8018979766799
-0.14370000000000016,-34.94336910666641
-0.14470000000000005,-35.15557580164616
-0.14570000000000016,-35.50925362661242
-0.14670000000000005,-35.763901660588125
-0.14770000000000016,-35.99025546856653
-0.14870000000000005,-36.03269680756248
-0.14970000000000017,-35.99025546856653
-0.15070000000000006,-35.806342999584075
-0.15170000000000017,-35.55169496560837
-0.15270000000000006,-35.38192960962457
-0.15370000000000017,-35.282899818634014
-0.15470000000000006,-35.32534115762997
-0.15570000000000017,-35.55169496560837
-0.15670000000000006,-35.806342999584075
-0.15770000000000017,-36.16002082455034
-0.15870000000000006,-36.4288159715247
-0.15970000000000018,-36.5985813275085
-0.16070000000000007,-36.5985813275085
-0.16170000000000018,-36.5136986495166
-0.16270000000000007,-36.28734484153819
-0.16370000000000018,-36.11757948555439
-0.16470000000000007,-36.03269680756248
-0.16570000000000018,-35.99025546856653
-0.16670000000000007,-36.07513814655844
-0.16770000000000018,-36.28734484153819
-0.16870000000000007,-36.5985813275085
-0.16970000000000018,-36.89567070048016
-0.17070000000000007,-37.122024508458566
-0.17170000000000019,-37.206907186450465
-0.17270000000000008,-37.206907186450465
-0.1737000000000002,-37.07958316946261
-0.17470000000000008,-36.8532293614842
-0.1757000000000002,-36.6834640055004
-0.17670000000000008,-36.55613998851254
-0.1777000000000002,-36.55613998851254
-0.17870000000000008,-36.6834640055004
-0.1797000000000002,-36.95225915247476
-0.18070000000000008,-37.249348525446415
-0.1817000000000002,-37.51814367242077
-0.18270000000000008,-37.73035036740053
-0.1837000000000002,-37.81523304539243
-0.1847000000000001,-37.687909028404576
-0.1857000000000002,-37.51814367242077
-0.1867000000000001,-37.249348525446415
-0.1877000000000002,-37.07958316946261
-0.1887000000000001,-36.99470049147071
-0.1897000000000002,-37.07958316946261
-0.1907000000000001,-37.334231203438314
-0.1917000000000001,-37.60302635041268
-0.19269999999999998,-37.99914551437489
-0.1937000000000001,-38.253793548350586
-0.19469999999999998,-38.522588695324956
-0.1957000000000001,-38.5650300343209
-0.19669999999999999,-38.46600024333035
-0.1977000000000001,-38.33867622634249
-0.1987,-38.16891087035869
-0.1997000000000001,-38.04158685337084
-0.2007,-38.04158685337084
-0.2017000000000001,-38.16891087035869
-0.2027,-38.38111756533845
-0.2037000000000001,-38.734795390304704
-0.2047,-39.046031876275016
-0.2057000000000001,-39.34312124924667
-0.2067,-39.47044526623452
-0.2077000000000001,-39.47044526623452
-0.2087,-39.42800392723857
-0.2097000000000001,-39.258238571254765
-0.2107,-39.130914554266916
-0.2117000000000001,-39.046031876275016
-0.2127,-39.08847321527096
-0.2137000000000001,-39.30067991025072
-0.2147,-39.56947505722508
-0.2157000000000001,-40.092918238175145
-0.2167,-40.43244895014274
-0.21770000000000012,-40.701244097117105
-0.2187,-40.78612677510901
-0.21970000000000012,-40.78612677510901
-0.2207,-40.65880275812115
-0.22170000000000012,-40.51733162813464
-0.2227,-40.3900076111468
-0.22370000000000012,-40.34756627215084
-0.2247,-40.4748902891387
-0.22570000000000012,-40.701244097117105
-0.2267,-41.04077480908471
-0.22770000000000012,-41.43689397304693
-0.22870000000000001,-41.79057179801318
-0.22970000000000013,-42.00277849299294
-0.23070000000000002,-42.130102509980794
-0.23170000000000013,-42.04521983198889
-0.23270000000000002,-41.91789581500104
-0.23370000000000013,-41.79057179801318
-0.23470000000000002,-41.70568912002128
-0.23570000000000013,-41.74813045901723
-0.23670000000000002,-41.96033715399699
-0.2376999999999999,-42.2715736399673
-0.23870000000000002,-42.653545690930855
-0.2396999999999999,-43.007223515897124
-0.24070000000000003,-43.36090134086337
-0.24169999999999991,-43.57310803584313
-0.24270000000000003,-43.61554937483908
-0.24369999999999992,-43.57310803584313
-0.24470000000000003,-43.40334267985933
-0.24569999999999992,-43.31846000186743
-0.24670000000000003,-43.27601866287147
-0.24769999999999992,-43.36090134086337
-0.24870000000000003,-43.61554937483908
-0.24969999999999992,-43.96922719980534
-0.25070000000000003,-44.4077877027635
-0.2516999999999999,-44.84634820572166
-0.25270000000000004,-45.143437578693316
-0.2536999999999999,-45.36979138667173
-0.25470000000000004,-45.45467406466363
-0.2556999999999999,-45.412232725667685
-0.25670000000000004,-45.32735004767578
-0.25769999999999993,-45.32735004767578
-0.25870000000000004,-45.36979138667173
-0.25969999999999993,-45.581998081651484
-0.26070000000000004,-45.89323456762179
-0.26169999999999993,-46.27520661858535
-0.26270000000000004,-46.75620846053947
-0.26369999999999993,-47.15232762450167
-0.26470000000000005,-47.46356411047198
-0.26569999999999994,-47.633329466455784
-0.26670000000000005,-47.67577080545174
-0.26769999999999994,-47.67577080545174
-0.26870000000000005,-47.54844678846388
-0.26969999999999994,-47.590888127459834
-0.27070000000000005,-47.67577080545174
-0.27169999999999994,-47.93041883942744
-0.27270000000000005,-48.2840966643937
-0.27369999999999994,-48.80753984534376
-0.27470000000000006,-49.24610034830193
-0.27569999999999995,-49.68466085126009
-0.27670000000000006,-49.98175022423175
-0.27769999999999995,-50.12322135421825
-0.27870000000000006,-50.20810403221015
-0.27969999999999995,-50.1656626932142
-0.28070000000000006,-50.20810403221015
-0.28169999999999995,-50.2505453712061
-0.28270000000000006,-50.46275206618586
-0.28369999999999995,-50.81642989115212
-0.28470000000000006,-51.25499039411028
-0.28569999999999995,-51.82087491405629
-0.28670000000000007,-52.30187675601041
-0.28769999999999996,-52.78287859796452
-0.28870000000000007,-53.079967970936174
-0.28969999999999996,-53.22143910092268
-0.29070000000000007,-53.30632177891458
-0.29169999999999996,-53.348763117910536
-0.29270000000000007,-53.433645795902436
-0.29369999999999996,-53.56096981289029
-0.2947000000000001,-53.91464763785655
-0.29569999999999996,-54.26832546282281
-0.2967000000000001,-54.834209982768826
-0.29769999999999996,-55.484977180706736
-0.2987000000000001,-56.093303039648696
-0.29969999999999997,-56.61674622059877
-0.3007000000000001,-56.97042404556503
-0.30169999999999997,-57.22507207954074
-0.3027000000000001,-57.352396096528594
-0.30369999999999997,-57.408984548523186
-0.3047000000000001,-57.57874990450699
-0.30569999999999997,-57.8333979384827
-0.3067000000000001,-58.22951710244491
-0.3077,-58.75296028339497
-0.3087000000000001,-59.36128614233694
-0.3097,-60.02620045327351
-0.3107000000000001,-60.63452631221547
-0.3117,-61.07308681517363
-0.3127000000000001,-61.412617527141244
-0.3137,-61.63897133511965
-0.3147000000000001,-61.72385401311155
-0.3157,-61.936060708091304
-0.3167000000000001,-62.11997317707376
-0.3177,-62.459503889041365
-0.3187000000000001,-62.98294706999144
-0.3197,-63.54883158993744
-0.3207000000000001,-64.25618723986996
-0.3217,-64.86451309881193
-0.3227000000000001,-65.43039761875795
-0.3237,-65.91139946071206
-0.3247000000000001,-66.20848883368372
-0.3257,-66.47728398065809
-0.3267000000000001,-66.64704933664189
-0.3277,-66.87340314462028
-0.3287000000000001,-67.21293385658788
-0.3297,-67.7788183765339
-0.3307000000000001,-68.44373268747047
-0.3317,-69.13694122440434
-0.3327000000000001,-70.01406223032066
-0.3337,-70.74971210625048
-0.3347000000000001,-71.48536198218031
-0.3357,-71.96636382413442
-0.3367000000000001,-72.40492432709259
-0.3377,-72.71616081306288
-0.3387000000000001,-73.01325018603454
-0.3397,-73.40936934999675
-0.3407000000000001,-73.89037119195086
-0.3417,-74.54113838988879
-0.3427000000000001,-75.29093537881725
-0.3437,-76.15390927173492
-0.3447000000000001,-76.98858893865528
-0.3457,-77.86570994457162
-0.3467000000000001,-78.55891848150549
-0.3477,-79.16724434044745
-0.3487000000000001,-79.60580484340561
-0.3497,-80.00192400736783
-0.3507000000000001,-80.46877873632329
-0.3517,-80.9497805782774
-0.3527000000000001,-81.69957756720586
-0.3537,-82.52011012112759
-0.3547000000000001,-83.48211380503581
-0.3557,-84.52900016693594
-0.35670000000000013,-85.53344518984011
-0.3577,-86.49544887374834
-0.35870000000000013,-87.33012854066871
-0.3597,-87.98089573860662
-0.36070000000000013,-88.54678025855264
-0.3617,-89.11266477849867
-0.3626999999999999,-89.67854929844468
-0.3637,-90.37175783537855
-0.3646999999999999,-91.20643750229891
-0.3657,-92.2108825252031
-0.3666999999999999,-93.30021022609918
-0.3677,-94.47442060498715
-0.3686999999999999,-95.60618964487918
-0.36970000000000003,-96.65307600677932
-0.3706999999999999,-97.53019701269562
-0.37170000000000003,-98.364876679616
-0.3726999999999999,-99.01564387755391
-0.37370000000000003,-99.75129375348374
-0.3746999999999999,-100.5010907424122
-0.37570000000000003,-101.3640646353299
-0.3766999999999999,-102.41095099723
-0.37770000000000004,-103.59930848911664
-0.3786999999999999,-104.85840154599651
-0.37970000000000004,-106.21652439386696
-0.3806999999999999,-107.47561745074682
-0.38170000000000004,-108.64982782963483
-0.38269999999999993,-109.654272852539
-0.38370000000000004,-110.6162765364472
-0.38469999999999993,-111.4509562033676
-0.38570000000000004,-112.3563714352812
-0.38669999999999993,-110.09283335549715
-0.38570000000000004,-103.01927685617197
-0.38469999999999993,-97.26140186572127
-0.38370000000000004,-92.4655305591788
-0.38269999999999993,-88.4194562415648
-0.38170000000000004,-84.7977953139103
-0.3806999999999999,-81.51566509822342
-0.37970000000000004,-78.43159446451764
-0.3786999999999999,-75.37581805680915
-0.37770000000000004,-72.44736566608852
-0.3766999999999999,-69.57550172736251
-0.37570000000000003,-66.9582858226122
-0.3746999999999999,-64.51083527384567
-0.37370000000000003,-62.37462121104946
-0.3726999999999999,-60.45061384323302
-0.37170000000000003,-58.71051894439902
-0.3706999999999999,-57.097748062552874
-0.36970000000000003,-55.442535841710786
-0.3686999999999999,-53.7873236208687
-0.3677,-52.033081609036046
-0.3666999999999999,-50.2505453712061
-0.3657,-48.36897934238561
-0.3646999999999999,-46.544001765559706
-0.3637,-44.704877075735155
-0.3626999999999999,-43.09210619388902
-0.3617,-41.606659329030734
-0.36070000000000013,-40.26268359415894
-0.3597,-39.08847321527096
-0.35870000000000013,-37.81523304539243
-0.3577,-36.64102266650445
-0.35670000000000013,-35.282899818634014
-0.3557,-33.85404140577033
-0.3547000000000001,-32.32615320191609
-0.3537,-30.71338232006995
-0.3527000000000001,-29.18549411621571
-0.3517,-27.742488590353368
-0.3507000000000001,-26.483395533473487
-0.3497,-25.39406783257741
-0.3487000000000001,-24.389622809673234
-0.3477,-23.51250180375691
-0.3467000000000001,-22.592939458844636
-0.3457,-21.63093577493641
-0.3447000000000001,-20.541608074040333
-0.3437,-19.3249563561564
-0.3427000000000001,-18.009274847281915
-0.3417,-16.70774045140608
-0.3407000000000001,-15.3920589425316
-0.3397,-14.26028990263957
-0.3387000000000001,-13.261503724934855
-0.3377,-12.390041564217992
-0.3367000000000001,-11.647318131788847
-0.3357,-10.993721511251199
-0.3347000000000001,-10.296268840417738
-0.3337,-9.511104068992642
-0.3327000000000001,-8.638227196975913
-0.3317,-7.591340835075788
-0.3307000000000001,-6.500598422879844
-0.3297,-5.367414671687949
-0.3287000000000001,-4.364384360083638
-0.3277,-3.403795387475278
-0.3267000000000001,-2.662486666345999
-0.3257,-2.095187435100119
-0.3247000000000001,-1.6156003044458718
-0.3237,-1.0925815368857679
-0.3227000000000001,-0.5692798270656908
-0.3217,0.12863969849672777
-0.3207000000000001,0.870188920546984
-0.3197,1.7429243214337253
-0.3187000000000001,2.745954633038036
-0.3177,3.6174167937548987
-0.3167000000000001,4.534149716067443
-0.3157,5.231602386900906
-0.3147000000000001,5.7111895175551535
-0.3137,6.1907766482094
-0.3127000000000001,6.496354288980249
-0.3117,6.889644030342729
-0.3107000000000001,7.281519060405343
-0.3097,7.848818291651225
-0.3087000000000001,8.546270962484687
-0.3077,9.331435733909782
-0.3067000000000001,10.116600505334876
-0.30569999999999997,10.94562132705579
-0.3047000000000001,11.6006326588933
-0.30369999999999997,12.080219789547549
-0.3027000000000001,12.472094819610163
-0.30169999999999997,12.68996035978938
-0.3007000000000001,12.907825899968595
-0.29969999999999997,13.169547490443627
-0.2987000000000001,13.475125131214474
-0.29769999999999996,13.998568312164537
-0.2967000000000001,14.57152638860988
-0.29569999999999996,15.222293586547794
-0.2947000000000001,15.957943462477614
-0.29369999999999996,16.56626932141958
-0.29270000000000007,17.089712502369647
-0.29169999999999996,17.48583166633185
-0.29070000000000007,17.71218547431026
-0.28969999999999996,17.839509491298113
-0.28870000000000007,17.924392169290012
-0.28769999999999996,18.09415752527382
-0.28670000000000007,18.44783535024008
-0.28569999999999995,18.88639585319824
-0.28470000000000006,19.452280373144255
-0.28369999999999995,20.10304757108217
-0.28270000000000006,20.668932091028186
-0.28169999999999995,21.2348166109742
-0.28070000000000006,21.54605309694451
-0.27969999999999995,21.800701130920213
-0.27870000000000006,21.94217226090672
-0.27769999999999995,21.94217226090672
-0.27670000000000006,21.98461359990267
-0.27569999999999995,22.15437895588647
-0.27470000000000006,22.36658565086623
-0.27369999999999994,22.80514615382439
-0.27270000000000005,23.24370665678255
-0.27169999999999994,23.852032515724517
-0.27070000000000005,24.37547569667458
-0.26969999999999994,24.771594860636792
-0.26870000000000005,25.04039000761115
-0.26769999999999994,25.167714024599
-0.26670000000000005,25.210155363594954
-0.26569999999999994,25.210155363594954
-0.26470000000000005,25.252596702590903
-0.26369999999999993,25.37992071957876
-0.26270000000000004,25.648715866553115
