Sept. 6, 2024   23:14:23
Cyclic Voltammetry
File: c:/users/guazh/data/20240903_batch_252_500/2024-09-03-exp283\exp283-2024-09-06t23_01_37-arkoh\exp283_cv_sr_900mvs_efin_-1500mv.bin
Data Source:  Experiment
Instrument Model:  CHI760E
Header: CV ran at 900 mVs
Note: 

Init E (V) = -1
High E (V) = -1
Low E (V) = -1.5
Final E (V) = -1
Init P/N = N
Scan Rate (V/s) = 0.9
Segment = 3
Sample Interval (V) = 0.001
Quiet Time (sec) = 2
Sensitivity (A/V) = 0.01
Comp R (ohm) = 1.6

Results:

Channel 1:
Segment 1:

Segment 2:

Segment 3:

Potential/V, Current/A

-1.000, 2.790e-5
-1.001, 8.340e-5
-1.002, 1.142e-4
-1.003, 1.358e-4
-1.004, 1.451e-4
-1.005, 1.543e-4
-1.006, 1.605e-4
-1.007, 1.636e-4
-1.008, 1.636e-4
-1.009, 1.666e-4
-1.010, 1.666e-4
-1.011, 1.697e-4
-1.012, 1.697e-4
-1.013, 1.697e-4
-1.014, 1.697e-4
-1.015, 1.728e-4
-1.016, 1.728e-4
-1.017, 1.728e-4
-1.018, 1.728e-4
-1.019, 1.728e-4
-1.020, 1.728e-4
-1.021, 1.728e-4
-1.022, 1.728e-4
-1.023, 1.728e-4
-1.024, 1.728e-4
-1.025, 1.728e-4
-1.026, 1.728e-4
-1.027, 1.759e-4
-1.028, 1.759e-4
-1.029, 1.728e-4
-1.030, 1.759e-4
-1.031, 1.759e-4
-1.032, 1.759e-4
-1.033, 1.759e-4
-1.034, 1.759e-4
-1.035, 1.759e-4
-1.036, 1.759e-4
-1.037, 1.759e-4
-1.038, 1.759e-4
-1.039, 1.759e-4
-1.040, 1.759e-4
-1.041, 1.759e-4
-1.042, 1.759e-4
-1.043, 1.759e-4
-1.044, 1.759e-4
-1.045, 1.790e-4
-1.046, 1.759e-4
-1.047, 1.790e-4
-1.048, 1.759e-4
-1.049, 1.790e-4
-1.050, 1.790e-4
-1.051, 1.759e-4
-1.052, 1.790e-4
-1.053, 1.759e-4
-1.054, 1.790e-4
-1.055, 1.790e-4
-1.056, 1.759e-4
-1.057, 1.790e-4
-1.058, 1.790e-4
-1.059, 1.790e-4
-1.060, 1.790e-4
-1.061, 1.790e-4
-1.062, 1.790e-4
-1.063, 1.790e-4
-1.064, 1.790e-4
-1.065, 1.790e-4
-1.066, 1.790e-4
-1.067, 1.790e-4
-1.068, 1.790e-4
-1.069, 1.790e-4
-1.070, 1.790e-4
-1.071, 1.790e-4
-1.072, 1.790e-4
-1.073, 1.790e-4
-1.074, 1.790e-4
-1.075, 1.821e-4
-1.076, 1.790e-4
-1.077, 1.790e-4
-1.078, 1.790e-4
-1.079, 1.790e-4
-1.080, 1.790e-4
-1.081, 1.790e-4
-1.082, 1.790e-4
-1.083, 1.790e-4
-1.084, 1.790e-4
-1.085, 1.790e-4
-1.086, 1.790e-4
-1.087, 1.821e-4
-1.088, 1.790e-4
-1.089, 1.790e-4
-1.090, 1.790e-4
-1.091, 1.790e-4
-1.092, 1.821e-4
-1.093, 1.821e-4
-1.094, 1.821e-4
-1.095, 1.821e-4
-1.096, 1.821e-4
-1.097, 1.790e-4
-1.098, 1.790e-4
-1.099, 1.821e-4
-1.100, 1.821e-4
-1.101, 1.821e-4
-1.102, 1.821e-4
-1.103, 1.790e-4
-1.104, 1.790e-4
-1.105, 1.821e-4
-1.106, 1.821e-4
-1.107, 1.821e-4
-1.108, 1.821e-4
-1.109, 1.851e-4
-1.110, 1.821e-4
-1.111, 1.821e-4
-1.112, 1.821e-4
-1.113, 1.821e-4
-1.114, 1.821e-4
-1.115, 1.821e-4
-1.116, 1.821e-4
-1.117, 1.821e-4
-1.118, 1.851e-4
-1.119, 1.821e-4
-1.120, 1.821e-4
-1.121, 1.821e-4
-1.122, 1.851e-4
-1.123, 1.851e-4
-1.124, 1.851e-4
-1.125, 1.851e-4
-1.126, 1.851e-4
-1.127, 1.851e-4
-1.128, 1.851e-4
-1.129, 1.851e-4
-1.130, 1.851e-4
-1.131, 1.851e-4
-1.132, 1.851e-4
-1.133, 1.851e-4
-1.134, 1.851e-4
-1.135, 1.851e-4
-1.136, 1.851e-4
-1.137, 1.882e-4
-1.138, 1.882e-4
-1.139, 1.851e-4
-1.140, 1.882e-4
-1.141, 1.882e-4
-1.142, 1.851e-4
-1.143, 1.882e-4
-1.144, 1.851e-4
-1.145, 1.882e-4
-1.146, 1.882e-4
-1.147, 1.882e-4
-1.148, 1.882e-4
-1.149, 1.882e-4
-1.150, 1.882e-4
-1.151, 1.882e-4
-1.152, 1.882e-4
-1.153, 1.913e-4
-1.154, 1.882e-4
-1.155, 1.882e-4
-1.156, 1.913e-4
-1.157, 1.882e-4
-1.158, 1.882e-4
-1.159, 1.913e-4
-1.160, 1.913e-4
-1.161, 1.913e-4
-1.162, 1.913e-4
-1.163, 1.913e-4
-1.164, 1.944e-4
-1.165, 1.913e-4
-1.166, 1.944e-4
-1.167, 1.944e-4
-1.168, 1.944e-4
-1.169, 1.944e-4
-1.170, 1.944e-4
-1.171, 1.944e-4
-1.172, 1.944e-4
-1.173, 1.944e-4
-1.174, 1.944e-4
-1.175, 1.975e-4
-1.176, 1.944e-4
-1.177, 1.975e-4
-1.178, 1.975e-4
-1.179, 1.975e-4
-1.180, 1.975e-4
-1.181, 1.975e-4
-1.182, 2.006e-4
-1.183, 2.006e-4
-1.184, 1.975e-4
-1.185, 2.006e-4
-1.186, 2.006e-4
-1.187, 2.006e-4
-1.188, 2.006e-4
-1.189, 2.006e-4
-1.190, 2.006e-4
-1.191, 2.036e-4
-1.192, 2.036e-4
-1.193, 2.036e-4
-1.194, 2.036e-4
-1.195, 2.036e-4
-1.196, 2.036e-4
-1.197, 2.067e-4
-1.198, 2.098e-4
-1.199, 2.067e-4
-1.200, 2.098e-4
-1.201, 2.098e-4
-1.202, 2.098e-4
-1.203, 2.098e-4
-1.204, 2.129e-4
-1.205, 2.129e-4
-1.206, 2.129e-4
-1.207, 2.160e-4
-1.208, 2.160e-4
-1.209, 2.160e-4
-1.210, 2.191e-4
-1.211, 2.191e-4
-1.212, 2.221e-4
-1.213, 2.191e-4
-1.214, 2.191e-4
-1.215, 2.221e-4
-1.216, 2.221e-4
-1.217, 2.252e-4
-1.218, 2.252e-4
-1.219, 2.252e-4
-1.220, 2.283e-4
-1.221, 2.283e-4
-1.222, 2.314e-4
-1.223, 2.314e-4
-1.224, 2.345e-4
-1.225, 2.345e-4
-1.226, 2.376e-4
-1.227, 2.376e-4
-1.228, 2.406e-4
-1.229, 2.437e-4
-1.230, 2.437e-4
-1.231, 2.437e-4
-1.232, 2.437e-4
-1.233, 2.468e-4
-1.234, 2.499e-4
-1.235, 2.499e-4
-1.236, 2.499e-4
-1.237, 2.530e-4
-1.238, 2.561e-4
-1.239, 2.561e-4
-1.240, 2.591e-4
-1.241, 2.622e-4
-1.242, 2.653e-4
-1.243, 2.653e-4
-1.244, 2.684e-4
-1.245, 2.715e-4
-1.246, 2.715e-4
-1.247, 2.715e-4
-1.248, 2.746e-4
-1.249, 2.776e-4
-1.250, 2.807e-4
-1.251, 2.838e-4
-1.252, 2.869e-4
-1.253, 2.900e-4
-1.254, 2.900e-4
-1.255, 2.931e-4
-1.256, 2.961e-4
-1.257, 3.023e-4
-1.258, 3.023e-4
-1.259, 3.054e-4
-1.260, 3.115e-4
-1.261, 3.115e-4
-1.262, 3.146e-4
-1.263, 3.177e-4
-1.264, 3.208e-4
-1.265, 3.239e-4
-1.266, 3.300e-4
-1.267, 3.331e-4
-1.268, 3.362e-4
-1.269, 3.393e-4
-1.270, 3.455e-4
-1.271, 3.485e-4
-1.272, 3.516e-4
-1.273, 3.547e-4
-1.274, 3.609e-4
-1.275, 3.640e-4
-1.276, 3.701e-4
-1.277, 3.732e-4
-1.278, 3.763e-4
-1.279, 3.825e-4
-1.280, 3.855e-4
-1.281, 3.917e-4
-1.282, 3.948e-4
-1.283, 4.010e-4
-1.284, 4.040e-4
-1.285, 4.102e-4
-1.286, 4.164e-4
-1.287, 4.225e-4
-1.288, 4.256e-4
-1.289, 4.318e-4
-1.290, 4.380e-4
-1.291, 4.441e-4
-1.292, 4.472e-4
-1.293, 4.534e-4
-1.294, 4.626e-4
-1.295, 4.688e-4
-1.296, 4.719e-4
-1.297, 4.811e-4
-1.298, 4.873e-4
-1.299, 4.935e-4
-1.300, 4.996e-4
-1.301, 5.089e-4
-1.302, 5.150e-4
-1.303, 5.212e-4
-1.304, 5.305e-4
-1.305, 5.366e-4
-1.306, 5.459e-4
-1.307, 5.520e-4
-1.308, 5.582e-4
-1.309, 5.674e-4
-1.310, 5.767e-4
-1.311, 5.859e-4
-1.312, 5.952e-4
-1.313, 6.044e-4
-1.314, 6.106e-4
-1.315, 6.199e-4
-1.316, 6.291e-4
-1.317, 6.384e-4
-1.318, 6.476e-4
-1.319, 6.569e-4
-1.320, 6.661e-4
-1.321, 6.784e-4
-1.322, 6.877e-4
-1.323, 6.969e-4
-1.324, 7.062e-4
-1.325, 7.154e-4
-1.326, 7.247e-4
-1.327, 7.370e-4
-1.328, 7.494e-4
-1.329, 7.586e-4
-1.330, 7.709e-4
-1.331, 7.833e-4
-1.332, 7.956e-4
-1.333, 8.079e-4
-1.334, 8.172e-4
-1.335, 8.295e-4
-1.336, 8.449e-4
-1.337, 8.573e-4
-1.338, 8.696e-4
-1.339, 8.788e-4
-1.340, 8.943e-4
-1.341, 9.035e-4
-1.342, 9.189e-4
-1.343, 9.313e-4
-1.344, 9.467e-4
-1.345, 9.590e-4
-1.346, 9.744e-4
-1.347, 9.868e-4
-1.348, 1.002e-3
-1.349, 1.014e-3
-1.350, 1.030e-3
-1.351, 1.042e-3
-1.352, 1.055e-3
-1.353, 1.073e-3
-1.354, 1.088e-3
-1.355, 1.104e-3
-1.356, 1.119e-3
-1.357, 1.135e-3
-1.358, 1.147e-3
-1.359, 1.162e-3
-1.360, 1.178e-3
-1.361, 1.196e-3
-1.362, 1.212e-3
-1.363, 1.227e-3
-1.364, 1.246e-3
-1.365, 1.258e-3
-1.366, 1.277e-3
-1.367, 1.292e-3
-1.368, 1.310e-3
-1.369, 1.329e-3
-1.370, 1.351e-3
-1.371, 1.366e-3
-1.372, 1.388e-3
-1.373, 1.403e-3
-1.374, 1.421e-3
-1.375, 1.440e-3
-1.376, 1.455e-3
-1.377, 1.474e-3
-1.378, 1.492e-3
-1.379, 1.511e-3
-1.380, 1.529e-3
-1.381, 1.548e-3
-1.382, 1.566e-3
-1.383, 1.585e-3
-1.384, 1.606e-3
-1.385, 1.628e-3
-1.386, 1.647e-3
-1.387, 1.668e-3
-1.388, 1.687e-3
-1.389, 1.708e-3
-1.390, 1.730e-3
-1.391, 1.754e-3
-1.392, 1.779e-3
-1.393, 1.801e-3
-1.394, 1.819e-3
-1.395, 1.841e-3
-1.396, 1.862e-3
-1.397, 1.884e-3
-1.398, 1.909e-3
-1.399, 1.930e-3
-1.400, 1.952e-3
-1.401, 1.976e-3
-1.402, 1.998e-3
-1.403, 2.017e-3
-1.404, 2.041e-3
-1.405, 2.066e-3
-1.406, 2.087e-3
-1.407, 2.115e-3
-1.408, 2.137e-3
-1.409, 2.158e-3
-1.410, 2.180e-3
-1.411, 2.205e-3
-1.412, 2.229e-3
-1.413, 2.257e-3
-1.414, 2.285e-3
-1.415, 2.309e-3
-1.416, 2.334e-3
-1.417, 2.359e-3
-1.418, 2.383e-3
-1.419, 2.408e-3
-1.420, 2.439e-3
-1.421, 2.464e-3
-1.422, 2.494e-3
-1.423, 2.519e-3
-1.424, 2.541e-3
-1.425, 2.571e-3
-1.426, 2.596e-3
-1.427, 2.627e-3
-1.428, 2.658e-3
-1.429, 2.689e-3
-1.430, 2.716e-3
-1.431, 2.741e-3
-1.432, 2.766e-3
-1.433, 2.797e-3
-1.434, 2.827e-3
-1.435, 2.861e-3
-1.436, 2.892e-3
-1.437, 2.920e-3
-1.438, 2.951e-3
-1.439, 2.978e-3
-1.440, 3.012e-3
-1.441, 3.046e-3
-1.442, 3.077e-3
-1.443, 3.105e-3
-1.444, 3.136e-3
-1.445, 3.167e-3
-1.446, 3.200e-3
-1.447, 3.237e-3
-1.448, 3.271e-3
-1.449, 3.299e-3
-1.450, 3.333e-3
-1.451, 3.370e-3
-1.452, 3.404e-3
-1.453, 3.441e-3
-1.454, 3.475e-3
-1.455, 3.506e-3
-1.456, 3.533e-3
-1.457, 3.564e-3
-1.458, 3.598e-3
-1.459, 3.635e-3
-1.460, 3.675e-3
-1.461, 3.709e-3
-1.462, 3.740e-3
-1.463, 3.768e-3
-1.464, 3.792e-3
-1.465, 3.817e-3
-1.466, 3.851e-3
-1.467, 3.888e-3
-1.468, 3.928e-3
-1.469, 3.962e-3
-1.470, 4.002e-3
-1.471, 4.039e-3
-1.472, 4.073e-3
-1.473, 4.110e-3
-1.474, 4.147e-3
-1.475, 4.181e-3
-1.476, 4.218e-3
-1.477, 4.255e-3
-1.478, 4.289e-3
-1.479, 4.329e-3
-1.480, 4.369e-3
-1.481, 4.406e-3
-1.482, 4.446e-3
-1.483, 4.483e-3
-1.484, 4.523e-3
-1.485, 4.560e-3
-1.486, 4.600e-3
-1.487, 4.637e-3
-1.488, 4.677e-3
-1.489, 4.717e-3
-1.490, 4.757e-3
-1.491, 4.797e-3
-1.492, 4.838e-3
-1.493, 4.881e-3
-1.494, 4.918e-3
-1.495, 4.961e-3
-1.496, 5.004e-3
-1.497, 5.050e-3
-1.498, 5.093e-3
-1.499, 5.130e-3
-1.500, 5.109e-3
-1.499, 5.013e-3
-1.498, 4.949e-3
-1.497, 4.890e-3
-1.496, 4.844e-3
-1.495, 4.794e-3
-1.494, 4.742e-3
-1.493, 4.693e-3
-1.492, 4.637e-3
-1.491, 4.585e-3
-1.490, 4.529e-3
-1.489, 4.483e-3
-1.488, 4.440e-3
-1.487, 4.397e-3
-1.486, 4.354e-3
-1.485, 4.304e-3
-1.484, 4.255e-3
-1.483, 4.202e-3
-1.482, 4.156e-3
-1.481, 4.110e-3
-1.480, 4.070e-3
-1.479, 4.033e-3
-1.478, 3.993e-3
-1.477, 3.953e-3
-1.476, 3.906e-3
-1.475, 3.863e-3
-1.474, 3.817e-3
-1.473, 3.774e-3
-1.472, 3.740e-3
-1.471, 3.700e-3
-1.470, 3.663e-3
-1.469, 3.623e-3
-1.468, 3.583e-3
-1.467, 3.540e-3
-1.466, 3.496e-3
-1.465, 3.453e-3
-1.464, 3.410e-3
-1.463, 3.376e-3
-1.462, 3.339e-3
-1.461, 3.302e-3
-1.460, 3.265e-3
-1.459, 3.228e-3
-1.458, 3.188e-3
-1.457, 3.148e-3
-1.456, 3.111e-3
-1.455, 3.074e-3
-1.454, 3.043e-3
-1.453, 3.009e-3
-1.452, 2.975e-3
-1.451, 2.941e-3
-1.450, 2.904e-3
-1.449, 2.867e-3
-1.448, 2.834e-3
-1.447, 2.803e-3
-1.446, 2.769e-3
-1.445, 2.738e-3
-1.444, 2.701e-3
-1.443, 2.670e-3
-1.442, 2.636e-3
-1.441, 2.602e-3
-1.440, 2.571e-3
-1.439, 2.541e-3
-1.438, 2.510e-3
-1.437, 2.482e-3
-1.436, 2.451e-3
-1.435, 2.417e-3
-1.434, 2.383e-3
-1.433, 2.356e-3
-1.432, 2.325e-3
-1.431, 2.300e-3
-1.430, 2.269e-3
-1.429, 2.242e-3
-1.428, 2.214e-3
-1.427, 2.183e-3
-1.426, 2.152e-3
-1.425, 2.121e-3
-1.424, 2.094e-3
-1.423, 2.066e-3
-1.422, 2.041e-3
-1.421, 2.017e-3
-1.420, 1.989e-3
-1.419, 1.961e-3
-1.418, 1.936e-3
-1.417, 1.909e-3
-1.416, 1.884e-3
-1.415, 1.859e-3
-1.414, 1.835e-3
-1.413, 1.813e-3
-1.412, 1.788e-3
-1.411, 1.764e-3
-1.410, 1.739e-3
-1.409, 1.714e-3
-1.408, 1.687e-3
-1.407, 1.662e-3
-1.406, 1.640e-3
-1.405, 1.619e-3
-1.404, 1.597e-3
-1.403, 1.573e-3
-1.402, 1.548e-3
-1.401, 1.523e-3
-1.400, 1.502e-3
-1.399, 1.477e-3
-1.398, 1.458e-3
-1.397, 1.440e-3
-1.396, 1.418e-3
-1.395, 1.400e-3
-1.394, 1.375e-3
-1.393, 1.351e-3
-1.392, 1.329e-3
-1.391, 1.307e-3
-1.390, 1.289e-3
-1.389, 1.270e-3
-1.388, 1.252e-3
-1.387, 1.230e-3
-1.386, 1.215e-3
-1.385, 1.193e-3
-1.384, 1.172e-3
-1.383, 1.153e-3
-1.382, 1.132e-3
-1.381, 1.116e-3
-1.380, 1.098e-3
-1.379, 1.082e-3
-1.378, 1.064e-3
-1.377, 1.042e-3
-1.376, 1.027e-3
-1.375, 1.008e-3
-1.374, 9.898e-4
-1.373, 9.744e-4
-1.372, 9.590e-4
-1.371, 9.436e-4
-1.370, 9.282e-4
-1.369, 9.097e-4
-1.368, 8.943e-4
-1.367, 8.758e-4
-1.366, 8.573e-4
-1.365, 8.449e-4
-1.364, 8.326e-4
-1.363, 8.141e-4
-1.362, 7.925e-4
-1.361, 7.740e-4
-1.360, 7.586e-4
-1.359, 7.463e-4
-1.358, 7.339e-4
-1.357, 7.216e-4
-1.356, 7.093e-4
-1.355, 6.969e-4
-1.354, 6.815e-4
-1.353, 6.692e-4
-1.352, 6.538e-4
-1.351, 6.414e-4
-1.350, 6.260e-4
-1.349, 6.168e-4
-1.348, 6.014e-4
-1.347, 5.890e-4
-1.346, 5.767e-4
-1.345, 5.644e-4
-1.344, 5.489e-4
-1.343, 5.366e-4
-1.342, 5.274e-4
-1.341, 5.150e-4
-1.340, 5.027e-4
-1.339, 4.904e-4
-1.338, 4.811e-4
-1.337, 4.688e-4
-1.336, 4.595e-4
-1.335, 4.472e-4
-1.334, 4.349e-4
-1.333, 4.256e-4
-1.332, 4.133e-4
-1.331, 4.040e-4
-1.330, 3.948e-4
-1.329, 3.825e-4
-1.328, 3.732e-4
-1.327, 3.609e-4
-1.326, 3.547e-4
-1.325, 3.424e-4
-1.324, 3.331e-4
-1.323, 3.239e-4
-1.322, 3.146e-4
-1.321, 3.054e-4
-1.320, 2.992e-4
-1.319, 2.869e-4
-1.318, 2.776e-4
-1.317, 2.684e-4
-1.316, 2.591e-4
-1.315, 2.530e-4
-1.314, 2.437e-4
-1.313, 2.345e-4
-1.312, 2.283e-4
-1.311, 2.191e-4
-1.310, 2.129e-4
-1.309, 2.036e-4
-1.308, 1.944e-4
-1.307, 1.882e-4
-1.306, 1.790e-4
-1.305, 1.728e-4
-1.304, 1.666e-4
-1.303, 1.574e-4
-1.302, 1.481e-4
-1.301, 1.420e-4
-1.300, 1.358e-4
-1.299, 1.296e-4
-1.298, 1.235e-4
-1.297, 1.173e-4
-1.296, 1.111e-4
-1.295, 1.019e-4
-1.294, 9.573e-5
-1.293, 8.957e-5
-1.292, 8.340e-5
-1.291, 8.032e-5
-1.290, 7.107e-5
-1.289, 6.490e-5
-1.288, 6.182e-5
-1.287, 5.257e-5
-1.286, 4.949e-5
-1.285, 4.640e-5
-1.284, 3.715e-5
-1.283, 3.407e-5
-1.282, 2.790e-5
-1.281, 2.174e-5
-1.280, 1.557e-5
-1.279, 9.405e-6
-1.278, 6.322e-6
-1.277, 1.559e-7
-1.276, -2.927e-6
-1.275, -9.093e-6
-1.274, -1.218e-5
-1.273, -1.834e-5
-1.272, -2.451e-5
-1.271, -2.759e-5
-1.270, -3.068e-5
-1.269, -3.684e-5
-1.268, -3.992e-5
-1.267, -4.301e-5
-1.266, -4.609e-5
-1.265, -4.917e-5
-1.264, -5.534e-5
-1.263, -5.842e-5
-1.262, -6.151e-5
-1.261, -6.459e-5
-1.260, -7.076e-5
-1.259, -7.384e-5
-1.258, -7.692e-5
-1.257, -8.000e-5
-1.256, -8.309e-5
-1.255, -8.617e-5
-1.254, -9.234e-5
-1.253, -9.234e-5
-1.252, -9.542e-5
-1.251, -9.850e-5
-1.250, -1.016e-4
-1.249, -1.047e-4
-1.248, -1.078e-4
-1.247, -1.108e-4
-1.246, -1.139e-4
-1.245, -1.170e-4
-1.244, -1.170e-4
-1.243, -1.201e-4
-1.242, -1.232e-4
-1.241, -1.263e-4
-1.240, -1.293e-4
-1.239, -1.324e-4
-1.238, -1.324e-4
-1.237, -1.355e-4
-1.236, -1.386e-4
-1.235, -1.386e-4
-1.234, -1.417e-4
-1.233, -1.448e-4
-1.232, -1.448e-4
-1.231, -1.478e-4
-1.230, -1.478e-4
-1.229, -1.509e-4
-1.228, -1.540e-4
-1.227, -1.540e-4
-1.226, -1.571e-4
-1.225, -1.602e-4
-1.224, -1.602e-4
-1.223, -1.602e-4
-1.222, -1.632e-4
-1.221, -1.632e-4
-1.220, -1.663e-4
-1.219, -1.663e-4
-1.218, -1.663e-4
-1.217, -1.694e-4
-1.216, -1.694e-4
-1.215, -1.725e-4
-1.214, -1.725e-4
-1.213, -1.756e-4
-1.212, -1.756e-4
-1.211, -1.787e-4
-1.210, -1.787e-4
-1.209, -1.787e-4
-1.208, -1.787e-4
-1.207, -1.817e-4
-1.206, -1.817e-4
-1.205, -1.817e-4
-1.204, -1.848e-4
-1.203, -1.848e-4
-1.202, -1.848e-4
-1.201, -1.879e-4
-1.200, -1.879e-4
-1.199, -1.879e-4
-1.198, -1.910e-4
-1.197, -1.910e-4
-1.196, -1.910e-4
-1.195, -1.910e-4
-1.194, -1.910e-4
-1.193, -1.910e-4
-1.192, -1.941e-4
-1.191, -1.941e-4
-1.190, -1.941e-4
-1.189, -1.941e-4
-1.188, -1.972e-4
-1.187, -1.972e-4
-1.186, -1.972e-4
-1.185, -1.972e-4
-1.184, -1.972e-4
-1.183, -2.002e-4
-1.182, -2.002e-4
-1.181, -2.002e-4
-1.180, -2.002e-4
-1.179, -2.002e-4
-1.178, -2.002e-4
-1.177, -2.002e-4
-1.176, -2.033e-4
-1.175, -2.033e-4
-1.174, -2.033e-4
-1.173, -2.033e-4
-1.172, -2.033e-4
-1.171, -2.033e-4
-1.170, -2.033e-4
-1.169, -2.033e-4
-1.168, -2.033e-4
-1.167, -2.064e-4
-1.166, -2.033e-4
-1.165, -2.064e-4
-1.164, -2.064e-4
-1.163, -2.064e-4
-1.162, -2.064e-4
-1.161, -2.064e-4
-1.160, -2.064e-4
-1.159, -2.064e-4
-1.158, -2.064e-4
-1.157, -2.064e-4
-1.156, -2.064e-4
-1.155, -2.064e-4
-1.154, -2.095e-4
-1.153, -2.095e-4
-1.152, -2.095e-4
-1.151, -2.095e-4
-1.150, -2.095e-4
-1.149, -2.095e-4
-1.148, -2.095e-4
-1.147, -2.095e-4
-1.146, -2.095e-4
-1.145, -2.095e-4
-1.144, -2.095e-4
-1.143, -2.095e-4
-1.142, -2.095e-4
-1.141, -2.095e-4
-1.140, -2.126e-4
-1.139, -2.095e-4
-1.138, -2.126e-4
-1.137, -2.126e-4
-1.136, -2.095e-4
-1.135, -2.126e-4
-1.134, -2.126e-4
-1.133, -2.126e-4
-1.132, -2.126e-4
-1.131, -2.126e-4
-1.130, -2.126e-4
-1.129, -2.126e-4
-1.128, -2.095e-4
-1.127, -2.095e-4
-1.126, -2.126e-4
-1.125, -2.126e-4
-1.124, -2.126e-4
-1.123, -2.126e-4
-1.122, -2.126e-4
-1.121, -2.126e-4
-1.120, -2.126e-4
-1.119, -2.126e-4
-1.118, -2.126e-4
-1.117, -2.126e-4
-1.116, -2.126e-4
-1.115, -2.126e-4
-1.114, -2.126e-4
-1.113, -2.126e-4
-1.112, -2.157e-4
-1.111, -2.126e-4
-1.110, -2.126e-4
-1.109, -2.157e-4
-1.108, -2.157e-4
-1.107, -2.157e-4
-1.106, -2.157e-4
-1.105, -2.157e-4
-1.104, -2.157e-4
-1.103, -2.157e-4
-1.102, -2.126e-4
-1.101, -2.126e-4
-1.100, -2.157e-4
-1.099, -2.126e-4
-1.098, -2.126e-4
-1.097, -2.157e-4
-1.096, -2.126e-4
-1.095, -2.157e-4
-1.094, -2.157e-4
-1.093, -2.157e-4
-1.092, -2.157e-4
-1.091, -2.157e-4
-1.090, -2.157e-4
-1.089, -2.157e-4
-1.088, -2.157e-4
-1.087, -2.157e-4
-1.086, -2.157e-4
-1.085, -2.157e-4
-1.084, -2.157e-4
-1.083, -2.157e-4
-1.082, -2.157e-4
-1.081, -2.157e-4
-1.080, -2.157e-4
-1.079, -2.157e-4
-1.078, -2.157e-4
-1.077, -2.187e-4
-1.076, -2.187e-4
-1.075, -2.187e-4
-1.074, -2.187e-4
-1.073, -2.187e-4
-1.072, -2.157e-4
-1.071, -2.157e-4
-1.070, -2.187e-4
-1.069, -2.187e-4
-1.068, -2.187e-4
-1.067, -2.157e-4
-1.066, -2.187e-4
-1.065, -2.187e-4
-1.064, -2.187e-4
-1.063, -2.187e-4
-1.062, -2.187e-4
-1.061, -2.187e-4
-1.060, -2.187e-4
-1.059, -2.187e-4
-1.058, -2.187e-4
-1.057, -2.187e-4
-1.056, -2.187e-4
-1.055, -2.187e-4
-1.054, -2.187e-4
-1.053, -2.187e-4
-1.052, -2.187e-4
-1.051, -2.187e-4
-1.050, -2.187e-4
-1.049, -2.218e-4
-1.048, -2.218e-4
-1.047, -2.218e-4
-1.046, -2.187e-4
-1.045, -2.218e-4
-1.044, -2.218e-4
-1.043, -2.218e-4
-1.042, -2.187e-4
-1.041, -2.218e-4
-1.040, -2.218e-4
-1.039, -2.218e-4
-1.038, -2.218e-4
-1.037, -2.187e-4
-1.036, -2.218e-4
-1.035, -2.218e-4
-1.034, -2.218e-4
-1.033, -2.218e-4
-1.032, -2.218e-4
-1.031, -2.218e-4
-1.030, -2.218e-4
-1.029, -2.249e-4
-1.028, -2.249e-4
-1.027, -2.218e-4
-1.026, -2.218e-4
-1.025, -2.249e-4
-1.024, -2.249e-4
-1.023, -2.249e-4
-1.022, -2.249e-4
-1.021, -2.249e-4
-1.020, -2.249e-4
-1.019, -2.249e-4
-1.018, -2.249e-4
-1.017, -2.280e-4
-1.016, -2.249e-4
-1.015, -2.249e-4
-1.014, -2.280e-4
-1.013, -2.249e-4
-1.012, -2.280e-4
-1.011, -2.280e-4
-1.010, -2.249e-4
-1.009, -2.280e-4
-1.008, -2.280e-4
-1.007, -2.280e-4
-1.006, -2.280e-4
-1.005, -2.280e-4
-1.004, -2.280e-4
-1.003, -2.280e-4
-1.002, -2.280e-4
-1.001, -2.280e-4
