Potential V vs RHE, Current mA cm-2
0.013299999999999867,-0.016014531914472215
0.012299999999999978,-0.03802743974037219
0.011299999999999866,-0.04883583407134107
0.010299999999999976,-0.0560084203616568
0.009299999999999864,-0.06032328982624517
0.008299999999999974,-0.06490695443780789
0.007299999999999862,-0.06862764515645292
0.006299999999999972,-0.07335278089800215
0.00529999999999986,-0.0771017658426445
0.0042999999999999705,-0.0794360394874218
0.0032999999999998586,-0.08162884200221261
0.0022999999999999687,-0.08394896853399128
0.0012999999999998568,-0.08764136502663902
0.00029999999999996696,-0.09088105390332996
-0.000700000000000145,-0.09212599984721119
-0.0017000000000000348,-0.09405000721502763
-0.0027000000000001467,-0.09550715985388863
-0.0037000000000000366,-0.09840731801861195
-0.0047000000000001485,-0.10130747618333527
-0.005700000000000038,-0.10173188957329479
-0.00670000000000015,-0.10334466045514094
-0.00770000000000004,-0.10463204773801811
-0.008700000000000152,-0.1080839433096888
-0.009700000000000042,-0.11050309963245801
-0.010700000000000154,-0.11082848323142698
-0.011700000000000044,-0.1116207215593514
-0.012700000000000156,-0.11392670097813141
-0.013700000000000045,-0.1159214439109411
-0.014700000000000157,-0.11791618684375081
-0.015700000000000047,-0.11852451270269278
-0.01670000000000016,-0.11903380877064418
-0.01770000000000005,-0.12119831705943768
-0.01870000000000016,-0.12242911589032028
-0.01970000000000005,-0.12429653480614214
-0.020700000000000163,-0.125555627863022
-0.021700000000000053,-0.12571124610600715
-0.022700000000000164,-0.12747963523083847
-0.023700000000000054,-0.12961584929363465
-0.024700000000000166,-0.1311437374974889
-0.025700000000000056,-0.1317662104694295
-0.026700000000000168,-0.13213403540739443
-0.027700000000000058,-0.1333082457862824
-0.02870000000000017,-0.1358971674650354
-0.02970000000000006,-0.13773629215485997
-0.03070000000000017,-0.13766555658986673
-0.03170000000000006,-0.1374674970078856
-0.03270000000000017,-0.1398866533306548
-0.03370000000000006,-0.14147112998650369
-0.034700000000000175,-0.1424614278964092
-0.035700000000000065,-0.1427443701563822
-0.03670000000000018,-0.1435931969363012
-0.03770000000000007,-0.14430055258623375
-0.03870000000000018,-0.1465640906660178
-0.03970000000000007,-0.14797880196588284
-0.04070000000000018,-0.14769585970590982
-0.04170000000000007,-0.14840321535584233
-0.04270000000000018,-0.14911057100577488
-0.04370000000000007,-0.1509496956955994
-0.044700000000000184,-0.15321323377538346
-0.045700000000000074,-0.15193999360550495
-0.046700000000000186,-0.15293029151541046
-0.047700000000000076,-0.15377911829532948
-0.04870000000000019,-0.15561824298515403
-0.04970000000000008,-0.15802325219492458
-0.05070000000000019,-0.15689148315503257
-0.05170000000000008,-0.15689148315503257
-0.05270000000000019,-0.1583061944548976
-0.05370000000000008,-0.15972090575476264
-0.05470000000000019,-0.16099414592464115
-0.05570000000000008,-0.16056973253468165
-0.056700000000000195,-0.16085267479465465
-0.057700000000000085,-0.1622673860945197
-0.058700000000000196,-0.16311621287443873
-0.059700000000000086,-0.16368209739438472
-0.0607000000000002,-0.16438945304431726
-0.06170000000000009,-0.16467239530429026
-0.0627000000000002,-0.1655212220842093
-0.06370000000000009,-0.1667944622540878
-0.0647000000000002,-0.16736034677403386
-0.06570000000000009,-0.16736034677403386
-0.0667000000000002,-0.16707740451406086
-0.0677000000000001,-0.16778476016399335
-0.0687000000000002,-0.1696238848538179
-0.0697000000000001,-0.17033124050375043
-0.07070000000000021,-0.1697653559838044
-0.0717000000000001,-0.17075565389370992
-0.07270000000000021,-0.17089712502369644
-0.0737000000000001,-0.172736249713521
-0.07470000000000021,-0.172736249713521
-0.0757000000000001,-0.17245330745354798
-0.07670000000000021,-0.17231183632356148
-0.0777000000000001,-0.173019191973494
-0.07870000000000021,-0.17443390327335903
-0.0797000000000001,-0.17499978779330505
-0.08070000000000022,-0.17457537440334553
-0.0817000000000001,-0.17499978779330505
-0.08270000000000022,-0.17485831666331855
-0.08370000000000011,-0.17613155683319706
-0.08470000000000022,-0.1769803836131161
-0.08570000000000011,-0.17570714344323757
-0.08670000000000022,-0.17627302796318356
-0.08770000000000011,-0.1772633258730891
-0.08870000000000022,-0.1783950949129811
-0.08970000000000011,-0.17924392169290015
-0.09070000000000022,-0.17782921039303512
-0.09170000000000011,-0.1772633258730891
-0.09270000000000023,-0.1782536237829946
-0.09370000000000012,-0.17924392169290015
-0.09470000000000023,-0.17952686395287318
-0.09570000000000012,-0.17924392169290015
-0.09670000000000023,-0.17896097943292713
-0.09770000000000012,-0.17995127734283267
-0.09870000000000023,-0.18108304638272468
-0.09970000000000012,-0.18094157525273818
-0.10070000000000023,-0.18094157525273818
-0.10170000000000012,-0.18009274847281917
-0.10270000000000024,-0.18094157525273818
-0.10370000000000013,-0.18193187316264373
-0.10470000000000024,-0.18235628655260325
-0.10570000000000013,-0.18235628655260325
-0.10670000000000024,-0.18136598864269768
-0.10770000000000013,-0.18207334429263022
-0.10870000000000024,-0.18320511333252223
-0.10970000000000013,-0.18334658446250876
-0.11070000000000024,-0.18278069994256274
-0.11170000000000013,-0.18278069994256274
-0.11270000000000002,-0.18334658446250876
-0.11370000000000013,-0.1847612957623738
-0.11470000000000002,-0.1847612957623738
-0.11570000000000014,-0.1843368823724143
-0.11670000000000003,-0.18405394011244128
-0.11770000000000014,-0.18419541124242778
-0.11870000000000003,-0.1854686514123063
-0.11970000000000014,-0.1860345359322523
-0.12070000000000003,-0.1850442380223468
-0.12170000000000014,-0.1856101225422928
-0.12270000000000003,-0.1857515936722793
-0.12370000000000014,-0.18688336271217135
-0.12470000000000003,-0.18674189158218485
-0.12570000000000014,-0.1861760070622388
-0.12670000000000003,-0.1861760070622388
-0.12770000000000015,-0.18645894932221183
-0.12870000000000004,-0.18730777610213087
-0.12970000000000015,-0.18843954514202288
-0.13070000000000004,-0.18759071836210386
-0.13170000000000015,-0.18744924723211737
-0.13270000000000004,-0.18858101627200938
-0.13370000000000015,-0.18858101627200938
-0.13470000000000004,-0.18928837192194192
-0.13570000000000015,-0.18914690079195542
-0.13670000000000004,-0.18886395853198237
-0.13770000000000016,-0.18971278531190142
-0.13870000000000005,-0.19098602548177993
-0.13970000000000016,-0.19056161209182043
-0.14070000000000005,-0.19098602548177993
-0.14170000000000016,-0.19084455435179343
-0.14270000000000005,-0.19098602548177993
-0.14370000000000016,-0.192117794521672
-0.14470000000000005,-0.19254220791163149
-0.14570000000000016,-0.192400736781645
-0.14670000000000005,-0.192117794521672
-0.14770000000000016,-0.192400736781645
-0.14870000000000005,-0.19438133260145604
-0.14970000000000017,-0.1933910346915505
-0.15070000000000006,-0.19395691921149652
-0.15170000000000017,-0.19381544808151
-0.15270000000000006,-0.19438133260145604
-0.15370000000000017,-0.1966448706812401
-0.15470000000000006,-0.1965033995512536
-0.15570000000000017,-0.19636192842126707
-0.15670000000000006,-0.1965033995512536
-0.15770000000000017,-0.1965033995512536
-0.15870000000000006,-0.19791811085111863
-0.15970000000000018,-0.19791811085111863
-0.16070000000000007,-0.1976351685911456
-0.16170000000000018,-0.19777663972113213
-0.16270000000000007,-0.19834252424107812
-0.16370000000000018,-0.19961576441095666
-0.16470000000000007,-0.20004017780091618
-0.16570000000000018,-0.20004017780091618
-0.16670000000000007,-0.20018164893090268
-0.16770000000000018,-0.2007475334508487
-0.16870000000000007,-0.20244518701068673
-0.16970000000000018,-0.20272812927065975
-0.17070000000000007,-0.20230371588070023
-0.17170000000000019,-0.20244518701068673
-0.17270000000000008,-0.2038598983105518
-0.1737000000000002,-0.20456725396048434
-0.17470000000000008,-0.20499166735044383
-0.1757000000000002,-0.20499166735044383
-0.17670000000000008,-0.20499166735044383
-0.1777000000000002,-0.20612343639033584
-0.17870000000000008,-0.20725520543022788
-0.1797000000000002,-0.2078210899501739
-0.18070000000000008,-0.20838697447011992
-0.1817000000000002,-0.2076796188201874
-0.18270000000000008,-0.2089528589900659
-0.1837000000000002,-0.21008462802995795
-0.1847000000000001,-0.21079198367989047
-0.1857000000000002,-0.21079198367989047
-0.1867000000000001,-0.21050904141991747
-0.1877000000000002,-0.2116408104598095
-0.1887000000000001,-0.21347993514963404
-0.1897000000000002,-0.21376287740960703
-0.1907000000000001,-0.21390434853959353
-0.1917000000000001,-0.21418729079956658
-0.19269999999999998,-0.2151775887094721
-0.1937000000000001,-0.2164508288793506
-0.19469999999999998,-0.21729965565926962
-0.1957000000000001,-0.21659230000933713
-0.19669999999999999,-0.21772406904922914
-0.1977000000000001,-0.2181484824391887
-0.1987,-0.21942172260906717
-0.1997000000000001,-0.2204120205189727
-0.2007,-0.2202705493889862
-0.2017000000000001,-0.22126084729889173
-0.2027,-0.22182673181883775
-0.2037000000000001,-0.2235243853786758
-0.2047,-0.2245146832885813
-0.2057000000000001,-0.22437321215859482
-0.2067,-0.2245146832885813
-0.2077000000000001,-0.22564645232847336
-0.2087,-0.2273441058883114
-0.2097000000000001,-0.22833440379821693
-0.2107,-0.22805146153824393
-0.2117000000000001,-0.22890028831816295
-0.2127,-0.23045647074801448
-0.2137000000000001,-0.2321541243078525
-0.2147,-0.23300295108777153
-0.2157000000000001,-0.23342736447773108
-0.2167,-0.23356883560771755
-0.21770000000000012,-0.23526648916755558
-0.2187,-0.23696414272739363
-0.21970000000000012,-0.23724708498736666
-0.2207,-0.23724708498736666
-0.22170000000000012,-0.23809591176728565
-0.2227,-0.2396520941971372
-0.22370000000000012,-0.24106680549700227
-0.2247,-0.24163269001694826
-0.22570000000000012,-0.24191563227692126
-0.2267,-0.24248151679686727
-0.22770000000000012,-0.24361328583675934
-0.22870000000000001,-0.24615976617651636
-0.22970000000000013,-0.24658417956647588
-0.23070000000000002,-0.24658417956647588
-0.23170000000000013,-0.24729153521640837
-0.23270000000000002,-0.2485647753862869
-0.23370000000000013,-0.25068684233608446
-0.23470000000000002,-0.2512527268560305
-0.23570000000000013,-0.2515356691160035
-0.23670000000000002,-0.2523844958959225
-0.2376999999999999,-0.25309185154585506
-0.23870000000000002,-0.25493097623567956
-0.2396999999999999,-0.2557798030155986
-0.24070000000000003,-0.25634568753554465
-0.24169999999999991,-0.25705304318547717
-0.24270000000000003,-0.25761892770542316
-0.24369999999999992,-0.2594580523952477
-0.24470000000000003,-0.26058982143513976
-0.24569999999999992,-0.2610142348250993
-0.24670000000000003,-0.2618630616050183
-0.24769999999999992,-0.2628533595149239
-0.24870000000000003,-0.2646924842047484
-0.24969999999999992,-0.2649754264647214
-0.25070000000000003,-0.2648339553347349
-0.2516999999999999,-0.2656827821146539
-0.25270000000000004,-0.26738043567449193
-0.2536999999999999,-0.268795146974357
-0.25470000000000004,-0.269926916014249
-0.2556999999999999,-0.269926916014249
-0.25670000000000004,-0.2700683871442355
-0.25769999999999993,-0.27134162731411404
-0.25870000000000004,-0.2727563386139791
-0.25969999999999993,-0.2734636942639116
-0.26070000000000004,-0.2734636942639116
-0.26169999999999993,-0.2734636942639116
-0.26270000000000004,-0.27572723234369567
-0.26369999999999993,-0.2777078281635067
-0.26470000000000005,-0.27841518381343927
-0.26569999999999994,-0.27855665494342574
-0.26670000000000005,-0.27869812607341227
-0.26769999999999994,-0.27940548172334473
-0.26870000000000005,-0.2812446064131693
-0.26969999999999994,-0.2819519620631018
-0.27070000000000005,-0.28280078884302084
-0.27169999999999994,-0.28308373110299384
-0.27270000000000005,-0.2843569712728724
-0.27369999999999994,-0.28605462483271044
-0.27470000000000006,-0.28619609596269696
-0.27569999999999995,-0.28647903822266996
-0.27670000000000006,-0.2883181629124945
-0.27769999999999995,-0.2894499319523865
-0.27870000000000006,-0.29086464325225153
-0.27969999999999995,-0.2915719989021841
-0.28070000000000006,-0.29227935455211657
-0.28169999999999995,-0.2929867102020491
-0.28270000000000006,-0.29454289263190064
-0.28369999999999995,-0.2962405461917387
-0.28470000000000006,-0.29708937297165766
-0.28569999999999995,-0.29708937297165766
-0.28670000000000007,-0.2986455554015092
-0.28769999999999996,-0.3002017378313608
-0.28870000000000007,-0.30260674704113133
-0.28969999999999996,-0.30402145834099636
-0.29070000000000007,-0.30458734286094236
-0.29169999999999996,-0.3055776407708479
-0.29270000000000007,-0.30727529433068596
-0.29369999999999996,-0.30883147676053746
-0.2947000000000001,-0.3108120725803486
-0.29569999999999996,-0.31095354371033507
-0.2967000000000001,-0.31208531275022705
-0.29769999999999996,-0.31505620647994365
-0.2987000000000001,-0.3173197445597277
-0.29969999999999997,-0.3181685713396467
-0.3007000000000001,-0.31972475376949827
-0.30169999999999997,-0.32099799393937684
-0.3027000000000001,-0.32354447427913385
-0.30369999999999997,-0.32580801235891793
-0.3047000000000001,-0.32722272365878297
-0.30569999999999997,-0.328637434958648
-0.3067000000000001,-0.33047655964847256
-0.3077,-0.3340133378981352
-0.3087000000000001,-0.33755011614779773
-0.3097,-0.3385404140577033
-0.3107000000000001,-0.3396721830975953
-0.3117,-0.34136983665743337
-0.3127000000000001,-0.34419925925716344
-0.3137,-0.347736037506826
-0.3147000000000001,-0.3494336910666641
-0.3157,-0.35141428688647514
-0.3167000000000001,-0.35466812287616467
-0.3177,-0.3584878433858003
-0.3187000000000001,-0.36216609276544937
-0.3197,-0.36386374632528745
-0.3207000000000001,-0.365985813275085
-0.3217,-0.3689567070048016
-0.3227000000000001,-0.37221054299449113
-0.3237,-0.3767376191540593
-0.3247000000000001,-0.37942557062380283
-0.3257,-0.3829623488734654
-0.3267000000000001,-0.387065011643074
-0.3277,-0.3913091455426691
-0.3287000000000001,-0.3948459237923317
-0.3297,-0.3979582886520348
-0.3307000000000001,-0.4016365380316839
-0.3317,-0.40531478741133303
-0.3327000000000001,-0.4109736326107932
-0.3337,-0.4147933531204288
-0.3347000000000001,-0.4196033715399699
-0.3357,-0.423847505439565
-0.3367000000000001,-0.4273842836892276
-0.3377,-0.4336090134086337
-0.3387000000000001,-0.4392678586080939
-0.3397,-0.444360819287608
-0.3407000000000001,-0.44888789544717617
-0.3417,-0.4535564427367308
-0.3427000000000001,-0.4604885281060694
-0.3437,-0.46756208460539456
-0.3447000000000001,-0.47223063189494924
-0.3457,-0.47817241935438237
-0.3467000000000001,-0.48354832229386957
-0.3477,-0.49048040766320816
-0.3487000000000001,-0.49769543529251986
-0.3497,-0.5034957516219666
-0.3507000000000001,-0.5095790102113862
-0.3517,-0.5167940378406979
-0.3527000000000001,-0.5251408345099016
-0.3537,-0.5319314487492538
-0.3547000000000001,-0.539570889768525
-0.3557,-0.5467859173978367
-0.35670000000000013,-0.5545668295470944
-0.3577,-0.5626306839563251
-0.35870000000000013,-0.5725336630553803
-0.3597,-0.579748690684692
-0.36070000000000013,-0.5880954873538957
-0.3617,-0.5965837551530859
-0.3626999999999999,-0.6069111476421007
-0.3637,-0.6163897133511964
-0.3646999999999999,-0.6257268079303058
-0.3657,-0.6337906623395364
-0.3666999999999999,-0.6445424682185106
-0.3677,-0.6548698607075254
-0.3686999999999999,-0.6656216665864998
-0.36970000000000003,-0.6766564147254471
-0.3706999999999999,-0.6867008649544888
-0.37170000000000003,-0.6975941419634496
-0.3726999999999999,-0.7097606591422889
-0.37370000000000003,-0.7210783495412092
-0.3746999999999999,-0.732537511070116
-0.37570000000000003,-0.7437137303390498
-0.3766999999999999,-0.7554558341279295
-0.37770000000000004,-0.7688955914766474
-0.3786999999999999,-0.7821938776953787
-0.37970000000000004,-0.7937945103542721
-0.3806999999999999,-0.8066683831830439
-0.38170000000000004,-0.8191178426218563
-0.38269999999999993,-0.8342552535304122
-0.38370000000000004,-0.8486853087890355
-0.38469999999999993,-0.8631153640476589
-0.38570000000000004,-0.8766965925263633
-0.38669999999999993,-0.8899948787450946
-0.38770000000000004,-0.9066884720835021
-0.38869999999999993,-0.922674709771977
-0.38970000000000005,-0.9383780052004788
-0.39069999999999994,-0.9530910027190752
-0.39170000000000005,-0.9689357692775638
-0.39269999999999994,-0.9866196605258766
-0.39370000000000005,-1.0030303116043109
-0.39469999999999994,-1.0197239049427183
-0.39570000000000005,-1.037266325061045
-0.39669999999999994,-1.054384331789412
-0.39770000000000005,-1.0727755786876572
-0.39869999999999994,-1.0930059502757274
-0.39970000000000006,-1.1108313126540268
-0.40069999999999995,-1.1296469729422318
-0.40170000000000006,-1.1487455754904097
-0.40269999999999995,-1.1679856491685743
-0.40370000000000006,-1.1896307320565096
-0.40469999999999995,-1.210002574774566
-0.40570000000000006,-1.2305158886226089
-0.40669999999999995,-1.2520195003805574
-0.40770000000000006,-1.2736645832684925
-0.40869999999999995,-1.2965829063263061
-0.40970000000000006,-1.319642700514106
-0.41069999999999995,-1.3404389566221222
-0.41170000000000007,-1.3629328662899765
-0.41269999999999996,-1.3882561985575603
-0.41370000000000007,-1.4120233483952929
-0.41469999999999996,-1.4359319693630124
-0.41570000000000007,-1.459982061460718
-0.41669999999999996,-1.4840321535584236
-0.41770000000000007,-1.512326379555724
-0.41869999999999996,-1.5377911829532949
-0.4197000000000001,-1.5632559863508655
-0.42069999999999996,-1.5901355010483011
-0.4217000000000001,-1.6170150157457368
-0.42269999999999996,-1.6453092417430377
-0.4237000000000001,-1.6736034677403384
-0.42469999999999997,-1.701897693737639
-0.4257000000000001,-1.7287772084350748
-0.42669999999999997,-1.7584861457322407
-0.4277000000000001,-1.7881950830294064
-0.42869999999999997,-1.8193187316264372
-0.4297000000000001,-1.850442380223468
-0.43069999999999997,-1.8801513175206337
-0.4317000000000001,-1.9112749661176645
-0.4327,-1.9438133260145605
-0.4337000000000001,-1.9777663972113213
-0.4347,-2.011719468408082
-0.4357000000000001,-2.045672539604843
-0.4367,-2.0782108995017388
-0.4377000000000001,-2.113578681998365
-0.4387,-2.150361175794856
-0.4397000000000001,-2.184314246991617
-0.4407,-2.2210967407881075
-0.4417000000000001,-2.2592939458844636
-0.4427,-2.296076439680954
-0.4437000000000001,-2.3371030673770408
-0.4447,-2.3738855611735317
-0.4457000000000001,-2.412082766269888
-0.4467,-2.4531093939659736
-0.4477000000000001,-2.49413602166206
-0.4487,-2.532333226758415
-0.4497000000000001,-2.5747745657543666
-0.4507,-2.615801193450453
-0.4517000000000001,-2.658242532446404
-0.4527,-2.7035132940420854
-0.4537000000000001,-2.7473693443379013
-0.4547,-2.788395972033987
-0.4557000000000001,-2.833666733629668
-0.4567,-2.8789374952253497
-0.4577000000000001,-2.925622968120896
-0.4587,-2.973723152316307
-0.4597000000000001,-3.0204086252118536
-0.4607,-3.0656793868075347
-0.4617000000000001,-3.1151942823028107
-0.4627,-3.164709177798087
-0.4637000000000001,-3.2156387845932284
-0.4647,-3.267983102688235
-0.4657000000000001,-3.3203274207832414
-0.4667,-3.371257027578382
-0.4677000000000001,-3.4250160569732535
-0.4687,-3.4787750863681253
-0.4697000000000001,-3.5311194044631313
-0.4707,-3.586293145157868
-0.4717000000000001,-3.6457110197521994
-0.4727,-3.702299471746801
-0.4737000000000001,-3.7603026350412674
-0.4747,-3.818305798335734
-0.4757000000000001,-3.8763089616302007
-0.4767,-3.934312124924667
-0.4777000000000001,-3.9965594221187284
-0.4787,-4.060221430612655
-0.4797000000000001,-4.1238834391065815
-0.4807,-4.1833013137009125
-0.48170000000000013,-4.24696332219484
-0.4827,-4.312040041988632
-0.48370000000000013,-4.377116761782423
-0.4847,-4.443608192876081
-0.48570000000000013,-4.512929046569467
-0.4867,-4.580835188962989
-0.4876999999999999,-4.651570753956241
-0.4887,-4.725135741549222
-0.4896999999999999,-4.795871306542475
-0.4907,-4.868021582835592
-0.4916999999999999,-4.941586570428573
-0.4927,-5.01656626932142
-0.4936999999999999,-5.091545968214268
-0.49470000000000003,-5.169355089706844
