Mar. 6, 2025   13:37:54
Cyclic Voltammetry
File: c:/users/guazh/data/banditlqround7_x0exp169_r20_3/2025-03-03-exp888\exp888-2025-03-06t13_29_27-arkoh\exp888_cv_50mvs_efin_-1500mv.bin
Data Source:  Experiment
Instrument Model:  CHI760E
Header: CV ran at 50 mVs
Note: 

Init E (V) = -1
High E (V) = -1
Low E (V) = -1.5
Final E (V) = -1
Init P/N = N
Scan Rate (V/s) = 0.05
Segment = 7
Sample Interval (V) = 0.001
Quiet Time (sec) = 60
Sensitivity (A/V) = 0.001
Comp R (ohm) = 1.3

Results:

Channel 1:
Segment 1:

Segment 2:

Segment 3:

Segment 4:

Segment 5:

Segment 6:

Segment 7:

Potential/V, Current/A

-1.000, 1.368e-5
-1.001, 1.971e-5
-1.002, 2.089e-5
-1.003, 2.182e-5
-1.004, 2.291e-5
-1.005, 2.300e-5
-1.006, 2.274e-5
-1.007, 2.301e-5
-1.008, 2.355e-5
-1.009, 2.415e-5
-1.010, 2.430e-5
-1.011, 2.386e-5
-1.012, 2.408e-5
-1.013, 2.448e-5
-1.014, 2.505e-5
-1.015, 2.519e-5
-1.016, 2.448e-5
-1.017, 2.475e-5
-1.018, 2.529e-5
-1.019, 2.561e-5
-1.020, 2.564e-5
-1.021, 2.527e-5
-1.022, 2.517e-5
-1.023, 2.590e-5
-1.024, 2.632e-5
-1.025, 2.618e-5
-1.026, 2.582e-5
-1.027, 2.572e-5
-1.028, 2.628e-5
-1.029, 2.664e-5
-1.030, 2.662e-5
-1.031, 2.624e-5
-1.032, 2.610e-5
-1.033, 2.665e-5
-1.034, 2.718e-5
-1.035, 2.699e-5
-1.036, 2.660e-5
-1.037, 2.662e-5
-1.038, 2.703e-5
-1.039, 2.758e-5
-1.040, 2.729e-5
-1.041, 2.694e-5
-1.042, 2.700e-5
-1.043, 2.727e-5
-1.044, 2.790e-5
-1.045, 2.774e-5
-1.046, 2.725e-5
-1.047, 2.741e-5
-1.048, 2.765e-5
-1.049, 2.820e-5
-1.050, 2.809e-5
-1.051, 2.752e-5
-1.052, 2.767e-5
-1.053, 2.812e-5
-1.054, 2.847e-5
-1.055, 2.846e-5
-1.056, 2.790e-5
-1.057, 2.794e-5
-1.058, 2.844e-5
-1.059, 2.872e-5
-1.060, 2.876e-5
-1.061, 2.814e-5
-1.062, 2.824e-5
-1.063, 2.877e-5
-1.064, 2.908e-5
-1.065, 2.895e-5
-1.066, 2.853e-5
-1.067, 2.853e-5
-1.068, 2.899e-5
-1.069, 2.942e-5
-1.070, 2.921e-5
-1.071, 2.894e-5
-1.072, 2.881e-5
-1.073, 2.915e-5
-1.074, 2.978e-5
-1.075, 2.969e-5
-1.076, 2.920e-5
-1.077, 2.912e-5
-1.078, 2.950e-5
-1.079, 3.004e-5
-1.080, 2.977e-5
-1.081, 2.926e-5
-1.082, 2.937e-5
-1.083, 2.972e-5
-1.084, 3.030e-5
-1.085, 3.013e-5
-1.086, 2.946e-5
-1.087, 2.970e-5
-1.088, 3.002e-5
-1.089, 3.046e-5
-1.090, 3.047e-5
-1.091, 2.971e-5
-1.092, 2.997e-5
-1.093, 3.027e-5
-1.094, 3.074e-5
-1.095, 3.070e-5
-1.096, 3.008e-5
-1.097, 3.005e-5
-1.098, 3.065e-5
-1.099, 3.091e-5
-1.100, 3.084e-5
-1.101, 3.031e-5
-1.102, 3.032e-5
-1.103, 3.097e-5
-1.104, 3.116e-5
-1.105, 3.097e-5
-1.106, 3.068e-5
-1.107, 3.054e-5
-1.108, 3.109e-5
-1.109, 3.156e-5
-1.110, 3.129e-5
-1.111, 3.098e-5
-1.112, 3.077e-5
-1.113, 3.132e-5
-1.114, 3.174e-5
-1.115, 3.148e-5
-1.116, 3.120e-5
-1.117, 3.105e-5
-1.118, 3.162e-5
-1.119, 3.211e-5
-1.120, 3.180e-5
-1.121, 3.125e-5
-1.122, 3.147e-5
-1.123, 3.184e-5
-1.124, 3.224e-5
-1.125, 3.202e-5
-1.126, 3.159e-5
-1.127, 3.173e-5
-1.128, 3.200e-5
-1.129, 3.251e-5
-1.130, 3.239e-5
-1.131, 3.182e-5
-1.132, 3.204e-5
-1.133, 3.239e-5
-1.134, 3.262e-5
-1.135, 3.276e-5
-1.136, 3.207e-5
-1.137, 3.217e-5
-1.138, 3.269e-5
-1.139, 3.306e-5
-1.140, 3.289e-5
-1.141, 3.247e-5
-1.142, 3.240e-5
-1.143, 3.306e-5
-1.144, 3.335e-5
-1.145, 3.314e-5
-1.146, 3.286e-5
-1.147, 3.269e-5
-1.148, 3.331e-5
-1.149, 3.374e-5
-1.150, 3.354e-5
-1.151, 3.314e-5
-1.152, 3.307e-5
-1.153, 3.359e-5
-1.154, 3.417e-5
-1.155, 3.375e-5
-1.156, 3.357e-5
-1.157, 3.344e-5
-1.158, 3.393e-5
-1.159, 3.459e-5
-1.160, 3.418e-5
-1.161, 3.374e-5
-1.162, 3.395e-5
-1.163, 3.441e-5
-1.164, 3.488e-5
-1.165, 3.466e-5
-1.166, 3.417e-5
-1.167, 3.442e-5
-1.168, 3.480e-5
-1.169, 3.524e-5
-1.170, 3.514e-5
-1.171, 3.468e-5
-1.172, 3.489e-5
-1.173, 3.535e-5
-1.174, 3.582e-5
-1.175, 3.567e-5
-1.176, 3.521e-5
-1.177, 3.555e-5
-1.178, 3.605e-5
-1.179, 3.631e-5
-1.180, 3.616e-5
-1.181, 3.588e-5
-1.182, 3.589e-5
-1.183, 3.667e-5
-1.184, 3.687e-5
-1.185, 3.685e-5
-1.186, 3.660e-5
-1.187, 3.657e-5
-1.188, 3.726e-5
-1.189, 3.772e-5
-1.190, 3.756e-5
-1.191, 3.736e-5
-1.192, 3.730e-5
-1.193, 3.791e-5
-1.194, 3.861e-5
-1.195, 3.832e-5
-1.196, 3.806e-5
-1.197, 3.825e-5
-1.198, 3.879e-5
-1.199, 3.950e-5
-1.200, 3.919e-5
-1.201, 3.899e-5
-1.202, 3.929e-5
-1.203, 3.983e-5
-1.204, 4.037e-5
-1.205, 4.032e-5
-1.206, 4.000e-5
-1.207, 4.036e-5
-1.208, 4.090e-5
-1.209, 4.160e-5
-1.210, 4.150e-5
-1.211, 4.116e-5
-1.212, 4.154e-5
-1.213, 4.220e-5
-1.214, 4.276e-5
-1.215, 4.287e-5
-1.216, 4.255e-5
-1.217, 4.288e-5
-1.218, 4.374e-5
-1.219, 4.419e-5
-1.220, 4.433e-5
-1.221, 4.411e-5
-1.222, 4.450e-5
-1.223, 4.532e-5
-1.224, 4.582e-5
-1.225, 4.582e-5
-1.226, 4.594e-5
-1.227, 4.618e-5
-1.228, 4.728e-5
-1.229, 4.800e-5
-1.230, 4.783e-5
-1.231, 4.792e-5
-1.232, 4.815e-5
-1.233, 4.900e-5
-1.234, 4.994e-5
-1.235, 4.992e-5
-1.236, 5.007e-5
-1.237, 5.051e-5
-1.238, 5.129e-5
-1.239, 5.228e-5
-1.240, 5.220e-5
-1.241, 5.238e-5
-1.242, 5.309e-5
-1.243, 5.381e-5
-1.244, 5.483e-5
-1.245, 5.499e-5
-1.246, 5.517e-5
-1.247, 5.585e-5
-1.248, 5.671e-5
-1.249, 5.770e-5
-1.250, 5.815e-5
-1.251, 5.818e-5
-1.252, 5.898e-5
-1.253, 6.009e-5
-1.254, 6.099e-5
-1.255, 6.160e-5
-1.256, 6.175e-5
-1.257, 6.244e-5
-1.258, 6.379e-5
-1.259, 6.472e-5
-1.260, 6.540e-5
-1.261, 6.565e-5
-1.262, 6.658e-5
-1.263, 6.796e-5
-1.264, 6.899e-5
-1.265, 6.953e-5
-1.266, 7.019e-5
-1.267, 7.114e-5
-1.268, 7.254e-5
-1.269, 7.386e-5
-1.270, 7.450e-5
-1.271, 7.521e-5
-1.272, 7.623e-5
-1.273, 7.770e-5
-1.274, 7.931e-5
-1.275, 7.996e-5
-1.276, 8.084e-5
-1.277, 8.201e-5
-1.278, 8.370e-5
-1.279, 8.538e-5
-1.280, 8.644e-5
-1.281, 8.711e-5
-1.282, 8.873e-5
-1.283, 9.035e-5
-1.284, 9.221e-5
-1.285, 9.335e-5
-1.286, 9.447e-5
-1.287, 9.616e-5
-1.288, 9.795e-5
-1.289, 9.989e-5
-1.290, 1.014e-4
-1.291, 1.025e-4
-1.292, 1.045e-4
-1.293, 1.067e-4
-1.294, 1.088e-4
-1.295, 1.104e-4
-1.296, 1.119e-4
-1.297, 1.140e-4
-1.298, 1.164e-4
-1.299, 1.187e-4
-1.300, 1.205e-4
-1.301, 1.225e-4
-1.302, 1.247e-4
-1.303, 1.275e-4
-1.304, 1.301e-4
-1.305, 1.322e-4
-1.306, 1.345e-4
-1.307, 1.371e-4
-1.308, 1.402e-4
-1.309, 1.430e-4
-1.310, 1.455e-4
-1.311, 1.482e-4
-1.312, 1.510e-4
-1.313, 1.545e-4
-1.314, 1.580e-4
-1.315, 1.607e-4
-1.316, 1.639e-4
-1.317, 1.672e-4
-1.318, 1.711e-4
-1.319, 1.750e-4
-1.320, 1.782e-4
-1.321, 1.817e-4
-1.322, 1.858e-4
-1.323, 1.900e-4
-1.324, 1.944e-4
-1.325, 1.984e-4
-1.326, 2.024e-4
-1.327, 2.071e-4
-1.328, 2.119e-4
-1.329, 2.169e-4
-1.330, 2.215e-4
-1.331, 2.261e-4
-1.332, 2.315e-4
-1.333, 2.371e-4
-1.334, 2.427e-4
-1.335, 2.481e-4
-1.336, 2.536e-4
-1.337, 2.597e-4
-1.338, 2.662e-4
-1.339, 2.726e-4
-1.340, 2.786e-4
-1.341, 2.850e-4
-1.342, 2.920e-4
-1.343, 2.993e-4
-1.344, 3.070e-4
-1.345, 3.142e-4
-1.346, 3.215e-4
-1.347, 3.295e-4
-1.348, 3.380e-4
-1.349, 3.465e-4
-1.350, 3.547e-4
-1.351, 3.637e-4
-1.352, 3.727e-4
-1.353, 3.823e-4
-1.354, 3.924e-4
-1.355, 4.021e-4
-1.356, 4.120e-4
-1.357, 4.225e-4
-1.358, 4.334e-4
-1.359, 4.449e-4
-1.360, 4.557e-4
-1.361, 4.674e-4
-1.362, 4.793e-4
-1.363, 4.919e-4
-1.364, 5.051e-4
-1.365, 5.176e-4
-1.366, 5.304e-4
-1.367, 5.441e-4
-1.368, 5.586e-4
-1.369, 5.729e-4
-1.370, 5.873e-4
-1.371, 6.023e-4
-1.372, 6.175e-4
-1.373, 6.336e-4
-1.374, 6.503e-4
-1.375, 6.664e-4
-1.376, 6.830e-4
-1.377, 7.003e-4
-1.378, 7.180e-4
-1.379, 7.364e-4
-1.380, 7.545e-4
-1.381, 7.723e-4
-1.382, 7.924e-4
-1.383, 8.117e-4
-1.384, 8.320e-4
-1.385, 8.517e-4
-1.386, 8.721e-4
-1.387, 8.927e-4
-1.388, 9.140e-4
-1.389, 9.360e-4
-1.390, 9.576e-4
-1.391, 9.799e-4
-1.392, 1.002e-3
-1.393, 1.026e-3
-1.394, 1.049e-3
-1.395, 1.073e-3
-1.396, 1.096e-3
-1.397, 1.121e-3
-1.398, 1.146e-3
-1.399, 1.170e-3
-1.400, 1.195e-3
-1.401, 1.220e-3
-1.402, 1.246e-3
-1.403, 1.273e-3
-1.404, 1.300e-3
-1.405, 1.326e-3
-1.406, 1.353e-3
-1.407, 1.380e-3
-1.408, 1.408e-3
-1.409, 1.436e-3
-1.410, 1.464e-3
-1.411, 1.492e-3
-1.412, 1.521e-3
-1.413, 1.550e-3
-1.414, 1.580e-3
-1.415, 1.610e-3
-1.416, 1.639e-3
-1.417, 1.669e-3
-1.418, 1.702e-3
-1.419, 1.733e-3
-1.420, 1.765e-3
-1.421, 1.795e-3
-1.422, 1.825e-3
-1.423, 1.856e-3
-1.424, 1.889e-3
-1.425, 1.920e-3
-1.426, 1.953e-3
-1.427, 1.984e-3
-1.428, 2.018e-3
-1.429, 2.053e-3
-1.430, 2.086e-3
-1.431, 2.119e-3
-1.432, 2.154e-3
-1.433, 2.190e-3
-1.434, 2.226e-3
-1.435, 2.260e-3
-1.436, 2.295e-3
-1.437, 2.331e-3
-1.438, 2.368e-3
-1.439, 2.407e-3
-1.440, 2.442e-3
-1.441, 2.476e-3
-1.442, 2.514e-3
-1.443, 2.554e-3
-1.444, 2.592e-3
-1.445, 2.630e-3
-1.446, 2.669e-3
-1.447, 2.709e-3
-1.448, 2.748e-3
-1.449, 2.786e-3
-1.450, 2.823e-3
-1.451, 2.864e-3
-1.452, 2.903e-3
-1.453, 2.939e-3
-1.454, 2.979e-3
-1.455, 3.015e-3
-1.456, 3.063e-3
-1.457, 3.104e-3
-1.458, 3.145e-3
-1.459, 3.183e-3
-1.460, 3.225e-3
-1.461, 3.267e-3
-1.462, 3.306e-3
-1.463, 3.344e-3
-1.464, 3.385e-3
-1.465, 3.425e-3
-1.466, 3.474e-3
-1.467, 3.515e-3
-1.468, 3.559e-3
-1.469, 3.601e-3
-1.470, 3.655e-3
-1.471, 3.697e-3
-1.472, 3.742e-3
-1.473, 3.784e-3
-1.474, 3.830e-3
-1.475, 3.869e-3
-1.476, 3.909e-3
-1.477, 3.951e-3
-1.478, 4.002e-3
-1.479, 4.049e-3
-1.480, 4.095e-3
-1.481, 4.134e-3
-1.482, 4.174e-3
-1.483, 4.220e-3
-1.484, 4.263e-3
-1.485, 4.307e-3
-1.486, 4.356e-3
-1.487, 4.399e-3
-1.488, 4.449e-3
-1.489, 4.493e-3
-1.490, 4.543e-3
-1.491, 4.583e-3
-1.492, 4.628e-3
-1.493, 4.670e-3
-1.494, 4.711e-3
-1.495, 4.758e-3
-1.496, 4.800e-3
-1.497, 4.861e-3
-1.498, 4.925e-3
-1.499, 4.964e-3
-1.500, 4.961e-3
-1.499, 4.905e-3
-1.498, 4.851e-3
-1.497, 4.778e-3
-1.496, 4.724e-3
-1.495, 4.704e-3
-1.494, 4.651e-3
-1.493, 4.587e-3
-1.492, 4.526e-3
-1.491, 4.478e-3
-1.490, 4.421e-3
-1.489, 4.370e-3
-1.488, 4.327e-3
-1.487, 4.276e-3
-1.486, 4.218e-3
-1.485, 4.167e-3
-1.484, 4.103e-3
-1.483, 4.049e-3
-1.482, 3.997e-3
-1.481, 3.985e-3
-1.480, 3.928e-3
-1.479, 3.870e-3
-1.478, 3.815e-3
-1.477, 3.762e-3
-1.476, 3.716e-3
-1.475, 3.662e-3
-1.474, 3.612e-3
-1.473, 3.562e-3
-1.472, 3.518e-3
-1.471, 3.471e-3
-1.470, 3.424e-3
-1.469, 3.378e-3
-1.468, 3.331e-3
-1.467, 3.282e-3
-1.466, 3.237e-3
-1.465, 3.189e-3
-1.464, 3.141e-3
-1.463, 3.095e-3
-1.462, 3.055e-3
-1.461, 3.008e-3
-1.460, 2.964e-3
-1.459, 2.925e-3
-1.458, 2.886e-3
-1.457, 2.845e-3
-1.456, 2.808e-3
-1.455, 2.765e-3
-1.454, 2.724e-3
-1.453, 2.681e-3
-1.452, 2.640e-3
-1.451, 2.600e-3
-1.450, 2.557e-3
-1.449, 2.517e-3
-1.448, 2.479e-3
-1.447, 2.439e-3
-1.446, 2.402e-3
-1.445, 2.363e-3
-1.444, 2.325e-3
-1.443, 2.289e-3
-1.442, 2.253e-3
-1.441, 2.218e-3
-1.440, 2.178e-3
-1.439, 2.144e-3
-1.438, 2.108e-3
-1.437, 2.073e-3
-1.436, 2.047e-3
-1.435, 2.012e-3
-1.434, 1.979e-3
-1.433, 1.945e-3
-1.432, 1.912e-3
-1.431, 1.879e-3
-1.430, 1.846e-3
-1.429, 1.813e-3
-1.428, 1.787e-3
-1.427, 1.755e-3
-1.426, 1.726e-3
-1.425, 1.694e-3
-1.424, 1.663e-3
-1.423, 1.634e-3
-1.422, 1.604e-3
-1.421, 1.576e-3
-1.420, 1.547e-3
-1.419, 1.518e-3
-1.418, 1.490e-3
-1.417, 1.462e-3
-1.416, 1.435e-3
-1.415, 1.409e-3
-1.414, 1.380e-3
-1.413, 1.354e-3
-1.412, 1.329e-3
-1.411, 1.303e-3
-1.410, 1.276e-3
-1.409, 1.252e-3
-1.408, 1.228e-3
-1.407, 1.205e-3
-1.406, 1.181e-3
-1.405, 1.157e-3
-1.404, 1.137e-3
-1.403, 1.114e-3
-1.402, 1.092e-3
-1.401, 1.070e-3
-1.400, 1.047e-3
-1.399, 1.026e-3
-1.398, 1.004e-3
-1.397, 9.841e-4
-1.396, 9.630e-4
-1.395, 9.423e-4
-1.394, 9.230e-4
-1.393, 9.027e-4
-1.392, 8.846e-4
-1.391, 8.655e-4
-1.390, 8.462e-4
-1.389, 8.277e-4
-1.388, 8.098e-4
-1.387, 7.931e-4
-1.386, 7.761e-4
-1.385, 7.634e-4
-1.384, 7.481e-4
-1.383, 7.312e-4
-1.382, 7.153e-4
-1.381, 6.991e-4
-1.380, 6.833e-4
-1.379, 6.684e-4
-1.378, 6.533e-4
-1.377, 6.386e-4
-1.376, 6.245e-4
-1.375, 6.104e-4
-1.374, 5.958e-4
-1.373, 5.830e-4
-1.372, 5.704e-4
-1.371, 5.579e-4
-1.370, 5.453e-4
-1.369, 5.326e-4
-1.368, 5.215e-4
-1.367, 5.095e-4
-1.366, 4.978e-4
-1.365, 4.862e-4
-1.364, 4.746e-4
-1.363, 4.636e-4
-1.362, 4.531e-4
-1.361, 4.429e-4
-1.360, 4.326e-4
-1.359, 4.227e-4
-1.358, 4.130e-4
-1.357, 4.035e-4
-1.356, 3.939e-4
-1.355, 3.845e-4
-1.354, 3.752e-4
-1.353, 3.664e-4
-1.352, 3.584e-4
-1.351, 3.501e-4
-1.350, 3.412e-4
-1.349, 3.333e-4
-1.348, 3.254e-4
-1.347, 3.179e-4
-1.346, 3.107e-4
-1.345, 3.028e-4
-1.344, 2.956e-4
-1.343, 2.885e-4
-1.342, 2.820e-4
-1.341, 2.754e-4
-1.340, 2.683e-4
-1.339, 2.619e-4
-1.338, 2.558e-4
-1.337, 2.498e-4
-1.336, 2.439e-4
-1.335, 2.379e-4
-1.334, 2.319e-4
-1.333, 2.265e-4
-1.332, 2.213e-4
-1.331, 2.159e-4
-1.330, 2.103e-4
-1.329, 2.054e-4
-1.328, 2.003e-4
-1.327, 1.958e-4
-1.326, 1.910e-4
-1.325, 1.862e-4
-1.324, 1.814e-4
-1.323, 1.771e-4
-1.322, 1.731e-4
-1.321, 1.688e-4
-1.320, 1.646e-4
-1.319, 1.601e-4
-1.318, 1.562e-4
-1.317, 1.530e-4
-1.316, 1.491e-4
-1.315, 1.450e-4
-1.314, 1.413e-4
-1.313, 1.379e-4
-1.312, 1.348e-4
-1.311, 1.314e-4
-1.310, 1.278e-4
-1.309, 1.245e-4
-1.308, 1.214e-4
-1.307, 1.187e-4
-1.306, 1.159e-4
-1.305, 1.125e-4
-1.304, 1.096e-4
-1.303, 1.068e-4
-1.302, 1.045e-4
-1.301, 1.018e-4
-1.300, 9.895e-5
-1.299, 9.604e-5
-1.298, 9.382e-5
-1.297, 9.158e-5
-1.296, 8.922e-5
-1.295, 8.665e-5
-1.294, 8.407e-5
-1.293, 8.207e-5
-1.292, 8.011e-5
-1.291, 7.799e-5
-1.290, 7.563e-5
-1.289, 7.325e-5
-1.288, 7.173e-5
-1.287, 6.988e-5
-1.286, 6.795e-5
-1.285, 6.588e-5
-1.284, 6.378e-5
-1.283, 6.204e-5
-1.282, 6.077e-5
-1.281, 5.904e-5
-1.280, 5.692e-5
-1.279, 5.515e-5
-1.278, 5.365e-5
-1.277, 5.245e-5
-1.276, 5.101e-5
-1.275, 4.907e-5
-1.274, 4.745e-5
-1.273, 4.609e-5
-1.272, 4.519e-5
-1.271, 4.374e-5
-1.270, 4.205e-5
-1.269, 4.074e-5
-1.268, 3.948e-5
-1.267, 3.846e-5
-1.266, 3.729e-5
-1.265, 3.569e-5
-1.264, 3.445e-5
-1.263, 3.328e-5
-1.262, 3.257e-5
-1.261, 3.149e-5
-1.260, 3.007e-5
-1.259, 2.874e-5
-1.258, 2.795e-5
-1.257, 2.719e-5
-1.256, 2.629e-5
-1.255, 2.492e-5
-1.254, 2.364e-5
-1.253, 2.297e-5
-1.252, 2.250e-5
-1.251, 2.149e-5
-1.250, 2.028e-5
-1.249, 1.911e-5
-1.248, 1.857e-5
-1.247, 1.805e-5
-1.246, 1.708e-5
-1.245, 1.607e-5
-1.244, 1.510e-5
-1.243, 1.439e-5
-1.242, 1.407e-5
-1.241, 1.330e-5
-1.240, 1.225e-5
-1.239, 1.135e-5
-1.238, 1.068e-5
-1.237, 1.054e-5
-1.236, 9.790e-6
-1.235, 8.746e-6
-1.234, 7.899e-6
-1.233, 7.379e-6
-1.232, 7.235e-6
-1.231, 6.630e-6
-1.230, 5.629e-6
-1.229, 4.546e-6
-1.228, 4.422e-6
-1.227, 4.125e-6
-1.226, 3.690e-6
-1.225, 2.710e-6
-1.224, 1.973e-6
-1.223, 1.719e-6
-1.222, 1.412e-6
-1.221, 1.041e-6
-1.220, 1.606e-7
-1.219, -5.872e-7
-1.218, -8.161e-7
-1.217, -1.113e-6
-1.216, -1.449e-6
-1.215, -2.276e-6
-1.214, -2.960e-6
-1.213, -3.128e-6
-1.212, -3.197e-6
-1.211, -3.822e-6
-1.210, -4.385e-6
-1.209, -5.186e-6
-1.208, -5.228e-6
-1.207, -5.290e-6
-1.206, -5.787e-6
-1.205, -6.435e-6
-1.204, -7.019e-6
-1.203, -7.361e-6
-1.202, -7.223e-6
-1.201, -7.696e-6
-1.200, -8.263e-6
-1.199, -8.813e-6
-1.198, -9.162e-6
-1.197, -8.944e-6
-1.196, -9.355e-6
-1.195, -1.009e-5
-1.194, -1.056e-5
-1.193, -1.081e-5
-1.192, -1.065e-5
-1.191, -1.092e-5
-1.190, -1.179e-5
-1.189, -1.218e-5
-1.188, -1.217e-5
-1.187, -1.236e-5
-1.186, -1.245e-5
-1.185, -1.321e-5
-1.184, -1.354e-5
-1.183, -1.366e-5
-1.182, -1.377e-5
-1.181, -1.385e-5
-1.180, -1.453e-5
-1.179, -1.511e-5
-1.178, -1.523e-5
-1.177, -1.512e-5
-1.176, -1.516e-5
-1.175, -1.581e-5
-1.174, -1.639e-5
-1.173, -1.641e-5
-1.172, -1.623e-5
-1.171, -1.648e-5
-1.170, -1.711e-5
-1.169, -1.765e-5
-1.168, -1.750e-5
-1.167, -1.739e-5
-1.166, -1.771e-5
-1.165, -1.822e-5
-1.164, -1.865e-5
-1.163, -1.885e-5
-1.162, -1.851e-5
-1.161, -1.874e-5
-1.160, -1.951e-5
-1.159, -1.978e-5
-1.158, -1.989e-5
-1.157, -1.954e-5
-1.156, -1.979e-5
-1.155, -2.039e-5
-1.154, -2.086e-5
-1.153, -2.087e-5
-1.152, -2.066e-5
-1.151, -2.080e-5
-1.150, -2.151e-5
-1.149, -2.185e-5
-1.148, -2.173e-5
-1.147, -2.164e-5
-1.146, -2.176e-5
-1.145, -2.238e-5
-1.144, -2.284e-5
-1.143, -2.266e-5
-1.142, -2.272e-5
-1.141, -2.264e-5
-1.140, -2.335e-5
-1.139, -2.382e-5
-1.138, -2.349e-5
-1.137, -2.353e-5
-1.136, -2.348e-5
-1.135, -2.410e-5
-1.134, -2.471e-5
-1.133, -2.440e-5
-1.132, -2.431e-5
-1.131, -2.457e-5
-1.130, -2.487e-5
-1.129, -2.561e-5
-1.128, -2.522e-5
-1.127, -2.507e-5
-1.126, -2.540e-5
-1.125, -2.579e-5
-1.124, -2.620e-5
-1.123, -2.612e-5
-1.122, -2.580e-5
-1.121, -2.612e-5
-1.120, -2.646e-5
-1.119, -2.691e-5
-1.118, -2.695e-5
-1.117, -2.684e-5
-1.116, -2.678e-5
-1.115, -2.734e-5
-1.114, -2.767e-5
-1.113, -2.775e-5
-1.112, -2.725e-5
-1.111, -2.744e-5
-1.110, -2.809e-5
-1.109, -2.835e-5
-1.108, -2.827e-5
-1.107, -2.815e-5
-1.106, -2.798e-5
-1.105, -2.883e-5
-1.104, -2.907e-5
-1.103, -2.887e-5
-1.102, -2.880e-5
-1.101, -2.871e-5
-1.100, -2.931e-5
-1.099, -2.974e-5
-1.098, -2.957e-5
-1.097, -2.935e-5
-1.096, -2.917e-5
-1.095, -2.989e-5
-1.094, -3.053e-5
-1.093, -3.020e-5
-1.092, -3.001e-5
-1.091, -3.004e-5
-1.090, -3.051e-5
-1.089, -3.097e-5
-1.088, -3.075e-5
-1.087, -3.052e-5
-1.086, -3.068e-5
-1.085, -3.108e-5
-1.084, -3.154e-5
-1.083, -3.135e-5
-1.082, -3.102e-5
-1.081, -3.118e-5
-1.080, -3.160e-5
-1.079, -3.205e-5
-1.078, -3.218e-5
-1.077, -3.148e-5
-1.076, -3.177e-5
-1.075, -3.235e-5
-1.074, -3.255e-5
-1.073, -3.257e-5
-1.072, -3.205e-5
-1.071, -3.212e-5
-1.070, -3.286e-5
-1.069, -3.307e-5
-1.068, -3.293e-5
-1.067, -3.262e-5
-1.066, -3.268e-5
-1.065, -3.334e-5
-1.064, -3.349e-5
-1.063, -3.326e-5
-1.062, -3.314e-5
-1.061, -3.299e-5
-1.060, -3.360e-5
-1.059, -3.408e-5
-1.058, -3.365e-5
-1.057, -3.358e-5
-1.056, -3.363e-5
-1.055, -3.405e-5
-1.054, -3.459e-5
-1.053, -3.423e-5
-1.052, -3.393e-5
-1.051, -3.404e-5
-1.050, -3.455e-5
-1.049, -3.514e-5
-1.048, -3.470e-5
-1.047, -3.435e-5
-1.046, -3.462e-5
-1.045, -3.491e-5
-1.044, -3.542e-5
-1.043, -3.525e-5
-1.042, -3.471e-5
-1.041, -3.501e-5
-1.040, -3.533e-5
-1.039, -3.577e-5
-1.038, -3.571e-5
-1.037, -3.520e-5
-1.036, -3.529e-5
-1.035, -3.596e-5
-1.034, -3.612e-5
-1.033, -3.608e-5
-1.032, -3.553e-5
-1.031, -3.585e-5
-1.030, -3.657e-5
-1.029, -3.682e-5
-1.028, -3.635e-5
-1.027, -3.617e-5
-1.026, -3.613e-5
-1.025, -3.686e-5
-1.024, -3.719e-5
-1.023, -3.677e-5
-1.022, -3.683e-5
-1.021, -3.661e-5
-1.020, -3.705e-5
-1.019, -3.761e-5
-1.018, -3.725e-5
-1.017, -3.696e-5
-1.016, -3.701e-5
-1.015, -3.757e-5
-1.014, -3.815e-5
-1.013, -3.762e-5
-1.012, -3.752e-5
-1.011, -3.764e-5
-1.010, -3.792e-5
-1.009, -3.845e-5
-1.008, -3.788e-5
-1.007, -3.760e-5
-1.006, -3.791e-5
-1.005, -3.821e-5
-1.004, -3.871e-5
-1.003, -3.858e-5
-1.002, -3.797e-5
-1.001, -3.819e-5
-1.000, -8.043e-6
-1.001, 6.421e-6
-1.002, 9.957e-6
-1.003, 1.180e-5
-1.004, 1.318e-5
-1.005, 1.348e-5
-1.006, 1.409e-5
-1.007, 1.523e-5
-1.008, 1.602e-5
-1.009, 1.643e-5
-1.010, 1.661e-5
-1.011, 1.681e-5
-1.012, 1.747e-5
-1.013, 1.821e-5
-1.014, 1.868e-5
-1.015, 1.843e-5
-1.016, 1.834e-5
-1.017, 1.900e-5
-1.018, 1.984e-5
-1.019, 1.993e-5
-1.020, 1.986e-5
-1.021, 1.981e-5
-1.022, 2.022e-5
-1.023, 2.089e-5
-1.024, 2.109e-5
-1.025, 2.069e-5
-1.026, 2.073e-5
-1.027, 2.113e-5
-1.028, 2.183e-5
-1.029, 2.205e-5
-1.030, 2.162e-5
-1.031, 2.169e-5
-1.032, 2.191e-5
-1.033, 2.247e-5
-1.034, 2.265e-5
-1.035, 2.229e-5
-1.036, 2.230e-5
-1.037, 2.268e-5
-1.038, 2.319e-5
-1.039, 2.330e-5
-1.040, 2.275e-5
-1.041, 2.268e-5
-1.042, 2.318e-5
-1.043, 2.361e-5
-1.044, 2.367e-5
-1.045, 2.321e-5
-1.046, 2.306e-5
-1.047, 2.370e-5
-1.048, 2.407e-5
-1.049, 2.401e-5
-1.050, 2.371e-5
-1.051, 2.352e-5
-1.052, 2.391e-5
-1.053, 2.440e-5
-1.054, 2.430e-5
-1.055, 2.398e-5
-1.056, 2.383e-5
-1.057, 2.421e-5
-1.058, 2.475e-5
-1.059, 2.473e-5
-1.060, 2.417e-5
-1.061, 2.408e-5
-1.062, 2.444e-5
-1.063, 2.509e-5
-1.064, 2.475e-5
-1.065, 2.439e-5
-1.066, 2.438e-5
-1.067, 2.467e-5
-1.068, 2.515e-5
-1.069, 2.510e-5
-1.070, 2.463e-5
-1.071, 2.472e-5
-1.072, 2.485e-5
-1.073, 2.528e-5
-1.074, 2.527e-5
-1.075, 2.487e-5
-1.076, 2.480e-5
-1.077, 2.513e-5
-1.078, 2.552e-5
-1.079, 2.548e-5
-1.080, 2.486e-5
-1.081, 2.471e-5
-1.082, 2.528e-5
-1.083, 2.547e-5
-1.084, 2.557e-5
-1.085, 2.497e-5
-1.086, 2.488e-5
-1.087, 2.531e-5
-1.088, 2.563e-5
-1.089, 2.558e-5
-1.090, 2.515e-5
-1.091, 2.490e-5
-1.092, 2.545e-5
-1.093, 2.570e-5
-1.094, 2.558e-5
-1.095, 2.525e-5
-1.096, 2.498e-5
-1.097, 2.541e-5
-1.098, 2.591e-5
-1.099, 2.560e-5
-1.100, 2.527e-5
-1.101, 2.514e-5
-1.102, 2.541e-5
-1.103, 2.599e-5
-1.104, 2.561e-5
-1.105, 2.517e-5
-1.106, 2.523e-5
-1.107, 2.540e-5
-1.108, 2.597e-5
-1.109, 2.568e-5
-1.110, 2.521e-5
-1.111, 2.537e-5
-1.112, 2.547e-5
-1.113, 2.589e-5
-1.114, 2.581e-5
-1.115, 2.518e-5
-1.116, 2.529e-5
-1.117, 2.559e-5
-1.118, 2.587e-5
-1.119, 2.587e-5
-1.120, 2.522e-5
-1.121, 2.522e-5
-1.122, 2.567e-5
-1.123, 2.587e-5
-1.124, 2.580e-5
-1.125, 2.530e-5
-1.126, 2.526e-5
-1.127, 2.567e-5
-1.128, 2.599e-5
-1.129, 2.571e-5
-1.130, 2.544e-5
-1.131, 2.511e-5
-1.132, 2.566e-5
-1.133, 2.604e-5
-1.134, 2.579e-5
-1.135, 2.542e-5
-1.136, 2.521e-5
-1.137, 2.558e-5
-1.138, 2.614e-5
-1.139, 2.575e-5
-1.140, 2.546e-5
-1.141, 2.528e-5
-1.142, 2.561e-5
-1.143, 2.617e-5
-1.144, 2.572e-5
-1.145, 2.539e-5
-1.146, 2.547e-5
-1.147, 2.569e-5
-1.148, 2.617e-5
-1.149, 2.581e-5
-1.150, 2.551e-5
-1.151, 2.557e-5
-1.152, 2.580e-5
-1.153, 2.608e-5
-1.154, 2.604e-5
-1.155, 2.546e-5
-1.156, 2.558e-5
-1.157, 2.595e-5
-1.158, 2.608e-5
-1.159, 2.620e-5
-1.160, 2.556e-5
-1.161, 2.562e-5
-1.162, 2.606e-5
-1.163, 2.634e-5
-1.164, 2.622e-5
-1.165, 2.574e-5
-1.166, 2.574e-5
-1.167, 2.624e-5
-1.168, 2.646e-5
-1.169, 2.628e-5
-1.170, 2.600e-5
-1.171, 2.593e-5
-1.172, 2.638e-5
-1.173, 2.668e-5
-1.174, 2.650e-5
-1.175, 2.622e-5
-1.176, 2.610e-5
-1.177, 2.671e-5
-1.178, 2.708e-5
-1.179, 2.668e-5
-1.180, 2.642e-5
-1.181, 2.646e-5
-1.182, 2.684e-5
-1.183, 2.741e-5
-1.184, 2.705e-5
-1.185, 2.670e-5
-1.186, 2.684e-5
-1.187, 2.719e-5
-1.188, 2.774e-5
-1.189, 2.750e-5
-1.190, 2.700e-5
-1.191, 2.739e-5
-1.192, 2.767e-5
-1.193, 2.812e-5
-1.194, 2.791e-5
-1.195, 2.760e-5
-1.196, 2.774e-5
-1.197, 2.830e-5
-1.198, 2.858e-5
-1.199, 2.856e-5
-1.200, 2.822e-5
-1.201, 2.840e-5
-1.202, 2.890e-5
-1.203, 2.941e-5
-1.204, 2.926e-5
-1.205, 2.900e-5
-1.206, 2.911e-5
-1.207, 2.969e-5
-1.208, 3.012e-5
-1.209, 2.988e-5
-1.210, 2.985e-5
-1.211, 2.998e-5
-1.212, 3.055e-5
-1.213, 3.104e-5
-1.214, 3.083e-5
-1.215, 3.081e-5
-1.216, 3.098e-5
-1.217, 3.162e-5
-1.218, 3.224e-5
-1.219, 3.190e-5
-1.220, 3.189e-5
-1.221, 3.225e-5
-1.222, 3.285e-5
-1.223, 3.347e-5
-1.224, 3.322e-5
-1.225, 3.310e-5
-1.226, 3.366e-5
-1.227, 3.419e-5
-1.228, 3.501e-5
-1.229, 3.500e-5
-1.230, 3.471e-5
-1.231, 3.530e-5
-1.232, 3.577e-5
-1.233, 3.639e-5
-1.234, 3.650e-5
-1.235, 3.651e-5
-1.236, 3.704e-5
-1.237, 3.768e-5
-1.238, 3.828e-5
-1.239, 3.845e-5
-1.240, 3.848e-5
-1.241, 3.899e-5
-1.242, 3.994e-5
-1.243, 4.043e-5
-1.244, 4.062e-5
-1.245, 4.078e-5
-1.246, 4.137e-5
-1.247, 4.224e-5
-1.248, 4.283e-5
-1.249, 4.307e-5
-1.250, 4.342e-5
-1.251, 4.400e-5
-1.252, 4.487e-5
-1.253, 4.565e-5
-1.254, 4.588e-5
-1.255, 4.635e-5
-1.256, 4.695e-5
-1.257, 4.787e-5
-1.258, 4.881e-5
-1.259, 4.900e-5
-1.260, 4.945e-5
-1.261, 5.036e-5
-1.262, 5.132e-5
-1.263, 5.234e-5
-1.264, 5.261e-5
-1.265, 5.314e-5
-1.266, 5.414e-5
-1.267, 5.520e-5
-1.268, 5.621e-5
-1.269, 5.673e-5
-1.270, 5.726e-5
-1.271, 5.840e-5
-1.272, 5.948e-5
-1.273, 6.050e-5
-1.274, 6.145e-5
-1.275, 6.189e-5
-1.276, 6.308e-5
-1.277, 6.441e-5
-1.278, 6.552e-5
-1.279, 6.640e-5
-1.280, 6.720e-5
-1.281, 6.839e-5
-1.282, 7.001e-5
-1.283, 7.115e-5
-1.284, 7.208e-5
-1.285, 7.304e-5
-1.286, 7.435e-5
-1.287, 7.608e-5
-1.288, 7.737e-5
-1.289, 7.840e-5
-1.290, 7.957e-5
-1.291, 8.112e-5
-1.292, 8.295e-5
-1.293, 8.442e-5
-1.294, 8.558e-5
-1.295, 8.691e-5
-1.296, 8.865e-5
-1.297, 9.057e-5
-1.298, 9.224e-5
-1.299, 9.359e-5
-1.300, 9.514e-5
-1.301, 9.704e-5
-1.302, 9.909e-5
-1.303, 1.011e-4
-1.304, 1.027e-4
-1.305, 1.043e-4
-1.306, 1.065e-4
-1.307, 1.087e-4
-1.308, 1.110e-4
-1.309, 1.129e-4
-1.310, 1.147e-4
-1.311, 1.171e-4
-1.312, 1.196e-4
-1.313, 1.220e-4
-1.314, 1.242e-4
-1.315, 1.262e-4
-1.316, 1.290e-4
-1.317, 1.319e-4
-1.318, 1.344e-4
-1.319, 1.370e-4
-1.320, 1.394e-4
-1.321, 1.423e-4
-1.322, 1.459e-4
-1.323, 1.486e-4
-1.324, 1.514e-4
-1.325, 1.543e-4
-1.326, 1.576e-4
-1.327, 1.614e-4
-1.328, 1.648e-4
-1.329, 1.679e-4
-1.330, 1.713e-4
-1.331, 1.748e-4
-1.332, 1.789e-4
-1.333, 1.830e-4
-1.334, 1.866e-4
-1.335, 1.903e-4
-1.336, 1.945e-4
-1.337, 1.990e-4
-1.338, 2.037e-4
-1.339, 2.075e-4
-1.340, 2.120e-4
-1.341, 2.170e-4
-1.342, 2.219e-4
-1.343, 2.269e-4
-1.344, 2.316e-4
-1.345, 2.366e-4
-1.346, 2.423e-4
-1.347, 2.479e-4
-1.348, 2.538e-4
-1.349, 2.593e-4
-1.350, 2.651e-4
-1.351, 2.711e-4
-1.352, 2.775e-4
-1.353, 2.845e-4
-1.354, 2.905e-4
-1.355, 2.972e-4
-1.356, 3.040e-4
-1.357, 3.116e-4
-1.358, 3.192e-4
-1.359, 3.268e-4
-1.360, 3.340e-4
-1.361, 3.420e-4
-1.362, 3.504e-4
-1.363, 3.591e-4
-1.364, 3.673e-4
-1.365, 3.759e-4
-1.366, 3.854e-4
-1.367, 3.953e-4
-1.368, 4.045e-4
-1.369, 4.140e-4
-1.370, 4.244e-4
-1.371, 4.347e-4
-1.372, 4.457e-4
-1.373, 4.566e-4
-1.374, 4.676e-4
-1.375, 4.794e-4
-1.376, 4.911e-4
-1.377, 5.041e-4
-1.378, 5.165e-4
-1.379, 5.291e-4
-1.380, 5.422e-4
-1.381, 5.557e-4
-1.382, 5.704e-4
-1.383, 5.847e-4
-1.384, 5.985e-4
-1.385, 6.135e-4
-1.386, 6.296e-4
-1.387, 6.457e-4
-1.388, 6.617e-4
-1.389, 6.781e-4
-1.390, 6.952e-4
-1.391, 7.128e-4
-1.392, 7.309e-4
-1.393, 7.486e-4
-1.394, 7.673e-4
-1.395, 7.859e-4
-1.396, 8.055e-4
-1.397, 8.254e-4
-1.398, 8.457e-4
-1.399, 8.668e-4
-1.400, 8.874e-4
-1.401, 9.094e-4
-1.402, 9.319e-4
-1.403, 9.549e-4
-1.404, 9.777e-4
-1.405, 1.001e-3
-1.406, 1.025e-3
-1.407, 1.050e-3
-1.408, 1.074e-3
-1.409, 1.100e-3
-1.410, 1.126e-3
-1.411, 1.152e-3
-1.412, 1.179e-3
-1.413, 1.206e-3
-1.414, 1.232e-3
-1.415, 1.261e-3
-1.416, 1.291e-3
-1.417, 1.319e-3
-1.418, 1.348e-3
-1.419, 1.377e-3
-1.420, 1.407e-3
-1.421, 1.437e-3
-1.422, 1.469e-3
-1.423, 1.501e-3
-1.424, 1.531e-3
-1.425, 1.563e-3
-1.426, 1.595e-3
-1.427, 1.630e-3
-1.428, 1.662e-3
-1.429, 1.695e-3
-1.430, 1.728e-3
-1.431, 1.763e-3
-1.432, 1.797e-3
-1.433, 1.832e-3
-1.434, 1.868e-3
-1.435, 1.903e-3
-1.436, 1.938e-3
-1.437, 1.974e-3
-1.438, 2.010e-3
-1.439, 2.046e-3
-1.440, 2.082e-3
-1.441, 2.117e-3
-1.442, 2.155e-3
-1.443, 2.191e-3
-1.444, 2.229e-3
-1.445, 2.267e-3
-1.446, 2.304e-3
-1.447, 2.343e-3
-1.448, 2.380e-3
-1.449, 2.421e-3
-1.450, 2.459e-3
-1.451, 2.497e-3
-1.452, 2.537e-3
-1.453, 2.574e-3
-1.454, 2.612e-3
-1.455, 2.650e-3
-1.456, 2.691e-3
-1.457, 2.733e-3
-1.458, 2.774e-3
-1.459, 2.813e-3
-1.460, 2.854e-3
-1.461, 2.894e-3
-1.462, 2.945e-3
-1.463, 2.986e-3
-1.464, 3.028e-3
-1.465, 3.067e-3
-1.466, 3.105e-3
-1.467, 3.146e-3
-1.468, 3.189e-3
-1.469, 3.247e-3
-1.470, 3.285e-3
-1.471, 3.325e-3
-1.472, 3.361e-3
-1.473, 3.404e-3
-1.474, 3.447e-3
-1.475, 3.490e-3
-1.476, 3.534e-3
-1.477, 3.573e-3
-1.478, 3.614e-3
-1.479, 3.666e-3
-1.480, 3.706e-3
-1.481, 3.746e-3
-1.482, 3.793e-3
-1.483, 3.832e-3
-1.484, 3.874e-3
-1.485, 3.919e-3
-1.486, 3.963e-3
-1.487, 4.021e-3
-1.488, 4.088e-3
-1.489, 4.140e-3
-1.490, 4.185e-3
-1.491, 4.223e-3
-1.492, 4.256e-3
-1.493, 4.314e-3
-1.494, 4.357e-3
-1.495, 4.405e-3
-1.496, 4.454e-3
-1.497, 4.515e-3
-1.498, 4.556e-3
-1.499, 4.601e-3
-1.500, 4.601e-3
-1.499, 4.539e-3
-1.498, 4.480e-3
-1.497, 4.418e-3
-1.496, 4.357e-3
-1.495, 4.307e-3
-1.494, 4.252e-3
-1.493, 4.204e-3
-1.492, 4.156e-3
-1.491, 4.107e-3
-1.490, 4.055e-3
-1.489, 3.996e-3
-1.488, 3.941e-3
-1.487, 3.887e-3
-1.486, 3.839e-3
-1.485, 3.789e-3
-1.484, 3.733e-3
-1.483, 3.679e-3
-1.482, 3.642e-3
-1.481, 3.613e-3
-1.480, 3.569e-3
-1.479, 3.523e-3
-1.478, 3.475e-3
-1.477, 3.431e-3
-1.476, 3.384e-3
-1.475, 3.336e-3
-1.474, 3.290e-3
-1.473, 3.245e-3
-1.472, 3.198e-3
-1.471, 3.162e-3
-1.470, 3.116e-3
-1.469, 3.073e-3
-1.468, 3.026e-3
-1.467, 2.984e-3
-1.466, 2.942e-3
-1.465, 2.906e-3
-1.464, 2.862e-3
-1.463, 2.819e-3
-1.462, 2.776e-3
-1.461, 2.737e-3
-1.460, 2.694e-3
-1.459, 2.652e-3
-1.458, 2.608e-3
-1.457, 2.566e-3
-1.456, 2.528e-3
-1.455, 2.491e-3
-1.454, 2.454e-3
-1.453, 2.410e-3
-1.452, 2.369e-3
-1.451, 2.334e-3
-1.450, 2.293e-3
-1.449, 2.255e-3
-1.448, 2.220e-3
-1.447, 2.182e-3
-1.446, 2.142e-3
-1.445, 2.106e-3
-1.444, 2.074e-3
-1.443, 2.037e-3
-1.442, 2.004e-3
-1.441, 1.967e-3
-1.440, 1.932e-3
-1.439, 1.896e-3
-1.438, 1.863e-3
-1.437, 1.829e-3
-1.436, 1.796e-3
-1.435, 1.764e-3
-1.434, 1.737e-3
-1.433, 1.709e-3
-1.432, 1.678e-3
-1.431, 1.647e-3
-1.430, 1.616e-3
-1.429, 1.589e-3
-1.428, 1.569e-3
-1.427, 1.541e-3
-1.426, 1.511e-3
-1.425, 1.481e-3
-1.424, 1.453e-3
-1.423, 1.425e-3
-1.422, 1.396e-3
-1.421, 1.370e-3
-1.420, 1.342e-3
-1.419, 1.316e-3
-1.418, 1.290e-3
-1.417, 1.264e-3
-1.416, 1.238e-3
-1.415, 1.213e-3
-1.414, 1.189e-3
-1.413, 1.165e-3
-1.412, 1.140e-3
-1.411, 1.116e-3
-1.410, 1.093e-3
-1.409, 1.070e-3
-1.408, 1.047e-3
-1.407, 1.025e-3
-1.406, 1.007e-3
-1.405, 9.854e-4
-1.404, 9.647e-4
-1.403, 9.447e-4
-1.402, 9.251e-4
-1.401, 9.051e-4
-1.400, 8.856e-4
-1.399, 8.668e-4
-1.398, 8.480e-4
-1.397, 8.299e-4
-1.396, 8.117e-4
-1.395, 7.927e-4
-1.394, 7.763e-4
-1.393, 7.591e-4
-1.392, 7.426e-4
-1.391, 7.252e-4
-1.390, 7.103e-4
-1.389, 6.940e-4
-1.388, 6.786e-4
-1.387, 6.635e-4
-1.386, 6.481e-4
-1.385, 6.336e-4
-1.384, 6.195e-4
-1.383, 6.052e-4
-1.382, 5.912e-4
-1.381, 5.774e-4
-1.380, 5.643e-4
-1.379, 5.514e-4
-1.378, 5.394e-4
-1.377, 5.273e-4
-1.376, 5.146e-4
-1.375, 5.029e-4
-1.374, 4.912e-4
-1.373, 4.801e-4
-1.372, 4.692e-4
-1.371, 4.580e-4
-1.370, 4.474e-4
-1.369, 4.370e-4
-1.368, 4.270e-4
-1.367, 4.167e-4
-1.366, 4.065e-4
-1.365, 3.972e-4
-1.364, 3.878e-4
-1.363, 3.790e-4
-1.362, 3.699e-4
-1.361, 3.608e-4
-1.360, 3.522e-4
-1.359, 3.440e-4
-1.358, 3.361e-4
-1.357, 3.279e-4
-1.356, 3.198e-4
-1.355, 3.119e-4
-1.354, 3.049e-4
-1.353, 2.979e-4
-1.352, 2.906e-4
-1.351, 2.832e-4
-1.350, 2.765e-4
-1.349, 2.702e-4
-1.348, 2.640e-4
-1.347, 2.571e-4
-1.346, 2.510e-4
-1.345, 2.447e-4
-1.344, 2.391e-4
-1.343, 2.336e-4
-1.342, 2.277e-4
-1.341, 2.222e-4
-1.340, 2.165e-4
-1.339, 2.115e-4
-1.338, 2.068e-4
-1.337, 2.014e-4
-1.336, 1.964e-4
-1.335, 1.915e-4
-1.334, 1.870e-4
-1.333, 1.829e-4
-1.332, 1.782e-4
-1.331, 1.733e-4
-1.330, 1.691e-4
-1.329, 1.652e-4
-1.328, 1.614e-4
-1.327, 1.573e-4
-1.326, 1.530e-4
-1.325, 1.492e-4
-1.324, 1.456e-4
-1.323, 1.424e-4
-1.322, 1.387e-4
-1.321, 1.349e-4
-1.320, 1.316e-4
-1.319, 1.287e-4
-1.318, 1.255e-4
-1.317, 1.222e-4
-1.316, 1.189e-4
-1.315, 1.159e-4
-1.314, 1.133e-4
-1.313, 1.105e-4
-1.312, 1.077e-4
-1.311, 1.046e-4
-1.310, 1.019e-4
-1.309, 9.960e-5
-1.308, 9.732e-5
-1.307, 9.450e-5
-1.306, 9.177e-5
-1.305, 8.934e-5
-1.304, 8.733e-5
-1.303, 8.536e-5
-1.302, 8.277e-5
-1.301, 8.029e-5
-1.300, 7.825e-5
-1.299, 7.636e-5
-1.298, 7.465e-5
-1.297, 7.225e-5
-1.296, 7.010e-5
-1.295, 6.826e-5
-1.294, 6.662e-5
-1.293, 6.502e-5
-1.292, 6.306e-5
-1.291, 6.085e-5
-1.290, 5.925e-5
-1.289, 5.781e-5
-1.288, 5.655e-5
-1.287, 5.469e-5
-1.286, 5.267e-5
-1.285, 5.138e-5
-1.284, 5.012e-5
-1.283, 4.884e-5
-1.282, 4.722e-5
-1.281, 4.550e-5
-1.280, 4.407e-5
-1.279, 4.309e-5
-1.278, 4.198e-5
-1.277, 4.050e-5
-1.276, 3.894e-5
-1.275, 3.771e-5
-1.274, 3.696e-5
-1.273, 3.609e-5
-1.272, 3.452e-5
-1.271, 3.311e-5
-1.270, 3.192e-5
-1.269, 3.129e-5
-1.268, 3.039e-5
-1.267, 2.911e-5
-1.266, 2.779e-5
-1.265, 2.678e-5
-1.264, 2.623e-5
-1.263, 2.540e-5
-1.262, 2.421e-5
-1.261, 2.313e-5
-1.260, 2.222e-5
-1.259, 2.158e-5
-1.258, 2.101e-5
-1.257, 1.979e-5
-1.256, 1.872e-5
-1.255, 1.794e-5
-1.254, 1.748e-5
-1.253, 1.690e-5
-1.252, 1.597e-5
-1.251, 1.474e-5
-1.250, 1.428e-5
-1.249, 1.367e-5
-1.248, 1.331e-5
-1.247, 1.232e-5
-1.246, 1.123e-5
-1.245, 1.081e-5
-1.244, 1.038e-5
-1.243, 9.946e-6
-1.242, 8.972e-6
-1.241, 8.082e-6
-1.240, 7.598e-6
-1.239, 7.375e-6
-1.238, 6.867e-6
-1.237, 6.085e-6
-1.236, 5.209e-6
-1.235, 4.696e-6
-1.234, 4.550e-6
-1.233, 4.133e-6
-1.232, 3.378e-6
-1.231, 2.612e-6
-1.230, 2.033e-6
-1.229, 1.700e-6
-1.228, 1.649e-6
-1.227, 8.443e-7
-1.226, 1.399e-7
-1.225, -2.834e-7
-1.224, -3.327e-7
-1.223, -6.198e-7
-1.222, -1.400e-6
-1.221, -2.053e-6
-1.220, -2.356e-6
-1.219, -2.643e-6
-1.218, -2.649e-6
-1.217, -3.514e-6
-1.216, -4.058e-6
-1.215, -4.417e-6
-1.214, -4.611e-6
-1.213, -4.587e-6
-1.212, -5.347e-6
-1.211, -6.022e-6
-1.210, -6.256e-6
-1.209, -6.406e-6
-1.208, -6.362e-6
-1.207, -7.075e-6
-1.206, -7.859e-6
-1.205, -7.951e-6
-1.204, -7.999e-6
-1.203, -8.135e-6
-1.202, -8.727e-6
-1.201, -9.461e-6
-1.200, -9.577e-6
-1.199, -9.502e-6
-1.198, -9.655e-6
-1.197, -1.025e-5
-1.196, -1.085e-5
-1.195, -1.120e-5
-1.194, -1.091e-5
-1.193, -1.115e-5
-1.192, -1.158e-5
-1.191, -1.222e-5
-1.190, -1.257e-5
-1.189, -1.242e-5
-1.188, -1.241e-5
-1.187, -1.307e-5
-1.186, -1.357e-5
-1.185, -1.378e-5
-1.184, -1.366e-5
-1.183, -1.361e-5
-1.182, -1.439e-5
-1.181, -1.480e-5
-1.180, -1.494e-5
-1.179, -1.496e-5
-1.178, -1.503e-5
-1.177, -1.557e-5
-1.176, -1.599e-5
-1.175, -1.612e-5
-1.174, -1.625e-5
-1.173, -1.592e-5
-1.172, -1.660e-5
-1.171, -1.718e-5
-1.170, -1.723e-5
-1.169, -1.728e-5
-1.168, -1.703e-5
-1.167, -1.766e-5
-1.166, -1.827e-5
-1.165, -1.829e-5
-1.164, -1.823e-5
-1.163, -1.822e-5
-1.162, -1.856e-5
-1.161, -1.935e-5
-1.160, -1.931e-5
-1.159, -1.916e-5
-1.158, -1.931e-5
-1.157, -1.959e-5
-1.156, -2.018e-5
-1.155, -2.048e-5
-1.154, -2.004e-5
-1.153, -2.015e-5
-1.152, -2.059e-5
-1.151, -2.113e-5
-1.150, -2.140e-5
-1.149, -2.097e-5
-1.148, -2.096e-5
-1.147, -2.158e-5
-1.146, -2.205e-5
-1.145, -2.218e-5
-1.144, -2.195e-5
-1.143, -2.178e-5
-1.142, -2.248e-5
-1.141, -2.289e-5
-1.140, -2.293e-5
-1.139, -2.292e-5
-1.138, -2.264e-5
-1.137, -2.333e-5
-1.136, -2.369e-5
-1.135, -2.382e-5
-1.134, -2.370e-5
-1.133, -2.347e-5
-1.132, -2.409e-5
-1.131, -2.462e-5
-1.130, -2.457e-5
-1.129, -2.449e-5
-1.128, -2.425e-5
-1.127, -2.480e-5
-1.126, -2.544e-5
-1.125, -2.542e-5
-1.124, -2.512e-5
-1.123, -2.515e-5
-1.122, -2.554e-5
-1.121, -2.619e-5
-1.120, -2.614e-5
-1.119, -2.587e-5
-1.118, -2.588e-5
-1.117, -2.623e-5
-1.116, -2.681e-5
-1.115, -2.697e-5
-1.114, -2.663e-5
-1.113, -2.661e-5
-1.112, -2.688e-5
-1.111, -2.752e-5
-1.110, -2.768e-5
-1.109, -2.726e-5
-1.108, -2.713e-5
-1.107, -2.770e-5
-1.106, -2.811e-5
-1.105, -2.823e-5
-1.104, -2.791e-5
-1.103, -2.772e-5
-1.102, -2.844e-5
-1.101, -2.867e-5
-1.100, -2.890e-5
-1.099, -2.859e-5
-1.098, -2.848e-5
-1.097, -2.898e-5
-1.096, -2.941e-5
-1.095, -2.943e-5
-1.094, -2.930e-5
-1.093, -2.902e-5
-1.092, -2.948e-5
-1.091, -3.012e-5
-1.090, -3.003e-5
-1.089, -2.990e-5
-1.088, -2.957e-5
-1.087, -3.014e-5
-1.086, -3.070e-5
-1.085, -3.054e-5
-1.084, -3.035e-5
-1.083, -3.023e-5
-1.082, -3.070e-5
-1.081, -3.126e-5
-1.080, -3.122e-5
-1.079, -3.096e-5
-1.078, -3.094e-5
-1.077, -3.110e-5
-1.076, -3.184e-5
-1.075, -3.200e-5
-1.074, -3.157e-5
-1.073, -3.141e-5
-1.072, -3.172e-5
-1.071, -3.227e-5
-1.070, -3.244e-5
-1.069, -3.199e-5
-1.068, -3.186e-5
-1.067, -3.233e-5
-1.066, -3.277e-5
-1.065, -3.296e-5
-1.064, -3.252e-5
-1.063, -3.230e-5
-1.062, -3.305e-5
-1.061, -3.320e-5
-1.060, -3.329e-5
-1.059, -3.321e-5
-1.058, -3.282e-5
-1.057, -3.348e-5
-1.056, -3.381e-5
-1.055, -3.380e-5
-1.054, -3.372e-5
-1.053, -3.331e-5
-1.052, -3.388e-5
-1.051, -3.440e-5
-1.050, -3.428e-5
-1.049, -3.423e-5
-1.048, -3.383e-5
-1.047, -3.429e-5
-1.046, -3.483e-5
-1.045, -3.477e-5
-1.044, -3.460e-5
-1.043, -3.445e-5
-1.042, -3.472e-5
-1.041, -3.536e-5
-1.040, -3.527e-5
-1.039, -3.499e-5
-1.038, -3.491e-5
-1.037, -3.527e-5
-1.036, -3.572e-5
-1.035, -3.593e-5
-1.034, -3.550e-5
-1.033, -3.538e-5
-1.032, -3.573e-5
-1.031, -3.621e-5
-1.030, -3.643e-5
-1.029, -3.584e-5
-1.028, -3.584e-5
-1.027, -3.624e-5
-1.026, -3.657e-5
-1.025, -3.681e-5
-1.024, -3.651e-5
-1.023, -3.627e-5
-1.022, -3.675e-5
-1.021, -3.707e-5
-1.020, -3.727e-5
-1.019, -3.700e-5
-1.018, -3.654e-5
-1.017, -3.726e-5
-1.016, -3.748e-5
-1.015, -3.760e-5
-1.014, -3.749e-5
-1.013, -3.694e-5
-1.012, -3.752e-5
-1.011, -3.811e-5
-1.010, -3.804e-5
-1.009, -3.790e-5
-1.008, -3.754e-5
-1.007, -3.788e-5
-1.006, -3.861e-5
-1.005, -3.852e-5
-1.004, -3.804e-5
-1.003, -3.804e-5
-1.002, -3.841e-5
-1.001, -3.903e-5
-1.000, -8.183e-6
-1.001, 7.331e-6
-1.002, 1.078e-5
-1.003, 1.203e-5
-1.004, 1.283e-5
-1.005, 1.380e-5
-1.006, 1.490e-5
-1.007, 1.606e-5
-1.008, 1.612e-5
-1.009, 1.631e-5
-1.010, 1.690e-5
-1.011, 1.761e-5
-1.012, 1.836e-5
-1.013, 1.832e-5
-1.014, 1.816e-5
-1.015, 1.873e-5
-1.016, 1.927e-5
-1.017, 1.985e-5
-1.018, 1.983e-5
-1.019, 1.955e-5
-1.020, 2.006e-5
-1.021, 2.040e-5
-1.022, 2.108e-5
-1.023, 2.099e-5
-1.024, 2.081e-5
-1.025, 2.085e-5
-1.026, 2.157e-5
-1.027, 2.184e-5
-1.028, 2.180e-5
-1.029, 2.146e-5
-1.030, 2.163e-5
-1.031, 2.236e-5
-1.032, 2.259e-5
-1.033, 2.229e-5
-1.034, 2.223e-5
-1.035, 2.220e-5
-1.036, 2.283e-5
-1.037, 2.326e-5
-1.038, 2.295e-5
-1.039, 2.270e-5
-1.040, 2.269e-5
-1.041, 2.327e-5
-1.042, 2.374e-5
-1.043, 2.334e-5
-1.044, 2.312e-5
-1.045, 2.315e-5
-1.046, 2.376e-5
-1.047, 2.411e-5
-1.048, 2.375e-5
-1.049, 2.341e-5
-1.050, 2.364e-5
-1.051, 2.395e-5
-1.052, 2.448e-5
-1.053, 2.408e-5
-1.054, 2.373e-5
-1.055, 2.399e-5
-1.056, 2.422e-5
-1.057, 2.460e-5
-1.058, 2.441e-5
-1.059, 2.395e-5
-1.060, 2.418e-5
-1.061, 2.445e-5
-1.062, 2.484e-5
-1.063, 2.463e-5
-1.064, 2.408e-5
-1.065, 2.422e-5
-1.066, 2.478e-5
-1.067, 2.498e-5
-1.068, 2.483e-5
-1.069, 2.439e-5
-1.070, 2.442e-5
-1.071, 2.496e-5
-1.072, 2.509e-5
-1.073, 2.490e-5
-1.074, 2.449e-5
-1.075, 2.473e-5
-1.076, 2.506e-5
-1.077, 2.527e-5
-1.078, 2.492e-5
-1.079, 2.462e-5
-1.080, 2.463e-5
-1.081, 2.506e-5
-1.082, 2.544e-5
-1.083, 2.494e-5
-1.084, 2.473e-5
-1.085, 2.468e-5
-1.086, 2.511e-5
-1.087, 2.552e-5
-1.088, 2.501e-5
-1.089, 2.470e-5
-1.090, 2.480e-5
-1.091, 2.515e-5
-1.092, 2.552e-5
-1.093, 2.515e-5
-1.094, 2.473e-5
-1.095, 2.489e-5
-1.096, 2.516e-5
-1.097, 2.547e-5
-1.098, 2.522e-5
-1.099, 2.472e-5
-1.100, 2.491e-5
-1.101, 2.525e-5
-1.102, 2.547e-5
-1.103, 2.527e-5
-1.104, 2.472e-5
-1.105, 2.481e-5
-1.106, 2.521e-5
-1.107, 2.549e-5
-1.108, 2.526e-5
-1.109, 2.474e-5
-1.110, 2.478e-5
-1.111, 2.538e-5
-1.112, 2.542e-5
-1.113, 2.518e-5
-1.114, 2.490e-5
-1.115, 2.473e-5
-1.116, 2.526e-5
-1.117, 2.550e-5
-1.118, 2.511e-5
-1.119, 2.492e-5
-1.120, 2.475e-5
-1.121, 2.522e-5
-1.122, 2.550e-5
-1.123, 2.505e-5
-1.124, 2.485e-5
-1.125, 2.484e-5
-1.126, 2.521e-5
-1.127, 2.561e-5
-1.128, 2.509e-5
-1.129, 2.472e-5
-1.130, 2.488e-5
-1.131, 2.514e-5
-1.132, 2.551e-5
-1.133, 2.516e-5
-1.134, 2.480e-5
-1.135, 2.482e-5
-1.136, 2.514e-5
-1.137, 2.545e-5
-1.138, 2.520e-5
-1.139, 2.468e-5
-1.140, 2.484e-5
-1.141, 2.514e-5
-1.142, 2.546e-5
-1.143, 2.528e-5
-1.144, 2.474e-5
-1.145, 2.474e-5
-1.146, 2.528e-5
-1.147, 2.548e-5
-1.148, 2.519e-5
-1.149, 2.477e-5
-1.150, 2.476e-5
-1.151, 2.534e-5
-1.152, 2.548e-5
-1.153, 2.513e-5
-1.154, 2.495e-5
-1.155, 2.482e-5
-1.156, 2.531e-5
-1.157, 2.560e-5
-1.158, 2.518e-5
-1.159, 2.492e-5
-1.160, 2.488e-5
-1.161, 2.535e-5
-1.162, 2.573e-5
-1.163, 2.524e-5
-1.164, 2.495e-5
-1.165, 2.504e-5
-1.166, 2.536e-5
-1.167, 2.581e-5
-1.168, 2.540e-5
-1.169, 2.499e-5
-1.170, 2.525e-5
-1.171, 2.552e-5
-1.172, 2.586e-5
-1.173, 2.553e-5
-1.174, 2.518e-5
-1.175, 2.541e-5
-1.176, 2.562e-5
-1.177, 2.614e-5
-1.178, 2.588e-5
-1.179, 2.536e-5
-1.180, 2.563e-5
-1.181, 2.589e-5
-1.182, 2.621e-5
-1.183, 2.601e-5
-1.184, 2.567e-5
-1.185, 2.569e-5
-1.186, 2.628e-5
-1.187, 2.648e-5
-1.188, 2.633e-5
-1.189, 2.596e-5
-1.190, 2.606e-5
-1.191, 2.662e-5
-1.192, 2.687e-5
-1.193, 2.664e-5
-1.194, 2.639e-5
-1.195, 2.652e-5
-1.196, 2.701e-5
-1.197, 2.735e-5
-1.198, 2.706e-5
-1.199, 2.701e-5
-1.200, 2.693e-5
-1.201, 2.754e-5
-1.202, 2.790e-5
-1.203, 2.766e-5
-1.204, 2.747e-5
-1.205, 2.763e-5
-1.206, 2.805e-5
-1.207, 2.867e-5
-1.208, 2.829e-5
-1.209, 2.808e-5
-1.210, 2.843e-5
-1.211, 2.880e-5
-1.212, 2.934e-5
-1.213, 2.912e-5
-1.214, 2.897e-5
-1.215, 2.931e-5
-1.216, 2.974e-5
-1.217, 3.009e-5
-1.218, 3.018e-5
-1.219, 2.988e-5
-1.220, 3.024e-5
-1.221, 3.075e-5
-1.222, 3.118e-5
-1.223, 3.118e-5
-1.224, 3.093e-5
-1.225, 3.135e-5
-1.226, 3.203e-5
-1.227, 3.240e-5
-1.228, 3.260e-5
-1.229, 3.253e-5
-1.230, 3.273e-5
-1.231, 3.341e-5
-1.232, 3.376e-5
-1.233, 3.378e-5
-1.234, 3.388e-5
-1.235, 3.414e-5
-1.236, 3.486e-5
-1.237, 3.545e-5
-1.238, 3.542e-5
-1.239, 3.563e-5
-1.240, 3.590e-5
-1.241, 3.661e-5
-1.242, 3.727e-5
-1.243, 3.738e-5
-1.244, 3.747e-5
-1.245, 3.793e-5
-1.246, 3.867e-5
-1.247, 3.936e-5
-1.248, 3.947e-5
-1.249, 3.958e-5
-1.250, 4.022e-5
-1.251, 4.083e-5
-1.252, 4.170e-5
-1.253, 4.187e-5
-1.254, 4.208e-5
-1.255, 4.279e-5
-1.256, 4.342e-5
-1.257, 4.435e-5
-1.258, 4.464e-5
-1.259, 4.483e-5
-1.260, 4.557e-5
-1.261, 4.643e-5
-1.262, 4.727e-5
-1.263, 4.770e-5
-1.264, 4.789e-5
-1.265, 4.866e-5
-1.266, 4.980e-5
-1.267, 5.067e-5
-1.268, 5.114e-5
-1.269, 5.160e-5
-1.270, 5.238e-5
-1.271, 5.345e-5
-1.272, 5.441e-5
-1.273, 5.494e-5
-1.274, 5.548e-5
-1.275, 5.635e-5
-1.276, 5.751e-5
-1.277, 5.866e-5
-1.278, 5.929e-5
-1.279, 6.000e-5
-1.280, 6.095e-5
-1.281, 6.219e-5
-1.282, 6.343e-5
-1.283, 6.409e-5
-1.284, 6.490e-5
-1.285, 6.602e-5
-1.286, 6.737e-5
-1.287, 6.876e-5
-1.288, 6.953e-5
-1.289, 7.039e-5
-1.290, 7.167e-5
-1.291, 7.320e-5
-1.292, 7.460e-5
-1.293, 7.570e-5
-1.294, 7.669e-5
-1.295, 7.810e-5
-1.296, 7.971e-5
-1.297, 8.130e-5
-1.298, 8.258e-5
-1.299, 8.357e-5
-1.300, 8.525e-5
-1.301, 8.701e-5
-1.302, 8.876e-5
-1.303, 9.024e-5
-1.304, 9.160e-5
-1.305, 9.331e-5
-1.306, 9.528e-5
-1.307, 9.724e-5
-1.308, 9.877e-5
-1.309, 1.004e-4
-1.310, 1.022e-4
-1.311, 1.045e-4
-1.312, 1.066e-4
-1.313, 1.084e-4
-1.314, 1.102e-4
-1.315, 1.121e-4
-1.316, 1.147e-4
-1.317, 1.171e-4
-1.318, 1.191e-4
-1.319, 1.212e-4
-1.320, 1.235e-4
-1.321, 1.263e-4
-1.322, 1.292e-4
-1.323, 1.312e-4
-1.324, 1.337e-4
-1.325, 1.364e-4
-1.326, 1.393e-4
-1.327, 1.424e-4
-1.328, 1.450e-4
-1.329, 1.476e-4
-1.330, 1.508e-4
-1.331, 1.541e-4
-1.332, 1.578e-4
-1.333, 1.608e-4
-1.334, 1.637e-4
-1.335, 1.673e-4
-1.336, 1.709e-4
-1.337, 1.749e-4
-1.338, 1.783e-4
-1.339, 1.818e-4
-1.340, 1.857e-4
-1.341, 1.902e-4
-1.342, 1.944e-4
-1.343, 1.986e-4
-1.344, 2.024e-4
-1.345, 2.068e-4
-1.346, 2.116e-4
-1.347, 2.164e-4
-1.348, 2.214e-4
-1.349, 2.258e-4
-1.350, 2.309e-4
-1.351, 2.363e-4
-1.352, 2.418e-4
-1.353, 2.469e-4
-1.354, 2.526e-4
-1.355, 2.583e-4
-1.356, 2.644e-4
-1.357, 2.706e-4
-1.358, 2.767e-4
-1.359, 2.829e-4
-1.360, 2.893e-4
-1.361, 2.963e-4
-1.362, 3.034e-4
-1.363, 3.103e-4
-1.364, 3.176e-4
-1.365, 3.251e-4
-1.366, 3.329e-4
-1.367, 3.411e-4
-1.368, 3.494e-4
-1.369, 3.572e-4
-1.370, 3.657e-4
-1.371, 3.749e-4
-1.372, 3.843e-4
-1.373, 3.932e-4
-1.374, 4.025e-4
-1.375, 4.127e-4
-1.376, 4.227e-4
-1.377, 4.332e-4
-1.378, 4.438e-4
-1.379, 4.542e-4
-1.380, 4.653e-4
-1.381, 4.774e-4
-1.382, 4.893e-4
-1.383, 5.014e-4
-1.384, 5.137e-4
-1.385, 5.263e-4
-1.386, 5.401e-4
-1.387, 5.531e-4
-1.388, 5.670e-4
-1.389, 5.813e-4
-1.390, 5.957e-4
-1.391, 6.108e-4
-1.392, 6.262e-4
-1.393, 6.421e-4
-1.394, 6.578e-4
-1.395, 6.740e-4
-1.396, 6.912e-4
-1.397, 7.088e-4
-1.398, 7.262e-4
-1.399, 7.443e-4
-1.400, 7.633e-4
-1.401, 7.825e-4
-1.402, 8.023e-4
-1.403, 8.222e-4
-1.404, 8.416e-4
-1.405, 8.629e-4
-1.406, 8.844e-4
-1.407, 9.060e-4
-1.408, 9.284e-4
-1.409, 9.503e-4
-1.410, 9.738e-4
-1.411, 9.974e-4
-1.412, 1.022e-3
-1.413, 1.046e-3
-1.414, 1.071e-3
-1.415, 1.096e-3
-1.416, 1.123e-3
-1.417, 1.149e-3
-1.418, 1.176e-3
-1.419, 1.203e-3
-1.420, 1.230e-3
-1.421, 1.259e-3
-1.422, 1.289e-3
-1.423, 1.318e-3
-1.424, 1.347e-3
-1.425, 1.376e-3
-1.426, 1.407e-3
-1.427, 1.439e-3
-1.428, 1.471e-3
-1.429, 1.501e-3
-1.430, 1.533e-3
-1.431, 1.565e-3
-1.432, 1.597e-3
-1.433, 1.631e-3
-1.434, 1.664e-3
-1.435, 1.696e-3
-1.436, 1.733e-3
-1.437, 1.767e-3
-1.438, 1.802e-3
-1.439, 1.836e-3
-1.440, 1.874e-3
-1.441, 1.910e-3
-1.442, 1.947e-3
-1.443, 1.983e-3
-1.444, 2.018e-3
-1.445, 2.057e-3
-1.446, 2.096e-3
-1.447, 2.134e-3
-1.448, 2.171e-3
-1.449, 2.210e-3
-1.450, 2.248e-3
-1.451, 2.284e-3
-1.452, 2.324e-3
-1.453, 2.361e-3
-1.454, 2.399e-3
-1.455, 2.437e-3
-1.456, 2.476e-3
-1.457, 2.516e-3
-1.458, 2.557e-3
-1.459, 2.596e-3
-1.460, 2.638e-3
-1.461, 2.677e-3
-1.462, 2.718e-3
-1.463, 2.759e-3
-1.464, 2.799e-3
-1.465, 2.839e-3
-1.466, 2.881e-3
-1.467, 2.923e-3
-1.468, 2.968e-3
-1.469, 3.010e-3
-1.470, 3.050e-3
-1.471, 3.093e-3
-1.472, 3.136e-3
-1.473, 3.190e-3
-1.474, 3.233e-3
-1.475, 3.274e-3
-1.476, 3.316e-3
-1.477, 3.358e-3
-1.478, 3.401e-3
-1.479, 3.454e-3
-1.480, 3.501e-3
-1.481, 3.546e-3
-1.482, 3.600e-3
-1.483, 3.638e-3
-1.484, 3.678e-3
-1.485, 3.722e-3
-1.486, 3.772e-3
-1.487, 3.810e-3
-1.488, 3.858e-3
-1.489, 3.904e-3
-1.490, 3.948e-3
-1.491, 3.997e-3
-1.492, 4.040e-3
-1.493, 4.093e-3
-1.494, 4.134e-3
-1.495, 4.188e-3
-1.496, 4.232e-3
-1.497, 4.273e-3
-1.498, 4.317e-3
-1.499, 4.364e-3
-1.500, 4.363e-3
-1.499, 4.303e-3
-1.498, 4.248e-3
-1.497, 4.196e-3
-1.496, 4.139e-3
-1.495, 4.089e-3
-1.494, 4.037e-3
-1.493, 3.981e-3
-1.492, 3.923e-3
-1.491, 3.867e-3
-1.490, 3.812e-3
-1.489, 3.762e-3
-1.488, 3.716e-3
-1.487, 3.672e-3
-1.486, 3.618e-3
-1.485, 3.572e-3
-1.484, 3.529e-3
-1.483, 3.475e-3
-1.482, 3.420e-3
-1.481, 3.387e-3
-1.480, 3.338e-3
-1.479, 3.289e-3
-1.478, 3.261e-3
-1.477, 3.211e-3
-1.476, 3.161e-3
-1.475, 3.114e-3
-1.474, 3.066e-3
-1.473, 3.024e-3
-1.472, 2.979e-3
-1.471, 2.930e-3
-1.470, 2.891e-3
-1.469, 2.855e-3
-1.468, 2.811e-3
-1.467, 2.771e-3
-1.466, 2.729e-3
-1.465, 2.683e-3
-1.464, 2.641e-3
-1.463, 2.599e-3
-1.462, 2.561e-3
-1.461, 2.524e-3
-1.460, 2.482e-3
-1.459, 2.445e-3
-1.458, 2.411e-3
-1.457, 2.375e-3
-1.456, 2.337e-3
-1.455, 2.297e-3
-1.454, 2.259e-3
-1.453, 2.227e-3
-1.452, 2.191e-3
-1.451, 2.156e-3
-1.450, 2.118e-3
-1.449, 2.083e-3
-1.448, 2.046e-3
-1.447, 2.013e-3
-1.446, 1.978e-3
-1.445, 1.942e-3
-1.444, 1.908e-3
-1.443, 1.876e-3
-1.442, 1.845e-3
-1.441, 1.812e-3
-1.440, 1.783e-3
-1.439, 1.749e-3
-1.438, 1.720e-3
-1.437, 1.690e-3
-1.436, 1.657e-3
-1.435, 1.625e-3
-1.434, 1.599e-3
-1.433, 1.571e-3
-1.432, 1.543e-3
-1.431, 1.516e-3
-1.430, 1.486e-3
-1.429, 1.460e-3
-1.428, 1.434e-3
-1.427, 1.404e-3
-1.426, 1.380e-3
-1.425, 1.358e-3
-1.424, 1.331e-3
-1.423, 1.304e-3
-1.422, 1.278e-3
-1.421, 1.252e-3
-1.420, 1.228e-3
-1.419, 1.205e-3
-1.418, 1.180e-3
-1.417, 1.156e-3
-1.416, 1.132e-3
-1.415, 1.108e-3
-1.414, 1.085e-3
-1.413, 1.063e-3
-1.412, 1.042e-3
-1.411, 1.020e-3
-1.410, 9.980e-4
-1.409, 9.767e-4
-1.408, 9.563e-4
-1.407, 9.370e-4
-1.406, 9.155e-4
-1.405, 8.953e-4
-1.404, 8.760e-4
-1.403, 8.576e-4
-1.402, 8.389e-4
-1.401, 8.223e-4
-1.400, 8.038e-4
-1.399, 7.865e-4
-1.398, 7.694e-4
-1.397, 7.530e-4
-1.396, 7.379e-4
-1.395, 7.209e-4
-1.394, 7.050e-4
-1.393, 6.898e-4
-1.392, 6.740e-4
-1.391, 6.587e-4
-1.390, 6.433e-4
-1.389, 6.293e-4
-1.388, 6.153e-4
-1.387, 6.012e-4
-1.386, 5.875e-4
-1.385, 5.739e-4
-1.384, 5.612e-4
-1.383, 5.482e-4
-1.382, 5.359e-4
-1.381, 5.233e-4
-1.380, 5.111e-4
-1.379, 4.995e-4
-1.378, 4.883e-4
-1.377, 4.770e-4
-1.376, 4.660e-4
-1.375, 4.548e-4
-1.374, 4.442e-4
-1.373, 4.343e-4
-1.372, 4.243e-4
-1.371, 4.141e-4
-1.370, 4.041e-4
-1.369, 3.950e-4
-1.368, 3.857e-4
-1.367, 3.771e-4
-1.366, 3.677e-4
-1.365, 3.593e-4
-1.364, 3.507e-4
-1.363, 3.430e-4
-1.362, 3.348e-4
-1.361, 3.267e-4
-1.360, 3.186e-4
-1.359, 3.111e-4
-1.358, 3.038e-4
-1.357, 2.969e-4
-1.356, 2.893e-4
-1.355, 2.822e-4
-1.354, 2.767e-4
-1.353, 2.698e-4
-1.352, 2.634e-4
-1.351, 2.567e-4
-1.350, 2.504e-4
-1.349, 2.446e-4
-1.348, 2.389e-4
-1.347, 2.329e-4
-1.346, 2.273e-4
-1.345, 2.214e-4
-1.344, 2.163e-4
-1.343, 2.113e-4
-1.342, 2.060e-4
-1.341, 2.009e-4
-1.340, 1.956e-4
-1.339, 1.909e-4
-1.338, 1.867e-4
-1.337, 1.819e-4
-1.336, 1.777e-4
-1.335, 1.731e-4
-1.334, 1.687e-4
-1.333, 1.651e-4
-1.332, 1.609e-4
-1.331, 1.566e-4
-1.330, 1.525e-4
-1.329, 1.489e-4
-1.328, 1.456e-4
-1.327, 1.419e-4
-1.326, 1.380e-4
-1.325, 1.345e-4
-1.324, 1.312e-4
-1.323, 1.281e-4
-1.322, 1.252e-4
-1.321, 1.216e-4
-1.320, 1.184e-4
-1.319, 1.159e-4
-1.318, 1.129e-4
-1.317, 1.102e-4
-1.316, 1.072e-4
-1.315, 1.042e-4
-1.314, 1.018e-4
-1.313, 9.933e-5
-1.312, 9.679e-5
-1.311, 9.419e-5
-1.310, 9.141e-5
-1.309, 8.916e-5
-1.308, 8.715e-5
-1.307, 8.494e-5
-1.306, 8.247e-5
-1.305, 8.005e-5
-1.304, 7.801e-5
-1.303, 7.635e-5
-1.302, 7.426e-5
-1.301, 7.212e-5
-1.300, 6.989e-5
-1.299, 6.812e-5
-1.298, 6.658e-5
-1.297, 6.478e-5
-1.296, 6.288e-5
-1.295, 6.101e-5
-1.294, 5.919e-5
-1.293, 5.796e-5
-1.292, 5.656e-5
-1.291, 5.461e-5
-1.290, 5.279e-5
-1.289, 5.132e-5
-1.288, 5.026e-5
-1.287, 4.887e-5
-1.286, 4.715e-5
-1.285, 4.561e-5
-1.284, 4.437e-5
-1.283, 4.329e-5
-1.282, 4.209e-5
-1.281, 4.056e-5
-1.280, 3.900e-5
-1.279, 3.801e-5
-1.278, 3.697e-5
-1.277, 3.606e-5
-1.276, 3.461e-5
-1.275, 3.319e-5
-1.274, 3.228e-5
-1.273, 3.146e-5
-1.272, 3.056e-5
-1.271, 2.930e-5
-1.270, 2.799e-5
-1.269, 2.724e-5
-1.268, 2.648e-5
-1.267, 2.558e-5
-1.266, 2.449e-5
-1.265, 2.327e-5
-1.264, 2.260e-5
-1.263, 2.196e-5
-1.262, 2.122e-5
-1.261, 2.014e-5
-1.260, 1.913e-5
-1.259, 1.833e-5
-1.258, 1.797e-5
-1.257, 1.717e-5
-1.256, 1.626e-5
-1.255, 1.531e-5
-1.254, 1.451e-5
-1.253, 1.424e-5
-1.252, 1.369e-5
-1.251, 1.262e-5
-1.250, 1.176e-5
-1.249, 1.119e-5
-1.248, 1.092e-5
-1.247, 1.043e-5
-1.246, 9.341e-6
-1.245, 8.653e-6
-1.244, 8.152e-6
-1.243, 7.796e-6
-1.242, 7.444e-6
-1.241, 6.484e-6
-1.240, 5.781e-6
-1.239, 5.395e-6
-1.238, 4.989e-6
-1.237, 4.795e-6
-1.236, 3.893e-6
-1.235, 3.088e-6
-1.234, 2.751e-6
-1.233, 2.518e-6
-1.232, 2.267e-6
-1.231, 1.563e-6
-1.230, 6.510e-7
-1.229, 1.330e-7
-1.228, 2.218e-7
-1.227, -9.096e-8
-1.226, -6.908e-7
-1.225, -1.533e-6
-1.224, -1.704e-6
-1.223, -1.844e-6
-1.222, -2.192e-6
-1.221, -2.746e-6
-1.220, -3.384e-6
-1.219, -3.772e-6
-1.218, -3.768e-6
-1.217, -4.056e-6
-1.216, -4.608e-6
-1.215, -5.257e-6
-1.214, -5.664e-6
-1.213, -5.591e-6
-1.212, -5.667e-6
-1.211, -6.451e-6
-1.210, -6.963e-6
-1.209, -7.268e-6
-1.208, -7.236e-6
-1.207, -7.246e-6
-1.206, -8.304e-6
-1.205, -8.516e-6
-1.204, -8.766e-6
-1.203, -8.869e-6
-1.202, -8.827e-6
-1.201, -9.561e-6
-1.200, -9.980e-6
-1.199, -1.028e-5
-1.198, -1.031e-5
-1.197, -1.011e-5
-1.196, -1.085e-5
-1.195, -1.149e-5
-1.194, -1.156e-5
-1.193, -1.171e-5
-1.192, -1.153e-5
-1.191, -1.213e-5
-1.190, -1.281e-5
-1.189, -1.281e-5
-1.188, -1.286e-5
-1.187, -1.292e-5
-1.186, -1.330e-5
-1.185, -1.404e-5
-1.184, -1.412e-5
-1.183, -1.403e-5
-1.182, -1.404e-5
-1.181, -1.449e-5
-1.180, -1.508e-5
-1.179, -1.614e-5
-1.178, -1.535e-5
-1.177, -1.532e-5
-1.176, -1.554e-5
-1.175, -1.623e-5
-1.174, -1.647e-5
-1.173, -1.621e-5
-1.172, -1.620e-5
-1.171, -1.681e-5
-1.170, -1.719e-5
-1.169, -1.752e-5
-1.168, -1.729e-5
-1.167, -1.727e-5
-1.166, -1.777e-5
-1.165, -1.826e-5
-1.164, -1.841e-5
-1.163, -1.834e-5
-1.162, -1.818e-5
-1.161, -1.877e-5
-1.160, -1.916e-5
-1.159, -1.936e-5
-1.158, -1.941e-5
-1.157, -1.912e-5
-1.156, -1.959e-5
-1.155, -2.039e-5
-1.154, -2.031e-5
-1.153, -2.080e-5
-1.152, -2.043e-5
-1.151, -2.052e-5
-1.150, -2.149e-5
-1.149, -2.127e-5
-1.148, -2.118e-5
-1.147, -2.108e-5
-1.146, -2.141e-5
-1.145, -2.210e-5
-1.144, -2.212e-5
-1.143, -2.197e-5
-1.142, -2.189e-5
-1.141, -2.230e-5
-1.140, -2.280e-5
-1.139, -2.307e-5
-1.138, -2.286e-5
-1.137, -2.274e-5
-1.136, -2.302e-5
-1.135, -2.356e-5
-1.134, -2.393e-5
-1.133, -2.354e-5
-1.132, -2.352e-5
-1.131, -2.382e-5
-1.130, -2.434e-5
-1.129, -2.467e-5
-1.128, -2.436e-5
-1.127, -2.418e-5
-1.126, -2.462e-5
-1.125, -2.523e-5
-1.124, -2.531e-5
-1.123, -2.527e-5
-1.122, -2.502e-5
-1.121, -2.540e-5
-1.120, -2.583e-5
-1.119, -2.604e-5
-1.118, -2.595e-5
-1.117, -2.563e-5
-1.116, -2.607e-5
-1.115, -2.662e-5
-1.114, -2.677e-5
-1.113, -2.667e-5
-1.112, -2.627e-5
-1.111, -2.665e-5
-1.110, -2.749e-5
-1.109, -2.738e-5
-1.108, -2.711e-5
-1.107, -2.722e-5
-1.106, -2.728e-5
-1.105, -2.802e-5
-1.104, -2.790e-5
-1.103, -2.801e-5
-1.102, -2.772e-5
-1.101, -2.802e-5
-1.100, -2.856e-5
-1.099, -2.883e-5
-1.098, -2.843e-5
-1.097, -2.833e-5
-1.096, -2.854e-5
-1.095, -2.904e-5
-1.094, -2.955e-5
-1.093, -2.900e-5
-1.092, -2.891e-5
-1.091, -2.913e-5
-1.090, -2.981e-5
-1.089, -2.980e-5
-1.088, -2.980e-5
-1.087, -2.934e-5
-1.086, -2.972e-5
-1.085, -3.019e-5
-1.084, -3.034e-5
-1.083, -3.058e-5
-1.082, -2.990e-5
-1.081, -3.039e-5
-1.080, -3.080e-5
-1.079, -3.093e-5
-1.078, -3.096e-5
-1.077, -3.047e-5
-1.076, -3.080e-5
-1.075, -3.188e-5
-1.074, -3.169e-5
-1.073, -3.151e-5
-1.072, -3.114e-5
-1.071, -3.131e-5
-1.070, -3.200e-5
-1.069, -3.212e-5
-1.068, -3.196e-5
-1.067, -3.176e-5
-1.066, -3.191e-5
-1.065, -3.260e-5
-1.064, -3.259e-5
-1.063, -3.258e-5
-1.062, -3.234e-5
-1.061, -3.238e-5
-1.060, -3.295e-5
-1.059, -3.327e-5
-1.058, -3.294e-5
-1.057, -3.286e-5
-1.056, -3.281e-5
-1.055, -3.352e-5
-1.054, -3.384e-5
-1.053, -3.349e-5
-1.052, -3.315e-5
-1.051, -3.348e-5
-1.050, -3.397e-5
-1.049, -3.434e-5
-1.048, -3.403e-5
-1.047, -3.365e-5
-1.046, -3.402e-5
-1.045, -3.447e-5
-1.044, -3.467e-5
-1.043, -3.465e-5
-1.042, -3.416e-5
-1.041, -3.450e-5
-1.040, -3.492e-5
-1.039, -3.514e-5
-1.038, -3.520e-5
-1.037, -3.465e-5
-1.036, -3.491e-5
-1.035, -3.551e-5
-1.034, -3.564e-5
-1.033, -3.562e-5
-1.032, -3.518e-5
-1.031, -3.531e-5
-1.030, -3.611e-5
-1.029, -3.609e-5
-1.028, -3.603e-5
-1.027, -3.575e-5
-1.026, -3.576e-5
-1.025, -3.662e-5
-1.024, -3.682e-5
-1.023, -3.647e-5
-1.022, -3.631e-5
-1.021, -3.624e-5
-1.020, -3.694e-5
-1.019, -3.726e-5
-1.018, -3.709e-5
-1.017, -3.686e-5
-1.016, -3.673e-5
-1.015, -3.732e-5
-1.014, -3.777e-5
-1.013, -3.739e-5
-1.012, -3.712e-5
-1.011, -3.739e-5
-1.010, -3.789e-5
-1.009, -3.825e-5
-1.008, -3.785e-5
-1.007, -3.766e-5
-1.006, -3.786e-5
-1.005, -3.823e-5
-1.004, -3.854e-5
-1.003, -3.849e-5
-1.002, -3.795e-5
-1.001, -3.843e-5
