Potential V vs RHE, Current mA cm-2
0.013299999999999867,-1.3980177065266295
0.012299999999999978,-5.5414241615713475
0.011299999999999866,-8.943804837746763
0.010299999999999976,-11.778886282676295
0.009299999999999864,-14.175407224647667
0.008299999999999974,-16.141855931460068
0.007299999999999862,-17.75462681330621
0.006299999999999972,-19.056161209182044
0.00529999999999986,-20.244518701068674
0.0042999999999999705,-21.2065223849769
0.0032999999999998586,-22.069496277894572
0.0022999999999999687,-22.861734605818995
0.0012999999999998568,-23.597384481748815
0.00029999999999996696,-24.20571034069078
-0.000700000000000145,-24.814036199632742
-0.0017000000000000348,-25.337479380582806
-0.0027000000000001467,-25.86092256153287
-0.0037000000000000366,-26.257041725495082
-0.0047000000000001485,-26.69560222845324
-0.005700000000000038,-26.86536758443705
-0.00670000000000015,-27.091721392415455
-0.00770000000000004,-27.219045409403304
-0.008700000000000152,-27.38881076538711
-0.009700000000000042,-27.487840556377662
-0.010700000000000154,-27.65760591236147
-0.011700000000000044,-27.78492992934932
-0.012700000000000156,-28.011283737327723
-0.013700000000000045,-28.13860775431558
-0.014700000000000157,-28.435697127287238
-0.015700000000000047,-28.577168257273744
-0.01670000000000016,-28.746933613257543
-0.01770000000000005,-28.8742576302454
-0.01870000000000016,-28.91669896924135
-0.01970000000000005,-28.959140308237306
-0.020700000000000163,-29.001581647233255
-0.021700000000000053,-29.001581647233255
-0.022700000000000164,-28.959140308237306
-0.023700000000000054,-28.959140308237306
-0.024700000000000166,-29.001581647233255
-0.025700000000000056,-29.100611438223805
-0.026700000000000168,-29.22793545521166
-0.027700000000000058,-29.39770081119546
-0.02870000000000017,-29.440142150191413
-0.02970000000000006,-29.62405461917387
-0.03070000000000017,-29.708937297165768
-0.03170000000000006,-29.793819975157668
-0.03270000000000017,-29.793819975157668
-0.03370000000000006,-29.751378636161718
-0.034700000000000175,-29.708937297165768
-0.035700000000000065,-29.66649595816982
-0.03670000000000018,-29.581613280177915
-0.03770000000000007,-29.62405461917387
-0.03870000000000018,-29.66649595816982
-0.03970000000000007,-29.751378636161718
-0.04070000000000018,-29.878702653149578
-0.04170000000000007,-29.96358533114148
-0.04270000000000018,-30.10505646112798
-0.04370000000000007,-30.147497800123933
-0.044700000000000184,-30.232380478115836
-0.045700000000000074,-30.232380478115836
-0.046700000000000186,-30.189939139119886
-0.047700000000000076,-30.147497800123933
-0.04870000000000019,-30.10505646112798
-0.04970000000000008,-30.04846800913338
-0.05070000000000019,-29.96358533114148
-0.05170000000000008,-30.00602667013743
-0.05270000000000019,-30.00602667013743
-0.05370000000000008,-30.10505646112798
-0.05470000000000019,-30.232380478115836
-0.05570000000000008,-30.359704495103685
-0.056700000000000195,-30.402145834099635
-0.057700000000000085,-30.487028512091538
-0.058700000000000196,-30.444587173095588
-0.059700000000000086,-30.444587173095588
-0.0607000000000002,-30.359704495103685
-0.06170000000000009,-30.359704495103685
-0.0627000000000002,-30.274821817111786
-0.06370000000000009,-30.232380478115836
-0.0647000000000002,-30.232380478115836
-0.06570000000000009,-30.274821817111786
-0.0667000000000002,-30.317263156107735
-0.0677000000000001,-30.444587173095588
-0.0687000000000002,-30.487028512091538
-0.0697000000000001,-30.571911190083444
-0.07070000000000021,-30.614352529079397
-0.0717000000000001,-30.571911190083444
-0.07270000000000021,-30.614352529079397
-0.0737000000000001,-30.571911190083444
-0.07470000000000021,-30.487028512091538
-0.0757000000000001,-30.359704495103685
-0.07670000000000021,-30.359704495103685
-0.0777000000000001,-30.359704495103685
-0.07870000000000021,-30.444587173095588
-0.0797000000000001,-30.487028512091538
-0.08070000000000022,-30.571911190083444
-0.0817000000000001,-30.670940981073993
-0.08270000000000022,-30.79826499806185
-0.08370000000000011,-30.88314767605375
-0.08470000000000022,-30.925589015049702
-0.08570000000000011,-30.88314767605375
-0.08670000000000022,-30.8407063370578
-0.08770000000000011,-30.7558236590659
-0.08870000000000022,-30.7558236590659
-0.08970000000000011,-30.670940981073993
-0.09070000000000022,-30.670940981073993
-0.09170000000000011,-30.670940981073993
-0.09270000000000023,-30.670940981073993
-0.09370000000000012,-30.7558236590659
-0.09470000000000023,-30.8407063370578
-0.09570000000000012,-30.968030354045652
-0.09670000000000023,-31.095354371033505
-0.09770000000000012,-31.095354371033505
-0.09870000000000023,-31.137795710029454
-0.09970000000000012,-31.095354371033505
-0.10070000000000023,-31.095354371033505
-0.10170000000000012,-31.010471693041605
-0.10270000000000024,-30.925589015049702
-0.10370000000000013,-30.925589015049702
-0.10470000000000024,-30.925589015049702
-0.10570000000000013,-31.010471693041605
-0.10670000000000024,-31.095354371033505
-0.10770000000000013,-31.19438416202406
-0.10870000000000024,-31.27926684001596
-0.10970000000000013,-31.40659085700382
-0.11070000000000024,-31.449032195999767
-0.11170000000000013,-31.49147353499572
-0.11270000000000002,-31.40659085700382
-0.11370000000000013,-31.36414951800786
-0.11470000000000002,-31.321708179011907
-0.11570000000000014,-31.19438416202406
-0.11670000000000003,-31.137795710029454
-0.11770000000000014,-31.137795710029454
-0.11870000000000003,-31.19438416202406
-0.11970000000000014,-31.27926684001596
-0.12070000000000003,-31.36414951800786
-0.12170000000000014,-31.40659085700382
-0.12270000000000003,-31.533914873991666
-0.12370000000000014,-31.661238890979522
-0.12470000000000003,-31.717827342974125
-0.12570000000000014,-31.661238890979522
-0.12670000000000003,-31.661238890979522
-0.12770000000000015,-31.57635621298762
-0.12870000000000004,-31.533914873991666
-0.12970000000000015,-31.49147353499572
-0.13070000000000004,-31.49147353499572
-0.13170000000000015,-31.49147353499572
-0.13270000000000004,-31.57635621298762
-0.13370000000000015,-31.661238890979522
-0.13470000000000004,-31.84515135996197
-0.13570000000000015,-31.972475376949827
-0.13670000000000004,-32.05735805494172
-0.13770000000000016,-32.09979939393769
-0.13870000000000005,-32.09979939393769
-0.13970000000000016,-32.09979939393769
-0.14070000000000005,-32.09979939393769
-0.14170000000000016,-32.09979939393769
-0.14270000000000005,-32.01491671594578
-0.14370000000000016,-31.930034037953877
-0.14470000000000005,-31.930034037953877
-0.14570000000000016,-32.09979939393769
-0.14670000000000005,-32.184682071929586
-0.14770000000000016,-32.32615320191609
-0.14870000000000005,-32.45347721890394
-0.14970000000000017,-32.53835989689585
-0.15070000000000006,-32.66568391388369
-0.15170000000000017,-32.70812525287965
-0.15270000000000006,-32.764713704874254
-0.15370000000000017,-32.62324257488775
-0.15470000000000006,-32.58080123589179
-0.15570000000000017,-32.49591855789989
-0.15670000000000006,-32.45347721890394
-0.15770000000000017,-32.45347721890394
-0.15870000000000006,-32.49591855789989
-0.15970000000000018,-32.53835989689585
-0.16070000000000007,-32.70812525287965
-0.16170000000000018,-32.84959638286615
-0.16270000000000007,-33.01936173884996
-0.16370000000000018,-33.14668575583781
-0.16470000000000007,-33.288156885824314
-0.16570000000000018,-33.18912709483376
-0.16670000000000007,-33.231568433829715
-0.16770000000000018,-33.18912709483376
-0.16870000000000007,-33.18912709483376
-0.16970000000000018,-33.14668575583781
-0.17070000000000007,-33.14668575583781
-0.17170000000000019,-33.18912709483376
-0.17270000000000008,-33.18912709483376
-0.1737000000000002,-33.330598224820264
-0.17470000000000008,-33.45792224180811
-0.1757000000000002,-33.627687597791926
-0.17670000000000008,-33.712570275783825
-0.1777000000000002,-33.85404140577033
-0.17870000000000008,-33.89648274476628
-0.1797000000000002,-33.89648274476628
-0.18070000000000008,-33.93892408376223
-0.1817000000000002,-33.93892408376223
-0.18270000000000008,-33.89648274476628
-0.1837000000000002,-33.89648274476628
-0.1847000000000001,-33.93892408376223
-0.1857000000000002,-34.10868943974604
-0.1867000000000001,-34.193572117737936
-0.1877000000000002,-34.33504324772444
-0.1887000000000001,-34.462367264712285
-0.1897000000000002,-34.58969128170015
-0.1907000000000001,-34.67457395969205
-0.1917000000000001,-34.8018979766799
-0.19269999999999998,-34.85848642867451
-0.1937000000000001,-34.85848642867451
-0.19469999999999998,-34.75945663768395
-0.1957000000000001,-34.85848642867451
-0.19669999999999999,-34.8018979766799
-0.1977000000000001,-34.90092776767045
-0.1987,-34.94336910666641
-0.1997000000000001,-35.07069312365426
-0.2007,-35.198017140642115
-0.2017000000000001,-35.38192960962457
-0.2027,-35.50925362661242
-0.2037000000000001,-35.679018982596226
-0.2047,-35.721460321592176
-0.2057000000000001,-35.763901660588125
-0.2067,-35.848784338580025
-0.2077000000000001,-35.806342999584075
-0.2087,-35.848784338580025
-0.2097000000000001,-35.848784338580025
-0.2107,-35.90537279057463
-0.2117000000000001,-36.03269680756248
-0.2127,-36.11757948555439
-0.2137000000000001,-36.28734484153819
-0.2147,-36.5136986495166
-0.2157000000000001,-36.81078802248826
-0.2167,-36.95225915247476
-0.21770000000000012,-37.122024508458566
-0.2187,-37.164465847454515
-0.21970000000000012,-37.249348525446415
-0.2207,-37.291789864442364
-0.22170000000000012,-37.291789864442364
-0.2227,-37.334231203438314
-0.22370000000000012,-37.41911388143023
-0.2247,-37.47570233342482
-0.22570000000000012,-37.645467689408626
-0.2267,-37.81523304539243
-0.22770000000000012,-38.04158685337084
-0.22870000000000001,-38.253793548350586
-0.22970000000000013,-38.522588695324956
-0.23070000000000002,-38.777236729300654
-0.23170000000000013,-38.86211940729255
-0.23270000000000002,-39.046031876275016
-0.23370000000000013,-39.08847321527096
-0.23470000000000002,-39.173355893262865
-0.23570000000000013,-39.21579723225882
-0.23670000000000002,-39.34312124924667
-0.2376999999999999,-39.42800392723857
-0.23870000000000002,-39.739240413208876
-0.2396999999999999,-39.90900576919269
-0.24070000000000003,-40.177800916167044
-0.24169999999999991,-40.43244895014274
-0.24270000000000003,-40.743685436113054
-0.24369999999999992,-40.95589213109281
-0.24470000000000003,-41.182245939071215
-0.24569999999999992,-41.30956995605907
-0.24670000000000003,-41.39445263405098
-0.24769999999999992,-41.52177665103883
-0.24870000000000003,-41.66324778102533
-0.24969999999999992,-41.66324778102533
-0.25070000000000003,-41.83301313700913
-0.2516999999999999,-42.00277849299294
-0.25270000000000004,-42.31401497896325
-0.2536999999999999,-42.568663012938956
-0.25470000000000004,-42.87989949890926
-0.2556999999999999,-43.23357732387552
-0.25670000000000004,-43.53066669684718
-0.25769999999999993,-43.79946184382153
-0.25870000000000004,-43.96922719980534
-0.25969999999999993,-44.138992555789144
-0.26070000000000004,-44.3229050247716
-0.26169999999999993,-44.535111719751356
-0.26270000000000004,-44.619994397743255
-0.26369999999999993,-44.88878954471762
-0.26470000000000005,-45.143437578693316
-0.26569999999999994,-45.45467406466363
-0.26670000000000005,-45.79420477663124
-0.26769999999999994,-46.19032394059345
-0.26870000000000005,-46.544001765559706
-0.26969999999999994,-46.88353247752732
-0.27070000000000005,-47.27965164148953
-0.27169999999999994,-47.590888127459834
-0.27270000000000005,-47.84553616143554
-0.27369999999999994,-48.114331308409895
-0.27470000000000006,-48.32653800338966
-0.27569999999999995,-48.55289181136806
-0.27670000000000006,-48.80753984534376
-0.27769999999999995,-49.118776331314066
-0.27870000000000006,-49.557336834272235
-0.27969999999999995,-49.89686754623985
-0.28070000000000006,-50.37786938819396
-0.28169999999999995,-50.81642989115212
-0.28270000000000006,-51.33987307210218
-0.28369999999999995,-51.77843357506035
-0.28470000000000006,-52.2169940780185
-0.28569999999999995,-52.55652478998611
-0.28670000000000007,-52.91020261495237
-0.28769999999999996,-53.16485064892808
-0.28870000000000007,-53.518528473894335
-0.28969999999999996,-53.82976495986464
-0.29070000000000007,-54.16929567183226
-0.29169999999999996,-54.60785617479041
-0.29270000000000007,-55.088858016744524
-0.29369999999999996,-55.612301197694585
-0.2947000000000001,-56.13574437864466
-0.29569999999999996,-56.70162889859067
-0.2967000000000001,-57.182630740544774
-0.29769999999999996,-57.70607392149485
-0.2987000000000001,-58.18707576344896
-0.29969999999999997,-58.66807760540307
-0.3007000000000001,-59.10663810836124
-0.30169999999999997,-59.44616882032884
-0.3027000000000001,-59.884729323287
-0.30369999999999997,-60.36573116524111
-0.3047000000000001,-60.889174346191176
-0.30569999999999997,-61.412617527141244
-0.3067000000000001,-62.06338472507916
-0.3077,-62.77074037501168
-0.3087000000000001,-63.37906623395363
-0.3097,-64.02983343189156
-0.3107000000000001,-64.68060062982947
-0.3117,-65.34551494076604
-0.3127000000000001,-65.99628213870396
-0.3137,-66.47728398065809
-0.3147000000000001,-67.08560983960004
-0.3157,-67.6090530205501
-0.3167000000000001,-68.21737887949207
-0.3177,-68.78326339943808
-0.3187000000000001,-69.53306038836655
-0.3197,-70.14138624730852
-0.3207000000000001,-70.87703612323833
-0.3217,-71.6268331121668
-0.3227000000000001,-72.44736566608852
-0.3237,-73.15472131602105
-0.3247000000000001,-73.93281253094682
-0.3257,-74.58357972888473
-0.3267000000000001,-75.37581805680915
-0.3277,-75.98414391575112
-0.3287000000000001,-76.67735245268499
-0.3297,-77.42714944161345
-0.3307000000000001,-78.24768199553519
-0.3317,-79.0399203234596
-0.3327000000000001,-79.90289421637728
-0.3337,-80.82245656128954
-0.3347000000000001,-81.78446024519776
-0.3357,-82.70402259011003
-0.3367000000000001,-83.56699648302772
-0.3377,-84.40167614994809
-0.3387000000000001,-85.27879715586442
-0.3397,-86.05688837079018
-0.3407000000000001,-86.89156803771054
-0.3417,-87.71210059163228
-0.3427000000000001,-88.46189758056073
-0.3437,-89.42390126446898
-0.3447000000000001,-90.28687515738663
-0.3457,-91.29132018029082
-0.3467000000000001,-92.33820654219093
-0.3477,-93.46997558208298
-0.3487000000000001,-94.5168619439831
-0.3497,-95.56374830588322
-0.3507000000000001,-96.73795868477121
-0.3517,-97.88387483766188
-0.3527000000000001,-98.88831986056607
-0.3537,-99.97764756146215
-0.3547000000000001,-100.92550413237171
-0.3557,-101.97239049427183
-0.35670000000000013,-103.07586530816658
-0.3577,-104.16519300906265
-0.35870000000000013,-105.33940338795064
-0.3597,-106.47117242784265
-0.36070000000000013,-107.73026548472255
-0.3617,-108.96106431560513
-0.3626999999999999,-110.26259871148096
-0.3637,-111.49339754236355
-0.3646999999999999,-112.75249059924342
-0.3657,-113.96914231712736
-0.3666999999999999,-115.10091135701937
-0.3677,-116.24682750991008
-0.3686999999999999,-117.46347922779398
-0.36970000000000003,-118.68013094567793
-0.3706999999999999,-119.9109297765605
-0.37170000000000003,-121.21246417243634
-0.3726999999999999,-122.57058702030677
-0.37370000000000003,-123.95700409417452
-0.3746999999999999,-125.40000962003687
-0.37570000000000003,-126.84301514589919
-0.3766999999999999,-128.28602067176152
-0.37770000000000004,-129.6299964066333
-0.3786999999999999,-130.98811925450374
-0.37970000000000004,-132.37453632837148
-0.3806999999999999,-133.69021783724597
-0.38170000000000004,-134.94931089412586
-0.38269999999999993,-136.30743374199628
-0.38370000000000004,-137.65140947686808
-0.38469999999999993,-139.09441500273041
-0.38570000000000004,-140.66474454558062
-0.38669999999999993,-138.79732562975875
-0.38570000000000004,-131.95012293841197
-0.38469999999999993,-126.44689598193698
-0.38370000000000004,-121.77834869238235
-0.38269999999999993,-117.59080324478184
-0.38170000000000004,-113.88425963913545
-0.3806999999999999,-110.4465111804634
-0.37970000000000004,-107.26341075576708
-0.3786999999999999,-104.3773997040424
-0.37770000000000004,-101.50553576531638
-0.3766999999999999,-98.88831986056607
-0.37570000000000003,-96.3984279728036
-0.3746999999999999,-94.03586010202899
-0.37370000000000003,-91.81476336124088
-0.3726999999999999,-89.76343197643658
-0.37170000000000003,-87.62721791364037
-0.3706999999999999,-85.75979899781852
-0.36970000000000003,-83.79335029100612
-0.3686999999999999,-81.78446024519776
-0.3677,-79.86045287738132
-0.3666999999999999,-77.90815128356756
-0.3657,-76.02658525474708
-0.3646999999999999,-74.10257788693062
-0.3637,-72.27760031010472
-0.3626999999999999,-70.53750541127073
-0.3617,-68.69838072144618
-0.36070000000000013,-67.08560983960004
-0.3597,-65.51528029674984
-0.35870000000000013,-63.902509414903705
-0.3577,-62.459503889041365
-0.35670000000000013,-60.889174346191176
-0.3557,-59.36128614233694
-0.3547000000000001,-57.8333979384827
-0.3537,-56.30550973462846
-0.3527000000000001,-54.791768643772876
-0.3517,-53.26388043991864
-0.3507000000000001,-51.594521106077885
-0.3497,-50.1656626932142
-0.3487000000000001,-48.76509850634781
-0.3477,-47.40697565847737
-0.3467000000000001,-46.10544126260155
-0.3457,-44.80390686672572
-0.3447000000000001,-43.53066669684718
-0.3437,-42.31401497896325
-0.3427000000000001,-40.95589213109281
-0.3417,-39.78168175220483
-0.3407000000000001,-38.522588695324956
-0.3397,-37.164465847454515
-0.3387000000000001,-35.848784338580025
-0.3377,-34.5472499427042
-0.3367000000000001,-33.231568433829715
-0.3357,-32.05735805494172
-0.3347000000000001,-30.88314767605375
-0.3337,-29.793819975157668
-0.3327000000000001,-28.746933613257543
-0.3317,-27.65760591236147
-0.3307000000000001,-26.69560222845324
-0.3297,-25.691157205549064
-0.3287000000000001,-24.64427084364894
-0.3277,-23.55494314275286
-0.3267000000000001,-22.42317410286083
-0.3257,-21.333846401964752
-0.3247000000000001,-20.244518701068674
-0.3237,-19.155191000172596
-0.3227000000000001,-18.15074597726842
-0.3217,-17.188742293360193
-0.3207000000000001,-16.22673860945197
-0.3197,-15.448647394526201
-0.3187000000000001,-14.529085049613924
-0.3177,-13.741090855589102
-0.3167000000000001,-12.869628694872238
-0.3157,-12.040607873151327
-0.3147000000000001,-11.123874950838783
-0.3137,-10.25241279012192
-0.3127000000000001,-9.335679867809377
-0.3117,-8.4203616567967
-0.3107000000000001,-7.50504344578402
-0.3097,-6.632166573767292
-0.3087000000000001,-5.80314575204638
-0.3077,-5.017980980621284
-0.3067000000000001,-4.364384360083638
-0.30569999999999997,-3.623075638954359
-0.3047000000000001,-2.924208256821031
-0.30369999999999997,-2.3144676865791998
-0.3027000000000001,-1.6156003044458718
-0.30169999999999997,-0.8745745255765657
-0.3007000000000001,-0.2202705493889862
-0.29969999999999997,0.6084673300719523
-0.2987000000000001,1.3063444142953748
-0.29769999999999996,2.178655401792157
-0.2967000000000001,2.8322520223298033
-0.29569999999999996,3.4872633541673155
-0.2947000000000001,4.098418635709011
-0.29369999999999996,4.708159205950842
-0.29270000000000007,5.231602386900906
-0.29169999999999996,5.798901618146785
-0.29070000000000007,6.278488748801033
-0.28969999999999996,6.889644030342729
-0.28870000000000007,7.32537511070116
-0.28769999999999996,7.936530392242855
-0.28670000000000007,8.590127012780503
-0.28569999999999995,9.245138344618015
-0.28470000000000006,9.811022864564029
-0.28369999999999995,10.422178146105725
-0.28270000000000006,10.989477377351605
-0.28169999999999995,11.556776608597485
-0.28070000000000006,11.992507688955916
-0.27969999999999995,12.428238769314348
-0.27870000000000006,12.865384560972643
-0.27769999999999995,13.257259591035258
-0.27670000000000006,13.65054933239774
-0.27569999999999995,14.042424362460354
-0.27470000000000006,14.529085049613924
-0.27369999999999994,15.05252823056399
-0.27270000000000005,15.519382959519453
-0.27169999999999994,16.000384801473565
-0.27070000000000005,16.56626932141958
-0.26969999999999994,16.962388485381787
-0.26870000000000005,17.4433903273359
-0.26769999999999994,17.839509491298113
-0.26670000000000005,18.19318731626437
-0.26569999999999994,18.49027668923603
