Potential V vs RHE, Current mA cm-2
0.013299999999999867,-1.5293029151541047
0.012299999999999978,-5.105693081212917
0.011299999999999866,-7.4173313451923875
0.010299999999999976,-8.987660888042578
0.009299999999999864,-10.164700689530287
0.008299999999999974,-11.123874950838783
0.007299999999999862,-11.909039722263879
0.006299999999999972,-12.651763154693022
0.00529999999999986,-13.087494235051453
0.0042999999999999705,-13.349215825526485
0.0032999999999998586,-13.3930718758223
0.0022999999999999687,-13.567081365705702
0.0012999999999998568,-13.872659006476551
0.00029999999999996696,-14.13438059695158
-0.000700000000000145,-14.444202371622024
-0.0017000000000000348,-14.529085049613924
-0.0027000000000001467,-14.444202371622024
-0.0037000000000000366,-14.401761032626075
-0.0047000000000001485,-14.401761032626075
-0.005700000000000038,-14.65640906660178
-0.00670000000000015,-14.868615761581536
-0.00770000000000004,-14.967645552572087
-0.008700000000000152,-14.967645552572087
-0.009700000000000042,-14.826174422585586
-0.010700000000000154,-14.783733083589633
-0.011700000000000044,-14.925204213576137
-0.012700000000000156,-15.05252823056399
-0.013700000000000045,-15.222293586547794
-0.014700000000000157,-15.264734925543747
-0.015700000000000047,-15.137410908555893
-0.01670000000000016,-15.05252823056399
-0.01770000000000005,-15.01008689156804
-0.01870000000000016,-15.094969569559943
-0.01970000000000005,-15.307176264539699
-0.020700000000000163,-15.448647394526201
-0.021700000000000053,-15.448647394526201
-0.022700000000000164,-15.349617603535648
-0.023700000000000054,-15.179852247551842
-0.024700000000000166,-15.179852247551842
-0.025700000000000056,-15.307176264539699
-0.026700000000000168,-15.533530072518102
-0.027700000000000058,-15.618412750510005
-0.02870000000000017,-15.533530072518102
-0.02970000000000006,-15.3920589425316
-0.03070000000000017,-15.264734925543747
-0.03170000000000006,-15.307176264539699
-0.03270000000000017,-15.491088733522153
-0.03370000000000006,-15.660854089505953
-0.034700000000000175,-15.70329542850191
-0.035700000000000065,-15.575971411514052
-0.03670000000000018,-15.3920589425316
-0.03770000000000007,-15.307176264539699
-0.03870000000000018,-15.448647394526201
-0.03970000000000007,-15.575971411514052
-0.04070000000000018,-15.70329542850191
-0.04170000000000007,-15.70329542850191
-0.04270000000000018,-15.533530072518102
-0.04370000000000007,-15.3920589425316
-0.044700000000000184,-15.349617603535648
-0.045700000000000074,-15.491088733522153
-0.046700000000000186,-15.70329542850191
-0.047700000000000076,-15.78817810649381
-0.04870000000000019,-15.70329542850191
-0.04970000000000008,-15.575971411514052
-0.05070000000000019,-15.448647394526201
-0.05170000000000008,-15.533530072518102
-0.05270000000000019,-15.660854089505953
-0.05370000000000008,-15.830619445489761
-0.05470000000000019,-15.91550212348166
-0.05570000000000008,-15.74573676749786
-0.056700000000000195,-15.618412750510005
-0.057700000000000085,-15.533530072518102
-0.058700000000000196,-15.618412750510005
-0.059700000000000086,-15.78817810649381
-0.0607000000000002,-15.87306078448571
-0.06170000000000009,-15.87306078448571
-0.0627000000000002,-15.74573676749786
-0.06370000000000009,-15.575971411514052
-0.0647000000000002,-15.575971411514052
-0.06570000000000009,-15.70329542850191
-0.0667000000000002,-15.830619445489761
-0.0677000000000001,-15.972090575476265
-0.0687000000000002,-15.91550212348166
-0.0697000000000001,-15.70329542850191
-0.07070000000000021,-15.618412750510005
-0.0717000000000001,-15.660854089505953
-0.07270000000000021,-15.78817810649381
-0.0737000000000001,-15.972090575476265
-0.07470000000000021,-15.972090575476265
-0.0757000000000001,-15.87306078448571
-0.07670000000000021,-15.70329542850191
-0.0777000000000001,-15.618412750510005
-0.07870000000000021,-15.78817810649381
-0.0797000000000001,-15.91550212348166
-0.08070000000000022,-16.099414592464115
-0.0817000000000001,-16.014531914472215
-0.08270000000000022,-15.91550212348166
-0.08370000000000011,-15.74573676749786
-0.08470000000000022,-15.70329542850191
-0.08570000000000011,-15.87306078448571
-0.08670000000000022,-16.056973253468165
-0.08770000000000011,-16.099414592464115
-0.08870000000000022,-16.056973253468165
-0.08970000000000011,-15.87306078448571
-0.09070000000000022,-15.78817810649381
-0.09170000000000011,-15.87306078448571
-0.09270000000000023,-16.056973253468165
-0.09370000000000012,-16.141855931460068
-0.09470000000000023,-16.269179948447924
-0.09570000000000012,-16.099414592464115
-0.09670000000000023,-15.972090575476265
-0.09770000000000012,-15.87306078448571
-0.09870000000000023,-15.972090575476265
-0.09970000000000012,-16.141855931460068
-0.10070000000000023,-16.269179948447924
-0.10170000000000012,-16.22673860945197
-0.10270000000000024,-16.099414592464115
-0.10370000000000013,-15.972090575476265
-0.10470000000000024,-15.972090575476265
-0.10570000000000013,-16.099414592464115
-0.10670000000000024,-16.311621287443874
-0.10770000000000013,-16.354062626439823
-0.10870000000000024,-16.269179948447924
-0.10970000000000013,-16.141855931460068
-0.11070000000000024,-16.056973253468165
-0.11170000000000013,-16.056973253468165
-0.11270000000000002,-16.22673860945197
-0.11370000000000013,-16.438945304431726
-0.11470000000000002,-16.438945304431726
-0.11570000000000014,-16.311621287443874
-0.11670000000000003,-16.141855931460068
-0.11770000000000014,-16.099414592464115
-0.11870000000000003,-16.184297270456018
-0.11970000000000014,-16.354062626439823
-0.12070000000000003,-16.495533756426326
-0.12170000000000014,-16.396503965435777
-0.12270000000000003,-16.269179948447924
-0.12370000000000014,-16.184297270456018
-0.12470000000000003,-16.184297270456018
-0.12570000000000014,-16.311621287443874
-0.12670000000000003,-16.53797509542228
-0.12770000000000015,-16.580416434418233
-0.12870000000000004,-16.53797509542228
-0.12970000000000015,-16.354062626439823
-0.13070000000000004,-16.311621287443874
-0.13170000000000015,-16.354062626439823
-0.13270000000000004,-16.495533756426326
-0.13370000000000015,-16.665299112410132
-0.13470000000000004,-16.70774045140608
-0.13570000000000015,-16.622857773414182
-0.13670000000000004,-16.495533756426326
-0.13770000000000016,-16.396503965435777
-0.13870000000000005,-16.53797509542228
-0.13970000000000016,-16.70774045140608
-0.14070000000000005,-16.835064468393938
-0.14170000000000016,-16.835064468393938
-0.14270000000000005,-16.665299112410132
-0.14370000000000016,-16.53797509542228
-0.14470000000000005,-16.580416434418233
-0.14570000000000016,-16.70774045140608
-0.14670000000000005,-16.877505807389888
-0.14770000000000016,-17.018976937376394
-0.14870000000000005,-16.919947146385837
-0.14970000000000017,-16.750181790402035
-0.15070000000000006,-16.70774045140608
-0.15170000000000017,-16.750181790402035
-0.15270000000000006,-16.919947146385837
-0.15370000000000017,-17.146300954364243
-0.15470000000000006,-17.146300954364243
-0.15570000000000017,-17.061418276372343
-0.15670000000000006,-16.877505807389888
-0.15770000000000017,-16.835064468393938
-0.15870000000000006,-17.018976937376394
-0.15970000000000018,-17.188742293360193
-0.16070000000000007,-17.316066310348052
-0.16170000000000018,-17.358507649344002
-0.16270000000000007,-17.188742293360193
-0.16370000000000018,-17.103859615368293
-0.16470000000000007,-17.146300954364243
-0.16570000000000018,-17.2736249713521
-0.16670000000000007,-17.48583166633185
-0.16770000000000018,-17.542420118326454
-0.16870000000000007,-17.542420118326454
-0.16970000000000018,-17.40094898833995
-0.17070000000000007,-17.316066310348052
-0.17170000000000019,-17.40094898833995
-0.17270000000000008,-17.584861457322408
-0.1737000000000002,-17.797068152302163
-0.17470000000000008,-17.881950830294063
-0.1757000000000002,-17.669744135314307
-0.17670000000000008,-17.627302796318357
-0.1777000000000002,-17.627302796318357
-0.17870000000000008,-17.71218547431026
-0.1797000000000002,-17.924392169290012
-0.18070000000000008,-18.10830463827247
-0.1817000000000002,-18.06586329927652
-0.18270000000000008,-17.966833508285966
-0.1837000000000002,-17.839509491298113
-0.1847000000000001,-17.881950830294063
-0.1857000000000002,-18.06586329927652
-0.1867000000000001,-18.23562865526032
-0.1877000000000002,-18.320511333252224
-0.1887000000000001,-18.320511333252224
-0.1897000000000002,-18.19318731626437
-0.1907000000000001,-18.15074597726842
-0.1917000000000001,-18.27806999425627
-0.19269999999999998,-18.44783535024008
-0.1937000000000001,-18.674189158218486
-0.19469999999999998,-18.759071836210385
-0.1957000000000001,-18.674189158218486
-0.19669999999999999,-18.589306480226583
-0.1977000000000001,-18.589306480226583
-0.1987,-18.759071836210385
-0.1997000000000001,-18.92883719219419
-0.2007,-19.155191000172596
-0.2017000000000001,-19.197632339168546
-0.2027,-19.056161209182044
-0.2037000000000001,-19.01371987018609
-0.2047,-19.056161209182044
-0.2057000000000001,-19.28251501716045
-0.2067,-19.49472171214021
-0.2077000000000001,-19.678634181122664
-0.2087,-19.721075520118614
-0.2097000000000001,-19.636192842126707
-0.2107,-19.636192842126707
-0.2117000000000001,-19.763516859114564
-0.2127,-19.97572355409432
-0.2137000000000001,-20.202077362072725
-0.2147,-20.329401379060574
-0.2157000000000001,-20.329401379060574
-0.2167,-20.244518701068674
-0.21770000000000012,-20.244518701068674
-0.2187,-20.456725396048434
-0.21970000000000012,-20.683079204026836
-0.2207,-20.85284456001064
-0.22170000000000012,-20.93772723800254
-0.2227,-20.89528589900659
-0.22370000000000012,-20.89528589900659
-0.2247,-20.93772723800254
-0.22570000000000012,-21.248963723972853
-0.2267,-21.461170418952605
-0.22770000000000012,-21.67337711393236
-0.22870000000000001,-21.67337711393236
-0.22970000000000013,-21.63093577493641
-0.23070000000000002,-21.67337711393236
-0.23170000000000013,-21.857289582914817
-0.23270000000000002,-22.111937616890522
-0.23370000000000013,-22.42317410286083
-0.23470000000000002,-22.592939458844636
-0.23570000000000013,-22.592939458844636
-0.23670000000000002,-22.592939458844636
-0.2376999999999999,-22.72026347583249
-0.23870000000000002,-22.989058622806844
-0.2396999999999999,-23.342736447773106
-0.24070000000000003,-23.597384481748815
-0.24169999999999991,-23.724708498736668
-0.24270000000000003,-23.724708498736668
-0.24369999999999992,-23.767149837732617
-0.24470000000000003,-23.951062306715073
-0.24569999999999992,-24.24815167968673
-0.24670000000000003,-24.64427084364894
-0.24769999999999992,-24.870624651627345
-0.24870000000000003,-24.997948668615198
-0.24969999999999992,-25.04039000761115
-0.25070000000000003,-25.04039000761115
-0.2516999999999999,-25.337479380582806
-0.25270000000000004,-25.691157205549064
-0.2536999999999999,-26.044835030515326
-0.25470000000000004,-26.257041725495082
-0.2556999999999999,-26.29948306449103
-0.25670000000000004,-26.38436574248293
-0.25769999999999993,-26.61071955046134
-0.25870000000000004,-26.86536758443705
-0.25969999999999993,-27.303928087395207
-0.26070000000000004,-27.65760591236147
-0.26169999999999993,-27.827371268345274
-0.26270000000000004,-27.954695285333123
-0.26369999999999993,-28.09616641531963
-0.26470000000000005,-28.350814449295335
-0.26569999999999994,-28.704492274261593
-0.26670000000000005,-29.22793545521166
-0.26769999999999994,-29.581613280177915
-0.26870000000000005,-29.751378636161718
-0.26969999999999994,-29.836261314153624
-0.27070000000000005,-30.04846800913338
-0.27169999999999994,-30.444587173095588
-0.27270000000000005,-30.88314767605375
-0.27369999999999994,-31.36414951800786
-0.27470000000000006,-31.661238890979522
-0.27569999999999995,-31.84515135996197
-0.27670000000000006,-32.05735805494172
-0.27769999999999995,-32.32615320191609
-0.27870000000000006,-32.807155043870196
-0.27969999999999995,-33.288156885824314
-0.28070000000000006,-33.81160006677438
-0.28169999999999995,-34.06624810075008
-0.28270000000000006,-34.278454795729836
-0.28369999999999995,-34.58969128170015
-0.28470000000000006,-34.90092776767045
-0.28569999999999995,-35.38192960962457
-0.28670000000000007,-35.99025546856653
-0.28769999999999996,-36.4288159715247
-0.28870000000000007,-36.768346683492304
-0.28969999999999996,-36.99470049147071
-0.29070000000000007,-37.376672542434264
-0.29169999999999996,-37.85767438438838
-0.29270000000000007,-38.46600024333035
-0.29369999999999996,-39.08847321527096
-0.2947000000000001,-39.56947505722508
-0.29569999999999996,-39.82412309120078
-0.2967000000000001,-40.177800916167044
-0.29769999999999996,-40.616361419125205
-0.2987000000000001,-41.22468727806717
-0.29969999999999997,-41.91789581500104
-0.3007000000000001,-42.526221673943
-0.30169999999999997,-42.96478217690117
-0.3027000000000001,-43.40334267985933
-0.30369999999999997,-43.75702050482558
-0.3047000000000001,-44.36534636376755
-0.30569999999999997,-45.05855490070142
-0.3067000000000001,-45.89323456762179
-0.3077,-46.544001765559706
-0.3087000000000001,-46.982562268517874
-0.3097,-47.40697565847737
-0.3107000000000001,-47.93041883942744
-0.3117,-48.63777448935996
-0.3127000000000001,-49.41586570428573
-0.3137,-50.29298671020206
-0.3147000000000001,-50.943753908139975
-0.3157,-51.509638428085985
-0.3167000000000001,-52.033081609036046
-0.3177,-52.64140746797801
-0.3187000000000001,-53.433645795902436
-0.3197,-54.2117370108282
-0.3207000000000001,-55.046416677748574
-0.3217,-55.73962521468245
-0.3227000000000001,-56.30550973462846
-0.3237,-56.97042404556503
-0.3247000000000001,-57.7485152604908
-0.3257,-58.71051894439902
-0.3267000000000001,-59.67252262830725
-0.3277,-60.45061384323302
-0.3287000000000001,-61.242852171157445
-0.3297,-61.936060708091304
-0.3307000000000001,-62.64341635802381
-0.3317,-63.59127292893339
-0.3327000000000001,-64.55327661284163
-0.3337,-65.51528029674984
-0.3347000000000001,-66.47728398065809
-0.3357,-67.25537519558385
-0.3367000000000001,-68.0051721845123
-0.3377,-68.86814607742998
-0.3387000000000001,-69.87259110033416
-0.3397,-71.06094859222078
-0.3407000000000001,-72.10783495412092
-0.3417,-73.01325018603454
-0.3427000000000001,-73.8479298529549
-0.3437,-74.66846240687663
-0.3447000000000001,-75.63046609078486
-0.3457,-76.71979379168094
-0.3467000000000001,-77.99303396155948
-0.3477,-79.08236166245555
-0.3487000000000001,-80.00192400736783
-0.3497,-80.9497805782774
-0.3507000000000001,-81.91178426218562
-0.3517,-83.0011119630817
-0.3527000000000001,-84.18946945496833
-0.3537,-85.40612117285227
-0.3547000000000001,-86.49544887374834
-0.3557,-87.62721791364037
-0.35670000000000013,-88.54678025855264
-0.3577,-89.67854929844468
-0.35870000000000013,-90.99423080731917
-0.3597,-92.33820654219093
-0.36070000000000013,-93.55485826007487
-0.3617,-94.7432157519615
-0.3626999999999999,-95.79010211386164
-0.3637,-96.92187115375367
-0.3646999999999999,-98.09608153264163
-0.3657,-99.49664571950804
-0.3666999999999999,-100.98209258436633
-0.3677,-102.28362698024215
-0.3686999999999999,-103.45783735913014
-0.36970000000000003,-104.5471650600262
-0.3706999999999999,-105.73552255191284
-0.37170000000000003,-106.99461560879273
-0.3726999999999999,-108.39517979565912
-0.37370000000000003,-109.8240382085228
-0.3746999999999999,-111.22460239538917
-0.37570000000000003,-112.44125411327312
-0.3766999999999999,-113.67205294415571
-0.37770000000000004,-115.10091135701937
-0.3786999999999999,-116.67124089986959
-0.37970000000000004,-118.3406002337103
-0.3806999999999999,-119.99581245455242
-0.38170000000000004,-121.43881798041474
-0.38269999999999993,-122.78279371528653
-0.38370000000000004,-124.14091656315696
-0.38469999999999993,-125.6688047670112
-0.38570000000000004,-127.36645832684925
-0.38669999999999993,-125.92345280098691
-0.38570000000000004,-120.12313647154028
-0.38469999999999993,-115.80826700695191
-0.38370000000000004,-112.22904741829338
-0.38269999999999993,-109.25815368857677
-0.38170000000000004,-106.73996757481702
-0.3806999999999999,-104.5471650600262
-0.37970000000000004,-102.45339233622596
-0.3786999999999999,-100.35961961242569
-0.37770000000000004,-98.2234055496295
-0.3766999999999999,-96.0871914868333
-0.37570000000000003,-94.17733123201549
-0.3746999999999999,-92.42308922018285
-0.37370000000000003,-90.76787699934074
-0.3726999999999999,-89.15510611749461
-0.37170000000000003,-87.41501121866061
-0.3706999999999999,-85.57588652883607
-0.36970000000000003,-83.79335029100612
-0.3686999999999999,-82.09569673116808
-0.3677,-80.56780852731384
-0.3666999999999999,-79.16724434044745
-0.3657,-77.63935613659322
-0.3646999999999999,-76.02658525474708
-0.3637,-74.37137303390499
-0.3626999999999999,-72.80104349105478
-0.3617,-71.4004793041884
-0.36070000000000013,-70.14138624730852
-0.3597,-68.82570473843404
-0.35870000000000013,-67.43928766456631
-0.3577,-65.95384079970802
-0.35670000000000013,-64.29862857886593
-0.3557,-62.81318171400764
-0.3547000000000001,-61.5965299961237
-0.3537,-60.36573116524111
-0.3527000000000001,-59.10663810836124
-0.3517,-57.7485152604908
-0.3507000000000001,-56.26306839563251
-0.3497,-54.834209982768826
-0.3487000000000001,-53.56096981289029
-0.3477,-52.386759434002315
-0.3467000000000001,-51.33987307210218
-0.3457,-50.1656626932142
-0.3447000000000001,-48.84998118433972
-0.3437,-47.506005449467935
-0.3427000000000001,-46.2327652795894
-0.3417,-45.143437578693316
-0.3407000000000001,-44.138992555789144
-0.3397,-43.17698887188092
-0.3387000000000001,-42.087661170984845
-0.3377,-40.91345079209687
-0.3367000000000001,-39.61191639622103
-0.3357,-38.5650300343209
-0.3347000000000001,-37.645467689408626
-0.3337,-36.8532293614842
-0.3327000000000001,-35.94781412957058
-0.3317,-34.8018979766799
-0.3307000000000001,-33.627687597791926
-0.3297,-32.53835989689585
-0.3287000000000001,-31.57635621298762
-0.3277,-30.79826499806185
-0.3267000000000001,-30.00602667013743
-0.3257,-29.22793545521166
-0.3247000000000001,-28.265931771303435
-0.3237,-27.176604070407354
-0.3227000000000001,-26.21460038649913
-0.3217,-25.478950510569312
-0.3207000000000001,-24.771594860636792
-0.3197,-24.078386323702922
-0.3187000000000001,-23.300295108777156
-0.3177,-22.33829142486893
-0.3167000000000001,-21.376287740960702
-0.3157,-20.541608074040333
-0.3147000000000001,-19.93328221509837
-0.3137,-19.28251501716045
-0.3127000000000001,-18.631747819222536
-0.3117,-17.881950830294063
-0.3107000000000001,-16.919947146385837
-0.3097,-16.184297270456018
-0.3087000000000001,-15.448647394526201
-0.3077,-14.868615761581536
-0.3067000000000001,-14.401761032626075
-0.30569999999999997,-13.784946905884919
-0.3047000000000001,-12.99978213445982
-0.30369999999999997,-12.214617363034726
-0.3027000000000001,-11.473308641905447
-0.30169999999999997,-10.906009410659568
-0.3007000000000001,-10.470278330301136
-0.29969999999999997,-10.034547249942705
-0.2987000000000001,-9.423391968401008
-0.29769999999999996,-8.638227196975913
-0.2967000000000001,-7.896918475846635
-0.29569999999999996,-7.37347529489657
-0.2947000000000001,-6.850032113946507
-0.29369999999999996,-6.500598422879844
-0.29270000000000007,-6.064867342521412
-0.29169999999999996,-5.497568111275533
-0.29070000000000007,-4.843971490737885
-0.28969999999999996,-4.1889601589003735
-0.28870000000000007,-3.7532290785419424
-0.28769999999999996,-3.403795387475278
-0.28670000000000007,-3.055776407708479
-0.28569999999999995,-2.662486666345999
-0.28470000000000006,-2.052746096104168
-0.28369999999999995,-1.4415908145624723
-0.28270000000000006,-0.9181476336124089
-0.28169999999999995,-0.5255652478998613
-0.28070000000000006,-0.2202705493889862
-0.27969999999999995,-0.002205534916489592
-0.27870000000000006,0.4776065348344364
-0.27769999999999995,1.0446228238203432
-0.27670000000000006,1.5675001202504606
-0.27569999999999995,1.9607898616129409
-0.27470000000000006,2.2225114520879723
-0.27369999999999994,2.4403769922671885
-0.27270000000000005,2.70209858274222
-0.27169999999999994,3.1378296631006513
-0.27070000000000005,3.661272844050715
-0.26969999999999994,4.140859974704963
-0.26870000000000005,4.44643761547581
-0.26769999999999994,4.664303155655026
