Sept. 23, 2024   05:16:54
Cyclic Voltammetry
File: c:/users/guazh/data/20240922_batch_417_500/2024-09-22-exp423\exp423-2024-09-23t05_07_22-h2koh\exp423_cv_50mvs_efin_-1600mv.bin
Data Source:  Experiment
Instrument Model:  CHI760E
Header: CV ran at 50 mVs
Note: 

Init E (V) = -1
High E (V) = -1
Low E (V) = -1.6
Final E (V) = -1
Init P/N = N
Scan Rate (V/s) = 0.05
Segment = 7
Sample Interval (V) = 0.001
Quiet Time (sec) = 60
Sensitivity (A/V) = 0.001
Comp R (ohm) = 3.4

Results:

Channel 1:
Segment 1:

Segment 2:

Segment 3:
Ep = -1.515V
ip = 1.346e-5A
Ah = 9.448e-6C

Segment 4:

Segment 5:

Segment 6:

Segment 7:

Potential/V, Current/A

-1.000, 7.200e-7
-1.001, 6.934e-7
-1.002, 7.338e-7
-1.003, 7.605e-7
-1.004, 7.940e-7
-1.005, 8.384e-7
-1.006, 8.424e-7
-1.007, 8.128e-7
-1.008, 9.075e-7
-1.009, 8.335e-7
-1.010, 8.769e-7
-1.011, 9.094e-7
-1.012, 8.562e-7
-1.013, 9.815e-7
-1.014, 9.588e-7
-1.015, 9.598e-7
-1.016, 9.558e-7
-1.017, 1.007e-6
-1.018, 1.005e-6
-1.019, 9.598e-7
-1.020, 1.008e-6
-1.021, 9.844e-7
-1.022, 1.062e-6
-1.023, 1.098e-6
-1.024, 1.061e-6
-1.025, 1.091e-6
-1.026, 1.024e-6
-1.027, 1.074e-6
-1.028, 1.088e-6
-1.029, 1.071e-6
-1.030, 1.096e-6
-1.031, 1.142e-6
-1.032, 1.156e-6
-1.033, 1.198e-6
-1.034, 1.159e-6
-1.035, 1.185e-6
-1.036, 1.155e-6
-1.037, 1.200e-6
-1.038, 1.230e-6
-1.039, 1.246e-6
-1.040, 1.244e-6
-1.041, 1.239e-6
-1.042, 1.245e-6
-1.043, 1.285e-6
-1.044, 1.326e-6
-1.045, 1.262e-6
-1.046, 1.275e-6
-1.047, 1.181e-6
-1.048, 1.325e-6
-1.049, 1.250e-6
-1.050, 1.348e-6
-1.051, 1.277e-6
-1.052, 1.371e-6
-1.053, 1.414e-6
-1.054, 1.338e-6
-1.055, 1.380e-6
-1.056, 1.373e-6
-1.057, 1.351e-6
-1.058, 1.439e-6
-1.059, 1.456e-6
-1.060, 1.427e-6
-1.061, 1.402e-6
-1.062, 1.355e-6
-1.063, 1.446e-6
-1.064, 1.447e-6
-1.065, 1.455e-6
-1.066, 1.470e-6
-1.067, 1.478e-6
-1.068, 1.515e-6
-1.069, 1.559e-6
-1.070, 1.476e-6
-1.071, 1.536e-6
-1.072, 1.516e-6
-1.073, 1.600e-6
-1.074, 1.578e-6
-1.075, 1.540e-6
-1.076, 1.589e-6
-1.077, 1.572e-6
-1.078, 1.634e-6
-1.079, 1.614e-6
-1.080, 1.651e-6
-1.081, 1.587e-6
-1.082, 1.598e-6
-1.083, 1.617e-6
-1.084, 1.639e-6
-1.085, 1.705e-6
-1.086, 1.681e-6
-1.087, 1.672e-6
-1.088, 1.697e-6
-1.089, 1.668e-6
-1.090, 1.682e-6
-1.091, 1.705e-6
-1.092, 1.713e-6
-1.093, 1.698e-6
-1.094, 1.739e-6
-1.095, 1.649e-6
-1.096, 1.795e-6
-1.097, 1.744e-6
-1.098, 1.812e-6
-1.099, 1.770e-6
-1.100, 1.716e-6
-1.101, 1.849e-6
-1.102, 1.810e-6
-1.103, 1.843e-6
-1.104, 1.802e-6
-1.105, 1.840e-6
-1.106, 1.899e-6
-1.107, 1.844e-6
-1.108, 1.842e-6
-1.109, 1.928e-6
-1.110, 1.862e-6
-1.111, 1.921e-6
-1.112, 1.898e-6
-1.113, 1.868e-6
-1.114, 1.984e-6
-1.115, 1.908e-6
-1.116, 1.981e-6
-1.117, 1.930e-6
-1.118, 1.977e-6
-1.119, 2.008e-6
-1.120, 1.991e-6
-1.121, 2.062e-6
-1.122, 2.017e-6
-1.123, 2.076e-6
-1.124, 1.986e-6
-1.125, 1.997e-6
-1.126, 2.063e-6
-1.127, 2.082e-6
-1.128, 2.069e-6
-1.129, 2.111e-6
-1.130, 2.068e-6
-1.131, 2.139e-6
-1.132, 2.103e-6
-1.133, 2.084e-6
-1.134, 2.175e-6
-1.135, 2.076e-6
-1.136, 2.140e-6
-1.137, 2.184e-6
-1.138, 2.145e-6
-1.139, 2.195e-6
-1.140, 2.172e-6
-1.141, 2.192e-6
-1.142, 2.128e-6
-1.143, 2.183e-6
-1.144, 2.273e-6
-1.145, 2.234e-6
-1.146, 2.253e-6
-1.147, 2.252e-6
-1.148, 2.185e-6
-1.149, 2.296e-6
-1.150, 2.231e-6
-1.151, 2.274e-6
-1.152, 2.377e-6
-1.153, 2.359e-6
-1.154, 2.432e-6
-1.155, 2.314e-6
-1.156, 2.321e-6
-1.157, 2.316e-6
-1.158, 2.353e-6
-1.159, 2.430e-6
-1.160, 2.402e-6
-1.161, 2.385e-6
-1.162, 2.388e-6
-1.163, 2.365e-6
-1.164, 2.471e-6
-1.165, 2.426e-6
-1.166, 2.474e-6
-1.167, 2.513e-6
-1.168, 2.467e-6
-1.169, 2.561e-6
-1.170, 2.557e-6
-1.171, 2.514e-6
-1.172, 2.580e-6
-1.173, 2.564e-6
-1.174, 2.561e-6
-1.175, 2.582e-6
-1.176, 2.620e-6
-1.177, 2.648e-6
-1.178, 2.592e-6
-1.179, 2.601e-6
-1.180, 2.656e-6
-1.181, 2.609e-6
-1.182, 2.570e-6
-1.183, 2.646e-6
-1.184, 2.605e-6
-1.185, 2.635e-6
-1.186, 2.677e-6
-1.187, 2.671e-6
-1.188, 2.686e-6
-1.189, 2.774e-6
-1.190, 2.771e-6
-1.191, 2.787e-6
-1.192, 2.740e-6
-1.193, 2.694e-6
-1.194, 2.833e-6
-1.195, 2.757e-6
-1.196, 2.785e-6
-1.197, 2.802e-6
-1.198, 2.773e-6
-1.199, 2.801e-6
-1.200, 2.811e-6
-1.201, 2.872e-6
-1.202, 2.831e-6
-1.203, 2.890e-6
-1.204, 2.939e-6
-1.205, 2.921e-6
-1.206, 2.955e-6
-1.207, 2.893e-6
-1.208, 2.912e-6
-1.209, 2.903e-6
-1.210, 2.944e-6
-1.211, 3.002e-6
-1.212, 2.962e-6
-1.213, 2.935e-6
-1.214, 3.140e-6
-1.215, 2.985e-6
-1.216, 2.981e-6
-1.217, 3.092e-6
-1.218, 3.037e-6
-1.219, 3.085e-6
-1.220, 3.054e-6
-1.221, 3.093e-6
-1.222, 3.013e-6
-1.223, 3.097e-6
-1.224, 3.147e-6
-1.225, 3.096e-6
-1.226, 3.150e-6
-1.227, 3.147e-6
-1.228, 3.154e-6
-1.229, 3.166e-6
-1.230, 3.164e-6
-1.231, 3.166e-6
-1.232, 3.246e-6
-1.233, 3.157e-6
-1.234, 3.217e-6
-1.235, 3.210e-6
-1.236, 3.221e-6
-1.237, 3.370e-6
-1.238, 3.219e-6
-1.239, 3.361e-6
-1.240, 3.284e-6
-1.241, 3.336e-6
-1.242, 3.390e-6
-1.243, 3.355e-6
-1.244, 3.312e-6
-1.245, 3.315e-6
-1.246, 3.438e-6
-1.247, 3.396e-6
-1.248, 3.397e-6
-1.249, 3.384e-6
-1.250, 3.391e-6
-1.251, 3.404e-6
-1.252, 3.481e-6
-1.253, 3.463e-6
-1.254, 3.496e-6
-1.255, 3.509e-6
-1.256, 3.479e-6
-1.257, 3.569e-6
-1.258, 3.449e-6
-1.259, 3.530e-6
-1.260, 3.594e-6
-1.261, 3.544e-6
-1.262, 3.658e-6
-1.263, 3.581e-6
-1.264, 3.590e-6
-1.265, 3.611e-6
-1.266, 3.629e-6
-1.267, 3.657e-6
-1.268, 3.740e-6
-1.269, 3.592e-6
-1.270, 3.772e-6
-1.271, 3.695e-6
-1.272, 3.700e-6
-1.273, 3.698e-6
-1.274, 3.746e-6
-1.275, 3.742e-6
-1.276, 3.731e-6
-1.277, 3.820e-6
-1.278, 3.855e-6
-1.279, 3.790e-6
-1.280, 3.840e-6
-1.281, 3.815e-6
-1.282, 3.863e-6
-1.283, 3.895e-6
-1.284, 3.875e-6
-1.285, 3.931e-6
-1.286, 3.881e-6
-1.287, 3.943e-6
-1.288, 3.918e-6
-1.289, 4.011e-6
-1.290, 3.973e-6
-1.291, 3.938e-6
-1.292, 4.071e-6
-1.293, 4.005e-6
-1.294, 4.119e-6
-1.295, 4.072e-6
-1.296, 4.031e-6
-1.297, 4.075e-6
-1.298, 4.113e-6
-1.299, 4.190e-6
-1.300, 4.188e-6
-1.301, 4.137e-6
-1.302, 4.219e-6
-1.303, 4.243e-6
-1.304, 4.270e-6
-1.305, 4.327e-6
-1.306, 4.272e-6
-1.307, 4.310e-6
-1.308, 4.268e-6
-1.309, 4.342e-6
-1.310, 4.331e-6
-1.311, 4.361e-6
-1.312, 4.469e-6
-1.313, 4.319e-6
-1.314, 4.428e-6
-1.315, 4.420e-6
-1.316, 4.463e-6
-1.317, 4.470e-6
-1.318, 4.568e-6
-1.319, 4.541e-6
-1.320, 4.587e-6
-1.321, 4.520e-6
-1.322, 4.594e-6
-1.323, 4.596e-6
-1.324, 4.724e-6
-1.325, 4.671e-6
-1.326, 4.711e-6
-1.327, 4.757e-6
-1.328, 4.717e-6
-1.329, 4.846e-6
-1.330, 4.742e-6
-1.331, 4.859e-6
-1.332, 4.792e-6
-1.333, 4.870e-6
-1.334, 4.921e-6
-1.335, 4.904e-6
-1.336, 4.962e-6
-1.337, 4.953e-6
-1.338, 5.054e-6
-1.339, 5.157e-6
-1.340, 5.043e-6
-1.341, 5.126e-6
-1.342, 5.053e-6
-1.343, 5.204e-6
-1.344, 5.152e-6
-1.345, 5.196e-6
-1.346, 5.218e-6
-1.347, 5.247e-6
-1.348, 5.262e-6
-1.349, 5.355e-6
-1.350, 5.404e-6
-1.351, 5.415e-6
-1.352, 5.490e-6
-1.353, 5.482e-6
-1.354, 5.614e-6
-1.355, 5.669e-6
-1.356, 5.630e-6
-1.357, 5.675e-6
-1.358, 5.690e-6
-1.359, 5.809e-6
-1.360, 5.753e-6
-1.361, 5.825e-6
-1.362, 5.847e-6
-1.363, 5.939e-6
-1.364, 5.958e-6
-1.365, 6.018e-6
-1.366, 6.055e-6
-1.367, 6.091e-6
-1.368, 6.081e-6
-1.369, 6.207e-6
-1.370, 6.233e-6
-1.371, 6.254e-6
-1.372, 6.280e-6
-1.373, 6.298e-6
-1.374, 6.435e-6
-1.375, 6.426e-6
-1.376, 6.529e-6
-1.377, 6.555e-6
-1.378, 6.549e-6
-1.379, 6.642e-6
-1.380, 6.734e-6
-1.381, 6.803e-6
-1.382, 6.802e-6
-1.383, 6.908e-6
-1.384, 7.000e-6
-1.385, 6.966e-6
-1.386, 7.167e-6
-1.387, 7.169e-6
-1.388, 7.195e-6
-1.389, 7.308e-6
-1.390, 7.304e-6
-1.391, 7.518e-6
-1.392, 7.540e-6
-1.393, 7.578e-6
-1.394, 7.701e-6
-1.395, 7.738e-6
-1.396, 7.829e-6
-1.397, 7.881e-6
-1.398, 7.934e-6
-1.399, 8.071e-6
-1.400, 8.107e-6
-1.401, 8.154e-6
-1.402, 8.209e-6
-1.403, 8.306e-6
-1.404, 8.359e-6
-1.405, 8.465e-6
-1.406, 8.616e-6
-1.407, 8.615e-6
-1.408, 8.702e-6
-1.409, 8.909e-6
-1.410, 8.934e-6
-1.411, 9.135e-6
-1.412, 9.131e-6
-1.413, 9.211e-6
-1.414, 9.315e-6
-1.415, 9.455e-6
-1.416, 9.594e-6
-1.417, 9.630e-6
-1.418, 9.788e-6
-1.419, 9.878e-6
-1.420, 1.005e-5
-1.421, 1.011e-5
-1.422, 1.029e-5
-1.423, 1.041e-5
-1.424, 1.063e-5
-1.425, 1.073e-5
-1.426, 1.087e-5
-1.427, 1.109e-5
-1.428, 1.113e-5
-1.429, 1.134e-5
-1.430, 1.159e-5
-1.431, 1.172e-5
-1.432, 1.186e-5
-1.433, 1.194e-5
-1.434, 1.219e-5
-1.435, 1.237e-5
-1.436, 1.261e-5
-1.437, 1.274e-5
-1.438, 1.296e-5
-1.439, 1.326e-5
-1.440, 1.333e-5
-1.441, 1.357e-5
-1.442, 1.387e-5
-1.443, 1.396e-5
-1.444, 1.427e-5
-1.445, 1.450e-5
-1.446, 1.475e-5
-1.447, 1.495e-5
-1.448, 1.518e-5
-1.449, 1.550e-5
-1.450, 1.582e-5
-1.451, 1.616e-5
-1.452, 1.644e-5
-1.453, 1.664e-5
-1.454, 1.703e-5
-1.455, 1.734e-5
-1.456, 1.770e-5
-1.457, 1.802e-5
-1.458, 1.842e-5
-1.459, 1.888e-5
-1.460, 1.929e-5
-1.461, 1.976e-5
-1.462, 2.018e-5
-1.463, 2.054e-5
-1.464, 2.100e-5
-1.465, 2.148e-5
-1.466, 2.203e-5
-1.467, 2.261e-5
-1.468, 2.306e-5
-1.469, 2.359e-5
-1.470, 2.429e-5
-1.471, 2.480e-5
-1.472, 2.545e-5
-1.473, 2.613e-5
-1.474, 2.666e-5
-1.475, 2.734e-5
-1.476, 2.794e-5
-1.477, 2.873e-5
-1.478, 2.956e-5
-1.479, 3.020e-5
-1.480, 3.116e-5
-1.481, 3.208e-5
-1.482, 3.286e-5
-1.483, 3.360e-5
-1.484, 3.448e-5
-1.485, 3.546e-5
-1.486, 3.633e-5
-1.487, 3.738e-5
-1.488, 3.853e-5
-1.489, 3.947e-5
-1.490, 4.063e-5
-1.491, 4.163e-5
-1.492, 4.256e-5
-1.493, 4.371e-5
-1.494, 4.492e-5
-1.495, 4.627e-5
-1.496, 4.760e-5
-1.497, 4.900e-5
-1.498, 5.041e-5
-1.499, 5.165e-5
-1.500, 5.315e-5
-1.501, 5.434e-5
-1.502, 5.558e-5
-1.503, 5.710e-5
-1.504, 5.864e-5
-1.505, 6.048e-5
-1.506, 6.230e-5
-1.507, 6.421e-5
-1.508, 6.588e-5
-1.509, 6.768e-5
-1.510, 6.955e-5
-1.511, 7.169e-5
-1.512, 7.358e-5
-1.513, 7.557e-5
-1.514, 7.772e-5
-1.515, 8.015e-5
-1.516, 8.243e-5
-1.517, 8.453e-5
-1.518, 8.687e-5
-1.519, 8.945e-5
-1.520, 9.214e-5
-1.521, 9.465e-5
-1.522, 9.731e-5
-1.523, 1.000e-4
-1.524, 1.032e-4
-1.525, 1.066e-4
-1.526, 1.098e-4
-1.527, 1.130e-4
-1.528, 1.163e-4
-1.529, 1.197e-4
-1.530, 1.233e-4
-1.531, 1.271e-4
-1.532, 1.308e-4
-1.533, 1.344e-4
-1.534, 1.381e-4
-1.535, 1.426e-4
-1.536, 1.475e-4
-1.537, 1.522e-4
-1.538, 1.574e-4
-1.539, 1.623e-4
-1.540, 1.679e-4
-1.541, 1.733e-4
-1.542, 1.783e-4
-1.543, 1.834e-4
-1.544, 1.888e-4
-1.545, 1.947e-4
-1.546, 2.007e-4
-1.547, 2.064e-4
-1.548, 2.124e-4
-1.549, 2.199e-4
-1.550, 2.275e-4
-1.551, 2.347e-4
-1.552, 2.420e-4
-1.553, 2.492e-4
-1.554, 2.560e-4
-1.555, 2.631e-4
-1.556, 2.706e-4
-1.557, 2.792e-4
-1.558, 2.874e-4
-1.559, 2.955e-4
-1.560, 3.039e-4
-1.561, 3.126e-4
-1.562, 3.220e-4
-1.563, 3.306e-4
-1.564, 3.397e-4
-1.565, 3.513e-4
-1.566, 3.673e-4
-1.567, 3.790e-4
-1.568, 3.864e-4
-1.569, 3.949e-4
-1.570, 4.055e-4
-1.571, 4.171e-4
-1.572, 4.281e-4
-1.573, 4.391e-4
-1.574, 4.515e-4
-1.575, 4.644e-4
-1.576, 4.766e-4
-1.577, 4.894e-4
-1.578, 5.043e-4
-1.579, 5.207e-4
-1.580, 5.356e-4
-1.581, 5.490e-4
-1.582, 5.644e-4
-1.583, 5.821e-4
-1.584, 6.007e-4
-1.585, 6.188e-4
-1.586, 6.359e-4
-1.587, 6.525e-4
-1.588, 6.691e-4
-1.589, 6.854e-4
-1.590, 7.032e-4
-1.591, 7.231e-4
-1.592, 7.448e-4
-1.593, 7.632e-4
-1.594, 7.800e-4
-1.595, 8.023e-4
-1.596, 8.259e-4
-1.597, 8.420e-4
-1.598, 8.538e-4
-1.599, 8.645e-4
-1.600, 8.726e-4
-1.599, 8.762e-4
-1.598, 8.791e-4
-1.597, 8.815e-4
-1.596, 8.820e-4
-1.595, 8.906e-4
-1.594, 8.985e-4
-1.593, 8.952e-4
-1.592, 8.882e-4
-1.591, 8.841e-4
-1.590, 8.815e-4
-1.589, 8.775e-4
-1.588, 8.723e-4
-1.587, 8.690e-4
-1.586, 8.683e-4
-1.585, 8.621e-4
-1.584, 8.527e-4
-1.583, 8.435e-4
-1.582, 8.341e-4
-1.581, 8.234e-4
-1.580, 8.117e-4
-1.579, 8.032e-4
-1.578, 7.969e-4
-1.577, 7.875e-4
-1.576, 7.775e-4
-1.575, 7.616e-4
-1.574, 7.435e-4
-1.573, 7.270e-4
-1.572, 7.116e-4
-1.571, 6.981e-4
-1.570, 6.872e-4
-1.569, 6.835e-4
-1.568, 6.847e-4
-1.567, 6.763e-4
-1.566, 6.576e-4
-1.565, 6.361e-4
-1.564, 6.207e-4
-1.563, 6.098e-4
-1.562, 5.992e-4
-1.561, 5.865e-4
-1.560, 5.760e-4
-1.559, 5.685e-4
-1.558, 5.630e-4
-1.557, 5.528e-4
-1.556, 5.387e-4
-1.555, 5.243e-4
-1.554, 5.121e-4
-1.553, 5.015e-4
-1.552, 4.926e-4
-1.551, 4.854e-4
-1.550, 4.785e-4
-1.549, 4.745e-4
-1.548, 4.664e-4
-1.547, 4.543e-4
-1.546, 4.444e-4
-1.545, 4.369e-4
-1.544, 4.291e-4
-1.543, 4.208e-4
-1.542, 4.127e-4
-1.541, 4.052e-4
-1.540, 3.990e-4
-1.539, 3.931e-4
-1.538, 3.879e-4
-1.537, 3.835e-4
-1.536, 3.789e-4
-1.535, 3.735e-4
-1.534, 3.694e-4
-1.533, 3.679e-4
-1.532, 3.658e-4
-1.531, 3.587e-4
-1.530, 3.501e-4
-1.529, 3.430e-4
-1.528, 3.356e-4
-1.527, 3.299e-4
-1.526, 3.249e-4
-1.525, 3.230e-4
-1.524, 3.250e-4
-1.523, 3.239e-4
-1.522, 3.151e-4
-1.521, 3.056e-4
-1.520, 2.974e-4
-1.519, 2.908e-4
-1.518, 2.843e-4
-1.517, 2.777e-4
-1.516, 2.722e-4
-1.515, 2.681e-4
-1.514, 2.645e-4
-1.513, 2.596e-4
-1.512, 2.537e-4
-1.511, 2.485e-4
-1.510, 2.439e-4
-1.509, 2.391e-4
-1.508, 2.353e-4
-1.507, 2.340e-4
-1.506, 2.331e-4
-1.505, 2.295e-4
-1.504, 2.241e-4
-1.503, 2.190e-4
-1.502, 2.170e-4
-1.501, 2.163e-4
-1.500, 2.161e-4
-1.499, 2.171e-4
-1.498, 2.161e-4
-1.497, 2.127e-4
-1.496, 2.065e-4
-1.495, 2.020e-4
-1.494, 1.987e-4
-1.493, 1.944e-4
-1.492, 1.910e-4
-1.491, 1.884e-4
-1.490, 1.852e-4
-1.489, 1.832e-4
-1.488, 1.834e-4
-1.487, 1.809e-4
-1.486, 1.758e-4
-1.485, 1.712e-4
-1.484, 1.676e-4
-1.483, 1.661e-4
-1.482, 1.650e-4
-1.481, 1.622e-4
-1.480, 1.593e-4
-1.479, 1.568e-4
-1.478, 1.544e-4
-1.477, 1.523e-4
-1.476, 1.492e-4
-1.475, 1.471e-4
-1.474, 1.444e-4
-1.473, 1.425e-4
-1.472, 1.418e-4
-1.471, 1.406e-4
-1.470, 1.389e-4
-1.469, 1.383e-4
-1.468, 1.413e-4
-1.467, 1.419e-4
-1.466, 1.396e-4
-1.465, 1.350e-4
-1.464, 1.299e-4
-1.463, 1.259e-4
-1.462, 1.233e-4
-1.461, 1.216e-4
-1.460, 1.199e-4
-1.459, 1.186e-4
-1.458, 1.174e-4
-1.457, 1.158e-4
-1.456, 1.132e-4
-1.455, 1.110e-4
-1.454, 1.088e-4
-1.453, 1.066e-4
-1.452, 1.046e-4
-1.451, 1.030e-4
-1.450, 1.016e-4
-1.449, 1.000e-4
-1.448, 9.828e-5
-1.447, 9.694e-5
-1.446, 9.600e-5
-1.445, 9.573e-5
-1.444, 9.566e-5
-1.443, 9.460e-5
-1.442, 9.298e-5
-1.441, 9.101e-5
-1.440, 8.904e-5
-1.439, 8.733e-5
-1.438, 8.550e-5
-1.437, 8.393e-5
-1.436, 8.235e-5
-1.435, 8.080e-5
-1.434, 7.963e-5
-1.433, 7.937e-5
-1.432, 7.834e-5
-1.431, 7.631e-5
-1.430, 7.468e-5
-1.429, 7.438e-5
-1.428, 7.453e-5
-1.427, 7.549e-5
-1.426, 7.531e-5
-1.425, 7.437e-5
-1.424, 7.342e-5
-1.423, 7.247e-5
-1.422, 7.167e-5
-1.421, 7.155e-5
-1.420, 7.245e-5
-1.419, 7.369e-5
-1.418, 7.400e-5
-1.417, 7.373e-5
-1.416, 7.350e-5
-1.415, 7.402e-5
-1.414, 7.395e-5
-1.413, 7.295e-5
-1.412, 7.232e-5
-1.411, 7.285e-5
-1.410, 7.497e-5
-1.409, 7.537e-5
-1.408, 7.299e-5
-1.407, 7.005e-5
-1.406, 6.773e-5
-1.405, 6.636e-5
-1.404, 6.592e-5
-1.403, 6.527e-5
-1.402, 6.445e-5
-1.401, 6.366e-5
-1.400, 6.262e-5
-1.399, 6.178e-5
-1.398, 6.100e-5
-1.397, 6.138e-5
-1.396, 6.174e-5
-1.395, 6.086e-5
-1.394, 5.880e-5
-1.393, 5.664e-5
-1.392, 5.501e-5
-1.391, 5.369e-5
-1.390, 5.241e-5
-1.389, 5.115e-5
-1.388, 5.028e-5
-1.387, 4.978e-5
-1.386, 4.914e-5
-1.385, 4.832e-5
-1.384, 4.782e-5
-1.383, 4.789e-5
-1.382, 4.746e-5
-1.381, 4.682e-5
-1.380, 4.601e-5
-1.379, 4.525e-5
-1.378, 4.471e-5
-1.377, 4.410e-5
-1.376, 4.339e-5
-1.375, 4.253e-5
-1.374, 4.196e-5
-1.373, 4.150e-5
-1.372, 4.105e-5
-1.371, 4.029e-5
-1.370, 3.979e-5
-1.369, 3.921e-5
-1.368, 3.877e-5
-1.367, 3.862e-5
-1.366, 3.917e-5
-1.365, 3.956e-5
-1.364, 3.950e-5
-1.363, 3.921e-5
-1.362, 3.909e-5
-1.361, 3.899e-5
-1.360, 3.856e-5
-1.359, 3.787e-5
-1.358, 3.731e-5
-1.357, 3.706e-5
-1.356, 3.725e-5
-1.355, 3.749e-5
-1.354, 3.747e-5
-1.353, 3.740e-5
-1.352, 3.737e-5
-1.351, 3.736e-5
-1.350, 3.705e-5
-1.349, 3.670e-5
-1.348, 3.625e-5
-1.347, 3.627e-5
-1.346, 3.639e-5
-1.345, 3.620e-5
-1.344, 3.573e-5
-1.343, 3.530e-5
-1.342, 3.508e-5
-1.341, 3.497e-5
-1.340, 3.522e-5
-1.339, 3.554e-5
-1.338, 3.535e-5
-1.337, 3.500e-5
-1.336, 3.443e-5
-1.335, 3.381e-5
-1.334, 3.367e-5
-1.333, 3.354e-5
-1.332, 3.340e-5
-1.331, 3.360e-5
-1.330, 3.386e-5
-1.329, 3.350e-5
-1.328, 3.271e-5
-1.327, 3.182e-5
-1.326, 3.106e-5
-1.325, 3.064e-5
-1.324, 3.067e-5
-1.323, 3.062e-5
-1.322, 3.014e-5
-1.321, 2.982e-5
-1.320, 2.947e-5
-1.319, 2.942e-5
-1.318, 2.919e-5
-1.317, 2.885e-5
-1.316, 2.865e-5
-1.315, 2.836e-5
-1.314, 2.807e-5
-1.313, 2.785e-5
-1.312, 2.751e-5
-1.311, 2.700e-5
-1.310, 2.640e-5
-1.309, 2.590e-5
-1.308, 2.549e-5
-1.307, 2.512e-5
-1.306, 2.474e-5
-1.305, 2.448e-5
-1.304, 2.417e-5
-1.303, 2.382e-5
-1.302, 2.340e-5
-1.301, 2.297e-5
-1.300, 2.261e-5
-1.299, 2.232e-5
-1.298, 2.210e-5
-1.297, 2.208e-5
-1.296, 2.204e-5
-1.295, 2.186e-5
-1.294, 2.135e-5
-1.293, 2.078e-5
-1.292, 2.064e-5
-1.291, 2.064e-5
-1.290, 2.101e-5
-1.289, 2.144e-5
-1.288, 2.116e-5
-1.287, 2.046e-5
-1.286, 1.972e-5
-1.285, 1.925e-5
-1.284, 1.907e-5
-1.283, 1.893e-5
-1.282, 1.879e-5
-1.281, 1.856e-5
-1.280, 1.846e-5
-1.279, 1.854e-5
-1.278, 1.830e-5
-1.277, 1.806e-5
-1.276, 1.750e-5
-1.275, 1.717e-5
-1.274, 1.700e-5
-1.273, 1.688e-5
-1.272, 1.691e-5
-1.271, 1.715e-5
-1.270, 1.711e-5
-1.269, 1.697e-5
-1.268, 1.683e-5
-1.267, 1.690e-5
-1.266, 1.699e-5
-1.265, 1.680e-5
-1.264, 1.631e-5
-1.263, 1.599e-5
-1.262, 1.570e-5
-1.261, 1.569e-5
-1.260, 1.568e-5
-1.259, 1.559e-5
-1.258, 1.547e-5
-1.257, 1.519e-5
-1.256, 1.479e-5
-1.255, 1.456e-5
-1.254, 1.434e-5
-1.253, 1.408e-5
-1.252, 1.399e-5
-1.251, 1.420e-5
-1.250, 1.439e-5
-1.249, 1.424e-5
-1.248, 1.376e-5
-1.247, 1.337e-5
-1.246, 1.295e-5
-1.245, 1.273e-5
-1.244, 1.238e-5
-1.243, 1.221e-5
-1.242, 1.200e-5
-1.241, 1.189e-5
-1.240, 1.179e-5
-1.239, 1.157e-5
-1.238, 1.135e-5
-1.237, 1.127e-5
-1.236, 1.110e-5
-1.235, 1.098e-5
-1.234, 1.089e-5
-1.233, 1.071e-5
-1.232, 1.052e-5
-1.231, 1.043e-5
-1.230, 1.047e-5
-1.229, 1.054e-5
-1.228, 1.067e-5
-1.227, 1.065e-5
-1.226, 1.056e-5
-1.225, 1.034e-5
-1.224, 1.012e-5
-1.223, 9.896e-6
-1.222, 9.861e-6
-1.221, 9.785e-6
-1.220, 9.760e-6
-1.219, 9.644e-6
-1.218, 9.552e-6
-1.217, 9.458e-6
-1.216, 9.401e-6
-1.215, 9.317e-6
-1.214, 9.130e-6
-1.213, 8.961e-6
-1.212, 8.827e-6
-1.211, 8.698e-6
-1.210, 8.480e-6
-1.209, 8.373e-6
-1.208, 8.238e-6
-1.207, 8.188e-6
-1.206, 8.168e-6
-1.205, 8.048e-6
-1.204, 7.981e-6
-1.203, 7.944e-6
-1.202, 7.736e-6
-1.201, 7.677e-6
-1.200, 7.473e-6
-1.199, 7.370e-6
-1.198, 7.253e-6
-1.197, 7.096e-6
-1.196, 6.918e-6
-1.195, 6.763e-6
-1.194, 6.545e-6
-1.193, 6.499e-6
-1.192, 6.393e-6
-1.191, 6.308e-6
-1.190, 6.221e-6
-1.189, 6.072e-6
-1.188, 5.960e-6
-1.187, 5.859e-6
-1.186, 5.617e-6
-1.185, 5.558e-6
-1.184, 5.323e-6
-1.183, 5.224e-6
-1.182, 5.138e-6
-1.181, 5.162e-6
-1.180, 5.147e-6
-1.179, 5.092e-6
-1.178, 4.985e-6
-1.177, 4.831e-6
-1.176, 4.699e-6
-1.175, 4.532e-6
-1.174, 4.554e-6
-1.173, 4.496e-6
-1.172, 4.505e-6
-1.171, 4.296e-6
-1.170, 4.329e-6
-1.169, 4.163e-6
-1.168, 3.971e-6
-1.167, 3.929e-6
-1.166, 3.829e-6
-1.165, 3.767e-6
-1.164, 3.638e-6
-1.163, 3.550e-6
-1.162, 3.464e-6
-1.161, 3.343e-6
-1.160, 3.272e-6
-1.159, 3.254e-6
-1.158, 3.162e-6
-1.157, 3.093e-6
-1.156, 2.938e-6
-1.155, 2.841e-6
-1.154, 2.746e-6
-1.153, 2.544e-6
-1.152, 2.545e-6
-1.151, 2.499e-6
-1.150, 2.340e-6
-1.149, 2.401e-6
-1.148, 2.303e-6
-1.147, 2.186e-6
-1.146, 2.123e-6
-1.145, 2.079e-6
-1.144, 2.082e-6
-1.143, 1.962e-6
-1.142, 2.057e-6
-1.141, 1.939e-6
-1.140, 1.877e-6
-1.139, 1.809e-6
-1.138, 1.715e-6
-1.137, 1.674e-6
-1.136, 1.666e-6
-1.135, 1.581e-6
-1.134, 1.569e-6
-1.133, 1.379e-6
-1.132, 1.315e-6
-1.131, 1.338e-6
-1.130, 1.264e-6
-1.129, 1.250e-6
-1.128, 1.273e-6
-1.127, 1.234e-6
-1.126, 1.216e-6
-1.125, 1.176e-6
-1.124, 1.136e-6
-1.123, 1.067e-6
-1.122, 1.014e-6
-1.121, 1.006e-6
-1.120, 9.213e-7
-1.119, 1.044e-6
-1.118, 9.341e-7
-1.117, 9.617e-7
-1.116, 9.489e-7
-1.115, 9.025e-7
-1.114, 8.621e-7
-1.113, 7.644e-7
-1.112, 7.536e-7
-1.111, 7.289e-7
-1.110, 6.421e-7
-1.109, 7.230e-7
-1.108, 7.131e-7
-1.107, 5.809e-7
-1.106, 6.421e-7
-1.105, 6.154e-7
-1.104, 5.691e-7
-1.103, 5.681e-7
-1.102, 4.635e-7
-1.101, 4.201e-7
-1.100, 4.240e-7
-1.099, 4.911e-7
-1.098, 4.773e-7
-1.097, 4.921e-7
-1.096, 5.365e-7
-1.095, 4.536e-7
-1.094, 4.813e-7
-1.093, 4.418e-7
-1.092, 4.043e-7
-1.091, 4.625e-7
-1.090, 4.457e-7
-1.089, 4.665e-7
-1.088, 3.737e-7
-1.087, 2.770e-7
-1.086, 2.682e-7
-1.085, 2.099e-7
-1.084, 1.764e-7
-1.083, 1.833e-7
-1.082, 1.912e-7
-1.081, 1.784e-7
-1.080, 1.656e-7
-1.079, 1.971e-7
-1.078, 1.892e-7
-1.077, 1.547e-7
-1.076, 1.429e-7
-1.075, 8.958e-8
-1.074, 7.972e-8
-1.073, 8.761e-8
-1.072, 2.644e-8
-1.071, 2.940e-8
-1.070, -7.321e-8
-1.069, -6.433e-8
-1.068, -1.008e-7
-1.067, -1.620e-7
-1.066, -1.373e-7
-1.065, -1.107e-7
-1.064, -1.630e-7
-1.063, -1.482e-7
-1.062, -2.044e-7
-1.061, -2.054e-7
-1.060, -2.291e-7
-1.059, -1.511e-7
-1.058, -2.054e-7
-1.057, -2.094e-7
-1.056, -2.873e-7
-1.055, -2.745e-7
-1.054, -3.366e-7
-1.053, -3.672e-7
-1.052, -3.948e-7
-1.051, -3.751e-7
-1.050, -3.702e-7
-1.049, -3.830e-7
-1.048, -3.652e-7
-1.047, -3.909e-7
-1.046, -3.376e-7
-1.045, -3.633e-7
-1.044, -4.461e-7
-1.043, -4.392e-7
-1.042, -5.261e-7
-1.041, -4.629e-7
-1.040, -5.527e-7
-1.039, -5.626e-7
-1.038, -4.856e-7
-1.037, -5.339e-7
-1.036, -5.754e-7
-1.035, -5.339e-7
-1.034, -5.941e-7
-1.033, -5.507e-7
-1.032, -5.665e-7
-1.031, -6.385e-7
-1.030, -6.188e-7
-1.029, -5.951e-7
-1.028, -5.566e-7
-1.027, -6.652e-7
-1.026, -5.922e-7
-1.025, -6.346e-7
-1.024, -6.444e-7
-1.023, -6.089e-7
-1.022, -7.086e-7
-1.021, -6.948e-7
-1.020, -7.096e-7
-1.019, -7.135e-7
-1.018, -6.425e-7
-1.017, -7.747e-7
-1.016, -7.036e-7
-1.015, -7.826e-7
-1.014, -8.033e-7
-1.013, -7.303e-7
-1.012, -7.737e-7
-1.011, -7.984e-7
-1.010, -7.875e-7
-1.009, -8.250e-7
-1.008, -7.599e-7
-1.007, -8.141e-7
-1.006, -8.556e-7
-1.005, -8.339e-7
-1.004, -8.566e-7
-1.003, -8.220e-7
-1.002, -9.049e-7
-1.001, -8.822e-7
-1.000, -6.306e-7
-1.001, -4.955e-7
-1.002, -3.643e-7
-1.003, -3.386e-7
-1.004, -2.370e-7
-1.005, -2.143e-7
-1.006, -1.561e-7
-1.007, -6.531e-8
-1.008, -8.011e-8
-1.009, -4.163e-8
-1.010, 1.164e-8
-1.011, 6.886e-8
-1.012, 1.064e-7
-1.013, 9.550e-8
-1.014, 1.103e-7
-1.015, 1.073e-7
-1.016, 1.932e-7
-1.017, 2.435e-7
-1.018, 2.011e-7
-1.019, 2.277e-7
-1.020, 3.214e-7
-1.021, 2.849e-7
-1.022, 3.402e-7
-1.023, 3.629e-7
-1.024, 4.171e-7
-1.025, 4.586e-7
-1.026, 4.152e-7
-1.027, 4.497e-7
-1.028, 4.221e-7
-1.029, 4.734e-7
-1.030, 5.316e-7
-1.031, 4.852e-7
-1.032, 5.454e-7
-1.033, 5.395e-7
-1.034, 5.197e-7
-1.035, 5.918e-7
-1.036, 5.730e-7
-1.037, 5.997e-7
-1.038, 6.579e-7
-1.039, 6.421e-7
-1.040, 6.796e-7
-1.041, 6.519e-7
-1.042, 7.102e-7
-1.043, 6.796e-7
-1.044, 7.003e-7
-1.045, 7.200e-7
-1.046, 6.875e-7
-1.047, 7.703e-7
-1.048, 7.684e-7
-1.049, 7.911e-7
-1.050, 7.891e-7
-1.051, 7.901e-7
-1.052, 8.443e-7
-1.053, 8.966e-7
-1.054, 8.621e-7
-1.055, 8.996e-7
-1.056, 8.739e-7
-1.057, 9.213e-7
-1.058, 9.311e-7
-1.059, 8.581e-7
-1.060, 9.430e-7
-1.061, 8.858e-7
-1.062, 9.262e-7
-1.063, 1.003e-6
-1.064, 9.775e-7
-1.065, 1.015e-6
-1.066, 9.903e-7
-1.067, 1.071e-6
-1.068, 1.046e-6
-1.069, 1.053e-6
-1.070, 1.083e-6
-1.071, 1.124e-6
-1.072, 1.085e-6
-1.073, 1.089e-6
-1.074, 1.106e-6
-1.075, 1.066e-6
-1.076, 1.132e-6
-1.077, 1.158e-6
-1.078, 1.205e-6
-1.079, 1.218e-6
-1.080, 1.167e-6
-1.081, 1.216e-6
-1.082, 1.234e-6
-1.083, 1.164e-6
-1.084, 1.182e-6
-1.085, 1.268e-6
-1.086, 1.253e-6
-1.087, 1.218e-6
-1.088, 1.325e-6
-1.089, 1.281e-6
-1.090, 1.285e-6
-1.091, 1.274e-6
-1.092, 1.325e-6
-1.093, 1.273e-6
-1.094, 1.300e-6
-1.095, 1.331e-6
-1.096, 1.334e-6
-1.097, 1.351e-6
-1.098, 1.355e-6
-1.099, 1.338e-6
-1.100, 1.387e-6
-1.101, 1.377e-6
-1.102, 1.307e-6
-1.103, 1.402e-6
-1.104, 1.346e-6
-1.105, 1.429e-6
-1.106, 1.447e-6
-1.107, 1.413e-6
-1.108, 1.528e-6
-1.109, 1.438e-6
-1.110, 1.464e-6
-1.111, 1.505e-6
-1.112, 1.488e-6
-1.113, 1.518e-6
-1.114, 1.444e-6
-1.115, 1.474e-6
-1.116, 1.484e-6
-1.117, 1.493e-6
-1.118, 1.524e-6
-1.119, 1.522e-6
-1.120, 1.625e-6
-1.121, 1.536e-6
-1.122, 1.580e-6
-1.123, 1.522e-6
-1.124, 1.560e-6
-1.125, 1.610e-6
-1.126, 1.532e-6
-1.127, 1.611e-6
-1.128, 1.654e-6
-1.129, 1.574e-6
-1.130, 1.675e-6
-1.131, 1.613e-6
-1.132, 1.633e-6
-1.133, 1.601e-6
-1.134, 1.661e-6
-1.135, 1.703e-6
-1.136, 1.656e-6
-1.137, 1.672e-6
-1.138, 1.644e-6
-1.139, 1.634e-6
-1.140, 1.694e-6
-1.141, 1.686e-6
-1.142, 1.723e-6
-1.143, 1.701e-6
-1.144, 1.726e-6
-1.145, 1.788e-6
-1.146, 1.684e-6
-1.147, 1.814e-6
-1.148, 1.744e-6
-1.149, 1.719e-6
-1.150, 1.784e-6
-1.151, 1.759e-6
-1.152, 1.808e-6
-1.153, 1.675e-6
-1.154, 1.794e-6
-1.155, 1.852e-6
-1.156, 1.815e-6
-1.157, 1.884e-6
-1.158, 1.807e-6
-1.159, 1.936e-6
-1.160, 1.870e-6
-1.161, 1.843e-6
-1.162, 1.828e-6
-1.163, 1.841e-6
-1.164, 1.832e-6
-1.165, 1.840e-6
-1.166, 1.861e-6
-1.167, 1.936e-6
-1.168, 1.938e-6
-1.169, 1.947e-6
-1.170, 1.926e-6
-1.171, 2.035e-6
-1.172, 2.033e-6
-1.173, 1.998e-6
-1.174, 2.008e-6
-1.175, 2.048e-6
-1.176, 2.001e-6
-1.177, 1.947e-6
-1.178, 2.037e-6
-1.179, 2.050e-6
-1.180, 2.035e-6
-1.181, 2.078e-6
-1.182, 2.046e-6
-1.183, 2.112e-6
-1.184, 2.154e-6
-1.185, 2.095e-6
-1.186, 2.127e-6
-1.187, 2.083e-6
-1.188, 2.131e-6
-1.189, 2.056e-6
-1.190, 2.115e-6
-1.191, 2.183e-6
-1.192, 2.169e-6
-1.193, 2.213e-6
-1.194, 2.190e-6
-1.195, 2.238e-6
-1.196, 2.264e-6
-1.197, 2.294e-6
-1.198, 2.221e-6
-1.199, 2.175e-6
-1.200, 2.277e-6
-1.201, 2.229e-6
-1.202, 2.252e-6
-1.203, 2.293e-6
-1.204, 2.296e-6
-1.205, 2.330e-6
-1.206, 2.368e-6
-1.207, 2.413e-6
-1.208, 2.333e-6
-1.209, 2.401e-6
-1.210, 2.453e-6
-1.211, 2.363e-6
-1.212, 2.386e-6
-1.213, 2.411e-6
-1.214, 2.377e-6
-1.215, 2.386e-6
-1.216, 2.423e-6
-1.217, 2.422e-6
-1.218, 2.427e-6
-1.219, 2.415e-6
-1.220, 2.516e-6
-1.221, 2.496e-6
-1.222, 2.514e-6
-1.223, 2.486e-6
-1.224, 2.621e-6
-1.225, 2.579e-6
-1.226, 2.496e-6
-1.227, 2.565e-6
-1.228, 2.598e-6
-1.229, 2.529e-6
-1.230, 2.546e-6
-1.231, 2.574e-6
-1.232, 2.650e-6
-1.233, 2.619e-6
-1.234, 2.711e-6
-1.235, 2.707e-6
-1.236, 2.722e-6
-1.237, 2.683e-6
-1.238, 2.696e-6
-1.239, 2.730e-6
-1.240, 2.719e-6
-1.241, 2.763e-6
-1.242, 2.735e-6
-1.243, 2.714e-6
-1.244, 2.738e-6
-1.245, 2.801e-6
-1.246, 2.800e-6
-1.247, 2.707e-6
-1.248, 2.845e-6
-1.249, 2.891e-6
-1.250, 2.866e-6
-1.251, 2.864e-6
-1.252, 2.842e-6
-1.253, 2.880e-6
-1.254, 2.786e-6
-1.255, 2.892e-6
-1.256, 2.899e-6
-1.257, 2.926e-6
-1.258, 2.994e-6
-1.259, 2.940e-6
-1.260, 3.047e-6
-1.261, 2.994e-6
-1.262, 2.998e-6
-1.263, 2.990e-6
-1.264, 3.098e-6
-1.265, 3.048e-6
-1.266, 2.973e-6
-1.267, 3.099e-6
-1.268, 3.037e-6
-1.269, 3.069e-6
-1.270, 3.121e-6
-1.271, 3.142e-6
-1.272, 3.210e-6
-1.273, 3.215e-6
-1.274, 3.172e-6
-1.275, 3.227e-6
-1.276, 3.171e-6
-1.277, 3.168e-6
-1.278, 3.149e-6
-1.279, 3.201e-6
-1.280, 3.229e-6
-1.281, 3.218e-6
-1.282, 3.271e-6
-1.283, 3.278e-6
-1.284, 3.277e-6
-1.285, 3.280e-6
-1.286, 3.357e-6
-1.287, 3.286e-6
-1.288, 3.326e-6
-1.289, 3.360e-6
-1.290, 3.386e-6
-1.291, 3.320e-6
-1.292, 3.331e-6
-1.293, 3.383e-6
-1.294, 3.403e-6
-1.295, 3.411e-6
-1.296, 3.393e-6
-1.297, 3.439e-6
-1.298, 3.451e-6
-1.299, 3.408e-6
-1.300, 3.380e-6
-1.301, 3.408e-6
-1.302, 3.465e-6
-1.303, 3.423e-6
-1.304, 3.558e-6
-1.305, 3.486e-6
-1.306, 3.501e-6
-1.307, 3.496e-6
-1.308, 3.451e-6
-1.309, 3.505e-6
-1.310, 3.485e-6
-1.311, 3.555e-6
-1.312, 3.561e-6
-1.313, 3.554e-6
-1.314, 3.664e-6
-1.315, 3.555e-6
-1.316, 3.558e-6
-1.317, 3.518e-6
-1.318, 3.634e-6
-1.319, 3.610e-6
-1.320, 3.610e-6
-1.321, 3.686e-6
-1.322, 3.577e-6
-1.323, 3.591e-6
-1.324, 3.641e-6
-1.325, 3.670e-6
-1.326, 3.656e-6
-1.327, 3.648e-6
-1.328, 3.745e-6
-1.329, 3.622e-6
-1.330, 3.698e-6
-1.331, 3.720e-6
-1.332, 3.725e-6
-1.333, 3.724e-6
-1.334, 3.678e-6
-1.335, 3.741e-6
-1.336, 3.775e-6
-1.337, 3.767e-6
-1.338, 3.753e-6
-1.339, 3.707e-6
-1.340, 3.790e-6
-1.341, 3.773e-6
-1.342, 3.782e-6
-1.343, 3.776e-6
-1.344, 3.802e-6
-1.345, 3.796e-6
-1.346, 3.877e-6
-1.347, 3.887e-6
-1.348, 3.854e-6
-1.349, 3.852e-6
-1.350, 3.860e-6
-1.351, 3.855e-6
-1.352, 3.878e-6
-1.353, 3.890e-6
-1.354, 3.895e-6
-1.355, 3.892e-6
-1.356, 3.956e-6
-1.357, 3.910e-6
-1.358, 3.898e-6
-1.359, 3.977e-6
-1.360, 3.929e-6
-1.361, 3.996e-6
-1.362, 3.976e-6
-1.363, 3.999e-6
-1.364, 4.008e-6
-1.365, 3.951e-6
-1.366, 4.052e-6
-1.367, 4.029e-6
-1.368, 4.089e-6
-1.369, 4.099e-6
-1.370, 4.157e-6
-1.371, 4.105e-6
-1.372, 4.021e-6
-1.373, 4.153e-6
-1.374, 4.171e-6
-1.375, 4.168e-6
-1.376, 4.172e-6
-1.377, 4.265e-6
-1.378, 4.209e-6
-1.379, 4.240e-6
-1.380, 4.300e-6
-1.381, 4.236e-6
-1.382, 4.321e-6
-1.383, 4.222e-6
-1.384, 4.342e-6
-1.385, 4.366e-6
-1.386, 4.328e-6
-1.387, 4.384e-6
-1.388, 4.313e-6
-1.389, 4.437e-6
-1.390, 4.425e-6
-1.391, 4.452e-6
-1.392, 4.484e-6
-1.393, 4.524e-6
-1.394, 4.528e-6
-1.395, 4.524e-6
-1.396, 4.529e-6
-1.397, 4.577e-6
-1.398, 4.626e-6
-1.399, 4.687e-6
-1.400, 4.647e-6
-1.401, 4.719e-6
-1.402, 4.660e-6
-1.403, 4.759e-6
-1.404, 4.789e-6
-1.405, 4.824e-6
-1.406, 4.924e-6
-1.407, 4.934e-6
-1.408, 5.003e-6
-1.409, 4.908e-6
-1.410, 4.963e-6
-1.411, 5.034e-6
-1.412, 4.968e-6
-1.413, 5.039e-6
-1.414, 5.202e-6
-1.415, 5.200e-6
-1.416, 5.295e-6
-1.417, 5.243e-6
-1.418, 5.381e-6
-1.419, 5.319e-6
-1.420, 5.380e-6
-1.421, 5.340e-6
-1.422, 5.438e-6
-1.423, 5.488e-6
-1.424, 5.469e-6
-1.425, 5.585e-6
-1.426, 5.645e-6
-1.427, 5.733e-6
-1.428, 5.756e-6
-1.429, 5.778e-6
-1.430, 5.793e-6
-1.431, 5.912e-6
-1.432, 5.966e-6
-1.433, 6.021e-6
-1.434, 6.057e-6
-1.435, 5.997e-6
-1.436, 6.096e-6
-1.437, 6.221e-6
-1.438, 6.265e-6
-1.439, 6.414e-6
-1.440, 6.465e-6
-1.441, 6.604e-6
-1.442, 6.513e-6
-1.443, 6.587e-6
-1.444, 6.638e-6
-1.445, 6.713e-6
-1.446, 6.756e-6
-1.447, 6.772e-6
-1.448, 6.948e-6
-1.449, 7.075e-6
-1.450, 7.269e-6
-1.451, 7.364e-6
-1.452, 7.284e-6
-1.453, 7.301e-6
-1.454, 7.322e-6
-1.455, 7.488e-6
-1.456, 7.527e-6
-1.457, 7.561e-6
-1.458, 7.641e-6
-1.459, 7.663e-6
-1.460, 7.878e-6
-1.461, 8.103e-6
-1.462, 8.372e-6
-1.463, 8.507e-6
-1.464, 8.372e-6
-1.465, 8.413e-6
-1.466, 8.388e-6
-1.467, 8.422e-6
-1.468, 8.505e-6
-1.469, 8.515e-6
-1.470, 8.590e-6
-1.471, 8.697e-6
-1.472, 8.843e-6
-1.473, 8.835e-6
-1.474, 8.766e-6
-1.475, 8.811e-6
-1.476, 9.144e-6
-1.477, 9.718e-6
-1.478, 1.085e-5
-1.479, 1.185e-5
-1.480, 1.257e-5
-1.481, 1.197e-5
-1.482, 1.115e-5
-1.483, 1.064e-5
-1.484, 1.037e-5
-1.485, 1.030e-5
-1.486, 1.046e-5
-1.487, 1.067e-5
-1.488, 1.157e-5
-1.489, 1.253e-5
-1.490, 1.239e-5
-1.491, 1.164e-5
-1.492, 1.112e-5
-1.493, 1.092e-5
-1.494, 1.094e-5
-1.495, 1.101e-5
-1.496, 1.114e-5
-1.497, 1.140e-5
-1.498, 1.236e-5
-1.499, 1.420e-5
-1.500, 1.421e-5
-1.501, 1.293e-5
-1.502, 1.219e-5
-1.503, 1.190e-5
-1.504, 1.204e-5
-1.505, 1.336e-5
-1.506, 1.630e-5
-1.507, 1.631e-5
-1.508, 1.453e-5
-1.509, 1.357e-5
-1.510, 1.354e-5
-1.511, 1.560e-5
-1.512, 1.771e-5
-1.513, 1.734e-5
-1.514, 1.733e-5
-1.515, 1.858e-5
-1.516, 1.720e-5
-1.517, 1.603e-5
-1.518, 1.557e-5
-1.519, 1.544e-5
-1.520, 1.575e-5
-1.521, 1.613e-5
-1.522, 1.626e-5
-1.523, 1.643e-5
-1.524, 1.666e-5
-1.525, 1.758e-5
-1.526, 1.810e-5
-1.527, 1.784e-5
-1.528, 1.751e-5
-1.529, 1.687e-5
-1.530, 1.663e-5
-1.531, 1.629e-5
-1.532, 1.621e-5
-1.533, 1.593e-5
-1.534, 1.575e-5
-1.535, 1.565e-5
-1.536, 1.554e-5
-1.537, 1.569e-5
-1.538, 1.555e-5
-1.539, 1.549e-5
-1.540, 1.553e-5
-1.541, 1.543e-5
-1.542, 1.538e-5
-1.543, 1.526e-5
-1.544, 1.535e-5
-1.545, 1.507e-5
-1.546, 1.490e-5
-1.547, 1.486e-5
-1.548, 1.469e-5
-1.549, 1.471e-5
-1.550, 1.454e-5
-1.551, 1.449e-5
-1.552, 1.447e-5
-1.553, 1.431e-5
-1.554, 1.429e-5
-1.555, 1.429e-5
-1.556, 1.434e-5
-1.557, 1.418e-5
-1.558, 1.426e-5
-1.559, 1.425e-5
-1.560, 1.424e-5
-1.561, 1.420e-5
-1.562, 1.421e-5
-1.563, 1.420e-5
-1.564, 1.426e-5
-1.565, 1.437e-5
-1.566, 1.452e-5
-1.567, 1.462e-5
-1.568, 1.457e-5
-1.569, 1.454e-5
-1.570, 1.467e-5
-1.571, 1.463e-5
-1.572, 1.444e-5
-1.573, 1.450e-5
-1.574, 1.448e-5
-1.575, 1.460e-5
-1.576, 1.460e-5
-1.577, 1.477e-5
-1.578, 1.473e-5
-1.579, 1.472e-5
-1.580, 1.475e-5
-1.581, 1.480e-5
-1.582, 1.485e-5
-1.583, 1.491e-5
-1.584, 1.492e-5
-1.585, 1.506e-5
-1.586, 1.518e-5
-1.587, 1.530e-5
-1.588, 1.534e-5
-1.589, 1.540e-5
-1.590, 1.546e-5
-1.591, 1.539e-5
-1.592, 1.541e-5
-1.593, 1.554e-5
-1.594, 1.549e-5
-1.595, 1.565e-5
-1.596, 1.566e-5
-1.597, 1.574e-5
-1.598, 1.584e-5
-1.599, 1.580e-5
-1.600, 1.513e-5
-1.599, 1.471e-5
-1.598, 1.444e-5
-1.597, 1.417e-5
-1.596, 1.396e-5
-1.595, 1.364e-5
-1.594, 1.333e-5
-1.593, 1.306e-5
-1.592, 1.278e-5
-1.591, 1.264e-5
-1.590, 1.243e-5
-1.589, 1.226e-5
-1.588, 1.214e-5
-1.587, 1.203e-5
-1.586, 1.179e-5
-1.585, 1.153e-5
-1.584, 1.139e-5
-1.583, 1.104e-5
-1.582, 1.089e-5
-1.581, 1.070e-5
-1.580, 1.059e-5
-1.579, 1.046e-5
-1.578, 1.014e-5
-1.577, 1.009e-5
-1.576, 9.926e-6
-1.575, 9.763e-6
-1.574, 9.639e-6
-1.573, 9.456e-6
-1.572, 9.325e-6
-1.571, 9.068e-6
-1.570, 8.937e-6
-1.569, 8.833e-6
-1.568, 8.722e-6
-1.567, 8.700e-6
-1.566, 8.600e-6
-1.565, 8.509e-6
-1.564, 8.354e-6
-1.563, 8.220e-6
-1.562, 8.002e-6
-1.561, 7.853e-6
-1.560, 7.645e-6
-1.559, 7.564e-6
-1.558, 7.608e-6
-1.557, 7.524e-6
-1.556, 7.458e-6
-1.555, 7.221e-6
-1.554, 7.078e-6
-1.553, 7.033e-6
-1.552, 6.771e-6
-1.551, 6.704e-6
-1.550, 6.624e-6
-1.549, 6.614e-6
-1.548, 6.560e-6
-1.547, 6.485e-6
-1.546, 6.440e-6
-1.545, 6.236e-6
-1.544, 6.025e-6
-1.543, 6.019e-6
-1.542, 5.825e-6
-1.541, 5.771e-6
-1.540, 5.662e-6
-1.539, 5.588e-6
-1.538, 5.567e-6
-1.537, 5.368e-6
-1.536, 5.278e-6
-1.535, 5.160e-6
-1.534, 5.119e-6
-1.533, 5.015e-6
-1.532, 4.981e-6
-1.531, 4.807e-6
-1.530, 4.713e-6
-1.529, 4.682e-6
-1.528, 4.658e-6
-1.527, 4.547e-6
-1.526, 4.473e-6
-1.525, 4.446e-6
-1.524, 4.342e-6
-1.523, 4.224e-6
-1.522, 4.336e-6
-1.521, 4.106e-6
-1.520, 4.058e-6
-1.519, 3.981e-6
-1.518, 3.970e-6
-1.517, 3.898e-6
-1.516, 3.875e-6
-1.515, 3.744e-6
-1.514, 3.765e-6
-1.513, 3.734e-6
-1.512, 3.536e-6
-1.511, 3.637e-6
-1.510, 3.499e-6
-1.509, 3.471e-6
-1.508, 3.438e-6
-1.507, 3.352e-6
-1.506, 3.292e-6
-1.505, 3.258e-6
-1.504, 3.237e-6
-1.503, 3.227e-6
-1.502, 3.139e-6
-1.501, 3.157e-6
-1.500, 3.116e-6
-1.499, 3.052e-6
-1.498, 3.049e-6
-1.497, 2.946e-6
-1.496, 2.958e-6
-1.495, 2.877e-6
-1.494, 2.891e-6
-1.493, 2.826e-6
-1.492, 2.822e-6
-1.491, 2.806e-6
-1.490, 2.739e-6
-1.489, 2.716e-6
-1.488, 2.708e-6
-1.487, 2.649e-6
-1.486, 2.624e-6
-1.485, 2.564e-6
-1.484, 2.555e-6
-1.483, 2.532e-6
-1.482, 2.587e-6
-1.481, 2.486e-6
-1.480, 2.474e-6
-1.479, 2.504e-6
-1.478, 2.495e-6
-1.477, 2.349e-6
-1.476, 2.340e-6
-1.475, 2.317e-6
-1.474, 2.261e-6
-1.473, 2.338e-6
-1.472, 2.267e-6
-1.471, 2.224e-6
-1.470, 2.231e-6
-1.469, 2.202e-6
-1.468, 2.246e-6
-1.467, 2.177e-6
-1.466, 2.147e-6
-1.465, 2.171e-6
-1.464, 2.085e-6
-1.463, 2.061e-6
-1.462, 2.068e-6
-1.461, 2.013e-6
-1.460, 2.052e-6
-1.459, 2.043e-6
-1.458, 2.015e-6
-1.457, 2.017e-6
-1.456, 2.087e-6
-1.455, 1.970e-6
-1.454, 2.043e-6
-1.453, 1.944e-6
-1.452, 1.893e-6
-1.451, 1.887e-6
-1.450, 1.870e-6
-1.449, 1.891e-6
-1.448, 1.831e-6
-1.447, 1.880e-6
-1.446, 1.833e-6
-1.445, 1.887e-6
-1.444, 1.754e-6
-1.443, 1.757e-6
-1.442, 1.803e-6
-1.441, 1.678e-6
-1.440, 1.675e-6
-1.439, 1.789e-6
-1.438, 1.645e-6
-1.437, 1.776e-6
-1.436, 1.735e-6
-1.435, 1.685e-6
-1.434, 1.711e-6
-1.433, 1.662e-6
-1.432, 1.679e-6
-1.431, 1.628e-6
-1.430, 1.605e-6
-1.429, 1.549e-6
-1.428, 1.549e-6
-1.427, 1.551e-6
-1.426, 1.600e-6
-1.425, 1.542e-6
-1.424, 1.470e-6
-1.423, 1.524e-6
-1.422, 1.502e-6
-1.421, 1.513e-6
-1.420, 1.448e-6
-1.419, 1.509e-6
-1.418, 1.475e-6
-1.417, 1.439e-6
-1.416, 1.447e-6
-1.415, 1.356e-6
-1.414, 1.479e-6
-1.413, 1.434e-6
-1.412, 1.416e-6
-1.411, 1.399e-6
-1.410, 1.314e-6
-1.409, 1.402e-6
-1.408, 1.288e-6
-1.407, 1.338e-6
-1.406, 1.237e-6
-1.405, 1.302e-6
-1.404, 1.317e-6
-1.403, 1.299e-6
-1.402, 1.348e-6
-1.401, 1.253e-6
-1.400, 1.237e-6
-1.399, 1.213e-6
-1.398, 1.202e-6
-1.397, 1.217e-6
-1.396, 1.199e-6
-1.395, 1.212e-6
-1.394, 1.246e-6
-1.393, 1.254e-6
-1.392, 1.257e-6
-1.391, 1.138e-6
-1.390, 1.139e-6
-1.389, 1.186e-6
-1.388, 1.134e-6
-1.387, 1.177e-6
-1.386, 1.077e-6
-1.385, 1.153e-6
-1.384, 1.074e-6
-1.383, 1.158e-6
-1.382, 1.087e-6
-1.381, 1.060e-6
-1.380, 1.083e-6
-1.379, 1.056e-6
-1.378, 1.057e-6
-1.377, 1.058e-6
-1.376, 1.040e-6
-1.375, 1.005e-6
-1.374, 1.072e-6
-1.373, 1.019e-6
-1.372, 1.026e-6
-1.371, 9.746e-7
-1.370, 9.795e-7
-1.369, 9.795e-7
-1.368, 9.499e-7
-1.367, 9.094e-7
-1.366, 9.903e-7
-1.365, 9.943e-7
-1.364, 1.002e-6
-1.363, 8.562e-7
-1.362, 9.144e-7
-1.361, 8.996e-7
-1.360, 8.887e-7
-1.359, 8.769e-7
-1.358, 8.137e-7
-1.357, 8.502e-7
-1.356, 8.512e-7
-1.355, 8.720e-7
-1.354, 9.025e-7
-1.353, 8.325e-7
-1.352, 8.660e-7
-1.351, 7.605e-7
-1.350, 8.236e-7
-1.349, 8.690e-7
-1.348, 7.526e-7
-1.347, 8.197e-7
-1.346, 7.723e-7
-1.345, 7.792e-7
-1.344, 7.230e-7
-1.343, 8.059e-7
-1.342, 8.206e-7
-1.341, 7.289e-7
-1.340, 6.667e-7
-1.339, 7.555e-7
-1.338, 6.904e-7
-1.337, 7.368e-7
-1.336, 6.835e-7
-1.335, 7.319e-7
-1.334, 7.072e-7
-1.333, 7.348e-7
-1.332, 7.259e-7
-1.331, 6.184e-7
-1.330, 7.457e-7
-1.329, 6.214e-7
-1.328, 6.263e-7
-1.327, 6.223e-7
-1.326, 6.145e-7
-1.325, 6.105e-7
-1.324, 6.075e-7
-1.323, 5.858e-7
-1.322, 6.302e-7
-1.321, 6.006e-7
-1.320, 5.592e-7
-1.319, 5.779e-7
-1.318, 5.572e-7
-1.317, 5.553e-7
-1.316, 6.500e-7
-1.315, 5.326e-7
-1.314, 5.582e-7
-1.313, 5.375e-7
-1.312, 5.020e-7
-1.311, 5.987e-7
-1.310, 4.734e-7
-1.309, 4.842e-7
-1.308, 4.931e-7
-1.307, 4.773e-7
-1.306, 4.980e-7
-1.305, 4.684e-7
-1.304, 4.961e-7
-1.303, 4.349e-7
-1.302, 4.655e-7
-1.301, 4.605e-7
-1.300, 4.438e-7
-1.299, 4.724e-7
-1.298, 4.191e-7
-1.297, 4.260e-7
-1.296, 3.481e-7
-1.295, 4.329e-7
-1.294, 3.954e-7
-1.293, 4.211e-7
-1.292, 3.688e-7
-1.291, 4.004e-7
-1.290, 2.593e-7
-1.289, 3.974e-7
-1.288, 3.609e-7
-1.287, 3.461e-7
-1.286, 3.027e-7
-1.285, 3.648e-7
-1.284, 2.573e-7
-1.283, 2.701e-7
-1.282, 3.254e-7
-1.281, 2.524e-7
-1.280, 2.731e-7
-1.279, 2.721e-7
-1.278, 2.465e-7
-1.277, 2.465e-7
-1.276, 2.425e-7
-1.275, 2.770e-7
-1.274, 2.830e-7
-1.273, 3.412e-7
-1.272, 2.593e-7
-1.271, 2.711e-7
-1.270, 2.997e-7
-1.269, 2.257e-7
-1.268, 2.484e-7
-1.267, 1.754e-7
-1.266, 1.794e-7
-1.265, 2.287e-7
-1.264, 1.508e-7
-1.263, 2.050e-7
-1.262, 2.188e-7
-1.261, 1.725e-7
-1.260, 1.882e-7
-1.259, 9.748e-8
-1.258, 1.162e-7
-1.257, 1.409e-7
-1.256, 7.577e-8
-1.255, 1.389e-7
-1.254, 1.606e-7
-1.253, 1.024e-7
-1.252, 1.162e-7
-1.251, 9.945e-8
-1.250, 8.958e-8
-1.249, 6.393e-8
-1.248, 7.084e-8
-1.247, 6.886e-8
-1.246, 7.774e-8
-1.245, 2.762e-9
-1.244, -7.103e-9
-1.243, 3.729e-8
-1.242, 1.066e-8
-1.241, -2.289e-8
-1.240, -1.500e-8
-1.239, -4.558e-8
-1.238, 2.151e-8
-1.237, 4.420e-8
-1.236, 5.209e-8
-1.235, -3.867e-8
-1.234, -1.500e-8
-1.233, -3.275e-8
-1.232, -7.518e-8
-1.231, -1.006e-8
-1.230, -2.486e-8
-1.229, -5.545e-8
-1.228, -4.163e-8
-1.227, -6.827e-8
-1.226, 1.776e-9
-1.225, -1.886e-7
-1.224, -1.788e-7
-1.223, -1.067e-7
-1.222, -1.492e-7
-1.221, -1.413e-7
-1.220, -1.867e-7
-1.219, -1.048e-7
-1.218, -1.423e-7
-1.217, -1.107e-7
-1.216, -1.867e-7
-1.215, -1.886e-7
-1.214, -1.867e-7
-1.213, -1.679e-7
-1.212, -1.857e-7
-1.211, -2.745e-7
-1.210, -2.459e-7
-1.209, -2.577e-7
-1.208, -2.261e-7
-1.207, -2.330e-7
-1.206, -2.587e-7
-1.205, -2.123e-7
-1.204, -2.646e-7
-1.203, -3.001e-7
-1.202, -2.656e-7
-1.201, -2.903e-7
-1.200, -2.656e-7
-1.199, -3.347e-7
-1.198, -3.100e-7
-1.197, -3.228e-7
-1.196, -3.583e-7
-1.195, -2.646e-7
-1.194, -2.952e-7
-1.193, -3.425e-7
-1.192, -3.751e-7
-1.191, -3.672e-7
-1.190, -3.958e-7
-1.189, -3.514e-7
-1.188, -3.514e-7
-1.187, -3.938e-7
-1.186, -4.323e-7
-1.185, -3.929e-7
-1.184, -3.366e-7
-1.183, -3.869e-7
-1.182, -4.156e-7
-1.181, -4.175e-7
-1.180, -4.550e-7
-1.179, -4.935e-7
-1.178, -4.688e-7
-1.177, -4.560e-7
-1.176, -3.850e-7
-1.175, -4.994e-7
-1.174, -5.122e-7
-1.173, -4.688e-7
-1.172, -4.846e-7
-1.171, -5.211e-7
-1.170, -5.645e-7
-1.169, -5.221e-7
-1.168, -5.803e-7
-1.167, -5.201e-7
-1.166, -5.261e-7
-1.165, -5.813e-7
-1.164, -5.951e-7
-1.163, -6.533e-7
-1.162, -5.152e-7
-1.161, -6.543e-7
-1.160, -6.178e-7
-1.159, -6.000e-7
-1.158, -6.139e-7
-1.157, -6.208e-7
-1.156, -7.017e-7
-1.155, -6.425e-7
-1.154, -6.148e-7
-1.153, -6.306e-7
-1.152, -6.089e-7
-1.151, -7.007e-7
-1.150, -6.819e-7
-1.149, -6.987e-7
-1.148, -6.879e-7
-1.147, -7.441e-7
-1.146, -7.638e-7
-1.145, -7.668e-7
-1.144, -7.382e-7
-1.143, -8.003e-7
-1.142, -7.461e-7
-1.141, -7.717e-7
-1.140, -8.062e-7
-1.139, -7.540e-7
-1.138, -8.289e-7
-1.137, -8.812e-7
-1.136, -8.753e-7
-1.135, -8.635e-7
-1.134, -8.605e-7
-1.133, -8.181e-7
-1.132, -8.427e-7
-1.131, -8.950e-7
-1.130, -8.773e-7
-1.129, -9.049e-7
-1.128, -8.832e-7
-1.127, -8.881e-7
-1.126, -9.069e-7
-1.125, -1.015e-6
-1.124, -9.552e-7
-1.123, -9.375e-7
-1.122, -1.005e-6
-1.121, -9.799e-7
-1.120, -9.661e-7
-1.119, -9.621e-7
-1.118, -1.072e-6
-1.117, -1.057e-6
-1.116, -1.011e-6
-1.115, -1.048e-6
-1.114, -1.065e-6
-1.113, -1.099e-6
-1.112, -1.097e-6
-1.111, -1.129e-6
-1.110, -1.085e-6
-1.109, -1.054e-6
-1.108, -1.134e-6
-1.107, -1.121e-6
-1.106, -1.152e-6
-1.105, -1.114e-6
-1.104, -1.144e-6
-1.103, -1.193e-6
-1.102, -1.180e-6
-1.101, -1.258e-6
-1.100, -1.203e-6
-1.099, -1.242e-6
-1.098, -1.168e-6
-1.097, -1.217e-6
-1.096, -1.299e-6
-1.095, -1.252e-6
-1.094, -1.287e-6
-1.093, -1.225e-6
-1.092, -1.273e-6
-1.091, -1.295e-6
-1.090, -1.271e-6
-1.089, -1.321e-6
-1.088, -1.347e-6
-1.087, -1.370e-6
-1.086, -1.337e-6
-1.085, -1.419e-6
-1.084, -1.414e-6
-1.083, -1.327e-6
-1.082, -1.430e-6
-1.081, -1.387e-6
-1.080, -1.378e-6
-1.079, -1.435e-6
-1.078, -1.409e-6
-1.077, -1.459e-6
-1.076, -1.426e-6
-1.075, -1.474e-6
-1.074, -1.460e-6
-1.073, -1.517e-6
-1.072, -1.431e-6
-1.071, -1.438e-6
-1.070, -1.548e-6
-1.069, -1.558e-6
-1.068, -1.524e-6
-1.067, -1.570e-6
-1.066, -1.520e-6
-1.065, -1.565e-6
-1.064, -1.504e-6
-1.063, -1.604e-6
-1.062, -1.582e-6
-1.061, -1.580e-6
-1.060, -1.580e-6
-1.059, -1.615e-6
-1.058, -1.616e-6
-1.057, -1.603e-6
-1.056, -1.609e-6
-1.055, -1.651e-6
-1.054, -1.655e-6
-1.053, -1.672e-6
-1.052, -1.657e-6
-1.051, -1.666e-6
-1.050, -1.662e-6
-1.049, -1.697e-6
-1.048, -1.658e-6
-1.047, -1.687e-6
-1.046, -1.749e-6
-1.045, -1.655e-6
-1.044, -1.771e-6
-1.043, -1.691e-6
-1.042, -1.745e-6
-1.041, -1.749e-6
-1.040, -1.754e-6
-1.039, -1.777e-6
-1.038, -1.690e-6
-1.037, -1.790e-6
-1.036, -1.775e-6
-1.035, -1.800e-6
-1.034, -1.777e-6
-1.033, -1.783e-6
-1.032, -1.806e-6
-1.031, -1.759e-6
-1.030, -1.841e-6
-1.029, -1.760e-6
-1.028, -1.826e-6
-1.027, -1.818e-6
-1.026, -1.773e-6
-1.025, -1.830e-6
-1.024, -1.825e-6
-1.023, -1.833e-6
-1.022, -1.867e-6
-1.021, -1.829e-6
-1.020, -1.901e-6
-1.019, -1.858e-6
-1.018, -1.885e-6
-1.017, -1.848e-6
-1.016, -1.885e-6
-1.015, -1.920e-6
-1.014, -1.898e-6
-1.013, -1.909e-6
-1.012, -1.892e-6
-1.011, -1.884e-6
-1.010, -1.917e-6
-1.009, -1.949e-6
-1.008, -1.910e-6
-1.007, -1.930e-6
-1.006, -1.975e-6
-1.005, -1.931e-6
-1.004, -1.953e-6
-1.003, -1.967e-6
-1.002, -1.929e-6
-1.001, -1.990e-6
-1.000, -1.680e-6
-1.001, -1.568e-6
-1.002, -1.435e-6
-1.003, -1.299e-6
-1.004, -1.238e-6
-1.005, -1.110e-6
-1.006, -1.088e-6
-1.007, -1.039e-6
-1.008, -9.473e-7
-1.009, -9.582e-7
-1.010, -8.339e-7
-1.011, -7.658e-7
-1.012, -7.303e-7
-1.013, -7.244e-7
-1.014, -6.484e-7
-1.015, -6.208e-7
-1.016, -6.020e-7
-1.017, -5.261e-7
-1.018, -5.221e-7
-1.019, -4.708e-7
-1.020, -4.530e-7
-1.021, -4.106e-7
-1.022, -3.840e-7
-1.023, -3.445e-7
-1.024, -3.021e-7
-1.025, -2.528e-7
-1.026, -1.955e-7
-1.027, -2.034e-7
-1.028, -1.788e-7
-1.029, -8.998e-8
-1.030, -1.985e-7
-1.031, -6.235e-8
-1.032, -1.008e-7
-1.033, -1.894e-8
-1.034, 3.532e-8
-1.035, -6.117e-9
-1.036, 4.321e-8
-1.037, 8.268e-8
-1.038, 1.142e-7
-1.039, 1.113e-7
-1.040, 1.024e-7
-1.041, 1.685e-7
-1.042, 1.409e-7
-1.043, 2.228e-7
-1.044, 2.247e-7
-1.045, 2.889e-7
-1.046, 2.760e-7
-1.047, 2.642e-7
-1.048, 3.145e-7
-1.049, 3.491e-7
-1.050, 3.422e-7
-1.051, 3.856e-7
-1.052, 3.579e-7
-1.053, 4.457e-7
-1.054, 4.260e-7
-1.055, 4.941e-7
-1.056, 4.457e-7
-1.057, 5.138e-7
-1.058, 5.099e-7
-1.059, 5.049e-7
-1.060, 5.513e-7
-1.061, 5.533e-7
-1.062, 5.799e-7
-1.063, 5.503e-7
-1.064, 6.381e-7
-1.065, 6.352e-7
-1.066, 6.174e-7
-1.067, 6.756e-7
-1.068, 6.204e-7
-1.069, 7.496e-7
-1.070, 6.756e-7
-1.071, 7.348e-7
-1.072, 7.082e-7
-1.073, 7.200e-7
-1.074, 7.644e-7
-1.075, 7.989e-7
-1.076, 8.098e-7
-1.077, 8.029e-7
-1.078, 8.226e-7
-1.079, 8.759e-7
-1.080, 8.216e-7
-1.081, 9.006e-7
-1.082, 8.335e-7
-1.083, 9.104e-7
-1.084, 8.976e-7
-1.085, 8.680e-7
-1.086, 9.282e-7
-1.087, 9.371e-7
-1.088, 9.390e-7
-1.089, 9.400e-7
-1.090, 9.903e-7
-1.091, 9.598e-7
-1.092, 9.598e-7
-1.093, 1.068e-6
-1.094, 9.913e-7
-1.095, 1.059e-6
-1.096, 1.045e-6
-1.097, 1.083e-6
-1.098, 1.081e-6
-1.099, 1.065e-6
-1.100, 1.043e-6
-1.101, 1.115e-6
-1.102, 1.147e-6
-1.103, 1.119e-6
-1.104, 1.085e-6
-1.105, 1.183e-6
-1.106, 1.130e-6
-1.107, 1.202e-6
-1.108, 1.179e-6
-1.109, 1.154e-6
-1.110, 1.169e-6
-1.111, 1.177e-6
-1.112, 1.289e-6
-1.113, 1.216e-6
-1.114, 1.258e-6
-1.115, 1.229e-6
-1.116, 1.238e-6
-1.117, 1.307e-6
-1.118, 1.244e-6
-1.119, 1.229e-6
-1.120, 1.251e-6
-1.121, 1.297e-6
-1.122, 1.261e-6
-1.123, 1.320e-6
-1.124, 1.357e-6
-1.125, 1.294e-6
-1.126, 1.363e-6
-1.127, 1.364e-6
-1.128, 1.396e-6
-1.129, 1.420e-6
-1.130, 1.349e-6
-1.131, 1.395e-6
-1.132, 1.384e-6
-1.133, 1.367e-6
-1.134, 1.459e-6
-1.135, 1.467e-6
-1.136, 1.446e-6
-1.137, 1.451e-6
-1.138, 1.472e-6
-1.139, 1.472e-6
-1.140, 1.437e-6
-1.141, 1.475e-6
-1.142, 1.520e-6
-1.143, 1.494e-6
-1.144, 1.498e-6
-1.145, 1.497e-6
-1.146, 1.534e-6
-1.147, 1.513e-6
-1.148, 1.605e-6
-1.149, 1.492e-6
-1.150, 1.554e-6
-1.151, 1.531e-6
-1.152, 1.566e-6
-1.153, 1.584e-6
-1.154, 1.569e-6
-1.155, 1.620e-6
-1.156, 1.631e-6
-1.157, 1.601e-6
-1.158, 1.598e-6
-1.159, 1.605e-6
-1.160, 1.668e-6
-1.161, 1.641e-6
-1.162, 1.642e-6
-1.163, 1.654e-6
-1.164, 1.647e-6
-1.165, 1.696e-6
-1.166, 1.715e-6
-1.167, 1.734e-6
-1.168, 1.661e-6
-1.169, 1.662e-6
-1.170, 1.725e-6
-1.171, 1.708e-6
-1.172, 1.725e-6
-1.173, 1.780e-6
-1.174, 1.749e-6
-1.175, 1.835e-6
-1.176, 1.768e-6
-1.177, 1.853e-6
-1.178, 1.846e-6
-1.179, 1.859e-6
-1.180, 1.823e-6
-1.181, 1.877e-6
-1.182, 1.912e-6
-1.183, 1.814e-6
-1.184, 1.889e-6
-1.185, 1.895e-6
-1.186, 1.879e-6
-1.187, 1.994e-6
-1.188, 1.855e-6
-1.189, 1.905e-6
-1.190, 1.925e-6
-1.191, 1.945e-6
-1.192, 1.997e-6
-1.193, 1.956e-6
-1.194, 2.029e-6
-1.195, 1.968e-6
-1.196, 2.037e-6
-1.197, 2.019e-6
-1.198, 2.030e-6
-1.199, 2.068e-6
-1.200, 1.992e-6
-1.201, 2.085e-6
-1.202, 2.091e-6
-1.203, 2.096e-6
-1.204, 2.141e-6
-1.205, 2.088e-6
-1.206, 2.190e-6
-1.207, 2.088e-6
-1.208, 2.157e-6
-1.209, 2.211e-6
-1.210, 2.110e-6
-1.211, 2.173e-6
-1.212, 2.157e-6
-1.213, 2.140e-6
-1.214, 2.192e-6
-1.215, 2.198e-6
-1.216, 2.239e-6
-1.217, 2.251e-6
-1.218, 2.252e-6
-1.219, 2.251e-6
-1.220, 2.278e-6
-1.221, 2.320e-6
-1.222, 2.264e-6
-1.223, 2.267e-6
-1.224, 2.334e-6
-1.225, 2.314e-6
-1.226, 2.297e-6
-1.227, 2.299e-6
-1.228, 2.335e-6
-1.229, 2.307e-6
-1.230, 2.347e-6
-1.231, 2.435e-6
-1.232, 2.397e-6
-1.233, 2.386e-6
-1.234, 2.465e-6
-1.235, 2.461e-6
-1.236, 2.444e-6
-1.237, 2.470e-6
-1.238, 2.444e-6
-1.239, 2.494e-6
-1.240, 2.503e-6
-1.241, 2.481e-6
-1.242, 2.566e-6
-1.243, 2.487e-6
-1.244, 2.500e-6
-1.245, 2.589e-6
-1.246, 2.540e-6
-1.247, 2.581e-6
-1.248, 2.548e-6
-1.249, 2.607e-6
-1.250, 2.564e-6
-1.251, 2.587e-6
-1.252, 2.656e-6
-1.253, 2.590e-6
-1.254, 2.659e-6
-1.255, 2.638e-6
-1.256, 2.594e-6
-1.257, 2.693e-6
-1.258, 2.646e-6
-1.259, 2.723e-6
-1.260, 2.656e-6
-1.261, 2.728e-6
-1.262, 2.734e-6
-1.263, 2.799e-6
-1.264, 2.768e-6
-1.265, 2.769e-6
-1.266, 2.776e-6
-1.267, 2.759e-6
-1.268, 2.795e-6
-1.269, 2.877e-6
-1.270, 2.803e-6
-1.271, 2.834e-6
-1.272, 2.797e-6
-1.273, 2.888e-6
-1.274, 2.834e-6
-1.275, 2.840e-6
-1.276, 2.835e-6
-1.277, 2.853e-6
-1.278, 2.896e-6
-1.279, 2.901e-6
-1.280, 2.869e-6
-1.281, 2.892e-6
-1.282, 2.885e-6
-1.283, 2.884e-6
-1.284, 2.954e-6
-1.285, 2.892e-6
-1.286, 2.976e-6
-1.287, 2.911e-6
-1.288, 2.999e-6
-1.289, 3.006e-6
-1.290, 2.944e-6
-1.291, 2.964e-6
-1.292, 2.906e-6
-1.293, 3.047e-6
-1.294, 2.940e-6
-1.295, 2.955e-6
-1.296, 2.993e-6
-1.297, 2.903e-6
-1.298, 2.981e-6
-1.299, 3.049e-6
-1.300, 3.023e-6
-1.301, 3.029e-6
-1.302, 3.032e-6
-1.303, 3.038e-6
-1.304, 3.052e-6
-1.305, 3.078e-6
-1.306, 2.990e-6
-1.307, 3.036e-6
-1.308, 3.089e-6
-1.309, 3.027e-6
-1.310, 3.081e-6
-1.311, 3.098e-6
-1.312, 3.085e-6
-1.313, 3.029e-6
-1.314, 3.118e-6
-1.315, 3.050e-6
-1.316, 3.089e-6
-1.317, 3.100e-6
-1.318, 3.113e-6
-1.319, 3.140e-6
-1.320, 3.071e-6
-1.321, 3.090e-6
-1.322, 3.150e-6
-1.323, 3.142e-6
-1.324, 3.052e-6
-1.325, 3.089e-6
-1.326, 3.051e-6
-1.327, 3.162e-6
-1.328, 3.172e-6
-1.329, 3.137e-6
-1.330, 3.144e-6
-1.331, 3.121e-6
-1.332, 3.131e-6
-1.333, 3.122e-6
-1.334, 3.133e-6
-1.335, 3.090e-6
-1.336, 3.182e-6
-1.337, 3.131e-6
-1.338, 3.221e-6
-1.339, 3.182e-6
-1.340, 3.059e-6
-1.341, 3.173e-6
-1.342, 3.152e-6
-1.343, 3.186e-6
-1.344, 3.146e-6
-1.345, 3.176e-6
-1.346, 3.186e-6
-1.347, 3.142e-6
-1.348, 3.169e-6
-1.349, 3.184e-6
-1.350, 3.182e-6
-1.351, 3.186e-6
-1.352, 3.150e-6
-1.353, 3.131e-6
-1.354, 3.210e-6
-1.355, 3.190e-6
-1.356, 3.171e-6
-1.357, 3.197e-6
-1.358, 3.182e-6
-1.359, 3.246e-6
-1.360, 3.207e-6
-1.361, 3.209e-6
-1.362, 3.233e-6
-1.363, 3.204e-6
-1.364, 3.149e-6
-1.365, 3.249e-6
-1.366, 3.169e-6
-1.367, 3.189e-6
-1.368, 3.279e-6
-1.369, 3.293e-6
-1.370, 3.180e-6
-1.371, 3.204e-6
-1.372, 3.248e-6
-1.373, 3.252e-6
-1.374, 3.255e-6
-1.375, 3.264e-6
-1.376, 3.266e-6
-1.377, 3.210e-6
-1.378, 3.199e-6
-1.379, 3.314e-6
-1.380, 3.241e-6
-1.381, 3.260e-6
-1.382, 3.255e-6
-1.383, 3.251e-6
-1.384, 3.279e-6
-1.385, 3.267e-6
-1.386, 3.339e-6
-1.387, 3.300e-6
-1.388, 3.312e-6
-1.389, 3.345e-6
-1.390, 3.279e-6
-1.391, 3.422e-6
-1.392, 3.379e-6
-1.393, 3.371e-6
-1.394, 3.288e-6
-1.395, 3.356e-6
-1.396, 3.337e-6
-1.397, 3.339e-6
-1.398, 3.315e-6
-1.399, 3.405e-6
-1.400, 3.367e-6
-1.401, 3.389e-6
-1.402, 3.312e-6
-1.403, 3.385e-6
-1.404, 3.396e-6
-1.405, 3.342e-6
-1.406, 3.373e-6
-1.407, 3.371e-6
-1.408, 3.397e-6
-1.409, 3.356e-6
-1.410, 3.436e-6
-1.411, 3.408e-6
-1.412, 3.378e-6
-1.413, 3.437e-6
-1.414, 3.435e-6
-1.415, 3.435e-6
-1.416, 3.405e-6
-1.417, 3.463e-6
-1.418, 3.489e-6
-1.419, 3.464e-6
-1.420, 3.489e-6
-1.421, 3.496e-6
-1.422, 3.469e-6
-1.423, 3.424e-6
-1.424, 3.554e-6
-1.425, 3.575e-6
-1.426, 3.429e-6
-1.427, 3.512e-6
-1.428, 3.469e-6
-1.429, 3.515e-6
-1.430, 3.565e-6
-1.431, 3.570e-6
-1.432, 3.547e-6
-1.433, 3.555e-6
-1.434, 3.635e-6
-1.435, 3.626e-6
-1.436, 3.538e-6
-1.437, 3.651e-6
-1.438, 3.637e-6
-1.439, 3.730e-6
-1.440, 3.635e-6
-1.441, 3.605e-6
-1.442, 3.635e-6
-1.443, 3.689e-6
-1.444, 3.659e-6
-1.445, 3.714e-6
-1.446, 3.658e-6
-1.447, 3.740e-6
-1.448, 3.719e-6
-1.449, 3.802e-6
-1.450, 3.790e-6
-1.451, 3.680e-6
-1.452, 3.775e-6
-1.453, 3.768e-6
-1.454, 3.758e-6
-1.455, 3.772e-6
-1.456, 3.785e-6
-1.457, 3.829e-6
-1.458, 3.803e-6
-1.459, 3.945e-6
-1.460, 3.872e-6
-1.461, 3.890e-6
-1.462, 3.902e-6
-1.463, 3.975e-6
-1.464, 3.904e-6
-1.465, 3.880e-6
-1.466, 3.945e-6
-1.467, 3.937e-6
-1.468, 3.933e-6
-1.469, 3.959e-6
-1.470, 4.031e-6
-1.471, 4.050e-6
-1.472, 4.060e-6
-1.473, 4.071e-6
-1.474, 4.121e-6
-1.475, 4.105e-6
-1.476, 4.078e-6
-1.477, 4.072e-6
-1.478, 4.095e-6
-1.479, 4.023e-6
-1.480, 4.088e-6
-1.481, 4.154e-6
-1.482, 4.129e-6
-1.483, 4.182e-6
-1.484, 4.215e-6
-1.485, 4.223e-6
-1.486, 4.198e-6
-1.487, 4.165e-6
-1.488, 4.257e-6
-1.489, 4.304e-6
-1.490, 4.212e-6
-1.491, 4.336e-6
-1.492, 4.308e-6
-1.493, 4.363e-6
-1.494, 4.388e-6
-1.495, 4.359e-6
-1.496, 4.365e-6
-1.497, 4.380e-6
-1.498, 4.418e-6
-1.499, 4.408e-6
-1.500, 4.396e-6
-1.501, 4.469e-6
-1.502, 4.451e-6
-1.503, 4.469e-6
-1.504, 4.483e-6
-1.505, 4.536e-6
-1.506, 4.541e-6
-1.507, 4.615e-6
-1.508, 4.602e-6
-1.509, 4.651e-6
-1.510, 4.647e-6
-1.511, 4.586e-6
-1.512, 4.685e-6
-1.513, 4.671e-6
-1.514, 4.667e-6
-1.515, 4.701e-6
-1.516, 4.802e-6
-1.517, 4.806e-6
-1.518, 4.807e-6
-1.519, 4.844e-6
-1.520, 4.825e-6
-1.521, 4.858e-6
-1.522, 4.828e-6
-1.523, 4.919e-6
-1.524, 4.876e-6
-1.525, 4.902e-6
-1.526, 4.978e-6
-1.527, 4.937e-6
-1.528, 5.051e-6
-1.529, 4.982e-6
-1.530, 5.040e-6
-1.531, 5.073e-6
-1.532, 5.055e-6
-1.533, 5.150e-6
-1.534, 5.022e-6
-1.535, 5.225e-6
-1.536, 5.177e-6
-1.537, 5.147e-6
-1.538, 5.220e-6
-1.539, 5.290e-6
-1.540, 5.283e-6
-1.541, 5.323e-6
-1.542, 5.304e-6
-1.543, 5.421e-6
-1.544, 5.340e-6
-1.545, 5.456e-6
-1.546, 5.482e-6
-1.547, 5.576e-6
-1.548, 5.597e-6
-1.549, 5.597e-6
-1.550, 5.595e-6
-1.551, 5.554e-6
-1.552, 5.653e-6
-1.553, 5.665e-6
-1.554, 5.748e-6
-1.555, 5.793e-6
-1.556, 5.760e-6
-1.557, 5.811e-6
-1.558, 5.822e-6
-1.559, 5.897e-6
-1.560, 5.912e-6
-1.561, 5.964e-6
-1.562, 6.042e-6
-1.563, 6.058e-6
-1.564, 6.005e-6
-1.565, 6.115e-6
-1.566, 6.187e-6
-1.567, 6.184e-6
-1.568, 6.279e-6
-1.569, 6.316e-6
-1.570, 6.362e-6
-1.571, 6.376e-6
-1.572, 6.384e-6
-1.573, 6.499e-6
-1.574, 6.531e-6
-1.575, 6.556e-6
-1.576, 6.616e-6
-1.577, 6.714e-6
-1.578, 6.772e-6
-1.579, 6.792e-6
-1.580, 6.838e-6
-1.581, 6.838e-6
-1.582, 6.911e-6
-1.583, 6.978e-6
-1.584, 7.065e-6
-1.585, 7.054e-6
-1.586, 7.126e-6
-1.587, 7.323e-6
-1.588, 7.343e-6
-1.589, 7.339e-6
-1.590, 7.399e-6
-1.591, 7.466e-6
-1.592, 7.449e-6
-1.593, 7.591e-6
-1.594, 7.670e-6
-1.595, 7.763e-6
-1.596, 7.828e-6
-1.597, 7.942e-6
-1.598, 7.989e-6
-1.599, 8.047e-6
-1.600, 7.637e-6
-1.599, 7.199e-6
-1.598, 7.010e-6
-1.597, 6.958e-6
-1.596, 6.788e-6
-1.595, 6.617e-6
-1.594, 6.535e-6
-1.593, 6.399e-6
-1.592, 6.346e-6
-1.591, 6.217e-6
-1.590, 6.184e-6
-1.589, 6.163e-6
-1.588, 5.889e-6
-1.587, 5.868e-6
-1.586, 5.783e-6
-1.585, 5.701e-6
-1.584, 5.630e-6
-1.583, 5.599e-6
-1.582, 5.476e-6
-1.581, 5.422e-6
-1.580, 5.338e-6
-1.579, 5.369e-6
-1.578, 5.218e-6
-1.577, 5.078e-6
-1.576, 5.087e-6
-1.575, 4.936e-6
-1.574, 4.969e-6
-1.573, 4.904e-6
-1.572, 4.802e-6
-1.571, 4.743e-6
-1.570, 4.738e-6
-1.569, 4.629e-6
-1.568, 4.575e-6
-1.567, 4.539e-6
-1.566, 4.512e-6
-1.565, 4.365e-6
-1.564, 4.332e-6
-1.563, 4.288e-6
-1.562, 4.299e-6
-1.561, 4.139e-6
-1.560, 4.106e-6
-1.559, 4.141e-6
-1.558, 4.115e-6
-1.557, 4.020e-6
-1.556, 3.993e-6
-1.555, 3.874e-6
-1.554, 3.887e-6
-1.553, 3.760e-6
-1.552, 3.812e-6
-1.551, 3.716e-6
-1.550, 3.709e-6
-1.549, 3.655e-6
-1.548, 3.610e-6
-1.547, 3.547e-6
-1.546, 3.481e-6
-1.545, 3.469e-6
-1.544, 3.436e-6
-1.543, 3.444e-6
-1.542, 3.342e-6
-1.541, 3.337e-6
-1.540, 3.270e-6
-1.539, 3.331e-6
-1.538, 3.248e-6
-1.537, 3.164e-6
-1.536, 3.210e-6
-1.535, 3.071e-6
-1.534, 3.089e-6
-1.533, 3.071e-6
-1.532, 2.967e-6
-1.531, 3.033e-6
-1.530, 3.003e-6
-1.529, 2.974e-6
-1.528, 2.942e-6
-1.527, 2.846e-6
-1.526, 2.962e-6
-1.525, 2.816e-6
-1.524, 2.826e-6
-1.523, 2.725e-6
-1.522, 2.711e-6
-1.521, 2.761e-6
-1.520, 2.688e-6
-1.519, 2.691e-6
-1.518, 2.701e-6
-1.517, 2.603e-6
-1.516, 2.584e-6
-1.515, 2.578e-6
-1.514, 2.464e-6
-1.513, 2.543e-6
-1.512, 2.483e-6
-1.511, 2.579e-6
-1.510, 2.447e-6
-1.509, 2.444e-6
-1.508, 2.402e-6
-1.507, 2.353e-6
-1.506, 2.406e-6
-1.505, 2.460e-6
-1.504, 2.362e-6
-1.503, 2.333e-6
-1.502, 2.321e-6
-1.501, 2.235e-6
-1.500, 2.268e-6
-1.499, 2.179e-6
-1.498, 2.256e-6
-1.497, 2.198e-6
-1.496, 2.160e-6
-1.495, 2.185e-6
-1.494, 2.155e-6
-1.493, 2.200e-6
-1.492, 2.191e-6
-1.491, 2.090e-6
-1.490, 2.125e-6
-1.489, 2.095e-6
-1.488, 1.975e-6
-1.487, 2.020e-6
-1.486, 1.943e-6
-1.485, 2.034e-6
-1.484, 1.962e-6
-1.483, 1.980e-6
-1.482, 1.987e-6
-1.481, 1.927e-6
-1.480, 1.943e-6
-1.479, 1.916e-6
-1.478, 1.854e-6
-1.477, 1.874e-6
-1.476, 1.847e-6
-1.475, 1.816e-6
-1.474, 1.864e-6
-1.473, 1.868e-6
-1.472, 1.826e-6
-1.471, 1.793e-6
-1.470, 1.759e-6
-1.469, 1.787e-6
-1.468, 1.776e-6
-1.467, 1.709e-6
-1.466, 1.713e-6
-1.465, 1.680e-6
-1.464, 1.706e-6
-1.463, 1.722e-6
-1.462, 1.746e-6
-1.461, 1.679e-6
-1.460, 1.646e-6
-1.459, 1.634e-6
-1.458, 1.658e-6
-1.457, 1.565e-6
-1.456, 1.570e-6
-1.455, 1.528e-6
-1.454, 1.573e-6
-1.453, 1.530e-6
-1.452, 1.540e-6
-1.451, 1.530e-6
-1.450, 1.577e-6
-1.449, 1.486e-6
-1.448, 1.509e-6
-1.447, 1.527e-6
-1.446, 1.510e-6
-1.445, 1.464e-6
-1.444, 1.458e-6
-1.443, 1.472e-6
-1.442, 1.415e-6
-1.441, 1.445e-6
-1.440, 1.410e-6
-1.439, 1.400e-6
-1.438, 1.412e-6
-1.437, 1.361e-6
-1.436, 1.378e-6
-1.435, 1.357e-6
-1.434, 1.339e-6
-1.433, 1.388e-6
-1.432, 1.328e-6
-1.431, 1.332e-6
-1.430, 1.338e-6
-1.429, 1.261e-6
-1.428, 1.263e-6
-1.427, 1.222e-6
-1.426, 1.266e-6
-1.425, 1.252e-6
-1.424, 1.202e-6
-1.423, 1.191e-6
-1.422, 1.179e-6
-1.421, 1.208e-6
-1.420, 1.229e-6
-1.419, 1.225e-6
-1.418, 1.243e-6
-1.417, 1.252e-6
-1.416, 1.232e-6
-1.415, 1.195e-6
-1.414, 1.164e-6
-1.413, 1.131e-6
-1.412, 1.081e-6
-1.411, 1.132e-6
-1.410, 1.126e-6
-1.409, 1.062e-6
-1.408, 1.122e-6
-1.407, 1.096e-6
-1.406, 1.087e-6
-1.405, 1.076e-6
-1.404, 1.049e-6
-1.403, 1.103e-6
-1.402, 1.047e-6
-1.401, 1.030e-6
-1.400, 1.021e-6
-1.399, 1.047e-6
-1.398, 9.982e-7
-1.397, 9.785e-7
-1.396, 1.052e-6
-1.395, 1.049e-6
-1.394, 1.033e-6
-1.393, 1.024e-6
-1.392, 9.331e-7
-1.391, 1.007e-6
-1.390, 9.016e-7
-1.389, 9.716e-7
-1.388, 9.568e-7
-1.387, 9.272e-7
-1.386, 9.617e-7
-1.385, 1.011e-6
-1.384, 9.588e-7
-1.383, 9.627e-7
-1.382, 8.572e-7
-1.381, 9.578e-7
-1.380, 9.065e-7
-1.379, 8.739e-7
-1.378, 8.473e-7
-1.377, 8.276e-7
-1.376, 8.206e-7
-1.375, 9.173e-7
-1.374, 8.808e-7
-1.373, 8.660e-7
-1.372, 8.147e-7
-1.371, 8.789e-7
-1.370, 8.374e-7
-1.369, 8.394e-7
-1.368, 7.693e-7
-1.367, 8.335e-7
-1.366, 8.828e-7
-1.365, 7.733e-7
-1.364, 8.641e-7
-1.363, 8.128e-7
-1.362, 7.427e-7
-1.361, 7.743e-7
-1.360, 7.753e-7
-1.359, 7.634e-7
-1.358, 7.427e-7
-1.357, 7.703e-7
-1.356, 7.585e-7
-1.355, 7.506e-7
-1.354, 7.624e-7
-1.353, 6.894e-7
-1.352, 7.220e-7
-1.351, 7.309e-7
-1.350, 7.042e-7
-1.349, 7.388e-7
-1.348, 6.944e-7
-1.347, 6.815e-7
-1.346, 7.328e-7
-1.345, 6.835e-7
-1.344, 5.888e-7
-1.343, 6.845e-7
-1.342, 7.319e-7
-1.341, 6.450e-7
-1.340, 6.746e-7
-1.339, 6.667e-7
-1.338, 5.987e-7
-1.337, 6.046e-7
-1.336, 6.125e-7
-1.335, 6.450e-7
-1.334, 6.066e-7
-1.333, 6.490e-7
-1.332, 6.667e-7
-1.331, 7.121e-7
-1.330, 5.898e-7
-1.329, 6.026e-7
-1.328, 5.375e-7
-1.327, 5.641e-7
-1.326, 5.474e-7
-1.325, 5.829e-7
-1.324, 5.750e-7
-1.323, 5.168e-7
-1.322, 4.714e-7
-1.321, 5.247e-7
-1.320, 4.813e-7
-1.319, 4.951e-7
-1.318, 4.921e-7
-1.317, 4.990e-7
-1.316, 5.079e-7
-1.315, 5.434e-7
-1.314, 4.418e-7
-1.313, 4.388e-7
-1.312, 4.961e-7
-1.311, 4.221e-7
-1.310, 5.247e-7
-1.309, 5.020e-7
-1.308, 4.339e-7
-1.307, 5.079e-7
-1.306, 4.674e-7
-1.305, 4.349e-7
-1.304, 4.418e-7
-1.303, 4.290e-7
-1.302, 3.560e-7
-1.301, 3.757e-7
-1.300, 3.570e-7
-1.299, 3.066e-7
-1.298, 3.609e-7
-1.297, 3.540e-7
-1.296, 3.195e-7
-1.295, 3.905e-7
-1.294, 3.510e-7
-1.293, 3.747e-7
-1.292, 3.441e-7
-1.291, 3.244e-7
-1.290, 3.116e-7
-1.289, 3.185e-7
-1.288, 3.056e-7
-1.287, 2.672e-7
-1.286, 3.165e-7
-1.285, 2.652e-7
-1.284, 2.474e-7
-1.283, 2.386e-7
-1.282, 3.007e-7
-1.281, 2.790e-7
-1.280, 1.764e-7
-1.279, 2.613e-7
-1.278, 2.474e-7
-1.277, 2.346e-7
-1.276, 2.386e-7
-1.275, 1.892e-7
-1.274, 1.725e-7
-1.273, 1.557e-7
-1.272, 1.853e-7
-1.271, 1.626e-7
-1.270, 1.527e-7
-1.269, 1.350e-7
-1.268, 1.261e-7
-1.267, 1.725e-7
-1.266, 1.498e-7
-1.265, 1.715e-7
-1.264, 6.886e-8
-1.263, 1.438e-7
-1.262, 1.123e-7
-1.261, 9.846e-8
-1.260, 7.281e-8
-1.259, 5.722e-9
-1.258, 9.550e-8
-1.257, 2.940e-8
-1.256, 1.448e-7
-1.255, 9.748e-8
-1.254, -1.401e-8
-1.253, 4.519e-8
-1.252, 1.776e-9
-1.251, 8.564e-8
-1.250, 4.815e-8
-1.249, 1.263e-8
-1.248, 3.729e-8
-1.247, -1.796e-8
-1.246, 6.689e-8
-1.245, -4.459e-8
-1.244, 8.682e-9
-1.243, -1.105e-8
-1.242, -2.585e-8
-1.241, -5.841e-8
-1.240, -2.782e-8
-1.239, -4.163e-8
-1.238, -6.038e-8
-1.237, -1.137e-7
-1.236, -1.127e-7
-1.235, 2.762e-9
-1.234, -1.058e-7
-1.233, -1.235e-7
-1.232, -7.103e-9
-1.231, -8.603e-8
-1.230, -1.442e-7
-1.229, -1.511e-7
-1.228, -1.383e-7
-1.227, -1.906e-7
-1.226, -1.423e-7
-1.225, -1.137e-7
-1.224, -1.807e-7
-1.223, -8.998e-8
-1.222, -1.729e-7
-1.221, -1.393e-7
-1.220, -1.758e-7
-1.219, -1.778e-7
-1.218, -2.005e-7
-1.217, -2.232e-7
-1.216, -2.044e-7
-1.215, -2.261e-7
-1.214, -1.581e-7
-1.213, -2.143e-7
-1.212, -2.932e-7
-1.211, -1.807e-7
-1.210, -2.814e-7
-1.209, -2.232e-7
-1.208, -2.390e-7
-1.207, -2.202e-7
-1.206, -2.764e-7
-1.205, -2.577e-7
-1.204, -2.784e-7
-1.203, -2.834e-7
-1.202, -2.745e-7
-1.201, -2.981e-7
-1.200, -2.981e-7
-1.199, -3.524e-7
-1.198, -3.031e-7
-1.197, -2.705e-7
-1.196, -3.120e-7
-1.195, -2.873e-7
-1.194, -3.445e-7
-1.193, -4.027e-7
-1.192, -3.692e-7
-1.191, -3.643e-7
-1.190, -3.307e-7
-1.189, -4.057e-7
-1.188, -4.106e-7
-1.187, -3.771e-7
-1.186, -4.057e-7
-1.185, -4.008e-7
-1.184, -3.998e-7
-1.183, -3.554e-7
-1.182, -4.264e-7
-1.181, -3.929e-7
-1.180, -4.037e-7
-1.179, -4.540e-7
-1.178, -4.304e-7
-1.177, -5.734e-7
-1.176, -4.156e-7
-1.175, -4.442e-7
-1.174, -4.836e-7
-1.173, -4.629e-7
-1.172, -4.501e-7
-1.171, -4.491e-7
-1.170, -4.866e-7
-1.169, -4.402e-7
-1.168, -5.211e-7
-1.167, -4.570e-7
-1.166, -5.103e-7
-1.165, -5.300e-7
-1.164, -5.172e-7
-1.163, -5.399e-7
-1.162, -4.540e-7
-1.161, -5.468e-7
-1.160, -4.945e-7
-1.159, -5.211e-7
-1.158, -5.280e-7
-1.157, -4.955e-7
-1.156, -5.517e-7
-1.155, -5.438e-7
-1.154, -6.405e-7
-1.153, -6.237e-7
-1.152, -5.922e-7
-1.151, -5.290e-7
-1.150, -5.843e-7
-1.149, -5.645e-7
-1.148, -5.724e-7
-1.147, -5.862e-7
-1.146, -5.912e-7
-1.145, -5.655e-7
-1.144, -6.040e-7
-1.143, -6.178e-7
-1.142, -6.099e-7
-1.141, -6.948e-7
-1.140, -6.119e-7
-1.139, -6.543e-7
-1.138, -7.086e-7
-1.137, -6.563e-7
-1.136, -6.583e-7
-1.135, -6.622e-7
-1.134, -7.027e-7
-1.133, -7.214e-7
-1.132, -7.155e-7
-1.131, -6.948e-7
-1.130, -7.490e-7
-1.129, -7.115e-7
-1.128, -7.303e-7
-1.127, -7.382e-7
-1.126, -7.372e-7
-1.125, -6.859e-7
-1.124, -7.411e-7
-1.123, -8.112e-7
-1.122, -7.461e-7
-1.121, -7.993e-7
-1.120, -7.826e-7
-1.119, -8.181e-7
-1.118, -7.747e-7
-1.117, -7.559e-7
-1.116, -8.003e-7
-1.115, -8.408e-7
-1.114, -8.704e-7
-1.113, -8.230e-7
-1.112, -8.664e-7
-1.111, -8.566e-7
-1.110, -8.408e-7
-1.109, -8.635e-7
-1.108, -8.743e-7
-1.107, -9.000e-7
-1.106, -8.220e-7
-1.105, -8.605e-7
-1.104, -8.506e-7
-1.103, -9.237e-7
-1.102, -8.773e-7
-1.101, -9.256e-7
-1.100, -9.089e-7
-1.099, -9.049e-7
-1.098, -9.207e-7
-1.097, -9.592e-7
-1.096, -9.513e-7
-1.095, -9.927e-7
-1.094, -9.552e-7
-1.093, -9.286e-7
-1.092, -1.005e-6
-1.091, -9.523e-7
-1.090, -9.907e-7
-1.089, -9.947e-7
-1.088, -1.058e-6
-1.087, -9.769e-7
-1.086, -1.048e-6
-1.085, -1.043e-6
-1.084, -1.057e-6
-1.083, -1.029e-6
-1.082, -9.986e-7
-1.081, -1.105e-6
-1.080, -1.031e-6
-1.079, -1.083e-6
-1.078, -1.136e-6
-1.077, -1.139e-6
-1.076, -1.050e-6
-1.075, -1.128e-6
-1.074, -1.114e-6
-1.073, -1.159e-6
-1.072, -1.132e-6
-1.071, -1.145e-6
-1.070, -1.141e-6
-1.069, -1.144e-6
-1.068, -1.190e-6
-1.067, -1.167e-6
-1.066, -1.153e-6
-1.065, -1.263e-6
-1.064, -1.250e-6
-1.063, -1.250e-6
-1.062, -1.231e-6
-1.061, -1.211e-6
-1.060, -1.227e-6
-1.059, -1.250e-6
-1.058, -1.234e-6
-1.057, -1.250e-6
-1.056, -1.310e-6
-1.055, -1.266e-6
-1.054, -1.285e-6
-1.053, -1.286e-6
-1.052, -1.321e-6
-1.051, -1.319e-6
-1.050, -1.282e-6
-1.049, -1.423e-6
-1.048, -1.319e-6
-1.047, -1.366e-6
-1.046, -1.341e-6
-1.045, -1.465e-6
-1.044, -1.409e-6
-1.043, -1.415e-6
-1.042, -1.411e-6
-1.041, -1.400e-6
-1.040, -1.460e-6
-1.039, -1.390e-6
-1.038, -1.440e-6
-1.037, -1.460e-6
-1.036, -1.469e-6
-1.035, -1.497e-6
-1.034, -1.495e-6
-1.033, -1.448e-6
-1.032, -1.582e-6
-1.031, -1.487e-6
-1.030, -1.552e-6
-1.029, -1.524e-6
-1.028, -1.533e-6
-1.027, -1.489e-6
-1.026, -1.599e-6
-1.025, -1.548e-6
-1.024, -1.610e-6
-1.023, -1.613e-6
-1.022, -1.637e-6
-1.021, -1.569e-6
-1.020, -1.644e-6
-1.019, -1.591e-6
-1.018, -1.670e-6
-1.017, -1.641e-6
-1.016, -1.649e-6
-1.015, -1.661e-6
-1.014, -1.688e-6
-1.013, -1.709e-6
-1.012, -1.621e-6
-1.011, -1.761e-6
-1.010, -1.732e-6
-1.009, -1.768e-6
-1.008, -1.694e-6
-1.007, -1.790e-6
-1.006, -1.794e-6
-1.005, -1.752e-6
-1.004, -1.737e-6
-1.003, -1.789e-6
-1.002, -1.757e-6
-1.001, -1.830e-6
