Potential V vs RHE, Current mA cm-2
0.013299999999999867,-4.9302688800296535
0.012299999999999978,-8.11478401602585
0.011299999999999866,-10.208556739826104
0.010299999999999976,-11.691174182084664
0.009299999999999864,-12.781916594280606
0.008299999999999974,-13.567081365705702
0.007299999999999862,-14.30273124163552
0.006299999999999972,-14.967645552572087
0.00529999999999986,-15.491088733522153
0.0042999999999999705,-15.972090575476265
0.0032999999999998586,-16.354062626439823
0.0022999999999999687,-16.622857773414182
0.0012999999999998568,-16.792623129397985
0.00029999999999996696,-16.919947146385837
-0.000700000000000145,-17.061418276372343
-0.0017000000000000348,-17.2736249713521
-0.0027000000000001467,-17.542420118326454
-0.0037000000000000366,-17.797068152302163
-0.0047000000000001485,-17.924392169290012
-0.005700000000000038,-18.06586329927652
-0.00670000000000015,-18.10830463827247
-0.00770000000000004,-18.10830463827247
-0.008700000000000152,-18.19318731626437
-0.009700000000000042,-18.27806999425627
-0.010700000000000154,-18.44783535024008
-0.011700000000000044,-18.674189158218486
-0.012700000000000156,-18.80151317520634
-0.013700000000000045,-18.92883719219419
-0.014700000000000157,-18.92883719219419
-0.015700000000000047,-18.88639585319824
-0.01670000000000016,-18.88639585319824
-0.01770000000000005,-18.97127853119014
-0.01870000000000016,-19.112749661176647
-0.01970000000000005,-19.28251501716045
-0.020700000000000163,-19.49472171214021
-0.021700000000000053,-19.579604390132108
-0.022700000000000164,-19.636192842126707
-0.023700000000000054,-19.678634181122664
-0.024700000000000166,-19.678634181122664
-0.025700000000000056,-19.763516859114564
-0.026700000000000168,-19.848399537106463
-0.027700000000000058,-20.06060623208622
-0.02870000000000017,-20.286960040064624
-0.02970000000000006,-20.414284057052477
-0.03070000000000017,-20.499166735044383
-0.03170000000000006,-20.456725396048434
-0.03270000000000017,-20.456725396048434
-0.03370000000000006,-20.499166735044383
-0.034700000000000175,-20.584049413036283
-0.035700000000000065,-20.810403221014692
-0.03670000000000018,-20.980168576998494
-0.03770000000000007,-21.149933932982297
-0.03870000000000018,-21.291405062968803
-0.03970000000000007,-21.248963723972853
-0.04070000000000018,-21.291405062968803
-0.04170000000000007,-21.291405062968803
-0.04270000000000018,-21.376287740960702
-0.04370000000000007,-21.54605309694451
-0.044700000000000184,-21.729965565926964
-0.045700000000000074,-21.94217226090672
-0.046700000000000186,-22.111937616890522
-0.047700000000000076,-22.111937616890522
-0.04870000000000019,-22.15437895588647
-0.04970000000000008,-22.15437895588647
-0.05070000000000019,-22.196820294882425
-0.05170000000000008,-22.42317410286083
-0.05270000000000019,-22.592939458844636
-0.05370000000000008,-22.861734605818995
-0.05470000000000019,-22.989058622806844
-0.05570000000000008,-23.1163826397947
-0.056700000000000195,-23.073941300798747
-0.057700000000000085,-23.1163826397947
-0.058700000000000196,-23.15882397879065
-0.059700000000000086,-23.300295108777156
-0.0607000000000002,-23.51250180375691
-0.06170000000000009,-23.724708498736668
-0.0627000000000002,-23.993503645711023
-0.06370000000000009,-24.078386323702922
-0.0647000000000002,-24.078386323702922
-0.06570000000000009,-24.120827662698876
-0.0667000000000002,-24.120827662698876
-0.0677000000000001,-24.20571034069078
-0.0687000000000002,-24.389622809673234
-0.0697000000000001,-24.601829504652986
-0.07070000000000021,-24.870624651627345
-0.0717000000000001,-24.997948668615198
-0.07270000000000021,-25.0828313466071
-0.0737000000000001,-25.12527268560305
-0.07470000000000021,-25.12527268560305
-0.0757000000000001,-25.295038041586857
-0.07670000000000021,-25.478950510569312
-0.0777000000000001,-25.73359854454502
-0.07870000000000021,-26.002393691519377
-0.0797000000000001,-26.17215904750318
-0.08070000000000022,-26.34192440348698
-0.0817000000000001,-26.440954194477534
-0.08270000000000022,-26.483395533473487
-0.08370000000000011,-26.61071955046134
-0.08470000000000022,-26.780484906445146
-0.08570000000000011,-27.049280053419505
-0.08670000000000022,-27.34636942639116
-0.08770000000000011,-27.572723234369565
-0.08870000000000022,-27.742488590353368
-0.08970000000000011,-27.827371268345274
-0.09070000000000022,-27.869812607341224
-0.09170000000000011,-28.011283737327723
-0.09270000000000023,-28.13860775431558
-0.09370000000000012,-28.393255788291288
-0.09470000000000023,-28.662050935265643
-0.09570000000000012,-28.91669896924135
-0.09670000000000023,-29.100611438223805
-0.09770000000000012,-29.22793545521166
-0.09870000000000023,-29.31281813320356
-0.09970000000000012,-29.440142150191413
-0.10070000000000023,-29.581613280177915
-0.10170000000000012,-29.793819975157668
-0.10270000000000024,-30.10505646112798
-0.10370000000000013,-30.359704495103685
-0.10470000000000024,-30.571911190083444
-0.10570000000000013,-30.71338232006995
-0.10670000000000024,-30.8407063370578
-0.10770000000000013,-30.925589015049702
-0.10870000000000024,-31.052913032037555
-0.10970000000000013,-31.27926684001596
-0.11070000000000024,-31.57635621298762
-0.11170000000000013,-31.84515135996197
-0.11270000000000002,-32.09979939393769
-0.11370000000000013,-32.32615320191609
-0.11470000000000002,-32.368594540912035
-0.11570000000000014,-32.49591855789989
-0.11670000000000003,-32.58080123589179
-0.11770000000000014,-32.764713704874254
-0.11870000000000003,-33.01936173884996
-0.11970000000000014,-33.288156885824314
-0.12070000000000003,-33.627687597791926
-0.12170000000000014,-33.89648274476628
-0.12270000000000003,-34.06624810075008
-0.12370000000000014,-34.236013456733886
-0.12470000000000003,-34.377484586720385
-0.12570000000000014,-34.632132620696105
-0.12670000000000003,-34.90092776767045
-0.12770000000000015,-35.198017140642115
-0.12870000000000004,-35.55169496560837
-0.12970000000000015,-35.806342999584075
-0.13070000000000004,-35.99025546856653
-0.13170000000000015,-36.11757948555439
-0.13270000000000004,-36.244903502542236
-0.13370000000000015,-36.4288159715247
-0.13470000000000004,-36.725905344496354
-0.13570000000000015,-37.037141830466666
-0.13670000000000004,-37.376672542434264
-0.13770000000000016,-37.645467689408626
-0.13870000000000005,-37.90011572338433
-0.13970000000000016,-38.12646953136274
-0.14070000000000005,-38.211352209354644
-0.14170000000000016,-38.38111756533845
-0.14270000000000005,-38.6499127123128
-0.14370000000000016,-38.90456074628851
-0.14470000000000005,-39.258238571254765
-0.14570000000000016,-39.61191639622103
-0.14670000000000005,-39.90900576919269
-0.14770000000000016,-40.135359577171094
-0.14870000000000005,-40.26268359415894
-0.14970000000000017,-40.3900076111468
-0.15070000000000006,-40.616361419125205
-0.15170000000000017,-40.91345079209687
-0.15270000000000006,-41.267128617063115
-0.15370000000000017,-41.66324778102533
-0.15470000000000006,-41.91789581500104
-0.15570000000000017,-42.186690961975394
-0.15670000000000006,-42.31401497896325
-0.15770000000000017,-42.39889765695515
-0.15870000000000006,-42.653545690930855
-0.15970000000000018,-42.87989949890926
-0.16070000000000007,-43.27601866287147
-0.16170000000000018,-43.57310803584313
-0.16270000000000007,-43.92678586080939
-0.16370000000000018,-44.223875233781044
-0.16470000000000007,-44.45022904175945
-0.16570000000000018,-44.619994397743255
-0.16670000000000007,-44.80390686672572
-0.16770000000000018,-45.05855490070142
-0.16870000000000007,-45.36979138667173
-0.16970000000000018,-45.79420477663124
-0.17070000000000007,-46.147882601597495
-0.17170000000000019,-46.45911908756781
-0.17270000000000008,-46.628884443551605
-0.1737000000000002,-46.84109113853137
-0.17470000000000008,-47.02500360751382
-0.1757000000000002,-47.19476896349763
-0.17670000000000008,-47.54844678846388
-0.1777000000000002,-47.84553616143554
-0.17870000000000008,-48.24165532539775
-0.1797000000000002,-48.55289181136806
-0.18070000000000008,-48.80753984534376
-0.1817000000000002,-48.97730520132757
-0.18270000000000008,-49.16121767031002
-0.1837000000000002,-49.41586570428573
-0.1847000000000001,-49.68466085126009
-0.1857000000000002,-50.0807800152223
-0.1867000000000001,-50.42031072718991
-0.1877000000000002,-50.81642989115212
-0.1887000000000001,-51.17010771611838
-0.1897000000000002,-51.38231441109813
-0.1907000000000001,-51.594521106077885
-0.1917000000000001,-51.82087491405629
-0.19269999999999998,-52.11796428702795
-0.1937000000000001,-52.42920077299826
-0.19469999999999998,-52.82531993696047
-0.1957000000000001,-53.26388043991864
-0.19669999999999999,-53.56096981289029
-0.1977000000000001,-53.82976495986464
-0.1987,-54.0419716548444
-0.1997000000000001,-54.2117370108282
-0.2007,-54.52297349679851
-0.2017000000000001,-54.876651321764776
-0.2027,-55.25862337272834
-0.2037000000000001,-55.65474253669055
-0.2047,-56.008420361656796
-0.2057000000000001,-56.26306839563251
-0.2067,-56.489422203610914
-0.2077000000000001,-56.65918755959472
-0.2087,-56.97042404556503
-0.2097000000000001,-57.22507207954074
-0.2107,-57.57874990450699
-0.2117000000000001,-57.974869068469204
-0.2127,-58.35684111943277
-0.2137000000000001,-58.71051894439902
-0.2147,-58.92272563937878
-0.2157000000000001,-59.23396212534908
-0.2167,-59.403727481332886
-0.21770000000000012,-59.7149639673032
-0.2187,-60.02620045327351
-0.21970000000000012,-60.45061384323302
-0.2207,-60.80429166819927
-0.22170000000000012,-61.11552815416958
-0.2227,-61.37017618814529
-0.22370000000000012,-61.53994154412909
-0.2247,-61.6814126741156
-0.22570000000000012,-61.936060708091304
-0.2267,-62.24729719406162
-0.22770000000000012,-62.64341635802381
-0.22870000000000001,-63.02538840898739
-0.22970000000000013,-63.3366248949577
-0.23070000000000002,-63.59127292893339
-0.23170000000000013,-63.77518539791585
-0.23270000000000002,-63.944950753899654
-0.23370000000000013,-64.15715744887942
-0.23470000000000002,-64.46839393484973
-0.23570000000000013,-64.82207175981598
-0.23670000000000002,-65.16160247178358
-0.2376999999999999,-65.51528029674984
-0.23870000000000002,-65.91139946071206
-0.2396999999999999,-66.12360615569182
-0.24070000000000003,-66.39240130266617
-0.24169999999999991,-66.60460799764593
-0.24270000000000003,-66.87340314462028
-0.24369999999999992,-67.34025787357575
-0.24470000000000003,-67.73637703753796
-0.24569999999999992,-68.13249620150016
-0.24670000000000003,-68.48617402646643
-0.24769999999999992,-68.69838072144618
-0.24870000000000003,-68.91058741642594
-0.24969999999999992,-69.13694122440434
-0.25070000000000003,-69.39158925838004
-0.2516999999999999,-69.78770842234226
-0.25270000000000004,-70.18382758630447
-0.2536999999999999,-70.57994675026669
-0.25470000000000004,-70.96191880123024
-0.2556999999999999,-71.2307139482046
-0.25670000000000004,-71.44292064318435
-0.25769999999999993,-71.66927445116276
-0.25870000000000004,-71.8814811461425
-0.25969999999999993,-72.23515897110877
-0.26070000000000004,-72.57468968307639
-0.26169999999999993,-72.97080884703858
-0.26270000000000004,-73.2820453330089
-0.26369999999999993,-73.57913470598055
-0.26470000000000005,-73.80548851395896
-0.26569999999999994,-74.0176952089387
-0.26670000000000005,-74.28649035591307
-0.26769999999999994,-74.58357972888473
-0.26870000000000005,-74.97969889284694
-0.26969999999999994,-75.4182593958051
-0.27070000000000005,-75.85681989876326
-0.27169999999999994,-76.15390927173492
-0.27270000000000005,-76.38026307971333
-0.27369999999999994,-76.5924697746931
-0.27470000000000006,-76.71979379168094
-0.27569999999999995,-77.03103027765125
-0.27670000000000006,-77.38470810261751
-0.27769999999999995,-77.7242388145851
-0.27870000000000006,-78.20524065653922
-0.27969999999999995,-78.51647714250953
-0.28070000000000006,-78.8135665154812
-0.28169999999999995,-78.9550376454677
-0.28270000000000006,-79.16724434044745
-0.28369999999999995,-79.42189237442317
-0.28470000000000006,-79.73312886039348
-0.28569999999999995,-80.12924802435568
-0.28670000000000007,-80.52536718831789
-0.28769999999999996,-80.86489790028548
-0.28870000000000007,-81.21857572525175
-0.28969999999999996,-81.38834108123557
-0.29070000000000007,-81.57225355021802
-0.29169999999999996,-81.82690158419373
-0.29270000000000007,-82.18057940915998
-0.29369999999999996,-82.56255146012353
-0.2947000000000001,-83.0011119630817
-0.29569999999999996,-83.39723112704392
-0.2967000000000001,-83.83579163000208
-0.29769999999999996,-84.04799832498183
-0.2987000000000001,-84.27435213296022
-0.29969999999999997,-84.48655882793999
-0.3007000000000001,-84.75535397491434
-0.30169999999999997,-85.13732602587791
-0.3027000000000001,-85.53344518984011
-0.30369999999999997,-86.01444703179425
-0.3047000000000001,-86.41056619575643
-0.30569999999999997,-86.75009690772404
-0.3067000000000001,-86.97645071570246
-0.3077,-87.23109874967815
-0.3087000000000001,-87.54233523564847
-0.3097,-87.89601306061473
-0.3107000000000001,-88.37701490256885
-0.3117,-88.8438696315243
-0.3127000000000001,-89.28243013448247
-0.3137,-89.63610795944872
-0.3147000000000001,-89.94734444541903
-0.3157,-90.24443381839069
-0.3167000000000001,-90.59811164335694
-0.3177,-90.99423080731917
-0.3187000000000001,-91.51767398826922
-0.3197,-92.04111716921928
-0.3207000000000001,-92.64944302816124
-0.3217,-93.08800353111941
-0.3227000000000001,-93.42753424308701
-0.3237,-93.82365340704924
-0.3247000000000001,-94.13488989301955
-0.3257,-94.55930328297906
-0.3267000000000001,-95.08274646392913
-0.3277,-95.64863098387512
-0.3287000000000001,-96.31354529481169
-0.3297,-96.87942981475771
-0.3307000000000001,-97.36043165671182
-0.3317,-97.78484504667132
-0.3327000000000001,-98.2234055496295
-0.3337,-98.7044073915836
-0.3347000000000001,-99.31273325052557
-0.3357,-99.93520622246619
-0.3367000000000001,-100.62841475940007
-0.3377,-101.23674061834203
-0.3387000000000001,-101.84506647728399
-0.3397,-102.36850965823406
-0.3407000000000001,-102.84951150018817
-0.3417,-103.37295468113824
-0.3427000000000001,-103.98128054008019
-0.3437,-104.68863619001272
-0.3447000000000001,-105.42428606594254
-0.3457,-106.21652439386696
-0.3467000000000001,-106.90973293080083
-0.3477,-107.56050012873874
-0.3487000000000001,-108.12638464868475
-0.3497,-108.73471050762672
-0.3507000000000001,-109.44206615755924
-0.3517,-110.1352746944931
-0.3527000000000001,-110.96995436141347
-0.3537,-111.8753695933271
-0.3547000000000001,-112.66760792125153
-0.3557,-113.40325779718134
-0.35670000000000013,-114.11061344711386
-0.3577,-114.76138064505177
-0.35870000000000013,-115.53947185997755
-0.3597,-116.28926884890602
-0.36070000000000013,-117.19468408081964
-0.3617,-118.11424642573192
-0.3626999999999999,-119.03380877064419
-0.3637,-119.9109297765605
-0.3646999999999999,-120.68902099148629
-0.3657,-121.48125931941068
-0.3666999999999999,-122.30179187333242
-0.3677,-123.2213542182447
-0.3686999999999999,-124.22579924114888
-0.36970000000000003,-125.31512694204494
-0.3706999999999999,-126.36201330394509
-0.37170000000000003,-127.4088996658452
-0.3726999999999999,-128.32846201075745
-0.37370000000000003,-129.2338772426711
-0.3746999999999999,-130.19588092657932
-0.37570000000000003,-131.24276728847948
-0.3766999999999999,-132.37453632837148
-0.37770000000000004,-133.5628938202581
-0.3786999999999999,-134.82198687713802
-0.37970000000000004,-136.03863859502192
-0.3806999999999999,-137.08552495692206
-0.38170000000000004,-138.17485265781812
-0.38269999999999993,-139.1792976807223
-0.38370000000000004,-140.325213833613
-0.38469999999999993,-141.47112998650366
-0.38570000000000004,-142.7443701563822
-0.38669999999999993,-141.18818772653066
-0.38570000000000004,-135.65666654405837
-0.38469999999999993,-131.5964451134457
-0.38370000000000004,-128.05966686378312
-0.38269999999999993,-124.91900777808273
-0.38170000000000004,-122.08958517835266
-0.3806999999999999,-119.5996932905902
-0.37970000000000004,-117.29371387181018
-0.3786999999999999,-115.15749980901398
-0.37770000000000004,-113.06372708521374
-0.3766999999999999,-110.96995436141347
-0.37570000000000003,-108.83374029861727
-0.3746999999999999,-106.68337912282242
-0.37370000000000003,-104.64619485101677
-0.3726999999999999,-102.72218748320032
-0.37170000000000003,-100.84062145437981
-0.3706999999999999,-99.10052655554581
-0.36970000000000003,-97.44531433470372
-0.3686999999999999,-95.74766077486568
-0.3677,-93.95097742403709
-0.3666999999999999,-92.16844118620713
-0.3657,-90.37175783537855
-0.3646999999999999,-88.63166293654454
-0.3637,-86.97645071570246
-0.3626999999999999,-85.44856251184822
-0.3617,-83.96311564698992
-0.36070000000000013,-82.43522744313569
-0.3597,-80.9497805782774
-0.35870000000000013,-79.2945683574353
-0.3577,-77.76668015358106
-0.35670000000000013,-76.23879194972683
-0.3557,-74.80993353686314
-0.3547000000000001,-73.49425202798865
-0.3537,-72.23515897110877
-0.3527000000000001,-71.0043601402262
-0.3517,-69.6603844053544
-0.3507000000000001,-68.25982021848802
-0.3497,-66.87340314462028
-0.3487000000000001,-65.43039761875795
-0.3477,-64.11471610988345
-0.3467000000000001,-62.89806439199953
-0.3457,-61.72385401311155
-0.3447000000000001,-60.67696765121143
-0.3437,-59.502757272323436
-0.3427000000000001,-58.22951710244491
-0.3417,-57.012865384560975
-0.3407000000000001,-55.6971838756865
-0.3397,-54.52297349679851
-0.3387000000000001,-53.433645795902436
-0.3377,-52.42920077299826
-0.3367000000000001,-51.46719708909004
-0.3357,-50.50519340518181
-0.3347000000000001,-49.458307043281685
-0.3337,-48.36897934238561
-0.3327000000000001,-47.23721030249357
-0.3317,-46.147882601597495
-0.3307000000000001,-45.10099623969737
-0.3297,-44.181433894785094
-0.3287000000000001,-43.27601866287147
-0.3277,-42.39889765695515
-0.3267000000000001,-41.47933531204288
-0.3257,-40.51733162813464
-0.3247000000000001,-39.47044526623452
-0.3237,-38.38111756533845
-0.3227000000000001,-37.47570233342482
-0.3217,-36.5985813275085
-0.3207000000000001,-35.806342999584075
-0.3197,-35.07069312365426
-0.3187000000000001,-34.278454795729836
-0.3177,-33.41548090281216
-0.3167000000000001,-32.49591855789989
-0.3157,-31.533914873991666
-0.3147000000000001,-30.7558236590659
-0.3137,-29.96358533114148
-0.3127000000000001,-29.22793545521166
-0.3117,-28.577168257273744
-0.3107000000000001,-27.827371268345274
-0.3097,-27.134162731411404
-0.3087000000000001,-26.29948306449103
-0.3077,-25.478950510569312
-0.3067000000000001,-24.686712182644893
-0.30569999999999997,-23.951062306715073
-0.3047000000000001,-23.342736447773106
-0.30369999999999997,-22.72026347583249
-0.3027000000000001,-22.15437895588647
-0.30169999999999997,-21.503611757948562
-0.3007000000000001,-20.76796188201874
-0.29969999999999997,-20.01816489309027
-0.2987000000000001,-19.28251501716045
-0.29769999999999996,-18.674189158218486
-0.2967000000000001,-18.06586329927652
-0.29569999999999996,-17.584861457322408
-0.2947000000000001,-17.103859615368293
-0.29369999999999996,-16.580416434418233
-0.29270000000000007,-15.972090575476265
-0.29169999999999996,-15.307176264539699
-0.29070000000000007,-14.65640906660178
-0.28969999999999996,-14.046668496359947
-0.28870000000000007,-13.523225315409885
-0.28769999999999996,-13.13135028534727
-0.28670000000000007,-12.651763154693022
-0.28569999999999995,-12.214617363034726
-0.28470000000000006,-11.73503023238048
-0.28369999999999995,-11.123874950838783
-0.28270000000000006,-10.557990430892769
-0.28169999999999995,-9.946835149351072
-0.28070000000000006,-9.467248018696827
-0.27969999999999995,-9.073958277334345
-0.27870000000000006,-8.68208324727173
-0.27769999999999995,-8.332649556205066
-0.27670000000000006,-7.896918475846635
-0.27569999999999995,-7.37347529489657
-0.27470000000000006,-6.806176063650692
-0.27369999999999994,-6.238876832404812
-0.27270000000000005,-5.759289701750564
-0.27169999999999994,-5.411270721983764
-0.27070000000000005,-5.0618370309171015
-0.26969999999999994,-4.800115440442069
-0.26870000000000005,-4.406825699079589
-0.26769999999999994,-3.971094618721158
-0.26670000000000005,-3.447651437771094
-0.26569999999999994,-2.924208256821031
