Potential V vs RHE, Current mA cm-2
0.013299999999999867,18.80151317520634
0.012299999999999978,17.316066310348052
0.011299999999999866,15.91550212348166
0.010299999999999976,14.57152638860988
0.009299999999999864,13.257259591035258
0.008299999999999974,11.9486516386601
0.007299999999999862,10.64004368628494
0.006299999999999972,9.331435733909782
0.00529999999999986,8.022827781534623
0.0042999999999999705,6.671778490163514
0.0032999999999998586,5.405611876784305
0.0022999999999999687,4.098418635709011
0.0012999999999998568,2.8322520223298033
0.00029999999999996696,1.5675001202504606
-0.000700000000000145,0.43403342679859325
-0.0017000000000000348,-0.7001406223032067
-0.0027000000000001467,-1.8334658446250875
-0.0037000000000000366,-2.968064307116847
-0.0047000000000001485,-4.014950669016974
-0.005700000000000038,-5.105693081212917
-0.00670000000000015,-6.196435493408861
-0.00770000000000004,-7.329619244600755
-0.008700000000000152,-8.464217707092514
-0.009700000000000042,-9.59740145828441
-0.010700000000000154,-10.775855971071984
-0.011700000000000044,-11.909039722263879
-0.012700000000000156,-12.99978213445982
-0.013700000000000045,-14.046668496359947
-0.014700000000000157,-15.05252823056399
-0.015700000000000047,-16.056973253468165
-0.01670000000000016,-17.018976937376394
-0.01770000000000005,-17.924392169290012
-0.01870000000000016,-18.92883719219419
-0.01970000000000005,-19.890840876102416
-0.020700000000000163,-20.89528589900659
-0.021700000000000053,-21.94217226090672
-0.022700000000000164,-22.946617283810895
-0.023700000000000054,-23.993503645711023
-0.024700000000000166,-25.04039000761115
-0.025700000000000056,-26.002393691519377
-0.026700000000000168,-27.00683871442355
-0.027700000000000058,-27.954695285333123
-0.02870000000000017,-28.831816291249446
-0.02970000000000006,-29.708937297165768
-0.03070000000000017,-30.571911190083444
-0.03170000000000006,-31.449032195999767
-0.03270000000000017,-32.32615320191609
-0.03370000000000006,-33.231568433829715
-0.034700000000000175,-34.193572117737936
-0.035700000000000065,-35.15557580164616
-0.03670000000000018,-36.07513814655844
-0.03770000000000007,-37.07958316946261
-0.03870000000000018,-37.99914551437489
-0.03970000000000007,-38.90456074628851
-0.04070000000000018,-39.739240413208876
-0.04170000000000007,-40.559772967130606
-0.04270000000000018,-41.39445263405098
-0.04370000000000007,-42.229132300971344
-0.044700000000000184,-43.007223515897124
-0.045700000000000074,-43.84190318281749
-0.046700000000000186,-44.66243573673921
-0.047700000000000076,-45.53955674265553
-0.04870000000000019,-46.45911908756781
-0.04970000000000008,-47.32209298048547
-0.05070000000000019,-48.24165532539775
-0.05170000000000008,-49.16121767031002
-0.05270000000000019,-50.024191563227696
-0.05370000000000008,-50.85887123014807
-0.05470000000000019,-51.69355089706845
-0.05570000000000008,-52.471642111994214
-0.056700000000000195,-53.26388043991864
-0.057700000000000085,-53.999530315848446
-0.058700000000000196,-54.834209982768826
-0.059700000000000086,-55.612301197694585
-0.0607000000000002,-56.489422203610914
-0.06170000000000009,-57.352396096528594
-0.0627000000000002,-58.22951710244491
-0.06370000000000009,-59.06419676936528
-0.0647000000000002,-59.9696120012789
-0.06570000000000009,-60.80429166819927
-0.0667000000000002,-61.5965299961237
-0.0677000000000001,-62.37462121104946
-0.0687000000000002,-63.15271242597524
-0.0697000000000001,-63.902509414903705
-0.07070000000000021,-64.59571795183757
-0.0717000000000001,-65.38795627976201
-0.07270000000000021,-66.12360615569182
-0.0737000000000001,-66.91584448361623
-0.07470000000000021,-67.7788183765339
-0.0757000000000001,-68.61349804345427
-0.07670000000000021,-69.43403059737601
-0.0777000000000001,-70.31115160329232
-0.07870000000000021,-71.1458312702127
-0.0797000000000001,-71.96636382413442
-0.08070000000000022,-72.71616081306288
-0.0817000000000001,-73.49425202798865
-0.08270000000000022,-74.20160767792116
-0.08370000000000011,-74.93725755385098
-0.08470000000000022,-75.63046609078486
-0.08570000000000011,-76.42270441870929
-0.08670000000000022,-77.1583542946391
-0.08770000000000011,-77.99303396155948
-0.08870000000000022,-78.8135665154812
-0.08970000000000011,-79.69068752139752
-0.09070000000000022,-80.52536718831789
-0.09170000000000011,-81.3458997422396
-0.09270000000000023,-82.18057940915998
-0.09370000000000012,-82.95867062408576
-0.09470000000000023,-83.70846761301424
-0.09570000000000012,-84.44411748894404
-0.09670000000000023,-85.13732602587791
-0.09770000000000012,-85.88712301480638
-0.09870000000000023,-86.6227728907362
-0.09970000000000012,-87.37256987966467
-0.10070000000000023,-88.15066109459043
-0.10170000000000012,-88.9853407615108
-0.10270000000000024,-89.80587331543254
-0.10370000000000013,-90.68299432134886
-0.10470000000000024,-91.51767398826922
-0.10570000000000013,-92.29576520319499
-0.10670000000000024,-93.13044487011537
-0.10770000000000013,-93.90853608504113
-0.10870000000000024,-94.6583330739696
-0.10970000000000013,-95.39398294989942
-0.11070000000000024,-96.04475014783733
-0.11170000000000013,-96.83698847576176
-0.11270000000000002,-97.57263835169158
-0.11370000000000013,-98.3082882276214
-0.11470000000000002,-99.14296789454177
-0.11570000000000014,-99.93520622246619
-0.11670000000000003,-100.75573877638791
-0.11770000000000014,-101.6753011213002
-0.11870000000000003,-102.45339233622596
-0.11970000000000014,-103.28807200314633
-0.12070000000000003,-104.06616321807209
-0.12170000000000014,-104.81596020700057
-0.12270000000000003,-105.5516100829304
-0.12370000000000014,-106.2589657328629
-0.12470000000000003,-106.99461560879273
-0.12570000000000014,-107.78685393671715
-0.12670000000000003,-108.52250381264696
-0.12770000000000015,-109.30059502757274
-0.12870000000000004,-110.1352746944931
-0.12970000000000015,-110.96995436141347
-0.13070000000000004,-111.83292825433115
-0.13170000000000015,-112.66760792125153
-0.13270000000000004,-113.48814047517324
-0.13370000000000015,-114.23793746410173
-0.13470000000000004,-115.01602867902749
-0.13570000000000015,-115.76582566795594
-0.13670000000000004,-116.50147554388576
-0.13770000000000016,-117.19468408081964
-0.13870000000000005,-117.94448106974811
-0.13970000000000016,-118.72257228467387
-0.14070000000000005,-119.51481061259831
-0.14170000000000016,-120.33534316652002
-0.14270000000000005,-121.17002283344038
-0.14370000000000016,-122.00470250036076
-0.14470000000000005,-122.82523505428249
-0.14570000000000016,-123.65991472120285
-0.14670000000000005,-124.43800593612862
-0.14770000000000016,-125.23024426405304
-0.14870000000000005,-125.96589413998288
-0.14970000000000017,-126.6732497899154
-0.15070000000000006,-127.4088996658452
-0.15170000000000017,-128.18699088077096
-0.15270000000000006,-128.93678786969946
-0.15370000000000017,-129.7148790846252
-0.15470000000000006,-130.5495587515456
-0.15570000000000017,-131.37009130546733
-0.15670000000000006,-132.20477097238768
-0.15770000000000017,-133.12433331729994
-0.15870000000000006,-133.90242453222572
-0.15970000000000018,-134.73710419914607
-0.16070000000000007,-135.51519541407185
-0.16170000000000018,-136.2225510640044
-0.16270000000000007,-136.95820093993422
-0.16370000000000018,-137.70799792886265
-0.16470000000000007,-138.48608914378846
-0.16570000000000018,-139.1792976807223
-0.16670000000000007,-139.9290946696508
-0.16770000000000018,-140.74962722357247
-0.16870000000000007,-141.61260111649017
-0.16970000000000018,-142.4614278964092
-0.17070000000000007,-143.3102546763282
-0.17170000000000019,-144.15908145624724
-0.17270000000000008,-145.00790823616626
-0.1737000000000002,-145.7152638860988
-0.17470000000000008,-146.5640906660178
-0.1757000000000002,-147.27144631595033
-0.17670000000000008,-147.97880196588284
-0.1777000000000002,-148.68615761581535
-0.17870000000000008,-149.53498439573437
-0.1797000000000002,-150.24234004566688
-0.18070000000000008,-151.09116682558593
-0.1817000000000002,-151.93999360550492
-0.18270000000000008,-152.78882038542397
-0.1837000000000002,-153.63764716534297
-0.1847000000000001,-154.486473945262
-0.1857000000000002,-155.33530072518104
-0.1867000000000001,-156.04265637511355
-0.1877000000000002,-156.89148315503257
-0.1887000000000001,-157.59883880496508
-0.1897000000000002,-158.4476655848841
-0.1907000000000001,-159.15502123481662
-0.1917000000000001,-159.86237688474912
-0.19269999999999998,-160.5697325346817
-0.1937000000000001,-161.41855931460069
-0.19469999999999998,-162.2673860945197
-0.1957000000000001,-163.11621287443873
-0.19669999999999999,-163.96503965435775
-0.1977000000000001,-164.81386643427678
-0.1987,-165.6626932141958
-0.1997000000000001,-166.51151999411482
-0.2007,-167.21887564404733
-0.2017000000000001,-168.06770242396635
-0.2027,-168.77505807389886
-0.2037000000000001,-169.48241372383137
-0.2047,-170.18976937376394
-0.2057000000000001,-171.03859615368293
-0.2067,-171.74595180361547
-0.2077000000000001,-172.59477858353446
-0.2087,-173.44360536345349
-0.2097000000000001,-174.2924321433725
-0.2107,-175.14125892329156
-0.2117000000000001,-175.99008570321055
-0.2127,-176.8389124831296
-0.2137000000000001,-177.6877392630486
-0.2147,-178.3950949129811
-0.2157000000000001,-179.24392169290016
-0.2167,-179.95127734283267
-0.21770000000000012,-180.8001041227517
-0.2187,-181.5074597726842
-0.21970000000000012,-182.21481542261674
-0.2207,-183.06364220253573
-0.22170000000000012,-183.91246898245475
-0.2227,-184.7612957623738
-0.22370000000000012,-185.6101225422928
-0.2247,-186.45894932221185
-0.22570000000000012,-187.44924723211736
-0.2267,-188.29807401203638
-0.22770000000000012,-189.0054296619689
-0.22870000000000001,-189.71278531190143
-0.22970000000000013,-190.56161209182042
-0.23070000000000002,-191.268967741753
-0.23170000000000013,-192.11779452167198
-0.23270000000000002,-192.82515017160452
-0.23370000000000013,-193.6739769515235
-0.23470000000000002,-194.52280373144254
-0.23570000000000013,-195.37163051136156
-0.23670000000000002,-196.2204572912806
-0.2376999999999999,-197.0692840711996
-0.23870000000000002,-197.91811085111863
-0.2396999999999999,-198.90840876102413
-0.24070000000000003,-199.61576441095667
-0.24169999999999991,-200.3231200608892
-0.24270000000000003,-201.17194684080823
-0.24369999999999992,-201.87930249074074
-0.24470000000000003,-202.7281292706598
-0.24569999999999992,-203.43548492059227
-0.24670000000000003,-204.2843117005113
-0.24769999999999992,-205.13313848043032
-0.24870000000000003,-205.98196526034934
-0.24969999999999992,-206.97226317025488
-0.25070000000000003,-207.8210899501739
-0.2516999999999999,-208.52844560010638
-0.25270000000000004,-209.51874351001192
-0.2536999999999999,-210.22609915994445
-0.25470000000000004,-211.07492593986345
-0.2556999999999999,-211.782281589796
-0.25670000000000004,-212.631108369715
-0.25769999999999993,-213.33846401964755
-0.25870000000000004,-214.18729079956654
-0.25969999999999993,-214.89464644949908
-0.26070000000000004,-215.88494435940459
-0.26169999999999993,-216.73377113932364
-0.26270000000000004,-217.58259791924263
-0.26369999999999993,-218.43142469916165
-0.26470000000000005,-219.42172260906716
-0.26569999999999994,-220.2705493889862
-0.26670000000000005,-221.11937616890526
-0.26769999999999994,-221.96820294882426
-0.26870000000000005,-222.81702972874328
-0.26969999999999994,-223.52438537867582
-0.27070000000000005,-224.2317410286083
-0.27169999999999994,-225.08056780852735
-0.27270000000000005,-225.78792345845983
-0.27369999999999994,-226.63675023837888
-0.27470000000000006,-227.4855770182979
-0.27569999999999995,-228.33440379821695
-0.27670000000000006,-229.18323057813595
-0.27769999999999995,-230.03205735805497
-0.27870000000000006,-230.880884137974
-0.27969999999999995,-231.729710917893
-0.28070000000000006,-232.57853769781204
-0.28169999999999995,-233.28589334774458
-0.28270000000000006,-234.13472012766357
-0.28369999999999995,-234.84207577759608
-0.28470000000000006,-235.69090255751513
-0.28569999999999995,-236.3982582074476
-0.28670000000000007,-237.24708498736666
-0.28769999999999996,-237.9544406372992
-0.28870000000000007,-238.8032674172182
-0.28969999999999996,-239.65209419713722
-0.29070000000000007,-240.50092097705624
-0.29169999999999996,-241.34974775697523
-0.29270000000000007,-242.19857453689428
-0.29369999999999996,-243.04740131681334
-0.2947000000000001,-243.8962280967323
-0.29569999999999996,-244.74505487665132
-0.2967000000000001,-245.45241052658386
-0.29769999999999996,-246.30123730650286
-0.2987000000000001,-247.1500640864219
-0.29969999999999997,-247.85741973635444
-0.3007000000000001,-248.70624651627344
-0.30169999999999997,-249.5550732961925
-0.3027000000000001,-250.545371206098
-0.30369999999999997,-251.39419798601702
-0.3047000000000001,-252.243024765936
-0.30569999999999997,-253.09185154585506
-0.3067000000000001,-253.94067832577412
-0.3077,-254.78950510569314
-0.3087000000000001,-255.63833188561213
-0.3097,-256.34568753554464
-0.3107000000000001,-257.0530431854772
-0.3117,-257.90186996539614
-0.3127000000000001,-258.7506967453152
-0.3137,-259.4580523952477
-0.3147000000000001,-260.3068791751668
-0.3157,-261.1557059550858
-0.3167000000000001,-262.1460038649913
-0.3177,-263.13630177489676
-0.3187000000000001,-263.98512855481584
-0.3197,-264.83395533473487
-0.3207000000000001,-265.6827821146539
-0.3217,-266.3901377645864
-0.3227000000000001,-267.23896454450545
-0.3237,-267.94632019443793
-0.3247000000000001,-268.512204714384
-0.3257,-269.361031494303
-0.3267000000000001,-270.20985827422203
-0.3277,-271.20015618412754
-0.3287000000000001,-272.04898296404656
-0.3297,-273.03928087395207
-0.3307000000000001,-274.0295787838576
-0.3317,-275.0198766937631
-0.3327000000000001,-275.7272323436957
-0.3337,-276.5760591236147
-0.3347000000000001,-277.56635703352015
-0.3357,-278.2737126834527
-0.3367000000000001,-278.8395972033987
-0.3377,-279.5469528533313
-0.3387000000000001,-280.25430850326376
-0.3397,-280.9616641531963
-0.3407000000000001,-281.8104909331153
-0.3417,-282.65931771303434
-0.3427000000000001,-283.5081444929533
-0.3437,-284.35697127287233
-0.3447000000000001,-285.2057980527914
-0.3457,-286.196095962697
-0.3467000000000001,-287.04492274261594
-0.3477,-287.7522783925485
-0.3487000000000001,-288.6011051724675
-0.3497,-289.4499319523865
-0.3507000000000001,-290.157287602319
-0.3517,-291.0061143822381
-0.3527000000000001,-291.71347003217056
-0.3537,-292.56229681208964
-0.3547000000000001,-293.4111235920086
-0.3557,-294.2599503719276
-0.35670000000000013,-295.10877715184665
-0.3577,-295.9576039317657
-0.35870000000000013,-296.80643071168464
-0.3597,-297.79672862159026
-0.36070000000000013,-298.6455554015092
-0.3617,-299.3529110514418
-0.3626999999999999,-300.2017378313608
-0.3637,-300.9090934812933
-0.3646999999999999,-301.7579202612123
-0.3657,-302.6067470411313
-0.3666999999999999,-303.31410269106385
-0.3677,-304.1629294709828
-0.3686999999999999,-305.0117562509019
-0.36970000000000003,-306.00205416080746
-0.3706999999999999,-306.8508809407265
-0.37170000000000003,-307.841178850632
-0.3726999999999999,-308.690005630551
-0.37370000000000003,-309.53883241047004
-0.3746999999999999,-310.38765919038906
-0.37570000000000003,-311.09501484032154
-0.3766999999999999,-311.94384162024056
-0.37770000000000004,-312.65119727017316
-0.3786999999999999,-313.5000240500921
-0.37970000000000004,-314.34885083001114
-0.3806999999999999,-315.0562064799437
-0.38170000000000004,-315.9050332598627
-0.38269999999999993,-316.7538600397817
-0.38370000000000004,-317.74415794968724
-0.38469999999999993,-318.59298472960626
-0.38570000000000004,-319.4418115095253
-0.38669999999999993,-319.30034037953874
-0.38570000000000004,-317.03680229975475
-0.38469999999999993,-314.91473534995714
-0.38370000000000004,-312.79266840015964
-0.38269999999999993,-310.52913032037554
-0.38170000000000004,-308.54853450056453
-0.3806999999999999,-306.56793868075346
-0.37970000000000004,-304.4458717309559
-0.3786999999999999,-302.4652759111449
-0.37770000000000004,-300.6261512213203
-0.3766999999999999,-298.6455554015092
-0.37570000000000003,-296.80643071168464
-0.3746999999999999,-294.96730602186017
-0.37370000000000003,-293.1281813320356
-0.3726999999999999,-291.14758551222457
-0.37170000000000003,-289.1669896924135
-0.3706999999999999,-287.327865002589
-0.36970000000000003,-285.4887403127644
-0.3686999999999999,-283.5081444929533
-0.3677,-281.66901980312883
-0.3666999999999999,-279.6884239833177
-0.3657,-277.9907704234797
-0.3646999999999999,-276.15164573365513
-0.3637,-274.4539921738171
-0.3626999999999999,-272.7563386139791
-0.3617,-270.9172139241545
-0.36070000000000013,-269.2195603643164
-0.3597,-267.38043567449193
-0.35870000000000013,-265.5413109846674
-0.3577,-263.7021862948428
-0.35670000000000013,-261.8630616050183
-0.3557,-260.02393691519376
-0.3547000000000001,-258.18481222536917
-0.3537,-256.34568753554464
-0.3527000000000001,-254.50656284572008
-0.3517,-252.66743815589555
-0.3507000000000001,-250.9697845960575
-0.3497,-249.41360216620598
-0.3487000000000001,-247.57447747638145
-0.3477,-245.87682391654337
-0.3467000000000001,-244.17917035670533
-0.3457,-242.48151679686728
-0.3447000000000001,-240.64239210704275
-0.3437,-238.94473854720468
-0.3427000000000001,-237.24708498736666
-0.3417,-235.40796029754208
-0.3407000000000001,-233.71030673770406
-0.3397,-232.01265317786604
-0.3387000000000001,-230.45647074801445
-0.3377,-228.75881718817644
-0.3367000000000001,-227.2026347583249
-0.3357,-225.64645232847332
-0.3347000000000001,-223.9487987686353
-0.3337,-222.25114520879725
-0.3327000000000001,-220.5534916489592
-0.3317,-218.85583808912116
-0.3307000000000001,-217.29965565926966
-0.3297,-215.6020020994316
-0.3287000000000001,-213.90434853959354
-0.3277,-212.2066949797555
-0.3267000000000001,-210.50904141991748
-0.3257,-208.95285899006592
-0.3247000000000001,-207.3966765602144
-0.3237,-205.84049413036286
-0.3227000000000001,-204.2843117005113
-0.3217,-202.7281292706598
-0.3207000000000001,-201.31341797079472
-0.3197,-199.61576441095667
-0.3187000000000001,-198.05958198110514
-0.3177,-196.3619284212671
-0.3167000000000001,-194.80574599141553
-0.3157,-193.249563561564
-0.3147000000000001,-191.551910001726
-0.3137,-189.8542564418879
-0.3127000000000001,-188.4395451420229
-0.3117,-186.88336271217133
-0.3107000000000001,-185.3271802823198
-0.3097,-183.91246898245475
-0.3087000000000001,-182.35628655260325
-0.3077,-180.94157525273818
-0.3067000000000001,-179.38539282288664
-0.30569999999999997,-177.6877392630486
-0.3047000000000001,-176.27302796318358
-0.30369999999999997,-174.57537440334553
-0.3027000000000001,-173.01919197349397
-0.30169999999999997,-171.46300954364247
-0.3007000000000001,-169.9068271137909
-0.29969999999999997,-168.49211581392586
-0.2987000000000001,-166.93593338407433
-0.29769999999999996,-165.5212220842093
-0.2967000000000001,-163.96503965435775
-0.29569999999999996,-162.5503283544927
-0.2947000000000001,-161.1356170546277
-0.29369999999999996,-159.72090575476264
-0.29270000000000007,-158.1647233249111
-0.29169999999999996,-156.60854089505958
-0.29070000000000007,-155.05235846520802
-0.28969999999999996,-153.07176264539694
-0.28870000000000007,-151.5155802155454
-0.28769999999999996,-150.1008689156804
-0.28670000000000007,-148.54468648582886
-0.28569999999999995,-147.27144631595033
-0.28470000000000006,-145.85673501608528
-0.28369999999999995,-144.44202371622026
-0.28270000000000006,-143.0273124163552
-0.28169999999999995,-141.61260111649017
-0.28070000000000006,-140.22618404262244
-0.27969999999999995,-138.7548842907628
-0.27870000000000006,-137.31187876490046
-0.27769999999999995,-135.86887323903812
-0.27670000000000006,-134.34098503518388
-0.27569999999999995,-132.8555381703256
-0.27470000000000006,-131.4266797574619
-0.27369999999999994,-129.98367423159957
-0.27270000000000005,-128.5831100447332
-0.27169999999999994,-127.23913430986138
-0.27070000000000005,-125.88101146199097
-0.26969999999999994,-124.57947706611512
-0.26870000000000005,-123.26379555724066
-0.26769999999999994,-121.90567270937021
