Potential V vs RHE, Current mA cm-2
0.013299999999999867,26.21460038649913
0.012299999999999978,24.729153521640843
0.011299999999999866,23.328589334774456
0.010299999999999976,22.069496277894572
0.009299999999999864,20.79625610801604
0.008299999999999974,19.49472171214021
0.007299999999999862,18.19318731626437
0.006299999999999972,16.792623129397985
0.00529999999999986,15.519382959519453
0.0042999999999999705,14.26028990263957
0.0032999999999998586,13.127106151447675
0.0022999999999999687,12.036363739251732
0.0012999999999998568,10.94562132705579
0.00029999999999996696,9.898734965155663
-0.000700000000000145,8.72169516366795
-0.0017000000000000348,7.543240650880375
-0.0027000000000001467,6.366200849392665
-0.0037000000000000366,5.231602386900906
-0.0047000000000001485,4.2285720752965945
-0.005700000000000038,3.225541763692284
-0.00670000000000015,2.30880884137974
-0.00770000000000004,1.3063444142953748
-0.008700000000000152,0.3031726315610774
-0.009700000000000042,-0.7872868383748929
-0.010700000000000154,-1.92117794521672
-0.011700000000000044,-2.924208256821031
-0.012700000000000156,-3.927238568425342
-0.013700000000000045,-4.800115440442069
-0.014700000000000157,-5.672992312458796
-0.015700000000000047,-6.54445447317566
-0.01670000000000016,-7.50504344578402
-0.01770000000000005,-8.464217707092514
-0.01870000000000016,-9.467248018696827
-0.01970000000000005,-10.470278330301136
-0.020700000000000163,-11.42945259160963
-0.021700000000000053,-12.302329463626359
-0.022700000000000164,-13.087494235051453
-0.023700000000000054,-13.916515056772363
-0.024700000000000166,-14.741291744593681
-0.025700000000000056,-15.660854089505953
-0.026700000000000168,-16.580416434418233
-0.027700000000000058,-17.542420118326454
-0.02870000000000017,-18.44783535024008
-0.02970000000000006,-19.2400736781645
-0.03070000000000017,-20.06060623208622
-0.03170000000000006,-20.76796188201874
-0.03270000000000017,-21.54605309694451
-0.03370000000000006,-22.42317410286083
-0.034700000000000175,-23.300295108777156
-0.035700000000000065,-24.24815167968673
-0.03670000000000018,-25.12527268560305
-0.03770000000000007,-25.959952352523427
-0.03870000000000018,-26.69560222845324
-0.03970000000000007,-27.38881076538711
-0.04070000000000018,-28.13860775431558
-0.04170000000000007,-28.8742576302454
-0.04270000000000018,-29.751378636161718
-0.04370000000000007,-30.670940981073993
-0.044700000000000184,-31.49147353499572
-0.045700000000000074,-32.283711862920136
-0.046700000000000186,-33.01936173884996
-0.047700000000000076,-33.712570275783825
-0.04870000000000019,-34.377484586720385
-0.04970000000000008,-35.11313446265021
-0.05070000000000019,-35.94781412957058
-0.05170000000000008,-36.768346683492304
-0.05270000000000019,-37.645467689408626
-0.05370000000000008,-38.46600024333035
-0.05470000000000019,-39.173355893262865
-0.05570000000000008,-39.82412309120078
-0.056700000000000195,-40.4748902891387
-0.057700000000000085,-41.182245939071215
-0.058700000000000196,-41.96033715399699
-0.059700000000000086,-42.79501682091736
-0.0607000000000002,-43.61554937483908
-0.06170000000000009,-44.4077877027635
-0.0627000000000002,-45.18587891768927
-0.06370000000000009,-45.85079322862584
-0.0647000000000002,-46.501560426563756
-0.06570000000000009,-47.15232762450167
-0.0667000000000002,-47.84553616143554
-0.0677000000000001,-48.63777448935996
-0.0687000000000002,-49.50074838227763
-0.0697000000000001,-50.29298671020206
-0.07070000000000021,-51.028636586131874
-0.0717000000000001,-51.69355089706845
-0.07270000000000021,-52.34431809500636
-0.0737000000000001,-52.95264395394832
-0.07470000000000021,-53.64585249088219
-0.0757000000000001,-54.39564947981066
-0.07670000000000021,-55.21618203373238
-0.0777000000000001,-56.008420361656796
-0.07870000000000021,-56.786511576582576
-0.0797000000000001,-57.493867226515086
-0.08070000000000022,-58.14463442445301
-0.0817000000000001,-58.75296028339497
-0.08270000000000022,-59.44616882032884
-0.08370000000000011,-60.19596580925731
-0.08470000000000022,-60.93161568518713
-0.08570000000000011,-61.72385401311155
-0.08670000000000022,-62.501945228037314
-0.08770000000000011,-63.15271242597524
-0.08870000000000022,-63.860068075907755
-0.08970000000000011,-64.46839393484973
-0.09070000000000022,-65.0767197937917
-0.09170000000000011,-65.76992833072556
-0.09270000000000023,-66.56216665864997
-0.09370000000000012,-67.34025787357575
-0.09470000000000023,-68.17493754049613
-0.09570000000000012,-68.91058741642594
-0.09670000000000023,-69.57550172736251
-0.09770000000000012,-70.18382758630447
-0.09870000000000023,-70.79215344524643
-0.09970000000000012,-71.48536198218031
-0.10070000000000023,-72.23515897110877
-0.10170000000000012,-73.01325018603454
-0.10270000000000024,-73.8479298529549
-0.10370000000000013,-74.62602106788069
-0.10470000000000024,-75.29093537881725
-0.10570000000000013,-75.94170257675518
-0.10670000000000024,-76.50758709670117
-0.10770000000000013,-77.20079563363505
-0.10870000000000024,-77.95059262256353
-0.10970000000000013,-78.72868383748929
-0.11070000000000024,-79.56336350440966
-0.11170000000000013,-80.29901338033947
-0.11270000000000002,-81.04881036926795
-0.11370000000000013,-81.65713622820991
-0.11470000000000002,-82.30790342614785
-0.11570000000000014,-82.9162292850898
-0.11670000000000003,-83.60943782202366
-0.11770000000000014,-84.35923481095215
-0.11870000000000003,-85.17976736487385
-0.11970000000000014,-85.97200569279828
-0.12070000000000003,-86.75009690772404
-0.12170000000000014,-87.41501121866061
-0.12270000000000003,-88.06577841659853
-0.12370000000000014,-88.6741042755405
-0.12470000000000003,-89.32487147347842
-0.12570000000000014,-90.11710980140283
-0.12670000000000003,-90.93764235532454
-0.12770000000000015,-91.72988068324898
-0.12870000000000004,-92.50797189817473
-0.12970000000000015,-93.17288620911131
-0.13070000000000004,-93.82365340704924
-0.13170000000000015,-94.4319792659912
-0.13270000000000004,-95.08274646392913
-0.13370000000000015,-95.83254345285758
-0.13470000000000004,-96.61063466778336
-0.13570000000000015,-97.44531433470372
-0.13670000000000004,-98.18096421063355
-0.13770000000000016,-98.88831986056607
-0.13870000000000005,-99.58152839749994
-0.13970000000000016,-100.18985425644189
-0.14070000000000005,-100.88306279337576
-0.14170000000000016,-101.59041844330828
-0.14270000000000005,-102.36850965823406
-0.14370000000000016,-103.16074798615847
-0.14470000000000005,-103.98128054008019
-0.14570000000000016,-104.73107752900866
-0.14670000000000005,-105.38184472694657
-0.14770000000000016,-106.0326119248845
-0.14870000000000005,-106.64093778382647
-0.14970000000000017,-107.30585209476303
-0.15070000000000006,-108.0839433096888
-0.15170000000000017,-108.87618163761321
-0.15270000000000006,-109.69671419153494
-0.15370000000000017,-110.48895251945936
-0.15470000000000006,-111.18216105639323
-0.15570000000000017,-111.83292825433115
-0.15670000000000006,-112.44125411327312
-0.15770000000000017,-113.10616842420968
-0.15870000000000006,-113.88425963913545
-0.15970000000000018,-114.67649796705987
-0.16070000000000007,-115.53947185997755
-0.16170000000000018,-116.33171018790196
-0.16270000000000007,-117.06736006383179
-0.16370000000000018,-117.77471571376431
-0.16470000000000007,-118.38304157270628
-0.16570000000000018,-119.03380877064419
-0.16670000000000007,-119.769458646574
-0.16770000000000018,-120.56169697449842
-0.16870000000000007,-121.33978818942418
-0.16970000000000018,-122.17446785634456
-0.17070000000000007,-122.91011773227437
-0.17170000000000019,-123.65991472120285
-0.17270000000000008,-124.31068191914078
-0.1737000000000002,-124.9614491170787
-0.17470000000000008,-125.6688047670112
-0.1757000000000002,-126.48933732093293
-0.17670000000000008,-127.32401698785328
-0.1777000000000002,-128.18699088077096
-0.17870000000000008,-128.9792292086954
-0.1797000000000002,-129.67243774562928
-0.18070000000000008,-130.32320494356716
-0.1817000000000002,-130.9456779155078
-0.18270000000000008,-131.63888645244168
-0.1837000000000002,-132.41697766736743
-0.1847000000000001,-133.20921599529186
-0.1857000000000002,-134.08633700120816
-0.1867000000000001,-134.86442821613394
-0.1877000000000002,-135.6142252050624
-0.1887000000000001,-136.26499240300032
-0.1897000000000002,-136.8733182619423
-0.1907000000000001,-137.56652679887617
-0.1917000000000001,-138.3163237878046
-0.19269999999999998,-139.13685634172634
-0.1937000000000001,-139.97153600864672
-0.19469999999999998,-140.79206856256846
-0.1957000000000001,-141.47112998650366
-0.19669999999999999,-142.17848563643616
-0.1977000000000001,-142.8858412863687
-0.1987,-143.5931969363012
-0.1997000000000001,-144.30055258623375
-0.2007,-145.00790823616626
-0.2017000000000001,-145.9982061460718
-0.2027,-146.8470329259908
-0.2037000000000001,-147.55438857592333
-0.2047,-148.26174422585584
-0.2057000000000001,-148.96909987578834
-0.2067,-149.6764555257209
-0.2077000000000001,-150.24234004566688
-0.2087,-151.09116682558593
-0.2097000000000001,-151.7985224755184
-0.2107,-152.78882038542397
-0.2117000000000001,-153.49617603535648
-0.2127,-154.3450028152755
-0.2137000000000001,-155.05235846520802
-0.2147,-155.61824298515404
-0.2157000000000001,-156.46706976507306
-0.2167,-157.17442541500557
-0.21770000000000012,-158.02325219492457
-0.2187,-159.01355010483013
-0.21970000000000012,-159.86237688474912
-0.2207,-160.5697325346817
-0.22170000000000012,-161.41855931460069
-0.2227,-162.12591496453322
-0.22370000000000012,-162.8332706144657
-0.2247,-163.54062626439824
-0.22570000000000012,-164.38945304431726
-0.2267,-165.09680869424977
-0.22770000000000012,-166.0871066041553
-0.22870000000000001,-166.79446225408785
-0.22970000000000013,-167.6432890340068
-0.23070000000000002,-168.35064468393938
-0.23170000000000013,-169.0580003338719
-0.23270000000000002,-169.7653559838044
-0.23370000000000013,-170.61418276372342
-0.23470000000000002,-171.46300954364247
-0.23570000000000013,-172.31183632356147
-0.23670000000000002,-173.16066310348046
-0.2376999999999999,-174.0094898833995
-0.23870000000000002,-174.57537440334553
-0.2396999999999999,-175.28273005327804
-0.24070000000000003,-175.99008570321055
-0.24169999999999991,-176.8389124831296
-0.24270000000000003,-177.54626813306209
-0.24369999999999992,-178.53656604296762
-0.24470000000000003,-179.24392169290016
-0.24569999999999992,-180.09274847281918
-0.24670000000000003,-180.94157525273818
-0.24769999999999992,-181.5074597726842
-0.24870000000000003,-182.21481542261674
-0.24969999999999992,-183.06364220253573
-0.25070000000000003,-183.91246898245475
-0.2516999999999999,-184.6198246323873
-0.25270000000000004,-185.6101225422928
-0.2536999999999999,-186.45894932221185
-0.25470000000000004,-187.02483384215788
-0.2556999999999999,-187.73218949209036
-0.25670000000000004,-188.4395451420229
-0.25769999999999993,-189.0054296619689
-0.25870000000000004,-189.8542564418879
-0.25969999999999993,-190.70308322180696
-0.26070000000000004,-191.69338113171247
-0.26169999999999993,-192.54220791163152
-0.26270000000000004,-193.3910346915505
-0.26369999999999993,-194.09839034148303
-0.26470000000000005,-194.80574599141553
-0.26569999999999994,-195.51310164134807
-0.26670000000000005,-196.2204572912806
-0.26769999999999994,-197.0692840711996
-0.26870000000000005,-197.91811085111863
-0.26969999999999994,-198.76693763103765
-0.27070000000000005,-199.61576441095667
-0.27169999999999994,-200.3231200608892
-0.27270000000000005,-201.03047571082172
-0.27369999999999994,-201.73783136075423
-0.27470000000000006,-202.44518701068677
-0.27569999999999995,-203.29401379060576
-0.27670000000000006,-204.14284057052478
-0.27769999999999995,-204.9916673504438
-0.27870000000000006,-205.98196526034934
-0.27969999999999995,-206.54784978029537
-0.28070000000000006,-207.3966765602144
-0.28169999999999995,-208.1040322101469
-0.28270000000000006,-208.8113878600794
-0.28369999999999995,-209.66021463999843
-0.28470000000000006,-210.50904141991748
-0.28569999999999995,-211.21639706985
-0.28670000000000007,-212.065223849769
-0.28769999999999996,-212.914050629688
-0.28870000000000007,-213.76287740960703
-0.28969999999999996,-214.47023305953954
-0.29070000000000007,-215.17758870947208
-0.29169999999999996,-216.0264154893911
-0.29270000000000007,-216.87524226931012
-0.29369999999999996,-217.72406904922914
-0.2947000000000001,-218.71436695913465
-0.29569999999999996,-219.42172260906716
-0.2967000000000001,-220.1290782589997
-0.29769999999999996,-220.83643390893224
-0.2987000000000001,-221.54378955886475
-0.29969999999999997,-222.25114520879725
-0.3007000000000001,-222.9585008587298
-0.30169999999999997,-223.9487987686353
-0.3027000000000001,-224.79762554855435
-0.30369999999999997,-225.64645232847332
-0.3047000000000001,-226.35380797840588
-0.30569999999999997,-227.2026347583249
-0.3067000000000001,-227.7685192782709
-0.3077,-228.47587492820347
-0.3087000000000001,-229.18323057813595
-0.3097,-230.17352848804146
-0.3107000000000001,-230.880884137974
-0.3117,-231.5882397879065
-0.3127000000000001,-232.43706656782552
-0.3137,-233.1444222177581
-0.3147000000000001,-233.85177786769057
-0.3157,-234.55913351762308
-0.3167000000000001,-235.40796029754208
-0.3177,-236.25678707746113
-0.3187000000000001,-237.24708498736666
-0.3197,-238.0959117672857
-0.3207000000000001,-238.94473854720468
-0.3217,-239.65209419713722
-0.3227000000000001,-240.35944984706975
-0.3237,-241.20827662698875
-0.3247000000000001,-241.9156322769213
-0.3257,-242.76445905684034
-0.3267000000000001,-243.6132858367593
-0.3277,-244.46211261667833
-0.3287000000000001,-245.31093939659738
-0.3297,-246.15976617651637
-0.3307000000000001,-246.8671218264489
-0.3317,-247.57447747638145
-0.3327000000000001,-248.42330425630044
-0.3337,-249.2721310362195
-0.3347000000000001,-250.1209578161385
-0.3357,-250.9697845960575
-0.3367000000000001,-251.96008250596302
-0.3377,-252.66743815589555
-0.3387000000000001,-253.51626493581452
-0.3397,-254.08214945576057
-0.3407000000000001,-254.78950510569314
-0.3417,-255.63833188561213
-0.3427000000000001,-256.62862979551767
-0.3437,-257.6189277054232
-0.3447000000000001,-258.4677544853422
-0.3457,-259.4580523952477
-0.3467000000000001,-260.16540804518024
-0.3477,-260.8727636951128
-0.3487000000000001,-261.58011934504526
-0.3497,-262.42894612496434
-0.3507000000000001,-263.27777290488336
-0.3517,-264.12659968480233
-0.3527000000000001,-264.83395533473487
-0.3537,-265.6827821146539
-0.3547000000000001,-266.3901377645864
-0.3557,-267.09749341451896
-0.35670000000000013,-267.94632019443793
-0.3577,-268.65367584437047
-0.35870000000000013,-269.5025026242895
-0.3597,-270.49280053419506
-0.36070000000000013,-271.341627314114
-0.3617,-272.3319252240195
-0.3626999999999999,-273.1807520039386
-0.3637,-273.8881076538711
-0.3646999999999999,-274.5954633038036
-0.3657,-275.30281895373616
-0.3666999999999999,-276.15164573365513
-0.3677,-277.1419436435607
-0.3686999999999999,-277.9907704234797
-0.36970000000000003,-278.9810683333853
-0.3706999999999999,-279.82989511330425
-0.37170000000000003,-280.3957796332503
-0.3726999999999999,-281.1031352831828
-0.37370000000000003,-281.52754867314235
-0.3746999999999999,-282.2349043230748
-0.37570000000000003,-283.3666733629668
-0.3766999999999999,-284.49844240285887
-0.37770000000000004,-285.3472691827779
-0.3786999999999999,-286.47903822266994
-0.37970000000000004,-287.46933613257545
-0.3806999999999999,-288.176691782508
-0.38170000000000004,-288.8840474324405
-0.38269999999999993,-289.59140308237295
-0.38370000000000004,-290.44022986229203
-0.38469999999999993,-291.28905664221105
-0.38570000000000004,-291.9964122921436
-0.38669999999999993,-291.71347003217056
-0.38570000000000004,-289.4499319523865
-0.38469999999999993,-287.04492274261594
-0.38370000000000004,-284.7813846628319
-0.38269999999999993,-282.51784658304786
-0.38170000000000004,-280.5372507632368
-0.3806999999999999,-278.5566549434257
-0.37970000000000004,-276.5760591236147
-0.3786999999999999,-274.5954633038036
-0.37770000000000004,-272.61486748399255
-0.3766999999999999,-270.63427166418154
-0.37570000000000003,-268.512204714384
-0.3746999999999999,-266.5316088945729
-0.37370000000000003,-264.55101307476184
-0.3726999999999999,-262.57041725495077
-0.37170000000000003,-260.58982143513975
-0.3706999999999999,-258.8921678753017
-0.36970000000000003,-256.91157205549064
-0.3686999999999999,-254.93097623567962
-0.3677,-252.95038041586852
-0.3666999999999999,-250.9697845960575
-0.3657,-249.13065990623298
-0.3646999999999999,-247.2915352164084
-0.3637,-245.59388165657037
-0.3626999999999999,-244.03769922671884
-0.3617,-242.19857453689428
-0.36070000000000013,-240.50092097705624
-0.3597,-238.66179628723168
-0.35870000000000013,-236.82267159740715
-0.3577,-234.9835469075826
-0.35670000000000013,-233.28589334774458
-0.3557,-231.5882397879065
-0.3547000000000001,-230.03205735805497
-0.3537,-228.33440379821695
-0.3527000000000001,-226.63675023837888
-0.3517,-224.79762554855435
-0.3507000000000001,-222.9585008587298
-0.3497,-221.11937616890526
-0.3487000000000001,-219.42172260906716
-0.3477,-217.86554017921566
-0.3467000000000001,-216.1678866193776
-0.3457,-214.61170418952605
-0.3447000000000001,-213.05552175967455
-0.3437,-211.21639706985
-0.3427000000000001,-209.51874351001192
-0.3417,-207.8210899501739
-0.3407000000000001,-206.12343639033585
-0.3397,-204.5672539604843
-0.3387000000000001,-203.01107153063276
-0.3377,-201.4548891007812
-0.3367000000000001,-199.89870667092967
-0.3357,-198.20105311109162
-0.3347000000000001,-196.50339955125358
-0.3337,-194.80574599141553
-0.3327000000000001,-193.10809243157752
-0.3317,-191.551910001726
-0.3307000000000001,-189.99572757187443
-0.3297,-188.4395451420229
-0.3287000000000001,-186.88336271217133
-0.3277,-185.3271802823198
-0.3267000000000001,-183.77099785246824
-0.3257,-182.07334429263022
-0.3247000000000001,-180.37569073279218
-0.3237,-178.81950830294062
-0.3227000000000001,-177.4047970030756
-0.3217,-175.99008570321055
-0.3207000000000001,-174.43390327335902
-0.3197,-173.01919197349397
-0.3187000000000001,-171.32153841365593
-0.3177,-169.7653559838044
-0.3167000000000001,-168.20917355395284
-0.3157,-166.51151999411482
-0.3147000000000001,-165.09680869424977
-0.3137,-163.54062626439824
-0.3127000000000001,-162.12591496453322
-0.3117,-160.71120366466818
-0.3107000000000001,-159.01355010483013
-0.3097,-157.45736767497857
-0.3087000000000001,-155.75971411514055
-0.3077,-154.203531685289
-0.3067000000000001,-152.78882038542397
-0.30569999999999997,-151.37410908555893
-0.3047000000000001,-149.95939778569388
-0.30369999999999997,-148.54468648582886
-0.3027000000000001,-146.9885040559773
-0.30169999999999997,-145.43232162612577
-0.3007000000000001,-143.87613919627424
-0.29969999999999997,-142.31995676642268
-0.2987000000000001,-140.79206856256846
-0.29769999999999996,-139.4056514887007
-0.2967000000000001,-138.00508730183432
-0.29569999999999996,-136.66111156696255
-0.2947000000000001,-135.26054738009617
-0.29369999999999996,-133.77510051523788
-0.29270000000000007,-132.24721231138363
-0.29169999999999996,-130.7193241075294
-0.29070000000000007,-129.27631858166706
-0.28969999999999996,-127.88990150779931
-0.28870000000000007,-126.5317786599289
-0.28769999999999996,-125.272685603049
-0.28670000000000007,-123.87212141618261
-0.28569999999999995,-122.38667455132433
-0.28470000000000006,-120.9153747994647
-0.28369999999999995,-119.38748659561045
-0.28270000000000006,-117.94448106974811
-0.28169999999999995,-116.54391688288172
-0.28070000000000006,-115.19994114800993
-0.27969999999999995,-113.88425963913545
-0.27870000000000006,-112.54028390426367
-0.27769999999999995,-111.13971971739728
-0.27670000000000006,-109.69671419153494
-0.27569999999999995,-108.21126732667666
-0.27470000000000006,-106.78240891381296
-0.27369999999999994,-105.38184472694657
-0.27270000000000005,-104.06616321807209
-0.27169999999999994,-102.80707016119221
-0.27070000000000005,-101.54797710431234
-0.26969999999999994,-100.18985425644189
-0.26870000000000005,-98.83173140857146
-0.26769999999999994,-97.36043165671182
