Potential V vs RHE, Current mA cm-2
0.013299999999999867,21.19237527197825
0.012299999999999978,19.664487068124007
0.011299999999999866,18.13659886426977
0.010299999999999976,16.70774045140608
0.009299999999999864,15.307176264539699
0.008299999999999974,13.954712261868721
0.007299999999999862,12.68996035978938
0.006299999999999972,11.425208457710037
0.00529999999999986,10.248168656222326
0.0042999999999999705,9.06971414343475
0.0032999999999998586,7.848818291651225
0.0022999999999999687,6.5840663895718805
0.0012999999999998568,5.319314487492538
0.00029999999999996696,4.098418635709011
-0.000700000000000145,2.8322520223298033
-0.0017000000000000348,1.655212220842093
-0.0027000000000001467,0.5211796428702795
-0.0037000000000000366,-0.5692798270656908
-0.0047000000000001485,-1.6594563547416883
-0.005700000000000038,-2.706342716641815
-0.00670000000000015,-3.7093730282461257
-0.00770000000000004,-4.756259390146253
-0.008700000000000152,-5.847001802342197
-0.009700000000000042,-6.93774421453814
-0.010700000000000154,-8.070927965730034
-0.011700000000000044,-9.161670377925978
-0.012700000000000156,-10.25241279012192
-0.013700000000000045,-11.343155202317865
-0.014700000000000157,-12.346185513922174
-0.015700000000000047,-13.30535977523067
-0.01670000000000016,-14.26028990263957
-0.01770000000000005,-15.137410908555893
-0.01870000000000016,-16.099414592464115
-0.01970000000000005,-17.018976937376394
-0.020700000000000163,-18.009274847281915
-0.021700000000000053,-18.97127853119014
-0.022700000000000164,-20.01816489309027
-0.023700000000000054,-21.065051254990397
-0.024700000000000166,-22.027054938898623
-0.025700000000000056,-22.989058622806844
-0.026700000000000168,-23.908620967719123
-0.027700000000000058,-24.771594860636792
-0.02870000000000017,-25.60627452755716
-0.02970000000000006,-26.483395533473487
-0.03070000000000017,-27.34636942639116
-0.03170000000000006,-28.22349043230748
-0.03270000000000017,-29.14305277721976
-0.03370000000000006,-30.04846800913338
-0.034700000000000175,-31.010471693041605
-0.035700000000000065,-31.972475376949827
-0.03670000000000018,-32.892037721862096
-0.03770000000000007,-33.755011614779775
-0.03870000000000018,-34.58969128170015
-0.03970000000000007,-35.42437094862052
-0.04070000000000018,-36.20246216354629
-0.04170000000000007,-36.99470049147071
-0.04270000000000018,-37.81523304539243
-0.04370000000000007,-38.6499127123128
-0.044700000000000184,-39.51288660523048
-0.045700000000000074,-40.3900076111468
-0.046700000000000186,-41.30956995605907
-0.047700000000000076,-42.229132300971344
-0.04870000000000019,-43.09210619388902
-0.04970000000000008,-43.92678586080939
-0.05070000000000019,-44.66243573673921
-0.05170000000000008,-45.45467406466363
-0.05270000000000019,-46.147882601597495
-0.05370000000000008,-46.982562268517874
-0.05470000000000019,-47.71821214444768
-0.05570000000000008,-48.51045047237211
-0.056700000000000195,-49.373424365289786
-0.057700000000000085,-50.2505453712061
-0.058700000000000196,-51.127666377122424
-0.059700000000000086,-51.948198931044146
-0.0607000000000002,-52.78287859796452
-0.06170000000000009,-53.56096981289029
-0.0627000000000002,-54.35320814081471
-0.06370000000000009,-55.046416677748574
-0.0647000000000002,-55.73962521468245
-0.06570000000000009,-56.53186354260687
-0.0667000000000002,-57.26751341853669
-0.0677000000000001,-58.10219308545706
-0.0687000000000002,-58.92272563937878
-0.0697000000000001,-59.757405306299155
-0.07070000000000021,-60.63452631221547
-0.0717000000000001,-61.412617527141244
-0.07270000000000021,-62.20485585506566
-0.0737000000000001,-62.94050573099548
-0.07470000000000021,-63.6761556069253
-0.0757000000000001,-64.38351125685783
-0.07670000000000021,-65.0767197937917
-0.0777000000000001,-65.82651678272015
-0.07870000000000021,-66.56216665864997
-0.0797000000000001,-67.39684632557035
-0.08070000000000022,-68.21737887949207
-0.0817000000000001,-69.0944998854084
-0.08270000000000022,-69.87259110033416
-0.08370000000000011,-70.70727076725453
-0.08470000000000022,-71.44292064318435
-0.08570000000000011,-72.19271763211282
-0.08670000000000022,-72.8859261690467
-0.08770000000000011,-73.57913470598055
-0.08870000000000022,-74.32893169490903
-0.08970000000000011,-75.02214023184291
-0.09070000000000022,-75.81437855976732
-0.09170000000000011,-76.63491111368903
-0.09270000000000023,-77.42714944161345
-0.09370000000000012,-78.29012333453113
-0.09470000000000023,-79.08236166245555
-0.09570000000000012,-79.86045287738132
-0.09670000000000023,-80.61024986630979
-0.09770000000000012,-81.3458997422396
-0.09870000000000023,-82.03910827917348
-0.09970000000000012,-82.70402259011003
-0.10070000000000023,-83.43967246603985
-0.10170000000000012,-84.18946945496833
-0.10270000000000024,-84.96756066989411
-0.10370000000000013,-85.80224033681448
-0.10470000000000024,-86.6227728907362
-0.10570000000000013,-87.45745255765657
-0.10670000000000024,-88.27798511157829
-0.10770000000000013,-89.02778210050676
-0.10870000000000024,-89.76343197643658
-0.10970000000000013,-90.51322896536506
-0.11070000000000024,-91.20643750229891
-0.11170000000000013,-91.89964603923279
-0.11270000000000002,-92.6070016891653
-0.11370000000000013,-93.34265156509512
-0.11470000000000002,-94.13488989301955
-0.11570000000000014,-94.95542244694126
-0.11670000000000003,-95.79010211386164
-0.11770000000000014,-96.61063466778336
-0.11870000000000003,-97.4877556736997
-0.11970000000000014,-98.2234055496295
-0.12070000000000003,-98.93076119956201
-0.12170000000000014,-99.62396973649588
-0.12270000000000003,-100.31717827342976
-0.12370000000000014,-101.06697526235823
-0.12470000000000003,-101.76018379929208
-0.12570000000000014,-102.5524221272165
-0.12670000000000003,-103.37295468113824
-0.12770000000000015,-104.2076343480586
-0.12870000000000004,-105.07060824097626
-0.12970000000000015,-105.82040522990474
-0.13070000000000004,-106.59849644483052
-0.13170000000000015,-107.34829343375898
-0.13270000000000004,-108.04150197069285
-0.13370000000000015,-108.77715184662266
-0.13470000000000004,-109.4845074965552
-0.13570000000000015,-110.17771603348905
-0.13670000000000004,-110.96995436141347
-0.13770000000000016,-111.74804557633925
-0.13870000000000005,-112.58272524325962
-0.13970000000000016,-113.40325779718134
-0.14070000000000005,-114.23793746410173
-0.14170000000000016,-115.01602867902749
-0.14270000000000005,-115.76582566795594
-0.14370000000000016,-116.50147554388576
-0.14470000000000005,-117.25127253281424
-0.14570000000000016,-117.94448106974811
-0.14670000000000005,-118.68013094567793
-0.14770000000000016,-119.4299279346064
-0.14870000000000005,-120.20801914953216
-0.14970000000000017,-121.04269881645253
-0.15070000000000006,-121.86323137037427
-0.15170000000000017,-122.69791103729463
-0.15270000000000006,-123.4760022522204
-0.15370000000000017,-124.31068191914078
-0.15470000000000006,-125.04633179507057
-0.15570000000000017,-125.83857012299501
-0.15670000000000006,-126.5317786599289
-0.15770000000000017,-127.19669297086547
-0.15870000000000006,-127.93234284679528
-0.15970000000000018,-128.62555138372915
-0.16070000000000007,-129.41778971165354
-0.16170000000000018,-130.19588092657932
-0.16270000000000007,-131.03056059349967
-0.16370000000000018,-131.89353448641737
-0.16470000000000007,-132.72821415333775
-0.16570000000000018,-133.5628938202581
-0.16670000000000007,-134.29854369618792
-0.16770000000000018,-135.03419357211774
-0.16870000000000007,-135.78399056104624
-0.16970000000000018,-136.47719909798008
-0.17070000000000007,-137.1845547479126
-0.17170000000000019,-137.9626459628384
-0.17270000000000008,-138.79732562975875
-0.1737000000000002,-139.61785818368048
-0.17470000000000008,-140.45253785060083
-0.1757000000000002,-141.3155117435185
-0.17670000000000008,-142.17848563643616
-0.1777000000000002,-142.8858412863687
-0.17870000000000008,-143.73466806628772
-0.1797000000000002,-144.44202371622026
-0.18070000000000008,-145.14937936615277
-0.1817000000000002,-145.85673501608528
-0.18270000000000008,-146.7055617960043
-0.1837000000000002,-147.4129174459368
-0.1847000000000001,-148.26174422585584
-0.1857000000000002,-149.1105710057749
-0.1867000000000001,-149.95939778569388
-0.1877000000000002,-150.8082245656129
-0.1887000000000001,-151.65705134553193
-0.1897000000000002,-152.36440699546444
-0.1907000000000001,-153.07176264539694
-0.1917000000000001,-153.77911829532948
-0.19269999999999998,-154.486473945262
-0.1937000000000001,-155.33530072518104
-0.19469999999999998,-156.04265637511355
-0.1957000000000001,-156.75001202504606
-0.19669999999999999,-157.59883880496508
-0.1977000000000001,-158.4476655848841
-0.1987,-159.43796349478964
-0.1997000000000001,-160.14531914472215
-0.2007,-160.99414592464117
-0.2017000000000001,-161.84297270456022
-0.2027,-162.5503283544927
-0.2037000000000001,-163.25768400442522
-0.2047,-163.96503965435775
-0.2057000000000001,-164.67239530429026
-0.2067,-165.5212220842093
-0.2077000000000001,-166.3700488641283
-0.2087,-167.21887564404733
-0.2097000000000001,-168.06770242396635
-0.2107,-168.91652920388537
-0.2117000000000001,-169.7653559838044
-0.2127,-170.61418276372342
-0.2137000000000001,-171.32153841365593
-0.2147,-172.0288940635885
-0.2157000000000001,-172.87772084350746
-0.2167,-173.58507649344
-0.21770000000000012,-174.2924321433725
-0.2187,-175.14125892329156
-0.21970000000000012,-175.99008570321055
-0.2207,-176.8389124831296
-0.22170000000000012,-177.6877392630486
-0.2227,-178.53656604296762
-0.22370000000000012,-179.24392169290016
-0.2247,-180.09274847281918
-0.22570000000000012,-180.94157525273818
-0.2267,-181.64893090267074
-0.22770000000000012,-182.35628655260325
-0.22870000000000001,-183.20511333252225
-0.22970000000000013,-183.91246898245475
-0.23070000000000002,-184.7612957623738
-0.23170000000000013,-185.6101225422928
-0.23270000000000002,-186.60042045219836
-0.23370000000000013,-187.44924723211736
-0.23470000000000002,-188.29807401203638
-0.23570000000000013,-189.1469007919554
-0.23670000000000002,-189.99572757187443
-0.2376999999999999,-190.84455435179345
-0.23870000000000002,-191.551910001726
-0.2396999999999999,-192.2592656516585
-0.24070000000000003,-192.966621301591
-0.24169999999999991,-193.81544808151003
-0.24270000000000003,-194.66427486142905
-0.24369999999999992,-195.51310164134807
-0.24470000000000003,-196.3619284212671
-0.24569999999999992,-197.21075520118612
-0.24670000000000003,-198.05958198110514
-0.24769999999999992,-198.90840876102413
-0.24870000000000003,-199.61576441095667
-0.24969999999999992,-200.4645911908757
-0.25070000000000003,-201.17194684080823
-0.2516999999999999,-201.87930249074074
-0.25270000000000004,-202.58665814067325
-0.2536999999999999,-203.43548492059227
-0.25470000000000004,-204.2843117005113
-0.2556999999999999,-205.13313848043032
-0.25670000000000004,-205.98196526034934
-0.25769999999999993,-206.83079204026836
-0.25870000000000004,-207.67961882018741
-0.25969999999999993,-208.52844560010638
-0.26070000000000004,-209.23580125003892
-0.26169999999999993,-210.08462802995794
-0.26270000000000004,-210.65051254990397
-0.26369999999999993,-211.499339329823
-0.26470000000000005,-212.2066949797555
-0.26569999999999994,-213.05552175967455
-0.26670000000000005,-213.90434853959354
-0.26769999999999994,-214.75317531951256
-0.26870000000000005,-215.7434732294181
-0.26969999999999994,-216.59230000933712
-0.27070000000000005,-217.44112678925615
-0.27169999999999994,-218.14848243918865
-0.27270000000000005,-218.99730921910768
-0.27369999999999994,-219.7046648690402
-0.27470000000000006,-220.41202051897272
-0.27569999999999995,-221.11937616890526
-0.27670000000000006,-221.96820294882426
-0.27769999999999995,-222.81702972874328
-0.27870000000000006,-223.6658565086623
-0.27969999999999995,-224.5146832885813
-0.28070000000000006,-225.50498119848683
-0.28169999999999995,-226.35380797840588
-0.28270000000000006,-227.06116362833836
-0.28369999999999995,-227.9099904082574
-0.28470000000000006,-228.61734605818995
-0.28569999999999995,-229.32470170812243
-0.28670000000000007,-230.17352848804146
-0.28769999999999996,-231.0223552679605
-0.28870000000000007,-231.729710917893
-0.28969999999999996,-232.72000882779852
-0.29070000000000007,-233.56883560771757
-0.29169999999999996,-234.4176623876366
-0.29270000000000007,-235.26648916755556
-0.29369999999999996,-236.1153159474746
-0.2947000000000001,-236.82267159740715
-0.29569999999999996,-237.53002724733966
-0.2967000000000001,-238.37885402725868
-0.29769999999999996,-239.0862096771912
-0.2987000000000001,-239.7935653271237
-0.29969999999999997,-240.64239210704275
-0.3007000000000001,-241.34974775697523
-0.30169999999999997,-242.19857453689428
-0.3027000000000001,-243.04740131681334
-0.30369999999999997,-244.03769922671884
-0.3047000000000001,-244.8865260066378
-0.30569999999999997,-245.87682391654337
-0.3067000000000001,-246.7256506964624
-0.3077,-247.4330063463949
-0.3087000000000001,-248.28183312631393
-0.3097,-248.9891887762465
-0.3107000000000001,-249.69654442617897
-0.3117,-250.545371206098
-0.3127000000000001,-251.39419798601702
-0.3137,-252.38449589592256
-0.3147000000000001,-253.23332267584152
-0.3157,-254.08214945576057
-0.3167000000000001,-254.93097623567962
-0.3177,-255.77980301559862
-0.3187000000000001,-256.4871586655312
-0.3197,-257.1945143154637
-0.3207000000000001,-258.0433410953827
-0.3217,-258.60922561532874
-0.3227000000000001,-259.4580523952477
-0.3237,-260.16540804518024
-0.3247000000000001,-261.01423482509927
-0.3257,-261.58011934504526
-0.3267000000000001,-262.1460038649913
-0.3277,-262.9948306449103
-0.3287000000000001,-263.84365742482936
-0.3297,-264.6924842047484
-0.3307000000000001,-265.39983985468086
-0.3317,-266.1071955046134
-0.3327000000000001,-266.9560222845325
-0.3337,-267.6633779344649
-0.3347000000000001,-268.512204714384
-0.3357,-269.361031494303
-0.3367000000000001,-270.20985827422203
-0.3377,-271.05868505414105
-0.3387000000000001,-272.04898296404656
-0.3397,-272.8978097439656
-0.3407000000000001,-273.7466365238846
-0.3417,-274.5954633038036
-0.3427000000000001,-275.30281895373616
-0.3437,-276.01017460366864
-0.3447000000000001,-276.8590013835877
-0.3457,-277.56635703352015
-0.3467000000000001,-278.4151838134392
-0.3477,-279.26401059335825
-0.3487000000000001,-280.25430850326376
-0.3497,-281.1031352831828
-0.3507000000000001,-282.09343319308834
-0.3517,-282.9422599730073
-0.3527000000000001,-283.79108675292633
-0.3537,-284.35697127287233
-0.3547000000000001,-285.2057980527914
-0.3557,-286.0546248327104
-0.35670000000000013,-286.76198048264297
-0.3577,-287.610807262562
-0.35870000000000013,-288.45963404248096
-0.3597,-289.3084608224
-0.36070000000000013,-290.157287602319
-0.3617,-291.14758551222457
-0.3626999999999999,-292.1378834221301
-0.3637,-292.9867102020491
-0.3646999999999999,-293.8355369819681
-0.3657,-294.68436376188714
-0.3666999999999999,-295.53319054180616
-0.3677,-296.3820173217252
-0.3686999999999999,-297.23084410164427
-0.36970000000000003,-298.07967088156323
-0.3706999999999999,-298.9284976614822
-0.37170000000000003,-299.7773244414013
-0.3726999999999999,-300.6261512213203
-0.37370000000000003,-301.6164491312258
-0.3746999999999999,-302.4652759111449
-0.37570000000000003,-303.4555738210504
-0.3766999999999999,-304.3044006009694
-0.37770000000000004,-305.29469851087487
-0.3786999999999999,-306.1435252907939
-0.37970000000000004,-306.8508809407265
-0.3806999999999999,-307.55823659065896
-0.38170000000000004,-308.407063370578
-0.38269999999999993,-309.255890150497
-0.38370000000000004,-310.10471693041603
-0.38469999999999993,-311.09501484032154
-0.38570000000000004,-311.94384162024056
-0.38669999999999993,-311.80237049025413
-0.38570000000000004,-309.6803035404565
-0.38469999999999993,-307.4167654606725
-0.38370000000000004,-305.29469851087487
-0.38269999999999993,-303.0311604310908
-0.38170000000000004,-300.9090934812933
-0.3806999999999999,-298.9284976614822
-0.37970000000000004,-296.80643071168464
-0.3786999999999999,-294.96730602186017
-0.37770000000000004,-292.9867102020491
-0.3766999999999999,-291.14758551222457
-0.37570000000000003,-289.3084608224
-0.3746999999999999,-287.327865002589
-0.37370000000000003,-285.3472691827779
-0.3726999999999999,-283.3666733629668
-0.37170000000000003,-281.3860775431558
-0.3706999999999999,-279.26401059335825
-0.36970000000000003,-277.4248859035337
-0.3686999999999999,-275.44429008372265
-0.3677,-273.60516539389806
-0.3666999999999999,-271.7660407040736
-0.3657,-269.926916014249
-0.3646999999999999,-268.22926245441096
-0.3637,-266.3901377645864
-0.3626999999999999,-264.6924842047484
-0.3617,-262.8533595149238
-0.36070000000000013,-261.01423482509927
-0.3597,-259.17511013527474
-0.35870000000000013,-257.0530431854772
-0.3577,-254.78950510569314
-0.35670000000000013,-253.09185154585506
-0.3557,-251.39419798601702
-0.3547000000000001,-249.5550732961925
-0.3537,-247.85741973635444
-0.3527000000000001,-246.15976617651637
-0.3517,-244.46211261667833
-0.3507000000000001,-242.76445905684034
-0.3497,-241.06680549700224
-0.3487000000000001,-239.2276808071777
-0.3477,-237.38855611735315
-0.3467000000000001,-235.69090255751513
-0.3457,-233.85177786769057
-0.3447000000000001,-232.15412430785253
-0.3437,-230.59794187800094
-0.3427000000000001,-228.90028831816295
-0.3417,-227.34410588831142
-0.3407000000000001,-225.78792345845983
-0.3397,-224.09026989862178
-0.3387000000000001,-222.3926163387838
-0.3377,-220.5534916489592
-0.3367000000000001,-218.85583808912116
-0.3357,-217.15818452928315
-0.3347000000000001,-215.4605309694451
-0.3337,-213.76287740960703
-0.3327000000000001,-212.2066949797555
-0.3317,-210.65051254990397
-0.3307000000000001,-208.95285899006592
-0.3297,-207.5381476902009
-0.3287000000000001,-205.98196526034934
-0.3277,-204.2843117005113
-0.3267000000000001,-202.7281292706598
-0.3257,-201.17194684080823
-0.3247000000000001,-199.47429328097016
-0.3237,-197.91811085111863
-0.3227000000000001,-196.3619284212671
-0.3217,-194.66427486142905
-0.3207000000000001,-193.249563561564
-0.3197,-191.69338113171247
-0.3187000000000001,-190.13719870186094
-0.3177,-188.58101627200938
-0.3167000000000001,-187.16630497214436
-0.3157,-185.6101225422928
-0.3147000000000001,-183.91246898245475
-0.3137,-182.35628655260325
-0.3127000000000001,-180.65863299276518
-0.3117,-179.10245056291362
-0.3107000000000001,-177.4047970030756
-0.3097,-175.84861457322407
-0.3087000000000001,-174.43390327335902
-0.3077,-173.01919197349397
-0.3067000000000001,-171.60448067362896
-0.30569999999999997,-170.18976937376394
-0.3047000000000001,-168.77505807389886
-0.30369999999999997,-167.21887564404733
-0.3027000000000001,-165.6626932141958
-0.30169999999999997,-164.10651078434424
-0.3007000000000001,-162.5503283544927
-0.29969999999999997,-160.99414592464117
-0.2987000000000001,-159.43796349478964
-0.29769999999999996,-158.02325219492457
-0.2967000000000001,-156.60854089505958
-0.29569999999999996,-155.19382959519453
-0.2947000000000001,-153.77911829532948
-0.29369999999999996,-152.36440699546444
-0.29270000000000007,-150.8082245656129
-0.29169999999999996,-149.39351326574788
-0.29070000000000007,-147.83733083589632
-0.28969999999999996,-146.28114840604482
-0.28870000000000007,-144.72496597619326
-0.28769999999999996,-143.3102546763282
-0.28670000000000007,-141.89554337646317
-0.28569999999999995,-140.45253785060083
-0.28470000000000006,-139.05197366373446
-0.28369999999999995,-137.70799792886265
-0.28270000000000006,-136.34987508099226
-0.28169999999999995,-134.94931089412586
-0.28070000000000006,-133.52045248126214
-0.27969999999999995,-132.03500561640385
-0.27870000000000006,-130.63444142953747
-0.27769999999999995,-129.1489945646792
-0.27670000000000006,-127.72013615181551
-0.27569999999999995,-126.23468928695722
-0.27470000000000006,-124.83412510009084
-0.27369999999999994,-123.43356091322445
-0.27270000000000005,-122.08958517835266
-0.27169999999999994,-120.81634500847414
-0.27070000000000005,-119.4299279346064
-0.26969999999999994,-118.11424642573192
-0.26870000000000005,-116.72782935186417
-0.26769999999999994,-115.28482382600184
