Apr. 18, 2025   21:37:14
Cyclic Voltammetry
File: c:/users/guazh/data/banditlqround7_x0exp590_r20/2025-04-16-exp1121\exp1121-2025-04-18t21_23_00-arkoh\exp1121_cv_sr_300mvs_efin_-1600mv.bin
Data Source:  Experiment
Instrument Model:  CHI760E
Header: CV ran at 300 mVs
Note: 

Init E (V) = -1
High E (V) = -1
Low E (V) = -1.6
Final E (V) = -1
Init P/N = N
Scan Rate (V/s) = 0.3
Segment = 3
Sample Interval (V) = 0.001
Quiet Time (sec) = 2
Sensitivity (A/V) = 0.01
Comp R (ohm) = 1.8

Results:

Channel 1:
Segment 1:

Segment 2:

Segment 3:

Potential/V, Current/A

-1.000, 1.557e-5
-1.001, 3.407e-5
-1.002, 4.949e-5
-1.003, 5.565e-5
-1.004, 4.949e-5
-1.005, 4.024e-5
-1.006, 4.332e-5
-1.007, 5.565e-5
-1.008, 5.873e-5
-1.009, 5.257e-5
-1.010, 4.332e-5
-1.011, 4.332e-5
-1.012, 5.565e-5
-1.013, 6.182e-5
-1.014, 5.257e-5
-1.015, 4.332e-5
-1.016, 4.640e-5
-1.017, 5.565e-5
-1.018, 6.182e-5
-1.019, 5.565e-5
-1.020, 4.332e-5
-1.021, 4.640e-5
-1.022, 5.873e-5
-1.023, 6.490e-5
-1.024, 5.565e-5
-1.025, 4.640e-5
-1.026, 4.640e-5
-1.027, 5.873e-5
-1.028, 6.490e-5
-1.029, 5.565e-5
-1.030, 4.640e-5
-1.031, 4.949e-5
-1.032, 5.873e-5
-1.033, 6.490e-5
-1.034, 5.565e-5
-1.035, 4.640e-5
-1.036, 4.949e-5
-1.037, 5.873e-5
-1.038, 6.490e-5
-1.039, 5.565e-5
-1.040, 4.640e-5
-1.041, 4.949e-5
-1.042, 6.182e-5
-1.043, 6.490e-5
-1.044, 5.873e-5
-1.045, 4.640e-5
-1.046, 4.949e-5
-1.047, 6.182e-5
-1.048, 6.490e-5
-1.049, 5.873e-5
-1.050, 4.640e-5
-1.051, 4.949e-5
-1.052, 6.182e-5
-1.053, 6.490e-5
-1.054, 5.565e-5
-1.055, 4.949e-5
-1.056, 5.257e-5
-1.057, 6.182e-5
-1.058, 6.490e-5
-1.059, 5.873e-5
-1.060, 4.949e-5
-1.061, 5.257e-5
-1.062, 6.182e-5
-1.063, 6.798e-5
-1.064, 5.873e-5
-1.065, 4.949e-5
-1.066, 5.257e-5
-1.067, 6.182e-5
-1.068, 6.798e-5
-1.069, 5.873e-5
-1.070, 4.949e-5
-1.071, 5.257e-5
-1.072, 6.490e-5
-1.073, 6.798e-5
-1.074, 5.873e-5
-1.075, 4.949e-5
-1.076, 5.257e-5
-1.077, 6.182e-5
-1.078, 6.798e-5
-1.079, 5.873e-5
-1.080, 4.949e-5
-1.081, 5.257e-5
-1.082, 6.490e-5
-1.083, 6.798e-5
-1.084, 5.873e-5
-1.085, 4.949e-5
-1.086, 5.257e-5
-1.087, 6.490e-5
-1.088, 6.798e-5
-1.089, 6.182e-5
-1.090, 4.949e-5
-1.091, 5.257e-5
-1.092, 6.490e-5
-1.093, 6.798e-5
-1.094, 6.182e-5
-1.095, 4.949e-5
-1.096, 5.257e-5
-1.097, 6.490e-5
-1.098, 6.798e-5
-1.099, 6.182e-5
-1.100, 5.257e-5
-1.101, 5.257e-5
-1.102, 6.490e-5
-1.103, 7.107e-5
-1.104, 6.182e-5
-1.105, 5.257e-5
-1.106, 5.565e-5
-1.107, 6.490e-5
-1.108, 7.107e-5
-1.109, 6.182e-5
-1.110, 5.257e-5
-1.111, 5.565e-5
-1.112, 6.798e-5
-1.113, 7.107e-5
-1.114, 6.182e-5
-1.115, 5.257e-5
-1.116, 5.565e-5
-1.117, 6.798e-5
-1.118, 7.107e-5
-1.119, 6.490e-5
-1.120, 5.257e-5
-1.121, 5.565e-5
-1.122, 6.798e-5
-1.123, 7.107e-5
-1.124, 6.490e-5
-1.125, 5.257e-5
-1.126, 5.565e-5
-1.127, 6.798e-5
-1.128, 7.107e-5
-1.129, 6.490e-5
-1.130, 5.565e-5
-1.131, 5.873e-5
-1.132, 7.107e-5
-1.133, 7.415e-5
-1.134, 6.490e-5
-1.135, 5.257e-5
-1.136, 5.873e-5
-1.137, 6.798e-5
-1.138, 7.415e-5
-1.139, 6.490e-5
-1.140, 5.565e-5
-1.141, 5.873e-5
-1.142, 7.107e-5
-1.143, 7.415e-5
-1.144, 6.490e-5
-1.145, 5.565e-5
-1.146, 5.873e-5
-1.147, 7.107e-5
-1.148, 7.415e-5
-1.149, 6.490e-5
-1.150, 5.565e-5
-1.151, 5.873e-5
-1.152, 7.107e-5
-1.153, 7.415e-5
-1.154, 6.490e-5
-1.155, 5.565e-5
-1.156, 6.182e-5
-1.157, 7.107e-5
-1.158, 7.415e-5
-1.159, 6.798e-5
-1.160, 5.565e-5
-1.161, 6.182e-5
-1.162, 7.107e-5
-1.163, 7.415e-5
-1.164, 6.798e-5
-1.165, 5.873e-5
-1.166, 6.182e-5
-1.167, 7.107e-5
-1.168, 7.723e-5
-1.169, 6.798e-5
-1.170, 5.873e-5
-1.171, 6.182e-5
-1.172, 7.415e-5
-1.173, 7.723e-5
-1.174, 6.798e-5
-1.175, 5.873e-5
-1.176, 6.182e-5
-1.177, 7.415e-5
-1.178, 7.723e-5
-1.179, 6.798e-5
-1.180, 5.873e-5
-1.181, 6.182e-5
-1.182, 7.415e-5
-1.183, 7.723e-5
-1.184, 7.107e-5
-1.185, 6.182e-5
-1.186, 6.182e-5
-1.187, 7.415e-5
-1.188, 7.723e-5
-1.189, 6.798e-5
-1.190, 5.873e-5
-1.191, 6.490e-5
-1.192, 7.415e-5
-1.193, 7.723e-5
-1.194, 7.107e-5
-1.195, 6.182e-5
-1.196, 6.490e-5
-1.197, 7.723e-5
-1.198, 8.032e-5
-1.199, 7.107e-5
-1.200, 6.182e-5
-1.201, 6.490e-5
-1.202, 7.723e-5
-1.203, 8.032e-5
-1.204, 7.107e-5
-1.205, 6.182e-5
-1.206, 6.490e-5
-1.207, 7.723e-5
-1.208, 8.032e-5
-1.209, 7.107e-5
-1.210, 6.182e-5
-1.211, 6.490e-5
-1.212, 7.723e-5
-1.213, 8.032e-5
-1.214, 7.107e-5
-1.215, 6.182e-5
-1.216, 6.490e-5
-1.217, 7.723e-5
-1.218, 8.032e-5
-1.219, 7.107e-5
-1.220, 6.490e-5
-1.221, 6.490e-5
-1.222, 7.723e-5
-1.223, 8.032e-5
-1.224, 7.415e-5
-1.225, 6.490e-5
-1.226, 6.490e-5
-1.227, 7.723e-5
-1.228, 8.340e-5
-1.229, 7.415e-5
-1.230, 6.490e-5
-1.231, 6.798e-5
-1.232, 8.032e-5
-1.233, 8.340e-5
-1.234, 7.415e-5
-1.235, 6.490e-5
-1.236, 6.798e-5
-1.237, 8.032e-5
-1.238, 8.340e-5
-1.239, 7.415e-5
-1.240, 6.490e-5
-1.241, 7.107e-5
-1.242, 8.032e-5
-1.243, 8.340e-5
-1.244, 7.415e-5
-1.245, 6.798e-5
-1.246, 7.107e-5
-1.247, 8.340e-5
-1.248, 8.340e-5
-1.249, 7.723e-5
-1.250, 6.798e-5
-1.251, 7.107e-5
-1.252, 8.340e-5
-1.253, 8.648e-5
-1.254, 7.723e-5
-1.255, 7.107e-5
-1.256, 7.107e-5
-1.257, 8.340e-5
-1.258, 8.648e-5
-1.259, 7.723e-5
-1.260, 6.798e-5
-1.261, 7.415e-5
-1.262, 8.340e-5
-1.263, 8.957e-5
-1.264, 8.032e-5
-1.265, 7.107e-5
-1.266, 7.415e-5
-1.267, 8.648e-5
-1.268, 8.957e-5
-1.269, 8.032e-5
-1.270, 7.107e-5
-1.271, 7.723e-5
-1.272, 8.648e-5
-1.273, 8.957e-5
-1.274, 8.340e-5
-1.275, 7.107e-5
-1.276, 7.723e-5
-1.277, 8.957e-5
-1.278, 9.265e-5
-1.279, 8.340e-5
-1.280, 7.723e-5
-1.281, 8.032e-5
-1.282, 8.957e-5
-1.283, 9.573e-5
-1.284, 8.648e-5
-1.285, 7.723e-5
-1.286, 8.032e-5
-1.287, 9.265e-5
-1.288, 9.573e-5
-1.289, 8.957e-5
-1.290, 8.032e-5
-1.291, 8.340e-5
-1.292, 9.573e-5
-1.293, 9.882e-5
-1.294, 8.957e-5
-1.295, 8.340e-5
-1.296, 8.648e-5
-1.297, 9.882e-5
-1.298, 1.019e-4
-1.299, 9.265e-5
-1.300, 8.648e-5
-1.301, 8.957e-5
-1.302, 1.019e-4
-1.303, 1.050e-4
-1.304, 9.573e-5
-1.305, 8.957e-5
-1.306, 9.265e-5
-1.307, 1.050e-4
-1.308, 1.081e-4
-1.309, 9.882e-5
-1.310, 9.265e-5
-1.311, 9.573e-5
-1.312, 1.081e-4
-1.313, 1.111e-4
-1.314, 1.050e-4
-1.315, 9.573e-5
-1.316, 1.019e-4
-1.317, 1.111e-4
-1.318, 1.142e-4
-1.319, 1.081e-4
-1.320, 1.019e-4
-1.321, 1.050e-4
-1.322, 1.173e-4
-1.323, 1.204e-4
-1.324, 1.142e-4
-1.325, 1.050e-4
-1.326, 1.111e-4
-1.327, 1.235e-4
-1.328, 1.266e-4
-1.329, 1.173e-4
-1.330, 1.111e-4
-1.331, 1.142e-4
-1.332, 1.296e-4
-1.333, 1.327e-4
-1.334, 1.266e-4
-1.335, 1.173e-4
-1.336, 1.235e-4
-1.337, 1.358e-4
-1.338, 1.389e-4
-1.339, 1.327e-4
-1.340, 1.266e-4
-1.341, 1.296e-4
-1.342, 1.420e-4
-1.343, 1.481e-4
-1.344, 1.420e-4
-1.345, 1.327e-4
-1.346, 1.389e-4
-1.347, 1.512e-4
-1.348, 1.574e-4
-1.349, 1.512e-4
-1.350, 1.451e-4
-1.351, 1.512e-4
-1.352, 1.636e-4
-1.353, 1.666e-4
-1.354, 1.605e-4
-1.355, 1.543e-4
-1.356, 1.636e-4
-1.357, 1.728e-4
-1.358, 1.759e-4
-1.359, 1.759e-4
-1.360, 1.666e-4
-1.361, 1.759e-4
-1.362, 1.882e-4
-1.363, 1.944e-4
-1.364, 1.882e-4
-1.365, 1.851e-4
-1.366, 1.882e-4
-1.367, 2.036e-4
-1.368, 2.098e-4
-1.369, 2.067e-4
-1.370, 2.006e-4
-1.371, 2.067e-4
-1.372, 2.221e-4
-1.373, 2.283e-4
-1.374, 2.252e-4
-1.375, 2.221e-4
-1.376, 2.283e-4
-1.377, 2.437e-4
-1.378, 2.530e-4
-1.379, 2.499e-4
-1.380, 2.468e-4
-1.381, 2.561e-4
-1.382, 2.715e-4
-1.383, 2.807e-4
-1.384, 2.807e-4
-1.385, 2.807e-4
-1.386, 2.900e-4
-1.387, 3.085e-4
-1.388, 3.208e-4
-1.389, 3.208e-4
-1.390, 3.208e-4
-1.391, 3.362e-4
-1.392, 3.547e-4
-1.393, 3.701e-4
-1.394, 3.732e-4
-1.395, 3.794e-4
-1.396, 3.948e-4
-1.397, 4.195e-4
-1.398, 4.380e-4
-1.399, 4.472e-4
-1.400, 4.565e-4
-1.401, 4.780e-4
-1.402, 5.058e-4
-1.403, 5.274e-4
-1.404, 5.397e-4
-1.405, 5.520e-4
-1.406, 5.767e-4
-1.407, 6.075e-4
-1.408, 6.353e-4
-1.409, 6.507e-4
-1.410, 6.661e-4
-1.411, 6.908e-4
-1.412, 7.247e-4
-1.413, 7.524e-4
-1.414, 7.709e-4
-1.415, 7.863e-4
-1.416, 8.110e-4
-1.417, 8.480e-4
-1.418, 8.758e-4
-1.419, 8.943e-4
-1.420, 9.097e-4
-1.421, 9.343e-4
-1.422, 9.683e-4
-1.423, 9.991e-4
-1.424, 1.018e-3
-1.425, 1.033e-3
-1.426, 1.058e-3
-1.427, 1.092e-3
-1.428, 1.122e-3
-1.429, 1.141e-3
-1.430, 1.159e-3
-1.431, 1.184e-3
-1.432, 1.218e-3
-1.433, 1.249e-3
-1.434, 1.270e-3
-1.435, 1.286e-3
-1.436, 1.314e-3
-1.437, 1.351e-3
-1.438, 1.381e-3
-1.439, 1.403e-3
-1.440, 1.421e-3
-1.441, 1.449e-3
-1.442, 1.483e-3
-1.443, 1.517e-3
-1.444, 1.542e-3
-1.445, 1.557e-3
-1.446, 1.585e-3
-1.447, 1.625e-3
-1.448, 1.662e-3
-1.449, 1.687e-3
-1.450, 1.705e-3
-1.451, 1.733e-3
-1.452, 1.773e-3
-1.453, 1.810e-3
-1.454, 1.835e-3
-1.455, 1.856e-3
-1.456, 1.887e-3
-1.457, 1.930e-3
-1.458, 1.970e-3
-1.459, 1.998e-3
-1.460, 2.020e-3
-1.461, 2.050e-3
-1.462, 2.094e-3
-1.463, 2.137e-3
-1.464, 2.164e-3
-1.465, 2.186e-3
-1.466, 2.220e-3
-1.467, 2.263e-3
-1.468, 2.306e-3
-1.469, 2.340e-3
-1.470, 2.365e-3
-1.471, 2.399e-3
-1.472, 2.445e-3
-1.473, 2.491e-3
-1.474, 2.525e-3
-1.475, 2.550e-3
-1.476, 2.587e-3
-1.477, 2.633e-3
-1.478, 2.682e-3
-1.479, 2.716e-3
-1.480, 2.744e-3
-1.481, 2.781e-3
-1.482, 2.827e-3
-1.483, 2.880e-3
-1.484, 2.917e-3
-1.485, 2.948e-3
-1.486, 2.988e-3
-1.487, 3.037e-3
-1.488, 3.093e-3
-1.489, 3.133e-3
-1.490, 3.160e-3
-1.491, 3.200e-3
-1.492, 3.256e-3
-1.493, 3.311e-3
-1.494, 3.351e-3
-1.495, 3.382e-3
-1.496, 3.422e-3
-1.497, 3.481e-3
-1.498, 3.536e-3
-1.499, 3.580e-3
-1.500, 3.614e-3
-1.501, 3.657e-3
-1.502, 3.715e-3
-1.503, 3.774e-3
-1.504, 3.817e-3
-1.505, 3.854e-3
-1.506, 3.897e-3
-1.507, 3.959e-3
-1.508, 4.021e-3
-1.509, 4.067e-3
-1.510, 4.104e-3
-1.511, 4.150e-3
-1.512, 4.212e-3
-1.513, 4.273e-3
-1.514, 4.326e-3
-1.515, 4.363e-3
-1.516, 4.409e-3
-1.517, 4.474e-3
-1.518, 4.542e-3
-1.519, 4.591e-3
-1.520, 4.634e-3
-1.521, 4.683e-3
-1.522, 4.751e-3
-1.523, 4.822e-3
-1.524, 4.881e-3
-1.525, 4.924e-3
-1.526, 4.973e-3
-1.527, 5.044e-3
-1.528, 5.115e-3
-1.529, 5.174e-3
-1.530, 5.217e-3
-1.531, 5.269e-3
-1.532, 5.343e-3
-1.533, 5.414e-3
-1.534, 5.473e-3
-1.535, 5.516e-3
-1.536, 5.568e-3
-1.537, 5.642e-3
-1.538, 5.719e-3
-1.539, 5.778e-3
-1.540, 5.824e-3
-1.541, 5.877e-3
-1.542, 5.947e-3
-1.543, 6.021e-3
-1.544, 6.083e-3
-1.545, 6.129e-3
-1.546, 6.185e-3
-1.547, 6.259e-3
-1.548, 6.339e-3
-1.549, 6.407e-3
-1.550, 6.450e-3
-1.551, 6.506e-3
-1.552, 6.586e-3
-1.553, 6.669e-3
-1.554, 6.737e-3
-1.555, 6.789e-3
-1.556, 6.848e-3
-1.557, 6.931e-3
-1.558, 7.017e-3
-1.559, 7.085e-3
-1.560, 7.141e-3
-1.561, 7.202e-3
-1.562, 7.286e-3
-1.563, 7.372e-3
-1.564, 7.440e-3
-1.565, 7.495e-3
-1.566, 7.551e-3
-1.567, 7.637e-3
-1.568, 7.723e-3
-1.569, 7.791e-3
-1.570, 7.844e-3
-1.571, 7.911e-3
-1.572, 8.007e-3
-1.573, 8.103e-3
-1.574, 8.177e-3
-1.575, 8.232e-3
-1.576, 8.297e-3
-1.577, 8.386e-3
-1.578, 8.479e-3
-1.579, 8.556e-3
-1.580, 8.611e-3
-1.581, 8.676e-3
-1.582, 8.765e-3
-1.583, 8.858e-3
-1.584, 8.935e-3
-1.585, 8.997e-3
-1.586, 9.061e-3
-1.587, 9.151e-3
-1.588, 9.249e-3
-1.589, 9.327e-3
-1.590, 9.388e-3
-1.591, 9.459e-3
-1.592, 9.552e-3
-1.593, 9.653e-3
-1.594, 9.730e-3
-1.595, 9.792e-3
-1.596, 9.863e-3
-1.597, 9.956e-3
-1.598, 1.008e-2
-1.599, 1.016e-2
-1.600, 1.014e-2
-1.599, 1.003e-2
-1.598, 9.952e-3
-1.597, 9.882e-3
-1.596, 9.783e-3
-1.595, 9.666e-3
-1.594, 9.558e-3
-1.593, 9.471e-3
-1.592, 9.397e-3
-1.591, 9.302e-3
-1.590, 9.197e-3
-1.589, 9.092e-3
-1.588, 9.012e-3
-1.587, 8.938e-3
-1.586, 8.855e-3
-1.585, 8.738e-3
-1.584, 8.645e-3
-1.583, 8.571e-3
-1.582, 8.497e-3
-1.581, 8.411e-3
-1.580, 8.303e-3
-1.579, 8.214e-3
-1.578, 8.143e-3
-1.577, 8.072e-3
-1.576, 7.982e-3
-1.575, 7.881e-3
-1.574, 7.791e-3
-1.573, 7.720e-3
-1.572, 7.656e-3
-1.571, 7.582e-3
-1.570, 7.489e-3
-1.569, 7.406e-3
-1.568, 7.344e-3
-1.567, 7.282e-3
-1.566, 7.205e-3
-1.565, 7.107e-3
-1.564, 7.020e-3
-1.563, 6.971e-3
-1.562, 6.912e-3
-1.561, 6.838e-3
-1.560, 6.746e-3
-1.559, 6.660e-3
-1.558, 6.601e-3
-1.557, 6.543e-3
-1.556, 6.462e-3
-1.555, 6.376e-3
-1.554, 6.293e-3
-1.553, 6.231e-3
-1.552, 6.179e-3
-1.551, 6.108e-3
-1.550, 6.021e-3
-1.549, 5.947e-3
-1.548, 5.892e-3
-1.547, 5.840e-3
-1.546, 5.762e-3
-1.545, 5.688e-3
-1.544, 5.618e-3
-1.543, 5.559e-3
-1.542, 5.500e-3
-1.541, 5.430e-3
-1.540, 5.346e-3
-1.539, 5.278e-3
-1.538, 5.226e-3
-1.537, 5.174e-3
-1.536, 5.103e-3
-1.535, 5.029e-3
-1.534, 4.961e-3
-1.533, 4.912e-3
-1.532, 4.865e-3
-1.531, 4.801e-3
-1.530, 4.727e-3
-1.529, 4.662e-3
-1.528, 4.616e-3
-1.527, 4.569e-3
-1.526, 4.508e-3
-1.525, 4.443e-3
-1.524, 4.387e-3
-1.523, 4.344e-3
-1.522, 4.301e-3
-1.521, 4.239e-3
-1.520, 4.172e-3
-1.519, 4.116e-3
-1.518, 4.070e-3
-1.517, 4.027e-3
-1.516, 3.968e-3
-1.515, 3.900e-3
-1.514, 3.845e-3
-1.513, 3.802e-3
-1.512, 3.765e-3
-1.511, 3.709e-3
-1.510, 3.647e-3
-1.509, 3.598e-3
-1.508, 3.564e-3
-1.507, 3.524e-3
-1.506, 3.469e-3
-1.505, 3.407e-3
-1.504, 3.361e-3
-1.503, 3.327e-3
-1.502, 3.293e-3
-1.501, 3.241e-3
-1.500, 3.188e-3
-1.499, 3.139e-3
-1.498, 3.102e-3
-1.497, 3.068e-3
-1.496, 3.025e-3
-1.495, 2.972e-3
-1.494, 2.926e-3
-1.493, 2.892e-3
-1.492, 2.858e-3
-1.491, 2.812e-3
-1.490, 2.760e-3
-1.489, 2.719e-3
-1.488, 2.686e-3
-1.487, 2.655e-3
-1.486, 2.608e-3
-1.485, 2.559e-3
-1.484, 2.516e-3
-1.483, 2.488e-3
-1.482, 2.457e-3
-1.481, 2.411e-3
-1.480, 2.362e-3
-1.479, 2.328e-3
-1.478, 2.300e-3
-1.477, 2.275e-3
-1.476, 2.232e-3
-1.475, 2.186e-3
-1.474, 2.152e-3
-1.473, 2.124e-3
-1.472, 2.097e-3
-1.471, 2.060e-3
-1.470, 2.013e-3
-1.469, 1.980e-3
-1.468, 1.964e-3
-1.467, 1.933e-3
-1.466, 1.899e-3
-1.465, 1.856e-3
-1.464, 1.822e-3
-1.463, 1.804e-3
-1.462, 1.776e-3
-1.461, 1.742e-3
-1.460, 1.702e-3
-1.459, 1.671e-3
-1.458, 1.653e-3
-1.457, 1.628e-3
-1.456, 1.594e-3
-1.455, 1.557e-3
-1.454, 1.529e-3
-1.453, 1.514e-3
-1.452, 1.492e-3
-1.451, 1.458e-3
-1.450, 1.421e-3
-1.449, 1.397e-3
-1.448, 1.381e-3
-1.447, 1.363e-3
-1.446, 1.332e-3
-1.445, 1.295e-3
-1.444, 1.273e-3
-1.443, 1.258e-3
-1.442, 1.240e-3
-1.441, 1.209e-3
-1.440, 1.178e-3
-1.439, 1.156e-3
-1.438, 1.144e-3
-1.437, 1.125e-3
-1.436, 1.098e-3
-1.435, 1.067e-3
-1.434, 1.048e-3
-1.433, 1.036e-3
-1.432, 1.021e-3
-1.431, 9.929e-4
-1.430, 9.652e-4
-1.429, 9.467e-4
-1.428, 9.374e-4
-1.427, 9.220e-4
-1.426, 8.943e-4
-1.425, 8.696e-4
-1.424, 8.542e-4
-1.423, 8.449e-4
-1.422, 8.295e-4
-1.421, 8.048e-4
-1.420, 7.802e-4
-1.419, 7.648e-4
-1.418, 7.586e-4
-1.417, 7.463e-4
-1.416, 7.216e-4
-1.415, 6.969e-4
-1.414, 6.846e-4
-1.413, 6.784e-4
-1.412, 6.661e-4
-1.411, 6.445e-4
-1.410, 6.199e-4
-1.409, 6.106e-4
-1.408, 6.075e-4
-1.407, 5.952e-4
-1.406, 5.736e-4
-1.405, 5.551e-4
-1.404, 5.428e-4
-1.403, 5.397e-4
-1.402, 5.305e-4
-1.401, 5.089e-4
-1.400, 4.904e-4
-1.399, 4.811e-4
-1.398, 4.780e-4
-1.397, 4.688e-4
-1.396, 4.503e-4
-1.395, 4.318e-4
-1.394, 4.256e-4
-1.393, 4.225e-4
-1.392, 4.164e-4
-1.391, 3.979e-4
-1.390, 3.825e-4
-1.389, 3.763e-4
-1.388, 3.763e-4
-1.387, 3.670e-4
-1.386, 3.485e-4
-1.385, 3.331e-4
-1.384, 3.270e-4
-1.383, 3.300e-4
-1.382, 3.239e-4
-1.381, 3.054e-4
-1.380, 2.900e-4
-1.379, 2.869e-4
-1.378, 2.900e-4
-1.377, 2.807e-4
-1.376, 2.653e-4
-1.375, 2.530e-4
-1.374, 2.499e-4
-1.373, 2.530e-4
-1.372, 2.468e-4
-1.371, 2.314e-4
-1.370, 2.191e-4
-1.369, 2.160e-4
-1.368, 2.191e-4
-1.367, 2.160e-4
-1.366, 2.006e-4
-1.365, 1.882e-4
-1.364, 1.882e-4
-1.363, 1.913e-4
-1.362, 1.851e-4
-1.361, 1.728e-4
-1.360, 1.605e-4
-1.359, 1.605e-4
-1.358, 1.666e-4
-1.357, 1.605e-4
-1.356, 1.451e-4
-1.355, 1.358e-4
-1.354, 1.358e-4
-1.353, 1.420e-4
-1.352, 1.358e-4
-1.351, 1.235e-4
-1.350, 1.142e-4
-1.349, 1.142e-4
-1.348, 1.204e-4
-1.347, 1.173e-4
-1.346, 1.050e-4
-1.345, 9.573e-5
-1.344, 9.573e-5
-1.343, 1.019e-4
-1.342, 9.882e-5
-1.341, 8.648e-5
-1.340, 7.723e-5
-1.339, 8.032e-5
-1.338, 8.648e-5
-1.337, 8.340e-5
-1.336, 7.107e-5
-1.335, 6.182e-5
-1.334, 6.490e-5
-1.333, 7.107e-5
-1.332, 6.798e-5
-1.331, 5.873e-5
-1.330, 4.949e-5
-1.329, 4.949e-5
-1.328, 5.873e-5
-1.327, 5.565e-5
-1.326, 4.332e-5
-1.325, 3.715e-5
-1.324, 4.024e-5
-1.323, 4.640e-5
-1.322, 4.332e-5
-1.321, 3.099e-5
-1.320, 2.482e-5
-1.319, 2.790e-5
-1.318, 3.407e-5
-1.317, 3.407e-5
-1.316, 2.174e-5
-1.315, 1.557e-5
-1.314, 1.865e-5
-1.313, 2.790e-5
-1.312, 2.482e-5
-1.311, 1.249e-5
-1.310, 6.322e-6
-1.309, 1.249e-5
-1.308, 1.865e-5
-1.307, 1.557e-5
-1.306, 6.322e-6
-1.305, 1.559e-7
-1.304, 3.239e-6
-1.303, 1.249e-5
-1.302, 9.405e-6
-1.301, 1.559e-7
-1.300, -6.010e-6
-1.299, -2.927e-6
-1.298, 6.322e-6
-1.297, 3.239e-6
-1.296, -6.010e-6
-1.295, -1.218e-5
-1.294, -9.093e-6
-1.293, 1.559e-7
-1.292, -2.927e-6
-1.291, -1.218e-5
-1.290, -1.834e-5
-1.289, -1.526e-5
-1.288, -6.010e-6
-1.287, -6.010e-6
-1.286, -1.526e-5
-1.285, -2.143e-5
-1.284, -1.834e-5
-1.283, -9.093e-6
-1.282, -9.093e-6
-1.281, -2.143e-5
-1.280, -2.759e-5
-1.279, -2.143e-5
-1.278, -1.218e-5
-1.277, -1.526e-5
-1.276, -2.451e-5
-1.275, -3.068e-5
-1.274, -2.451e-5
-1.273, -1.834e-5
-1.272, -1.834e-5
-1.271, -2.759e-5
-1.270, -3.376e-5
-1.269, -2.759e-5
-1.268, -1.834e-5
-1.267, -2.143e-5
-1.266, -3.068e-5
-1.265, -3.684e-5
-1.264, -3.068e-5
-1.263, -2.143e-5
-1.262, -2.451e-5
-1.261, -3.068e-5
-1.260, -3.992e-5
-1.259, -3.376e-5
-1.258, -2.451e-5
-1.257, -2.759e-5
-1.256, -3.376e-5
-1.255, -4.301e-5
-1.254, -3.684e-5
-1.253, -2.451e-5
-1.252, -2.759e-5
-1.251, -3.684e-5
-1.250, -4.301e-5
-1.249, -3.684e-5
-1.248, -2.759e-5
-1.247, -2.759e-5
-1.246, -3.992e-5
-1.245, -4.609e-5
-1.244, -3.992e-5
-1.243, -3.068e-5
-1.242, -3.068e-5
-1.241, -4.301e-5
-1.240, -4.609e-5
-1.239, -3.992e-5
-1.238, -3.068e-5
-1.237, -3.068e-5
-1.236, -4.301e-5
-1.235, -4.917e-5
-1.234, -4.301e-5
-1.233, -3.376e-5
-1.232, -3.376e-5
-1.231, -4.301e-5
-1.230, -4.917e-5
-1.229, -4.301e-5
-1.228, -3.376e-5
-1.227, -3.684e-5
-1.226, -4.609e-5
-1.225, -5.226e-5
-1.224, -4.609e-5
-1.223, -3.684e-5
-1.222, -3.684e-5
-1.221, -4.609e-5
-1.220, -5.226e-5
-1.219, -4.609e-5
-1.218, -3.684e-5
-1.217, -3.684e-5
-1.216, -4.917e-5
-1.215, -5.226e-5
-1.214, -4.609e-5
-1.213, -3.992e-5
-1.212, -3.992e-5
-1.211, -4.917e-5
-1.210, -5.534e-5
-1.209, -4.917e-5
-1.208, -3.992e-5
-1.207, -3.992e-5
-1.206, -4.917e-5
-1.205, -5.534e-5
-1.204, -4.917e-5
-1.203, -3.992e-5
-1.202, -4.301e-5
-1.201, -5.226e-5
-1.200, -5.842e-5
-1.199, -5.226e-5
-1.198, -4.301e-5
-1.197, -4.301e-5
-1.196, -5.226e-5
-1.195, -5.842e-5
-1.194, -5.226e-5
-1.193, -4.301e-5
-1.192, -4.301e-5
-1.191, -5.226e-5
-1.190, -5.842e-5
-1.189, -5.226e-5
-1.188, -4.301e-5
-1.187, -4.609e-5
-1.186, -5.534e-5
-1.185, -5.842e-5
-1.184, -5.226e-5
-1.183, -4.301e-5
-1.182, -4.609e-5
-1.181, -5.534e-5
-1.180, -6.151e-5
-1.179, -5.534e-5
-1.178, -4.609e-5
-1.177, -4.609e-5
-1.176, -5.534e-5
-1.175, -6.151e-5
-1.174, -5.534e-5
-1.173, -4.609e-5
-1.172, -4.917e-5
-1.171, -5.534e-5
-1.170, -6.151e-5
-1.169, -5.534e-5
-1.168, -4.609e-5
-1.167, -4.609e-5
-1.166, -5.842e-5
-1.165, -6.459e-5
-1.164, -5.842e-5
-1.163, -4.917e-5
-1.162, -4.609e-5
-1.161, -5.842e-5
-1.160, -6.459e-5
-1.159, -5.842e-5
-1.158, -4.609e-5
-1.157, -4.917e-5
-1.156, -5.842e-5
-1.155, -6.459e-5
-1.154, -5.842e-5
-1.153, -4.917e-5
-1.152, -4.917e-5
-1.151, -6.151e-5
-1.150, -6.767e-5
-1.149, -6.151e-5
-1.148, -5.226e-5
-1.147, -5.226e-5
-1.146, -6.151e-5
-1.145, -6.767e-5
-1.144, -5.842e-5
-1.143, -4.917e-5
-1.142, -5.226e-5
-1.141, -6.151e-5
-1.140, -7.076e-5
-1.139, -6.459e-5
-1.138, -5.226e-5
-1.137, -5.226e-5
-1.136, -6.459e-5
-1.135, -7.076e-5
-1.134, -6.459e-5
-1.133, -5.226e-5
-1.132, -5.534e-5
-1.131, -6.459e-5
-1.130, -7.076e-5
-1.129, -6.459e-5
-1.128, -5.534e-5
-1.127, -5.534e-5
-1.126, -6.459e-5
-1.125, -7.076e-5
-1.124, -6.459e-5
-1.123, -5.534e-5
-1.122, -5.534e-5
-1.121, -6.767e-5
-1.120, -7.384e-5
-1.119, -6.767e-5
-1.118, -5.534e-5
-1.117, -5.534e-5
-1.116, -6.767e-5
-1.115, -7.384e-5
-1.114, -6.767e-5
-1.113, -5.842e-5
-1.112, -5.842e-5
-1.111, -6.767e-5
-1.110, -7.692e-5
-1.109, -6.767e-5
-1.108, -5.842e-5
-1.107, -5.842e-5
-1.106, -6.767e-5
-1.105, -7.692e-5
-1.104, -6.767e-5
-1.103, -5.842e-5
-1.102, -5.842e-5
-1.101, -7.076e-5
-1.100, -7.692e-5
-1.099, -7.076e-5
-1.098, -5.842e-5
-1.097, -6.151e-5
-1.096, -7.076e-5
-1.095, -7.692e-5
-1.094, -7.076e-5
-1.093, -6.151e-5
-1.092, -6.151e-5
-1.091, -7.384e-5
-1.090, -8.000e-5
-1.089, -7.076e-5
-1.088, -6.151e-5
-1.087, -6.151e-5
-1.086, -7.384e-5
-1.085, -8.000e-5
-1.084, -7.384e-5
-1.083, -6.151e-5
-1.082, -6.151e-5
-1.081, -7.384e-5
-1.080, -8.000e-5
-1.079, -7.384e-5
-1.078, -6.459e-5
-1.077, -6.459e-5
-1.076, -7.692e-5
-1.075, -8.000e-5
-1.074, -7.384e-5
-1.073, -6.459e-5
-1.072, -6.459e-5
-1.071, -7.692e-5
-1.070, -8.309e-5
-1.069, -7.692e-5
-1.068, -6.459e-5
-1.067, -6.459e-5
-1.066, -7.692e-5
-1.065, -8.309e-5
-1.064, -7.692e-5
-1.063, -6.459e-5
-1.062, -6.767e-5
-1.061, -7.692e-5
-1.060, -8.617e-5
-1.059, -7.692e-5
-1.058, -6.767e-5
-1.057, -6.767e-5
-1.056, -7.692e-5
-1.055, -8.617e-5
-1.054, -8.000e-5
-1.053, -6.767e-5
-1.052, -7.076e-5
-1.051, -8.000e-5
-1.050, -8.617e-5
-1.049, -8.000e-5
-1.048, -6.767e-5
-1.047, -7.076e-5
-1.046, -8.309e-5
-1.045, -8.617e-5
-1.044, -8.309e-5
-1.043, -7.076e-5
-1.042, -7.076e-5
-1.041, -8.309e-5
-1.040, -8.925e-5
-1.039, -8.000e-5
-1.038, -7.076e-5
-1.037, -7.076e-5
-1.036, -8.309e-5
-1.035, -8.925e-5
-1.034, -8.000e-5
-1.033, -7.076e-5
-1.032, -7.384e-5
-1.031, -8.309e-5
-1.030, -9.234e-5
-1.029, -8.309e-5
-1.028, -7.384e-5
-1.027, -7.384e-5
-1.026, -8.617e-5
-1.025, -9.234e-5
-1.024, -8.617e-5
-1.023, -7.384e-5
-1.022, -7.384e-5
-1.021, -8.617e-5
-1.020, -9.542e-5
-1.019, -8.617e-5
-1.018, -7.692e-5
-1.017, -7.692e-5
-1.016, -8.925e-5
-1.015, -9.542e-5
-1.014, -8.925e-5
-1.013, -7.692e-5
-1.012, -7.692e-5
-1.011, -8.925e-5
-1.010, -9.542e-5
-1.009, -8.925e-5
-1.008, -7.692e-5
-1.007, -8.000e-5
-1.006, -8.925e-5
-1.005, -9.850e-5
-1.004, -9.234e-5
-1.003, -8.000e-5
-1.002, -8.000e-5
-1.001, -9.234e-5
