Apr. 18, 2025   21:36:53
Cyclic Voltammetry
File: c:/users/guazh/data/banditlqround7_x0exp590_r20/2025-04-16-exp1121\exp1121-2025-04-18t21_23_00-arkoh\exp1121_cv_sr_200mvs_efin_-1600mv.bin
Data Source:  Experiment
Instrument Model:  CHI760E
Header: CV ran at 200 mVs
Note: 

Init E (V) = -1
High E (V) = -1
Low E (V) = -1.6
Final E (V) = -1
Init P/N = N
Scan Rate (V/s) = 0.2
Segment = 3
Sample Interval (V) = 0.001
Quiet Time (sec) = 2
Sensitivity (A/V) = 0.01
Comp R (ohm) = 1.8

Results:

Channel 1:
Segment 1:

Segment 2:

Segment 3:

Potential/V, Current/A

-1.000, 1.394e-5
-1.001, 3.890e-5
-1.002, 3.679e-5
-1.003, 2.518e-5
-1.004, 3.774e-5
-1.005, 4.329e-5
-1.006, 2.927e-5
-1.007, 3.323e-5
-1.008, 4.616e-5
-1.009, 3.496e-5
-1.010, 3.035e-5
-1.011, 4.466e-5
-1.012, 4.144e-5
-1.013, 2.914e-5
-1.014, 4.113e-5
-1.015, 4.617e-5
-1.016, 3.162e-5
-1.017, 3.570e-5
-1.018, 4.850e-5
-1.019, 3.673e-5
-1.020, 3.205e-5
-1.021, 4.648e-5
-1.022, 4.298e-5
-1.023, 3.109e-5
-1.024, 4.281e-5
-1.025, 4.719e-5
-1.026, 3.354e-5
-1.027, 3.707e-5
-1.028, 4.964e-5
-1.029, 3.814e-5
-1.030, 3.306e-5
-1.031, 4.791e-5
-1.032, 4.372e-5
-1.033, 3.171e-5
-1.034, 4.370e-5
-1.035, 4.796e-5
-1.036, 3.454e-5
-1.037, 3.806e-5
-1.038, 5.014e-5
-1.039, 3.912e-5
-1.040, 3.409e-5
-1.041, 4.848e-5
-1.042, 4.486e-5
-1.043, 3.264e-5
-1.044, 4.427e-5
-1.045, 4.892e-5
-1.046, 3.492e-5
-1.047, 3.919e-5
-1.048, 5.097e-5
-1.049, 3.970e-5
-1.050, 3.525e-5
-1.051, 4.927e-5
-1.052, 4.528e-5
-1.053, 3.334e-5
-1.054, 4.488e-5
-1.055, 4.975e-5
-1.056, 3.575e-5
-1.057, 3.943e-5
-1.058, 5.168e-5
-1.059, 4.021e-5
-1.060, 3.583e-5
-1.061, 4.991e-5
-1.062, 4.577e-5
-1.063, 3.440e-5
-1.064, 4.565e-5
-1.065, 5.017e-5
-1.066, 3.654e-5
-1.067, 4.049e-5
-1.068, 5.211e-5
-1.069, 4.115e-5
-1.070, 3.607e-5
-1.071, 5.096e-5
-1.072, 4.627e-5
-1.073, 3.493e-5
-1.074, 4.652e-5
-1.075, 5.111e-5
-1.076, 3.725e-5
-1.077, 4.117e-5
-1.078, 5.295e-5
-1.079, 4.175e-5
-1.080, 3.699e-5
-1.081, 5.137e-5
-1.082, 4.733e-5
-1.083, 3.543e-5
-1.084, 4.730e-5
-1.085, 5.161e-5
-1.086, 3.779e-5
-1.087, 4.157e-5
-1.088, 5.366e-5
-1.089, 4.225e-5
-1.090, 3.805e-5
-1.091, 5.234e-5
-1.092, 4.803e-5
-1.093, 3.638e-5
-1.094, 4.830e-5
-1.095, 5.257e-5
-1.096, 3.845e-5
-1.097, 4.264e-5
-1.098, 5.457e-5
-1.099, 4.302e-5
-1.100, 3.874e-5
-1.101, 5.291e-5
-1.102, 4.857e-5
-1.103, 3.737e-5
-1.104, 4.900e-5
-1.105, 5.290e-5
-1.106, 3.939e-5
-1.107, 4.363e-5
-1.108, 5.530e-5
-1.109, 4.407e-5
-1.110, 3.933e-5
-1.111, 5.381e-5
-1.112, 4.940e-5
-1.113, 3.787e-5
-1.114, 5.000e-5
-1.115, 5.359e-5
-1.116, 4.034e-5
-1.117, 4.448e-5
-1.118, 5.597e-5
-1.119, 4.490e-5
-1.120, 4.024e-5
-1.121, 5.466e-5
-1.122, 5.032e-5
-1.123, 3.859e-5
-1.124, 5.068e-5
-1.125, 5.458e-5
-1.126, 4.088e-5
-1.127, 4.537e-5
-1.128, 5.667e-5
-1.129, 4.543e-5
-1.130, 4.129e-5
-1.131, 5.528e-5
-1.132, 5.120e-5
-1.133, 3.967e-5
-1.134, 5.140e-5
-1.135, 5.582e-5
-1.136, 4.152e-5
-1.137, 4.612e-5
-1.138, 5.773e-5
-1.139, 4.614e-5
-1.140, 4.210e-5
-1.141, 5.605e-5
-1.142, 5.180e-5
-1.143, 4.055e-5
-1.144, 5.237e-5
-1.145, 5.620e-5
-1.146, 4.264e-5
-1.147, 4.691e-5
-1.148, 5.851e-5
-1.149, 4.683e-5
-1.150, 4.291e-5
-1.151, 5.716e-5
-1.152, 5.279e-5
-1.153, 4.131e-5
-1.154, 5.317e-5
-1.155, 5.688e-5
-1.156, 4.338e-5
-1.157, 4.761e-5
-1.158, 5.924e-5
-1.159, 4.813e-5
-1.160, 4.370e-5
-1.161, 5.784e-5
-1.162, 5.354e-5
-1.163, 4.200e-5
-1.164, 5.386e-5
-1.165, 5.770e-5
-1.166, 4.403e-5
-1.167, 4.888e-5
-1.168, 5.952e-5
-1.169, 4.883e-5
-1.170, 4.456e-5
-1.171, 5.839e-5
-1.172, 5.411e-5
-1.173, 4.268e-5
-1.174, 5.483e-5
-1.175, 5.864e-5
-1.176, 4.455e-5
-1.177, 4.964e-5
-1.178, 6.106e-5
-1.179, 4.908e-5
-1.180, 4.548e-5
-1.181, 5.912e-5
-1.182, 5.463e-5
-1.183, 4.383e-5
-1.184, 5.515e-5
-1.185, 5.899e-5
-1.186, 4.556e-5
-1.187, 4.997e-5
-1.188, 6.147e-5
-1.189, 4.961e-5
-1.190, 4.618e-5
-1.191, 6.027e-5
-1.192, 5.563e-5
-1.193, 4.418e-5
-1.194, 5.624e-5
-1.195, 5.958e-5
-1.196, 4.639e-5
-1.197, 5.093e-5
-1.198, 6.189e-5
-1.199, 5.079e-5
-1.200, 4.686e-5
-1.201, 6.044e-5
-1.202, 5.637e-5
-1.203, 4.513e-5
-1.204, 5.691e-5
-1.205, 6.047e-5
-1.206, 4.684e-5
-1.207, 5.189e-5
-1.208, 6.268e-5
-1.209, 5.105e-5
-1.210, 4.774e-5
-1.211, 6.143e-5
-1.212, 5.695e-5
-1.213, 4.576e-5
-1.214, 5.761e-5
-1.215, 6.125e-5
-1.216, 4.770e-5
-1.217, 5.230e-5
-1.218, 6.370e-5
-1.219, 5.228e-5
-1.220, 4.848e-5
-1.221, 6.226e-5
-1.222, 5.765e-5
-1.223, 4.711e-5
-1.224, 5.831e-5
-1.225, 6.205e-5
-1.226, 4.876e-5
-1.227, 5.341e-5
-1.228, 6.461e-5
-1.229, 5.360e-5
-1.230, 4.946e-5
-1.231, 6.353e-5
-1.232, 5.834e-5
-1.233, 4.771e-5
-1.234, 5.966e-5
-1.235, 6.294e-5
-1.236, 4.992e-5
-1.237, 5.457e-5
-1.238, 6.504e-5
-1.239, 5.420e-5
-1.240, 5.046e-5
-1.241, 6.425e-5
-1.242, 5.982e-5
-1.243, 4.871e-5
-1.244, 6.069e-5
-1.245, 6.413e-5
-1.246, 5.089e-5
-1.247, 5.601e-5
-1.248, 6.646e-5
-1.249, 5.524e-5
-1.250, 5.214e-5
-1.251, 6.541e-5
-1.252, 6.107e-5
-1.253, 5.053e-5
-1.254, 6.218e-5
-1.255, 6.574e-5
-1.256, 5.261e-5
-1.257, 5.757e-5
-1.258, 6.846e-5
-1.259, 5.675e-5
-1.260, 5.407e-5
-1.261, 6.735e-5
-1.262, 6.262e-5
-1.263, 5.274e-5
-1.264, 6.387e-5
-1.265, 6.740e-5
-1.266, 5.497e-5
-1.267, 5.930e-5
-1.268, 7.034e-5
-1.269, 5.911e-5
-1.270, 5.593e-5
-1.271, 6.986e-5
-1.272, 6.507e-5
-1.273, 5.447e-5
-1.274, 6.700e-5
-1.275, 6.960e-5
-1.276, 5.719e-5
-1.277, 6.224e-5
-1.278, 7.273e-5
-1.279, 6.211e-5
-1.280, 5.923e-5
-1.281, 7.238e-5
-1.282, 6.802e-5
-1.283, 5.786e-5
-1.284, 6.990e-5
-1.285, 7.298e-5
-1.286, 6.051e-5
-1.287, 6.580e-5
-1.288, 7.631e-5
-1.289, 6.541e-5
-1.290, 6.292e-5
-1.291, 7.600e-5
-1.292, 7.171e-5
-1.293, 6.170e-5
-1.294, 7.380e-5
-1.295, 7.719e-5
-1.296, 6.451e-5
-1.297, 7.012e-5
-1.298, 8.061e-5
-1.299, 6.979e-5
-1.300, 6.767e-5
-1.301, 8.118e-5
-1.302, 7.629e-5
-1.303, 6.731e-5
-1.304, 7.893e-5
-1.305, 8.215e-5
-1.306, 7.033e-5
-1.307, 7.585e-5
-1.308, 8.663e-5
-1.309, 7.585e-5
-1.310, 7.367e-5
-1.311, 8.752e-5
-1.312, 8.279e-5
-1.313, 7.398e-5
-1.314, 8.595e-5
-1.315, 8.912e-5
-1.316, 7.752e-5
-1.317, 8.323e-5
-1.318, 9.376e-5
-1.319, 8.394e-5
-1.320, 8.156e-5
-1.321, 9.533e-5
-1.322, 9.123e-5
-1.323, 8.228e-5
-1.324, 9.467e-5
-1.325, 9.813e-5
-1.326, 8.655e-5
-1.327, 9.278e-5
-1.328, 1.035e-4
-1.329, 9.333e-5
-1.330, 9.194e-5
-1.331, 1.055e-4
-1.332, 1.023e-4
-1.333, 9.346e-5
-1.334, 1.058e-4
-1.335, 1.097e-4
-1.336, 9.872e-5
-1.337, 1.049e-4
-1.338, 1.159e-4
-1.339, 1.065e-4
-1.340, 1.051e-4
-1.341, 1.192e-4
-1.342, 1.157e-4
-1.343, 1.082e-4
-1.344, 1.205e-4
-1.345, 1.250e-4
-1.346, 1.148e-4
-1.347, 1.208e-4
-1.348, 1.323e-4
-1.349, 1.237e-4
-1.350, 1.228e-4
-1.351, 1.376e-4
-1.352, 1.346e-4
-1.353, 1.272e-4
-1.354, 1.408e-4
-1.355, 1.453e-4
-1.356, 1.357e-4
-1.357, 1.430e-4
-1.358, 1.553e-4
-1.359, 1.473e-4
-1.360, 1.474e-4
-1.361, 1.626e-4
-1.362, 1.612e-4
-1.363, 1.548e-4
-1.364, 1.691e-4
-1.365, 1.752e-4
-1.366, 1.666e-4
-1.367, 1.754e-4
-1.368, 1.885e-4
-1.369, 1.824e-4
-1.370, 1.842e-4
-1.371, 2.008e-4
-1.372, 2.016e-4
-1.373, 1.974e-4
-1.374, 2.136e-4
-1.375, 2.221e-4
-1.376, 2.163e-4
-1.377, 2.275e-4
-1.378, 2.443e-4
-1.379, 2.416e-4
-1.380, 2.469e-4
-1.381, 2.680e-4
-1.382, 2.732e-4
-1.383, 2.739e-4
-1.384, 2.944e-4
-1.385, 3.094e-4
-1.386, 3.099e-4
-1.387, 3.263e-4
-1.388, 3.498e-4
-1.389, 3.544e-4
-1.390, 3.657e-4
-1.391, 3.933e-4
-1.392, 4.060e-4
-1.393, 4.123e-4
-1.394, 4.392e-4
-1.395, 4.606e-4
-1.396, 4.667e-4
-1.397, 4.883e-4
-1.398, 5.163e-4
-1.399, 5.261e-4
-1.400, 5.402e-4
-1.401, 5.710e-4
-1.402, 5.873e-4
-1.403, 5.959e-4
-1.404, 6.242e-4
-1.405, 6.476e-4
-1.406, 6.553e-4
-1.407, 6.772e-4
-1.408, 7.067e-4
-1.409, 7.176e-4
-1.410, 7.319e-4
-1.411, 7.633e-4
-1.412, 7.812e-4
-1.413, 7.899e-4
-1.414, 8.188e-4
-1.415, 8.444e-4
-1.416, 8.530e-4
-1.417, 8.743e-4
-1.418, 9.058e-4
-1.419, 9.180e-4
-1.420, 9.327e-4
-1.421, 9.655e-4
-1.422, 9.849e-4
-1.423, 9.951e-4
-1.424, 1.024e-3
-1.425, 1.051e-3
-1.426, 1.061e-3
-1.427, 1.084e-3
-1.428, 1.117e-3
-1.429, 1.131e-3
-1.430, 1.147e-3
-1.431, 1.182e-3
-1.432, 1.203e-3
-1.433, 1.214e-3
-1.434, 1.246e-3
-1.435, 1.276e-3
-1.436, 1.288e-3
-1.437, 1.312e-3
-1.438, 1.349e-3
-1.439, 1.367e-3
-1.440, 1.385e-3
-1.441, 1.422e-3
-1.442, 1.448e-3
-1.443, 1.462e-3
-1.444, 1.495e-3
-1.445, 1.530e-3
-1.446, 1.544e-3
-1.447, 1.572e-3
-1.448, 1.612e-3
-1.449, 1.633e-3
-1.450, 1.654e-3
-1.451, 1.694e-3
-1.452, 1.724e-3
-1.453, 1.741e-3
-1.454, 1.778e-3
-1.455, 1.816e-3
-1.456, 1.835e-3
-1.457, 1.864e-3
-1.458, 1.909e-3
-1.459, 1.933e-3
-1.460, 1.955e-3
-1.461, 1.999e-3
-1.462, 2.032e-3
-1.463, 2.052e-3
-1.464, 2.091e-3
-1.465, 2.134e-3
-1.466, 2.155e-3
-1.467, 2.186e-3
-1.468, 2.233e-3
-1.469, 2.261e-3
-1.470, 2.286e-3
-1.471, 2.334e-3
-1.472, 2.372e-3
-1.473, 2.394e-3
-1.474, 2.437e-3
-1.475, 2.484e-3
-1.476, 2.509e-3
-1.477, 2.544e-3
-1.478, 2.596e-3
-1.479, 2.628e-3
-1.480, 2.656e-3
-1.481, 2.709e-3
-1.482, 2.753e-3
-1.483, 2.778e-3
-1.484, 2.823e-3
-1.485, 2.877e-3
-1.486, 2.906e-3
-1.487, 2.944e-3
-1.488, 3.000e-3
-1.489, 3.038e-3
-1.490, 3.068e-3
-1.491, 3.124e-3
-1.492, 3.172e-3
-1.493, 3.201e-3
-1.494, 3.251e-3
-1.495, 3.308e-3
-1.496, 3.340e-3
-1.497, 3.380e-3
-1.498, 3.442e-3
-1.499, 3.483e-3
-1.500, 3.516e-3
-1.501, 3.575e-3
-1.502, 3.627e-3
-1.503, 3.659e-3
-1.504, 3.712e-3
-1.505, 3.774e-3
-1.506, 3.810e-3
-1.507, 3.853e-3
-1.508, 3.920e-3
-1.509, 3.966e-3
-1.510, 4.002e-3
-1.511, 4.067e-3
-1.512, 4.123e-3
-1.513, 4.157e-3
-1.514, 4.213e-3
-1.515, 4.280e-3
-1.516, 4.320e-3
-1.517, 4.363e-3
-1.518, 4.433e-3
-1.519, 4.485e-3
-1.520, 4.525e-3
-1.521, 4.592e-3
-1.522, 4.653e-3
-1.523, 4.692e-3
-1.524, 4.753e-3
-1.525, 4.826e-3
-1.526, 4.870e-3
-1.527, 4.920e-3
-1.528, 4.995e-3
-1.529, 5.055e-3
-1.530, 5.096e-3
-1.531, 5.165e-3
-1.532, 5.232e-3
-1.533, 5.271e-3
-1.534, 5.331e-3
-1.535, 5.407e-3
-1.536, 5.454e-3
-1.537, 5.505e-3
-1.538, 5.590e-3
-1.539, 5.650e-3
-1.540, 5.692e-3
-1.541, 5.766e-3
-1.542, 5.841e-3
-1.543, 5.881e-3
-1.544, 5.941e-3
-1.545, 6.023e-3
-1.546, 6.074e-3
-1.547, 6.126e-3
-1.548, 6.211e-3
-1.549, 6.274e-3
-1.550, 6.325e-3
-1.551, 6.406e-3
-1.552, 6.486e-3
-1.553, 6.534e-3
-1.554, 6.605e-3
-1.555, 6.695e-3
-1.556, 6.751e-3
-1.557, 6.804e-3
-1.558, 6.892e-3
-1.559, 6.957e-3
-1.560, 7.005e-3
-1.561, 7.086e-3
-1.562, 7.169e-3
-1.563, 7.213e-3
-1.564, 7.284e-3
-1.565, 7.373e-3
-1.566, 7.434e-3
-1.567, 7.493e-3
-1.568, 7.589e-3
-1.569, 7.662e-3
-1.570, 7.713e-3
-1.571, 7.798e-3
-1.572, 7.880e-3
-1.573, 7.927e-3
-1.574, 7.999e-3
-1.575, 8.098e-3
-1.576, 8.163e-3
-1.577, 8.223e-3
-1.578, 8.321e-3
-1.579, 8.396e-3
-1.580, 8.454e-3
-1.581, 8.546e-3
-1.582, 8.637e-3
-1.583, 8.701e-3
-1.584, 8.783e-3
-1.585, 8.887e-3
-1.586, 8.954e-3
-1.587, 9.018e-3
-1.588, 9.113e-3
-1.589, 9.185e-3
-1.590, 9.240e-3
-1.591, 9.328e-3
-1.592, 9.411e-3
-1.593, 9.460e-3
-1.594, 9.534e-3
-1.595, 9.644e-3
-1.596, 9.712e-3
-1.597, 9.768e-3
-1.598, 9.868e-3
-1.599, 9.941e-3
-1.600, 9.908e-3
-1.599, 9.816e-3
-1.598, 9.729e-3
-1.597, 9.603e-3
-1.596, 9.512e-3
-1.595, 9.432e-3
-1.594, 9.342e-3
-1.593, 9.234e-3
-1.592, 9.156e-3
-1.591, 9.059e-3
-1.590, 8.957e-3
-1.589, 8.882e-3
-1.588, 8.809e-3
-1.587, 8.694e-3
-1.586, 8.609e-3
-1.585, 8.542e-3
-1.584, 8.454e-3
-1.583, 8.347e-3
-1.582, 8.286e-3
-1.581, 8.202e-3
-1.580, 8.115e-3
-1.579, 8.054e-3
-1.578, 7.983e-3
-1.577, 7.877e-3
-1.576, 7.805e-3
-1.575, 7.739e-3
-1.574, 7.664e-3
-1.573, 7.555e-3
-1.572, 7.489e-3
-1.571, 7.403e-3
-1.570, 7.300e-3
-1.569, 7.236e-3
-1.568, 7.167e-3
-1.567, 7.069e-3
-1.566, 6.991e-3
-1.565, 6.927e-3
-1.564, 6.837e-3
-1.563, 6.766e-3
-1.562, 6.707e-3
-1.561, 6.626e-3
-1.560, 6.531e-3
-1.559, 6.471e-3
-1.558, 6.401e-3
-1.557, 6.302e-3
-1.556, 6.229e-3
-1.555, 6.173e-3
-1.554, 6.094e-3
-1.553, 6.026e-3
-1.552, 5.983e-3
-1.551, 5.932e-3
-1.550, 5.835e-3
-1.549, 5.782e-3
-1.548, 5.722e-3
-1.547, 5.636e-3
-1.546, 5.576e-3
-1.545, 5.522e-3
-1.544, 5.445e-3
-1.543, 5.372e-3
-1.542, 5.324e-3
-1.541, 5.272e-3
-1.540, 5.194e-3
-1.539, 5.137e-3
-1.538, 5.083e-3
-1.537, 5.008e-3
-1.536, 4.949e-3
-1.535, 4.899e-3
-1.534, 4.822e-3
-1.533, 4.756e-3
-1.532, 4.717e-3
-1.531, 4.653e-3
-1.530, 4.582e-3
-1.529, 4.545e-3
-1.528, 4.489e-3
-1.527, 4.412e-3
-1.526, 4.362e-3
-1.525, 4.318e-3
-1.524, 4.246e-3
-1.523, 4.187e-3
-1.522, 4.145e-3
-1.521, 4.085e-3
-1.520, 4.016e-3
-1.519, 3.974e-3
-1.518, 3.925e-3
-1.517, 3.862e-3
-1.516, 3.814e-3
-1.515, 3.774e-3
-1.514, 3.710e-3
-1.513, 3.654e-3
-1.512, 3.619e-3
-1.511, 3.564e-3
-1.510, 3.504e-3
-1.509, 3.473e-3
-1.508, 3.429e-3
-1.507, 3.367e-3
-1.506, 3.328e-3
-1.505, 3.292e-3
-1.504, 3.234e-3
-1.503, 3.183e-3
-1.502, 3.151e-3
-1.501, 3.101e-3
-1.500, 3.044e-3
-1.499, 3.011e-3
-1.498, 2.970e-3
-1.497, 2.912e-3
-1.496, 2.875e-3
-1.495, 2.846e-3
-1.494, 2.792e-3
-1.493, 2.749e-3
-1.492, 2.722e-3
-1.491, 2.678e-3
-1.490, 2.628e-3
-1.489, 2.600e-3
-1.488, 2.564e-3
-1.487, 2.521e-3
-1.486, 2.488e-3
-1.485, 2.454e-3
-1.484, 2.403e-3
-1.483, 2.363e-3
-1.482, 2.339e-3
-1.481, 2.295e-3
-1.480, 2.249e-3
-1.479, 2.225e-3
-1.478, 2.190e-3
-1.477, 2.141e-3
-1.476, 2.112e-3
-1.475, 2.085e-3
-1.474, 2.041e-3
-1.473, 2.008e-3
-1.472, 1.988e-3
-1.471, 1.948e-3
-1.470, 1.914e-3
-1.469, 1.887e-3
-1.468, 1.854e-3
-1.467, 1.810e-3
-1.466, 1.786e-3
-1.465, 1.762e-3
-1.464, 1.718e-3
-1.463, 1.688e-3
-1.462, 1.669e-3
-1.461, 1.632e-3
-1.460, 1.595e-3
-1.459, 1.578e-3
-1.458, 1.550e-3
-1.457, 1.510e-3
-1.456, 1.490e-3
-1.455, 1.470e-3
-1.454, 1.431e-3
-1.453, 1.407e-3
-1.452, 1.393e-3
-1.451, 1.360e-3
-1.450, 1.327e-3
-1.449, 1.314e-3
-1.448, 1.288e-3
-1.447, 1.252e-3
-1.446, 1.237e-3
-1.445, 1.219e-3
-1.444, 1.185e-3
-1.443, 1.163e-3
-1.442, 1.151e-3
-1.441, 1.120e-3
-1.440, 1.092e-3
-1.439, 1.082e-3
-1.438, 1.057e-3
-1.437, 1.026e-3
-1.436, 1.013e-3
-1.435, 9.975e-4
-1.434, 9.651e-4
-1.433, 9.467e-4
-1.432, 9.373e-4
-1.431, 9.089e-4
-1.430, 8.849e-4
-1.429, 8.780e-4
-1.428, 8.568e-4
-1.427, 8.282e-4
-1.426, 8.188e-4
-1.425, 8.050e-4
-1.424, 7.756e-4
-1.423, 7.614e-4
-1.422, 7.540e-4
-1.421, 7.286e-4
-1.420, 7.081e-4
-1.419, 7.037e-4
-1.418, 6.849e-4
-1.417, 6.596e-4
-1.416, 6.538e-4
-1.415, 6.424e-4
-1.414, 6.160e-4
-1.413, 6.058e-4
-1.412, 6.007e-4
-1.411, 5.777e-4
-1.410, 5.607e-4
-1.409, 5.585e-4
-1.408, 5.417e-4
-1.407, 5.196e-4
-1.406, 5.162e-4
-1.405, 5.073e-4
-1.404, 4.835e-4
-1.403, 4.758e-4
-1.402, 4.727e-4
-1.401, 4.517e-4
-1.400, 4.376e-4
-1.399, 4.381e-4
-1.398, 4.229e-4
-1.397, 4.045e-4
-1.396, 4.043e-4
-1.395, 3.960e-4
-1.394, 3.751e-4
-1.393, 3.699e-4
-1.392, 3.688e-4
-1.391, 3.496e-4
-1.390, 3.381e-4
-1.389, 3.409e-4
-1.388, 3.271e-4
-1.387, 3.097e-4
-1.386, 3.120e-4
-1.385, 3.053e-4
-1.384, 2.863e-4
-1.383, 2.831e-4
-1.382, 2.836e-4
-1.381, 2.661e-4
-1.380, 2.570e-4
-1.379, 2.611e-4
-1.378, 2.488e-4
-1.377, 2.340e-4
-1.376, 2.377e-4
-1.375, 2.327e-4
-1.374, 2.149e-4
-1.373, 2.146e-4
-1.372, 2.161e-4
-1.371, 1.999e-4
-1.370, 1.925e-4
-1.369, 1.982e-4
-1.368, 1.869e-4
-1.367, 1.738e-4
-1.366, 1.786e-4
-1.365, 1.751e-4
-1.364, 1.586e-4
-1.363, 1.590e-4
-1.362, 1.622e-4
-1.361, 1.468e-4
-1.360, 1.411e-4
-1.359, 1.482e-4
-1.358, 1.374e-4
-1.357, 1.254e-4
-1.356, 1.321e-4
-1.355, 1.289e-4
-1.354, 1.137e-4
-1.353, 1.158e-4
-1.352, 1.195e-4
-1.351, 1.054e-4
-1.350, 1.005e-4
-1.349, 1.086e-4
-1.348, 9.902e-5
-1.347, 8.769e-5
-1.346, 9.575e-5
-1.345, 9.285e-5
-1.344, 7.862e-5
-1.343, 8.195e-5
-1.342, 8.599e-5
-1.341, 7.253e-5
-1.340, 6.909e-5
-1.339, 7.761e-5
-1.338, 6.834e-5
-1.337, 5.826e-5
-1.336, 6.708e-5
-1.335, 6.512e-5
-1.334, 5.119e-5
-1.333, 5.546e-5
-1.332, 6.029e-5
-1.331, 4.697e-5
-1.330, 4.420e-5
-1.329, 5.350e-5
-1.328, 4.472e-5
-1.327, 3.524e-5
-1.326, 4.434e-5
-1.325, 4.304e-5
-1.324, 2.960e-5
-1.323, 3.439e-5
-1.322, 3.981e-5
-1.321, 2.686e-5
-1.320, 2.440e-5
-1.319, 3.467e-5
-1.318, 2.610e-5
-1.317, 1.678e-5
-1.316, 2.698e-5
-1.315, 2.546e-5
-1.314, 1.239e-5
-1.313, 1.770e-5
-1.312, 2.388e-5
-1.311, 1.123e-5
-1.310, 9.242e-6
-1.309, 1.990e-5
-1.308, 1.154e-5
-1.307, 2.770e-6
-1.306, 1.315e-5
-1.305, 1.184e-5
-1.304, -6.235e-7
-1.303, 5.464e-6
-1.302, 1.085e-5
-1.301, -9.195e-7
-1.300, -2.508e-6
-1.299, 8.019e-6
-1.298, 1.855e-7
-1.297, -8.171e-6
-1.296, 2.563e-6
-1.295, 1.833e-6
-1.294, -1.075e-5
-1.293, -4.294e-6
-1.292, 1.586e-6
-1.291, -1.042e-5
-1.290, -1.159e-5
-1.289, -9.886e-7
-1.288, -8.388e-6
-1.287, -1.654e-5
-1.286, -6.129e-6
-1.285, -6.356e-6
-1.284, -1.854e-5
-1.283, -1.251e-5
-1.282, -5.922e-6
-1.281, -1.805e-5
-1.280, -1.900e-5
-1.279, -7.796e-6
-1.278, -1.573e-5
-1.277, -2.302e-5
-1.276, -1.229e-5
-1.275, -1.300e-5
-1.274, -2.474e-5
-1.273, -1.851e-5
-1.272, -1.176e-5
-1.271, -2.357e-5
-1.270, -2.445e-5
-1.269, -1.308e-5
-1.268, -2.074e-5
-1.267, -2.858e-5
-1.266, -1.736e-5
-1.265, -1.802e-5
-1.264, -2.951e-5
-1.263, -2.293e-5
-1.262, -1.667e-5
-1.261, -2.792e-5
-1.260, -2.870e-5
-1.259, -1.763e-5
-1.258, -2.491e-5
-1.257, -3.281e-5
-1.256, -2.128e-5
-1.255, -2.172e-5
-1.254, -3.375e-5
-1.253, -2.676e-5
-1.252, -2.014e-5
-1.251, -3.208e-5
-1.250, -3.232e-5
-1.249, -2.111e-5
-1.248, -2.853e-5
-1.247, -3.581e-5
-1.246, -2.494e-5
-1.245, -2.504e-5
-1.244, -3.685e-5
-1.243, -3.012e-5
-1.242, -2.324e-5
-1.241, -3.508e-5
-1.240, -3.542e-5
-1.239, -2.379e-5
-1.238, -3.150e-5
-1.237, -3.901e-5
-1.236, -2.731e-5
-1.235, -2.791e-5
-1.234, -3.956e-5
-1.233, -3.279e-5
-1.232, -2.554e-5
-1.231, -3.742e-5
-1.230, -3.801e-5
-1.229, -2.675e-5
-1.228, -3.389e-5
-1.227, -4.170e-5
-1.226, -2.967e-5
-1.225, -3.006e-5
-1.224, -4.206e-5
-1.223, -3.482e-5
-1.222, -2.801e-5
-1.221, -3.961e-5
-1.220, -4.031e-5
-1.219, -2.832e-5
-1.218, -3.555e-5
-1.217, -4.375e-5
-1.216, -3.154e-5
-1.215, -3.178e-5
-1.214, -4.446e-5
-1.213, -3.665e-5
-1.212, -2.982e-5
-1.211, -4.182e-5
-1.210, -4.189e-5
-1.209, -3.033e-5
-1.208, -3.763e-5
-1.207, -4.558e-5
-1.206, -3.354e-5
-1.205, -3.347e-5
-1.204, -4.624e-5
-1.203, -3.891e-5
-1.202, -3.130e-5
-1.201, -4.362e-5
-1.200, -4.397e-5
-1.199, -3.179e-5
-1.198, -3.947e-5
-1.197, -4.736e-5
-1.196, -3.537e-5
-1.195, -3.543e-5
-1.194, -4.766e-5
-1.193, -4.040e-5
-1.192, -3.285e-5
-1.191, -4.522e-5
-1.190, -4.589e-5
-1.189, -3.338e-5
-1.188, -4.115e-5
-1.187, -4.905e-5
-1.186, -3.668e-5
-1.185, -3.685e-5
-1.184, -4.950e-5
-1.183, -4.182e-5
-1.182, -3.473e-5
-1.181, -4.639e-5
-1.180, -4.721e-5
-1.179, -3.505e-5
-1.178, -4.284e-5
-1.177, -5.091e-5
-1.176, -3.830e-5
-1.175, -3.811e-5
-1.174, -5.142e-5
-1.173, -4.320e-5
-1.172, -3.615e-5
-1.171, -4.848e-5
-1.170, -4.875e-5
-1.169, -3.636e-5
-1.168, -4.403e-5
-1.167, -5.201e-5
-1.166, -4.000e-5
-1.165, -3.961e-5
-1.164, -5.255e-5
-1.163, -4.533e-5
-1.162, -3.736e-5
-1.161, -5.009e-5
-1.160, -5.047e-5
-1.159, -3.774e-5
-1.158, -4.580e-5
-1.157, -5.382e-5
-1.156, -4.126e-5
-1.155, -4.140e-5
-1.154, -5.424e-5
-1.153, -4.673e-5
-1.152, -3.882e-5
-1.151, -5.141e-5
-1.150, -5.225e-5
-1.149, -3.913e-5
-1.148, -4.695e-5
-1.147, -5.548e-5
-1.146, -4.266e-5
-1.145, -4.284e-5
-1.144, -5.588e-5
-1.143, -4.790e-5
-1.142, -4.029e-5
-1.141, -5.291e-5
-1.140, -5.351e-5
-1.139, -4.063e-5
-1.138, -4.850e-5
-1.137, -5.706e-5
-1.136, -4.413e-5
-1.135, -4.397e-5
-1.134, -5.746e-5
-1.133, -4.956e-5
-1.132, -4.166e-5
-1.131, -5.441e-5
-1.130, -5.512e-5
-1.129, -4.217e-5
-1.128, -4.995e-5
-1.127, -5.836e-5
-1.126, -4.613e-5
-1.125, -4.538e-5
-1.124, -5.881e-5
-1.123, -5.121e-5
-1.122, -4.312e-5
-1.121, -5.618e-5
-1.120, -5.681e-5
-1.119, -4.365e-5
-1.118, -5.169e-5
-1.117, -6.004e-5
-1.116, -4.717e-5
-1.115, -4.718e-5
-1.114, -6.020e-5
-1.113, -5.293e-5
-1.112, -4.427e-5
-1.111, -5.719e-5
-1.110, -5.874e-5
-1.109, -4.484e-5
-1.108, -5.297e-5
-1.107, -6.173e-5
-1.106, -4.872e-5
-1.105, -4.845e-5
-1.104, -6.191e-5
-1.103, -5.420e-5
-1.102, -4.590e-5
-1.101, -5.907e-5
-1.100, -5.993e-5
-1.099, -4.661e-5
-1.098, -5.429e-5
-1.097, -6.338e-5
-1.096, -5.003e-5
-1.095, -4.967e-5
-1.094, -6.378e-5
-1.093, -5.559e-5
-1.092, -4.739e-5
-1.091, -6.067e-5
-1.090, -6.123e-5
-1.089, -4.782e-5
-1.088, -5.593e-5
-1.087, -6.466e-5
-1.086, -5.183e-5
-1.085, -5.128e-5
-1.084, -6.495e-5
-1.083, -5.717e-5
-1.082, -4.893e-5
-1.081, -6.242e-5
-1.080, -6.253e-5
-1.079, -4.913e-5
-1.078, -5.746e-5
-1.077, -6.621e-5
-1.076, -5.328e-5
-1.075, -5.297e-5
-1.074, -6.654e-5
-1.073, -5.894e-5
-1.072, -5.017e-5
-1.071, -6.350e-5
-1.070, -6.463e-5
-1.069, -5.072e-5
-1.068, -5.892e-5
-1.067, -6.803e-5
-1.066, -5.457e-5
-1.065, -5.414e-5
-1.064, -6.813e-5
-1.063, -6.036e-5
-1.062, -5.180e-5
-1.061, -6.511e-5
-1.060, -6.625e-5
-1.059, -5.237e-5
-1.058, -6.037e-5
-1.057, -6.986e-5
-1.056, -5.635e-5
-1.055, -5.563e-5
-1.054, -7.024e-5
-1.053, -6.175e-5
-1.052, -5.328e-5
-1.051, -6.689e-5
-1.050, -6.789e-5
-1.049, -5.434e-5
-1.048, -6.224e-5
-1.047, -7.121e-5
-1.046, -5.796e-5
-1.045, -5.730e-5
-1.044, -7.174e-5
-1.043, -6.346e-5
-1.042, -5.482e-5
-1.041, -6.867e-5
-1.040, -6.961e-5
-1.039, -5.533e-5
-1.038, -6.392e-5
-1.037, -7.292e-5
-1.036, -5.971e-5
-1.035, -5.926e-5
-1.034, -7.349e-5
-1.033, -6.573e-5
-1.032, -5.653e-5
-1.031, -7.036e-5
-1.030, -7.183e-5
-1.029, -5.729e-5
-1.028, -6.556e-5
-1.027, -7.533e-5
-1.026, -6.152e-5
-1.025, -6.104e-5
-1.024, -7.574e-5
-1.023, -6.767e-5
-1.022, -5.877e-5
-1.021, -7.229e-5
-1.020, -7.387e-5
-1.019, -5.964e-5
-1.018, -6.758e-5
-1.017, -7.741e-5
-1.016, -6.354e-5
-1.015, -6.290e-5
-1.014, -7.760e-5
-1.013, -6.945e-5
-1.012, -6.028e-5
-1.011, -7.468e-5
-1.010, -7.588e-5
-1.009, -6.144e-5
-1.008, -6.927e-5
-1.007, -7.935e-5
-1.006, -6.580e-5
-1.005, -6.490e-5
-1.004, -8.000e-5
-1.003, -7.208e-5
-1.002, -6.255e-5
-1.001, -7.681e-5
