Potential V vs RHE, Current mA cm-2
0.013299999999999867,-0.002205534916489592
0.012299999999999978,-1.0054353208140816
0.011299999999999866,-1.7471684553333202
0.010299999999999976,-2.4007650758709675
0.009299999999999864,-2.968064307116847
0.008299999999999974,-3.447651437771094
0.007299999999999862,-3.884797229429391
0.006299999999999972,-4.276672259492005
0.00529999999999986,-4.626105950558669
0.0042999999999999705,-4.9302688800296535
0.0032999999999998586,-5.235846520800501
0.0022999999999999687,-5.5414241615713475
0.0012999999999998568,-5.80314575204638
0.00029999999999996696,-6.064867342521412
-0.000700000000000145,-6.282732882700628
-0.0017000000000000348,-6.458157083883892
-0.0027000000000001467,-6.6760226240631075
-0.0037000000000000366,-6.893888164242324
-0.0047000000000001485,-7.067897654125724
-0.005700000000000038,-7.243321855308987
-0.00670000000000015,-7.4173313451923875
-0.00770000000000004,-7.591340835075788
-0.008700000000000152,-7.722908985963235
-0.009700000000000042,-7.853062425550818
-0.010700000000000154,-7.984630576438266
-0.011700000000000044,-8.11478401602585
-0.012700000000000156,-8.246352166913299
-0.013700000000000045,-8.376505606500881
-0.014700000000000157,-8.464217707092514
-0.015700000000000047,-8.55051509638428
-0.01670000000000016,-8.68208324727173
-0.01770000000000005,-8.769795347863363
-0.01870000000000016,-8.812236686859313
-0.01970000000000005,-8.899948787450944
-0.020700000000000163,-8.987660888042578
-0.021700000000000053,-9.073958277334345
-0.022700000000000164,-9.161670377925978
-0.023700000000000054,-9.24938247851761
-0.024700000000000166,-9.293238528813426
-0.025700000000000056,-9.379535918105192
-0.026700000000000168,-9.423391968401008
-0.027700000000000058,-9.467248018696827
-0.02870000000000017,-9.511104068992642
-0.02970000000000006,-9.55496011928846
-0.03070000000000017,-9.641257508580225
-0.03170000000000006,-9.685113558876042
-0.03270000000000017,-9.772825659467674
-0.03370000000000006,-9.81668170976349
-0.034700000000000175,-9.772825659467674
-0.035700000000000065,-9.85912304875944
-0.03670000000000018,-9.85912304875944
-0.03770000000000007,-9.902979099055257
-0.03870000000000018,-9.99069119964689
-0.03970000000000007,-9.99069119964689
-0.04070000000000018,-10.078403300238522
-0.04170000000000007,-10.078403300238522
-0.04270000000000018,-10.078403300238522
-0.04370000000000007,-10.078403300238522
-0.044700000000000184,-10.120844639234473
-0.045700000000000074,-10.164700689530287
-0.046700000000000186,-10.208556739826104
-0.047700000000000076,-10.208556739826104
-0.04870000000000019,-10.25241279012192
-0.04970000000000008,-10.296268840417738
-0.05070000000000019,-10.296268840417738
-0.05170000000000008,-10.296268840417738
-0.05270000000000019,-10.296268840417738
-0.05370000000000008,-10.340124890713554
-0.05470000000000019,-10.340124890713554
-0.05570000000000008,-10.340124890713554
-0.056700000000000195,-10.382566229709504
-0.057700000000000085,-10.382566229709504
-0.058700000000000196,-10.382566229709504
-0.059700000000000086,-10.42642228000532
-0.0607000000000002,-10.42642228000532
-0.06170000000000009,-10.42642228000532
-0.0627000000000002,-10.470278330301136
-0.06370000000000009,-10.470278330301136
-0.0647000000000002,-10.514134380596953
-0.06570000000000009,-10.514134380596953
-0.0667000000000002,-10.514134380596953
-0.0677000000000001,-10.557990430892769
-0.0687000000000002,-10.557990430892769
-0.0697000000000001,-10.557990430892769
-0.07070000000000021,-10.601846481188586
-0.0717000000000001,-10.601846481188586
-0.07270000000000021,-10.644287820184536
-0.0737000000000001,-10.644287820184536
-0.07470000000000021,-10.644287820184536
-0.0757000000000001,-10.688143870480351
-0.07670000000000021,-10.688143870480351
-0.0777000000000001,-10.644287820184536
-0.07870000000000021,-10.688143870480351
-0.0797000000000001,-10.688143870480351
-0.08070000000000022,-10.731999920776168
-0.0817000000000001,-10.731999920776168
-0.08270000000000022,-10.775855971071984
-0.08370000000000011,-10.775855971071984
-0.08470000000000022,-10.775855971071984
-0.08570000000000011,-10.775855971071984
-0.08670000000000022,-10.775855971071984
-0.08770000000000011,-10.775855971071984
-0.08870000000000022,-10.819712021367803
-0.08970000000000011,-10.819712021367803
-0.09070000000000022,-10.819712021367803
-0.09170000000000011,-10.863568071663616
-0.09270000000000023,-10.863568071663616
-0.09370000000000012,-10.863568071663616
-0.09470000000000023,-10.863568071663616
-0.09570000000000012,-10.863568071663616
-0.09670000000000023,-10.906009410659568
-0.09770000000000012,-10.906009410659568
-0.09870000000000023,-10.949865460955383
-0.09970000000000012,-10.949865460955383
-0.10070000000000023,-10.949865460955383
-0.10170000000000012,-10.906009410659568
-0.10270000000000024,-10.906009410659568
-0.10370000000000013,-10.949865460955383
-0.10470000000000024,-10.949865460955383
-0.10570000000000013,-10.993721511251199
-0.10670000000000024,-11.037577561547016
-0.10770000000000013,-11.037577561547016
-0.10870000000000024,-10.993721511251199
-0.10970000000000013,-10.993721511251199
-0.11070000000000024,-10.993721511251199
-0.11170000000000013,-10.993721511251199
-0.11270000000000002,-11.081433611842833
-0.11370000000000013,-11.081433611842833
-0.11470000000000002,-11.123874950838783
-0.11570000000000014,-11.123874950838783
-0.11670000000000003,-11.081433611842833
-0.11770000000000014,-11.081433611842833
-0.11870000000000003,-11.081433611842833
-0.11970000000000014,-11.081433611842833
-0.12070000000000003,-11.123874950838783
-0.12170000000000014,-11.1677310011346
-0.12270000000000003,-11.1677310011346
-0.12370000000000014,-11.1677310011346
-0.12470000000000003,-11.1677310011346
-0.12570000000000014,-11.1677310011346
-0.12670000000000003,-11.1677310011346
-0.12770000000000015,-11.1677310011346
-0.12870000000000004,-11.211587051430415
-0.12970000000000015,-11.211587051430415
-0.13070000000000004,-11.211587051430415
-0.13170000000000015,-11.211587051430415
-0.13270000000000004,-11.255443101726232
-0.13370000000000015,-11.255443101726232
-0.13470000000000004,-11.299299152022046
-0.13570000000000015,-11.255443101726232
-0.13670000000000004,-11.299299152022046
-0.13770000000000016,-11.299299152022046
-0.13870000000000005,-11.299299152022046
-0.13970000000000016,-11.343155202317865
-0.14070000000000005,-11.343155202317865
-0.14170000000000016,-11.343155202317865
-0.14270000000000005,-11.385596541313816
-0.14370000000000016,-11.385596541313816
-0.14470000000000005,-11.385596541313816
-0.14570000000000016,-11.385596541313816
-0.14670000000000005,-11.385596541313816
-0.14770000000000016,-11.42945259160963
-0.14870000000000005,-11.42945259160963
-0.14970000000000017,-11.473308641905447
-0.15070000000000006,-11.42945259160963
-0.15170000000000017,-11.42945259160963
-0.15270000000000006,-11.473308641905447
-0.15370000000000017,-11.473308641905447
-0.15470000000000006,-11.473308641905447
-0.15570000000000017,-11.517164692201263
-0.15670000000000006,-11.517164692201263
-0.15770000000000017,-11.56102074249708
-0.15870000000000006,-11.56102074249708
-0.15970000000000018,-11.56102074249708
-0.16070000000000007,-11.56102074249708
-0.16170000000000018,-11.56102074249708
-0.16270000000000007,-11.604876792792895
-0.16370000000000018,-11.647318131788847
-0.16470000000000007,-11.647318131788847
-0.16570000000000018,-11.647318131788847
-0.16670000000000007,-11.647318131788847
-0.16770000000000018,-11.691174182084664
-0.16870000000000007,-11.691174182084664
-0.16970000000000018,-11.691174182084664
-0.17070000000000007,-11.691174182084664
-0.17170000000000019,-11.73503023238048
-0.17270000000000008,-11.73503023238048
-0.1737000000000002,-11.73503023238048
-0.17470000000000008,-11.778886282676295
-0.1757000000000002,-11.778886282676295
-0.17670000000000008,-11.778886282676295
-0.1777000000000002,-11.778886282676295
-0.17870000000000008,-11.778886282676295
-0.1797000000000002,-11.778886282676295
-0.18070000000000008,-11.82274233297211
-0.1817000000000002,-11.82274233297211
-0.18270000000000008,-11.82274233297211
-0.1837000000000002,-11.86659838326793
-0.1847000000000001,-11.86659838326793
-0.1857000000000002,-11.86659838326793
-0.1867000000000001,-11.909039722263879
-0.1877000000000002,-11.909039722263879
-0.1887000000000001,-11.952895772559694
-0.1897000000000002,-11.996751822855511
-0.1907000000000001,-11.996751822855511
-0.1917000000000001,-11.996751822855511
-0.19269999999999998,-12.040607873151327
-0.1937000000000001,-12.040607873151327
-0.19469999999999998,-12.084463923447142
-0.1957000000000001,-12.084463923447142
-0.19669999999999999,-12.12831997374296
-0.1977000000000001,-12.12831997374296
-0.1987,-12.170761312738911
-0.1997000000000001,-12.170761312738911
-0.2007,-12.170761312738911
-0.2017000000000001,-12.170761312738911
-0.2027,-12.170761312738911
-0.2037000000000001,-12.258473413330542
-0.2047,-12.258473413330542
-0.2057000000000001,-12.302329463626359
-0.2067,-12.302329463626359
-0.2077000000000001,-12.346185513922174
-0.2087,-12.346185513922174
-0.2097000000000001,-12.346185513922174
-0.2107,-12.390041564217992
-0.2117000000000001,-12.390041564217992
-0.2127,-12.432482903213943
-0.2137000000000001,-12.476338953509758
-0.2147,-12.476338953509758
-0.2157000000000001,-12.520195003805576
-0.2167,-12.520195003805576
-0.21770000000000012,-12.56405105410139
-0.2187,-12.607907104397206
-0.21970000000000012,-12.607907104397206
-0.2207,-12.651763154693022
-0.22170000000000012,-12.651763154693022
-0.2227,-12.694204493688973
-0.22370000000000012,-12.694204493688973
-0.2247,-12.73806054398479
-0.22570000000000012,-12.781916594280606
-0.2267,-12.781916594280606
-0.22770000000000012,-12.825772644576423
-0.22870000000000001,-12.869628694872238
-0.22970000000000013,-12.869628694872238
-0.23070000000000002,-12.913484745168056
-0.23170000000000013,-12.913484745168056
-0.23270000000000002,-12.955926084164007
-0.23370000000000013,-12.99978213445982
-0.23470000000000002,-13.043638184755638
-0.23570000000000013,-13.087494235051453
-0.23670000000000002,-13.13135028534727
-0.2376999999999999,-13.13135028534727
-0.23870000000000002,-13.13135028534727
-0.2396999999999999,-13.175206335643086
-0.24070000000000003,-13.217647674639037
-0.24169999999999991,-13.30535977523067
-0.24270000000000003,-13.349215825526485
-0.24369999999999992,-13.3930718758223
-0.24470000000000003,-13.3930718758223
-0.24569999999999992,-13.436927926118118
-0.24670000000000003,-13.436927926118118
-0.24769999999999992,-13.47936926511407
-0.24870000000000003,-13.567081365705702
-0.24969999999999992,-13.610937416001518
-0.25070000000000003,-13.654793466297335
-0.2516999999999999,-13.698649516593148
-0.25270000000000004,-13.698649516593148
-0.2536999999999999,-13.741090855589102
-0.25470000000000004,-13.784946905884919
-0.2556999999999999,-13.828802956180734
-0.25670000000000004,-13.916515056772363
-0.25769999999999993,-13.960371107068182
-0.25870000000000004,-14.002812446064135
-0.25969999999999993,-14.046668496359947
-0.26070000000000004,-14.090524546655764
-0.26169999999999993,-14.090524546655764
-0.26270000000000004,-14.13438059695158
-0.26369999999999993,-14.217848563643619
-0.26470000000000005,-14.26028990263957
-0.26569999999999994,-14.30273124163552
-0.26670000000000005,-14.401761032626075
-0.26769999999999994,-14.444202371622024
-0.26870000000000005,-14.486643710617974
-0.26969999999999994,-14.529085049613924
-0.27070000000000005,-14.57152638860988
-0.27169999999999994,-14.61396772760583
-0.27270000000000005,-14.69885040559773
-0.27369999999999994,-14.783733083589633
-0.27470000000000006,-14.826174422585586
-0.27569999999999995,-14.925204213576137
-0.27670000000000006,-14.967645552572087
-0.27769999999999995,-15.01008689156804
-0.27870000000000006,-15.094969569559943
-0.27969999999999995,-15.179852247551842
-0.28070000000000006,-15.264734925543747
-0.28169999999999995,-15.349617603535648
-0.28270000000000006,-15.3920589425316
-0.28369999999999995,-15.491088733522153
-0.28470000000000006,-15.575971411514052
-0.28569999999999995,-15.660854089505953
-0.28670000000000007,-15.74573676749786
-0.28769999999999996,-15.830619445489761
-0.28870000000000007,-15.91550212348166
-0.28969999999999996,-15.972090575476265
-0.29070000000000007,-16.099414592464115
-0.29169999999999996,-16.184297270456018
-0.29270000000000007,-16.269179948447924
-0.29369999999999996,-16.354062626439823
-0.2947000000000001,-16.438945304431726
-0.29569999999999996,-16.53797509542228
-0.2967000000000001,-16.622857773414182
-0.29769999999999996,-16.750181790402035
-0.2987000000000001,-16.877505807389888
-0.29969999999999997,-16.962388485381787
-0.3007000000000001,-17.018976937376394
-0.30169999999999997,-17.146300954364243
-0.3027000000000001,-17.231183632356142
-0.30369999999999997,-17.358507649344002
-0.3047000000000001,-17.48583166633185
-0.30569999999999997,-17.584861457322408
-0.3067000000000001,-17.669744135314307
-0.3077,-17.797068152302163
-0.3087000000000001,-17.924392169290012
-0.3097,-17.966833508285966
-0.3107000000000001,-18.10830463827247
-0.3117,-18.23562865526032
-0.3127000000000001,-18.362952672248177
-0.3137,-18.49027668923603
-0.3147000000000001,-18.631747819222536
-0.3157,-18.759071836210385
-0.3167000000000001,-18.88639585319824
-0.3177,-19.056161209182044
-0.3187000000000001,-19.197632339168546
-0.3197,-19.3249563561564
-0.3207000000000001,-19.49472171214021
-0.3217,-19.636192842126707
-0.3227000000000001,-19.763516859114564
-0.3237,-19.93328221509837
-0.3247000000000001,-20.06060623208622
-0.3257,-20.244518701068674
-0.3267000000000001,-20.414284057052477
-0.3277,-20.584049413036283
-0.3287000000000001,-20.72552054302279
-0.3297,-20.89528589900659
-0.3307000000000001,-21.065051254990397
-0.3317,-21.248963723972853
-0.3327000000000001,-21.418729079956652
-0.3337,-21.58849443594046
-0.3347000000000001,-21.772406904922917
-0.3357,-21.94217226090672
-0.3367000000000001,-22.069496277894572
-0.3377,-22.253408746877028
-0.3387000000000001,-22.42317410286083
-0.3397,-22.63538079784059
-0.3407000000000001,-22.819293266823045
-0.3417,-22.989058622806844
-0.3427000000000001,-23.2012653177866
-0.3437,-23.385177786769056
-0.3447000000000001,-23.55494314275286
-0.3457,-23.724708498736668
-0.3467000000000001,-23.908620967719123
-0.3477,-24.120827662698876
-0.3487000000000001,-24.34718147067728
-0.3497,-24.559388165657033
-0.3507000000000001,-24.771594860636792
-0.3517,-24.95550732961925
-0.3527000000000001,-25.12527268560305
-0.3537,-25.295038041586857
-0.3547000000000001,-25.478950510569312
-0.3557,-25.691157205549064
-0.35670000000000013,-25.91751101352747
-0.3577,-26.17215904750318
-0.35870000000000013,-26.38436574248293
-0.3597,-26.61071955046134
-0.36070000000000013,-26.822926245441096
-0.3617,-27.049280053419505
-0.3626999999999999,-27.261486748399253
-0.3637,-27.530281895373616
-0.3646999999999999,-27.827371268345274
-0.3657,-28.05372507632368
-0.3666999999999999,-28.350814449295335
-0.3677,-28.577168257273744
-0.3686999999999999,-28.831816291249446
-0.36970000000000003,-29.058170099227848
-0.3706999999999999,-29.31281813320356
-0.37170000000000003,-29.581613280177915
-0.3726999999999999,-29.836261314153624
-0.37370000000000003,-30.147497800123933
-0.3746999999999999,-30.402145834099635
-0.37570000000000003,-30.670940981073993
-0.3766999999999999,-30.88314767605375
-0.37770000000000004,-31.137795710029454
-0.3786999999999999,-31.40659085700382
-0.37970000000000004,-31.661238890979522
-0.3806999999999999,-31.930034037953877
-0.38170000000000004,-32.24127052392419
-0.38269999999999993,-32.53835989689585
-0.38370000000000004,-32.84959638286615
-0.38469999999999993,-33.10424441684186
-0.38570000000000004,-33.330598224820264
-0.38669999999999993,-33.58524625879597
-0.38770000000000004,-33.89648274476628
-0.38869999999999993,-34.236013456733886
-0.38970000000000005,-34.5472499427042
-0.39069999999999994,-34.94336910666641
-0.39170000000000005,-35.240458479638065
-0.39269999999999994,-35.50925362661242
-0.39370000000000005,-35.763901660588125
-0.39469999999999994,-36.03269680756248
-0.39570000000000005,-36.329786180534136
-0.39669999999999994,-36.6834640055004
-0.39770000000000005,-37.07958316946261
-0.39869999999999994,-37.47570233342482
-0.39970000000000006,-37.77279170639648
-0.40069999999999995,-38.04158685337084
-0.40170000000000006,-38.29623488734655
-0.40269999999999995,-38.5650300343209
-0.40370000000000006,-38.90456074628851
-0.40469999999999995,-39.30067991025072
-0.40570000000000006,-39.696799074212926
-0.40669999999999995,-40.135359577171094
-0.40770000000000006,-40.43244895014274
-0.40869999999999995,-40.701244097117105
-0.40970000000000006,-40.95589213109281
-0.41069999999999995,-41.22468727806717
-0.41170000000000007,-41.606659329030734
-0.41269999999999996,-42.04521983198889
-0.41370000000000007,-42.4413389959511
-0.41469999999999996,-42.837458159913304
-0.41570000000000007,-43.17698887188092
-0.41669999999999996,-43.48822535785123
-0.41770000000000007,-43.75702050482558
-0.41869999999999996,-44.054109877797245
-0.4197000000000001,-44.4926703807554
-0.42069999999999996,-44.88878954471762
-0.4217000000000001,-45.32735004767578
-0.42269999999999996,-45.70932209863933
-0.4237000000000001,-45.97811724561369
-0.42469999999999997,-46.3176479575813
-0.4257000000000001,-46.628884443551605
-0.42669999999999997,-47.02500360751382
-0.4277000000000001,-47.40697565847737
-0.42869999999999997,-47.84553616143554
-0.4297000000000001,-48.2840966643937
-0.43069999999999997,-48.63777448935996
-0.4317000000000001,-49.03389365332217
-0.4327,-49.41586570428573
-0.4337000000000001,-49.76954352925199
-0.4347,-50.1656626932142
-0.4357000000000001,-50.60422319617236
-0.4367,-50.98619524713592
-0.4377000000000001,-51.38231441109813
-0.4387,-51.73599223606439
-0.4397000000000001,-52.11796428702795
-0.4407,-52.471642111994214
-0.4417000000000001,-52.91020261495237
-0.4427,-53.348763117910536
-0.4437000000000001,-53.74488228187274
-0.4447,-54.16929567183226
-0.4457000000000001,-54.56541483579447
-0.4467,-55.046416677748574
-0.4477000000000001,-55.442535841710786
-0.4487,-55.9235376836649
-0.4497000000000001,-56.36209818662306
-0.4507,-56.74407023758662
-0.4517000000000001,-57.22507207954074
-0.4527,-57.66363258249889
-0.4537000000000001,-58.05975174646111
-0.4547,-58.45587091042332
-0.4557000000000001,-58.880284300382826
-0.4567,-59.27640346434504
-0.4577000000000001,-59.7149639673032
-0.4587,-60.11108313126541
-0.4597000000000001,-60.54964363422357
-0.4607,-60.93161568518713
-0.4617000000000001,-61.28529351015339
-0.4627,-61.7662953521075
-0.4637000000000001,-62.16241451606972
-0.4647,-62.68585769701977
-0.4657000000000001,-63.15271242597524
-0.4667,-63.59127292893339
-0.4677000000000001,-64.11471610988345
-0.4687,-64.59571795183757
-0.4697000000000001,-65.03427845479574
-0.4707,-65.4728389577539
-0.4717000000000001,-65.95384079970802
-0.4727,-66.43484264166212
-0.4737000000000001,-66.9582858226122
-0.4747,-67.43928766456631
-0.4757000000000001,-68.0051721845123
-0.4767,-68.44373268747047
-0.4777000000000001,-68.86814607742998
-0.4787,-69.30670658038814
-0.4797000000000001,-69.74526708334632
-0.4807,-70.26871026429637
-0.48170000000000013,-70.79215344524643
-0.4827,-71.35803796519245
-0.48370000000000013,-71.8814811461425
-0.4847,-72.36248298809663
-0.48570000000000013,-72.84348483005074
-0.4867,-72.44736566608852
-0.48570000000000013,-70.87703612323833
-0.4847,-69.61794306635846
-0.48370000000000013,-68.61349804345427
-0.4827,-67.65149435954605
-0.48170000000000013,-66.77437335362974
-0.4807,-65.91139946071206
-0.4797000000000001,-65.0767197937917
-0.4787,-64.25618723986996
-0.4777000000000001,-63.421507572949594
-0.4767,-62.64341635802381
-0.4757000000000001,-61.89361936909536
-0.4747,-61.242852171157445
-0.4737000000000001,-60.54964363422357
-0.4727,-59.842287984291055
-0.4717000000000001,-59.10663810836124
-0.4707,-58.39928245842871
-0.4697000000000001,-57.70607392149485
-0.4687,-57.05530672355693
-0.4677000000000001,-56.404539525619015
-0.4667,-55.838655005673
-0.4657000000000001,-55.21618203373238
