Potential V vs RHE, Current mA cm-2
0.013299999999999867,-0.08943804837746762
0.012299999999999978,-1.1798692240874404
0.011299999999999866,-2.052746096104168
0.010299999999999976,-2.8803522065252145
0.009299999999999864,-3.579219588658543
0.008299999999999974,-4.23281620919619
0.007299999999999862,-4.843971490737885
0.006299999999999972,-5.411270721983764
0.00529999999999986,-5.890857852638012
0.0042999999999999705,-6.37044498329226
0.0032999999999998586,-6.806176063650692
0.0022999999999999687,-7.199465805013171
0.0012999999999998568,-7.591340835075788
0.00029999999999996696,-7.984630576438266
-0.000700000000000145,-8.332649556205066
-0.0017000000000000348,-8.638227196975913
-0.0027000000000001467,-8.987660888042578
-0.0037000000000000366,-9.293238528813426
-0.0047000000000001485,-9.55496011928846
-0.005700000000000038,-9.85912304875944
-0.00670000000000015,-10.164700689530287
-0.00770000000000004,-10.42642228000532
-0.008700000000000152,-10.688143870480351
-0.009700000000000042,-10.949865460955383
-0.010700000000000154,-11.211587051430415
-0.011700000000000044,-11.42945259160963
-0.012700000000000156,-11.604876792792895
-0.013700000000000045,-11.82274233297211
-0.014700000000000157,-12.040607873151327
-0.015700000000000047,-12.214617363034726
-0.01670000000000016,-12.432482903213943
-0.01770000000000005,-12.56405105410139
-0.01870000000000016,-12.73806054398479
-0.01970000000000005,-12.913484745168056
-0.020700000000000163,-13.087494235051453
-0.021700000000000053,-13.261503724934855
-0.022700000000000164,-13.47936926511407
-0.023700000000000054,-13.610937416001518
-0.024700000000000166,-13.741090855589102
-0.025700000000000056,-13.916515056772363
-0.026700000000000168,-14.002812446064135
-0.027700000000000058,-14.13438059695158
-0.02870000000000017,-14.217848563643619
-0.02970000000000006,-14.345172580631472
-0.03070000000000017,-14.486643710617974
-0.03170000000000006,-14.529085049613924
-0.03270000000000017,-14.65640906660178
-0.03370000000000006,-14.783733083589633
-0.034700000000000175,-14.868615761581536
-0.035700000000000065,-15.01008689156804
-0.03670000000000018,-15.137410908555893
-0.03770000000000007,-15.222293586547794
-0.03870000000000018,-15.307176264539699
-0.03970000000000007,-15.3920589425316
-0.04070000000000018,-15.491088733522153
-0.04170000000000007,-15.533530072518102
-0.04270000000000018,-15.575971411514052
-0.04370000000000007,-15.660854089505953
-0.044700000000000184,-15.74573676749786
-0.045700000000000074,-15.830619445489761
-0.046700000000000186,-15.91550212348166
-0.047700000000000076,-16.014531914472215
-0.04870000000000019,-16.056973253468165
-0.04970000000000008,-16.141855931460068
-0.05070000000000019,-16.184297270456018
-0.05170000000000008,-16.269179948447924
-0.05270000000000019,-16.311621287443874
-0.05370000000000008,-16.396503965435777
-0.05470000000000019,-16.438945304431726
-0.05570000000000008,-16.53797509542228
-0.056700000000000195,-16.53797509542228
-0.057700000000000085,-16.580416434418233
-0.058700000000000196,-16.622857773414182
-0.059700000000000086,-16.665299112410132
-0.0607000000000002,-16.70774045140608
-0.06170000000000009,-16.750181790402035
-0.0627000000000002,-16.835064468393938
-0.06370000000000009,-16.835064468393938
-0.0647000000000002,-16.877505807389888
-0.06570000000000009,-16.919947146385837
-0.0667000000000002,-16.962388485381787
-0.0677000000000001,-17.018976937376394
-0.0687000000000002,-17.061418276372343
-0.0697000000000001,-17.103859615368293
-0.07070000000000021,-17.146300954364243
-0.0717000000000001,-17.188742293360193
-0.07270000000000021,-17.188742293360193
-0.0737000000000001,-17.2736249713521
-0.07470000000000021,-17.2736249713521
-0.0757000000000001,-17.316066310348052
-0.07670000000000021,-17.358507649344002
-0.0777000000000001,-17.358507649344002
-0.07870000000000021,-17.4433903273359
-0.0797000000000001,-17.4433903273359
-0.08070000000000022,-17.48583166633185
-0.0817000000000001,-17.542420118326454
-0.08270000000000022,-17.584861457322408
-0.08370000000000011,-17.627302796318357
-0.08470000000000022,-17.627302796318357
-0.08570000000000011,-17.669744135314307
-0.08670000000000022,-17.71218547431026
-0.08770000000000011,-17.71218547431026
-0.08870000000000022,-17.75462681330621
-0.08970000000000011,-17.75462681330621
-0.09070000000000022,-17.797068152302163
-0.09170000000000011,-17.797068152302163
-0.09270000000000023,-17.839509491298113
-0.09370000000000012,-17.839509491298113
-0.09470000000000023,-17.881950830294063
-0.09570000000000012,-17.881950830294063
-0.09670000000000023,-17.924392169290012
-0.09770000000000012,-17.966833508285966
-0.09870000000000023,-17.966833508285966
-0.09970000000000012,-18.009274847281915
-0.10070000000000023,-18.06586329927652
-0.10170000000000012,-18.06586329927652
-0.10270000000000024,-18.06586329927652
-0.10370000000000013,-18.06586329927652
-0.10470000000000024,-18.10830463827247
-0.10570000000000013,-18.10830463827247
-0.10670000000000024,-18.10830463827247
-0.10770000000000013,-18.15074597726842
-0.10870000000000024,-18.15074597726842
-0.10970000000000013,-18.19318731626437
-0.11070000000000024,-18.19318731626437
-0.11170000000000013,-18.23562865526032
-0.11270000000000002,-18.27806999425627
-0.11370000000000013,-18.320511333252224
-0.11470000000000002,-18.320511333252224
-0.11570000000000014,-18.320511333252224
-0.11670000000000003,-18.362952672248177
-0.11770000000000014,-18.362952672248177
-0.11870000000000003,-18.362952672248177
-0.11970000000000014,-18.40539401124413
-0.12070000000000003,-18.40539401124413
-0.12170000000000014,-18.40539401124413
-0.12270000000000003,-18.44783535024008
-0.12370000000000014,-18.44783535024008
-0.12470000000000003,-18.49027668923603
-0.12570000000000014,-18.49027668923603
-0.12670000000000003,-18.53271802823198
-0.12770000000000015,-18.53271802823198
-0.12870000000000004,-18.589306480226583
-0.12970000000000015,-18.589306480226583
-0.13070000000000004,-18.631747819222536
-0.13170000000000015,-18.674189158218486
-0.13270000000000004,-18.674189158218486
-0.13370000000000015,-18.674189158218486
-0.13470000000000004,-18.716630497214435
-0.13570000000000015,-18.716630497214435
-0.13670000000000004,-18.716630497214435
-0.13770000000000016,-18.759071836210385
-0.13870000000000005,-18.759071836210385
-0.13970000000000016,-18.759071836210385
-0.14070000000000005,-18.80151317520634
-0.14170000000000016,-18.843954514202288
-0.14270000000000005,-18.88639585319824
-0.14370000000000016,-18.88639585319824
-0.14470000000000005,-18.88639585319824
-0.14570000000000016,-18.92883719219419
-0.14670000000000005,-18.97127853119014
-0.14770000000000016,-18.92883719219419
-0.14870000000000005,-18.97127853119014
-0.14970000000000017,-18.97127853119014
-0.15070000000000006,-18.97127853119014
-0.15170000000000017,-19.01371987018609
-0.15270000000000006,-19.01371987018609
-0.15370000000000017,-19.056161209182044
-0.15470000000000006,-19.056161209182044
-0.15570000000000017,-19.056161209182044
-0.15670000000000006,-19.112749661176647
-0.15770000000000017,-19.155191000172596
-0.15870000000000006,-19.197632339168546
-0.15970000000000018,-19.197632339168546
-0.16070000000000007,-19.197632339168546
-0.16170000000000018,-19.2400736781645
-0.16270000000000007,-19.2400736781645
-0.16370000000000018,-19.28251501716045
-0.16470000000000007,-19.28251501716045
-0.16570000000000018,-19.28251501716045
-0.16670000000000007,-19.28251501716045
-0.16770000000000018,-19.28251501716045
-0.16870000000000007,-19.28251501716045
-0.16970000000000018,-19.3249563561564
-0.17070000000000007,-19.367397695152352
-0.17170000000000019,-19.367397695152352
-0.17270000000000008,-19.452280373144255
-0.1737000000000002,-19.452280373144255
-0.17470000000000008,-19.452280373144255
-0.1757000000000002,-19.49472171214021
-0.17670000000000008,-19.537163051136158
-0.1777000000000002,-19.49472171214021
-0.17870000000000008,-19.537163051136158
-0.1797000000000002,-19.537163051136158
-0.18070000000000008,-19.537163051136158
-0.1817000000000002,-19.579604390132108
-0.18270000000000008,-19.579604390132108
-0.1837000000000002,-19.636192842126707
-0.1847000000000001,-19.636192842126707
-0.1857000000000002,-19.678634181122664
-0.1867000000000001,-19.721075520118614
-0.1877000000000002,-19.721075520118614
-0.1887000000000001,-19.805958198110513
-0.1897000000000002,-19.805958198110513
-0.1907000000000001,-19.848399537106463
-0.1917000000000001,-19.848399537106463
-0.19269999999999998,-19.890840876102416
-0.1937000000000001,-19.890840876102416
-0.19469999999999998,-19.890840876102416
-0.1957000000000001,-19.93328221509837
-0.19669999999999999,-19.890840876102416
-0.1977000000000001,-19.93328221509837
-0.1987,-19.93328221509837
-0.1997000000000001,-19.97572355409432
-0.2007,-20.01816489309027
-0.2017000000000001,-20.06060623208622
-0.2027,-20.10304757108217
-0.2037000000000001,-20.159636023076775
-0.2047,-20.159636023076775
-0.2057000000000001,-20.202077362072725
-0.2067,-20.244518701068674
-0.2077000000000001,-20.244518701068674
-0.2087,-20.244518701068674
-0.2097000000000001,-20.286960040064624
-0.2107,-20.286960040064624
-0.2117000000000001,-20.329401379060574
-0.2127,-20.286960040064624
-0.2137000000000001,-20.329401379060574
-0.2147,-20.371842718056527
-0.2157000000000001,-20.456725396048434
-0.2167,-20.456725396048434
-0.21770000000000012,-20.541608074040333
-0.2187,-20.541608074040333
-0.21970000000000012,-20.541608074040333
-0.2207,-20.626490752032236
-0.22170000000000012,-20.626490752032236
-0.2227,-20.626490752032236
-0.22370000000000012,-20.626490752032236
-0.2247,-20.683079204026836
-0.22570000000000012,-20.683079204026836
-0.2267,-20.683079204026836
-0.22770000000000012,-20.72552054302279
-0.22870000000000001,-20.76796188201874
-0.22970000000000013,-20.810403221014692
-0.23070000000000002,-20.85284456001064
-0.23170000000000013,-20.89528589900659
-0.23270000000000002,-20.93772723800254
-0.23370000000000013,-20.980168576998494
-0.23470000000000002,-20.980168576998494
-0.23570000000000013,-21.022609915994444
-0.23670000000000002,-21.065051254990397
-0.2376999999999999,-21.065051254990397
-0.23870000000000002,-21.107492593986347
-0.2396999999999999,-21.107492593986347
-0.24070000000000003,-21.149933932982297
-0.24169999999999991,-21.2065223849769
-0.24270000000000003,-21.248963723972853
-0.24369999999999992,-21.333846401964752
-0.24470000000000003,-21.333846401964752
-0.24569999999999992,-21.418729079956652
-0.24670000000000003,-21.461170418952605
-0.24769999999999992,-21.503611757948562
-0.24870000000000003,-21.58849443594046
-0.24969999999999992,-21.58849443594046
-0.25070000000000003,-21.67337711393236
-0.2516999999999999,-21.67337711393236
-0.25270000000000004,-21.729965565926964
-0.2536999999999999,-21.772406904922917
-0.25470000000000004,-21.814848243918867
-0.2556999999999999,-21.857289582914817
-0.25670000000000004,-21.899730921910766
-0.25769999999999993,-21.94217226090672
-0.25870000000000004,-21.98461359990267
-0.25969999999999993,-22.069496277894572
-0.26070000000000004,-22.15437895588647
-0.26169999999999993,-22.15437895588647
-0.26270000000000004,-22.253408746877028
-0.26369999999999993,-22.295850085872978
-0.26470000000000005,-22.38073276386488
-0.26569999999999994,-22.42317410286083
-0.26670000000000005,-22.46561544185678
-0.26769999999999994,-22.508056780852733
-0.26870000000000005,-22.550498119848687
-0.26969999999999994,-22.592939458844636
-0.27070000000000005,-22.67782213683654
-0.27169999999999994,-22.72026347583249
-0.27270000000000005,-22.819293266823045
-0.27369999999999994,-22.861734605818995
-0.27470000000000006,-22.946617283810895
-0.27569999999999995,-23.031499961802798
-0.27670000000000006,-23.031499961802798
-0.27769999999999995,-23.1163826397947
-0.27870000000000006,-23.15882397879065
-0.27969999999999995,-23.24370665678255
-0.28070000000000006,-23.300295108777156
-0.28169999999999995,-23.385177786769056
-0.28270000000000006,-23.427619125765005
-0.28369999999999995,-23.51250180375691
-0.28470000000000006,-23.597384481748815
-0.28569999999999995,-23.639825820744765
-0.28670000000000007,-23.724708498736668
-0.28769999999999996,-23.823738289727217
-0.28870000000000007,-23.908620967719123
-0.28969999999999996,-23.951062306715073
-0.29070000000000007,-24.035944984706973
-0.29169999999999996,-24.120827662698876
-0.29270000000000007,-24.20571034069078
-0.29369999999999996,-24.290593018682678
-0.2947000000000001,-24.389622809673234
-0.29569999999999996,-24.474505487665134
-0.2967000000000001,-24.559388165657033
-0.29769999999999996,-24.64427084364894
-0.2987000000000001,-24.729153521640843
-0.29969999999999997,-24.814036199632742
-0.3007000000000001,-24.9130659906233
-0.30169999999999997,-24.997948668615198
-0.3027000000000001,-25.0828313466071
-0.30369999999999997,-25.210155363594954
-0.3047000000000001,-25.295038041586857
-0.30569999999999997,-25.39406783257741
-0.3067000000000001,-25.478950510569312
-0.3077,-25.60627452755716
-0.3087000000000001,-25.691157205549064
-0.3097,-25.77603988354097
-0.3107000000000001,-25.959952352523427
-0.3117,-26.044835030515326
-0.3127000000000001,-26.17215904750318
-0.3137,-26.257041725495082
-0.3147000000000001,-26.38436574248293
-0.3157,-26.525836872469437
-0.3167000000000001,-26.61071955046134
-0.3177,-26.69560222845324
-0.3187000000000001,-26.822926245441096
-0.3197,-26.907808923433
-0.3207000000000001,-27.049280053419505
-0.3217,-27.176604070407354
-0.3227000000000001,-27.303928087395207
-0.3237,-27.43125210438306
-0.3247000000000001,-27.572723234369565
-0.3257,-27.700047251357418
-0.3267000000000001,-27.912253946337174
-0.3277,-28.011283737327723
-0.3287000000000001,-28.18104909331153
-0.3297,-28.308373110299385
-0.3307000000000001,-28.435697127287238
-0.3317,-28.577168257273744
-0.3327000000000001,-28.704492274261593
-0.3337,-28.8742576302454
-0.3347000000000001,-29.001581647233255
-0.3357,-29.18549411621571
-0.3367000000000001,-29.35525947219951
-0.3377,-29.581613280177915
-0.3387000000000001,-29.708937297165768
-0.3397,-29.878702653149578
-0.3407000000000001,-30.04846800913338
-0.3417,-30.232380478115836
-0.3427000000000001,-30.402145834099635
-0.3437,-30.571911190083444
-0.3447000000000001,-30.7558236590659
-0.3457,-30.925589015049702
-0.3467000000000001,-31.052913032037555
-0.3477,-31.23682550102001
-0.3487000000000001,-31.449032195999767
-0.3497,-31.618797551983565
-0.3507000000000001,-31.802710020966025
-0.3517,-32.01491671594578
-0.3527000000000001,-32.184682071929586
-0.3537,-32.41103587990799
-0.3547000000000001,-32.62324257488775
-0.3557,-32.807155043870196
-0.35670000000000013,-33.01936173884996
-0.3577,-33.231568433829715
-0.35870000000000013,-33.41548090281216
-0.3597,-33.627687597791926
-0.36070000000000013,-33.81160006677438
-0.3617,-34.02380676175414
-0.3626999999999999,-34.236013456733886
-0.3637,-34.462367264712285
-0.3646999999999999,-34.67457395969205
-0.3657,-34.90092776767045
-0.3666999999999999,-35.11313446265021
-0.3677,-35.38192960962457
-0.3686999999999999,-35.636577643600276
-0.36970000000000003,-35.848784338580025
-0.3706999999999999,-36.07513814655844
-0.37170000000000003,-36.329786180534136
-0.3726999999999999,-36.5136986495166
-0.37370000000000003,-36.768346683492304
-0.3746999999999999,-36.99470049147071
-0.37570000000000003,-37.206907186450465
-0.3766999999999999,-37.47570233342482
-0.37770000000000004,-37.73035036740053
-0.3786999999999999,-37.99914551437489
-0.37970000000000004,-38.29623488734655
-0.3806999999999999,-38.522588695324956
-0.38170000000000004,-38.777236729300654
-0.38269999999999993,-39.046031876275016
-0.38370000000000004,-39.30067991025072
-0.38469999999999993,-39.56947505722508
-0.38570000000000004,-39.82412309120078
-0.38669999999999993,-40.092918238175145
-0.38770000000000004,-40.34756627215084
-0.38869999999999993,-40.616361419125205
-0.38970000000000005,-40.91345079209687
-0.39069999999999994,-41.22468727806717
-0.39170000000000005,-41.52177665103883
-0.39269999999999994,-41.83301313700913
-0.39370000000000005,-42.130102509980794
-0.39469999999999994,-42.4413389959511
-0.39570000000000005,-42.71013414292546
-0.39669999999999994,-42.96478217690117
-0.39770000000000005,-43.31846000186743
-0.39869999999999994,-43.61554937483908
-0.39970000000000006,-43.92678586080939
-0.40069999999999995,-44.223875233781044
-0.40170000000000006,-44.577553058747306
-0.40269999999999995,-44.88878954471762
-0.40370000000000006,-45.18587891768927
-0.40469999999999995,-45.53955674265553
-0.40570000000000006,-45.85079322862584
-0.40669999999999995,-46.19032394059345
-0.40770000000000006,-46.501560426563756
-0.40869999999999995,-46.79864979953541
-0.40970000000000006,-47.067444946509774
-0.41069999999999995,-47.36453431948143
-0.41170000000000007,-47.71821214444768
-0.41269999999999996,-48.029448630417996
-0.41370000000000007,-48.36897934238561
-0.41469999999999996,-48.72265716735186
-0.41570000000000007,-49.076334992318124
-0.41669999999999996,-49.458307043281685
-0.41770000000000007,-49.76954352925199
-0.41869999999999996,-50.20810403221015
-0.4197000000000001,-50.547634744177756
-0.42069999999999996,-50.943753908139975
-0.4217000000000001,-51.25499039411028
-0.42269999999999996,-51.594521106077885
-0.4237000000000001,-51.90575759204819
-0.42469999999999997,-52.25943541701445
-0.4257000000000001,-52.55652478998611
-0.42669999999999997,-52.91020261495237
-0.4277000000000001,-53.30632177891458
-0.42869999999999997,-53.68829382987814
-0.4297000000000001,-54.08441299384035
-0.43069999999999997,-54.52297349679851
-0.4317000000000001,-54.919092660760725
-0.4327,-55.31521182472294
-0.4337000000000001,-55.65474253669055
-0.4347,-56.05086170065276
-0.4357000000000001,-56.404539525619015
-0.4367,-56.74407023758662
-0.4377000000000001,-57.097748062552874
-0.4387,-57.53630856551105
-0.4397000000000001,-57.8333979384827
-0.4407,-58.27195844144086
-0.4417000000000001,-58.66807760540307
-0.4427,-59.10663810836124
-0.4437000000000001,-59.587639950315335
-0.4447,-60.02620045327351
-0.4457000000000001,-60.45061384323302
-0.4467,-60.84673300719523
-0.4477000000000001,-61.20041083216149
-0.4487,-61.63897133511965
-0.4497000000000001,-62.02094338608321
-0.4507,-62.41706255004542
-0.4517000000000001,-62.855623053003576
-0.4527,-63.251742216965795
-0.4537000000000001,-63.6761556069253
-0.4547,-64.15715744887942
-0.4557000000000001,-64.59571795183757
-0.4567,-65.0767197937917
-0.4577000000000001,-65.5577216357458
-0.4587,-65.99628213870396
-0.4597000000000001,-66.43484264166212
-0.4607,-66.87340314462028
-0.4617000000000001,-67.2978165345798
-0.4627,-67.73637703753796
-0.4637000000000001,-68.25982021848802
-0.4647,-68.69838072144618
-0.4657000000000001,-69.1793825634003
-0.4667,-69.61794306635846
-0.4677000000000001,-70.09894490831257
-0.4687,-70.57994675026669
-0.4697000000000001,-71.06094859222078
-0.4707,-71.52780332117625
-0.4717000000000001,-71.96636382413442
-0.4727,-72.44736566608852
-0.4737000000000001,-72.92836750804264
-0.4747,-73.40936934999675
-0.4757000000000001,-73.93281253094682
-0.4767,-74.45625571189689
-0.4777000000000001,-74.93725755385098
-0.4787,-75.46070073480107
-0.4797000000000001,-75.98414391575112
-0.4807,-76.46514575770523
-0.48170000000000013,-76.9037062606634
-0.4827,-77.38470810261751
-0.48370000000000013,-77.86570994457162
-0.4847,-78.33256467352709
-0.48570000000000013,-78.85600785447714
-0.4867,-78.51647714250953
-0.48570000000000013,-76.81882358267148
-0.4847,-75.37581805680915
-0.48370000000000013,-74.10257788693062
-0.4827,-72.92836750804264
-0.48170000000000013,-71.83903980714656
-0.4807,-70.79215344524643
-0.4797000000000001,-69.8301497613382
-0.4787,-68.91058741642594
-0.4777000000000001,-68.04761352350828
-0.4767,-67.128051178596
-0.4757000000000001,-66.25093017267966
-0.4747,-65.4728389577539
-0.4737000000000001,-64.63815929083353
-0.4727,-63.860068075907755
-0.4717000000000001,-63.06782974798333
-0.4707,-62.28973853305756
-0.4697000000000001,-61.53994154412909
-0.4687,-60.80429166819927
-0.4677000000000001,-60.06864179226946
-0.4667,-59.36128614233694
-0.4657000000000001,-58.583194927411164
-0.4647,-57.87583927747865
