Potential V vs RHE, Current mA cm-2
0.013299999999999867,-0.08943804837746762
0.012299999999999978,-1.0925815368857679
0.011299999999999866,-2.008890045808352
0.010299999999999976,-2.794054817233447
0.009299999999999864,-3.4915074880669104
0.008299999999999974,-4.0588067193127895
0.007299999999999862,-4.626105950558669
0.006299999999999972,-5.149549131508733
0.00529999999999986,-5.629136262162981
0.0042999999999999705,-6.064867342521412
0.0032999999999998586,-6.458157083883892
0.0022999999999999687,-6.850032113946507
0.0012999999999998568,-7.243321855308987
0.00029999999999996696,-7.5474847847799715
-0.000700000000000145,-7.853062425550818
-0.0017000000000000348,-8.202496116617484
-0.0027000000000001467,-8.508073757388331
-0.0037000000000000366,-8.769795347863363
-0.0047000000000001485,-9.031516938338395
-0.005700000000000038,-9.293238528813426
-0.00670000000000015,-9.55496011928846
-0.00770000000000004,-9.81668170976349
-0.008700000000000152,-10.034547249942705
-0.009700000000000042,-10.208556739826104
-0.010700000000000154,-10.42642228000532
-0.011700000000000044,-10.644287820184536
-0.012700000000000156,-10.819712021367803
-0.013700000000000045,-10.993721511251199
-0.014700000000000157,-11.211587051430415
-0.015700000000000047,-11.343155202317865
-0.01670000000000016,-11.56102074249708
-0.01770000000000005,-11.691174182084664
-0.01870000000000016,-11.909039722263879
-0.01970000000000005,-12.040607873151327
-0.020700000000000163,-12.214617363034726
-0.021700000000000053,-12.302329463626359
-0.022700000000000164,-12.476338953509758
-0.023700000000000054,-12.56405105410139
-0.024700000000000166,-12.694204493688973
-0.025700000000000056,-12.825772644576423
-0.026700000000000168,-12.913484745168056
-0.027700000000000058,-13.043638184755638
-0.02870000000000017,-13.13135028534727
-0.02970000000000006,-13.261503724934855
-0.03070000000000017,-13.3930718758223
-0.03170000000000006,-13.47936926511407
-0.03270000000000017,-13.610937416001518
-0.03370000000000006,-13.654793466297335
-0.034700000000000175,-13.784946905884919
-0.035700000000000065,-13.872659006476551
-0.03670000000000018,-13.960371107068182
-0.03770000000000007,-14.002812446064135
-0.03870000000000018,-14.090524546655764
-0.03970000000000007,-14.13438059695158
-0.04070000000000018,-14.217848563643619
-0.04170000000000007,-14.30273124163552
-0.04270000000000018,-14.345172580631472
-0.04370000000000007,-14.486643710617974
-0.044700000000000184,-14.529085049613924
-0.045700000000000074,-14.61396772760583
-0.046700000000000186,-14.65640906660178
-0.047700000000000076,-14.741291744593681
-0.04870000000000019,-14.783733083589633
-0.04970000000000008,-14.826174422585586
-0.05070000000000019,-14.826174422585586
-0.05170000000000008,-14.925204213576137
-0.05270000000000019,-14.967645552572087
-0.05370000000000008,-15.01008689156804
-0.05470000000000019,-15.094969569559943
-0.05570000000000008,-15.137410908555893
-0.056700000000000195,-15.179852247551842
-0.057700000000000085,-15.264734925543747
-0.058700000000000196,-15.307176264539699
-0.059700000000000086,-15.349617603535648
-0.0607000000000002,-15.3920589425316
-0.06170000000000009,-15.3920589425316
-0.0627000000000002,-15.448647394526201
-0.06370000000000009,-15.448647394526201
-0.0647000000000002,-15.491088733522153
-0.06570000000000009,-15.575971411514052
-0.0667000000000002,-15.575971411514052
-0.0677000000000001,-15.618412750510005
-0.0687000000000002,-15.618412750510005
-0.0697000000000001,-15.660854089505953
-0.07070000000000021,-15.74573676749786
-0.0717000000000001,-15.78817810649381
-0.07270000000000021,-15.78817810649381
-0.0737000000000001,-15.78817810649381
-0.07470000000000021,-15.78817810649381
-0.0757000000000001,-15.830619445489761
-0.07670000000000021,-15.830619445489761
-0.0777000000000001,-15.87306078448571
-0.07870000000000021,-15.87306078448571
-0.0797000000000001,-15.972090575476265
-0.08070000000000022,-15.972090575476265
-0.0817000000000001,-16.056973253468165
-0.08270000000000022,-16.056973253468165
-0.08370000000000011,-16.099414592464115
-0.08470000000000022,-16.099414592464115
-0.08570000000000011,-16.099414592464115
-0.08670000000000022,-16.099414592464115
-0.08770000000000011,-16.099414592464115
-0.08870000000000022,-16.099414592464115
-0.08970000000000011,-16.141855931460068
-0.09070000000000022,-16.141855931460068
-0.09170000000000011,-16.184297270456018
-0.09270000000000023,-16.184297270456018
-0.09370000000000012,-16.22673860945197
-0.09470000000000023,-16.311621287443874
-0.09570000000000012,-16.311621287443874
-0.09670000000000023,-16.269179948447924
-0.09770000000000012,-16.269179948447924
-0.09870000000000023,-16.311621287443874
-0.09970000000000012,-16.311621287443874
-0.10070000000000023,-16.311621287443874
-0.10170000000000012,-16.311621287443874
-0.10270000000000024,-16.354062626439823
-0.10370000000000013,-16.354062626439823
-0.10470000000000024,-16.396503965435777
-0.10570000000000013,-16.438945304431726
-0.10670000000000024,-16.438945304431726
-0.10770000000000013,-16.438945304431726
-0.10870000000000024,-16.495533756426326
-0.10970000000000013,-16.495533756426326
-0.11070000000000024,-16.53797509542228
-0.11170000000000013,-16.53797509542228
-0.11270000000000002,-16.580416434418233
-0.11370000000000013,-16.580416434418233
-0.11470000000000002,-16.622857773414182
-0.11570000000000014,-16.622857773414182
-0.11670000000000003,-16.622857773414182
-0.11770000000000014,-16.665299112410132
-0.11870000000000003,-16.665299112410132
-0.11970000000000014,-16.622857773414182
-0.12070000000000003,-16.622857773414182
-0.12170000000000014,-16.665299112410132
-0.12270000000000003,-16.70774045140608
-0.12370000000000014,-16.70774045140608
-0.12470000000000003,-16.750181790402035
-0.12570000000000014,-16.750181790402035
-0.12670000000000003,-16.792623129397985
-0.12770000000000015,-16.835064468393938
-0.12870000000000004,-16.835064468393938
-0.12970000000000015,-16.792623129397985
-0.13070000000000004,-16.835064468393938
-0.13170000000000015,-16.835064468393938
-0.13270000000000004,-16.835064468393938
-0.13370000000000015,-16.835064468393938
-0.13470000000000004,-16.877505807389888
-0.13570000000000015,-16.835064468393938
-0.13670000000000004,-16.877505807389888
-0.13770000000000016,-16.919947146385837
-0.13870000000000005,-16.919947146385837
-0.13970000000000016,-16.962388485381787
-0.14070000000000005,-17.018976937376394
-0.14170000000000016,-17.018976937376394
-0.14270000000000005,-17.061418276372343
-0.14370000000000016,-17.018976937376394
-0.14470000000000005,-17.061418276372343
-0.14570000000000016,-17.061418276372343
-0.14670000000000005,-17.061418276372343
-0.14770000000000016,-17.061418276372343
-0.14870000000000005,-17.061418276372343
-0.14970000000000017,-17.103859615368293
-0.15070000000000006,-17.146300954364243
-0.15170000000000017,-17.146300954364243
-0.15270000000000006,-17.146300954364243
-0.15370000000000017,-17.188742293360193
-0.15470000000000006,-17.188742293360193
-0.15570000000000017,-17.188742293360193
-0.15670000000000006,-17.188742293360193
-0.15770000000000017,-17.231183632356142
-0.15870000000000006,-17.231183632356142
-0.15970000000000018,-17.2736249713521
-0.16070000000000007,-17.231183632356142
-0.16170000000000018,-17.2736249713521
-0.16270000000000007,-17.2736249713521
-0.16370000000000018,-17.358507649344002
-0.16470000000000007,-17.358507649344002
-0.16570000000000018,-17.358507649344002
-0.16670000000000007,-17.358507649344002
-0.16770000000000018,-17.40094898833995
-0.16870000000000007,-17.40094898833995
-0.16970000000000018,-17.358507649344002
-0.17070000000000007,-17.40094898833995
-0.17170000000000019,-17.40094898833995
-0.17270000000000008,-17.4433903273359
-0.1737000000000002,-17.4433903273359
-0.17470000000000008,-17.48583166633185
-0.1757000000000002,-17.542420118326454
-0.17670000000000008,-17.542420118326454
-0.1777000000000002,-17.584861457322408
-0.17870000000000008,-17.584861457322408
-0.1797000000000002,-17.627302796318357
-0.18070000000000008,-17.669744135314307
-0.1817000000000002,-17.669744135314307
-0.18270000000000008,-17.71218547431026
-0.1837000000000002,-17.71218547431026
-0.1847000000000001,-17.71218547431026
-0.1857000000000002,-17.75462681330621
-0.1867000000000001,-17.797068152302163
-0.1877000000000002,-17.797068152302163
-0.1887000000000001,-17.797068152302163
-0.1897000000000002,-17.839509491298113
-0.1907000000000001,-17.881950830294063
-0.1917000000000001,-17.924392169290012
-0.19269999999999998,-17.966833508285966
-0.1937000000000001,-17.966833508285966
-0.19469999999999998,-17.966833508285966
-0.1957000000000001,-17.966833508285966
-0.19669999999999999,-18.009274847281915
-0.1977000000000001,-18.009274847281915
-0.1987,-18.009274847281915
-0.1997000000000001,-18.06586329927652
-0.2007,-18.06586329927652
-0.2017000000000001,-18.10830463827247
-0.2027,-18.10830463827247
-0.2037000000000001,-18.15074597726842
-0.2047,-18.19318731626437
-0.2057000000000001,-18.19318731626437
-0.2067,-18.23562865526032
-0.2077000000000001,-18.27806999425627
-0.2087,-18.27806999425627
-0.2097000000000001,-18.320511333252224
-0.2107,-18.362952672248177
-0.2117000000000001,-18.362952672248177
-0.2127,-18.40539401124413
-0.2137000000000001,-18.44783535024008
-0.2147,-18.44783535024008
-0.2157000000000001,-18.53271802823198
-0.2167,-18.49027668923603
-0.21770000000000012,-18.53271802823198
-0.2187,-18.589306480226583
-0.21970000000000012,-18.631747819222536
-0.2207,-18.674189158218486
-0.22170000000000012,-18.674189158218486
-0.2227,-18.716630497214435
-0.22370000000000012,-18.759071836210385
-0.2247,-18.759071836210385
-0.22570000000000012,-18.80151317520634
-0.2267,-18.843954514202288
-0.22770000000000012,-18.843954514202288
-0.22870000000000001,-18.843954514202288
-0.22970000000000013,-18.88639585319824
-0.23070000000000002,-18.92883719219419
-0.23170000000000013,-18.97127853119014
-0.23270000000000002,-19.01371987018609
-0.23370000000000013,-19.056161209182044
-0.23470000000000002,-19.112749661176647
-0.23570000000000013,-19.155191000172596
-0.23670000000000002,-19.197632339168546
-0.2376999999999999,-19.197632339168546
-0.23870000000000002,-19.2400736781645
-0.2396999999999999,-19.28251501716045
-0.24070000000000003,-19.28251501716045
-0.24169999999999991,-19.3249563561564
-0.24270000000000003,-19.367397695152352
-0.24369999999999992,-19.409839034148305
-0.24470000000000003,-19.452280373144255
-0.24569999999999992,-19.49472171214021
-0.24670000000000003,-19.537163051136158
-0.24769999999999992,-19.579604390132108
-0.24870000000000003,-19.636192842126707
-0.24969999999999992,-19.678634181122664
-0.25070000000000003,-19.721075520118614
-0.2516999999999999,-19.763516859114564
-0.25270000000000004,-19.805958198110513
-0.2536999999999999,-19.848399537106463
-0.25470000000000004,-19.890840876102416
-0.2556999999999999,-19.93328221509837
-0.25670000000000004,-19.97572355409432
-0.25769999999999993,-20.06060623208622
-0.25870000000000004,-20.159636023076775
-0.25969999999999993,-20.202077362072725
-0.26070000000000004,-20.244518701068674
-0.26169999999999993,-20.286960040064624
-0.26270000000000004,-20.329401379060574
-0.26369999999999993,-20.329401379060574
-0.26470000000000005,-20.371842718056527
-0.26569999999999994,-20.414284057052477
-0.26670000000000005,-20.499166735044383
-0.26769999999999994,-20.541608074040333
-0.26870000000000005,-20.626490752032236
-0.26969999999999994,-20.683079204026836
-0.27070000000000005,-20.76796188201874
-0.27169999999999994,-20.810403221014692
-0.27270000000000005,-20.89528589900659
-0.27369999999999994,-20.93772723800254
-0.27470000000000006,-20.980168576998494
-0.27569999999999995,-21.022609915994444
-0.27670000000000006,-21.065051254990397
-0.27769999999999995,-21.149933932982297
-0.27870000000000006,-21.2065223849769
-0.27969999999999995,-21.291405062968803
-0.28070000000000006,-21.333846401964752
-0.28169999999999995,-21.461170418952605
-0.28270000000000006,-21.503611757948562
-0.28369999999999995,-21.58849443594046
-0.28470000000000006,-21.67337711393236
-0.28569999999999995,-21.729965565926964
-0.28670000000000007,-21.814848243918867
-0.28769999999999996,-21.857289582914817
-0.28870000000000007,-21.94217226090672
-0.28969999999999996,-22.027054938898623
-0.29070000000000007,-22.069496277894572
-0.29169999999999996,-22.15437895588647
-0.29270000000000007,-22.295850085872978
-0.29369999999999996,-22.38073276386488
-0.2947000000000001,-22.46561544185678
-0.29569999999999996,-22.550498119848687
-0.2967000000000001,-22.63538079784059
-0.29769999999999996,-22.72026347583249
-0.2987000000000001,-22.861734605818995
-0.29969999999999997,-22.946617283810895
-0.3007000000000001,-23.073941300798747
-0.30169999999999997,-23.1163826397947
-0.3027000000000001,-23.24370665678255
-0.30369999999999997,-23.342736447773106
-0.3047000000000001,-23.47006046476096
-0.30569999999999997,-23.55494314275286
-0.3067000000000001,-23.639825820744765
-0.3077,-23.724708498736668
-0.3087000000000001,-23.86617962872317
-0.3097,-23.951062306715073
-0.3107000000000001,-24.078386323702922
-0.3117,-24.20571034069078
-0.3127000000000001,-24.34718147067728
-0.3137,-24.474505487665134
-0.3147000000000001,-24.559388165657033
-0.3157,-24.686712182644893
-0.3167000000000001,-24.771594860636792
-0.3177,-24.9130659906233
-0.3187000000000001,-25.04039000761115
-0.3197,-25.167714024599
-0.3207000000000001,-25.252596702590903
-0.3217,-25.43650917157336
-0.3227000000000001,-25.563833188561212
-0.3237,-25.691157205549064
-0.3247000000000001,-25.81848122253692
-0.3257,-25.91751101352747
-0.3267000000000001,-26.087276369511276
-0.3277,-26.21460038649913
-0.3287000000000001,-26.34192440348698
-0.3297,-26.483395533473487
-0.3307000000000001,-26.61071955046134
-0.3317,-26.780484906445146
-0.3327000000000001,-26.907808923433
-0.3337,-27.049280053419505
-0.3347000000000001,-27.219045409403304
-0.3357,-27.34636942639116
-0.3367000000000001,-27.530281895373616
-0.3377,-27.700047251357418
-0.3387000000000001,-27.869812607341224
-0.3397,-28.05372507632368
-0.3407000000000001,-28.22349043230748
-0.3417,-28.350814449295335
-0.3427000000000001,-28.53472691827779
-0.3437,-28.704492274261593
-0.3447000000000001,-28.8742576302454
-0.3457,-29.100611438223805
-0.3467000000000001,-29.27037679420761
-0.3477,-29.440142150191413
-0.3487000000000001,-29.66649595816982
-0.3497,-29.836261314153624
-0.3507000000000001,-30.04846800913338
-0.3517,-30.274821817111786
-0.3527000000000001,-30.444587173095588
-0.3537,-30.614352529079397
-0.3547000000000001,-30.8407063370578
-0.3557,-31.010471693041605
-0.35670000000000013,-31.23682550102001
-0.3577,-31.40659085700382
-0.35870000000000013,-31.661238890979522
-0.3597,-31.887592698957924
-0.36070000000000013,-32.05735805494172
-0.3617,-32.32615320191609
-0.3626999999999999,-32.53835989689585
-0.3637,-32.764713704874254
-0.3646999999999999,-32.97692039985401
-0.3657,-33.18912709483376
-0.3666999999999999,-33.41548090281216
-0.3677,-33.627687597791926
-0.3686999999999999,-33.89648274476628
-0.36970000000000003,-34.10868943974604
-0.3706999999999999,-34.33504324772444
-0.37170000000000003,-34.58969128170015
-0.3726999999999999,-34.85848642867451
-0.37370000000000003,-35.11313446265021
-0.3746999999999999,-35.38192960962457
-0.37570000000000003,-35.594136304604326
-0.3766999999999999,-35.806342999584075
-0.37770000000000004,-36.07513814655844
-0.3786999999999999,-36.329786180534136
-0.37970000000000004,-36.5985813275085
-0.3806999999999999,-36.8532293614842
-0.38170000000000004,-37.07958316946261
-0.38269999999999993,-37.376672542434264
-0.38370000000000004,-37.645467689408626
-0.38469999999999993,-37.94255706238028
-0.38570000000000004,-38.253793548350586
-0.38669999999999993,-38.522588695324956
-0.38770000000000004,-38.777236729300654
-0.38869999999999993,-39.046031876275016
-0.38970000000000005,-39.30067991025072
-0.39069999999999994,-39.61191639622103
-0.39170000000000005,-39.86656443019674
-0.39269999999999994,-40.135359577171094
-0.39370000000000005,-40.43244895014274
-0.39469999999999994,-40.743685436113054
-0.39570000000000005,-41.083216148080666
-0.39669999999999994,-41.43689397304693
-0.39770000000000005,-41.70568912002128
-0.39869999999999994,-42.00277849299294
-0.39970000000000006,-42.31401497896325
-0.40069999999999995,-42.568663012938956
-0.40170000000000006,-42.87989949890926
-0.40269999999999995,-43.17698887188092
-0.40370000000000006,-43.44578401885527
-0.40469999999999995,-43.75702050482558
-0.40570000000000006,-44.096551216793195
-0.40669999999999995,-44.4077877027635
-0.40770000000000006,-44.704877075735155
-0.40869999999999995,-45.05855490070142
-0.40970000000000006,-45.412232725667685
-0.41069999999999995,-45.75176343763528
-0.41170000000000007,-46.062999923605595
-0.41269999999999996,-46.37423640957591
-0.41370000000000007,-46.75620846053947
-0.41469999999999996,-47.067444946509774
-0.41570000000000007,-47.36453431948143
-0.41669999999999996,-47.71821214444768
-0.41770000000000007,-48.071889969413945
-0.41869999999999996,-48.41142068138156
-0.4197000000000001,-48.80753984534376
-0.42069999999999996,-49.20365900930597
-0.4217000000000001,-49.59977817326819
-0.42269999999999996,-49.98175022423175
-0.4237000000000001,-50.335428049198
-0.42469999999999997,-50.68910587416426
-0.4257000000000001,-51.071077925127824
-0.42669999999999997,-51.424755750094086
-0.4277000000000001,-51.82087491405629
-0.42869999999999997,-52.2169940780185
-0.4297000000000001,-52.514083450990164
-0.43069999999999997,-52.86776127595642
-0.4317000000000001,-53.30632177891458
-0.4327,-53.68829382987814
-0.4337000000000001,-54.1268543328363
-0.4347,-54.480532157802564
-0.4357000000000001,-54.919092660760725
-0.4367,-55.31521182472294
-0.4377000000000001,-55.6971838756865
-0.4387,-56.093303039648696
-0.4397000000000001,-56.489422203610914
-0.4407,-56.82895291557852
-0.4417000000000001,-57.22507207954074
-0.4427,-57.62119124350295
-0.4437000000000001,-58.017310407465146
-0.4447,-58.45587091042332
-0.4457000000000001,-58.880284300382826
-0.4467,-59.31884480334099
-0.4477000000000001,-59.757405306299155
-0.4487,-60.19596580925731
-0.4497000000000001,-60.59208497321952
-0.4507,-61.01649836317903
-0.4517000000000001,-61.412617527141244
-0.4527,-61.80873669110345
-0.4537000000000001,-62.20485585506566
-0.4547,-62.64341635802381
-0.4557000000000001,-63.06782974798333
-0.4567,-63.5063902509415
-0.4577000000000001,-64.02983343189156
-0.4587,-64.46839393484973
-0.4597000000000001,-64.94939577680383
-0.4607,-65.43039761875795
-0.4617000000000001,-65.86895812171612
-0.4627,-66.29337151167562
-0.4637000000000001,-66.73193201463377
-0.4647,-67.17049251759194
-0.4657000000000001,-67.65149435954605
-0.4667,-68.0900548625042
-0.4677000000000001,-68.57105670445833
-0.4687,-69.05205854641244
-0.4697000000000001,-69.57550172736251
-0.4707,-70.09894490831257
-0.4717000000000001,-70.57994675026669
-0.4727,-71.06094859222078
-0.4737000000000001,-71.58439177317086
-0.4747,-72.05124650212633
-0.4757000000000001,-72.53224834408043
-0.4767,-73.01325018603454
-0.4777000000000001,-73.49425202798865
-0.4787,-73.93281253094682
-0.4797000000000001,-74.41381437290093
-0.4807,-74.89481621485504
-0.48170000000000013,-75.4182593958051
-0.4827,-75.94170257675518
-0.48370000000000013,-76.46514575770523
-0.4847,-76.94614759965934
-0.48570000000000013,-77.42714944161345
-0.4867,-77.0734716166472
-0.48570000000000013,-75.37581805680915
-0.4847,-73.93281253094682
-0.48370000000000013,-72.67371947406694
-0.4827,-71.48536198218031
-0.48170000000000013,-70.43847562028017
-0.4807,-69.4906190493706
-0.4797000000000001,-68.52861536546239
-0.4787,-67.6090530205501
-0.4777000000000001,-66.73193201463377
-0.4767,-65.95384079970802
-0.4757000000000001,-65.11916113278764
-0.4747,-64.34106991786187
-0.4737000000000001,-63.54883158993744
-0.4727,-62.77074037501168
-0.4717000000000001,-61.97850204708726
-0.4707,-61.28529351015339
-0.4697000000000001,-60.54964363422357
-0.4687,-59.842287984291055
-0.4677000000000001,-59.14907944735718
-0.4667,-58.498312249419264
-0.4657000000000001,-57.7485152604908
