Potential V vs RHE, Current mA cm-2
0.013299999999999867,-0.04582249900262853
0.012299999999999978,-1.0925815368857679
0.011299999999999866,-1.92117794521672
0.010299999999999976,-2.662486666345999
0.009299999999999864,-3.317497998183511
0.008299999999999974,-3.884797229429391
0.007299999999999862,-4.450681749375406
0.006299999999999972,-4.887827541033701
0.00529999999999986,-5.367414671687949
0.0042999999999999705,-5.759289701750564
0.0032999999999998586,-6.152579443113044
0.0022999999999999687,-6.500598422879844
0.0012999999999998568,-6.806176063650692
0.00029999999999996696,-7.111753704421539
-0.000700000000000145,-7.4173313451923875
-0.0017000000000000348,-7.679052935667419
-0.0027000000000001467,-7.984630576438266
-0.0037000000000000366,-8.202496116617484
-0.0047000000000001485,-8.464217707092514
-0.005700000000000038,-8.725939297567548
-0.00670000000000015,-8.943804837746763
-0.00770000000000004,-9.161670377925978
-0.008700000000000152,-9.379535918105192
-0.009700000000000042,-9.55496011928846
-0.010700000000000154,-9.728969609171857
-0.011700000000000044,-9.902979099055257
-0.012700000000000156,-10.078403300238522
-0.013700000000000045,-10.25241279012192
-0.014700000000000157,-10.382566229709504
-0.015700000000000047,-10.557990430892769
-0.01670000000000016,-10.688143870480351
-0.01770000000000005,-10.863568071663616
-0.01870000000000016,-10.993721511251199
-0.01970000000000005,-11.123874950838783
-0.020700000000000163,-11.255443101726232
-0.021700000000000053,-11.343155202317865
-0.022700000000000164,-11.473308641905447
-0.023700000000000054,-11.56102074249708
-0.024700000000000166,-11.691174182084664
-0.025700000000000056,-11.778886282676295
-0.026700000000000168,-11.86659838326793
-0.027700000000000058,-11.996751822855511
-0.02870000000000017,-12.084463923447142
-0.02970000000000006,-12.170761312738911
-0.03070000000000017,-12.258473413330542
-0.03170000000000006,-12.346185513922174
-0.03270000000000017,-12.432482903213943
-0.03370000000000006,-12.476338953509758
-0.034700000000000175,-12.56405105410139
-0.035700000000000065,-12.607907104397206
-0.03670000000000018,-12.651763154693022
-0.03770000000000007,-12.781916594280606
-0.03870000000000018,-12.825772644576423
-0.03970000000000007,-12.913484745168056
-0.04070000000000018,-12.99978213445982
-0.04170000000000007,-13.043638184755638
-0.04270000000000018,-13.087494235051453
-0.04370000000000007,-13.13135028534727
-0.044700000000000184,-13.217647674639037
-0.045700000000000074,-13.217647674639037
-0.046700000000000186,-13.261503724934855
-0.047700000000000076,-13.30535977523067
-0.04870000000000019,-13.349215825526485
-0.04970000000000008,-13.436927926118118
-0.05070000000000019,-13.47936926511407
-0.05170000000000008,-13.523225315409885
-0.05270000000000019,-13.567081365705702
-0.05370000000000008,-13.610937416001518
-0.05470000000000019,-13.610937416001518
-0.05570000000000008,-13.654793466297335
-0.056700000000000195,-13.698649516593148
-0.057700000000000085,-13.698649516593148
-0.058700000000000196,-13.698649516593148
-0.059700000000000086,-13.741090855589102
-0.0607000000000002,-13.784946905884919
-0.06170000000000009,-13.828802956180734
-0.0627000000000002,-13.872659006476551
-0.06370000000000009,-13.916515056772363
-0.0647000000000002,-13.960371107068182
-0.06570000000000009,-14.002812446064135
-0.0667000000000002,-13.960371107068182
-0.0677000000000001,-14.002812446064135
-0.0687000000000002,-14.002812446064135
-0.0697000000000001,-14.046668496359947
-0.07070000000000021,-14.090524546655764
-0.0717000000000001,-14.090524546655764
-0.07270000000000021,-14.13438059695158
-0.0737000000000001,-14.175407224647667
-0.07470000000000021,-14.175407224647667
-0.0757000000000001,-14.175407224647667
-0.07670000000000021,-14.217848563643619
-0.0777000000000001,-14.217848563643619
-0.07870000000000021,-14.217848563643619
-0.0797000000000001,-14.26028990263957
-0.08070000000000022,-14.26028990263957
-0.0817000000000001,-14.30273124163552
-0.08270000000000022,-14.30273124163552
-0.08370000000000011,-14.345172580631472
-0.08470000000000022,-14.345172580631472
-0.08570000000000011,-14.401761032626075
-0.08670000000000022,-14.401761032626075
-0.08770000000000011,-14.401761032626075
-0.08870000000000022,-14.444202371622024
-0.08970000000000011,-14.444202371622024
-0.09070000000000022,-14.486643710617974
-0.09170000000000011,-14.486643710617974
-0.09270000000000023,-14.486643710617974
-0.09370000000000012,-14.486643710617974
-0.09470000000000023,-14.529085049613924
-0.09570000000000012,-14.529085049613924
-0.09670000000000023,-14.57152638860988
-0.09770000000000012,-14.57152638860988
-0.09870000000000023,-14.57152638860988
-0.09970000000000012,-14.61396772760583
-0.10070000000000023,-14.65640906660178
-0.10170000000000012,-14.61396772760583
-0.10270000000000024,-14.65640906660178
-0.10370000000000013,-14.65640906660178
-0.10470000000000024,-14.65640906660178
-0.10570000000000013,-14.65640906660178
-0.10670000000000024,-14.69885040559773
-0.10770000000000013,-14.69885040559773
-0.10870000000000024,-14.69885040559773
-0.10970000000000013,-14.741291744593681
-0.11070000000000024,-14.741291744593681
-0.11170000000000013,-14.783733083589633
-0.11270000000000002,-14.783733083589633
-0.11370000000000013,-14.741291744593681
-0.11470000000000002,-14.783733083589633
-0.11570000000000014,-14.783733083589633
-0.11670000000000003,-14.783733083589633
-0.11770000000000014,-14.783733083589633
-0.11870000000000003,-14.783733083589633
-0.11970000000000014,-14.826174422585586
-0.12070000000000003,-14.826174422585586
-0.12170000000000014,-14.868615761581536
-0.12270000000000003,-14.868615761581536
-0.12370000000000014,-14.925204213576137
-0.12470000000000003,-14.925204213576137
-0.12570000000000014,-14.925204213576137
-0.12670000000000003,-14.925204213576137
-0.12770000000000015,-14.925204213576137
-0.12870000000000004,-14.967645552572087
-0.12970000000000015,-14.967645552572087
-0.13070000000000004,-15.01008689156804
-0.13170000000000015,-15.01008689156804
-0.13270000000000004,-15.05252823056399
-0.13370000000000015,-15.094969569559943
-0.13470000000000004,-15.094969569559943
-0.13570000000000015,-15.094969569559943
-0.13670000000000004,-15.094969569559943
-0.13770000000000016,-15.094969569559943
-0.13870000000000005,-15.137410908555893
-0.13970000000000016,-15.137410908555893
-0.14070000000000005,-15.179852247551842
-0.14170000000000016,-15.179852247551842
-0.14270000000000005,-15.222293586547794
-0.14370000000000016,-15.222293586547794
-0.14470000000000005,-15.222293586547794
-0.14570000000000016,-15.264734925543747
-0.14670000000000005,-15.264734925543747
-0.14770000000000016,-15.264734925543747
-0.14870000000000005,-15.307176264539699
-0.14970000000000017,-15.307176264539699
-0.15070000000000006,-15.307176264539699
-0.15170000000000017,-15.349617603535648
-0.15270000000000006,-15.349617603535648
-0.15370000000000017,-15.349617603535648
-0.15470000000000006,-15.3920589425316
-0.15570000000000017,-15.3920589425316
-0.15670000000000006,-15.3920589425316
-0.15770000000000017,-15.448647394526201
-0.15870000000000006,-15.448647394526201
-0.15970000000000018,-15.448647394526201
-0.16070000000000007,-15.491088733522153
-0.16170000000000018,-15.491088733522153
-0.16270000000000007,-15.491088733522153
-0.16370000000000018,-15.533530072518102
-0.16470000000000007,-15.533530072518102
-0.16570000000000018,-15.575971411514052
-0.16670000000000007,-15.575971411514052
-0.16770000000000018,-15.618412750510005
-0.16870000000000007,-15.618412750510005
-0.16970000000000018,-15.618412750510005
-0.17070000000000007,-15.660854089505953
-0.17170000000000019,-15.660854089505953
-0.17270000000000008,-15.70329542850191
-0.1737000000000002,-15.70329542850191
-0.17470000000000008,-15.70329542850191
-0.1757000000000002,-15.70329542850191
-0.17670000000000008,-15.74573676749786
-0.1777000000000002,-15.78817810649381
-0.17870000000000008,-15.78817810649381
-0.1797000000000002,-15.78817810649381
-0.18070000000000008,-15.830619445489761
-0.1817000000000002,-15.87306078448571
-0.18270000000000008,-15.87306078448571
-0.1837000000000002,-15.87306078448571
-0.1847000000000001,-15.87306078448571
-0.1857000000000002,-15.91550212348166
-0.1867000000000001,-15.91550212348166
-0.1877000000000002,-15.972090575476265
-0.1887000000000001,-15.972090575476265
-0.1897000000000002,-16.014531914472215
-0.1907000000000001,-16.014531914472215
-0.1917000000000001,-16.014531914472215
-0.19269999999999998,-16.056973253468165
-0.1937000000000001,-16.099414592464115
-0.19469999999999998,-16.099414592464115
-0.1957000000000001,-16.099414592464115
-0.19669999999999999,-16.099414592464115
-0.1977000000000001,-16.141855931460068
-0.1987,-16.141855931460068
-0.1997000000000001,-16.141855931460068
-0.2007,-16.184297270456018
-0.2017000000000001,-16.184297270456018
-0.2027,-16.184297270456018
-0.2037000000000001,-16.269179948447924
-0.2047,-16.269179948447924
-0.2057000000000001,-16.311621287443874
-0.2067,-16.311621287443874
-0.2077000000000001,-16.354062626439823
-0.2087,-16.354062626439823
-0.2097000000000001,-16.354062626439823
-0.2107,-16.396503965435777
-0.2117000000000001,-16.396503965435777
-0.2127,-16.438945304431726
-0.2137000000000001,-16.495533756426326
-0.2147,-16.53797509542228
-0.2157000000000001,-16.580416434418233
-0.2167,-16.622857773414182
-0.21770000000000012,-16.665299112410132
-0.2187,-16.665299112410132
-0.21970000000000012,-16.665299112410132
-0.2207,-16.70774045140608
-0.22170000000000012,-16.70774045140608
-0.2227,-16.70774045140608
-0.22370000000000012,-16.750181790402035
-0.2247,-16.792623129397985
-0.22570000000000012,-16.835064468393938
-0.2267,-16.835064468393938
-0.22770000000000012,-16.877505807389888
-0.22870000000000001,-16.919947146385837
-0.22970000000000013,-16.919947146385837
-0.23070000000000002,-16.962388485381787
-0.23170000000000013,-16.962388485381787
-0.23270000000000002,-16.962388485381787
-0.23370000000000013,-17.018976937376394
-0.23470000000000002,-17.061418276372343
-0.23570000000000013,-17.103859615368293
-0.23670000000000002,-17.146300954364243
-0.2376999999999999,-17.188742293360193
-0.23870000000000002,-17.231183632356142
-0.2396999999999999,-17.2736249713521
-0.24070000000000003,-17.2736249713521
-0.24169999999999991,-17.316066310348052
-0.24270000000000003,-17.358507649344002
-0.24369999999999992,-17.40094898833995
-0.24470000000000003,-17.40094898833995
-0.24569999999999992,-17.4433903273359
-0.24670000000000003,-17.48583166633185
-0.24769999999999992,-17.542420118326454
-0.24870000000000003,-17.584861457322408
-0.24969999999999992,-17.669744135314307
-0.25070000000000003,-17.71218547431026
-0.2516999999999999,-17.75462681330621
-0.25270000000000004,-17.797068152302163
-0.2536999999999999,-17.839509491298113
-0.25470000000000004,-17.839509491298113
-0.2556999999999999,-17.881950830294063
-0.25670000000000004,-17.966833508285966
-0.25769999999999993,-18.009274847281915
-0.25870000000000004,-18.06586329927652
-0.25969999999999993,-18.15074597726842
-0.26070000000000004,-18.19318731626437
-0.26169999999999993,-18.23562865526032
-0.26270000000000004,-18.27806999425627
-0.26369999999999993,-18.320511333252224
-0.26470000000000005,-18.362952672248177
-0.26569999999999994,-18.40539401124413
-0.26670000000000005,-18.44783535024008
-0.26769999999999994,-18.49027668923603
-0.26870000000000005,-18.53271802823198
-0.26969999999999994,-18.631747819222536
-0.27070000000000005,-18.716630497214435
-0.27169999999999994,-18.759071836210385
-0.27270000000000005,-18.843954514202288
-0.27369999999999994,-18.88639585319824
-0.27470000000000006,-18.92883719219419
-0.27569999999999995,-19.01371987018609
-0.27670000000000006,-19.056161209182044
-0.27769999999999995,-19.155191000172596
-0.27870000000000006,-19.197632339168546
-0.27969999999999995,-19.28251501716045
-0.28070000000000006,-19.367397695152352
-0.28169999999999995,-19.409839034148305
-0.28270000000000006,-19.537163051136158
-0.28369999999999995,-19.579604390132108
-0.28470000000000006,-19.678634181122664
-0.28569999999999995,-19.721075520118614
-0.28670000000000007,-19.848399537106463
-0.28769999999999996,-19.890840876102416
-0.28870000000000007,-19.97572355409432
-0.28969999999999996,-20.01816489309027
-0.29070000000000007,-20.10304757108217
-0.29169999999999996,-20.202077362072725
-0.29270000000000007,-20.286960040064624
-0.29369999999999996,-20.371842718056527
-0.2947000000000001,-20.499166735044383
-0.29569999999999996,-20.541608074040333
-0.2967000000000001,-20.683079204026836
-0.29769999999999996,-20.76796188201874
-0.2987000000000001,-20.85284456001064
-0.29969999999999997,-20.93772723800254
-0.3007000000000001,-20.980168576998494
-0.30169999999999997,-21.065051254990397
-0.3027000000000001,-21.2065223849769
-0.30369999999999997,-21.291405062968803
-0.3047000000000001,-21.418729079956652
-0.30569999999999997,-21.54605309694451
-0.3067000000000001,-21.63093577493641
-0.3077,-21.772406904922917
-0.3087000000000001,-21.857289582914817
-0.3097,-21.98461359990267
-0.3107000000000001,-22.069496277894572
-0.3117,-22.15437895588647
-0.3127000000000001,-22.295850085872978
-0.3137,-22.42317410286083
-0.3147000000000001,-22.550498119848687
-0.3157,-22.72026347583249
-0.3167000000000001,-22.861734605818995
-0.3177,-22.989058622806844
-0.3187000000000001,-23.073941300798747
-0.3197,-23.2012653177866
-0.3207000000000001,-23.385177786769056
-0.3217,-23.51250180375691
-0.3227000000000001,-23.639825820744765
-0.3237,-23.767149837732617
-0.3247000000000001,-23.951062306715073
-0.3257,-24.120827662698876
-0.3267000000000001,-24.24815167968673
-0.3277,-24.389622809673234
-0.3287000000000001,-24.516946826661083
-0.3297,-24.686712182644893
-0.3307000000000001,-24.814036199632742
-0.3317,-24.997948668615198
-0.3327000000000001,-25.167714024599
-0.3337,-25.337479380582806
-0.3347000000000001,-25.521391849565262
-0.3357,-25.648715866553115
-0.3367000000000001,-25.86092256153287
-0.3377,-26.002393691519377
-0.3387000000000001,-26.17215904750318
-0.3397,-26.29948306449103
-0.3407000000000001,-26.483395533473487
-0.3417,-26.65316088945729
-0.3427000000000001,-26.822926245441096
-0.3437,-27.00683871442355
-0.3447000000000001,-27.219045409403304
-0.3457,-27.38881076538711
-0.3467000000000001,-27.572723234369565
-0.3477,-27.78492992934932
-0.3487000000000001,-27.954695285333123
-0.3497,-28.13860775431558
-0.3507000000000001,-28.308373110299385
-0.3517,-28.478138466283188
-0.3527000000000001,-28.704492274261593
-0.3537,-28.91669896924135
-0.3547000000000001,-29.14305277721976
-0.3557,-29.35525947219951
-0.35670000000000013,-29.525024828183312
-0.3577,-29.751378636161718
-0.35870000000000013,-29.96358533114148
-0.3597,-30.189939139119886
-0.36070000000000013,-30.402145834099635
-0.3617,-30.571911190083444
-0.3626999999999999,-30.79826499806185
-0.3637,-31.010471693041605
-0.3646999999999999,-31.23682550102001
-0.3657,-31.449032195999767
-0.3666999999999999,-31.717827342974125
-0.3677,-31.930034037953877
-0.3686999999999999,-32.14224073293363
-0.36970000000000003,-32.41103587990799
-0.3706999999999999,-32.62324257488775
-0.37170000000000003,-32.84959638286615
-0.3726999999999999,-33.06180307784591
-0.37370000000000003,-33.288156885824314
-0.3746999999999999,-33.54280491980002
-0.37570000000000003,-33.81160006677438
-0.3766999999999999,-34.06624810075008
-0.37770000000000004,-34.33504324772444
-0.3786999999999999,-34.58969128170015
-0.37970000000000004,-34.90092776767045
-0.3806999999999999,-35.11313446265021
-0.38170000000000004,-35.38192960962457
-0.38269999999999993,-35.679018982596226
-0.38370000000000004,-35.94781412957058
-0.38469999999999993,-36.244903502542236
-0.38570000000000004,-36.5136986495166
-0.38669999999999993,-36.81078802248826
-0.38770000000000004,-37.122024508458566
-0.38869999999999993,-37.376672542434264
-0.38970000000000005,-37.687909028404576
-0.39069999999999994,-37.94255706238028
-0.39170000000000005,-38.253793548350586
-0.39269999999999994,-38.5650300343209
-0.39370000000000005,-38.81967806829661
-0.39469999999999994,-39.173355893262865
-0.39570000000000005,-39.47044526623452
-0.39669999999999994,-39.78168175220483
-0.39770000000000005,-40.092918238175145
-0.39869999999999994,-40.3900076111468
-0.39970000000000006,-40.65880275812115
-0.40069999999999995,-40.95589213109281
-0.40170000000000006,-41.30956995605907
-0.40269999999999995,-41.606659329030734
-0.40370000000000006,-41.91789581500104
-0.40469999999999995,-42.2715736399673
-0.40570000000000006,-42.568663012938956
-0.40669999999999995,-42.92234083790521
-0.40770000000000006,-43.27601866287147
-0.40869999999999995,-43.57310803584313
-0.40970000000000006,-43.88434452181344
-0.41069999999999995,-44.223875233781044
-0.41170000000000007,-44.4926703807554
-0.41269999999999996,-44.88878954471762
-0.41370000000000007,-45.18587891768927
-0.41469999999999996,-45.581998081651484
-0.41570000000000007,-45.93567590661774
-0.41669999999999996,-46.3176479575813
-0.41770000000000007,-46.67132578254756
-0.41869999999999996,-47.02500360751382
-0.4197000000000001,-47.36453431948143
-0.42069999999999996,-47.71821214444768
-0.4217000000000001,-48.029448630417996
-0.42269999999999996,-48.36897934238561
-0.4237000000000001,-48.72265716735186
-0.42469999999999997,-49.118776331314066
-0.4257000000000001,-49.557336834272235
-0.42669999999999997,-49.89686754623985
-0.4277000000000001,-50.335428049198
-0.42869999999999997,-50.68910587416426
-0.4297000000000001,-51.071077925127824
-0.43069999999999997,-51.46719708909004
-0.4317000000000001,-51.82087491405629
-0.4327,-52.17455273902255
-0.4337000000000001,-52.514083450990164
-0.4347,-52.91020261495237
-0.4357000000000001,-53.30632177891458
-0.4367,-53.74488228187274
-0.4377000000000001,-54.16929567183226
-0.4387,-54.56541483579447
-0.4397000000000001,-54.961533999756675
-0.4407,-55.31521182472294
-0.4417000000000001,-55.6971838756865
-0.4427,-56.05086170065276
-0.4437000000000001,-56.404539525619015
-0.4447,-56.786511576582576
-0.4457000000000001,-57.22507207954074
-0.4467,-57.62119124350295
-0.4477000000000001,-58.10219308545706
-0.4487,-58.583194927411164
-0.4497000000000001,-59.02175543036933
-0.4507,-59.44616882032884
-0.4517000000000001,-59.884729323287
-0.4527,-60.28084848724921
-0.4537000000000001,-60.67696765121143
-0.4547,-61.07308681517363
-0.4557000000000001,-61.49750020513315
-0.4567,-61.936060708091304
-0.4577000000000001,-62.41706255004542
-0.4587,-62.89806439199953
-0.4597000000000001,-63.37906623395363
-0.4607,-63.81762673691181
-0.4617000000000001,-64.29862857886593
-0.4627,-64.77963042082003
-0.4637000000000001,-65.20404381077954
-0.4647,-65.64260431373769
-0.4657000000000001,-66.03872347769992
-0.4667,-66.47728398065809
-0.4677000000000001,-66.91584448361623
-0.4687,-67.39684632557035
-0.4697000000000001,-67.86370105452582
-0.4707,-68.34470289647993
-0.4717000000000001,-68.86814607742998
-0.4727,-69.39158925838004
-0.4737000000000001,-69.91503243933012
-0.4747,-70.39603428128423
-0.4757000000000001,-70.8345947842424
-0.4767,-71.2307139482046
-0.4777000000000001,-71.66927445116276
-0.4787,-72.15027629311687
-0.4797000000000001,-72.57468968307639
-0.4807,-73.0556915250305
-0.48170000000000013,-73.57913470598055
-0.4827,-74.14501922592657
-0.48370000000000013,-74.72505085887124
-0.4847,-75.2484940398213
-0.48570000000000013,-75.77193722077136
-0.4867,-75.4182593958051
-0.48570000000000013,-73.72060583596706
-0.4847,-72.32004164910067
-0.48370000000000013,-71.10338993121674
-0.4827,-70.05650356931662
-0.48170000000000013,-69.0096172074165
-0.4807,-68.13249620150016
-0.4797000000000001,-67.25537519558385
-0.4787,-66.51972531965401
-0.4777000000000001,-65.7274869917296
-0.4767,-64.94939577680383
-0.4757000000000001,-64.15715744887942
-0.4747,-63.37906623395363
-0.4737000000000001,-62.58682790602922
-0.4727,-61.851178030099405
-0.4717000000000001,-61.07308681517363
-0.4707,-60.32328982624517
-0.4697000000000001,-59.6300812893113
-0.4687,-58.97931409137338
-0.4677000000000001,-58.35684111943277
-0.4667,-57.70607392149485
-0.4657000000000001,-57.05530672355693
