Potential V vs RHE, Current mA cm-2
0.013299999999999867,-0.6128529351015338
0.012299999999999978,-1.9650339955125358
0.011299999999999866,-2.794054817233447
0.010299999999999976,-3.317497998183511
0.009299999999999864,-3.6655169779503103
0.008299999999999974,-3.927238568425342
0.007299999999999862,-4.102662769608606
0.006299999999999972,-4.276672259492005
0.00529999999999986,-4.406825699079589
0.0042999999999999705,-4.582249900262854
0.0032999999999998586,-4.712403339850438
0.0022999999999999687,-4.756259390146253
0.0012999999999998568,-4.800115440442069
0.00029999999999996696,-4.756259390146253
-0.000700000000000145,-4.756259390146253
-0.0017000000000000348,-4.712403339850438
-0.0027000000000001467,-4.756259390146253
-0.0037000000000000366,-4.800115440442069
-0.0047000000000001485,-4.887827541033701
-0.005700000000000038,-4.9302688800296535
-0.00670000000000015,-5.017980980621284
-0.00770000000000004,-5.0618370309171015
-0.008700000000000152,-5.017980980621284
-0.009700000000000042,-4.974124930325469
-0.010700000000000154,-4.974124930325469
-0.011700000000000044,-4.9302688800296535
-0.012700000000000156,-4.9302688800296535
-0.013700000000000045,-4.9302688800296535
-0.014700000000000157,-4.974124930325469
-0.015700000000000047,-5.0618370309171015
-0.01670000000000016,-5.105693081212917
-0.01770000000000005,-5.105693081212917
-0.01870000000000016,-5.105693081212917
-0.01970000000000005,-5.0618370309171015
-0.020700000000000163,-5.017980980621284
-0.021700000000000053,-4.974124930325469
-0.022700000000000164,-4.974124930325469
-0.023700000000000054,-5.017980980621284
-0.024700000000000166,-5.0618370309171015
-0.025700000000000056,-5.149549131508733
-0.026700000000000168,-5.191990470504685
-0.027700000000000058,-5.191990470504685
-0.02870000000000017,-5.191990470504685
-0.02970000000000006,-5.149549131508733
-0.03070000000000017,-5.105693081212917
-0.03170000000000006,-5.017980980621284
-0.03270000000000017,-5.017980980621284
-0.03370000000000006,-5.0618370309171015
-0.034700000000000175,-5.105693081212917
-0.035700000000000065,-5.149549131508733
-0.03670000000000018,-5.235846520800501
-0.03770000000000007,-5.235846520800501
-0.03870000000000018,-5.235846520800501
-0.03970000000000007,-5.149549131508733
-0.04070000000000018,-5.105693081212917
-0.04170000000000007,-5.0618370309171015
-0.04270000000000018,-5.0618370309171015
-0.04370000000000007,-5.0618370309171015
-0.044700000000000184,-5.105693081212917
-0.045700000000000074,-5.191990470504685
-0.046700000000000186,-5.235846520800501
-0.047700000000000076,-5.235846520800501
-0.04870000000000019,-5.235846520800501
-0.04970000000000008,-5.191990470504685
-0.05070000000000019,-5.149549131508733
-0.05170000000000008,-5.149549131508733
-0.05270000000000019,-5.105693081212917
-0.05370000000000008,-5.149549131508733
-0.05470000000000019,-5.191990470504685
-0.05570000000000008,-5.235846520800501
-0.056700000000000195,-5.279702571096316
-0.057700000000000085,-5.323558621392133
-0.058700000000000196,-5.279702571096316
-0.059700000000000086,-5.235846520800501
-0.0607000000000002,-5.191990470504685
-0.06170000000000009,-5.149549131508733
-0.0627000000000002,-5.105693081212917
-0.06370000000000009,-5.105693081212917
-0.0647000000000002,-5.191990470504685
-0.06570000000000009,-5.235846520800501
-0.0667000000000002,-5.279702571096316
-0.0677000000000001,-5.323558621392133
-0.0687000000000002,-5.279702571096316
-0.0697000000000001,-5.235846520800501
-0.07070000000000021,-5.235846520800501
-0.0717000000000001,-5.149549131508733
-0.07270000000000021,-5.149549131508733
-0.0737000000000001,-5.149549131508733
-0.07470000000000021,-5.191990470504685
-0.0757000000000001,-5.235846520800501
-0.07670000000000021,-5.323558621392133
-0.0777000000000001,-5.279702571096316
-0.07870000000000021,-5.279702571096316
-0.0797000000000001,-5.235846520800501
-0.08070000000000022,-5.191990470504685
-0.0817000000000001,-5.105693081212917
-0.08270000000000022,-5.105693081212917
-0.08370000000000011,-5.149549131508733
-0.08470000000000022,-5.191990470504685
-0.08570000000000011,-5.235846520800501
-0.08670000000000022,-5.323558621392133
-0.08770000000000011,-5.323558621392133
-0.08870000000000022,-5.323558621392133
-0.08970000000000011,-5.235846520800501
-0.09070000000000022,-5.191990470504685
-0.09170000000000011,-5.149549131508733
-0.09270000000000023,-5.149549131508733
-0.09370000000000012,-5.149549131508733
-0.09470000000000023,-5.191990470504685
-0.09570000000000012,-5.235846520800501
-0.09670000000000023,-5.279702571096316
-0.09770000000000012,-5.323558621392133
-0.09870000000000023,-5.279702571096316
-0.09970000000000012,-5.191990470504685
-0.10070000000000023,-5.149549131508733
-0.10170000000000012,-5.105693081212917
-0.10270000000000024,-5.105693081212917
-0.10370000000000013,-5.105693081212917
-0.10470000000000024,-5.149549131508733
-0.10570000000000013,-5.191990470504685
-0.10670000000000024,-5.279702571096316
-0.10770000000000013,-5.279702571096316
-0.10870000000000024,-5.235846520800501
-0.10970000000000013,-5.191990470504685
-0.11070000000000024,-5.149549131508733
-0.11170000000000013,-5.105693081212917
-0.11270000000000002,-5.105693081212917
-0.11370000000000013,-5.105693081212917
-0.11470000000000002,-5.149549131508733
-0.11570000000000014,-5.191990470504685
-0.11670000000000003,-5.279702571096316
-0.11770000000000014,-5.279702571096316
-0.11870000000000003,-5.279702571096316
-0.11970000000000014,-5.191990470504685
-0.12070000000000003,-5.149549131508733
-0.12170000000000014,-5.105693081212917
-0.12270000000000003,-5.105693081212917
-0.12370000000000014,-5.105693081212917
-0.12470000000000003,-5.191990470504685
-0.12570000000000014,-5.235846520800501
-0.12670000000000003,-5.279702571096316
-0.12770000000000015,-5.279702571096316
-0.12870000000000004,-5.235846520800501
-0.12970000000000015,-5.191990470504685
-0.13070000000000004,-5.149549131508733
-0.13170000000000015,-5.0618370309171015
-0.13270000000000004,-5.0618370309171015
-0.13370000000000015,-5.105693081212917
-0.13470000000000004,-5.105693081212917
-0.13570000000000015,-5.191990470504685
-0.13670000000000004,-5.235846520800501
-0.13770000000000016,-5.235846520800501
-0.13870000000000005,-5.235846520800501
-0.13970000000000016,-5.191990470504685
-0.14070000000000005,-5.149549131508733
-0.14170000000000016,-5.105693081212917
-0.14270000000000005,-5.105693081212917
-0.14370000000000016,-5.105693081212917
-0.14470000000000005,-5.149549131508733
-0.14570000000000016,-5.191990470504685
-0.14670000000000005,-5.235846520800501
-0.14770000000000016,-5.279702571096316
-0.14870000000000005,-5.235846520800501
-0.14970000000000017,-5.191990470504685
-0.15070000000000006,-5.149549131508733
-0.15170000000000017,-5.0618370309171015
-0.15270000000000006,-5.0618370309171015
-0.15370000000000017,-5.105693081212917
-0.15470000000000006,-5.149549131508733
-0.15570000000000017,-5.191990470504685
-0.15670000000000006,-5.235846520800501
-0.15770000000000017,-5.235846520800501
-0.15870000000000006,-5.235846520800501
-0.15970000000000018,-5.149549131508733
-0.16070000000000007,-5.105693081212917
-0.16170000000000018,-5.0618370309171015
-0.16270000000000007,-5.0618370309171015
-0.16370000000000018,-5.0618370309171015
-0.16470000000000007,-5.149549131508733
-0.16570000000000018,-5.191990470504685
-0.16670000000000007,-5.235846520800501
-0.16770000000000018,-5.235846520800501
-0.16870000000000007,-5.235846520800501
-0.16970000000000018,-5.191990470504685
-0.17070000000000007,-5.149549131508733
-0.17170000000000019,-5.105693081212917
-0.17270000000000008,-5.105693081212917
-0.1737000000000002,-5.105693081212917
-0.17470000000000008,-5.191990470504685
-0.1757000000000002,-5.235846520800501
-0.17670000000000008,-5.323558621392133
-0.1777000000000002,-5.323558621392133
-0.17870000000000008,-5.235846520800501
-0.1797000000000002,-5.235846520800501
-0.18070000000000008,-5.191990470504685
-0.1817000000000002,-5.105693081212917
-0.18270000000000008,-5.105693081212917
-0.1837000000000002,-5.105693081212917
-0.1847000000000001,-5.191990470504685
-0.1857000000000002,-5.235846520800501
-0.1867000000000001,-5.279702571096316
-0.1877000000000002,-5.279702571096316
-0.1887000000000001,-5.279702571096316
-0.1897000000000002,-5.235846520800501
-0.1907000000000001,-5.191990470504685
-0.1917000000000001,-5.105693081212917
-0.19269999999999998,-5.105693081212917
-0.1937000000000001,-5.149549131508733
-0.19469999999999998,-5.191990470504685
-0.1957000000000001,-5.279702571096316
-0.19669999999999999,-5.323558621392133
-0.1977000000000001,-5.323558621392133
-0.1987,-5.323558621392133
-0.1997000000000001,-5.279702571096316
-0.2007,-5.235846520800501
-0.2017000000000001,-5.191990470504685
-0.2027,-5.149549131508733
-0.2037000000000001,-5.191990470504685
-0.2047,-5.235846520800501
-0.2057000000000001,-5.279702571096316
-0.2067,-5.323558621392133
-0.2077000000000001,-5.367414671687949
-0.2087,-5.323558621392133
-0.2097000000000001,-5.279702571096316
-0.2107,-5.235846520800501
-0.2117000000000001,-5.191990470504685
-0.2127,-5.191990470504685
-0.2137000000000001,-5.235846520800501
-0.2147,-5.279702571096316
-0.2157000000000001,-5.367414671687949
-0.2167,-5.411270721983764
-0.21770000000000012,-5.411270721983764
-0.2187,-5.367414671687949
-0.21970000000000012,-5.323558621392133
-0.2207,-5.279702571096316
-0.22170000000000012,-5.235846520800501
-0.2227,-5.235846520800501
-0.22370000000000012,-5.235846520800501
-0.2247,-5.323558621392133
-0.22570000000000012,-5.367414671687949
-0.2267,-5.411270721983764
-0.22770000000000012,-5.453712060979717
-0.22870000000000001,-5.411270721983764
-0.22970000000000013,-5.367414671687949
-0.23070000000000002,-5.323558621392133
-0.23170000000000013,-5.279702571096316
-0.23270000000000002,-5.279702571096316
-0.23370000000000013,-5.279702571096316
-0.23470000000000002,-5.323558621392133
-0.23570000000000013,-5.411270721983764
-0.23670000000000002,-5.453712060979717
-0.2376999999999999,-5.453712060979717
-0.23870000000000002,-5.453712060979717
-0.2396999999999999,-5.411270721983764
-0.24070000000000003,-5.367414671687949
-0.24169999999999991,-5.323558621392133
-0.24270000000000003,-5.279702571096316
-0.24369999999999992,-5.323558621392133
-0.24470000000000003,-5.411270721983764
-0.24569999999999992,-5.453712060979717
-0.24670000000000003,-5.497568111275533
-0.24769999999999992,-5.5414241615713475
-0.24870000000000003,-5.5414241615713475
-0.24969999999999992,-5.497568111275533
-0.25070000000000003,-5.411270721983764
-0.2516999999999999,-5.411270721983764
-0.25270000000000004,-5.411270721983764
-0.2536999999999999,-5.411270721983764
-0.25470000000000004,-5.453712060979717
-0.2556999999999999,-5.5414241615713475
-0.25670000000000004,-5.585280211867165
-0.25769999999999993,-5.585280211867165
-0.25870000000000004,-5.585280211867165
-0.25969999999999993,-5.5414241615713475
-0.26070000000000004,-5.497568111275533
-0.26169999999999993,-5.453712060979717
-0.26270000000000004,-5.453712060979717
-0.26369999999999993,-5.497568111275533
-0.26470000000000005,-5.5414241615713475
-0.26569999999999994,-5.585280211867165
-0.26670000000000005,-5.672992312458796
-0.26769999999999994,-5.715433651454749
-0.26870000000000005,-5.672992312458796
-0.26969999999999994,-5.629136262162981
-0.27070000000000005,-5.585280211867165
-0.27169999999999994,-5.5414241615713475
-0.27270000000000005,-5.5414241615713475
-0.27369999999999994,-5.585280211867165
-0.27470000000000006,-5.629136262162981
-0.27569999999999995,-5.715433651454749
-0.27670000000000006,-5.759289701750564
-0.27769999999999995,-5.80314575204638
-0.27870000000000006,-5.80314575204638
-0.27969999999999995,-5.759289701750564
-0.28070000000000006,-5.715433651454749
-0.28169999999999995,-5.672992312458796
-0.28270000000000006,-5.672992312458796
-0.28369999999999995,-5.715433651454749
-0.28470000000000006,-5.80314575204638
-0.28569999999999995,-5.847001802342197
-0.28670000000000007,-5.890857852638012
-0.28769999999999996,-5.9347139029338285
-0.28870000000000007,-5.9347139029338285
-0.28969999999999996,-5.890857852638012
-0.29070000000000007,-5.847001802342197
-0.29169999999999996,-5.80314575204638
-0.29270000000000007,-5.847001802342197
-0.29369999999999996,-5.847001802342197
-0.2947000000000001,-5.9347139029338285
-0.29569999999999996,-5.977155241929781
-0.2967000000000001,-6.064867342521412
-0.29769999999999996,-6.108723392817228
-0.2987000000000001,-6.108723392817228
-0.29969999999999997,-6.064867342521412
-0.3007000000000001,-6.021011292225596
-0.30169999999999997,-6.021011292225596
-0.3027000000000001,-6.021011292225596
-0.30369999999999997,-6.064867342521412
-0.3047000000000001,-6.152579443113044
-0.30569999999999997,-6.196435493408861
-0.3067000000000001,-6.282732882700628
-0.3077,-6.326588932996443
-0.3087000000000001,-6.326588932996443
-0.3097,-6.282732882700628
-0.3107000000000001,-6.282732882700628
-0.3117,-6.238876832404812
-0.3127000000000001,-6.238876832404812
-0.3137,-6.326588932996443
-0.3147000000000001,-6.37044498329226
-0.3157,-6.458157083883892
-0.3167000000000001,-6.54445447317566
-0.3177,-6.588310523471475
-0.3187000000000001,-6.588310523471475
-0.3197,-6.54445447317566
-0.3207000000000001,-6.54445447317566
-0.3217,-6.54445447317566
-0.3227000000000001,-6.54445447317566
-0.3237,-6.632166573767292
-0.3247000000000001,-6.719878674358924
-0.3257,-6.762320013354876
-0.3267000000000001,-6.893888164242324
-0.3277,-6.93774421453814
-0.3287000000000001,-6.93774421453814
-0.3297,-6.93774421453814
-0.3307000000000001,-6.93774421453814
-0.3317,-6.93774421453814
-0.3327000000000001,-6.93774421453814
-0.3337,-6.981600264833956
-0.3347000000000001,-7.111753704421539
-0.3357,-7.199465805013171
-0.3367000000000001,-7.28576319430494
-0.3377,-7.37347529489657
-0.3387000000000001,-7.37347529489657
-0.3397,-7.37347529489657
-0.3407000000000001,-7.37347529489657
-0.3417,-7.37347529489657
-0.3427000000000001,-7.4173313451923875
-0.3437,-7.461187395488204
-0.3447000000000001,-7.591340835075788
-0.3457,-7.679052935667419
-0.3467000000000001,-7.809206375255003
-0.3477,-7.896918475846635
-0.3487000000000001,-7.896918475846635
-0.3497,-7.896918475846635
-0.3507000000000001,-7.896918475846635
-0.3517,-7.896918475846635
-0.3527000000000001,-7.940774526142452
-0.3537,-8.027071915434218
-0.3547000000000001,-8.11478401602585
-0.3557,-8.246352166913299
-0.35670000000000013,-8.332649556205066
-0.3577,-8.464217707092514
-0.35870000000000013,-8.508073757388331
-0.3597,-8.508073757388331
-0.36070000000000013,-8.55051509638428
-0.3617,-8.55051509638428
-0.3626999999999999,-8.594371146680096
-0.3637,-8.725939297567548
-0.3646999999999999,-8.812236686859313
-0.3657,-8.943804837746763
-0.3666999999999999,-9.073958277334345
-0.3677,-9.161670377925978
-0.3686999999999999,-9.24938247851761
-0.36970000000000003,-9.24938247851761
-0.3706999999999999,-9.293238528813426
-0.37170000000000003,-9.293238528813426
-0.3726999999999999,-9.379535918105192
-0.37370000000000003,-9.467248018696827
-0.3746999999999999,-9.641257508580225
-0.37570000000000003,-9.772825659467674
-0.3766999999999999,-9.902979099055257
-0.37770000000000004,-9.99069119964689
-0.3786999999999999,-10.078403300238522
-0.37970000000000004,-10.120844639234473
-0.3806999999999999,-10.164700689530287
-0.38170000000000004,-10.208556739826104
-0.38269999999999993,-10.296268840417738
-0.38370000000000004,-10.382566229709504
-0.38469999999999993,-10.557990430892769
-0.38570000000000004,-10.688143870480351
-0.38669999999999993,-10.863568071663616
-0.38770000000000004,-10.993721511251199
-0.38869999999999993,-11.081433611842833
-0.38970000000000005,-11.123874950838783
-0.39069999999999994,-11.1677310011346
-0.39170000000000005,-11.211587051430415
-0.39269999999999994,-11.343155202317865
-0.39370000000000005,-11.473308641905447
-0.39469999999999994,-11.647318131788847
-0.39570000000000005,-11.778886282676295
-0.39669999999999994,-11.996751822855511
-0.39770000000000005,-12.12831997374296
-0.39869999999999994,-12.214617363034726
-0.39970000000000006,-12.302329463626359
-0.40069999999999995,-12.390041564217992
-0.40170000000000006,-12.432482903213943
-0.40269999999999995,-12.56405105410139
-0.40370000000000006,-12.694204493688973
-0.40469999999999995,-12.869628694872238
-0.40570000000000006,-13.087494235051453
-0.40669999999999995,-13.261503724934855
-0.40770000000000006,-13.436927926118118
-0.40869999999999995,-13.567081365705702
-0.40970000000000006,-13.698649516593148
-0.41069999999999995,-13.784946905884919
-0.41170000000000007,-13.872659006476551
-0.41269999999999996,-14.002812446064135
-0.41370000000000007,-14.175407224647667
-0.41469999999999996,-14.345172580631472
-0.41570000000000007,-14.57152638860988
-0.41669999999999996,-14.783733083589633
-0.41770000000000007,-14.967645552572087
-0.41869999999999996,-15.05252823056399
-0.4197000000000001,-15.222293586547794
-0.42069999999999996,-15.307176264539699
-0.4217000000000001,-15.448647394526201
-0.42269999999999996,-15.618412750510005
-0.4237000000000001,-15.78817810649381
-0.42469999999999997,-16.014531914472215
-0.4257000000000001,-16.269179948447924
-0.42669999999999997,-16.495533756426326
-0.4277000000000001,-16.70774045140608
-0.42869999999999997,-16.877505807389888
-0.4297000000000001,-17.061418276372343
-0.43069999999999997,-17.188742293360193
-0.4317000000000001,-17.316066310348052
-0.4327,-17.542420118326454
-0.4337000000000001,-17.75462681330621
-0.4347,-18.009274847281915
-0.4357000000000001,-18.320511333252224
-0.4367,-18.589306480226583
-0.4377000000000001,-18.80151317520634
-0.4387,-19.01371987018609
-0.4397000000000001,-19.197632339168546
-0.4407,-19.367397695152352
-0.4417000000000001,-19.579604390132108
-0.4427,-19.848399537106463
-0.4437000000000001,-20.06060623208622
-0.4447,-20.371842718056527
-0.4457000000000001,-20.683079204026836
-0.4467,-21.022609915994444
-0.4477000000000001,-21.291405062968803
-0.4487,-21.54605309694451
-0.4497000000000001,-21.772406904922917
-0.4507,-22.027054938898623
-0.4517000000000001,-22.253408746877028
-0.4527,-22.508056780852733
-0.4537000000000001,-22.861734605818995
-0.4547,-23.15882397879065
-0.4557000000000001,-23.55494314275286
-0.4567,-23.908620967719123
-0.4577000000000001,-24.20571034069078
-0.4587,-24.516946826661083
-0.4597000000000001,-24.814036199632742
-0.4607,-25.0828313466071
-0.4617000000000001,-25.39406783257741
-0.4627,-25.73359854454502
-0.4637000000000001,-26.087276369511276
-0.4647,-26.483395533473487
-0.4657000000000001,-26.86536758443705
-0.4667,-27.303928087395207
-0.4677000000000001,-27.65760591236147
-0.4687,-28.011283737327723
-0.4697000000000001,-28.308373110299385
-0.4707,-28.662050935265643
-0.4717000000000001,-29.001581647233255
-0.4727,-29.39770081119546
-0.4737000000000001,-29.836261314153624
-0.4747,-30.274821817111786
-0.4757000000000001,-30.71338232006995
-0.4767,-31.137795710029454
-0.4777000000000001,-31.57635621298762
-0.4787,-32.01491671594578
-0.4797000000000001,-32.41103587990799
-0.4807,-32.84959638286615
-0.48170000000000013,-33.288156885824314
-0.4827,-33.712570275783825
-0.48370000000000013,-34.193572117737936
-0.4847,-34.717015298688004
-0.48570000000000013,-35.240458479638065
-0.4867,-35.806342999584075
-0.4876999999999999,-36.28734484153819
-0.4887,-36.81078802248826
-0.4896999999999999,-37.291789864442364
-0.4907,-37.77279170639648
-0.4916999999999999,-38.211352209354644
-0.4927,-38.692354051308754
-0.4936999999999999,-39.21579723225882
-0.49470000000000003,-39.78168175220483
-0.4956999999999999,-40.3900076111468
-0.49670000000000003,-40.99833347008877
-0.4976999999999999,-41.56421799003478
-0.49870000000000003,-42.130102509980794
-0.4996999999999999,-42.6111043519349
-0.5007,-43.134547532884966
-0.5016999999999999,-43.657990713835034
-0.5027,-44.28046368577565
-0.5036999999999999,-44.93123088371356
-0.5047,-45.581998081651484
-0.5056999999999999,-46.27520661858535
-0.5067,-46.94012092952192
-0.5076999999999999,-47.54844678846388
-0.5087,-48.1992139864018
-0.5096999999999999,-48.76509850634781
-0.5107,-49.41586570428573
-0.5116999999999999,-50.024191563227696
