Potential V vs RHE, Current mA cm-2
0.013299999999999867,-0.4384190318281749
0.012299999999999978,-2.008890045808352
0.011299999999999866,-3.1420737970002466
0.010299999999999976,-3.971094618721158
0.009299999999999864,-4.668547289554621
0.008299999999999974,-5.235846520800501
0.007299999999999862,-5.629136262162981
0.006299999999999972,-5.9347139029338285
0.00529999999999986,-6.152579443113044
0.0042999999999999705,-6.326588932996443
0.0032999999999998586,-6.458157083883892
0.0022999999999999687,-6.54445447317566
0.0012999999999998568,-6.632166573767292
0.00029999999999996696,-6.632166573767292
-0.000700000000000145,-6.719878674358924
-0.0017000000000000348,-6.806176063650692
-0.0027000000000001467,-6.850032113946507
-0.0037000000000000366,-6.93774421453814
-0.0047000000000001485,-7.024041603829907
-0.005700000000000038,-7.067897654125724
-0.00670000000000015,-7.155609754717355
-0.00770000000000004,-7.199465805013171
-0.008700000000000152,-7.243321855308987
-0.009700000000000042,-7.243321855308987
-0.010700000000000154,-7.243321855308987
-0.011700000000000044,-7.243321855308987
-0.012700000000000156,-7.199465805013171
-0.013700000000000045,-7.199465805013171
-0.014700000000000157,-7.155609754717355
-0.015700000000000047,-7.155609754717355
-0.01670000000000016,-7.199465805013171
-0.01770000000000005,-7.243321855308987
-0.01870000000000016,-7.243321855308987
-0.01970000000000005,-7.28576319430494
-0.020700000000000163,-7.329619244600755
-0.021700000000000053,-7.37347529489657
-0.022700000000000164,-7.4173313451923875
-0.023700000000000054,-7.4173313451923875
-0.024700000000000166,-7.4173313451923875
-0.025700000000000056,-7.37347529489657
-0.026700000000000168,-7.329619244600755
-0.027700000000000058,-7.329619244600755
-0.02870000000000017,-7.28576319430494
-0.02970000000000006,-7.28576319430494
-0.03070000000000017,-7.28576319430494
-0.03170000000000006,-7.243321855308987
-0.03270000000000017,-7.28576319430494
-0.03370000000000006,-7.329619244600755
-0.034700000000000175,-7.37347529489657
-0.035700000000000065,-7.4173313451923875
-0.03670000000000018,-7.461187395488204
-0.03770000000000007,-7.461187395488204
-0.03870000000000018,-7.50504344578402
-0.03970000000000007,-7.50504344578402
-0.04070000000000018,-7.50504344578402
-0.04170000000000007,-7.461187395488204
-0.04270000000000018,-7.4173313451923875
-0.04370000000000007,-7.4173313451923875
-0.044700000000000184,-7.37347529489657
-0.045700000000000074,-7.37347529489657
-0.046700000000000186,-7.37347529489657
-0.047700000000000076,-7.4173313451923875
-0.04870000000000019,-7.4173313451923875
-0.04970000000000008,-7.461187395488204
-0.05070000000000019,-7.50504344578402
-0.05170000000000008,-7.50504344578402
-0.05270000000000019,-7.591340835075788
-0.05370000000000008,-7.591340835075788
-0.05470000000000019,-7.591340835075788
-0.05570000000000008,-7.5474847847799715
-0.056700000000000195,-7.50504344578402
-0.057700000000000085,-7.461187395488204
-0.058700000000000196,-7.461187395488204
-0.059700000000000086,-7.4173313451923875
-0.0607000000000002,-7.4173313451923875
-0.06170000000000009,-7.4173313451923875
-0.0627000000000002,-7.461187395488204
-0.06370000000000009,-7.461187395488204
-0.0647000000000002,-7.50504344578402
-0.06570000000000009,-7.5474847847799715
-0.0667000000000002,-7.591340835075788
-0.0677000000000001,-7.591340835075788
-0.0687000000000002,-7.591340835075788
-0.0697000000000001,-7.635196885371603
-0.07070000000000021,-7.635196885371603
-0.0717000000000001,-7.5474847847799715
-0.07270000000000021,-7.5474847847799715
-0.0737000000000001,-7.50504344578402
-0.07470000000000021,-7.461187395488204
-0.0757000000000001,-7.4173313451923875
-0.07670000000000021,-7.4173313451923875
-0.0777000000000001,-7.461187395488204
-0.07870000000000021,-7.50504344578402
-0.0797000000000001,-7.50504344578402
-0.08070000000000022,-7.591340835075788
-0.0817000000000001,-7.591340835075788
-0.08270000000000022,-7.635196885371603
-0.08370000000000011,-7.635196885371603
-0.08470000000000022,-7.635196885371603
-0.08570000000000011,-7.635196885371603
-0.08670000000000022,-7.591340835075788
-0.08770000000000011,-7.5474847847799715
-0.08870000000000022,-7.5474847847799715
-0.08970000000000011,-7.461187395488204
-0.09070000000000022,-7.461187395488204
-0.09170000000000011,-7.50504344578402
-0.09270000000000023,-7.50504344578402
-0.09370000000000012,-7.50504344578402
-0.09470000000000023,-7.5474847847799715
-0.09570000000000012,-7.591340835075788
-0.09670000000000023,-7.635196885371603
-0.09770000000000012,-7.635196885371603
-0.09870000000000023,-7.635196885371603
-0.09970000000000012,-7.635196885371603
-0.10070000000000023,-7.591340835075788
-0.10170000000000012,-7.5474847847799715
-0.10270000000000024,-7.50504344578402
-0.10370000000000013,-7.50504344578402
-0.10470000000000024,-7.4173313451923875
-0.10570000000000013,-7.461187395488204
-0.10670000000000024,-7.4173313451923875
-0.10770000000000013,-7.461187395488204
-0.10870000000000024,-7.461187395488204
-0.10970000000000013,-7.50504344578402
-0.11070000000000024,-7.5474847847799715
-0.11170000000000013,-7.591340835075788
-0.11270000000000002,-7.635196885371603
-0.11370000000000013,-7.635196885371603
-0.11470000000000002,-7.591340835075788
-0.11570000000000014,-7.591340835075788
-0.11670000000000003,-7.5474847847799715
-0.11770000000000014,-7.50504344578402
-0.11870000000000003,-7.50504344578402
-0.11970000000000014,-7.4173313451923875
-0.12070000000000003,-7.461187395488204
-0.12170000000000014,-7.461187395488204
-0.12270000000000003,-7.461187395488204
-0.12370000000000014,-7.461187395488204
-0.12470000000000003,-7.50504344578402
-0.12570000000000014,-7.5474847847799715
-0.12670000000000003,-7.591340835075788
-0.12770000000000015,-7.591340835075788
-0.12870000000000004,-7.591340835075788
-0.12970000000000015,-7.635196885371603
-0.13070000000000004,-7.591340835075788
-0.13170000000000015,-7.5474847847799715
-0.13270000000000004,-7.5474847847799715
-0.13370000000000015,-7.50504344578402
-0.13470000000000004,-7.461187395488204
-0.13570000000000015,-7.461187395488204
-0.13670000000000004,-7.4173313451923875
-0.13770000000000016,-7.461187395488204
-0.13870000000000005,-7.461187395488204
-0.13970000000000016,-7.50504344578402
-0.14070000000000005,-7.5474847847799715
-0.14170000000000016,-7.591340835075788
-0.14270000000000005,-7.591340835075788
-0.14370000000000016,-7.591340835075788
-0.14470000000000005,-7.591340835075788
-0.14570000000000016,-7.591340835075788
-0.14670000000000005,-7.5474847847799715
-0.14770000000000016,-7.50504344578402
-0.14870000000000005,-7.461187395488204
-0.14970000000000017,-7.4173313451923875
-0.15070000000000006,-7.4173313451923875
-0.15170000000000017,-7.4173313451923875
-0.15270000000000006,-7.461187395488204
-0.15370000000000017,-7.461187395488204
-0.15470000000000006,-7.50504344578402
-0.15570000000000017,-7.591340835075788
-0.15670000000000006,-7.591340835075788
-0.15770000000000017,-7.635196885371603
-0.15870000000000006,-7.635196885371603
-0.15970000000000018,-7.635196885371603
-0.16070000000000007,-7.591340835075788
-0.16170000000000018,-7.5474847847799715
-0.16270000000000007,-7.50504344578402
-0.16370000000000018,-7.50504344578402
-0.16470000000000007,-7.461187395488204
-0.16570000000000018,-7.461187395488204
-0.16670000000000007,-7.461187395488204
-0.16770000000000018,-7.461187395488204
-0.16870000000000007,-7.461187395488204
-0.16970000000000018,-7.50504344578402
-0.17070000000000007,-7.50504344578402
-0.17170000000000019,-7.591340835075788
-0.17270000000000008,-7.591340835075788
-0.1737000000000002,-7.591340835075788
-0.17470000000000008,-7.591340835075788
-0.1757000000000002,-7.5474847847799715
-0.17670000000000008,-7.5474847847799715
-0.1777000000000002,-7.50504344578402
-0.17870000000000008,-7.50504344578402
-0.1797000000000002,-7.461187395488204
-0.18070000000000008,-7.461187395488204
-0.1817000000000002,-7.461187395488204
-0.18270000000000008,-7.50504344578402
-0.1837000000000002,-7.50504344578402
-0.1847000000000001,-7.5474847847799715
-0.1857000000000002,-7.591340835075788
-0.1867000000000001,-7.635196885371603
-0.1877000000000002,-7.679052935667419
-0.1887000000000001,-7.679052935667419
-0.1897000000000002,-7.679052935667419
-0.1907000000000001,-7.679052935667419
-0.1917000000000001,-7.635196885371603
-0.19269999999999998,-7.591340835075788
-0.1937000000000001,-7.5474847847799715
-0.19469999999999998,-7.50504344578402
-0.1957000000000001,-7.50504344578402
-0.19669999999999999,-7.50504344578402
-0.1977000000000001,-7.5474847847799715
-0.1987,-7.5474847847799715
-0.1997000000000001,-7.591340835075788
-0.2007,-7.635196885371603
-0.2017000000000001,-7.679052935667419
-0.2027,-7.722908985963235
-0.2037000000000001,-7.722908985963235
-0.2047,-7.722908985963235
-0.2057000000000001,-7.679052935667419
-0.2067,-7.679052935667419
-0.2077000000000001,-7.635196885371603
-0.2087,-7.635196885371603
-0.2097000000000001,-7.5474847847799715
-0.2107,-7.591340835075788
-0.2117000000000001,-7.5474847847799715
-0.2127,-7.591340835075788
-0.2137000000000001,-7.635196885371603
-0.2147,-7.679052935667419
-0.2157000000000001,-7.7653503249591855
-0.2167,-7.809206375255003
-0.21770000000000012,-7.809206375255003
-0.2187,-7.809206375255003
-0.21970000000000012,-7.853062425550818
-0.2207,-7.7653503249591855
-0.22170000000000012,-7.722908985963235
-0.2227,-7.722908985963235
-0.22370000000000012,-7.679052935667419
-0.2247,-7.679052935667419
-0.22570000000000012,-7.635196885371603
-0.2267,-7.635196885371603
-0.22770000000000012,-7.679052935667419
-0.22870000000000001,-7.679052935667419
-0.22970000000000013,-7.722908985963235
-0.23070000000000002,-7.7653503249591855
-0.23170000000000013,-7.809206375255003
-0.23270000000000002,-7.853062425550818
-0.23370000000000013,-7.853062425550818
-0.23470000000000002,-7.853062425550818
-0.23570000000000013,-7.853062425550818
-0.23670000000000002,-7.809206375255003
-0.2376999999999999,-7.809206375255003
-0.23870000000000002,-7.7653503249591855
-0.2396999999999999,-7.722908985963235
-0.24070000000000003,-7.722908985963235
-0.24169999999999991,-7.722908985963235
-0.24270000000000003,-7.722908985963235
-0.24369999999999992,-7.7653503249591855
-0.24470000000000003,-7.809206375255003
-0.24569999999999992,-7.853062425550818
-0.24670000000000003,-7.896918475846635
-0.24769999999999992,-7.940774526142452
-0.24870000000000003,-7.940774526142452
-0.24969999999999992,-7.984630576438266
-0.25070000000000003,-7.940774526142452
-0.2516999999999999,-7.896918475846635
-0.25270000000000004,-7.853062425550818
-0.2536999999999999,-7.853062425550818
-0.25470000000000004,-7.809206375255003
-0.2556999999999999,-7.809206375255003
-0.25670000000000004,-7.809206375255003
-0.25769999999999993,-7.853062425550818
-0.25870000000000004,-7.896918475846635
-0.25969999999999993,-7.940774526142452
-0.26070000000000004,-7.984630576438266
-0.26169999999999993,-8.027071915434218
-0.26270000000000004,-8.070927965730034
-0.26369999999999993,-8.070927965730034
-0.26470000000000005,-8.11478401602585
-0.26569999999999994,-8.070927965730034
-0.26670000000000005,-8.070927965730034
-0.26769999999999994,-8.070927965730034
-0.26870000000000005,-8.027071915434218
-0.26969999999999994,-7.984630576438266
-0.27070000000000005,-8.027071915434218
-0.27169999999999994,-8.027071915434218
-0.27270000000000005,-8.070927965730034
-0.27369999999999994,-8.070927965730034
-0.27470000000000006,-8.11478401602585
-0.27569999999999995,-8.202496116617484
-0.27670000000000006,-8.246352166913299
-0.27769999999999995,-8.246352166913299
-0.27870000000000006,-8.288793505909249
-0.27969999999999995,-8.288793505909249
-0.28070000000000006,-8.288793505909249
-0.28169999999999995,-8.246352166913299
-0.28270000000000006,-8.246352166913299
-0.28369999999999995,-8.246352166913299
-0.28470000000000006,-8.158640066321666
-0.28569999999999995,-8.202496116617484
-0.28670000000000007,-8.202496116617484
-0.28769999999999996,-8.202496116617484
-0.28870000000000007,-8.246352166913299
-0.28969999999999996,-8.288793505909249
-0.29070000000000007,-8.332649556205066
-0.29169999999999996,-8.4203616567967
-0.29270000000000007,-8.464217707092514
-0.29369999999999996,-8.464217707092514
-0.2947000000000001,-8.508073757388331
-0.29569999999999996,-8.464217707092514
-0.2967000000000001,-8.464217707092514
-0.29769999999999996,-8.464217707092514
-0.2987000000000001,-8.4203616567967
-0.29969999999999997,-8.4203616567967
-0.3007000000000001,-8.4203616567967
-0.30169999999999997,-8.464217707092514
-0.3027000000000001,-8.508073757388331
-0.30369999999999997,-8.55051509638428
-0.3047000000000001,-8.638227196975913
-0.30569999999999997,-8.68208324727173
-0.3067000000000001,-8.769795347863363
-0.3077,-8.812236686859313
-0.3087000000000001,-8.85609273715513
-0.3097,-8.85609273715513
-0.3107000000000001,-8.85609273715513
-0.3117,-8.85609273715513
-0.3127000000000001,-8.85609273715513
-0.3137,-8.85609273715513
-0.3147000000000001,-8.812236686859313
-0.3157,-8.899948787450944
-0.3167000000000001,-8.899948787450944
-0.3177,-8.943804837746763
-0.3187000000000001,-9.031516938338395
-0.3197,-9.073958277334345
-0.3207000000000001,-9.161670377925978
-0.3217,-9.24938247851761
-0.3227000000000001,-9.293238528813426
-0.3237,-9.379535918105192
-0.3247000000000001,-9.423391968401008
-0.3257,-9.379535918105192
-0.3267000000000001,-9.379535918105192
-0.3277,-9.379535918105192
-0.3287000000000001,-9.379535918105192
-0.3297,-9.335679867809377
-0.3307000000000001,-9.423391968401008
-0.3317,-9.423391968401008
-0.3327000000000001,-9.511104068992642
-0.3337,-9.55496011928846
-0.3347000000000001,-9.641257508580225
-0.3357,-9.728969609171857
-0.3367000000000001,-9.81668170976349
-0.3377,-9.902979099055257
-0.3387000000000001,-9.99069119964689
-0.3397,-10.078403300238522
-0.3407000000000001,-10.078403300238522
-0.3417,-10.078403300238522
-0.3427000000000001,-10.120844639234473
-0.3437,-10.120844639234473
-0.3447000000000001,-10.120844639234473
-0.3457,-10.164700689530287
-0.3467000000000001,-10.208556739826104
-0.3477,-10.296268840417738
-0.3487000000000001,-10.340124890713554
-0.3497,-10.382566229709504
-0.3507000000000001,-10.514134380596953
-0.3517,-10.601846481188586
-0.3527000000000001,-10.688143870480351
-0.3537,-10.775855971071984
-0.3547000000000001,-10.819712021367803
-0.3557,-10.863568071663616
-0.35670000000000013,-10.863568071663616
-0.3577,-10.906009410659568
-0.35870000000000013,-10.949865460955383
-0.3597,-10.949865460955383
-0.36070000000000013,-11.037577561547016
-0.3617,-11.081433611842833
-0.3626999999999999,-11.211587051430415
-0.3637,-11.343155202317865
-0.3646999999999999,-11.473308641905447
-0.3657,-11.604876792792895
-0.3666999999999999,-11.73503023238048
-0.3677,-11.86659838326793
-0.3686999999999999,-11.952895772559694
-0.36970000000000003,-12.040607873151327
-0.3706999999999999,-12.12831997374296
-0.37170000000000003,-12.170761312738911
-0.3726999999999999,-12.214617363034726
-0.37370000000000003,-12.258473413330542
-0.3746999999999999,-12.346185513922174
-0.37570000000000003,-12.432482903213943
-0.3766999999999999,-12.520195003805576
-0.37770000000000004,-12.607907104397206
-0.3786999999999999,-12.73806054398479
-0.37970000000000004,-12.825772644576423
-0.3806999999999999,-12.955926084164007
-0.38170000000000004,-13.13135028534727
-0.38269999999999993,-13.175206335643086
-0.38370000000000004,-13.30535977523067
-0.38469999999999993,-13.3930718758223
-0.38570000000000004,-13.436927926118118
-0.38669999999999993,-13.47936926511407
-0.38770000000000004,-13.567081365705702
-0.38869999999999993,-13.654793466297335
-0.38970000000000005,-13.698649516593148
-0.39069999999999994,-13.784946905884919
-0.39170000000000005,-13.916515056772363
-0.39269999999999994,-14.046668496359947
-0.39370000000000005,-14.175407224647667
-0.39469999999999994,-14.30273124163552
-0.39570000000000005,-14.486643710617974
-0.39669999999999994,-14.61396772760583
-0.39770000000000005,-14.783733083589633
-0.39869999999999994,-14.925204213576137
-0.39970000000000006,-15.05252823056399
-0.40069999999999995,-15.137410908555893
-0.40170000000000006,-15.264734925543747
-0.40269999999999995,-15.349617603535648
-0.40370000000000006,-15.533530072518102
-0.40469999999999995,-15.618412750510005
-0.40570000000000006,-15.74573676749786
-0.40669999999999995,-15.87306078448571
-0.40770000000000006,-16.056973253468165
-0.40869999999999995,-16.22673860945197
-0.40970000000000006,-16.438945304431726
-0.41069999999999995,-16.622857773414182
-0.41170000000000007,-16.835064468393938
-0.41269999999999996,-16.962388485381787
-0.41370000000000007,-17.146300954364243
-0.41469999999999996,-17.316066310348052
-0.41570000000000007,-17.4433903273359
-0.41669999999999996,-17.584861457322408
-0.41770000000000007,-17.669744135314307
-0.41869999999999996,-17.797068152302163
-0.4197000000000001,-17.966833508285966
-0.42069999999999996,-18.15074597726842
-0.4217000000000001,-18.27806999425627
-0.42269999999999996,-18.49027668923603
-0.4237000000000001,-18.674189158218486
-0.42469999999999997,-18.88639585319824
-0.4257000000000001,-19.112749661176647
-0.42669999999999997,-19.3249563561564
-0.4277000000000001,-19.49472171214021
-0.42869999999999997,-19.721075520118614
-0.4297000000000001,-19.890840876102416
-0.43069999999999997,-20.10304757108217
-0.4317000000000001,-20.244518701068674
-0.4327,-20.414284057052477
-0.4337000000000001,-20.584049413036283
-0.4347,-20.72552054302279
-0.4357000000000001,-20.980168576998494
-0.4367,-21.149933932982297
-0.4377000000000001,-21.418729079956652
-0.4387,-21.67337711393236
-0.4397000000000001,-21.94217226090672
-0.4407,-22.196820294882425
-0.4417000000000001,-22.508056780852733
-0.4427,-22.776851927827092
-0.4437000000000001,-23.031499961802798
-0.4447,-23.300295108777156
-0.4457000000000001,-23.51250180375691
-0.4467,-23.724708498736668
-0.4477000000000001,-23.951062306715073
-0.4487,-24.20571034069078
-0.4497000000000001,-24.432064148669184
-0.4507,-24.686712182644893
-0.4517000000000001,-24.997948668615198
-0.4527,-25.252596702590903
-0.4537000000000001,-25.563833188561212
-0.4547,-25.91751101352747
-0.4557000000000001,-26.21460038649913
-0.4567,-26.568278211465387
-0.4577000000000001,-26.86536758443705
-0.4587,-27.176604070407354
-0.4597000000000001,-27.530281895373616
-0.4607,-27.78492992934932
-0.4617000000000001,-28.09616641531963
-0.4627,-28.350814449295335
-0.4637000000000001,-28.662050935265643
-0.4647,-28.959140308237306
-0.4657000000000001,-29.31281813320356
-0.4667,-29.62405461917387
-0.4677000000000001,-29.96358533114148
-0.4687,-30.402145834099635
-0.4697000000000001,-30.7558236590659
-0.4707,-31.137795710029454
-0.4717000000000001,-31.57635621298762
-0.4727,-31.972475376949827
-0.4737000000000001,-32.368594540912035
-0.4747,-32.764713704874254
-0.4757000000000001,-33.14668575583781
-0.4767,-33.50036358080407
-0.4777000000000001,-33.89648274476628
-0.4787,-34.278454795729836
-0.4797000000000001,-34.632132620696105
-0.4807,-35.07069312365426
-0.48170000000000013,-35.46681228761647
-0.4827,-35.94781412957058
-0.48370000000000013,-36.4288159715247
-0.4847,-36.89567070048016
-0.48570000000000013,-37.47570233342482
-0.4867,-37.94255706238028
-0.4876999999999999,-38.42355890433439
-0.4887,-38.90456074628851
-0.4896999999999999,-39.38556258824262
-0.4907,-39.82412309120078
-0.4916999999999999,-40.26268359415894
-0.4927,-40.743685436113054
-0.4936999999999999,-41.182245939071215
-0.49470000000000003,-41.66324778102533
-0.4956999999999999,-42.186690961975394
-0.49670000000000003,-42.71013414292546
-0.4976999999999999,-43.27601866287147
-0.49870000000000003,-43.84190318281749
-0.4996999999999999,-44.45022904175945
-0.5007,-45.01611356170547
-0.5016999999999999,-45.666880759643384
-0.5027,-46.2327652795894
-0.5036999999999999,-46.79864979953541
-0.5047,-47.40697565847737
-0.5056999999999999,-47.987007291422046
-0.5067,-48.55289181136806
-0.5076999999999999,-49.16121767031002
-0.5087,-49.81198486824794
-0.5096999999999999,-50.42031072718991
-0.5107,-51.127666377122424
-0.5116999999999999,-51.77843357506035
