Apr. 8, 2025   11:52:05
Cyclic Voltammetry
File: c:/users/guazh/data/banditlqround7_x0exp994_r5/2025-03-28-exp1018\exp1018-2025-04-08t11_43_31-arkoh\exp1018_cv_50mvs_efin_-1500mv.bin
Data Source:  Experiment
Instrument Model:  CHI760E
Header: CV ran at 50 mVs
Note: 

Init E (V) = -1
High E (V) = -1
Low E (V) = -1.5
Final E (V) = -1
Init P/N = N
Scan Rate (V/s) = 0.05
Segment = 7
Sample Interval (V) = 0.001
Quiet Time (sec) = 60
Sensitivity (A/V) = 0.001
Comp R (ohm) = 1.6

Results:

Channel 1:
Segment 1:
Ep = -1.241V
ip = 1.818e-4A
Ah = 2.722e-4C

Segment 2:

Segment 3:
Ep = -1.246V
ip = 8.466e-5A
Ah = 1.201e-4C

Segment 4:
Ep = -1.156V
ip = -5.658e-5A
Ah = -7.958e-5C

Segment 5:
Ep = -1.242V
ip = 7.782e-5A
Ah = 1.040e-4C

Segment 6:
Ep = -1.157V
ip = -5.583e-5A
Ah = -7.858e-5C

Segment 7:

Potential/V, Current/A

-1.000, 9.622e-6
-1.001, 2.082e-5
-1.002, 2.417e-5
-1.003, 2.639e-5
-1.004, 2.931e-5
-1.005, 3.147e-5
-1.006, 3.284e-5
-1.007, 3.388e-5
-1.008, 3.503e-5
-1.009, 3.690e-5
-1.010, 3.862e-5
-1.011, 3.944e-5
-1.012, 4.017e-5
-1.013, 4.128e-5
-1.014, 4.252e-5
-1.015, 4.444e-5
-1.016, 4.498e-5
-1.017, 4.551e-5
-1.018, 4.667e-5
-1.019, 4.789e-5
-1.020, 4.957e-5
-1.021, 5.030e-5
-1.022, 5.079e-5
-1.023, 5.187e-5
-1.024, 5.339e-5
-1.025, 5.480e-5
-1.026, 5.578e-5
-1.027, 5.619e-5
-1.028, 5.730e-5
-1.029, 5.867e-5
-1.030, 6.033e-5
-1.031, 6.151e-5
-1.032, 6.175e-5
-1.033, 6.294e-5
-1.034, 6.474e-5
-1.035, 6.616e-5
-1.036, 6.735e-5
-1.037, 6.806e-5
-1.038, 6.921e-5
-1.039, 7.088e-5
-1.040, 7.264e-5
-1.041, 7.386e-5
-1.042, 7.466e-5
-1.043, 7.588e-5
-1.044, 7.782e-5
-1.045, 7.958e-5
-1.046, 8.072e-5
-1.047, 8.193e-5
-1.048, 8.300e-5
-1.049, 8.511e-5
-1.050, 8.722e-5
-1.051, 8.822e-5
-1.052, 8.948e-5
-1.053, 9.059e-5
-1.054, 9.262e-5
-1.055, 9.488e-5
-1.056, 9.604e-5
-1.057, 9.714e-5
-1.058, 9.871e-5
-1.059, 1.005e-4
-1.060, 1.028e-4
-1.061, 1.042e-4
-1.062, 1.053e-4
-1.063, 1.069e-4
-1.064, 1.088e-4
-1.065, 1.110e-4
-1.066, 1.124e-4
-1.067, 1.135e-4
-1.068, 1.151e-4
-1.069, 1.170e-4
-1.070, 1.192e-4
-1.071, 1.209e-4
-1.072, 1.218e-4
-1.073, 1.235e-4
-1.074, 1.254e-4
-1.075, 1.279e-4
-1.076, 1.294e-4
-1.077, 1.303e-4
-1.078, 1.316e-4
-1.079, 1.337e-4
-1.080, 1.359e-4
-1.081, 1.374e-4
-1.082, 1.384e-4
-1.083, 1.397e-4
-1.084, 1.419e-4
-1.085, 1.439e-4
-1.086, 1.452e-4
-1.087, 1.466e-4
-1.088, 1.478e-4
-1.089, 1.497e-4
-1.090, 1.518e-4
-1.091, 1.530e-4
-1.092, 1.545e-4
-1.093, 1.555e-4
-1.094, 1.571e-4
-1.095, 1.594e-4
-1.096, 1.606e-4
-1.097, 1.615e-4
-1.098, 1.630e-4
-1.099, 1.649e-4
-1.100, 1.667e-4
-1.101, 1.678e-4
-1.102, 1.688e-4
-1.103, 1.702e-4
-1.104, 1.717e-4
-1.105, 1.736e-4
-1.106, 1.750e-4
-1.107, 1.757e-4
-1.108, 1.769e-4
-1.109, 1.786e-4
-1.110, 1.807e-4
-1.111, 1.821e-4
-1.112, 1.825e-4
-1.113, 1.838e-4
-1.114, 1.855e-4
-1.115, 1.874e-4
-1.116, 1.889e-4
-1.117, 1.898e-4
-1.118, 1.905e-4
-1.119, 1.926e-4
-1.120, 1.946e-4
-1.121, 1.958e-4
-1.122, 1.965e-4
-1.123, 1.975e-4
-1.124, 1.996e-4
-1.125, 2.015e-4
-1.126, 2.029e-4
-1.127, 2.041e-4
-1.128, 2.049e-4
-1.129, 2.066e-4
-1.130, 2.088e-4
-1.131, 2.100e-4
-1.132, 2.112e-4
-1.133, 2.124e-4
-1.134, 2.143e-4
-1.135, 2.166e-4
-1.136, 2.179e-4
-1.137, 2.192e-4
-1.138, 2.207e-4
-1.139, 2.224e-4
-1.140, 2.249e-4
-1.141, 2.264e-4
-1.142, 2.276e-4
-1.143, 2.293e-4
-1.144, 2.311e-4
-1.145, 2.339e-4
-1.146, 2.356e-4
-1.147, 2.368e-4
-1.148, 2.389e-4
-1.149, 2.408e-4
-1.150, 2.435e-4
-1.151, 2.459e-4
-1.152, 2.471e-4
-1.153, 2.491e-4
-1.154, 2.515e-4
-1.155, 2.541e-4
-1.156, 2.565e-4
-1.157, 2.580e-4
-1.158, 2.602e-4
-1.159, 2.629e-4
-1.160, 2.653e-4
-1.161, 2.679e-4
-1.162, 2.698e-4
-1.163, 2.716e-4
-1.164, 2.744e-4
-1.165, 2.776e-4
-1.166, 2.803e-4
-1.167, 2.825e-4
-1.168, 2.847e-4
-1.169, 2.875e-4
-1.170, 2.910e-4
-1.171, 2.938e-4
-1.172, 2.961e-4
-1.173, 2.984e-4
-1.174, 3.017e-4
-1.175, 3.050e-4
-1.176, 3.079e-4
-1.177, 3.105e-4
-1.178, 3.136e-4
-1.179, 3.168e-4
-1.180, 3.205e-4
-1.181, 3.235e-4
-1.182, 3.259e-4
-1.183, 3.288e-4
-1.184, 3.320e-4
-1.185, 3.360e-4
-1.186, 3.394e-4
-1.187, 3.420e-4
-1.188, 3.452e-4
-1.189, 3.485e-4
-1.190, 3.525e-4
-1.191, 3.560e-4
-1.192, 3.587e-4
-1.193, 3.616e-4
-1.194, 3.652e-4
-1.195, 3.694e-4
-1.196, 3.729e-4
-1.197, 3.757e-4
-1.198, 3.790e-4
-1.199, 3.826e-4
-1.200, 3.860e-4
-1.201, 3.896e-4
-1.202, 3.923e-4
-1.203, 3.954e-4
-1.204, 3.997e-4
-1.205, 4.032e-4
-1.206, 4.063e-4
-1.207, 4.094e-4
-1.208, 4.125e-4
-1.209, 4.166e-4
-1.210, 4.201e-4
-1.211, 4.232e-4
-1.212, 4.260e-4
-1.213, 4.283e-4
-1.214, 4.318e-4
-1.215, 4.351e-4
-1.216, 4.379e-4
-1.217, 4.405e-4
-1.218, 4.431e-4
-1.219, 4.459e-4
-1.220, 4.491e-4
-1.221, 4.517e-4
-1.222, 4.536e-4
-1.223, 4.557e-4
-1.224, 4.581e-4
-1.225, 4.612e-4
-1.226, 4.635e-4
-1.227, 4.649e-4
-1.228, 4.672e-4
-1.229, 4.699e-4
-1.230, 4.712e-4
-1.231, 4.730e-4
-1.232, 4.736e-4
-1.233, 4.746e-4
-1.234, 4.765e-4
-1.235, 4.778e-4
-1.236, 4.794e-4
-1.237, 4.792e-4
-1.238, 4.798e-4
-1.239, 4.807e-4
-1.240, 4.811e-4
-1.241, 4.821e-4
-1.242, 4.812e-4
-1.243, 4.808e-4
-1.244, 4.813e-4
-1.245, 4.815e-4
-1.246, 4.808e-4
-1.247, 4.806e-4
-1.248, 4.800e-4
-1.249, 4.793e-4
-1.250, 4.792e-4
-1.251, 4.779e-4
-1.252, 4.768e-4
-1.253, 4.749e-4
-1.254, 4.736e-4
-1.255, 4.731e-4
-1.256, 4.716e-4
-1.257, 4.693e-4
-1.258, 4.669e-4
-1.259, 4.650e-4
-1.260, 4.640e-4
-1.261, 4.620e-4
-1.262, 4.590e-4
-1.263, 4.565e-4
-1.264, 4.544e-4
-1.265, 4.526e-4
-1.266, 4.504e-4
-1.267, 4.470e-4
-1.268, 4.441e-4
-1.269, 4.416e-4
-1.270, 4.396e-4
-1.271, 4.371e-4
-1.272, 4.334e-4
-1.273, 4.303e-4
-1.274, 4.277e-4
-1.275, 4.251e-4
-1.276, 4.226e-4
-1.277, 4.186e-4
-1.278, 4.149e-4
-1.279, 4.122e-4
-1.280, 4.105e-4
-1.281, 4.070e-4
-1.282, 4.037e-4
-1.283, 3.998e-4
-1.284, 3.975e-4
-1.285, 3.949e-4
-1.286, 3.918e-4
-1.287, 3.882e-4
-1.288, 3.851e-4
-1.289, 3.829e-4
-1.290, 3.805e-4
-1.291, 3.775e-4
-1.292, 3.745e-4
-1.293, 3.715e-4
-1.294, 3.701e-4
-1.295, 3.686e-4
-1.296, 3.660e-4
-1.297, 3.631e-4
-1.298, 3.610e-4
-1.299, 3.591e-4
-1.300, 3.576e-4
-1.301, 3.560e-4
-1.302, 3.535e-4
-1.303, 3.521e-4
-1.304, 3.508e-4
-1.305, 3.504e-4
-1.306, 3.489e-4
-1.307, 3.467e-4
-1.308, 3.457e-4
-1.309, 3.448e-4
-1.310, 3.445e-4
-1.311, 3.445e-4
-1.312, 3.428e-4
-1.313, 3.424e-4
-1.314, 3.425e-4
-1.315, 3.426e-4
-1.316, 3.428e-4
-1.317, 3.421e-4
-1.318, 3.418e-4
-1.319, 3.425e-4
-1.320, 3.429e-4
-1.321, 3.436e-4
-1.322, 3.435e-4
-1.323, 3.438e-4
-1.324, 3.450e-4
-1.325, 3.464e-4
-1.326, 3.480e-4
-1.327, 3.486e-4
-1.328, 3.490e-4
-1.329, 3.505e-4
-1.330, 3.528e-4
-1.331, 3.544e-4
-1.332, 3.558e-4
-1.333, 3.570e-4
-1.334, 3.594e-4
-1.335, 3.615e-4
-1.336, 3.638e-4
-1.337, 3.655e-4
-1.338, 3.680e-4
-1.339, 3.712e-4
-1.340, 3.748e-4
-1.341, 3.775e-4
-1.342, 3.796e-4
-1.343, 3.816e-4
-1.344, 3.840e-4
-1.345, 3.883e-4
-1.346, 3.918e-4
-1.347, 3.946e-4
-1.348, 3.978e-4
-1.349, 4.013e-4
-1.350, 4.057e-4
-1.351, 4.093e-4
-1.352, 4.121e-4
-1.353, 4.157e-4
-1.354, 4.196e-4
-1.355, 4.244e-4
-1.356, 4.289e-4
-1.357, 4.321e-4
-1.358, 4.362e-4
-1.359, 4.403e-4
-1.360, 4.446e-4
-1.361, 4.491e-4
-1.362, 4.526e-4
-1.363, 4.565e-4
-1.364, 4.614e-4
-1.365, 4.662e-4
-1.366, 4.715e-4
-1.367, 4.751e-4
-1.368, 4.786e-4
-1.369, 4.841e-4
-1.370, 4.899e-4
-1.371, 4.944e-4
-1.372, 4.978e-4
-1.373, 5.016e-4
-1.374, 5.068e-4
-1.375, 5.119e-4
-1.376, 5.163e-4
-1.377, 5.201e-4
-1.378, 5.242e-4
-1.379, 5.289e-4
-1.380, 5.346e-4
-1.381, 5.388e-4
-1.382, 5.427e-4
-1.383, 5.464e-4
-1.384, 5.507e-4
-1.385, 5.566e-4
-1.386, 5.606e-4
-1.387, 5.645e-4
-1.388, 5.692e-4
-1.389, 5.744e-4
-1.390, 5.800e-4
-1.391, 5.856e-4
-1.392, 5.908e-4
-1.393, 5.970e-4
-1.394, 6.046e-4
-1.395, 6.133e-4
-1.396, 6.223e-4
-1.397, 6.319e-4
-1.398, 6.433e-4
-1.399, 6.576e-4
-1.400, 6.741e-4
-1.401, 6.929e-4
-1.402, 7.147e-4
-1.403, 7.405e-4
-1.404, 7.715e-4
-1.405, 8.072e-4
-1.406, 8.486e-4
-1.407, 8.957e-4
-1.408, 9.486e-4
-1.409, 1.010e-3
-1.410, 1.077e-3
-1.411, 1.151e-3
-1.412, 1.229e-3
-1.413, 1.310e-3
-1.414, 1.396e-3
-1.415, 1.486e-3
-1.416, 1.577e-3
-1.417, 1.669e-3
-1.418, 1.762e-3
-1.419, 1.858e-3
-1.420, 1.953e-3
-1.421, 2.047e-3
-1.422, 2.139e-3
-1.423, 2.226e-3
-1.424, 2.311e-3
-1.425, 2.398e-3
-1.426, 2.486e-3
-1.427, 2.572e-3
-1.428, 2.655e-3
-1.429, 2.742e-3
-1.430, 2.817e-3
-1.431, 2.891e-3
-1.432, 2.960e-3
-1.433, 3.030e-3
-1.434, 3.098e-3
-1.435, 3.164e-3
-1.436, 3.222e-3
-1.437, 3.281e-3
-1.438, 3.342e-3
-1.439, 3.388e-3
-1.440, 3.438e-3
-1.441, 3.489e-3
-1.442, 3.543e-3
-1.443, 3.603e-3
-1.444, 3.658e-3
-1.445, 3.710e-3
-1.446, 3.762e-3
-1.447, 3.813e-3
-1.448, 3.873e-3
-1.449, 3.922e-3
-1.450, 3.967e-3
-1.451, 4.025e-3
-1.452, 4.082e-3
-1.453, 4.143e-3
-1.454, 4.202e-3
-1.455, 4.252e-3
-1.456, 4.305e-3
-1.457, 4.358e-3
-1.458, 4.436e-3
-1.459, 4.501e-3
-1.460, 4.554e-3
-1.461, 4.606e-3
-1.462, 4.663e-3
-1.463, 4.712e-3
-1.464, 4.777e-3
-1.465, 4.838e-3
-1.466, 4.892e-3
-1.467, 4.965e-3
-1.468, 5.024e-3
-1.469, 5.072e-3
-1.470, 5.134e-3
-1.471, 5.180e-3
-1.472, 5.262e-3
-1.473, 5.391e-3
-1.474, 5.453e-3
-1.475, 5.500e-3
-1.476, 5.538e-3
-1.477, 5.605e-3
-1.478, 5.661e-3
-1.479, 5.739e-3
-1.480, 5.807e-3
-1.481, 5.866e-3
-1.482, 5.937e-3
-1.483, 5.983e-3
-1.484, 6.027e-3
-1.485, 6.075e-3
-1.486, 6.125e-3
-1.487, 6.188e-3
-1.488, 6.249e-3
-1.489, 6.321e-3
-1.490, 6.368e-3
-1.491, 6.445e-3
-1.492, 6.517e-3
-1.493, 6.546e-3
-1.494, 6.579e-3
-1.495, 6.617e-3
-1.496, 6.677e-3
-1.497, 6.729e-3
-1.498, 6.776e-3
-1.499, 6.863e-3
-1.500, 6.869e-3
-1.499, 6.772e-3
-1.498, 6.694e-3
-1.497, 6.624e-3
-1.496, 6.538e-3
-1.495, 6.441e-3
-1.494, 6.346e-3
-1.493, 6.264e-3
-1.492, 6.178e-3
-1.491, 6.080e-3
-1.490, 6.027e-3
-1.489, 5.959e-3
-1.488, 5.914e-3
-1.487, 5.855e-3
-1.486, 5.796e-3
-1.485, 5.717e-3
-1.484, 5.633e-3
-1.483, 5.540e-3
-1.482, 5.459e-3
-1.481, 5.375e-3
-1.480, 5.322e-3
-1.479, 5.251e-3
-1.478, 5.169e-3
-1.477, 5.089e-3
-1.476, 5.022e-3
-1.475, 4.961e-3
-1.474, 4.885e-3
-1.473, 4.815e-3
-1.472, 4.752e-3
-1.471, 4.683e-3
-1.470, 4.612e-3
-1.469, 4.536e-3
-1.468, 4.471e-3
-1.467, 4.398e-3
-1.466, 4.338e-3
-1.465, 4.286e-3
-1.464, 4.219e-3
-1.463, 4.155e-3
-1.462, 4.100e-3
-1.461, 4.033e-3
-1.460, 3.999e-3
-1.459, 3.935e-3
-1.458, 3.882e-3
-1.457, 3.818e-3
-1.456, 3.745e-3
-1.455, 3.690e-3
-1.454, 3.621e-3
-1.453, 3.543e-3
-1.452, 3.471e-3
-1.451, 3.410e-3
-1.450, 3.360e-3
-1.449, 3.299e-3
-1.448, 3.236e-3
-1.447, 3.172e-3
-1.446, 3.111e-3
-1.445, 3.042e-3
-1.444, 2.982e-3
-1.443, 2.921e-3
-1.442, 2.862e-3
-1.441, 2.802e-3
-1.440, 2.750e-3
-1.439, 2.704e-3
-1.438, 2.642e-3
-1.437, 2.587e-3
-1.436, 2.530e-3
-1.435, 2.468e-3
-1.434, 2.410e-3
-1.433, 2.356e-3
-1.432, 2.313e-3
-1.431, 2.264e-3
-1.430, 2.223e-3
-1.429, 2.176e-3
-1.428, 2.126e-3
-1.427, 2.083e-3
-1.426, 2.044e-3
-1.425, 2.002e-3
-1.424, 1.959e-3
-1.423, 1.907e-3
-1.422, 1.864e-3
-1.421, 1.825e-3
-1.420, 1.781e-3
-1.419, 1.737e-3
-1.418, 1.691e-3
-1.417, 1.650e-3
-1.416, 1.608e-3
-1.415, 1.564e-3
-1.414, 1.521e-3
-1.413, 1.479e-3
-1.412, 1.436e-3
-1.411, 1.399e-3
-1.410, 1.360e-3
-1.409, 1.322e-3
-1.408, 1.286e-3
-1.407, 1.247e-3
-1.406, 1.210e-3
-1.405, 1.175e-3
-1.404, 1.142e-3
-1.403, 1.107e-3
-1.402, 1.073e-3
-1.401, 1.042e-3
-1.400, 1.008e-3
-1.399, 9.772e-4
-1.398, 9.435e-4
-1.397, 9.134e-4
-1.396, 8.837e-4
-1.395, 8.556e-4
-1.394, 8.278e-4
-1.393, 7.987e-4
-1.392, 7.751e-4
-1.391, 7.473e-4
-1.390, 7.238e-4
-1.389, 6.944e-4
-1.388, 6.677e-4
-1.387, 6.411e-4
-1.386, 6.179e-4
-1.385, 5.954e-4
-1.384, 5.743e-4
-1.383, 5.485e-4
-1.382, 5.293e-4
-1.381, 5.109e-4
-1.380, 4.929e-4
-1.379, 4.735e-4
-1.378, 4.556e-4
-1.377, 4.375e-4
-1.376, 4.222e-4
-1.375, 4.060e-4
-1.374, 3.916e-4
-1.373, 3.750e-4
-1.372, 3.594e-4
-1.371, 3.450e-4
-1.370, 3.309e-4
-1.369, 3.180e-4
-1.368, 3.047e-4
-1.367, 2.921e-4
-1.366, 2.803e-4
-1.365, 2.692e-4
-1.364, 2.582e-4
-1.363, 2.459e-4
-1.362, 2.359e-4
-1.361, 2.255e-4
-1.360, 2.163e-4
-1.359, 2.064e-4
-1.358, 1.958e-4
-1.357, 1.862e-4
-1.356, 1.781e-4
-1.355, 1.700e-4
-1.354, 1.618e-4
-1.353, 1.533e-4
-1.352, 1.457e-4
-1.351, 1.388e-4
-1.350, 1.320e-4
-1.349, 1.261e-4
-1.348, 1.193e-4
-1.347, 1.131e-4
-1.346, 1.066e-4
-1.345, 1.007e-4
-1.344, 9.513e-5
-1.343, 8.880e-5
-1.342, 8.286e-5
-1.341, 7.894e-5
-1.340, 7.427e-5
-1.339, 6.959e-5
-1.338, 6.448e-5
-1.337, 5.909e-5
-1.336, 5.480e-5
-1.335, 5.114e-5
-1.334, 4.789e-5
-1.333, 4.341e-5
-1.332, 3.880e-5
-1.331, 3.500e-5
-1.330, 3.201e-5
-1.329, 2.891e-5
-1.328, 2.526e-5
-1.327, 2.127e-5
-1.326, 1.802e-5
-1.325, 1.559e-5
-1.324, 1.236e-5
-1.323, 8.245e-6
-1.322, 4.953e-6
-1.321, 1.868e-6
-1.320, 9.353e-8
-1.319, -2.452e-6
-1.318, -5.534e-6
-1.317, -7.391e-6
-1.316, -9.405e-6
-1.315, -1.137e-5
-1.314, -1.360e-5
-1.313, -1.709e-5
-1.312, -1.958e-5
-1.311, -2.193e-5
-1.310, -2.365e-5
-1.309, -2.554e-5
-1.308, -2.827e-5
-1.307, -3.049e-5
-1.306, -3.219e-5
-1.305, -3.406e-5
-1.304, -3.589e-5
-1.303, -3.853e-5
-1.302, -4.058e-5
-1.301, -4.223e-5
-1.300, -4.376e-5
-1.299, -4.587e-5
-1.298, -4.821e-5
-1.297, -5.053e-5
-1.296, -5.190e-5
-1.295, -5.333e-5
-1.294, -5.541e-5
-1.293, -5.765e-5
-1.292, -5.983e-5
-1.291, -6.148e-5
-1.290, -6.271e-5
-1.289, -6.472e-5
-1.288, -6.667e-5
-1.287, -6.915e-5
-1.286, -7.068e-5
-1.285, -7.192e-5
-1.284, -7.369e-5
-1.283, -7.588e-5
-1.282, -7.778e-5
-1.281, -7.972e-5
-1.280, -8.129e-5
-1.279, -8.229e-5
-1.278, -8.519e-5
-1.277, -8.693e-5
-1.276, -8.828e-5
-1.275, -8.928e-5
-1.274, -9.070e-5
-1.273, -9.331e-5
-1.272, -9.601e-5
-1.271, -9.850e-5
-1.270, -9.951e-5
-1.269, -9.988e-5
-1.268, -1.020e-4
-1.267, -1.036e-4
-1.266, -1.047e-4
-1.265, -1.059e-4
-1.264, -1.069e-4
-1.263, -1.093e-4
-1.262, -1.113e-4
-1.261, -1.124e-4
-1.260, -1.139e-4
-1.259, -1.157e-4
-1.258, -1.179e-4
-1.257, -1.200e-4
-1.256, -1.213e-4
-1.255, -1.227e-4
-1.254, -1.244e-4
-1.253, -1.266e-4
-1.252, -1.289e-4
-1.251, -1.308e-4
-1.250, -1.320e-4
-1.249, -1.342e-4
-1.248, -1.360e-4
-1.247, -1.383e-4
-1.246, -1.403e-4
-1.245, -1.417e-4
-1.244, -1.438e-4
-1.243, -1.460e-4
-1.242, -1.481e-4
-1.241, -1.503e-4
-1.240, -1.514e-4
-1.239, -1.534e-4
-1.238, -1.582e-4
-1.237, -1.592e-4
-1.236, -1.608e-4
-1.235, -1.625e-4
-1.234, -1.647e-4
-1.233, -1.690e-4
-1.232, -1.717e-4
-1.231, -1.731e-4
-1.230, -1.748e-4
-1.229, -1.781e-4
-1.228, -1.806e-4
-1.227, -1.831e-4
-1.226, -1.851e-4
-1.225, -1.877e-4
-1.224, -1.902e-4
-1.223, -1.938e-4
-1.222, -1.970e-4
-1.221, -1.992e-4
-1.220, -2.018e-4
-1.219, -2.047e-4
-1.218, -2.080e-4
-1.217, -2.117e-4
-1.216, -2.146e-4
-1.215, -2.172e-4
-1.214, -2.267e-4
-1.213, -2.334e-4
-1.212, -2.362e-4
-1.211, -2.380e-4
-1.210, -2.402e-4
-1.209, -2.435e-4
-1.208, -2.465e-4
-1.207, -2.511e-4
-1.206, -2.542e-4
-1.205, -2.563e-4
-1.204, -2.593e-4
-1.203, -2.629e-4
-1.202, -2.664e-4
-1.201, -2.697e-4
-1.200, -2.722e-4
-1.199, -2.757e-4
-1.198, -2.796e-4
-1.197, -2.820e-4
-1.196, -2.846e-4
-1.195, -2.875e-4
-1.194, -2.902e-4
-1.193, -2.942e-4
-1.192, -2.973e-4
-1.191, -3.001e-4
-1.190, -3.029e-4
-1.189, -3.052e-4
-1.188, -3.082e-4
-1.187, -3.105e-4
-1.186, -3.127e-4
-1.185, -3.151e-4
-1.184, -3.176e-4
-1.183, -3.216e-4
-1.182, -3.248e-4
-1.181, -3.267e-4
-1.180, -3.286e-4
-1.179, -3.301e-4
-1.178, -3.332e-4
-1.177, -3.356e-4
-1.176, -3.370e-4
-1.175, -3.384e-4
-1.174, -3.397e-4
-1.173, -3.422e-4
-1.172, -3.432e-4
-1.171, -3.423e-4
-1.170, -3.428e-4
-1.169, -3.437e-4
-1.168, -3.445e-4
-1.167, -3.468e-4
-1.166, -3.508e-4
-1.165, -3.509e-4
-1.164, -3.516e-4
-1.163, -3.528e-4
-1.162, -3.540e-4
-1.161, -3.547e-4
-1.160, -3.548e-4
-1.159, -3.548e-4
-1.158, -3.552e-4
-1.157, -3.550e-4
-1.156, -3.552e-4
-1.155, -3.547e-4
-1.154, -3.546e-4
-1.153, -3.554e-4
-1.152, -3.558e-4
-1.151, -3.563e-4
-1.150, -3.551e-4
-1.149, -3.541e-4
-1.148, -3.544e-4
-1.147, -3.549e-4
-1.146, -3.541e-4
-1.145, -3.534e-4
-1.144, -3.524e-4
-1.143, -3.524e-4
-1.142, -3.526e-4
-1.141, -3.517e-4
-1.140, -3.506e-4
-1.139, -3.501e-4
-1.138, -3.484e-4
-1.137, -3.478e-4
-1.136, -3.468e-4
-1.135, -3.458e-4
-1.134, -3.454e-4
-1.133, -3.441e-4
-1.132, -3.448e-4
-1.131, -3.442e-4
-1.130, -3.416e-4
-1.129, -3.406e-4
-1.128, -3.399e-4
-1.127, -3.397e-4
-1.126, -3.386e-4
-1.125, -3.370e-4
-1.124, -3.365e-4
-1.123, -3.366e-4
-1.122, -3.360e-4
-1.121, -3.352e-4
-1.120, -3.336e-4
-1.119, -3.330e-4
-1.118, -3.330e-4
-1.117, -3.323e-4
-1.116, -3.314e-4
-1.115, -3.301e-4
-1.114, -3.291e-4
-1.113, -3.290e-4
-1.112, -3.284e-4
-1.111, -3.281e-4
-1.110, -3.270e-4
-1.109, -3.261e-4
-1.108, -3.260e-4
-1.107, -3.258e-4
-1.106, -3.246e-4
-1.105, -3.237e-4
-1.104, -3.226e-4
-1.103, -3.227e-4
-1.102, -3.227e-4
-1.101, -3.219e-4
-1.100, -3.207e-4
-1.099, -3.200e-4
-1.098, -3.199e-4
-1.097, -3.196e-4
-1.096, -3.186e-4
-1.095, -3.176e-4
-1.094, -3.170e-4
-1.093, -3.169e-4
-1.092, -3.169e-4
-1.091, -3.164e-4
-1.090, -3.151e-4
-1.089, -3.145e-4
-1.088, -3.142e-4
-1.087, -3.139e-4
-1.086, -3.133e-4
-1.085, -3.121e-4
-1.084, -3.117e-4
-1.083, -3.118e-4
-1.082, -3.129e-4
-1.081, -3.112e-4
-1.080, -3.099e-4
-1.079, -3.094e-4
-1.078, -3.104e-4
-1.077, -3.116e-4
-1.076, -3.116e-4
-1.075, -3.097e-4
-1.074, -3.089e-4
-1.073, -3.097e-4
-1.072, -3.110e-4
-1.071, -3.106e-4
-1.070, -3.101e-4
-1.069, -3.103e-4
-1.068, -3.112e-4
-1.067, -3.112e-4
-1.066, -3.100e-4
-1.065, -3.095e-4
-1.064, -3.085e-4
-1.063, -3.083e-4
-1.062, -3.094e-4
-1.061, -3.094e-4
-1.060, -3.089e-4
-1.059, -3.090e-4
-1.058, -3.092e-4
-1.057, -3.094e-4
-1.056, -3.085e-4
-1.055, -3.077e-4
-1.054, -3.076e-4
-1.053, -3.076e-4
-1.052, -3.081e-4
-1.051, -3.079e-4
-1.050, -3.070e-4
-1.049, -3.072e-4
-1.048, -3.074e-4
-1.047, -3.075e-4
-1.046, -3.078e-4
-1.045, -3.068e-4
-1.044, -3.070e-4
-1.043, -3.078e-4
-1.042, -3.079e-4
-1.041, -3.080e-4
-1.040, -3.074e-4
-1.039, -3.077e-4
-1.038, -3.084e-4
-1.037, -3.084e-4
-1.036, -3.085e-4
-1.035, -3.081e-4
-1.034, -3.084e-4
-1.033, -3.095e-4
-1.032, -3.099e-4
-1.031, -3.100e-4
-1.030, -3.098e-4
-1.029, -3.099e-4
-1.028, -3.106e-4
-1.027, -3.115e-4
-1.026, -3.115e-4
-1.025, -3.115e-4
-1.024, -3.118e-4
-1.023, -3.131e-4
-1.022, -3.138e-4
-1.021, -3.135e-4
-1.020, -3.134e-4
-1.019, -3.134e-4
-1.018, -3.143e-4
-1.017, -3.153e-4
-1.016, -3.153e-4
-1.015, -3.149e-4
-1.014, -3.156e-4
-1.013, -3.164e-4
-1.012, -3.174e-4
-1.011, -3.177e-4
-1.010, -3.177e-4
-1.009, -3.182e-4
-1.008, -3.193e-4
-1.007, -3.202e-4
-1.006, -3.206e-4
-1.005, -3.205e-4
-1.004, -3.212e-4
-1.003, -3.226e-4
-1.002, -3.233e-4
-1.001, -3.238e-4
-1.000, -2.784e-4
-1.001, -2.332e-4
-1.002, -2.071e-4
-1.003, -1.865e-4
-1.004, -1.679e-4
-1.005, -1.520e-4
-1.006, -1.379e-4
-1.007, -1.257e-4
-1.008, -1.149e-4
-1.009, -1.041e-4
-1.010, -9.401e-5
-1.011, -8.537e-5
-1.012, -7.758e-5
-1.013, -7.045e-5
-1.014, -6.318e-5
-1.015, -5.607e-5
-1.016, -5.013e-5
-1.017, -4.489e-5
-1.018, -3.964e-5
-1.019, -3.446e-5
-1.020, -2.900e-5
-1.021, -2.465e-5
-1.022, -2.086e-5
-1.023, -1.674e-5
-1.024, -1.250e-5
-1.025, -8.381e-6
-1.026, -4.888e-6
-1.027, -2.186e-6
-1.028, 1.102e-6
-1.029, 4.365e-6
-1.030, 7.892e-6
-1.031, 1.090e-5
-1.032, 1.293e-5
-1.033, 1.548e-5
-1.034, 1.852e-5
-1.035, 2.133e-5
-1.036, 2.380e-5
-1.037, 2.563e-5
-1.038, 2.757e-5
-1.039, 3.031e-5
-1.040, 3.255e-5
-1.041, 3.481e-5
-1.042, 3.644e-5
-1.043, 3.810e-5
-1.044, 4.038e-5
-1.045, 4.279e-5
-1.046, 4.457e-5
-1.047, 4.612e-5
-1.048, 4.747e-5
-1.049, 4.968e-5
-1.050, 5.187e-5
-1.051, 5.345e-5
-1.052, 5.485e-5
-1.053, 5.592e-5
-1.054, 5.784e-5
-1.055, 6.012e-5
-1.056, 6.136e-5
-1.057, 6.256e-5
-1.058, 6.398e-5
-1.059, 6.567e-5
-1.060, 6.788e-5
-1.061, 6.923e-5
-1.062, 7.016e-5
-1.063, 7.160e-5
-1.064, 7.312e-5
-1.065, 7.515e-5
-1.066, 7.659e-5
-1.067, 7.741e-5
-1.068, 7.877e-5
-1.069, 8.027e-5
-1.070, 8.224e-5
-1.071, 8.371e-5
-1.072, 8.434e-5
-1.073, 8.562e-5
-1.074, 8.732e-5
-1.075, 8.939e-5
-1.076, 9.078e-5
-1.077, 9.130e-5
-1.078, 9.238e-5
-1.079, 9.419e-5
-1.080, 9.588e-5
-1.081, 9.723e-5
-1.082, 9.810e-5
-1.083, 9.897e-5
-1.084, 1.008e-4
-1.085, 1.025e-4
-1.086, 1.037e-4
-1.087, 1.048e-4
-1.088, 1.055e-4
-1.089, 1.073e-4
-1.090, 1.091e-4
-1.091, 1.102e-4
-1.092, 1.112e-4
-1.093, 1.121e-4
-1.094, 1.138e-4
-1.095, 1.158e-4
-1.096, 1.167e-4
-1.097, 1.176e-4
-1.098, 1.187e-4
-1.099, 1.202e-4
-1.100, 1.223e-4
-1.101, 1.234e-4
-1.102, 1.242e-4
-1.103, 1.253e-4
-1.104, 1.267e-4
-1.105, 1.287e-4
-1.106, 1.299e-4
-1.107, 1.307e-4
-1.108, 1.321e-4
-1.109, 1.335e-4
-1.110, 1.355e-4
-1.111, 1.367e-4
-1.112, 1.375e-4
-1.113, 1.388e-4
-1.114, 1.405e-4
-1.115, 1.423e-4
-1.116, 1.439e-4
-1.117, 1.446e-4
-1.118, 1.458e-4
-1.119, 1.478e-4
-1.120, 1.496e-4
-1.121, 1.509e-4
-1.122, 1.520e-4
-1.123, 1.530e-4
-1.124, 1.551e-4
-1.125, 1.568e-4
-1.126, 1.583e-4
-1.127, 1.596e-4
-1.128, 1.607e-4
-1.129, 1.625e-4
-1.130, 1.646e-4
-1.131, 1.662e-4
-1.132, 1.673e-4
-1.133, 1.686e-4
-1.134, 1.704e-4
-1.135, 1.728e-4
-1.136, 1.741e-4
-1.137, 1.753e-4
-1.138, 1.769e-4
-1.139, 1.789e-4
-1.140, 1.813e-4
-1.141, 1.825e-4
-1.142, 1.840e-4
-1.143, 1.857e-4
-1.144, 1.876e-4
-1.145, 1.902e-4
-1.146, 1.918e-4
-1.147, 1.931e-4
-1.148, 1.949e-4
-1.149, 1.967e-4
-1.150, 1.996e-4
-1.151, 2.015e-4
-1.152, 2.026e-4
-1.153, 2.044e-4
-1.154, 2.068e-4
-1.155, 2.094e-4
-1.156, 2.115e-4
-1.157, 2.124e-4
-1.158, 2.143e-4
-1.159, 2.168e-4
-1.160, 2.192e-4
-1.161, 2.214e-4
-1.162, 2.230e-4
-1.163, 2.252e-4
-1.164, 2.279e-4
-1.165, 2.307e-4
-1.166, 2.327e-4
-1.167, 2.350e-4
-1.168, 2.371e-4
-1.169, 2.399e-4
-1.170, 2.423e-4
-1.171, 2.439e-4
-1.172, 2.459e-4
-1.173, 2.479e-4
-1.174, 2.505e-4
-1.175, 2.539e-4
-1.176, 2.560e-4
-1.177, 2.583e-4
-1.178, 2.611e-4
-1.179, 2.635e-4
-1.180, 2.672e-4
-1.181, 2.692e-4
-1.182, 2.713e-4
-1.183, 2.738e-4
-1.184, 2.766e-4
-1.185, 2.799e-4
-1.186, 2.823e-4
-1.187, 2.845e-4
-1.188, 2.871e-4
-1.189, 2.899e-4
-1.190, 2.933e-4
-1.191, 2.962e-4
-1.192, 2.978e-4
-1.193, 3.003e-4
-1.194, 3.035e-4
-1.195, 3.068e-4
-1.196, 3.098e-4
-1.197, 3.115e-4
-1.198, 3.142e-4
-1.199, 3.174e-4
-1.200, 3.202e-4
-1.201, 3.233e-4
-1.202, 3.254e-4
-1.203, 3.278e-4
-1.204, 3.309e-4
-1.205, 3.338e-4
-1.206, 3.362e-4
-1.207, 3.386e-4
-1.208, 3.406e-4
-1.209, 3.436e-4
-1.210, 3.467e-4
-1.211, 3.488e-4
-1.212, 3.509e-4
-1.213, 3.528e-4
-1.214, 3.559e-4
-1.215, 3.589e-4
-1.216, 3.606e-4
-1.217, 3.622e-4
-1.218, 3.641e-4
-1.219, 3.663e-4
-1.220, 3.696e-4
-1.221, 3.714e-4
-1.222, 3.727e-4
-1.223, 3.746e-4
-1.224, 3.770e-4
-1.225, 3.806e-4
-1.226, 3.824e-4
-1.227, 3.834e-4
-1.228, 3.853e-4
-1.229, 3.877e-4
-1.230, 3.891e-4
-1.231, 3.903e-4
-1.232, 3.907e-4
-1.233, 3.915e-4
-1.234, 3.929e-4
-1.235, 3.941e-4
-1.236, 3.950e-4
-1.237, 3.947e-4
-1.238, 3.952e-4
-1.239, 3.965e-4
-1.240, 3.969e-4
-1.241, 3.977e-4
-1.242, 3.974e-4
-1.243, 3.970e-4
-1.244, 3.975e-4
-1.245, 3.978e-4
-1.246, 3.979e-4
-1.247, 3.972e-4
-1.248, 3.965e-4
-1.249, 3.965e-4
-1.250, 3.968e-4
-1.251, 3.959e-4
-1.252, 3.945e-4
-1.253, 3.934e-4
-1.254, 3.931e-4
-1.255, 3.930e-4
-1.256, 3.914e-4
-1.257, 3.898e-4
-1.258, 3.881e-4
-1.259, 3.872e-4
-1.260, 3.867e-4
-1.261, 3.849e-4
-1.262, 3.833e-4
-1.263, 3.817e-4
-1.264, 3.799e-4
-1.265, 3.790e-4
-1.266, 3.775e-4
-1.267, 3.751e-4
-1.268, 3.732e-4
-1.269, 3.708e-4
-1.270, 3.695e-4
-1.271, 3.677e-4
-1.272, 3.649e-4
-1.273, 3.624e-4
-1.274, 3.607e-4
-1.275, 3.586e-4
-1.276, 3.564e-4
-1.277, 3.532e-4
-1.278, 3.509e-4
-1.279, 3.491e-4
-1.280, 3.473e-4
-1.281, 3.446e-4
-1.282, 3.416e-4
-1.283, 3.386e-4
-1.284, 3.367e-4
-1.285, 3.344e-4
-1.286, 3.322e-4
-1.287, 3.296e-4
-1.288, 3.269e-4
-1.289, 3.250e-4
-1.290, 3.235e-4
-1.291, 3.209e-4
-1.292, 3.183e-4
-1.293, 3.157e-4
-1.294, 3.141e-4
-1.295, 3.130e-4
-1.296, 3.107e-4
-1.297, 3.083e-4
-1.298, 3.063e-4
-1.299, 3.045e-4
-1.300, 3.039e-4
-1.301, 3.018e-4
-1.302, 2.998e-4
-1.303, 2.981e-4
-1.304, 2.971e-4
-1.305, 2.964e-4
-1.306, 2.949e-4
-1.307, 2.931e-4
-1.308, 2.923e-4
-1.309, 2.917e-4
-1.310, 2.917e-4
-1.311, 2.913e-4
-1.312, 2.900e-4
-1.313, 2.892e-4
-1.314, 2.895e-4
-1.315, 2.894e-4
-1.316, 2.897e-4
-1.317, 2.889e-4
-1.318, 2.889e-4
-1.319, 2.895e-4
-1.320, 2.902e-4
-1.321, 2.910e-4
-1.322, 2.910e-4
-1.323, 2.910e-4
-1.324, 2.926e-4
-1.325, 2.939e-4
-1.326, 2.949e-4
-1.327, 2.960e-4
-1.328, 2.967e-4
-1.329, 2.986e-4
-1.330, 3.007e-4
-1.331, 3.023e-4
-1.332, 3.036e-4
-1.333, 3.047e-4
-1.334, 3.069e-4
-1.335, 3.097e-4
-1.336, 3.117e-4
-1.337, 3.133e-4
-1.338, 3.158e-4
-1.339, 3.179e-4
-1.340, 3.214e-4
-1.341, 3.238e-4
-1.342, 3.261e-4
-1.343, 3.280e-4
-1.344, 3.305e-4
-1.345, 3.345e-4
-1.346, 3.375e-4
-1.347, 3.399e-4
-1.348, 3.434e-4
-1.349, 3.466e-4
-1.350, 3.508e-4
-1.351, 3.544e-4
-1.352, 3.570e-4
-1.353, 3.605e-4
-1.354, 3.650e-4
-1.355, 3.688e-4
-1.356, 3.729e-4
-1.357, 3.759e-4
-1.358, 3.796e-4
-1.359, 3.843e-4
-1.360, 3.885e-4
-1.361, 3.923e-4
-1.362, 3.960e-4
-1.363, 3.995e-4
-1.364, 4.048e-4
-1.365, 4.106e-4
-1.366, 4.149e-4
-1.367, 4.181e-4
-1.368, 4.220e-4
-1.369, 4.262e-4
-1.370, 4.310e-4
-1.371, 4.345e-4
-1.372, 4.384e-4
-1.373, 4.420e-4
-1.374, 4.464e-4
-1.375, 4.512e-4
-1.376, 4.550e-4
-1.377, 4.586e-4
-1.378, 4.626e-4
-1.379, 4.668e-4
-1.380, 4.717e-4
-1.381, 4.756e-4
-1.382, 4.794e-4
-1.383, 4.835e-4
-1.384, 4.878e-4
-1.385, 4.930e-4
-1.386, 4.976e-4
-1.387, 5.017e-4
-1.388, 5.070e-4
-1.389, 5.123e-4
-1.390, 5.185e-4
-1.391, 5.250e-4
-1.392, 5.313e-4
-1.393, 5.387e-4
-1.394, 5.475e-4
-1.395, 5.574e-4
-1.396, 5.682e-4
-1.397, 5.803e-4
-1.398, 5.937e-4
-1.399, 6.101e-4
-1.400, 6.289e-4
-1.401, 6.495e-4
-1.402, 6.723e-4
-1.403, 6.988e-4
-1.404, 7.304e-4
-1.405, 7.648e-4
-1.406, 8.031e-4
-1.407, 8.461e-4
-1.408, 8.930e-4
-1.409, 9.442e-4
-1.410, 9.999e-4
-1.411, 1.058e-3
-1.412, 1.120e-3
-1.413, 1.185e-3
-1.414, 1.252e-3
-1.415, 1.322e-3
-1.416, 1.392e-3
-1.417, 1.462e-3
-1.418, 1.532e-3
-1.419, 1.605e-3
-1.420, 1.679e-3
-1.421, 1.752e-3
-1.422, 1.826e-3
-1.423, 1.900e-3
-1.424, 1.973e-3
-1.425, 2.047e-3
-1.426, 2.122e-3
-1.427, 2.193e-3
-1.428, 2.256e-3
-1.429, 2.324e-3
-1.430, 2.395e-3
-1.431, 2.469e-3
-1.432, 2.538e-3
-1.433, 2.612e-3
-1.434, 2.681e-3
-1.435, 2.744e-3
-1.436, 2.809e-3
-1.437, 2.854e-3
-1.438, 2.914e-3
-1.439, 2.976e-3
-1.440, 3.035e-3
-1.441, 3.094e-3
-1.442, 3.150e-3
-1.443, 3.211e-3
-1.444, 3.266e-3
-1.445, 3.321e-3
-1.446, 3.383e-3
-1.447, 3.437e-3
-1.448, 3.491e-3
-1.449, 3.545e-3
-1.450, 3.598e-3
-1.451, 3.651e-3
-1.452, 3.701e-3
-1.453, 3.755e-3
-1.454, 3.808e-3
-1.455, 3.866e-3
-1.456, 3.928e-3
-1.457, 3.983e-3
-1.458, 4.043e-3
-1.459, 4.095e-3
-1.460, 4.155e-3
-1.461, 4.212e-3
-1.462, 4.258e-3
-1.463, 4.302e-3
-1.464, 4.355e-3
-1.465, 4.406e-3
-1.466, 4.462e-3
-1.467, 4.521e-3
-1.468, 4.573e-3
-1.469, 4.631e-3
-1.470, 4.685e-3
-1.471, 4.739e-3
-1.472, 4.787e-3
-1.473, 4.834e-3
-1.474, 4.893e-3
-1.475, 4.954e-3
-1.476, 5.040e-3
-1.477, 5.105e-3
-1.478, 5.165e-3
-1.479, 5.240e-3
-1.480, 5.295e-3
-1.481, 5.383e-3
-1.482, 5.454e-3
-1.483, 5.508e-3
-1.484, 5.581e-3
-1.485, 5.636e-3
-1.486, 5.725e-3
-1.487, 5.811e-3
-1.488, 5.892e-3
-1.489, 5.941e-3
-1.490, 5.982e-3
-1.491, 6.029e-3
-1.492, 6.082e-3
-1.493, 6.135e-3
-1.494, 6.195e-3
-1.495, 6.271e-3
-1.496, 6.353e-3
-1.497, 6.403e-3
-1.498, 6.475e-3
-1.499, 6.529e-3
-1.500, 6.486e-3
-1.499, 6.414e-3
-1.498, 6.355e-3
-1.497, 6.272e-3
-1.496, 6.187e-3
-1.495, 6.093e-3
-1.494, 6.024e-3
-1.493, 5.966e-3
-1.492, 5.915e-3
-1.491, 5.831e-3
-1.490, 5.769e-3
-1.489, 5.695e-3
-1.488, 5.621e-3
-1.487, 5.539e-3
-1.486, 5.465e-3
-1.485, 5.406e-3
-1.484, 5.356e-3
-1.483, 5.259e-3
-1.482, 5.196e-3
-1.481, 5.128e-3
-1.480, 5.043e-3
-1.479, 4.977e-3
-1.478, 4.915e-3
-1.477, 4.852e-3
-1.476, 4.779e-3
-1.475, 4.709e-3
-1.474, 4.678e-3
-1.473, 4.632e-3
-1.472, 4.588e-3
-1.471, 4.543e-3
-1.470, 4.499e-3
-1.469, 4.447e-3
-1.468, 4.367e-3
-1.467, 4.304e-3
-1.466, 4.269e-3
-1.465, 4.230e-3
-1.464, 4.186e-3
-1.463, 4.131e-3
-1.462, 4.063e-3
-1.461, 3.992e-3
-1.460, 3.909e-3
-1.459, 3.832e-3
-1.458, 3.764e-3
-1.457, 3.710e-3
-1.456, 3.654e-3
-1.455, 3.587e-3
-1.454, 3.524e-3
-1.453, 3.467e-3
-1.452, 3.401e-3
-1.451, 3.331e-3
-1.450, 3.251e-3
-1.449, 3.180e-3
-1.448, 3.119e-3
-1.447, 3.070e-3
-1.446, 3.016e-3
-1.445, 2.966e-3
-1.444, 2.924e-3
-1.443, 2.868e-3
-1.442, 2.809e-3
-1.441, 2.750e-3
-1.440, 2.690e-3
-1.439, 2.635e-3
-1.438, 2.582e-3
-1.437, 2.534e-3
-1.436, 2.470e-3
-1.435, 2.415e-3
-1.434, 2.364e-3
-1.433, 2.306e-3
-1.432, 2.234e-3
-1.431, 2.182e-3
-1.430, 2.132e-3
-1.429, 2.084e-3
-1.428, 2.026e-3
-1.427, 1.977e-3
-1.426, 1.929e-3
-1.425, 1.880e-3
-1.424, 1.832e-3
-1.423, 1.784e-3
-1.422, 1.734e-3
-1.421, 1.690e-3
-1.420, 1.646e-3
-1.419, 1.597e-3
-1.418, 1.553e-3
-1.417, 1.513e-3
-1.416, 1.468e-3
-1.415, 1.425e-3
-1.414, 1.382e-3
-1.413, 1.337e-3
-1.412, 1.294e-3
-1.411, 1.252e-3
-1.410, 1.219e-3
-1.409, 1.183e-3
-1.408, 1.150e-3
-1.407, 1.118e-3
-1.406, 1.086e-3
-1.405, 1.053e-3
-1.404, 1.023e-3
-1.403, 9.875e-4
-1.402, 9.521e-4
-1.401, 9.239e-4
-1.400, 8.976e-4
-1.399, 8.728e-4
-1.398, 8.444e-4
-1.397, 8.134e-4
-1.396, 7.840e-4
-1.395, 7.567e-4
-1.394, 7.290e-4
-1.393, 7.015e-4
-1.392, 6.767e-4
-1.391, 6.487e-4
-1.390, 6.225e-4
-1.389, 6.000e-4
-1.388, 5.774e-4
-1.387, 5.551e-4
-1.386, 5.344e-4
-1.385, 5.142e-4
-1.384, 4.928e-4
-1.383, 4.729e-4
-1.382, 4.545e-4
-1.381, 4.374e-4
-1.380, 4.199e-4
-1.379, 4.031e-4
-1.378, 3.853e-4
-1.377, 3.693e-4
-1.376, 3.562e-4
-1.375, 3.426e-4
-1.374, 3.278e-4
-1.373, 3.140e-4
-1.372, 3.009e-4
-1.371, 2.884e-4
-1.370, 2.759e-4
-1.369, 2.634e-4
-1.368, 2.513e-4
-1.367, 2.399e-4
-1.366, 2.297e-4
-1.365, 2.200e-4
-1.364, 2.102e-4
-1.363, 2.007e-4
-1.362, 1.907e-4
-1.361, 1.816e-4
-1.360, 1.742e-4
-1.359, 1.658e-4
-1.358, 1.572e-4
-1.357, 1.499e-4
-1.356, 1.432e-4
-1.355, 1.358e-4
-1.354, 1.290e-4
-1.353, 1.221e-4
-1.352, 1.158e-4
-1.351, 1.096e-4
-1.350, 1.042e-4
-1.349, 9.863e-5
-1.348, 9.242e-5
-1.347, 8.643e-5
-1.346, 8.076e-5
-1.345, 7.613e-5
-1.344, 7.155e-5
-1.343, 6.649e-5
-1.342, 6.098e-5
-1.341, 5.672e-5
-1.340, 5.290e-5
-1.339, 4.891e-5
-1.338, 4.438e-5
-1.337, 3.960e-5
-1.336, 3.615e-5
-1.335, 3.268e-5
-1.334, 2.906e-5
-1.333, 2.525e-5
-1.332, 2.185e-5
-1.331, 1.891e-5
-1.330, 1.634e-5
-1.329, 1.329e-5
-1.328, 1.022e-5
-1.327, 6.512e-6
-1.326, 3.475e-6
-1.325, 1.002e-6
-1.324, -1.819e-6
-1.323, -4.747e-6
-1.322, -7.621e-6
-1.321, -1.059e-5
-1.320, -1.199e-5
-1.319, -1.420e-5
-1.318, -1.727e-5
-1.317, -2.000e-5
-1.316, -2.224e-5
-1.315, -2.401e-5
-1.314, -2.589e-5
-1.313, -2.859e-5
-1.312, -3.085e-5
-1.311, -3.253e-5
-1.310, -3.436e-5
-1.309, -3.572e-5
-1.308, -3.839e-5
-1.307, -4.112e-5
-1.306, -4.293e-5
-1.305, -4.466e-5
-1.304, -4.621e-5
-1.303, -4.835e-5
-1.302, -5.056e-5
-1.301, -5.220e-5
-1.300, -5.369e-5
-1.299, -5.533e-5
-1.298, -5.747e-5
-1.297, -6.014e-5
-1.296, -6.159e-5
-1.295, -6.299e-5
-1.294, -6.448e-5
-1.293, -6.639e-5
-1.292, -6.858e-5
-1.291, -7.024e-5
-1.290, -7.120e-5
-1.289, -7.283e-5
-1.288, -7.441e-5
-1.287, -7.668e-5
-1.286, -7.856e-5
-1.285, -7.991e-5
-1.284, -8.154e-5
-1.283, -8.384e-5
-1.282, -8.578e-5
-1.281, -8.737e-5
-1.280, -8.876e-5
-1.279, -8.992e-5
-1.278, -9.197e-5
-1.277, -9.350e-5
-1.276, -9.518e-5
-1.275, -9.647e-5
-1.274, -9.747e-5
-1.273, -9.953e-5
-1.272, -1.013e-4
-1.271, -1.029e-4
-1.270, -1.040e-4
-1.269, -1.049e-4
-1.268, -1.070e-4
-1.267, -1.094e-4
-1.266, -1.108e-4
-1.265, -1.122e-4
-1.264, -1.129e-4
-1.263, -1.146e-4
-1.262, -1.168e-4
-1.261, -1.185e-4
-1.260, -1.201e-4
-1.259, -1.217e-4
-1.258, -1.239e-4
-1.257, -1.297e-4
-1.256, -1.313e-4
-1.255, -1.325e-4
-1.254, -1.336e-4
-1.253, -1.349e-4
-1.252, -1.373e-4
-1.251, -1.398e-4
-1.250, -1.412e-4
-1.249, -1.428e-4
-1.248, -1.444e-4
-1.247, -1.463e-4
-1.246, -1.480e-4
-1.245, -1.488e-4
-1.244, -1.505e-4
-1.243, -1.528e-4
-1.242, -1.551e-4
-1.241, -1.573e-4
-1.240, -1.586e-4
-1.239, -1.604e-4
-1.238, -1.631e-4
-1.237, -1.656e-4
-1.236, -1.681e-4
-1.235, -1.696e-4
-1.234, -1.713e-4
-1.233, -1.743e-4
-1.232, -1.768e-4
-1.231, -1.793e-4
-1.230, -1.816e-4
-1.229, -1.849e-4
-1.228, -1.872e-4
-1.227, -1.904e-4
-1.226, -1.921e-4
-1.225, -1.939e-4
-1.224, -1.961e-4
-1.223, -1.992e-4
-1.222, -2.030e-4
-1.221, -2.055e-4
-1.220, -2.069e-4
-1.219, -2.089e-4
-1.218, -2.117e-4
-1.217, -2.156e-4
-1.216, -2.186e-4
-1.215, -2.214e-4
-1.214, -2.243e-4
-1.213, -2.275e-4
-1.212, -2.311e-4
-1.211, -2.344e-4
-1.210, -2.368e-4
-1.209, -2.400e-4
-1.208, -2.432e-4
-1.207, -2.470e-4
-1.206, -2.507e-4
-1.205, -2.531e-4
-1.204, -2.562e-4
-1.203, -2.600e-4
-1.202, -2.637e-4
-1.201, -2.671e-4
-1.200, -2.697e-4
-1.199, -2.725e-4
-1.198, -2.761e-4
-1.197, -2.796e-4
-1.196, -2.831e-4
-1.195, -2.854e-4
-1.194, -2.882e-4
-1.193, -2.915e-4
-1.192, -2.946e-4
-1.191, -2.979e-4
-1.190, -3.002e-4
-1.189, -3.022e-4
-1.188, -3.059e-4
-1.187, -3.089e-4
-1.186, -3.113e-4
-1.185, -3.133e-4
-1.184, -3.146e-4
-1.183, -3.170e-4
-1.182, -3.196e-4
-1.181, -3.216e-4
-1.180, -3.233e-4
-1.179, -3.249e-4
-1.178, -3.270e-4
-1.177, -3.293e-4
-1.176, -3.306e-4
-1.175, -3.319e-4
-1.174, -3.328e-4
-1.173, -3.339e-4
-1.172, -3.359e-4
-1.171, -3.372e-4
-1.170, -3.373e-4
-1.169, -3.378e-4
-1.168, -3.394e-4
-1.167, -3.415e-4
-1.166, -3.434e-4
-1.165, -3.431e-4
-1.164, -3.436e-4
-1.163, -3.444e-4
-1.162, -3.451e-4
-1.161, -3.457e-4
-1.160, -3.457e-4
-1.159, -3.453e-4
-1.158, -3.454e-4
-1.157, -3.455e-4
-1.156, -3.462e-4
-1.155, -3.455e-4
-1.154, -3.447e-4
-1.153, -3.446e-4
-1.152, -3.447e-4
-1.151, -3.446e-4
-1.150, -3.438e-4
-1.149, -3.425e-4
-1.148, -3.422e-4
-1.147, -3.427e-4
-1.146, -3.424e-4
-1.145, -3.417e-4
-1.144, -3.402e-4
-1.143, -3.396e-4
-1.142, -3.393e-4
-1.141, -3.387e-4
-1.140, -3.378e-4
-1.139, -3.366e-4
-1.138, -3.359e-4
-1.137, -3.360e-4
-1.136, -3.351e-4
-1.135, -3.344e-4
-1.134, -3.335e-4
-1.133, -3.333e-4
-1.132, -3.329e-4
-1.131, -3.324e-4
-1.130, -3.310e-4
-1.129, -3.296e-4
-1.128, -3.288e-4
-1.127, -3.288e-4
-1.126, -3.286e-4
-1.125, -3.275e-4
-1.124, -3.258e-4
-1.123, -3.254e-4
-1.122, -3.247e-4
-1.121, -3.245e-4
-1.120, -3.231e-4
-1.119, -3.219e-4
-1.118, -3.212e-4
-1.117, -3.207e-4
-1.116, -3.204e-4
-1.115, -3.195e-4
-1.114, -3.182e-4
-1.113, -3.180e-4
-1.112, -3.175e-4
-1.111, -3.168e-4
-1.110, -3.159e-4
-1.109, -3.144e-4
-1.108, -3.142e-4
-1.107, -3.138e-4
-1.106, -3.135e-4
-1.105, -3.130e-4
-1.104, -3.115e-4
-1.103, -3.106e-4
-1.102, -3.104e-4
-1.101, -3.101e-4
-1.100, -3.094e-4
-1.099, -3.081e-4
-1.098, -3.073e-4
-1.097, -3.078e-4
-1.096, -3.071e-4
-1.095, -3.064e-4
-1.094, -3.051e-4
-1.093, -3.047e-4
-1.092, -3.047e-4
-1.091, -3.045e-4
-1.090, -3.036e-4
-1.089, -3.028e-4
-1.088, -3.021e-4
-1.087, -3.027e-4
-1.086, -3.021e-4
-1.085, -3.012e-4
-1.084, -3.002e-4
-1.083, -2.999e-4
-1.082, -2.998e-4
-1.081, -3.002e-4
-1.080, -2.991e-4
-1.079, -2.981e-4
-1.078, -2.977e-4
-1.077, -2.979e-4
-1.076, -2.982e-4
-1.075, -2.979e-4
-1.074, -2.969e-4
-1.073, -2.969e-4
-1.072, -2.968e-4
-1.071, -2.967e-4
-1.070, -2.964e-4
-1.069, -2.954e-4
-1.068, -2.953e-4
-1.067, -2.954e-4
-1.066, -2.953e-4
-1.065, -2.950e-4
-1.064, -2.941e-4
-1.063, -2.941e-4
-1.062, -2.948e-4
-1.061, -2.943e-4
-1.060, -2.941e-4
-1.059, -2.938e-4
-1.058, -2.937e-4
-1.057, -2.945e-4
-1.056, -2.943e-4
-1.055, -2.941e-4
-1.054, -2.934e-4
-1.053, -2.934e-4
-1.052, -2.946e-4
-1.051, -2.948e-4
-1.050, -2.948e-4
-1.049, -2.950e-4
-1.048, -2.950e-4
-1.047, -2.957e-4
-1.046, -2.961e-4
-1.045, -2.954e-4
-1.044, -2.949e-4
-1.043, -2.950e-4
-1.042, -2.956e-4
-1.041, -2.965e-4
-1.040, -2.963e-4
-1.039, -2.960e-4
-1.038, -2.962e-4
-1.037, -2.969e-4
-1.036, -2.973e-4
-1.035, -2.970e-4
-1.034, -2.969e-4
-1.033, -2.972e-4
-1.032, -2.980e-4
-1.031, -2.988e-4
-1.030, -2.993e-4
-1.029, -2.991e-4
-1.028, -2.993e-4
-1.027, -3.003e-4
-1.026, -3.008e-4
-1.025, -3.010e-4
-1.024, -3.010e-4
-1.023, -3.012e-4
-1.022, -3.020e-4
-1.021, -3.026e-4
-1.020, -3.032e-4
-1.019, -3.031e-4
-1.018, -3.036e-4
-1.017, -3.047e-4
-1.016, -3.055e-4
-1.015, -3.061e-4
-1.014, -3.064e-4
-1.013, -3.068e-4
-1.012, -3.078e-4
-1.011, -3.085e-4
-1.010, -3.091e-4
-1.009, -3.094e-4
-1.008, -3.096e-4
-1.007, -3.109e-4
-1.006, -3.121e-4
-1.005, -3.128e-4
-1.004, -3.391e-4
-1.003, -3.746e-4
-1.002, -3.728e-4
-1.001, -3.692e-4
-1.000, -3.199e-4
-1.001, -2.694e-4
-1.002, -2.383e-4
-1.003, -2.135e-4
-1.004, -1.926e-4
-1.005, -1.734e-4
-1.006, -1.559e-4
-1.007, -1.403e-4
-1.008, -1.270e-4
-1.009, -1.148e-4
-1.010, -1.033e-4
-1.011, -9.270e-5
-1.012, -8.310e-5
-1.013, -7.484e-5
-1.014, -6.733e-5
-1.015, -5.938e-5
-1.016, -5.247e-5
-1.017, -4.581e-5
-1.018, -4.028e-5
-1.019, -3.533e-5
-1.020, -2.981e-5
-1.021, -2.461e-5
-1.022, -1.977e-5
-1.023, -1.571e-5
-1.024, -1.174e-5
-1.025, -7.818e-6
-1.026, -3.557e-6
-1.027, -7.518e-8
-1.028, 3.125e-6
-1.029, 5.725e-6
-1.030, 9.167e-6
-1.031, 1.272e-5
-1.032, 1.563e-5
-1.033, 1.790e-5
-1.034, 2.023e-5
-1.035, 2.290e-5
-1.036, 2.587e-5
-1.037, 2.837e-5
-1.038, 3.013e-5
-1.039, 3.215e-5
-1.040, 3.431e-5
-1.041, 3.707e-5
-1.042, 3.946e-5
-1.043, 4.068e-5
-1.044, 4.236e-5
-1.045, 4.436e-5
-1.046, 4.668e-5
-1.047, 4.878e-5
-1.048, 5.020e-5
-1.049, 5.147e-5
-1.050, 5.341e-5
-1.051, 5.554e-5
-1.052, 5.743e-5
-1.053, 5.867e-5
-1.054, 5.972e-5
-1.055, 6.157e-5
-1.056, 6.351e-5
-1.057, 6.535e-5
-1.058, 6.648e-5
-1.059, 6.748e-5
-1.060, 6.929e-5
-1.061, 7.100e-5
-1.062, 7.267e-5
-1.063, 7.399e-5
-1.064, 7.477e-5
-1.065, 7.625e-5
-1.066, 7.832e-5
-1.067, 7.990e-5
-1.068, 8.107e-5
-1.069, 8.194e-5
-1.070, 8.339e-5
-1.071, 8.535e-5
-1.072, 8.674e-5
-1.073, 8.793e-5
-1.074, 8.888e-5
-1.075, 9.035e-5
-1.076, 9.216e-5
-1.077, 9.375e-5
-1.078, 9.461e-5
-1.079, 9.566e-5
-1.080, 9.681e-5
-1.081, 9.869e-5
-1.082, 1.003e-4
-1.083, 1.012e-4
-1.084, 1.021e-4
-1.085, 1.033e-4
-1.086, 1.051e-4
-1.087, 1.068e-4
-1.088, 1.077e-4
-1.089, 1.085e-4
-1.090, 1.100e-4
-1.091, 1.117e-4
-1.092, 1.133e-4
-1.093, 1.141e-4
-1.094, 1.149e-4
-1.095, 1.164e-4
-1.096, 1.181e-4
-1.097, 1.198e-4
-1.098, 1.207e-4
-1.099, 1.216e-4
-1.100, 1.230e-4
-1.101, 1.247e-4
-1.102, 1.262e-4
-1.103, 1.274e-4
-1.104, 1.281e-4
-1.105, 1.293e-4
-1.106, 1.314e-4
-1.107, 1.327e-4
-1.108, 1.340e-4
-1.109, 1.348e-4
-1.110, 1.361e-4
-1.111, 1.380e-4
-1.112, 1.396e-4
-1.113, 1.406e-4
-1.114, 1.417e-4
-1.115, 1.428e-4
-1.116, 1.449e-4
-1.117, 1.466e-4
-1.118, 1.478e-4
-1.119, 1.489e-4
-1.120, 1.501e-4
-1.121, 1.520e-4
-1.122, 1.539e-4
-1.123, 1.550e-4
-1.124, 1.561e-4
-1.125, 1.574e-4
-1.126, 1.595e-4
-1.127, 1.615e-4
-1.128, 1.625e-4
-1.129, 1.637e-4
-1.130, 1.652e-4
-1.131, 1.671e-4
-1.132, 1.692e-4
-1.133, 1.704e-4
-1.134, 1.714e-4
-1.135, 1.733e-4
-1.136, 1.750e-4
-1.137, 1.773e-4
-1.138, 1.787e-4
-1.139, 1.797e-4
-1.140, 1.817e-4
-1.141, 1.834e-4
-1.142, 1.858e-4
-1.143, 1.874e-4
-1.144, 1.884e-4
-1.145, 1.902e-4
-1.146, 1.926e-4
-1.147, 1.947e-4
-1.148, 1.966e-4
-1.149, 1.978e-4
-1.150, 1.996e-4
-1.151, 2.021e-4
-1.152, 2.041e-4
-1.153, 2.062e-4
-1.154, 2.076e-4
-1.155, 2.093e-4
-1.156, 2.118e-4
-1.157, 2.143e-4
-1.158, 2.163e-4
-1.159, 2.181e-4
-1.160, 2.198e-4
-1.161, 2.225e-4
-1.162, 2.250e-4
-1.163, 2.269e-4
-1.164, 2.286e-4
-1.165, 2.307e-4
-1.166, 2.335e-4
-1.167, 2.353e-4
-1.168, 2.364e-4
-1.169, 2.386e-4
-1.170, 2.410e-4
-1.171, 2.437e-4
-1.172, 2.467e-4
-1.173, 2.487e-4
-1.174, 2.501e-4
-1.175, 2.523e-4
-1.176, 2.549e-4
-1.177, 2.582e-4
-1.178, 2.606e-4
-1.179, 2.625e-4
-1.180, 2.648e-4
-1.181, 2.674e-4
-1.182, 2.706e-4
-1.183, 2.732e-4
-1.184, 2.751e-4
-1.185, 2.777e-4
-1.186, 2.804e-4
-1.187, 2.834e-4
-1.188, 2.861e-4
-1.189, 2.878e-4
-1.190, 2.903e-4
-1.191, 2.935e-4
-1.192, 2.964e-4
-1.193, 2.992e-4
-1.194, 3.014e-4
-1.195, 3.034e-4
-1.196, 3.066e-4
-1.197, 3.095e-4
-1.198, 3.121e-4
-1.199, 3.145e-4
-1.200, 3.165e-4
-1.201, 3.196e-4
-1.202, 3.229e-4
-1.203, 3.250e-4
-1.204, 3.271e-4
-1.205, 3.293e-4
-1.206, 3.323e-4
-1.207, 3.351e-4
-1.208, 3.370e-4
-1.209, 3.391e-4
-1.210, 3.415e-4
-1.211, 3.439e-4
-1.212, 3.472e-4
-1.213, 3.492e-4
-1.214, 3.508e-4
-1.215, 3.528e-4
-1.216, 3.550e-4
-1.217, 3.576e-4
-1.218, 3.596e-4
-1.219, 3.609e-4
-1.220, 3.628e-4
-1.221, 3.647e-4
-1.222, 3.669e-4
-1.223, 3.689e-4
-1.224, 3.698e-4
-1.225, 3.711e-4
-1.226, 3.730e-4
-1.227, 3.746e-4
-1.228, 3.765e-4
-1.229, 3.783e-4
-1.230, 3.787e-4
-1.231, 3.800e-4
-1.232, 3.812e-4
-1.233, 3.823e-4
-1.234, 3.828e-4
-1.235, 3.828e-4
-1.236, 3.840e-4
-1.237, 3.844e-4
-1.238, 3.851e-4
-1.239, 3.852e-4
-1.240, 3.849e-4
-1.241, 3.856e-4
-1.242, 3.867e-4
-1.243, 3.861e-4
-1.244, 3.862e-4
-1.245, 3.858e-4
-1.246, 3.854e-4
-1.247, 3.861e-4
-1.248, 3.857e-4
-1.249, 3.844e-4
-1.250, 3.826e-4
-1.251, 3.828e-4
-1.252, 3.832e-4
-1.253, 3.826e-4
-1.254, 3.814e-4
-1.255, 3.794e-4
-1.256, 3.793e-4
-1.257, 3.799e-4
-1.258, 3.784e-4
-1.259, 3.758e-4
-1.260, 3.741e-4
-1.261, 3.729e-4
-1.262, 3.717e-4
-1.263, 3.703e-4
-1.264, 3.680e-4
-1.265, 3.657e-4
-1.266, 3.640e-4
-1.267, 3.624e-4
-1.268, 3.606e-4
-1.269, 3.578e-4
-1.270, 3.552e-4
-1.271, 3.536e-4
-1.272, 3.519e-4
-1.273, 3.496e-4
-1.274, 3.467e-4
-1.275, 3.437e-4
-1.276, 3.418e-4
-1.277, 3.397e-4
-1.278, 3.378e-4
-1.279, 3.351e-4
-1.280, 3.326e-4
-1.281, 3.301e-4
-1.282, 3.280e-4
-1.283, 3.258e-4
-1.284, 3.231e-4
-1.285, 3.198e-4
-1.286, 3.179e-4
-1.287, 3.163e-4
-1.288, 3.136e-4
-1.289, 3.112e-4
-1.290, 3.087e-4
-1.291, 3.060e-4
-1.292, 3.047e-4
-1.293, 3.027e-4
-1.294, 3.004e-4
-1.295, 2.979e-4
-1.296, 2.961e-4
-1.297, 2.952e-4
-1.298, 2.931e-4
-1.299, 2.899e-4
-1.300, 2.884e-4
-1.301, 2.869e-4
-1.302, 2.860e-4
-1.303, 2.849e-4
-1.304, 2.829e-4
-1.305, 2.816e-4
-1.306, 2.809e-4
-1.307, 2.801e-4
-1.308, 2.796e-4
-1.309, 2.779e-4
-1.310, 2.768e-4
-1.311, 2.765e-4
-1.312, 2.765e-4
-1.313, 2.762e-4
-1.314, 2.757e-4
-1.315, 2.754e-4
-1.316, 2.757e-4
-1.317, 2.759e-4
-1.318, 2.762e-4
-1.319, 2.759e-4
-1.320, 2.755e-4
-1.321, 2.764e-4
-1.322, 2.773e-4
-1.323, 2.781e-4
-1.324, 2.788e-4
-1.325, 2.791e-4
-1.326, 2.804e-4
-1.327, 2.822e-4
-1.328, 2.834e-4
-1.329, 2.846e-4
-1.330, 2.857e-4
-1.331, 2.871e-4
-1.332, 2.895e-4
-1.333, 2.913e-4
-1.334, 2.932e-4
-1.335, 2.946e-4
-1.336, 2.969e-4
-1.337, 2.997e-4
-1.338, 3.025e-4
-1.339, 3.040e-4
-1.340, 3.064e-4
-1.341, 3.090e-4
-1.342, 3.122e-4
-1.343, 3.156e-4
-1.344, 3.177e-4
-1.345, 3.202e-4
-1.346, 3.233e-4
-1.347, 3.267e-4
-1.348, 3.307e-4
-1.349, 3.334e-4
-1.350, 3.361e-4
-1.351, 3.401e-4
-1.352, 3.436e-4
-1.353, 3.476e-4
-1.354, 3.508e-4
-1.355, 3.538e-4
-1.356, 3.578e-4
-1.357, 3.619e-4
-1.358, 3.659e-4
-1.359, 3.693e-4
-1.360, 3.724e-4
-1.361, 3.766e-4
-1.362, 3.809e-4
-1.363, 3.853e-4
-1.364, 3.891e-4
-1.365, 3.922e-4
-1.366, 3.960e-4
-1.367, 4.006e-4
-1.368, 4.046e-4
-1.369, 4.082e-4
-1.370, 4.121e-4
-1.371, 4.160e-4
-1.372, 4.207e-4
-1.373, 4.252e-4
-1.374, 4.282e-4
-1.375, 4.317e-4
-1.376, 4.356e-4
-1.377, 4.401e-4
-1.378, 4.443e-4
-1.379, 4.474e-4
-1.380, 4.513e-4
-1.381, 4.550e-4
-1.382, 4.602e-4
-1.383, 4.646e-4
-1.384, 4.677e-4
-1.385, 4.714e-4
-1.386, 4.761e-4
-1.387, 4.810e-4
-1.388, 4.866e-4
-1.389, 4.909e-4
-1.390, 4.960e-4
-1.391, 5.023e-4
-1.392, 5.089e-4
-1.393, 5.165e-4
-1.394, 5.238e-4
-1.395, 5.318e-4
-1.396, 5.419e-4
-1.397, 5.529e-4
-1.398, 5.657e-4
-1.399, 5.796e-4
-1.400, 5.946e-4
-1.401, 6.128e-4
-1.402, 6.343e-4
-1.403, 6.576e-4
-1.404, 6.841e-4
-1.405, 7.128e-4
-1.406, 7.466e-4
-1.407, 7.847e-4
-1.408, 8.256e-4
-1.409, 8.703e-4
-1.410, 9.176e-4
-1.411, 9.695e-4
-1.412, 1.026e-3
-1.413, 1.084e-3
-1.414, 1.145e-3
-1.415, 1.207e-3
-1.416, 1.270e-3
-1.417, 1.337e-3
-1.418, 1.405e-3
-1.419, 1.472e-3
-1.420, 1.542e-3
-1.421, 1.613e-3
-1.422, 1.685e-3
-1.423, 1.757e-3
-1.424, 1.828e-3
-1.425, 1.900e-3
-1.426, 1.974e-3
-1.427, 2.046e-3
-1.428, 2.120e-3
-1.429, 2.191e-3
-1.430, 2.261e-3
-1.431, 2.333e-3
-1.432, 2.400e-3
-1.433, 2.466e-3
-1.434, 2.534e-3
-1.435, 2.601e-3
-1.436, 2.668e-3
-1.437, 2.733e-3
-1.438, 2.799e-3
-1.439, 2.866e-3
-1.440, 2.927e-3
-1.441, 2.987e-3
-1.442, 3.050e-3
-1.443, 3.108e-3
-1.444, 3.168e-3
-1.445, 3.228e-3
-1.446, 3.287e-3
-1.447, 3.342e-3
-1.448, 3.404e-3
-1.449, 3.455e-3
-1.450, 3.504e-3
-1.451, 3.552e-3
-1.452, 3.604e-3
-1.453, 3.664e-3
-1.454, 3.730e-3
-1.455, 3.794e-3
-1.456, 3.852e-3
-1.457, 3.912e-3
-1.458, 3.971e-3
-1.459, 4.021e-3
-1.460, 4.079e-3
-1.461, 4.142e-3
-1.462, 4.188e-3
-1.463, 4.247e-3
-1.464, 4.324e-3
-1.465, 4.422e-3
-1.466, 4.474e-3
-1.467, 4.500e-3
-1.468, 4.494e-3
-1.469, 4.557e-3
-1.470, 4.596e-3
-1.471, 4.635e-3
-1.472, 4.699e-3
-1.473, 4.754e-3
-1.474, 4.797e-3
-1.475, 4.867e-3
-1.476, 4.930e-3
-1.477, 4.986e-3
-1.478, 5.048e-3
-1.479, 5.093e-3
-1.480, 5.152e-3
-1.481, 5.227e-3
-1.482, 5.280e-3
-1.483, 5.325e-3
-1.484, 5.375e-3
-1.485, 5.437e-3
-1.486, 5.504e-3
-1.487, 5.572e-3
-1.488, 5.656e-3
-1.489, 5.718e-3
-1.490, 5.772e-3
-1.491, 5.826e-3
-1.492, 5.872e-3
-1.493, 5.918e-3
-1.494, 5.965e-3
-1.495, 5.996e-3
-1.496, 6.051e-3
-1.497, 6.126e-3
-1.498, 6.190e-3
-1.499, 6.269e-3
-1.500, 6.253e-3
-1.499, 6.189e-3
-1.498, 6.107e-3
-1.497, 6.031e-3
-1.496, 5.950e-3
-1.495, 5.884e-3
-1.494, 5.832e-3
-1.493, 5.761e-3
-1.492, 5.684e-3
-1.491, 5.613e-3
-1.490, 5.544e-3
-1.489, 5.464e-3
-1.488, 5.388e-3
-1.487, 5.303e-3
-1.486, 5.224e-3
-1.485, 5.159e-3
-1.484, 5.088e-3
-1.483, 5.004e-3
-1.482, 4.929e-3
-1.481, 4.867e-3
-1.480, 4.812e-3
-1.479, 4.765e-3
-1.478, 4.704e-3
-1.477, 4.667e-3
-1.476, 4.603e-3
-1.475, 4.566e-3
-1.474, 4.540e-3
-1.473, 4.472e-3
-1.472, 4.400e-3
-1.471, 4.325e-3
-1.470, 4.272e-3
-1.469, 4.271e-3
-1.468, 4.236e-3
-1.467, 4.175e-3
-1.466, 4.135e-3
-1.465, 4.080e-3
-1.464, 4.008e-3
-1.463, 3.931e-3
-1.462, 3.876e-3
-1.461, 3.831e-3
-1.460, 3.773e-3
-1.459, 3.705e-3
-1.458, 3.644e-3
-1.457, 3.573e-3
-1.456, 3.510e-3
-1.455, 3.438e-3
-1.454, 3.373e-3
-1.453, 3.311e-3
-1.452, 3.250e-3
-1.451, 3.182e-3
-1.450, 3.124e-3
-1.449, 3.068e-3
-1.448, 3.023e-3
-1.447, 2.974e-3
-1.446, 2.893e-3
-1.445, 2.832e-3
-1.444, 2.772e-3
-1.443, 2.719e-3
-1.442, 2.675e-3
-1.441, 2.620e-3
-1.440, 2.565e-3
-1.439, 2.509e-3
-1.438, 2.455e-3
-1.437, 2.402e-3
-1.436, 2.348e-3
-1.435, 2.293e-3
-1.434, 2.236e-3
-1.433, 2.186e-3
-1.432, 2.138e-3
-1.431, 2.086e-3
-1.430, 2.033e-3
-1.429, 1.985e-3
-1.428, 1.942e-3
-1.427, 1.895e-3
-1.426, 1.838e-3
-1.425, 1.795e-3
-1.424, 1.775e-3
-1.423, 1.715e-3
-1.422, 1.661e-3
-1.421, 1.613e-3
-1.420, 1.565e-3
-1.419, 1.519e-3
-1.418, 1.479e-3
-1.417, 1.441e-3
-1.416, 1.403e-3
-1.415, 1.364e-3
-1.414, 1.324e-3
-1.413, 1.282e-3
-1.412, 1.246e-3
-1.411, 1.211e-3
-1.410, 1.174e-3
-1.409, 1.135e-3
-1.408, 1.097e-3
-1.407, 1.063e-3
-1.406, 1.030e-3
-1.405, 9.957e-4
-1.404, 9.639e-4
-1.403, 9.303e-4
-1.402, 9.009e-4
-1.401, 8.709e-4
-1.400, 8.420e-4
-1.399, 8.138e-4
-1.398, 7.887e-4
-1.397, 7.625e-4
-1.396, 7.365e-4
-1.395, 7.106e-4
-1.394, 6.853e-4
-1.393, 6.606e-4
-1.392, 6.375e-4
-1.391, 6.155e-4
-1.390, 5.918e-4
-1.389, 5.702e-4
-1.388, 5.486e-4
-1.387, 5.295e-4
-1.386, 5.093e-4
-1.385, 4.889e-4
-1.384, 4.701e-4
-1.383, 4.520e-4
-1.382, 4.354e-4
-1.381, 4.196e-4
-1.380, 4.020e-4
-1.379, 3.852e-4
-1.378, 3.703e-4
-1.377, 3.571e-4
-1.376, 3.433e-4
-1.375, 3.316e-4
-1.374, 3.175e-4
-1.373, 3.042e-4
-1.372, 2.919e-4
-1.371, 2.793e-4
-1.370, 2.667e-4
-1.369, 2.537e-4
-1.368, 2.428e-4
-1.367, 2.323e-4
-1.366, 2.219e-4
-1.365, 2.123e-4
-1.364, 2.014e-4
-1.363, 1.919e-4
-1.362, 1.835e-4
-1.361, 1.743e-4
-1.360, 1.654e-4
-1.359, 1.573e-4
-1.358, 1.488e-4
-1.357, 1.407e-4
-1.356, 1.331e-4
-1.355, 1.255e-4
-1.354, 1.186e-4
-1.353, 1.123e-4
-1.352, 1.069e-4
-1.351, 1.010e-4
-1.350, 9.448e-5
-1.349, 8.842e-5
-1.348, 8.259e-5
-1.347, 7.758e-5
-1.346, 7.285e-5
-1.345, 6.665e-5
-1.344, 6.146e-5
-1.343, 5.699e-5
-1.342, 5.353e-5
-1.341, 5.044e-5
-1.340, 4.586e-5
-1.339, 4.139e-5
-1.338, 3.730e-5
-1.337, 3.367e-5
-1.336, 3.050e-5
-1.335, 2.654e-5
-1.334, 2.285e-5
-1.333, 1.987e-5
-1.332, 1.715e-5
-1.331, 1.468e-5
-1.330, 1.066e-5
-1.329, 7.033e-6
-1.328, 4.568e-6
-1.327, 1.927e-6
-1.326, -8.960e-7
-1.325, -3.237e-6
-1.324, -5.916e-6
-1.323, -8.394e-6
-1.322, -1.046e-5
-1.321, -1.274e-5
-1.320, -1.526e-5
-1.319, -1.815e-5
-1.318, -2.037e-5
-1.317, -2.173e-5
-1.316, -2.381e-5
-1.315, -2.680e-5
-1.314, -2.919e-5
-1.313, -3.162e-5
-1.312, -3.330e-5
-1.311, -3.522e-5
-1.310, -3.743e-5
-1.309, -3.935e-5
-1.308, -4.106e-5
-1.307, -4.270e-5
-1.306, -4.455e-5
-1.305, -4.758e-5
-1.304, -4.949e-5
-1.303, -5.098e-5
-1.302, -5.290e-5
-1.301, -5.439e-5
-1.300, -5.647e-5
-1.299, -5.874e-5
-1.298, -6.002e-5
-1.297, -6.117e-5
-1.296, -6.228e-5
-1.295, -6.406e-5
-1.294, -6.615e-5
-1.293, -6.751e-5
-1.292, -6.890e-5
-1.291, -7.041e-5
-1.290, -7.273e-5
-1.289, -7.534e-5
-1.288, -7.589e-5
-1.287, -7.700e-5
-1.286, -7.843e-5
-1.285, -8.008e-5
-1.284, -8.240e-5
-1.283, -8.381e-5
-1.282, -8.494e-5
-1.281, -8.667e-5
-1.280, -8.883e-5
-1.279, -9.082e-5
-1.278, -9.245e-5
-1.277, -9.308e-5
-1.276, -9.443e-5
-1.275, -9.648e-5
-1.274, -9.841e-5
-1.273, -1.002e-4
-1.272, -1.014e-4
-1.271, -1.024e-4
-1.270, -1.043e-4
-1.269, -1.065e-4
-1.268, -1.081e-4
-1.267, -1.091e-4
-1.266, -1.103e-4
-1.265, -1.126e-4
-1.264, -1.145e-4
-1.263, -1.162e-4
-1.262, -1.178e-4
-1.261, -1.188e-4
-1.260, -1.208e-4
-1.259, -1.229e-4
-1.258, -1.247e-4
-1.257, -1.263e-4
-1.256, -1.275e-4
-1.255, -1.301e-4
-1.254, -1.325e-4
-1.253, -1.339e-4
-1.252, -1.352e-4
-1.251, -1.365e-4
-1.250, -1.385e-4
-1.249, -1.411e-4
-1.248, -1.425e-4
-1.247, -1.437e-4
-1.246, -1.454e-4
-1.245, -1.474e-4
-1.244, -1.504e-4
-1.243, -1.532e-4
-1.242, -1.559e-4
-1.241, -1.579e-4
-1.240, -1.596e-4
-1.239, -1.620e-4
-1.238, -1.633e-4
-1.237, -1.638e-4
-1.236, -1.662e-4
-1.235, -1.707e-4
-1.234, -1.751e-4
-1.233, -1.775e-4
-1.232, -1.775e-4
-1.231, -1.794e-4
-1.230, -1.821e-4
-1.229, -1.861e-4
-1.228, -1.895e-4
-1.227, -1.923e-4
-1.226, -1.931e-4
-1.225, -1.951e-4
-1.224, -1.971e-4
-1.223, -1.991e-4
-1.222, -2.005e-4
-1.221, -2.023e-4
-1.220, -2.055e-4
-1.219, -2.092e-4
-1.218, -2.120e-4
-1.217, -2.152e-4
-1.216, -2.174e-4
-1.215, -2.208e-4
-1.214, -2.244e-4
-1.213, -2.271e-4
-1.212, -2.297e-4
-1.211, -2.326e-4
-1.210, -2.358e-4
-1.209, -2.400e-4
-1.208, -2.431e-4
-1.207, -2.460e-4
-1.206, -2.494e-4
-1.205, -2.527e-4
-1.204, -2.567e-4
-1.203, -2.606e-4
-1.202, -2.629e-4
-1.201, -2.659e-4
-1.200, -2.691e-4
-1.199, -2.732e-4
-1.198, -2.766e-4
-1.197, -2.794e-4
-1.196, -2.825e-4
-1.195, -2.859e-4
-1.194, -2.897e-4
-1.193, -2.926e-4
-1.192, -2.943e-4
-1.191, -2.964e-4
-1.190, -2.993e-4
-1.189, -3.020e-4
-1.188, -3.050e-4
-1.187, -3.075e-4
-1.186, -3.093e-4
-1.185, -3.121e-4
-1.184, -3.151e-4
-1.183, -3.176e-4
-1.182, -3.193e-4
-1.181, -3.205e-4
-1.180, -3.226e-4
-1.179, -3.246e-4
-1.178, -3.267e-4
-1.177, -3.278e-4
-1.176, -3.285e-4
-1.175, -3.303e-4
-1.174, -3.322e-4
-1.173, -3.334e-4
-1.172, -3.340e-4
-1.171, -3.348e-4
-1.170, -3.354e-4
-1.169, -3.370e-4
-1.168, -3.378e-4
-1.167, -3.381e-4
-1.166, -3.386e-4
-1.165, -3.388e-4
-1.164, -3.400e-4
-1.163, -3.405e-4
-1.162, -3.403e-4
-1.161, -3.403e-4
-1.160, -3.402e-4
-1.159, -3.414e-4
-1.158, -3.420e-4
-1.157, -3.421e-4
-1.156, -3.410e-4
-1.155, -3.404e-4
-1.154, -3.404e-4
-1.153, -3.402e-4
-1.152, -3.393e-4
-1.151, -3.384e-4
-1.150, -3.382e-4
-1.149, -3.379e-4
-1.148, -3.377e-4
-1.147, -3.368e-4
-1.146, -3.357e-4
-1.145, -3.354e-4
-1.144, -3.352e-4
-1.143, -3.344e-4
-1.142, -3.335e-4
-1.141, -3.321e-4
-1.140, -3.317e-4
-1.139, -3.316e-4
-1.138, -3.307e-4
-1.137, -3.300e-4
-1.136, -3.283e-4
-1.135, -3.281e-4
-1.134, -3.280e-4
-1.133, -3.276e-4
-1.132, -3.330e-4
-1.131, -3.331e-4
-1.130, -3.325e-4
-1.129, -3.324e-4
-1.128, -3.315e-4
-1.127, -3.307e-4
-1.126, -3.295e-4
-1.125, -3.285e-4
-1.124, -3.283e-4
-1.123, -3.276e-4
-1.122, -3.264e-4
-1.121, -3.252e-4
-1.120, -3.213e-4
-1.119, -3.176e-4
-1.118, -3.167e-4
-1.117, -3.150e-4
-1.116, -3.140e-4
-1.115, -3.132e-4
-1.114, -3.127e-4
-1.113, -3.127e-4
-1.112, -3.111e-4
-1.111, -3.099e-4
-1.110, -3.095e-4
-1.109, -3.103e-4
-1.108, -3.099e-4
-1.107, -3.081e-4
-1.106, -3.068e-4
-1.105, -3.066e-4
-1.104, -3.064e-4
-1.103, -3.058e-4
-1.102, -3.046e-4
-1.101, -3.030e-4
-1.100, -3.028e-4
-1.099, -3.028e-4
-1.098, -3.025e-4
-1.097, -3.017e-4
-1.096, -2.999e-4
-1.095, -2.992e-4
-1.094, -2.993e-4
-1.093, -2.986e-4
-1.092, -2.978e-4
-1.091, -2.968e-4
-1.090, -2.965e-4
-1.089, -2.965e-4
-1.088, -2.962e-4
-1.087, -2.955e-4
-1.086, -2.944e-4
-1.085, -2.939e-4
-1.084, -2.942e-4
-1.083, -2.937e-4
-1.082, -2.930e-4
-1.081, -2.922e-4
-1.080, -2.917e-4
-1.079, -2.918e-4
-1.078, -2.918e-4
-1.077, -2.911e-4
-1.076, -2.906e-4
-1.075, -2.906e-4
-1.074, -2.904e-4
-1.073, -2.908e-4
-1.072, -2.899e-4
-1.071, -2.887e-4
-1.070, -2.886e-4
-1.069, -2.886e-4
-1.068, -2.890e-4
-1.067, -2.891e-4
-1.066, -2.886e-4
-1.065, -2.883e-4
-1.064, -2.882e-4
-1.063, -2.884e-4
-1.062, -2.880e-4
-1.061, -2.875e-4
-1.060, -2.875e-4
-1.059, -2.877e-4
-1.058, -2.878e-4
-1.057, -2.878e-4
-1.056, -2.868e-4
-1.055, -2.870e-4
-1.054, -2.878e-4
-1.053, -2.878e-4
-1.052, -2.877e-4
-1.051, -2.874e-4
-1.050, -2.873e-4
-1.049, -2.883e-4
-1.048, -2.882e-4
-1.047, -2.880e-4
-1.046, -2.879e-4
-1.045, -2.878e-4
-1.044, -2.887e-4
-1.043, -2.890e-4
-1.042, -2.888e-4
-1.041, -2.890e-4
-1.040, -2.887e-4
-1.039, -2.894e-4
-1.038, -2.900e-4
-1.037, -2.900e-4
-1.036, -2.898e-4
-1.035, -2.900e-4
-1.034, -2.905e-4
-1.033, -2.913e-4
-1.032, -2.912e-4
-1.031, -2.914e-4
-1.030, -2.920e-4
-1.029, -2.925e-4
-1.028, -2.931e-4
-1.027, -2.936e-4
-1.026, -2.933e-4
-1.025, -2.940e-4
-1.024, -2.954e-4
-1.023, -2.957e-4
-1.022, -2.964e-4
-1.021, -2.961e-4
-1.020, -2.964e-4
-1.019, -2.975e-4
-1.018, -2.981e-4
-1.017, -2.991e-4
-1.016, -2.989e-4
-1.015, -2.993e-4
-1.014, -3.005e-4
-1.013, -3.013e-4
-1.012, -3.020e-4
-1.011, -3.020e-4
-1.010, -3.023e-4
-1.009, -3.037e-4
-1.008, -3.044e-4
-1.007, -3.050e-4
-1.006, -3.056e-4
-1.005, -3.058e-4
-1.004, -3.076e-4
-1.003, -3.091e-4
-1.002, -3.098e-4
-1.001, -3.101e-4
