Potential V vs RHE, Current mA cm-2
0.013299999999999867,0.35127281575648867
0.012299999999999978,0.13122862017548081
0.011299999999999866,0.038126469531362735
0.010299999999999976,-0.02397935653271237
0.009299999999999864,-0.07394695964394547
0.008299999999999974,-0.11846792425069817
0.007299999999999862,-0.17047271163373692
0.006299999999999972,-0.22012907825899972
0.00529999999999986,-0.25068684233608446
0.0042999999999999705,-0.2820934331930883
0.0032999999999998586,-0.31477326421997065
0.0022999999999999687,-0.3533948827062862
0.0012999999999998568,-0.39215797232258814
0.00029999999999996696,-0.4163495355502803
-0.000700000000000145,-0.4379946184382154
-0.0017000000000000348,-0.46331795070579956
-0.0027000000000001467,-0.49246100348301924
-0.0037000000000000366,-0.5249993633799152
-0.0047000000000001485,-0.5479176864377286
-0.005700000000000038,-0.5599427324865814
-0.00670000000000015,-0.5844172379742467
-0.00770000000000004,-0.6108723392817229
-0.008700000000000152,-0.637044498329226
-0.009700000000000042,-0.659255465737107
-0.010700000000000154,-0.6736855209957305
-0.011700000000000044,-0.6906620565941108
-0.012700000000000156,-0.7161268599916816
-0.013700000000000045,-0.7387622407895221
-0.014700000000000157,-0.7560217186478756
-0.015700000000000047,-0.7664905822668768
-0.01670000000000016,-0.7833256467352708
-0.01770000000000005,-0.810346632562693
-0.01870000000000016,-0.8301525907608036
-0.01970000000000005,-0.845148530539373
-0.020700000000000163,-0.8573150477182123
-0.021700000000000053,-0.869905978287011
-0.022700000000000164,-0.8953707816845817
-0.023700000000000054,-0.9165914511825571
-0.024700000000000166,-0.9297482662713021
-0.025700000000000056,-0.9413488989301954
-0.026700000000000168,-0.9519592336791831
-0.027700000000000058,-0.9757263835169159
-0.02870000000000017,-0.9977958797948104
-0.02970000000000006,-1.008406214543798
-0.03070000000000017,-1.0211386162425835
-0.03170000000000006,-1.0297683551717602
-0.03270000000000017,-1.0508475535397492
-0.03370000000000006,-1.0739073477275494
-0.034700000000000175,-1.0843762113465507
-0.035700000000000065,-1.0931474214057137
-0.03670000000000018,-1.1064457076244452
-0.03770000000000007,-1.1262516658225556
-0.03870000000000018,-1.148038219840477
-0.03970000000000007,-1.1582241411995053
-0.04070000000000018,-1.1633171018790196
-0.04170000000000007,-1.179444810697481
-0.04270000000000018,-1.1968457596858209
-0.04370000000000007,-1.2160858333639855
-0.044700000000000184,-1.2303744174926226
-0.045700000000000074,-1.233345311222339
-0.046700000000000186,-1.2479168376109488
-0.047700000000000076,-1.2651763154693023
-0.04870000000000019,-1.284416389147467
-0.04970000000000008,-1.2989879155360766
-0.05070000000000019,-1.3033735205656583
-0.05170000000000008,-1.3114373749748889
-0.05270000000000019,-1.332799515602851
-0.05370000000000008,-1.3497760512012313
-0.05470000000000019,-1.3623669817700303
-0.05570000000000008,-1.366469644539639
-0.056700000000000195,-1.3759482102487348
-0.057700000000000085,-1.395754168446845
-0.058700000000000196,-1.412306290655266
-0.059700000000000086,-1.4246142789640919
-0.0607000000000002,-1.4302731241635522
-0.06170000000000009,-1.4430055258623373
-0.0627000000000002,-1.461396772760583
-0.06370000000000009,-1.4769585970590984
-0.0647000000000002,-1.4868615761581534
-0.06570000000000009,-1.4939351326574788
-0.0667000000000002,-1.499593977856939
-0.0677000000000001,-1.5179852247551844
-0.0687000000000002,-1.540620605553025
-0.0697000000000001,-1.546279450752485
-0.07070000000000021,-1.5547677185516753
-0.0717000000000001,-1.5618412750510005
-0.07270000000000021,-1.580232521949246
-0.0737000000000001,-1.6014531914472214
-0.07470000000000021,-1.6113561705462767
-0.0757000000000001,-1.6170150157457368
-0.07670000000000021,-1.6283327061446573
-0.0777000000000001,-1.643894530443173
-0.07870000000000021,-1.6665299112410132
-0.0797000000000001,-1.6792623129397986
-0.08070000000000022,-1.6820917355395286
-0.0817000000000001,-1.694824137238314
-0.08270000000000022,-1.7075565389370995
-0.08370000000000011,-1.7301919197349398
-0.08470000000000022,-1.7443390327335901
-0.08570000000000011,-1.7485831666331852
-0.08670000000000022,-1.7655597022315657
-0.08770000000000011,-1.7825362378299463
-0.08870000000000022,-1.8051716186277869
-0.08970000000000011,-1.823562865526032
-0.09070000000000022,-1.8278069994256272
-0.09170000000000011,-1.8405394011244125
-0.09270000000000023,-1.8645894932221183
-0.09370000000000012,-1.8858101627200938
-0.09470000000000023,-1.9056161209182045
-0.09570000000000012,-1.9112749661176645
-0.09670000000000023,-1.925422079116315
-0.09770000000000012,-1.9523015938137507
-0.09870000000000023,-1.9706928407119961
-0.09970000000000012,-1.9919135102099716
-0.10070000000000023,-2.0060606232086218
-0.10170000000000012,-2.017378313607542
-0.10270000000000024,-2.047087250904708
-0.10370000000000013,-2.0697226317025486
-0.10470000000000024,-2.0909433012005243
-0.10570000000000013,-2.1065051254990395
-0.10670000000000024,-2.11782281589796
-0.10770000000000013,-2.1461170418952604
-0.10870000000000024,-2.1758259791924264
-0.10970000000000013,-2.194217226090672
-0.11070000000000024,-2.216852606888512
-0.11170000000000013,-2.2324144311870278
-0.11270000000000002,-2.260708657184329
-0.11370000000000013,-2.2932470170812245
-0.11470000000000002,-2.3116382639794697
-0.11570000000000014,-2.33144422217758
-0.11670000000000003,-2.352664891675556
-0.11770000000000014,-2.380959117672857
-0.11870000000000003,-2.414912188869618
-0.11970000000000014,-2.438962280967323
-0.12070000000000003,-2.460182950465299
-0.12170000000000014,-2.4842330425630044
-0.12270000000000003,-2.509697845960575
-0.12370000000000014,-2.549309762356796
-0.12470000000000003,-2.576189277054232
-0.12570000000000014,-2.5931658126526123
-0.12670000000000003,-2.621460038649913
-0.12770000000000015,-2.6539983985468085
-0.12870000000000004,-2.6879514697435702
-0.12970000000000015,-2.7176604070407357
-0.13070000000000004,-2.7360516539389814
-0.13170000000000015,-2.7615164573365516
-0.13270000000000004,-2.8011283737327726
-0.13370000000000015,-2.836496156229398
-0.13470000000000004,-2.867619804826429
-0.13570000000000015,-2.89025518562427
-0.13670000000000004,-2.9171347003217054
-0.13770000000000016,-2.956746616717927
-0.13870000000000005,-2.996358533114148
-0.13970000000000016,-3.0274821817111786
-0.14070000000000005,-3.054361696408614
-0.14170000000000016,-3.07841178850632
-0.14270000000000005,-3.1166089936026755
-0.14370000000000016,-3.153391487399167
-0.14470000000000005,-3.1887592698957925
-0.14570000000000016,-3.2184682071929585
-0.14670000000000005,-3.2425182992906643
-0.14770000000000016,-3.28354492698675
-0.14870000000000005,-3.3302303998822964
-0.14970000000000017,-3.361354048479327
-0.15070000000000006,-3.3910629857764927
-0.15170000000000017,-3.4236013456733887
-0.15270000000000006,-3.4632132620696097
-0.15370000000000017,-3.507069312365426
-0.15470000000000006,-3.541022383562187
-0.15570000000000017,-3.5749754547589476
-0.15670000000000006,-3.6046843920561136
-0.15770000000000017,-3.6485404423519294
-0.15870000000000006,-3.696640626547341
-0.15970000000000018,-3.7362525429435625
-0.16070000000000007,-3.765961480240728
-0.16170000000000018,-3.8027439740372184
-0.16270000000000007,-3.84518531303317
-0.16370000000000018,-3.896114919828311
-0.16470000000000007,-3.939970970124127
-0.16570000000000018,-3.9725093300210226
-0.16670000000000007,-4.009291823817514
-0.16770000000000018,-4.050318451513601
-0.16870000000000007,-4.099833347008876
-0.16970000000000018,-4.143689397304692
-0.17070000000000007,-4.174813045901724
-0.17170000000000019,-4.213010250998079
-0.17270000000000008,-4.25828101259376
-0.1737000000000002,-4.302137062889576
-0.17470000000000008,-4.348822535785122
-0.1757000000000002,-4.382775606981883
-0.17670000000000008,-4.42380223467797
-0.1777000000000002,-4.470487707573516
-0.17870000000000008,-4.515758469169198
-0.1797000000000002,-4.561029230764878
-0.18070000000000008,-4.594982301961639
-0.1817000000000002,-4.631764795758129
-0.18270000000000008,-4.678450268653676
-0.1837000000000002,-4.727965164148953
-0.1847000000000001,-4.771821214444769
-0.1857000000000002,-4.80860370824126
-0.1867000000000001,-4.841142068138156
-0.1877000000000002,-4.883583407134107
-0.1887000000000001,-4.933098302629383
-0.1897000000000002,-4.976954352925199
-0.1907000000000001,-5.012322135421825
-0.1917000000000001,-5.046275206618586
-0.19269999999999998,-5.084472411714942
-0.1937000000000001,-5.135402018510083
-0.19469999999999998,-5.175013934906304
-0.1957000000000001,-5.2075522948032
-0.19669999999999999,-5.2386759434002315
-0.1977000000000001,-5.275458437196722
-0.1987,-5.322143910092268
-0.1997000000000001,-5.354682269989163
-0.2007,-5.3900500524857895
-0.2017000000000001,-5.41834427848309
-0.2027,-5.450882638379986
-0.2037000000000001,-5.493323977375938
-0.2047,-5.5272770485726985
-0.2057000000000001,-5.547083006770809
-0.2067,-5.572547810168379
-0.2077000000000001,-5.602256747465545
-0.2087,-5.631965684762711
-0.2097000000000001,-5.663089333359742
-0.2107,-5.681480580257988
-0.2117000000000001,-5.706945383655557
-0.2127,-5.736654320952724
-0.2137000000000001,-5.757874990450699
-0.2147,-5.773436814749215
-0.2157000000000001,-5.807389885945976
-0.2167,-5.813048731145436
-0.21770000000000012,-5.841342957142737
-0.2187,-5.854075358841522
-0.21970000000000012,-5.861148915340847
-0.2207,-5.8625636266407115
-0.22170000000000012,-5.869637183140037
-0.2227,-5.880954873538958
-0.22370000000000012,-5.892272563937878
-0.2247,-5.902175543036933
-0.22570000000000012,-5.897931409137338
-0.2267,-5.890857852638012
-0.22770000000000012,-5.896516697837473
-0.22870000000000001,-5.909249099536258
-0.22970000000000013,-5.903590254336798
-0.23070000000000002,-5.900760831737068
-0.23170000000000013,-5.880954873538958
-0.23270000000000002,-5.878125450939227
-0.23370000000000013,-5.879540162239093
-0.23470000000000002,-5.871051894439902
-0.23570000000000013,-5.858319492741117
-0.23670000000000002,-5.838513534543006
-0.2376999999999999,-5.824366421544356
-0.23870000000000002,-5.820122287644761
-0.2396999999999999,-5.804560463346245
-0.24070000000000003,-5.7833397938482705
-0.24169999999999991,-5.762119124350295
-0.24270000000000003,-5.7380690322525885
-0.24369999999999992,-5.728166053153534
-0.24470000000000003,-5.702701249755963
-0.24569999999999992,-5.6715776011589325
-0.24670000000000003,-5.646112797761361
-0.24769999999999992,-5.62064799436379
-0.24870000000000003,-5.596597902266086
-0.24969999999999992,-5.57537723276811
-0.25070000000000003,-5.538594738971618
-0.2516999999999999,-5.498982822575398
-0.25270000000000004,-5.469273885278232
-0.2536999999999999,-5.443809081880661
-0.25470000000000004,-5.4169295671832245
-0.2556999999999999,-5.371658805587544
-0.25670000000000004,-5.329217466591594
-0.25769999999999993,-5.295264395394832
-0.25870000000000004,-5.261311324198071
-0.25969999999999993,-5.228772964301175
-0.26070000000000004,-5.190575759204819
-0.26169999999999993,-5.142475575009408
-0.26270000000000004,-5.111351926412377
-0.26369999999999993,-5.075984143915751
-0.26470000000000005,-5.03637222751953
-0.26569999999999994,-4.996760311123309
-0.26670000000000005,-4.954318972127359
-0.26769999999999994,-4.9175364783308675
-0.26870000000000005,-4.886412829733837
-0.26969999999999994,-4.843971490737885
-0.27070000000000005,-4.80860370824126
-0.27169999999999994,-4.760503524045848
-0.27270000000000005,-4.729379875448817
-0.27369999999999994,-4.699670938151652
-0.27470000000000006,-4.6614737330552956
-0.27569999999999995,-4.61761768275948
-0.27670000000000006,-4.578005766363259
-0.27769999999999995,-4.545467406466363
-0.27870000000000006,-4.525661448268252
-0.27969999999999995,-4.490293665771627
-0.28070000000000006,-4.456340594574866
-0.28169999999999995,-4.419558100778375
-0.28270000000000006,-4.389849163481209
-0.28369999999999995,-4.368628493983234
-0.28470000000000006,-4.347407824485257
-0.28569999999999995,-4.313454753288497
-0.28670000000000007,-4.282331104691466
-0.28769999999999996,-4.25828101259376
-0.28870000000000007,-4.245548610894974
-0.28969999999999996,-4.2285720752965945
-0.29070000000000007,-4.197448426699564
-0.29169999999999996,-4.180471891101184
-0.29270000000000007,-4.167739489402398
-0.29369999999999996,-4.157836510303343
-0.2947000000000001,-4.147933531204288
-0.29569999999999996,-4.125298150406447
-0.2967000000000001,-4.111151037407797
-0.29769999999999996,-4.106906903508202
-0.2987000000000001,-4.105492192208336
-0.29969999999999997,-4.106906903508202
-0.3007000000000001,-4.095589213109282
-0.30169999999999997,-4.082856811410497
-0.3027000000000001,-4.088515656609956
-0.30369999999999997,-4.091345079209686
-0.3047000000000001,-4.099833347008876
-0.30569999999999997,-4.099833347008876
-0.3067000000000001,-4.094174501809416
-0.3077,-4.105492192208336
-0.3087000000000001,-4.122468727806717
-0.3097,-4.128127573006177
-0.3107000000000001,-4.143689397304692
-0.3117,-4.146518819904423
-0.3127000000000001,-4.163495355502803
-0.3137,-4.1889601589003735
-0.3147000000000001,-4.20452198319889
-0.3157,-4.22149851879727
-0.3167000000000001,-4.231401497896325
-0.3177,-4.259695723893626
-0.3187000000000001,-4.292234083790521
-0.3197,-4.323357732387552
-0.3207000000000001,-4.341748979285797
-0.3217,-4.360140226184043
-0.3227000000000001,-4.394093297380804
-0.3237,-4.436534636376755
-0.3247000000000001,-4.467658284973785
-0.3257,-4.495952510971087
-0.3267000000000001,-4.528490870867983
-0.3277,-4.561029230764878
-0.3287000000000001,-4.60629999236056
-0.3297,-4.654400176555971
-0.3307000000000001,-4.688353247752731
-0.3317,-4.723721030249357
-0.3327000000000001,-4.766162369245309
-0.3337,-4.81709197604045
-0.3347000000000001,-4.870851005435322
-0.3357,-4.907633499231812
-0.3367000000000001,-4.948660126927899
-0.3377,-5.002419156322769
-0.3387000000000001,-5.059007608317371
-0.3397,-5.112766637712243
-0.3407000000000001,-5.155207976708193
-0.3417,-5.203308160903605
-0.3427000000000001,-5.264140746797801
-0.3437,-5.320729198792402
-0.3447000000000001,-5.37873236208687
-0.3457,-5.4353208140814715
-0.3467000000000001,-5.482006286977017
-0.3477,-5.538594738971618
-0.3487000000000001,-5.607915592665005
-0.3497,-5.663089333359742
-0.3507000000000001,-5.716848362754614
-0.3517,-5.760704413050429
-0.3527000000000001,-5.8229517102444905
-0.3537,-5.892272563937878
-0.3547000000000001,-5.950275727232344
-0.3557,-6.001205334027486
-0.35670000000000013,-6.054964363422357
-0.3577,-6.1058939702174975
-0.35870000000000013,-6.16814126741156
-0.3597,-6.234632698505217
-0.36070000000000013,-6.286977016600223
-0.3617,-6.335077200795634
-0.3626999999999999,-6.388836230190505
-0.3637,-6.456742372584028
-0.3646999999999999,-6.516160247178359
-0.3657,-6.565675142673635
-0.3666999999999999,-6.615190038168912
-0.3677,-6.6689490675637835
-0.3686999999999999,-6.739684632557035
-0.36970000000000003,-6.792028950652041
-0.3706999999999999,-6.835885000947857
-0.37170000000000003,-6.878326339943808
-0.3726999999999999,-6.944817771037465
-0.37370000000000003,-7.002820934331931
-0.3746999999999999,-7.070727076725453
-0.37570000000000003,-7.120241972220731
-0.3766999999999999,-7.175415712915465
-0.37770000000000004,-7.250395411808314
-0.3786999999999999,-7.31688684290197
-0.37970000000000004,-7.3975253869942765
-0.3806999999999999,-7.4753345084868545
-0.38170000000000004,-7.555973052579161
-0.38269999999999993,-7.660661688769173
-0.38370000000000004,-7.780912149257703
-0.38469999999999993,-7.909650877545419
-0.38570000000000004,-8.055366141431518
-0.38669999999999993,-8.209569673116807
-0.38770000000000004,-8.397726275998858
-0.38869999999999993,-8.629738929176723
-0.38970000000000005,-8.88438696315243
-0.39069999999999994,-9.177232202224493
-0.39170000000000005,-9.509689357692777
-0.39269999999999994,-9.911467366854446
-0.39370000000000005,-10.37549267321018
-0.39469999999999994,-10.896106431560511
-0.39570000000000005,-11.476138064505177
-0.39669999999999994,-12.126905262443096
-0.39770000000000005,-12.842749180174803
-0.39869999999999994,-13.640646353298685
-0.39970000000000006,-14.486643710617974
-0.40069999999999995,-15.37791182953295
-0.40170000000000006,-16.325768400442524
-0.40269999999999995,-17.301919197349395
-0.40370000000000006,-18.320511333252224
-0.40469999999999995,-19.367397695152352
-0.40570000000000006,-20.414284057052477
-0.40669999999999995,-21.503611757948562
-0.40770000000000006,-22.621233684841933
-0.40869999999999995,-23.738855611735314
-0.40970000000000006,-24.870624651627345
-0.41069999999999995,-25.959952352523427
-0.41170000000000007,-27.1058685054141
-0.41269999999999996,-28.22349043230748
-0.41370000000000007,-29.369406585198163
-0.41469999999999996,-30.529469851087494
-0.41570000000000007,-31.57635621298762
-0.41669999999999996,-32.59494834889044
-0.41770000000000007,-33.670128936787876
-0.41869999999999996,-34.717015298688004
-0.4197000000000001,-35.74975454758948
-0.42069999999999996,-36.796640909489604
-0.4217000000000001,-37.94255706238028
-0.42269999999999996,-38.97529631128177
-0.4237000000000001,-39.82412309120078
-0.42469999999999997,-40.65880275812115
-0.4257000000000001,-41.677394894023976
-0.42669999999999997,-42.4696332219484
-0.4277000000000001,-43.23357732387552
-0.42869999999999997,-43.84190318281749
-0.4297000000000001,-44.74731841473111
-0.43069999999999997,-45.63858653364609
-0.4317000000000001,-46.515707539562406
-0.4327,-47.33624009348412
-0.4337000000000001,-48.086037082412595
-0.4347,-48.75095139334916
-0.4357000000000001,-49.61392528626684
-0.4367,-50.37786938819396
-0.4377000000000001,-51.14181349012107
-0.4387,-51.948198931044146
-0.4397000000000001,-52.78287859796452
-0.4407,-53.546822699891635
-0.4417000000000001,-54.466385044803914
-0.4427,-55.14544646873913
-0.4437000000000001,-55.76791944067975
-0.4447,-56.64504044659606
-0.4457000000000001,-57.423131661521836
-0.4467,-58.31439978043681
-0.4477000000000001,-59.417874594331536
-0.4487,-60.57793786022087
-0.4497000000000001,-61.29944062315204
-0.4507,-62.16241451606972
-0.4517000000000001,-62.841475940004926
-0.4527,-63.46394891194555
-0.4537000000000001,-64.22789301387266
-0.4547,-64.83621887281464
-0.4557000000000001,-66.0670177036972
-0.4567,-66.83096180562433
-0.4577000000000001,-67.79296548953256
-0.4587,-68.58520381745697
-0.4597000000000001,-69.30670658038814
-0.4607,-69.99991511732202
-0.4617000000000001,-70.91947746223428
-0.4627,-71.6834215641614
-0.4637000000000001,-72.61713102207234
-0.4647,-73.2820453330089
-0.4657000000000001,-74.04598943493602
-0.4667,-74.66846240687663
-0.4677000000000001,-75.51728918679565
-0.4687,-76.40855730571064
-0.4697000000000001,-77.03103027765125
-0.4707,-77.99303396155948
-0.4717000000000001,-78.71453672449066
-0.4727,-79.86045287738132
-0.4737000000000001,-80.59610275331114
-0.4747,-81.13369304725985
-0.4757000000000001,-81.72787179320316
-0.4767,-82.70402259011003
-0.4777000000000001,-83.21331865806147
-0.4787,-84.01970409898453
-0.4797000000000001,-84.67047129692244
-0.4807,-85.53344518984011
-0.48170000000000013,-87.16036318468491
-0.4827,-88.26383799857963
-0.48370000000000013,-88.91460519651754
-0.4847,-89.77757908943524
-0.48570000000000013,-90.79617122533804
-0.4867,-90.73958277334346
-0.48570000000000013,-89.14095900449597
-0.4847,-87.65551213963768
-0.48370000000000013,-86.35397774376185
-0.4827,-85.43441539884957
-0.48170000000000013,-84.42997037594539
-0.4807,-83.15673020606685
-0.4797000000000001,-81.92593137518428
-0.4787,-80.85075078728684
-0.4777000000000001,-80.31316049333813
-0.4767,-79.63409906940291
-0.4757000000000001,-78.74283095048794
-0.4747,-77.73838592758376
-0.4737000000000001,-76.39441019271199
-0.4727,-75.29093537881725
-0.4717000000000001,-73.90451830494952
-0.4707,-72.70201370006424
-0.4697000000000001,-71.5419504341749
-0.4687,-70.72141788025318
-0.4677000000000001,-70.05650356931662
-0.4667,-69.19352967639895
-0.4657000000000001,-68.23152599249072
-0.4647,-67.42514055156765
-0.4637000000000001,-66.70363778863647
-0.4627,-65.5860158617431
