Potential V vs RHE, Current mA cm-2
0.4132999999999999,-0.00500807800152223
0.4122999999999999,-0.006888229319042864
0.4112999999999999,-0.007520605270082535
0.4102999999999999,-0.007792229839656622
0.4092999999999999,-0.008003021823336513
0.4082999999999999,-0.008206740250517076
0.4072999999999999,-0.008379335029100614
0.4062999999999999,-0.008481194242690896
0.4052999999999999,-0.008584468167581042
0.4042999999999999,-0.008669350845572944
0.4032999999999999,-0.008783942460862013
0.4022999999999999,-0.00890985176655
0.4012999999999999,-0.008962196084645007
0.4002999999999999,-0.00903576107223799
0.3992999999999999,-0.009124887884129487
0.3982999999999999,-0.009222502963820173
0.3972999999999999,-0.009313044487011536
0.3962999999999999,-0.009366803516406407
0.3952999999999999,-0.009397927165003438
0.3942999999999999,-0.009453100905698175
0.39329999999999987,-0.009559204253188054
0.39229999999999987,-0.009610133859983196
0.39129999999999987,-0.009672381157177255
0.39029999999999987,-0.009683698847576177
0.38929999999999987,-0.009716237207473073
0.38829999999999987,-0.009801119885464974
0.38729999999999987,-0.009861952471359169
0.38629999999999987,-0.009910052655554582
0.38529999999999986,-0.009945420438051208
0.38429999999999986,-0.009946835149351073
0.38329999999999986,-0.010037376672542436
0.38229999999999986,-0.010085476856737845
0.38129999999999986,-0.010119429927934607
0.38029999999999986,-0.010137821174832855
0.37929999999999986,-0.010170359534729749
0.37829999999999986,-0.01024675394492246
0.37729999999999986,-0.010325977777714903
0.37629999999999986,-0.010317489509915713
0.37529999999999986,-0.010354272003712204
0.37429999999999986,-0.010379736807109774
0.37329999999999985,-0.01045188708340289
0.37229999999999985,-0.010515549091896819
0.37129999999999985,-0.010518378514496548
0.37029999999999985,-0.010556575719592905
0.36929999999999985,-0.01057779638909088
0.36829999999999985,-0.01062589657328629
0.36729999999999985,-0.010710779251278195
0.36629999999999985,-0.010716438096477652
0.36529999999999985,-0.010744732322474953
0.36429999999999985,-0.01078292952757131
0.36329999999999985,-0.010815467887468205
0.36229999999999984,-0.010867812205563212
0.36129999999999984,-0.010917327101058487
0.36029999999999984,-0.01094562132705579
0.35929999999999984,-0.01097957439825255
0.35829999999999984,-0.01102767458244796
0.35729999999999984,-0.011087092457042293
0.35629999999999984,-0.011119630816939188
0.35529999999999984,-0.01113377792993784
0.35429999999999984,-0.011169145712434464
0.35329999999999984,-0.011225734164429065
0.35229999999999984,-0.011263931369525422
0.35129999999999983,-0.011280907905123802
0.35029999999999983,-0.011300713863321913
0.34929999999999983,-0.011323349244119754
0.34829999999999983,-0.011406817210811791
0.34729999999999983,-0.011480382198404773
0.34629999999999983,-0.011483211621004503
0.34529999999999983,-0.01151009113570194
0.34429999999999983,-0.01152706767130032
0.3432999999999998,-0.0116006326588933
0.3422999999999998,-0.011648732843088714
0.3412999999999998,-0.011668538801286822
0.3402999999999998,-0.01169258889338453
0.3392999999999998,-0.011688344759484933
0.3382999999999998,-0.011770398014877104
0.3372999999999998,-0.011836889445970762
0.3362999999999998,-0.011859524826768601
0.3352999999999998,-0.011906210299664148
0.3342999999999998,-0.011893477897965363
0.3332999999999998,-0.011935919236961313
0.3322999999999998,-0.011996751822855511
0.3312999999999998,-0.011996751822855511
0.3302999999999998,-0.012013728358453891
0.3292999999999998,-0.012039193161851461
0.3282999999999998,-0.012075975655647952
0.3272999999999998,-0.012141052375441745
0.3262999999999998,-0.012141052375441745
0.3252999999999999,-0.012146711220641206
0.3242999999999999,-0.012180664291837964
0.3232999999999999,-0.012220276208234187
0.3222999999999999,-0.012285352928027979
0.3212999999999999,-0.012305158886226089
0.3202999999999999,-0.012320720710524605
0.3192999999999999,-0.012347600225222041
0.3182999999999999,-0.012392870986817722
0.3172999999999999,-0.012452288861412052
0.3162999999999999,-0.012455118284011784
0.3152999999999999,-0.012469265397010435
0.3142999999999999,-0.012486241932608813
0.3132999999999999,-0.012540000962003686
0.3122999999999999,-0.012579612878399905
0.3112999999999999,-0.012613565949596667
0.3102999999999999,-0.012619224794796127
0.3092999999999999,-0.012629127773895183
0.3082999999999999,-0.01270976631798749
0.3072999999999999,-0.01274088996658452
0.3062999999999999,-0.012746548811783982
0.3052999999999999,-0.012767769481281955
0.3042999999999999,-0.012770598903881686
0.3032999999999999,-0.012852652159273859
0.3022999999999999,-0.012900752343469268
0.3012999999999999,-0.012886605230470619
0.3002999999999999,-0.012924802435566976
0.2992999999999999,-0.012924802435566976
0.2982999999999999,-0.012978561464961846
0.2972999999999999,-0.013040808762155909
0.2962999999999999,-0.013062029431653884
0.2952999999999999,-0.013079005967252264
0.2942999999999999,-0.013086079523751591
0.2932999999999999,-0.013153985666145111
0.2922999999999999,-0.013197841716440928
0.2912999999999999,-0.01319359758254133
0.2902999999999999,-0.013206329984240118
0.2892999999999999,-0.013224721231138364
0.2882999999999999,-0.013284139105732696
0.2872999999999999,-0.013354874670725946
0.2862999999999999,-0.013364777649825002
0.2852999999999999,-0.013402974854921357
0.2842999999999999,-0.013429854369618792
0.2832999999999999,-0.013494931089412587
0.2822999999999999,-0.013544445984907859
0.2812999999999999,-0.0135387871397084
0.2802999999999999,-0.013526054738009618
0.2792999999999999,-0.013554348964006917
0.2782999999999999,-0.013598205014302733
0.2772999999999999,-0.01367035529059585
0.2762999999999999,-0.01367318471319558
0.2752999999999999,-0.013683087692294635
0.2742999999999999,-0.013711381918291935
0.2732999999999999,-0.0137410908555891
0.2722999999999999,-0.013800508730183434
0.2712999999999999,-0.013823144110981272
0.2702999999999999,-0.013821729399681406
0.2692999999999999,-0.013854267759578305
0.26829999999999987,-0.01391227092287277
0.26729999999999987,-0.013951882839268992
0.26629999999999987,-0.013961785818368048
0.26529999999999987,-0.013978762353966426
0.26429999999999987,-0.013981591776566157
0.26329999999999987,-0.01404949791895968
0.26229999999999987,-0.014080621567556711
0.26129999999999987,-0.014087695124056035
0.26029999999999986,-0.014104671659654415
0.25929999999999986,-0.014113159927453607
0.25829999999999986,-0.014189554337646317
0.25729999999999986,-0.01424614278964092
0.25629999999999986,-0.01424614278964092
0.25529999999999986,-0.01424614278964092
0.25429999999999986,-0.01427443701563822
0.25329999999999986,-0.014316878354634173
0.25229999999999986,-0.014387613919627423
0.25129999999999986,-0.014387613919627423
0.25029999999999986,-0.014401761032626074
0.24929999999999986,-0.014401761032626074
0.24829999999999985,-0.014472496597619325
0.24729999999999985,-0.014529085049613928
0.24629999999999985,-0.014514937936615275
0.24529999999999985,-0.014571526388609878
0.24429999999999985,-0.014599820614607179
0.24329999999999985,-0.014628114840604478
0.24229999999999985,-0.014670556179600431
0.24129999999999985,-0.014670556179600431
0.24029999999999985,-0.014684703292599082
0.23929999999999985,-0.014712997518596381
0.23829999999999985,-0.014755438857592333
0.23729999999999984,-0.014812027309586936
0.23629999999999984,-0.014840321535584235
0.23529999999999984,-0.014840321535584235
0.23429999999999984,-0.014868615761581536
0.23329999999999984,-0.014925204213576137
0.23229999999999984,-0.014967645552572089
0.23129999999999984,-0.014981792665570736
0.23029999999999984,-0.01501008689156804
0.22929999999999984,-0.015024234004566688
0.22829999999999984,-0.015109116682558592
0.22729999999999984,-0.015137410908555892
0.22629999999999983,-0.015179852247551842
0.22529999999999983,-0.015208146473549147
0.22429999999999983,-0.015208146473549147
0.22329999999999983,-0.015264734925543746
0.22229999999999983,-0.015307176264539698
0.22129999999999983,-0.015307176264539698
0.22029999999999983,-0.015335470490536997
0.21929999999999983,-0.015349617603535646
0.21829999999999983,-0.015420353168528897
0.21729999999999983,-0.01546279450752485
0.21629999999999983,-0.01546279450752485
0.21529999999999982,-0.015476941620523503
0.21429999999999982,-0.015491088733522153
0.21329999999999982,-0.015533530072518101
0.21229999999999982,-0.015604265637511355
0.21129999999999982,-0.015604265637511355
0.21029999999999982,-0.015632559863508654
0.20929999999999982,-0.015632559863508654
0.20829999999999982,-0.015703295428501907
0.20729999999999982,-0.015745736767497857
0.20629999999999982,-0.01575988388049651
0.20529999999999982,-0.01578817810649381
0.20429999999999982,-0.01581647233249111
0.20329999999999981,-0.015873060784485714
0.2022999999999998,-0.015929649236480315
0.2012999999999998,-0.015929649236480315
0.20029999999999992,-0.015929649236480315
0.19929999999999992,-0.015943796349478963
0.19829999999999992,-0.016000384801473564
0.19729999999999992,-0.016056973253468165
0.19629999999999992,-0.016056973253468165
0.19529999999999992,-0.016071120366466816
0.19429999999999992,-0.01615600304445872
0.19329999999999992,-0.01625503283544927
0.19229999999999992,-0.01625503283544927
0.19129999999999991,-0.01625503283544927
0.1902999999999999,-0.01625503283544927
0.1892999999999999,-0.016283327061446574
0.1882999999999999,-0.016354062626439823
0.1872999999999999,-0.01638235685243712
0.1862999999999999,-0.016396503965435776
0.1852999999999999,-0.016410651078434424
0.1842999999999999,-0.016424798191433075
0.1832999999999999,-0.01648138664342768
0.1822999999999999,-0.016537975095422278
0.1812999999999999,-0.016552122208420932
0.1802999999999999,-0.01658041643441823
0.1792999999999999,-0.01660871066041553
0.1782999999999999,-0.01666529911241013
0.1772999999999999,-0.016721887564404736
0.1762999999999999,-0.01673603467740338
0.1752999999999999,-0.016764328903400686
0.1742999999999999,-0.016764328903400686
0.1732999999999999,-0.01683506446839394
0.1722999999999999,-0.016891652920388536
0.1712999999999999,-0.01690580003338719
0.1702999999999999,-0.01693409425938449
0.1692999999999999,-0.016948241372383138
0.1682999999999999,-0.017018976937376393
0.1672999999999999,-0.017089712502369642
0.1662999999999999,-0.017075565389370995
0.1652999999999999,-0.017089712502369642
0.1642999999999999,-0.017132153841365592
0.1632999999999999,-0.017174595180361543
0.1622999999999999,-0.017231183632356147
0.1612999999999999,-0.017259477858353446
0.1602999999999999,-0.01728777208435075
0.1592999999999999,-0.01731606631034805
0.15829999999999989,-0.017358507649344
0.15729999999999988,-0.0174150961013386
0.15629999999999988,-0.017429243214337253
0.15529999999999988,-0.017457537440334552
0.15429999999999988,-0.01748583166633185
0.15329999999999988,-0.017542420118326456
0.15229999999999988,-0.017584861457322406
0.15129999999999988,-0.017584861457322406
0.15029999999999988,-0.017627302796318356
0.14929999999999988,-0.01766974413531431
0.14829999999999988,-0.01774047970030756
0.14729999999999988,-0.01776877392630486
0.14629999999999987,-0.017782921039303512
0.14529999999999987,-0.01781121526530081
0.14429999999999987,-0.017825362378299462
0.14329999999999987,-0.017910245056291362
0.14229999999999987,-0.017995127734283266
0.14129999999999987,-0.017995127734283266
0.14029999999999987,-0.018023421960280565
0.13929999999999987,-0.018065863299276518
0.13829999999999987,-0.01813659886426977
0.13729999999999987,-0.01817904020326572
0.13629999999999987,-0.01816489309026707
0.13529999999999986,-0.018193187316264375
0.13429999999999986,-0.018235628655260322
0.13329999999999986,-0.018320511333252226
0.13229999999999986,-0.018377099785246823
0.13129999999999986,-0.018377099785246823
0.13029999999999986,-0.018405394011244126
0.12929999999999986,-0.018447835350240076
0.12829999999999986,-0.01849027668923603
0.12729999999999986,-0.018575159367227933
0.12629999999999986,-0.018575159367227933
0.12529999999999986,-0.01858930648022658
0.12429999999999986,-0.018645894932221182
0.12329999999999985,-0.018702483384215783
0.12229999999999985,-0.018759071836210388
0.12129999999999985,-0.018773218949209036
0.12029999999999985,-0.018787366062207687
0.11929999999999985,-0.01882980740120364
0.11829999999999985,-0.018900542966196893
0.11729999999999985,-0.01897127853119014
0.11629999999999985,-0.019013719870186095
0.11529999999999985,-0.019013719870186095
0.11429999999999985,-0.019056161209182042
0.11329999999999985,-0.019126896774175294
0.11229999999999984,-0.0191834852261699
0.11129999999999984,-0.019254220791163148
0.11029999999999984,-0.019381544808151
0.10929999999999984,-0.0194098390341483
0.10829999999999984,-0.019452280373144254
0.10729999999999984,-0.019480574599141553
0.10629999999999984,-0.019466427486142905
0.10529999999999984,-0.019494721712140204
0.10429999999999984,-0.01950886882513886
0.10329999999999984,-0.019607898616129407
0.10229999999999984,-0.01965033995512536
0.10129999999999983,-0.01965033995512536
0.10029999999999983,-0.01969278129412131
0.09929999999999983,-0.019721075520118612
0.09829999999999983,-0.019805958198110513
0.09729999999999983,-0.019862546650105117
0.09629999999999983,-0.019862546650105117
0.09529999999999983,-0.019890840876102416
0.09429999999999983,-0.019933282215098366
0.09329999999999983,-0.02000401778009162
0.09229999999999983,-0.02007475334508487
0.09129999999999983,-0.02008890045808352
0.09029999999999982,-0.020103047571082173
0.08929999999999982,-0.020145488910078124
0.08829999999999982,-0.020216224475071376
0.08729999999999982,-0.020286960040064625
0.08629999999999982,-0.020286960040064625
0.08529999999999982,-0.02032940137906058
0.08429999999999982,-0.02038598983105518
0.08329999999999982,-0.020442578283049778
0.08229999999999982,-0.020513313848043033
0.08129999999999982,-0.020541608074040336
0.08029999999999982,-0.02055575518703898
0.07929999999999982,-0.020612343639033585
0.07829999999999981,-0.020683079204026837
0.07729999999999981,-0.02075381476902009
0.07629999999999981,-0.02078210899501739
0.07529999999999992,-0.02079625610801604
0.07429999999999992,-0.02086699167300929
0.07329999999999992,-0.020937727238002544
0.07229999999999992,-0.020994315689997142
0.07129999999999992,-0.021050904141991744
0.07029999999999992,-0.021050904141991744
0.06929999999999992,-0.021093345480987697
0.06829999999999992,-0.0212065223849769
0.06729999999999992,-0.02124896372397285
0.06629999999999991,-0.021305552175967454
0.06529999999999991,-0.021362140627962056
0.06429999999999991,-0.021418729079956657
0.06329999999999991,-0.02153190598394586
0.06229999999999991,-0.02158849443594046
0.06129999999999991,-0.02161678866193776
0.06029999999999991,-0.02161678866193776
0.05929999999999991,-0.02165923000093371
0.05829999999999991,-0.021744112678925617
0.05729999999999991,-0.021814848243918866
0.056299999999999906,-0.021814848243918866
0.055299999999999905,-0.021885583808912118
0.054299999999999904,-0.02189973092191077
0.0532999999999999,-0.022012907825899968
0.0522999999999999,-0.02208364339089322
0.0512999999999999,-0.02208364339089322
0.0502999999999999,-0.022140231842887825
0.0492999999999999,-0.022196820294882423
0.0482999999999999,-0.02226755585987568
0.0472999999999999,-0.022366585650866227
0.0462999999999999,-0.02239487987686353
0.045299999999999896,-0.02240902698986218
0.044299999999999895,-0.022465615441856785
0.043299999999999894,-0.022536351006850038
0.04229999999999989,-0.022621233684841938
0.04129999999999989,-0.02264952791083924
0.04029999999999989,-0.02272026347583249
0.03929999999999989,-0.02277685192782709
0.03829999999999989,-0.022833440379821688
0.03729999999999989,-0.022918323057813595
0.03629999999999989,-0.022946617283810897
0.03529999999999989,-0.022974911509808196
0.034299999999999886,-0.023045647074801445
0.033299999999999885,-0.02313052975279335
0.032299999999999884,-0.02318711820478795
0.031299999999999883,-0.0232295595437839
0.030299999999999883,-0.02324370665678255
0.02929999999999988,-0.023314442221775804
0.02829999999999988,-0.023399324899767704
0.02729999999999988,-0.02345591335176231
0.02629999999999988,-0.023512501803756906
0.025299999999999878,-0.02354079602975421
0.024299999999999877,-0.02359738448174881
0.023299999999999876,-0.023724708498736664
0.022299999999999875,-0.023795444063729916
0.021299999999999875,-0.023837885402725866
0.020299999999999874,-0.02389447385472047
0.019299999999999873,-0.02392276808071777
0.018299999999999872,-0.024021797871708325
0.01729999999999987,-0.024092533436701577
0.01629999999999987,-0.024120827662698876
0.01529999999999987,-0.02417741611469348
0.014299999999999868,-0.02423400456668808
0.013299999999999867,-0.024318887244679982
0.012299999999999978,-0.02438962280967323
0.011299999999999866,-0.024432064148669184
0.010299999999999976,-0.024488652600663786
0.009299999999999864,-0.024516946826661085
0.008299999999999974,-0.024630123730650287
0.007299999999999862,-0.024700859295643543
0.006299999999999972,-0.02474330063463949
0.00529999999999986,-0.024771594860636792
0.0042999999999999705,-0.024856477538628696
0.0032999999999998586,-0.024927213103621948
0.0022999999999999687,-0.025040390007611147
0.0012999999999998568,-0.02506868423360845
0.00029999999999996696,-0.02509697845960575
-0.000700000000000145,-0.025181861137597652
-0.0017000000000000348,-0.025266743815589552
-0.0027000000000001467,-0.02535162649358146
-0.0037000000000000366,-0.02540821494557606
-0.0047000000000001485,-0.02545065628457201
-0.005700000000000038,-0.02553553896256391
-0.00670000000000015,-0.025634568753554465
-0.00770000000000004,-0.025691157205549067
-0.008700000000000152,-0.025747745657543668
-0.009700000000000042,-0.02577603988354097
-0.010700000000000154,-0.02587506967453152
-0.011700000000000044,-0.025974099465522073
-0.012700000000000156,-0.026030687917516674
-0.013700000000000045,-0.026087276369511275
-0.014700000000000157,-0.026158011934504528
-0.015700000000000047,-0.026186306160501827
-0.01670000000000016,-0.02629948306449103
-0.01770000000000005,-0.026370218629484285
-0.01870000000000016,-0.026412659968480235
-0.01970000000000005,-0.026483395533473487
-0.020700000000000163,-0.02652583687246944
-0.021700000000000053,-0.02662486666345999
-0.022700000000000164,-0.026723896454450544
-0.023700000000000054,-0.026766337793446494
-0.024700000000000166,-0.02682292624544109
-0.025700000000000056,-0.026879514697435696
-0.026700000000000168,-0.0269643973754276
-0.027700000000000058,-0.027049280053419503
-0.02870000000000017,-0.027063427166418155
-0.02970000000000006,-0.027120015618412752
-0.03070000000000017,-0.027190751183406005
-0.03170000000000006,-0.027261486748399254
-0.03270000000000017,-0.02736051653938981
-0.03370000000000006,-0.02740295787838576
-0.034700000000000175,-0.027473693443379014
-0.035700000000000065,-0.027530281895373616
-0.03670000000000018,-0.02764345879936281
-0.03770000000000007,-0.02770004725135742
-0.03870000000000018,-0.02774248859035337
-0.03970000000000007,-0.027784929929349323
-0.04070000000000018,-0.027855665494342572
-0.04170000000000007,-0.027940548172334476
-0.04270000000000018,-0.02802543085032638
-0.04370000000000007,-0.028082019302320977
-0.044700000000000184,-0.028124460641316927
-0.045700000000000074,-0.02819519620631018
-0.046700000000000186,-0.028322520223298033
-0.047700000000000076,-0.028393255788291286
-0.04870000000000019,-0.02847813846628319
-0.04970000000000008,-0.02852057980527914
-0.05070000000000019,-0.028577168257273744
-0.05170000000000008,-0.028676198048264292
-0.05270000000000019,-0.028718639387260245
-0.05370000000000008,-0.028775227839254847
-0.05470000000000019,-0.028817669178250797
-0.05570000000000008,-0.02888840474324405
-0.056700000000000195,-0.028987434534234607
-0.057700000000000085,-0.029058170099227856
-0.058700000000000196,-0.029100611438223806
-0.059700000000000086,-0.029171347003217055
-0.0607000000000002,-0.02921378834221301
-0.06170000000000009,-0.02935525947219951
-0.0627000000000002,-0.02945428926319007
-0.06370000000000009,-0.02946843637618871
-0.0647000000000002,-0.029525024828183317
