Potential V vs RHE, Current mA cm-2
0.4132999999999999,0.009542227717589672
0.4122999999999999,0.007697444182565665
0.4112999999999999,0.006919352967639895
0.4102999999999999,0.006442595259585377
0.4092999999999999,0.006060623208621817
0.4082999999999999,0.005769192680849619
0.4072999999999999,0.005476347441777558
0.4062999999999999,0.005194819893104414
0.4052999999999999,0.004920365900930597
0.4042999999999999,0.004710988628550571
0.4032999999999999,0.004527076159568118
0.4022999999999999,0.004338919556686067
0.4012999999999999,0.004122468727806717
0.4002999999999999,0.003924409145825611
0.3992999999999999,0.0037532290785419428
0.3982999999999999,0.0036103432372555735
0.3972999999999999,0.0034731162411686654
0.3962999999999999,0.00328071550438702
0.3952999999999999,0.003130756106601326
0.3942999999999999,0.0030161644913122582
0.39329999999999987,0.0028874257630245397
0.39229999999999987,0.0027643458799362815
0.39129999999999987,0.002584677544853422
0.39029999999999987,0.0024502799713662436
0.38929999999999987,0.002347006046476096
0.38829999999999987,0.002226755585987568
0.38729999999999987,0.0021234816610974203
0.38629999999999987,0.0019622045729128057
0.38529999999999986,0.001813659886426977
0.38429999999999986,0.00172170365193575
0.38329999999999986,0.0016141855931460067
0.38229999999999986,0.0015307176264539697
0.38129999999999986,0.0013932076881070883
0.38029999999999986,0.0012732401698785328
0.37929999999999986,0.0011950066349959965
0.37829999999999986,0.001097391555305309
0.37729999999999986,0.0010248168656222328
0.37629999999999986,0.0008865995716254186
0.37529999999999986,0.0007652173420969984
0.37429999999999986,0.0007107509570521943
0.37329999999999985,0.0006172385401311156
0.37229999999999985,0.0005180672780105765
0.37129999999999985,0.00040503184515135995
0.37029999999999985,0.00030317263156107735
0.36929999999999985,0.0002277685192782709
0.36829999999999985,0.0001844783535024008
0.36729999999999985,8.123272283825042e-05
0.36629999999999985,-3.600440258156518e-05
0.36529999999999985,-0.00011835474734670897
0.36429999999999985,-0.00018674189158218485
0.36329999999999985,-0.00024120827662698873
0.36229999999999984,-0.00032354447427913386
0.36129999999999984,-0.00042398897656955155
0.36029999999999984,-0.0004993930888523579
0.35929999999999984,-0.0005650356931660956
0.35829999999999984,-0.0006250194522803732
0.35729999999999984,-0.0006933500080638544
0.35629999999999984,-0.0007939359814842586
0.35529999999999984,-0.0008888631097052025
0.35429999999999984,-0.0009293238528813426
0.35329999999999984,-0.000999069119964689
0.35229999999999984,-0.0010632970129785617
0.35129999999999983,-0.0011694003604684393
0.35029999999999983,-0.0012349014936521904
0.34929999999999983,-0.0012781916594280607
0.34829999999999983,-0.0013507663491111371
0.34729999999999983,-0.0014203701450644969
0.34629999999999983,-0.0015165705134553193
0.34529999999999983,-0.001575988388049651
0.34429999999999983,-0.0016184297270456021
0.3432999999999998,-0.001690580003338719
0.3422999999999998,-0.00174433903273359
0.3412999999999998,-0.0018320511333252225
0.3402999999999998,-0.0019353250582153704
0.3392999999999998,-0.001950886882513886
0.3382999999999998,-0.0019862546650105117
0.3372999999999998,-0.0020400136944053833
0.3362999999999998,-0.0021178228158979595
0.3352999999999998,-0.0022097790503891874
0.3342999999999998,-0.0022366585650866228
0.3332999999999998,-0.0022819293266823043
0.3322999999999998,-0.0023328589334774457
0.3312999999999998,-0.0024078386323702922
0.3302999999999998,-0.0024785741973635442
0.3292999999999998,-0.002537992071957876
0.3282999999999998,-0.0025620421640555812
0.3272999999999998,-0.0026030687917516677
0.3262999999999998,-0.0026808779132442445
0.3252999999999999,-0.0027700047251357413
0.3242999999999999,-0.0027898106833338524
0.3232999999999999,-0.002820934331930883
0.3222999999999999,-0.0028930846082240004
0.3212999999999999,-0.002979381997515767
0.3202999999999999,-0.0030260674704113135
0.3192999999999999,-0.0030571911190083443
0.3182999999999999,-0.0030982177467044304
0.3172999999999999,-0.003127926684001596
0.3162999999999999,-0.003231200608891744
0.3152999999999999,-0.00327222723658783
0.3142999999999999,-0.003314668575583781
0.3132999999999999,-0.003348621646780542
0.3122999999999999,-0.0033910629857764932
0.3112999999999999,-0.0034575544168701498
0.3102999999999999,-0.003533948827062861
0.3092999999999999,-0.0035523400739611074
0.3082999999999999,-0.003583463722558138
0.3072999999999999,-0.0036414668858526047
0.3062999999999999,-0.0037122024508458563
0.3052999999999999,-0.003780108593239378
0.3042999999999999,-0.0037758644593397827
0.3032999999999999,-0.0038296234887346546
0.3022999999999999,-0.0038748942503303353
0.3012999999999999,-0.0039470445266234526
0.3002999999999999,-0.003985241731719808
0.2992999999999999,-0.00399938884471846
0.2982999999999999,-0.004031927204615354
0.2972999999999999,-0.004085686234010226
0.2962999999999999,-0.004174813045901724
0.2952999999999999,-0.004232816209196189
0.2942999999999999,-0.004225742652696865
0.2932999999999999,-0.004273842836892276
0.2922999999999999,-0.004307795908089037
0.2912999999999999,-0.004388434452181344
0.2902999999999999,-0.004425216945977834
0.2892999999999999,-0.004467658284973786
0.2882999999999999,-0.004461999439774325
0.2872999999999999,-0.004521417314368657
0.2862999999999999,-0.004575176343763528
0.2852999999999999,-0.004630350084458265
0.2842999999999999,-0.0046487413313565104
0.2832999999999999,-0.004679864979953542
0.2822999999999999,-0.004723721030249358
0.2812999999999999,-0.0048071889969413945
0.2802999999999999,-0.00485387446983694
0.2792999999999999,-0.004866606871535726
0.2782999999999999,-0.004870851005435321
0.2772999999999999,-0.004911877633131407
0.2762999999999999,-0.004986857332024254
0.2752999999999999,-0.005019395691921149
0.2742999999999999,-0.0050392016501192615
0.2732999999999999,-0.005070325298716291
0.2722999999999999,-0.005098619524713593
0.2712999999999999,-0.00516794037840698
0.2702999999999999,-0.00521321114000266
0.2692999999999999,-0.005231602386900905
0.26829999999999987,-0.005255652478998611
0.26729999999999987,-0.005276873148496587
0.26629999999999987,-0.005332046889191323
0.26529999999999987,-0.0053858059185861945
0.26429999999999987,-0.00540419716548444
0.26329999999999987,-0.0054240031236825505
0.26229999999999987,-0.005448053215780256
0.26129999999999987,-0.005524447625972969
0.26029999999999986,-0.005582450789267435
0.25929999999999986,-0.005554156563270134
0.25829999999999986,-0.005605086170065276
0.25729999999999986,-0.005640453952561901
0.25629999999999986,-0.005704115961055828
0.25529999999999986,-0.005750801433951375
0.25429999999999986,-0.005750801433951375
0.25329999999999986,-0.00576636325824989
0.25229999999999986,-0.005817292865045031
0.25129999999999986,-0.005875296028339498
0.25029999999999986,-0.005912078522135988
0.24929999999999986,-0.005930469769034234
0.24829999999999985,-0.005943202170733019
0.24729999999999985,-0.00597432581933005
0.24629999999999985,-0.006039402539123841
0.24529999999999985,-0.006110138104117094
0.24429999999999985,-0.006110138104117094
0.24329999999999985,-0.006104479258917633
0.24229999999999985,-0.006134188196214799
0.24129999999999985,-0.006220485585506566
0.24029999999999985,-0.006234632698505218
0.23929999999999985,-0.006262926924502517
0.23829999999999985,-0.006279903460100897
0.23729999999999984,-0.006303953552198604
0.23629999999999984,-0.006371859694592126
0.23529999999999984,-0.00639873920928956
0.23429999999999984,-0.006397324497989695
0.23329999999999984,-0.0064440099708852425
0.23229999999999984,-0.0064737189081824085
0.23129999999999984,-0.00654162505057593
0.23029999999999984,-0.006571333987873095
0.22929999999999984,-0.006576992833072556
0.22829999999999984,-0.006613775326869047
0.22729999999999984,-0.006615190038168912
0.22629999999999983,-0.006692999159661489
0.22529999999999983,-0.006719878674358924
0.22429999999999983,-0.006719878674358924
0.22329999999999983,-0.006753831745555685
0.22229999999999983,-0.006776467126353526
0.22129999999999983,-0.006824567310548937
0.22029999999999983,-0.006882570473843404
0.21929999999999983,-0.0068712527834444825
0.21829999999999983,-0.006903791143341379
0.21729999999999983,-0.006934914791938409
0.21629999999999983,-0.00697735613093436
0.21529999999999982,-0.007022626892530043
0.21429999999999982,-0.007008479779531391
0.21329999999999982,-0.007048091695927613
0.21229999999999982,-0.007080630055824508
0.21129999999999982,-0.007121656683520595
0.21029999999999982,-0.00716834215641614
0.20929999999999982,-0.007172586290315736
0.20829999999999982,-0.007176830424215331
0.20729999999999982,-0.007216442340611552
0.20629999999999982,-0.007295666173403994
0.20529999999999982,-0.007318301554201835
0.20429999999999982,-0.007332448667200485
0.20329999999999981,-0.007335278089800216
0.2022999999999998,-0.007376304717496301
0.2012999999999998,-0.007417331345192387
0.20029999999999992,-0.007465431529387799
0.19929999999999992,-0.0074710903745872585
0.19829999999999992,-0.007478163931086584
0.19729999999999992,-0.0075064581570838855
0.19629999999999992,-0.007568705454277946
0.19529999999999992,-0.0075955849689753815
0.19429999999999992,-0.007659246977469309
0.19329999999999992,-0.007688955914766474
0.19229999999999992,-0.007700273605165396
0.19129999999999991,-0.007745544366761076
0.1902999999999999,-0.007776668015358107
0.1892999999999999,-0.007779497437957837
0.1882999999999999,-0.007793644550956487
0.1872999999999999,-0.007831841756052843
0.1862999999999999,-0.00788135665154812
0.1852999999999999,-0.00791530972274488
0.1842999999999999,-0.007905406743645824
0.1832999999999999,-0.00793511568094299
0.1822999999999999,-0.007959165773040696
0.1812999999999999,-0.008032730760633678
0.1802999999999999,-0.008082245656128955
0.1792999999999999,-0.00806951325443017
0.1782999999999999,-0.008096392769127604
0.1772999999999999,-0.008121857572525176
0.1762999999999999,-0.008172787179320318
0.1752999999999999,-0.008205325539217212
0.1742999999999999,-0.008210984384416673
0.1732999999999999,-0.008215228518316268
0.1722999999999999,-0.008264743413811542
0.1712999999999999,-0.008312843598006955
0.1702999999999999,-0.008341137824004256
0.1692999999999999,-0.008334064267504932
0.1682999999999999,-0.008379335029100614
0.1672999999999999,-0.008413288100297373
0.1662999999999999,-0.008461388284492785
0.1652999999999999,-0.008489682510490084
0.1642999999999999,-0.008502414912188871
0.1632999999999999,-0.0085052443347886
0.1622999999999999,-0.008539197405985362
0.1612999999999999,-0.008602859414479289
0.1602999999999999,-0.008625494795277128
0.1592999999999999,-0.008643886042175374
0.15829999999999989,-0.008643886042175374
0.15729999999999988,-0.008679253824672
0.15629999999999988,-0.008745745255765656
0.15529999999999988,-0.008775454193062823
0.15429999999999988,-0.008791016017361337
0.15329999999999988,-0.008802333707760259
0.15229999999999988,-0.008832042645057424
0.15129999999999988,-0.008882972251852564
0.15029999999999988,-0.008914095900449595
0.14929999999999988,-0.008925413590848516
0.14829999999999988,-0.008949463682946222
0.14729999999999988,-0.008939560703847167
0.14629999999999987,-0.009025858093138934
0.14529999999999987,-0.009055567030436099
0.14429999999999987,-0.009040005206137586
0.14329999999999987,-0.009079617122533806
0.14229999999999987,-0.009140449708428004
0.14129999999999987,-0.009177232202224493
0.14029999999999987,-0.009205526428221793
0.13929999999999987,-0.009209770562121388
0.13829999999999987,-0.009219673541220445
0.13729999999999987,-0.009259285457616666
0.13629999999999987,-0.009322947466110591
0.13529999999999986,-0.009351241692107892
0.13429999999999986,-0.009342753424308702
0.13329999999999986,-0.009362559382506812
0.13229999999999986,-0.009400756587603169
0.13129999999999986,-0.00943753908139966
0.13029999999999986,-0.009495542244694125
0.12929999999999986,-0.009512518780292507
0.12829999999999986,-0.009513933491592371
0.12729999999999986,-0.009567692520987244
0.12629999999999986,-0.009624280972981845
0.12529999999999986,-0.009655404621578876
0.12429999999999986,-0.009666722311977795
0.12329999999999985,-0.009669551734577526
0.12229999999999985,-0.009697845960574828
0.12129999999999985,-0.009764337391668482
0.12029999999999985,-0.009779899215966998
0.11929999999999985,-0.009799705174165108
0.11829999999999985,-0.009792631617665784
0.11729999999999985,-0.009852049492260116
0.11629999999999985,-0.009922785057253367
0.11529999999999985,-0.009931273325052559
0.11429999999999985,-0.009946835149351073
0.11329999999999985,-0.009960982262349724
0.11229999999999984,-0.00998503235444743
0.11129999999999984,-0.010064256187239872
0.11029999999999984,-0.010081232722838252
0.10929999999999984,-0.010074159166338926
0.10829999999999984,-0.010103868103636091
0.10729999999999984,-0.010133577040933258
0.10629999999999984,-0.010202897894626644
0.10529999999999984,-0.010231192120623945
0.10429999999999984,-0.01022977740932408
0.10329999999999984,-0.010255242212721652
0.10229999999999984,-0.010284951150018817
0.10129999999999983,-0.010345783735913012
0.10029999999999983,-0.01036983382801072
0.09929999999999983,-0.010365589694111124
0.09829999999999983,-0.010391054497508694
0.09729999999999983,-0.010441984104303836
0.09629999999999983,-0.010483010731999922
0.09529999999999983,-0.010532525627495199
0.09429999999999983,-0.010533940338795064
0.09329999999999983,-0.010559405142192634
0.09229999999999983,-0.01059477292468926
0.09129999999999983,-0.01065702022188332
0.09029999999999982,-0.010706535117378598
0.08929999999999982,-0.010698046849579406
0.08829999999999982,-0.010707949828678464
0.08729999999999982,-0.010770197125872525
0.08629999999999982,-0.010814053176168343
0.08529999999999982,-0.01083668855696618
0.08429999999999982,-0.01085932393776402
0.08329999999999982,-0.010857909226464157
0.08229999999999982,-0.010925815368857679
0.08129999999999982,-0.01097957439825255
0.08029999999999982,-0.01100786862424985
0.07929999999999982,-0.0110220157372485
0.07829999999999981,-0.011047480540646071
0.07729999999999981,-0.011089921879642023
0.07629999999999981,-0.011160657444635274
0.07529999999999992,-0.011181878114133249
0.07429999999999992,-0.011196025227131898
0.07329999999999992,-0.011211587051430416
0.07229999999999992,-0.011261101946925691
0.07129999999999992,-0.011336081645818539
0.07029999999999992,-0.011368620005715436
0.06929999999999992,-0.011379937696114355
0.06829999999999992,-0.011406817210811791
0.06729999999999992,-0.01143511143680909
0.06629999999999991,-0.011505847001802343
0.06529999999999991,-0.011555361897297618
0.06429999999999991,-0.011563850165096808
0.06329999999999991,-0.01158365612329492
0.06229999999999991,-0.011627512173590737
0.06129999999999991,-0.011701077161183718
0.06029999999999991,-0.011750592056678996
0.05929999999999991,-0.011739274366280073
0.05829999999999991,-0.01177181272617697
0.05729999999999991,-0.011828401178171572
0.056299999999999906,-0.011887819052765904
0.055299999999999905,-0.011918942701362933
0.054299999999999904,-0.011924601546562394
0.0532999999999999,-0.011978360575957265
0.0522999999999999,-0.012032119605352137
0.0512999999999999,-0.012084463923447144
0.0502999999999999,-0.012118416994643905
0.0492999999999999,-0.012138222952842014
0.0482999999999999,-0.01214529650934134
0.0472999999999999,-0.012213202651734862
0.0462999999999999,-0.012283938216728112
0.045299999999999896,-0.012329208978323795
0.044299999999999895,-0.012374479739919475
0.043299999999999894,-0.012382968007718667
0.04229999999999989,-0.012443800593612862
0.04129999999999989,-0.012518780292505709
0.04029999999999989,-0.012571124610600715
0.03929999999999989,-0.012562636342801525
0.03829999999999989,-0.012593759991398557
0.03729999999999989,-0.012646104309493564
0.03629999999999989,-0.01273806054398479
0.03529999999999989,-0.012760695924782631
0.034299999999999886,-0.012791819573379661
0.033299999999999885,-0.012820113799376963
0.032299999999999884,-0.012861140427073049
0.031299999999999883,-0.01294602310506495
0.030299999999999883,-0.012955926084164005
0.02929999999999988,-0.012991293866660631
0.02829999999999988,-0.013029491071756986
0.02729999999999988,-0.01308042067855213
0.02629999999999988,-0.013175206335643086
0.025299999999999878,-0.013199256427740792
0.024299999999999877,-0.013214818252039308
0.023299999999999876,-0.01326291843623472
0.022299999999999875,-0.013306774486530537
0.021299999999999875,-0.013378924762823652
0.020299999999999874,-0.01344541619391731
0.019299999999999873,-0.013438342637417984
0.018299999999999872,-0.01349068695551299
0.01729999999999987,-0.013531713583209077
0.01629999999999987,-0.013605278570802059
0.01529999999999987,-0.013664696445396389
0.014299999999999868,-0.01367601413579531
0.013299999999999867,-0.013708552495692205
0.012299999999999978,-0.013779288060685456
0.011299999999999866,-0.013861341316077629
0.010299999999999976,-0.01389812380987412
0.009299999999999864,-0.013917929768072232
0.008299999999999974,-0.013960371107068182
0.007299999999999862,-0.014033936094661165
0.006299999999999972,-0.014083450990156442
0.00529999999999986,-0.014128721751752121
0.0042999999999999705,-0.014161260111649017
0.0032999999999998586,-0.014175407224647668
0.0022999999999999687,-0.01427443701563822
0.0012999999999998568,-0.014345172580631472
0.00029999999999996696,-0.014387613919627423
-0.000700000000000145,-0.014430055258623373
-0.0017000000000000348,-0.014444202371622025
-0.0027000000000001467,-0.014500790823616624
-0.0037000000000000366,-0.014599820614607179
-0.0047000000000001485,-0.01461396772760583
-0.005700000000000038,-0.01465640906660178
-0.00670000000000015,-0.01469885040559773
-0.00770000000000004,-0.014741291744593682
-0.008700000000000152,-0.014840321535584235
-0.009700000000000042,-0.014854468648582884
-0.010700000000000154,-0.014939351326574786
-0.011700000000000044,-0.014967645552572089
-0.012700000000000156,-0.015024234004566688
-0.013700000000000045,-0.01509496956955994
-0.014700000000000157,-0.015123263795557243
-0.015700000000000047,-0.015151558021554544
-0.01670000000000016,-0.015193999360550494
-0.01770000000000005,-0.015264734925543746
-0.01870000000000016,-0.015321323377538347
-0.01970000000000005,-0.015377911829532949
-0.020700000000000163,-0.015392058942531598
-0.021700000000000053,-0.01543450028152755
-0.022700000000000164,-0.015519382959519455
-0.023700000000000054,-0.015590118524512706
-0.024700000000000166,-0.015632559863508654
-0.025700000000000056,-0.015632559863508654
-0.026700000000000168,-0.015660854089505957
-0.027700000000000058,-0.01573158965449921
-0.02870000000000017,-0.01580232521949246
-0.02970000000000006,-0.01585891367148706
-0.03070000000000017,-0.01588720789748436
-0.03170000000000006,-0.015901355010483013
-0.03270000000000017,-0.01597209057547626
-0.03370000000000006,-0.016042826140469518
-0.034700000000000175,-0.016071120366466816
-0.035700000000000065,-0.01611356170546277
-0.03670000000000018,-0.01615600304445872
-0.03770000000000007,-0.01619844438345467
-0.03870000000000018,-0.016283327061446574
-0.03970000000000007,-0.01629747417444522
-0.04070000000000018,-0.016354062626439823
-0.04170000000000007,-0.01638235685243712
-0.04270000000000018,-0.016453092417430374
-0.04370000000000007,-0.016537975095422278
-0.044700000000000184,-0.016552122208420932
-0.045700000000000074,-0.01659456354741688
-0.046700000000000186,-0.01662285777341418
-0.047700000000000076,-0.01666529911241013
-0.04870000000000019,-0.016778476016399334
-0.04970000000000008,-0.016806770242396636
-0.05070000000000019,-0.01683506446839394
-0.05170000000000008,-0.016849211581392583
-0.05270000000000019,-0.01690580003338719
-0.05370000000000008,-0.01699068271137909
-0.05470000000000019,-0.01703312405037504
-0.05570000000000008,-0.017047271163373692
-0.056700000000000195,-0.017075565389370995
-0.057700000000000085,-0.017132153841365592
-0.058700000000000196,-0.017217036519357496
-0.059700000000000086,-0.0172453307453548
-0.0607000000000002,-0.017259477858353446
-0.06170000000000009,-0.0173302134233467
