Apr. 16, 2025   14:16:20
Cyclic Voltammetry
File: c:/users/guazh/data/banditlqround7_x0exp590_r20/2025-04-16-exp1099\exp1099-2025-04-16t14_07_39-h2koh\exp1099_cv_50mvs_efin_-1600mv.bin
Data Source:  Experiment
Instrument Model:  CHI760E
Header: CV ran at 50 mVs
Note: 

Init E (V) = -1
High E (V) = -1
Low E (V) = -1.6
Final E (V) = -1
Init P/N = N
Scan Rate (V/s) = 0.05
Segment = 7
Sample Interval (V) = 0.001
Quiet Time (sec) = 60
Sensitivity (A/V) = 0.001
Comp R (ohm) = 1.8

Results:

Channel 1:
Segment 1:

Segment 2:

Segment 3:

Segment 4:

Segment 5:

Segment 6:

Segment 7:

Potential/V, Current/A

-1.000, 2.454e-6
-1.001, 2.549e-6
-1.002, 2.585e-6
-1.003, 2.617e-6
-1.004, 2.645e-6
-1.005, 2.700e-6
-1.006, 2.708e-6
-1.007, 2.738e-6
-1.008, 2.758e-6
-1.009, 2.767e-6
-1.010, 2.786e-6
-1.011, 2.823e-6
-1.012, 2.843e-6
-1.013, 2.860e-6
-1.014, 2.884e-6
-1.015, 2.902e-6
-1.016, 2.907e-6
-1.017, 2.946e-6
-1.018, 2.968e-6
-1.019, 2.981e-6
-1.020, 3.003e-6
-1.021, 3.011e-6
-1.022, 3.027e-6
-1.023, 3.027e-6
-1.024, 3.060e-6
-1.025, 3.094e-6
-1.026, 3.120e-6
-1.027, 3.146e-6
-1.028, 3.166e-6
-1.029, 3.164e-6
-1.030, 3.195e-6
-1.031, 3.211e-6
-1.032, 3.222e-6
-1.033, 3.243e-6
-1.034, 3.258e-6
-1.035, 3.280e-6
-1.036, 3.291e-6
-1.037, 3.321e-6
-1.038, 3.342e-6
-1.039, 3.344e-6
-1.040, 3.377e-6
-1.041, 3.368e-6
-1.042, 3.404e-6
-1.043, 3.430e-6
-1.044, 3.431e-6
-1.045, 3.448e-6
-1.046, 3.467e-6
-1.047, 3.489e-6
-1.048, 3.508e-6
-1.049, 3.524e-6
-1.050, 3.538e-6
-1.051, 3.584e-6
-1.052, 3.588e-6
-1.053, 3.608e-6
-1.054, 3.623e-6
-1.055, 3.632e-6
-1.056, 3.650e-6
-1.057, 3.684e-6
-1.058, 3.694e-6
-1.059, 3.718e-6
-1.060, 3.713e-6
-1.061, 3.738e-6
-1.062, 3.782e-6
-1.063, 3.806e-6
-1.064, 3.798e-6
-1.065, 3.820e-6
-1.066, 3.857e-6
-1.067, 3.861e-6
-1.068, 3.905e-6
-1.069, 3.921e-6
-1.070, 3.928e-6
-1.071, 3.963e-6
-1.072, 3.964e-6
-1.073, 3.991e-6
-1.074, 4.018e-6
-1.075, 4.047e-6
-1.076, 4.059e-6
-1.077, 4.077e-6
-1.078, 4.113e-6
-1.079, 4.120e-6
-1.080, 4.133e-6
-1.081, 4.179e-6
-1.082, 4.207e-6
-1.083, 4.223e-6
-1.084, 4.225e-6
-1.085, 4.270e-6
-1.086, 4.285e-6
-1.087, 4.307e-6
-1.088, 4.345e-6
-1.089, 4.359e-6
-1.090, 4.377e-6
-1.091, 4.412e-6
-1.092, 4.419e-6
-1.093, 4.438e-6
-1.094, 4.465e-6
-1.095, 4.500e-6
-1.096, 4.514e-6
-1.097, 4.551e-6
-1.098, 4.551e-6
-1.099, 4.603e-6
-1.100, 4.600e-6
-1.101, 4.645e-6
-1.102, 4.669e-6
-1.103, 4.673e-6
-1.104, 4.702e-6
-1.105, 4.736e-6
-1.106, 4.758e-6
-1.107, 4.784e-6
-1.108, 4.810e-6
-1.109, 4.835e-6
-1.110, 4.870e-6
-1.111, 4.891e-6
-1.112, 4.917e-6
-1.113, 4.948e-6
-1.114, 4.970e-6
-1.115, 5.002e-6
-1.116, 5.030e-6
-1.117, 5.055e-6
-1.118, 5.082e-6
-1.119, 5.098e-6
-1.120, 5.144e-6
-1.121, 5.174e-6
-1.122, 5.189e-6
-1.123, 5.206e-6
-1.124, 5.241e-6
-1.125, 5.263e-6
-1.126, 5.297e-6
-1.127, 5.324e-6
-1.128, 5.354e-6
-1.129, 5.386e-6
-1.130, 5.412e-6
-1.131, 5.429e-6
-1.132, 5.470e-6
-1.133, 5.489e-6
-1.134, 5.510e-6
-1.135, 5.546e-6
-1.136, 5.572e-6
-1.137, 5.588e-6
-1.138, 5.616e-6
-1.139, 5.663e-6
-1.140, 5.694e-6
-1.141, 5.701e-6
-1.142, 5.761e-6
-1.143, 5.776e-6
-1.144, 5.812e-6
-1.145, 5.823e-6
-1.146, 5.863e-6
-1.147, 5.880e-6
-1.148, 5.921e-6
-1.149, 5.952e-6
-1.150, 5.967e-6
-1.151, 6.011e-6
-1.152, 6.042e-6
-1.153, 6.085e-6
-1.154, 6.105e-6
-1.155, 6.136e-6
-1.156, 6.179e-6
-1.157, 6.207e-6
-1.158, 6.237e-6
-1.159, 6.265e-6
-1.160, 6.301e-6
-1.161, 6.341e-6
-1.162, 6.371e-6
-1.163, 6.393e-6
-1.164, 6.426e-6
-1.165, 6.472e-6
-1.166, 6.513e-6
-1.167, 6.527e-6
-1.168, 6.560e-6
-1.169, 6.611e-6
-1.170, 6.633e-6
-1.171, 6.672e-6
-1.172, 6.697e-6
-1.173, 6.728e-6
-1.174, 6.773e-6
-1.175, 6.809e-6
-1.176, 6.841e-6
-1.177, 6.887e-6
-1.178, 6.937e-6
-1.179, 6.950e-6
-1.180, 6.996e-6
-1.181, 7.046e-6
-1.182, 7.073e-6
-1.183, 7.103e-6
-1.184, 7.142e-6
-1.185, 7.180e-6
-1.186, 7.240e-6
-1.187, 7.265e-6
-1.188, 7.300e-6
-1.189, 7.326e-6
-1.190, 7.394e-6
-1.191, 7.440e-6
-1.192, 7.445e-6
-1.193, 7.504e-6
-1.194, 7.558e-6
-1.195, 7.594e-6
-1.196, 7.624e-6
-1.197, 7.668e-6
-1.198, 7.718e-6
-1.199, 7.767e-6
-1.200, 7.796e-6
-1.201, 7.854e-6
-1.202, 7.902e-6
-1.203, 7.930e-6
-1.204, 7.979e-6
-1.205, 8.014e-6
-1.206, 8.063e-6
-1.207, 8.093e-6
-1.208, 8.127e-6
-1.209, 8.161e-6
-1.210, 8.213e-6
-1.211, 8.280e-6
-1.212, 8.305e-6
-1.213, 8.334e-6
-1.214, 8.390e-6
-1.215, 8.417e-6
-1.216, 8.466e-6
-1.217, 8.496e-6
-1.218, 8.547e-6
-1.219, 8.590e-6
-1.220, 8.629e-6
-1.221, 8.700e-6
-1.222, 8.712e-6
-1.223, 8.738e-6
-1.224, 8.771e-6
-1.225, 8.799e-6
-1.226, 8.853e-6
-1.227, 8.900e-6
-1.228, 8.917e-6
-1.229, 8.962e-6
-1.230, 8.998e-6
-1.231, 9.057e-6
-1.232, 9.060e-6
-1.233, 9.104e-6
-1.234, 9.137e-6
-1.235, 9.150e-6
-1.236, 9.214e-6
-1.237, 9.226e-6
-1.238, 9.250e-6
-1.239, 9.282e-6
-1.240, 9.298e-6
-1.241, 9.349e-6
-1.242, 9.370e-6
-1.243, 9.391e-6
-1.244, 9.429e-6
-1.245, 9.438e-6
-1.246, 9.483e-6
-1.247, 9.507e-6
-1.248, 9.532e-6
-1.249, 9.537e-6
-1.250, 9.576e-6
-1.251, 9.598e-6
-1.252, 9.633e-6
-1.253, 9.660e-6
-1.254, 9.680e-6
-1.255, 9.709e-6
-1.256, 9.746e-6
-1.257, 9.743e-6
-1.258, 9.746e-6
-1.259, 9.784e-6
-1.260, 9.809e-6
-1.261, 9.849e-6
-1.262, 9.841e-6
-1.263, 9.875e-6
-1.264, 9.880e-6
-1.265, 9.928e-6
-1.266, 9.938e-6
-1.267, 9.974e-6
-1.268, 9.987e-6
-1.269, 9.980e-6
-1.270, 1.002e-5
-1.271, 1.004e-5
-1.272, 1.007e-5
-1.273, 1.007e-5
-1.274, 1.010e-5
-1.275, 1.012e-5
-1.276, 1.014e-5
-1.277, 1.016e-5
-1.278, 1.020e-5
-1.279, 1.021e-5
-1.280, 1.022e-5
-1.281, 1.025e-5
-1.282, 1.029e-5
-1.283, 1.031e-5
-1.284, 1.035e-5
-1.285, 1.035e-5
-1.286, 1.040e-5
-1.287, 1.042e-5
-1.288, 1.042e-5
-1.289, 1.044e-5
-1.290, 1.044e-5
-1.291, 1.048e-5
-1.292, 1.053e-5
-1.293, 1.055e-5
-1.294, 1.057e-5
-1.295, 1.059e-5
-1.296, 1.060e-5
-1.297, 1.063e-5
-1.298, 1.066e-5
-1.299, 1.068e-5
-1.300, 1.073e-5
-1.301, 1.078e-5
-1.302, 1.078e-5
-1.303, 1.081e-5
-1.304, 1.083e-5
-1.305, 1.086e-5
-1.306, 1.090e-5
-1.307, 1.092e-5
-1.308, 1.098e-5
-1.309, 1.098e-5
-1.310, 1.105e-5
-1.311, 1.107e-5
-1.312, 1.111e-5
-1.313, 1.111e-5
-1.314, 1.114e-5
-1.315, 1.117e-5
-1.316, 1.119e-5
-1.317, 1.125e-5
-1.318, 1.128e-5
-1.319, 1.130e-5
-1.320, 1.138e-5
-1.321, 1.140e-5
-1.322, 1.141e-5
-1.323, 1.145e-5
-1.324, 1.148e-5
-1.325, 1.154e-5
-1.326, 1.159e-5
-1.327, 1.163e-5
-1.328, 1.166e-5
-1.329, 1.169e-5
-1.330, 1.174e-5
-1.331, 1.179e-5
-1.332, 1.186e-5
-1.333, 1.189e-5
-1.334, 1.189e-5
-1.335, 1.198e-5
-1.336, 1.205e-5
-1.337, 1.210e-5
-1.338, 1.215e-5
-1.339, 1.216e-5
-1.340, 1.220e-5
-1.341, 1.227e-5
-1.342, 1.230e-5
-1.343, 1.236e-5
-1.344, 1.239e-5
-1.345, 1.246e-5
-1.346, 1.251e-5
-1.347, 1.256e-5
-1.348, 1.257e-5
-1.349, 1.265e-5
-1.350, 1.271e-5
-1.351, 1.278e-5
-1.352, 1.283e-5
-1.353, 1.286e-5
-1.354, 1.293e-5
-1.355, 1.300e-5
-1.356, 1.305e-5
-1.357, 1.311e-5
-1.358, 1.320e-5
-1.359, 1.325e-5
-1.360, 1.330e-5
-1.361, 1.337e-5
-1.362, 1.343e-5
-1.363, 1.354e-5
-1.364, 1.362e-5
-1.365, 1.369e-5
-1.366, 1.381e-5
-1.367, 1.384e-5
-1.368, 1.389e-5
-1.369, 1.402e-5
-1.370, 1.409e-5
-1.371, 1.418e-5
-1.372, 1.426e-5
-1.373, 1.436e-5
-1.374, 1.449e-5
-1.375, 1.458e-5
-1.376, 1.463e-5
-1.377, 1.473e-5
-1.378, 1.482e-5
-1.379, 1.492e-5
-1.380, 1.498e-5
-1.381, 1.507e-5
-1.382, 1.523e-5
-1.383, 1.537e-5
-1.384, 1.551e-5
-1.385, 1.563e-5
-1.386, 1.573e-5
-1.387, 1.582e-5
-1.388, 1.593e-5
-1.389, 1.605e-5
-1.390, 1.620e-5
-1.391, 1.631e-5
-1.392, 1.645e-5
-1.393, 1.658e-5
-1.394, 1.669e-5
-1.395, 1.686e-5
-1.396, 1.704e-5
-1.397, 1.721e-5
-1.398, 1.736e-5
-1.399, 1.753e-5
-1.400, 1.767e-5
-1.401, 1.792e-5
-1.402, 1.807e-5
-1.403, 1.814e-5
-1.404, 1.835e-5
-1.405, 1.845e-5
-1.406, 1.863e-5
-1.407, 1.875e-5
-1.408, 1.896e-5
-1.409, 1.920e-5
-1.410, 1.937e-5
-1.411, 1.954e-5
-1.412, 1.968e-5
-1.413, 1.988e-5
-1.414, 2.002e-5
-1.415, 2.023e-5
-1.416, 2.037e-5
-1.417, 2.057e-5
-1.418, 2.077e-5
-1.419, 2.101e-5
-1.420, 2.118e-5
-1.421, 2.142e-5
-1.422, 2.162e-5
-1.423, 2.184e-5
-1.424, 2.202e-5
-1.425, 2.225e-5
-1.426, 2.239e-5
-1.427, 2.254e-5
-1.428, 2.281e-5
-1.429, 2.309e-5
-1.430, 2.337e-5
-1.431, 2.366e-5
-1.432, 2.378e-5
-1.433, 2.395e-5
-1.434, 2.424e-5
-1.435, 2.451e-5
-1.436, 2.462e-5
-1.437, 2.474e-5
-1.438, 2.495e-5
-1.439, 2.520e-5
-1.440, 2.539e-5
-1.441, 2.568e-5
-1.442, 2.579e-5
-1.443, 2.604e-5
-1.444, 2.629e-5
-1.445, 2.657e-5
-1.446, 2.675e-5
-1.447, 2.707e-5
-1.448, 2.730e-5
-1.449, 2.754e-5
-1.450, 2.779e-5
-1.451, 2.809e-5
-1.452, 2.831e-5
-1.453, 2.860e-5
-1.454, 2.875e-5
-1.455, 2.893e-5
-1.456, 2.928e-5
-1.457, 2.955e-5
-1.458, 2.975e-5
-1.459, 3.015e-5
-1.460, 3.036e-5
-1.461, 3.068e-5
-1.462, 3.104e-5
-1.463, 3.132e-5
-1.464, 3.154e-5
-1.465, 3.185e-5
-1.466, 3.223e-5
-1.467, 3.252e-5
-1.468, 3.279e-5
-1.469, 3.318e-5
-1.470, 3.358e-5
-1.471, 3.403e-5
-1.472, 3.433e-5
-1.473, 3.465e-5
-1.474, 3.507e-5
-1.475, 3.542e-5
-1.476, 3.577e-5
-1.477, 3.620e-5
-1.478, 3.686e-5
-1.479, 3.737e-5
-1.480, 3.751e-5
-1.481, 3.793e-5
-1.482, 3.818e-5
-1.483, 3.854e-5
-1.484, 3.897e-5
-1.485, 3.938e-5
-1.486, 3.984e-5
-1.487, 4.034e-5
-1.488, 4.067e-5
-1.489, 4.104e-5
-1.490, 4.144e-5
-1.491, 4.188e-5
-1.492, 4.234e-5
-1.493, 4.300e-5
-1.494, 4.353e-5
-1.495, 4.399e-5
-1.496, 4.439e-5
-1.497, 4.498e-5
-1.498, 4.575e-5
-1.499, 4.634e-5
-1.500, 4.696e-5
-1.501, 4.765e-5
-1.502, 4.834e-5
-1.503, 4.910e-5
-1.504, 4.970e-5
-1.505, 5.023e-5
-1.506, 5.085e-5
-1.507, 5.146e-5
-1.508, 5.206e-5
-1.509, 5.269e-5
-1.510, 5.334e-5
-1.511, 5.412e-5
-1.512, 5.468e-5
-1.513, 5.537e-5
-1.514, 5.604e-5
-1.515, 5.655e-5
-1.516, 5.725e-5
-1.517, 5.813e-5
-1.518, 5.890e-5
-1.519, 5.957e-5
-1.520, 6.034e-5
-1.521, 6.118e-5
-1.522, 6.196e-5
-1.523, 6.283e-5
-1.524, 6.387e-5
-1.525, 6.451e-5
-1.526, 6.531e-5
-1.527, 6.636e-5
-1.528, 6.734e-5
-1.529, 6.822e-5
-1.530, 6.938e-5
-1.531, 7.032e-5
-1.532, 7.123e-5
-1.533, 7.231e-5
-1.534, 7.329e-5
-1.535, 7.445e-5
-1.536, 7.558e-5
-1.537, 7.650e-5
-1.538, 7.765e-5
-1.539, 7.875e-5
-1.540, 7.981e-5
-1.541, 8.087e-5
-1.542, 8.200e-5
-1.543, 8.328e-5
-1.544, 8.469e-5
-1.545, 8.581e-5
-1.546, 8.689e-5
-1.547, 8.809e-5
-1.548, 8.946e-5
-1.549, 9.084e-5
-1.550, 9.217e-5
-1.551, 9.350e-5
-1.552, 9.482e-5
-1.553, 9.615e-5
-1.554, 9.758e-5
-1.555, 9.890e-5
-1.556, 1.004e-4
-1.557, 1.020e-4
-1.558, 1.036e-4
-1.559, 1.049e-4
-1.560, 1.066e-4
-1.561, 1.080e-4
-1.562, 1.098e-4
-1.563, 1.115e-4
-1.564, 1.128e-4
-1.565, 1.145e-4
-1.566, 1.162e-4
-1.567, 1.179e-4
-1.568, 1.196e-4
-1.569, 1.214e-4
-1.570, 1.231e-4
-1.571, 1.250e-4
-1.572, 1.267e-4
-1.573, 1.287e-4
-1.574, 1.307e-4
-1.575, 1.325e-4
-1.576, 1.344e-4
-1.577, 1.366e-4
-1.578, 1.389e-4
-1.579, 1.407e-4
-1.580, 1.428e-4
-1.581, 1.450e-4
-1.582, 1.472e-4
-1.583, 1.493e-4
-1.584, 1.515e-4
-1.585, 1.537e-4
-1.586, 1.561e-4
-1.587, 1.586e-4
-1.588, 1.609e-4
-1.589, 1.634e-4
-1.590, 1.657e-4
-1.591, 1.682e-4
-1.592, 1.707e-4
-1.593, 1.729e-4
-1.594, 1.754e-4
-1.595, 1.779e-4
-1.596, 1.806e-4
-1.597, 1.832e-4
-1.598, 1.858e-4
-1.599, 1.883e-4
-1.600, 1.881e-4
-1.599, 1.848e-4
-1.598, 1.816e-4
-1.597, 1.778e-4
-1.596, 1.746e-4
-1.595, 1.715e-4
-1.594, 1.684e-4
-1.593, 1.652e-4
-1.592, 1.621e-4
-1.591, 1.591e-4
-1.590, 1.562e-4
-1.589, 1.534e-4
-1.588, 1.506e-4
-1.587, 1.479e-4
-1.586, 1.452e-4
-1.585, 1.424e-4
-1.584, 1.399e-4
-1.583, 1.375e-4
-1.582, 1.350e-4
-1.581, 1.326e-4
-1.580, 1.304e-4
-1.579, 1.279e-4
-1.578, 1.257e-4
-1.577, 1.234e-4
-1.576, 1.212e-4
-1.575, 1.191e-4
-1.574, 1.172e-4
-1.573, 1.152e-4
-1.572, 1.133e-4
-1.571, 1.114e-4
-1.570, 1.095e-4
-1.569, 1.074e-4
-1.568, 1.058e-4
-1.567, 1.039e-4
-1.566, 1.022e-4
-1.565, 1.005e-4
-1.564, 9.888e-5
-1.563, 9.727e-5
-1.562, 9.549e-5
-1.561, 9.360e-5
-1.560, 9.217e-5
-1.559, 9.072e-5
-1.558, 8.914e-5
-1.557, 8.771e-5
-1.556, 8.626e-5
-1.555, 8.477e-5
-1.554, 8.332e-5
-1.553, 8.198e-5
-1.552, 8.069e-5
-1.551, 7.921e-5
-1.550, 7.785e-5
-1.549, 7.661e-5
-1.548, 7.551e-5
-1.547, 7.430e-5
-1.546, 7.307e-5
-1.545, 7.191e-5
-1.544, 7.085e-5
-1.543, 6.975e-5
-1.542, 6.854e-5
-1.541, 6.743e-5
-1.540, 6.647e-5
-1.539, 6.558e-5
-1.538, 6.455e-5
-1.537, 6.348e-5
-1.536, 6.240e-5
-1.535, 6.134e-5
-1.534, 6.046e-5
-1.533, 5.959e-5
-1.532, 5.857e-5
-1.531, 5.772e-5
-1.530, 5.691e-5
-1.529, 5.600e-5
-1.528, 5.524e-5
-1.527, 5.436e-5
-1.526, 5.354e-5
-1.525, 5.269e-5
-1.524, 5.195e-5
-1.523, 5.116e-5
-1.522, 5.046e-5
-1.521, 4.973e-5
-1.520, 4.897e-5
-1.519, 4.820e-5
-1.518, 4.748e-5
-1.517, 4.684e-5
-1.516, 4.614e-5
-1.515, 4.551e-5
-1.514, 4.497e-5
-1.513, 4.423e-5
-1.512, 4.359e-5
-1.511, 4.305e-5
-1.510, 4.239e-5
-1.509, 4.181e-5
-1.508, 4.131e-5
-1.507, 4.083e-5
-1.506, 4.017e-5
-1.505, 3.960e-5
-1.504, 3.911e-5
-1.503, 3.870e-5
-1.502, 3.818e-5
-1.501, 3.767e-5
-1.500, 3.709e-5
-1.499, 3.652e-5
-1.498, 3.613e-5
-1.497, 3.563e-5
-1.496, 3.522e-5
-1.495, 3.480e-5
-1.494, 3.430e-5
-1.493, 3.385e-5
-1.492, 3.343e-5
-1.491, 3.300e-5
-1.490, 3.259e-5
-1.489, 3.214e-5
-1.488, 3.187e-5
-1.487, 3.156e-5
-1.486, 3.107e-5
-1.485, 3.073e-5
-1.484, 3.037e-5
-1.483, 3.000e-5
-1.482, 2.967e-5
-1.481, 2.927e-5
-1.480, 2.894e-5
-1.479, 2.863e-5
-1.478, 2.838e-5
-1.477, 2.807e-5
-1.476, 2.782e-5
-1.475, 2.753e-5
-1.474, 2.713e-5
-1.473, 2.688e-5
-1.472, 2.666e-5
-1.471, 2.636e-5
-1.470, 2.616e-5
-1.469, 2.589e-5
-1.468, 2.555e-5
-1.467, 2.522e-5
-1.466, 2.499e-5
-1.465, 2.473e-5
-1.464, 2.439e-5
-1.463, 2.413e-5
-1.462, 2.391e-5
-1.461, 2.366e-5
-1.460, 2.344e-5
-1.459, 2.323e-5
-1.458, 2.304e-5
-1.457, 2.276e-5
-1.456, 2.251e-5
-1.455, 2.232e-5
-1.454, 2.216e-5
-1.453, 2.195e-5
-1.452, 2.176e-5
-1.451, 2.154e-5
-1.450, 2.136e-5
-1.449, 2.117e-5
-1.448, 2.103e-5
-1.447, 2.077e-5
-1.446, 2.062e-5
-1.445, 2.044e-5
-1.444, 2.025e-5
-1.443, 2.008e-5
-1.442, 1.991e-5
-1.441, 1.975e-5
-1.440, 1.963e-5
-1.439, 1.947e-5
-1.438, 1.935e-5
-1.437, 1.919e-5
-1.436, 1.903e-5
-1.435, 1.890e-5
-1.434, 1.871e-5
-1.433, 1.858e-5
-1.432, 1.842e-5
-1.431, 1.832e-5
-1.430, 1.816e-5
-1.429, 1.801e-5
-1.428, 1.785e-5
-1.427, 1.772e-5
-1.426, 1.768e-5
-1.425, 1.754e-5
-1.424, 1.740e-5
-1.423, 1.732e-5
-1.422, 1.714e-5
-1.421, 1.702e-5
-1.420, 1.689e-5
-1.419, 1.677e-5
-1.418, 1.668e-5
-1.417, 1.658e-5
-1.416, 1.647e-5
-1.415, 1.637e-5
-1.414, 1.627e-5
-1.413, 1.617e-5
-1.412, 1.601e-5
-1.411, 1.589e-5
-1.410, 1.581e-5
-1.409, 1.570e-5
-1.408, 1.560e-5
-1.407, 1.549e-5
-1.406, 1.539e-5
-1.405, 1.529e-5
-1.404, 1.527e-5
-1.403, 1.517e-5
-1.402, 1.506e-5
-1.401, 1.498e-5
-1.400, 1.491e-5
-1.399, 1.483e-5
-1.398, 1.472e-5
-1.397, 1.463e-5
-1.396, 1.454e-5
-1.395, 1.442e-5
-1.394, 1.435e-5
-1.393, 1.430e-5
-1.392, 1.417e-5
-1.391, 1.407e-5
-1.390, 1.405e-5
-1.389, 1.397e-5
-1.388, 1.385e-5
-1.387, 1.375e-5
-1.386, 1.366e-5
-1.385, 1.361e-5
-1.384, 1.352e-5
-1.383, 1.347e-5
-1.382, 1.340e-5
-1.381, 1.334e-5
-1.380, 1.327e-5
-1.379, 1.319e-5
-1.378, 1.307e-5
-1.377, 1.298e-5
-1.376, 1.290e-5
-1.375, 1.285e-5
-1.374, 1.277e-5
-1.373, 1.272e-5
-1.372, 1.265e-5
-1.371, 1.257e-5
-1.370, 1.248e-5
-1.369, 1.237e-5
-1.368, 1.229e-5
-1.367, 1.225e-5
-1.366, 1.218e-5
-1.365, 1.214e-5
-1.364, 1.207e-5
-1.363, 1.200e-5
-1.362, 1.194e-5
-1.361, 1.188e-5
-1.360, 1.182e-5
-1.359, 1.174e-5
-1.358, 1.171e-5
-1.357, 1.164e-5
-1.356, 1.158e-5
-1.355, 1.153e-5
-1.354, 1.147e-5
-1.353, 1.139e-5
-1.352, 1.136e-5
-1.351, 1.130e-5
-1.350, 1.122e-5
-1.349, 1.117e-5
-1.348, 1.112e-5
-1.347, 1.108e-5
-1.346, 1.102e-5
-1.345, 1.098e-5
-1.344, 1.093e-5
-1.343, 1.086e-5
-1.342, 1.078e-5
-1.341, 1.074e-5
-1.340, 1.070e-5
-1.339, 1.065e-5
-1.338, 1.061e-5
-1.337, 1.053e-5
-1.336, 1.048e-5
-1.335, 1.042e-5
-1.334, 1.038e-5
-1.333, 1.033e-5
-1.332, 1.028e-5
-1.331, 1.024e-5
-1.330, 1.021e-5
-1.329, 1.013e-5
-1.328, 1.010e-5
-1.327, 1.001e-5
-1.326, 9.985e-6
-1.325, 9.991e-6
-1.324, 9.939e-6
-1.323, 9.872e-6
-1.322, 9.823e-6
-1.321, 9.781e-6
-1.320, 9.737e-6
-1.319, 9.652e-6
-1.318, 9.586e-6
-1.317, 9.563e-6
-1.316, 9.526e-6
-1.315, 9.491e-6
-1.314, 9.420e-6
-1.313, 9.375e-6
-1.312, 9.324e-6
-1.311, 9.291e-6
-1.310, 9.257e-6
-1.309, 9.221e-6
-1.308, 9.172e-6
-1.307, 9.143e-6
-1.306, 9.102e-6
-1.305, 9.034e-6
-1.304, 8.990e-6
-1.303, 8.946e-6
-1.302, 8.895e-6
-1.301, 8.864e-6
-1.300, 8.839e-6
-1.299, 8.783e-6
-1.298, 8.724e-6
-1.297, 8.689e-6
-1.296, 8.662e-6
-1.295, 8.639e-6
-1.294, 8.592e-6
-1.293, 8.546e-6
-1.292, 8.521e-6
-1.291, 8.481e-6
-1.290, 8.448e-6
-1.289, 8.410e-6
-1.288, 8.363e-6
-1.287, 8.327e-6
-1.286, 8.283e-6
-1.285, 8.251e-6
-1.284, 8.230e-6
-1.283, 8.174e-6
-1.282, 8.126e-6
-1.281, 8.108e-6
-1.280, 8.047e-6
-1.279, 8.015e-6
-1.278, 7.973e-6
-1.277, 7.944e-6
-1.276, 7.914e-6
-1.275, 7.886e-6
-1.274, 7.858e-6
-1.273, 7.809e-6
-1.272, 7.778e-6
-1.271, 7.733e-6
-1.270, 7.816e-6
-1.269, 7.850e-6
-1.268, 7.732e-6
-1.267, 7.684e-6
-1.266, 7.653e-6
-1.265, 7.611e-6
-1.264, 7.559e-6
-1.263, 7.519e-6
-1.262, 7.484e-6
-1.261, 7.458e-6
-1.260, 7.416e-6
-1.259, 7.367e-6
-1.258, 7.338e-6
-1.257, 7.274e-6
-1.256, 7.245e-6
-1.255, 7.192e-6
-1.254, 7.154e-6
-1.253, 7.113e-6
-1.252, 7.057e-6
-1.251, 7.029e-6
-1.250, 7.008e-6
-1.249, 6.948e-6
-1.248, 6.927e-6
-1.247, 6.863e-6
-1.246, 6.837e-6
-1.245, 6.810e-6
-1.244, 6.760e-6
-1.243, 6.737e-6
-1.242, 6.683e-6
-1.241, 6.636e-6
-1.240, 6.633e-6
-1.239, 6.603e-6
-1.238, 6.548e-6
-1.237, 6.530e-6
-1.236, 6.483e-6
-1.235, 6.445e-6
-1.234, 6.408e-6
-1.233, 6.371e-6
-1.232, 6.344e-6
-1.231, 6.313e-6
-1.230, 6.313e-6
-1.229, 6.243e-6
-1.228, 6.204e-6
-1.227, 6.161e-6
-1.226, 6.135e-6
-1.225, 6.116e-6
-1.224, 6.059e-6
-1.223, 6.028e-6
-1.222, 5.989e-6
-1.221, 5.973e-6
-1.220, 5.915e-6
-1.219, 5.892e-6
-1.218, 5.871e-6
-1.217, 5.823e-6
-1.216, 5.779e-6
-1.215, 5.767e-6
-1.214, 5.713e-6
-1.213, 5.676e-6
-1.212, 5.643e-6
-1.211, 5.606e-6
-1.210, 5.596e-6
-1.209, 5.546e-6
-1.208, 5.501e-6
-1.207, 5.478e-6
-1.206, 5.444e-6
-1.205, 5.413e-6
-1.204, 5.364e-6
-1.203, 5.326e-6
-1.202, 5.297e-6
-1.201, 5.265e-6
-1.200, 5.250e-6
-1.199, 5.206e-6
-1.198, 5.174e-6
-1.197, 5.149e-6
-1.196, 5.112e-6
-1.195, 5.079e-6
-1.194, 5.037e-6
-1.193, 5.015e-6
-1.192, 4.985e-6
-1.191, 4.966e-6
-1.190, 4.939e-6
-1.189, 4.895e-6
-1.188, 4.875e-6
-1.187, 4.838e-6
-1.186, 4.807e-6
-1.185, 4.772e-6
-1.184, 4.740e-6
-1.183, 4.693e-6
-1.182, 4.666e-6
-1.181, 4.648e-6
-1.180, 4.614e-6
-1.179, 4.597e-6
-1.178, 4.548e-6
-1.177, 4.517e-6
-1.176, 4.488e-6
-1.175, 4.453e-6
-1.174, 4.422e-6
-1.173, 4.392e-6
-1.172, 4.367e-6
-1.171, 4.346e-6
-1.170, 4.307e-6
-1.169, 4.300e-6
-1.168, 4.254e-6
-1.167, 4.228e-6
-1.166, 4.219e-6
-1.165, 4.161e-6
-1.164, 4.129e-6
-1.163, 4.107e-6
-1.162, 4.075e-6
-1.161, 4.045e-6
-1.160, 4.038e-6
-1.159, 4.001e-6
-1.158, 3.961e-6
-1.157, 3.942e-6
-1.156, 3.929e-6
-1.155, 3.888e-6
-1.154, 3.878e-6
-1.153, 3.845e-6
-1.152, 3.805e-6
-1.151, 3.803e-6
-1.150, 3.761e-6
-1.149, 3.747e-6
-1.148, 3.695e-6
-1.147, 3.672e-6
-1.146, 3.662e-6
-1.145, 3.643e-6
-1.144, 3.624e-6
-1.143, 3.591e-6
-1.142, 3.548e-6
-1.141, 3.554e-6
-1.140, 3.508e-6
-1.139, 3.489e-6
-1.138, 3.452e-6
-1.137, 3.451e-6
-1.136, 3.410e-6
-1.135, 3.397e-6
-1.134, 3.361e-6
-1.133, 3.343e-6
-1.132, 3.316e-6
-1.131, 3.300e-6
-1.130, 3.280e-6
-1.129, 3.246e-6
-1.128, 3.222e-6
-1.127, 3.195e-6
-1.126, 3.177e-6
-1.125, 3.158e-6
-1.124, 3.141e-6
-1.123, 3.109e-6
-1.122, 3.083e-6
-1.121, 3.080e-6
-1.120, 3.067e-6
-1.119, 3.037e-6
-1.118, 3.009e-6
-1.117, 2.994e-6
-1.116, 2.957e-6
-1.115, 2.966e-6
-1.114, 2.922e-6
-1.113, 2.915e-6
-1.112, 2.893e-6
-1.111, 2.886e-6
-1.110, 2.856e-6
-1.109, 2.824e-6
-1.108, 2.794e-6
-1.107, 2.787e-6
-1.106, 2.779e-6
-1.105, 2.751e-6
-1.104, 2.744e-6
-1.103, 2.710e-6
-1.102, 2.688e-6
-1.101, 2.652e-6
-1.100, 2.655e-6
-1.099, 2.647e-6
-1.098, 2.602e-6
-1.097, 2.581e-6
-1.096, 2.574e-6
-1.095, 2.554e-6
-1.094, 2.527e-6
-1.093, 2.507e-6
-1.092, 2.508e-6
-1.091, 2.497e-6
-1.090, 2.469e-6
-1.089, 2.437e-6
-1.088, 2.404e-6
-1.087, 2.401e-6
-1.086, 2.390e-6
-1.085, 2.382e-6
-1.084, 2.350e-6
-1.083, 2.334e-6
-1.082, 2.307e-6
-1.081, 2.322e-6
-1.080, 2.291e-6
-1.079, 2.267e-6
-1.078, 2.250e-6
-1.077, 2.242e-6
-1.076, 2.241e-6
-1.075, 2.207e-6
-1.074, 2.200e-6
-1.073, 2.188e-6
-1.072, 2.165e-6
-1.071, 2.157e-6
-1.070, 2.128e-6
-1.069, 2.112e-6
-1.068, 2.091e-6
-1.067, 2.085e-6
-1.066, 2.082e-6
-1.065, 2.074e-6
-1.064, 2.044e-6
-1.063, 2.029e-6
-1.062, 2.000e-6
-1.061, 2.019e-6
-1.060, 1.989e-6
-1.059, 1.985e-6
-1.058, 1.976e-6
-1.057, 1.940e-6
-1.056, 1.937e-6
-1.055, 1.919e-6
-1.054, 1.912e-6
-1.053, 1.886e-6
-1.052, 1.875e-6
-1.051, 1.878e-6
-1.050, 1.856e-6
-1.049, 1.828e-6
-1.048, 1.819e-6
-1.047, 1.806e-6
-1.046, 1.797e-6
-1.045, 1.789e-6
-1.044, 1.784e-6
-1.043, 1.761e-6
-1.042, 1.753e-6
-1.041, 1.741e-6
-1.040, 1.721e-6
-1.039, 1.709e-6
-1.038, 1.709e-6
-1.037, 1.698e-6
-1.036, 1.675e-6
-1.035, 1.635e-6
-1.034, 1.637e-6
-1.033, 1.633e-6
-1.032, 1.634e-6
-1.031, 1.605e-6
-1.030, 1.589e-6
-1.029, 1.592e-6
-1.028, 1.579e-6
-1.027, 1.559e-6
-1.026, 1.553e-6
-1.025, 1.539e-6
-1.024, 1.512e-6
-1.023, 1.502e-6
-1.022, 1.502e-6
-1.021, 1.497e-6
-1.020, 1.478e-6
-1.019, 1.452e-6
-1.018, 1.477e-6
-1.017, 1.447e-6
-1.016, 1.441e-6
-1.015, 1.417e-6
-1.014, 1.404e-6
-1.013, 1.398e-6
-1.012, 1.385e-6
-1.011, 1.372e-6
-1.010, 1.354e-6
-1.009, 1.362e-6
-1.008, 1.338e-6
-1.007, 1.335e-6
-1.006, 1.317e-6
-1.005, 1.306e-6
-1.004, 1.275e-6
-1.003, 1.285e-6
-1.002, 1.267e-6
-1.001, 1.267e-6
-1.000, 1.638e-6
-1.001, 1.910e-6
-1.002, 2.054e-6
-1.003, 2.146e-6
-1.004, 2.250e-6
-1.005, 2.320e-6
-1.006, 2.394e-6
-1.007, 2.471e-6
-1.008, 2.522e-6
-1.009, 2.590e-6
-1.010, 2.643e-6
-1.011, 2.693e-6
-1.012, 2.756e-6
-1.013, 2.803e-6
-1.014, 2.859e-6
-1.015, 2.894e-6
-1.016, 2.943e-6
-1.017, 2.970e-6
-1.018, 3.020e-6
-1.019, 3.078e-6
-1.020, 3.109e-6
-1.021, 3.125e-6
-1.022, 3.181e-6
-1.023, 3.215e-6
-1.024, 3.275e-6
-1.025, 3.307e-6
-1.026, 3.319e-6
-1.027, 3.346e-6
-1.028, 3.387e-6
-1.029, 3.439e-6
-1.030, 3.458e-6
-1.031, 3.488e-6
-1.032, 3.509e-6
-1.033, 3.558e-6
-1.034, 3.606e-6
-1.035, 3.591e-6
-1.036, 3.630e-6
-1.037, 3.652e-6
-1.038, 3.713e-6
-1.039, 3.736e-6
-1.040, 3.756e-6
-1.041, 3.792e-6
-1.042, 3.799e-6
-1.043, 3.837e-6
-1.044, 3.874e-6
-1.045, 3.880e-6
-1.046, 3.928e-6
-1.047, 3.943e-6
-1.048, 3.973e-6
-1.049, 4.011e-6
-1.050, 4.017e-6
-1.051, 4.044e-6
-1.052, 4.083e-6
-1.053, 4.115e-6
-1.054, 4.139e-6
-1.055, 4.146e-6
-1.056, 4.171e-6
-1.057, 4.217e-6
-1.058, 4.229e-6
-1.059, 4.239e-6
-1.060, 4.287e-6
-1.061, 4.289e-6
-1.062, 4.320e-6
-1.063, 4.341e-6
-1.064, 4.393e-6
-1.065, 4.410e-6
-1.066, 4.423e-6
-1.067, 4.438e-6
-1.068, 4.460e-6
-1.069, 4.489e-6
-1.070, 4.502e-6
-1.071, 4.531e-6
-1.072, 4.539e-6
-1.073, 4.576e-6
-1.074, 4.609e-6
-1.075, 4.634e-6
-1.076, 4.638e-6
-1.077, 4.658e-6
-1.078, 4.711e-6
-1.079, 4.721e-6
-1.080, 4.737e-6
-1.081, 4.768e-6
-1.082, 4.793e-6
-1.083, 4.820e-6
-1.084, 4.845e-6
-1.085, 4.870e-6
-1.086, 4.889e-6
-1.087, 4.907e-6
-1.088, 4.933e-6
-1.089, 4.965e-6
-1.090, 4.998e-6
-1.091, 5.010e-6
-1.092, 5.029e-6
-1.093, 5.063e-6
-1.094, 5.092e-6
-1.095, 5.121e-6
-1.096, 5.139e-6
-1.097, 5.154e-6
-1.098, 5.189e-6
-1.099, 5.208e-6
-1.100, 5.215e-6
-1.101, 5.254e-6
-1.102, 5.253e-6
-1.103, 5.288e-6
-1.104, 5.316e-6
-1.105, 5.336e-6
-1.106, 5.360e-6
-1.107, 5.391e-6
-1.108, 5.408e-6
-1.109, 5.426e-6
-1.110, 5.444e-6
-1.111, 5.497e-6
-1.112, 5.504e-6
-1.113, 5.521e-6
-1.114, 5.567e-6
-1.115, 5.582e-6
-1.116, 5.615e-6
-1.117, 5.643e-6
-1.118, 5.661e-6
-1.119, 5.698e-6
-1.120, 5.704e-6
-1.121, 5.722e-6
-1.122, 5.745e-6
-1.123, 5.784e-6
-1.124, 5.824e-6
-1.125, 5.835e-6
-1.126, 5.873e-6
-1.127, 5.872e-6
-1.128, 5.910e-6
-1.129, 5.936e-6
-1.130, 5.971e-6
-1.131, 5.989e-6
-1.132, 6.008e-6
-1.133, 6.063e-6
-1.134, 6.077e-6
-1.135, 6.089e-6
-1.136, 6.127e-6
-1.137, 6.140e-6
-1.138, 6.166e-6
-1.139, 6.210e-6
-1.140, 6.223e-6
-1.141, 6.258e-6
-1.142, 6.279e-6
-1.143, 6.314e-6
-1.144, 6.339e-6
-1.145, 6.357e-6
-1.146, 6.395e-6
-1.147, 6.410e-6
-1.148, 6.461e-6
-1.149, 6.483e-6
-1.150, 6.512e-6
-1.151, 6.548e-6
-1.152, 6.569e-6
-1.153, 6.589e-6
-1.154, 6.640e-6
-1.155, 6.662e-6
-1.156, 6.698e-6
-1.157, 6.711e-6
-1.158, 6.745e-6
-1.159, 6.787e-6
-1.160, 6.818e-6
-1.161, 6.851e-6
-1.162, 6.855e-6
-1.163, 6.896e-6
-1.164, 6.939e-6
-1.165, 6.951e-6
-1.166, 7.014e-6
-1.167, 7.043e-6
-1.168, 7.067e-6
-1.169, 7.092e-6
-1.170, 7.114e-6
-1.171, 7.164e-6
-1.172, 7.205e-6
-1.173, 7.229e-6
-1.174, 7.265e-6
-1.175, 7.302e-6
-1.176, 7.329e-6
-1.177, 7.366e-6
-1.178, 7.413e-6
-1.179, 7.455e-6
-1.180, 7.479e-6
-1.181, 7.515e-6
-1.182, 7.547e-6
-1.183, 7.586e-6
-1.184, 7.617e-6
-1.185, 7.653e-6
-1.186, 7.698e-6
-1.187, 7.713e-6
-1.188, 7.780e-6
-1.189, 7.787e-6
-1.190, 7.849e-6
-1.191, 7.864e-6
-1.192, 7.917e-6
-1.193, 7.963e-6
-1.194, 7.977e-6
-1.195, 8.017e-6
-1.196, 8.064e-6
-1.197, 8.102e-6
-1.198, 8.160e-6
-1.199, 8.187e-6
-1.200, 8.219e-6
-1.201, 8.249e-6
-1.202, 8.293e-6
-1.203, 8.345e-6
-1.204, 8.388e-6
-1.205, 8.436e-6
-1.206, 8.437e-6
-1.207, 8.488e-6
-1.208, 8.509e-6
-1.209, 8.566e-6
-1.210, 8.598e-6
-1.211, 8.630e-6
-1.212, 8.665e-6
-1.213, 8.710e-6
-1.214, 8.758e-6
-1.215, 8.807e-6
-1.216, 8.821e-6
-1.217, 8.870e-6
-1.218, 8.917e-6
-1.219, 8.951e-6
-1.220, 8.970e-6
-1.221, 8.999e-6
-1.222, 9.043e-6
-1.223, 9.087e-6
-1.224, 9.118e-6
-1.225, 9.143e-6
-1.226, 9.180e-6
-1.227, 9.222e-6
-1.228, 9.252e-6
-1.229, 9.310e-6
-1.230, 9.328e-6
-1.231, 9.345e-6
-1.232, 9.379e-6
-1.233, 9.407e-6
-1.234, 9.430e-6
-1.235, 9.453e-6
-1.236, 9.511e-6
-1.237, 9.529e-6
-1.238, 9.557e-6
-1.239, 9.588e-6
-1.240, 9.608e-6
-1.241, 9.653e-6
-1.242, 9.664e-6
-1.243, 9.705e-6
-1.244, 9.749e-6
-1.245, 9.749e-6
-1.246, 9.780e-6
-1.247, 9.817e-6
-1.248, 9.845e-6
-1.249, 9.877e-6
-1.250, 9.890e-6
-1.251, 9.907e-6
-1.252, 9.934e-6
-1.253, 9.953e-6
-1.254, 9.984e-6
-1.255, 1.000e-5
-1.256, 1.004e-5
-1.257, 1.004e-5
-1.258, 1.004e-5
-1.259, 1.008e-5
-1.260, 1.009e-5
-1.261, 1.011e-5
-1.262, 1.013e-5
-1.263, 1.018e-5
-1.264, 1.020e-5
-1.265, 1.020e-5
-1.266, 1.021e-5
-1.267, 1.024e-5
-1.268, 1.026e-5
-1.269, 1.027e-5
-1.270, 1.029e-5
-1.271, 1.029e-5
-1.272, 1.031e-5
-1.273, 1.035e-5
-1.274, 1.038e-5
-1.275, 1.039e-5
-1.276, 1.041e-5
-1.277, 1.042e-5
-1.278, 1.044e-5
-1.279, 1.046e-5
-1.280, 1.049e-5
-1.281, 1.051e-5
-1.282, 1.053e-5
-1.283, 1.053e-5
-1.284, 1.060e-5
-1.285, 1.059e-5
-1.286, 1.060e-5
-1.287, 1.061e-5
-1.288, 1.063e-5
-1.289, 1.066e-5
-1.290, 1.066e-5
-1.291, 1.066e-5
-1.292, 1.069e-5
-1.293, 1.071e-5
-1.294, 1.076e-5
-1.295, 1.077e-5
-1.296, 1.080e-5
-1.297, 1.081e-5
-1.298, 1.081e-5
-1.299, 1.086e-5
-1.300, 1.087e-5
-1.301, 1.089e-5
-1.302, 1.090e-5
-1.303, 1.096e-5
-1.304, 1.098e-5
-1.305, 1.102e-5
-1.306, 1.105e-5
-1.307, 1.105e-5
-1.308, 1.109e-5
-1.309, 1.111e-5
-1.310, 1.114e-5
-1.311, 1.116e-5
-1.312, 1.120e-5
-1.313, 1.121e-5
-1.314, 1.125e-5
-1.315, 1.125e-5
-1.316, 1.128e-5
-1.317, 1.132e-5
-1.318, 1.134e-5
-1.319, 1.139e-5
-1.320, 1.142e-5
-1.321, 1.143e-5
-1.322, 1.145e-5
-1.323, 1.150e-5
-1.324, 1.151e-5
-1.325, 1.156e-5
-1.326, 1.159e-5
-1.327, 1.161e-5
-1.328, 1.163e-5
-1.329, 1.165e-5
-1.330, 1.169e-5
-1.331, 1.173e-5
-1.332, 1.177e-5
-1.333, 1.182e-5
-1.334, 1.186e-5
-1.335, 1.186e-5
-1.336, 1.186e-5
-1.337, 1.193e-5
-1.338, 1.197e-5
-1.339, 1.197e-5
-1.340, 1.200e-5
-1.341, 1.202e-5
-1.342, 1.208e-5
-1.343, 1.211e-5
-1.344, 1.215e-5
-1.345, 1.220e-5
-1.346, 1.226e-5
-1.347, 1.234e-5
-1.348, 1.237e-5
-1.349, 1.238e-5
-1.350, 1.241e-5
-1.351, 1.246e-5
-1.352, 1.250e-5
-1.353, 1.259e-5
-1.354, 1.262e-5
-1.355, 1.265e-5
-1.356, 1.269e-5
-1.357, 1.275e-5
-1.358, 1.282e-5
-1.359, 1.281e-5
-1.360, 1.287e-5
-1.361, 1.292e-5
-1.362, 1.297e-5
-1.363, 1.303e-5
-1.364, 1.313e-5
-1.365, 1.316e-5
-1.366, 1.319e-5
-1.367, 1.323e-5
-1.368, 1.334e-5
-1.369, 1.340e-5
-1.370, 1.344e-5
-1.371, 1.349e-5
-1.372, 1.353e-5
-1.373, 1.359e-5
-1.374, 1.364e-5
-1.375, 1.372e-5
-1.376, 1.379e-5
-1.377, 1.384e-5
-1.378, 1.398e-5
-1.379, 1.402e-5
-1.380, 1.417e-5
-1.381, 1.423e-5
-1.382, 1.430e-5
-1.383, 1.439e-5
-1.384, 1.451e-5
-1.385, 1.459e-5
-1.386, 1.463e-5
-1.387, 1.470e-5
-1.388, 1.483e-5
-1.389, 1.495e-5
-1.390, 1.502e-5
-1.391, 1.509e-5
-1.392, 1.523e-5
-1.393, 1.539e-5
-1.394, 1.546e-5
-1.395, 1.555e-5
-1.396, 1.569e-5
-1.397, 1.577e-5
-1.398, 1.589e-5
-1.399, 1.604e-5
-1.400, 1.615e-5
-1.401, 1.627e-5
-1.402, 1.645e-5
-1.403, 1.655e-5
-1.404, 1.670e-5
-1.405, 1.681e-5
-1.406, 1.690e-5
-1.407, 1.704e-5
-1.408, 1.718e-5
-1.409, 1.735e-5
-1.410, 1.753e-5
-1.411, 1.768e-5
-1.412, 1.783e-5
-1.413, 1.795e-5
-1.414, 1.813e-5
-1.415, 1.829e-5
-1.416, 1.845e-5
-1.417, 1.858e-5
-1.418, 1.882e-5
-1.419, 1.901e-5
-1.420, 1.922e-5
-1.421, 1.996e-5
-1.422, 1.987e-5
-1.423, 1.980e-5
-1.424, 1.993e-5
-1.425, 2.012e-5
-1.426, 2.032e-5
-1.427, 2.055e-5
-1.428, 2.081e-5
-1.429, 2.103e-5
-1.430, 2.119e-5
-1.431, 2.136e-5
-1.432, 2.152e-5
-1.433, 2.179e-5
-1.434, 2.203e-5
-1.435, 2.224e-5
-1.436, 2.246e-5
-1.437, 2.260e-5
-1.438, 2.294e-5
-1.439, 2.321e-5
-1.440, 2.354e-5
-1.441, 2.376e-5
-1.442, 2.397e-5
-1.443, 2.419e-5
-1.444, 2.445e-5
-1.445, 2.475e-5
-1.446, 2.498e-5
-1.447, 2.523e-5
-1.448, 2.549e-5
-1.449, 2.569e-5
-1.450, 2.602e-5
-1.451, 2.631e-5
-1.452, 2.663e-5
-1.453, 2.687e-5
-1.454, 2.718e-5
-1.455, 2.744e-5
-1.456, 2.784e-5
-1.457, 2.812e-5
-1.458, 2.848e-5
-1.459, 2.882e-5
-1.460, 2.912e-5
-1.461, 2.961e-5
-1.462, 3.002e-5
-1.463, 3.037e-5
-1.464, 3.078e-5
-1.465, 3.112e-5
-1.466, 3.146e-5
-1.467, 3.175e-5
-1.468, 3.225e-5
-1.469, 3.254e-5
-1.470, 3.297e-5
-1.471, 3.330e-5
-1.472, 3.373e-5
-1.473, 3.412e-5
-1.474, 3.455e-5
-1.475, 3.500e-5
-1.476, 3.546e-5
-1.477, 3.600e-5
-1.478, 3.647e-5
-1.479, 3.699e-5
-1.480, 3.759e-5
-1.481, 3.797e-5
-1.482, 3.846e-5
-1.483, 3.906e-5
-1.484, 3.957e-5
-1.485, 4.021e-5
-1.486, 4.079e-5
-1.487, 4.130e-5
-1.488, 4.182e-5
-1.489, 4.229e-5
-1.490, 4.291e-5
-1.491, 4.360e-5
-1.492, 4.414e-5
-1.493, 4.468e-5
-1.494, 4.537e-5
-1.495, 4.611e-5
-1.496, 4.673e-5
-1.497, 4.745e-5
-1.498, 4.805e-5
-1.499, 4.870e-5
-1.500, 4.941e-5
-1.501, 5.016e-5
-1.502, 5.096e-5
-1.503, 5.183e-5
-1.504, 5.258e-5
-1.505, 5.335e-5
-1.506, 5.395e-5
-1.507, 5.482e-5
-1.508, 5.570e-5
-1.509, 5.650e-5
-1.510, 5.731e-5
-1.511, 5.817e-5
-1.512, 5.902e-5
-1.513, 6.009e-5
-1.514, 6.106e-5
-1.515, 6.185e-5
-1.516, 6.276e-5
-1.517, 6.370e-5
-1.518, 6.471e-5
-1.519, 6.573e-5
-1.520, 6.667e-5
-1.521, 6.765e-5
-1.522, 6.870e-5
-1.523, 6.995e-5
-1.524, 7.106e-5
-1.525, 7.220e-5
-1.526, 7.328e-5
-1.527, 7.455e-5
-1.528, 7.565e-5
-1.529, 7.690e-5
-1.530, 7.805e-5
-1.531, 7.934e-5
-1.532, 8.067e-5
-1.533, 8.206e-5
-1.534, 8.339e-5
-1.535, 8.482e-5
-1.536, 8.623e-5
-1.537, 8.753e-5
-1.538, 8.897e-5
-1.539, 9.053e-5
-1.540, 9.211e-5
-1.541, 9.363e-5
-1.542, 9.517e-5
-1.543, 9.662e-5
-1.544, 9.824e-5
-1.545, 9.970e-5
-1.546, 1.013e-4
-1.547, 1.030e-4
-1.548, 1.048e-4
-1.549, 1.066e-4
-1.550, 1.083e-4
-1.551, 1.102e-4
-1.552, 1.120e-4
-1.553, 1.139e-4
-1.554, 1.157e-4
-1.555, 1.178e-4
-1.556, 1.197e-4
-1.557, 1.215e-4
-1.558, 1.235e-4
-1.559, 1.256e-4
-1.560, 1.277e-4
-1.561, 1.299e-4
-1.562, 1.319e-4
-1.563, 1.342e-4
-1.564, 1.364e-4
-1.565, 1.387e-4
-1.566, 1.409e-4
-1.567, 1.431e-4
-1.568, 1.456e-4
-1.569, 1.482e-4
-1.570, 1.507e-4
-1.571, 1.533e-4
-1.572, 1.557e-4
-1.573, 1.584e-4
-1.574, 1.612e-4
-1.575, 1.639e-4
-1.576, 1.666e-4
-1.577, 1.694e-4
-1.578, 1.722e-4
-1.579, 1.753e-4
-1.580, 1.784e-4
-1.581, 1.813e-4
-1.582, 1.842e-4
-1.583, 1.872e-4
-1.584, 1.903e-4
-1.585, 1.935e-4
-1.586, 1.967e-4
-1.587, 2.000e-4
-1.588, 2.034e-4
-1.589, 2.068e-4
-1.590, 2.101e-4
-1.591, 2.136e-4
-1.592, 2.171e-4
-1.593, 2.206e-4
-1.594, 2.244e-4
-1.595, 2.282e-4
-1.596, 2.319e-4
-1.597, 2.357e-4
-1.598, 2.397e-4
-1.599, 2.436e-4
-1.600, 2.436e-4
-1.599, 2.386e-4
-1.598, 2.342e-4
-1.597, 2.296e-4
-1.596, 2.253e-4
-1.595, 2.211e-4
-1.594, 2.169e-4
-1.593, 2.129e-4
-1.592, 2.089e-4
-1.591, 2.051e-4
-1.590, 2.011e-4
-1.589, 1.974e-4
-1.588, 1.938e-4
-1.587, 1.901e-4
-1.586, 1.865e-4
-1.585, 1.830e-4
-1.584, 1.797e-4
-1.583, 1.765e-4
-1.582, 1.731e-4
-1.581, 1.701e-4
-1.580, 1.670e-4
-1.579, 1.639e-4
-1.578, 1.608e-4
-1.577, 1.577e-4
-1.576, 1.548e-4
-1.575, 1.518e-4
-1.574, 1.491e-4
-1.573, 1.463e-4
-1.572, 1.438e-4
-1.571, 1.412e-4
-1.570, 1.385e-4
-1.569, 1.360e-4
-1.568, 1.336e-4
-1.567, 1.311e-4
-1.566, 1.289e-4
-1.565, 1.265e-4
-1.564, 1.242e-4
-1.563, 1.221e-4
-1.562, 1.199e-4
-1.561, 1.178e-4
-1.560, 1.157e-4
-1.559, 1.135e-4
-1.558, 1.115e-4
-1.557, 1.095e-4
-1.556, 1.075e-4
-1.555, 1.056e-4
-1.554, 1.038e-4
-1.553, 1.020e-4
-1.552, 1.002e-4
-1.551, 9.833e-5
-1.550, 9.663e-5
-1.549, 9.489e-5
-1.548, 9.329e-5
-1.547, 9.169e-5
-1.546, 9.009e-5
-1.545, 8.855e-5
-1.544, 8.704e-5
-1.543, 8.546e-5
-1.542, 8.396e-5
-1.541, 8.252e-5
-1.540, 8.099e-5
-1.539, 7.949e-5
-1.538, 7.808e-5
-1.537, 7.683e-5
-1.536, 7.546e-5
-1.535, 7.429e-5
-1.534, 7.290e-5
-1.533, 7.169e-5
-1.532, 7.044e-5
-1.531, 6.921e-5
-1.530, 6.797e-5
-1.529, 6.688e-5
-1.528, 6.576e-5
-1.527, 6.466e-5
-1.526, 6.356e-5
-1.525, 6.244e-5
-1.524, 6.142e-5
-1.523, 6.041e-5
-1.522, 5.944e-5
-1.521, 5.841e-5
-1.520, 5.743e-5
-1.519, 5.652e-5
-1.518, 5.561e-5
-1.517, 5.471e-5
-1.516, 5.369e-5
-1.515, 5.285e-5
-1.514, 5.204e-5
-1.513, 5.119e-5
-1.512, 5.044e-5
-1.511, 4.956e-5
-1.510, 4.869e-5
-1.509, 4.794e-5
-1.508, 4.713e-5
-1.507, 4.639e-5
-1.506, 4.567e-5
-1.505, 4.496e-5
-1.504, 4.426e-5
-1.503, 4.355e-5
-1.502, 4.284e-5
-1.501, 4.223e-5
-1.500, 4.146e-5
-1.499, 4.077e-5
-1.498, 4.015e-5
-1.497, 3.959e-5
-1.496, 3.896e-5
-1.495, 3.831e-5
-1.494, 3.778e-5
-1.493, 3.725e-5
-1.492, 3.662e-5
-1.491, 3.602e-5
-1.490, 3.558e-5
-1.489, 3.507e-5
-1.488, 3.453e-5
-1.487, 3.406e-5
-1.486, 3.352e-5
-1.485, 3.297e-5
-1.484, 3.255e-5
-1.483, 3.208e-5
-1.482, 3.155e-5
-1.481, 3.108e-5
-1.480, 3.064e-5
-1.479, 3.021e-5
-1.478, 2.981e-5
-1.477, 2.939e-5
-1.476, 2.897e-5
-1.475, 2.857e-5
-1.474, 2.824e-5
-1.473, 2.784e-5
-1.472, 2.747e-5
-1.471, 2.709e-5
-1.470, 2.671e-5
-1.469, 2.651e-5
-1.468, 2.604e-5
-1.467, 2.569e-5
-1.466, 2.536e-5
-1.465, 2.505e-5
-1.464, 2.470e-5
-1.463, 2.439e-5
-1.462, 2.404e-5
-1.461, 2.379e-5
-1.460, 2.350e-5
-1.459, 2.322e-5
-1.458, 2.292e-5
-1.457, 2.268e-5
-1.456, 2.237e-5
-1.455, 2.213e-5
-1.454, 2.176e-5
-1.453, 2.144e-5
-1.452, 2.120e-5
-1.451, 2.102e-5
-1.450, 2.074e-5
-1.449, 2.050e-5
-1.448, 2.023e-5
-1.447, 2.004e-5
-1.446, 1.980e-5
-1.445, 1.956e-5
-1.444, 1.933e-5
-1.443, 1.909e-5
-1.442, 1.895e-5
-1.441, 1.877e-5
-1.440, 1.854e-5
-1.439, 1.838e-5
-1.438, 1.819e-5
-1.437, 1.803e-5
-1.436, 1.780e-5
-1.435, 1.757e-5
-1.434, 1.737e-5
-1.433, 1.717e-5
-1.432, 1.703e-5
-1.431, 1.688e-5
-1.430, 1.669e-5
-1.429, 1.656e-5
-1.428, 1.636e-5
-1.427, 1.621e-5
-1.426, 1.604e-5
-1.425, 1.591e-5
-1.424, 1.576e-5
-1.423, 1.559e-5
-1.422, 1.542e-5
-1.421, 1.530e-5
-1.420, 1.521e-5
-1.419, 1.507e-5
-1.418, 1.489e-5
-1.417, 1.477e-5
-1.416, 1.467e-5
-1.415, 1.454e-5
-1.414, 1.442e-5
-1.413, 1.432e-5
-1.412, 1.417e-5
-1.411, 1.402e-5
-1.410, 1.389e-5
-1.409, 1.376e-5
-1.408, 1.365e-5
-1.407, 1.350e-5
-1.406, 1.339e-5
-1.405, 1.329e-5
-1.404, 1.317e-5
-1.403, 1.305e-5
-1.402, 1.297e-5
-1.401, 1.287e-5
-1.400, 1.280e-5
-1.399, 1.270e-5
-1.398, 1.258e-5
-1.397, 1.246e-5
-1.396, 1.235e-5
-1.395, 1.224e-5
-1.394, 1.215e-5
-1.393, 1.209e-5
-1.392, 1.198e-5
-1.391, 1.187e-5
-1.390, 1.180e-5
-1.389, 1.171e-5
-1.388, 1.165e-5
-1.387, 1.153e-5
-1.386, 1.145e-5
-1.385, 1.136e-5
-1.384, 1.129e-5
-1.383, 1.123e-5
-1.382, 1.116e-5
-1.381, 1.108e-5
-1.380, 1.097e-5
-1.379, 1.090e-5
-1.378, 1.084e-5
-1.377, 1.079e-5
-1.376, 1.071e-5
-1.375, 1.065e-5
-1.374, 1.058e-5
-1.373, 1.049e-5
-1.372, 1.044e-5
-1.371, 1.033e-5
-1.370, 1.025e-5
-1.369, 1.015e-5
-1.368, 1.010e-5
-1.367, 1.006e-5
-1.366, 9.952e-6
-1.365, 9.881e-6
-1.364, 9.825e-6
-1.363, 9.761e-6
-1.362, 9.700e-6
-1.361, 9.642e-6
-1.360, 9.557e-6
-1.359, 9.529e-6
-1.358, 9.480e-6
-1.357, 9.383e-6
-1.356, 9.315e-6
-1.355, 9.257e-6
-1.354, 9.187e-6
-1.353, 9.129e-6
-1.352, 9.054e-6
-1.351, 8.999e-6
-1.350, 8.948e-6
-1.349, 8.905e-6
-1.348, 8.857e-6
-1.347, 8.793e-6
-1.346, 8.707e-6
-1.345, 8.677e-6
-1.344, 8.579e-6
-1.343, 8.555e-6
-1.342, 8.493e-6
-1.341, 8.436e-6
-1.340, 8.369e-6
-1.339, 8.332e-6
-1.338, 8.274e-6
-1.337, 8.229e-6
-1.336, 8.174e-6
-1.335, 8.128e-6
-1.334, 8.053e-6
-1.333, 8.038e-6
-1.332, 7.992e-6
-1.331, 7.938e-6
-1.330, 7.872e-6
-1.329, 7.840e-6
-1.328, 7.795e-6
-1.327, 7.750e-6
-1.326, 7.711e-6
-1.325, 7.657e-6
-1.324, 7.612e-6
-1.323, 7.584e-6
-1.322, 7.553e-6
-1.321, 7.470e-6
-1.320, 7.449e-6
-1.319, 7.380e-6
-1.318, 7.344e-6
-1.317, 7.295e-6
-1.316, 7.277e-6
-1.315, 7.231e-6
-1.314, 7.192e-6
-1.313, 7.170e-6
-1.312, 7.116e-6
-1.311, 7.067e-6
-1.310, 7.041e-6
-1.309, 7.015e-6
-1.308, 7.007e-6
-1.307, 6.970e-6
-1.306, 6.929e-6
-1.305, 6.897e-6
-1.304, 6.829e-6
-1.303, 6.809e-6
-1.302, 6.744e-6
-1.301, 6.711e-6
-1.300, 6.654e-6
-1.299, 6.607e-6
-1.298, 6.583e-6
-1.297, 6.556e-6
-1.296, 6.517e-6
-1.295, 6.486e-6
-1.294, 6.444e-6
-1.293, 6.414e-6
-1.292, 6.368e-6
-1.291, 6.338e-6
-1.290, 6.297e-6
-1.289, 6.272e-6
-1.288, 6.238e-6
-1.287, 6.221e-6
-1.286, 6.165e-6
-1.285, 6.141e-6
-1.284, 6.101e-6
-1.283, 6.100e-6
-1.282, 6.055e-6
-1.281, 6.009e-6
-1.280, 5.972e-6
-1.279, 5.942e-6
-1.278, 5.902e-6
-1.277, 5.883e-6
-1.276, 5.846e-6
-1.275, 5.804e-6
-1.274, 5.778e-6
-1.273, 5.744e-6
-1.272, 5.724e-6
-1.271, 5.685e-6
-1.270, 5.630e-6
-1.269, 5.646e-6
-1.268, 5.599e-6
-1.267, 5.565e-6
-1.266, 5.529e-6
-1.265, 5.527e-6
-1.264, 5.463e-6
-1.263, 5.443e-6
-1.262, 5.449e-6
-1.261, 5.368e-6
-1.260, 5.327e-6
-1.259, 5.323e-6
-1.258, 5.287e-6
-1.257, 5.260e-6
-1.256, 5.213e-6
-1.255, 5.193e-6
-1.254, 5.153e-6
-1.253, 5.127e-6
-1.252, 5.106e-6
-1.251, 5.052e-6
-1.250, 5.037e-6
-1.249, 5.007e-6
-1.248, 4.983e-6
-1.247, 4.959e-6
-1.246, 4.915e-6
-1.245, 4.904e-6
-1.244, 4.867e-6
-1.243, 4.851e-6
-1.242, 4.811e-6
-1.241, 4.784e-6
-1.240, 4.735e-6
-1.239, 4.735e-6
-1.238, 4.707e-6
-1.237, 4.663e-6
-1.236, 4.654e-6
-1.235, 4.621e-6
-1.234, 4.590e-6
-1.233, 4.593e-6
-1.232, 4.558e-6
-1.231, 4.514e-6
-1.230, 4.488e-6
-1.229, 4.443e-6
-1.228, 4.424e-6
-1.227, 4.391e-6
-1.226, 4.350e-6
-1.225, 4.324e-6
-1.224, 4.291e-6
-1.223, 4.280e-6
-1.222, 4.257e-6
-1.221, 4.210e-6
-1.220, 4.199e-6
-1.219, 4.156e-6
-1.218, 4.137e-6
-1.217, 4.104e-6
-1.216, 4.063e-6
-1.215, 4.044e-6
-1.214, 4.017e-6
-1.213, 3.993e-6
-1.212, 3.947e-6
-1.211, 3.934e-6
-1.210, 3.908e-6
-1.209, 3.878e-6
-1.208, 3.849e-6
-1.207, 3.837e-6
-1.206, 3.798e-6
-1.205, 3.775e-6
-1.204, 3.736e-6
-1.203, 3.696e-6
-1.202, 3.683e-6
-1.201, 3.660e-6
-1.200, 3.639e-6
-1.199, 3.602e-6
-1.198, 3.583e-6
-1.197, 3.555e-6
-1.196, 3.517e-6
-1.195, 3.493e-6
-1.194, 3.449e-6
-1.193, 3.437e-6
-1.192, 3.395e-6
-1.191, 3.393e-6
-1.190, 3.369e-6
-1.189, 3.334e-6
-1.188, 3.325e-6
-1.187, 3.305e-6
-1.186, 3.268e-6
-1.185, 3.248e-6
-1.184, 3.197e-6
-1.183, 3.187e-6
-1.182, 3.155e-6
-1.181, 3.113e-6
-1.180, 3.089e-6
-1.179, 3.066e-6
-1.178, 3.045e-6
-1.177, 3.027e-6
-1.176, 3.007e-6
-1.175, 2.977e-6
-1.174, 2.928e-6
-1.173, 2.906e-6
-1.172, 2.888e-6
-1.171, 2.856e-6
-1.170, 2.836e-6
-1.169, 2.789e-6
-1.168, 2.801e-6
-1.167, 2.754e-6
-1.166, 2.727e-6
-1.165, 2.689e-6
-1.164, 2.671e-6
-1.163, 2.649e-6
-1.162, 2.636e-6
-1.161, 2.602e-6
-1.160, 2.566e-6
-1.159, 2.556e-6
-1.158, 2.555e-6
-1.157, 2.509e-6
-1.156, 2.466e-6
-1.155, 2.465e-6
-1.154, 2.409e-6
-1.153, 2.420e-6
-1.152, 2.378e-6
-1.151, 2.345e-6
-1.150, 2.319e-6
-1.149, 2.291e-6
-1.148, 2.279e-6
-1.147, 2.273e-6
-1.146, 2.223e-6
-1.145, 2.193e-6
-1.144, 2.185e-6
-1.143, 2.179e-6
-1.142, 2.131e-6
-1.141, 2.116e-6
-1.140, 2.105e-6
-1.139, 2.065e-6
-1.138, 2.060e-6
-1.137, 2.043e-6
-1.136, 1.997e-6
-1.135, 2.000e-6
-1.134, 1.963e-6
-1.133, 1.943e-6
-1.132, 1.913e-6
-1.131, 1.916e-6
-1.130, 1.874e-6
-1.129, 1.860e-6
-1.128, 1.834e-6
-1.127, 1.826e-6
-1.126, 1.784e-6
-1.125, 1.757e-6
-1.124, 1.732e-6
-1.123, 1.714e-6
-1.122, 1.721e-6
-1.121, 1.681e-6
-1.120, 1.656e-6
-1.119, 1.641e-6
-1.118, 1.625e-6
-1.117, 1.598e-6
-1.116, 1.579e-6
-1.115, 1.554e-6
-1.114, 1.544e-6
-1.113, 1.541e-6
-1.112, 1.511e-6
-1.111, 1.493e-6
-1.110, 1.460e-6
-1.109, 1.450e-6
-1.108, 1.465e-6
-1.107, 1.429e-6
-1.106, 1.416e-6
-1.105, 1.392e-6
-1.104, 1.374e-6
-1.103, 1.352e-6
-1.102, 1.348e-6
-1.101, 1.324e-6
-1.100, 1.281e-6
-1.099, 1.265e-6
-1.098, 1.275e-6
-1.097, 1.268e-6
-1.096, 1.233e-6
-1.095, 1.218e-6
-1.094, 1.200e-6
-1.093, 1.190e-6
-1.092, 1.163e-6
-1.091, 1.137e-6
-1.090, 1.144e-6
-1.089, 1.081e-6
-1.088, 1.109e-6
-1.087, 1.084e-6
-1.086, 1.065e-6
-1.085, 1.054e-6
-1.084, 1.025e-6
-1.083, 1.016e-6
-1.082, 1.017e-6
-1.081, 9.864e-7
-1.080, 9.637e-7
-1.079, 9.519e-7
-1.078, 9.529e-7
-1.077, 9.489e-7
-1.076, 9.124e-7
-1.075, 8.868e-7
-1.074, 8.897e-7
-1.073, 8.838e-7
-1.072, 8.779e-7
-1.071, 8.532e-7
-1.070, 8.424e-7
-1.069, 8.335e-7
-1.068, 7.960e-7
-1.067, 7.841e-7
-1.066, 7.901e-7
-1.065, 7.713e-7
-1.064, 7.605e-7
-1.063, 7.615e-7
-1.062, 7.358e-7
-1.061, 7.309e-7
-1.060, 7.003e-7
-1.059, 6.973e-7
-1.058, 7.102e-7
-1.057, 6.865e-7
-1.056, 6.796e-7
-1.055, 6.677e-7
-1.054, 6.549e-7
-1.053, 6.667e-7
-1.052, 6.539e-7
-1.051, 6.174e-7
-1.050, 6.125e-7
-1.049, 6.006e-7
-1.048, 5.829e-7
-1.047, 5.908e-7
-1.046, 5.720e-7
-1.045, 5.562e-7
-1.044, 5.572e-7
-1.043, 5.336e-7
-1.042, 5.336e-7
-1.041, 5.069e-7
-1.040, 5.020e-7
-1.039, 5.118e-7
-1.038, 5.030e-7
-1.037, 4.862e-7
-1.036, 4.763e-7
-1.035, 4.714e-7
-1.034, 4.665e-7
-1.033, 4.684e-7
-1.032, 4.566e-7
-1.031, 4.428e-7
-1.030, 4.300e-7
-1.029, 4.201e-7
-1.028, 4.231e-7
-1.027, 4.181e-7
-1.026, 4.132e-7
-1.025, 3.944e-7
-1.024, 3.619e-7
-1.023, 3.767e-7
-1.022, 3.875e-7
-1.021, 3.540e-7
-1.020, 3.500e-7
-1.019, 3.283e-7
-1.018, 3.392e-7
-1.017, 3.244e-7
-1.016, 3.234e-7
-1.015, 3.096e-7
-1.014, 3.037e-7
-1.013, 3.204e-7
-1.012, 3.145e-7
-1.011, 2.918e-7
-1.010, 2.839e-7
-1.009, 2.652e-7
-1.008, 2.642e-7
-1.007, 2.751e-7
-1.006, 2.613e-7
-1.005, 2.445e-7
-1.004, 2.317e-7
-1.003, 2.238e-7
-1.002, 2.277e-7
-1.001, 2.001e-7
-1.000, 7.476e-7
-1.001, 1.076e-6
-1.002, 1.269e-6
-1.003, 1.386e-6
-1.004, 1.478e-6
-1.005, 1.588e-6
-1.006, 1.676e-6
-1.007, 1.783e-6
-1.008, 1.835e-6
-1.009, 1.915e-6
-1.010, 1.970e-6
-1.011, 2.054e-6
-1.012, 2.141e-6
-1.013, 2.163e-6
-1.014, 2.221e-6
-1.015, 2.282e-6
-1.016, 2.332e-6
-1.017, 2.385e-6
-1.018, 2.423e-6
-1.019, 2.467e-6
-1.020, 2.498e-6
-1.021, 2.562e-6
-1.022, 2.605e-6
-1.023, 2.644e-6
-1.024, 2.679e-6
-1.025, 2.730e-6
-1.026, 2.775e-6
-1.027, 2.826e-6
-1.028, 2.850e-6
-1.029, 2.883e-6
-1.030, 2.906e-6
-1.031, 2.949e-6
-1.032, 2.996e-6
-1.033, 3.013e-6
-1.034, 3.054e-6
-1.035, 3.092e-6
-1.036, 3.121e-6
-1.037, 3.161e-6
-1.038, 3.175e-6
-1.039, 3.211e-6
-1.040, 3.238e-6
-1.041, 3.286e-6
-1.042, 3.313e-6
-1.043, 3.346e-6
-1.044, 3.353e-6
-1.045, 3.370e-6
-1.046, 3.410e-6
-1.047, 3.437e-6
-1.048, 3.457e-6
-1.049, 3.470e-6
-1.050, 3.515e-6
-1.051, 3.538e-6
-1.052, 3.580e-6
-1.053, 3.586e-6
-1.054, 3.623e-6
-1.055, 3.635e-6
-1.056, 3.680e-6
-1.057, 3.690e-6
-1.058, 3.714e-6
-1.059, 3.746e-6
-1.060, 3.747e-6
-1.061, 3.785e-6
-1.062, 3.826e-6
-1.063, 3.839e-6
-1.064, 3.851e-6
-1.065, 3.874e-6
-1.066, 3.902e-6
-1.067, 3.941e-6
-1.068, 3.954e-6
-1.069, 3.953e-6
-1.070, 3.984e-6
-1.071, 4.011e-6
-1.072, 4.040e-6
-1.073, 4.049e-6
-1.074, 4.090e-6
-1.075, 4.099e-6
-1.076, 4.137e-6
-1.077, 4.155e-6
-1.078, 4.174e-6
-1.079, 4.186e-6
-1.080, 4.220e-6
-1.081, 4.239e-6
-1.082, 4.267e-6
-1.083, 4.268e-6
-1.084, 4.288e-6
-1.085, 4.304e-6
-1.086, 4.329e-6
-1.087, 4.366e-6
-1.088, 4.388e-6
-1.089, 4.413e-6
-1.090, 4.437e-6
-1.091, 4.436e-6
-1.092, 4.483e-6
-1.093, 4.495e-6
-1.094, 4.508e-6
-1.095, 4.529e-6
-1.096, 4.531e-6
-1.097, 4.563e-6
-1.098, 4.590e-6
-1.099, 4.617e-6
-1.100, 4.621e-6
-1.101, 4.657e-6
-1.102, 4.702e-6
-1.103, 4.707e-6
-1.104, 4.716e-6
-1.105, 4.744e-6
-1.106, 4.742e-6
-1.107, 4.778e-6
-1.108, 4.800e-6
-1.109, 4.817e-6
-1.110, 4.828e-6
-1.111, 4.888e-6
-1.112, 4.875e-6
-1.113, 4.913e-6
-1.114, 4.918e-6
-1.115, 4.935e-6
-1.116, 4.970e-6
-1.117, 4.956e-6
-1.118, 5.010e-6
-1.119, 5.027e-6
-1.120, 5.034e-6
-1.121, 5.077e-6
-1.122, 5.093e-6
-1.123, 5.108e-6
-1.124, 5.137e-6
-1.125, 5.151e-6
-1.126, 5.169e-6
-1.127, 5.210e-6
-1.128, 5.237e-6
-1.129, 5.244e-6
-1.130, 5.287e-6
-1.131, 5.309e-6
-1.132, 5.326e-6
-1.133, 5.363e-6
-1.134, 5.358e-6
-1.135, 5.382e-6
-1.136, 5.416e-6
-1.137, 5.460e-6
-1.138, 5.461e-6
-1.139, 5.492e-6
-1.140, 5.521e-6
-1.141, 5.536e-6
-1.142, 5.558e-6
-1.143, 5.575e-6
-1.144, 5.592e-6
-1.145, 5.635e-6
-1.146, 5.659e-6
-1.147, 5.684e-6
-1.148, 5.708e-6
-1.149, 5.735e-6
-1.150, 5.764e-6
-1.151, 5.778e-6
-1.152, 5.827e-6
-1.153, 5.838e-6
-1.154, 5.862e-6
-1.155, 5.875e-6
-1.156, 5.908e-6
-1.157, 5.939e-6
-1.158, 5.961e-6
-1.159, 5.984e-6
-1.160, 6.020e-6
-1.161, 6.033e-6
-1.162, 6.083e-6
-1.163, 6.097e-6
-1.164, 6.130e-6
-1.165, 6.155e-6
-1.166, 6.189e-6
-1.167, 6.219e-6
-1.168, 6.257e-6
-1.169, 6.270e-6
-1.170, 6.303e-6
-1.171, 6.332e-6
-1.172, 6.360e-6
-1.173, 6.396e-6
-1.174, 6.407e-6
-1.175, 6.429e-6
-1.176, 6.467e-6
-1.177, 6.508e-6
-1.178, 6.545e-6
-1.179, 6.553e-6
-1.180, 6.610e-6
-1.181, 6.628e-6
-1.182, 6.675e-6
-1.183, 6.692e-6
-1.184, 6.719e-6
-1.185, 6.721e-6
-1.186, 6.776e-6
-1.187, 6.828e-6
-1.188, 6.863e-6
-1.189, 6.882e-6
-1.190, 6.904e-6
-1.191, 6.945e-6
-1.192, 6.978e-6
-1.193, 6.996e-6
-1.194, 7.028e-6
-1.195, 7.054e-6
-1.196, 7.094e-6
-1.197, 7.127e-6
-1.198, 7.167e-6
-1.199, 7.172e-6
-1.200, 7.206e-6
-1.201, 7.240e-6
-1.202, 7.277e-6
-1.203, 7.315e-6
-1.204, 7.348e-6
-1.205, 7.373e-6
-1.206, 7.416e-6
-1.207, 7.455e-6
-1.208, 7.477e-6
-1.209, 7.504e-6
-1.210, 7.558e-6
-1.211, 7.544e-6
-1.212, 7.586e-6
-1.213, 7.644e-6
-1.214, 7.645e-6
-1.215, 7.693e-6
-1.216, 7.713e-6
-1.217, 7.739e-6
-1.218, 7.784e-6
-1.219, 7.801e-6
-1.220, 7.839e-6
-1.221, 7.866e-6
-1.222, 7.880e-6
-1.223, 7.919e-6
-1.224, 7.929e-6
-1.225, 7.967e-6
-1.226, 7.985e-6
-1.227, 8.027e-6
-1.228, 8.038e-6
-1.229, 8.088e-6
-1.230, 8.113e-6
-1.231, 8.151e-6
-1.232, 8.169e-6
-1.233, 8.186e-6
-1.234, 8.223e-6
-1.235, 8.239e-6
-1.236, 8.251e-6
-1.237, 8.293e-6
-1.238, 8.314e-6
-1.239, 8.317e-6
-1.240, 8.330e-6
-1.241, 8.358e-6
-1.242, 8.416e-6
-1.243, 8.408e-6
-1.244, 8.439e-6
-1.245, 8.468e-6
-1.246, 8.480e-6
-1.247, 8.513e-6
-1.248, 8.521e-6
-1.249, 8.556e-6
-1.250, 8.558e-6
-1.251, 8.579e-6
-1.252, 8.625e-6
-1.253, 8.622e-6
-1.254, 8.608e-6
-1.255, 8.667e-6
-1.256, 8.685e-6
-1.257, 8.708e-6
-1.258, 8.721e-6
-1.259, 8.742e-6
-1.260, 8.748e-6
-1.261, 8.770e-6
-1.262, 8.800e-6
-1.263, 8.818e-6
-1.264, 8.816e-6
-1.265, 8.842e-6
-1.266, 8.837e-6
-1.267, 8.878e-6
-1.268, 8.881e-6
-1.269, 8.942e-6
-1.270, 8.918e-6
-1.271, 8.938e-6
-1.272, 8.947e-6
-1.273, 8.973e-6
-1.274, 9.001e-6
-1.275, 9.011e-6
-1.276, 9.017e-6
-1.277, 9.041e-6
-1.278, 9.035e-6
-1.279, 9.050e-6
-1.280, 9.090e-6
-1.281, 9.090e-6
-1.282, 9.144e-6
-1.283, 9.150e-6
-1.284, 9.186e-6
-1.285, 9.185e-6
-1.286, 9.229e-6
-1.287, 9.232e-6
-1.288, 9.257e-6
-1.289, 9.282e-6
-1.290, 9.294e-6
-1.291, 9.283e-6
-1.292, 9.324e-6
-1.293, 9.356e-6
-1.294, 9.356e-6
-1.295, 9.396e-6
-1.296, 9.396e-6
-1.297, 9.428e-6
-1.298, 9.445e-6
-1.299, 9.471e-6
-1.300, 9.475e-6
-1.301, 9.490e-6
-1.302, 9.543e-6
-1.303, 9.555e-6
-1.304, 9.554e-6
-1.305, 9.594e-6
-1.306, 9.609e-6
-1.307, 9.645e-6
-1.308, 9.666e-6
-1.309, 9.687e-6
-1.310, 9.716e-6
-1.311, 9.737e-6
-1.312, 9.789e-6
-1.313, 9.792e-6
-1.314, 9.819e-6
-1.315, 9.822e-6
-1.316, 9.826e-6
-1.317, 9.882e-6
-1.318, 9.894e-6
-1.319, 9.937e-6
-1.320, 9.933e-6
-1.321, 9.958e-6
-1.322, 9.988e-6
-1.323, 1.001e-5
-1.324, 1.005e-5
-1.325, 1.008e-5
-1.326, 1.009e-5
-1.327, 1.014e-5
-1.328, 1.015e-5
-1.329, 1.018e-5
-1.330, 1.022e-5
-1.331, 1.025e-5
-1.332, 1.026e-5
-1.333, 1.030e-5
-1.334, 1.031e-5
-1.335, 1.033e-5
-1.336, 1.038e-5
-1.337, 1.041e-5
-1.338, 1.044e-5
-1.339, 1.045e-5
-1.340, 1.049e-5
-1.341, 1.054e-5
-1.342, 1.060e-5
-1.343, 1.065e-5
-1.344, 1.067e-5
-1.345, 1.072e-5
-1.346, 1.073e-5
-1.347, 1.078e-5
-1.348, 1.082e-5
-1.349, 1.082e-5
-1.350, 1.088e-5
-1.351, 1.092e-5
-1.352, 1.097e-5
-1.353, 1.101e-5
-1.354, 1.108e-5
-1.355, 1.113e-5
-1.356, 1.120e-5
-1.357, 1.125e-5
-1.358, 1.129e-5
-1.359, 1.133e-5
-1.360, 1.137e-5
-1.361, 1.143e-5
-1.362, 1.149e-5
-1.363, 1.154e-5
-1.364, 1.159e-5
-1.365, 1.163e-5
-1.366, 1.168e-5
-1.367, 1.177e-5
-1.368, 1.181e-5
-1.369, 1.187e-5
-1.370, 1.195e-5
-1.371, 1.201e-5
-1.372, 1.209e-5
-1.373, 1.214e-5
-1.374, 1.220e-5
-1.375, 1.224e-5
-1.376, 1.231e-5
-1.377, 1.243e-5
-1.378, 1.246e-5
-1.379, 1.254e-5
-1.380, 1.262e-5
-1.381, 1.272e-5
-1.382, 1.279e-5
-1.383, 1.287e-5
-1.384, 1.294e-5
-1.385, 1.303e-5
-1.386, 1.311e-5
-1.387, 1.318e-5
-1.388, 1.328e-5
-1.389, 1.333e-5
-1.390, 1.343e-5
-1.391, 1.351e-5
-1.392, 1.362e-5
-1.393, 1.373e-5
-1.394, 1.381e-5
-1.395, 1.388e-5
-1.396, 1.401e-5
-1.397, 1.413e-5
-1.398, 1.420e-5
-1.399, 1.432e-5
-1.400, 1.445e-5
-1.401, 1.459e-5
-1.402, 1.470e-5
-1.403, 1.478e-5
-1.404, 1.492e-5
-1.405, 1.507e-5
-1.406, 1.519e-5
-1.407, 1.535e-5
-1.408, 1.547e-5
-1.409, 1.562e-5
-1.410, 1.576e-5
-1.411, 1.592e-5
-1.412, 1.610e-5
-1.413, 1.625e-5
-1.414, 1.642e-5
-1.415, 1.652e-5
-1.416, 1.666e-5
-1.417, 1.683e-5
-1.418, 1.697e-5
-1.419, 1.708e-5
-1.420, 1.726e-5
-1.421, 1.743e-5
-1.422, 1.764e-5
-1.423, 1.781e-5
-1.424, 1.799e-5
-1.425, 1.817e-5
-1.426, 1.842e-5
-1.427, 1.859e-5
-1.428, 1.877e-5
-1.429, 1.896e-5
-1.430, 1.915e-5
-1.431, 1.938e-5
-1.432, 1.960e-5
-1.433, 1.983e-5
-1.434, 2.004e-5
-1.435, 2.027e-5
-1.436, 2.050e-5
-1.437, 2.081e-5
-1.438, 2.110e-5
-1.439, 2.139e-5
-1.440, 2.164e-5
-1.441, 2.187e-5
-1.442, 2.212e-5
-1.443, 2.234e-5
-1.444, 2.259e-5
-1.445, 2.284e-5
-1.446, 2.313e-5
-1.447, 2.343e-5
-1.448, 2.372e-5
-1.449, 2.404e-5
-1.450, 2.437e-5
-1.451, 2.467e-5
-1.452, 2.501e-5
-1.453, 2.532e-5
-1.454, 2.565e-5
-1.455, 2.604e-5
-1.456, 2.632e-5
-1.457, 2.670e-5
-1.458, 2.708e-5
-1.459, 2.746e-5
-1.460, 2.779e-5
-1.461, 2.816e-5
-1.462, 2.856e-5
-1.463, 2.903e-5
-1.464, 2.940e-5
-1.465, 2.984e-5
-1.466, 3.035e-5
-1.467, 3.087e-5
-1.468, 3.133e-5
-1.469, 3.180e-5
-1.470, 3.224e-5
-1.471, 3.275e-5
-1.472, 3.322e-5
-1.473, 3.376e-5
-1.474, 3.428e-5
-1.475, 3.477e-5
-1.476, 3.530e-5
-1.477, 3.590e-5
-1.478, 3.648e-5
-1.479, 3.706e-5
-1.480, 3.758e-5
-1.481, 3.818e-5
-1.482, 3.884e-5
-1.483, 3.936e-5
-1.484, 4.002e-5
-1.485, 4.068e-5
-1.486, 4.135e-5
-1.487, 4.201e-5
-1.488, 4.264e-5
-1.489, 4.328e-5
-1.490, 4.406e-5
-1.491, 4.482e-5
-1.492, 4.555e-5
-1.493, 4.631e-5
-1.494, 4.711e-5
-1.495, 4.789e-5
-1.496, 4.865e-5
-1.497, 4.952e-5
-1.498, 5.042e-5
-1.499, 5.122e-5
-1.500, 5.204e-5
-1.501, 5.294e-5
-1.502, 5.386e-5
-1.503, 5.482e-5
-1.504, 5.573e-5
-1.505, 5.672e-5
-1.506, 5.766e-5
-1.507, 5.869e-5
-1.508, 5.962e-5
-1.509, 6.060e-5
-1.510, 6.170e-5
-1.511, 6.282e-5
-1.512, 6.387e-5
-1.513, 6.493e-5
-1.514, 6.602e-5
-1.515, 6.732e-5
-1.516, 6.891e-5
-1.517, 6.982e-5
-1.518, 7.087e-5
-1.519, 7.210e-5
-1.520, 7.347e-5
-1.521, 7.470e-5
-1.522, 7.601e-5
-1.523, 7.730e-5
-1.524, 7.868e-5
-1.525, 8.019e-5
-1.526, 8.156e-5
-1.527, 8.300e-5
-1.528, 8.441e-5
-1.529, 8.587e-5
-1.530, 8.745e-5
-1.531, 8.894e-5
-1.532, 9.057e-5
-1.533, 9.222e-5
-1.534, 9.389e-5
-1.535, 9.564e-5
-1.536, 9.727e-5
-1.537, 9.896e-5
-1.538, 1.007e-4
-1.539, 1.025e-4
-1.540, 1.044e-4
-1.541, 1.062e-4
-1.542, 1.081e-4
-1.543, 1.099e-4
-1.544, 1.118e-4
-1.545, 1.137e-4
-1.546, 1.158e-4
-1.547, 1.179e-4
-1.548, 1.200e-4
-1.549, 1.221e-4
-1.550, 1.242e-4
-1.551, 1.264e-4
-1.552, 1.287e-4
-1.553, 1.310e-4
-1.554, 1.332e-4
-1.555, 1.356e-4
-1.556, 1.380e-4
-1.557, 1.405e-4
-1.558, 1.430e-4
-1.559, 1.455e-4
-1.560, 1.481e-4
-1.561, 1.507e-4
-1.562, 1.534e-4
-1.563, 1.562e-4
-1.564, 1.590e-4
-1.565, 1.619e-4
-1.566, 1.647e-4
-1.567, 1.677e-4
-1.568, 1.708e-4
-1.569, 1.737e-4
-1.570, 1.768e-4
-1.571, 1.798e-4
-1.572, 1.830e-4
-1.573, 1.862e-4
-1.574, 1.896e-4
-1.575, 1.928e-4
-1.576, 1.963e-4
-1.577, 1.999e-4
-1.578, 2.034e-4
-1.579, 2.069e-4
-1.580, 2.105e-4
-1.581, 2.142e-4
-1.582, 2.180e-4
-1.583, 2.218e-4
-1.584, 2.255e-4
-1.585, 2.294e-4
-1.586, 2.335e-4
-1.587, 2.376e-4
-1.588, 2.419e-4
-1.589, 2.461e-4
-1.590, 2.502e-4
-1.591, 2.544e-4
-1.592, 2.589e-4
-1.593, 2.634e-4
-1.594, 2.680e-4
-1.595, 2.727e-4
-1.596, 2.773e-4
-1.597, 2.819e-4
-1.598, 2.869e-4
-1.599, 2.917e-4
-1.600, 2.917e-4
-1.599, 2.860e-4
-1.598, 2.808e-4
-1.597, 2.757e-4
-1.596, 2.707e-4
-1.595, 2.659e-4
-1.594, 2.611e-4
-1.593, 2.560e-4
-1.592, 2.512e-4
-1.591, 2.463e-4
-1.590, 2.414e-4
-1.589, 2.367e-4
-1.588, 2.323e-4
-1.587, 2.279e-4
-1.586, 2.236e-4
-1.585, 2.192e-4
-1.584, 2.151e-4
-1.583, 2.111e-4
-1.582, 2.071e-4
-1.581, 2.032e-4
-1.580, 1.995e-4
-1.579, 1.957e-4
-1.578, 1.921e-4
-1.577, 1.886e-4
-1.576, 1.850e-4
-1.575, 1.815e-4
-1.574, 1.780e-4
-1.573, 1.747e-4
-1.572, 1.714e-4
-1.571, 1.682e-4
-1.570, 1.650e-4
-1.569, 1.620e-4
-1.568, 1.590e-4
-1.567, 1.560e-4
-1.566, 1.532e-4
-1.565, 1.503e-4
-1.564, 1.475e-4
-1.563, 1.448e-4
-1.562, 1.421e-4
-1.561, 1.394e-4
-1.560, 1.368e-4
-1.559, 1.342e-4
-1.558, 1.317e-4
-1.557, 1.293e-4
-1.556, 1.269e-4
-1.555, 1.246e-4
-1.554, 1.222e-4
-1.553, 1.200e-4
-1.552, 1.178e-4
-1.551, 1.157e-4
-1.550, 1.135e-4
-1.549, 1.114e-4
-1.548, 1.094e-4
-1.547, 1.074e-4
-1.546, 1.054e-4
-1.545, 1.035e-4
-1.544, 1.016e-4
-1.543, 9.973e-5
-1.542, 9.789e-5
-1.541, 9.606e-5
-1.540, 9.429e-5
-1.539, 9.257e-5
-1.538, 9.088e-5
-1.537, 8.920e-5
-1.536, 8.759e-5
-1.535, 8.599e-5
-1.534, 8.440e-5
-1.533, 8.287e-5
-1.532, 8.130e-5
-1.531, 7.983e-5
-1.530, 7.839e-5
-1.529, 7.694e-5
-1.528, 7.556e-5
-1.527, 7.420e-5
-1.526, 7.286e-5
-1.525, 7.157e-5
-1.524, 7.026e-5
-1.523, 6.897e-5
-1.522, 6.773e-5
-1.521, 6.655e-5
-1.520, 6.536e-5
-1.519, 6.423e-5
-1.518, 6.309e-5
-1.517, 6.194e-5
-1.516, 6.078e-5
-1.515, 5.974e-5
-1.514, 5.868e-5
-1.513, 5.762e-5
-1.512, 5.658e-5
-1.511, 5.558e-5
-1.510, 5.456e-5
-1.509, 5.357e-5
-1.508, 5.270e-5
-1.507, 5.178e-5
-1.506, 5.088e-5
-1.505, 4.996e-5
-1.504, 4.908e-5
-1.503, 4.817e-5
-1.502, 4.736e-5
-1.501, 4.650e-5
-1.500, 4.567e-5
-1.499, 4.491e-5
-1.498, 4.410e-5
-1.497, 4.333e-5
-1.496, 4.261e-5
-1.495, 4.189e-5
-1.494, 4.115e-5
-1.493, 4.044e-5
-1.492, 3.982e-5
-1.491, 3.913e-5
-1.490, 3.845e-5
-1.489, 3.779e-5
-1.488, 3.716e-5
-1.487, 3.649e-5
-1.486, 3.587e-5
-1.485, 3.527e-5
-1.484, 3.470e-5
-1.483, 3.411e-5
-1.482, 3.357e-5
-1.481, 3.297e-5
-1.480, 3.242e-5
-1.479, 3.191e-5
-1.478, 3.136e-5
-1.477, 3.088e-5
-1.476, 3.034e-5
-1.475, 2.984e-5
-1.474, 2.946e-5
-1.473, 2.895e-5
-1.472, 2.844e-5
-1.471, 2.800e-5
-1.470, 2.754e-5
-1.469, 2.711e-5
-1.468, 2.666e-5
-1.467, 2.623e-5
-1.466, 2.583e-5
-1.465, 2.538e-5
-1.464, 2.497e-5
-1.463, 2.457e-5
-1.462, 2.420e-5
-1.461, 2.381e-5
-1.460, 2.350e-5
-1.459, 2.317e-5
-1.458, 2.279e-5
-1.457, 2.248e-5
-1.456, 2.213e-5
-1.455, 2.181e-5
-1.454, 2.144e-5
-1.453, 2.112e-5
-1.452, 2.079e-5
-1.451, 2.052e-5
-1.450, 2.020e-5
-1.449, 1.991e-5
-1.448, 1.964e-5
-1.447, 1.936e-5
-1.446, 1.907e-5
-1.445, 1.881e-5
-1.444, 1.850e-5
-1.443, 1.826e-5
-1.442, 1.798e-5
-1.441, 1.772e-5
-1.440, 1.750e-5
-1.439, 1.725e-5
-1.438, 1.705e-5
-1.437, 1.685e-5
-1.436, 1.664e-5
-1.435, 1.643e-5
-1.434, 1.623e-5
-1.433, 1.599e-5
-1.432, 1.575e-5
-1.431, 1.554e-5
-1.430, 1.532e-5
-1.429, 1.515e-5
-1.428, 1.504e-5
-1.427, 1.481e-5
-1.426, 1.460e-5
-1.425, 1.441e-5
-1.424, 1.423e-5
-1.423, 1.405e-5
-1.422, 1.384e-5
-1.421, 1.366e-5
-1.420, 1.349e-5
-1.419, 1.333e-5
-1.418, 1.320e-5
-1.417, 1.305e-5
-1.416, 1.290e-5
-1.415, 1.276e-5
-1.414, 1.264e-5
-1.413, 1.251e-5
-1.412, 1.238e-5
-1.411, 1.224e-5
-1.410, 1.210e-5
-1.409, 1.197e-5
-1.408, 1.183e-5
-1.407, 1.171e-5
-1.406, 1.157e-5
-1.405, 1.147e-5
-1.404, 1.133e-5
-1.403, 1.121e-5
-1.402, 1.108e-5
-1.401, 1.096e-5
-1.400, 1.083e-5
-1.399, 1.075e-5
-1.398, 1.064e-5
-1.397, 1.053e-5
-1.396, 1.042e-5
-1.395, 1.031e-5
-1.394, 1.023e-5
-1.393, 1.010e-5
-1.392, 9.984e-6
-1.391, 9.889e-6
-1.390, 9.779e-6
-1.389, 9.687e-6
-1.388, 9.582e-6
-1.387, 9.480e-6
-1.386, 9.393e-6
-1.385, 9.301e-6
-1.384, 9.258e-6
-1.383, 9.176e-6
-1.382, 9.076e-6
-1.381, 8.996e-6
-1.380, 8.908e-6
-1.379, 8.832e-6
-1.378, 8.769e-6
-1.377, 8.642e-6
-1.376, 8.576e-6
-1.375, 8.481e-6
-1.374, 8.412e-6
-1.373, 8.365e-6
-1.372, 8.269e-6
-1.371, 8.193e-6
-1.370, 8.119e-6
-1.369, 8.049e-6
-1.368, 7.966e-6
-1.367, 7.894e-6
-1.366, 7.813e-6
-1.365, 7.746e-6
-1.364, 7.676e-6
-1.363, 7.620e-6
-1.362, 7.538e-6
-1.361, 7.505e-6
-1.360, 7.456e-6
-1.359, 7.416e-6
-1.358, 7.306e-6
-1.357, 7.244e-6
-1.356, 7.159e-6
-1.355, 7.096e-6
-1.354, 7.024e-6
-1.353, 6.947e-6
-1.352, 6.901e-6
-1.351, 6.823e-6
-1.350, 6.768e-6
-1.349, 6.728e-6
-1.348, 6.662e-6
-1.347, 6.608e-6
-1.346, 6.561e-6
-1.345, 6.520e-6
-1.344, 6.453e-6
-1.343, 6.386e-6
-1.342, 6.337e-6
-1.341, 6.314e-6
-1.340, 6.257e-6
-1.339, 6.215e-6
-1.338, 6.145e-6
-1.337, 6.102e-6
-1.336, 6.040e-6
-1.335, 5.974e-6
-1.334, 5.916e-6
-1.333, 5.857e-6
-1.332, 5.845e-6
-1.331, 5.777e-6
-1.330, 5.745e-6
-1.329, 5.710e-6
-1.328, 5.672e-6
-1.327, 5.631e-6
-1.326, 5.574e-6
-1.325, 5.519e-6
-1.324, 5.464e-6
-1.323, 5.393e-6
-1.322, 5.354e-6
-1.321, 5.305e-6
-1.320, 5.288e-6
-1.319, 5.242e-6
-1.318, 5.207e-6
-1.317, 5.148e-6
-1.316, 5.100e-6
-1.315, 5.061e-6
-1.314, 5.030e-6
-1.313, 4.965e-6
-1.312, 4.911e-6
-1.311, 4.878e-6
-1.310, 4.850e-6
-1.309, 4.833e-6
-1.308, 4.777e-6
-1.307, 4.741e-6
-1.306, 4.699e-6
-1.305, 4.630e-6
-1.304, 4.652e-6
-1.303, 4.602e-6
-1.302, 4.550e-6
-1.301, 4.534e-6
-1.300, 4.478e-6
-1.299, 4.428e-6
-1.298, 4.387e-6
-1.297, 4.363e-6
-1.296, 4.327e-6
-1.295, 4.290e-6
-1.294, 4.266e-6
-1.293, 4.220e-6
-1.292, 4.191e-6
-1.291, 4.150e-6
-1.290, 4.117e-6
-1.289, 4.089e-6
-1.288, 4.062e-6
-1.287, 4.021e-6
-1.286, 3.982e-6
-1.285, 3.961e-6
-1.284, 3.916e-6
-1.283, 3.898e-6
-1.282, 3.882e-6
-1.281, 3.839e-6
-1.280, 3.781e-6
-1.279, 3.768e-6
-1.278, 3.743e-6
-1.277, 3.715e-6
-1.276, 3.668e-6
-1.275, 3.645e-6
-1.274, 3.627e-6
-1.273, 3.587e-6
-1.272, 3.569e-6
-1.271, 3.529e-6
-1.270, 3.489e-6
-1.269, 3.497e-6
-1.268, 3.470e-6
-1.267, 3.413e-6
-1.266, 3.400e-6
-1.265, 3.391e-6
-1.264, 3.401e-6
-1.263, 3.376e-6
-1.262, 3.324e-6
-1.261, 3.320e-6
-1.260, 3.280e-6
-1.259, 3.256e-6
-1.258, 3.221e-6
-1.257, 3.186e-6
-1.256, 3.159e-6
-1.255, 3.137e-6
-1.254, 3.122e-6
-1.253, 3.101e-6
-1.252, 3.067e-6
-1.251, 3.031e-6
-1.250, 3.022e-6
-1.249, 3.002e-6
-1.248, 2.970e-6
-1.247, 2.957e-6
-1.246, 2.926e-6
-1.245, 2.910e-6
-1.244, 2.905e-6
-1.243, 2.861e-6
-1.242, 2.838e-6
-1.241, 2.802e-6
-1.240, 2.801e-6
-1.239, 2.747e-6
-1.238, 2.743e-6
-1.237, 2.722e-6
-1.236, 2.697e-6
-1.235, 2.682e-6
-1.234, 2.655e-6
-1.233, 2.619e-6
-1.232, 2.616e-6
-1.231, 2.589e-6
-1.230, 2.560e-6
-1.229, 2.545e-6
-1.228, 2.511e-6
-1.227, 2.484e-6
-1.226, 2.467e-6
-1.225, 2.456e-6
-1.224, 2.460e-6
-1.223, 2.432e-6
-1.222, 2.380e-6
-1.221, 2.355e-6
-1.220, 2.349e-6
-1.219, 2.337e-6
-1.218, 2.302e-6
-1.217, 2.280e-6
-1.216, 2.245e-6
-1.215, 2.240e-6
-1.214, 2.197e-6
-1.213, 2.187e-6
-1.212, 2.174e-6
-1.211, 2.127e-6
-1.210, 2.129e-6
-1.209, 2.077e-6
-1.208, 2.065e-6
-1.207, 2.038e-6
-1.206, 2.019e-6
-1.205, 1.988e-6
-1.204, 1.984e-6
-1.203, 1.964e-6
-1.202, 1.926e-6
-1.201, 1.906e-6
-1.200, 1.897e-6
-1.199, 1.884e-6
-1.198, 1.838e-6
-1.197, 1.837e-6
-1.196, 1.784e-6
-1.195, 1.773e-6
-1.194, 1.766e-6
-1.193, 1.725e-6
-1.192, 1.714e-6
-1.191, 1.687e-6
-1.190, 1.646e-6
-1.189, 1.644e-6
-1.188, 1.608e-6
-1.187, 1.610e-6
-1.186, 1.578e-6
-1.185, 1.545e-6
-1.184, 1.543e-6
-1.183, 1.513e-6
-1.182, 1.490e-6
-1.181, 1.461e-6
-1.180, 1.445e-6
-1.179, 1.422e-6
-1.178, 1.419e-6
-1.177, 1.367e-6
-1.176, 1.334e-6
-1.175, 1.341e-6
-1.174, 1.316e-6
-1.173, 1.286e-6
-1.172, 1.262e-6
-1.171, 1.242e-6
-1.170, 1.218e-6
-1.169, 1.201e-6
-1.168, 1.179e-6
-1.167, 1.154e-6
-1.166, 1.107e-6
-1.165, 1.107e-6
-1.164, 1.097e-6
-1.163, 1.060e-6
-1.162, 1.036e-6
-1.161, 1.017e-6
-1.160, 9.963e-7
-1.159, 9.805e-7
-1.158, 9.361e-7
-1.157, 9.302e-7
-1.156, 8.917e-7
-1.155, 8.986e-7
-1.154, 8.532e-7
-1.153, 8.424e-7
-1.152, 8.078e-7
-1.151, 7.980e-7
-1.150, 7.743e-7
-1.149, 7.772e-7
-1.148, 7.457e-7
-1.147, 7.121e-7
-1.146, 6.904e-7
-1.145, 6.588e-7
-1.144, 6.588e-7
-1.143, 6.470e-7
-1.142, 6.006e-7
-1.141, 6.026e-7
-1.140, 5.730e-7
-1.139, 5.592e-7
-1.138, 5.266e-7
-1.137, 4.921e-7
-1.136, 4.901e-7
-1.135, 4.951e-7
-1.134, 4.734e-7
-1.133, 4.517e-7
-1.132, 4.240e-7
-1.131, 4.023e-7
-1.130, 4.004e-7
-1.129, 3.727e-7
-1.128, 3.471e-7
-1.127, 3.343e-7
-1.126, 2.820e-7
-1.125, 2.721e-7
-1.124, 2.662e-7
-1.123, 2.474e-7
-1.122, 2.238e-7
-1.121, 2.011e-7
-1.120, 1.902e-7
-1.119, 1.616e-7
-1.118, 1.616e-7
-1.117, 1.360e-7
-1.116, 1.113e-7
-1.115, 1.004e-7
-1.114, 8.169e-8
-1.113, 3.532e-8
-1.112, 1.263e-8
-1.111, 2.743e-8
-1.110, -3.157e-9
-1.109, 7.893e-10
-1.108, -5.545e-8
-1.107, -5.643e-8
-1.106, -8.800e-8
-1.105, -9.590e-8
-1.104, -8.208e-8
-1.103, -1.176e-7
-1.102, -1.403e-7
-1.101, -1.748e-7
-1.100, -1.817e-7
-1.099, -2.024e-7
-1.098, -2.163e-7
-1.097, -2.449e-7
-1.096, -2.508e-7
-1.095, -2.636e-7
-1.094, -2.656e-7
-1.093, -2.824e-7
-1.092, -2.952e-7
-1.091, -3.129e-7
-1.090, -3.416e-7
-1.089, -3.465e-7
-1.088, -3.662e-7
-1.087, -3.998e-7
-1.086, -4.165e-7
-1.085, -3.879e-7
-1.084, -3.919e-7
-1.083, -4.264e-7
-1.082, -4.294e-7
-1.081, -5.004e-7
-1.080, -4.698e-7
-1.079, -4.728e-7
-1.078, -4.955e-7
-1.077, -5.172e-7
-1.076, -5.399e-7
-1.075, -5.369e-7
-1.074, -5.349e-7
-1.073, -5.576e-7
-1.072, -5.793e-7
-1.071, -5.882e-7
-1.070, -5.872e-7
-1.069, -5.892e-7
-1.068, -6.198e-7
-1.067, -6.247e-7
-1.066, -6.464e-7
-1.065, -6.326e-7
-1.064, -6.454e-7
-1.063, -6.543e-7
-1.062, -6.780e-7
-1.061, -7.007e-7
-1.060, -7.155e-7
-1.059, -7.155e-7
-1.058, -7.253e-7
-1.057, -7.451e-7
-1.056, -7.530e-7
-1.055, -7.451e-7
-1.054, -7.599e-7
-1.053, -7.628e-7
-1.052, -7.776e-7
-1.051, -7.875e-7
-1.050, -7.974e-7
-1.049, -7.905e-7
-1.048, -8.053e-7
-1.047, -8.220e-7
-1.046, -8.427e-7
-1.045, -8.339e-7
-1.044, -8.201e-7
-1.043, -8.418e-7
-1.042, -8.497e-7
-1.041, -8.654e-7
-1.040, -8.447e-7
-1.039, -8.487e-7
-1.038, -8.773e-7
-1.037, -8.842e-7
-1.036, -8.802e-7
-1.035, -8.783e-7
-1.034, -9.000e-7
-1.033, -9.019e-7
-1.032, -9.217e-7
-1.031, -9.207e-7
-1.030, -9.306e-7
-1.029, -9.217e-7
-1.028, -9.375e-7
-1.027, -9.444e-7
-1.026, -9.365e-7
-1.025, -9.256e-7
-1.024, -9.631e-7
-1.023, -9.700e-7
-1.022, -9.750e-7
-1.021, -1.006e-6
-1.020, -9.809e-7
-1.019, -9.937e-7
-1.018, -1.006e-6
-1.017, -1.018e-6
-1.016, -1.026e-6
-1.015, -1.012e-6
-1.014, -1.016e-6
-1.013, -1.007e-6
-1.012, -1.030e-6
-1.011, -1.038e-6
-1.010, -1.030e-6
-1.009, -1.042e-6
-1.008, -1.048e-6
-1.007, -1.053e-6
-1.006, -1.068e-6
-1.005, -1.045e-6
-1.004, -1.060e-6
-1.003, -1.055e-6
-1.002, -1.059e-6
-1.001, -1.063e-6
