Potential V vs RHE, Current mA cm-2
0.013299999999999867,-0.02008890045808352
0.012299999999999978,-0.021036757028993096
0.011299999999999866,-0.021715818452928314
0.010299999999999976,-0.022281702972874327
0.009299999999999864,-0.02280514615382439
0.008299999999999974,-0.02327200088277985
0.007299999999999862,-0.02356909025575151
0.006299999999999972,-0.02388032674172182
0.00529999999999986,-0.024219857453689427
0.0042999999999999705,-0.02438962280967323
0.0032999999999998586,-0.02453109393965974
0.0022999999999999687,-0.024927213103621948
0.0012999999999998568,-0.02515356691160035
0.00029999999999996696,-0.025295038041586858
-0.000700000000000145,-0.025691157205549067
-0.0017000000000000348,-0.02587506967453152
-0.0027000000000001467,-0.025931658126526123
-0.0037000000000000366,-0.02632777729048833
-0.0047000000000001485,-0.02655413109846674
-0.005700000000000038,-0.026780484906445145
-0.00670000000000015,-0.027134162731411407
-0.00770000000000004,-0.027289780974396556
-0.008700000000000152,-0.02755857612137091
-0.009700000000000042,-0.027799077042347967
-0.010700000000000154,-0.028308373110299385
-0.011700000000000044,-0.02829422599730073
-0.012700000000000156,-0.028563021144275093
-0.013700000000000045,-0.028761080726256192
-0.014700000000000157,-0.028845963404248096
-0.015700000000000047,-0.02921378834221301
-0.01670000000000016,-0.02931281813320356
-0.01770000000000005,-0.029482583489187364
-0.01870000000000016,-0.029609907506175218
-0.01970000000000005,-0.029765525749160374
-0.020700000000000163,-0.03033141026910639
-0.021700000000000053,-0.030232380478115835
-0.022700000000000164,-0.030373851608102336
-0.023700000000000054,-0.030543616964086147
-0.024700000000000166,-0.030883147676053754
-0.025700000000000056,-0.031123648597030807
-0.026700000000000168,-0.031137795710029458
-0.027700000000000058,-0.03130756106601326
-0.02870000000000017,-0.031887592698957926
-0.02970000000000006,-0.03204321094194308
-0.03070000000000017,-0.03235444742791339
-0.03170000000000006,-0.03226956474992148
-0.03270000000000017,-0.032538359896895845
-0.03370000000000006,-0.032623242574887745
-0.034700000000000175,-0.032693978139880994
-0.035700000000000065,-0.033358892450817565
-0.03670000000000018,-0.03318912709483376
-0.03770000000000007,-0.03338718667681487
-0.03870000000000018,-0.03364183471079057
-0.03970000000000007,-0.034193572117737936
-0.04070000000000018,-0.03422186634373524
-0.04170000000000007,-0.03413698366574334
-0.04270000000000018,-0.03436333747372174
-0.04370000000000007,-0.034547249942704195
-0.044700000000000184,-0.03490092776767045
-0.045700000000000074,-0.03536778249662592
-0.046700000000000186,-0.03532534115762996
-0.047700000000000076,-0.035565842078607024
-0.04870000000000019,-0.035664871869597575
-0.04970000000000008,-0.03604684392056113
-0.05070000000000019,-0.036131726598553036
-0.05170000000000008,-0.036230756389543595
-0.05270000000000019,-0.03671175823149771
-0.05370000000000008,-0.036867376474482856
-0.05470000000000019,-0.036853229361484205
-0.05570000000000008,-0.03744740810742752
-0.056700000000000195,-0.03736252542943562
-0.057700000000000085,-0.03770205614140323
-0.058700000000000196,-0.037772791706396476
-0.059700000000000086,-0.038112322418364084
-0.0607000000000002,-0.03857917714731955
-0.06170000000000009,-0.03860747137331685
-0.0627000000000002,-0.038777236729300654
-0.06370000000000009,-0.03901773765027772
-0.0647000000000002,-0.039173355893262866
-0.06570000000000009,-0.039626063509219676
-0.0667000000000002,-0.039456298153235876
-0.0677000000000001,-0.03986656443019673
-0.0687000000000002,-0.04017780091616704
-0.0697000000000001,-0.040276830707157596
-0.07070000000000021,-0.040531478741133296
-0.0717000000000001,-0.04078612677510901
-0.07270000000000021,-0.04098418635709011
-0.0737000000000001,-0.041012480583087416
-0.07470000000000021,-0.04163495355502803
-0.0757000000000001,-0.04177642468501453
-0.07670000000000021,-0.04193204292799969
-0.0777000000000001,-0.04215839673597809
-0.07870000000000021,-0.04224327941396999
-0.0797000000000001,-0.04279501682091736
-0.08070000000000022,-0.043021370628895765
-0.0817000000000001,-0.04331846000186742
-0.08270000000000022,-0.043290165775870124
-0.08370000000000011,-0.04343163690585663
-0.08470000000000022,-0.043742873391826934
-0.08570000000000011,-0.0441531396687878
-0.08670000000000022,-0.04428046368577565
-0.08770000000000011,-0.044662435736739205
-0.08870000000000022,-0.04478975975372706
-0.08970000000000011,-0.04501611356170547
-0.09070000000000022,-0.04529905582167848
-0.09170000000000011,-0.04546882117766228
-0.09270000000000023,-0.04585079322862584
-0.09370000000000012,-0.04593567590661774
-0.09470000000000023,-0.046275206618585356
-0.09570000000000012,-0.046515707539562405
-0.09670000000000023,-0.046784502686536764
-0.09770000000000012,-0.04712403339850437
-0.09870000000000023,-0.04715232762450167
-0.09970000000000012,-0.04747771122347064
-0.10070000000000023,-0.04778894770944094
-0.10170000000000012,-0.04804359574341665
-0.10270000000000024,-0.048170919760404496
-0.10370000000000013,-0.0485104504723721
-0.10470000000000024,-0.04901974654032352
-0.10570000000000013,-0.048920716749332974
-0.10670000000000024,-0.04933098302629382
-0.10770000000000013,-0.049288541687297883
-0.10870000000000024,-0.04979783775524929
-0.10970000000000013,-0.049741249303254687
-0.11070000000000024,-0.05029298671020205
-0.11170000000000013,-0.05032128093619936
-0.11270000000000002,-0.050745694326158865
-0.11370000000000013,-0.05133987307210218
-0.11470000000000002,-0.051735992236064385
-0.11570000000000014,-0.05182087491405629
-0.11670000000000003,-0.052245288304015806
-0.11770000000000014,-0.052514083450990165
-0.11870000000000003,-0.052697995919972616
-0.11970000000000014,-0.05286776127595642
-0.12070000000000003,-0.053037526631940224
-0.12170000000000014,-0.05344779290890109
-0.12270000000000003,-0.053546822699891646
-0.12370000000000014,-0.053872206298860595
-0.12470000000000003,-0.05421173701082821
-0.12570000000000014,-0.05457956194879311
-0.12670000000000003,-0.054876651321764766
-0.12770000000000015,-0.05498982822575398
-0.12870000000000004,-0.05540009450271484
-0.12970000000000015,-0.055640595423691895
-0.13070000000000004,-0.05573962521468245
-0.13170000000000015,-0.0560084203616568
-0.13270000000000004,-0.05639039241262036
-0.13370000000000015,-0.05670162889859067
-0.13470000000000004,-0.05697042404556502
-0.13570000000000015,-0.057281660531535335
-0.13670000000000004,-0.057522161452512384
-0.13770000000000016,-0.05798901618146785
-0.13870000000000005,-0.05796072195547055
-0.13970000000000016,-0.058328546893435466
-0.14070000000000005,-0.05890857852638014
-0.14170000000000016,-0.05907834388236394
-0.14270000000000005,-0.059248109238347745
-0.14370000000000016,-0.0594603159333275
-0.14470000000000005,-0.06005449467927081
-0.14570000000000016,-0.06039402539123842
-0.14670000000000005,-0.06054964363422357
-0.14770000000000016,-0.061087233928172294
-0.14870000000000005,-0.06115796949316554
-0.14970000000000017,-0.0615965299961237
-0.15070000000000006,-0.06182288380410209
-0.15170000000000017,-0.062332179872053514
-0.15270000000000006,-0.06244535677604271
-0.15370000000000017,-0.06274244614901436
-0.15470000000000006,-0.06323759510396713
-0.15570000000000017,-0.06354883158993745
-0.15670000000000006,-0.0636761556069253
-0.15770000000000017,-0.06427033435286862
-0.15870000000000006,-0.06466645351683083
-0.15970000000000018,-0.06449668816084701
-0.16070000000000007,-0.06540210339276065
-0.16170000000000018,-0.06517574958478224
-0.16270000000000007,-0.06551528029674986
-0.16370000000000018,-0.06599628213870397
-0.16470000000000007,-0.06657631377164863
-0.16570000000000018,-0.06692999159661489
-0.16670000000000007,-0.06722708096958654
-0.16770000000000018,-0.0676656414725447
-0.16870000000000007,-0.06753831745555686
-0.16970000000000018,-0.06810420197550286
-0.17070000000000007,-0.06848617402646642
-0.17170000000000019,-0.06861349804345429
-0.17270000000000008,-0.0692642652413922
-0.1737000000000002,-0.06939158925838004
-0.17470000000000008,-0.07008479779531392
-0.1757000000000002,-0.07024041603829907
-0.17670000000000008,-0.07021212181230177
-0.1777000000000002,-0.07074971210625049
-0.17870000000000008,-0.07113168415721405
-0.1797000000000002,-0.0712024197222073
-0.18070000000000008,-0.07207954072812363
-0.1817000000000002,-0.07200880516313038
-0.18270000000000008,-0.07254639545707908
-0.1837000000000002,-0.07290007328204533
-0.1847000000000001,-0.0733386337850035
-0.1857000000000002,-0.07387622407895222
-0.1867000000000001,-0.0739328125309468
-0.1877000000000002,-0.07428649035591307
-0.1887000000000001,-0.07471090374587258
-0.1897000000000002,-0.0750787286838375
-0.1907000000000001,-0.07558802475178891
-0.1917000000000001,-0.07554558341279295
-0.19269999999999998,-0.07596999680275247
-0.1937000000000001,-0.07642270441870928
-0.19469999999999998,-0.07660661688769173
-0.1957000000000001,-0.07705932450364854
-0.19669999999999999,-0.07754032634560266
-0.1977000000000001,-0.0776676503625905
-0.1987,-0.07821938776953788
-0.1997000000000001,-0.0786155069335001
-0.2007,-0.07901162609746229
-0.2017000000000001,-0.07919553856644475
-0.2027,-0.07947848082641776
-0.2037000000000001,-0.07959165773040697
-0.2047,-0.08025657204134354
-0.2057000000000001,-0.08059610275331114
-0.2067,-0.08099222191727334
-0.2077000000000001,-0.08144492953323015
-0.2087,-0.08161469488921397
-0.2097000000000001,-0.08192593137518428
-0.2107,-0.08205325539217213
-0.2117000000000001,-0.0824352274431357
-0.2127,-0.08277475815510331
-0.2137000000000001,-0.08304355330207766
-0.2147,-0.08360943782202368
-0.2157000000000001,-0.08393482142099262
-0.2167,-0.08421776368096563
-0.21770000000000012,-0.08467047129692246
-0.2187,-0.08472705974891705
-0.21970000000000012,-0.0850807375738833
-0.2207,-0.08570321054582393
-0.22170000000000012,-0.08584468167581043
-0.2227,-0.08597200569279828
-0.22370000000000012,-0.08626909506576994
-0.2247,-0.08686327381171326
-0.22570000000000012,-0.08713206895868761
-0.2267,-0.08728768720167276
-0.22770000000000012,-0.08749989389665253
-0.22870000000000001,-0.08802333707760258
-0.22970000000000013,-0.08836286778957018
-0.23070000000000002,-0.088815575405527
-0.23170000000000013,-0.08898534076151081
-0.23270000000000002,-0.08929657724748112
-0.23370000000000013,-0.08936731281247437
-0.23470000000000002,-0.08983416754142984
-0.23570000000000013,-0.0904141991743745
-0.23670000000000002,-0.09020199247939473
-0.2376999999999999,-0.09068299432134884
-0.23870000000000002,-0.09123473172829621
-0.2396999999999999,-0.09134790863228542
-0.24070000000000003,-0.09156011532726518
-0.24169999999999991,-0.09222502963820174
-0.24270000000000003,-0.09195623449122738
-0.24369999999999992,-0.09266359014115991
-0.24470000000000003,-0.09281920838414506
-0.24569999999999992,-0.09330021022609918
-0.24670000000000003,-0.09354071114707624
-0.24769999999999992,-0.09393683031103843
-0.24870000000000003,-0.09414903700601819
-0.24969999999999992,-0.09424806679700874
-0.25070000000000003,-0.09485639265595071
-0.2516999999999999,-0.09495542244694127
-0.25270000000000004,-0.09528080604591022
-0.2536999999999999,-0.09508274646392911
-0.25470000000000004,-0.09576180788786433
-0.2556999999999999,-0.09634183952080899
-0.25670000000000004,-0.09607304437383464
-0.25769999999999993,-0.09641257508580224
-0.25870000000000004,-0.09678040002376717
-0.25969999999999993,-0.09714822496173206
-0.26070000000000004,-0.09764337391668483
-0.26169999999999993,-0.09751604989969698
-0.26270000000000004,-0.09764337391668483
-0.26369999999999993,-0.09789802195066052
-0.26470000000000005,-0.09826584688862545
-0.26569999999999994,-0.09869026027858496
-0.26670000000000005,-0.09886002563456876
-0.26769999999999994,-0.09938346881551882
-0.26870000000000005,-0.09945420438051207
-0.26969999999999994,-0.09949664571950805
-0.27070000000000005,-0.10014741291744596
-0.27169999999999994,-0.10034547249942705
-0.27270000000000005,-0.10093965124537037
-0.27369999999999994,-0.10088306279337576
-0.27470000000000006,-0.10112356371435283
-0.27569999999999995,-0.10166115400830154
-0.27670000000000006,-0.10191580204227724
-0.27769999999999995,-0.1019016549292786
-0.27870000000000006,-0.1021563029632543
-0.27969999999999995,-0.10267974614420436
-0.28070000000000006,-0.10314660087315983
-0.28169999999999995,-0.1032739248901477
-0.28270000000000006,-0.10350027869812609
-0.28369999999999995,-0.10358516137611798
-0.28470000000000006,-0.1040944574440694
-0.28569999999999995,-0.10492913711098976
-0.28670000000000007,-0.10518378514496549
-0.28769999999999996,-0.10522622648396143
-0.28870000000000007,-0.1056364927609223
-0.28969999999999996,-0.10618823016786964
-0.29070000000000007,-0.10658434933183186
-0.29169999999999996,-0.10673996757481702
-0.29270000000000007,-0.10702290983479003
-0.29369999999999996,-0.10727755786876574
-0.2947000000000001,-0.10770197125872524
-0.29569999999999996,-0.10787173661470904
-0.2967000000000001,-0.10838103268266046
-0.29769999999999996,-0.10873471050762673
-0.2987000000000001,-0.10901765276759973
-0.29969999999999997,-0.10941377193156195
-0.3007000000000001,-0.10975330264352953
-0.30169999999999997,-0.11026259871148097
-0.3027000000000001,-0.1106162765364472
-0.30369999999999997,-0.11102654281340808
-0.3047000000000001,-0.11166316289834735
-0.30569999999999997,-0.11196025227131902
-0.3067000000000001,-0.11246954833927042
-0.3077,-0.11280907905123803
-0.3087000000000001,-0.11324763955419619
-0.3097,-0.1135871702661638
-0.3107000000000001,-0.11411061344711387
-0.3117,-0.11449258549807742
-0.3127000000000001,-0.11437940859408821
-0.3137,-0.11517164692201265
-0.3147000000000001,-0.1156950901029627
-0.3157,-0.11634585730090061
-0.3167000000000001,-0.11634585730090061
-0.3177,-0.11710980140282773
-0.3187000000000001,-0.11722297830681694
-0.3197,-0.11770398014877105
-0.3207000000000001,-0.11853865981569144
-0.3217,-0.11894892609265229
-0.3227000000000001,-0.11916113278763205
-0.3237,-0.11945822216060371
-0.3247000000000001,-0.11998166534155377
-0.3257,-0.12030704894052272
-0.3267000000000001,-0.12107099304244984
-0.3277,-0.12149540643240934
-0.3287000000000001,-0.12191981982236885
-0.3297,-0.12251399856831217
-0.3307000000000001,-0.12279694082828517
-0.3317,-0.12343356091322445
-0.3327000000000001,-0.12395700409417452
-0.3337,-0.12452288861412053
-0.3347000000000001,-0.12501803756907331
-0.3357,-0.12578198167100044
-0.3367000000000001,-0.12589515857498962
-0.3377,-0.12665910267691674
-0.3387000000000001,-0.1272108400838641
-0.3397,-0.1278899015077993
-0.3407000000000001,-0.12834260912375614
-0.3417,-0.12903581766069
-0.3427000000000001,-0.1293470541466603
-0.3437,-0.13015343958758338
-0.3447000000000001,-0.1305778529775429
-0.3457,-0.13163888645244168
-0.3467000000000001,-0.1320915940683985
-0.3477,-0.13255844879735396
-0.3487000000000001,-0.1332233631082905
-0.3497,-0.13387413030622844
-0.3507000000000001,-0.13451075039116767
-0.3517,-0.1355576367530678
-0.3527000000000001,-0.1361659626120098
-0.3537,-0.13643475775898414
-0.3547000000000001,-0.13731187876490047
-0.3557,-0.1382172939968141
-0.35670000000000013,-0.13898123809874122
-0.3577,-0.13949053416669263
-0.35870000000000013,-0.14033936094661165
-0.3597,-0.14118818772653066
-0.36070000000000013,-0.1421784856364362
-0.3617,-0.1428858412863687
-0.3626999999999999,-0.1435931969363012
-0.3637,-0.14444202371622025
-0.3646999999999999,-0.14557379275611226
-0.3657,-0.1467055617960043
-0.3666999999999999,-0.14712997518596382
-0.3677,-0.14797880196588284
-0.3686999999999999,-0.14882762874580185
-0.36970000000000003,-0.1499593977856939
-0.3706999999999999,-0.1506667534356264
-0.37170000000000003,-0.1513741090855589
-0.3726999999999999,-0.15236440699546444
-0.37370000000000003,-0.15349617603535648
-0.3746999999999999,-0.15491088733522151
-0.37570000000000003,-0.15604265637511353
-0.3766999999999999,-0.15689148315503257
-0.37770000000000004,-0.15816472332491108
-0.3786999999999999,-0.15915502123481662
-0.37970000000000004,-0.16042826140469515
-0.3806999999999999,-0.1615600304445872
-0.38170000000000004,-0.16212591496453319
-0.38269999999999993,-0.16354062626439822
-0.38370000000000004,-0.16467239530429026
-0.38469999999999993,-0.1656626932141958
-0.38570000000000004,-0.16736034677403386
-0.38669999999999993,-0.16849211581392587
-0.38770000000000004,-0.16990682711379093
-0.38869999999999993,-0.17089712502369644
-0.38970000000000005,-0.17217036519357498
-0.39069999999999994,-0.17358507649344
-0.39170000000000005,-0.17528273005327805
-0.39269999999999994,-0.17641449909317006
-0.39370000000000005,-0.17782921039303512
-0.39469999999999994,-0.17924392169290015
-0.39570000000000005,-0.18108304638272468
-0.39669999999999994,-0.18278069994256274
-0.39770000000000005,-0.18419541124242778
-0.39869999999999994,-0.1860345359322523
-0.39970000000000006,-0.18773218949209036
-0.40069999999999995,-0.18942984305192842
-0.40170000000000006,-0.19112749661176645
-0.40269999999999995,-0.19282515017160448
-0.40370000000000006,-0.19466427486142904
-0.40469999999999995,-0.19622045729128057
-0.40570000000000006,-0.19862546650105112
-0.40669999999999995,-0.20018164893090268
-0.40770000000000006,-0.20230371588070023
-0.40869999999999995,-0.2041428405705248
-0.40970000000000006,-0.20612343639033584
-0.41069999999999995,-0.20838697447011992
-0.41170000000000007,-0.21065051254990397
-0.41269999999999996,-0.21248963723972852
-0.41370000000000007,-0.2151775887094721
-0.41469999999999996,-0.21715818452928315
-0.41570000000000007,-0.2195631937390537
-0.41669999999999996,-0.22140231842887825
-0.41770000000000007,-0.22366585650866228
-0.41869999999999996,-0.22578792345845985
-0.4197000000000001,-0.2284758749282034
-0.42069999999999996,-0.2310223552679605
-0.4217000000000001,-0.23342736447773108
-0.42269999999999996,-0.23583237368750162
-0.4237000000000001,-0.23837885402725867
-0.42469999999999997,-0.24064239210704275
-0.4257000000000001,-0.24361328583675934
-0.42669999999999997,-0.24615976617651636
-0.4277000000000001,-0.24870624651627343
-0.42869999999999997,-0.2515356691160035
-0.4297000000000001,-0.25422362058574705
-0.43069999999999997,-0.25733598544545017
-0.4317000000000001,-0.26016540804518024
-0.4327,-0.2628533595149239
-0.4337000000000001,-0.2661071955046134
-0.4347,-0.26907808923433
-0.4357000000000001,-0.2724733963540061
-0.4367,-0.2754442900837227
-0.4377000000000001,-0.27883959720339874
-0.4387,-0.2818104909331153
-0.4397000000000001,-0.2852057980527914
-0.4407,-0.289025518562427
-0.4417000000000001,-0.29256229681208956
-0.4427,-0.2962405461917387
-0.4437000000000001,-0.30006026670137426
-0.4447,-0.3038799872110099
-0.4457000000000001,-0.3079826499806185
-0.4467,-0.3122267838802136
-0.4477000000000001,-0.3164709177798087
-0.4487,-0.3205735805494173
-0.4497000000000001,-0.3253835989689584
-0.4507,-0.33019361738849956
-0.4517000000000001,-0.3351451069380272
-0.4527,-0.3433504324772444
-0.4537000000000001,-0.3467457395969205
-0.4547,-0.35155575801646166
-0.4557000000000001,-0.3565072475659892
-0.4567,-0.3616002082455034
-0.4577000000000001,-0.3666931689250175
-0.4587,-0.37263495638445066
-0.4597000000000001,-0.3790011572338433
-0.4607,-0.38522588695324944
-0.4617000000000001,-0.39116767441268263
-0.4627,-0.39739240413208876
-0.4637000000000001,-0.4037586049814815
-0.4647,-0.41083216148080665
-0.4657000000000001,-0.41748130459017235
-0.4667,-0.424130447699538
-0.4677000000000001,-0.4313454753288497
-0.4687,-0.4385605029581614
-0.4697000000000001,-0.4464828862374056
-0.4707,-0.45398085612669026
-0.4717000000000001,-0.46176176827594795
-0.4727,-0.46968415155519216
-0.4737000000000001,-0.47746506370444985
-0.4747,-0.4853874469836941
-0.4757000000000001,-0.4935927725229112
-0.4767,-0.5017980980621284
-0.4777000000000001,-0.5104278369913052
-0.4787,-0.519057575920482
-0.4797000000000001,-0.5276873148496587
-0.4807,-0.5370244094287681
-0.48170000000000013,-0.5457956194879312
-0.4827,-0.5552741851970269
-0.48370000000000013,-0.5643283375161632
-0.4847,-0.5746557300051779
-0.48570000000000013,-0.5842757668442602
