Dec. 13, 2024   22:58:51
Chronoamperometry
File: c:/users/guazh/data/banditlqround7_x0exp59_r20/2024-12-09-exp652\pre-regen-2024-12-13t22_34_54-lsvinphos\ca_2024-12-13t22_55_45.bin
Data Source:  Experiment
Instrument Model:  CHI760E
Header: CA
Note: 

Init E (V) = 1
High E (V) = 1
Low E (V) = -1.5
Init P/N = N
Step = 181
Pulse Width (sec) = 1
Sample Interval (s) = 0.1
Quiet Time (sec) = 2
Sensitivity (A/V) = 0.001

Results:

Channel 1:
Forward:
Slp = 1.024e-5
Int = 3.232e-5
Cor = 0.99165

Reverse:
Slp = -1.375e-5
Int = -2.455e-6
Cor = -0.99895

Time/sec, Current/A

1.000e-1, 7.044e-5
2.000e-1, 5.717e-5
3.000e-1, 5.150e-5
4.000e-1, 4.837e-5
5.000e-1, 4.644e-5
6.000e-1, 4.517e-5
7.000e-1, 4.428e-5
8.000e-1, 4.367e-5
9.000e-1, 4.331e-5
1.000e+0, 4.315e-5
1.100e+0, -2.291e-4
1.200e+0, -2.336e-5
1.300e+0, -1.571e-5
1.400e+0, -1.244e-5
1.500e+0, -1.049e-5
1.600e+0, -9.220e-6
1.700e+0, -8.298e-6
1.800e+0, -7.597e-6
1.900e+0, -7.066e-6
2.000e+0, -6.629e-6
2.100e+0, 2.683e-4
2.200e+0, 4.505e-5
2.300e+0, 3.659e-5
2.400e+0, 3.313e-5
2.500e+0, 3.146e-5
2.600e+0, 3.057e-5
2.700e+0, 2.996e-5
2.800e+0, 2.958e-5
2.900e+0, 2.937e-5
3.000e+0, 2.931e-5
3.100e+0, -2.232e-4
3.200e+0, -2.197e-5
3.300e+0, -1.495e-5
3.400e+0, -1.194e-5
3.500e+0, -1.014e-5
3.600e+0, -8.929e-6
3.700e+0, -8.076e-6
3.800e+0, -7.447e-6
3.900e+0, -6.911e-6
4.000e+0, -6.495e-6
4.100e+0, 2.631e-4
4.200e+0, 4.123e-5
4.300e+0, 3.302e-5
4.400e+0, 2.950e-5
4.500e+0, 2.750e-5
4.600e+0, 2.627e-5
4.700e+0, 2.548e-5
4.800e+0, 2.506e-5
4.900e+0, 2.488e-5
5.000e+0, 2.489e-5
5.100e+0, -2.213e-4
5.200e+0, -2.153e-5
5.300e+0, -1.468e-5
5.400e+0, -1.170e-5
5.500e+0, -9.937e-6
5.600e+0, -8.760e-6
5.700e+0, -7.916e-6
5.800e+0, -7.307e-6
5.900e+0, -6.806e-6
6.000e+0, -6.383e-6
6.100e+0, 2.619e-4
6.200e+0, 3.972e-5
6.300e+0, 3.138e-5
6.400e+0, 2.780e-5
6.500e+0, 2.588e-5
6.600e+0, 2.466e-5
6.700e+0, 2.379e-5
6.800e+0, 2.319e-5
6.900e+0, 2.277e-5
7.000e+0, 2.246e-5
7.100e+0, -2.206e-4
7.200e+0, -2.137e-5
7.300e+0, -1.461e-5
7.400e+0, -1.167e-5
7.500e+0, -9.892e-6
7.600e+0, -8.732e-6
7.700e+0, -7.896e-6
7.800e+0, -7.258e-6
7.900e+0, -6.778e-6
8.000e+0, -6.358e-6
8.100e+0, 2.612e-4
8.200e+0, 3.877e-5
8.300e+0, 3.046e-5
8.400e+0, 2.689e-5
8.500e+0, 2.482e-5
8.600e+0, 2.351e-5
8.700e+0, 2.265e-5
8.800e+0, 2.200e-5
8.900e+0, 2.154e-5
9.000e+0, 2.125e-5
9.100e+0, -2.203e-4
9.200e+0, -2.127e-5
9.300e+0, -1.453e-5
9.400e+0, -1.161e-5
9.500e+0, -9.846e-6
9.600e+0, -8.657e-6
9.700e+0, -7.835e-6
9.800e+0, -7.213e-6
9.900e+0, -6.698e-6
1.000e+1, -6.302e-6
1.010e+1, 2.619e-4
1.020e+1, 3.862e-5
1.030e+1, 3.014e-5
1.040e+1, 2.652e-5
1.050e+1, 2.442e-5
1.060e+1, 2.297e-5
1.070e+1, 2.202e-5
1.080e+1, 2.130e-5
1.090e+1, 2.070e-5
1.100e+1, 2.024e-5
1.110e+1, -2.201e-4
1.120e+1, -2.125e-5
1.130e+1, -1.454e-5
1.140e+1, -1.161e-5
1.150e+1, -9.867e-6
1.160e+1, -8.681e-6
1.170e+1, -7.835e-6
1.180e+1, -7.230e-6
1.190e+1, -6.718e-6
1.200e+1, -6.299e-6
1.210e+1, 2.611e-4
1.220e+1, 3.756e-5
1.230e+1, 2.917e-5
1.240e+1, 2.557e-5
1.250e+1, 2.348e-5
1.260e+1, 2.217e-5
1.270e+1, 2.120e-5
1.280e+1, 2.045e-5
1.290e+1, 1.982e-5
1.300e+1, 1.932e-5
1.310e+1, -2.201e-4
1.320e+1, -2.118e-5
1.330e+1, -1.451e-5
1.340e+1, -1.160e-5
1.350e+1, -9.836e-6
1.360e+1, -8.685e-6
1.370e+1, -7.851e-6
1.380e+1, -7.224e-6
1.390e+1, -6.733e-6
1.400e+1, -6.312e-6
1.410e+1, 2.603e-4
1.420e+1, 3.671e-5
1.430e+1, 2.840e-5
1.440e+1, 2.491e-5
1.450e+1, 2.293e-5
1.460e+1, 2.170e-5
1.470e+1, 2.077e-5
1.480e+1, 2.002e-5
1.490e+1, 1.946e-5
1.500e+1, 1.901e-5
1.510e+1, -2.202e-4
1.520e+1, -2.117e-5
1.530e+1, -1.448e-5
1.540e+1, -1.159e-5
1.550e+1, -9.829e-6
1.560e+1, -8.641e-6
1.570e+1, -7.814e-6
1.580e+1, -7.181e-6
1.590e+1, -6.667e-6
1.600e+1, -6.263e-6
1.610e+1, 2.614e-4
1.620e+1, 3.696e-5
1.630e+1, 2.841e-5
1.640e+1, 2.493e-5
1.650e+1, 2.290e-5
1.660e+1, 2.157e-5
1.670e+1, 2.064e-5
1.680e+1, 1.994e-5
1.690e+1, 1.938e-5
1.700e+1, 1.897e-5
1.710e+1, -2.203e-4
1.720e+1, -2.117e-5
1.730e+1, -1.447e-5
1.740e+1, -1.156e-5
1.750e+1, -9.819e-6
1.760e+1, -8.635e-6
1.770e+1, -7.793e-6
1.780e+1, -7.175e-6
1.790e+1, -6.656e-6
1.800e+1, -6.237e-6
1.810e+1, 2.616e-4
1.820e+1, 3.645e-5
1.830e+1, 2.771e-5
1.840e+1, 2.401e-5
1.850e+1, 2.194e-5
1.860e+1, 2.065e-5
1.870e+1, 1.972e-5
1.880e+1, 1.913e-5
1.890e+1, 1.868e-5
1.900e+1, 1.834e-5
1.910e+1, -2.205e-4
1.920e+1, -2.117e-5
1.930e+1, -1.451e-5
1.940e+1, -1.161e-5
1.950e+1, -9.866e-6
1.960e+1, -8.712e-6
1.970e+1, -7.851e-6
1.980e+1, -7.221e-6
1.990e+1, -6.701e-6
2.000e+1, -6.257e-6
2.010e+1, 2.618e-4
2.020e+1, 3.634e-5
2.030e+1, 2.768e-5
2.040e+1, 2.401e-5
2.050e+1, 2.193e-5
2.060e+1, 2.057e-5
2.070e+1, 1.958e-5
2.080e+1, 1.884e-5
2.090e+1, 1.830e-5
2.100e+1, 1.788e-5
2.110e+1, -2.207e-4
2.120e+1, -2.118e-5
2.130e+1, -1.451e-5
2.140e+1, -1.163e-5
2.150e+1, -9.864e-6
2.160e+1, -8.696e-6
2.170e+1, -7.857e-6
2.180e+1, -7.211e-6
2.190e+1, -6.696e-6
2.200e+1, -6.270e-6
2.210e+1, 2.621e-4
2.220e+1, 3.637e-5
2.230e+1, 2.771e-5
2.240e+1, 2.417e-5
2.250e+1, 2.210e-5
2.260e+1, 2.073e-5
2.270e+1, 1.972e-5
2.280e+1, 1.892e-5
2.290e+1, 1.835e-5
2.300e+1, 1.799e-5
2.310e+1, -2.208e-4
2.320e+1, -2.118e-5
2.330e+1, -1.448e-5
2.340e+1, -1.157e-5
2.350e+1, -9.807e-6
2.360e+1, -8.611e-6
2.370e+1, -7.754e-6
2.380e+1, -7.125e-6
2.390e+1, -6.589e-6
2.400e+1, -6.174e-6
2.410e+1, 2.635e-4
2.420e+1, 3.634e-5
2.430e+1, 2.722e-5
2.440e+1, 2.337e-5
2.450e+1, 2.134e-5
2.460e+1, 2.009e-5
2.470e+1, 1.927e-5
2.480e+1, 1.870e-5
2.490e+1, 1.816e-5
2.500e+1, 1.769e-5
2.510e+1, -2.209e-4
2.520e+1, -2.117e-5
2.530e+1, -1.450e-5
2.540e+1, -1.157e-5
2.550e+1, -9.815e-6
2.560e+1, -8.642e-6
2.570e+1, -7.776e-6
2.580e+1, -7.153e-6
2.590e+1, -6.650e-6
2.600e+1, -6.223e-6
2.610e+1, 2.622e-4
2.620e+1, 3.531e-5
2.630e+1, 2.637e-5
2.640e+1, 2.271e-5
2.650e+1, 2.079e-5
2.660e+1, 1.961e-5
2.670e+1, 1.877e-5
2.680e+1, 1.805e-5
2.690e+1, 1.745e-5
2.700e+1, 1.689e-5
2.710e+1, -2.212e-4
2.720e+1, -2.119e-5
2.730e+1, -1.454e-5
2.740e+1, -1.166e-5
2.750e+1, -9.895e-6
2.760e+1, -8.729e-6
2.770e+1, -7.887e-6
2.780e+1, -7.233e-6
2.790e+1, -6.724e-6
2.800e+1, -6.295e-6
2.810e+1, 2.615e-4
2.820e+1, 3.518e-5
2.830e+1, 2.646e-5
2.840e+1, 2.290e-5
2.850e+1, 2.094e-5
2.860e+1, 1.962e-5
2.870e+1, 1.865e-5
2.880e+1, 1.785e-5
2.890e+1, 1.723e-5
2.900e+1, 1.673e-5
2.910e+1, -2.213e-4
2.920e+1, -2.122e-5
2.930e+1, -1.455e-5
2.940e+1, -1.168e-5
2.950e+1, -9.962e-6
2.960e+1, -8.784e-6
2.970e+1, -7.953e-6
2.980e+1, -7.326e-6
2.990e+1, -6.800e-6
3.000e+1, -6.376e-6
3.010e+1, 2.601e-4
3.020e+1, 3.441e-5
3.030e+1, 2.580e-5
3.040e+1, 2.226e-5
3.050e+1, 2.023e-5
3.060e+1, 1.877e-5
3.070e+1, 1.776e-5
3.080e+1, 1.699e-5
3.090e+1, 1.640e-5
3.100e+1, 1.604e-5
3.110e+1, -2.215e-4
3.120e+1, -2.117e-5
3.130e+1, -1.453e-5
3.140e+1, -1.164e-5
3.150e+1, -9.902e-6
3.160e+1, -8.726e-6
3.170e+1, -7.851e-6
3.180e+1, -7.219e-6
3.190e+1, -6.703e-6
3.200e+1, -6.268e-6
3.210e+1, 2.614e-4
3.220e+1, 3.471e-5
3.230e+1, 2.590e-5
3.240e+1, 2.223e-5
3.250e+1, 2.018e-5
3.260e+1, 1.898e-5
3.270e+1, 1.817e-5
3.280e+1, 1.762e-5
3.290e+1, 1.720e-5
3.300e+1, 1.678e-5
3.310e+1, -2.215e-4
3.320e+1, -2.106e-5
3.330e+1, -1.442e-5
3.340e+1, -1.151e-5
3.350e+1, -9.750e-6
3.360e+1, -8.574e-6
3.370e+1, -7.721e-6
3.380e+1, -7.078e-6
3.390e+1, -6.572e-6
3.400e+1, -6.145e-6
3.410e+1, 2.634e-4
3.420e+1, 3.547e-5
3.430e+1, 2.637e-5
3.440e+1, 2.261e-5
3.450e+1, 2.054e-5
3.460e+1, 1.925e-5
3.470e+1, 1.835e-5
3.480e+1, 1.755e-5
3.490e+1, 1.694e-5
3.500e+1, 1.650e-5
3.510e+1, -2.216e-4
3.520e+1, -2.114e-5
3.530e+1, -1.448e-5
3.540e+1, -1.160e-5
3.550e+1, -9.866e-6
3.560e+1, -8.684e-6
3.570e+1, -7.835e-6
3.580e+1, -7.188e-6
3.590e+1, -6.655e-6
3.600e+1, -6.233e-6
3.610e+1, 2.623e-4
3.620e+1, 3.491e-5
3.630e+1, 2.592e-5
3.640e+1, 2.220e-5
3.650e+1, 2.007e-5
3.660e+1, 1.864e-5
3.670e+1, 1.766e-5
3.680e+1, 1.701e-5
3.690e+1, 1.644e-5
3.700e+1, 1.602e-5
3.710e+1, -2.218e-4
3.720e+1, -2.113e-5
3.730e+1, -1.447e-5
3.740e+1, -1.156e-5
3.750e+1, -9.826e-6
3.760e+1, -8.646e-6
3.770e+1, -7.786e-6
3.780e+1, -7.165e-6
3.790e+1, -6.642e-6
3.800e+1, -6.203e-6
3.810e+1, 2.624e-4
3.820e+1, 3.485e-5
3.830e+1, 2.596e-5
3.840e+1, 2.229e-5
3.850e+1, 2.023e-5
3.860e+1, 1.894e-5
3.870e+1, 1.806e-5
3.880e+1, 1.742e-5
3.890e+1, 1.687e-5
3.900e+1, 1.635e-5
3.910e+1, -2.219e-4
3.920e+1, -2.111e-5
3.930e+1, -1.449e-5
3.940e+1, -1.161e-5
3.950e+1, -9.888e-6
3.960e+1, -8.740e-6
3.970e+1, -7.887e-6
3.980e+1, -7.250e-6
3.990e+1, -6.745e-6
4.000e+1, -6.314e-6
4.010e+1, 2.610e-4
4.020e+1, 3.398e-5
4.030e+1, 2.518e-5
4.040e+1, 2.159e-5
4.050e+1, 1.961e-5
4.060e+1, 1.843e-5
4.070e+1, 1.759e-5
4.080e+1, 1.687e-5
4.090e+1, 1.631e-5
4.100e+1, 1.582e-5
4.110e+1, -2.220e-4
4.120e+1, -2.115e-5
4.130e+1, -1.451e-5
4.140e+1, -1.165e-5
4.150e+1, -9.909e-6
4.160e+1, -8.730e-6
4.170e+1, -7.887e-6
4.180e+1, -7.228e-6
4.190e+1, -6.688e-6
4.200e+1, -6.273e-6
4.210e+1, 2.619e-4
4.220e+1, 3.446e-5
4.230e+1, 2.562e-5
4.240e+1, 2.204e-5
4.250e+1, 2.004e-5
4.260e+1, 1.871e-5
4.270e+1, 1.784e-5
4.280e+1, 1.719e-5
4.290e+1, 1.667e-5
4.300e+1, 1.635e-5
4.310e+1, -2.220e-4
4.320e+1, -2.107e-5
4.330e+1, -1.441e-5
4.340e+1, -1.151e-5
4.350e+1, -9.798e-6
4.360e+1, -8.619e-6
4.370e+1, -7.771e-6
4.380e+1, -7.150e-6
4.390e+1, -6.609e-6
4.400e+1, -6.168e-6
4.410e+1, 2.635e-4
4.420e+1, 3.528e-5
4.430e+1, 2.619e-5
4.440e+1, 2.230e-5
4.450e+1, 2.015e-5
4.460e+1, 1.871e-5
4.470e+1, 1.765e-5
4.480e+1, 1.695e-5
4.490e+1, 1.640e-5
4.500e+1, 1.597e-5
4.510e+1, -2.221e-4
4.520e+1, -2.110e-5
4.530e+1, -1.448e-5
4.540e+1, -1.159e-5
4.550e+1, -9.858e-6
4.560e+1, -8.706e-6
4.570e+1, -7.849e-6
4.580e+1, -7.219e-6
4.590e+1, -6.704e-6
4.600e+1, -6.277e-6
4.610e+1, 2.615e-4
4.620e+1, 3.388e-5
4.630e+1, 2.498e-5
4.640e+1, 2.127e-5
4.650e+1, 1.914e-5
4.660e+1, 1.779e-5
4.670e+1, 1.685e-5
4.680e+1, 1.619e-5
4.690e+1, 1.575e-5
4.700e+1, 1.546e-5
4.710e+1, -2.223e-4
4.720e+1, -2.106e-5
4.730e+1, -1.444e-5
4.740e+1, -1.158e-5
4.750e+1, -9.846e-6
4.760e+1, -8.673e-6
4.770e+1, -7.838e-6
4.780e+1, -7.186e-6
4.790e+1, -6.669e-6
4.800e+1, -6.258e-6
4.810e+1, 2.615e-4
4.820e+1, 3.381e-5
4.830e+1, 2.489e-5
4.840e+1, 2.123e-5
4.850e+1, 1.922e-5
4.860e+1, 1.802e-5
4.870e+1, 1.729e-5
4.880e+1, 1.673e-5
4.890e+1, 1.616e-5
4.900e+1, 1.566e-5
4.910e+1, -2.224e-4
4.920e+1, -2.109e-5
4.930e+1, -1.444e-5
4.940e+1, -1.158e-5
4.950e+1, -9.865e-6
4.960e+1, -8.677e-6
4.970e+1, -7.833e-6
4.980e+1, -7.196e-6
4.990e+1, -6.650e-6
5.000e+1, -6.220e-6
5.010e+1, 2.622e-4
5.020e+1, 3.426e-5
5.030e+1, 2.528e-5
5.040e+1, 2.152e-5
5.050e+1, 1.950e-5
5.060e+1, 1.819e-5
5.070e+1, 1.732e-5
5.080e+1, 1.676e-5
5.090e+1, 1.637e-5
5.100e+1, 1.612e-5
5.110e+1, -2.224e-4
5.120e+1, -2.098e-5
5.130e+1, -1.434e-5
5.140e+1, -1.143e-5
5.150e+1, -9.717e-6
5.160e+1, -8.555e-6
5.170e+1, -7.698e-6
5.180e+1, -7.065e-6
5.190e+1, -6.550e-6
5.200e+1, -6.108e-6
5.210e+1, 2.640e-4
5.220e+1, 3.510e-5
5.230e+1, 2.605e-5
5.240e+1, 2.224e-5
5.250e+1, 2.009e-5
5.260e+1, 1.876e-5
5.270e+1, 1.780e-5
5.280e+1, 1.713e-5
5.290e+1, 1.661e-5
5.300e+1, 1.614e-5
5.310e+1, -2.225e-4
5.320e+1, -2.099e-5
5.330e+1, -1.434e-5
5.340e+1, -1.144e-5
5.350e+1, -9.693e-6
5.360e+1, -8.518e-6
5.370e+1, -7.662e-6
5.380e+1, -6.994e-6
5.390e+1, -6.474e-6
5.400e+1, -6.055e-6
5.410e+1, 2.649e-4
5.420e+1, 3.537e-5
5.430e+1, 2.609e-5
5.440e+1, 2.215e-5
5.450e+1, 1.990e-5
5.460e+1, 1.849e-5
5.470e+1, 1.753e-5
5.480e+1, 1.681e-5
5.490e+1, 1.622e-5
5.500e+1, 1.574e-5
5.510e+1, -2.226e-4
5.520e+1, -2.107e-5
5.530e+1, -1.443e-5
5.540e+1, -1.157e-5
5.550e+1, -9.854e-6
5.560e+1, -8.665e-6
5.570e+1, -7.832e-6
5.580e+1, -7.184e-6
5.590e+1, -6.642e-6
5.600e+1, -6.214e-6
5.610e+1, 2.628e-4
5.620e+1, 3.440e-5
5.630e+1, 2.543e-5
5.640e+1, 2.174e-5
5.650e+1, 1.973e-5
5.660e+1, 1.842e-5
5.670e+1, 1.747e-5
5.680e+1, 1.673e-5
5.690e+1, 1.609e-5
5.700e+1, 1.556e-5
5.710e+1, -2.227e-4
5.720e+1, -2.105e-5
5.730e+1, -1.441e-5
5.740e+1, -1.151e-5
5.750e+1, -9.784e-6
5.760e+1, -8.609e-6
5.770e+1, -7.739e-6
5.780e+1, -7.106e-6
5.790e+1, -6.581e-6
5.800e+1, -6.145e-6
5.810e+1, 2.635e-4
5.820e+1, 3.446e-5
5.830e+1, 2.529e-5
5.840e+1, 2.141e-5
5.850e+1, 1.935e-5
5.860e+1, 1.820e-5
5.870e+1, 1.746e-5
5.880e+1, 1.692e-5
5.890e+1, 1.633e-5
5.900e+1, 1.568e-5
5.910e+1, -2.228e-4
5.920e+1, -2.102e-5
5.930e+1, -1.441e-5
5.940e+1, -1.153e-5
5.950e+1, -9.800e-6
5.960e+1, -8.641e-6
5.970e+1, -7.786e-6
5.980e+1, -7.132e-6
5.990e+1, -6.609e-6
6.000e+1, -6.176e-6
6.010e+1, 2.631e-4
6.020e+1, 3.435e-5
6.030e+1, 2.528e-5
6.040e+1, 2.143e-5
6.050e+1, 1.924e-5
6.060e+1, 1.789e-5
6.070e+1, 1.697e-5
6.080e+1, 1.621e-5
6.090e+1, 1.563e-5
6.100e+1, 1.512e-5
6.110e+1, -2.230e-4
6.120e+1, -2.107e-5
6.130e+1, -1.444e-5
6.140e+1, -1.158e-5
6.150e+1, -9.863e-6
6.160e+1, -8.696e-6
6.170e+1, -7.868e-6
6.180e+1, -7.236e-6
6.190e+1, -6.717e-6
6.200e+1, -6.302e-6
6.210e+1, 2.612e-4
6.220e+1, 3.337e-5
6.230e+1, 2.466e-5
6.240e+1, 2.113e-5
6.250e+1, 1.908e-5
6.260e+1, 1.768e-5
6.270e+1, 1.679e-5
6.280e+1, 1.617e-5
6.290e+1, 1.569e-5
6.300e+1, 1.622e-5
6.310e+1, -2.228e-4
6.320e+1, -2.073e-5
6.330e+1, -1.389e-5
6.340e+1, -1.081e-5
6.350e+1, -8.989e-6
6.360e+1, -7.705e-6
6.370e+1, -6.707e-6
6.380e+1, -5.931e-6
6.390e+1, -5.373e-6
6.400e+1, -4.925e-6
6.410e+1, 2.792e-4
6.420e+1, 4.232e-5
6.430e+1, 3.138e-5
6.440e+1, 2.690e-5
6.450e+1, 2.389e-5
6.460e+1, 2.337e-5
6.470e+1, 2.337e-5
6.480e+1, 2.241e-5
6.490e+1, 2.075e-5
6.500e+1, 1.918e-5
6.510e+1, -2.222e-4
6.520e+1, -2.030e-5
6.530e+1, -1.321e-5
6.540e+1, -1.000e-5
6.550e+1, -8.150e-6
6.560e+1, -6.989e-6
6.570e+1, -6.123e-6
6.580e+1, -5.505e-6
6.590e+1, -5.012e-6
6.600e+1, -4.642e-6
6.610e+1, 2.803e-4
6.620e+1, 4.208e-5
6.630e+1, 3.127e-5
6.640e+1, 2.788e-5
6.650e+1, 2.673e-5
6.660e+1, 2.565e-5
6.670e+1, 2.554e-5
6.680e+1, 2.556e-5
6.690e+1, 2.429e-5
6.700e+1, 2.314e-5
6.710e+1, -2.219e-4
6.720e+1, -2.024e-5
6.730e+1, -1.343e-5
6.740e+1, -1.046e-5
6.750e+1, -8.636e-6
6.760e+1, -7.387e-6
6.770e+1, -6.432e-6
6.780e+1, -5.681e-6
6.790e+1, -5.157e-6
6.800e+1, -4.780e-6
6.810e+1, 2.799e-4
6.820e+1, 4.263e-5
6.830e+1, 3.304e-5
6.840e+1, 2.958e-5
6.850e+1, 2.662e-5
6.860e+1, 2.660e-5
6.870e+1, 2.642e-5
6.880e+1, 2.533e-5
6.890e+1, 2.429e-5
6.900e+1, 2.466e-5
6.910e+1, -2.216e-4
6.920e+1, -2.007e-5
6.930e+1, -1.326e-5
6.940e+1, -1.032e-5
6.950e+1, -8.640e-6
6.960e+1, -7.517e-6
6.970e+1, -6.721e-6
6.980e+1, -6.010e-6
6.990e+1, -5.372e-6
7.000e+1, -4.892e-6
7.010e+1, 2.797e-4
7.020e+1, 4.260e-5
7.030e+1, 3.186e-5
7.040e+1, 2.745e-5
7.050e+1, 2.586e-5
7.060e+1, 2.503e-5
7.070e+1, 2.316e-5
7.080e+1, 2.290e-5
7.090e+1, 2.315e-5
7.100e+1, 2.257e-5
7.110e+1, -2.220e-4
7.120e+1, -2.005e-5
7.130e+1, -1.320e-5
7.140e+1, -1.016e-5
7.150e+1, -8.376e-6
7.160e+1, -7.136e-6
7.170e+1, -6.212e-6
7.180e+1, -5.548e-6
7.190e+1, -5.063e-6
7.200e+1, -4.674e-6
7.210e+1, 2.806e-4
7.220e+1, 4.274e-5
7.230e+1, 3.230e-5
7.240e+1, 2.882e-5
7.250e+1, 2.567e-5
7.260e+1, 2.354e-5
7.270e+1, 2.223e-5
7.280e+1, 2.166e-5
7.290e+1, 2.219e-5
7.300e+1, 2.239e-5
7.310e+1, -2.222e-4
7.320e+1, -2.020e-5
7.330e+1, -1.347e-5
7.340e+1, -1.060e-5
7.350e+1, -8.921e-6
7.360e+1, -7.783e-6
7.370e+1, -6.883e-6
7.380e+1, -6.095e-6
7.390e+1, -5.512e-6
7.400e+1, -5.102e-6
7.410e+1, 2.769e-4
7.420e+1, 4.172e-5
7.430e+1, 3.060e-5
7.440e+1, 2.535e-5
7.450e+1, 2.204e-5
7.460e+1, 1.987e-5
7.470e+1, 1.984e-5
7.480e+1, 1.940e-5
7.490e+1, 1.816e-5
7.500e+1, 1.926e-5
7.510e+1, -2.229e-4
7.520e+1, -2.061e-5
7.530e+1, -1.384e-5
7.540e+1, -1.088e-5
7.550e+1, -9.174e-6
7.560e+1, -8.047e-6
7.570e+1, -7.295e-6
7.580e+1, -6.730e-6
7.590e+1, -6.253e-6
7.600e+1, -5.835e-6
7.610e+1, 2.714e-4
7.620e+1, 3.959e-5
7.630e+1, 3.006e-5
7.640e+1, 2.571e-5
7.650e+1, 2.282e-5
7.660e+1, 2.060e-5
7.670e+1, 1.908e-5
7.680e+1, 1.770e-5
7.690e+1, 1.660e-5
7.700e+1, 1.707e-5
7.710e+1, -2.233e-4
7.720e+1, -2.082e-5
7.730e+1, -1.418e-5
7.740e+1, -1.130e-5
7.750e+1, -9.626e-6
7.760e+1, -8.473e-6
7.770e+1, -7.516e-6
7.780e+1, -6.753e-6
7.790e+1, -6.127e-6
7.800e+1, -5.615e-6
7.810e+1, 2.721e-4
7.820e+1, 3.868e-5
7.830e+1, 2.853e-5
7.840e+1, 2.451e-5
7.850e+1, 2.301e-5
7.860e+1, 2.247e-5
7.870e+1, 2.211e-5
7.880e+1, 2.204e-5
7.890e+1, 2.226e-5
7.900e+1, 2.125e-5
7.910e+1, -2.229e-4
7.920e+1, -2.039e-5
7.930e+1, -1.346e-5
7.940e+1, -1.011e-5
7.950e+1, -8.117e-6
7.960e+1, -6.834e-6
7.970e+1, -5.995e-6
7.980e+1, -5.378e-6
7.990e+1, -4.951e-6
8.000e+1, -4.612e-6
8.010e+1, 2.809e-4
8.020e+1, 4.252e-5
8.030e+1, 3.183e-5
8.040e+1, 2.766e-5
8.050e+1, 2.507e-5
8.060e+1, 2.563e-5
8.070e+1, 2.602e-5
8.080e+1, 2.398e-5
8.090e+1, 2.228e-5
8.100e+1, 2.165e-5
8.110e+1, -2.226e-4
8.120e+1, -2.005e-5
8.130e+1, -1.291e-5
8.140e+1, -9.740e-6
8.150e+1, -7.904e-6
8.160e+1, -6.730e-6
8.170e+1, -5.924e-6
8.180e+1, -5.351e-6
8.190e+1, -4.915e-6
8.200e+1, -4.603e-6
8.210e+1, 2.813e-4
8.220e+1, 4.349e-5
8.230e+1, 3.336e-5
8.240e+1, 2.908e-5
8.250e+1, 2.630e-5
8.260e+1, 2.608e-5
8.270e+1, 2.564e-5
8.280e+1, 2.458e-5
8.290e+1, 2.425e-5
8.300e+1, 2.436e-5
8.310e+1, -2.222e-4
8.320e+1, -1.999e-5
8.330e+1, -1.325e-5
8.340e+1, -1.025e-5
8.350e+1, -8.339e-6
8.360e+1, -7.072e-6
8.370e+1, -6.151e-6
8.380e+1, -5.524e-6
8.390e+1, -5.041e-6
8.400e+1, -4.661e-6
8.410e+1, 2.809e-4
8.420e+1, 4.296e-5
8.430e+1, 3.252e-5
8.440e+1, 2.801e-5
8.450e+1, 2.577e-5
8.460e+1, 2.447e-5
8.470e+1, 2.355e-5
8.480e+1, 2.334e-5
8.490e+1, 2.587e-5
8.500e+1, 2.602e-5
8.510e+1, -2.221e-4
8.520e+1, -1.965e-5
8.530e+1, -1.274e-5
8.540e+1, -9.647e-6
8.550e+1, -7.830e-6
8.560e+1, -6.694e-6
8.570e+1, -5.896e-6
8.580e+1, -5.321e-6
8.590e+1, -4.931e-6
8.600e+1, -4.610e-6
8.610e+1, 2.811e-4
8.620e+1, 4.238e-5
8.630e+1, 3.249e-5
8.640e+1, 2.956e-5
8.650e+1, 2.766e-5
8.660e+1, 2.483e-5
8.670e+1, 2.282e-5
8.680e+1, 2.246e-5
8.690e+1, 2.233e-5
8.700e+1, 2.175e-5
8.710e+1, -2.228e-4
8.720e+1, -1.997e-5
8.730e+1, -1.314e-5
8.740e+1, -1.020e-5
8.750e+1, -8.483e-6
8.760e+1, -7.340e-6
8.770e+1, -6.541e-6
8.780e+1, -5.829e-6
8.790e+1, -5.241e-6
8.800e+1, -4.836e-6
8.810e+1, 2.799e-4
8.820e+1, 4.202e-5
8.830e+1, 3.183e-5
8.840e+1, 2.668e-5
8.850e+1, 2.487e-5
8.860e+1, 2.427e-5
8.870e+1, 2.302e-5
8.880e+1, 2.126e-5
8.890e+1, 2.031e-5
8.900e+1, 2.024e-5
8.910e+1, -2.230e-4
8.920e+1, -2.006e-5
8.930e+1, -1.310e-5
8.940e+1, -1.005e-5
8.950e+1, -8.287e-6
8.960e+1, -7.163e-6
8.970e+1, -6.367e-6
8.980e+1, -5.792e-6
8.990e+1, -5.330e-6
9.000e+1, -4.962e-6
9.010e+1, 2.779e-4
9.020e+1, 4.182e-5
9.030e+1, 3.297e-5
9.040e+1, 2.822e-5
9.050e+1, 2.472e-5
9.060e+1, 2.239e-5
9.070e+1, 2.051e-5
9.080e+1, 2.020e-5
9.090e+1, 2.193e-5
9.100e+1, 2.199e-5
9.110e+1, -2.230e-4
9.120e+1, -2.009e-5
9.130e+1, -1.323e-5
9.140e+1, -1.021e-5
9.150e+1, -8.370e-6
9.160e+1, -7.154e-6
9.170e+1, -6.244e-6
9.180e+1, -5.566e-6
9.190e+1, -5.115e-6
9.200e+1, -4.716e-6
9.210e+1, 2.810e-4
9.220e+1, 4.286e-5
9.230e+1, 3.345e-5
9.240e+1, 2.991e-5
9.250e+1, 2.675e-5
9.260e+1, 2.419e-5
9.270e+1, 2.230e-5
9.280e+1, 2.082e-5
9.290e+1, 1.919e-5
9.300e+1, 1.871e-5
9.310e+1, -2.236e-4
9.320e+1, -2.042e-5
9.330e+1, -1.354e-5
9.340e+1, -1.052e-5
9.350e+1, -8.671e-6
9.360e+1, -7.420e-6
9.370e+1, -6.528e-6
9.380e+1, -5.843e-6
9.390e+1, -5.325e-6
9.400e+1, -4.951e-6
9.410e+1, 2.787e-4
9.420e+1, 4.135e-5
9.430e+1, 3.119e-5
9.440e+1, 2.816e-5
9.450e+1, 2.658e-5
9.460e+1, 2.665e-5
9.470e+1, 2.611e-5
9.480e+1, 2.391e-5
9.490e+1, 2.261e-5
9.500e+1, 2.150e-5
9.510e+1, -2.234e-4
9.520e+1, -2.043e-5
9.530e+1, -1.361e-5
9.540e+1, -1.049e-5
9.550e+1, -8.570e-6
9.560e+1, -7.181e-6
9.570e+1, -6.181e-6
9.580e+1, -5.417e-6
9.590e+1, -4.916e-6
9.600e+1, -4.586e-6
9.610e+1, 2.813e-4
9.620e+1, 4.202e-5
9.630e+1, 3.129e-5
9.640e+1, 2.676e-5
9.650e+1, 2.514e-5
9.660e+1, 2.388e-5
9.670e+1, 2.223e-5
9.680e+1, 2.307e-5
9.690e+1, 2.216e-5
9.700e+1, 2.200e-5
9.710e+1, -2.231e-4
9.720e+1, -2.004e-5
9.730e+1, -1.317e-5
9.740e+1, -1.008e-5
9.750e+1, -8.245e-6
9.760e+1, -6.988e-6
9.770e+1, -6.082e-6
9.780e+1, -5.469e-6
9.790e+1, -5.031e-6
9.800e+1, -4.664e-6
9.810e+1, 2.811e-4
9.820e+1, 4.212e-5
9.830e+1, 3.182e-5
9.840e+1, 2.796e-5
9.850e+1, 2.689e-5
9.860e+1, 2.547e-5
9.870e+1, 2.395e-5
9.880e+1, 2.224e-5
9.890e+1, 2.165e-5
9.900e+1, 2.101e-5
9.910e+1, -2.236e-4
9.920e+1, -2.035e-5
9.930e+1, -1.363e-5
9.940e+1, -1.064e-5
9.950e+1, -8.856e-6
9.960e+1, -7.712e-6
9.970e+1, -6.916e-6
9.980e+1, -6.287e-6
9.990e+1, -5.774e-6
1.000e+2, -5.266e-6
1.001e+2, 2.775e-4
1.002e+2, 4.223e-5
1.003e+2, 3.238e-5
1.004e+2, 2.744e-5
1.005e+2, 2.447e-5
1.006e+2, 2.384e-5
1.007e+2, 2.187e-5
1.008e+2, 1.975e-5
1.009e+2, 2.071e-5
1.010e+2, 2.236e-5
1.011e+2, -2.234e-4
1.012e+2, -2.009e-5
1.013e+2, -1.338e-5
1.014e+2, -1.044e-5
1.015e+2, -8.704e-6
1.016e+2, -7.513e-6
1.017e+2, -6.664e-6
1.018e+2, -6.008e-6
1.019e+2, -5.447e-6
1.020e+2, -5.058e-6
1.021e+2, 2.769e-4
1.022e+2, 3.995e-5
1.023e+2, 2.949e-5
1.024e+2, 2.503e-5
1.025e+2, 2.197e-5
1.026e+2, 1.995e-5
1.027e+2, 1.963e-5
1.028e+2, 2.009e-5
1.029e+2, 1.931e-5
1.030e+2, 1.802e-5
1.031e+2, -2.244e-4
1.032e+2, -2.068e-5
1.033e+2, -1.404e-5
1.034e+2, -1.116e-5
1.035e+2, -9.468e-6
1.036e+2, -8.292e-6
1.037e+2, -7.249e-6
1.038e+2, -6.423e-6
1.039e+2, -5.833e-6
1.040e+2, -5.365e-6
1.041e+2, 2.740e-4
1.042e+2, 3.852e-5
1.043e+2, 2.989e-5
1.044e+2, 2.737e-5
1.045e+2, 2.699e-5
1.046e+2, 2.497e-5
1.047e+2, 2.518e-5
1.048e+2, 2.424e-5
1.049e+2, 2.305e-5
1.050e+2, 2.185e-5
1.051e+2, -2.237e-4
1.052e+2, -2.016e-5
1.053e+2, -1.340e-5
1.054e+2, -1.048e-5
1.055e+2, -8.738e-6
1.056e+2, -7.620e-6
1.057e+2, -6.699e-6
1.058e+2, -5.972e-6
1.059e+2, -5.442e-6
1.060e+2, -5.020e-6
1.061e+2, 2.777e-4
1.062e+2, 3.992e-5
1.063e+2, 2.961e-5
1.064e+2, 2.568e-5
1.065e+2, 2.425e-5
1.066e+2, 2.332e-5
1.067e+2, 2.260e-5
1.068e+2, 2.093e-5
1.069e+2, 1.910e-5
1.070e+2, 1.762e-5
1.071e+2, -2.245e-4
1.072e+2, -2.076e-5
1.073e+2, -1.401e-5
1.074e+2, -1.087e-5
1.075e+2, -8.902e-6
1.076e+2, -7.470e-6
1.077e+2, -6.398e-6
1.078e+2, -5.619e-6
1.079e+2, -5.071e-6
1.080e+2, -4.704e-6
1.081e+2, 2.809e-4
1.082e+2, 4.235e-5
1.083e+2, 3.270e-5
1.084e+2, 2.908e-5
1.085e+2, 2.622e-5
1.086e+2, 2.405e-5
1.087e+2, 2.275e-5
1.088e+2, 2.331e-5
1.089e+2, 2.484e-5
1.090e+2, 2.454e-5
1.091e+2, -2.233e-4
1.092e+2, -1.968e-5
1.093e+2, -1.283e-5
1.094e+2, -9.794e-6
1.095e+2, -8.049e-6
1.096e+2, -6.893e-6
1.097e+2, -6.039e-6
1.098e+2, -5.422e-6
1.099e+2, -4.989e-6
1.100e+2, -4.661e-6
1.101e+2, 2.806e-4
1.102e+2, 4.103e-5
1.103e+2, 3.015e-5
1.104e+2, 2.552e-5
1.105e+2, 2.367e-5
1.106e+2, 2.257e-5
1.107e+2, 2.231e-5
1.108e+2, 2.256e-5
1.109e+2, 2.290e-5
1.110e+2, 2.335e-5
1.111e+2, -2.237e-4
1.112e+2, -2.008e-5
1.113e+2, -1.328e-5
1.114e+2, -1.020e-5
1.115e+2, -8.348e-6
1.116e+2, -7.153e-6
1.117e+2, -6.264e-6
1.118e+2, -5.569e-6
1.119e+2, -5.072e-6
1.120e+2, -4.703e-6
1.121e+2, 2.806e-4
1.122e+2, 4.124e-5
1.123e+2, 3.194e-5
1.124e+2, 2.840e-5
1.125e+2, 2.565e-5
1.126e+2, 2.474e-5
1.127e+2, 2.702e-5
1.128e+2, 2.827e-5
1.129e+2, 2.594e-5
1.130e+2, 2.388e-5
1.131e+2, -2.235e-4
1.132e+2, -1.988e-5
1.133e+2, -1.296e-5
1.134e+2, -9.838e-6
1.135e+2, -8.015e-6
1.136e+2, -6.819e-6
1.137e+2, -5.965e-6
1.138e+2, -5.336e-6
1.139e+2, -4.878e-6
1.140e+2, -4.546e-6
1.141e+2, 2.819e-4
1.142e+2, 4.243e-5
1.143e+2, 3.168e-5
1.144e+2, 2.767e-5
1.145e+2, 2.669e-5
1.146e+2, 2.739e-5
1.147e+2, 2.766e-5
1.148e+2, 2.927e-5
1.149e+2, 2.832e-5
1.150e+2, 2.662e-5
1.151e+2, -2.232e-4
1.152e+2, -1.976e-5
1.153e+2, -1.306e-5
1.154e+2, -1.013e-5
1.155e+2, -8.456e-6
1.156e+2, -7.316e-6
1.157e+2, -6.445e-6
1.158e+2, -5.795e-6
1.159e+2, -5.252e-6
1.160e+2, -4.831e-6
1.161e+2, 2.803e-4
1.162e+2, 4.271e-5
1.163e+2, 3.153e-5
1.164e+2, 2.610e-5
1.165e+2, 2.292e-5
1.166e+2, 2.075e-5
1.167e+2, 1.909e-5
1.168e+2, 1.792e-5
1.169e+2, 1.698e-5
1.170e+2, 1.679e-5
1.171e+2, -2.245e-4
1.172e+2, -2.006e-5
1.173e+2, -1.321e-5
1.174e+2, -1.019e-5
1.175e+2, -8.439e-6
1.176e+2, -7.333e-6
1.177e+2, -6.525e-6
1.178e+2, -5.873e-6
1.179e+2, -5.383e-6
1.180e+2, -5.005e-6
1.181e+2, 2.774e-4
1.182e+2, 3.928e-5
1.183e+2, 2.849e-5
1.184e+2, 2.438e-5
1.185e+2, 2.205e-5
1.186e+2, 2.170e-5
1.187e+2, 2.183e-5
1.188e+2, 2.236e-5
1.189e+2, 2.184e-5
1.190e+2, 2.111e-5
1.191e+2, -2.243e-4
1.192e+2, -2.021e-5
1.193e+2, -1.342e-5
1.194e+2, -1.040e-5
1.195e+2, -8.568e-6
1.196e+2, -7.388e-6
1.197e+2, -6.572e-6
1.198e+2, -5.939e-6
1.199e+2, -5.455e-6
1.200e+2, -5.107e-6
1.201e+2, 2.763e-4
1.202e+2, 3.880e-5
1.203e+2, 2.808e-5
1.204e+2, 2.380e-5
1.205e+2, 2.219e-5
1.206e+2, 2.049e-5
1.207e+2, 1.982e-5
1.208e+2, 1.857e-5
1.209e+2, 1.778e-5
1.210e+2, 1.871e-5
1.211e+2, -2.247e-4
1.212e+2, -2.044e-5
1.213e+2, -1.371e-5
1.214e+2, -1.077e-5
1.215e+2, -9.033e-6
1.216e+2, -7.809e-6
1.217e+2, -6.937e-6
1.218e+2, -6.288e-6
1.219e+2, -5.784e-6
1.220e+2, -5.409e-6
1.221e+2, 2.728e-4
1.222e+2, 3.713e-5
1.223e+2, 2.782e-5
1.224e+2, 2.466e-5
1.225e+2, 2.465e-5
1.226e+2, 2.349e-5
1.227e+2, 2.201e-5
1.228e+2, 2.068e-5
1.229e+2, 2.082e-5
1.230e+2, 2.046e-5
1.231e+2, -2.245e-4
1.232e+2, -2.021e-5
1.233e+2, -1.333e-5
1.234e+2, -1.019e-5
1.235e+2, -8.336e-6
1.236e+2, -7.134e-6
1.237e+2, -6.273e-6
1.238e+2, -5.661e-6
1.239e+2, -5.220e-6
1.240e+2, -4.882e-6
1.241e+2, 2.783e-4
1.242e+2, 3.976e-5
1.243e+2, 2.878e-5
1.244e+2, 2.381e-5
1.245e+2, 2.098e-5
1.246e+2, 1.916e-5
1.247e+2, 1.786e-5
1.248e+2, 1.942e-5
1.249e+2, 2.067e-5
1.250e+2, 2.173e-5
1.251e+2, -2.242e-4
1.252e+2, -1.980e-5
1.253e+2, -1.302e-5
1.254e+2, -1.013e-5
1.255e+2, -8.419e-6
1.256e+2, -7.275e-6
1.257e+2, -6.395e-6
1.258e+2, -5.721e-6
1.259e+2, -5.210e-6
1.260e+2, -4.784e-6
1.261e+2, 2.807e-4
1.262e+2, 4.180e-5
1.263e+2, 3.141e-5
1.264e+2, 2.631e-5
1.265e+2, 2.443e-5
1.266e+2, 2.376e-5
1.267e+2, 2.373e-5
1.268e+2, 2.486e-5
1.269e+2, 2.429e-5
1.270e+2, 2.314e-5
1.271e+2, -2.242e-4
1.272e+2, -2.004e-5
1.273e+2, -1.317e-5
1.274e+2, -1.017e-5
1.275e+2, -8.449e-6
1.276e+2, -7.238e-6
1.277e+2, -6.306e-6
1.278e+2, -5.588e-6
1.279e+2, -5.031e-6
1.280e+2, -4.643e-6
1.281e+2, 2.818e-4
1.282e+2, 4.221e-5
1.283e+2, 3.127e-5
1.284e+2, 2.689e-5
1.285e+2, 2.758e-5
1.286e+2, 2.553e-5
1.287e+2, 2.616e-5
1.288e+2, 2.597e-5
1.289e+2, 2.381e-5
1.290e+2, 2.170e-5
1.291e+2, -2.244e-4
1.292e+2, -2.019e-5
1.293e+2, -1.339e-5
1.294e+2, -1.031e-5
1.295e+2, -8.440e-6
1.296e+2, -7.231e-6
1.297e+2, -6.352e-6
1.298e+2, -5.716e-6
1.299e+2, -5.249e-6
1.300e+2, -4.873e-6
1.301e+2, 2.797e-4
1.302e+2, 4.178e-5
1.303e+2, 3.133e-5
1.304e+2, 2.705e-5
1.305e+2, 2.691e-5
1.306e+2, 2.787e-5
1.307e+2, 2.611e-5
1.308e+2, 2.439e-5
1.309e+2, 2.307e-5
1.310e+2, 2.233e-5
1.311e+2, -2.242e-4
1.312e+2, -1.988e-5
1.313e+2, -1.313e-5
1.314e+2, -1.017e-5
1.315e+2, -8.349e-6
1.316e+2, -7.148e-6
1.317e+2, -6.233e-6
1.318e+2, -5.518e-6
1.319e+2, -5.022e-6
1.320e+2, -4.619e-6
1.321e+2, 2.823e-4
1.322e+2, 4.281e-5
1.323e+2, 3.140e-5
1.324e+2, 2.698e-5
1.325e+2, 2.457e-5
1.326e+2, 2.368e-5
1.327e+2, 2.373e-5
1.328e+2, 2.531e-5
1.329e+2, 2.565e-5
1.330e+2, 2.363e-5
1.331e+2, -2.243e-4
1.332e+2, -2.009e-5
1.333e+2, -1.334e-5
1.334e+2, -1.030e-5
1.335e+2, -8.432e-6
1.336e+2, -7.239e-6
1.337e+2, -6.430e-6
1.338e+2, -5.840e-6
1.339e+2, -5.390e-6
1.340e+2, -5.059e-6
1.341e+2, 2.767e-4
1.342e+2, 3.868e-5
1.343e+2, 2.810e-5
1.344e+2, 2.372e-5
1.345e+2, 2.321e-5
1.346e+2, 2.268e-5
1.347e+2, 2.237e-5
1.348e+2, 2.350e-5
1.349e+2, 2.467e-5
1.350e+2, 2.365e-5
1.351e+2, -2.243e-4
1.352e+2, -2.002e-5
1.353e+2, -1.332e-5
1.354e+2, -1.032e-5
1.355e+2, -8.525e-6
1.356e+2, -7.347e-6
1.357e+2, -6.463e-6
1.358e+2, -5.755e-6
1.359e+2, -5.138e-6
1.360e+2, -4.677e-6
1.361e+2, 2.816e-4
1.362e+2, 4.218e-5
1.363e+2, 3.186e-5
1.364e+2, 2.806e-5
1.365e+2, 2.632e-5
1.366e+2, 2.484e-5
1.367e+2, 2.508e-5
1.368e+2, 2.531e-5
1.369e+2, 2.550e-5
1.370e+2, 2.524e-5
1.371e+2, -2.240e-4
1.372e+2, -1.981e-5
1.373e+2, -1.312e-5
1.374e+2, -1.013e-5
1.375e+2, -8.339e-6
1.376e+2, -7.196e-6
1.377e+2, -6.379e-6
1.378e+2, -5.779e-6
1.379e+2, -5.323e-6
1.380e+2, -4.894e-6
1.381e+2, 2.800e-4
1.382e+2, 4.142e-5
1.383e+2, 3.110e-5
1.384e+2, 2.672e-5
1.385e+2, 2.336e-5
1.386e+2, 2.084e-5
1.387e+2, 1.901e-5
1.388e+2, 1.762e-5
1.389e+2, 1.643e-5
1.390e+2, 1.571e-5
1.391e+2, -2.255e-4
1.392e+2, -2.062e-5
1.393e+2, -1.396e-5
1.394e+2, -1.106e-5
1.395e+2, -9.338e-6
1.396e+2, -8.173e-6
1.397e+2, -7.347e-6
1.398e+2, -6.593e-6
1.399e+2, -5.982e-6
1.400e+2, -5.530e-6
1.401e+2, 2.733e-4
1.402e+2, 3.781e-5
1.403e+2, 2.826e-5
1.404e+2, 2.423e-5
1.405e+2, 2.170e-5
1.406e+2, 2.141e-5
1.407e+2, 2.417e-5
1.408e+2, 2.223e-5
1.409e+2, 2.218e-5
1.410e+2, 2.401e-5
1.411e+2, -2.241e-4
1.412e+2, -1.947e-5
1.413e+2, -1.255e-5
1.414e+2, -9.462e-6
1.415e+2, -7.705e-6
1.416e+2, -6.609e-6
1.417e+2, -5.874e-6
1.418e+2, -5.345e-6
1.419e+2, -4.932e-6
1.420e+2, -4.591e-6
1.421e+2, 2.820e-4
1.422e+2, 4.300e-5
1.423e+2, 3.309e-5
1.424e+2, 2.970e-5
1.425e+2, 2.636e-5
1.426e+2, 2.424e-5
1.427e+2, 2.365e-5
1.428e+2, 2.377e-5
1.429e+2, 2.279e-5
1.430e+2, 2.250e-5
1.431e+2, -2.244e-4
1.432e+2, -1.974e-5
1.433e+2, -1.279e-5
1.434e+2, -9.616e-6
1.435e+2, -7.760e-6
1.436e+2, -6.607e-6
1.437e+2, -5.775e-6
1.438e+2, -5.199e-6
1.439e+2, -4.787e-6
1.440e+2, -4.457e-6
1.441e+2, 2.829e-4
1.442e+2, 4.220e-5
1.443e+2, 3.215e-5
1.444e+2, 2.727e-5
1.445e+2, 2.541e-5
1.446e+2, 2.379e-5
1.447e+2, 2.284e-5
1.448e+2, 2.303e-5
1.449e+2, 2.205e-5
1.450e+2, 2.139e-5
1.451e+2, -2.246e-4
1.452e+2, -1.993e-5
1.453e+2, -1.313e-5
1.454e+2, -1.003e-5
1.455e+2, -8.173e-6
1.456e+2, -6.990e-6
1.457e+2, -6.145e-6
1.458e+2, -5.463e-6
1.459e+2, -4.939e-6
1.460e+2, -4.564e-6
1.461e+2, 2.824e-4
1.462e+2, 4.251e-5
1.463e+2, 3.151e-5
1.464e+2, 2.754e-5
1.465e+2, 2.471e-5
1.466e+2, 2.257e-5
1.467e+2, 2.143e-5
1.468e+2, 2.022e-5
1.469e+2, 1.945e-5
1.470e+2, 1.968e-5
1.471e+2, -2.251e-4
1.472e+2, -2.023e-5
1.473e+2, -1.354e-5
1.474e+2, -1.054e-5
1.475e+2, -8.575e-6
1.476e+2, -7.132e-6
1.477e+2, -6.146e-6
1.478e+2, -5.469e-6
1.479e+2, -4.962e-6
1.480e+2, -4.588e-6
1.481e+2, 2.821e-4
1.482e+2, 4.146e-5
1.483e+2, 3.019e-5
1.484e+2, 2.506e-5
1.485e+2, 2.211e-5
1.486e+2, 2.036e-5
1.487e+2, 1.924e-5
1.488e+2, 1.800e-5
1.489e+2, 1.692e-5
1.490e+2, 1.632e-5
1.491e+2, -2.257e-4
1.492e+2, -2.057e-5
1.493e+2, -1.401e-5
1.494e+2, -1.113e-5
1.495e+2, -9.449e-6
1.496e+2, -8.321e-6
1.497e+2, -7.495e-6
1.498e+2, -6.868e-6
1.499e+2, -6.348e-6
1.500e+2, -5.873e-6
1.501e+2, 2.687e-4
1.502e+2, 3.680e-5
1.503e+2, 2.863e-5
1.504e+2, 2.487e-5
1.505e+2, 2.278e-5
1.506e+2, 2.193e-5
1.507e+2, 2.189e-5
1.508e+2, 2.220e-5
1.509e+2, 2.424e-5
1.510e+2, 2.574e-5
1.511e+2, -2.243e-4
1.512e+2, -1.946e-5
1.513e+2, -1.263e-5
1.514e+2, -9.646e-6
1.515e+2, -7.888e-6
1.516e+2, -6.749e-6
1.517e+2, -5.959e-6
1.518e+2, -5.389e-6
1.519e+2, -4.975e-6
1.520e+2, -4.661e-6
1.521e+2, 2.812e-4
1.522e+2, 4.158e-5
1.523e+2, 3.066e-5
1.524e+2, 2.538e-5
1.525e+2, 2.222e-5
1.526e+2, 2.154e-5
1.527e+2, 2.238e-5
1.528e+2, 2.350e-5
1.529e+2, 2.416e-5
1.530e+2, 2.406e-5
1.531e+2, -2.246e-4
1.532e+2, -1.973e-5
1.533e+2, -1.284e-5
1.534e+2, -9.777e-6
1.535e+2, -8.005e-6
1.536e+2, -6.827e-6
1.537e+2, -6.032e-6
1.538e+2, -5.459e-6
1.539e+2, -5.009e-6
1.540e+2, -4.666e-6
1.541e+2, 2.816e-4
1.542e+2, 4.173e-5
1.543e+2, 3.147e-5
1.544e+2, 2.648e-5
1.545e+2, 2.430e-5
1.546e+2, 2.249e-5
1.547e+2, 2.165e-5
1.548e+2, 2.109e-5
1.549e+2, 2.071e-5
1.550e+2, 1.977e-5
1.551e+2, -2.253e-4
1.552e+2, -2.026e-5
1.553e+2, -1.358e-5
1.554e+2, -1.049e-5
1.555e+2, -8.542e-6
1.556e+2, -7.194e-6
1.557e+2, -6.287e-6
1.558e+2, -5.626e-6
1.559e+2, -5.079e-6
1.560e+2, -4.672e-6
1.561e+2, 2.813e-4
1.562e+2, 4.118e-5
1.563e+2, 3.144e-5
1.564e+2, 2.865e-5
1.565e+2, 2.655e-5
1.566e+2, 2.496e-5
1.567e+2, 2.329e-5
1.568e+2, 2.217e-5
1.569e+2, 2.116e-5
1.570e+2, 1.940e-5
1.571e+2, -2.253e-4
1.572e+2, -2.000e-5
1.573e+2, -1.307e-5
1.574e+2, -9.881e-6
1.575e+2, -8.024e-6
1.576e+2, -6.886e-6
1.577e+2, -6.090e-6
1.578e+2, -5.498e-6
1.579e+2, -5.075e-6
1.580e+2, -4.752e-6
1.581e+2, 2.802e-4
1.582e+2, 4.004e-5
1.583e+2, 2.919e-5
1.584e+2, 2.430e-5
1.585e+2, 2.173e-5
1.586e+2, 2.074e-5
1.587e+2, 2.063e-5
1.588e+2, 2.077e-5
1.589e+2, 2.078e-5
1.590e+2, 2.234e-5
1.591e+2, -2.249e-4
1.592e+2, -1.979e-5
1.593e+2, -1.290e-5
1.594e+2, -9.842e-6
1.595e+2, -8.074e-6
1.596e+2, -6.890e-6
1.597e+2, -6.053e-6
1.598e+2, -5.439e-6
1.599e+2, -4.964e-6
1.600e+2, -4.639e-6
1.601e+2, 2.819e-4
1.602e+2, 4.213e-5
1.603e+2, 3.137e-5
1.604e+2, 2.642e-5
1.605e+2, 2.352e-5
1.606e+2, 2.253e-5
1.607e+2, 2.205e-5
1.608e+2, 2.106e-5
1.609e+2, 2.025e-5
1.610e+2, 2.052e-5
1.611e+2, -2.250e-4
1.612e+2, -1.993e-5
1.613e+2, -1.331e-5
1.614e+2, -1.036e-5
1.615e+2, -8.529e-6
1.616e+2, -7.302e-6
1.617e+2, -6.458e-6
1.618e+2, -5.875e-6
1.619e+2, -5.428e-6
1.620e+2, -5.088e-6
1.621e+2, 2.771e-4
1.622e+2, 4.065e-5
1.623e+2, 3.315e-5
1.624e+2, 2.943e-5
1.625e+2, 2.647e-5
1.626e+2, 2.378e-5
1.627e+2, 2.139e-5
1.628e+2, 1.962e-5
1.629e+2, 1.910e-5
1.630e+2, 2.158e-5
1.631e+2, -2.249e-4
1.632e+2, -1.958e-5
1.633e+2, -1.273e-5
1.634e+2, -9.683e-6
1.635e+2, -7.908e-6
1.636e+2, -6.791e-6
1.637e+2, -6.001e-6
1.638e+2, -5.423e-6
1.639e+2, -5.015e-6
1.640e+2, -4.699e-6
1.641e+2, 2.808e-4
1.642e+2, 4.087e-5
1.643e+2, 3.008e-5
1.644e+2, 2.490e-5
1.645e+2, 2.164e-5
1.646e+2, 1.941e-5
1.647e+2, 1.784e-5
1.648e+2, 1.689e-5
1.649e+2, 1.760e-5
1.650e+2, 1.704e-5
1.651e+2, -2.258e-4
1.652e+2, -2.006e-5
1.653e+2, -1.327e-5
1.654e+2, -1.027e-5
1.655e+2, -8.545e-6
1.656e+2, -7.436e-6
1.657e+2, -6.674e-6
1.658e+2, -6.022e-6
1.659e+2, -5.402e-6
1.660e+2, -4.896e-6
1.661e+2, 2.803e-4
1.662e+2, 4.067e-5
1.663e+2, 3.124e-5
1.664e+2, 2.722e-5
1.665e+2, 2.392e-5
1.666e+2, 2.155e-5
1.667e+2, 2.016e-5
1.668e+2, 1.959e-5
1.669e+2, 1.953e-5
1.670e+2, 2.045e-5
1.671e+2, -2.252e-4
1.672e+2, -1.979e-5
1.673e+2, -1.306e-5
1.674e+2, -1.017e-5
1.675e+2, -8.441e-6
1.676e+2, -7.267e-6
1.677e+2, -6.440e-6
1.678e+2, -5.828e-6
1.679e+2, -5.351e-6
1.680e+2, -4.969e-6
1.681e+2, 2.782e-4
1.682e+2, 3.995e-5
1.683e+2, 2.948e-5
1.684e+2, 2.450e-5
1.685e+2, 2.162e-5
1.686e+2, 2.062e-5
1.687e+2, 2.112e-5
1.688e+2, 2.145e-5
1.689e+2, 2.266e-5
1.690e+2, 2.307e-5
1.691e+2, -2.249e-4
1.692e+2, -1.964e-5
1.693e+2, -1.281e-5
1.694e+2, -9.698e-6
1.695e+2, -7.932e-6
1.696e+2, -6.839e-6
1.697e+2, -6.063e-6
1.698e+2, -5.510e-6
1.699e+2, -5.082e-6
1.700e+2, -4.705e-6
1.701e+2, 2.811e-4
1.702e+2, 4.072e-5
1.703e+2, 2.970e-5
1.704e+2, 2.469e-5
1.705e+2, 2.173e-5
1.706e+2, 2.115e-5
1.707e+2, 2.128e-5
1.708e+2, 2.042e-5
1.709e+2, 1.971e-5
1.710e+2, 2.052e-5
1.711e+2, -2.253e-4
1.712e+2, -1.990e-5
1.713e+2, -1.330e-5
1.714e+2, -1.048e-5
1.715e+2, -8.803e-6
1.716e+2, -7.697e-6
1.717e+2, -6.864e-6
1.718e+2, -6.201e-6
1.719e+2, -5.734e-6
1.720e+2, -5.360e-6
1.721e+2, 2.740e-4
1.722e+2, 3.854e-5
1.723e+2, 2.999e-5
1.724e+2, 2.705e-5
1.725e+2, 2.594e-5
1.726e+2, 2.576e-5
1.727e+2, 2.439e-5
1.728e+2, 2.339e-5
1.729e+2, 2.336e-5
1.730e+2, 2.264e-5
1.731e+2, -2.252e-4
1.732e+2, -1.977e-5
1.733e+2, -1.283e-5
1.734e+2, -9.680e-6
1.735e+2, -7.904e-6
1.736e+2, -6.712e-6
1.737e+2, -5.882e-6
1.738e+2, -5.289e-6
1.739e+2, -4.828e-6
1.740e+2, -4.477e-6
1.741e+2, 2.829e-4
1.742e+2, 4.172e-5
1.743e+2, 3.166e-5
1.744e+2, 2.938e-5
1.745e+2, 2.746e-5
1.746e+2, 2.504e-5
1.747e+2, 2.451e-5
1.748e+2, 2.336e-5
1.749e+2, 2.241e-5
1.750e+2, 2.135e-5
1.751e+2, -2.254e-4
1.752e+2, -2.017e-5
1.753e+2, -1.359e-5
1.754e+2, -1.072e-5
1.755e+2, -9.047e-6
1.756e+2, -7.899e-6
1.757e+2, -7.062e-6
1.758e+2, -6.359e-6
1.759e+2, -5.722e-6
1.760e+2, -5.201e-6
1.761e+2, 2.766e-4
1.762e+2, 3.890e-5
1.763e+2, 2.964e-5
1.764e+2, 2.611e-5
1.765e+2, 2.341e-5
1.766e+2, 2.118e-5
1.767e+2, 1.916e-5
1.768e+2, 1.762e-5
1.769e+2, 1.657e-5
1.770e+2, 1.662e-5
1.771e+2, -2.259e-4
1.772e+2, -2.020e-5
1.773e+2, -1.357e-5
1.774e+2, -1.066e-5
1.775e+2, -8.891e-6
1.776e+2, -7.693e-6
1.777e+2, -6.816e-6
1.778e+2, -6.135e-6
1.779e+2, -5.623e-6
1.780e+2, -5.222e-6
1.781e+2, 2.755e-4
1.782e+2, 3.775e-5
1.783e+2, 2.740e-5
1.784e+2, 2.380e-5
1.785e+2, 2.136e-5
1.786e+2, 2.063e-5
1.787e+2, 2.009e-5
1.788e+2, 1.883e-5
1.789e+2, 1.826e-5
1.790e+2, 1.764e-5
1.791e+2, -2.261e-4
1.792e+2, -2.014e-5
1.793e+2, -1.333e-5
1.794e+2, -1.032e-5
1.795e+2, -8.566e-6
1.796e+2, -7.430e-6
1.797e+2, -6.655e-6
1.798e+2, -6.070e-6
1.799e+2, -5.605e-6
1.800e+2, -5.237e-6
1.801e+2, 2.752e-4
1.802e+2, 3.810e-5
1.803e+2, 2.834e-5
1.804e+2, 2.817e-5
1.805e+2, 2.873e-5
1.806e+2, 2.690e-5
1.807e+2, 2.689e-5
1.808e+2, 2.832e-5
1.809e+2, 2.727e-5
1.810e+2, 2.423e-5
