Potential V vs RHE, Current mA cm-2
0.013299999999999867,-0.4384190318281749
0.012299999999999978,-1.5717442541500557
0.011299999999999866,-2.3144676865791998
0.010299999999999976,-2.794054817233447
0.009299999999999864,-3.1859298472960624
0.008299999999999974,-3.447651437771094
0.007299999999999862,-3.6655169779503103
0.006299999999999972,-3.7093730282461257
0.00529999999999986,-3.7532290785419424
0.0042999999999999705,-3.7093730282461257
0.0032999999999998586,-3.6655169779503103
0.0022999999999999687,-3.623075638954359
0.0012999999999998568,-3.6655169779503103
0.00029999999999996696,-3.7532290785419424
-0.000700000000000145,-3.840941179133574
-0.0017000000000000348,-3.971094618721158
-0.0027000000000001467,-4.014950669016974
-0.0037000000000000366,-4.0588067193127895
-0.0047000000000001485,-3.971094618721158
-0.005700000000000038,-3.884797229429391
-0.00670000000000015,-3.840941179133574
-0.00770000000000004,-3.7970851288377587
-0.008700000000000152,-3.7970851288377587
-0.009700000000000042,-3.884797229429391
-0.010700000000000154,-3.971094618721158
-0.011700000000000044,-4.0588067193127895
-0.012700000000000156,-4.146518819904423
-0.013700000000000045,-4.146518819904423
-0.014700000000000157,-4.102662769608606
-0.015700000000000047,-4.014950669016974
-0.01670000000000016,-3.927238568425342
-0.01770000000000005,-3.884797229429391
-0.01870000000000016,-3.884797229429391
-0.01970000000000005,-3.971094618721158
-0.020700000000000163,-4.0588067193127895
-0.021700000000000053,-4.146518819904423
-0.022700000000000164,-4.23281620919619
-0.023700000000000054,-4.1889601589003735
-0.024700000000000166,-4.146518819904423
-0.025700000000000056,-4.102662769608606
-0.026700000000000168,-4.014950669016974
-0.027700000000000058,-3.971094618721158
-0.02870000000000017,-3.971094618721158
-0.02970000000000006,-4.014950669016974
-0.03070000000000017,-4.146518819904423
-0.03170000000000006,-4.23281620919619
-0.03270000000000017,-4.276672259492005
-0.03370000000000006,-4.276672259492005
-0.034700000000000175,-4.23281620919619
-0.035700000000000065,-4.146518819904423
-0.03670000000000018,-4.102662769608606
-0.03770000000000007,-4.014950669016974
-0.03870000000000018,-4.0588067193127895
-0.03970000000000007,-4.102662769608606
-0.04070000000000018,-4.23281620919619
-0.04170000000000007,-4.276672259492005
-0.04270000000000018,-4.3205283097878215
-0.04370000000000007,-4.3205283097878215
-0.044700000000000184,-4.276672259492005
-0.045700000000000074,-4.1889601589003735
-0.046700000000000186,-4.146518819904423
-0.047700000000000076,-4.0588067193127895
-0.04870000000000019,-4.102662769608606
-0.04970000000000008,-4.146518819904423
-0.05070000000000019,-4.23281620919619
-0.05170000000000008,-4.364384360083638
-0.05270000000000019,-4.406825699079589
-0.05370000000000008,-4.364384360083638
-0.05470000000000019,-4.3205283097878215
-0.05570000000000008,-4.23281620919619
-0.056700000000000195,-4.1889601589003735
-0.057700000000000085,-4.146518819904423
-0.058700000000000196,-4.102662769608606
-0.059700000000000086,-4.1889601589003735
-0.0607000000000002,-4.276672259492005
-0.06170000000000009,-4.364384360083638
-0.0627000000000002,-4.450681749375406
-0.06370000000000009,-4.406825699079589
-0.0647000000000002,-4.364384360083638
-0.06570000000000009,-4.276672259492005
-0.0667000000000002,-4.1889601589003735
-0.0677000000000001,-4.146518819904423
-0.0687000000000002,-4.146518819904423
-0.0697000000000001,-4.23281620919619
-0.07070000000000021,-4.3205283097878215
-0.0717000000000001,-4.406825699079589
-0.07270000000000021,-4.450681749375406
-0.0737000000000001,-4.450681749375406
-0.07470000000000021,-4.364384360083638
-0.0757000000000001,-4.276672259492005
-0.07670000000000021,-4.23281620919619
-0.0777000000000001,-4.1889601589003735
-0.07870000000000021,-4.1889601589003735
-0.0797000000000001,-4.23281620919619
-0.08070000000000022,-4.3205283097878215
-0.0817000000000001,-4.406825699079589
-0.08270000000000022,-4.450681749375406
-0.08370000000000011,-4.450681749375406
-0.08470000000000022,-4.406825699079589
-0.08570000000000011,-4.3205283097878215
-0.08670000000000022,-4.23281620919619
-0.08770000000000011,-4.1889601589003735
-0.08870000000000022,-4.1889601589003735
-0.08970000000000011,-4.23281620919619
-0.09070000000000022,-4.3205283097878215
-0.09170000000000011,-4.406825699079589
-0.09270000000000023,-4.494537799671222
-0.09370000000000012,-4.494537799671222
-0.09470000000000023,-4.406825699079589
-0.09570000000000012,-4.3205283097878215
-0.09670000000000023,-4.23281620919619
-0.09770000000000012,-4.1889601589003735
-0.09870000000000023,-4.1889601589003735
-0.09970000000000012,-4.276672259492005
-0.10070000000000023,-4.364384360083638
-0.10170000000000012,-4.406825699079589
-0.10270000000000024,-4.494537799671222
-0.10370000000000013,-4.494537799671222
-0.10470000000000024,-4.450681749375406
-0.10570000000000013,-4.364384360083638
-0.10670000000000024,-4.276672259492005
-0.10770000000000013,-4.23281620919619
-0.10870000000000024,-4.23281620919619
-0.10970000000000013,-4.276672259492005
-0.11070000000000024,-4.364384360083638
-0.11170000000000013,-4.450681749375406
-0.11270000000000002,-4.494537799671222
-0.11370000000000013,-4.538393849967037
-0.11470000000000002,-4.450681749375406
-0.11570000000000014,-4.364384360083638
-0.11670000000000003,-4.276672259492005
-0.11770000000000014,-4.23281620919619
-0.11870000000000003,-4.276672259492005
-0.11970000000000014,-4.3205283097878215
-0.12070000000000003,-4.406825699079589
-0.12170000000000014,-4.494537799671222
-0.12270000000000003,-4.538393849967037
-0.12370000000000014,-4.538393849967037
-0.12470000000000003,-4.494537799671222
-0.12570000000000014,-4.406825699079589
-0.12670000000000003,-4.3205283097878215
-0.12770000000000015,-4.276672259492005
-0.12870000000000004,-4.3205283097878215
-0.12970000000000015,-4.364384360083638
-0.13070000000000004,-4.450681749375406
-0.13170000000000015,-4.538393849967037
-0.13270000000000004,-4.582249900262854
-0.13370000000000015,-4.582249900262854
-0.13470000000000004,-4.538393849967037
-0.13570000000000015,-4.450681749375406
-0.13670000000000004,-4.364384360083638
-0.13770000000000016,-4.3205283097878215
-0.13870000000000005,-4.3205283097878215
-0.13970000000000016,-4.406825699079589
-0.14070000000000005,-4.494537799671222
-0.14170000000000016,-4.582249900262854
-0.14270000000000005,-4.626105950558669
-0.14370000000000016,-4.626105950558669
-0.14470000000000005,-4.582249900262854
-0.14570000000000016,-4.494537799671222
-0.14670000000000005,-4.406825699079589
-0.14770000000000016,-4.406825699079589
-0.14870000000000005,-4.406825699079589
-0.14970000000000017,-4.450681749375406
-0.15070000000000006,-4.582249900262854
-0.15170000000000017,-4.626105950558669
-0.15270000000000006,-4.712403339850438
-0.15370000000000017,-4.712403339850438
-0.15470000000000006,-4.626105950558669
-0.15570000000000017,-4.582249900262854
-0.15670000000000006,-4.538393849967037
-0.15770000000000017,-4.450681749375406
-0.15870000000000006,-4.494537799671222
-0.15970000000000018,-4.538393849967037
-0.16070000000000007,-4.626105950558669
-0.16170000000000018,-4.712403339850438
-0.16270000000000007,-4.800115440442069
-0.16370000000000018,-4.800115440442069
-0.16470000000000007,-4.756259390146253
-0.16570000000000018,-4.668547289554621
-0.16670000000000007,-4.626105950558669
-0.16770000000000018,-4.538393849967037
-0.16870000000000007,-4.582249900262854
-0.16970000000000018,-4.626105950558669
-0.17070000000000007,-4.756259390146253
-0.17170000000000019,-4.843971490737885
-0.17270000000000008,-4.887827541033701
-0.1737000000000002,-4.887827541033701
-0.17470000000000008,-4.843971490737885
-0.1757000000000002,-4.756259390146253
-0.17670000000000008,-4.712403339850438
-0.1777000000000002,-4.668547289554621
-0.17870000000000008,-4.668547289554621
-0.1797000000000002,-4.756259390146253
-0.18070000000000008,-4.843971490737885
-0.1817000000000002,-4.974124930325469
-0.18270000000000008,-5.0618370309171015
-0.1837000000000002,-5.0618370309171015
-0.1847000000000001,-5.017980980621284
-0.1857000000000002,-4.9302688800296535
-0.1867000000000001,-4.887827541033701
-0.1877000000000002,-4.843971490737885
-0.1887000000000001,-4.887827541033701
-0.1897000000000002,-4.9302688800296535
-0.1907000000000001,-5.0618370309171015
-0.1917000000000001,-5.149549131508733
-0.19269999999999998,-5.235846520800501
-0.1937000000000001,-5.235846520800501
-0.19469999999999998,-5.191990470504685
-0.1957000000000001,-5.105693081212917
-0.19669999999999999,-5.0618370309171015
-0.1977000000000001,-5.017980980621284
-0.1987,-5.0618370309171015
-0.1997000000000001,-5.149549131508733
-0.2007,-5.235846520800501
-0.2017000000000001,-5.323558621392133
-0.2027,-5.411270721983764
-0.2037000000000001,-5.453712060979717
-0.2047,-5.411270721983764
-0.2057000000000001,-5.367414671687949
-0.2067,-5.323558621392133
-0.2077000000000001,-5.235846520800501
-0.2087,-5.279702571096316
-0.2097000000000001,-5.411270721983764
-0.2107,-5.497568111275533
-0.2117000000000001,-5.629136262162981
-0.2127,-5.672992312458796
-0.2137000000000001,-5.715433651454749
-0.2147,-5.672992312458796
-0.2157000000000001,-5.672992312458796
-0.2167,-5.629136262162981
-0.21770000000000012,-5.5414241615713475
-0.2187,-5.585280211867165
-0.21970000000000012,-5.672992312458796
-0.2207,-5.80314575204638
-0.22170000000000012,-5.890857852638012
-0.2227,-6.021011292225596
-0.22370000000000012,-6.021011292225596
-0.2247,-6.021011292225596
-0.22570000000000012,-5.977155241929781
-0.2267,-5.890857852638012
-0.22770000000000012,-5.890857852638012
-0.22870000000000001,-5.9347139029338285
-0.22970000000000013,-6.021011292225596
-0.23070000000000002,-6.196435493408861
-0.23170000000000013,-6.282732882700628
-0.23270000000000002,-6.37044498329226
-0.23370000000000013,-6.414301033588076
-0.23470000000000002,-6.37044498329226
-0.23570000000000013,-6.37044498329226
-0.23670000000000002,-6.326588932996443
-0.2376999999999999,-6.282732882700628
-0.23870000000000002,-6.326588932996443
-0.2396999999999999,-6.458157083883892
-0.24070000000000003,-6.588310523471475
-0.24169999999999991,-6.719878674358924
-0.24270000000000003,-6.806176063650692
-0.24369999999999992,-6.893888164242324
-0.24470000000000003,-6.893888164242324
-0.24569999999999992,-6.806176063650692
-0.24670000000000003,-6.806176063650692
-0.24769999999999992,-6.806176063650692
-0.24870000000000003,-6.850032113946507
-0.24969999999999992,-6.981600264833956
-0.25070000000000003,-7.111753704421539
-0.2516999999999999,-7.243321855308987
-0.25270000000000004,-7.37347529489657
-0.2536999999999999,-7.4173313451923875
-0.25470000000000004,-7.4173313451923875
-0.2556999999999999,-7.37347529489657
-0.25670000000000004,-7.37347529489657
-0.25769999999999993,-7.37347529489657
-0.25870000000000004,-7.4173313451923875
-0.25969999999999993,-7.5474847847799715
-0.26070000000000004,-7.722908985963235
-0.26169999999999993,-7.853062425550818
-0.26270000000000004,-7.984630576438266
-0.26369999999999993,-8.070927965730034
-0.26470000000000005,-8.070927965730034
-0.26569999999999994,-8.027071915434218
-0.26670000000000005,-8.027071915434218
-0.26769999999999994,-8.070927965730034
-0.26870000000000005,-8.158640066321666
-0.26969999999999994,-8.246352166913299
-0.27070000000000005,-8.4203616567967
-0.27169999999999994,-8.55051509638428
-0.27270000000000005,-8.725939297567548
-0.27369999999999994,-8.769795347863363
-0.27470000000000006,-8.769795347863363
-0.27569999999999995,-8.812236686859313
-0.27670000000000006,-8.812236686859313
-0.27769999999999995,-8.812236686859313
-0.27870000000000006,-8.899948787450944
-0.27969999999999995,-9.031516938338395
-0.28070000000000006,-9.24938247851761
-0.28169999999999995,-9.423391968401008
-0.28270000000000006,-9.55496011928846
-0.28369999999999995,-9.641257508580225
-0.28470000000000006,-9.685113558876042
-0.28569999999999995,-9.685113558876042
-0.28670000000000007,-9.728969609171857
-0.28769999999999996,-9.685113558876042
-0.28870000000000007,-9.81668170976349
-0.28969999999999996,-9.99069119964689
-0.29070000000000007,-10.164700689530287
-0.29169999999999996,-10.340124890713554
-0.29270000000000007,-10.514134380596953
-0.29369999999999996,-10.601846481188586
-0.2947000000000001,-10.644287820184536
-0.29569999999999996,-10.644287820184536
-0.2967000000000001,-10.688143870480351
-0.29769999999999996,-10.731999920776168
-0.2987000000000001,-10.863568071663616
-0.29969999999999997,-11.037577561547016
-0.3007000000000001,-11.211587051430415
-0.30169999999999997,-11.42945259160963
-0.3027000000000001,-11.604876792792895
-0.30369999999999997,-11.73503023238048
-0.3047000000000001,-11.778886282676295
-0.30569999999999997,-11.82274233297211
-0.3067000000000001,-11.86659838326793
-0.3077,-11.909039722263879
-0.3087000000000001,-12.040607873151327
-0.3097,-12.214617363034726
-0.3107000000000001,-12.432482903213943
-0.3117,-12.651763154693022
-0.3127000000000001,-12.825772644576423
-0.3137,-12.955926084164007
-0.3147000000000001,-13.043638184755638
-0.3157,-13.087494235051453
-0.3167000000000001,-13.13135028534727
-0.3177,-13.217647674639037
-0.3187000000000001,-13.349215825526485
-0.3197,-13.567081365705702
-0.3207000000000001,-13.828802956180734
-0.3217,-14.002812446064135
-0.3227000000000001,-14.217848563643619
-0.3237,-14.401761032626075
-0.3247000000000001,-14.486643710617974
-0.3257,-14.529085049613924
-0.3267000000000001,-14.61396772760583
-0.3277,-14.69885040559773
-0.3287000000000001,-14.826174422585586
-0.3297,-15.05252823056399
-0.3307000000000001,-15.307176264539699
-0.3317,-15.533530072518102
-0.3327000000000001,-15.78817810649381
-0.3337,-15.91550212348166
-0.3347000000000001,-16.056973253468165
-0.3357,-16.141855931460068
-0.3367000000000001,-16.22673860945197
-0.3377,-16.311621287443874
-0.3387000000000001,-16.495533756426326
-0.3397,-16.70774045140608
-0.3407000000000001,-17.018976937376394
-0.3417,-17.231183632356142
-0.3427000000000001,-17.48583166633185
-0.3437,-17.669744135314307
-0.3447000000000001,-17.797068152302163
-0.3457,-17.881950830294063
-0.3467000000000001,-17.966833508285966
-0.3477,-18.15074597726842
-0.3487000000000001,-18.320511333252224
-0.3497,-18.53271802823198
-0.3507000000000001,-18.843954514202288
-0.3517,-19.112749661176647
-0.3527000000000001,-19.367397695152352
-0.3537,-19.579604390132108
-0.3547000000000001,-19.763516859114564
-0.3557,-19.848399537106463
-0.35670000000000013,-20.01816489309027
-0.3577,-20.10304757108217
-0.35870000000000013,-20.371842718056527
-0.3597,-20.626490752032236
-0.36070000000000013,-20.93772723800254
-0.3617,-21.248963723972853
-0.3626999999999999,-21.54605309694451
-0.3637,-21.772406904922917
-0.3646999999999999,-21.94217226090672
-0.3657,-22.069496277894572
-0.3666999999999999,-22.196820294882425
-0.3677,-22.38073276386488
-0.3686999999999999,-22.63538079784059
-0.36970000000000003,-22.946617283810895
-0.3706999999999999,-23.24370665678255
-0.37170000000000003,-23.597384481748815
-0.3726999999999999,-23.908620967719123
-0.37370000000000003,-24.120827662698876
-0.3746999999999999,-24.34718147067728
-0.37570000000000003,-24.516946826661083
-0.3766999999999999,-24.686712182644893
-0.37770000000000004,-24.9130659906233
-0.3786999999999999,-25.12527268560305
-0.37970000000000004,-25.43650917157336
-0.3806999999999999,-25.81848122253692
-0.38170000000000004,-26.17215904750318
-0.38269999999999993,-26.525836872469437
-0.38370000000000004,-26.780484906445146
-0.38469999999999993,-27.00683871442355
-0.38570000000000004,-27.219045409403304
-0.38669999999999993,-27.38881076538711
-0.38770000000000004,-27.65760591236147
-0.38869999999999993,-27.912253946337174
-0.38970000000000005,-28.22349043230748
-0.39069999999999994,-28.662050935265643
-0.39170000000000005,-29.001581647233255
-0.39269999999999994,-29.39770081119546
-0.39370000000000005,-29.708937297165768
-0.39469999999999994,-29.96358533114148
-0.39570000000000005,-30.189939139119886
-0.39669999999999994,-30.402145834099635
-0.39770000000000005,-30.670940981073993
-0.39869999999999994,-30.968030354045652
-0.39970000000000006,-31.36414951800786
-0.40069999999999995,-31.76026868197007
-0.40170000000000006,-32.184682071929586
-0.40269999999999995,-32.58080123589179
-0.40370000000000006,-32.93447906085806
-0.40469999999999995,-33.18912709483376
-0.40570000000000006,-33.45792224180811
-0.40669999999999995,-33.755011614779775
-0.40770000000000006,-34.02380676175414
-0.40869999999999995,-34.377484586720385
-0.40970000000000006,-34.75945663768395
-0.41069999999999995,-35.240458479638065
-0.41170000000000007,-35.679018982596226
-0.41269999999999996,-36.11757948555439
-0.41370000000000007,-36.5136986495166
-0.41469999999999996,-36.8532293614842
-0.41570000000000007,-37.122024508458566
-0.41669999999999996,-37.41911388143023
-0.41770000000000007,-37.77279170639648
-0.41869999999999996,-38.12646953136274
-0.4197000000000001,-38.5650300343209
-0.42069999999999996,-39.046031876275016
-0.4217000000000001,-39.51288660523048
-0.42269999999999996,-39.99388844718459
-0.4237000000000001,-40.3900076111468
-0.42469999999999997,-40.78612677510901
-0.4257000000000001,-41.083216148080666
-0.42669999999999997,-41.43689397304693
-0.4277000000000001,-41.79057179801318
-0.42869999999999997,-42.229132300971344
-0.4297000000000001,-42.71013414292546
-0.43069999999999997,-43.17698887188092
-0.4317000000000001,-43.70043205283099
-0.4327,-44.223875233781044
-0.4337000000000001,-44.704877075735155
-0.4347,-45.10099623969737
-0.4357000000000001,-45.497115403659585
-0.4367,-45.85079322862584
-0.4377000000000001,-46.2327652795894
-0.4387,-46.713767121543505
-0.4397000000000001,-47.23721030249357
-0.4407,-47.80309482243959
-0.4417000000000001,-48.36897934238561
-0.4427,-48.89242252333566
-0.4437000000000001,-49.373424365289786
-0.4447,-49.81198486824794
-0.4457000000000001,-50.2505453712061
-0.4467,-50.68910587416426
-0.4477000000000001,-51.127666377122424
-0.4487,-51.594521106077885
-0.4497000000000001,-52.17455273902255
-0.4507,-52.78287859796452
-0.4517000000000001,-53.348763117910536
-0.4527,-53.9570889768525
-0.4537000000000001,-54.52297349679851
-0.4547,-55.003975338752625
-0.4557000000000001,-55.442535841710786
-0.4567,-55.96597902266086
-0.4577000000000001,-56.404539525619015
-0.4587,-56.927982706569075
-0.4597000000000001,-57.53630856551105
-0.4607,-58.18707576344896
-0.4617000000000001,-58.79540162239092
-0.4627,-59.44616882032884
-0.4637000000000001,-60.06864179226946
-0.4647,-60.59208497321952
-0.4657000000000001,-61.07308681517363
-0.4667,-61.53994154412909
-0.4677000000000001,-62.06338472507916
-0.4687,-62.68585769701977
-0.4697000000000001,-63.29418355596174
-0.4707,-63.98739209289561
-0.4717000000000001,-64.68060062982947
-0.4727,-65.34551494076604
-0.4737000000000001,-65.99628213870396
-0.4747,-66.56216665864997
-0.4757000000000001,-67.128051178596
-0.4767,-67.693935698542
-0.4777000000000001,-68.21737887949207
-0.4787,-68.82570473843404
-0.4797000000000001,-69.53306038836655
-0.4807,-70.26871026429637
-0.48170000000000013,-71.0043601402262
-0.4827,-71.7117157901587
-0.48370000000000013,-72.36248298809663
-0.4847,-73.01325018603454
-0.48570000000000013,-73.57913470598055
-0.4867,-72.8859261690467
-0.48570000000000013,-70.74971210625048
-0.4847,-69.39158925838004
-0.48370000000000013,-68.34470289647993
-0.4827,-67.52417034255821
-0.48170000000000013,-66.77437335362974
-0.4807,-66.08116481669586
-0.4797000000000001,-65.34551494076604
-0.4787,-64.55327661284163
-0.4777000000000001,-63.77518539791585
-0.4767,-62.98294706999144
-0.4757000000000001,-62.20485585506566
-0.4747,-61.49750020513315
-0.4737000000000001,-60.889174346191176
-0.4727,-60.28084848724921
-0.4717000000000001,-59.7149639673032
-0.4707,-59.10663810836124
-0.4697000000000001,-58.498312249419264
-0.4687,-57.79095659948675
-0.4677000000000001,-57.097748062552874
-0.4667,-56.404539525619015
-0.4657000000000001,-55.65474253669055
-0.4647,-55.046416677748574
-0.4637000000000001,-54.480532157802564
-0.4627,-53.9570889768525
-0.4617000000000001,-53.433645795902436
