Potential V vs RHE, Current mA cm-2
0.013299999999999867,0.08502414912188871
0.012299999999999978,-0.7001406223032067
0.011299999999999866,-1.3107300193249565
0.010299999999999976,-1.7910245056291363
0.009299999999999864,-2.226755585987568
0.008299999999999974,-2.618630616050183
0.007299999999999862,-2.924208256821031
0.006299999999999972,-3.2297858975918787
0.00529999999999986,-3.4915074880669104
0.0042999999999999705,-3.7532290785419424
0.0032999999999998586,-4.014950669016974
0.0022999999999999687,-4.1889601589003735
0.0012999999999998568,-4.450681749375406
0.00029999999999996696,-4.626105950558669
-0.000700000000000145,-4.800115440442069
-0.0017000000000000348,-4.974124930325469
-0.0027000000000001467,-5.105693081212917
-0.0037000000000000366,-5.235846520800501
-0.0047000000000001485,-5.367414671687949
-0.005700000000000038,-5.497568111275533
-0.00670000000000015,-5.629136262162981
-0.00770000000000004,-5.759289701750564
-0.008700000000000152,-5.890857852638012
-0.009700000000000042,-6.021011292225596
-0.010700000000000154,-6.152579443113044
-0.011700000000000044,-6.238876832404812
-0.012700000000000156,-6.326588932996443
-0.013700000000000045,-6.414301033588076
-0.014700000000000157,-6.500598422879844
-0.015700000000000047,-6.54445447317566
-0.01670000000000016,-6.632166573767292
-0.01770000000000005,-6.719878674358924
-0.01870000000000016,-6.806176063650692
-0.01970000000000005,-6.893888164242324
-0.020700000000000163,-6.93774421453814
-0.021700000000000053,-7.024041603829907
-0.022700000000000164,-7.111753704421539
-0.023700000000000054,-7.155609754717355
-0.024700000000000166,-7.199465805013171
-0.025700000000000056,-7.28576319430494
-0.026700000000000168,-7.329619244600755
-0.027700000000000058,-7.4173313451923875
-0.02870000000000017,-7.461187395488204
-0.02970000000000006,-7.50504344578402
-0.03070000000000017,-7.591340835075788
-0.03170000000000006,-7.635196885371603
-0.03270000000000017,-7.679052935667419
-0.03370000000000006,-7.722908985963235
-0.034700000000000175,-7.7653503249591855
-0.035700000000000065,-7.809206375255003
-0.03670000000000018,-7.853062425550818
-0.03770000000000007,-7.940774526142452
-0.03870000000000018,-7.984630576438266
-0.03970000000000007,-8.027071915434218
-0.04070000000000018,-8.070927965730034
-0.04170000000000007,-8.070927965730034
-0.04270000000000018,-8.11478401602585
-0.04370000000000007,-8.158640066321666
-0.044700000000000184,-8.158640066321666
-0.045700000000000074,-8.202496116617484
-0.046700000000000186,-8.246352166913299
-0.047700000000000076,-8.332649556205066
-0.04870000000000019,-8.376505606500881
-0.04970000000000008,-8.4203616567967
-0.05070000000000019,-8.464217707092514
-0.05170000000000008,-8.464217707092514
-0.05270000000000019,-8.508073757388331
-0.05370000000000008,-8.55051509638428
-0.05470000000000019,-8.508073757388331
-0.05570000000000008,-8.55051509638428
-0.056700000000000195,-8.594371146680096
-0.057700000000000085,-8.638227196975913
-0.058700000000000196,-8.68208324727173
-0.059700000000000086,-8.725939297567548
-0.0607000000000002,-8.725939297567548
-0.06170000000000009,-8.769795347863363
-0.0627000000000002,-8.812236686859313
-0.06370000000000009,-8.812236686859313
-0.0647000000000002,-8.85609273715513
-0.06570000000000009,-8.85609273715513
-0.0667000000000002,-8.85609273715513
-0.0677000000000001,-8.899948787450944
-0.0687000000000002,-8.943804837746763
-0.0697000000000001,-8.943804837746763
-0.07070000000000021,-8.987660888042578
-0.0717000000000001,-8.987660888042578
-0.07270000000000021,-9.031516938338395
-0.0737000000000001,-9.031516938338395
-0.07470000000000021,-9.031516938338395
-0.0757000000000001,-9.073958277334345
-0.07670000000000021,-9.11781432763016
-0.0777000000000001,-9.161670377925978
-0.07870000000000021,-9.205526428221793
-0.0797000000000001,-9.205526428221793
-0.08070000000000022,-9.205526428221793
-0.0817000000000001,-9.205526428221793
-0.08270000000000022,-9.205526428221793
-0.08370000000000011,-9.24938247851761
-0.08470000000000022,-9.24938247851761
-0.08570000000000011,-9.24938247851761
-0.08670000000000022,-9.293238528813426
-0.08770000000000011,-9.335679867809377
-0.08870000000000022,-9.335679867809377
-0.08970000000000011,-9.379535918105192
-0.09070000000000022,-9.423391968401008
-0.09170000000000011,-9.379535918105192
-0.09270000000000023,-9.423391968401008
-0.09370000000000012,-9.379535918105192
-0.09470000000000023,-9.379535918105192
-0.09570000000000012,-9.379535918105192
-0.09670000000000023,-9.423391968401008
-0.09770000000000012,-9.467248018696827
-0.09870000000000023,-9.467248018696827
-0.09970000000000012,-9.511104068992642
-0.10070000000000023,-9.55496011928846
-0.10170000000000012,-9.55496011928846
-0.10270000000000024,-9.55496011928846
-0.10370000000000013,-9.55496011928846
-0.10470000000000024,-9.55496011928846
-0.10570000000000013,-9.55496011928846
-0.10670000000000024,-9.55496011928846
-0.10770000000000013,-9.55496011928846
-0.10870000000000024,-9.59740145828441
-0.10970000000000013,-9.641257508580225
-0.11070000000000024,-9.641257508580225
-0.11170000000000013,-9.641257508580225
-0.11270000000000002,-9.685113558876042
-0.11370000000000013,-9.685113558876042
-0.11470000000000002,-9.685113558876042
-0.11570000000000014,-9.685113558876042
-0.11670000000000003,-9.728969609171857
-0.11770000000000014,-9.728969609171857
-0.11870000000000003,-9.728969609171857
-0.11970000000000014,-9.728969609171857
-0.12070000000000003,-9.772825659467674
-0.12170000000000014,-9.772825659467674
-0.12270000000000003,-9.772825659467674
-0.12370000000000014,-9.772825659467674
-0.12470000000000003,-9.728969609171857
-0.12570000000000014,-9.728969609171857
-0.12670000000000003,-9.772825659467674
-0.12770000000000015,-9.81668170976349
-0.12870000000000004,-9.81668170976349
-0.12970000000000015,-9.81668170976349
-0.13070000000000004,-9.81668170976349
-0.13170000000000015,-9.85912304875944
-0.13270000000000004,-9.85912304875944
-0.13370000000000015,-9.85912304875944
-0.13470000000000004,-9.85912304875944
-0.13570000000000015,-9.85912304875944
-0.13670000000000004,-9.902979099055257
-0.13770000000000016,-9.946835149351072
-0.13870000000000005,-9.946835149351072
-0.13970000000000016,-9.99069119964689
-0.14070000000000005,-9.99069119964689
-0.14170000000000016,-9.946835149351072
-0.14270000000000005,-9.946835149351072
-0.14370000000000016,-9.946835149351072
-0.14470000000000005,-9.946835149351072
-0.14570000000000016,-9.946835149351072
-0.14670000000000005,-9.99069119964689
-0.14770000000000016,-9.99069119964689
-0.14870000000000005,-9.99069119964689
-0.14970000000000017,-10.034547249942705
-0.15070000000000006,-10.034547249942705
-0.15170000000000017,-10.078403300238522
-0.15270000000000006,-10.078403300238522
-0.15370000000000017,-10.078403300238522
-0.15470000000000006,-10.078403300238522
-0.15570000000000017,-10.078403300238522
-0.15670000000000006,-10.120844639234473
-0.15770000000000017,-10.120844639234473
-0.15870000000000006,-10.164700689530287
-0.15970000000000018,-10.164700689530287
-0.16070000000000007,-10.208556739826104
-0.16170000000000018,-10.208556739826104
-0.16270000000000007,-10.208556739826104
-0.16370000000000018,-10.208556739826104
-0.16470000000000007,-10.208556739826104
-0.16570000000000018,-10.164700689530287
-0.16670000000000007,-10.208556739826104
-0.16770000000000018,-10.164700689530287
-0.16870000000000007,-10.208556739826104
-0.16970000000000018,-10.208556739826104
-0.17070000000000007,-10.25241279012192
-0.17170000000000019,-10.25241279012192
-0.17270000000000008,-10.25241279012192
-0.1737000000000002,-10.25241279012192
-0.17470000000000008,-10.296268840417738
-0.1757000000000002,-10.296268840417738
-0.17670000000000008,-10.340124890713554
-0.1777000000000002,-10.382566229709504
-0.17870000000000008,-10.382566229709504
-0.1797000000000002,-10.42642228000532
-0.18070000000000008,-10.42642228000532
-0.1817000000000002,-10.42642228000532
-0.18270000000000008,-10.470278330301136
-0.1837000000000002,-10.42642228000532
-0.1847000000000001,-10.42642228000532
-0.1857000000000002,-10.382566229709504
-0.1867000000000001,-10.382566229709504
-0.1877000000000002,-10.382566229709504
-0.1887000000000001,-10.382566229709504
-0.1897000000000002,-10.42642228000532
-0.1907000000000001,-10.470278330301136
-0.1917000000000001,-10.470278330301136
-0.19269999999999998,-10.514134380596953
-0.1937000000000001,-10.514134380596953
-0.19469999999999998,-10.514134380596953
-0.1957000000000001,-10.514134380596953
-0.19669999999999999,-10.557990430892769
-0.1977000000000001,-10.557990430892769
-0.1987,-10.601846481188586
-0.1997000000000001,-10.601846481188586
-0.2007,-10.644287820184536
-0.2017000000000001,-10.601846481188586
-0.2027,-10.601846481188586
-0.2037000000000001,-10.601846481188586
-0.2047,-10.601846481188586
-0.2057000000000001,-10.601846481188586
-0.2067,-10.688143870480351
-0.2077000000000001,-10.688143870480351
-0.2087,-10.731999920776168
-0.2097000000000001,-10.731999920776168
-0.2107,-10.731999920776168
-0.2117000000000001,-10.731999920776168
-0.2127,-10.731999920776168
-0.2137000000000001,-10.731999920776168
-0.2147,-10.731999920776168
-0.2157000000000001,-10.731999920776168
-0.2167,-10.731999920776168
-0.21770000000000012,-10.775855971071984
-0.2187,-10.819712021367803
-0.21970000000000012,-10.819712021367803
-0.2207,-10.819712021367803
-0.22170000000000012,-10.819712021367803
-0.2227,-10.863568071663616
-0.22370000000000012,-10.863568071663616
-0.2247,-10.863568071663616
-0.22570000000000012,-10.863568071663616
-0.2267,-10.863568071663616
-0.22770000000000012,-10.906009410659568
-0.22870000000000001,-10.949865460955383
-0.22970000000000013,-10.949865460955383
-0.23070000000000002,-10.949865460955383
-0.23170000000000013,-10.993721511251199
-0.23270000000000002,-10.993721511251199
-0.23370000000000013,-10.993721511251199
-0.23470000000000002,-10.993721511251199
-0.23570000000000013,-10.949865460955383
-0.23670000000000002,-10.993721511251199
-0.2376999999999999,-10.993721511251199
-0.23870000000000002,-11.037577561547016
-0.2396999999999999,-11.037577561547016
-0.24070000000000003,-11.037577561547016
-0.24169999999999991,-11.037577561547016
-0.24270000000000003,-11.037577561547016
-0.24369999999999992,-11.081433611842833
-0.24470000000000003,-11.081433611842833
-0.24569999999999992,-11.081433611842833
-0.24670000000000003,-11.123874950838783
-0.24769999999999992,-11.1677310011346
-0.24870000000000003,-11.211587051430415
-0.24969999999999992,-11.211587051430415
-0.25070000000000003,-11.211587051430415
-0.2516999999999999,-11.211587051430415
-0.25270000000000004,-11.211587051430415
-0.2536999999999999,-11.211587051430415
-0.25470000000000004,-11.1677310011346
-0.2556999999999999,-11.1677310011346
-0.25670000000000004,-11.211587051430415
-0.25769999999999993,-11.255443101726232
-0.25870000000000004,-11.255443101726232
-0.25969999999999993,-11.255443101726232
-0.26070000000000004,-11.299299152022046
-0.26169999999999993,-11.299299152022046
-0.26270000000000004,-11.343155202317865
-0.26369999999999993,-11.343155202317865
-0.26470000000000005,-11.385596541313816
-0.26569999999999994,-11.385596541313816
-0.26670000000000005,-11.385596541313816
-0.26769999999999994,-11.42945259160963
-0.26870000000000005,-11.42945259160963
-0.26969999999999994,-11.473308641905447
-0.27070000000000005,-11.517164692201263
-0.27169999999999994,-11.517164692201263
-0.27270000000000005,-11.517164692201263
-0.27369999999999994,-11.517164692201263
-0.27470000000000006,-11.517164692201263
-0.27569999999999995,-11.56102074249708
-0.27670000000000006,-11.56102074249708
-0.27769999999999995,-11.56102074249708
-0.27870000000000006,-11.604876792792895
-0.27969999999999995,-11.604876792792895
-0.28070000000000006,-11.647318131788847
-0.28169999999999995,-11.647318131788847
-0.28270000000000006,-11.691174182084664
-0.28369999999999995,-11.691174182084664
-0.28470000000000006,-11.691174182084664
-0.28569999999999995,-11.73503023238048
-0.28670000000000007,-11.778886282676295
-0.28769999999999996,-11.86659838326793
-0.28870000000000007,-11.909039722263879
-0.28969999999999996,-11.909039722263879
-0.29070000000000007,-11.952895772559694
-0.29169999999999996,-11.996751822855511
-0.29270000000000007,-11.996751822855511
-0.29369999999999996,-12.040607873151327
-0.2947000000000001,-12.040607873151327
-0.29569999999999996,-12.084463923447142
-0.2967000000000001,-12.170761312738911
-0.29769999999999996,-12.214617363034726
-0.2987000000000001,-12.258473413330542
-0.29969999999999997,-12.302329463626359
-0.3007000000000001,-12.346185513922174
-0.30169999999999997,-12.390041564217992
-0.3027000000000001,-12.390041564217992
-0.30369999999999997,-12.390041564217992
-0.3047000000000001,-12.432482903213943
-0.30569999999999997,-12.476338953509758
-0.3067000000000001,-12.520195003805576
-0.3077,-12.607907104397206
-0.3087000000000001,-12.694204493688973
-0.3097,-12.73806054398479
-0.3107000000000001,-12.869628694872238
-0.3117,-12.913484745168056
-0.3127000000000001,-12.99978213445982
-0.3137,-13.087494235051453
-0.3147000000000001,-13.13135028534727
-0.3157,-13.217647674639037
-0.3167000000000001,-13.261503724934855
-0.3177,-13.30535977523067
-0.3187000000000001,-13.349215825526485
-0.3197,-13.3930718758223
-0.3207000000000001,-13.47936926511407
-0.3217,-13.523225315409885
-0.3227000000000001,-13.610937416001518
-0.3237,-13.698649516593148
-0.3247000000000001,-13.784946905884919
-0.3257,-13.916515056772363
-0.3267000000000001,-14.046668496359947
-0.3277,-14.217848563643619
-0.3287000000000001,-14.345172580631472
-0.3297,-14.486643710617974
-0.3307000000000001,-14.61396772760583
-0.3317,-14.69885040559773
-0.3327000000000001,-14.826174422585586
-0.3337,-14.925204213576137
-0.3347000000000001,-15.05252823056399
-0.3357,-15.137410908555893
-0.3367000000000001,-15.307176264539699
-0.3377,-15.491088733522153
-0.3387000000000001,-15.660854089505953
-0.3397,-15.830619445489761
-0.3407000000000001,-16.056973253468165
-0.3417,-16.269179948447924
-0.3427000000000001,-16.495533756426326
-0.3437,-16.70774045140608
-0.3447000000000001,-16.919947146385837
-0.3457,-17.146300954364243
-0.3467000000000001,-17.40094898833995
-0.3477,-17.669744135314307
-0.3487000000000001,-17.966833508285966
-0.3497,-18.23562865526032
-0.3507000000000001,-18.53271802823198
-0.3517,-18.843954514202288
-0.3527000000000001,-19.197632339168546
-0.3537,-19.579604390132108
-0.3547000000000001,-19.97572355409432
-0.3557,-20.414284057052477
-0.35670000000000013,-20.89528589900659
-0.3577,-21.418729079956652
-0.35870000000000013,-21.98461359990267
-0.3597,-22.592939458844636
-0.36070000000000013,-23.24370665678255
-0.3617,-23.908620967719123
-0.3626999999999999,-24.559388165657033
-0.3637,-25.252596702590903
-0.3646999999999999,-26.044835030515326
-0.3657,-26.822926245441096
-0.3666999999999999,-27.78492992934932
-0.3677,-28.704492274261593
-0.3686999999999999,-29.793819975157668
-0.36970000000000003,-30.88314767605375
-0.3706999999999999,-32.05735805494172
-0.37170000000000003,-33.288156885824314
-0.3726999999999999,-34.58969128170015
-0.37370000000000003,-35.90537279057463
-0.3746999999999999,-37.249348525446415
-0.37570000000000003,-38.607471373316855
-0.3766999999999999,-39.99388844718459
-0.37770000000000004,-41.352011295055014
-0.3786999999999999,-42.752575481921404
-0.37970000000000004,-44.096551216793195
-0.3806999999999999,-45.497115403659585
-0.38170000000000004,-46.88353247752732
-0.38269999999999993,-48.32653800338966
-0.38370000000000004,-49.68466085126009
-0.38469999999999993,-51.028636586131874
-0.38570000000000004,-52.386759434002315
-0.38669999999999993,-53.82976495986464
-0.38770000000000004,-55.21618203373238
-0.38869999999999993,-56.70162889859067
-0.38970000000000005,-58.14463442445301
-0.39069999999999994,-59.54519861131939
-0.39170000000000005,-60.93161568518713
-0.39269999999999994,-62.28973853305756
-0.39370000000000005,-63.633714267929356
-0.39469999999999994,-64.90695443780788
-0.39570000000000005,-66.16604749468777
-0.39669999999999994,-67.34025787357575
-0.39770000000000005,-68.65593938245023
-0.39869999999999994,-69.95747377832606
-0.39970000000000006,-71.27315528720055
-0.40069999999999995,-72.63127813507097
-0.40170000000000006,-73.93281253094682
-0.40269999999999995,-75.29093537881725
-0.40370000000000006,-76.67735245268499
-0.40469999999999995,-78.03547530055542
-0.40570000000000006,-79.33700969643127
-0.40669999999999995,-80.52536718831789
-0.40770000000000006,-81.61469488921396
-0.40869999999999995,-82.6615812511141
-0.40970000000000006,-83.66602627401826
-0.41069999999999995,-84.6563241839238
-0.41170000000000007,-85.70321054582392
-0.41269999999999996,-86.7076555687281
-0.41370000000000007,-87.75454193062824
-0.41469999999999996,-88.80142829252836
-0.41570000000000007,-90.03222712341093
-0.41669999999999996,-91.29132018029082
-0.41770000000000007,-92.4655305591788
-0.41869999999999996,-93.65388805106544
-0.4197000000000001,-94.95542244694126
-0.42069999999999996,-96.12963282582925
-0.4217000000000001,-97.17651918772938
-0.42269999999999996,-98.18096421063355
-0.4237000000000001,-99.22785057253368
-0.42469999999999997,-100.10497157844999
-0.4257000000000001,-101.06697526235823
-0.42669999999999997,-101.97239049427183
-0.4277000000000001,-102.80707016119221
-0.42869999999999997,-103.59930848911664
-0.4297000000000001,-104.41984104303836
-0.43069999999999997,-105.29696204895468
-0.4317000000000001,-106.07505326388046
-0.4327,-106.78240891381296
-0.4337000000000001,-107.6029414677347
-0.4347,-108.60738649063886
-0.4357000000000001,-109.654272852539
-0.4367,-110.57383519745127
-0.4377000000000001,-111.4509562033676
-0.4387,-112.22904741829338
-0.4397000000000001,-113.19105110220158
-0.4407,-114.11061344711386
-0.4417000000000001,-114.84626332304367
-0.4427,-115.53947185997755
-0.4437000000000001,-116.10535637992358
-0.4447,-116.72782935186417
-0.4457000000000001,-117.25127253281424
-0.4467,-117.94448106974811
-0.4477000000000001,-118.59524826768603
-0.4487,-119.4299279346064
-0.4497000000000001,-120.16557781053622
-0.4507,-120.9153747994647
-0.4517000000000001,-121.65102467539451
-0.4527,-122.42911589032028
-0.4537000000000001,-123.09403020125686
-0.4547,-123.6174733822069
-0.4557000000000001,-123.99944543317046
-0.4567,-124.35312325813672
-0.4577000000000001,-124.70680108310299
-0.4587,-125.10292024706521
-0.4597000000000001,-125.71124610600715
-0.4607,-126.27713062595316
-0.4617000000000001,-126.84301514589919
-0.4627,-127.23913430986138
-0.4637000000000001,-128.01722552478716
-0.4647,-128.62555138372915
-0.4657000000000001,-129.33290703366166
-0.4667,-130.28076360457123
-0.4677000000000001,-130.9456779155078
-0.4687,-131.2003259494835
-0.4697000000000001,-131.55400377444977
-0.4707,-131.80865180842545
-0.4717000000000001,-132.33209498937555
-0.4727,-132.81309683132966
-0.4737000000000001,-133.29409867328377
-0.4747,-133.77510051523788
-0.4757000000000001,-134.12877834020412
-0.4767,-134.17121967920008
-0.4777000000000001,-134.73710419914607
-0.4787,-135.51519541407185
-0.4797000000000001,-136.1801097250084
-0.4807,-136.562081775972
-0.48170000000000013,-136.91575960093826
-0.4827,-136.74599424495443
-0.48370000000000013,-138.48608914378846
-0.4847,-138.7548842907628
-0.48570000000000013,-138.96709098574257
-0.4867,-138.88220830775063
-0.48570000000000013,-137.79288060685457
-0.4847,-136.91575960093826
-0.48370000000000013,-136.08107993401788
-0.4827,-135.51519541407185
-0.48170000000000013,-134.69466286015015
-0.4807,-133.73265917624192
-0.4797000000000001,-132.81309683132966
-0.4787,-131.55400377444977
-0.4777000000000001,-130.42223473455772
-0.4767,-129.19143590367514
-0.4757000000000001,-127.97478418579122
-0.4747,-126.9278978238911
-0.4737000000000001,-125.79612878399907
-0.4727,-124.57947706611512
-0.4717000000000001,-123.70235606019881
-0.4707,-123.2213542182447
-0.4697000000000001,-122.78279371528653
-0.4687,-122.1320265173486
-0.4677000000000001,-121.65102467539451
-0.4667,-121.43881798041474
-0.4657000000000001,-120.81634500847414
-0.4647,-120.25046048852812
