Jan. 9, 2025   02:04:25
Cyclic Voltammetry
File: c:/users/guazh/data/banditlqround7_x0exp772_r5/2025-01-08-exp804\exp804-2025-01-09t01_55_16-h2koh\exp804_cv_sr_50mvs_efin_-1500mv.bin
Data Source:  Experiment
Instrument Model:  CHI760E
Header: CV ran at 50 mVs
Note: 

Init E (V) = -1
High E (V) = -1
Low E (V) = -1.5
Final E (V) = -1
Init P/N = N
Scan Rate (V/s) = 0.05
Segment = 3
Sample Interval (V) = 0.001
Quiet Time (sec) = 2
Sensitivity (A/V) = 0.01
Comp R (ohm) = 1.5

Results:

Channel 1:
Segment 1:

Segment 2:

Segment 3:

Potential/V, Current/A

-1.000, -5.193e-5
-1.001, -1.656e-5
-1.002, -9.414e-6
-1.003, -1.906e-6
-1.004, 1.204e-5
-1.005, 2.253e-5
-1.006, 2.481e-5
-1.007, 2.271e-5
-1.008, 2.558e-5
-1.009, 3.666e-5
-1.010, 4.543e-5
-1.011, 4.585e-5
-1.012, 4.236e-5
-1.013, 4.401e-5
-1.014, 5.423e-5
-1.015, 6.263e-5
-1.016, 6.110e-5
-1.017, 5.710e-5
-1.018, 5.886e-5
-1.019, 6.761e-5
-1.020, 7.503e-5
-1.021, 7.348e-5
-1.022, 6.894e-5
-1.023, 7.052e-5
-1.024, 7.922e-5
-1.025, 8.559e-5
-1.026, 8.414e-5
-1.027, 7.831e-5
-1.028, 7.989e-5
-1.029, 8.782e-5
-1.030, 9.433e-5
-1.031, 9.260e-5
-1.032, 8.648e-5
-1.033, 8.738e-5
-1.034, 9.612e-5
-1.035, 1.020e-4
-1.036, 9.964e-5
-1.037, 9.354e-5
-1.038, 9.463e-5
-1.039, 1.028e-4
-1.040, 1.083e-4
-1.041, 1.056e-4
-1.042, 9.975e-5
-1.043, 1.001e-4
-1.044, 1.084e-4
-1.045, 1.144e-4
-1.046, 1.116e-4
-1.047, 1.059e-4
-1.048, 1.059e-4
-1.049, 1.137e-4
-1.050, 1.196e-4
-1.051, 1.164e-4
-1.052, 1.107e-4
-1.053, 1.109e-4
-1.054, 1.187e-4
-1.055, 1.245e-4
-1.056, 1.212e-4
-1.057, 1.152e-4
-1.058, 1.163e-4
-1.059, 1.233e-4
-1.060, 1.294e-4
-1.061, 1.259e-4
-1.062, 1.198e-4
-1.063, 1.207e-4
-1.064, 1.279e-4
-1.065, 1.336e-4
-1.066, 1.305e-4
-1.067, 1.241e-4
-1.068, 1.247e-4
-1.069, 1.324e-4
-1.070, 1.380e-4
-1.071, 1.351e-4
-1.072, 1.285e-4
-1.073, 1.293e-4
-1.074, 1.370e-4
-1.075, 1.427e-4
-1.076, 1.387e-4
-1.077, 1.326e-4
-1.078, 1.339e-4
-1.079, 1.422e-4
-1.080, 1.465e-4
-1.081, 1.430e-4
-1.082, 1.376e-4
-1.083, 1.378e-4
-1.084, 1.456e-4
-1.085, 1.507e-4
-1.086, 1.476e-4
-1.087, 1.417e-4
-1.088, 1.420e-4
-1.089, 1.501e-4
-1.090, 1.556e-4
-1.091, 1.521e-4
-1.092, 1.461e-4
-1.093, 1.465e-4
-1.094, 1.548e-4
-1.095, 1.600e-4
-1.096, 1.563e-4
-1.097, 1.502e-4
-1.098, 1.515e-4
-1.099, 1.594e-4
-1.100, 1.646e-4
-1.101, 1.611e-4
-1.102, 1.548e-4
-1.103, 1.567e-4
-1.104, 1.640e-4
-1.105, 1.692e-4
-1.106, 1.660e-4
-1.107, 1.598e-4
-1.108, 1.611e-4
-1.109, 1.692e-4
-1.110, 1.742e-4
-1.111, 1.709e-4
-1.112, 1.644e-4
-1.113, 1.657e-4
-1.114, 1.745e-4
-1.115, 1.791e-4
-1.116, 1.765e-4
-1.117, 1.697e-4
-1.118, 1.713e-4
-1.119, 1.799e-4
-1.120, 1.842e-4
-1.121, 1.812e-4
-1.122, 1.751e-4
-1.123, 1.765e-4
-1.124, 1.851e-4
-1.125, 1.897e-4
-1.126, 1.869e-4
-1.127, 1.813e-4
-1.128, 1.822e-4
-1.129, 1.905e-4
-1.130, 1.961e-4
-1.131, 1.920e-4
-1.132, 1.861e-4
-1.133, 1.879e-4
-1.134, 1.963e-4
-1.135, 2.017e-4
-1.136, 1.978e-4
-1.137, 1.914e-4
-1.138, 1.936e-4
-1.139, 2.020e-4
-1.140, 2.077e-4
-1.141, 2.036e-4
-1.142, 1.984e-4
-1.143, 2.004e-4
-1.144, 2.082e-4
-1.145, 2.134e-4
-1.146, 2.101e-4
-1.147, 2.041e-4
-1.148, 2.065e-4
-1.149, 2.145e-4
-1.150, 2.197e-4
-1.151, 2.163e-4
-1.152, 2.106e-4
-1.153, 2.126e-4
-1.154, 2.209e-4
-1.155, 2.257e-4
-1.156, 2.228e-4
-1.157, 2.168e-4
-1.158, 2.189e-4
-1.159, 2.273e-4
-1.160, 2.316e-4
-1.161, 2.288e-4
-1.162, 2.228e-4
-1.163, 2.249e-4
-1.164, 2.335e-4
-1.165, 2.385e-4
-1.166, 2.351e-4
-1.167, 2.290e-4
-1.168, 2.312e-4
-1.169, 2.395e-4
-1.170, 2.443e-4
-1.171, 2.407e-4
-1.172, 2.351e-4
-1.173, 2.373e-4
-1.174, 2.452e-4
-1.175, 2.505e-4
-1.176, 2.467e-4
-1.177, 2.407e-4
-1.178, 2.437e-4
-1.179, 2.509e-4
-1.180, 2.567e-4
-1.181, 2.513e-4
-1.182, 2.453e-4
-1.183, 2.477e-4
-1.184, 2.564e-4
-1.185, 2.613e-4
-1.186, 2.575e-4
-1.187, 2.509e-4
-1.188, 2.539e-4
-1.189, 2.612e-4
-1.190, 2.656e-4
-1.191, 2.620e-4
-1.192, 2.557e-4
-1.193, 2.586e-4
-1.194, 2.663e-4
-1.195, 2.705e-4
-1.196, 2.670e-4
-1.197, 2.602e-4
-1.198, 2.627e-4
-1.199, 2.709e-4
-1.200, 2.740e-4
-1.201, 2.698e-4
-1.202, 2.652e-4
-1.203, 2.673e-4
-1.204, 2.757e-4
-1.205, 2.789e-4
-1.206, 2.744e-4
-1.207, 2.692e-4
-1.208, 2.708e-4
-1.209, 2.788e-4
-1.210, 2.831e-4
-1.211, 2.786e-4
-1.212, 2.731e-4
-1.213, 2.748e-4
-1.214, 2.826e-4
-1.215, 2.873e-4
-1.216, 2.813e-4
-1.217, 2.759e-4
-1.218, 2.785e-4
-1.219, 2.862e-4
-1.220, 2.906e-4
-1.221, 2.856e-4
-1.222, 2.796e-4
-1.223, 2.832e-4
-1.224, 2.900e-4
-1.225, 2.943e-4
-1.226, 2.887e-4
-1.227, 2.835e-4
-1.228, 2.863e-4
-1.229, 2.954e-4
-1.230, 2.984e-4
-1.231, 2.937e-4
-1.232, 2.868e-4
-1.233, 2.900e-4
-1.234, 2.978e-4
-1.235, 3.019e-4
-1.236, 2.979e-4
-1.237, 2.911e-4
-1.238, 2.934e-4
-1.239, 3.020e-4
-1.240, 3.055e-4
-1.241, 3.020e-4
-1.242, 2.970e-4
-1.243, 2.991e-4
-1.244, 3.081e-4
-1.245, 3.107e-4
-1.246, 3.066e-4
-1.247, 3.020e-4
-1.248, 3.044e-4
-1.249, 3.130e-4
-1.250, 3.172e-4
-1.251, 3.127e-4
-1.252, 3.084e-4
-1.253, 3.109e-4
-1.254, 3.198e-4
-1.255, 3.244e-4
-1.256, 3.197e-4
-1.257, 3.150e-4
-1.258, 3.192e-4
-1.259, 3.279e-4
-1.260, 3.327e-4
-1.261, 3.281e-4
-1.262, 3.238e-4
-1.263, 3.288e-4
-1.264, 3.373e-4
-1.265, 3.424e-4
-1.266, 3.389e-4
-1.267, 3.348e-4
-1.268, 3.394e-4
-1.269, 3.492e-4
-1.270, 3.533e-4
-1.271, 3.511e-4
-1.272, 3.470e-4
-1.273, 3.522e-4
-1.274, 3.624e-4
-1.275, 3.677e-4
-1.276, 3.652e-4
-1.277, 3.611e-4
-1.278, 3.677e-4
-1.279, 3.780e-4
-1.280, 3.849e-4
-1.281, 3.826e-4
-1.282, 3.793e-4
-1.283, 3.844e-4
-1.284, 3.949e-4
-1.285, 4.018e-4
-1.286, 4.009e-4
-1.287, 3.994e-4
-1.288, 4.057e-4
-1.289, 4.174e-4
-1.290, 4.243e-4
-1.291, 4.228e-4
-1.292, 4.221e-4
-1.293, 4.303e-4
-1.294, 4.426e-4
-1.295, 4.499e-4
-1.296, 4.472e-4
-1.297, 4.494e-4
-1.298, 4.566e-4
-1.299, 4.707e-4
-1.300, 4.784e-4
-1.301, 4.786e-4
-1.302, 4.800e-4
-1.303, 4.883e-4
-1.304, 5.026e-4
-1.305, 5.117e-4
-1.306, 5.136e-4
-1.307, 5.154e-4
-1.308, 5.241e-4
-1.309, 5.372e-4
-1.310, 5.488e-4
-1.311, 5.503e-4
-1.312, 5.530e-4
-1.313, 5.640e-4
-1.314, 5.795e-4
-1.315, 5.907e-4
-1.316, 5.931e-4
-1.317, 5.970e-4
-1.318, 6.084e-4
-1.319, 6.254e-4
-1.320, 6.357e-4
-1.321, 6.400e-4
-1.322, 6.450e-4
-1.323, 6.572e-4
-1.324, 6.753e-4
-1.325, 6.871e-4
-1.326, 6.932e-4
-1.327, 6.976e-4
-1.328, 7.129e-4
-1.329, 7.301e-4
-1.330, 7.450e-4
-1.331, 7.506e-4
-1.332, 7.574e-4
-1.333, 7.720e-4
-1.334, 7.921e-4
-1.335, 8.069e-4
-1.336, 8.132e-4
-1.337, 8.210e-4
-1.338, 8.379e-4
-1.339, 8.583e-4
-1.340, 8.755e-4
-1.341, 8.835e-4
-1.342, 8.941e-4
-1.343, 9.079e-4
-1.344, 9.268e-4
-1.345, 9.447e-4
-1.346, 9.546e-4
-1.347, 9.662e-4
-1.348, 9.845e-4
-1.349, 1.007e-3
-1.350, 1.024e-3
-1.351, 1.034e-3
-1.352, 1.046e-3
-1.353, 1.064e-3
-1.354, 1.090e-3
-1.355, 1.107e-3
-1.356, 1.119e-3
-1.357, 1.133e-3
-1.358, 1.152e-3
-1.359, 1.178e-3
-1.360, 1.196e-3
-1.361, 1.210e-3
-1.362, 1.222e-3
-1.363, 1.243e-3
-1.364, 1.270e-3
-1.365, 1.290e-3
-1.366, 1.305e-3
-1.367, 1.317e-3
-1.368, 1.341e-3
-1.369, 1.368e-3
-1.370, 1.389e-3
-1.371, 1.404e-3
-1.372, 1.420e-3
-1.373, 1.444e-3
-1.374, 1.471e-3
-1.375, 1.496e-3
-1.376, 1.511e-3
-1.377, 1.526e-3
-1.378, 1.551e-3
-1.379, 1.580e-3
-1.380, 1.605e-3
-1.381, 1.620e-3
-1.382, 1.639e-3
-1.383, 1.665e-3
-1.384, 1.699e-3
-1.385, 1.721e-3
-1.386, 1.740e-3
-1.387, 1.752e-3
-1.388, 1.782e-3
-1.389, 1.814e-3
-1.390, 1.840e-3
-1.391, 1.860e-3
-1.392, 1.877e-3
-1.393, 1.905e-3
-1.394, 1.941e-3
-1.395, 1.964e-3
-1.396, 1.984e-3
-1.397, 2.001e-3
-1.398, 2.028e-3
-1.399, 2.065e-3
-1.400, 2.095e-3
-1.401, 2.113e-3
-1.402, 2.137e-3
-1.403, 2.166e-3
-1.404, 2.196e-3
-1.405, 2.223e-3
-1.406, 2.248e-3
-1.407, 2.273e-3
-1.408, 2.290e-3
-1.409, 2.329e-3
-1.410, 2.356e-3
-1.411, 2.382e-3
-1.412, 2.408e-3
-1.413, 2.444e-3
-1.414, 2.479e-3
-1.415, 2.511e-3
-1.416, 2.536e-3
-1.417, 2.569e-3
-1.418, 2.603e-3
-1.419, 2.628e-3
-1.420, 2.653e-3
-1.421, 2.680e-3
-1.422, 2.711e-3
-1.423, 2.744e-3
-1.424, 2.780e-3
-1.425, 2.811e-3
-1.426, 2.836e-3
-1.427, 2.868e-3
-1.428, 2.896e-3
-1.429, 2.929e-3
-1.430, 2.964e-3
-1.431, 2.997e-3
-1.432, 3.017e-3
-1.433, 3.058e-3
-1.434, 3.095e-3
-1.435, 3.130e-3
-1.436, 3.155e-3
-1.437, 3.186e-3
-1.438, 3.218e-3
-1.439, 3.259e-3
-1.440, 3.287e-3
-1.441, 3.315e-3
-1.442, 3.346e-3
-1.443, 3.384e-3
-1.444, 3.421e-3
-1.445, 3.456e-3
-1.446, 3.489e-3
-1.447, 3.518e-3
-1.448, 3.581e-3
-1.449, 3.596e-3
-1.450, 3.635e-3
-1.451, 3.666e-3
-1.452, 3.695e-3
-1.453, 3.735e-3
-1.454, 3.793e-3
-1.455, 3.820e-3
-1.456, 3.840e-3
-1.457, 3.875e-3
-1.458, 3.913e-3
-1.459, 3.953e-3
-1.460, 3.993e-3
-1.461, 4.021e-3
-1.462, 4.067e-3
-1.463, 4.097e-3
-1.464, 4.140e-3
-1.465, 4.164e-3
-1.466, 4.211e-3
-1.467, 4.231e-3
-1.468, 4.304e-3
-1.469, 4.339e-3
-1.470, 4.378e-3
-1.471, 4.426e-3
-1.472, 4.444e-3
-1.473, 4.492e-3
-1.474, 4.522e-3
-1.475, 4.553e-3
-1.476, 4.581e-3
-1.477, 4.622e-3
-1.478, 4.662e-3
-1.479, 4.712e-3
-1.480, 4.795e-3
-1.481, 4.816e-3
-1.482, 4.862e-3
-1.483, 4.893e-3
-1.484, 4.941e-3
-1.485, 4.979e-3
-1.486, 5.023e-3
-1.487, 5.072e-3
-1.488, 5.113e-3
-1.489, 5.164e-3
-1.490, 5.186e-3
-1.491, 5.199e-3
-1.492, 5.250e-3
-1.493, 5.301e-3
-1.494, 5.350e-3
-1.495, 5.387e-3
-1.496, 5.433e-3
-1.497, 5.484e-3
-1.498, 5.521e-3
-1.499, 5.555e-3
-1.500, 5.519e-3
-1.499, 5.445e-3
-1.498, 5.381e-3
-1.497, 5.333e-3
-1.496, 5.270e-3
-1.495, 5.225e-3
-1.494, 5.172e-3
-1.493, 5.127e-3
-1.492, 5.087e-3
-1.491, 5.037e-3
-1.490, 5.006e-3
-1.489, 4.925e-3
-1.488, 4.877e-3
-1.487, 4.834e-3
-1.486, 4.780e-3
-1.485, 4.721e-3
-1.484, 4.695e-3
-1.483, 4.679e-3
-1.482, 4.606e-3
-1.481, 4.540e-3
-1.480, 4.500e-3
-1.479, 4.456e-3
-1.478, 4.411e-3
-1.477, 4.361e-3
-1.476, 4.314e-3
-1.475, 4.276e-3
-1.474, 4.223e-3
-1.473, 4.165e-3
-1.472, 4.124e-3
-1.471, 4.093e-3
-1.470, 4.058e-3
-1.469, 3.983e-3
-1.468, 3.935e-3
-1.467, 3.929e-3
-1.466, 3.878e-3
-1.465, 3.836e-3
-1.464, 3.789e-3
-1.463, 3.744e-3
-1.462, 3.697e-3
-1.461, 3.668e-3
-1.460, 3.630e-3
-1.459, 3.572e-3
-1.458, 3.524e-3
-1.457, 3.491e-3
-1.456, 3.453e-3
-1.455, 3.414e-3
-1.454, 3.375e-3
-1.453, 3.332e-3
-1.452, 3.302e-3
-1.451, 3.267e-3
-1.450, 3.218e-3
-1.449, 3.181e-3
-1.448, 3.142e-3
-1.447, 3.114e-3
-1.446, 3.084e-3
-1.445, 3.039e-3
-1.444, 2.998e-3
-1.443, 2.950e-3
-1.442, 2.917e-3
-1.441, 2.882e-3
-1.440, 2.857e-3
-1.439, 2.813e-3
-1.438, 2.773e-3
-1.437, 2.743e-3
-1.436, 2.711e-3
-1.435, 2.683e-3
-1.434, 2.636e-3
-1.433, 2.598e-3
-1.432, 2.577e-3
-1.431, 2.547e-3
-1.430, 2.551e-3
-1.429, 2.490e-3
-1.428, 2.451e-3
-1.427, 2.418e-3
-1.426, 2.383e-3
-1.425, 2.357e-3
-1.424, 2.322e-3
-1.423, 2.291e-3
-1.422, 2.270e-3
-1.421, 2.242e-3
-1.420, 2.207e-3
-1.419, 2.165e-3
-1.418, 2.133e-3
-1.417, 2.105e-3
-1.416, 2.084e-3
-1.415, 2.058e-3
-1.414, 2.022e-3
-1.413, 1.984e-3
-1.412, 1.945e-3
-1.411, 1.926e-3
-1.410, 1.908e-3
-1.409, 1.891e-3
-1.408, 1.864e-3
-1.407, 1.838e-3
-1.406, 1.808e-3
-1.405, 1.774e-3
-1.404, 1.740e-3
-1.403, 1.720e-3
-1.402, 1.690e-3
-1.401, 1.674e-3
-1.400, 1.651e-3
-1.399, 1.621e-3
-1.398, 1.590e-3
-1.397, 1.570e-3
-1.396, 1.551e-3
-1.395, 1.527e-3
-1.394, 1.497e-3
-1.393, 1.466e-3
-1.392, 1.453e-3
-1.391, 1.431e-3
-1.390, 1.409e-3
-1.389, 1.383e-3
-1.388, 1.355e-3
-1.387, 1.345e-3
-1.386, 1.318e-3
-1.385, 1.295e-3
-1.384, 1.271e-3
-1.383, 1.249e-3
-1.382, 1.231e-3
-1.381, 1.216e-3
-1.380, 1.193e-3
-1.379, 1.167e-3
-1.378, 1.144e-3
-1.377, 1.127e-3
-1.376, 1.114e-3
-1.375, 1.096e-3
-1.374, 1.072e-3
-1.373, 1.046e-3
-1.372, 1.032e-3
-1.371, 1.019e-3
-1.370, 1.000e-3
-1.369, 9.761e-4
-1.368, 9.644e-4
-1.367, 9.438e-4
-1.366, 9.316e-4
-1.365, 9.141e-4
-1.364, 8.927e-4
-1.363, 8.709e-4
-1.362, 8.586e-4
-1.361, 8.479e-4
-1.360, 8.329e-4
-1.359, 8.096e-4
-1.358, 7.903e-4
-1.357, 7.778e-4
-1.356, 7.689e-4
-1.355, 7.519e-4
-1.354, 7.314e-4
-1.353, 7.125e-4
-1.352, 7.027e-4
-1.351, 6.946e-4
-1.350, 6.783e-4
-1.349, 6.586e-4
-1.348, 6.414e-4
-1.347, 6.321e-4
-1.346, 6.254e-4
-1.345, 6.111e-4
-1.344, 5.917e-4
-1.343, 5.755e-4
-1.342, 5.668e-4
-1.341, 5.617e-4
-1.340, 5.470e-4
-1.339, 5.273e-4
-1.338, 5.112e-4
-1.337, 5.062e-4
-1.336, 5.026e-4
-1.335, 4.909e-4
-1.334, 4.724e-4
-1.333, 4.572e-4
-1.332, 4.499e-4
-1.331, 4.455e-4
-1.330, 4.341e-4
-1.329, 4.175e-4
-1.328, 4.062e-4
-1.327, 3.983e-4
-1.326, 3.936e-4
-1.325, 3.848e-4
-1.324, 3.685e-4
-1.323, 3.562e-4
-1.322, 3.493e-4
-1.321, 3.471e-4
-1.320, 3.371e-4
-1.319, 3.220e-4
-1.318, 3.098e-4
-1.317, 3.057e-4
-1.316, 3.035e-4
-1.315, 2.941e-4
-1.314, 2.799e-4
-1.313, 2.684e-4
-1.312, 2.644e-4
-1.311, 2.630e-4
-1.310, 2.543e-4
-1.309, 2.409e-4
-1.308, 2.301e-4
-1.307, 2.271e-4
-1.306, 2.268e-4
-1.305, 2.177e-4
-1.304, 2.045e-4
-1.303, 1.942e-4
-1.302, 1.918e-4
-1.301, 1.920e-4
-1.300, 1.845e-4
-1.299, 1.716e-4
-1.298, 1.631e-4
-1.297, 1.612e-4
-1.296, 1.614e-4
-1.295, 1.541e-4
-1.294, 1.423e-4
-1.293, 1.336e-4
-1.292, 1.325e-4
-1.291, 1.333e-4
-1.290, 1.270e-4
-1.289, 1.152e-4
-1.288, 1.071e-4
-1.287, 1.067e-4
-1.286, 1.075e-4
-1.285, 1.021e-4
-1.284, 9.074e-5
-1.283, 8.298e-5
-1.282, 8.290e-5
-1.281, 8.473e-5
-1.280, 7.830e-5
-1.279, 6.886e-5
-1.278, 6.131e-5
-1.277, 6.204e-5
-1.276, 6.378e-5
-1.275, 5.829e-5
-1.274, 4.821e-5
-1.273, 4.138e-5
-1.272, 4.206e-5
-1.271, 4.443e-5
-1.270, 3.957e-5
-1.269, 3.011e-5
-1.268, 2.327e-5
-1.267, 2.423e-5
-1.266, 2.726e-5
-1.265, 2.241e-5
-1.264, 1.288e-5
-1.263, 6.884e-6
-1.262, 8.483e-6
-1.261, 1.228e-5
-1.260, 7.812e-6
-1.259, -1.304e-6
-1.258, -6.760e-6
-1.257, -5.764e-6
-1.256, -2.449e-6
-1.255, -6.454e-6
-1.254, -1.585e-5
-1.253, -2.081e-5
-1.252, -1.889e-5
-1.251, -1.554e-5
-1.250, -1.906e-5
-1.249, -2.795e-5
-1.248, -3.280e-5
-1.247, -3.058e-5
-1.246, -2.701e-5
-1.245, -3.008e-5
-1.244, -3.885e-5
-1.243, -4.407e-5
-1.242, -4.105e-5
-1.241, -3.755e-5
-1.240, -4.080e-5
-1.239, -4.893e-5
-1.238, -5.351e-5
-1.237, -5.006e-5
-1.236, -4.678e-5
-1.235, -5.010e-5
-1.234, -5.775e-5
-1.233, -6.288e-5
-1.232, -5.947e-5
-1.231, -5.505e-5
-1.230, -5.825e-5
-1.229, -6.740e-5
-1.228, -7.106e-5
-1.227, -6.745e-5
-1.226, -6.257e-5
-1.225, -6.615e-5
-1.224, -7.369e-5
-1.223, -7.820e-5
-1.222, -7.488e-5
-1.221, -6.945e-5
-1.220, -7.309e-5
-1.219, -8.036e-5
-1.218, -8.420e-5
-1.217, -8.118e-5
-1.216, -7.643e-5
-1.215, -7.907e-5
-1.214, -8.665e-5
-1.213, -9.110e-5
-1.212, -8.855e-5
-1.211, -8.263e-5
-1.210, -8.429e-5
-1.209, -9.266e-5
-1.208, -9.594e-5
-1.207, -9.307e-5
-1.206, -8.821e-5
-1.205, -9.020e-5
-1.204, -9.803e-5
-1.203, -1.018e-4
-1.202, -9.787e-5
-1.201, -9.332e-5
-1.200, -9.516e-5
-1.199, -1.030e-4
-1.198, -1.067e-4
-1.197, -1.029e-4
-1.196, -9.791e-5
-1.195, -1.006e-4
-1.194, -1.070e-4
-1.193, -1.117e-4
-1.192, -1.075e-4
-1.191, -1.028e-4
-1.190, -1.053e-4
-1.189, -1.120e-4
-1.188, -1.160e-4
-1.187, -1.122e-4
-1.186, -1.068e-4
-1.185, -1.098e-4
-1.184, -1.164e-4
-1.183, -1.204e-4
-1.182, -1.165e-4
-1.181, -1.109e-4
-1.180, -1.140e-4
-1.179, -1.209e-4
-1.178, -1.246e-4
-1.177, -1.217e-4
-1.176, -1.155e-4
-1.175, -1.179e-4
-1.174, -1.253e-4
-1.173, -1.286e-4
-1.172, -1.250e-4
-1.171, -1.202e-4
-1.170, -1.222e-4
-1.169, -1.296e-4
-1.168, -1.326e-4
-1.167, -1.290e-4
-1.166, -1.241e-4
-1.165, -1.264e-4
-1.164, -1.340e-4
-1.163, -1.373e-4
-1.162, -1.332e-4
-1.161, -1.288e-4
-1.160, -1.305e-4
-1.159, -1.379e-4
-1.158, -1.416e-4
-1.157, -1.376e-4
-1.156, -1.328e-4
-1.155, -1.352e-4
-1.154, -1.422e-4
-1.153, -1.464e-4
-1.152, -1.424e-4
-1.151, -1.374e-4
-1.150, -1.400e-4
-1.149, -1.471e-4
-1.148, -1.514e-4
-1.147, -1.474e-4
-1.146, -1.423e-4
-1.145, -1.454e-4
-1.144, -1.521e-4
-1.143, -1.561e-4
-1.142, -1.527e-4
-1.141, -1.473e-4
-1.140, -1.508e-4
-1.139, -1.578e-4
-1.138, -1.615e-4
-1.137, -1.587e-4
-1.136, -1.534e-4
-1.135, -1.560e-4
-1.134, -1.639e-4
-1.133, -1.675e-4
-1.132, -1.644e-4
-1.131, -1.597e-4
-1.130, -1.622e-4
-1.129, -1.699e-4
-1.128, -1.738e-4
-1.127, -1.715e-4
-1.126, -1.676e-4
-1.125, -1.704e-4
-1.124, -1.781e-4
-1.123, -1.828e-4
-1.122, -1.786e-4
-1.121, -1.748e-4
-1.120, -1.777e-4
-1.119, -1.860e-4
-1.118, -1.909e-4
-1.117, -1.872e-4
-1.116, -1.835e-4
-1.115, -1.872e-4
-1.114, -1.949e-4
-1.113, -1.995e-4
-1.112, -1.967e-4
-1.111, -1.928e-4
-1.110, -1.966e-4
-1.109, -2.043e-4
-1.108, -2.096e-4
-1.107, -2.068e-4
-1.106, -2.027e-4
-1.105, -2.071e-4
-1.104, -2.146e-4
-1.103, -2.204e-4
-1.102, -2.173e-4
-1.101, -2.133e-4
-1.100, -2.177e-4
-1.099, -2.258e-4
-1.098, -2.307e-4
-1.097, -2.285e-4
-1.096, -2.249e-4
-1.095, -2.287e-4
-1.094, -2.376e-4
-1.093, -2.419e-4
-1.092, -2.403e-4
-1.091, -2.367e-4
-1.090, -2.408e-4
-1.089, -2.497e-4
-1.088, -2.547e-4
-1.087, -2.526e-4
-1.086, -2.496e-4
-1.085, -2.529e-4
-1.084, -2.624e-4
-1.083, -2.680e-4
-1.082, -2.656e-4
-1.081, -2.622e-4
-1.080, -2.667e-4
-1.079, -2.755e-4
-1.078, -2.813e-4
-1.077, -2.788e-4
-1.076, -2.761e-4
-1.075, -2.811e-4
-1.074, -2.898e-4
-1.073, -2.956e-4
-1.072, -2.937e-4
-1.071, -2.906e-4
-1.070, -2.953e-4
-1.069, -3.041e-4
-1.068, -3.096e-4
-1.067, -3.082e-4
-1.066, -3.051e-4
-1.065, -3.099e-4
-1.064, -3.182e-4
-1.063, -3.254e-4
-1.062, -3.230e-4
-1.061, -3.199e-4
-1.060, -3.243e-4
-1.059, -3.333e-4
-1.058, -3.389e-4
-1.057, -3.378e-4
-1.056, -3.344e-4
-1.055, -3.391e-4
-1.054, -3.483e-4
-1.053, -3.522e-4
-1.052, -3.509e-4
-1.051, -3.484e-4
-1.050, -3.561e-4
-1.049, -3.651e-4
-1.048, -3.689e-4
-1.047, -3.663e-4
-1.046, -3.636e-4
-1.045, -3.676e-4
-1.044, -3.768e-4
-1.043, -3.824e-4
-1.042, -3.800e-4
-1.041, -3.774e-4
-1.040, -3.815e-4
-1.039, -3.910e-4
-1.038, -3.963e-4
-1.037, -3.944e-4
-1.036, -3.914e-4
-1.035, -3.956e-4
-1.034, -4.044e-4
-1.033, -4.107e-4
-1.032, -4.084e-4
-1.031, -4.050e-4
-1.030, -4.093e-4
-1.029, -4.185e-4
-1.028, -4.241e-4
-1.027, -4.224e-4
-1.026, -4.184e-4
-1.025, -4.240e-4
-1.024, -4.318e-4
-1.023, -4.393e-4
-1.022, -4.396e-4
-1.021, -4.349e-4
-1.020, -4.391e-4
-1.019, -4.475e-4
-1.018, -4.511e-4
-1.017, -4.504e-4
-1.016, -4.464e-4
-1.015, -4.517e-4
-1.014, -4.615e-4
-1.013, -4.672e-4
-1.012, -4.664e-4
-1.011, -4.628e-4
-1.010, -4.676e-4
-1.009, -4.763e-4
-1.008, -4.823e-4
-1.007, -4.809e-4
-1.006, -4.787e-4
-1.005, -4.827e-4
-1.004, -4.929e-4
-1.003, -4.990e-4
-1.002, -4.972e-4
-1.001, -4.944e-4
