Dec. 21, 2024   05:27:24
Cyclic Voltammetry
File: c:/users/guazh/data/banditlqround7_x0exp667_r5/2024-12-16-exp718\exp718-2024-12-21t05_12_56-arkoh\exp718_cv_sr_300mvs_efin_-1600mv.bin
Data Source:  Experiment
Instrument Model:  CHI760E
Header: CV ran at 300 mVs
Note: 

Init E (V) = -1
High E (V) = -1
Low E (V) = -1.6
Final E (V) = -1
Init P/N = N
Scan Rate (V/s) = 0.3
Segment = 3
Sample Interval (V) = 0.001
Quiet Time (sec) = 2
Sensitivity (A/V) = 0.01
Comp R (ohm) = 1.3

Results:

Channel 1:
Segment 1:

Segment 2:

Segment 3:

Potential/V, Current/A

-1.000, -7.692e-5
-1.001, -4.917e-5
-1.002, -3.068e-5
-1.003, -1.526e-5
-1.004, 3.239e-6
-1.005, 1.865e-5
-1.006, 3.407e-5
-1.007, 4.640e-5
-1.008, 5.565e-5
-1.009, 6.798e-5
-1.010, 8.340e-5
-1.011, 9.265e-5
-1.012, 1.019e-4
-1.013, 1.081e-4
-1.014, 1.173e-4
-1.015, 1.296e-4
-1.016, 1.358e-4
-1.017, 1.420e-4
-1.018, 1.481e-4
-1.019, 1.574e-4
-1.020, 1.666e-4
-1.021, 1.728e-4
-1.022, 1.759e-4
-1.023, 1.821e-4
-1.024, 1.913e-4
-1.025, 2.006e-4
-1.026, 2.098e-4
-1.027, 2.129e-4
-1.028, 2.191e-4
-1.029, 2.252e-4
-1.030, 2.345e-4
-1.031, 2.406e-4
-1.032, 2.437e-4
-1.033, 2.499e-4
-1.034, 2.561e-4
-1.035, 2.622e-4
-1.036, 2.653e-4
-1.037, 2.684e-4
-1.038, 2.715e-4
-1.039, 2.746e-4
-1.040, 2.838e-4
-1.041, 2.931e-4
-1.042, 2.961e-4
-1.043, 3.023e-4
-1.044, 3.115e-4
-1.045, 3.208e-4
-1.046, 3.300e-4
-1.047, 3.331e-4
-1.048, 3.362e-4
-1.049, 3.424e-4
-1.050, 3.485e-4
-1.051, 3.516e-4
-1.052, 3.547e-4
-1.053, 3.609e-4
-1.054, 3.701e-4
-1.055, 3.763e-4
-1.056, 3.855e-4
-1.057, 3.886e-4
-1.058, 3.948e-4
-1.059, 4.010e-4
-1.060, 4.102e-4
-1.061, 4.164e-4
-1.062, 4.225e-4
-1.063, 4.287e-4
-1.064, 4.380e-4
-1.065, 4.472e-4
-1.066, 4.534e-4
-1.067, 4.534e-4
-1.068, 4.565e-4
-1.069, 4.565e-4
-1.070, 4.595e-4
-1.071, 4.595e-4
-1.072, 4.595e-4
-1.073, 4.657e-4
-1.074, 4.750e-4
-1.075, 4.904e-4
-1.076, 5.058e-4
-1.077, 5.150e-4
-1.078, 5.274e-4
-1.079, 5.397e-4
-1.080, 5.459e-4
-1.081, 5.489e-4
-1.082, 5.489e-4
-1.083, 5.489e-4
-1.084, 5.489e-4
-1.085, 5.520e-4
-1.086, 5.551e-4
-1.087, 5.582e-4
-1.088, 5.644e-4
-1.089, 5.798e-4
-1.090, 6.044e-4
-1.091, 6.291e-4
-1.092, 6.384e-4
-1.093, 6.476e-4
-1.094, 6.599e-4
-1.095, 6.692e-4
-1.096, 6.599e-4
-1.097, 6.507e-4
-1.098, 6.476e-4
-1.099, 6.445e-4
-1.100, 6.445e-4
-1.101, 6.414e-4
-1.102, 6.476e-4
-1.103, 6.569e-4
-1.104, 6.692e-4
-1.105, 6.877e-4
-1.106, 7.062e-4
-1.107, 7.154e-4
-1.108, 7.216e-4
-1.109, 7.309e-4
-1.110, 7.432e-4
-1.111, 7.432e-4
-1.112, 7.370e-4
-1.113, 7.339e-4
-1.114, 7.370e-4
-1.115, 7.401e-4
-1.116, 7.463e-4
-1.117, 7.524e-4
-1.118, 7.648e-4
-1.119, 7.802e-4
-1.120, 8.018e-4
-1.121, 8.141e-4
-1.122, 8.203e-4
-1.123, 8.295e-4
-1.124, 8.388e-4
-1.125, 8.449e-4
-1.126, 8.480e-4
-1.127, 8.449e-4
-1.128, 8.480e-4
-1.129, 8.511e-4
-1.130, 8.573e-4
-1.131, 8.634e-4
-1.132, 8.696e-4
-1.133, 8.758e-4
-1.134, 8.912e-4
-1.135, 9.035e-4
-1.136, 9.128e-4
-1.137, 9.189e-4
-1.138, 9.251e-4
-1.139, 9.313e-4
-1.140, 9.374e-4
-1.141, 9.405e-4
-1.142, 9.528e-4
-1.143, 9.590e-4
-1.144, 9.652e-4
-1.145, 9.713e-4
-1.146, 9.837e-4
-1.147, 9.868e-4
-1.148, 9.806e-4
-1.149, 9.775e-4
-1.150, 9.837e-4
-1.151, 9.960e-4
-1.152, 9.960e-4
-1.153, 1.005e-3
-1.154, 1.024e-3
-1.155, 1.042e-3
-1.156, 1.055e-3
-1.157, 1.058e-3
-1.158, 1.061e-3
-1.159, 1.064e-3
-1.160, 1.067e-3
-1.161, 1.067e-3
-1.162, 1.064e-3
-1.163, 1.067e-3
-1.164, 1.079e-3
-1.165, 1.095e-3
-1.166, 1.107e-3
-1.167, 1.116e-3
-1.168, 1.125e-3
-1.169, 1.135e-3
-1.170, 1.141e-3
-1.171, 1.147e-3
-1.172, 1.147e-3
-1.173, 1.147e-3
-1.174, 1.153e-3
-1.175, 1.162e-3
-1.176, 1.172e-3
-1.177, 1.178e-3
-1.178, 1.184e-3
-1.179, 1.190e-3
-1.180, 1.193e-3
-1.181, 1.199e-3
-1.182, 1.209e-3
-1.183, 1.215e-3
-1.184, 1.224e-3
-1.185, 1.240e-3
-1.186, 1.261e-3
-1.187, 1.270e-3
-1.188, 1.273e-3
-1.189, 1.277e-3
-1.190, 1.283e-3
-1.191, 1.280e-3
-1.192, 1.273e-3
-1.193, 1.267e-3
-1.194, 1.273e-3
-1.195, 1.280e-3
-1.196, 1.292e-3
-1.197, 1.298e-3
-1.198, 1.307e-3
-1.199, 1.323e-3
-1.200, 1.347e-3
-1.201, 1.372e-3
-1.202, 1.378e-3
-1.203, 1.384e-3
-1.204, 1.403e-3
-1.205, 1.412e-3
-1.206, 1.406e-3
-1.207, 1.394e-3
-1.208, 1.394e-3
-1.209, 1.403e-3
-1.210, 1.409e-3
-1.211, 1.409e-3
-1.212, 1.412e-3
-1.213, 1.418e-3
-1.214, 1.428e-3
-1.215, 1.431e-3
-1.216, 1.443e-3
-1.217, 1.458e-3
-1.218, 1.474e-3
-1.219, 1.492e-3
-1.220, 1.508e-3
-1.221, 1.517e-3
-1.222, 1.514e-3
-1.223, 1.505e-3
-1.224, 1.505e-3
-1.225, 1.511e-3
-1.226, 1.514e-3
-1.227, 1.511e-3
-1.228, 1.514e-3
-1.229, 1.539e-3
-1.230, 1.554e-3
-1.231, 1.563e-3
-1.232, 1.579e-3
-1.233, 1.597e-3
-1.234, 1.613e-3
-1.235, 1.622e-3
-1.236, 1.628e-3
-1.237, 1.622e-3
-1.238, 1.613e-3
-1.239, 1.606e-3
-1.240, 1.603e-3
-1.241, 1.606e-3
-1.242, 1.619e-3
-1.243, 1.640e-3
-1.244, 1.662e-3
-1.245, 1.687e-3
-1.246, 1.714e-3
-1.247, 1.736e-3
-1.248, 1.745e-3
-1.249, 1.751e-3
-1.250, 1.754e-3
-1.251, 1.751e-3
-1.252, 1.733e-3
-1.253, 1.721e-3
-1.254, 1.724e-3
-1.255, 1.730e-3
-1.256, 1.736e-3
-1.257, 1.761e-3
-1.258, 1.795e-3
-1.259, 1.813e-3
-1.260, 1.816e-3
-1.261, 1.819e-3
-1.262, 1.819e-3
-1.263, 1.804e-3
-1.264, 1.791e-3
-1.265, 1.801e-3
-1.266, 1.822e-3
-1.267, 1.841e-3
-1.268, 1.856e-3
-1.269, 1.872e-3
-1.270, 1.878e-3
-1.271, 1.872e-3
-1.272, 1.869e-3
-1.273, 1.869e-3
-1.274, 1.872e-3
-1.275, 1.875e-3
-1.276, 1.887e-3
-1.277, 1.909e-3
-1.278, 1.927e-3
-1.279, 1.930e-3
-1.280, 1.939e-3
-1.281, 1.961e-3
-1.282, 1.970e-3
-1.283, 1.958e-3
-1.284, 1.952e-3
-1.285, 1.961e-3
-1.286, 1.973e-3
-1.287, 1.970e-3
-1.288, 1.973e-3
-1.289, 1.986e-3
-1.290, 1.995e-3
-1.291, 1.998e-3
-1.292, 1.989e-3
-1.293, 1.992e-3
-1.294, 2.010e-3
-1.295, 2.020e-3
-1.296, 2.023e-3
-1.297, 2.038e-3
-1.298, 2.057e-3
-1.299, 2.069e-3
-1.300, 2.078e-3
-1.301, 2.097e-3
-1.302, 2.118e-3
-1.303, 2.134e-3
-1.304, 2.140e-3
-1.305, 2.140e-3
-1.306, 2.124e-3
-1.307, 2.106e-3
-1.308, 2.091e-3
-1.309, 2.072e-3
-1.310, 2.057e-3
-1.311, 2.050e-3
-1.312, 2.060e-3
-1.313, 2.075e-3
-1.314, 2.087e-3
-1.315, 2.112e-3
-1.316, 2.146e-3
-1.317, 2.177e-3
-1.318, 2.186e-3
-1.319, 2.177e-3
-1.320, 2.168e-3
-1.321, 2.164e-3
-1.322, 2.158e-3
-1.323, 2.143e-3
-1.324, 2.134e-3
-1.325, 2.149e-3
-1.326, 2.189e-3
-1.327, 2.229e-3
-1.328, 2.242e-3
-1.329, 2.235e-3
-1.330, 2.229e-3
-1.331, 2.223e-3
-1.332, 2.211e-3
-1.333, 2.180e-3
-1.334, 2.155e-3
-1.335, 2.171e-3
-1.336, 2.205e-3
-1.337, 2.229e-3
-1.338, 2.235e-3
-1.339, 2.251e-3
-1.340, 2.272e-3
-1.341, 2.272e-3
-1.342, 2.254e-3
-1.343, 2.232e-3
-1.344, 2.220e-3
-1.345, 2.217e-3
-1.346, 2.226e-3
-1.347, 2.229e-3
-1.348, 2.229e-3
-1.349, 2.226e-3
-1.350, 2.242e-3
-1.351, 2.254e-3
-1.352, 2.245e-3
-1.353, 2.223e-3
-1.354, 2.223e-3
-1.355, 2.242e-3
-1.356, 2.251e-3
-1.357, 2.232e-3
-1.358, 2.223e-3
-1.359, 2.235e-3
-1.360, 2.251e-3
-1.361, 2.245e-3
-1.362, 2.226e-3
-1.363, 2.226e-3
-1.364, 2.238e-3
-1.365, 2.235e-3
-1.366, 2.217e-3
-1.367, 2.211e-3
-1.368, 2.226e-3
-1.369, 2.242e-3
-1.370, 2.242e-3
-1.371, 2.232e-3
-1.372, 2.235e-3
-1.373, 2.235e-3
-1.374, 2.229e-3
-1.375, 2.220e-3
-1.376, 2.220e-3
-1.377, 2.226e-3
-1.378, 2.208e-3
-1.379, 2.183e-3
-1.380, 2.183e-3
-1.381, 2.198e-3
-1.382, 2.189e-3
-1.383, 2.174e-3
-1.384, 2.186e-3
-1.385, 2.205e-3
-1.386, 2.201e-3
-1.387, 2.186e-3
-1.388, 2.192e-3
-1.389, 2.217e-3
-1.390, 2.223e-3
-1.391, 2.214e-3
-1.392, 2.211e-3
-1.393, 2.208e-3
-1.394, 2.192e-3
-1.395, 2.171e-3
-1.396, 2.152e-3
-1.397, 2.128e-3
-1.398, 2.103e-3
-1.399, 2.091e-3
-1.400, 2.094e-3
-1.401, 2.094e-3
-1.402, 2.097e-3
-1.403, 2.106e-3
-1.404, 2.128e-3
-1.405, 2.140e-3
-1.406, 2.143e-3
-1.407, 2.149e-3
-1.408, 2.149e-3
-1.409, 2.131e-3
-1.410, 2.106e-3
-1.411, 2.091e-3
-1.412, 2.069e-3
-1.413, 2.035e-3
-1.414, 2.004e-3
-1.415, 2.004e-3
-1.416, 2.017e-3
-1.417, 2.029e-3
-1.418, 2.038e-3
-1.419, 2.054e-3
-1.420, 2.063e-3
-1.421, 2.069e-3
-1.422, 2.060e-3
-1.423, 2.032e-3
-1.424, 2.013e-3
-1.425, 2.010e-3
-1.426, 2.001e-3
-1.427, 1.986e-3
-1.428, 1.980e-3
-1.429, 1.995e-3
-1.430, 2.007e-3
-1.431, 2.004e-3
-1.432, 1.995e-3
-1.433, 1.995e-3
-1.434, 1.989e-3
-1.435, 1.973e-3
-1.436, 1.964e-3
-1.437, 1.967e-3
-1.438, 1.970e-3
-1.439, 1.967e-3
-1.440, 1.964e-3
-1.441, 1.964e-3
-1.442, 1.967e-3
-1.443, 1.967e-3
-1.444, 1.964e-3
-1.445, 1.964e-3
-1.446, 1.976e-3
-1.447, 1.992e-3
-1.448, 1.992e-3
-1.449, 1.983e-3
-1.450, 1.989e-3
-1.451, 2.001e-3
-1.452, 1.992e-3
-1.453, 1.970e-3
-1.454, 1.964e-3
-1.455, 1.976e-3
-1.456, 1.976e-3
-1.457, 1.967e-3
-1.458, 1.967e-3
-1.459, 1.973e-3
-1.460, 1.980e-3
-1.461, 1.976e-3
-1.462, 1.980e-3
-1.463, 1.980e-3
-1.464, 1.983e-3
-1.465, 1.989e-3
-1.466, 1.998e-3
-1.467, 2.004e-3
-1.468, 2.013e-3
-1.469, 2.026e-3
-1.470, 2.032e-3
-1.471, 2.035e-3
-1.472, 2.041e-3
-1.473, 2.041e-3
-1.474, 2.044e-3
-1.475, 2.044e-3
-1.476, 2.047e-3
-1.477, 2.044e-3
-1.478, 2.041e-3
-1.479, 2.047e-3
-1.480, 2.069e-3
-1.481, 2.084e-3
-1.482, 2.087e-3
-1.483, 2.100e-3
-1.484, 2.118e-3
-1.485, 2.134e-3
-1.486, 2.124e-3
-1.487, 2.115e-3
-1.488, 2.121e-3
-1.489, 2.143e-3
-1.490, 2.152e-3
-1.491, 2.143e-3
-1.492, 2.146e-3
-1.493, 2.177e-3
-1.494, 2.220e-3
-1.495, 2.245e-3
-1.496, 2.269e-3
-1.497, 2.300e-3
-1.498, 2.334e-3
-1.499, 2.356e-3
-1.500, 2.365e-3
-1.501, 2.371e-3
-1.502, 2.374e-3
-1.503, 2.371e-3
-1.504, 2.380e-3
-1.505, 2.399e-3
-1.506, 2.430e-3
-1.507, 2.473e-3
-1.508, 2.513e-3
-1.509, 2.544e-3
-1.510, 2.565e-3
-1.511, 2.584e-3
-1.512, 2.605e-3
-1.513, 2.621e-3
-1.514, 2.642e-3
-1.515, 2.676e-3
-1.516, 2.729e-3
-1.517, 2.784e-3
-1.518, 2.837e-3
-1.519, 2.880e-3
-1.520, 2.914e-3
-1.521, 2.941e-3
-1.522, 2.954e-3
-1.523, 2.957e-3
-1.524, 2.963e-3
-1.525, 2.978e-3
-1.526, 3.003e-3
-1.527, 3.037e-3
-1.528, 3.080e-3
-1.529, 3.139e-3
-1.530, 3.204e-3
-1.531, 3.268e-3
-1.532, 3.324e-3
-1.533, 3.364e-3
-1.534, 3.395e-3
-1.535, 3.432e-3
-1.536, 3.472e-3
-1.537, 3.546e-3
-1.538, 3.543e-3
-1.539, 3.558e-3
-1.540, 3.555e-3
-1.541, 3.601e-3
-1.542, 3.638e-3
-1.543, 3.623e-3
-1.544, 3.669e-3
-1.545, 3.749e-3
-1.546, 3.839e-3
-1.547, 3.894e-3
-1.548, 3.931e-3
-1.549, 3.990e-3
-1.550, 4.036e-3
-1.551, 4.039e-3
-1.552, 4.024e-3
-1.553, 4.005e-3
-1.554, 4.011e-3
-1.555, 4.027e-3
-1.556, 4.070e-3
-1.557, 4.159e-3
-1.558, 4.258e-3
-1.559, 4.338e-3
-1.560, 4.394e-3
-1.561, 4.449e-3
-1.562, 4.505e-3
-1.563, 4.542e-3
-1.564, 4.579e-3
-1.565, 4.628e-3
-1.566, 4.680e-3
-1.567, 4.733e-3
-1.568, 4.804e-3
-1.569, 4.878e-3
-1.570, 4.924e-3
-1.571, 4.945e-3
-1.572, 4.973e-3
-1.573, 5.010e-3
-1.574, 5.081e-3
-1.575, 5.204e-3
-1.576, 5.352e-3
-1.577, 5.479e-3
-1.578, 5.559e-3
-1.579, 5.639e-3
-1.580, 5.710e-3
-1.581, 5.775e-3
-1.582, 5.803e-3
-1.583, 5.818e-3
-1.584, 5.849e-3
-1.585, 5.892e-3
-1.586, 5.984e-3
-1.587, 6.083e-3
-1.588, 6.151e-3
-1.589, 6.210e-3
-1.590, 6.327e-3
-1.591, 6.435e-3
-1.592, 6.493e-3
-1.593, 6.543e-3
-1.594, 6.601e-3
-1.595, 6.650e-3
-1.596, 6.694e-3
-1.597, 6.746e-3
-1.598, 6.820e-3
-1.599, 6.894e-3
-1.600, 6.916e-3
-1.599, 6.863e-3
-1.598, 6.814e-3
-1.597, 6.761e-3
-1.596, 6.712e-3
-1.595, 6.663e-3
-1.594, 6.620e-3
-1.593, 6.595e-3
-1.592, 6.567e-3
-1.591, 6.536e-3
-1.590, 6.506e-3
-1.589, 6.484e-3
-1.588, 6.407e-3
-1.587, 6.314e-3
-1.586, 6.262e-3
-1.585, 6.234e-3
-1.584, 6.191e-3
-1.583, 6.123e-3
-1.582, 6.080e-3
-1.581, 6.065e-3
-1.580, 6.034e-3
-1.579, 5.984e-3
-1.578, 5.947e-3
-1.577, 5.910e-3
-1.576, 5.880e-3
-1.575, 5.849e-3
-1.574, 5.824e-3
-1.573, 5.790e-3
-1.572, 5.741e-3
-1.571, 5.679e-3
-1.570, 5.633e-3
-1.569, 5.571e-3
-1.568, 5.516e-3
-1.567, 5.476e-3
-1.566, 5.426e-3
-1.565, 5.380e-3
-1.564, 5.365e-3
-1.563, 5.328e-3
-1.562, 5.266e-3
-1.561, 5.229e-3
-1.560, 5.211e-3
-1.559, 5.174e-3
-1.558, 5.149e-3
-1.557, 5.112e-3
-1.556, 5.081e-3
-1.555, 5.038e-3
-1.554, 4.973e-3
-1.553, 4.918e-3
-1.552, 4.871e-3
-1.551, 4.822e-3
-1.550, 4.764e-3
-1.549, 4.730e-3
-1.548, 4.708e-3
-1.547, 4.665e-3
-1.546, 4.619e-3
-1.545, 4.588e-3
-1.544, 4.563e-3
-1.543, 4.532e-3
-1.542, 4.486e-3
-1.541, 4.440e-3
-1.540, 4.391e-3
-1.539, 4.347e-3
-1.538, 4.313e-3
-1.537, 4.249e-3
-1.536, 4.187e-3
-1.535, 4.150e-3
-1.534, 4.132e-3
-1.533, 4.113e-3
-1.532, 4.082e-3
-1.531, 4.045e-3
-1.530, 4.027e-3
-1.529, 3.996e-3
-1.528, 3.950e-3
-1.527, 3.906e-3
-1.526, 3.857e-3
-1.525, 3.808e-3
-1.524, 3.780e-3
-1.523, 3.737e-3
-1.522, 3.691e-3
-1.521, 3.641e-3
-1.520, 3.610e-3
-1.519, 3.589e-3
-1.518, 3.549e-3
-1.517, 3.506e-3
-1.516, 3.456e-3
-1.515, 3.475e-3
-1.514, 3.435e-3
-1.513, 3.376e-3
-1.512, 3.324e-3
-1.511, 3.278e-3
-1.510, 3.287e-3
-1.509, 3.265e-3
-1.508, 3.216e-3
-1.507, 3.207e-3
-1.506, 3.210e-3
-1.505, 3.219e-3
-1.504, 3.194e-3
-1.503, 3.145e-3
-1.502, 3.089e-3
-1.501, 3.037e-3
-1.500, 2.982e-3
-1.499, 2.941e-3
-1.498, 2.908e-3
-1.497, 2.880e-3
-1.496, 2.871e-3
-1.495, 2.880e-3
-1.494, 2.871e-3
-1.493, 2.843e-3
-1.492, 2.806e-3
-1.491, 2.775e-3
-1.490, 2.753e-3
-1.489, 2.726e-3
-1.488, 2.692e-3
-1.487, 2.652e-3
-1.486, 2.621e-3
-1.485, 2.612e-3
-1.484, 2.590e-3
-1.483, 2.547e-3
-1.482, 2.501e-3
-1.481, 2.473e-3
-1.480, 2.460e-3
-1.479, 2.408e-3
-1.478, 2.343e-3
-1.477, 2.294e-3
-1.476, 2.266e-3
-1.475, 2.235e-3
-1.474, 2.183e-3
-1.473, 2.155e-3
-1.472, 2.149e-3
-1.471, 2.143e-3
-1.470, 2.131e-3
-1.469, 2.112e-3
-1.468, 2.087e-3
-1.467, 2.054e-3
-1.466, 1.998e-3
-1.465, 1.943e-3
-1.464, 1.906e-3
-1.463, 1.887e-3
-1.462, 1.869e-3
-1.461, 1.862e-3
-1.460, 1.862e-3
-1.459, 1.850e-3
-1.458, 1.828e-3
-1.457, 1.807e-3
-1.456, 1.782e-3
-1.455, 1.758e-3
-1.454, 1.727e-3
-1.453, 1.696e-3
-1.452, 1.665e-3
-1.451, 1.640e-3
-1.450, 1.625e-3
-1.449, 1.610e-3
-1.448, 1.585e-3
-1.447, 1.563e-3
-1.446, 1.542e-3
-1.445, 1.520e-3
-1.444, 1.492e-3
-1.443, 1.471e-3
-1.442, 1.446e-3
-1.441, 1.421e-3
-1.440, 1.400e-3
-1.439, 1.384e-3
-1.438, 1.360e-3
-1.437, 1.335e-3
-1.436, 1.317e-3
-1.435, 1.304e-3
-1.434, 1.286e-3
-1.433, 1.264e-3
-1.432, 1.246e-3
-1.431, 1.227e-3
-1.430, 1.203e-3
-1.429, 1.175e-3
-1.428, 1.150e-3
-1.427, 1.129e-3
-1.426, 1.101e-3
-1.425, 1.079e-3
-1.424, 1.070e-3
-1.423, 1.061e-3
-1.422, 1.045e-3
-1.421, 1.024e-3
-1.420, 1.011e-3
-1.419, 9.960e-4
-1.418, 9.683e-4
-1.417, 9.313e-4
-1.416, 9.066e-4
-1.415, 8.973e-4
-1.414, 8.819e-4
-1.413, 8.573e-4
-1.412, 8.418e-4
-1.411, 8.357e-4
-1.410, 8.264e-4
-1.409, 8.048e-4
-1.408, 7.863e-4
-1.407, 7.679e-4
-1.406, 7.555e-4
-1.405, 7.401e-4
-1.404, 7.247e-4
-1.403, 7.093e-4
-1.402, 6.969e-4
-1.401, 6.784e-4
-1.400, 6.630e-4
-1.399, 6.445e-4
-1.398, 6.229e-4
-1.397, 6.044e-4
-1.396, 5.921e-4
-1.395, 5.829e-4
-1.394, 5.705e-4
-1.393, 5.582e-4
-1.392, 5.459e-4
-1.391, 5.397e-4
-1.390, 5.305e-4
-1.389, 5.150e-4
-1.388, 4.904e-4
-1.387, 4.719e-4
-1.386, 4.534e-4
-1.385, 4.380e-4
-1.384, 4.195e-4
-1.383, 4.040e-4
-1.382, 3.855e-4
-1.381, 3.763e-4
-1.380, 3.670e-4
-1.379, 3.547e-4
-1.378, 3.455e-4
-1.377, 3.300e-4
-1.376, 3.208e-4
-1.375, 3.146e-4
-1.374, 3.023e-4
-1.373, 2.931e-4
-1.372, 2.776e-4
-1.371, 2.653e-4
-1.370, 2.530e-4
-1.369, 2.376e-4
-1.368, 2.221e-4
-1.367, 2.098e-4
-1.366, 1.975e-4
-1.365, 1.913e-4
-1.364, 1.821e-4
-1.363, 1.697e-4
-1.362, 1.574e-4
-1.361, 1.481e-4
-1.360, 1.389e-4
-1.359, 1.266e-4
-1.358, 1.142e-4
-1.357, 1.019e-4
-1.356, 9.265e-5
-1.355, 8.340e-5
-1.354, 7.415e-5
-1.353, 6.182e-5
-1.352, 5.257e-5
-1.351, 4.332e-5
-1.350, 3.407e-5
-1.349, 2.482e-5
-1.348, 1.249e-5
-1.347, 1.559e-7
-1.346, -6.010e-6
-1.345, -1.526e-5
-1.344, -2.451e-5
-1.343, -3.684e-5
-1.342, -4.609e-5
-1.341, -5.534e-5
-1.340, -6.151e-5
-1.339, -7.076e-5
-1.338, -8.309e-5
-1.337, -9.234e-5
-1.336, -9.850e-5
-1.335, -1.047e-4
-1.334, -1.139e-4
-1.333, -1.232e-4
-1.332, -1.324e-4
-1.331, -1.417e-4
-1.330, -1.478e-4
-1.329, -1.571e-4
-1.328, -1.663e-4
-1.327, -1.756e-4
-1.326, -1.848e-4
-1.325, -1.879e-4
-1.324, -1.972e-4
-1.323, -2.064e-4
-1.322, -2.157e-4
-1.321, -2.218e-4
-1.320, -2.280e-4
-1.319, -2.372e-4
-1.318, -2.434e-4
-1.317, -2.496e-4
-1.316, -2.588e-4
-1.315, -2.619e-4
-1.314, -2.712e-4
-1.313, -2.804e-4
-1.312, -2.866e-4
-1.311, -2.927e-4
-1.310, -2.989e-4
-1.309, -3.051e-4
-1.308, -3.112e-4
-1.307, -3.174e-4
-1.306, -3.267e-4
-1.305, -3.328e-4
-1.304, -3.390e-4
-1.303, -3.452e-4
-1.302, -3.544e-4
-1.301, -3.637e-4
-1.300, -3.667e-4
-1.299, -3.729e-4
-1.298, -3.821e-4
-1.297, -3.883e-4
-1.296, -3.914e-4
-1.295, -3.945e-4
-1.294, -4.006e-4
-1.293, -4.068e-4
-1.292, -4.161e-4
-1.291, -4.191e-4
-1.290, -4.222e-4
-1.289, -4.284e-4
-1.288, -4.376e-4
-1.287, -4.469e-4
-1.286, -4.531e-4
-1.285, -4.561e-4
-1.284, -4.623e-4
-1.283, -4.685e-4
-1.282, -4.746e-4
-1.281, -4.870e-4
-1.280, -4.901e-4
-1.279, -4.962e-4
-1.278, -5.024e-4
-1.277, -5.055e-4
-1.276, -5.116e-4
-1.275, -5.178e-4
-1.274, -5.301e-4
-1.273, -5.332e-4
-1.272, -5.425e-4
-1.271, -5.486e-4
-1.270, -5.579e-4
-1.269, -5.641e-4
-1.268, -5.733e-4
-1.267, -5.795e-4
-1.266, -5.795e-4
-1.265, -5.795e-4
-1.264, -5.795e-4
-1.263, -5.795e-4
-1.262, -5.826e-4
-1.261, -5.918e-4
-1.260, -6.011e-4
-1.259, -6.103e-4
-1.258, -6.165e-4
-1.257, -6.257e-4
-1.256, -6.288e-4
-1.255, -6.257e-4
-1.254, -6.257e-4
-1.253, -6.319e-4
-1.252, -6.380e-4
-1.251, -6.411e-4
-1.250, -6.473e-4
-1.249, -6.627e-4
-1.248, -6.750e-4
-1.247, -6.843e-4
-1.246, -6.843e-4
-1.245, -6.812e-4
-1.244, -6.750e-4
-1.243, -6.750e-4
-1.242, -6.781e-4
-1.241, -6.843e-4
-1.240, -6.935e-4
-1.239, -7.059e-4
-1.238, -7.182e-4
-1.237, -7.275e-4
-1.236, -7.336e-4
-1.235, -7.367e-4
-1.234, -7.398e-4
-1.233, -7.367e-4
-1.232, -7.367e-4
-1.231, -7.398e-4
-1.230, -7.429e-4
-1.229, -7.460e-4
-1.228, -7.583e-4
-1.227, -7.737e-4
-1.226, -7.830e-4
-1.225, -7.860e-4
-1.224, -7.922e-4
-1.223, -8.015e-4
-1.222, -8.076e-4
-1.221, -8.076e-4
-1.220, -8.076e-4
-1.219, -8.138e-4
-1.218, -8.200e-4
-1.217, -8.323e-4
-1.216, -8.385e-4
-1.215, -8.446e-4
-1.214, -8.477e-4
-1.213, -8.569e-4
-1.212, -8.631e-4
-1.211, -8.600e-4
-1.210, -8.600e-4
-1.209, -8.662e-4
-1.208, -8.785e-4
-1.207, -8.878e-4
-1.206, -8.939e-4
-1.205, -9.001e-4
-1.204, -9.124e-4
-1.203, -9.248e-4
-1.202, -9.279e-4
-1.201, -9.279e-4
-1.200, -9.279e-4
-1.199, -9.340e-4
-1.198, -9.340e-4
-1.197, -9.371e-4
-1.196, -9.433e-4
-1.195, -9.494e-4
-1.194, -9.556e-4
-1.193, -9.649e-4
-1.192, -9.803e-4
-1.191, -9.926e-4
-1.190, -9.957e-4
-1.189, -9.988e-4
-1.188, -1.008e-3
-1.187, -1.027e-3
-1.186, -1.051e-3
-1.185, -1.051e-3
-1.184, -1.054e-3
-1.183, -1.064e-3
-1.182, -1.064e-3
-1.181, -1.070e-3
-1.180, -1.079e-3
-1.179, -1.088e-3
-1.178, -1.094e-3
-1.177, -1.107e-3
-1.176, -1.119e-3
-1.175, -1.125e-3
-1.174, -1.128e-3
-1.173, -1.138e-3
-1.172, -1.153e-3
-1.171, -1.162e-3
-1.170, -1.165e-3
-1.169, -1.168e-3
-1.168, -1.178e-3
-1.167, -1.181e-3
-1.166, -1.175e-3
-1.165, -1.178e-3
-1.164, -1.181e-3
-1.163, -1.208e-3
-1.162, -1.233e-3
-1.161, -1.249e-3
-1.160, -1.273e-3
-1.159, -1.292e-3
-1.158, -1.304e-3
-1.157, -1.298e-3
-1.156, -1.289e-3
-1.155, -1.276e-3
-1.154, -1.255e-3
-1.153, -1.242e-3
-1.152, -1.239e-3
-1.151, -1.249e-3
-1.150, -1.264e-3
-1.149, -1.279e-3
-1.148, -1.307e-3
-1.147, -1.335e-3
-1.146, -1.353e-3
-1.145, -1.356e-3
-1.144, -1.347e-3
-1.143, -1.347e-3
-1.142, -1.356e-3
-1.141, -1.350e-3
-1.140, -1.347e-3
-1.139, -1.369e-3
-1.138, -1.393e-3
-1.137, -1.409e-3
-1.136, -1.409e-3
-1.135, -1.421e-3
-1.134, -1.433e-3
-1.133, -1.440e-3
-1.132, -1.437e-3
-1.131, -1.427e-3
-1.130, -1.433e-3
-1.129, -1.437e-3
-1.128, -1.433e-3
-1.127, -1.452e-3
-1.126, -1.461e-3
-1.125, -1.467e-3
-1.124, -1.474e-3
-1.123, -1.483e-3
-1.122, -1.504e-3
-1.121, -1.532e-3
-1.120, -1.569e-3
-1.119, -1.600e-3
-1.118, -1.625e-3
-1.117, -1.640e-3
-1.116, -1.634e-3
-1.115, -1.612e-3
-1.114, -1.575e-3
-1.113, -1.541e-3
-1.112, -1.532e-3
-1.111, -1.532e-3
-1.110, -1.548e-3
-1.109, -1.585e-3
-1.108, -1.631e-3
-1.107, -1.659e-3
-1.106, -1.659e-3
-1.105, -1.662e-3
-1.104, -1.671e-3
-1.103, -1.689e-3
-1.102, -1.677e-3
-1.101, -1.655e-3
-1.100, -1.634e-3
-1.099, -1.618e-3
-1.098, -1.622e-3
-1.097, -1.640e-3
-1.096, -1.659e-3
-1.095, -1.677e-3
-1.094, -1.699e-3
-1.093, -1.717e-3
-1.092, -1.726e-3
-1.091, -1.723e-3
-1.090, -1.726e-3
-1.089, -1.736e-3
-1.088, -1.745e-3
-1.087, -1.745e-3
-1.086, -1.745e-3
-1.085, -1.736e-3
-1.084, -1.723e-3
-1.083, -1.708e-3
-1.082, -1.705e-3
-1.081, -1.714e-3
-1.080, -1.739e-3
-1.079, -1.757e-3
-1.078, -1.785e-3
-1.077, -1.819e-3
-1.076, -1.837e-3
-1.075, -1.825e-3
-1.074, -1.803e-3
-1.073, -1.803e-3
-1.072, -1.813e-3
-1.071, -1.800e-3
-1.070, -1.791e-3
-1.069, -1.800e-3
-1.068, -1.834e-3
-1.067, -1.859e-3
-1.066, -1.868e-3
-1.065, -1.862e-3
-1.064, -1.862e-3
-1.063, -1.871e-3
-1.062, -1.868e-3
-1.061, -1.865e-3
-1.060, -1.859e-3
-1.059, -1.865e-3
-1.058, -1.874e-3
-1.057, -1.874e-3
-1.056, -1.874e-3
-1.055, -1.884e-3
-1.054, -1.896e-3
-1.053, -1.893e-3
-1.052, -1.884e-3
-1.051, -1.893e-3
-1.050, -1.902e-3
-1.049, -1.890e-3
-1.048, -1.874e-3
-1.047, -1.887e-3
-1.046, -1.905e-3
-1.045, -1.908e-3
-1.044, -1.911e-3
-1.043, -1.936e-3
-1.042, -1.961e-3
-1.041, -1.970e-3
-1.040, -1.958e-3
-1.039, -1.945e-3
-1.038, -1.942e-3
-1.037, -1.921e-3
-1.036, -1.874e-3
-1.035, -1.847e-3
-1.034, -1.853e-3
-1.033, -1.881e-3
-1.032, -1.902e-3
-1.031, -1.927e-3
-1.030, -1.958e-3
-1.029, -2.016e-3
-1.028, -2.059e-3
-1.027, -2.053e-3
-1.026, -2.038e-3
-1.025, -2.013e-3
-1.024, -2.022e-3
-1.023, -2.029e-3
-1.022, -2.016e-3
-1.021, -2.013e-3
-1.020, -2.032e-3
-1.019, -2.050e-3
-1.018, -2.032e-3
-1.017, -2.004e-3
-1.016, -2.001e-3
-1.015, -2.016e-3
-1.014, -2.016e-3
-1.013, -2.010e-3
-1.012, -2.025e-3
-1.011, -2.053e-3
-1.010, -2.059e-3
-1.009, -2.041e-3
-1.008, -2.016e-3
-1.007, -2.007e-3
-1.006, -2.004e-3
-1.005, -1.998e-3
-1.004, -1.992e-3
-1.003, -1.998e-3
-1.002, -2.016e-3
-1.001, -2.032e-3
