Potential V vs RHE, Current mA cm-2
0.013299999999999867,1.219056727093702
0.012299999999999978,0.8264743413811545
0.011299999999999866,0.5211796428702795
0.010299999999999976,0.21588494435940458
0.009299999999999864,-0.04582249900262853
0.008299999999999974,-0.30755823659065895
0.007299999999999862,-0.5255652478998613
0.006299999999999972,-0.7437137303390498
0.00529999999999986,-0.9617207416482519
0.0042999999999999705,-1.1798692240874404
0.0032999999999998586,-1.3543031273607997
0.0022999999999999687,-1.5717442541500557
0.0012999999999998568,-1.7471684553333202
0.00029999999999996696,-1.8773218949209036
-0.000700000000000145,-2.008890045808352
-0.0017000000000000348,-2.1390434853959355
-0.0027000000000001467,-2.2706116362833835
-0.0037000000000000366,-2.4446211261667834
-0.0047000000000001485,-2.576189277054232
-0.005700000000000038,-2.7501987669376318
-0.00670000000000015,-2.924208256821031
-0.00770000000000004,-3.055776407708479
-0.008700000000000152,-3.2297858975918787
-0.009700000000000042,-3.317497998183511
-0.010700000000000154,-3.447651437771094
-0.011700000000000044,-3.5353635383627267
-0.012700000000000156,-3.623075638954359
-0.013700000000000045,-3.7970851288377587
-0.014700000000000157,-3.927238568425342
-0.015700000000000047,-4.0588067193127895
-0.01670000000000016,-4.146518819904423
-0.01770000000000005,-4.23281620919619
-0.01870000000000016,-4.276672259492005
-0.01970000000000005,-4.364384360083638
-0.020700000000000163,-4.450681749375406
-0.021700000000000053,-4.626105950558669
-0.022700000000000164,-4.800115440442069
-0.023700000000000054,-4.974124930325469
-0.024700000000000166,-5.105693081212917
-0.025700000000000056,-5.235846520800501
-0.026700000000000168,-5.279702571096316
-0.027700000000000058,-5.411270721983764
-0.02870000000000017,-5.497568111275533
-0.02970000000000006,-5.629136262162981
-0.03070000000000017,-5.715433651454749
-0.03170000000000006,-5.847001802342197
-0.03270000000000017,-5.9347139029338285
-0.03370000000000006,-5.977155241929781
-0.034700000000000175,-6.021011292225596
-0.035700000000000065,-6.108723392817228
-0.03670000000000018,-6.238876832404812
-0.03770000000000007,-6.37044498329226
-0.03870000000000018,-6.500598422879844
-0.03970000000000007,-6.632166573767292
-0.04070000000000018,-6.762320013354876
-0.04170000000000007,-6.850032113946507
-0.04270000000000018,-6.893888164242324
-0.04370000000000007,-6.93774421453814
-0.044700000000000184,-6.981600264833956
-0.045700000000000074,-7.067897654125724
-0.046700000000000186,-7.199465805013171
-0.047700000000000076,-7.28576319430494
-0.04870000000000019,-7.37347529489657
-0.04970000000000008,-7.461187395488204
-0.05070000000000019,-7.5474847847799715
-0.05170000000000008,-7.679052935667419
-0.05270000000000019,-7.809206375255003
-0.05370000000000008,-7.984630576438266
-0.05470000000000019,-8.158640066321666
-0.05570000000000008,-8.332649556205066
-0.056700000000000195,-8.464217707092514
-0.057700000000000085,-8.55051509638428
-0.058700000000000196,-8.594371146680096
-0.059700000000000086,-8.68208324727173
-0.0607000000000002,-8.769795347863363
-0.06170000000000009,-8.899948787450944
-0.0627000000000002,-8.987660888042578
-0.06370000000000009,-9.11781432763016
-0.0647000000000002,-9.205526428221793
-0.06570000000000009,-9.335679867809377
-0.0667000000000002,-9.379535918105192
-0.0677000000000001,-9.467248018696827
-0.0687000000000002,-9.55496011928846
-0.0697000000000001,-9.685113558876042
-0.07070000000000021,-9.85912304875944
-0.0717000000000001,-10.078403300238522
-0.07270000000000021,-10.25241279012192
-0.0737000000000001,-10.42642228000532
-0.07470000000000021,-10.514134380596953
-0.0757000000000001,-10.644287820184536
-0.07670000000000021,-10.731999920776168
-0.0777000000000001,-10.819712021367803
-0.07870000000000021,-10.906009410659568
-0.0797000000000001,-10.993721511251199
-0.08070000000000022,-11.123874950838783
-0.0817000000000001,-11.1677310011346
-0.08270000000000022,-11.255443101726232
-0.08370000000000011,-11.299299152022046
-0.08470000000000022,-11.42945259160963
-0.08570000000000011,-11.56102074249708
-0.08670000000000022,-11.691174182084664
-0.08770000000000011,-11.82274233297211
-0.08870000000000022,-11.952895772559694
-0.08970000000000011,-12.12831997374296
-0.09070000000000022,-12.302329463626359
-0.09170000000000011,-12.476338953509758
-0.09270000000000023,-12.56405105410139
-0.09370000000000012,-12.607907104397206
-0.09470000000000023,-12.694204493688973
-0.09570000000000012,-12.73806054398479
-0.09670000000000023,-12.869628694872238
-0.09770000000000012,-12.99978213445982
-0.09870000000000023,-13.087494235051453
-0.09970000000000012,-13.13135028534727
-0.10070000000000023,-13.13135028534727
-0.10170000000000012,-13.175206335643086
-0.10270000000000024,-13.30535977523067
-0.10370000000000013,-13.523225315409885
-0.10470000000000024,-13.741090855589102
-0.10570000000000013,-13.960371107068182
-0.10670000000000024,-14.13438059695158
-0.10770000000000013,-14.30273124163552
-0.10870000000000024,-14.486643710617974
-0.10970000000000013,-14.69885040559773
-0.11070000000000024,-14.925204213576137
-0.11170000000000013,-15.094969569559943
-0.11270000000000002,-15.264734925543747
-0.11370000000000013,-15.307176264539699
-0.11470000000000002,-15.3920589425316
-0.11570000000000014,-15.448647394526201
-0.11670000000000003,-15.491088733522153
-0.11770000000000014,-15.575971411514052
-0.11870000000000003,-15.660854089505953
-0.11970000000000014,-15.74573676749786
-0.12070000000000003,-15.830619445489761
-0.12170000000000014,-15.91550212348166
-0.12270000000000003,-16.056973253468165
-0.12370000000000014,-16.22673860945197
-0.12470000000000003,-16.311621287443874
-0.12570000000000014,-16.396503965435777
-0.12670000000000003,-16.53797509542228
-0.12770000000000015,-16.580416434418233
-0.12870000000000004,-16.665299112410132
-0.12970000000000015,-16.750181790402035
-0.13070000000000004,-16.877505807389888
-0.13170000000000015,-17.018976937376394
-0.13270000000000004,-17.146300954364243
-0.13370000000000015,-17.2736249713521
-0.13470000000000004,-17.4433903273359
-0.13570000000000015,-17.542420118326454
-0.13670000000000004,-17.627302796318357
-0.13770000000000016,-17.75462681330621
-0.13870000000000005,-17.966833508285966
-0.13970000000000016,-18.15074597726842
-0.14070000000000005,-18.362952672248177
-0.14170000000000016,-18.53271802823198
-0.14270000000000005,-18.631747819222536
-0.14370000000000016,-18.716630497214435
-0.14470000000000005,-18.843954514202288
-0.14570000000000016,-18.97127853119014
-0.14670000000000005,-19.155191000172596
-0.14770000000000016,-19.28251501716045
-0.14870000000000005,-19.367397695152352
-0.14970000000000017,-19.452280373144255
-0.15070000000000006,-19.579604390132108
-0.15170000000000017,-19.721075520118614
-0.15270000000000006,-19.890840876102416
-0.15370000000000017,-20.06060623208622
-0.15470000000000006,-20.244518701068674
-0.15570000000000017,-20.371842718056527
-0.15670000000000006,-20.456725396048434
-0.15770000000000017,-20.584049413036283
-0.15870000000000006,-20.683079204026836
-0.15970000000000018,-20.810403221014692
-0.16070000000000007,-20.89528589900659
-0.16170000000000018,-20.980168576998494
-0.16270000000000007,-20.980168576998494
-0.16370000000000018,-21.065051254990397
-0.16470000000000007,-21.149933932982297
-0.16570000000000018,-21.291405062968803
-0.16670000000000007,-21.461170418952605
-0.16770000000000018,-21.63093577493641
-0.16870000000000007,-21.814848243918867
-0.16970000000000018,-21.98461359990267
-0.17070000000000007,-22.196820294882425
-0.17170000000000019,-22.42317410286083
-0.17270000000000008,-22.63538079784059
-0.1737000000000002,-22.861734605818995
-0.17470000000000008,-23.031499961802798
-0.1757000000000002,-23.1163826397947
-0.17670000000000008,-23.24370665678255
-0.1777000000000002,-23.342736447773106
-0.17870000000000008,-23.47006046476096
-0.1797000000000002,-23.639825820744765
-0.18070000000000008,-23.823738289727217
-0.1817000000000002,-24.035944984706973
-0.18270000000000008,-24.16326900169483
-0.1837000000000002,-24.20571034069078
-0.1847000000000001,-24.34718147067728
-0.1857000000000002,-24.389622809673234
-0.1867000000000001,-24.516946826661083
-0.1877000000000002,-24.729153521640843
-0.1887000000000001,-25.04039000761115
-0.1897000000000002,-25.167714024599
-0.1907000000000001,-25.167714024599
-0.1917000000000001,-25.210155363594954
-0.19269999999999998,-25.337479380582806
-0.1937000000000001,-25.39406783257741
-0.19469999999999998,-25.521391849565262
-0.1957000000000001,-25.77603988354097
-0.19669999999999999,-26.044835030515326
-0.1977000000000001,-26.21460038649913
-0.1987,-26.257041725495082
-0.1997000000000001,-26.257041725495082
-0.2007,-26.257041725495082
-0.2017000000000001,-26.21460038649913
-0.2027,-26.17215904750318
-0.2037000000000001,-26.17215904750318
-0.2047,-26.17215904750318
-0.2057000000000001,-26.17215904750318
-0.2067,-26.129717708507226
-0.2077000000000001,-26.129717708507226
-0.2087,-26.257041725495082
-0.2097000000000001,-26.440954194477534
-0.2107,-26.65316088945729
-0.2117000000000001,-26.822926245441096
-0.2127,-27.091721392415455
-0.2137000000000001,-27.303928087395207
-0.2147,-27.487840556377662
-0.2157000000000001,-27.700047251357418
-0.2167,-27.912253946337174
-0.21770000000000012,-28.09616641531963
-0.2187,-28.265931771303435
-0.21970000000000012,-28.350814449295335
-0.2207,-28.393255788291288
-0.22170000000000012,-28.478138466283188
-0.2227,-28.53472691827779
-0.22370000000000012,-28.577168257273744
-0.2247,-28.619609596269694
-0.22570000000000012,-28.746933613257543
-0.2267,-28.8742576302454
-0.22770000000000012,-29.001581647233255
-0.22870000000000001,-29.14305277721976
-0.22970000000000013,-29.31281813320356
-0.23070000000000002,-29.482583489187363
-0.23170000000000013,-29.751378636161718
-0.23270000000000002,-30.04846800913338
-0.23370000000000013,-30.317263156107735
-0.23470000000000002,-30.487028512091538
-0.23570000000000013,-30.614352529079397
-0.23670000000000002,-30.670940981073993
-0.2376999999999999,-30.7558236590659
-0.23870000000000002,-30.88314767605375
-0.2396999999999999,-31.095354371033505
-0.24070000000000003,-31.36414951800786
-0.24169999999999991,-31.49147353499572
-0.24270000000000003,-31.533914873991666
-0.24369999999999992,-31.57635621298762
-0.24470000000000003,-31.661238890979522
-0.24569999999999992,-31.76026868197007
-0.24670000000000003,-31.887592698957924
-0.24769999999999992,-32.01491671594578
-0.24870000000000003,-32.09979939393769
-0.24969999999999992,-32.05735805494172
-0.25070000000000003,-32.05735805494172
-0.2516999999999999,-32.09979939393769
-0.25270000000000004,-32.24127052392419
-0.2536999999999999,-32.41103587990799
-0.25470000000000004,-32.58080123589179
-0.2556999999999999,-32.84959638286615
-0.25670000000000004,-33.10424441684186
-0.25769999999999993,-33.45792224180811
-0.25870000000000004,-33.85404140577033
-0.25969999999999993,-34.193572117737936
-0.26070000000000004,-34.50480860370825
-0.26169999999999993,-34.717015298688004
-0.26270000000000004,-34.85848642867451
-0.26369999999999993,-35.02825178465831
-0.26470000000000005,-35.198017140642115
-0.26569999999999994,-35.38192960962457
-0.26670000000000005,-35.38192960962457
-0.26769999999999994,-35.32534115762997
-0.26870000000000005,-35.240458479638065
-0.26969999999999994,-35.11313446265021
-0.27070000000000005,-35.07069312365426
-0.27169999999999994,-35.07069312365426
-0.27270000000000005,-35.07069312365426
-0.27369999999999994,-35.07069312365426
-0.27470000000000006,-35.07069312365426
-0.27569999999999995,-35.11313446265021
-0.27670000000000006,-35.198017140642115
-0.27769999999999995,-35.38192960962457
-0.27870000000000006,-35.50925362661242
-0.27969999999999995,-35.636577643600276
-0.28070000000000006,-35.806342999584075
-0.28169999999999995,-36.03269680756248
-0.28270000000000006,-36.244903502542236
-0.28369999999999995,-36.47125731052064
-0.28470000000000006,-36.64102266650445
-0.28569999999999995,-36.6834640055004
-0.28670000000000007,-36.725905344496354
-0.28769999999999996,-36.81078802248826
-0.28870000000000007,-36.99470049147071
-0.28969999999999996,-37.249348525446415
-0.29070000000000007,-37.47570233342482
-0.29169999999999996,-37.60302635041268
-0.29270000000000007,-37.60302635041268
-0.29369999999999996,-37.56058501141672
-0.2947000000000001,-37.56058501141672
-0.29569999999999996,-37.60302635041268
-0.2967000000000001,-37.77279170639648
-0.29769999999999996,-37.94255706238028
-0.2987000000000001,-38.04158685337084
-0.29969999999999997,-38.04158685337084
-0.3007000000000001,-37.94255706238028
-0.30169999999999997,-37.85767438438838
-0.3027000000000001,-37.90011572338433
-0.30369999999999997,-37.99914551437489
-0.3047000000000001,-38.253793548350586
-0.30569999999999997,-38.522588695324956
-0.3067000000000001,-38.692354051308754
-0.3077,-38.777236729300654
-0.3087000000000001,-38.81967806829661
-0.3097,-38.86211940729255
-0.3107000000000001,-39.046031876275016
-0.3117,-39.30067991025072
-0.3127000000000001,-39.61191639622103
-0.3137,-39.90900576919269
-0.3147000000000001,-40.092918238175145
-0.3157,-40.092918238175145
-0.3167000000000001,-40.03632978618054
-0.3177,-40.03632978618054
-0.3187000000000001,-40.135359577171094
-0.3197,-40.26268359415894
-0.3207000000000001,-40.3900076111468
-0.3217,-40.3900076111468
-0.3227000000000001,-40.34756627215084
-0.3237,-40.220242255162994
-0.3247000000000001,-40.092918238175145
-0.3257,-40.092918238175145
-0.3267000000000001,-40.220242255162994
-0.3277,-40.43244895014274
-0.3287000000000001,-40.701244097117105
-0.3297,-40.91345079209687
-0.3307000000000001,-41.139804600075266
-0.3317,-41.30956995605907
-0.3327000000000001,-41.43689397304693
-0.3337,-41.52177665103883
-0.3347000000000001,-41.70568912002128
-0.3357,-41.74813045901723
-0.3367000000000001,-41.79057179801318
-0.3377,-41.79057179801318
-0.3387000000000001,-41.74813045901723
-0.3397,-41.606659329030734
-0.3407000000000001,-41.56421799003478
-0.3417,-41.56421799003478
-0.3427000000000001,-41.56421799003478
-0.3437,-41.56421799003478
-0.3447000000000001,-41.66324778102533
-0.3457,-41.79057179801318
-0.3467000000000001,-42.00277849299294
-0.3477,-42.229132300971344
-0.3487000000000001,-42.39889765695515
-0.3497,-42.483780334947056
-0.3507000000000001,-42.526221673943
-0.3517,-42.526221673943
-0.3527000000000001,-42.6111043519349
-0.3537,-42.752575481921404
-0.3547000000000001,-42.92234083790521
-0.3557,-43.007223515897124
-0.35670000000000013,-43.007223515897124
-0.3577,-43.007223515897124
-0.35870000000000013,-43.04966485489307
-0.3597,-43.27601866287147
-0.36070000000000013,-43.53066669684718
-0.3617,-43.79946184382153
-0.3626999999999999,-43.96922719980534
-0.3637,-44.181433894785094
-0.3646999999999999,-44.36534636376755
-0.3657,-44.577553058747306
-0.3666999999999999,-44.74731841473111
-0.3677,-44.74731841473111
-0.3686999999999999,-44.535111719751356
-0.36970000000000003,-44.223875233781044
-0.3706999999999999,-44.054109877797245
-0.37170000000000003,-44.011668538801295
-0.3726999999999999,-44.054109877797245
-0.37370000000000003,-44.096551216793195
-0.3746999999999999,-44.138992555789144
-0.37570000000000003,-44.096551216793195
-0.3766999999999999,-44.054109877797245
-0.37770000000000004,-44.054109877797245
-0.3786999999999999,-44.3229050247716
-0.37970000000000004,-44.80390686672572
-0.3806999999999999,-44.97367222270952
-0.38170000000000004,-44.97367222270952
-0.38269999999999993,-44.88878954471762
-0.38370000000000004,-44.704877075735155
-0.38469999999999993,-44.45022904175945
-0.38570000000000004,-44.3229050247716
-0.38669999999999993,-44.4926703807554
-0.38770000000000004,-45.01611356170547
-0.38869999999999993,-45.32735004767578
-0.38970000000000005,-45.412232725667685
-0.39069999999999994,-45.53955674265553
-0.39170000000000005,-45.581998081651484
-0.39269999999999994,-45.624439420647434
-0.39370000000000005,-45.70932209863933
-0.39469999999999994,-45.89323456762179
-0.39570000000000005,-45.97811724561369
-0.39669999999999994,-45.75176343763528
-0.39770000000000005,-45.27076159568118
-0.39869999999999994,-44.66243573673921
-0.39970000000000006,-44.28046368577565
-0.40069999999999995,-44.011668538801295
-0.40170000000000006,-43.96922719980534
-0.40269999999999995,-44.054109877797245
-0.40370000000000006,-44.223875233781044
-0.40469999999999995,-44.3229050247716
-0.40570000000000006,-44.3229050247716
-0.40669999999999995,-44.45022904175945
-0.40770000000000006,-44.84634820572166
-0.40869999999999995,-45.32735004767578
-0.40970000000000006,-45.79420477663124
-0.41069999999999995,-46.147882601597495
-0.41170000000000007,-46.27520661858535
-0.41269999999999996,-46.27520661858535
-0.41370000000000007,-46.2327652795894
-0.41469999999999996,-46.147882601597495
-0.41570000000000007,-46.062999923605595
-0.41669999999999996,-45.93567590661774
-0.41770000000000007,-45.70932209863933
-0.41869999999999996,-45.36979138667173
-0.4197000000000001,-45.01611356170547
-0.42069999999999996,-44.704877075735155
-0.4217000000000001,-44.535111719751356
-0.42269999999999996,-44.45022904175945
-0.4237000000000001,-44.36534636376755
-0.42469999999999997,-44.36534636376755
-0.4257000000000001,-44.223875233781044
-0.42669999999999997,-44.096551216793195
-0.4277000000000001,-44.011668538801295
-0.42869999999999997,-44.011668538801295
-0.4297000000000001,-44.096551216793195
-0.43069999999999997,-44.3229050247716
-0.4317000000000001,-44.577553058747306
-0.4327,-44.84634820572166
-0.4337000000000001,-45.01611356170547
-0.4347,-45.10099623969737
-0.4357000000000001,-45.10099623969737
-0.4367,-45.05855490070142
-0.4377000000000001,-45.10099623969737
-0.4387,-45.10099623969737
-0.4397000000000001,-45.10099623969737
-0.4407,-45.05855490070142
-0.4417000000000001,-44.88878954471762
-0.4427,-44.66243573673921
-0.4437000000000001,-44.4077877027635
-0.4447,-44.138992555789144
-0.4457000000000001,-43.92678586080939
-0.4467,-43.75702050482558
-0.4477000000000001,-43.657990713835034
-0.4487,-43.57310803584313
-0.4497000000000001,-43.53066669684718
-0.4507,-43.44578401885527
-0.4517000000000001,-43.27601866287147
-0.4527,-43.09210619388902
-0.4537000000000001,-43.007223515897124
-0.4547,-43.007223515897124
-0.4557000000000001,-43.04966485489307
-0.4567,-43.23357732387552
-0.4577000000000001,-43.36090134086337
-0.4587,-43.44578401885527
-0.4597000000000001,-43.57310803584313
-0.4607,-43.657990713835034
-0.4617000000000001,-43.75702050482558
-0.4627,-43.84190318281749
-0.4637000000000001,-43.84190318281749
-0.4647,-43.75702050482558
-0.4657000000000001,-43.57310803584313
-0.4667,-43.44578401885527
-0.4677000000000001,-43.36090134086337
-0.4687,-43.23357732387552
-0.4697000000000001,-43.134547532884966
-0.4707,-43.04966485489307
-0.4717000000000001,-42.87989949890926
-0.4727,-42.71013414292546
-0.4737000000000001,-42.653545690930855
-0.4747,-42.752575481921404
-0.4757000000000001,-42.87989949890926
-0.4767,-43.007223515897124
-0.4777000000000001,-43.007223515897124
-0.4787,-42.96478217690117
-0.4797000000000001,-42.87989949890926
-0.4807,-42.87989949890926
-0.48170000000000013,-43.007223515897124
-0.4827,-43.23357732387552
-0.48370000000000013,-43.40334267985933
-0.4847,-43.48822535785123
-0.48570000000000013,-43.48822535785123
-0.4867,-43.57310803584313
-0.4876999999999999,-43.75702050482558
-0.4887,-43.96922719980534
-0.4896999999999999,-44.138992555789144
-0.4907,-44.054109877797245
-0.4916999999999999,-43.88434452181344
-0.4927,-43.70043205283099
-0.4936999999999999,-43.48822535785123
-0.49470000000000003,-43.40334267985933
-0.4956999999999999,-43.44578401885527
-0.49670000000000003,-43.70043205283099
-0.4976999999999999,-43.92678586080939
-0.49870000000000003,-44.181433894785094
-0.4996999999999999,-44.4077877027635
-0.5007,-44.66243573673921
-0.5016999999999999,-44.88878954471762
-0.5027,-45.18587891768927
-0.5036999999999999,-45.412232725667685
-0.5047,-45.581998081651484
-0.5056999999999999,-45.70932209863933
-0.5067,-45.79420477663124
-0.5076999999999999,-45.93567590661774
-0.5087,-46.147882601597495
