Aug. 9, 2024   22:22:05
Linear Sweep Voltammetry
File: c:/users/guazh/data/20240802_batch_500/2024-08-02-exp67\post-regen1-2024-08-09t22_18_51-lsvinphos\post-regen1_lsv_50mvs_efin_-2300mv.bin
Data Source:  Experiment
Instrument Model:  CHI760E
Header: LSV ran at 50 mVs with Efin at -2300mV
Note: 

Init E (V) = -0.6
Final E (V) = -2.3
Scan Rate (V/s) = 0.05
Sample Interval (V) = 0.001
Quiet Time (sec) = 2
Sensitivity (A/V) = 1e-4
Comp R (ohm) = 8.1

Results:

Channel 1:
Ep = -1.999V
ip = 7.462e-4A
Ah = 1.016e-3C

Potential/V, Current/A

-0.600, 1.591e-6
-0.601, 1.664e-6
-0.602, 1.700e-6
-0.603, 1.726e-6
-0.604, 1.750e-6
-0.605, 1.771e-6
-0.606, 1.791e-6
-0.607, 1.809e-6
-0.608, 1.830e-6
-0.609, 1.849e-6
-0.610, 1.869e-6
-0.611, 1.888e-6
-0.612, 1.908e-6
-0.613, 1.926e-6
-0.614, 1.947e-6
-0.615, 1.965e-6
-0.616, 1.983e-6
-0.617, 2.003e-6
-0.618, 2.022e-6
-0.619, 2.043e-6
-0.620, 2.060e-6
-0.621, 2.080e-6
-0.622, 2.099e-6
-0.623, 2.118e-6
-0.624, 2.140e-6
-0.625, 2.158e-6
-0.626, 2.175e-6
-0.627, 2.194e-6
-0.628, 2.214e-6
-0.629, 2.233e-6
-0.630, 2.253e-6
-0.631, 2.272e-6
-0.632, 2.290e-6
-0.633, 2.314e-6
-0.634, 2.339e-6
-0.635, 2.360e-6
-0.636, 2.377e-6
-0.637, 2.396e-6
-0.638, 2.418e-6
-0.639, 2.440e-6
-0.640, 2.461e-6
-0.641, 2.480e-6
-0.642, 2.499e-6
-0.643, 2.523e-6
-0.644, 2.546e-6
-0.645, 2.567e-6
-0.646, 2.588e-6
-0.647, 2.607e-6
-0.648, 2.629e-6
-0.649, 2.656e-6
-0.650, 2.679e-6
-0.651, 2.701e-6
-0.652, 2.722e-6
-0.653, 2.746e-6
-0.654, 2.771e-6
-0.655, 2.791e-6
-0.656, 2.813e-6
-0.657, 2.836e-6
-0.658, 2.861e-6
-0.659, 2.886e-6
-0.660, 2.907e-6
-0.661, 2.931e-6
-0.662, 2.955e-6
-0.663, 2.980e-6
-0.664, 3.005e-6
-0.665, 3.029e-6
-0.666, 3.054e-6
-0.667, 3.079e-6
-0.668, 3.104e-6
-0.669, 3.131e-6
-0.670, 3.157e-6
-0.671, 3.180e-6
-0.672, 3.205e-6
-0.673, 3.232e-6
-0.674, 3.257e-6
-0.675, 3.284e-6
-0.676, 3.309e-6
-0.677, 3.334e-6
-0.678, 3.363e-6
-0.679, 3.392e-6
-0.680, 3.420e-6
-0.681, 3.448e-6
-0.682, 3.472e-6
-0.683, 3.499e-6
-0.684, 3.526e-6
-0.685, 3.553e-6
-0.686, 3.581e-6
-0.687, 3.608e-6
-0.688, 3.637e-6
-0.689, 3.667e-6
-0.690, 3.696e-6
-0.691, 3.725e-6
-0.692, 3.752e-6
-0.693, 3.782e-6
-0.694, 3.812e-6
-0.695, 3.840e-6
-0.696, 3.870e-6
-0.697, 3.898e-6
-0.698, 3.928e-6
-0.699, 3.959e-6
-0.700, 3.990e-6
-0.701, 4.018e-6
-0.702, 4.049e-6
-0.703, 4.076e-6
-0.704, 4.109e-6
-0.705, 4.138e-6
-0.706, 4.167e-6
-0.707, 4.195e-6
-0.708, 4.226e-6
-0.709, 4.258e-6
-0.710, 4.291e-6
-0.711, 4.320e-6
-0.712, 4.349e-6
-0.713, 4.382e-6
-0.714, 4.416e-6
-0.715, 4.447e-6
-0.716, 4.478e-6
-0.717, 4.510e-6
-0.718, 4.544e-6
-0.719, 4.577e-6
-0.720, 4.608e-6
-0.721, 4.641e-6
-0.722, 4.671e-6
-0.723, 4.706e-6
-0.724, 4.741e-6
-0.725, 4.772e-6
-0.726, 4.804e-6
-0.727, 4.837e-6
-0.728, 4.871e-6
-0.729, 4.904e-6
-0.730, 4.935e-6
-0.731, 4.966e-6
-0.732, 4.999e-6
-0.733, 5.034e-6
-0.734, 5.068e-6
-0.735, 5.100e-6
-0.736, 5.132e-6
-0.737, 5.165e-6
-0.738, 5.199e-6
-0.739, 5.236e-6
-0.740, 5.268e-6
-0.741, 5.299e-6
-0.742, 5.333e-6
-0.743, 5.367e-6
-0.744, 5.401e-6
-0.745, 5.433e-6
-0.746, 5.468e-6
-0.747, 5.501e-6
-0.748, 5.537e-6
-0.749, 5.572e-6
-0.750, 5.605e-6
-0.751, 5.636e-6
-0.752, 5.669e-6
-0.753, 5.703e-6
-0.754, 5.738e-6
-0.755, 5.771e-6
-0.756, 5.804e-6
-0.757, 5.837e-6
-0.758, 5.870e-6
-0.759, 5.902e-6
-0.760, 5.933e-6
-0.761, 5.965e-6
-0.762, 5.998e-6
-0.763, 6.034e-6
-0.764, 6.069e-6
-0.765, 6.099e-6
-0.766, 6.129e-6
-0.767, 6.160e-6
-0.768, 6.193e-6
-0.769, 6.227e-6
-0.770, 6.257e-6
-0.771, 6.288e-6
-0.772, 6.318e-6
-0.773, 6.351e-6
-0.774, 6.384e-6
-0.775, 6.414e-6
-0.776, 6.443e-6
-0.777, 6.473e-6
-0.778, 6.507e-6
-0.779, 6.543e-6
-0.780, 6.573e-6
-0.781, 6.602e-6
-0.782, 6.633e-6
-0.783, 6.664e-6
-0.784, 6.695e-6
-0.785, 6.725e-6
-0.786, 6.753e-6
-0.787, 6.783e-6
-0.788, 6.812e-6
-0.789, 6.844e-6
-0.790, 6.875e-6
-0.791, 6.902e-6
-0.792, 6.930e-6
-0.793, 6.959e-6
-0.794, 6.988e-6
-0.795, 7.014e-6
-0.796, 7.041e-6
-0.797, 7.067e-6
-0.798, 7.094e-6
-0.799, 7.123e-6
-0.800, 7.151e-6
-0.801, 7.176e-6
-0.802, 7.200e-6
-0.803, 7.227e-6
-0.804, 7.256e-6
-0.805, 7.278e-6
-0.806, 7.302e-6
-0.807, 7.326e-6
-0.808, 7.351e-6
-0.809, 7.379e-6
-0.810, 7.415e-6
-0.811, 7.439e-6
-0.812, 7.461e-6
-0.813, 7.483e-6
-0.814, 7.507e-6
-0.815, 7.530e-6
-0.816, 7.553e-6
-0.817, 7.573e-6
-0.818, 7.594e-6
-0.819, 7.623e-6
-0.820, 7.644e-6
-0.821, 7.663e-6
-0.822, 7.684e-6
-0.823, 7.706e-6
-0.824, 7.726e-6
-0.825, 7.744e-6
-0.826, 7.762e-6
-0.827, 7.780e-6
-0.828, 7.798e-6
-0.829, 7.818e-6
-0.830, 7.835e-6
-0.831, 7.850e-6
-0.832, 7.873e-6
-0.833, 7.894e-6
-0.834, 7.906e-6
-0.835, 7.922e-6
-0.836, 7.936e-6
-0.837, 7.952e-6
-0.838, 7.973e-6
-0.839, 7.986e-6
-0.840, 8.003e-6
-0.841, 8.017e-6
-0.842, 8.028e-6
-0.843, 8.043e-6
-0.844, 8.059e-6
-0.845, 8.072e-6
-0.846, 8.085e-6
-0.847, 8.096e-6
-0.848, 8.112e-6
-0.849, 8.127e-6
-0.850, 8.140e-6
-0.851, 8.154e-6
-0.852, 8.165e-6
-0.853, 8.176e-6
-0.854, 8.190e-6
-0.855, 8.201e-6
-0.856, 8.212e-6
-0.857, 8.222e-6
-0.858, 8.236e-6
-0.859, 8.249e-6
-0.860, 8.258e-6
-0.861, 8.267e-6
-0.862, 8.276e-6
-0.863, 8.283e-6
-0.864, 8.295e-6
-0.865, 8.302e-6
-0.866, 8.310e-6
-0.867, 8.318e-6
-0.868, 8.329e-6
-0.869, 8.338e-6
-0.870, 8.348e-6
-0.871, 8.356e-6
-0.872, 8.363e-6
-0.873, 8.369e-6
-0.874, 8.377e-6
-0.875, 8.385e-6
-0.876, 8.393e-6
-0.877, 8.401e-6
-0.878, 8.407e-6
-0.879, 8.414e-6
-0.880, 8.420e-6
-0.881, 8.426e-6
-0.882, 8.430e-6
-0.883, 8.439e-6
-0.884, 8.447e-6
-0.885, 8.452e-6
-0.886, 8.457e-6
-0.887, 8.462e-6
-0.888, 8.468e-6
-0.889, 8.475e-6
-0.890, 8.480e-6
-0.891, 8.484e-6
-0.892, 8.487e-6
-0.893, 8.492e-6
-0.894, 8.500e-6
-0.895, 8.504e-6
-0.896, 8.510e-6
-0.897, 8.513e-6
-0.898, 8.516e-6
-0.899, 8.523e-6
-0.900, 8.526e-6
-0.901, 8.528e-6
-0.902, 8.532e-6
-0.903, 8.537e-6
-0.904, 8.541e-6
-0.905, 8.547e-6
-0.906, 8.548e-6
-0.907, 8.553e-6
-0.908, 8.560e-6
-0.909, 8.568e-6
-0.910, 8.572e-6
-0.911, 8.573e-6
-0.912, 8.576e-6
-0.913, 8.578e-6
-0.914, 8.584e-6
-0.915, 8.587e-6
-0.916, 8.589e-6
-0.917, 8.593e-6
-0.918, 8.598e-6
-0.919, 8.602e-6
-0.920, 8.605e-6
-0.921, 8.607e-6
-0.922, 8.609e-6
-0.923, 8.614e-6
-0.924, 8.620e-6
-0.925, 8.623e-6
-0.926, 8.622e-6
-0.927, 8.623e-6
-0.928, 8.627e-6
-0.929, 8.633e-6
-0.930, 8.635e-6
-0.931, 8.639e-6
-0.932, 8.639e-6
-0.933, 8.642e-6
-0.934, 8.650e-6
-0.935, 8.652e-6
-0.936, 8.654e-6
-0.937, 8.659e-6
-0.938, 8.660e-6
-0.939, 8.666e-6
-0.940, 8.670e-6
-0.941, 8.674e-6
-0.942, 8.675e-6
-0.943, 8.681e-6
-0.944, 8.686e-6
-0.945, 8.688e-6
-0.946, 8.690e-6
-0.947, 8.696e-6
-0.948, 8.697e-6
-0.949, 8.703e-6
-0.950, 8.707e-6
-0.951, 8.708e-6
-0.952, 8.711e-6
-0.953, 8.716e-6
-0.954, 8.723e-6
-0.955, 8.728e-6
-0.956, 8.728e-6
-0.957, 8.729e-6
-0.958, 8.734e-6
-0.959, 8.739e-6
-0.960, 8.744e-6
-0.961, 8.746e-6
-0.962, 8.750e-6
-0.963, 8.754e-6
-0.964, 8.759e-6
-0.965, 8.760e-6
-0.966, 8.766e-6
-0.967, 8.769e-6
-0.968, 8.775e-6
-0.969, 8.779e-6
-0.970, 8.782e-6
-0.971, 8.786e-6
-0.972, 8.791e-6
-0.973, 8.803e-6
-0.974, 8.815e-6
-0.975, 8.818e-6
-0.976, 8.820e-6
-0.977, 8.823e-6
-0.978, 8.826e-6
-0.979, 8.831e-6
-0.980, 8.836e-6
-0.981, 8.841e-6
-0.982, 8.845e-6
-0.983, 8.849e-6
-0.984, 8.853e-6
-0.985, 8.859e-6
-0.986, 8.861e-6
-0.987, 8.862e-6
-0.988, 8.867e-6
-0.989, 8.877e-6
-0.990, 8.883e-6
-0.991, 8.886e-6
-0.992, 8.887e-6
-0.993, 8.888e-6
-0.994, 8.895e-6
-0.995, 8.902e-6
-0.996, 8.906e-6
-0.997, 8.911e-6
-0.998, 8.916e-6
-0.999, 8.918e-6
-1.000, 8.922e-6
-1.001, 8.924e-6
-1.002, 8.931e-6
-1.003, 8.935e-6
-1.004, 8.943e-6
-1.005, 8.947e-6
-1.006, 8.951e-6
-1.007, 8.955e-6
-1.008, 8.962e-6
-1.009, 8.968e-6
-1.010, 8.971e-6
-1.011, 8.976e-6
-1.012, 8.982e-6
-1.013, 8.988e-6
-1.014, 8.996e-6
-1.015, 9.003e-6
-1.016, 9.006e-6
-1.017, 9.010e-6
-1.018, 9.016e-6
-1.019, 9.023e-6
-1.020, 9.031e-6
-1.021, 9.038e-6
-1.022, 9.041e-6
-1.023, 9.046e-6
-1.024, 9.056e-6
-1.025, 9.060e-6
-1.026, 9.064e-6
-1.027, 9.071e-6
-1.028, 9.080e-6
-1.029, 9.088e-6
-1.030, 9.093e-6
-1.031, 9.099e-6
-1.032, 9.104e-6
-1.033, 9.110e-6
-1.034, 9.118e-6
-1.035, 9.123e-6
-1.036, 9.128e-6
-1.037, 9.134e-6
-1.038, 9.140e-6
-1.039, 9.149e-6
-1.040, 9.163e-6
-1.041, 9.168e-6
-1.042, 9.171e-6
-1.043, 9.176e-6
-1.044, 9.183e-6
-1.045, 9.190e-6
-1.046, 9.194e-6
-1.047, 9.200e-6
-1.048, 9.207e-6
-1.049, 9.219e-6
-1.050, 9.229e-6
-1.051, 9.235e-6
-1.052, 9.240e-6
-1.053, 9.247e-6
-1.054, 9.253e-6
-1.055, 9.259e-6
-1.056, 9.266e-6
-1.057, 9.273e-6
-1.058, 9.284e-6
-1.059, 9.297e-6
-1.060, 9.305e-6
-1.061, 9.311e-6
-1.062, 9.318e-6
-1.063, 9.322e-6
-1.064, 9.333e-6
-1.065, 9.342e-6
-1.066, 9.348e-6
-1.067, 9.356e-6
-1.068, 9.364e-6
-1.069, 9.375e-6
-1.070, 9.383e-6
-1.071, 9.390e-6
-1.072, 9.397e-6
-1.073, 9.405e-6
-1.074, 9.413e-6
-1.075, 9.423e-6
-1.076, 9.430e-6
-1.077, 9.435e-6
-1.078, 9.443e-6
-1.079, 9.453e-6
-1.080, 9.467e-6
-1.081, 9.477e-6
-1.082, 9.479e-6
-1.083, 9.493e-6
-1.084, 9.502e-6
-1.085, 9.508e-6
-1.086, 9.515e-6
-1.087, 9.522e-6
-1.088, 9.530e-6
-1.089, 9.538e-6
-1.090, 9.546e-6
-1.091, 9.555e-6
-1.092, 9.561e-6
-1.093, 9.570e-6
-1.094, 9.582e-6
-1.095, 9.594e-6
-1.096, 9.600e-6
-1.097, 9.604e-6
-1.098, 9.611e-6
-1.099, 9.623e-6
-1.100, 9.633e-6
-1.101, 9.641e-6
-1.102, 9.650e-6
-1.103, 9.659e-6
-1.104, 9.670e-6
-1.105, 9.678e-6
-1.106, 9.686e-6
-1.107, 9.698e-6
-1.108, 9.708e-6
-1.109, 9.719e-6
-1.110, 9.731e-6
-1.111, 9.739e-6
-1.112, 9.749e-6
-1.113, 9.762e-6
-1.114, 9.776e-6
-1.115, 9.785e-6
-1.116, 9.790e-6
-1.117, 9.799e-6
-1.118, 9.808e-6
-1.119, 9.821e-6
-1.120, 9.834e-6
-1.121, 9.841e-6
-1.122, 9.849e-6
-1.123, 9.856e-6
-1.124, 9.866e-6
-1.125, 9.875e-6
-1.126, 9.882e-6
-1.127, 9.891e-6
-1.128, 9.903e-6
-1.129, 9.916e-6
-1.130, 9.927e-6
-1.131, 9.936e-6
-1.132, 9.946e-6
-1.133, 9.959e-6
-1.134, 9.977e-6
-1.135, 9.980e-6
-1.136, 9.984e-6
-1.137, 9.993e-6
-1.138, 1.001e-5
-1.139, 1.002e-5
-1.140, 1.003e-5
-1.141, 1.004e-5
-1.142, 1.005e-5
-1.143, 1.006e-5
-1.144, 1.007e-5
-1.145, 1.008e-5
-1.146, 1.009e-5
-1.147, 1.010e-5
-1.148, 1.011e-5
-1.149, 1.012e-5
-1.150, 1.014e-5
-1.151, 1.015e-5
-1.152, 1.016e-5
-1.153, 1.017e-5
-1.154, 1.018e-5
-1.155, 1.020e-5
-1.156, 1.021e-5
-1.157, 1.022e-5
-1.158, 1.023e-5
-1.159, 1.025e-5
-1.160, 1.026e-5
-1.161, 1.027e-5
-1.162, 1.028e-5
-1.163, 1.029e-5
-1.164, 1.030e-5
-1.165, 1.031e-5
-1.166, 1.032e-5
-1.167, 1.034e-5
-1.168, 1.035e-5
-1.169, 1.036e-5
-1.170, 1.037e-5
-1.171, 1.038e-5
-1.172, 1.039e-5
-1.173, 1.040e-5
-1.174, 1.042e-5
-1.175, 1.043e-5
-1.176, 1.044e-5
-1.177, 1.045e-5
-1.178, 1.047e-5
-1.179, 1.048e-5
-1.180, 1.049e-5
-1.181, 1.051e-5
-1.182, 1.051e-5
-1.183, 1.051e-5
-1.184, 1.053e-5
-1.185, 1.054e-5
-1.186, 1.055e-5
-1.187, 1.056e-5
-1.188, 1.057e-5
-1.189, 1.059e-5
-1.190, 1.060e-5
-1.191, 1.062e-5
-1.192, 1.062e-5
-1.193, 1.063e-5
-1.194, 1.065e-5
-1.195, 1.066e-5
-1.196, 1.067e-5
-1.197, 1.069e-5
-1.198, 1.070e-5
-1.199, 1.071e-5
-1.200, 1.072e-5
-1.201, 1.073e-5
-1.202, 1.075e-5
-1.203, 1.076e-5
-1.204, 1.078e-5
-1.205, 1.079e-5
-1.206, 1.080e-5
-1.207, 1.081e-5
-1.208, 1.082e-5
-1.209, 1.084e-5
-1.210, 1.085e-5
-1.211, 1.086e-5
-1.212, 1.088e-5
-1.213, 1.089e-5
-1.214, 1.090e-5
-1.215, 1.091e-5
-1.216, 1.093e-5
-1.217, 1.094e-5
-1.218, 1.095e-5
-1.219, 1.096e-5
-1.220, 1.097e-5
-1.221, 1.098e-5
-1.222, 1.100e-5
-1.223, 1.101e-5
-1.224, 1.102e-5
-1.225, 1.104e-5
-1.226, 1.105e-5
-1.227, 1.106e-5
-1.228, 1.107e-5
-1.229, 1.109e-5
-1.230, 1.110e-5
-1.231, 1.112e-5
-1.232, 1.113e-5
-1.233, 1.114e-5
-1.234, 1.115e-5
-1.235, 1.117e-5
-1.236, 1.118e-5
-1.237, 1.118e-5
-1.238, 1.120e-5
-1.239, 1.121e-5
-1.240, 1.123e-5
-1.241, 1.124e-5
-1.242, 1.126e-5
-1.243, 1.127e-5
-1.244, 1.128e-5
-1.245, 1.129e-5
-1.246, 1.130e-5
-1.247, 1.131e-5
-1.248, 1.133e-5
-1.249, 1.134e-5
-1.250, 1.136e-5
-1.251, 1.138e-5
-1.252, 1.139e-5
-1.253, 1.141e-5
-1.254, 1.142e-5
-1.255, 1.143e-5
-1.256, 1.144e-5
-1.257, 1.146e-5
-1.258, 1.147e-5
-1.259, 1.149e-5
-1.260, 1.151e-5
-1.261, 1.152e-5
-1.262, 1.153e-5
-1.263, 1.155e-5
-1.264, 1.157e-5
-1.265, 1.158e-5
-1.266, 1.159e-5
-1.267, 1.160e-5
-1.268, 1.162e-5
-1.269, 1.163e-5
-1.270, 1.165e-5
-1.271, 1.166e-5
-1.272, 1.167e-5
-1.273, 1.169e-5
-1.274, 1.170e-5
-1.275, 1.172e-5
-1.276, 1.174e-5
-1.277, 1.175e-5
-1.278, 1.177e-5
-1.279, 1.178e-5
-1.280, 1.180e-5
-1.281, 1.181e-5
-1.282, 1.183e-5
-1.283, 1.184e-5
-1.284, 1.187e-5
-1.285, 1.188e-5
-1.286, 1.190e-5
-1.287, 1.191e-5
-1.288, 1.193e-5
-1.289, 1.195e-5
-1.290, 1.197e-5
-1.291, 1.199e-5
-1.292, 1.201e-5
-1.293, 1.203e-5
-1.294, 1.205e-5
-1.295, 1.207e-5
-1.296, 1.208e-5
-1.297, 1.210e-5
-1.298, 1.211e-5
-1.299, 1.214e-5
-1.300, 1.216e-5
-1.301, 1.218e-5
-1.302, 1.220e-5
-1.303, 1.222e-5
-1.304, 1.224e-5
-1.305, 1.226e-5
-1.306, 1.228e-5
-1.307, 1.230e-5
-1.308, 1.232e-5
-1.309, 1.235e-5
-1.310, 1.237e-5
-1.311, 1.238e-5
-1.312, 1.240e-5
-1.313, 1.242e-5
-1.314, 1.245e-5
-1.315, 1.249e-5
-1.316, 1.251e-5
-1.317, 1.253e-5
-1.318, 1.254e-5
-1.319, 1.257e-5
-1.320, 1.259e-5
-1.321, 1.261e-5
-1.322, 1.264e-5
-1.323, 1.266e-5
-1.324, 1.268e-5
-1.325, 1.270e-5
-1.326, 1.272e-5
-1.327, 1.274e-5
-1.328, 1.277e-5
-1.329, 1.279e-5
-1.330, 1.281e-5
-1.331, 1.284e-5
-1.332, 1.286e-5
-1.333, 1.289e-5
-1.334, 1.291e-5
-1.335, 1.293e-5
-1.336, 1.296e-5
-1.337, 1.298e-5
-1.338, 1.300e-5
-1.339, 1.302e-5
-1.340, 1.305e-5
-1.341, 1.308e-5
-1.342, 1.310e-5
-1.343, 1.313e-5
-1.344, 1.320e-5
-1.345, 1.320e-5
-1.346, 1.320e-5
-1.347, 1.322e-5
-1.348, 1.325e-5
-1.349, 1.328e-5
-1.350, 1.331e-5
-1.351, 1.333e-5
-1.352, 1.335e-5
-1.353, 1.337e-5
-1.354, 1.341e-5
-1.355, 1.344e-5
-1.356, 1.346e-5
-1.357, 1.349e-5
-1.358, 1.351e-5
-1.359, 1.353e-5
-1.360, 1.356e-5
-1.361, 1.359e-5
-1.362, 1.362e-5
-1.363, 1.365e-5
-1.364, 1.368e-5
-1.365, 1.371e-5
-1.366, 1.373e-5
-1.367, 1.376e-5
-1.368, 1.379e-5
-1.369, 1.382e-5
-1.370, 1.385e-5
-1.371, 1.388e-5
-1.372, 1.391e-5
-1.373, 1.394e-5
-1.374, 1.398e-5
-1.375, 1.401e-5
-1.376, 1.405e-5
-1.377, 1.408e-5
-1.378, 1.411e-5
-1.379, 1.414e-5
-1.380, 1.417e-5
-1.381, 1.420e-5
-1.382, 1.424e-5
-1.383, 1.427e-5
-1.384, 1.431e-5
-1.385, 1.434e-5
-1.386, 1.437e-5
-1.387, 1.440e-5
-1.388, 1.443e-5
-1.389, 1.447e-5
-1.390, 1.451e-5
-1.391, 1.454e-5
-1.392, 1.457e-5
-1.393, 1.460e-5
-1.394, 1.464e-5
-1.395, 1.468e-5
-1.396, 1.471e-5
-1.397, 1.475e-5
-1.398, 1.478e-5
-1.399, 1.481e-5
-1.400, 1.485e-5
-1.401, 1.488e-5
-1.402, 1.492e-5
-1.403, 1.496e-5
-1.404, 1.500e-5
-1.405, 1.503e-5
-1.406, 1.507e-5
-1.407, 1.511e-5
-1.408, 1.515e-5
-1.409, 1.519e-5
-1.410, 1.523e-5
-1.411, 1.527e-5
-1.412, 1.530e-5
-1.413, 1.535e-5
-1.414, 1.539e-5
-1.415, 1.543e-5
-1.416, 1.547e-5
-1.417, 1.550e-5
-1.418, 1.554e-5
-1.419, 1.558e-5
-1.420, 1.562e-5
-1.421, 1.567e-5
-1.422, 1.571e-5
-1.423, 1.575e-5
-1.424, 1.579e-5
-1.425, 1.583e-5
-1.426, 1.587e-5
-1.427, 1.592e-5
-1.428, 1.596e-5
-1.429, 1.600e-5
-1.430, 1.605e-5
-1.431, 1.609e-5
-1.432, 1.613e-5
-1.433, 1.617e-5
-1.434, 1.623e-5
-1.435, 1.627e-5
-1.436, 1.631e-5
-1.437, 1.636e-5
-1.438, 1.640e-5
-1.439, 1.645e-5
-1.440, 1.650e-5
-1.441, 1.655e-5
-1.442, 1.660e-5
-1.443, 1.664e-5
-1.444, 1.669e-5
-1.445, 1.674e-5
-1.446, 1.679e-5
-1.447, 1.683e-5
-1.448, 1.687e-5
-1.449, 1.694e-5
-1.450, 1.700e-5
-1.451, 1.704e-5
-1.452, 1.709e-5
-1.453, 1.714e-5
-1.454, 1.719e-5
-1.455, 1.724e-5
-1.456, 1.729e-5
-1.457, 1.734e-5
-1.458, 1.738e-5
-1.459, 1.745e-5
-1.460, 1.751e-5
-1.461, 1.756e-5
-1.462, 1.761e-5
-1.463, 1.766e-5
-1.464, 1.770e-5
-1.465, 1.772e-5
-1.466, 1.776e-5
-1.467, 1.781e-5
-1.468, 1.787e-5
-1.469, 1.794e-5
-1.470, 1.802e-5
-1.471, 1.805e-5
-1.472, 1.812e-5
-1.473, 1.817e-5
-1.474, 1.822e-5
-1.475, 1.828e-5
-1.476, 1.834e-5
-1.477, 1.840e-5
-1.478, 1.847e-5
-1.479, 1.853e-5
-1.480, 1.855e-5
-1.481, 1.859e-5
-1.482, 1.864e-5
-1.483, 1.871e-5
-1.484, 1.877e-5
-1.485, 1.883e-5
-1.486, 1.888e-5
-1.487, 1.894e-5
-1.488, 1.901e-5
-1.489, 1.906e-5
-1.490, 1.913e-5
-1.491, 1.919e-5
-1.492, 1.925e-5
-1.493, 1.933e-5
-1.494, 1.938e-5
-1.495, 1.945e-5
-1.496, 1.951e-5
-1.497, 1.959e-5
-1.498, 1.965e-5
-1.499, 1.972e-5
-1.500, 1.979e-5
-1.501, 1.986e-5
-1.502, 1.993e-5
-1.503, 1.999e-5
-1.504, 2.007e-5
-1.505, 2.015e-5
-1.506, 2.022e-5
-1.507, 2.029e-5
-1.508, 2.037e-5
-1.509, 2.045e-5
-1.510, 2.053e-5
-1.511, 2.061e-5
-1.512, 2.068e-5
-1.513, 2.075e-5
-1.514, 2.084e-5
-1.515, 2.093e-5
-1.516, 2.101e-5
-1.517, 2.108e-5
-1.518, 2.116e-5
-1.519, 2.127e-5
-1.520, 2.136e-5
-1.521, 2.144e-5
-1.522, 2.152e-5
-1.523, 2.162e-5
-1.524, 2.172e-5
-1.525, 2.182e-5
-1.526, 2.191e-5
-1.527, 2.200e-5
-1.528, 2.210e-5
-1.529, 2.220e-5
-1.530, 2.229e-5
-1.531, 2.240e-5
-1.532, 2.250e-5
-1.533, 2.260e-5
-1.534, 2.272e-5
-1.535, 2.284e-5
-1.536, 2.293e-5
-1.537, 2.304e-5
-1.538, 2.316e-5
-1.539, 2.329e-5
-1.540, 2.341e-5
-1.541, 2.352e-5
-1.542, 2.364e-5
-1.543, 2.375e-5
-1.544, 2.388e-5
-1.545, 2.402e-5
-1.546, 2.413e-5
-1.547, 2.426e-5
-1.548, 2.440e-5
-1.549, 2.454e-5
-1.550, 2.469e-5
-1.551, 2.483e-5
-1.552, 2.496e-5
-1.553, 2.510e-5
-1.554, 2.523e-5
-1.555, 2.538e-5
-1.556, 2.552e-5
-1.557, 2.567e-5
-1.558, 2.581e-5
-1.559, 2.595e-5
-1.560, 2.611e-5
-1.561, 2.627e-5
-1.562, 2.643e-5
-1.563, 2.659e-5
-1.564, 2.674e-5
-1.565, 2.691e-5
-1.566, 2.708e-5
-1.567, 2.725e-5
-1.568, 2.741e-5
-1.569, 2.757e-5
-1.570, 2.775e-5
-1.571, 2.792e-5
-1.572, 2.811e-5
-1.573, 2.829e-5
-1.574, 2.848e-5
-1.575, 2.866e-5
-1.576, 2.884e-5
-1.577, 2.902e-5
-1.578, 2.921e-5
-1.579, 2.939e-5
-1.580, 2.958e-5
-1.581, 2.977e-5
-1.582, 2.996e-5
-1.583, 3.017e-5
-1.584, 3.037e-5
-1.585, 3.057e-5
-1.586, 3.078e-5
-1.587, 3.098e-5
-1.588, 3.119e-5
-1.589, 3.139e-5
-1.590, 3.160e-5
-1.591, 3.181e-5
-1.592, 3.203e-5
-1.593, 3.224e-5
-1.594, 3.245e-5
-1.595, 3.266e-5
-1.596, 3.289e-5
-1.597, 3.311e-5
-1.598, 3.331e-5
-1.599, 3.353e-5
-1.600, 3.376e-5
-1.601, 3.398e-5
-1.602, 3.420e-5
-1.603, 3.443e-5
-1.604, 3.467e-5
-1.605, 3.490e-5
-1.606, 3.513e-5
-1.607, 3.537e-5
-1.608, 3.558e-5
-1.609, 3.582e-5
-1.610, 3.606e-5
-1.611, 3.629e-5
-1.612, 3.652e-5
-1.613, 3.676e-5
-1.614, 3.701e-5
-1.615, 3.705e-5
-1.616, 3.729e-5
-1.617, 3.764e-5
-1.618, 3.799e-5
-1.619, 3.836e-5
-1.620, 3.864e-5
-1.621, 3.896e-5
-1.622, 3.920e-5
-1.623, 3.947e-5
-1.624, 3.977e-5
-1.625, 4.004e-5
-1.626, 4.023e-5
-1.627, 4.046e-5
-1.628, 4.069e-5
-1.629, 4.095e-5
-1.630, 4.123e-5
-1.631, 4.148e-5
-1.632, 4.176e-5
-1.633, 4.199e-5
-1.634, 4.223e-5
-1.635, 4.252e-5
-1.636, 4.278e-5
-1.637, 4.303e-5
-1.638, 4.326e-5
-1.639, 4.353e-5
-1.640, 4.377e-5
-1.641, 4.403e-5
-1.642, 4.429e-5
-1.643, 4.455e-5
-1.644, 4.481e-5
-1.645, 4.510e-5
-1.646, 4.538e-5
-1.647, 4.566e-5
-1.648, 4.591e-5
-1.649, 4.617e-5
-1.650, 4.643e-5
-1.651, 4.671e-5
-1.652, 4.697e-5
-1.653, 4.724e-5
-1.654, 4.750e-5
-1.655, 4.777e-5
-1.656, 4.805e-5
-1.657, 4.832e-5
-1.658, 4.858e-5
-1.659, 4.886e-5
-1.660, 4.915e-5
-1.661, 4.944e-5
-1.662, 4.971e-5
-1.663, 4.999e-5
-1.664, 5.027e-5
-1.665, 5.056e-5
-1.666, 5.085e-5
-1.667, 5.114e-5
-1.668, 5.144e-5
-1.669, 5.172e-5
-1.670, 5.200e-5
-1.671, 5.228e-5
-1.672, 5.261e-5
-1.673, 5.295e-5
-1.674, 5.327e-5
-1.675, 5.359e-5
-1.676, 5.389e-5
-1.677, 5.418e-5
-1.678, 5.448e-5
-1.679, 5.480e-5
-1.680, 5.512e-5
-1.681, 5.543e-5
-1.682, 5.576e-5
-1.683, 5.606e-5
-1.684, 5.638e-5
-1.685, 5.673e-5
-1.686, 5.706e-5
-1.687, 5.738e-5
-1.688, 5.769e-5
-1.689, 5.802e-5
-1.690, 5.836e-5
-1.691, 5.871e-5
-1.692, 5.905e-5
-1.693, 5.936e-5
-1.694, 5.967e-5
-1.695, 6.002e-5
-1.696, 6.038e-5
-1.697, 6.075e-5
-1.698, 6.113e-5
-1.699, 6.148e-5
-1.700, 6.183e-5
-1.701, 6.220e-5
-1.702, 6.257e-5
-1.703, 6.292e-5
-1.704, 6.330e-5
-1.705, 6.369e-5
-1.706, 6.407e-5
-1.707, 6.443e-5
-1.708, 6.483e-5
-1.709, 6.522e-5
-1.710, 6.560e-5
-1.711, 6.599e-5
-1.712, 6.640e-5
-1.713, 6.679e-5
-1.714, 6.720e-5
-1.715, 6.762e-5
-1.716, 6.805e-5
-1.717, 6.845e-5
-1.718, 6.886e-5
-1.719, 6.931e-5
-1.720, 6.976e-5
-1.721, 7.025e-5
-1.722, 7.072e-5
-1.723, 7.116e-5
-1.724, 7.158e-5
-1.725, 7.195e-5
-1.726, 7.241e-5
-1.727, 7.287e-5
-1.728, 7.329e-5
-1.729, 7.378e-5
-1.730, 7.431e-5
-1.731, 7.473e-5
-1.732, 7.518e-5
-1.733, 7.566e-5
-1.734, 7.619e-5
-1.735, 7.670e-5
-1.736, 7.720e-5
-1.737, 7.769e-5
-1.738, 7.817e-5
-1.739, 7.868e-5
-1.740, 7.922e-5
-1.741, 7.975e-5
-1.742, 8.028e-5
-1.743, 8.079e-5
-1.744, 8.134e-5
-1.745, 8.190e-5
-1.746, 8.248e-5
-1.747, 8.303e-5
-1.748, 8.359e-5
-1.749, 8.416e-5
-1.750, 8.475e-5
-1.751, 8.533e-5
-1.752, 8.590e-5
-1.753, 8.652e-5
-1.754, 8.714e-5
-1.755, 8.775e-5
-1.756, 8.835e-5
-1.757, 8.896e-5
-1.758, 8.960e-5
-1.759, 9.025e-5
-1.760, 9.091e-5
-1.761, 9.157e-5
-1.762, 9.222e-5
-1.763, 9.288e-5
-1.764, 9.354e-5
-1.765, 9.426e-5
-1.766, 9.496e-5
-1.767, 9.565e-5
-1.768, 9.636e-5
-1.769, 9.708e-5
-1.770, 9.782e-5
-1.771, 9.857e-5
-1.772, 9.931e-5
-1.773, 1.001e-4
-1.774, 1.008e-4
-1.775, 1.016e-4
-1.776, 1.024e-4
-1.777, 1.033e-4
-1.778, 1.041e-4
-1.779, 1.049e-4
-1.780, 1.057e-4
-1.781, 1.066e-4
-1.782, 1.075e-4
-1.783, 1.084e-4
-1.784, 1.093e-4
-1.785, 1.102e-4
-1.786, 1.111e-4
-1.787, 1.121e-4
-1.788, 1.130e-4
-1.789, 1.140e-4
-1.790, 1.150e-4
-1.791, 1.159e-4
-1.792, 1.169e-4
-1.793, 1.179e-4
-1.794, 1.190e-4
-1.795, 1.201e-4
-1.796, 1.211e-4
-1.797, 1.222e-4
-1.798, 1.233e-4
-1.799, 1.244e-4
-1.800, 1.256e-4
-1.801, 1.268e-4
-1.802, 1.280e-4
-1.803, 1.292e-4
-1.804, 1.304e-4
-1.805, 1.316e-4
-1.806, 1.329e-4
-1.807, 1.342e-4
-1.808, 1.356e-4
-1.809, 1.369e-4
-1.810, 1.382e-4
-1.811, 1.396e-4
-1.812, 1.410e-4
-1.813, 1.424e-4
-1.814, 1.439e-4
-1.815, 1.454e-4
-1.816, 1.469e-4
-1.817, 1.484e-4
-1.818, 1.499e-4
-1.819, 1.515e-4
-1.820, 1.531e-4
-1.821, 1.547e-4
-1.822, 1.564e-4
-1.823, 1.580e-4
-1.824, 1.598e-4
-1.825, 1.615e-4
-1.826, 1.632e-4
-1.827, 1.650e-4
-1.828, 1.668e-4
-1.829, 1.687e-4
-1.830, 1.706e-4
-1.831, 1.724e-4
-1.832, 1.743e-4
-1.833, 1.762e-4
-1.834, 1.782e-4
-1.835, 1.802e-4
-1.836, 1.822e-4
-1.837, 1.843e-4
-1.838, 1.864e-4
-1.839, 1.885e-4
-1.840, 1.906e-4
-1.841, 1.928e-4
-1.842, 1.950e-4
-1.843, 1.972e-4
-1.844, 1.995e-4
-1.845, 2.018e-4
-1.846, 2.041e-4
-1.847, 2.064e-4
-1.848, 2.088e-4
-1.849, 2.112e-4
-1.850, 2.136e-4
-1.851, 2.161e-4
-1.852, 2.186e-4
-1.853, 2.211e-4
-1.854, 2.237e-4
-1.855, 2.263e-4
-1.856, 2.290e-4
-1.857, 2.316e-4
-1.858, 2.343e-4
-1.859, 2.370e-4
-1.860, 2.398e-4
-1.861, 2.427e-4
-1.862, 2.455e-4
-1.863, 2.484e-4
-1.864, 2.513e-4
-1.865, 2.543e-4
-1.866, 2.574e-4
-1.867, 2.604e-4
-1.868, 2.635e-4
-1.869, 2.666e-4
-1.870, 2.698e-4
-1.871, 2.730e-4
-1.872, 2.762e-4
-1.873, 2.794e-4
-1.874, 2.827e-4
-1.875, 2.860e-4
-1.876, 2.893e-4
-1.877, 2.926e-4
-1.878, 2.960e-4
-1.879, 2.994e-4
-1.880, 3.029e-4
-1.881, 3.064e-4
-1.882, 3.099e-4
-1.883, 3.134e-4
-1.884, 3.170e-4
-1.885, 3.206e-4
-1.886, 3.242e-4
-1.887, 3.279e-4
-1.888, 3.317e-4
-1.889, 3.355e-4
-1.890, 3.394e-4
-1.891, 3.433e-4
-1.892, 3.473e-4
-1.893, 3.513e-4
-1.894, 3.554e-4
-1.895, 3.595e-4
-1.896, 3.637e-4
-1.897, 3.679e-4
-1.898, 3.722e-4
-1.899, 3.764e-4
-1.900, 3.808e-4
-1.901, 3.851e-4
-1.902, 3.895e-4
-1.903, 3.940e-4
-1.904, 3.985e-4
-1.905, 4.031e-4
-1.906, 4.077e-4
-1.907, 4.123e-4
-1.908, 4.169e-4
-1.909, 4.216e-4
-1.910, 4.265e-4
-1.911, 4.314e-4
-1.912, 4.363e-4
-1.913, 4.413e-4
-1.914, 4.462e-4
-1.915, 4.511e-4
-1.916, 4.561e-4
-1.917, 4.612e-4
-1.918, 4.663e-4
-1.919, 4.714e-4
-1.920, 4.767e-4
-1.921, 4.818e-4
-1.922, 4.870e-4
-1.923, 4.924e-4
-1.924, 4.979e-4
-1.925, 5.034e-4
-1.926, 5.090e-4
-1.927, 5.145e-4
-1.928, 5.201e-4
-1.929, 5.257e-4
-1.930, 5.315e-4
-1.931, 5.373e-4
-1.932, 5.433e-4
-1.933, 5.494e-4
-1.934, 5.555e-4
-1.935, 5.614e-4
-1.936, 5.674e-4
-1.937, 5.733e-4
-1.938, 5.793e-4
-1.939, 5.854e-4
-1.940, 5.915e-4
-1.941, 5.975e-4
-1.942, 6.037e-4
-1.943, 6.099e-4
-1.944, 6.162e-4
-1.945, 6.225e-4
-1.946, 6.287e-4
-1.947, 6.352e-4
-1.948, 6.415e-4
-1.949, 6.480e-4
-1.950, 6.544e-4
-1.951, 6.609e-4
-1.952, 6.677e-4
-1.953, 6.744e-4
-1.954, 6.809e-4
-1.955, 6.871e-4
-1.956, 6.934e-4
-1.957, 6.999e-4
-1.958, 7.064e-4
-1.959, 7.131e-4
-1.960, 7.197e-4
-1.961, 7.264e-4
-1.962, 7.330e-4
-1.963, 7.398e-4
-1.964, 7.466e-4
-1.965, 7.535e-4
-1.966, 7.606e-4
-1.967, 7.678e-4
-1.968, 7.750e-4
-1.969, 7.822e-4
-1.970, 7.894e-4
-1.971, 7.965e-4
-1.972, 8.038e-4
-1.973, 8.111e-4
-1.974, 8.186e-4
-1.975, 8.260e-4
-1.976, 8.334e-4
-1.977, 8.410e-4
-1.978, 8.486e-4
-1.979, 8.562e-4
-1.980, 8.637e-4
-1.981, 8.714e-4
-1.982, 8.792e-4
-1.983, 8.868e-4
-1.984, 8.946e-4
-1.985, 9.023e-4
-1.986, 9.102e-4
-1.987, 9.183e-4
-1.988, 9.262e-4
-1.989, 9.341e-4
-1.990, 9.424e-4
-1.991, 9.506e-4
-1.992, 9.587e-4
-1.993, 9.666e-4
-1.994, 9.745e-4
-1.995, 9.825e-4
-1.996, 9.905e-4
-1.997, 9.984e-4
-1.998, 1.007e-3
-1.999, 1.011e-3
-2.000, 1.011e-3
-2.001, 1.011e-3
-2.002, 1.011e-3
-2.003, 1.011e-3
-2.004, 1.011e-3
-2.005, 1.011e-3
-2.006, 1.011e-3
-2.007, 1.011e-3
-2.008, 1.011e-3
-2.009, 1.011e-3
-2.010, 1.011e-3
-2.011, 1.011e-3
-2.012, 1.011e-3
-2.013, 1.011e-3
-2.014, 1.011e-3
-2.015, 1.011e-3
-2.016, 1.011e-3
-2.017, 1.011e-3
-2.018, 1.011e-3
-2.019, 1.011e-3
-2.020, 1.011e-3
-2.021, 1.011e-3
-2.022, 1.011e-3
-2.023, 1.011e-3
-2.024, 1.011e-3
-2.025, 1.011e-3
-2.026, 1.011e-3
-2.027, 1.011e-3
-2.028, 1.011e-3
-2.029, 1.011e-3
-2.030, 1.011e-3
-2.031, 1.011e-3
-2.032, 1.011e-3
-2.033, 1.011e-3
-2.034, 1.011e-3
-2.035, 1.011e-3
-2.036, 1.011e-3
-2.037, 1.011e-3
-2.038, 1.011e-3
-2.039, 1.011e-3
-2.040, 1.011e-3
-2.041, 1.011e-3
-2.042, 1.011e-3
-2.043, 1.011e-3
-2.044, 1.011e-3
-2.045, 1.011e-3
-2.046, 1.011e-3
-2.047, 1.011e-3
-2.048, 1.011e-3
-2.049, 1.011e-3
-2.050, 1.011e-3
-2.051, 1.011e-3
-2.052, 1.011e-3
-2.053, 1.011e-3
-2.054, 1.011e-3
-2.055, 1.011e-3
-2.056, 1.011e-3
-2.057, 1.011e-3
-2.058, 1.011e-3
-2.059, 1.011e-3
-2.060, 1.011e-3
-2.061, 1.011e-3
-2.062, 1.011e-3
-2.063, 1.011e-3
-2.064, 1.011e-3
-2.065, 1.011e-3
-2.066, 1.011e-3
-2.067, 1.011e-3
-2.068, 1.011e-3
-2.069, 1.011e-3
-2.070, 1.011e-3
-2.071, 1.011e-3
-2.072, 1.011e-3
-2.073, 1.011e-3
-2.074, 1.011e-3
-2.075, 1.011e-3
-2.076, 1.011e-3
-2.077, 1.011e-3
-2.078, 1.011e-3
-2.079, 1.011e-3
-2.080, 1.011e-3
-2.081, 1.011e-3
-2.082, 1.011e-3
-2.083, 1.011e-3
-2.084, 1.011e-3
-2.085, 1.011e-3
-2.086, 1.011e-3
-2.087, 1.011e-3
-2.088, 1.011e-3
-2.089, 1.011e-3
-2.090, 1.011e-3
-2.091, 1.011e-3
-2.092, 1.011e-3
-2.093, 1.011e-3
-2.094, 1.011e-3
-2.095, 1.011e-3
-2.096, 1.011e-3
-2.097, 1.011e-3
-2.098, 1.011e-3
-2.099, 1.011e-3
-2.100, 1.011e-3
-2.101, 1.011e-3
-2.102, 1.011e-3
-2.103, 1.011e-3
-2.104, 1.011e-3
-2.105, 1.011e-3
-2.106, 1.011e-3
-2.107, 1.011e-3
-2.108, 1.011e-3
-2.109, 1.011e-3
-2.110, 1.011e-3
-2.111, 1.011e-3
-2.112, 1.011e-3
-2.113, 1.011e-3
-2.114, 1.011e-3
-2.115, 1.011e-3
-2.116, 1.011e-3
-2.117, 1.011e-3
-2.118, 1.011e-3
-2.119, 1.011e-3
-2.120, 1.011e-3
-2.121, 1.011e-3
-2.122, 1.011e-3
-2.123, 1.011e-3
-2.124, 1.011e-3
-2.125, 1.011e-3
-2.126, 1.011e-3
-2.127, 1.011e-3
-2.128, 1.011e-3
-2.129, 1.011e-3
-2.130, 1.011e-3
-2.131, 1.011e-3
-2.132, 1.011e-3
-2.133, 1.011e-3
-2.134, 1.011e-3
-2.135, 1.011e-3
-2.136, 1.011e-3
-2.137, 1.011e-3
-2.138, 1.011e-3
-2.139, 1.011e-3
-2.140, 1.011e-3
-2.141, 1.011e-3
-2.142, 1.011e-3
-2.143, 1.011e-3
-2.144, 1.011e-3
-2.145, 1.011e-3
-2.146, 1.011e-3
-2.147, 1.011e-3
-2.148, 1.011e-3
-2.149, 1.011e-3
-2.150, 1.011e-3
-2.151, 1.011e-3
-2.152, 1.011e-3
-2.153, 1.011e-3
-2.154, 1.011e-3
-2.155, 1.011e-3
-2.156, 1.011e-3
-2.157, 1.011e-3
-2.158, 1.011e-3
-2.159, 1.011e-3
-2.160, 1.011e-3
-2.161, 1.011e-3
-2.162, 1.011e-3
-2.163, 1.011e-3
-2.164, 1.011e-3
-2.165, 1.011e-3
-2.166, 1.011e-3
-2.167, 1.011e-3
-2.168, 1.011e-3
-2.169, 1.011e-3
-2.170, 1.011e-3
-2.171, 1.011e-3
-2.172, 1.011e-3
-2.173, 1.011e-3
-2.174, 1.011e-3
-2.175, 1.011e-3
-2.176, 1.011e-3
-2.177, 1.011e-3
-2.178, 1.011e-3
-2.179, 1.011e-3
-2.180, 1.011e-3
-2.181, 1.011e-3
-2.182, 1.011e-3
-2.183, 1.011e-3
-2.184, 1.011e-3
-2.185, 1.011e-3
-2.186, 1.011e-3
-2.187, 1.011e-3
-2.188, 1.011e-3
-2.189, 1.011e-3
-2.190, 1.011e-3
-2.191, 1.011e-3
-2.192, 1.011e-3
-2.193, 1.011e-3
-2.194, 1.011e-3
-2.195, 1.011e-3
-2.196, 1.011e-3
-2.197, 1.011e-3
-2.198, 1.011e-3
-2.199, 1.011e-3
-2.200, 1.011e-3
-2.201, 1.011e-3
-2.202, 1.011e-3
-2.203, 1.011e-3
-2.204, 1.011e-3
-2.205, 1.011e-3
-2.206, 1.011e-3
-2.207, 1.011e-3
-2.208, 1.011e-3
-2.209, 1.011e-3
-2.210, 1.011e-3
-2.211, 1.011e-3
-2.212, 1.011e-3
-2.213, 1.011e-3
-2.214, 1.011e-3
-2.215, 1.011e-3
-2.216, 1.011e-3
-2.217, 1.011e-3
-2.218, 1.011e-3
-2.219, 1.011e-3
-2.220, 1.011e-3
-2.221, 1.011e-3
-2.222, 1.011e-3
-2.223, 1.011e-3
-2.224, 1.011e-3
-2.225, 1.011e-3
-2.226, 1.011e-3
-2.227, 1.011e-3
-2.228, 1.011e-3
-2.229, 1.011e-3
-2.230, 1.011e-3
-2.231, 1.011e-3
-2.232, 1.011e-3
-2.233, 1.011e-3
-2.234, 1.011e-3
-2.235, 1.011e-3
-2.236, 1.011e-3
-2.237, 1.011e-3
-2.238, 1.011e-3
-2.239, 1.011e-3
-2.240, 1.011e-3
-2.241, 1.011e-3
-2.242, 1.011e-3
-2.243, 1.011e-3
-2.244, 1.011e-3
-2.245, 1.011e-3
-2.246, 1.011e-3
-2.247, 1.011e-3
-2.248, 1.011e-3
-2.249, 1.011e-3
-2.250, 1.011e-3
-2.251, 1.011e-3
-2.252, 1.011e-3
-2.253, 1.011e-3
-2.254, 1.011e-3
-2.255, 1.011e-3
-2.256, 1.011e-3
-2.257, 1.011e-3
-2.258, 1.011e-3
-2.259, 1.011e-3
-2.260, 1.011e-3
-2.261, 1.011e-3
-2.262, 1.011e-3
-2.263, 1.011e-3
-2.264, 1.011e-3
-2.265, 1.011e-3
-2.266, 1.011e-3
-2.267, 1.011e-3
-2.268, 1.011e-3
-2.269, 1.011e-3
-2.270, 1.011e-3
-2.271, 1.011e-3
-2.272, 1.011e-3
-2.273, 1.011e-3
-2.274, 1.011e-3
-2.275, 1.011e-3
-2.276, 1.011e-3
-2.277, 1.011e-3
-2.278, 1.011e-3
-2.279, 1.011e-3
-2.280, 1.011e-3
-2.281, 1.011e-3
-2.282, 1.011e-3
-2.283, 1.011e-3
-2.284, 1.011e-3
-2.285, 1.011e-3
-2.286, 1.011e-3
-2.287, 1.011e-3
-2.288, 1.011e-3
-2.289, 1.011e-3
-2.290, 1.011e-3
-2.291, 1.011e-3
-2.292, 1.011e-3
-2.293, 1.011e-3
-2.294, 1.011e-3
-2.295, 1.011e-3
-2.296, 1.011e-3
-2.297, 1.011e-3
-2.298, 1.011e-3
-2.299, 1.011e-3
