Dec. 24, 2024   15:46:17
Cyclic Voltammetry
File: c:/users/guazh/data/banditlqround7_x0exp136_r20/2024-12-24-exp729\exp729-2024-12-24t15_19_19-h2koh\exp729_cv_sr_50mvs_efin_-2000mv.bin
Data Source:  Experiment
Instrument Model:  CHI760E
Header: CV ran at 50 mVs
Note: 

Init E (V) = -1
High E (V) = -1
Low E (V) = -2
Final E (V) = -1
Init P/N = N
Scan Rate (V/s) = 0.05
Segment = 3
Sample Interval (V) = 0.001
Quiet Time (sec) = 2
Sensitivity (A/V) = 0.01
Comp R (ohm) = 1.4

Results:

Channel 1:
Segment 1:

Segment 2:

Segment 3:

Potential/V, Current/A

-1.000, -1.067e-6
-1.001, -8.702e-7
-1.002, -8.899e-7
-1.003, -6.827e-7
-1.004, -8.208e-7
-1.005, -6.827e-7
-1.006, -6.235e-7
-1.007, -6.038e-7
-1.008, -5.446e-7
-1.009, -5.249e-7
-1.010, -4.755e-7
-1.011, -5.249e-7
-1.012, -4.163e-7
-1.013, -4.163e-7
-1.014, -4.361e-7
-1.015, -3.374e-7
-1.016, -3.571e-7
-1.017, -3.571e-7
-1.018, -2.289e-7
-1.019, -2.585e-7
-1.020, -2.782e-7
-1.021, -2.092e-7
-1.022, -3.177e-7
-1.023, -1.993e-7
-1.024, -5.130e-8
-1.025, -4.144e-8
-1.026, -9.077e-8
-1.027, -7.103e-8
-1.028, 2.762e-8
-1.029, -2.171e-8
-1.030, 7.695e-8
-1.031, -1.973e-9
-1.032, 9.669e-8
-1.033, 8.682e-8
-1.034, 6.709e-8
-1.035, 1.776e-8
-1.036, 1.066e-7
-1.037, 8.682e-8
-1.038, 2.644e-7
-1.039, 2.151e-7
-1.040, 1.855e-7
-1.041, 2.743e-7
-1.042, 1.657e-7
-1.043, 1.855e-7
-1.044, 3.433e-7
-1.045, 2.644e-7
-1.046, 2.447e-7
-1.047, 2.447e-7
-1.048, 3.236e-7
-1.049, 3.137e-7
-1.050, 3.532e-7
-1.051, 3.433e-7
-1.052, 3.039e-7
-1.053, 5.012e-7
-1.054, 3.631e-7
-1.055, 4.519e-7
-1.056, 4.519e-7
-1.057, 4.223e-7
-1.058, 5.308e-7
-1.059, 4.913e-7
-1.060, 5.209e-7
-1.061, 5.308e-7
-1.062, 5.012e-7
-1.063, 6.393e-7
-1.064, 6.196e-7
-1.065, 5.505e-7
-1.066, 6.097e-7
-1.067, 5.703e-7
-1.068, 6.393e-7
-1.069, 6.689e-7
-1.070, 6.492e-7
-1.071, 6.788e-7
-1.072, 7.182e-7
-1.073, 7.182e-7
-1.074, 6.393e-7
-1.075, 6.492e-7
-1.076, 7.774e-7
-1.077, 7.084e-7
-1.078, 8.366e-7
-1.079, 7.084e-7
-1.080, 7.281e-7
-1.081, 7.380e-7
-1.082, 8.564e-7
-1.083, 8.465e-7
-1.084, 8.169e-7
-1.085, 8.366e-7
-1.086, 7.577e-7
-1.087, 8.268e-7
-1.088, 9.254e-7
-1.089, 9.254e-7
-1.090, 8.761e-7
-1.091, 8.564e-7
-1.092, 8.465e-7
-1.093, 8.465e-7
-1.094, 8.761e-7
-1.095, 9.649e-7
-1.096, 9.550e-7
-1.097, 8.958e-7
-1.098, 9.550e-7
-1.099, 9.846e-7
-1.100, 9.649e-7
-1.101, 1.014e-6
-1.102, 9.748e-7
-1.103, 1.093e-6
-1.104, 9.945e-7
-1.105, 9.452e-7
-1.106, 1.024e-6
-1.107, 1.054e-6
-1.108, 1.054e-6
-1.109, 1.014e-6
-1.110, 1.073e-6
-1.111, 1.073e-6
-1.112, 9.748e-7
-1.113, 1.044e-6
-1.114, 1.103e-6
-1.115, 1.113e-6
-1.116, 1.034e-6
-1.117, 1.113e-6
-1.118, 1.162e-6
-1.119, 1.133e-6
-1.120, 1.142e-6
-1.121, 1.142e-6
-1.122, 1.152e-6
-1.123, 1.192e-6
-1.124, 1.182e-6
-1.125, 1.093e-6
-1.126, 1.192e-6
-1.127, 1.212e-6
-1.128, 1.290e-6
-1.129, 1.212e-6
-1.130, 1.221e-6
-1.131, 1.271e-6
-1.132, 1.182e-6
-1.133, 1.300e-6
-1.134, 1.261e-6
-1.135, 1.123e-6
-1.136, 1.300e-6
-1.137, 1.212e-6
-1.138, 1.182e-6
-1.139, 1.271e-6
-1.140, 1.290e-6
-1.141, 1.340e-6
-1.142, 1.241e-6
-1.143, 1.330e-6
-1.144, 1.290e-6
-1.145, 1.261e-6
-1.146, 1.350e-6
-1.147, 1.212e-6
-1.148, 1.251e-6
-1.149, 1.251e-6
-1.150, 1.261e-6
-1.151, 1.241e-6
-1.152, 1.389e-6
-1.153, 1.369e-6
-1.154, 1.310e-6
-1.155, 1.300e-6
-1.156, 1.369e-6
-1.157, 1.300e-6
-1.158, 1.330e-6
-1.159, 1.389e-6
-1.160, 1.330e-6
-1.161, 1.310e-6
-1.162, 1.340e-6
-1.163, 1.537e-6
-1.164, 1.399e-6
-1.165, 1.429e-6
-1.166, 1.468e-6
-1.167, 1.340e-6
-1.168, 1.468e-6
-1.169, 1.448e-6
-1.170, 1.468e-6
-1.171, 1.438e-6
-1.172, 1.478e-6
-1.173, 1.567e-6
-1.174, 1.517e-6
-1.175, 1.399e-6
-1.176, 1.478e-6
-1.177, 1.448e-6
-1.178, 1.586e-6
-1.179, 1.517e-6
-1.180, 1.547e-6
-1.181, 1.616e-6
-1.182, 1.488e-6
-1.183, 1.557e-6
-1.184, 1.537e-6
-1.185, 1.508e-6
-1.186, 1.547e-6
-1.187, 1.557e-6
-1.188, 1.616e-6
-1.189, 1.586e-6
-1.190, 1.646e-6
-1.191, 1.616e-6
-1.192, 1.636e-6
-1.193, 1.675e-6
-1.194, 1.656e-6
-1.195, 1.675e-6
-1.196, 1.646e-6
-1.197, 1.606e-6
-1.198, 1.734e-6
-1.199, 1.685e-6
-1.200, 1.675e-6
-1.201, 1.616e-6
-1.202, 1.646e-6
-1.203, 1.744e-6
-1.204, 1.794e-6
-1.205, 1.784e-6
-1.206, 1.843e-6
-1.207, 1.774e-6
-1.208, 1.902e-6
-1.209, 1.863e-6
-1.210, 1.823e-6
-1.211, 1.863e-6
-1.212, 1.794e-6
-1.213, 1.794e-6
-1.214, 1.873e-6
-1.215, 1.882e-6
-1.216, 1.961e-6
-1.217, 1.912e-6
-1.218, 1.961e-6
-1.219, 1.932e-6
-1.220, 1.942e-6
-1.221, 1.892e-6
-1.222, 1.971e-6
-1.223, 2.050e-6
-1.224, 1.991e-6
-1.225, 1.991e-6
-1.226, 2.090e-6
-1.227, 2.011e-6
-1.228, 2.060e-6
-1.229, 2.099e-6
-1.230, 2.109e-6
-1.231, 2.169e-6
-1.232, 2.099e-6
-1.233, 2.139e-6
-1.234, 2.198e-6
-1.235, 2.178e-6
-1.236, 2.159e-6
-1.237, 2.188e-6
-1.238, 2.297e-6
-1.239, 2.267e-6
-1.240, 2.297e-6
-1.241, 2.287e-6
-1.242, 2.228e-6
-1.243, 2.336e-6
-1.244, 2.317e-6
-1.245, 2.326e-6
-1.246, 2.386e-6
-1.247, 2.247e-6
-1.248, 2.465e-6
-1.249, 2.415e-6
-1.250, 2.376e-6
-1.251, 2.425e-6
-1.252, 2.395e-6
-1.253, 2.445e-6
-1.254, 2.415e-6
-1.255, 2.465e-6
-1.256, 2.484e-6
-1.257, 2.425e-6
-1.258, 2.484e-6
-1.259, 2.425e-6
-1.260, 2.494e-6
-1.261, 2.563e-6
-1.262, 2.445e-6
-1.263, 2.652e-6
-1.264, 2.514e-6
-1.265, 2.504e-6
-1.266, 2.613e-6
-1.267, 2.514e-6
-1.268, 2.662e-6
-1.269, 2.573e-6
-1.270, 2.632e-6
-1.271, 2.642e-6
-1.272, 2.613e-6
-1.273, 2.672e-6
-1.274, 2.701e-6
-1.275, 2.622e-6
-1.276, 2.662e-6
-1.277, 2.622e-6
-1.278, 2.751e-6
-1.279, 2.603e-6
-1.280, 2.711e-6
-1.281, 2.810e-6
-1.282, 2.721e-6
-1.283, 2.780e-6
-1.284, 2.731e-6
-1.285, 2.760e-6
-1.286, 2.839e-6
-1.287, 2.859e-6
-1.288, 2.741e-6
-1.289, 2.760e-6
-1.290, 2.691e-6
-1.291, 2.810e-6
-1.292, 2.731e-6
-1.293, 2.938e-6
-1.294, 2.810e-6
-1.295, 2.780e-6
-1.296, 2.859e-6
-1.297, 2.790e-6
-1.298, 2.800e-6
-1.299, 2.820e-6
-1.300, 2.830e-6
-1.301, 2.830e-6
-1.302, 2.869e-6
-1.303, 2.879e-6
-1.304, 2.869e-6
-1.305, 2.918e-6
-1.306, 2.938e-6
-1.307, 2.859e-6
-1.308, 2.889e-6
-1.309, 3.027e-6
-1.310, 2.987e-6
-1.311, 2.948e-6
-1.312, 3.017e-6
-1.313, 2.958e-6
-1.314, 2.978e-6
-1.315, 2.899e-6
-1.316, 2.978e-6
-1.317, 2.938e-6
-1.318, 3.017e-6
-1.319, 2.987e-6
-1.320, 2.987e-6
-1.321, 3.027e-6
-1.322, 2.987e-6
-1.323, 2.978e-6
-1.324, 2.978e-6
-1.325, 3.126e-6
-1.326, 3.096e-6
-1.327, 2.987e-6
-1.328, 3.135e-6
-1.329, 3.106e-6
-1.330, 3.096e-6
-1.331, 3.096e-6
-1.332, 3.175e-6
-1.333, 3.185e-6
-1.334, 3.145e-6
-1.335, 3.195e-6
-1.336, 3.254e-6
-1.337, 3.155e-6
-1.338, 3.214e-6
-1.339, 3.165e-6
-1.340, 3.126e-6
-1.341, 3.224e-6
-1.342, 3.224e-6
-1.343, 3.264e-6
-1.344, 3.313e-6
-1.345, 3.224e-6
-1.346, 3.392e-6
-1.347, 3.214e-6
-1.348, 3.362e-6
-1.349, 3.264e-6
-1.350, 3.283e-6
-1.351, 3.333e-6
-1.352, 3.461e-6
-1.353, 3.352e-6
-1.354, 3.362e-6
-1.355, 3.412e-6
-1.356, 3.392e-6
-1.357, 3.372e-6
-1.358, 3.560e-6
-1.359, 3.500e-6
-1.360, 3.392e-6
-1.361, 3.461e-6
-1.362, 3.491e-6
-1.363, 3.540e-6
-1.364, 3.510e-6
-1.365, 3.570e-6
-1.366, 3.579e-6
-1.367, 3.491e-6
-1.368, 3.609e-6
-1.369, 3.560e-6
-1.370, 3.639e-6
-1.371, 3.639e-6
-1.372, 3.668e-6
-1.373, 3.668e-6
-1.374, 3.698e-6
-1.375, 3.737e-6
-1.376, 3.717e-6
-1.377, 3.767e-6
-1.378, 3.787e-6
-1.379, 3.875e-6
-1.380, 3.846e-6
-1.381, 3.846e-6
-1.382, 3.905e-6
-1.383, 3.984e-6
-1.384, 3.994e-6
-1.385, 3.984e-6
-1.386, 4.063e-6
-1.387, 4.073e-6
-1.388, 4.152e-6
-1.389, 4.122e-6
-1.390, 4.161e-6
-1.391, 4.161e-6
-1.392, 4.142e-6
-1.393, 4.270e-6
-1.394, 4.191e-6
-1.395, 4.388e-6
-1.396, 4.359e-6
-1.397, 4.428e-6
-1.398, 4.457e-6
-1.399, 4.438e-6
-1.400, 4.428e-6
-1.401, 4.556e-6
-1.402, 4.596e-6
-1.403, 4.615e-6
-1.404, 4.655e-6
-1.405, 4.635e-6
-1.406, 4.832e-6
-1.407, 4.763e-6
-1.408, 4.901e-6
-1.409, 5.010e-6
-1.410, 5.020e-6
-1.411, 5.059e-6
-1.412, 5.099e-6
-1.413, 5.099e-6
-1.414, 5.178e-6
-1.415, 5.237e-6
-1.416, 5.336e-6
-1.417, 5.276e-6
-1.418, 5.385e-6
-1.419, 5.493e-6
-1.420, 5.612e-6
-1.421, 5.651e-6
-1.422, 5.651e-6
-1.423, 5.829e-6
-1.424, 5.809e-6
-1.425, 5.908e-6
-1.426, 5.927e-6
-1.427, 5.987e-6
-1.428, 6.135e-6
-1.429, 6.135e-6
-1.430, 6.243e-6
-1.431, 6.460e-6
-1.432, 6.342e-6
-1.433, 6.618e-6
-1.434, 6.766e-6
-1.435, 6.727e-6
-1.436, 6.786e-6
-1.437, 6.894e-6
-1.438, 7.032e-6
-1.439, 7.102e-6
-1.440, 7.210e-6
-1.441, 7.309e-6
-1.442, 7.407e-6
-1.443, 7.555e-6
-1.444, 7.536e-6
-1.445, 7.634e-6
-1.446, 7.792e-6
-1.447, 7.960e-6
-1.448, 8.029e-6
-1.449, 8.177e-6
-1.450, 8.236e-6
-1.451, 8.276e-6
-1.452, 8.394e-6
-1.453, 8.779e-6
-1.454, 8.779e-6
-1.455, 8.907e-6
-1.456, 9.035e-6
-1.457, 9.055e-6
-1.458, 9.223e-6
-1.459, 9.509e-6
-1.460, 9.677e-6
-1.461, 9.716e-6
-1.462, 9.815e-6
-1.463, 1.013e-5
-1.464, 1.013e-5
-1.465, 1.041e-5
-1.466, 1.048e-5
-1.467, 1.069e-5
-1.468, 1.093e-5
-1.469, 1.106e-5
-1.470, 1.118e-5
-1.471, 1.141e-5
-1.472, 1.159e-5
-1.473, 1.181e-5
-1.474, 1.202e-5
-1.475, 1.210e-5
-1.476, 1.244e-5
-1.477, 1.256e-5
-1.478, 1.288e-5
-1.479, 1.304e-5
-1.480, 1.332e-5
-1.481, 1.347e-5
-1.482, 1.379e-5
-1.483, 1.410e-5
-1.484, 1.420e-5
-1.485, 1.457e-5
-1.486, 1.490e-5
-1.487, 1.509e-5
-1.488, 1.546e-5
-1.489, 1.576e-5
-1.490, 1.597e-5
-1.491, 1.637e-5
-1.492, 1.665e-5
-1.493, 1.700e-5
-1.494, 1.724e-5
-1.495, 1.769e-5
-1.496, 1.801e-5
-1.497, 1.833e-5
-1.498, 1.885e-5
-1.499, 1.900e-5
-1.500, 1.946e-5
-1.501, 1.993e-5
-1.502, 2.021e-5
-1.503, 2.068e-5
-1.504, 2.114e-5
-1.505, 2.158e-5
-1.506, 2.197e-5
-1.507, 2.244e-5
-1.508, 2.295e-5
-1.509, 2.335e-5
-1.510, 2.387e-5
-1.511, 2.436e-5
-1.512, 2.485e-5
-1.513, 2.545e-5
-1.514, 2.595e-5
-1.515, 2.638e-5
-1.516, 2.693e-5
-1.517, 2.765e-5
-1.518, 2.824e-5
-1.519, 2.873e-5
-1.520, 2.933e-5
-1.521, 2.984e-5
-1.522, 3.058e-5
-1.523, 3.132e-5
-1.524, 3.191e-5
-1.525, 3.255e-5
-1.526, 3.327e-5
-1.527, 3.396e-5
-1.528, 3.463e-5
-1.529, 3.539e-5
-1.530, 3.613e-5
-1.531, 3.687e-5
-1.532, 3.753e-5
-1.533, 3.827e-5
-1.534, 3.902e-5
-1.535, 3.991e-5
-1.536, 4.077e-5
-1.537, 4.154e-5
-1.538, 4.248e-5
-1.539, 4.320e-5
-1.540, 4.421e-5
-1.541, 4.499e-5
-1.542, 4.598e-5
-1.543, 4.694e-5
-1.544, 4.778e-5
-1.545, 4.879e-5
-1.546, 4.978e-5
-1.547, 5.074e-5
-1.548, 5.183e-5
-1.549, 5.293e-5
-1.550, 5.388e-5
-1.551, 5.495e-5
-1.552, 5.602e-5
-1.553, 5.726e-5
-1.554, 5.833e-5
-1.555, 5.951e-5
-1.556, 6.066e-5
-1.557, 6.178e-5
-1.558, 6.311e-5
-1.559, 6.427e-5
-1.560, 6.547e-5
-1.561, 6.681e-5
-1.562, 6.814e-5
-1.563, 6.942e-5
-1.564, 7.077e-5
-1.565, 7.215e-5
-1.566, 7.353e-5
-1.567, 7.493e-5
-1.568, 7.651e-5
-1.569, 7.792e-5
-1.570, 7.936e-5
-1.571, 8.093e-5
-1.572, 8.245e-5
-1.573, 8.399e-5
-1.574, 8.565e-5
-1.575, 8.728e-5
-1.576, 8.889e-5
-1.577, 9.064e-5
-1.578, 9.242e-5
-1.579, 9.395e-5
-1.580, 9.588e-5
-1.581, 9.769e-5
-1.582, 9.948e-5
-1.583, 1.013e-4
-1.584, 1.032e-4
-1.585, 1.052e-4
-1.586, 1.071e-4
-1.587, 1.090e-4
-1.588, 1.111e-4
-1.589, 1.130e-4
-1.590, 1.151e-4
-1.591, 1.173e-4
-1.592, 1.193e-4
-1.593, 1.215e-4
-1.594, 1.237e-4
-1.595, 1.258e-4
-1.596, 1.280e-4
-1.597, 1.303e-4
-1.598, 1.327e-4
-1.599, 1.351e-4
-1.600, 1.375e-4
-1.601, 1.400e-4
-1.602, 1.423e-4
-1.603, 1.448e-4
-1.604, 1.474e-4
-1.605, 1.499e-4
-1.606, 1.525e-4
-1.607, 1.552e-4
-1.608, 1.581e-4
-1.609, 1.606e-4
-1.610, 1.634e-4
-1.611, 1.662e-4
-1.612, 1.689e-4
-1.613, 1.719e-4
-1.614, 1.748e-4
-1.615, 1.778e-4
-1.616, 1.807e-4
-1.617, 1.837e-4
-1.618, 1.868e-4
-1.619, 1.900e-4
-1.620, 1.932e-4
-1.621, 1.964e-4
-1.622, 1.995e-4
-1.623, 2.030e-4
-1.624, 2.063e-4
-1.625, 2.096e-4
-1.626, 2.132e-4
-1.627, 2.164e-4
-1.628, 2.199e-4
-1.629, 2.234e-4
-1.630, 2.269e-4
-1.631, 2.304e-4
-1.632, 2.341e-4
-1.633, 2.380e-4
-1.634, 2.418e-4
-1.635, 2.455e-4
-1.636, 2.491e-4
-1.637, 2.531e-4
-1.638, 2.573e-4
-1.639, 2.614e-4
-1.640, 2.655e-4
-1.641, 2.696e-4
-1.642, 2.737e-4
-1.643, 2.778e-4
-1.644, 2.820e-4
-1.645, 2.863e-4
-1.646, 2.909e-4
-1.647, 2.954e-4
-1.648, 2.999e-4
-1.649, 3.040e-4
-1.650, 3.084e-4
-1.651, 3.130e-4
-1.652, 3.176e-4
-1.653, 3.227e-4
-1.654, 3.272e-4
-1.655, 3.322e-4
-1.656, 3.369e-4
-1.657, 3.415e-4
-1.658, 3.469e-4
-1.659, 3.518e-4
-1.660, 3.570e-4
-1.661, 3.621e-4
-1.662, 3.676e-4
-1.663, 3.730e-4
-1.664, 3.782e-4
-1.665, 3.837e-4
-1.666, 3.890e-4
-1.667, 3.950e-4
-1.668, 4.003e-4
-1.669, 4.058e-4
-1.670, 4.115e-4
-1.671, 4.169e-4
-1.672, 4.224e-4
-1.673, 4.279e-4
-1.674, 4.335e-4
-1.675, 4.398e-4
-1.676, 4.458e-4
-1.677, 4.521e-4
-1.678, 4.581e-4
-1.679, 4.646e-4
-1.680, 4.706e-4
-1.681, 4.765e-4
-1.682, 4.828e-4
-1.683, 4.891e-4
-1.684, 4.963e-4
-1.685, 5.036e-4
-1.686, 5.101e-4
-1.687, 5.165e-4
-1.688, 5.231e-4
-1.689, 5.292e-4
-1.690, 5.371e-4
-1.691, 5.445e-4
-1.692, 5.513e-4
-1.693, 5.585e-4
-1.694, 5.652e-4
-1.695, 5.727e-4
-1.696, 5.805e-4
-1.697, 5.872e-4
-1.698, 5.943e-4
-1.699, 6.022e-4
-1.700, 6.097e-4
-1.701, 6.173e-4
-1.702, 6.251e-4
-1.703, 6.329e-4
-1.704, 6.408e-4
-1.705, 6.492e-4
-1.706, 6.568e-4
-1.707, 6.641e-4
-1.708, 6.724e-4
-1.709, 6.817e-4
-1.710, 6.905e-4
-1.711, 6.981e-4
-1.712, 7.051e-4
-1.713, 7.130e-4
-1.714, 7.223e-4
-1.715, 7.322e-4
-1.716, 7.412e-4
-1.717, 7.498e-4
-1.718, 7.589e-4
-1.719, 7.677e-4
-1.720, 7.780e-4
-1.721, 7.876e-4
-1.722, 7.962e-4
-1.723, 8.058e-4
-1.724, 8.158e-4
-1.725, 8.245e-4
-1.726, 8.338e-4
-1.727, 8.445e-4
-1.728, 8.538e-4
-1.729, 8.638e-4
-1.730, 8.734e-4
-1.731, 8.836e-4
-1.732, 8.932e-4
-1.733, 9.036e-4
-1.734, 9.147e-4
-1.735, 9.257e-4
-1.736, 9.357e-4
-1.737, 9.467e-4
-1.738, 9.591e-4
-1.739, 9.685e-4
-1.740, 9.813e-4
-1.741, 9.926e-4
-1.742, 1.001e-3
-1.743, 1.011e-3
-1.744, 1.022e-3
-1.745, 1.035e-3
-1.746, 1.046e-3
-1.747, 1.058e-3
-1.748, 1.070e-3
-1.749, 1.082e-3
-1.750, 1.095e-3
-1.751, 1.104e-3
-1.752, 1.115e-3
-1.753, 1.128e-3
-1.754, 1.142e-3
-1.755, 1.153e-3
-1.756, 1.166e-3
-1.757, 1.179e-3
-1.758, 1.193e-3
-1.759, 1.204e-3
-1.760, 1.216e-3
-1.761, 1.228e-3
-1.762, 1.243e-3
-1.763, 1.257e-3
-1.764, 1.269e-3
-1.765, 1.281e-3
-1.766, 1.297e-3
-1.767, 1.311e-3
-1.768, 1.323e-3
-1.769, 1.335e-3
-1.770, 1.349e-3
-1.771, 1.365e-3
-1.772, 1.377e-3
-1.773, 1.391e-3
-1.774, 1.409e-3
-1.775, 1.424e-3
-1.776, 1.436e-3
-1.777, 1.451e-3
-1.778, 1.467e-3
-1.779, 1.480e-3
-1.780, 1.497e-3
-1.781, 1.513e-3
-1.782, 1.529e-3
-1.783, 1.544e-3
-1.784, 1.558e-3
-1.785, 1.577e-3
-1.786, 1.589e-3
-1.787, 1.607e-3
-1.788, 1.627e-3
-1.789, 1.643e-3
-1.790, 1.656e-3
-1.791, 1.673e-3
-1.792, 1.687e-3
-1.793, 1.708e-3
-1.794, 1.722e-3
-1.795, 1.738e-3
-1.796, 1.754e-3
-1.797, 1.772e-3
-1.798, 1.788e-3
-1.799, 1.804e-3
-1.800, 1.820e-3
-1.801, 1.841e-3
-1.802, 1.860e-3
-1.803, 1.880e-3
-1.804, 1.897e-3
-1.805, 1.914e-3
-1.806, 1.929e-3
-1.807, 1.947e-3
-1.808, 1.966e-3
-1.809, 1.987e-3
-1.810, 2.006e-3
-1.811, 2.024e-3
-1.812, 2.045e-3
-1.813, 2.066e-3
-1.814, 2.081e-3
-1.815, 2.101e-3
-1.816, 2.124e-3
-1.817, 2.150e-3
-1.818, 2.164e-3
-1.819, 2.184e-3
-1.820, 2.209e-3
-1.821, 2.227e-3
-1.822, 2.243e-3
-1.823, 2.261e-3
-1.824, 2.281e-3
-1.825, 2.301e-3
-1.826, 2.321e-3
-1.827, 2.345e-3
-1.828, 2.366e-3
-1.829, 2.387e-3
-1.830, 2.411e-3
-1.831, 2.435e-3
-1.832, 2.451e-3
-1.833, 2.476e-3
-1.834, 2.506e-3
-1.835, 2.528e-3
-1.836, 2.545e-3
-1.837, 2.566e-3
-1.838, 2.589e-3
-1.839, 2.617e-3
-1.840, 2.635e-3
-1.841, 2.660e-3
-1.842, 2.681e-3
-1.843, 2.705e-3
-1.844, 2.732e-3
-1.845, 2.753e-3
-1.846, 2.772e-3
-1.847, 2.794e-3
-1.848, 2.821e-3
-1.849, 2.839e-3
-1.850, 2.871e-3
-1.851, 2.898e-3
-1.852, 2.920e-3
-1.853, 2.940e-3
-1.854, 2.963e-3
-1.855, 2.997e-3
-1.856, 3.026e-3
-1.857, 3.058e-3
-1.858, 3.080e-3
-1.859, 3.103e-3
-1.860, 3.130e-3
-1.861, 3.155e-3
-1.862, 3.185e-3
-1.863, 3.211e-3
-1.864, 3.244e-3
-1.865, 3.285e-3
-1.866, 3.304e-3
-1.867, 3.334e-3
-1.868, 3.358e-3
-1.869, 3.387e-3
-1.870, 3.418e-3
-1.871, 3.446e-3
-1.872, 3.462e-3
-1.873, 3.490e-3
-1.874, 3.523e-3
-1.875, 3.567e-3
-1.876, 3.594e-3
-1.877, 3.609e-3
-1.878, 3.639e-3
-1.879, 3.668e-3
-1.880, 3.697e-3
-1.881, 3.725e-3
-1.882, 3.754e-3
-1.883, 3.787e-3
-1.884, 3.819e-3
-1.885, 3.853e-3
-1.886, 3.879e-3
-1.887, 3.911e-3
-1.888, 3.953e-3
-1.889, 3.985e-3
-1.890, 4.029e-3
-1.891, 4.061e-3
-1.892, 4.087e-3
-1.893, 4.115e-3
-1.894, 4.141e-3
-1.895, 4.187e-3
-1.896, 4.225e-3
-1.897, 4.246e-3
-1.898, 4.265e-3
-1.899, 4.299e-3
-1.900, 4.354e-3
-1.901, 4.407e-3
-1.902, 4.442e-3
-1.903, 4.459e-3
-1.904, 4.477e-3
-1.905, 4.502e-3
-1.906, 4.545e-3
-1.907, 4.592e-3
-1.908, 4.645e-3
-1.909, 4.680e-3
-1.910, 4.709e-3
-1.911, 4.741e-3
-1.912, 4.774e-3
-1.913, 4.821e-3
-1.914, 4.861e-3
-1.915, 4.895e-3
-1.916, 4.931e-3
-1.917, 4.972e-3
-1.918, 5.012e-3
-1.919, 5.055e-3
-1.920, 5.092e-3
-1.921, 5.129e-3
-1.922, 5.170e-3
-1.923, 5.220e-3
-1.924, 5.263e-3
-1.925, 5.300e-3
-1.926, 5.335e-3
-1.927, 5.384e-3
-1.928, 5.435e-3
-1.929, 5.462e-3
-1.930, 5.512e-3
-1.931, 5.559e-3
-1.932, 5.598e-3
-1.933, 5.645e-3
-1.934, 5.687e-3
-1.935, 5.729e-3
-1.936, 5.780e-3
-1.937, 5.812e-3
-1.938, 5.884e-3
-1.939, 5.938e-3
-1.940, 6.008e-3
-1.941, 6.060e-3
-1.942, 6.089e-3
-1.943, 6.099e-3
-1.944, 6.154e-3
-1.945, 6.223e-3
-1.946, 6.279e-3
-1.947, 6.319e-3
-1.948, 6.372e-3
-1.949, 6.413e-3
-1.950, 6.437e-3
-1.951, 6.500e-3
-1.952, 6.526e-3
-1.953, 6.570e-3
-1.954, 6.640e-3
-1.955, 6.689e-3
-1.956, 6.733e-3
-1.957, 6.785e-3
-1.958, 6.831e-3
-1.959, 6.869e-3
-1.960, 6.902e-3
-1.961, 6.950e-3
-1.962, 7.001e-3
-1.963, 7.062e-3
-1.964, 7.110e-3
-1.965, 7.147e-3
-1.966, 7.185e-3
-1.967, 7.266e-3
-1.968, 7.332e-3
-1.969, 7.378e-3
-1.970, 7.422e-3
-1.971, 7.476e-3
-1.972, 7.510e-3
-1.973, 7.541e-3
-1.974, 7.625e-3
-1.975, 7.692e-3
-1.976, 7.750e-3
-1.977, 7.826e-3
-1.978, 7.824e-3
-1.979, 7.852e-3
-1.980, 7.905e-3
-1.981, 7.918e-3
-1.982, 8.015e-3
-1.983, 8.095e-3
-1.984, 8.110e-3
-1.985, 8.143e-3
-1.986, 8.158e-3
-1.987, 8.148e-3
-1.988, 8.208e-3
-1.989, 8.287e-3
-1.990, 8.291e-3
-1.991, 8.308e-3
-1.992, 8.390e-3
-1.993, 8.423e-3
-1.994, 8.454e-3
-1.995, 8.474e-3
-1.996, 8.561e-3
-1.997, 8.623e-3
-1.998, 8.665e-3
-1.999, 8.723e-3
-2.000, 8.687e-3
-1.999, 8.640e-3
-1.998, 8.588e-3
-1.997, 8.512e-3
-1.996, 8.475e-3
-1.995, 8.437e-3
-1.994, 8.456e-3
-1.993, 8.420e-3
-1.992, 8.359e-3
-1.991, 8.279e-3
-1.990, 8.206e-3
-1.989, 8.152e-3
-1.988, 8.100e-3
-1.987, 8.055e-3
-1.986, 7.991e-3
-1.985, 7.926e-3
-1.984, 7.852e-3
-1.983, 7.789e-3
-1.982, 7.747e-3
-1.981, 7.694e-3
-1.980, 7.627e-3
-1.979, 7.574e-3
-1.978, 7.522e-3
-1.977, 7.460e-3
-1.976, 7.424e-3
-1.975, 7.388e-3
-1.974, 7.314e-3
-1.973, 7.222e-3
-1.972, 7.156e-3
-1.971, 7.128e-3
-1.970, 7.091e-3
-1.969, 7.094e-3
-1.968, 7.006e-3
-1.967, 6.965e-3
-1.966, 6.970e-3
-1.965, 6.928e-3
-1.964, 6.857e-3
-1.963, 6.800e-3
-1.962, 6.748e-3
-1.961, 6.703e-3
-1.960, 6.664e-3
-1.959, 6.638e-3
-1.958, 6.584e-3
-1.957, 6.539e-3
-1.956, 6.455e-3
-1.955, 6.412e-3
-1.954, 6.412e-3
-1.953, 6.282e-3
-1.952, 6.235e-3
-1.951, 6.212e-3
-1.950, 6.155e-3
-1.949, 6.074e-3
-1.948, 6.058e-3
-1.947, 6.023e-3
-1.946, 5.957e-3
-1.945, 5.893e-3
-1.944, 5.879e-3
-1.943, 5.819e-3
-1.942, 5.789e-3
-1.941, 5.746e-3
-1.940, 5.687e-3
-1.939, 5.644e-3
-1.938, 5.586e-3
-1.937, 5.537e-3
-1.936, 5.492e-3
-1.935, 5.445e-3
-1.934, 5.401e-3
-1.933, 5.354e-3
-1.932, 5.306e-3
-1.931, 5.263e-3
-1.930, 5.215e-3
-1.929, 5.175e-3
-1.928, 5.129e-3
-1.927, 5.081e-3
-1.926, 5.026e-3
-1.925, 5.001e-3
-1.924, 4.970e-3
-1.923, 4.953e-3
-1.922, 4.910e-3
-1.921, 4.852e-3
-1.920, 4.813e-3
-1.919, 4.768e-3
-1.918, 4.742e-3
-1.917, 4.702e-3
-1.916, 4.659e-3
-1.915, 4.636e-3
-1.914, 4.614e-3
-1.913, 4.579e-3
-1.912, 4.541e-3
-1.911, 4.484e-3
-1.910, 4.453e-3
-1.909, 4.427e-3
-1.908, 4.396e-3
-1.907, 4.377e-3
-1.906, 4.355e-3
-1.905, 4.281e-3
-1.904, 4.216e-3
-1.903, 4.184e-3
-1.902, 4.172e-3
-1.901, 4.167e-3
-1.900, 4.136e-3
-1.899, 4.089e-3
-1.898, 4.074e-3
-1.897, 4.055e-3
-1.896, 4.019e-3
-1.895, 3.996e-3
-1.894, 3.952e-3
-1.893, 3.904e-3
-1.892, 3.873e-3
-1.891, 3.844e-3
-1.890, 3.813e-3
-1.889, 3.773e-3
-1.888, 3.737e-3
-1.887, 3.706e-3
-1.886, 3.679e-3
-1.885, 3.641e-3
-1.884, 3.610e-3
-1.883, 3.582e-3
-1.882, 3.540e-3
-1.881, 3.503e-3
-1.880, 3.483e-3
-1.879, 3.451e-3
-1.878, 3.412e-3
-1.877, 3.376e-3
-1.876, 3.346e-3
-1.875, 3.315e-3
-1.874, 3.280e-3
-1.873, 3.261e-3
-1.872, 3.226e-3
-1.871, 3.194e-3
-1.870, 3.180e-3
-1.869, 3.165e-3
-1.868, 3.145e-3
-1.867, 3.106e-3
-1.866, 3.070e-3
-1.865, 3.030e-3
-1.864, 2.993e-3
-1.863, 2.981e-3
-1.862, 2.949e-3
-1.861, 2.914e-3
-1.860, 2.889e-3
-1.859, 2.863e-3
-1.858, 2.854e-3
-1.857, 2.830e-3
-1.856, 2.800e-3
-1.855, 2.774e-3
-1.854, 2.744e-3
-1.853, 2.717e-3
-1.852, 2.692e-3
-1.851, 2.678e-3
-1.850, 2.656e-3
-1.849, 2.636e-3
-1.848, 2.602e-3
-1.847, 2.563e-3
-1.846, 2.560e-3
-1.845, 2.533e-3
-1.844, 2.485e-3
-1.843, 2.462e-3
-1.842, 2.444e-3
-1.841, 2.423e-3
-1.840, 2.407e-3
-1.839, 2.375e-3
-1.838, 2.353e-3
-1.837, 2.337e-3
-1.836, 2.315e-3
-1.835, 2.281e-3
-1.834, 2.249e-3
-1.833, 2.226e-3
-1.832, 2.211e-3
-1.831, 2.194e-3
-1.830, 2.175e-3
-1.829, 2.153e-3
-1.828, 2.134e-3
-1.827, 2.104e-3
-1.826, 2.083e-3
-1.825, 2.064e-3
-1.824, 2.049e-3
-1.823, 2.029e-3
-1.822, 2.006e-3
-1.821, 1.981e-3
-1.820, 1.968e-3
-1.819, 1.950e-3
-1.818, 1.929e-3
-1.817, 1.908e-3
-1.816, 1.889e-3
-1.815, 1.874e-3
-1.814, 1.852e-3
-1.813, 1.835e-3
-1.812, 1.818e-3
-1.811, 1.798e-3
-1.810, 1.780e-3
-1.809, 1.763e-3
-1.808, 1.743e-3
-1.807, 1.725e-3
-1.806, 1.704e-3
-1.805, 1.690e-3
-1.804, 1.676e-3
-1.803, 1.657e-3
-1.802, 1.639e-3
-1.801, 1.623e-3
-1.800, 1.605e-3
-1.799, 1.586e-3
-1.798, 1.569e-3
-1.797, 1.555e-3
-1.796, 1.542e-3
-1.795, 1.525e-3
-1.794, 1.505e-3
-1.793, 1.487e-3
-1.792, 1.473e-3
-1.791, 1.458e-3
-1.790, 1.445e-3
-1.789, 1.428e-3
-1.788, 1.413e-3
-1.787, 1.400e-3
-1.786, 1.385e-3
-1.785, 1.372e-3
-1.784, 1.356e-3
-1.783, 1.339e-3
-1.782, 1.325e-3
-1.781, 1.311e-3
-1.780, 1.297e-3
-1.779, 1.281e-3
-1.778, 1.268e-3
-1.777, 1.256e-3
-1.776, 1.244e-3
-1.775, 1.230e-3
-1.774, 1.215e-3
-1.773, 1.202e-3
-1.772, 1.188e-3
-1.771, 1.175e-3
-1.770, 1.163e-3
-1.769, 1.149e-3
-1.768, 1.138e-3
-1.767, 1.123e-3
-1.766, 1.110e-3
-1.765, 1.098e-3
-1.764, 1.086e-3
-1.763, 1.072e-3
-1.762, 1.063e-3
-1.761, 1.051e-3
-1.760, 1.038e-3
-1.759, 1.025e-3
-1.758, 1.013e-3
-1.757, 1.005e-3
-1.756, 9.932e-4
-1.755, 9.751e-4
-1.754, 9.676e-4
-1.753, 9.583e-4
-1.752, 9.474e-4
-1.751, 9.343e-4
-1.750, 9.217e-4
-1.749, 9.127e-4
-1.748, 9.025e-4
-1.747, 8.917e-4
-1.746, 8.814e-4
-1.745, 8.699e-4
-1.744, 8.592e-4
-1.743, 8.498e-4
-1.742, 8.407e-4
-1.741, 8.320e-4
-1.740, 8.212e-4
-1.739, 8.109e-4
-1.738, 8.002e-4
-1.737, 7.911e-4
-1.736, 7.813e-4
-1.735, 7.727e-4
-1.734, 7.632e-4
-1.733, 7.546e-4
-1.732, 7.454e-4
-1.731, 7.358e-4
-1.730, 7.272e-4
-1.729, 7.186e-4
-1.728, 7.100e-4
-1.727, 6.995e-4
-1.726, 6.934e-4
-1.725, 6.860e-4
-1.724, 6.773e-4
-1.723, 6.692e-4
-1.722, 6.611e-4
-1.721, 6.529e-4
-1.720, 6.444e-4
-1.719, 6.347e-4
-1.718, 6.273e-4
-1.717, 6.202e-4
-1.716, 6.129e-4
-1.715, 6.044e-4
-1.714, 5.971e-4
-1.713, 5.903e-4
-1.712, 5.825e-4
-1.711, 5.750e-4
-1.710, 5.683e-4
-1.709, 5.608e-4
-1.708, 5.534e-4
-1.707, 5.458e-4
-1.706, 5.395e-4
-1.705, 5.339e-4
-1.704, 5.267e-4
-1.703, 5.181e-4
-1.702, 5.128e-4
-1.701, 5.074e-4
-1.700, 5.016e-4
-1.699, 4.943e-4
-1.698, 4.868e-4
-1.697, 4.805e-4
-1.696, 4.749e-4
-1.695, 4.692e-4
-1.694, 4.639e-4
-1.693, 4.569e-4
-1.692, 4.509e-4
-1.691, 4.449e-4
-1.690, 4.390e-4
-1.689, 4.333e-4
-1.688, 4.281e-4
-1.687, 4.220e-4
-1.686, 4.169e-4
-1.685, 4.112e-4
-1.684, 4.060e-4
-1.683, 4.009e-4
-1.682, 3.956e-4
-1.681, 3.904e-4
-1.680, 3.853e-4
-1.679, 3.807e-4
-1.678, 3.756e-4
-1.677, 3.698e-4
-1.676, 3.649e-4
-1.675, 3.604e-4
-1.674, 3.552e-4
-1.673, 3.503e-4
-1.672, 3.455e-4
-1.671, 3.407e-4
-1.670, 3.362e-4
-1.669, 3.318e-4
-1.668, 3.269e-4
-1.667, 3.224e-4
-1.666, 3.177e-4
-1.665, 3.132e-4
-1.664, 3.094e-4
-1.663, 3.054e-4
-1.662, 3.016e-4
-1.661, 2.973e-4
-1.660, 2.928e-4
-1.659, 2.888e-4
-1.658, 2.848e-4
-1.657, 2.810e-4
-1.656, 2.772e-4
-1.655, 2.736e-4
-1.654, 2.699e-4
-1.653, 2.663e-4
-1.652, 2.624e-4
-1.651, 2.586e-4
-1.650, 2.549e-4
-1.649, 2.514e-4
-1.648, 2.478e-4
-1.647, 2.446e-4
-1.646, 2.412e-4
-1.645, 2.376e-4
-1.644, 2.341e-4
-1.643, 2.310e-4
-1.642, 2.279e-4
-1.641, 2.246e-4
-1.640, 2.216e-4
-1.639, 2.185e-4
-1.638, 2.155e-4
-1.637, 2.124e-4
-1.636, 2.095e-4
-1.635, 2.062e-4
-1.634, 2.033e-4
-1.633, 2.004e-4
-1.632, 1.975e-4
-1.631, 1.945e-4
-1.630, 1.915e-4
-1.629, 1.886e-4
-1.628, 1.860e-4
-1.627, 1.832e-4
-1.626, 1.804e-4
-1.625, 1.778e-4
-1.624, 1.755e-4
-1.623, 1.727e-4
-1.622, 1.704e-4
-1.621, 1.677e-4
-1.620, 1.652e-4
-1.619, 1.629e-4
-1.618, 1.606e-4
-1.617, 1.582e-4
-1.616, 1.556e-4
-1.615, 1.532e-4
-1.614, 1.509e-4
-1.613, 1.488e-4
-1.612, 1.466e-4
-1.611, 1.442e-4
-1.610, 1.421e-4
-1.609, 1.401e-4
-1.608, 1.378e-4
-1.607, 1.358e-4
-1.606, 1.337e-4
-1.605, 1.315e-4
-1.604, 1.294e-4
-1.603, 1.276e-4
-1.602, 1.255e-4
-1.601, 1.236e-4
-1.600, 1.216e-4
-1.599, 1.198e-4
-1.598, 1.180e-4
-1.597, 1.162e-4
-1.596, 1.145e-4
-1.595, 1.127e-4
-1.594, 1.109e-4
-1.593, 1.093e-4
-1.592, 1.075e-4
-1.591, 1.059e-4
-1.590, 1.043e-4
-1.589, 1.028e-4
-1.588, 1.012e-4
-1.587, 9.931e-5
-1.586, 9.780e-5
-1.585, 9.617e-5
-1.584, 9.474e-5
-1.583, 9.322e-5
-1.582, 9.160e-5
-1.581, 9.015e-5
-1.580, 8.854e-5
-1.579, 8.710e-5
-1.578, 8.578e-5
-1.577, 8.442e-5
-1.576, 8.300e-5
-1.575, 8.167e-5
-1.574, 8.025e-5
-1.573, 7.906e-5
-1.572, 7.768e-5
-1.571, 7.642e-5
-1.570, 7.517e-5
-1.569, 7.400e-5
-1.568, 7.286e-5
-1.567, 7.159e-5
-1.566, 7.040e-5
-1.565, 6.921e-5
-1.564, 6.798e-5
-1.563, 6.697e-5
-1.562, 6.574e-5
-1.561, 6.460e-5
-1.560, 6.358e-5
-1.559, 6.252e-5
-1.558, 6.153e-5
-1.557, 6.058e-5
-1.556, 5.955e-5
-1.555, 5.837e-5
-1.554, 5.739e-5
-1.553, 5.642e-5
-1.552, 5.554e-5
-1.551, 5.462e-5
-1.550, 5.363e-5
-1.549, 5.269e-5
-1.548, 5.180e-5
-1.547, 5.091e-5
-1.546, 5.012e-5
-1.545, 4.926e-5
-1.544, 4.848e-5
-1.543, 4.769e-5
-1.542, 4.679e-5
-1.541, 4.604e-5
-1.540, 4.516e-5
-1.539, 4.439e-5
-1.538, 4.368e-5
-1.537, 4.296e-5
-1.536, 4.211e-5
-1.535, 4.128e-5
-1.534, 4.068e-5
-1.533, 3.988e-5
-1.532, 3.918e-5
-1.531, 3.849e-5
-1.530, 3.777e-5
-1.529, 3.719e-5
-1.528, 3.647e-5
-1.527, 3.582e-5
-1.526, 3.521e-5
-1.525, 3.450e-5
-1.524, 3.384e-5
-1.523, 3.322e-5
-1.522, 3.257e-5
-1.521, 3.211e-5
-1.520, 3.139e-5
-1.519, 3.090e-5
-1.518, 3.031e-5
-1.517, 2.971e-5
-1.516, 2.923e-5
-1.515, 2.857e-5
-1.514, 2.815e-5
-1.513, 2.755e-5
-1.512, 2.701e-5
-1.511, 2.655e-5
-1.510, 2.593e-5
-1.509, 2.555e-5
-1.508, 2.508e-5
-1.507, 2.458e-5
-1.506, 2.413e-5
-1.505, 2.372e-5
-1.504, 2.326e-5
-1.503, 2.279e-5
-1.502, 2.232e-5
-1.501, 2.193e-5
-1.500, 2.134e-5
-1.499, 2.111e-5
-1.498, 2.069e-5
-1.497, 2.015e-5
-1.496, 1.988e-5
-1.495, 1.943e-5
-1.494, 1.907e-5
-1.493, 1.871e-5
-1.492, 1.827e-5
-1.491, 1.796e-5
-1.490, 1.756e-5
-1.489, 1.736e-5
-1.488, 1.697e-5
-1.487, 1.667e-5
-1.486, 1.631e-5
-1.485, 1.602e-5
-1.484, 1.567e-5
-1.483, 1.529e-5
-1.482, 1.510e-5
-1.481, 1.474e-5
-1.480, 1.441e-5
-1.479, 1.424e-5
-1.478, 1.383e-5
-1.477, 1.354e-5
-1.476, 1.335e-5
-1.475, 1.305e-5
-1.474, 1.284e-5
-1.473, 1.262e-5
-1.472, 1.225e-5
-1.471, 1.198e-5
-1.470, 1.178e-5
-1.469, 1.150e-5
-1.468, 1.122e-5
-1.467, 1.111e-5
-1.466, 1.082e-5
-1.465, 1.055e-5
-1.464, 1.042e-5
-1.463, 1.019e-5
-1.462, 9.963e-6
-1.461, 9.815e-6
-1.460, 9.558e-6
-1.459, 9.381e-6
-1.458, 9.193e-6
-1.457, 8.946e-6
-1.456, 8.798e-6
-1.455, 8.572e-6
-1.454, 8.522e-6
-1.453, 8.197e-6
-1.452, 8.078e-6
-1.451, 7.940e-6
-1.450, 7.654e-6
-1.449, 7.654e-6
-1.448, 7.348e-6
-1.447, 7.180e-6
-1.446, 7.003e-6
-1.445, 6.884e-6
-1.444, 6.776e-6
-1.443, 6.677e-6
-1.442, 6.411e-6
-1.441, 6.401e-6
-1.440, 6.075e-6
-1.439, 6.125e-6
-1.438, 6.006e-6
-1.437, 5.819e-6
-1.436, 5.770e-6
-1.435, 5.572e-6
-1.434, 5.503e-6
-1.433, 5.128e-6
-1.432, 5.099e-6
-1.431, 5.020e-6
-1.430, 4.862e-6
-1.429, 4.842e-6
-1.428, 4.615e-6
-1.427, 4.497e-6
-1.426, 4.448e-6
-1.425, 4.319e-6
-1.424, 4.231e-6
-1.423, 4.043e-6
-1.422, 3.994e-6
-1.421, 3.944e-6
-1.420, 3.727e-6
-1.419, 3.816e-6
-1.418, 3.589e-6
-1.417, 3.441e-6
-1.416, 3.372e-6
-1.415, 3.293e-6
-1.414, 3.254e-6
-1.413, 3.195e-6
-1.412, 3.096e-6
-1.411, 2.908e-6
-1.410, 2.908e-6
-1.409, 2.918e-6
-1.408, 2.731e-6
-1.407, 2.672e-6
-1.406, 2.563e-6
-1.405, 2.484e-6
-1.404, 2.386e-6
-1.403, 2.366e-6
-1.402, 2.326e-6
-1.401, 2.178e-6
-1.400, 2.188e-6
-1.399, 2.169e-6
-1.398, 1.991e-6
-1.397, 2.001e-6
-1.396, 1.882e-6
-1.395, 1.774e-6
-1.394, 1.843e-6
-1.393, 1.675e-6
-1.392, 1.606e-6
-1.391, 1.547e-6
-1.390, 1.488e-6
-1.389, 1.448e-6
-1.388, 1.399e-6
-1.387, 1.360e-6
-1.386, 1.300e-6
-1.385, 1.113e-6
-1.384, 1.192e-6
-1.383, 1.123e-6
-1.382, 9.452e-7
-1.381, 9.156e-7
-1.380, 8.564e-7
-1.379, 8.268e-7
-1.378, 8.268e-7
-1.377, 7.774e-7
-1.376, 6.294e-7
-1.375, 5.604e-7
-1.374, 6.393e-7
-1.373, 4.321e-7
-1.372, 4.716e-7
-1.371, 4.815e-7
-1.370, 3.729e-7
-1.369, 3.729e-7
-1.368, 2.743e-7
-1.367, 3.335e-7
-1.366, 1.756e-7
-1.365, 1.460e-7
-1.364, 2.447e-7
-1.363, 3.749e-8
-1.362, 1.776e-8
-1.361, 1.776e-8
-1.360, -1.184e-8
-1.359, 7.893e-9
-1.358, -1.302e-7
-1.357, -1.598e-7
-1.356, -1.993e-7
-1.355, -2.092e-7
-1.354, -1.796e-7
-1.353, -3.571e-7
-1.352, -2.980e-7
-1.351, -4.854e-7
-1.350, -5.347e-7
-1.349, -4.657e-7
-1.348, -4.755e-7
-1.347, -5.150e-7
-1.346, -6.433e-7
-1.345, -5.643e-7
-1.344, -5.841e-7
-1.343, -7.123e-7
-1.342, -6.038e-7
-1.341, -8.110e-7
-1.340, -7.617e-7
-1.339, -7.321e-7
-1.338, -8.011e-7
-1.337, -8.307e-7
-1.336, -8.307e-7
-1.335, -9.392e-7
-1.334, -8.899e-7
-1.333, -9.096e-7
-1.332, -1.018e-6
-1.331, -1.067e-6
-1.330, -1.067e-6
-1.329, -9.984e-7
-1.328, -1.127e-6
-1.327, -1.146e-6
-1.326, -1.097e-6
-1.325, -1.215e-6
-1.324, -1.176e-6
-1.323, -1.255e-6
-1.322, -1.265e-6
-1.321, -1.344e-6
-1.320, -1.255e-6
-1.319, -1.265e-6
-1.318, -1.344e-6
-1.317, -1.294e-6
-1.316, -1.413e-6
-1.315, -1.462e-6
-1.314, -1.314e-6
-1.313, -1.423e-6
-1.312, -1.442e-6
-1.311, -1.393e-6
-1.310, -1.383e-6
-1.309, -1.393e-6
-1.308, -1.541e-6
-1.307, -1.551e-6
-1.306, -1.551e-6
-1.305, -1.610e-6
-1.304, -1.561e-6
-1.303, -1.561e-6
-1.302, -1.551e-6
-1.301, -1.551e-6
-1.300, -1.669e-6
-1.299, -1.620e-6
-1.298, -1.640e-6
-1.297, -1.620e-6
-1.296, -1.699e-6
-1.295, -1.659e-6
-1.294, -1.571e-6
-1.293, -1.758e-6
-1.292, -1.719e-6
-1.291, -1.768e-6
-1.290, -1.807e-6
-1.289, -1.669e-6
-1.288, -1.709e-6
-1.287, -1.699e-6
-1.286, -1.719e-6
-1.285, -1.729e-6
-1.284, -1.650e-6
-1.283, -1.788e-6
-1.282, -1.778e-6
-1.281, -1.817e-6
-1.280, -1.857e-6
-1.279, -1.857e-6
-1.278, -1.798e-6
-1.277, -1.896e-6
-1.276, -1.877e-6
-1.275, -1.837e-6
-1.274, -1.699e-6
-1.273, -1.847e-6
-1.272, -1.817e-6
-1.271, -1.877e-6
-1.270, -1.798e-6
-1.269, -1.877e-6
-1.268, -1.896e-6
-1.267, -1.916e-6
-1.266, -1.926e-6
-1.265, -1.926e-6
-1.264, -1.837e-6
-1.263, -1.906e-6
-1.262, -1.867e-6
-1.261, -1.926e-6
-1.260, -1.906e-6
-1.259, -1.867e-6
-1.258, -1.955e-6
-1.257, -1.946e-6
-1.256, -1.936e-6
-1.255, -2.005e-6
-1.254, -1.936e-6
-1.253, -2.064e-6
-1.252, -2.005e-6
-1.251, -1.955e-6
-1.250, -1.975e-6
-1.249, -1.936e-6
-1.248, -2.054e-6
-1.247, -1.985e-6
-1.246, -2.074e-6
-1.245, -2.074e-6
-1.244, -1.896e-6
-1.243, -2.044e-6
-1.242, -2.064e-6
-1.241, -2.064e-6
-1.240, -2.044e-6
-1.239, -2.054e-6
-1.238, -2.064e-6
-1.237, -2.123e-6
-1.236, -2.084e-6
-1.235, -2.202e-6
-1.234, -2.034e-6
-1.233, -2.005e-6
-1.232, -2.054e-6
-1.231, -2.163e-6
-1.230, -2.094e-6
-1.229, -2.103e-6
-1.228, -2.291e-6
-1.227, -2.232e-6
-1.226, -2.261e-6
-1.225, -2.311e-6
-1.224, -2.172e-6
-1.223, -2.281e-6
-1.222, -2.301e-6
-1.221, -2.311e-6
-1.220, -2.320e-6
-1.219, -2.261e-6
-1.218, -2.360e-6
-1.217, -2.271e-6
-1.216, -2.311e-6
-1.215, -2.330e-6
-1.214, -2.271e-6
-1.213, -2.330e-6
-1.212, -2.291e-6
-1.211, -2.409e-6
-1.210, -2.311e-6
-1.209, -2.301e-6
-1.208, -2.330e-6
-1.207, -2.390e-6
-1.206, -2.370e-6
-1.205, -2.320e-6
-1.204, -2.340e-6
-1.203, -2.340e-6
-1.202, -2.488e-6
-1.201, -2.459e-6
-1.200, -2.399e-6
-1.199, -2.409e-6
-1.198, -2.439e-6
-1.197, -2.508e-6
-1.196, -2.449e-6
-1.195, -2.488e-6
-1.194, -2.468e-6
-1.193, -2.439e-6
-1.192, -2.498e-6
-1.191, -2.488e-6
-1.190, -2.587e-6
-1.189, -2.498e-6
-1.188, -2.478e-6
-1.187, -2.616e-6
-1.186, -2.528e-6
-1.185, -2.557e-6
-1.184, -2.577e-6
-1.183, -2.557e-6
-1.182, -2.626e-6
-1.181, -2.686e-6
-1.180, -2.597e-6
-1.179, -2.577e-6
-1.178, -2.646e-6
-1.177, -2.676e-6
-1.176, -2.794e-6
-1.175, -2.676e-6
-1.174, -2.636e-6
-1.173, -2.784e-6
-1.172, -2.686e-6
-1.171, -2.686e-6
-1.170, -2.715e-6
-1.169, -2.735e-6
-1.168, -2.705e-6
-1.167, -2.764e-6
-1.166, -2.676e-6
-1.165, -2.745e-6
-1.164, -2.834e-6
-1.163, -2.843e-6
-1.162, -2.794e-6
-1.161, -2.774e-6
-1.160, -2.814e-6
-1.159, -2.784e-6
-1.158, -2.952e-6
-1.157, -2.725e-6
-1.156, -2.922e-6
-1.155, -2.863e-6
-1.154, -2.853e-6
-1.153, -2.863e-6
-1.152, -2.893e-6
-1.151, -2.991e-6
-1.150, -2.893e-6
-1.149, -2.794e-6
-1.148, -2.843e-6
-1.147, -2.972e-6
-1.146, -2.962e-6
-1.145, -2.942e-6
-1.144, -2.972e-6
-1.143, -2.912e-6
-1.142, -2.932e-6
-1.141, -3.031e-6
-1.140, -2.972e-6
-1.139, -2.991e-6
-1.138, -3.060e-6
-1.137, -2.952e-6
-1.136, -3.070e-6
-1.135, -2.991e-6
-1.134, -3.070e-6
-1.133, -3.051e-6
-1.132, -3.041e-6
-1.131, -3.070e-6
-1.130, -3.070e-6
-1.129, -3.041e-6
-1.128, -3.070e-6
-1.127, -3.159e-6
-1.126, -3.287e-6
-1.125, -3.189e-6
-1.124, -3.120e-6
-1.123, -3.327e-6
-1.122, -3.199e-6
-1.121, -3.248e-6
-1.120, -3.268e-6
-1.119, -3.277e-6
-1.118, -3.287e-6
-1.117, -3.199e-6
-1.116, -3.277e-6
-1.115, -3.238e-6
-1.114, -3.287e-6
-1.113, -3.337e-6
-1.112, -3.455e-6
-1.111, -3.416e-6
-1.110, -3.386e-6
-1.109, -3.376e-6
-1.108, -3.386e-6
-1.107, -3.416e-6
-1.106, -3.504e-6
-1.105, -3.406e-6
-1.104, -3.544e-6
-1.103, -3.406e-6
-1.102, -3.416e-6
-1.101, -3.573e-6
-1.100, -3.603e-6
-1.099, -3.583e-6
-1.098, -3.554e-6
-1.097, -3.613e-6
-1.096, -3.495e-6
-1.095, -3.573e-6
-1.094, -3.495e-6
-1.093, -3.564e-6
-1.092, -3.524e-6
-1.091, -3.652e-6
-1.090, -3.623e-6
-1.089, -3.573e-6
-1.088, -3.623e-6
-1.087, -3.633e-6
-1.086, -3.692e-6
-1.085, -3.712e-6
-1.084, -3.603e-6
-1.083, -3.731e-6
-1.082, -3.682e-6
-1.081, -3.800e-6
-1.080, -3.662e-6
-1.079, -3.662e-6
-1.078, -3.741e-6
-1.077, -3.603e-6
-1.076, -3.751e-6
-1.075, -3.751e-6
-1.074, -3.800e-6
-1.073, -3.790e-6
-1.072, -3.830e-6
-1.071, -3.850e-6
-1.070, -3.721e-6
-1.069, -3.820e-6
-1.068, -3.840e-6
-1.067, -3.840e-6
-1.066, -3.929e-6
-1.065, -3.879e-6
-1.064, -3.830e-6
-1.063, -3.919e-6
-1.062, -3.860e-6
-1.061, -3.929e-6
-1.060, -3.850e-6
-1.059, -3.879e-6
-1.058, -3.948e-6
-1.057, -3.860e-6
-1.056, -4.077e-6
-1.055, -3.899e-6
-1.054, -3.909e-6
-1.053, -3.948e-6
-1.052, -3.899e-6
-1.051, -3.978e-6
-1.050, -3.889e-6
-1.049, -3.938e-6
-1.048, -4.008e-6
-1.047, -3.938e-6
-1.046, -3.938e-6
-1.045, -3.820e-6
-1.044, -3.988e-6
-1.043, -3.968e-6
-1.042, -3.978e-6
-1.041, -4.047e-6
-1.040, -3.919e-6
-1.039, -3.899e-6
-1.038, -3.948e-6
-1.037, -3.919e-6
-1.036, -4.008e-6
-1.035, -3.968e-6
-1.034, -3.919e-6
-1.033, -3.978e-6
-1.032, -3.909e-6
-1.031, -3.978e-6
-1.030, -3.948e-6
-1.029, -3.938e-6
-1.028, -4.037e-6
-1.027, -3.958e-6
-1.026, -4.027e-6
-1.025, -3.860e-6
-1.024, -4.017e-6
-1.023, -4.017e-6
-1.022, -4.017e-6
-1.021, -4.086e-6
-1.020, -4.017e-6
-1.019, -3.978e-6
-1.018, -4.027e-6
-1.017, -4.008e-6
-1.016, -4.037e-6
-1.015, -3.958e-6
-1.014, -3.938e-6
-1.013, -4.037e-6
-1.012, -4.086e-6
-1.011, -4.126e-6
-1.010, -3.948e-6
-1.009, -3.998e-6
-1.008, -4.017e-6
-1.007, -4.037e-6
-1.006, -4.057e-6
-1.005, -3.968e-6
-1.004, -4.017e-6
-1.003, -4.116e-6
-1.002, -3.988e-6
-1.001, -4.008e-6
