Jan. 7, 2025   18:51:12
Cyclic Voltammetry
File: c:/users/guazh/data/banditlqround7_x0exp772_r5/2025-01-07-exp790\exp790-2025-01-07t18_44_27-arkoh\exp790_cv_sr_300mvs_efin_-1400mv.bin
Data Source:  Experiment
Instrument Model:  CHI760E
Header: CV ran at 300 mVs
Note: 

Init E (V) = -1
High E (V) = -1
Low E (V) = -1.4
Final E (V) = -1
Init P/N = N
Scan Rate (V/s) = 0.3
Segment = 3
Sample Interval (V) = 0.001
Quiet Time (sec) = 2
Sensitivity (A/V) = 0.01
Comp R (ohm) = 1.4

Results:

Channel 1:
Segment 1:

Segment 2:

Segment 3:

Potential/V, Current/A

-1.000, -3.992e-5
-1.001, 6.182e-5
-1.002, 1.728e-4
-1.003, 3.177e-4
-1.004, 4.565e-4
-1.005, 5.397e-4
-1.006, 5.859e-4
-1.007, 6.538e-4
-1.008, 7.586e-4
-1.009, 8.634e-4
-1.010, 9.128e-4
-1.011, 9.313e-4
-1.012, 9.775e-4
-1.013, 1.058e-3
-1.014, 1.138e-3
-1.015, 1.172e-3
-1.016, 1.172e-3
-1.017, 1.199e-3
-1.018, 1.264e-3
-1.019, 1.332e-3
-1.020, 1.354e-3
-1.021, 1.338e-3
-1.022, 1.357e-3
-1.023, 1.415e-3
-1.024, 1.474e-3
-1.025, 1.486e-3
-1.026, 1.468e-3
-1.027, 1.477e-3
-1.028, 1.529e-3
-1.029, 1.579e-3
-1.030, 1.588e-3
-1.031, 1.563e-3
-1.032, 1.563e-3
-1.033, 1.613e-3
-1.034, 1.659e-3
-1.035, 1.659e-3
-1.036, 1.631e-3
-1.037, 1.628e-3
-1.038, 1.674e-3
-1.039, 1.717e-3
-1.040, 1.714e-3
-1.041, 1.684e-3
-1.042, 1.680e-3
-1.043, 1.721e-3
-1.044, 1.761e-3
-1.045, 1.758e-3
-1.046, 1.724e-3
-1.047, 1.717e-3
-1.048, 1.758e-3
-1.049, 1.801e-3
-1.050, 1.791e-3
-1.051, 1.754e-3
-1.052, 1.751e-3
-1.053, 1.788e-3
-1.054, 1.828e-3
-1.055, 1.822e-3
-1.056, 1.785e-3
-1.057, 1.776e-3
-1.058, 1.816e-3
-1.059, 1.853e-3
-1.060, 1.844e-3
-1.061, 1.807e-3
-1.062, 1.801e-3
-1.063, 1.838e-3
-1.064, 1.872e-3
-1.065, 1.865e-3
-1.066, 1.825e-3
-1.067, 1.816e-3
-1.068, 1.853e-3
-1.069, 1.890e-3
-1.070, 1.881e-3
-1.071, 1.844e-3
-1.072, 1.835e-3
-1.073, 1.872e-3
-1.074, 1.906e-3
-1.075, 1.899e-3
-1.076, 1.859e-3
-1.077, 1.850e-3
-1.078, 1.887e-3
-1.079, 1.921e-3
-1.080, 1.912e-3
-1.081, 1.875e-3
-1.082, 1.865e-3
-1.083, 1.899e-3
-1.084, 1.936e-3
-1.085, 1.924e-3
-1.086, 1.884e-3
-1.087, 1.875e-3
-1.088, 1.909e-3
-1.089, 1.946e-3
-1.090, 1.933e-3
-1.091, 1.893e-3
-1.092, 1.887e-3
-1.093, 1.921e-3
-1.094, 1.955e-3
-1.095, 1.943e-3
-1.096, 1.902e-3
-1.097, 1.893e-3
-1.098, 1.930e-3
-1.099, 1.961e-3
-1.100, 1.952e-3
-1.101, 1.912e-3
-1.102, 1.902e-3
-1.103, 1.939e-3
-1.104, 1.973e-3
-1.105, 1.961e-3
-1.106, 1.924e-3
-1.107, 1.915e-3
-1.108, 1.952e-3
-1.109, 1.986e-3
-1.110, 1.973e-3
-1.111, 1.936e-3
-1.112, 1.924e-3
-1.113, 1.958e-3
-1.114, 1.992e-3
-1.115, 1.980e-3
-1.116, 1.939e-3
-1.117, 1.933e-3
-1.118, 1.964e-3
-1.119, 2.001e-3
-1.120, 1.986e-3
-1.121, 1.946e-3
-1.122, 1.939e-3
-1.123, 1.976e-3
-1.124, 2.010e-3
-1.125, 2.001e-3
-1.126, 1.964e-3
-1.127, 1.952e-3
-1.128, 1.989e-3
-1.129, 2.023e-3
-1.130, 2.010e-3
-1.131, 1.970e-3
-1.132, 1.964e-3
-1.133, 1.998e-3
-1.134, 2.032e-3
-1.135, 2.020e-3
-1.136, 1.980e-3
-1.137, 1.973e-3
-1.138, 2.010e-3
-1.139, 2.044e-3
-1.140, 2.032e-3
-1.141, 1.992e-3
-1.142, 1.983e-3
-1.143, 2.020e-3
-1.144, 2.054e-3
-1.145, 2.041e-3
-1.146, 2.004e-3
-1.147, 1.995e-3
-1.148, 2.029e-3
-1.149, 2.063e-3
-1.150, 2.047e-3
-1.151, 2.010e-3
-1.152, 2.001e-3
-1.153, 2.035e-3
-1.154, 2.072e-3
-1.155, 2.060e-3
-1.156, 2.020e-3
-1.157, 2.010e-3
-1.158, 2.047e-3
-1.159, 2.084e-3
-1.160, 2.069e-3
-1.161, 2.029e-3
-1.162, 2.023e-3
-1.163, 2.057e-3
-1.164, 2.094e-3
-1.165, 2.081e-3
-1.166, 2.041e-3
-1.167, 2.035e-3
-1.168, 2.069e-3
-1.169, 2.106e-3
-1.170, 2.094e-3
-1.171, 2.054e-3
-1.172, 2.044e-3
-1.173, 2.081e-3
-1.174, 2.118e-3
-1.175, 2.106e-3
-1.176, 2.066e-3
-1.177, 2.063e-3
-1.178, 2.100e-3
-1.179, 2.134e-3
-1.180, 2.121e-3
-1.181, 2.084e-3
-1.182, 2.075e-3
-1.183, 2.115e-3
-1.184, 2.149e-3
-1.185, 2.137e-3
-1.186, 2.100e-3
-1.187, 2.094e-3
-1.188, 2.134e-3
-1.189, 2.171e-3
-1.190, 2.158e-3
-1.191, 2.121e-3
-1.192, 2.115e-3
-1.193, 2.155e-3
-1.194, 2.189e-3
-1.195, 2.180e-3
-1.196, 2.143e-3
-1.197, 2.137e-3
-1.198, 2.174e-3
-1.199, 2.211e-3
-1.200, 2.201e-3
-1.201, 2.164e-3
-1.202, 2.161e-3
-1.203, 2.198e-3
-1.204, 2.235e-3
-1.205, 2.226e-3
-1.206, 2.189e-3
-1.207, 2.186e-3
-1.208, 2.226e-3
-1.209, 2.263e-3
-1.210, 2.251e-3
-1.211, 2.214e-3
-1.212, 2.211e-3
-1.213, 2.251e-3
-1.214, 2.288e-3
-1.215, 2.282e-3
-1.216, 2.248e-3
-1.217, 2.245e-3
-1.218, 2.288e-3
-1.219, 2.322e-3
-1.220, 2.312e-3
-1.221, 2.282e-3
-1.222, 2.279e-3
-1.223, 2.322e-3
-1.224, 2.362e-3
-1.225, 2.356e-3
-1.226, 2.322e-3
-1.227, 2.319e-3
-1.228, 2.365e-3
-1.229, 2.411e-3
-1.230, 2.402e-3
-1.231, 2.371e-3
-1.232, 2.368e-3
-1.233, 2.414e-3
-1.234, 2.457e-3
-1.235, 2.454e-3
-1.236, 2.423e-3
-1.237, 2.427e-3
-1.238, 2.473e-3
-1.239, 2.513e-3
-1.240, 2.507e-3
-1.241, 2.476e-3
-1.242, 2.479e-3
-1.243, 2.525e-3
-1.244, 2.568e-3
-1.245, 2.565e-3
-1.246, 2.538e-3
-1.247, 2.544e-3
-1.248, 2.590e-3
-1.249, 2.633e-3
-1.250, 2.636e-3
-1.251, 2.608e-3
-1.252, 2.612e-3
-1.253, 2.661e-3
-1.254, 2.710e-3
-1.255, 2.713e-3
-1.256, 2.689e-3
-1.257, 2.695e-3
-1.258, 2.747e-3
-1.259, 2.790e-3
-1.260, 2.797e-3
-1.261, 2.772e-3
-1.262, 2.778e-3
-1.263, 2.834e-3
-1.264, 2.883e-3
-1.265, 2.886e-3
-1.266, 2.867e-3
-1.267, 2.877e-3
-1.268, 2.932e-3
-1.269, 2.988e-3
-1.270, 2.994e-3
-1.271, 2.975e-3
-1.272, 2.988e-3
-1.273, 3.046e-3
-1.274, 3.102e-3
-1.275, 3.111e-3
-1.276, 3.093e-3
-1.277, 3.108e-3
-1.278, 3.170e-3
-1.279, 3.225e-3
-1.280, 3.237e-3
-1.281, 3.222e-3
-1.282, 3.241e-3
-1.283, 3.302e-3
-1.284, 3.361e-3
-1.285, 3.376e-3
-1.286, 3.361e-3
-1.287, 3.379e-3
-1.288, 3.444e-3
-1.289, 3.503e-3
-1.290, 3.515e-3
-1.291, 3.506e-3
-1.292, 3.530e-3
-1.293, 3.595e-3
-1.294, 3.660e-3
-1.295, 3.678e-3
-1.296, 3.669e-3
-1.297, 3.694e-3
-1.298, 3.765e-3
-1.299, 3.832e-3
-1.300, 3.854e-3
-1.301, 3.851e-3
-1.302, 3.882e-3
-1.303, 3.956e-3
-1.304, 4.027e-3
-1.305, 4.051e-3
-1.306, 4.051e-3
-1.307, 4.082e-3
-1.308, 4.159e-3
-1.309, 4.230e-3
-1.310, 4.258e-3
-1.311, 4.261e-3
-1.312, 4.295e-3
-1.313, 4.372e-3
-1.314, 4.446e-3
-1.315, 4.474e-3
-1.316, 4.477e-3
-1.317, 4.514e-3
-1.318, 4.597e-3
-1.319, 4.677e-3
-1.320, 4.708e-3
-1.321, 4.714e-3
-1.322, 4.751e-3
-1.323, 4.838e-3
-1.324, 4.918e-3
-1.325, 4.952e-3
-1.326, 4.961e-3
-1.327, 5.004e-3
-1.328, 5.093e-3
-1.329, 5.174e-3
-1.330, 5.214e-3
-1.331, 5.226e-3
-1.332, 5.269e-3
-1.333, 5.356e-3
-1.334, 5.439e-3
-1.335, 5.479e-3
-1.336, 5.494e-3
-1.337, 5.541e-3
-1.338, 5.636e-3
-1.339, 5.729e-3
-1.340, 5.772e-3
-1.341, 5.790e-3
-1.342, 5.840e-3
-1.343, 5.935e-3
-1.344, 6.028e-3
-1.345, 6.077e-3
-1.346, 6.102e-3
-1.347, 6.157e-3
-1.348, 6.253e-3
-1.349, 6.345e-3
-1.350, 6.395e-3
-1.351, 6.419e-3
-1.352, 6.475e-3
-1.353, 6.580e-3
-1.354, 6.675e-3
-1.355, 6.724e-3
-1.356, 6.755e-3
-1.357, 6.814e-3
-1.358, 6.916e-3
-1.359, 7.014e-3
-1.360, 7.070e-3
-1.361, 7.101e-3
-1.362, 7.162e-3
-1.363, 7.267e-3
-1.364, 7.369e-3
-1.365, 7.430e-3
-1.366, 7.467e-3
-1.367, 7.535e-3
-1.368, 7.646e-3
-1.369, 7.751e-3
-1.370, 7.807e-3
-1.371, 7.841e-3
-1.372, 7.899e-3
-1.373, 8.007e-3
-1.374, 8.112e-3
-1.375, 8.167e-3
-1.376, 8.204e-3
-1.377, 8.275e-3
-1.378, 8.389e-3
-1.379, 8.494e-3
-1.380, 8.556e-3
-1.381, 8.593e-3
-1.382, 8.664e-3
-1.383, 8.781e-3
-1.384, 8.892e-3
-1.385, 8.954e-3
-1.386, 8.994e-3
-1.387, 9.068e-3
-1.388, 9.188e-3
-1.389, 9.302e-3
-1.390, 9.370e-3
-1.391, 9.416e-3
-1.392, 9.496e-3
-1.393, 9.616e-3
-1.394, 9.734e-3
-1.395, 9.811e-3
-1.396, 9.860e-3
-1.397, 9.940e-3
-1.398, 1.006e-2
-1.399, 1.017e-2
-1.400, 1.014e-2
-1.399, 9.900e-3
-1.398, 9.715e-3
-1.397, 9.592e-3
-1.396, 9.468e-3
-1.395, 9.314e-3
-1.394, 9.148e-3
-1.393, 9.015e-3
-1.392, 8.929e-3
-1.391, 8.843e-3
-1.390, 8.710e-3
-1.389, 8.562e-3
-1.388, 8.442e-3
-1.387, 8.374e-3
-1.386, 8.303e-3
-1.385, 8.183e-3
-1.384, 8.047e-3
-1.383, 7.939e-3
-1.382, 7.868e-3
-1.381, 7.804e-3
-1.380, 7.683e-3
-1.379, 7.551e-3
-1.378, 7.449e-3
-1.377, 7.387e-3
-1.376, 7.319e-3
-1.375, 7.205e-3
-1.374, 7.073e-3
-1.373, 6.968e-3
-1.372, 6.909e-3
-1.371, 6.851e-3
-1.370, 6.746e-3
-1.369, 6.617e-3
-1.368, 6.524e-3
-1.367, 6.469e-3
-1.366, 6.410e-3
-1.365, 6.305e-3
-1.364, 6.173e-3
-1.363, 6.077e-3
-1.362, 6.025e-3
-1.361, 5.963e-3
-1.360, 5.864e-3
-1.359, 5.735e-3
-1.358, 5.642e-3
-1.357, 5.593e-3
-1.356, 5.537e-3
-1.355, 5.436e-3
-1.354, 5.309e-3
-1.353, 5.220e-3
-1.352, 5.174e-3
-1.351, 5.121e-3
-1.350, 5.019e-3
-1.349, 4.899e-3
-1.348, 4.810e-3
-1.347, 4.764e-3
-1.346, 4.714e-3
-1.345, 4.619e-3
-1.344, 4.495e-3
-1.343, 4.412e-3
-1.342, 4.372e-3
-1.341, 4.326e-3
-1.340, 4.230e-3
-1.339, 4.113e-3
-1.338, 4.030e-3
-1.337, 3.987e-3
-1.336, 3.943e-3
-1.335, 3.848e-3
-1.334, 3.731e-3
-1.333, 3.651e-3
-1.332, 3.610e-3
-1.331, 3.564e-3
-1.330, 3.472e-3
-1.329, 3.358e-3
-1.328, 3.278e-3
-1.327, 3.244e-3
-1.326, 3.197e-3
-1.325, 3.108e-3
-1.324, 3.000e-3
-1.323, 2.926e-3
-1.322, 2.895e-3
-1.321, 2.852e-3
-1.320, 2.772e-3
-1.319, 2.661e-3
-1.318, 2.587e-3
-1.317, 2.559e-3
-1.316, 2.519e-3
-1.315, 2.436e-3
-1.314, 2.331e-3
-1.313, 2.257e-3
-1.312, 2.226e-3
-1.311, 2.189e-3
-1.310, 2.106e-3
-1.309, 2.001e-3
-1.308, 1.930e-3
-1.307, 1.906e-3
-1.306, 1.872e-3
-1.305, 1.791e-3
-1.304, 1.690e-3
-1.303, 1.622e-3
-1.302, 1.597e-3
-1.301, 1.566e-3
-1.300, 1.486e-3
-1.299, 1.388e-3
-1.298, 1.326e-3
-1.297, 1.301e-3
-1.296, 1.277e-3
-1.295, 1.199e-3
-1.294, 1.104e-3
-1.293, 1.042e-3
-1.292, 1.024e-3
-1.291, 9.991e-4
-1.290, 9.251e-4
-1.289, 8.295e-4
-1.288, 7.740e-4
-1.287, 7.555e-4
-1.286, 7.309e-4
-1.285, 6.599e-4
-1.284, 5.705e-4
-1.283, 5.120e-4
-1.282, 4.996e-4
-1.281, 4.750e-4
-1.280, 4.071e-4
-1.279, 3.177e-4
-1.278, 2.622e-4
-1.277, 2.530e-4
-1.276, 2.314e-4
-1.275, 1.697e-4
-1.274, 8.340e-5
-1.273, 2.790e-5
-1.272, 2.174e-5
-1.271, 6.322e-6
-1.270, -5.842e-5
-1.269, -1.417e-4
-1.268, -1.910e-4
-1.267, -1.972e-4
-1.266, -2.095e-4
-1.265, -2.742e-4
-1.264, -3.544e-4
-1.263, -4.006e-4
-1.262, -4.037e-4
-1.261, -4.130e-4
-1.260, -4.746e-4
-1.259, -5.548e-4
-1.258, -5.949e-4
-1.257, -5.980e-4
-1.256, -6.072e-4
-1.255, -6.627e-4
-1.254, -7.429e-4
-1.253, -7.830e-4
-1.252, -7.830e-4
-1.251, -7.891e-4
-1.250, -8.415e-4
-1.249, -9.186e-4
-1.248, -9.587e-4
-1.247, -9.525e-4
-1.246, -9.587e-4
-1.245, -1.008e-3
-1.244, -1.082e-3
-1.243, -1.119e-3
-1.242, -1.113e-3
-1.241, -1.113e-3
-1.240, -1.162e-3
-1.239, -1.233e-3
-1.238, -1.267e-3
-1.237, -1.258e-3
-1.236, -1.258e-3
-1.235, -1.307e-3
-1.234, -1.372e-3
-1.233, -1.406e-3
-1.232, -1.396e-3
-1.231, -1.393e-3
-1.230, -1.443e-3
-1.229, -1.511e-3
-1.228, -1.538e-3
-1.227, -1.526e-3
-1.226, -1.520e-3
-1.225, -1.566e-3
-1.224, -1.628e-3
-1.223, -1.655e-3
-1.222, -1.640e-3
-1.221, -1.631e-3
-1.220, -1.674e-3
-1.219, -1.736e-3
-1.218, -1.760e-3
-1.217, -1.745e-3
-1.216, -1.736e-3
-1.215, -1.773e-3
-1.214, -1.834e-3
-1.213, -1.856e-3
-1.212, -1.837e-3
-1.211, -1.828e-3
-1.210, -1.865e-3
-1.209, -1.924e-3
-1.208, -1.942e-3
-1.207, -1.924e-3
-1.206, -1.911e-3
-1.205, -1.942e-3
-1.204, -2.001e-3
-1.203, -2.022e-3
-1.202, -1.998e-3
-1.201, -1.985e-3
-1.200, -2.019e-3
-1.199, -2.075e-3
-1.198, -2.093e-3
-1.197, -2.069e-3
-1.196, -2.056e-3
-1.195, -2.087e-3
-1.194, -2.140e-3
-1.193, -2.158e-3
-1.192, -2.130e-3
-1.191, -2.115e-3
-1.190, -2.146e-3
-1.189, -2.198e-3
-1.188, -2.214e-3
-1.187, -2.189e-3
-1.186, -2.170e-3
-1.185, -2.201e-3
-1.184, -2.251e-3
-1.183, -2.266e-3
-1.182, -2.241e-3
-1.181, -2.220e-3
-1.180, -2.247e-3
-1.179, -2.300e-3
-1.178, -2.312e-3
-1.177, -2.284e-3
-1.176, -2.263e-3
-1.175, -2.291e-3
-1.174, -2.340e-3
-1.173, -2.352e-3
-1.172, -2.321e-3
-1.171, -2.300e-3
-1.170, -2.328e-3
-1.169, -2.374e-3
-1.168, -2.383e-3
-1.167, -2.349e-3
-1.166, -2.331e-3
-1.165, -2.355e-3
-1.164, -2.402e-3
-1.163, -2.414e-3
-1.162, -2.380e-3
-1.161, -2.358e-3
-1.160, -2.383e-3
-1.159, -2.429e-3
-1.158, -2.439e-3
-1.157, -2.405e-3
-1.156, -2.383e-3
-1.155, -2.408e-3
-1.154, -2.454e-3
-1.153, -2.463e-3
-1.152, -2.429e-3
-1.151, -2.408e-3
-1.150, -2.432e-3
-1.149, -2.476e-3
-1.148, -2.482e-3
-1.147, -2.454e-3
-1.146, -2.429e-3
-1.145, -2.454e-3
-1.144, -2.497e-3
-1.143, -2.503e-3
-1.142, -2.469e-3
-1.141, -2.445e-3
-1.140, -2.466e-3
-1.139, -2.513e-3
-1.138, -2.513e-3
-1.137, -2.479e-3
-1.136, -2.454e-3
-1.135, -2.476e-3
-1.134, -2.519e-3
-1.133, -2.522e-3
-1.132, -2.488e-3
-1.131, -2.463e-3
-1.130, -2.485e-3
-1.129, -2.525e-3
-1.128, -2.531e-3
-1.127, -2.497e-3
-1.126, -2.472e-3
-1.125, -2.491e-3
-1.124, -2.534e-3
-1.123, -2.540e-3
-1.122, -2.500e-3
-1.121, -2.476e-3
-1.120, -2.500e-3
-1.119, -2.540e-3
-1.118, -2.546e-3
-1.117, -2.509e-3
-1.116, -2.488e-3
-1.115, -2.506e-3
-1.114, -2.550e-3
-1.113, -2.553e-3
-1.112, -2.519e-3
-1.111, -2.494e-3
-1.110, -2.516e-3
-1.109, -2.553e-3
-1.108, -2.556e-3
-1.107, -2.522e-3
-1.106, -2.497e-3
-1.105, -2.516e-3
-1.104, -2.556e-3
-1.103, -2.559e-3
-1.102, -2.525e-3
-1.101, -2.500e-3
-1.100, -2.522e-3
-1.099, -2.565e-3
-1.098, -2.565e-3
-1.097, -2.528e-3
-1.096, -2.506e-3
-1.095, -2.525e-3
-1.094, -2.568e-3
-1.093, -2.565e-3
-1.092, -2.531e-3
-1.091, -2.506e-3
-1.090, -2.525e-3
-1.089, -2.565e-3
-1.088, -2.568e-3
-1.087, -2.531e-3
-1.086, -2.506e-3
-1.085, -2.525e-3
-1.084, -2.562e-3
-1.083, -2.565e-3
-1.082, -2.528e-3
-1.081, -2.503e-3
-1.080, -2.519e-3
-1.079, -2.559e-3
-1.078, -2.562e-3
-1.077, -2.528e-3
-1.076, -2.500e-3
-1.075, -2.525e-3
-1.074, -2.562e-3
-1.073, -2.568e-3
-1.072, -2.531e-3
-1.071, -2.506e-3
-1.070, -2.528e-3
-1.069, -2.568e-3
-1.068, -2.568e-3
-1.067, -2.534e-3
-1.066, -2.506e-3
-1.065, -2.528e-3
-1.064, -2.568e-3
-1.063, -2.571e-3
-1.062, -2.534e-3
-1.061, -2.506e-3
-1.060, -2.528e-3
-1.059, -2.568e-3
-1.058, -2.565e-3
-1.057, -2.531e-3
-1.056, -2.506e-3
-1.055, -2.525e-3
-1.054, -2.565e-3
-1.053, -2.568e-3
-1.052, -2.528e-3
-1.051, -2.503e-3
-1.050, -2.525e-3
-1.049, -2.568e-3
-1.048, -2.568e-3
-1.047, -2.531e-3
-1.046, -2.506e-3
-1.045, -2.528e-3
-1.044, -2.568e-3
-1.043, -2.571e-3
-1.042, -2.534e-3
-1.041, -2.509e-3
-1.040, -2.534e-3
-1.039, -2.574e-3
-1.038, -2.577e-3
-1.037, -2.543e-3
-1.036, -2.519e-3
-1.035, -2.540e-3
-1.034, -2.580e-3
-1.033, -2.583e-3
-1.032, -2.553e-3
-1.031, -2.528e-3
-1.030, -2.556e-3
-1.029, -2.596e-3
-1.028, -2.599e-3
-1.027, -2.565e-3
-1.026, -2.543e-3
-1.025, -2.565e-3
-1.024, -2.608e-3
-1.023, -2.608e-3
-1.022, -2.574e-3
-1.021, -2.550e-3
-1.020, -2.574e-3
-1.019, -2.611e-3
-1.018, -2.611e-3
-1.017, -2.577e-3
-1.016, -2.556e-3
-1.015, -2.577e-3
-1.014, -2.624e-3
-1.013, -2.627e-3
-1.012, -2.593e-3
-1.011, -2.571e-3
-1.010, -2.599e-3
-1.009, -2.642e-3
-1.008, -2.645e-3
-1.007, -2.611e-3
-1.006, -2.590e-3
-1.005, -2.617e-3
-1.004, -2.661e-3
-1.003, -2.667e-3
-1.002, -2.636e-3
-1.001, -2.614e-3
