Aug. 20, 2024   03:23:55
Cyclic Voltammetry
File: c:/users/guazh/data/20240813_batch_94_500/2024-08-15-exp137\exp137-2024-08-20t03_07_52-h2koh\exp137_cv_sr_700mvs_efin_-1600mv.bin
Data Source:  Experiment
Instrument Model:  CHI760E
Header: CV ran at 700 mVs
Note: 

Init E (V) = -1
High E (V) = -1
Low E (V) = -1.6
Final E (V) = -1
Init P/N = N
Scan Rate (V/s) = 0.7
Segment = 3
Sample Interval (V) = 0.001
Quiet Time (sec) = 2
Sensitivity (A/V) = 0.01
Comp R (ohm) = 1.6

Results:

Channel 1:
Segment 1:

Segment 2:

Segment 3:

Potential/V, Current/A

-1.000, -1.834e-5
-1.001, 4.024e-5
-1.002, 8.340e-5
-1.003, 1.173e-4
-1.004, 1.481e-4
-1.005, 1.728e-4
-1.006, 1.975e-4
-1.007, 2.191e-4
-1.008, 2.376e-4
-1.009, 2.561e-4
-1.010, 2.715e-4
-1.011, 2.869e-4
-1.012, 3.023e-4
-1.013, 3.146e-4
-1.014, 3.270e-4
-1.015, 3.393e-4
-1.016, 3.485e-4
-1.017, 3.578e-4
-1.018, 3.670e-4
-1.019, 3.732e-4
-1.020, 3.825e-4
-1.021, 3.886e-4
-1.022, 3.979e-4
-1.023, 4.040e-4
-1.024, 4.102e-4
-1.025, 4.133e-4
-1.026, 4.195e-4
-1.027, 4.256e-4
-1.028, 4.318e-4
-1.029, 4.380e-4
-1.030, 4.441e-4
-1.031, 4.472e-4
-1.032, 4.534e-4
-1.033, 4.565e-4
-1.034, 4.626e-4
-1.035, 4.688e-4
-1.036, 4.750e-4
-1.037, 4.811e-4
-1.038, 4.873e-4
-1.039, 4.935e-4
-1.040, 4.996e-4
-1.041, 5.058e-4
-1.042, 5.120e-4
-1.043, 5.181e-4
-1.044, 5.243e-4
-1.045, 5.305e-4
-1.046, 5.366e-4
-1.047, 5.459e-4
-1.048, 5.551e-4
-1.049, 5.644e-4
-1.050, 5.736e-4
-1.051, 5.798e-4
-1.052, 5.890e-4
-1.053, 6.014e-4
-1.054, 6.106e-4
-1.055, 6.199e-4
-1.056, 6.291e-4
-1.057, 6.384e-4
-1.058, 6.476e-4
-1.059, 6.569e-4
-1.060, 6.692e-4
-1.061, 6.784e-4
-1.062, 6.877e-4
-1.063, 6.969e-4
-1.064, 7.062e-4
-1.065, 7.154e-4
-1.066, 7.247e-4
-1.067, 7.339e-4
-1.068, 7.401e-4
-1.069, 7.494e-4
-1.070, 7.555e-4
-1.071, 7.617e-4
-1.072, 7.679e-4
-1.073, 7.771e-4
-1.074, 7.833e-4
-1.075, 7.894e-4
-1.076, 7.956e-4
-1.077, 7.987e-4
-1.078, 8.048e-4
-1.079, 8.079e-4
-1.080, 8.110e-4
-1.081, 8.172e-4
-1.082, 8.233e-4
-1.083, 8.264e-4
-1.084, 8.295e-4
-1.085, 8.326e-4
-1.086, 8.357e-4
-1.087, 8.388e-4
-1.088, 8.388e-4
-1.089, 8.418e-4
-1.090, 8.418e-4
-1.091, 8.418e-4
-1.092, 8.449e-4
-1.093, 8.449e-4
-1.094, 8.480e-4
-1.095, 8.480e-4
-1.096, 8.449e-4
-1.097, 8.480e-4
-1.098, 8.449e-4
-1.099, 8.480e-4
-1.100, 8.480e-4
-1.101, 8.449e-4
-1.102, 8.449e-4
-1.103, 8.449e-4
-1.104, 8.418e-4
-1.105, 8.418e-4
-1.106, 8.418e-4
-1.107, 8.418e-4
-1.108, 8.418e-4
-1.109, 8.388e-4
-1.110, 8.388e-4
-1.111, 8.357e-4
-1.112, 8.357e-4
-1.113, 8.326e-4
-1.114, 8.295e-4
-1.115, 8.295e-4
-1.116, 8.264e-4
-1.117, 8.264e-4
-1.118, 8.233e-4
-1.119, 8.233e-4
-1.120, 8.233e-4
-1.121, 8.203e-4
-1.122, 8.172e-4
-1.123, 8.141e-4
-1.124, 8.110e-4
-1.125, 8.079e-4
-1.126, 8.048e-4
-1.127, 8.018e-4
-1.128, 8.018e-4
-1.129, 7.956e-4
-1.130, 7.956e-4
-1.131, 7.925e-4
-1.132, 7.925e-4
-1.133, 7.894e-4
-1.134, 7.863e-4
-1.135, 7.863e-4
-1.136, 7.802e-4
-1.137, 7.802e-4
-1.138, 7.771e-4
-1.139, 7.771e-4
-1.140, 7.740e-4
-1.141, 7.709e-4
-1.142, 7.679e-4
-1.143, 7.679e-4
-1.144, 7.648e-4
-1.145, 7.648e-4
-1.146, 7.617e-4
-1.147, 7.586e-4
-1.148, 7.555e-4
-1.149, 7.524e-4
-1.150, 7.494e-4
-1.151, 7.463e-4
-1.152, 7.463e-4
-1.153, 7.432e-4
-1.154, 7.401e-4
-1.155, 7.401e-4
-1.156, 7.370e-4
-1.157, 7.370e-4
-1.158, 7.370e-4
-1.159, 7.339e-4
-1.160, 7.309e-4
-1.161, 7.278e-4
-1.162, 7.278e-4
-1.163, 7.247e-4
-1.164, 7.247e-4
-1.165, 7.247e-4
-1.166, 7.216e-4
-1.167, 7.216e-4
-1.168, 7.185e-4
-1.169, 7.185e-4
-1.170, 7.185e-4
-1.171, 7.154e-4
-1.172, 7.154e-4
-1.173, 7.124e-4
-1.174, 7.124e-4
-1.175, 7.093e-4
-1.176, 7.062e-4
-1.177, 7.062e-4
-1.178, 7.062e-4
-1.179, 7.062e-4
-1.180, 7.062e-4
-1.181, 7.031e-4
-1.182, 7.000e-4
-1.183, 7.000e-4
-1.184, 6.969e-4
-1.185, 6.969e-4
-1.186, 6.939e-4
-1.187, 6.939e-4
-1.188, 6.939e-4
-1.189, 6.939e-4
-1.190, 6.908e-4
-1.191, 6.908e-4
-1.192, 6.939e-4
-1.193, 6.908e-4
-1.194, 6.908e-4
-1.195, 6.877e-4
-1.196, 6.877e-4
-1.197, 6.877e-4
-1.198, 6.908e-4
-1.199, 6.877e-4
-1.200, 6.908e-4
-1.201, 6.908e-4
-1.202, 6.908e-4
-1.203, 6.939e-4
-1.204, 6.908e-4
-1.205, 6.939e-4
-1.206, 6.908e-4
-1.207, 6.908e-4
-1.208, 6.908e-4
-1.209, 6.908e-4
-1.210, 6.908e-4
-1.211, 6.877e-4
-1.212, 6.908e-4
-1.213, 6.877e-4
-1.214, 6.908e-4
-1.215, 6.908e-4
-1.216, 6.908e-4
-1.217, 6.908e-4
-1.218, 6.908e-4
-1.219, 6.877e-4
-1.220, 6.877e-4
-1.221, 6.877e-4
-1.222, 6.877e-4
-1.223, 6.908e-4
-1.224, 6.908e-4
-1.225, 6.908e-4
-1.226, 6.908e-4
-1.227, 6.908e-4
-1.228, 6.908e-4
-1.229, 6.908e-4
-1.230, 6.939e-4
-1.231, 6.908e-4
-1.232, 6.908e-4
-1.233, 6.939e-4
-1.234, 6.908e-4
-1.235, 6.939e-4
-1.236, 6.939e-4
-1.237, 6.939e-4
-1.238, 6.939e-4
-1.239, 6.969e-4
-1.240, 6.969e-4
-1.241, 6.969e-4
-1.242, 7.000e-4
-1.243, 6.969e-4
-1.244, 7.000e-4
-1.245, 7.000e-4
-1.246, 6.969e-4
-1.247, 7.000e-4
-1.248, 7.000e-4
-1.249, 7.031e-4
-1.250, 7.031e-4
-1.251, 7.031e-4
-1.252, 7.031e-4
-1.253, 7.062e-4
-1.254, 7.062e-4
-1.255, 7.062e-4
-1.256, 7.062e-4
-1.257, 7.093e-4
-1.258, 7.093e-4
-1.259, 7.093e-4
-1.260, 7.093e-4
-1.261, 7.124e-4
-1.262, 7.124e-4
-1.263, 7.124e-4
-1.264, 7.124e-4
-1.265, 7.124e-4
-1.266, 7.124e-4
-1.267, 7.124e-4
-1.268, 7.154e-4
-1.269, 7.154e-4
-1.270, 7.185e-4
-1.271, 7.185e-4
-1.272, 7.185e-4
-1.273, 7.216e-4
-1.274, 7.216e-4
-1.275, 7.216e-4
-1.276, 7.216e-4
-1.277, 7.247e-4
-1.278, 7.247e-4
-1.279, 7.247e-4
-1.280, 7.278e-4
-1.281, 7.278e-4
-1.282, 7.278e-4
-1.283, 7.278e-4
-1.284, 7.309e-4
-1.285, 7.309e-4
-1.286, 7.309e-4
-1.287, 7.339e-4
-1.288, 7.339e-4
-1.289, 7.370e-4
-1.290, 7.370e-4
-1.291, 7.370e-4
-1.292, 7.401e-4
-1.293, 7.401e-4
-1.294, 7.432e-4
-1.295, 7.432e-4
-1.296, 7.432e-4
-1.297, 7.463e-4
-1.298, 7.463e-4
-1.299, 7.463e-4
-1.300, 7.494e-4
-1.301, 7.494e-4
-1.302, 7.494e-4
-1.303, 7.494e-4
-1.304, 7.494e-4
-1.305, 7.555e-4
-1.306, 7.555e-4
-1.307, 7.586e-4
-1.308, 7.617e-4
-1.309, 7.617e-4
-1.310, 7.648e-4
-1.311, 7.617e-4
-1.312, 7.648e-4
-1.313, 7.648e-4
-1.314, 7.679e-4
-1.315, 7.709e-4
-1.316, 7.709e-4
-1.317, 7.709e-4
-1.318, 7.740e-4
-1.319, 7.771e-4
-1.320, 7.771e-4
-1.321, 7.802e-4
-1.322, 7.802e-4
-1.323, 7.833e-4
-1.324, 7.833e-4
-1.325, 7.863e-4
-1.326, 7.894e-4
-1.327, 7.894e-4
-1.328, 7.925e-4
-1.329, 7.925e-4
-1.330, 7.956e-4
-1.331, 7.987e-4
-1.332, 8.048e-4
-1.333, 8.048e-4
-1.334, 8.079e-4
-1.335, 8.110e-4
-1.336, 8.110e-4
-1.337, 8.141e-4
-1.338, 8.172e-4
-1.339, 8.203e-4
-1.340, 8.233e-4
-1.341, 8.233e-4
-1.342, 8.264e-4
-1.343, 8.295e-4
-1.344, 8.326e-4
-1.345, 8.357e-4
-1.346, 8.388e-4
-1.347, 8.418e-4
-1.348, 8.449e-4
-1.349, 8.449e-4
-1.350, 8.480e-4
-1.351, 8.511e-4
-1.352, 8.573e-4
-1.353, 8.603e-4
-1.354, 8.634e-4
-1.355, 8.665e-4
-1.356, 8.696e-4
-1.357, 8.758e-4
-1.358, 8.788e-4
-1.359, 8.819e-4
-1.360, 8.850e-4
-1.361, 8.881e-4
-1.362, 8.912e-4
-1.363, 8.973e-4
-1.364, 9.004e-4
-1.365, 9.066e-4
-1.366, 9.097e-4
-1.367, 9.158e-4
-1.368, 9.189e-4
-1.369, 9.220e-4
-1.370, 9.282e-4
-1.371, 9.313e-4
-1.372, 9.343e-4
-1.373, 9.405e-4
-1.374, 9.436e-4
-1.375, 9.498e-4
-1.376, 9.528e-4
-1.377, 9.621e-4
-1.378, 9.652e-4
-1.379, 9.713e-4
-1.380, 9.775e-4
-1.381, 9.806e-4
-1.382, 9.868e-4
-1.383, 9.929e-4
-1.384, 9.960e-4
-1.385, 1.002e-3
-1.386, 1.005e-3
-1.387, 1.014e-3
-1.388, 1.018e-3
-1.389, 1.024e-3
-1.390, 1.030e-3
-1.391, 1.036e-3
-1.392, 1.042e-3
-1.393, 1.048e-3
-1.394, 1.055e-3
-1.395, 1.061e-3
-1.396, 1.067e-3
-1.397, 1.073e-3
-1.398, 1.082e-3
-1.399, 1.088e-3
-1.400, 1.098e-3
-1.401, 1.104e-3
-1.402, 1.110e-3
-1.403, 1.119e-3
-1.404, 1.125e-3
-1.405, 1.135e-3
-1.406, 1.144e-3
-1.407, 1.150e-3
-1.408, 1.156e-3
-1.409, 1.166e-3
-1.410, 1.175e-3
-1.411, 1.181e-3
-1.412, 1.190e-3
-1.413, 1.196e-3
-1.414, 1.206e-3
-1.415, 1.212e-3
-1.416, 1.221e-3
-1.417, 1.230e-3
-1.418, 1.236e-3
-1.419, 1.246e-3
-1.420, 1.255e-3
-1.421, 1.264e-3
-1.422, 1.273e-3
-1.423, 1.286e-3
-1.424, 1.298e-3
-1.425, 1.307e-3
-1.426, 1.317e-3
-1.427, 1.326e-3
-1.428, 1.338e-3
-1.429, 1.347e-3
-1.430, 1.357e-3
-1.431, 1.366e-3
-1.432, 1.378e-3
-1.433, 1.388e-3
-1.434, 1.397e-3
-1.435, 1.409e-3
-1.436, 1.421e-3
-1.437, 1.434e-3
-1.438, 1.443e-3
-1.439, 1.455e-3
-1.440, 1.468e-3
-1.441, 1.477e-3
-1.442, 1.489e-3
-1.443, 1.502e-3
-1.444, 1.514e-3
-1.445, 1.529e-3
-1.446, 1.542e-3
-1.447, 1.554e-3
-1.448, 1.569e-3
-1.449, 1.582e-3
-1.450, 1.594e-3
-1.451, 1.606e-3
-1.452, 1.622e-3
-1.453, 1.631e-3
-1.454, 1.643e-3
-1.455, 1.656e-3
-1.456, 1.671e-3
-1.457, 1.684e-3
-1.458, 1.696e-3
-1.459, 1.711e-3
-1.460, 1.727e-3
-1.461, 1.742e-3
-1.462, 1.754e-3
-1.463, 1.770e-3
-1.464, 1.785e-3
-1.465, 1.801e-3
-1.466, 1.819e-3
-1.467, 1.832e-3
-1.468, 1.850e-3
-1.469, 1.865e-3
-1.470, 1.887e-3
-1.471, 1.902e-3
-1.472, 1.918e-3
-1.473, 1.936e-3
-1.474, 1.952e-3
-1.475, 1.970e-3
-1.476, 1.983e-3
-1.477, 2.001e-3
-1.478, 2.017e-3
-1.479, 2.032e-3
-1.480, 2.047e-3
-1.481, 2.066e-3
-1.482, 2.084e-3
-1.483, 2.103e-3
-1.484, 2.121e-3
-1.485, 2.140e-3
-1.486, 2.158e-3
-1.487, 2.177e-3
-1.488, 2.195e-3
-1.489, 2.214e-3
-1.490, 2.232e-3
-1.491, 2.251e-3
-1.492, 2.272e-3
-1.493, 2.291e-3
-1.494, 2.312e-3
-1.495, 2.334e-3
-1.496, 2.353e-3
-1.497, 2.371e-3
-1.498, 2.390e-3
-1.499, 2.408e-3
-1.500, 2.430e-3
-1.501, 2.448e-3
-1.502, 2.470e-3
-1.503, 2.491e-3
-1.504, 2.513e-3
-1.505, 2.534e-3
-1.506, 2.556e-3
-1.507, 2.578e-3
-1.508, 2.599e-3
-1.509, 2.621e-3
-1.510, 2.642e-3
-1.511, 2.664e-3
-1.512, 2.689e-3
-1.513, 2.710e-3
-1.514, 2.732e-3
-1.515, 2.756e-3
-1.516, 2.781e-3
-1.517, 2.803e-3
-1.518, 2.827e-3
-1.519, 2.852e-3
-1.520, 2.874e-3
-1.521, 2.895e-3
-1.522, 2.920e-3
-1.523, 2.941e-3
-1.524, 2.966e-3
-1.525, 2.988e-3
-1.526, 3.009e-3
-1.527, 3.034e-3
-1.528, 3.059e-3
-1.529, 3.086e-3
-1.530, 3.111e-3
-1.531, 3.139e-3
-1.532, 3.163e-3
-1.533, 3.188e-3
-1.534, 3.216e-3
-1.535, 3.241e-3
-1.536, 3.268e-3
-1.537, 3.296e-3
-1.538, 3.321e-3
-1.539, 3.348e-3
-1.540, 3.379e-3
-1.541, 3.407e-3
-1.542, 3.435e-3
-1.543, 3.466e-3
-1.544, 3.493e-3
-1.545, 3.524e-3
-1.546, 3.549e-3
-1.547, 3.577e-3
-1.548, 3.601e-3
-1.549, 3.629e-3
-1.550, 3.657e-3
-1.551, 3.681e-3
-1.552, 3.712e-3
-1.553, 3.740e-3
-1.554, 3.771e-3
-1.555, 3.799e-3
-1.556, 3.832e-3
-1.557, 3.863e-3
-1.558, 3.894e-3
-1.559, 3.925e-3
-1.560, 3.956e-3
-1.561, 3.987e-3
-1.562, 4.017e-3
-1.563, 4.048e-3
-1.564, 4.082e-3
-1.565, 4.113e-3
-1.566, 4.147e-3
-1.567, 4.178e-3
-1.568, 4.209e-3
-1.569, 4.239e-3
-1.570, 4.273e-3
-1.571, 4.307e-3
-1.572, 4.344e-3
-1.573, 4.375e-3
-1.574, 4.412e-3
-1.575, 4.446e-3
-1.576, 4.477e-3
-1.577, 4.511e-3
-1.578, 4.545e-3
-1.579, 4.579e-3
-1.580, 4.612e-3
-1.581, 4.646e-3
-1.582, 4.683e-3
-1.583, 4.720e-3
-1.584, 4.760e-3
-1.585, 4.801e-3
-1.586, 4.834e-3
-1.587, 4.871e-3
-1.588, 4.912e-3
-1.589, 4.949e-3
-1.590, 4.989e-3
-1.591, 5.026e-3
-1.592, 5.066e-3
-1.593, 5.103e-3
-1.594, 5.143e-3
-1.595, 5.183e-3
-1.596, 5.223e-3
-1.597, 5.263e-3
-1.598, 5.303e-3
-1.599, 5.343e-3
-1.600, 5.331e-3
-1.599, 5.241e-3
-1.598, 5.171e-3
-1.597, 5.109e-3
-1.596, 5.053e-3
-1.595, 4.998e-3
-1.594, 4.949e-3
-1.593, 4.896e-3
-1.592, 4.844e-3
-1.591, 4.791e-3
-1.590, 4.739e-3
-1.589, 4.686e-3
-1.588, 4.637e-3
-1.587, 4.591e-3
-1.586, 4.542e-3
-1.585, 4.492e-3
-1.584, 4.440e-3
-1.583, 4.394e-3
-1.582, 4.347e-3
-1.581, 4.298e-3
-1.580, 4.255e-3
-1.579, 4.206e-3
-1.578, 4.162e-3
-1.577, 4.116e-3
-1.576, 4.073e-3
-1.575, 4.030e-3
-1.574, 3.984e-3
-1.573, 3.940e-3
-1.572, 3.894e-3
-1.571, 3.851e-3
-1.570, 3.808e-3
-1.569, 3.765e-3
-1.568, 3.721e-3
-1.567, 3.678e-3
-1.566, 3.638e-3
-1.565, 3.595e-3
-1.564, 3.555e-3
-1.563, 3.515e-3
-1.562, 3.475e-3
-1.561, 3.435e-3
-1.560, 3.395e-3
-1.559, 3.355e-3
-1.558, 3.318e-3
-1.557, 3.281e-3
-1.556, 3.244e-3
-1.555, 3.207e-3
-1.554, 3.167e-3
-1.553, 3.130e-3
-1.552, 3.093e-3
-1.551, 3.052e-3
-1.550, 3.019e-3
-1.549, 2.982e-3
-1.548, 2.948e-3
-1.547, 2.911e-3
-1.546, 2.877e-3
-1.545, 2.843e-3
-1.544, 2.809e-3
-1.543, 2.775e-3
-1.542, 2.741e-3
-1.541, 2.707e-3
-1.540, 2.673e-3
-1.539, 2.639e-3
-1.538, 2.605e-3
-1.537, 2.571e-3
-1.536, 2.541e-3
-1.535, 2.510e-3
-1.534, 2.476e-3
-1.533, 2.445e-3
-1.532, 2.414e-3
-1.531, 2.386e-3
-1.530, 2.353e-3
-1.529, 2.325e-3
-1.528, 2.294e-3
-1.527, 2.266e-3
-1.526, 2.235e-3
-1.525, 2.208e-3
-1.524, 2.177e-3
-1.523, 2.149e-3
-1.522, 2.121e-3
-1.521, 2.094e-3
-1.520, 2.066e-3
-1.519, 2.041e-3
-1.518, 2.013e-3
-1.517, 1.989e-3
-1.516, 1.961e-3
-1.515, 1.936e-3
-1.514, 1.909e-3
-1.513, 1.884e-3
-1.512, 1.862e-3
-1.511, 1.835e-3
-1.510, 1.810e-3
-1.509, 1.785e-3
-1.508, 1.761e-3
-1.507, 1.736e-3
-1.506, 1.714e-3
-1.505, 1.693e-3
-1.504, 1.668e-3
-1.503, 1.647e-3
-1.502, 1.619e-3
-1.501, 1.597e-3
-1.500, 1.576e-3
-1.499, 1.551e-3
-1.498, 1.532e-3
-1.497, 1.511e-3
-1.496, 1.489e-3
-1.495, 1.468e-3
-1.494, 1.449e-3
-1.493, 1.428e-3
-1.492, 1.409e-3
-1.491, 1.388e-3
-1.490, 1.369e-3
-1.489, 1.347e-3
-1.488, 1.329e-3
-1.487, 1.310e-3
-1.486, 1.292e-3
-1.485, 1.273e-3
-1.484, 1.255e-3
-1.483, 1.236e-3
-1.482, 1.218e-3
-1.481, 1.199e-3
-1.480, 1.184e-3
-1.479, 1.162e-3
-1.478, 1.147e-3
-1.477, 1.132e-3
-1.476, 1.113e-3
-1.475, 1.095e-3
-1.474, 1.076e-3
-1.473, 1.061e-3
-1.472, 1.045e-3
-1.471, 1.030e-3
-1.470, 1.014e-3
-1.469, 9.991e-4
-1.468, 9.806e-4
-1.467, 9.652e-4
-1.466, 9.528e-4
-1.465, 9.374e-4
-1.464, 9.220e-4
-1.463, 9.066e-4
-1.462, 8.943e-4
-1.461, 8.788e-4
-1.460, 8.665e-4
-1.459, 8.511e-4
-1.458, 8.388e-4
-1.457, 8.264e-4
-1.456, 8.141e-4
-1.455, 7.987e-4
-1.454, 7.863e-4
-1.453, 7.740e-4
-1.452, 7.617e-4
-1.451, 7.494e-4
-1.450, 7.370e-4
-1.449, 7.216e-4
-1.448, 7.124e-4
-1.447, 7.000e-4
-1.446, 6.877e-4
-1.445, 6.754e-4
-1.444, 6.599e-4
-1.443, 6.507e-4
-1.442, 6.384e-4
-1.441, 6.260e-4
-1.440, 6.168e-4
-1.439, 6.044e-4
-1.438, 5.952e-4
-1.437, 5.829e-4
-1.436, 5.736e-4
-1.435, 5.644e-4
-1.434, 5.520e-4
-1.433, 5.428e-4
-1.432, 5.305e-4
-1.431, 5.212e-4
-1.430, 5.120e-4
-1.429, 4.996e-4
-1.428, 4.904e-4
-1.427, 4.842e-4
-1.426, 4.719e-4
-1.425, 4.626e-4
-1.424, 4.565e-4
-1.423, 4.441e-4
-1.422, 4.349e-4
-1.421, 4.256e-4
-1.420, 4.164e-4
-1.419, 4.102e-4
-1.418, 4.010e-4
-1.417, 3.917e-4
-1.416, 3.825e-4
-1.415, 3.763e-4
-1.414, 3.670e-4
-1.413, 3.578e-4
-1.412, 3.516e-4
-1.411, 3.424e-4
-1.410, 3.331e-4
-1.409, 3.239e-4
-1.408, 3.177e-4
-1.407, 3.085e-4
-1.406, 2.992e-4
-1.405, 2.931e-4
-1.404, 2.838e-4
-1.403, 2.776e-4
-1.402, 2.715e-4
-1.401, 2.653e-4
-1.400, 2.591e-4
-1.399, 2.499e-4
-1.398, 2.437e-4
-1.397, 2.345e-4
-1.396, 2.283e-4
-1.395, 2.221e-4
-1.394, 2.160e-4
-1.393, 2.067e-4
-1.392, 2.036e-4
-1.391, 1.944e-4
-1.390, 1.882e-4
-1.389, 1.821e-4
-1.388, 1.759e-4
-1.387, 1.697e-4
-1.386, 1.636e-4
-1.385, 1.574e-4
-1.384, 1.481e-4
-1.383, 1.420e-4
-1.382, 1.389e-4
-1.381, 1.327e-4
-1.380, 1.266e-4
-1.379, 1.204e-4
-1.378, 1.142e-4
-1.377, 1.111e-4
-1.376, 1.050e-4
-1.375, 9.882e-5
-1.374, 9.265e-5
-1.373, 8.957e-5
-1.372, 8.340e-5
-1.371, 7.723e-5
-1.370, 7.107e-5
-1.369, 6.490e-5
-1.368, 6.490e-5
-1.367, 5.873e-5
-1.366, 5.257e-5
-1.365, 4.949e-5
-1.364, 4.332e-5
-1.363, 4.024e-5
-1.362, 3.407e-5
-1.361, 3.099e-5
-1.360, 2.482e-5
-1.359, 2.174e-5
-1.358, 1.865e-5
-1.357, 1.249e-5
-1.356, 9.405e-6
-1.355, 6.322e-6
-1.354, 1.559e-7
-1.353, -2.927e-6
-1.352, -6.010e-6
-1.351, -1.218e-5
-1.350, -1.526e-5
-1.349, -1.834e-5
-1.348, -2.143e-5
-1.347, -2.143e-5
-1.346, -2.759e-5
-1.345, -3.068e-5
-1.344, -3.376e-5
-1.343, -3.684e-5
-1.342, -3.992e-5
-1.341, -4.301e-5
-1.340, -4.609e-5
-1.339, -5.226e-5
-1.338, -5.534e-5
-1.337, -5.842e-5
-1.336, -6.151e-5
-1.335, -6.151e-5
-1.334, -6.459e-5
-1.333, -6.767e-5
-1.332, -7.076e-5
-1.331, -7.384e-5
-1.330, -7.692e-5
-1.329, -8.000e-5
-1.328, -8.309e-5
-1.327, -8.617e-5
-1.326, -8.925e-5
-1.325, -9.234e-5
-1.324, -9.542e-5
-1.323, -9.850e-5
-1.322, -1.016e-4
-1.321, -1.047e-4
-1.320, -1.047e-4
-1.319, -1.078e-4
-1.318, -1.139e-4
-1.317, -1.139e-4
-1.316, -1.170e-4
-1.315, -1.201e-4
-1.314, -1.232e-4
-1.313, -1.263e-4
-1.312, -1.263e-4
-1.311, -1.293e-4
-1.310, -1.324e-4
-1.309, -1.355e-4
-1.308, -1.386e-4
-1.307, -1.386e-4
-1.306, -1.417e-4
-1.305, -1.478e-4
-1.304, -1.478e-4
-1.303, -1.509e-4
-1.302, -1.540e-4
-1.301, -1.571e-4
-1.300, -1.602e-4
-1.299, -1.602e-4
-1.298, -1.632e-4
-1.297, -1.663e-4
-1.296, -1.663e-4
-1.295, -1.694e-4
-1.294, -1.725e-4
-1.293, -1.756e-4
-1.292, -1.787e-4
-1.291, -1.787e-4
-1.290, -1.817e-4
-1.289, -1.848e-4
-1.288, -1.848e-4
-1.287, -1.879e-4
-1.286, -1.910e-4
-1.285, -1.941e-4
-1.284, -1.972e-4
-1.283, -1.972e-4
-1.282, -2.002e-4
-1.281, -2.033e-4
-1.280, -2.064e-4
-1.279, -2.095e-4
-1.278, -2.095e-4
-1.277, -2.126e-4
-1.276, -2.126e-4
-1.275, -2.157e-4
-1.274, -2.187e-4
-1.273, -2.218e-4
-1.272, -2.218e-4
-1.271, -2.249e-4
-1.270, -2.280e-4
-1.269, -2.311e-4
-1.268, -2.342e-4
-1.267, -2.342e-4
-1.266, -2.372e-4
-1.265, -2.372e-4
-1.264, -2.403e-4
-1.263, -2.434e-4
-1.262, -2.465e-4
-1.261, -2.465e-4
-1.260, -2.496e-4
-1.259, -2.527e-4
-1.258, -2.557e-4
-1.257, -2.588e-4
-1.256, -2.588e-4
-1.255, -2.650e-4
-1.254, -2.650e-4
-1.253, -2.681e-4
-1.252, -2.712e-4
-1.251, -2.712e-4
-1.250, -2.742e-4
-1.249, -2.773e-4
-1.248, -2.804e-4
-1.247, -2.835e-4
-1.246, -2.866e-4
-1.245, -2.897e-4
-1.244, -2.927e-4
-1.243, -2.958e-4
-1.242, -2.989e-4
-1.241, -3.051e-4
-1.240, -3.082e-4
-1.239, -3.112e-4
-1.238, -3.143e-4
-1.237, -3.174e-4
-1.236, -3.236e-4
-1.235, -3.267e-4
-1.234, -3.328e-4
-1.233, -3.359e-4
-1.232, -3.421e-4
-1.231, -3.452e-4
-1.230, -3.513e-4
-1.229, -3.575e-4
-1.228, -3.606e-4
-1.227, -3.637e-4
-1.226, -3.667e-4
-1.225, -3.698e-4
-1.224, -3.760e-4
-1.223, -3.791e-4
-1.222, -3.821e-4
-1.221, -3.883e-4
-1.220, -3.914e-4
-1.219, -3.945e-4
-1.218, -3.945e-4
-1.217, -3.976e-4
-1.216, -4.006e-4
-1.215, -4.068e-4
-1.214, -4.099e-4
-1.213, -4.130e-4
-1.212, -4.161e-4
-1.211, -4.191e-4
-1.210, -4.222e-4
-1.209, -4.253e-4
-1.208, -4.284e-4
-1.207, -4.315e-4
-1.206, -4.315e-4
-1.205, -4.346e-4
-1.204, -4.376e-4
-1.203, -4.407e-4
-1.202, -4.407e-4
-1.201, -4.469e-4
-1.200, -4.469e-4
-1.199, -4.500e-4
-1.198, -4.531e-4
-1.197, -4.561e-4
-1.196, -4.592e-4
-1.195, -4.623e-4
-1.194, -4.654e-4
-1.193, -4.654e-4
-1.192, -4.685e-4
-1.191, -4.716e-4
-1.190, -4.746e-4
-1.189, -4.777e-4
-1.188, -4.808e-4
-1.187, -4.839e-4
-1.186, -4.839e-4
-1.185, -4.870e-4
-1.184, -4.901e-4
-1.183, -4.901e-4
-1.182, -4.931e-4
-1.181, -4.962e-4
-1.180, -4.993e-4
-1.179, -4.993e-4
-1.178, -5.024e-4
-1.177, -5.086e-4
-1.176, -5.116e-4
-1.175, -5.116e-4
-1.174, -5.147e-4
-1.173, -5.178e-4
-1.172, -5.178e-4
-1.171, -5.209e-4
-1.170, -5.240e-4
-1.169, -5.271e-4
-1.168, -5.271e-4
-1.167, -5.301e-4
-1.166, -5.332e-4
-1.165, -5.332e-4
-1.164, -5.394e-4
-1.163, -5.394e-4
-1.162, -5.425e-4
-1.161, -5.456e-4
-1.160, -5.456e-4
-1.159, -5.486e-4
-1.158, -5.486e-4
-1.157, -5.517e-4
-1.156, -5.548e-4
-1.155, -5.548e-4
-1.154, -5.579e-4
-1.153, -5.610e-4
-1.152, -5.641e-4
-1.151, -5.671e-4
-1.150, -5.671e-4
-1.149, -5.702e-4
-1.148, -5.733e-4
-1.147, -5.733e-4
-1.146, -5.764e-4
-1.145, -5.764e-4
-1.144, -5.795e-4
-1.143, -5.856e-4
-1.142, -5.856e-4
-1.141, -5.887e-4
-1.140, -5.918e-4
-1.139, -5.918e-4
-1.138, -5.949e-4
-1.137, -5.980e-4
-1.136, -6.011e-4
-1.135, -6.011e-4
-1.134, -6.011e-4
-1.133, -6.041e-4
-1.132, -6.072e-4
-1.131, -6.072e-4
-1.130, -6.103e-4
-1.129, -6.134e-4
-1.128, -6.165e-4
-1.127, -6.165e-4
-1.126, -6.195e-4
-1.125, -6.226e-4
-1.124, -6.257e-4
-1.123, -6.288e-4
-1.122, -6.288e-4
-1.121, -6.319e-4
-1.120, -6.319e-4
-1.119, -6.380e-4
-1.118, -6.411e-4
-1.117, -6.411e-4
-1.116, -6.442e-4
-1.115, -6.442e-4
-1.114, -6.473e-4
-1.113, -6.504e-4
-1.112, -6.535e-4
-1.111, -6.535e-4
-1.110, -6.565e-4
-1.109, -6.596e-4
-1.108, -6.627e-4
-1.107, -6.658e-4
-1.106, -6.689e-4
-1.105, -6.720e-4
-1.104, -6.720e-4
-1.103, -6.750e-4
-1.102, -6.781e-4
-1.101, -6.812e-4
-1.100, -6.843e-4
-1.099, -6.843e-4
-1.098, -6.874e-4
-1.097, -6.905e-4
-1.096, -6.935e-4
-1.095, -6.966e-4
-1.094, -6.997e-4
-1.093, -7.028e-4
-1.092, -7.059e-4
-1.091, -7.090e-4
-1.090, -7.120e-4
-1.089, -7.151e-4
-1.088, -7.182e-4
-1.087, -7.213e-4
-1.086, -7.244e-4
-1.085, -7.275e-4
-1.084, -7.336e-4
-1.083, -7.336e-4
-1.082, -7.367e-4
-1.081, -7.398e-4
-1.080, -7.460e-4
-1.079, -7.490e-4
-1.078, -7.521e-4
-1.077, -7.552e-4
-1.076, -7.583e-4
-1.075, -7.645e-4
-1.074, -7.675e-4
-1.073, -7.737e-4
-1.072, -7.737e-4
-1.071, -7.799e-4
-1.070, -7.830e-4
-1.069, -7.891e-4
-1.068, -7.922e-4
-1.067, -7.953e-4
-1.066, -8.015e-4
-1.065, -8.045e-4
-1.064, -8.076e-4
-1.063, -8.138e-4
-1.062, -8.169e-4
-1.061, -8.230e-4
-1.060, -8.261e-4
-1.059, -8.323e-4
-1.058, -8.354e-4
-1.057, -8.415e-4
-1.056, -8.477e-4
-1.055, -8.508e-4
-1.054, -8.569e-4
-1.053, -8.600e-4
-1.052, -8.662e-4
-1.051, -8.693e-4
-1.050, -8.754e-4
-1.049, -8.816e-4
-1.048, -8.878e-4
-1.047, -8.939e-4
-1.046, -9.001e-4
-1.045, -9.032e-4
-1.044, -9.094e-4
-1.043, -9.155e-4
-1.042, -9.217e-4
-1.041, -9.279e-4
-1.040, -9.340e-4
-1.039, -9.402e-4
-1.038, -9.464e-4
-1.037, -9.525e-4
-1.036, -9.587e-4
-1.035, -9.649e-4
-1.034, -9.741e-4
-1.033, -9.803e-4
-1.032, -9.864e-4
-1.031, -9.895e-4
-1.030, -9.957e-4
-1.029, -1.002e-3
-1.028, -1.008e-3
-1.027, -1.014e-3
-1.026, -1.023e-3
-1.025, -1.030e-3
-1.024, -1.039e-3
-1.023, -1.048e-3
-1.022, -1.054e-3
-1.021, -1.064e-3
-1.020, -1.070e-3
-1.019, -1.076e-3
-1.018, -1.082e-3
-1.017, -1.088e-3
-1.016, -1.094e-3
-1.015, -1.101e-3
-1.014, -1.110e-3
-1.013, -1.116e-3
-1.012, -1.125e-3
-1.011, -1.131e-3
-1.010, -1.138e-3
-1.009, -1.147e-3
-1.008, -1.153e-3
-1.007, -1.162e-3
-1.006, -1.168e-3
-1.005, -1.178e-3
-1.004, -1.187e-3
-1.003, -1.193e-3
-1.002, -1.202e-3
-1.001, -1.212e-3
