Sept. 4, 2024   17:25:18
Cyclic Voltammetry
File: c:/users/guazh/data/20240903_batch_252_500/2024-09-03-exp263\exp263-2024-09-04t16_55_48-h2koh\exp263_cv_sr_800mvs_efin_-1900mv.bin
Data Source:  Experiment
Instrument Model:  CHI760E
Header: CV ran at 800 mVs
Note: 

Init E (V) = -1
High E (V) = -1
Low E (V) = -1.9
Final E (V) = -1
Init P/N = N
Scan Rate (V/s) = 0.8
Segment = 3
Sample Interval (V) = 0.001
Quiet Time (sec) = 2
Sensitivity (A/V) = 0.01
Comp R (ohm) = 2.7

Results:

Channel 1:
Segment 1:

Segment 2:

Segment 3:

Potential/V, Current/A

-1.000, 3.239e-6
-1.001, 3.239e-6
-1.002, 6.322e-6
-1.003, 3.239e-6
-1.004, 6.322e-6
-1.005, 6.322e-6
-1.006, 6.322e-6
-1.007, 3.239e-6
-1.008, 3.239e-6
-1.009, 6.322e-6
-1.010, 6.322e-6
-1.011, 6.322e-6
-1.012, 6.322e-6
-1.013, 6.322e-6
-1.014, 6.322e-6
-1.015, 6.322e-6
-1.016, 6.322e-6
-1.017, 6.322e-6
-1.018, 6.322e-6
-1.019, 6.322e-6
-1.020, 6.322e-6
-1.021, 6.322e-6
-1.022, 9.405e-6
-1.023, 6.322e-6
-1.024, 6.322e-6
-1.025, 6.322e-6
-1.026, 9.405e-6
-1.027, 6.322e-6
-1.028, 9.405e-6
-1.029, 6.322e-6
-1.030, 9.405e-6
-1.031, 6.322e-6
-1.032, 6.322e-6
-1.033, 9.405e-6
-1.034, 9.405e-6
-1.035, 9.405e-6
-1.036, 9.405e-6
-1.037, 6.322e-6
-1.038, 9.405e-6
-1.039, 6.322e-6
-1.040, 6.322e-6
-1.041, 6.322e-6
-1.042, 9.405e-6
-1.043, 9.405e-6
-1.044, 9.405e-6
-1.045, 9.405e-6
-1.046, 9.405e-6
-1.047, 9.405e-6
-1.048, 9.405e-6
-1.049, 9.405e-6
-1.050, 9.405e-6
-1.051, 9.405e-6
-1.052, 9.405e-6
-1.053, 9.405e-6
-1.054, 1.249e-5
-1.055, 9.405e-6
-1.056, 9.405e-6
-1.057, 9.405e-6
-1.058, 9.405e-6
-1.059, 9.405e-6
-1.060, 9.405e-6
-1.061, 9.405e-6
-1.062, 9.405e-6
-1.063, 9.405e-6
-1.064, 9.405e-6
-1.065, 9.405e-6
-1.066, 9.405e-6
-1.067, 9.405e-6
-1.068, 9.405e-6
-1.069, 9.405e-6
-1.070, 9.405e-6
-1.071, 9.405e-6
-1.072, 9.405e-6
-1.073, 9.405e-6
-1.074, 9.405e-6
-1.075, 1.249e-5
-1.076, 9.405e-6
-1.077, 1.249e-5
-1.078, 9.405e-6
-1.079, 1.249e-5
-1.080, 9.405e-6
-1.081, 9.405e-6
-1.082, 1.249e-5
-1.083, 1.249e-5
-1.084, 1.249e-5
-1.085, 9.405e-6
-1.086, 9.405e-6
-1.087, 1.249e-5
-1.088, 1.249e-5
-1.089, 9.405e-6
-1.090, 1.249e-5
-1.091, 1.249e-5
-1.092, 1.249e-5
-1.093, 1.249e-5
-1.094, 9.405e-6
-1.095, 1.249e-5
-1.096, 1.249e-5
-1.097, 1.249e-5
-1.098, 1.249e-5
-1.099, 1.249e-5
-1.100, 1.249e-5
-1.101, 1.249e-5
-1.102, 1.249e-5
-1.103, 1.249e-5
-1.104, 1.249e-5
-1.105, 1.249e-5
-1.106, 1.249e-5
-1.107, 1.249e-5
-1.108, 1.249e-5
-1.109, 1.249e-5
-1.110, 1.249e-5
-1.111, 1.557e-5
-1.112, 1.249e-5
-1.113, 1.249e-5
-1.114, 1.249e-5
-1.115, 1.249e-5
-1.116, 1.249e-5
-1.117, 1.249e-5
-1.118, 1.249e-5
-1.119, 1.249e-5
-1.120, 1.249e-5
-1.121, 1.249e-5
-1.122, 1.249e-5
-1.123, 1.249e-5
-1.124, 1.557e-5
-1.125, 1.249e-5
-1.126, 1.249e-5
-1.127, 1.249e-5
-1.128, 1.249e-5
-1.129, 1.249e-5
-1.130, 1.249e-5
-1.131, 1.249e-5
-1.132, 1.249e-5
-1.133, 1.249e-5
-1.134, 1.249e-5
-1.135, 1.249e-5
-1.136, 1.249e-5
-1.137, 1.249e-5
-1.138, 1.249e-5
-1.139, 1.249e-5
-1.140, 1.557e-5
-1.141, 1.557e-5
-1.142, 1.249e-5
-1.143, 1.249e-5
-1.144, 1.557e-5
-1.145, 1.249e-5
-1.146, 1.249e-5
-1.147, 1.249e-5
-1.148, 1.557e-5
-1.149, 1.249e-5
-1.150, 1.557e-5
-1.151, 1.557e-5
-1.152, 1.557e-5
-1.153, 1.557e-5
-1.154, 1.249e-5
-1.155, 1.249e-5
-1.156, 1.557e-5
-1.157, 1.557e-5
-1.158, 1.557e-5
-1.159, 1.249e-5
-1.160, 1.557e-5
-1.161, 1.557e-5
-1.162, 1.557e-5
-1.163, 1.557e-5
-1.164, 1.557e-5
-1.165, 1.557e-5
-1.166, 1.557e-5
-1.167, 1.249e-5
-1.168, 1.557e-5
-1.169, 1.557e-5
-1.170, 1.557e-5
-1.171, 1.557e-5
-1.172, 1.557e-5
-1.173, 1.557e-5
-1.174, 1.865e-5
-1.175, 1.557e-5
-1.176, 1.557e-5
-1.177, 1.557e-5
-1.178, 1.557e-5
-1.179, 1.557e-5
-1.180, 1.557e-5
-1.181, 1.557e-5
-1.182, 1.557e-5
-1.183, 1.557e-5
-1.184, 1.557e-5
-1.185, 1.557e-5
-1.186, 1.557e-5
-1.187, 1.557e-5
-1.188, 1.557e-5
-1.189, 1.865e-5
-1.190, 1.865e-5
-1.191, 1.557e-5
-1.192, 1.557e-5
-1.193, 1.557e-5
-1.194, 1.557e-5
-1.195, 1.557e-5
-1.196, 1.557e-5
-1.197, 1.865e-5
-1.198, 1.557e-5
-1.199, 1.557e-5
-1.200, 1.557e-5
-1.201, 1.865e-5
-1.202, 1.557e-5
-1.203, 1.865e-5
-1.204, 1.865e-5
-1.205, 1.865e-5
-1.206, 1.865e-5
-1.207, 1.865e-5
-1.208, 1.557e-5
-1.209, 1.865e-5
-1.210, 1.865e-5
-1.211, 1.865e-5
-1.212, 1.557e-5
-1.213, 1.865e-5
-1.214, 1.865e-5
-1.215, 1.865e-5
-1.216, 1.557e-5
-1.217, 1.865e-5
-1.218, 1.865e-5
-1.219, 1.865e-5
-1.220, 1.865e-5
-1.221, 1.865e-5
-1.222, 1.865e-5
-1.223, 1.865e-5
-1.224, 1.865e-5
-1.225, 1.865e-5
-1.226, 1.865e-5
-1.227, 1.865e-5
-1.228, 1.865e-5
-1.229, 1.865e-5
-1.230, 1.865e-5
-1.231, 1.865e-5
-1.232, 1.865e-5
-1.233, 1.865e-5
-1.234, 1.865e-5
-1.235, 2.174e-5
-1.236, 1.865e-5
-1.237, 1.865e-5
-1.238, 1.865e-5
-1.239, 1.865e-5
-1.240, 1.865e-5
-1.241, 1.865e-5
-1.242, 1.865e-5
-1.243, 1.865e-5
-1.244, 1.865e-5
-1.245, 1.865e-5
-1.246, 2.174e-5
-1.247, 1.865e-5
-1.248, 1.865e-5
-1.249, 1.865e-5
-1.250, 2.174e-5
-1.251, 2.174e-5
-1.252, 1.865e-5
-1.253, 1.865e-5
-1.254, 2.174e-5
-1.255, 2.174e-5
-1.256, 1.865e-5
-1.257, 2.174e-5
-1.258, 2.174e-5
-1.259, 2.174e-5
-1.260, 1.865e-5
-1.261, 1.865e-5
-1.262, 2.174e-5
-1.263, 2.174e-5
-1.264, 2.174e-5
-1.265, 2.174e-5
-1.266, 2.174e-5
-1.267, 2.174e-5
-1.268, 2.174e-5
-1.269, 2.174e-5
-1.270, 2.174e-5
-1.271, 2.174e-5
-1.272, 2.174e-5
-1.273, 2.174e-5
-1.274, 2.174e-5
-1.275, 2.174e-5
-1.276, 2.174e-5
-1.277, 2.174e-5
-1.278, 2.174e-5
-1.279, 2.174e-5
-1.280, 2.174e-5
-1.281, 2.174e-5
-1.282, 2.174e-5
-1.283, 2.174e-5
-1.284, 2.482e-5
-1.285, 2.174e-5
-1.286, 2.174e-5
-1.287, 2.174e-5
-1.288, 2.174e-5
-1.289, 2.174e-5
-1.290, 2.174e-5
-1.291, 2.174e-5
-1.292, 2.482e-5
-1.293, 2.174e-5
-1.294, 2.174e-5
-1.295, 2.174e-5
-1.296, 2.482e-5
-1.297, 2.174e-5
-1.298, 2.482e-5
-1.299, 2.482e-5
-1.300, 2.482e-5
-1.301, 2.482e-5
-1.302, 2.482e-5
-1.303, 2.482e-5
-1.304, 2.482e-5
-1.305, 2.174e-5
-1.306, 2.482e-5
-1.307, 2.482e-5
-1.308, 2.482e-5
-1.309, 2.482e-5
-1.310, 2.482e-5
-1.311, 2.482e-5
-1.312, 2.482e-5
-1.313, 2.482e-5
-1.314, 2.482e-5
-1.315, 2.482e-5
-1.316, 2.482e-5
-1.317, 2.482e-5
-1.318, 2.482e-5
-1.319, 2.482e-5
-1.320, 2.482e-5
-1.321, 2.482e-5
-1.322, 2.482e-5
-1.323, 2.482e-5
-1.324, 2.482e-5
-1.325, 2.790e-5
-1.326, 2.482e-5
-1.327, 2.482e-5
-1.328, 2.482e-5
-1.329, 2.482e-5
-1.330, 2.482e-5
-1.331, 2.482e-5
-1.332, 2.790e-5
-1.333, 2.790e-5
-1.334, 2.790e-5
-1.335, 2.790e-5
-1.336, 2.790e-5
-1.337, 2.790e-5
-1.338, 2.790e-5
-1.339, 2.482e-5
-1.340, 2.790e-5
-1.341, 2.790e-5
-1.342, 2.790e-5
-1.343, 2.790e-5
-1.344, 2.790e-5
-1.345, 2.790e-5
-1.346, 2.790e-5
-1.347, 2.790e-5
-1.348, 2.790e-5
-1.349, 2.790e-5
-1.350, 2.790e-5
-1.351, 2.790e-5
-1.352, 2.790e-5
-1.353, 3.099e-5
-1.354, 2.790e-5
-1.355, 2.790e-5
-1.356, 2.790e-5
-1.357, 3.099e-5
-1.358, 2.790e-5
-1.359, 2.790e-5
-1.360, 3.099e-5
-1.361, 3.099e-5
-1.362, 3.099e-5
-1.363, 3.099e-5
-1.364, 3.099e-5
-1.365, 3.099e-5
-1.366, 3.099e-5
-1.367, 3.099e-5
-1.368, 3.099e-5
-1.369, 3.099e-5
-1.370, 3.099e-5
-1.371, 3.099e-5
-1.372, 3.099e-5
-1.373, 3.099e-5
-1.374, 3.099e-5
-1.375, 3.099e-5
-1.376, 3.099e-5
-1.377, 3.407e-5
-1.378, 3.099e-5
-1.379, 3.099e-5
-1.380, 3.099e-5
-1.381, 3.407e-5
-1.382, 3.099e-5
-1.383, 3.407e-5
-1.384, 3.099e-5
-1.385, 3.407e-5
-1.386, 3.407e-5
-1.387, 3.407e-5
-1.388, 3.407e-5
-1.389, 3.407e-5
-1.390, 3.407e-5
-1.391, 3.099e-5
-1.392, 3.407e-5
-1.393, 3.407e-5
-1.394, 3.715e-5
-1.395, 3.407e-5
-1.396, 3.407e-5
-1.397, 3.407e-5
-1.398, 3.715e-5
-1.399, 3.407e-5
-1.400, 3.407e-5
-1.401, 3.715e-5
-1.402, 3.715e-5
-1.403, 3.407e-5
-1.404, 3.715e-5
-1.405, 3.715e-5
-1.406, 3.715e-5
-1.407, 3.715e-5
-1.408, 3.715e-5
-1.409, 3.715e-5
-1.410, 3.715e-5
-1.411, 3.715e-5
-1.412, 3.715e-5
-1.413, 3.715e-5
-1.414, 3.715e-5
-1.415, 3.715e-5
-1.416, 3.715e-5
-1.417, 3.715e-5
-1.418, 4.024e-5
-1.419, 3.715e-5
-1.420, 4.024e-5
-1.421, 3.715e-5
-1.422, 4.024e-5
-1.423, 4.024e-5
-1.424, 4.024e-5
-1.425, 4.024e-5
-1.426, 4.024e-5
-1.427, 4.332e-5
-1.428, 4.024e-5
-1.429, 4.024e-5
-1.430, 4.332e-5
-1.431, 4.024e-5
-1.432, 4.332e-5
-1.433, 4.332e-5
-1.434, 4.332e-5
-1.435, 4.332e-5
-1.436, 4.332e-5
-1.437, 4.024e-5
-1.438, 4.332e-5
-1.439, 4.332e-5
-1.440, 4.332e-5
-1.441, 4.332e-5
-1.442, 4.332e-5
-1.443, 4.332e-5
-1.444, 4.332e-5
-1.445, 4.332e-5
-1.446, 4.332e-5
-1.447, 4.640e-5
-1.448, 4.640e-5
-1.449, 4.640e-5
-1.450, 4.640e-5
-1.451, 4.640e-5
-1.452, 4.640e-5
-1.453, 4.640e-5
-1.454, 4.640e-5
-1.455, 4.640e-5
-1.456, 4.949e-5
-1.457, 4.640e-5
-1.458, 4.640e-5
-1.459, 4.949e-5
-1.460, 4.949e-5
-1.461, 4.949e-5
-1.462, 4.949e-5
-1.463, 4.949e-5
-1.464, 4.949e-5
-1.465, 4.949e-5
-1.466, 4.949e-5
-1.467, 4.949e-5
-1.468, 4.949e-5
-1.469, 5.257e-5
-1.470, 4.949e-5
-1.471, 5.257e-5
-1.472, 5.257e-5
-1.473, 5.257e-5
-1.474, 5.257e-5
-1.475, 5.257e-5
-1.476, 5.257e-5
-1.477, 5.257e-5
-1.478, 5.257e-5
-1.479, 5.565e-5
-1.480, 5.565e-5
-1.481, 5.565e-5
-1.482, 5.565e-5
-1.483, 5.565e-5
-1.484, 5.565e-5
-1.485, 5.565e-5
-1.486, 5.565e-5
-1.487, 5.565e-5
-1.488, 5.565e-5
-1.489, 5.873e-5
-1.490, 5.873e-5
-1.491, 5.873e-5
-1.492, 5.873e-5
-1.493, 5.873e-5
-1.494, 5.873e-5
-1.495, 5.873e-5
-1.496, 5.873e-5
-1.497, 6.182e-5
-1.498, 6.182e-5
-1.499, 6.182e-5
-1.500, 6.182e-5
-1.501, 6.182e-5
-1.502, 6.182e-5
-1.503, 6.182e-5
-1.504, 6.182e-5
-1.505, 6.182e-5
-1.506, 6.490e-5
-1.507, 6.490e-5
-1.508, 6.490e-5
-1.509, 6.490e-5
-1.510, 6.490e-5
-1.511, 6.490e-5
-1.512, 6.798e-5
-1.513, 6.490e-5
-1.514, 6.798e-5
-1.515, 6.798e-5
-1.516, 6.798e-5
-1.517, 6.798e-5
-1.518, 6.798e-5
-1.519, 6.798e-5
-1.520, 6.798e-5
-1.521, 7.107e-5
-1.522, 7.107e-5
-1.523, 7.107e-5
-1.524, 7.107e-5
-1.525, 7.107e-5
-1.526, 7.107e-5
-1.527, 7.107e-5
-1.528, 7.415e-5
-1.529, 7.415e-5
-1.530, 7.415e-5
-1.531, 7.415e-5
-1.532, 7.415e-5
-1.533, 7.723e-5
-1.534, 7.723e-5
-1.535, 7.723e-5
-1.536, 7.723e-5
-1.537, 7.723e-5
-1.538, 7.723e-5
-1.539, 7.723e-5
-1.540, 8.032e-5
-1.541, 8.032e-5
-1.542, 8.032e-5
-1.543, 7.723e-5
-1.544, 8.032e-5
-1.545, 8.032e-5
-1.546, 8.340e-5
-1.547, 8.032e-5
-1.548, 8.032e-5
-1.549, 8.340e-5
-1.550, 8.340e-5
-1.551, 8.340e-5
-1.552, 8.648e-5
-1.553, 8.648e-5
-1.554, 8.648e-5
-1.555, 8.648e-5
-1.556, 8.648e-5
-1.557, 8.648e-5
-1.558, 8.957e-5
-1.559, 8.957e-5
-1.560, 8.648e-5
-1.561, 8.957e-5
-1.562, 9.265e-5
-1.563, 8.957e-5
-1.564, 9.265e-5
-1.565, 9.265e-5
-1.566, 9.265e-5
-1.567, 9.265e-5
-1.568, 9.265e-5
-1.569, 9.265e-5
-1.570, 9.882e-5
-1.571, 9.573e-5
-1.572, 9.573e-5
-1.573, 9.882e-5
-1.574, 9.882e-5
-1.575, 9.882e-5
-1.576, 9.882e-5
-1.577, 9.882e-5
-1.578, 1.019e-4
-1.579, 1.019e-4
-1.580, 1.019e-4
-1.581, 1.019e-4
-1.582, 1.050e-4
-1.583, 1.050e-4
-1.584, 1.050e-4
-1.585, 1.050e-4
-1.586, 1.050e-4
-1.587, 1.081e-4
-1.588, 1.081e-4
-1.589, 1.081e-4
-1.590, 1.111e-4
-1.591, 1.081e-4
-1.592, 1.111e-4
-1.593, 1.111e-4
-1.594, 1.111e-4
-1.595, 1.142e-4
-1.596, 1.142e-4
-1.597, 1.142e-4
-1.598, 1.142e-4
-1.599, 1.142e-4
-1.600, 1.173e-4
-1.601, 1.173e-4
-1.602, 1.173e-4
-1.603, 1.204e-4
-1.604, 1.204e-4
-1.605, 1.204e-4
-1.606, 1.204e-4
-1.607, 1.235e-4
-1.608, 1.204e-4
-1.609, 1.235e-4
-1.610, 1.235e-4
-1.611, 1.266e-4
-1.612, 1.266e-4
-1.613, 1.266e-4
-1.614, 1.296e-4
-1.615, 1.296e-4
-1.616, 1.296e-4
-1.617, 1.296e-4
-1.618, 1.296e-4
-1.619, 1.327e-4
-1.620, 1.358e-4
-1.621, 1.358e-4
-1.622, 1.358e-4
-1.623, 1.389e-4
-1.624, 1.389e-4
-1.625, 1.389e-4
-1.626, 1.420e-4
-1.627, 1.420e-4
-1.628, 1.420e-4
-1.629, 1.451e-4
-1.630, 1.451e-4
-1.631, 1.451e-4
-1.632, 1.481e-4
-1.633, 1.481e-4
-1.634, 1.481e-4
-1.635, 1.512e-4
-1.636, 1.512e-4
-1.637, 1.543e-4
-1.638, 1.512e-4
-1.639, 1.574e-4
-1.640, 1.574e-4
-1.641, 1.574e-4
-1.642, 1.574e-4
-1.643, 1.605e-4
-1.644, 1.636e-4
-1.645, 1.636e-4
-1.646, 1.636e-4
-1.647, 1.666e-4
-1.648, 1.697e-4
-1.649, 1.728e-4
-1.650, 1.728e-4
-1.651, 1.728e-4
-1.652, 1.759e-4
-1.653, 1.728e-4
-1.654, 1.759e-4
-1.655, 1.790e-4
-1.656, 1.790e-4
-1.657, 1.851e-4
-1.658, 1.851e-4
-1.659, 1.851e-4
-1.660, 1.882e-4
-1.661, 1.882e-4
-1.662, 1.882e-4
-1.663, 1.913e-4
-1.664, 1.944e-4
-1.665, 1.975e-4
-1.666, 1.975e-4
-1.667, 1.975e-4
-1.668, 2.006e-4
-1.669, 2.036e-4
-1.670, 2.036e-4
-1.671, 2.067e-4
-1.672, 2.098e-4
-1.673, 2.129e-4
-1.674, 2.129e-4
-1.675, 2.160e-4
-1.676, 2.221e-4
-1.677, 2.221e-4
-1.678, 2.221e-4
-1.679, 2.252e-4
-1.680, 2.283e-4
-1.681, 2.345e-4
-1.682, 2.376e-4
-1.683, 2.376e-4
-1.684, 2.406e-4
-1.685, 2.406e-4
-1.686, 2.437e-4
-1.687, 2.468e-4
-1.688, 2.468e-4
-1.689, 2.499e-4
-1.690, 2.561e-4
-1.691, 2.530e-4
-1.692, 2.622e-4
-1.693, 2.591e-4
-1.694, 2.653e-4
-1.695, 2.653e-4
-1.696, 2.653e-4
-1.697, 2.746e-4
-1.698, 2.776e-4
-1.699, 2.715e-4
-1.700, 2.807e-4
-1.701, 2.776e-4
-1.702, 2.869e-4
-1.703, 2.900e-4
-1.704, 2.961e-4
-1.705, 2.900e-4
-1.706, 2.961e-4
-1.707, 3.023e-4
-1.708, 3.023e-4
-1.709, 3.085e-4
-1.710, 3.146e-4
-1.711, 3.208e-4
-1.712, 3.146e-4
-1.713, 3.239e-4
-1.714, 3.331e-4
-1.715, 3.300e-4
-1.716, 3.393e-4
-1.717, 3.331e-4
-1.718, 3.393e-4
-1.719, 3.516e-4
-1.720, 3.547e-4
-1.721, 3.578e-4
-1.722, 3.763e-4
-1.723, 3.701e-4
-1.724, 3.701e-4
-1.725, 3.701e-4
-1.726, 3.701e-4
-1.727, 3.855e-4
-1.728, 3.763e-4
-1.729, 3.794e-4
-1.730, 3.979e-4
-1.731, 4.010e-4
-1.732, 4.102e-4
-1.733, 4.071e-4
-1.734, 4.071e-4
-1.735, 4.195e-4
-1.736, 4.195e-4
-1.737, 4.195e-4
-1.738, 4.256e-4
-1.739, 4.380e-4
-1.740, 4.380e-4
-1.741, 4.503e-4
-1.742, 4.595e-4
-1.743, 4.595e-4
-1.744, 4.688e-4
-1.745, 4.780e-4
-1.746, 4.688e-4
-1.747, 4.688e-4
-1.748, 4.842e-4
-1.749, 4.842e-4
-1.750, 4.904e-4
-1.751, 5.027e-4
-1.752, 5.120e-4
-1.753, 5.335e-4
-1.754, 5.428e-4
-1.755, 5.489e-4
-1.756, 5.335e-4
-1.757, 5.459e-4
-1.758, 5.489e-4
-1.759, 5.520e-4
-1.760, 5.613e-4
-1.761, 5.736e-4
-1.762, 5.829e-4
-1.763, 5.890e-4
-1.764, 5.798e-4
-1.765, 6.044e-4
-1.766, 6.044e-4
-1.767, 6.106e-4
-1.768, 6.229e-4
-1.769, 6.353e-4
-1.770, 6.476e-4
-1.771, 6.630e-4
-1.772, 6.569e-4
-1.773, 6.630e-4
-1.774, 6.723e-4
-1.775, 6.784e-4
-1.776, 6.908e-4
-1.777, 7.185e-4
-1.778, 7.278e-4
-1.779, 7.185e-4
-1.780, 7.309e-4
-1.781, 7.463e-4
-1.782, 7.617e-4
-1.783, 7.740e-4
-1.784, 7.925e-4
-1.785, 7.802e-4
-1.786, 7.863e-4
-1.787, 8.141e-4
-1.788, 8.295e-4
-1.789, 8.326e-4
-1.790, 8.326e-4
-1.791, 8.418e-4
-1.792, 8.511e-4
-1.793, 8.665e-4
-1.794, 8.912e-4
-1.795, 8.912e-4
-1.796, 9.066e-4
-1.797, 9.158e-4
-1.798, 9.436e-4
-1.799, 9.405e-4
-1.800, 9.590e-4
-1.801, 9.775e-4
-1.802, 9.868e-4
-1.803, 1.008e-3
-1.804, 1.027e-3
-1.805, 1.042e-3
-1.806, 1.055e-3
-1.807, 1.051e-3
-1.808, 1.070e-3
-1.809, 1.082e-3
-1.810, 1.101e-3
-1.811, 1.122e-3
-1.812, 1.153e-3
-1.813, 1.159e-3
-1.814, 1.169e-3
-1.815, 1.184e-3
-1.816, 1.206e-3
-1.817, 1.227e-3
-1.818, 1.258e-3
-1.819, 1.252e-3
-1.820, 1.283e-3
-1.821, 1.310e-3
-1.822, 1.329e-3
-1.823, 1.351e-3
-1.824, 1.369e-3
-1.825, 1.394e-3
-1.826, 1.415e-3
-1.827, 1.465e-3
-1.828, 1.477e-3
-1.829, 1.511e-3
-1.830, 1.508e-3
-1.831, 1.545e-3
-1.832, 1.582e-3
-1.833, 1.594e-3
-1.834, 1.613e-3
-1.835, 1.640e-3
-1.836, 1.674e-3
-1.837, 1.714e-3
-1.838, 1.745e-3
-1.839, 1.767e-3
-1.840, 1.782e-3
-1.841, 1.819e-3
-1.842, 1.847e-3
-1.843, 1.893e-3
-1.844, 1.939e-3
-1.845, 1.952e-3
-1.846, 1.995e-3
-1.847, 2.038e-3
-1.848, 2.050e-3
-1.849, 2.087e-3
-1.850, 2.140e-3
-1.851, 2.198e-3
-1.852, 2.245e-3
-1.853, 2.251e-3
-1.854, 2.285e-3
-1.855, 2.346e-3
-1.856, 2.411e-3
-1.857, 2.420e-3
-1.858, 2.470e-3
-1.859, 2.516e-3
-1.860, 2.575e-3
-1.861, 2.639e-3
-1.862, 2.676e-3
-1.863, 2.723e-3
-1.864, 2.769e-3
-1.865, 2.818e-3
-1.866, 2.889e-3
-1.867, 2.960e-3
-1.868, 2.997e-3
-1.869, 3.040e-3
-1.870, 3.089e-3
-1.871, 3.154e-3
-1.872, 3.216e-3
-1.873, 3.278e-3
-1.874, 3.345e-3
-1.875, 3.392e-3
-1.876, 3.469e-3
-1.877, 3.552e-3
-1.878, 3.586e-3
-1.879, 3.651e-3
-1.880, 3.718e-3
-1.881, 3.799e-3
-1.882, 3.845e-3
-1.883, 3.913e-3
-1.884, 3.999e-3
-1.885, 4.082e-3
-1.886, 4.128e-3
-1.887, 4.215e-3
-1.888, 4.283e-3
-1.889, 4.360e-3
-1.890, 4.452e-3
-1.891, 4.501e-3
-1.892, 4.579e-3
-1.893, 4.668e-3
-1.894, 4.754e-3
-1.895, 4.822e-3
-1.896, 4.924e-3
-1.897, 5.016e-3
-1.898, 5.090e-3
-1.899, 5.171e-3
-1.900, 5.220e-3
-1.899, 5.211e-3
-1.898, 5.201e-3
-1.897, 5.152e-3
-1.896, 5.121e-3
-1.895, 5.097e-3
-1.894, 5.060e-3
-1.893, 5.050e-3
-1.892, 5.007e-3
-1.891, 4.967e-3
-1.890, 4.945e-3
-1.889, 4.890e-3
-1.888, 4.859e-3
-1.887, 4.828e-3
-1.886, 4.782e-3
-1.885, 4.720e-3
-1.884, 4.662e-3
-1.883, 4.631e-3
-1.882, 4.591e-3
-1.881, 4.538e-3
-1.880, 4.483e-3
-1.879, 4.440e-3
-1.878, 4.394e-3
-1.877, 4.323e-3
-1.876, 4.273e-3
-1.875, 4.221e-3
-1.874, 4.206e-3
-1.873, 4.144e-3
-1.872, 4.091e-3
-1.871, 4.054e-3
-1.870, 4.017e-3
-1.869, 3.977e-3
-1.868, 3.910e-3
-1.867, 3.866e-3
-1.866, 3.823e-3
-1.865, 3.811e-3
-1.864, 3.746e-3
-1.863, 3.703e-3
-1.862, 3.657e-3
-1.861, 3.614e-3
-1.860, 3.570e-3
-1.859, 3.533e-3
-1.858, 3.509e-3
-1.857, 3.438e-3
-1.856, 3.416e-3
-1.855, 3.376e-3
-1.854, 3.342e-3
-1.853, 3.311e-3
-1.852, 3.268e-3
-1.851, 3.219e-3
-1.850, 3.170e-3
-1.849, 3.145e-3
-1.848, 3.096e-3
-1.847, 3.068e-3
-1.846, 3.043e-3
-1.845, 2.997e-3
-1.844, 2.954e-3
-1.843, 2.923e-3
-1.842, 2.877e-3
-1.841, 2.837e-3
-1.840, 2.812e-3
-1.839, 2.803e-3
-1.838, 2.750e-3
-1.837, 2.729e-3
-1.836, 2.689e-3
-1.835, 2.645e-3
-1.834, 2.621e-3
-1.833, 2.602e-3
-1.832, 2.559e-3
-1.831, 2.547e-3
-1.830, 2.497e-3
-1.829, 2.467e-3
-1.828, 2.439e-3
-1.827, 2.414e-3
-1.826, 2.383e-3
-1.825, 2.340e-3
-1.824, 2.312e-3
-1.823, 2.279e-3
-1.822, 2.272e-3
-1.821, 2.220e-3
-1.820, 2.189e-3
-1.819, 2.155e-3
-1.818, 2.134e-3
-1.817, 2.097e-3
-1.816, 2.078e-3
-1.815, 2.050e-3
-1.814, 2.032e-3
-1.813, 1.989e-3
-1.812, 1.970e-3
-1.811, 1.943e-3
-1.810, 1.902e-3
-1.809, 1.890e-3
-1.808, 1.865e-3
-1.807, 1.825e-3
-1.806, 1.813e-3
-1.805, 1.788e-3
-1.804, 1.764e-3
-1.803, 1.748e-3
-1.802, 1.714e-3
-1.801, 1.693e-3
-1.800, 1.677e-3
-1.799, 1.653e-3
-1.798, 1.619e-3
-1.797, 1.613e-3
-1.796, 1.597e-3
-1.795, 1.557e-3
-1.794, 1.529e-3
-1.793, 1.514e-3
-1.792, 1.492e-3
-1.791, 1.471e-3
-1.790, 1.443e-3
-1.789, 1.437e-3
-1.788, 1.421e-3
-1.787, 1.388e-3
-1.786, 1.360e-3
-1.785, 1.344e-3
-1.784, 1.341e-3
-1.783, 1.335e-3
-1.782, 1.307e-3
-1.781, 1.273e-3
-1.780, 1.261e-3
-1.779, 1.240e-3
-1.778, 1.233e-3
-1.777, 1.218e-3
-1.776, 1.187e-3
-1.775, 1.169e-3
-1.774, 1.153e-3
-1.773, 1.138e-3
-1.772, 1.125e-3
-1.771, 1.122e-3
-1.770, 1.107e-3
-1.769, 1.076e-3
-1.768, 1.061e-3
-1.767, 1.042e-3
-1.766, 1.033e-3
-1.765, 1.014e-3
-1.764, 1.005e-3
-1.763, 9.991e-4
-1.762, 9.837e-4
-1.761, 9.559e-4
-1.760, 9.467e-4
-1.759, 9.343e-4
-1.758, 9.189e-4
-1.757, 9.128e-4
-1.756, 9.128e-4
-1.755, 8.912e-4
-1.754, 8.819e-4
-1.753, 8.542e-4
-1.752, 8.418e-4
-1.751, 8.357e-4
-1.750, 8.233e-4
-1.749, 8.079e-4
-1.748, 8.048e-4
-1.747, 7.894e-4
-1.746, 7.833e-4
-1.745, 7.771e-4
-1.744, 7.709e-4
-1.743, 7.524e-4
-1.742, 7.309e-4
-1.741, 7.185e-4
-1.740, 7.154e-4
-1.739, 6.969e-4
-1.738, 7.093e-4
-1.737, 6.969e-4
-1.736, 6.846e-4
-1.735, 6.661e-4
-1.734, 6.630e-4
-1.733, 6.507e-4
-1.732, 6.445e-4
-1.731, 6.353e-4
-1.730, 6.199e-4
-1.729, 6.075e-4
-1.728, 6.044e-4
-1.727, 6.014e-4
-1.726, 6.014e-4
-1.725, 5.952e-4
-1.724, 5.705e-4
-1.723, 5.644e-4
-1.722, 5.674e-4
-1.721, 5.551e-4
-1.720, 5.428e-4
-1.719, 5.335e-4
-1.718, 5.274e-4
-1.717, 5.212e-4
-1.716, 5.150e-4
-1.715, 5.027e-4
-1.714, 4.996e-4
-1.713, 4.965e-4
-1.712, 4.904e-4
-1.711, 4.873e-4
-1.710, 4.657e-4
-1.709, 4.688e-4
-1.708, 4.626e-4
-1.707, 4.534e-4
-1.706, 4.441e-4
-1.705, 4.349e-4
-1.704, 4.287e-4
-1.703, 4.225e-4
-1.702, 4.195e-4
-1.701, 4.164e-4
-1.700, 4.164e-4
-1.699, 4.102e-4
-1.698, 4.040e-4
-1.697, 3.855e-4
-1.696, 3.825e-4
-1.695, 3.794e-4
-1.694, 3.732e-4
-1.693, 3.701e-4
-1.692, 3.609e-4
-1.691, 3.578e-4
-1.690, 3.516e-4
-1.689, 3.516e-4
-1.688, 3.424e-4
-1.687, 3.362e-4
-1.686, 3.362e-4
-1.685, 3.362e-4
-1.684, 3.331e-4
-1.683, 3.239e-4
-1.682, 3.177e-4
-1.681, 3.177e-4
-1.680, 3.085e-4
-1.679, 2.992e-4
-1.678, 2.961e-4
-1.677, 2.961e-4
-1.676, 2.900e-4
-1.675, 2.838e-4
-1.674, 2.807e-4
-1.673, 2.838e-4
-1.672, 2.807e-4
-1.671, 2.715e-4
-1.670, 2.715e-4
-1.669, 2.684e-4
-1.668, 2.653e-4
-1.667, 2.591e-4
-1.666, 2.530e-4
-1.665, 2.499e-4
-1.664, 2.468e-4
-1.663, 2.406e-4
-1.662, 2.406e-4
-1.661, 2.314e-4
-1.660, 2.345e-4
-1.659, 2.345e-4
-1.658, 2.283e-4
-1.657, 2.252e-4
-1.656, 2.221e-4
-1.655, 2.160e-4
-1.654, 2.098e-4
-1.653, 2.098e-4
-1.652, 2.067e-4
-1.651, 2.036e-4
-1.650, 1.975e-4
-1.649, 2.006e-4
-1.648, 2.006e-4
-1.647, 1.913e-4
-1.646, 1.913e-4
-1.645, 1.882e-4
-1.644, 1.882e-4
-1.643, 1.851e-4
-1.642, 1.821e-4
-1.641, 1.759e-4
-1.640, 1.759e-4
-1.639, 1.697e-4
-1.638, 1.728e-4
-1.637, 1.697e-4
-1.636, 1.666e-4
-1.635, 1.666e-4
-1.634, 1.605e-4
-1.633, 1.574e-4
-1.632, 1.574e-4
-1.631, 1.543e-4
-1.630, 1.543e-4
-1.629, 1.512e-4
-1.628, 1.512e-4
-1.627, 1.451e-4
-1.626, 1.420e-4
-1.625, 1.389e-4
-1.624, 1.420e-4
-1.623, 1.358e-4
-1.622, 1.296e-4
-1.621, 1.327e-4
-1.620, 1.327e-4
-1.619, 1.266e-4
-1.618, 1.266e-4
-1.617, 1.204e-4
-1.616, 1.266e-4
-1.615, 1.235e-4
-1.614, 1.173e-4
-1.613, 1.142e-4
-1.612, 1.173e-4
-1.611, 1.111e-4
-1.610, 1.142e-4
-1.609, 1.111e-4
-1.608, 1.111e-4
-1.607, 1.081e-4
-1.606, 1.081e-4
-1.605, 1.019e-4
-1.604, 1.019e-4
-1.603, 1.019e-4
-1.602, 9.882e-5
-1.601, 9.573e-5
-1.600, 9.573e-5
-1.599, 9.573e-5
-1.598, 9.265e-5
-1.597, 9.265e-5
-1.596, 8.957e-5
-1.595, 8.957e-5
-1.594, 8.957e-5
-1.593, 8.648e-5
-1.592, 8.648e-5
-1.591, 8.648e-5
-1.590, 8.648e-5
-1.589, 8.340e-5
-1.588, 8.032e-5
-1.587, 8.032e-5
-1.586, 8.032e-5
-1.585, 7.723e-5
-1.584, 7.415e-5
-1.583, 7.415e-5
-1.582, 7.415e-5
-1.581, 7.107e-5
-1.580, 7.107e-5
-1.579, 7.107e-5
-1.578, 6.798e-5
-1.577, 6.798e-5
-1.576, 6.798e-5
-1.575, 6.798e-5
-1.574, 6.490e-5
-1.573, 6.490e-5
-1.572, 6.490e-5
-1.571, 6.182e-5
-1.570, 6.182e-5
-1.569, 5.873e-5
-1.568, 5.873e-5
-1.567, 5.873e-5
-1.566, 5.873e-5
-1.565, 5.873e-5
-1.564, 5.873e-5
-1.563, 5.565e-5
-1.562, 5.565e-5
-1.561, 5.257e-5
-1.560, 5.257e-5
-1.559, 5.257e-5
-1.558, 5.257e-5
-1.557, 5.257e-5
-1.556, 4.949e-5
-1.555, 4.949e-5
-1.554, 4.949e-5
-1.553, 4.949e-5
-1.552, 4.640e-5
-1.551, 4.640e-5
-1.550, 4.640e-5
-1.549, 4.640e-5
-1.548, 4.332e-5
-1.547, 4.332e-5
-1.546, 4.332e-5
-1.545, 4.332e-5
-1.544, 4.024e-5
-1.543, 4.024e-5
-1.542, 4.024e-5
-1.541, 4.024e-5
-1.540, 3.715e-5
-1.539, 3.715e-5
-1.538, 3.715e-5
-1.537, 3.715e-5
-1.536, 3.715e-5
-1.535, 3.407e-5
-1.534, 3.407e-5
-1.533, 3.407e-5
-1.532, 3.407e-5
-1.531, 3.407e-5
-1.530, 3.099e-5
-1.529, 3.407e-5
-1.528, 3.099e-5
-1.527, 3.099e-5
-1.526, 3.099e-5
-1.525, 3.099e-5
-1.524, 3.099e-5
-1.523, 3.099e-5
-1.522, 2.790e-5
-1.521, 2.790e-5
-1.520, 2.790e-5
-1.519, 2.790e-5
-1.518, 2.482e-5
-1.517, 2.790e-5
-1.516, 2.482e-5
-1.515, 2.482e-5
-1.514, 2.174e-5
-1.513, 2.482e-5
-1.512, 2.482e-5
-1.511, 2.174e-5
-1.510, 2.174e-5
-1.509, 2.174e-5
-1.508, 2.174e-5
-1.507, 2.174e-5
-1.506, 1.865e-5
-1.505, 2.174e-5
-1.504, 2.174e-5
-1.503, 1.865e-5
-1.502, 1.865e-5
-1.501, 1.865e-5
-1.500, 1.865e-5
-1.499, 1.865e-5
-1.498, 1.865e-5
-1.497, 1.865e-5
-1.496, 1.557e-5
-1.495, 1.557e-5
-1.494, 1.557e-5
-1.493, 1.557e-5
-1.492, 1.557e-5
-1.491, 1.557e-5
-1.490, 1.557e-5
-1.489, 1.557e-5
-1.488, 1.557e-5
-1.487, 1.557e-5
-1.486, 1.249e-5
-1.485, 1.557e-5
-1.484, 1.249e-5
-1.483, 1.249e-5
-1.482, 1.249e-5
-1.481, 1.249e-5
-1.480, 1.249e-5
-1.479, 1.249e-5
-1.478, 9.405e-6
-1.477, 1.249e-5
-1.476, 1.249e-5
-1.475, 1.249e-5
-1.474, 9.405e-6
-1.473, 9.405e-6
-1.472, 9.405e-6
-1.471, 9.405e-6
-1.470, 9.405e-6
-1.469, 9.405e-6
-1.468, 9.405e-6
-1.467, 9.405e-6
-1.466, 9.405e-6
-1.465, 6.322e-6
-1.464, 9.405e-6
-1.463, 6.322e-6
-1.462, 6.322e-6
-1.461, 6.322e-6
-1.460, 9.405e-6
-1.459, 6.322e-6
-1.458, 6.322e-6
-1.457, 6.322e-6
-1.456, 6.322e-6
-1.455, 6.322e-6
-1.454, 3.239e-6
-1.453, 6.322e-6
-1.452, 6.322e-6
-1.451, 6.322e-6
-1.450, 6.322e-6
-1.449, 3.239e-6
-1.448, 6.322e-6
-1.447, 3.239e-6
-1.446, 3.239e-6
-1.445, 3.239e-6
-1.444, 3.239e-6
-1.443, 3.239e-6
-1.442, 3.239e-6
-1.441, 3.239e-6
-1.440, 3.239e-6
-1.439, 1.559e-7
-1.438, 3.239e-6
-1.437, 1.559e-7
-1.436, 3.239e-6
-1.435, 3.239e-6
-1.434, 3.239e-6
-1.433, 1.559e-7
-1.432, 1.559e-7
-1.431, 1.559e-7
-1.430, 3.239e-6
-1.429, 3.239e-6
-1.428, 3.239e-6
-1.427, 1.559e-7
-1.426, 1.559e-7
-1.425, 1.559e-7
-1.424, 1.559e-7
-1.423, 1.559e-7
-1.422, 3.239e-6
-1.421, 1.559e-7
-1.420, 1.559e-7
-1.419, 1.559e-7
-1.418, 1.559e-7
-1.417, 1.559e-7
-1.416, 1.559e-7
-1.415, 1.559e-7
-1.414, 1.559e-7
-1.413, 1.559e-7
-1.412, 1.559e-7
-1.411, 1.559e-7
-1.410, 1.559e-7
-1.409, 1.559e-7
-1.408, 1.559e-7
-1.407, 1.559e-7
-1.406, 1.559e-7
-1.405, 1.559e-7
-1.404, 1.559e-7
-1.403, 1.559e-7
-1.402, 1.559e-7
-1.401, 1.559e-7
-1.400, 1.559e-7
-1.399, -2.927e-6
-1.398, -2.927e-6
-1.397, -2.927e-6
-1.396, 1.559e-7
-1.395, -2.927e-6
-1.394, -2.927e-6
-1.393, -2.927e-6
-1.392, -2.927e-6
-1.391, -2.927e-6
-1.390, -2.927e-6
-1.389, -2.927e-6
-1.388, -2.927e-6
-1.387, -2.927e-6
-1.386, -2.927e-6
-1.385, -2.927e-6
-1.384, -2.927e-6
-1.383, -2.927e-6
-1.382, -2.927e-6
-1.381, -2.927e-6
-1.380, -6.010e-6
-1.379, -2.927e-6
-1.378, -6.010e-6
-1.377, -2.927e-6
-1.376, -2.927e-6
-1.375, -6.010e-6
-1.374, -2.927e-6
-1.373, -2.927e-6
-1.372, -6.010e-6
-1.371, -6.010e-6
-1.370, -6.010e-6
-1.369, -2.927e-6
-1.368, -6.010e-6
-1.367, -6.010e-6
-1.366, -6.010e-6
-1.365, -2.927e-6
-1.364, -6.010e-6
-1.363, -6.010e-6
-1.362, -6.010e-6
-1.361, -6.010e-6
-1.360, -6.010e-6
-1.359, -6.010e-6
-1.358, -6.010e-6
-1.357, -6.010e-6
-1.356, -6.010e-6
-1.355, -6.010e-6
-1.354, -6.010e-6
-1.353, -6.010e-6
-1.352, -6.010e-6
-1.351, -6.010e-6
-1.350, -6.010e-6
-1.349, -2.927e-6
-1.348, -6.010e-6
-1.347, -6.010e-6
-1.346, -6.010e-6
-1.345, -6.010e-6
-1.344, -6.010e-6
-1.343, -6.010e-6
-1.342, -6.010e-6
-1.341, -6.010e-6
-1.340, -6.010e-6
-1.339, -6.010e-6
-1.338, -6.010e-6
-1.337, -6.010e-6
-1.336, -6.010e-6
-1.335, -6.010e-6
-1.334, -6.010e-6
-1.333, -6.010e-6
-1.332, -6.010e-6
-1.331, -6.010e-6
-1.330, -6.010e-6
-1.329, -6.010e-6
-1.328, -6.010e-6
-1.327, -6.010e-6
-1.326, -9.093e-6
-1.325, -9.093e-6
-1.324, -6.010e-6
-1.323, -6.010e-6
-1.322, -6.010e-6
-1.321, -6.010e-6
-1.320, -6.010e-6
-1.319, -6.010e-6
-1.318, -9.093e-6
-1.317, -9.093e-6
-1.316, -6.010e-6
-1.315, -6.010e-6
-1.314, -6.010e-6
-1.313, -9.093e-6
-1.312, -6.010e-6
-1.311, -9.093e-6
-1.310, -6.010e-6
-1.309, -9.093e-6
-1.308, -9.093e-6
-1.307, -9.093e-6
-1.306, -9.093e-6
-1.305, -9.093e-6
-1.304, -9.093e-6
-1.303, -9.093e-6
-1.302, -9.093e-6
-1.301, -9.093e-6
-1.300, -9.093e-6
-1.299, -6.010e-6
-1.298, -9.093e-6
-1.297, -9.093e-6
-1.296, -6.010e-6
-1.295, -9.093e-6
-1.294, -9.093e-6
-1.293, -9.093e-6
-1.292, -9.093e-6
-1.291, -9.093e-6
-1.290, -9.093e-6
-1.289, -9.093e-6
-1.288, -6.010e-6
-1.287, -9.093e-6
-1.286, -9.093e-6
-1.285, -9.093e-6
-1.284, -6.010e-6
-1.283, -9.093e-6
-1.282, -9.093e-6
-1.281, -9.093e-6
-1.280, -9.093e-6
-1.279, -9.093e-6
-1.278, -6.010e-6
-1.277, -9.093e-6
-1.276, -9.093e-6
-1.275, -6.010e-6
-1.274, -9.093e-6
-1.273, -9.093e-6
-1.272, -9.093e-6
-1.271, -9.093e-6
-1.270, -9.093e-6
-1.269, -9.093e-6
-1.268, -9.093e-6
-1.267, -9.093e-6
-1.266, -9.093e-6
-1.265, -9.093e-6
-1.264, -9.093e-6
-1.263, -9.093e-6
-1.262, -9.093e-6
-1.261, -9.093e-6
-1.260, -9.093e-6
-1.259, -9.093e-6
-1.258, -9.093e-6
-1.257, -9.093e-6
-1.256, -9.093e-6
-1.255, -9.093e-6
-1.254, -9.093e-6
-1.253, -9.093e-6
-1.252, -9.093e-6
-1.251, -9.093e-6
-1.250, -9.093e-6
-1.249, -9.093e-6
-1.248, -9.093e-6
-1.247, -9.093e-6
-1.246, -9.093e-6
-1.245, -9.093e-6
-1.244, -9.093e-6
-1.243, -9.093e-6
-1.242, -9.093e-6
-1.241, -9.093e-6
-1.240, -9.093e-6
-1.239, -9.093e-6
-1.238, -9.093e-6
-1.237, -9.093e-6
-1.236, -9.093e-6
-1.235, -9.093e-6
-1.234, -9.093e-6
-1.233, -9.093e-6
-1.232, -9.093e-6
-1.231, -9.093e-6
-1.230, -9.093e-6
-1.229, -9.093e-6
-1.228, -1.218e-5
-1.227, -9.093e-6
-1.226, -9.093e-6
-1.225, -9.093e-6
-1.224, -9.093e-6
-1.223, -9.093e-6
-1.222, -9.093e-6
-1.221, -9.093e-6
-1.220, -1.218e-5
-1.219, -1.218e-5
-1.218, -9.093e-6
-1.217, -9.093e-6
-1.216, -1.218e-5
-1.215, -9.093e-6
-1.214, -9.093e-6
-1.213, -9.093e-6
-1.212, -9.093e-6
-1.211, -9.093e-6
-1.210, -9.093e-6
-1.209, -9.093e-6
-1.208, -1.218e-5
-1.207, -1.218e-5
-1.206, -9.093e-6
-1.205, -1.218e-5
-1.204, -9.093e-6
-1.203, -1.218e-5
-1.202, -9.093e-6
-1.201, -1.218e-5
-1.200, -1.218e-5
-1.199, -1.218e-5
-1.198, -1.218e-5
-1.197, -9.093e-6
-1.196, -1.218e-5
-1.195, -9.093e-6
-1.194, -1.218e-5
-1.193, -9.093e-6
-1.192, -1.218e-5
-1.191, -9.093e-6
-1.190, -1.218e-5
-1.189, -9.093e-6
-1.188, -1.218e-5
-1.187, -9.093e-6
-1.186, -1.218e-5
-1.185, -9.093e-6
-1.184, -1.218e-5
-1.183, -9.093e-6
-1.182, -1.218e-5
-1.181, -9.093e-6
-1.180, -1.218e-5
-1.179, -1.218e-5
-1.178, -1.218e-5
-1.177, -1.218e-5
-1.176, -9.093e-6
-1.175, -9.093e-6
-1.174, -1.218e-5
-1.173, -9.093e-6
-1.172, -1.218e-5
-1.171, -1.218e-5
-1.170, -1.218e-5
-1.169, -9.093e-6
-1.168, -1.218e-5
-1.167, -1.218e-5
-1.166, -1.218e-5
-1.165, -9.093e-6
-1.164, -1.218e-5
-1.163, -1.218e-5
-1.162, -1.218e-5
-1.161, -9.093e-6
-1.160, -9.093e-6
-1.159, -1.218e-5
-1.158, -1.218e-5
-1.157, -1.218e-5
-1.156, -1.218e-5
-1.155, -1.218e-5
-1.154, -1.218e-5
-1.153, -1.218e-5
-1.152, -1.218e-5
-1.151, -1.218e-5
-1.150, -1.218e-5
-1.149, -1.218e-5
-1.148, -1.218e-5
-1.147, -1.218e-5
-1.146, -1.218e-5
-1.145, -1.218e-5
-1.144, -1.218e-5
-1.143, -1.218e-5
-1.142, -1.218e-5
-1.141, -1.218e-5
-1.140, -1.218e-5
-1.139, -1.218e-5
-1.138, -1.218e-5
-1.137, -1.218e-5
-1.136, -1.218e-5
-1.135, -1.218e-5
-1.134, -1.218e-5
-1.133, -1.526e-5
-1.132, -1.218e-5
-1.131, -1.218e-5
-1.130, -1.218e-5
-1.129, -1.218e-5
-1.128, -1.218e-5
-1.127, -1.218e-5
-1.126, -1.218e-5
-1.125, -1.526e-5
-1.124, -1.218e-5
-1.123, -1.218e-5
-1.122, -1.218e-5
-1.121, -1.218e-5
-1.120, -1.218e-5
-1.119, -1.218e-5
-1.118, -1.218e-5
-1.117, -1.526e-5
-1.116, -1.218e-5
-1.115, -1.218e-5
-1.114, -1.218e-5
-1.113, -1.526e-5
-1.112, -1.218e-5
-1.111, -1.526e-5
-1.110, -1.218e-5
-1.109, -1.526e-5
-1.108, -1.218e-5
-1.107, -1.218e-5
-1.106, -1.218e-5
-1.105, -1.526e-5
-1.104, -1.526e-5
-1.103, -1.526e-5
-1.102, -1.526e-5
-1.101, -1.526e-5
-1.100, -1.526e-5
-1.099, -1.526e-5
-1.098, -1.218e-5
-1.097, -1.526e-5
-1.096, -1.526e-5
-1.095, -1.526e-5
-1.094, -1.526e-5
-1.093, -1.526e-5
-1.092, -1.526e-5
-1.091, -1.526e-5
-1.090, -1.218e-5
-1.089, -1.526e-5
-1.088, -1.526e-5
-1.087, -1.526e-5
-1.086, -1.526e-5
-1.085, -1.526e-5
-1.084, -1.526e-5
-1.083, -1.526e-5
-1.082, -1.526e-5
-1.081, -1.526e-5
-1.080, -1.526e-5
-1.079, -1.526e-5
-1.078, -1.526e-5
-1.077, -1.526e-5
-1.076, -1.526e-5
-1.075, -1.526e-5
-1.074, -1.526e-5
-1.073, -1.526e-5
-1.072, -1.834e-5
-1.071, -1.834e-5
-1.070, -1.526e-5
-1.069, -1.526e-5
-1.068, -1.834e-5
-1.067, -1.526e-5
-1.066, -1.526e-5
-1.065, -1.526e-5
-1.064, -1.834e-5
-1.063, -1.834e-5
-1.062, -1.526e-5
-1.061, -1.834e-5
-1.060, -1.834e-5
-1.059, -1.834e-5
-1.058, -1.834e-5
-1.057, -1.834e-5
-1.056, -1.834e-5
-1.055, -1.834e-5
-1.054, -1.834e-5
-1.053, -1.834e-5
-1.052, -1.834e-5
-1.051, -1.834e-5
-1.050, -1.834e-5
-1.049, -1.834e-5
-1.048, -2.143e-5
-1.047, -1.834e-5
-1.046, -1.834e-5
-1.045, -1.834e-5
-1.044, -2.143e-5
-1.043, -1.834e-5
-1.042, -1.834e-5
-1.041, -1.834e-5
-1.040, -1.834e-5
-1.039, -2.143e-5
-1.038, -2.143e-5
-1.037, -1.834e-5
-1.036, -2.143e-5
-1.035, -2.143e-5
-1.034, -2.143e-5
-1.033, -2.143e-5
-1.032, -2.143e-5
-1.031, -2.143e-5
-1.030, -2.143e-5
-1.029, -2.143e-5
-1.028, -2.143e-5
-1.027, -2.143e-5
-1.026, -2.451e-5
-1.025, -2.143e-5
-1.024, -2.143e-5
-1.023, -2.143e-5
-1.022, -2.143e-5
-1.021, -2.143e-5
-1.020, -2.451e-5
-1.019, -2.451e-5
-1.018, -2.451e-5
-1.017, -2.451e-5
-1.016, -2.451e-5
-1.015, -2.451e-5
-1.014, -2.451e-5
-1.013, -2.451e-5
-1.012, -2.451e-5
-1.011, -2.451e-5
-1.010, -2.451e-5
-1.009, -2.451e-5
-1.008, -2.759e-5
-1.007, -2.451e-5
-1.006, -2.451e-5
-1.005, -2.451e-5
-1.004, -2.759e-5
-1.003, -2.451e-5
-1.002, -2.451e-5
-1.001, -2.451e-5
