Aug. 7, 2024   19:52:10
Linear Sweep Voltammetry
File: c:/users/guazh/data/20240802_batch_500/2024-08-02-exp47\regeneratedgce-2024-08-07t19_49_11-lsvinkoh\regeneratedgce_lsv_50mvs_efin_-1700mv.bin
Data Source:  Experiment
Instrument Model:  CHI760E
Header: LSV ran at 50 mVs with Efin at -1700mV
Note: 

Init E (V) = -0.6
Final E (V) = -1.7
Scan Rate (V/s) = 0.05
Sample Interval (V) = 0.001
Quiet Time (sec) = 2
Sensitivity (A/V) = 1e-4
Comp R (ohm) = 2.2

Results:

Channel 1:

Potential/V, Current/A

-0.600, 3.150e-7
-0.601, 4.394e-7
-0.602, 4.863e-7
-0.603, 5.082e-7
-0.604, 5.212e-7
-0.605, 5.329e-7
-0.606, 5.444e-7
-0.607, 5.548e-7
-0.608, 5.641e-7
-0.609, 5.705e-7
-0.610, 5.754e-7
-0.611, 5.825e-7
-0.612, 5.908e-7
-0.613, 5.956e-7
-0.614, 6.013e-7
-0.615, 6.069e-7
-0.616, 6.108e-7
-0.617, 6.181e-7
-0.618, 6.206e-7
-0.619, 6.232e-7
-0.620, 6.268e-7
-0.621, 6.300e-7
-0.622, 6.372e-7
-0.623, 6.396e-7
-0.624, 6.417e-7
-0.625, 6.449e-7
-0.626, 6.489e-7
-0.627, 6.553e-7
-0.628, 6.570e-7
-0.629, 6.588e-7
-0.630, 6.620e-7
-0.631, 6.654e-7
-0.632, 6.703e-7
-0.633, 6.745e-7
-0.634, 6.746e-7
-0.635, 6.776e-7
-0.636, 6.806e-7
-0.637, 6.862e-7
-0.638, 6.890e-7
-0.639, 6.894e-7
-0.640, 6.910e-7
-0.641, 6.954e-7
-0.642, 6.988e-7
-0.643, 7.026e-7
-0.644, 7.029e-7
-0.645, 7.047e-7
-0.646, 7.099e-7
-0.647, 7.134e-7
-0.648, 7.152e-7
-0.649, 7.172e-7
-0.650, 7.187e-7
-0.651, 7.206e-7
-0.652, 7.266e-7
-0.653, 7.285e-7
-0.654, 7.295e-7
-0.655, 7.308e-7
-0.656, 7.339e-7
-0.657, 7.400e-7
-0.658, 7.409e-7
-0.659, 7.418e-7
-0.660, 7.440e-7
-0.661, 7.461e-7
-0.662, 7.510e-7
-0.663, 7.530e-7
-0.664, 7.529e-7
-0.665, 7.551e-7
-0.666, 7.604e-7
-0.667, 7.630e-7
-0.668, 7.652e-7
-0.669, 7.646e-7
-0.670, 7.663e-7
-0.671, 7.689e-7
-0.672, 7.745e-7
-0.673, 7.754e-7
-0.674, 7.757e-7
-0.675, 7.780e-7
-0.676, 7.801e-7
-0.677, 7.847e-7
-0.678, 7.877e-7
-0.679, 7.875e-7
-0.680, 7.894e-7
-0.681, 7.929e-7
-0.682, 7.964e-7
-0.683, 7.976e-7
-0.684, 8.000e-7
-0.685, 8.000e-7
-0.686, 8.030e-7
-0.687, 8.070e-7
-0.688, 8.089e-7
-0.689, 8.107e-7
-0.690, 8.117e-7
-0.691, 8.165e-7
-0.692, 8.197e-7
-0.693, 8.200e-7
-0.694, 8.222e-7
-0.695, 8.222e-7
-0.696, 8.265e-7
-0.697, 8.318e-7
-0.698, 8.326e-7
-0.699, 8.337e-7
-0.700, 8.336e-7
-0.701, 8.359e-7
-0.702, 8.426e-7
-0.703, 8.426e-7
-0.704, 8.443e-7
-0.705, 8.466e-7
-0.706, 8.486e-7
-0.707, 8.535e-7
-0.708, 8.540e-7
-0.709, 8.547e-7
-0.710, 8.554e-7
-0.711, 8.597e-7
-0.712, 8.632e-7
-0.713, 8.642e-7
-0.714, 8.643e-7
-0.715, 8.659e-7
-0.716, 8.690e-7
-0.717, 8.730e-7
-0.718, 8.753e-7
-0.719, 8.760e-7
-0.720, 8.770e-7
-0.721, 8.808e-7
-0.722, 8.832e-7
-0.723, 8.847e-7
-0.724, 8.862e-7
-0.725, 8.868e-7
-0.726, 8.899e-7
-0.727, 8.933e-7
-0.728, 8.948e-7
-0.729, 8.962e-7
-0.730, 8.980e-7
-0.731, 9.001e-7
-0.732, 9.038e-7
-0.733, 9.054e-7
-0.734, 9.062e-7
-0.735, 9.063e-7
-0.736, 9.099e-7
-0.737, 9.139e-7
-0.738, 9.135e-7
-0.739, 9.157e-7
-0.740, 9.176e-7
-0.741, 9.192e-7
-0.742, 9.248e-7
-0.743, 9.245e-7
-0.744, 9.260e-7
-0.745, 9.282e-7
-0.746, 9.299e-7
-0.747, 9.340e-7
-0.748, 9.336e-7
-0.749, 9.346e-7
-0.750, 9.369e-7
-0.751, 9.397e-7
-0.752, 9.441e-7
-0.753, 9.447e-7
-0.754, 9.441e-7
-0.755, 9.460e-7
-0.756, 9.510e-7
-0.757, 9.528e-7
-0.758, 9.534e-7
-0.759, 9.540e-7
-0.760, 9.564e-7
-0.761, 9.615e-7
-0.762, 9.641e-7
-0.763, 9.655e-7
-0.764, 9.655e-7
-0.765, 9.664e-7
-0.766, 9.697e-7
-0.767, 9.723e-7
-0.768, 9.761e-7
-0.769, 9.765e-7
-0.770, 9.764e-7
-0.771, 9.799e-7
-0.772, 9.833e-7
-0.773, 9.831e-7
-0.774, 9.858e-7
-0.775, 9.855e-7
-0.776, 9.904e-7
-0.777, 9.926e-7
-0.778, 9.930e-7
-0.779, 9.943e-7
-0.780, 9.958e-7
-0.781, 9.985e-7
-0.782, 1.004e-6
-0.783, 1.003e-6
-0.784, 1.003e-6
-0.785, 1.006e-6
-0.786, 1.010e-6
-0.787, 1.013e-6
-0.788, 1.015e-6
-0.789, 1.015e-6
-0.790, 1.017e-6
-0.791, 1.020e-6
-0.792, 1.022e-6
-0.793, 1.025e-6
-0.794, 1.025e-6
-0.795, 1.026e-6
-0.796, 1.030e-6
-0.797, 1.033e-6
-0.798, 1.035e-6
-0.799, 1.035e-6
-0.800, 1.036e-6
-0.801, 1.040e-6
-0.802, 1.043e-6
-0.803, 1.044e-6
-0.804, 1.046e-6
-0.805, 1.045e-6
-0.806, 1.050e-6
-0.807, 1.055e-6
-0.808, 1.056e-6
-0.809, 1.056e-6
-0.810, 1.056e-6
-0.811, 1.061e-6
-0.812, 1.065e-6
-0.813, 1.064e-6
-0.814, 1.066e-6
-0.815, 1.068e-6
-0.816, 1.071e-6
-0.817, 1.074e-6
-0.818, 1.075e-6
-0.819, 1.080e-6
-0.820, 1.083e-6
-0.821, 1.084e-6
-0.822, 1.088e-6
-0.823, 1.088e-6
-0.824, 1.089e-6
-0.825, 1.090e-6
-0.826, 1.094e-6
-0.827, 1.098e-6
-0.828, 1.099e-6
-0.829, 1.098e-6
-0.830, 1.100e-6
-0.831, 1.103e-6
-0.832, 1.108e-6
-0.833, 1.110e-6
-0.834, 1.109e-6
-0.835, 1.110e-6
-0.836, 1.114e-6
-0.837, 1.118e-6
-0.838, 1.120e-6
-0.839, 1.120e-6
-0.840, 1.122e-6
-0.841, 1.126e-6
-0.842, 1.129e-6
-0.843, 1.130e-6
-0.844, 1.131e-6
-0.845, 1.134e-6
-0.846, 1.138e-6
-0.847, 1.142e-6
-0.848, 1.143e-6
-0.849, 1.144e-6
-0.850, 1.145e-6
-0.851, 1.150e-6
-0.852, 1.153e-6
-0.853, 1.154e-6
-0.854, 1.155e-6
-0.855, 1.157e-6
-0.856, 1.162e-6
-0.857, 1.165e-6
-0.858, 1.166e-6
-0.859, 1.167e-6
-0.860, 1.169e-6
-0.861, 1.173e-6
-0.862, 1.177e-6
-0.863, 1.178e-6
-0.864, 1.180e-6
-0.865, 1.183e-6
-0.866, 1.187e-6
-0.867, 1.190e-6
-0.868, 1.190e-6
-0.869, 1.191e-6
-0.870, 1.196e-6
-0.871, 1.200e-6
-0.872, 1.202e-6
-0.873, 1.204e-6
-0.874, 1.205e-6
-0.875, 1.207e-6
-0.876, 1.212e-6
-0.877, 1.215e-6
-0.878, 1.217e-6
-0.879, 1.219e-6
-0.880, 1.221e-6
-0.881, 1.225e-6
-0.882, 1.229e-6
-0.883, 1.231e-6
-0.884, 1.232e-6
-0.885, 1.234e-6
-0.886, 1.239e-6
-0.887, 1.241e-6
-0.888, 1.243e-6
-0.889, 1.246e-6
-0.890, 1.248e-6
-0.891, 1.253e-6
-0.892, 1.257e-6
-0.893, 1.257e-6
-0.894, 1.259e-6
-0.895, 1.259e-6
-0.896, 1.265e-6
-0.897, 1.270e-6
-0.898, 1.270e-6
-0.899, 1.274e-6
-0.900, 1.277e-6
-0.901, 1.281e-6
-0.902, 1.285e-6
-0.903, 1.285e-6
-0.904, 1.288e-6
-0.905, 1.288e-6
-0.906, 1.294e-6
-0.907, 1.298e-6
-0.908, 1.299e-6
-0.909, 1.302e-6
-0.910, 1.305e-6
-0.911, 1.309e-6
-0.912, 1.313e-6
-0.913, 1.313e-6
-0.914, 1.316e-6
-0.915, 1.318e-6
-0.916, 1.324e-6
-0.917, 1.328e-6
-0.918, 1.330e-6
-0.919, 1.332e-6
-0.920, 1.334e-6
-0.921, 1.339e-6
-0.922, 1.341e-6
-0.923, 1.344e-6
-0.924, 1.347e-6
-0.925, 1.349e-6
-0.926, 1.355e-6
-0.927, 1.358e-6
-0.928, 1.359e-6
-0.929, 1.363e-6
-0.930, 1.364e-6
-0.931, 1.371e-6
-0.932, 1.375e-6
-0.933, 1.375e-6
-0.934, 1.379e-6
-0.935, 1.382e-6
-0.936, 1.387e-6
-0.937, 1.391e-6
-0.938, 1.392e-6
-0.939, 1.394e-6
-0.940, 1.398e-6
-0.941, 1.402e-6
-0.942, 1.406e-6
-0.943, 1.408e-6
-0.944, 1.411e-6
-0.945, 1.415e-6
-0.946, 1.419e-6
-0.947, 1.424e-6
-0.948, 1.426e-6
-0.949, 1.428e-6
-0.950, 1.432e-6
-0.951, 1.438e-6
-0.952, 1.442e-6
-0.953, 1.444e-6
-0.954, 1.446e-6
-0.955, 1.451e-6
-0.956, 1.456e-6
-0.957, 1.460e-6
-0.958, 1.463e-6
-0.959, 1.465e-6
-0.960, 1.469e-6
-0.961, 1.476e-6
-0.962, 1.478e-6
-0.963, 1.481e-6
-0.964, 1.486e-6
-0.965, 1.491e-6
-0.966, 1.497e-6
-0.967, 1.501e-6
-0.968, 1.503e-6
-0.969, 1.504e-6
-0.970, 1.508e-6
-0.971, 1.515e-6
-0.972, 1.519e-6
-0.973, 1.523e-6
-0.974, 1.527e-6
-0.975, 1.529e-6
-0.976, 1.535e-6
-0.977, 1.540e-6
-0.978, 1.541e-6
-0.979, 1.545e-6
-0.980, 1.550e-6
-0.981, 1.556e-6
-0.982, 1.560e-6
-0.983, 1.562e-6
-0.984, 1.564e-6
-0.985, 1.571e-6
-0.986, 1.578e-6
-0.987, 1.582e-6
-0.988, 1.584e-6
-0.989, 1.587e-6
-0.990, 1.592e-6
-0.991, 1.597e-6
-0.992, 1.602e-6
-0.993, 1.607e-6
-0.994, 1.610e-6
-0.995, 1.615e-6
-0.996, 1.621e-6
-0.997, 1.623e-6
-0.998, 1.628e-6
-0.999, 1.631e-6
-1.000, 1.635e-6
-1.001, 1.642e-6
-1.002, 1.646e-6
-1.003, 1.650e-6
-1.004, 1.653e-6
-1.005, 1.658e-6
-1.006, 1.666e-6
-1.007, 1.669e-6
-1.008, 1.671e-6
-1.009, 1.677e-6
-1.010, 1.680e-6
-1.011, 1.689e-6
-1.012, 1.695e-6
-1.013, 1.697e-6
-1.014, 1.702e-6
-1.015, 1.707e-6
-1.016, 1.714e-6
-1.017, 1.720e-6
-1.018, 1.722e-6
-1.019, 1.726e-6
-1.020, 1.732e-6
-1.021, 1.739e-6
-1.022, 1.744e-6
-1.023, 1.746e-6
-1.024, 1.752e-6
-1.025, 1.758e-6
-1.026, 1.763e-6
-1.027, 1.769e-6
-1.028, 1.773e-6
-1.029, 1.776e-6
-1.030, 1.782e-6
-1.031, 1.789e-6
-1.032, 1.794e-6
-1.033, 1.795e-6
-1.034, 1.799e-6
-1.035, 1.806e-6
-1.036, 1.814e-6
-1.037, 1.818e-6
-1.038, 1.823e-6
-1.039, 1.826e-6
-1.040, 1.832e-6
-1.041, 1.839e-6
-1.042, 1.843e-6
-1.043, 1.847e-6
-1.044, 1.851e-6
-1.045, 1.857e-6
-1.046, 1.865e-6
-1.047, 1.869e-6
-1.048, 1.872e-6
-1.049, 1.876e-6
-1.050, 1.883e-6
-1.051, 1.891e-6
-1.052, 1.897e-6
-1.053, 1.901e-6
-1.054, 1.905e-6
-1.055, 1.909e-6
-1.056, 1.916e-6
-1.057, 1.920e-6
-1.058, 1.922e-6
-1.059, 1.927e-6
-1.060, 1.932e-6
-1.061, 1.940e-6
-1.062, 1.944e-6
-1.063, 1.948e-6
-1.064, 1.950e-6
-1.065, 1.958e-6
-1.066, 1.964e-6
-1.067, 1.969e-6
-1.068, 1.972e-6
-1.069, 1.976e-6
-1.070, 1.983e-6
-1.071, 1.990e-6
-1.072, 1.993e-6
-1.073, 1.998e-6
-1.074, 2.000e-6
-1.075, 2.010e-6
-1.076, 2.017e-6
-1.077, 2.020e-6
-1.078, 2.025e-6
-1.079, 2.027e-6
-1.080, 2.034e-6
-1.081, 2.042e-6
-1.082, 2.046e-6
-1.083, 2.049e-6
-1.084, 2.053e-6
-1.085, 2.058e-6
-1.086, 2.067e-6
-1.087, 2.070e-6
-1.088, 2.075e-6
-1.089, 2.080e-6
-1.090, 2.085e-6
-1.091, 2.092e-6
-1.092, 2.098e-6
-1.093, 2.100e-6
-1.094, 2.104e-6
-1.095, 2.109e-6
-1.096, 2.117e-6
-1.097, 2.122e-6
-1.098, 2.124e-6
-1.099, 2.129e-6
-1.100, 2.136e-6
-1.101, 2.142e-6
-1.102, 2.147e-6
-1.103, 2.150e-6
-1.104, 2.153e-6
-1.105, 2.160e-6
-1.106, 2.166e-6
-1.107, 2.171e-6
-1.108, 2.174e-6
-1.109, 2.178e-6
-1.110, 2.185e-6
-1.111, 2.190e-6
-1.112, 2.195e-6
-1.113, 2.200e-6
-1.114, 2.203e-6
-1.115, 2.209e-6
-1.116, 2.217e-6
-1.117, 2.219e-6
-1.118, 2.224e-6
-1.119, 2.227e-6
-1.120, 2.234e-6
-1.121, 2.243e-6
-1.122, 2.245e-6
-1.123, 2.250e-6
-1.124, 2.255e-6
-1.125, 2.262e-6
-1.126, 2.272e-6
-1.127, 2.276e-6
-1.128, 2.278e-6
-1.129, 2.282e-6
-1.130, 2.287e-6
-1.131, 2.295e-6
-1.132, 2.298e-6
-1.133, 2.302e-6
-1.134, 2.307e-6
-1.135, 2.312e-6
-1.136, 2.320e-6
-1.137, 2.325e-6
-1.138, 2.327e-6
-1.139, 2.332e-6
-1.140, 2.340e-6
-1.141, 2.347e-6
-1.142, 2.352e-6
-1.143, 2.354e-6
-1.144, 2.358e-6
-1.145, 2.367e-6
-1.146, 2.373e-6
-1.147, 2.377e-6
-1.148, 2.381e-6
-1.149, 2.385e-6
-1.150, 2.394e-6
-1.151, 2.400e-6
-1.152, 2.405e-6
-1.153, 2.410e-6
-1.154, 2.411e-6
-1.155, 2.421e-6
-1.156, 2.427e-6
-1.157, 2.430e-6
-1.158, 2.436e-6
-1.159, 2.439e-6
-1.160, 2.447e-6
-1.161, 2.453e-6
-1.162, 2.457e-6
-1.163, 2.462e-6
-1.164, 2.465e-6
-1.165, 2.473e-6
-1.166, 2.480e-6
-1.167, 2.482e-6
-1.168, 2.486e-6
-1.169, 2.491e-6
-1.170, 2.500e-6
-1.171, 2.507e-6
-1.172, 2.510e-6
-1.173, 2.513e-6
-1.174, 2.520e-6
-1.175, 2.527e-6
-1.176, 2.535e-6
-1.177, 2.540e-6
-1.178, 2.544e-6
-1.179, 2.548e-6
-1.180, 2.556e-6
-1.181, 2.563e-6
-1.182, 2.568e-6
-1.183, 2.572e-6
-1.184, 2.578e-6
-1.185, 2.586e-6
-1.186, 2.592e-6
-1.187, 2.596e-6
-1.188, 2.600e-6
-1.189, 2.603e-6
-1.190, 2.611e-6
-1.191, 2.619e-6
-1.192, 2.622e-6
-1.193, 2.627e-6
-1.194, 2.630e-6
-1.195, 2.640e-6
-1.196, 2.646e-6
-1.197, 2.648e-6
-1.198, 2.655e-6
-1.199, 2.658e-6
-1.200, 2.665e-6
-1.201, 2.673e-6
-1.202, 2.677e-6
-1.203, 2.682e-6
-1.204, 2.686e-6
-1.205, 2.693e-6
-1.206, 2.700e-6
-1.207, 2.704e-6
-1.208, 2.708e-6
-1.209, 2.716e-6
-1.210, 2.724e-6
-1.211, 2.730e-6
-1.212, 2.734e-6
-1.213, 2.735e-6
-1.214, 2.741e-6
-1.215, 2.747e-6
-1.216, 2.755e-6
-1.217, 2.759e-6
-1.218, 2.761e-6
-1.219, 2.768e-6
-1.220, 2.775e-6
-1.221, 2.782e-6
-1.222, 2.787e-6
-1.223, 2.790e-6
-1.224, 2.796e-6
-1.225, 2.801e-6
-1.226, 2.809e-6
-1.227, 2.814e-6
-1.228, 2.819e-6
-1.229, 2.828e-6
-1.230, 2.834e-6
-1.231, 2.839e-6
-1.232, 2.844e-6
-1.233, 2.847e-6
-1.234, 2.849e-6
-1.235, 2.858e-6
-1.236, 2.864e-6
-1.237, 2.868e-6
-1.238, 2.873e-6
-1.239, 2.876e-6
-1.240, 2.885e-6
-1.241, 2.891e-6
-1.242, 2.894e-6
-1.243, 2.898e-6
-1.244, 2.903e-6
-1.245, 2.910e-6
-1.246, 2.919e-6
-1.247, 2.922e-6
-1.248, 2.926e-6
-1.249, 2.930e-6
-1.250, 2.937e-6
-1.251, 2.945e-6
-1.252, 2.947e-6
-1.253, 2.950e-6
-1.254, 2.957e-6
-1.255, 2.965e-6
-1.256, 2.973e-6
-1.257, 2.977e-6
-1.258, 2.980e-6
-1.259, 2.985e-6
-1.260, 2.991e-6
-1.261, 2.997e-6
-1.262, 3.000e-6
-1.263, 3.003e-6
-1.264, 3.009e-6
-1.265, 3.018e-6
-1.266, 3.023e-6
-1.267, 3.027e-6
-1.268, 3.031e-6
-1.269, 3.034e-6
-1.270, 3.043e-6
-1.271, 3.048e-6
-1.272, 3.052e-6
-1.273, 3.055e-6
-1.274, 3.060e-6
-1.275, 3.066e-6
-1.276, 3.073e-6
-1.277, 3.076e-6
-1.278, 3.081e-6
-1.279, 3.084e-6
-1.280, 3.095e-6
-1.281, 3.102e-6
-1.282, 3.104e-6
-1.283, 3.110e-6
-1.284, 3.113e-6
-1.285, 3.120e-6
-1.286, 3.128e-6
-1.287, 3.129e-6
-1.288, 3.132e-6
-1.289, 3.138e-6
-1.290, 3.145e-6
-1.291, 3.152e-6
-1.292, 3.155e-6
-1.293, 3.157e-6
-1.294, 3.163e-6
-1.295, 3.170e-6
-1.296, 3.177e-6
-1.297, 3.180e-6
-1.298, 3.185e-6
-1.299, 3.192e-6
-1.300, 3.201e-6
-1.301, 3.203e-6
-1.302, 3.205e-6
-1.303, 3.208e-6
-1.304, 3.212e-6
-1.305, 3.220e-6
-1.306, 3.225e-6
-1.307, 3.229e-6
-1.308, 3.232e-6
-1.309, 3.237e-6
-1.310, 3.245e-6
-1.311, 3.248e-6
-1.312, 3.252e-6
-1.313, 3.256e-6
-1.314, 3.258e-6
-1.315, 3.268e-6
-1.316, 3.272e-6
-1.317, 3.274e-6
-1.318, 3.279e-6
-1.319, 3.283e-6
-1.320, 3.291e-6
-1.321, 3.296e-6
-1.322, 3.297e-6
-1.323, 3.303e-6
-1.324, 3.310e-6
-1.325, 3.318e-6
-1.326, 3.325e-6
-1.327, 3.327e-6
-1.328, 3.330e-6
-1.329, 3.335e-6
-1.330, 3.343e-6
-1.331, 3.349e-6
-1.332, 3.352e-6
-1.333, 3.353e-6
-1.334, 3.363e-6
-1.335, 3.368e-6
-1.336, 3.377e-6
-1.337, 3.380e-6
-1.338, 3.381e-6
-1.339, 3.388e-6
-1.340, 3.398e-6
-1.341, 3.404e-6
-1.342, 3.410e-6
-1.343, 3.412e-6
-1.344, 3.418e-6
-1.345, 3.426e-6
-1.346, 3.428e-6
-1.347, 3.434e-6
-1.348, 3.437e-6
-1.349, 3.444e-6
-1.350, 3.455e-6
-1.351, 3.459e-6
-1.352, 3.463e-6
-1.353, 3.466e-6
-1.354, 3.471e-6
-1.355, 3.480e-6
-1.356, 3.486e-6
-1.357, 3.491e-6
-1.358, 3.496e-6
-1.359, 3.500e-6
-1.360, 3.509e-6
-1.361, 3.514e-6
-1.362, 3.517e-6
-1.363, 3.523e-6
-1.364, 3.529e-6
-1.365, 3.538e-6
-1.366, 3.545e-6
-1.367, 3.548e-6
-1.368, 3.552e-6
-1.369, 3.559e-6
-1.370, 3.568e-6
-1.371, 3.577e-6
-1.372, 3.578e-6
-1.373, 3.583e-6
-1.374, 3.591e-6
-1.375, 3.600e-6
-1.376, 3.610e-6
-1.377, 3.612e-6
-1.378, 3.618e-6
-1.379, 3.625e-6
-1.380, 3.636e-6
-1.381, 3.643e-6
-1.382, 3.650e-6
-1.383, 3.656e-6
-1.384, 3.661e-6
-1.385, 3.673e-6
-1.386, 3.677e-6
-1.387, 3.684e-6
-1.388, 3.690e-6
-1.389, 3.696e-6
-1.390, 3.709e-6
-1.391, 3.715e-6
-1.392, 3.720e-6
-1.393, 3.727e-6
-1.394, 3.735e-6
-1.395, 3.748e-6
-1.396, 3.755e-6
-1.397, 3.759e-6
-1.398, 3.767e-6
-1.399, 3.775e-6
-1.400, 3.787e-6
-1.401, 3.794e-6
-1.402, 3.800e-6
-1.403, 3.809e-6
-1.404, 3.818e-6
-1.405, 3.829e-6
-1.406, 3.842e-6
-1.407, 3.846e-6
-1.408, 3.856e-6
-1.409, 3.867e-6
-1.410, 3.877e-6
-1.411, 3.887e-6
-1.412, 3.891e-6
-1.413, 3.900e-6
-1.414, 3.912e-6
-1.415, 3.924e-6
-1.416, 3.936e-6
-1.417, 3.944e-6
-1.418, 3.953e-6
-1.419, 3.968e-6
-1.420, 3.980e-6
-1.421, 3.989e-6
-1.422, 3.996e-6
-1.423, 4.004e-6
-1.424, 4.017e-6
-1.425, 4.034e-6
-1.426, 4.043e-6
-1.427, 4.056e-6
-1.428, 4.064e-6
-1.429, 4.078e-6
-1.430, 4.095e-6
-1.431, 4.105e-6
-1.432, 4.115e-6
-1.433, 4.127e-6
-1.434, 4.144e-6
-1.435, 4.161e-6
-1.436, 4.174e-6
-1.437, 4.186e-6
-1.438, 4.199e-6
-1.439, 4.213e-6
-1.440, 4.229e-6
-1.441, 4.243e-6
-1.442, 4.251e-6
-1.443, 4.265e-6
-1.444, 4.281e-6
-1.445, 4.300e-6
-1.446, 4.318e-6
-1.447, 4.330e-6
-1.448, 4.343e-6
-1.449, 4.361e-6
-1.450, 4.379e-6
-1.451, 4.397e-6
-1.452, 4.412e-6
-1.453, 4.427e-6
-1.454, 4.448e-6
-1.455, 4.465e-6
-1.456, 4.485e-6
-1.457, 4.502e-6
-1.458, 4.519e-6
-1.459, 4.542e-6
-1.460, 4.565e-6
-1.461, 4.583e-6
-1.462, 4.600e-6
-1.463, 4.616e-6
-1.464, 4.642e-6
-1.465, 4.666e-6
-1.466, 4.683e-6
-1.467, 4.703e-6
-1.468, 4.723e-6
-1.469, 4.747e-6
-1.470, 4.776e-6
-1.471, 4.798e-6
-1.472, 4.821e-6
-1.473, 4.842e-6
-1.474, 4.866e-6
-1.475, 4.894e-6
-1.476, 4.915e-6
-1.477, 4.937e-6
-1.478, 4.964e-6
-1.479, 4.990e-6
-1.480, 5.021e-6
-1.481, 5.047e-6
-1.482, 5.069e-6
-1.483, 5.098e-6
-1.484, 5.126e-6
-1.485, 5.162e-6
-1.486, 5.187e-6
-1.487, 5.211e-6
-1.488, 5.239e-6
-1.489, 5.271e-6
-1.490, 5.303e-6
-1.491, 5.335e-6
-1.492, 5.361e-6
-1.493, 5.390e-6
-1.494, 5.426e-6
-1.495, 5.460e-6
-1.496, 5.492e-6
-1.497, 5.522e-6
-1.498, 5.553e-6
-1.499, 5.591e-6
-1.500, 5.628e-6
-1.501, 5.661e-6
-1.502, 5.695e-6
-1.503, 5.729e-6
-1.504, 5.769e-6
-1.505, 5.812e-6
-1.506, 5.846e-6
-1.507, 5.881e-6
-1.508, 5.914e-6
-1.509, 5.952e-6
-1.510, 5.997e-6
-1.511, 6.036e-6
-1.512, 6.075e-6
-1.513, 6.115e-6
-1.514, 6.160e-6
-1.515, 6.204e-6
-1.516, 6.243e-6
-1.517, 6.282e-6
-1.518, 6.324e-6
-1.519, 6.372e-6
-1.520, 6.421e-6
-1.521, 6.466e-6
-1.522, 6.508e-6
-1.523, 6.555e-6
-1.524, 6.605e-6
-1.525, 6.657e-6
-1.526, 6.705e-6
-1.527, 6.752e-6
-1.528, 6.803e-6
-1.529, 6.858e-6
-1.530, 6.910e-6
-1.531, 6.960e-6
-1.532, 7.008e-6
-1.533, 7.060e-6
-1.534, 7.118e-6
-1.535, 7.176e-6
-1.536, 7.231e-6
-1.537, 7.285e-6
-1.538, 7.337e-6
-1.539, 7.399e-6
-1.540, 7.460e-6
-1.541, 7.516e-6
-1.542, 7.574e-6
-1.543, 7.631e-6
-1.544, 7.698e-6
-1.545, 7.767e-6
-1.546, 7.826e-6
-1.547, 7.890e-6
-1.548, 7.951e-6
-1.549, 8.019e-6
-1.550, 8.087e-6
-1.551, 8.148e-6
-1.552, 8.215e-6
-1.553, 8.285e-6
-1.554, 8.357e-6
-1.555, 8.431e-6
-1.556, 8.498e-6
-1.557, 8.566e-6
-1.558, 8.636e-6
-1.559, 8.709e-6
-1.560, 8.787e-6
-1.561, 8.859e-6
-1.562, 8.929e-6
-1.563, 9.006e-6
-1.564, 9.087e-6
-1.565, 9.164e-6
-1.566, 9.243e-6
-1.567, 9.319e-6
-1.568, 9.397e-6
-1.569, 9.481e-6
-1.570, 9.565e-6
-1.571, 9.646e-6
-1.572, 9.726e-6
-1.573, 9.810e-6
-1.574, 9.900e-6
-1.575, 9.986e-6
-1.576, 1.007e-5
-1.577, 1.015e-5
-1.578, 1.023e-5
-1.579, 1.033e-5
-1.580, 1.042e-5
-1.581, 1.051e-5
-1.582, 1.060e-5
-1.583, 1.069e-5
-1.584, 1.079e-5
-1.585, 1.089e-5
-1.586, 1.098e-5
-1.587, 1.108e-5
-1.588, 1.117e-5
-1.589, 1.127e-5
-1.590, 1.138e-5
-1.591, 1.147e-5
-1.592, 1.157e-5
-1.593, 1.168e-5
-1.594, 1.178e-5
-1.595, 1.189e-5
-1.596, 1.198e-5
-1.597, 1.207e-5
-1.598, 1.217e-5
-1.599, 1.228e-5
-1.600, 1.240e-5
-1.601, 1.250e-5
-1.602, 1.261e-5
-1.603, 1.272e-5
-1.604, 1.284e-5
-1.605, 1.295e-5
-1.606, 1.307e-5
-1.607, 1.317e-5
-1.608, 1.329e-5
-1.609, 1.341e-5
-1.610, 1.353e-5
-1.611, 1.365e-5
-1.612, 1.376e-5
-1.613, 1.388e-5
-1.614, 1.401e-5
-1.615, 1.413e-5
-1.616, 1.425e-5
-1.617, 1.438e-5
-1.618, 1.450e-5
-1.619, 1.463e-5
-1.620, 1.476e-5
-1.621, 1.488e-5
-1.622, 1.501e-5
-1.623, 1.514e-5
-1.624, 1.528e-5
-1.625, 1.541e-5
-1.626, 1.554e-5
-1.627, 1.567e-5
-1.628, 1.581e-5
-1.629, 1.595e-5
-1.630, 1.609e-5
-1.631, 1.623e-5
-1.632, 1.636e-5
-1.633, 1.650e-5
-1.634, 1.665e-5
-1.635, 1.680e-5
-1.636, 1.694e-5
-1.637, 1.708e-5
-1.638, 1.723e-5
-1.639, 1.739e-5
-1.640, 1.753e-5
-1.641, 1.768e-5
-1.642, 1.782e-5
-1.643, 1.797e-5
-1.644, 1.813e-5
-1.645, 1.828e-5
-1.646, 1.843e-5
-1.647, 1.858e-5
-1.648, 1.874e-5
-1.649, 1.890e-5
-1.650, 1.905e-5
-1.651, 1.921e-5
-1.652, 1.937e-5
-1.653, 1.953e-5
-1.654, 1.970e-5
-1.655, 1.986e-5
-1.656, 2.002e-5
-1.657, 2.017e-5
-1.658, 2.034e-5
-1.659, 2.052e-5
-1.660, 2.069e-5
-1.661, 2.085e-5
-1.662, 2.102e-5
-1.663, 2.119e-5
-1.664, 2.137e-5
-1.665, 2.154e-5
-1.666, 2.171e-5
-1.667, 2.188e-5
-1.668, 2.206e-5
-1.669, 2.224e-5
-1.670, 2.241e-5
-1.671, 2.259e-5
-1.672, 2.276e-5
-1.673, 2.295e-5
-1.674, 2.313e-5
-1.675, 2.332e-5
-1.676, 2.350e-5
-1.677, 2.368e-5
-1.678, 2.386e-5
-1.679, 2.406e-5
-1.680, 2.426e-5
-1.681, 2.444e-5
-1.682, 2.463e-5
-1.683, 2.482e-5
-1.684, 2.501e-5
-1.685, 2.520e-5
-1.686, 2.539e-5
-1.687, 2.558e-5
-1.688, 2.578e-5
-1.689, 2.598e-5
-1.690, 2.618e-5
-1.691, 2.637e-5
-1.692, 2.656e-5
-1.693, 2.676e-5
-1.694, 2.696e-5
-1.695, 2.715e-5
-1.696, 2.735e-5
-1.697, 2.755e-5
-1.698, 2.775e-5
-1.699, 2.796e-5
