Potential V vs RHE, Current mA cm-2
0.013299999999999867,0.43403342679859325
0.012299999999999978,-2.095187435100119
0.011299999999999866,-4.450681749375406
0.010299999999999976,-6.632166573767292
0.009299999999999864,-8.725939297567548
0.008299999999999974,-10.644287820184536
0.007299999999999862,-12.56405105410139
0.006299999999999972,-14.345172580631472
0.00529999999999986,-16.056973253468165
0.0042999999999999705,-17.627302796318357
0.0032999999999998586,-19.056161209182044
0.0022999999999999687,-20.499166735044383
0.0012999999999998568,-21.814848243918867
0.00029999999999996696,-22.989058622806844
-0.000700000000000145,-24.16326900169483
-0.0017000000000000348,-25.210155363594954
-0.0027000000000001467,-26.17215904750318
-0.0037000000000000366,-27.134162731411404
-0.0047000000000001485,-28.09616641531963
-0.005700000000000038,-28.959140308237306
-0.00670000000000015,-29.793819975157668
-0.00770000000000004,-30.71338232006995
-0.008700000000000152,-31.49147353499572
-0.009700000000000042,-32.32615320191609
-0.010700000000000154,-33.10424441684186
-0.011700000000000044,-33.85404140577033
-0.012700000000000156,-34.5472499427042
-0.013700000000000045,-35.11313446265021
-0.014700000000000157,-35.679018982596226
-0.015700000000000047,-36.244903502542236
-0.01670000000000016,-36.725905344496354
-0.01770000000000005,-37.122024508458566
-0.01870000000000016,-37.645467689408626
-0.01970000000000005,-38.12646953136274
-0.020700000000000163,-38.5650300343209
-0.021700000000000053,-39.046031876275016
-0.022700000000000164,-39.51288660523048
-0.023700000000000054,-39.95144710818864
-0.024700000000000166,-40.43244895014274
-0.025700000000000056,-40.87100945310091
-0.026700000000000168,-41.267128617063115
-0.027700000000000058,-41.70568912002128
-0.02870000000000017,-42.00277849299294
-0.02970000000000006,-42.3564563179592
-0.03070000000000017,-42.6111043519349
-0.03170000000000006,-42.87989949890926
-0.03270000000000017,-43.134547532884966
-0.03370000000000006,-43.44578401885527
-0.034700000000000175,-43.70043205283099
-0.035700000000000065,-43.96922719980534
-0.03670000000000018,-44.36534636376755
-0.03770000000000007,-44.66243573673921
-0.03870000000000018,-44.97367222270952
-0.03970000000000007,-45.27076159568118
-0.04070000000000018,-45.624439420647434
-0.04170000000000007,-45.93567590661774
-0.04270000000000018,-46.19032394059345
-0.04370000000000007,-46.41667774857186
-0.044700000000000184,-46.628884443551605
-0.045700000000000074,-46.84109113853137
-0.046700000000000186,-47.02500360751382
-0.047700000000000076,-47.19476896349763
-0.04870000000000019,-47.40697565847737
-0.04970000000000008,-47.633329466455784
-0.05070000000000019,-47.80309482243959
-0.05170000000000008,-48.071889969413945
-0.05270000000000019,-48.32653800338966
-0.05370000000000008,-48.59533315036401
-0.05470000000000019,-48.89242252333566
-0.05570000000000008,-49.16121767031002
-0.056700000000000195,-49.41586570428573
-0.057700000000000085,-49.72710219025603
-0.058700000000000196,-49.85442620724389
-0.059700000000000086,-50.024191563227696
-0.0607000000000002,-50.2505453712061
-0.06170000000000009,-50.42031072718991
-0.0627000000000002,-50.547634744177756
-0.06370000000000009,-50.77398855215617
-0.0647000000000002,-50.943753908139975
-0.06570000000000009,-51.127666377122424
-0.0667000000000002,-51.33987307210218
-0.0677000000000001,-51.594521106077885
-0.0687000000000002,-51.90575759204819
-0.0697000000000001,-52.11796428702795
-0.07070000000000021,-52.42920077299826
-0.0717000000000001,-52.64140746797801
-0.07270000000000021,-52.91020261495237
-0.0737000000000001,-53.079967970936174
-0.07470000000000021,-53.22143910092268
-0.0757000000000001,-53.433645795902436
-0.07670000000000021,-53.518528473894335
-0.0777000000000001,-53.603411151886235
-0.07870000000000021,-53.7873236208687
-0.0797000000000001,-53.91464763785655
-0.08070000000000022,-54.0419716548444
-0.0817000000000001,-54.26832546282281
-0.08270000000000022,-54.43809081880661
-0.08370000000000011,-54.69273885278232
-0.08470000000000022,-54.876651321764776
-0.08570000000000011,-55.13129935574048
-0.08670000000000022,-55.357653163718886
-0.08770000000000011,-55.527418519702685
-0.08870000000000022,-55.6971838756865
-0.08970000000000011,-55.881096344668954
-0.09070000000000022,-56.008420361656796
-0.09170000000000011,-56.13574437864466
-0.09270000000000023,-56.1781857176406
-0.09370000000000012,-56.36209818662306
-0.09470000000000023,-56.489422203610914
-0.09570000000000012,-56.65918755959472
-0.09670000000000023,-56.82895291557852
-0.09770000000000012,-57.05530672355693
-0.09870000000000023,-57.26751341853669
-0.09970000000000012,-57.53630856551105
-0.10070000000000023,-57.7485152604908
-0.10170000000000012,-57.974869068469204
-0.10270000000000024,-58.14463442445301
-0.10370000000000013,-58.22951710244491
-0.10470000000000024,-58.35684111943277
-0.10570000000000013,-58.45587091042332
-0.10670000000000024,-58.54075358841522
-0.10770000000000013,-58.583194927411164
-0.10870000000000024,-58.71051894439902
-0.10970000000000013,-58.79540162239092
-0.11070000000000024,-58.97931409137338
-0.11170000000000013,-59.06419676936528
-0.11270000000000002,-59.27640346434504
-0.11370000000000013,-59.502757272323436
-0.11470000000000002,-59.67252262830725
-0.11570000000000014,-59.884729323287
-0.11670000000000003,-60.06864179226946
-0.11770000000000014,-60.23840714825326
-0.11870000000000003,-60.36573116524111
-0.11970000000000014,-60.45061384323302
-0.12070000000000003,-60.59208497321952
-0.12170000000000014,-60.71940899020737
-0.12270000000000003,-60.761850329203334
-0.12370000000000014,-60.889174346191176
-0.12470000000000003,-61.01649836317903
-0.12570000000000014,-61.15796949316553
-0.12670000000000003,-61.327734849149344
-0.12770000000000015,-61.49750020513315
-0.12870000000000004,-61.6814126741156
-0.12970000000000015,-61.80873669110345
-0.13070000000000004,-62.02094338608321
-0.13170000000000015,-62.20485585506566
-0.13270000000000004,-62.37462121104946
-0.13370000000000015,-62.459503889041365
-0.13470000000000004,-62.58682790602922
-0.13570000000000015,-62.72829903601572
-0.13670000000000004,-62.81318171400764
-0.13770000000000016,-62.89806439199953
-0.13870000000000005,-62.98294706999144
-0.13970000000000016,-63.11027108697928
-0.14070000000000005,-63.251742216965795
-0.14170000000000016,-63.421507572949594
-0.14270000000000005,-63.59127292893339
-0.14370000000000016,-63.81762673691181
-0.14470000000000005,-63.98739209289561
-0.14570000000000016,-64.19959878787537
-0.14670000000000005,-64.38351125685783
-0.14770000000000016,-64.55327661284163
-0.14870000000000005,-64.63815929083353
-0.14970000000000017,-64.72304196882543
-0.15070000000000006,-64.86451309881193
-0.15170000000000017,-64.90695443780788
-0.15270000000000006,-64.94939577680383
-0.15370000000000017,-65.0767197937917
-0.15470000000000006,-65.20404381077954
-0.15570000000000017,-65.34551494076604
-0.15670000000000006,-65.4728389577539
-0.15770000000000017,-65.68504565273366
-0.15870000000000006,-65.91139946071206
-0.15970000000000018,-66.03872347769992
-0.16070000000000007,-66.29337151167562
-0.16170000000000018,-66.43484264166212
-0.16270000000000007,-66.64704933664189
-0.16370000000000018,-66.77437335362974
-0.16470000000000007,-66.87340314462028
-0.16570000000000018,-67.04316850060408
-0.16670000000000007,-67.128051178596
-0.16770000000000018,-67.17049251759194
-0.16870000000000007,-67.34025787357575
-0.16970000000000018,-67.48172900356225
-0.17070000000000007,-67.6090530205501
-0.17170000000000019,-67.82125971552985
-0.17270000000000008,-68.0051721845123
-0.1737000000000002,-68.21737887949207
-0.17470000000000008,-68.44373268747047
-0.1757000000000002,-68.65593938245023
-0.17670000000000008,-68.82570473843404
-0.1777000000000002,-69.0944998854084
-0.17870000000000008,-69.1793825634003
-0.1797000000000002,-69.3491479193841
-0.18070000000000008,-69.43403059737601
-0.1817000000000002,-69.57550172736251
-0.18270000000000008,-69.6603844053544
-0.1837000000000002,-69.78770842234226
-0.1847000000000001,-69.91503243933012
-0.1857000000000002,-70.09894490831257
-0.1867000000000001,-70.26871026429637
-0.1877000000000002,-70.48091695927613
-0.1887000000000001,-70.70727076725453
-0.1897000000000002,-70.87703612323833
-0.1907000000000001,-71.18827260920865
-0.1917000000000001,-71.31559662619651
-0.19269999999999998,-71.52780332117625
-0.1937000000000001,-71.66927445116276
-0.19469999999999998,-71.7965984681506
-0.1957000000000001,-71.96636382413442
-0.19669999999999999,-72.00880516313036
-0.1977000000000001,-72.10783495412092
-0.1987,-72.27760031010472
-0.1997000000000001,-72.40492432709259
-0.2007,-72.53224834408043
-0.2017000000000001,-72.71616081306288
-0.2027,-72.8859261690467
-0.2037000000000001,-73.09813286402644
-0.2047,-73.32448667200485
-0.2057000000000001,-73.53669336698461
-0.2067,-73.72060583596706
-0.2077000000000001,-73.89037119195086
-0.2087,-73.97525386994278
-0.2097000000000001,-74.10257788693062
-0.2107,-74.20160767792116
-0.2117000000000001,-74.32893169490903
-0.2127,-74.37137303390499
-0.2137000000000001,-74.54113838988879
-0.2147,-74.66846240687663
-0.2157000000000001,-74.8523748758591
-0.2167,-75.02214023184291
-0.21770000000000012,-75.19190558782671
-0.2187,-75.4182593958051
-0.21970000000000012,-75.5880247517889
-0.2207,-75.85681989876326
-0.22170000000000012,-76.02658525474708
-0.2227,-76.23879194972683
-0.22370000000000012,-76.33782174071737
-0.2247,-76.46514575770523
-0.22570000000000012,-76.5924697746931
-0.2267,-76.71979379168094
-0.22770000000000012,-76.81882358267148
-0.22870000000000001,-76.94614759965934
-0.22970000000000013,-77.11591295564315
-0.23070000000000002,-77.243236972631
-0.23170000000000013,-77.42714944161345
-0.23270000000000002,-77.63935613659322
-0.23370000000000013,-77.86570994457162
-0.23470000000000002,-78.07791663955136
-0.23570000000000013,-78.33256467352709
-0.23670000000000002,-78.51647714250953
-0.2376999999999999,-78.72868383748929
-0.23870000000000002,-78.8135665154812
-0.2396999999999999,-78.9550376454677
-0.24070000000000003,-79.1248030014515
-0.24169999999999991,-79.25212701843935
-0.24270000000000003,-79.2945683574353
-0.24369999999999992,-79.47848082641775
-0.24470000000000003,-79.64824618240156
-0.24569999999999992,-79.7755701993894
-0.24670000000000003,-79.94533555537322
-0.24769999999999992,-80.17168936335163
-0.24870000000000003,-80.38389605833139
-0.24969999999999992,-80.61024986630979
-0.25070000000000003,-80.7800152222936
-0.2516999999999999,-80.99222191727335
-0.25270000000000004,-81.21857572525175
-0.2536999999999999,-81.3458997422396
-0.25470000000000004,-81.47322375922747
-0.2556999999999999,-81.65713622820991
-0.25670000000000004,-81.69957756720586
-0.25769999999999993,-81.82690158419373
-0.25870000000000004,-81.95422560118158
-0.25969999999999993,-82.13813807016405
-0.26070000000000004,-82.30790342614785
-0.26169999999999993,-82.52011012112759
-0.26270000000000004,-82.70402259011003
-0.26369999999999993,-82.95867062408576
-0.26470000000000005,-83.18502443206415
-0.26569999999999994,-83.43967246603985
-0.26670000000000005,-83.70846761301424
-0.26769999999999994,-83.96311564698992
-0.26870000000000005,-84.09043966397778
-0.26969999999999994,-84.23191079396429
-0.27070000000000005,-84.40167614994809
-0.27169999999999994,-84.57144150593189
-0.27270000000000005,-84.7129126359184
-0.27369999999999994,-84.92511933089816
-0.27470000000000006,-85.09488468688197
-0.27569999999999995,-85.32123849486035
-0.27670000000000006,-85.57588652883607
-0.27769999999999995,-85.84468167581042
-0.27870000000000006,-86.14177104878208
-0.27969999999999995,-86.41056619575643
-0.28070000000000006,-86.75009690772404
-0.28169999999999995,-87.01889205469841
-0.28270000000000006,-87.33012854066871
-0.28369999999999995,-87.54233523564847
-0.28470000000000006,-87.75454193062824
-0.28569999999999995,-88.02333707760259
-0.28670000000000007,-88.23554377258235
-0.28769999999999996,-88.4194562415648
-0.28870000000000007,-88.6741042755405
-0.28969999999999996,-88.9853407615108
-0.29070000000000007,-89.23998879548651
-0.29169999999999996,-89.55122528145681
-0.29270000000000007,-89.89075599342443
-0.29369999999999996,-90.24443381839069
-0.2947000000000001,-90.59811164335694
-0.29569999999999996,-90.93764235532454
-0.2967000000000001,-91.33376151928677
-0.29769999999999996,-91.77232202224494
-0.2987000000000001,-92.04111716921928
-0.29969999999999997,-92.33820654219093
-0.3007000000000001,-92.64944302816124
-0.30169999999999997,-92.90409106213696
-0.3027000000000001,-93.21532754810727
-0.30369999999999997,-93.51241692107894
-0.3047000000000001,-93.90853608504113
-0.30569999999999997,-94.21977257101145
-0.3067000000000001,-94.601744621975
-0.3077,-95.08274646392913
-0.3087000000000001,-95.56374830588322
-0.3097,-96.04475014783733
-0.3107000000000001,-96.5681933287874
-0.3117,-97.00675383174556
-0.3127000000000001,-97.53019701269562
-0.3137,-97.96875751565379
-0.3147000000000001,-98.40731801861195
-0.3157,-98.83173140857146
-0.3167000000000001,-99.31273325052557
-0.3177,-99.70885241448778
-0.3187000000000001,-100.18985425644189
-0.3197,-100.71329743739196
-0.3207000000000001,-101.23674061834203
-0.3217,-101.84506647728399
-0.3227000000000001,-102.41095099723
-0.3237,-103.07586530816658
-0.3247000000000001,-103.7266325061045
-0.3257,-104.3773997040424
-0.3267000000000001,-105.02816690198033
-0.3277,-105.73552255191284
-0.3287000000000001,-106.34384841085482
-0.3297,-106.90973293080083
-0.3307000000000001,-107.51805878974278
-0.3317,-108.1688259876807
-0.3327000000000001,-108.77715184662266
-0.3337,-109.44206615755924
-0.3347000000000001,-110.1352746944931
-0.3357,-110.78604189243102
-0.3367000000000001,-111.57828022035544
-0.3377,-112.3563714352812
-0.3387000000000001,-113.14860976320564
-0.3397,-113.96914231712736
-0.3407000000000001,-114.80382198404773
-0.3417,-115.5819131989735
-0.3427000000000001,-116.41659286589388
-0.3437,-117.19468408081964
-0.3447000000000001,-117.98692240874406
-0.3457,-118.76501362366983
-0.3467000000000001,-119.55725195159425
-0.3477,-120.29290182752408
-0.3487000000000001,-121.12758149444444
-0.3497,-122.00470250036076
-0.3507000000000001,-122.86767639327843
-0.3517,-123.74479739919475
-0.3527000000000001,-124.70680108310299
-0.3537,-125.62636342801528
-0.3547000000000001,-126.57421999892482
-0.3557,-127.57866502182902
-0.35670000000000013,-128.54066870573723
-0.3577,-129.50267238964545
-0.35870000000000013,-130.37979339556176
-0.3597,-131.24276728847948
-0.36070000000000013,-132.16232963339172
-0.3617,-133.12433331729994
-0.3626999999999999,-133.94486587122168
-0.3637,-134.9068695551299
-0.3646999999999999,-135.86887323903812
-0.3657,-136.8733182619423
-0.3666999999999999,-137.92020462384244
-0.3677,-139.0095323247385
-0.3686999999999999,-140.14130136463055
-0.36970000000000003,-141.3155117435185
-0.3706999999999999,-142.6028990263957
-0.37170000000000003,-143.73466806628772
-0.3726999999999999,-145.00790823616626
-0.37370000000000003,-146.28114840604482
-0.3746999999999999,-147.4129174459368
-0.37570000000000003,-148.54468648582886
-0.3766999999999999,-149.6764555257209
-0.37770000000000004,-150.8082245656129
-0.3786999999999999,-151.93999360550492
-0.37970000000000004,-153.21323377538346
-0.3806999999999999,-154.3450028152755
-0.38170000000000004,-155.61824298515404
-0.38269999999999993,-156.89148315503257
-0.38370000000000004,-158.1647233249111
-0.38469999999999993,-159.57943462477613
-0.38570000000000004,-160.8526747946547
-0.38669999999999993,-160.28679027470866
-0.38570000000000004,-156.32559863508658
-0.38469999999999993,-152.64734925543743
-0.38370000000000004,-149.25204213576137
-0.38269999999999993,-146.1396772760583
-0.38170000000000004,-143.0273124163552
-0.3806999999999999,-140.01397734764268
-0.37970000000000004,-137.2694374259045
-0.3786999999999999,-134.6097801821582
-0.37770000000000004,-132.07744695539984
-0.3766999999999999,-129.6299964066333
-0.37570000000000003,-127.32401698785328
-0.3746999999999999,-125.04633179507057
-0.37370000000000003,-122.86767639327843
-0.3726999999999999,-120.77390366947817
-0.37170000000000003,-118.63768960668197
-0.3706999999999999,-116.62879956087362
-0.36970000000000003,-114.57746817606933
-0.3686999999999999,-112.54028390426367
-0.3677,-110.57383519745127
-0.3666999999999999,-108.60738649063886
-0.3657,-106.64093778382647
-0.3646999999999999,-104.81596020700057
-0.3637,-102.93439417818009
-0.3626999999999999,-101.15185794035013
-0.3617,-99.35517458952152
-0.36070000000000013,-97.6575210296835
-0.3597,-95.91742613084948
-0.35870000000000013,-94.26221391000739
-0.3577,-92.6918843671572
-0.35670000000000013,-91.03667214631511
-0.3557,-89.42390126446898
-0.3547000000000001,-87.75454193062824
-0.3537,-86.05688837079018
-0.3527000000000001,-84.40167614994809
-0.3517,-82.78890526810196
-0.3507000000000001,-81.13369304725985
-0.3497,-79.56336350440966
-0.3487000000000001,-77.99303396155948
-0.3477,-76.42270441870929
-0.3467000000000001,-74.93725755385098
-0.3457,-73.45181068899271
-0.3447000000000001,-72.00880516313036
-0.3437,-70.57994675026669
-0.3427000000000001,-69.13694122440434
-0.3417,-67.73637703753796
-0.3407000000000001,-66.29337151167562
-0.3397,-64.86451309881193
-0.3387000000000001,-63.421507572949594
-0.3377,-61.97850204708726
-0.3367000000000001,-60.54964363422357
-0.3357,-59.06419676936528
-0.3347000000000001,-57.66363258249889
-0.3337,-56.26306839563251
-0.3327000000000001,-54.919092660760725
-0.3317,-53.56096981289029
-0.3307000000000001,-52.25943541701445
-0.3297,-50.943753908139975
-0.3287000000000001,-49.72710219025603
-0.3277,-48.45386202037751
-0.3267000000000001,-47.19476896349763
-0.3257,-45.97811724561369
-0.3247000000000001,-44.619994397743255
-0.3237,-43.27601866287147
-0.3227000000000001,-42.00277849299294
-0.3217,-40.701244097117105
-0.3207000000000001,-39.34312124924667
-0.3197,-38.12646953136274
-0.3187000000000001,-36.8532293614842
-0.3177,-35.636577643600276
-0.3167000000000001,-34.41992592571634
-0.3157,-33.231568433829715
-0.3147000000000001,-32.14224073293363
-0.3137,-31.010471693041605
-0.3127000000000001,-29.921143992145527
-0.3117,-28.746933613257543
-0.3107000000000001,-27.65760591236147
-0.3097,-26.483395533473487
-0.3087000000000001,-25.337479380582806
-0.3077,-24.16326900169483
-0.3067000000000001,-23.073941300798747
-0.30569999999999997,-21.857289582914817
-0.3047000000000001,-20.76796188201874
-0.30369999999999997,-19.678634181122664
-0.3027000000000001,-18.589306480226583
-0.30169999999999997,-17.542420118326454
-0.3007000000000001,-16.580416434418233
-0.29969999999999997,-15.618412750510005
-0.2987000000000001,-14.65640906660178
-0.29769999999999996,-13.698649516593148
-0.2967000000000001,-12.694204493688973
-0.29569999999999996,-11.778886282676295
-0.2947000000000001,-10.731999920776168
-0.29369999999999996,-9.728969609171857
-0.29270000000000007,-8.725939297567548
-0.29169999999999996,-7.7653503249591855
-0.29070000000000007,-6.719878674358924
-0.28969999999999996,-5.759289701750564
-0.28870000000000007,-4.843971490737885
-0.28769999999999996,-3.927238568425342
-0.28670000000000007,-3.0119203574126634
-0.28569999999999995,-2.226755585987568
-0.28470000000000006,-1.3543031273607997
-0.28369999999999995,-0.5255652478998613
-0.28270000000000006,0.2594580523952477
-0.28169999999999995,1.0881959318561862
-0.28070000000000006,1.8730777610213083
-0.27969999999999995,2.70209858274222
-0.27870000000000006,3.6174167937548987
-0.27769999999999995,4.44643761547581
-0.27670000000000006,5.275458437196722
-0.27569999999999995,6.14833530921345
-0.27470000000000006,6.975941419634496
-0.27369999999999994,7.761106191059591
-0.27270000000000005,8.546270962484687
-0.27169999999999994,9.245138344618015
-0.27070000000000005,9.986447065747294
-0.26969999999999994,10.683899736580756
-0.26870000000000005,11.33891106841827
-0.26769999999999994,11.992507688955916
-0.26670000000000005,12.68996035978938
-0.26569999999999994,13.388827741922707
-0.26470000000000005,14.130136463051985
-0.26369999999999993,14.826174422585586
