Potential V vs RHE, Current mA cm-2
0.013299999999999867,1.584476655848841
0.012299999999999978,0.14755438857592332
0.011299999999999866,-0.6458157083883892
0.010299999999999976,-1.1450673261107607
0.009299999999999864,-1.53920589425316
0.008299999999999974,-1.847612957623738
0.007299999999999862,-2.1149933932982297
0.006299999999999972,-2.3257853769781205
0.00529999999999986,-2.4743300634639493
0.0042999999999999705,-2.624289461249643
0.0032999999999998586,-2.794054817233447
0.0022999999999999687,-2.9539171941181968
0.0012999999999998568,-3.0670940981073995
0.00029999999999996696,-3.1463179308998415
-0.000700000000000145,-3.2481771444901244
-0.0017000000000000348,-3.3655981823789225
-0.0027000000000001467,-3.4773603750682605
-0.0037000000000000366,-3.5636577643600273
-0.0047000000000001485,-3.6202462163546287
-0.005700000000000038,-3.681078802248825
-0.00670000000000015,-3.785767438438838
-0.00770000000000004,-3.8607471373316855
-0.008700000000000152,-3.9244091458256123
-0.009700000000000042,-3.975338752620753
-0.010700000000000154,-4.046074317614004
-0.011700000000000044,-4.132371706905772
-0.012700000000000156,-4.200277849299294
-0.013700000000000045,-4.238475054395651
-0.014700000000000157,-4.26393985779322
-0.015700000000000047,-4.299307640289847
-0.01670000000000016,-4.391263874781075
-0.01770000000000005,-4.454925883275001
-0.01870000000000016,-4.487464243171897
-0.01970000000000005,-4.507270201370006
-0.020700000000000163,-4.532735004767577
-0.021700000000000053,-4.603470569760829
-0.022700000000000164,-4.678450268653676
-0.023700000000000054,-4.718062185049897
-0.024700000000000166,-4.744941699747333
-0.025700000000000056,-4.764747657945444
-0.026700000000000168,-4.818506687340315
-0.027700000000000058,-4.870851005435322
-0.02870000000000017,-4.896315808832893
-0.02970000000000006,-4.899145231432622
-0.03070000000000017,-4.933098302629383
-0.03170000000000006,-4.991101465923849
-0.03270000000000017,-5.0491046292183155
-0.03370000000000006,-5.0745694326158866
-0.034700000000000175,-5.075984143915751
-0.035700000000000065,-5.108522503812647
-0.03670000000000018,-5.172184512306574
-0.03770000000000007,-5.22735825300131
-0.03870000000000018,-5.231602386900906
-0.03970000000000007,-5.223114119101715
-0.04070000000000018,-5.259896612898206
-0.04170000000000007,-5.307996797093617
-0.04270000000000018,-5.351852847389433
-0.04370000000000007,-5.3759029394871405
-0.044700000000000184,-5.3702440942876795
-0.045700000000000074,-5.39287947508552
-0.046700000000000186,-5.450882638379986
-0.047700000000000076,-5.484835709576747
-0.04870000000000019,-5.498982822575398
-0.04970000000000008,-5.5018122451751275
-0.05070000000000019,-5.524447625972968
-0.05170000000000008,-5.57820665536784
-0.05270000000000019,-5.6192332830639256
-0.05370000000000008,-5.6263068395632505
-0.05470000000000019,-5.631965684762711
-0.05570000000000008,-5.646112797761361
-0.056700000000000195,-5.685724714157582
-0.057700000000000085,-5.716848362754614
-0.058700000000000196,-5.739483743552454
-0.059700000000000086,-5.7380690322525885
-0.0607000000000002,-5.764948546950024
-0.06170000000000009,-5.834269400643411
-0.0627000000000002,-5.873881317039633
-0.06370000000000009,-5.871051894439902
-0.0647000000000002,-5.858319492741117
-0.06570000000000009,-5.888028430038283
-0.0667000000000002,-5.910663810836123
-0.0677000000000001,-5.950275727232344
-0.0687000000000002,-5.964422840230995
-0.0697000000000001,-5.968666974130589
-0.07070000000000021,-5.984228798429105
-0.0717000000000001,-5.9997906227276205
-0.07270000000000021,-6.0464760956231665
-0.0737000000000001,-6.073355610320603
-0.07470000000000021,-6.062037919921682
-0.0757000000000001,-6.0917468572188485
-0.07670000000000021,-6.128529351015339
-0.0777000000000001,-6.155408865712774
-0.07870000000000021,-6.1766295352107505
-0.0797000000000001,-6.175214823910885
-0.08070000000000022,-6.195020782108996
-0.0817000000000001,-6.237462121104946
-0.08270000000000022,-6.278488748801033
-0.08370000000000011,-6.303953552198603
-0.08470000000000022,-6.301124129598874
-0.08570000000000011,-6.3407360459950945
-0.08670000000000022,-6.402983343189156
-0.08770000000000011,-6.428448146586726
-0.08870000000000022,-6.4199598787875365
-0.08970000000000011,-6.414301033588076
-0.09070000000000022,-6.435521703086052
-0.09170000000000011,-6.483621887281464
-0.09270000000000023,-6.527477937577279
-0.09370000000000012,-6.540210339276065
-0.09470000000000023,-6.55294274097485
-0.09570000000000012,-6.593969368670936
-0.09670000000000023,-6.639240130266617
-0.09770000000000012,-6.671778490163514
-0.09870000000000023,-6.666119644964053
-0.09970000000000012,-6.687340314462029
-0.10070000000000023,-6.74675818905636
-0.10170000000000012,-6.848617402646643
-0.10270000000000024,-6.883985185143269
-0.10370000000000013,-6.813249620150017
-0.10470000000000024,-6.807590774950556
-0.10570000000000013,-6.852861536546238
-0.10670000000000024,-6.899547009441784
-0.10770000000000013,-6.927841235439085
-0.10870000000000024,-6.929255946738949
-0.10970000000000013,-6.929255946738949
-0.11070000000000024,-6.973111997034766
-0.11170000000000013,-7.038188716828557
-0.11270000000000002,-7.069312365425588
-0.11370000000000013,-7.083459478424238
-0.11470000000000002,-7.077800633224777
-0.11570000000000014,-7.1089242818218095
-0.11670000000000003,-7.171171579015871
-0.11770000000000014,-7.210783495412092
-0.11870000000000003,-7.219271763211282
-0.11970000000000014,-7.217857051911418
-0.12070000000000003,-7.241907144009123
-0.12170000000000014,-7.295666173403994
-0.12270000000000003,-7.332448667200485
-0.12370000000000014,-7.348010491499002
-0.12470000000000003,-7.360742893197786
-0.12570000000000014,-7.3777194287961665
-0.12670000000000003,-7.432893169490902
-0.12770000000000015,-7.454113838988878
-0.12870000000000004,-7.468260951987529
-0.12970000000000015,-7.466846240687664
-0.13070000000000004,-7.489481621485504
-0.13170000000000015,-7.57294958817754
-0.13270000000000004,-7.619635061073087
-0.13370000000000015,-7.630952751472008
-0.13470000000000004,-7.613976215873627
-0.13570000000000015,-7.616805638473357
-0.13670000000000004,-7.671979379168095
-0.13770000000000016,-7.7130060068641795
-0.13870000000000005,-7.700273605165394
-0.13970000000000016,-7.70734716166472
-0.14070000000000005,-7.74130023286148
-0.14170000000000016,-7.787985705757026
-0.14270000000000005,-7.820524065653922
-0.14370000000000016,-7.819109354354057
-0.14470000000000005,-7.830427044752977
-0.14570000000000016,-7.865794827249602
-0.14670000000000005,-7.912480300145149
-0.14770000000000016,-7.956336350440965
-0.14870000000000005,-7.952092216541371
-0.14970000000000017,-7.9082361662455565
-0.15070000000000006,-7.940774526142452
-0.15170000000000017,-8.004436534636376
-0.15270000000000006,-8.010095379835839
-0.15370000000000017,-8.02141307023476
-0.15470000000000006,-8.045463162332464
-0.15570000000000017,-8.076586810929495
-0.15670000000000006,-8.104881036926795
-0.15770000000000017,-8.128931129024501
-0.15870000000000006,-8.130345840324367
-0.15970000000000018,-8.124686995124907
-0.16070000000000007,-8.164298911521126
-0.16170000000000018,-8.222302074815595
-0.16270000000000007,-8.235034476514379
-0.16370000000000018,-8.229375631314918
-0.16470000000000007,-8.236449187814243
-0.16570000000000018,-8.274646392910599
-0.16670000000000007,-8.34255253530412
-0.16770000000000018,-8.362358493502233
-0.16870000000000007,-8.380749740400477
-0.16970000000000018,-8.403385121198317
-0.17070000000000007,-8.434508769795347
-0.17170000000000019,-8.484023665290625
-0.17270000000000008,-8.464217707092514
-0.1737000000000002,-8.464217707092514
-0.17470000000000008,-8.47129126359184
-0.1757000000000002,-8.49392664438968
-0.17670000000000008,-8.624080083977264
-0.1777000000000002,-8.778283615662552
-0.17870000000000008,-8.66510671167335
-0.1797000000000002,-8.774039481762957
-0.18070000000000008,-8.817895532058774
-0.1817000000000002,-8.81931024335864
-0.18270000000000008,-8.834872067657153
-0.1837000000000002,-8.813651398159179
-0.1847000000000001,-8.816480820758908
-0.1857000000000002,-8.88438696315243
-0.1867000000000001,-8.95795195074541
-0.1877000000000002,-9.004637423640958
-0.1887000000000001,-9.011710980140284
-0.1897000000000002,-9.038590494837718
-0.1907000000000001,-9.09234952423259
-0.1917000000000001,-9.151767398826921
-0.19269999999999998,-9.209770562121388
-0.1937000000000001,-9.23806478811869
-0.19469999999999998,-9.262114880216396
-0.1957000000000001,-9.327191600010188
-0.19669999999999999,-9.412074278002088
-0.1977000000000001,-9.470077441296555
-0.1987,-9.521007048091697
-0.1997000000000001,-9.539398294989942
-0.2007,-9.607304437383464
-0.2017000000000001,-9.683698847576176
-0.2027,-9.740287299570777
-0.2037000000000001,-9.809608153264165
-0.2047,-9.880343718257414
-0.2057000000000001,-9.928443902452829
-0.2067,-10.043035517741895
-0.2077000000000001,-10.130747618333528
-0.2087,-10.168944823429884
-0.2097000000000001,-10.225533275424485
-0.2107,-10.347198447212879
-0.2117000000000001,-10.432081125204782
-0.2127,-10.484425443299786
-0.2137000000000001,-10.565063987392096
-0.2147,-10.664093778382647
-0.2157000000000001,-10.842347402165641
-0.2167,-10.938547770556465
-0.21770000000000012,-10.99089208865147
-0.2187,-11.071530632743777
-0.21970000000000012,-11.1960252271319
-0.2207,-11.34739933621746
-0.22170000000000012,-11.478967487104908
-0.2227,-11.6006326588933
-0.22370000000000012,-11.664294667387228
-0.2247,-11.75766561317832
-0.22570000000000012,-11.897722031864959
-0.2267,-12.060413831349438
-0.22770000000000012,-12.225935053433647
-0.22870000000000001,-12.374479739919476
-0.22970000000000013,-12.46785068571057
-0.23070000000000002,-12.631957196494911
-0.23170000000000013,-12.805966686378312
-0.23270000000000002,-12.94319368246522
-0.23370000000000013,-13.07193241075294
-0.23470000000000002,-13.224721231138362
-0.23570000000000013,-13.441172060017713
-0.23670000000000002,-13.581228478704354
-0.2376999999999999,-13.748164412088427
-0.23870000000000002,-13.927832747171284
-0.2396999999999999,-14.0325213833613
-0.24070000000000003,-14.24614278964092
-0.24169999999999991,-14.444202371622024
-0.24270000000000003,-14.599820614607177
-0.24369999999999992,-14.755438857592333
-0.24470000000000003,-15.01008689156804
-0.24569999999999992,-15.236440699546446
-0.24670000000000003,-15.505235846520803
-0.24769999999999992,-15.802325219492458
-0.24870000000000003,-15.929649236480316
-0.24969999999999992,-16.11356170546277
-0.25070000000000003,-16.368209739438473
-0.2516999999999999,-16.622857773414182
-0.25270000000000004,-16.849211581392588
-0.2536999999999999,-17.132153841365596
-0.25470000000000004,-17.40094898833995
-0.2556999999999999,-17.627302796318357
-0.25670000000000004,-17.910245056291366
-0.25769999999999993,-18.17904020326572
-0.25870000000000004,-18.461982463238726
-0.25969999999999993,-18.688336271217132
-0.26070000000000004,-18.97127853119014
-0.26169999999999993,-19.31080924315775
-0.26270000000000004,-19.579604390132108
-0.26369999999999993,-19.862546650105116
-0.26470000000000005,-20.25866581406732
-0.26569999999999994,-20.640637865030882
-0.26670000000000005,-20.89528589900659
-0.26769999999999994,-21.248963723972853
-0.26870000000000005,-21.602641548939108
-0.26969999999999994,-21.899730921910766
-0.27070000000000005,-22.324144311870278
-0.27169999999999994,-22.691969249835186
-0.27270000000000005,-23.017352848804148
-0.27369999999999994,-23.44176623876366
-0.27470000000000006,-23.823738289727217
-0.27569999999999995,-24.262298792685378
-0.27670000000000006,-24.686712182644893
-0.27769999999999995,-25.054537120609798
-0.27870000000000006,-25.521391849565262
-0.27969999999999995,-25.90336390052882
-0.28070000000000006,-26.370218629484285
-0.28169999999999995,-26.851220471438396
-0.28270000000000006,-27.275633861397907
-0.28369999999999995,-27.714194364356068
-0.28470000000000006,-28.18104909331153
-0.28569999999999995,-28.718639387260247
-0.28670000000000007,-29.25622968120896
-0.28769999999999996,-29.73723152316307
-0.28870000000000007,-30.246527591114486
-0.28969999999999996,-30.741676546067247
-0.29070000000000007,-31.265119727017314
-0.29169999999999996,-31.802710020966025
-0.29270000000000007,-32.283711862920136
-0.29369999999999996,-32.821302156868846
-0.2947000000000001,-33.42962801581082
-0.29569999999999996,-34.02380676175414
-0.2967000000000001,-34.67457395969205
-0.29769999999999996,-35.45266517461782
-0.2987000000000001,-36.00440258156518
-0.29969999999999997,-36.5136986495166
-0.3007000000000001,-37.136171621457216
-0.30169999999999997,-37.85767438438838
-0.3027000000000001,-38.5367358083236
-0.30369999999999997,-39.10262032826961
-0.3047000000000001,-39.71094618721158
-0.30569999999999997,-40.43244895014274
-0.3067000000000001,-41.22468727806717
-0.3077,-41.88960158900374
-0.3087000000000001,-42.540368786941656
-0.3097,-43.37504845386202
-0.3107000000000001,-44.195581007783744
-0.3117,-44.88878954471762
-0.3127000000000001,-45.666880759643384
-0.3137,-46.47326620056646
-0.3147000000000001,-47.27965164148953
-0.3157,-48.001154404420696
-0.3167000000000001,-48.73680428035051
-0.3177,-49.642219512264134
-0.3187000000000001,-50.53348763117911
-0.3197,-51.410608637095436
-0.3207000000000001,-52.40090654700096
-0.3217,-53.24973332691998
-0.3227000000000001,-54.35320814081471
-0.3237,-55.25862337272834
-0.3247000000000001,-56.1781857176406
-0.3257,-57.027012497559625
-0.3267000000000001,-58.031457520463796
-0.3277,-59.02175543036933
-0.3287000000000001,-59.72911108030185
-0.3297,-60.63452631221547
-0.3307000000000001,-61.80873669110345
-0.3317,-62.91221150499819
-0.3327000000000001,-63.81762673691181
-0.3337,-64.72304196882543
-0.3347000000000001,-65.76992833072556
-0.3357,-66.91584448361623
-0.3367000000000001,-67.93443661951906
-0.3377,-68.99547009441784
-0.3387000000000001,-69.99991511732202
-0.3397,-70.9760659142289
-0.3407000000000001,-72.07954072812362
-0.3417,-73.2820453330089
-0.3427000000000001,-74.47040282489553
-0.3437,-75.54558341279296
-0.3447000000000001,-76.56417554869579
-0.3457,-77.66765036259052
-0.3467000000000001,-78.84186074147848
-0.3477,-80.07265957236108
-0.3487000000000001,-81.48737087222611
-0.3497,-82.76061104210466
-0.3507000000000001,-83.86408585599938
-0.3517,-84.99585489589141
-0.3527000000000001,-86.39641908275779
-0.3537,-87.62721791364037
-0.3547000000000001,-88.7306927275351
-0.3557,-89.94734444541903
-0.35670000000000013,-91.33376151928677
-0.3577,-92.53626612417206
-0.35870000000000013,-93.85194763304654
-0.3597,-95.22421759391563
-0.36070000000000013,-96.3984279728036
-0.3617,-97.82728638566729
-0.3626999999999999,-99.31273325052557
-0.3637,-100.670856098396
-0.3646999999999999,-102.14215585025565
-0.3657,-103.17489509915713
-0.3666999999999999,-104.71693041601002
-0.3677,-106.41458397584806
-0.3686999999999999,-107.64538280673065
-0.36970000000000003,-108.70641628162942
-0.3706999999999999,-110.06453912949985
-0.37170000000000003,-111.5075446553622
-0.3726999999999999,-112.75249059924342
-0.37370000000000003,-114.1813490121071
-0.3746999999999999,-115.51117763398025
-0.37570000000000003,-116.86930048185067
-0.3766999999999999,-117.98692240874406
-0.37770000000000004,-119.55725195159425
-0.3786999999999999,-121.45296509341341
-0.37970000000000004,-123.3345311222339
-0.3806999999999999,-124.63606551810975
-0.38170000000000004,-126.121512382968
-0.38269999999999993,-127.05522184087894
-0.38370000000000004,-128.03137263778584
-0.38469999999999993,-129.1207003386819
-0.38570000000000004,-130.36564628256312
-0.38669999999999993,-130.12514536158608
-0.38570000000000004,-128.17284376777232
-0.38469999999999993,-126.84301514589919
-0.38370000000000004,-125.6122163150166
-0.38269999999999993,-124.16921078915428
-0.38170000000000004,-122.31593898633106
-0.3806999999999999,-120.13728358453892
-0.37970000000000004,-118.26986466871706
-0.3786999999999999,-116.71368223886554
-0.37770000000000004,-115.17164692201266
-0.3766999999999999,-113.91255386513275
-0.37570000000000003,-112.39881277427718
-0.3746999999999999,-110.82848323142699
-0.37370000000000003,-109.44206615755924
-0.3726999999999999,-107.95661929270095
-0.37170000000000003,-106.2023772808683
-0.3706999999999999,-104.61790062501946
-0.36970000000000003,-102.99098263017467
-0.3686999999999999,-101.50553576531638
-0.3677,-100.11911869144865
-0.3666999999999999,-98.88831986056607
-0.3657,-97.54434412569428
-0.3646999999999999,-96.20036839082249
-0.3637,-94.75736286496016
-0.3626999999999999,-93.45582846908432
-0.3617,-92.09770562121389
-0.36070000000000013,-90.62640586935424
-0.3597,-89.19754745649055
-0.35870000000000013,-87.95260151260933
-0.3577,-86.86327381171324
-0.35670000000000013,-85.68906343282526
-0.3557,-84.10458677697642
-0.3547000000000001,-82.8313466070979
-0.3537,-81.74201890620182
-0.3527000000000001,-80.17168936335163
-0.3517,-78.8984491934731
-0.3507000000000001,-77.79497437957838
-0.3497,-76.43685153170793
-0.3487000000000001,-75.2767882658186
-0.3477,-74.11672499992927
-0.3467000000000001,-72.9991030730359
-0.3457,-71.8531869201452
-0.3447000000000001,-70.69312365425588
-0.3437,-69.4906190493706
-0.3427000000000001,-68.30226155748396
-0.3417,-67.22708096958654
-0.3407000000000001,-66.03872347769992
-0.3397,-64.96354288980248
-0.3387000000000001,-63.930803640901004
-0.3377,-62.91221150499819
-0.3367000000000001,-61.80873669110345
-0.3357,-60.62037919921682
-0.3347000000000001,-59.389580368334244
-0.3337,-58.22951710244491
-0.3327000000000001,-57.182630740544774
-0.3317,-56.13574437864466
-0.3307000000000001,-55.13129935574048
-0.3297,-54.0136774288471
-0.3287000000000001,-53.136556422930774
-0.3277,-52.30187675601041
-0.3267000000000001,-51.09937215112513
-0.3257,-50.109074241219595
-0.3247000000000001,-49.18951189630732
-0.3237,-48.12847842140855
-0.3227000000000001,-47.22306318949492
-0.3217,-46.30350084458265
-0.3207000000000001,-45.412232725667685
-0.3197,-44.605847284744605
-0.3187000000000001,-43.672137826833676
-0.3177,-42.766722594920054
-0.3167000000000001,-42.04521983198889
-0.3157,-41.083216148080666
-0.3147000000000001,-40.03632978618054
-0.3137,-39.328974136248014
-0.3127000000000001,-38.593324260318205
-0.3117,-37.85767438438838
-0.3107000000000001,-36.9381120394761
-0.3097,-36.00440258156518
-0.3087000000000001,-35.240458479638065
-0.3077,-34.44822015171364
-0.3067000000000001,-34.00965964875548
-0.30569999999999997,-33.06180307784591
-0.3047000000000001,-32.21297629792688
-0.30369999999999997,-31.661238890979522
-0.3027000000000001,-30.88314767605375
-0.30169999999999997,-30.03432089613473
-0.3007000000000001,-29.29867102020491
-0.29969999999999997,-28.53472691827779
-0.2987000000000001,-27.940548172334477
-0.29769999999999996,-27.332222313392506
-0.2967000000000001,-26.738043567449193
-0.29569999999999996,-26.044835030515326
-0.2947000000000001,-25.309185154585506
-0.29369999999999996,-24.70085929564354
-0.29270000000000007,-24.20571034069078
-0.29169999999999996,-23.51250180375691
-0.29070000000000007,-22.861734605818995
-0.28969999999999996,-22.239261633878378
-0.28870000000000007,-21.63093577493641
-0.28769999999999996,-21.121639706984997
-0.28670000000000007,-20.541608074040333
-0.28569999999999995,-19.97572355409432
-0.28470000000000006,-19.480574599141555
-0.28369999999999995,-18.92883719219419
-0.28270000000000006,-18.419541124242777
-0.28169999999999995,-17.924392169290012
-0.28070000000000006,-17.37265476234265
-0.27969999999999995,-16.877505807389888
-0.27870000000000006,-16.438945304431726
-0.27769999999999995,-16.000384801473565
-0.27670000000000006,-15.505235846520803
-0.27569999999999995,-14.98179266557074
-0.27470000000000006,-14.529085049613924
-0.27369999999999994,-14.147112998650368
-0.27270000000000005,-13.753823257287888
-0.27169999999999994,-13.298286218731345
-0.27070000000000005,-12.851237447973993
-0.26969999999999994,-12.407018099816371
-0.26870000000000005,-12.017972492353486
-0.26769999999999994,-11.636000441389927
-0.26670000000000005,-11.24129598872758
-0.26569999999999994,-10.838103268266046
