Sept. 15, 2024   21:24:25
Cyclic Voltammetry
File: c:/users/guazh/data/20240903_batch_252_500/2024-09-03-exp364\exp364-2024-09-15t21_19_32-h2koh\exp364_cv_50mvs_efin_-1400mv.bin
Data Source:  Experiment
Instrument Model:  CHI760E
Header: CV ran at 50 mVs
Note: 

Init E (V) = -1
High E (V) = -1
Low E (V) = -1.4
Final E (V) = -1
Init P/N = N
Scan Rate (V/s) = 0.05
Segment = 7
Sample Interval (V) = 0.001
Quiet Time (sec) = 60
Sensitivity (A/V) = 0.001
Comp R (ohm) = 3.0

Results:

Channel 1:
Segment 1:
Ep = -1.225V
ip = 1.525e-4A
Ah = 1.940e-4C

Segment 2:

Segment 3:

Segment 4:

Segment 5:

Segment 6:

Segment 7:

Potential/V, Current/A

-1.000, 9.804e-6
-1.001, 1.249e-5
-1.002, 1.296e-5
-1.003, 1.318e-5
-1.004, 1.369e-5
-1.005, 1.390e-5
-1.006, 1.399e-5
-1.007, 1.400e-5
-1.008, 1.397e-5
-1.009, 1.434e-5
-1.010, 1.475e-5
-1.011, 1.447e-5
-1.012, 1.460e-5
-1.013, 1.461e-5
-1.014, 1.488e-5
-1.015, 1.503e-5
-1.016, 1.501e-5
-1.017, 1.501e-5
-1.018, 1.525e-5
-1.019, 1.556e-5
-1.020, 1.555e-5
-1.021, 1.550e-5
-1.022, 1.542e-5
-1.023, 1.539e-5
-1.024, 1.572e-5
-1.025, 1.590e-5
-1.026, 1.605e-5
-1.027, 1.587e-5
-1.028, 1.598e-5
-1.029, 1.624e-5
-1.030, 1.625e-5
-1.031, 1.654e-5
-1.032, 1.631e-5
-1.033, 1.639e-5
-1.034, 1.666e-5
-1.035, 1.663e-5
-1.036, 1.677e-5
-1.037, 1.659e-5
-1.038, 1.672e-5
-1.039, 1.704e-5
-1.040, 1.697e-5
-1.041, 1.726e-5
-1.042, 1.721e-5
-1.043, 1.722e-5
-1.044, 1.759e-5
-1.045, 1.745e-5
-1.046, 1.757e-5
-1.047, 1.768e-5
-1.048, 1.762e-5
-1.049, 1.785e-5
-1.050, 1.812e-5
-1.051, 1.816e-5
-1.052, 1.817e-5
-1.053, 1.820e-5
-1.054, 1.848e-5
-1.055, 1.870e-5
-1.056, 1.869e-5
-1.057, 1.865e-5
-1.058, 1.885e-5
-1.059, 1.905e-5
-1.060, 1.917e-5
-1.061, 1.923e-5
-1.062, 1.916e-5
-1.063, 1.953e-5
-1.064, 1.962e-5
-1.065, 1.981e-5
-1.066, 1.997e-5
-1.067, 1.988e-5
-1.068, 2.013e-5
-1.069, 2.053e-5
-1.070, 2.063e-5
-1.071, 2.077e-5
-1.072, 2.061e-5
-1.073, 2.089e-5
-1.074, 2.141e-5
-1.075, 2.151e-5
-1.076, 2.161e-5
-1.077, 2.163e-5
-1.078, 2.190e-5
-1.079, 2.229e-5
-1.080, 2.241e-5
-1.081, 2.252e-5
-1.082, 2.277e-5
-1.083, 2.299e-5
-1.084, 2.339e-5
-1.085, 2.361e-5
-1.086, 2.374e-5
-1.087, 2.403e-5
-1.088, 2.418e-5
-1.089, 2.467e-5
-1.090, 2.502e-5
-1.091, 2.511e-5
-1.092, 2.537e-5
-1.093, 2.573e-5
-1.094, 2.617e-5
-1.095, 2.659e-5
-1.096, 2.692e-5
-1.097, 2.711e-5
-1.098, 2.757e-5
-1.099, 2.784e-5
-1.100, 2.844e-5
-1.101, 2.884e-5
-1.102, 2.913e-5
-1.103, 2.974e-5
-1.104, 3.025e-5
-1.105, 3.071e-5
-1.106, 3.128e-5
-1.107, 3.176e-5
-1.108, 3.223e-5
-1.109, 3.291e-5
-1.110, 3.346e-5
-1.111, 3.413e-5
-1.112, 3.460e-5
-1.113, 3.535e-5
-1.114, 3.632e-5
-1.115, 3.678e-5
-1.116, 3.745e-5
-1.117, 3.804e-5
-1.118, 3.890e-5
-1.119, 3.994e-5
-1.120, 4.059e-5
-1.121, 4.131e-5
-1.122, 4.217e-5
-1.123, 4.302e-5
-1.124, 4.420e-5
-1.125, 4.525e-5
-1.126, 4.590e-5
-1.127, 4.692e-5
-1.128, 4.792e-5
-1.129, 4.898e-5
-1.130, 5.018e-5
-1.131, 5.093e-5
-1.132, 5.187e-5
-1.133, 5.319e-5
-1.134, 5.426e-5
-1.135, 5.564e-5
-1.136, 5.684e-5
-1.137, 5.827e-5
-1.138, 5.941e-5
-1.139, 6.047e-5
-1.140, 6.187e-5
-1.141, 6.309e-5
-1.142, 6.430e-5
-1.143, 6.568e-5
-1.144, 6.704e-5
-1.145, 6.870e-5
-1.146, 7.006e-5
-1.147, 7.153e-5
-1.148, 7.314e-5
-1.149, 7.477e-5
-1.150, 7.643e-5
-1.151, 7.788e-5
-1.152, 7.919e-5
-1.153, 8.066e-5
-1.154, 8.263e-5
-1.155, 8.411e-5
-1.156, 8.569e-5
-1.157, 8.713e-5
-1.158, 8.920e-5
-1.159, 9.117e-5
-1.160, 9.309e-5
-1.161, 9.515e-5
-1.162, 9.671e-5
-1.163, 9.833e-5
-1.164, 1.004e-4
-1.165, 1.022e-4
-1.166, 1.038e-4
-1.167, 1.058e-4
-1.168, 1.076e-4
-1.169, 1.097e-4
-1.170, 1.116e-4
-1.171, 1.135e-4
-1.172, 1.155e-4
-1.173, 1.177e-4
-1.174, 1.199e-4
-1.175, 1.221e-4
-1.176, 1.239e-4
-1.177, 1.259e-4
-1.178, 1.278e-4
-1.179, 1.297e-4
-1.180, 1.316e-4
-1.181, 1.333e-4
-1.182, 1.350e-4
-1.183, 1.373e-4
-1.184, 1.393e-4
-1.185, 1.415e-4
-1.186, 1.435e-4
-1.187, 1.456e-4
-1.188, 1.478e-4
-1.189, 1.497e-4
-1.190, 1.515e-4
-1.191, 1.531e-4
-1.192, 1.545e-4
-1.193, 1.563e-4
-1.194, 1.580e-4
-1.195, 1.596e-4
-1.196, 1.613e-4
-1.197, 1.627e-4
-1.198, 1.643e-4
-1.199, 1.662e-4
-1.200, 1.678e-4
-1.201, 1.696e-4
-1.202, 1.713e-4
-1.203, 1.725e-4
-1.204, 1.736e-4
-1.205, 1.745e-4
-1.206, 1.757e-4
-1.207, 1.766e-4
-1.208, 1.774e-4
-1.209, 1.786e-4
-1.210, 1.798e-4
-1.211, 1.806e-4
-1.212, 1.814e-4
-1.213, 1.823e-4
-1.214, 1.830e-4
-1.215, 1.838e-4
-1.216, 1.839e-4
-1.217, 1.838e-4
-1.218, 1.840e-4
-1.219, 1.844e-4
-1.220, 1.844e-4
-1.221, 1.842e-4
-1.222, 1.841e-4
-1.223, 1.844e-4
-1.224, 1.848e-4
-1.225, 1.851e-4
-1.226, 1.844e-4
-1.227, 1.840e-4
-1.228, 1.837e-4
-1.229, 1.832e-4
-1.230, 1.823e-4
-1.231, 1.815e-4
-1.232, 1.805e-4
-1.233, 1.799e-4
-1.234, 1.795e-4
-1.235, 1.790e-4
-1.236, 1.786e-4
-1.237, 1.778e-4
-1.238, 1.768e-4
-1.239, 1.757e-4
-1.240, 1.742e-4
-1.241, 1.730e-4
-1.242, 1.720e-4
-1.243, 1.707e-4
-1.244, 1.701e-4
-1.245, 1.691e-4
-1.246, 1.680e-4
-1.247, 1.669e-4
-1.248, 1.660e-4
-1.249, 1.651e-4
-1.250, 1.637e-4
-1.251, 1.622e-4
-1.252, 1.612e-4
-1.253, 1.601e-4
-1.254, 1.590e-4
-1.255, 1.580e-4
-1.256, 1.569e-4
-1.257, 1.556e-4
-1.258, 1.553e-4
-1.259, 1.546e-4
-1.260, 1.539e-4
-1.261, 1.530e-4
-1.262, 1.521e-4
-1.263, 1.519e-4
-1.264, 1.512e-4
-1.265, 1.503e-4
-1.266, 1.492e-4
-1.267, 1.486e-4
-1.268, 1.482e-4
-1.269, 1.476e-4
-1.270, 1.471e-4
-1.271, 1.470e-4
-1.272, 1.467e-4
-1.273, 1.471e-4
-1.274, 1.472e-4
-1.275, 1.469e-4
-1.276, 1.466e-4
-1.277, 1.464e-4
-1.278, 1.464e-4
-1.279, 1.464e-4
-1.280, 1.466e-4
-1.281, 1.464e-4
-1.282, 1.473e-4
-1.283, 1.477e-4
-1.284, 1.483e-4
-1.285, 1.489e-4
-1.286, 1.491e-4
-1.287, 1.497e-4
-1.288, 1.503e-4
-1.289, 1.506e-4
-1.290, 1.518e-4
-1.291, 1.522e-4
-1.292, 1.529e-4
-1.293, 1.539e-4
-1.294, 1.548e-4
-1.295, 1.560e-4
-1.296, 1.570e-4
-1.297, 1.580e-4
-1.298, 1.595e-4
-1.299, 1.606e-4
-1.300, 1.621e-4
-1.301, 1.640e-4
-1.302, 1.654e-4
-1.303, 1.671e-4
-1.304, 1.684e-4
-1.305, 1.700e-4
-1.306, 1.717e-4
-1.307, 1.737e-4
-1.308, 1.761e-4
-1.309, 1.787e-4
-1.310, 1.807e-4
-1.311, 1.829e-4
-1.312, 1.850e-4
-1.313, 1.881e-4
-1.314, 1.904e-4
-1.315, 1.927e-4
-1.316, 1.940e-4
-1.317, 1.965e-4
-1.318, 1.995e-4
-1.319, 2.032e-4
-1.320, 2.059e-4
-1.321, 2.089e-4
-1.322, 2.121e-4
-1.323, 2.155e-4
-1.324, 2.188e-4
-1.325, 2.220e-4
-1.326, 2.251e-4
-1.327, 2.287e-4
-1.328, 2.325e-4
-1.329, 2.363e-4
-1.330, 2.396e-4
-1.331, 2.436e-4
-1.332, 2.483e-4
-1.333, 2.525e-4
-1.334, 2.564e-4
-1.335, 2.615e-4
-1.336, 2.658e-4
-1.337, 2.702e-4
-1.338, 2.752e-4
-1.339, 2.795e-4
-1.340, 2.838e-4
-1.341, 2.887e-4
-1.342, 2.928e-4
-1.343, 2.979e-4
-1.344, 3.025e-4
-1.345, 3.080e-4
-1.346, 3.133e-4
-1.347, 3.189e-4
-1.348, 3.251e-4
-1.349, 3.298e-4
-1.350, 3.348e-4
-1.351, 3.403e-4
-1.352, 3.451e-4
-1.353, 3.502e-4
-1.354, 3.561e-4
-1.355, 3.609e-4
-1.356, 3.657e-4
-1.357, 3.713e-4
-1.358, 3.769e-4
-1.359, 3.830e-4
-1.360, 3.893e-4
-1.361, 3.940e-4
-1.362, 3.996e-4
-1.363, 4.051e-4
-1.364, 4.107e-4
-1.365, 4.160e-4
-1.366, 4.213e-4
-1.367, 4.267e-4
-1.368, 4.329e-4
-1.369, 4.383e-4
-1.370, 4.442e-4
-1.371, 4.497e-4
-1.372, 4.566e-4
-1.373, 4.623e-4
-1.374, 4.682e-4
-1.375, 4.741e-4
-1.376, 4.802e-4
-1.377, 4.868e-4
-1.378, 4.934e-4
-1.379, 4.985e-4
-1.380, 5.042e-4
-1.381, 5.100e-4
-1.382, 5.174e-4
-1.383, 5.228e-4
-1.384, 5.300e-4
-1.385, 5.363e-4
-1.386, 5.433e-4
-1.387, 5.506e-4
-1.388, 5.578e-4
-1.389, 5.650e-4
-1.390, 5.713e-4
-1.391, 5.784e-4
-1.392, 5.860e-4
-1.393, 5.933e-4
-1.394, 6.001e-4
-1.395, 6.068e-4
-1.396, 6.133e-4
-1.397, 6.217e-4
-1.398, 6.289e-4
-1.399, 6.370e-4
-1.400, 6.158e-4
-1.399, 5.918e-4
-1.398, 5.741e-4
-1.397, 5.588e-4
-1.396, 5.436e-4
-1.395, 5.289e-4
-1.394, 5.158e-4
-1.393, 5.019e-4
-1.392, 4.895e-4
-1.391, 4.770e-4
-1.390, 4.648e-4
-1.389, 4.537e-4
-1.388, 4.447e-4
-1.387, 4.333e-4
-1.386, 4.227e-4
-1.385, 4.123e-4
-1.384, 4.020e-4
-1.383, 3.918e-4
-1.382, 3.827e-4
-1.381, 3.735e-4
-1.380, 3.640e-4
-1.379, 3.553e-4
-1.378, 3.475e-4
-1.377, 3.392e-4
-1.376, 3.312e-4
-1.375, 3.236e-4
-1.374, 3.154e-4
-1.373, 3.079e-4
-1.372, 3.007e-4
-1.371, 2.936e-4
-1.370, 2.862e-4
-1.369, 2.788e-4
-1.368, 2.721e-4
-1.367, 2.657e-4
-1.366, 2.593e-4
-1.365, 2.529e-4
-1.364, 2.465e-4
-1.363, 2.404e-4
-1.362, 2.350e-4
-1.361, 2.290e-4
-1.360, 2.230e-4
-1.359, 2.174e-4
-1.358, 2.116e-4
-1.357, 2.062e-4
-1.356, 2.009e-4
-1.355, 1.953e-4
-1.354, 1.903e-4
-1.353, 1.853e-4
-1.352, 1.809e-4
-1.351, 1.758e-4
-1.350, 1.709e-4
-1.349, 1.663e-4
-1.348, 1.618e-4
-1.347, 1.576e-4
-1.346, 1.534e-4
-1.345, 1.488e-4
-1.344, 1.447e-4
-1.343, 1.404e-4
-1.342, 1.364e-4
-1.341, 1.328e-4
-1.340, 1.286e-4
-1.339, 1.247e-4
-1.338, 1.213e-4
-1.337, 1.176e-4
-1.336, 1.142e-4
-1.335, 1.105e-4
-1.334, 1.069e-4
-1.333, 1.038e-4
-1.332, 1.006e-4
-1.331, 9.705e-5
-1.330, 9.355e-5
-1.329, 9.035e-5
-1.328, 8.752e-5
-1.327, 8.482e-5
-1.326, 8.176e-5
-1.325, 7.888e-5
-1.324, 7.603e-5
-1.323, 7.338e-5
-1.322, 7.051e-5
-1.321, 6.772e-5
-1.320, 6.504e-5
-1.319, 6.238e-5
-1.318, 5.975e-5
-1.317, 5.745e-5
-1.316, 5.510e-5
-1.315, 5.262e-5
-1.314, 5.036e-5
-1.313, 4.795e-5
-1.312, 4.589e-5
-1.311, 4.375e-5
-1.310, 4.135e-5
-1.309, 3.917e-5
-1.308, 3.711e-5
-1.307, 3.508e-5
-1.306, 3.313e-5
-1.305, 3.097e-5
-1.304, 2.909e-5
-1.303, 2.732e-5
-1.302, 2.537e-5
-1.301, 2.367e-5
-1.300, 2.182e-5
-1.299, 1.996e-5
-1.298, 1.851e-5
-1.297, 1.697e-5
-1.296, 1.557e-5
-1.295, 1.378e-5
-1.294, 1.186e-5
-1.293, 1.041e-5
-1.292, 9.026e-6
-1.291, 7.490e-6
-1.290, 6.000e-6
-1.289, 4.624e-6
-1.288, 3.612e-6
-1.287, 2.382e-6
-1.286, 9.351e-7
-1.285, -3.070e-7
-1.284, -1.677e-6
-1.283, -2.887e-6
-1.282, -3.932e-6
-1.281, -5.324e-6
-1.280, -6.608e-6
-1.279, -7.764e-6
-1.278, -8.914e-6
-1.277, -9.620e-6
-1.276, -1.057e-5
-1.275, -1.165e-5
-1.274, -1.256e-5
-1.273, -1.366e-5
-1.272, -1.427e-5
-1.271, -1.527e-5
-1.270, -1.655e-5
-1.269, -1.750e-5
-1.268, -1.825e-5
-1.267, -1.902e-5
-1.266, -1.987e-5
-1.265, -2.058e-5
-1.264, -2.136e-5
-1.263, -2.239e-5
-1.262, -2.339e-5
-1.261, -2.371e-5
-1.260, -2.413e-5
-1.259, -2.473e-5
-1.258, -2.509e-5
-1.257, -2.576e-5
-1.256, -2.648e-5
-1.255, -2.747e-5
-1.254, -2.822e-5
-1.253, -2.846e-5
-1.252, -2.864e-5
-1.251, -2.929e-5
-1.250, -2.976e-5
-1.249, -3.025e-5
-1.248, -3.039e-5
-1.247, -3.062e-5
-1.246, -3.143e-5
-1.245, -3.179e-5
-1.244, -3.263e-5
-1.243, -3.313e-5
-1.242, -3.328e-5
-1.241, -3.364e-5
-1.240, -3.388e-5
-1.239, -3.421e-5
-1.238, -3.448e-5
-1.237, -3.433e-5
-1.236, -3.479e-5
-1.235, -3.543e-5
-1.234, -3.576e-5
-1.233, -3.605e-5
-1.232, -3.612e-5
-1.231, -3.628e-5
-1.230, -3.688e-5
-1.229, -3.746e-5
-1.228, -3.726e-5
-1.227, -3.740e-5
-1.226, -3.748e-5
-1.225, -3.776e-5
-1.224, -3.773e-5
-1.223, -3.787e-5
-1.222, -3.785e-5
-1.221, -3.803e-5
-1.220, -3.850e-5
-1.219, -3.886e-5
-1.218, -3.878e-5
-1.217, -3.889e-5
-1.216, -3.887e-5
-1.215, -3.914e-5
-1.214, -3.941e-5
-1.213, -3.911e-5
-1.212, -3.895e-5
-1.211, -3.931e-5
-1.210, -3.932e-5
-1.209, -3.956e-5
-1.208, -3.955e-5
-1.207, -3.968e-5
-1.206, -3.975e-5
-1.205, -3.991e-5
-1.204, -4.019e-5
-1.203, -4.005e-5
-1.202, -3.976e-5
-1.201, -3.998e-5
-1.200, -3.990e-5
-1.199, -3.983e-5
-1.198, -3.979e-5
-1.197, -3.957e-5
-1.196, -3.987e-5
-1.195, -4.008e-5
-1.194, -4.003e-5
-1.193, -3.994e-5
-1.192, -3.954e-5
-1.191, -3.983e-5
-1.190, -3.995e-5
-1.189, -3.981e-5
-1.188, -3.971e-5
-1.187, -3.967e-5
-1.186, -3.950e-5
-1.185, -3.971e-5
-1.184, -3.955e-5
-1.183, -3.938e-5
-1.182, -3.937e-5
-1.181, -3.925e-5
-1.180, -3.943e-5
-1.179, -3.954e-5
-1.178, -3.946e-5
-1.177, -3.952e-5
-1.176, -3.916e-5
-1.175, -3.910e-5
-1.174, -3.929e-5
-1.173, -3.873e-5
-1.172, -3.852e-5
-1.171, -3.868e-5
-1.170, -3.859e-5
-1.169, -3.882e-5
-1.168, -3.846e-5
-1.167, -3.824e-5
-1.166, -3.819e-5
-1.165, -3.804e-5
-1.164, -3.797e-5
-1.163, -3.773e-5
-1.162, -3.737e-5
-1.161, -3.732e-5
-1.160, -3.718e-5
-1.159, -3.713e-5
-1.158, -3.693e-5
-1.157, -3.659e-5
-1.156, -3.642e-5
-1.155, -3.659e-5
-1.154, -3.635e-5
-1.153, -3.619e-5
-1.152, -3.606e-5
-1.151, -3.604e-5
-1.150, -3.615e-5
-1.149, -3.565e-5
-1.148, -3.532e-5
-1.147, -3.525e-5
-1.146, -3.484e-5
-1.145, -3.497e-5
-1.144, -3.475e-5
-1.143, -3.445e-5
-1.142, -3.434e-5
-1.141, -3.400e-5
-1.140, -3.416e-5
-1.139, -3.419e-5
-1.138, -3.352e-5
-1.137, -3.347e-5
-1.136, -3.306e-5
-1.135, -3.299e-5
-1.134, -3.274e-5
-1.133, -3.234e-5
-1.132, -3.226e-5
-1.131, -3.215e-5
-1.130, -3.200e-5
-1.129, -3.213e-5
-1.128, -3.172e-5
-1.127, -3.152e-5
-1.126, -3.133e-5
-1.125, -3.106e-5
-1.124, -3.095e-5
-1.123, -3.055e-5
-1.122, -3.028e-5
-1.121, -3.024e-5
-1.120, -3.009e-5
-1.119, -2.992e-5
-1.118, -2.970e-5
-1.117, -2.919e-5
-1.116, -2.913e-5
-1.115, -2.920e-5
-1.114, -2.899e-5
-1.113, -2.862e-5
-1.112, -2.821e-5
-1.111, -2.805e-5
-1.110, -2.803e-5
-1.109, -2.768e-5
-1.108, -2.751e-5
-1.107, -2.741e-5
-1.106, -2.725e-5
-1.105, -2.742e-5
-1.104, -2.714e-5
-1.103, -2.682e-5
-1.102, -2.677e-5
-1.101, -2.656e-5
-1.100, -2.644e-5
-1.099, -2.645e-5
-1.098, -2.611e-5
-1.097, -2.594e-5
-1.096, -2.586e-5
-1.095, -2.579e-5
-1.094, -2.591e-5
-1.093, -2.539e-5
-1.092, -2.518e-5
-1.091, -2.541e-5
-1.090, -2.537e-5
-1.089, -2.544e-5
-1.088, -2.505e-5
-1.087, -2.489e-5
-1.086, -2.490e-5
-1.085, -2.475e-5
-1.084, -2.481e-5
-1.083, -2.478e-5
-1.082, -2.448e-5
-1.081, -2.465e-5
-1.080, -2.469e-5
-1.079, -2.465e-5
-1.078, -2.457e-5
-1.077, -2.434e-5
-1.076, -2.451e-5
-1.075, -2.462e-5
-1.074, -2.443e-5
-1.073, -2.430e-5
-1.072, -2.426e-5
-1.071, -2.425e-5
-1.070, -2.445e-5
-1.069, -2.425e-5
-1.068, -2.413e-5
-1.067, -2.423e-5
-1.066, -2.418e-5
-1.065, -2.456e-5
-1.064, -2.441e-5
-1.063, -2.416e-5
-1.062, -2.437e-5
-1.061, -2.415e-5
-1.060, -2.434e-5
-1.059, -2.447e-5
-1.058, -2.431e-5
-1.057, -2.440e-5
-1.056, -2.435e-5
-1.055, -2.471e-5
-1.054, -2.485e-5
-1.053, -2.454e-5
-1.052, -2.461e-5
-1.051, -2.483e-5
-1.050, -2.503e-5
-1.049, -2.521e-5
-1.048, -2.482e-5
-1.047, -2.494e-5
-1.046, -2.520e-5
-1.045, -2.532e-5
-1.044, -2.534e-5
-1.043, -2.544e-5
-1.042, -2.535e-5
-1.041, -2.559e-5
-1.040, -2.575e-5
-1.039, -2.592e-5
-1.038, -2.599e-5
-1.037, -2.586e-5
-1.036, -2.601e-5
-1.035, -2.647e-5
-1.034, -2.647e-5
-1.033, -2.646e-5
-1.032, -2.649e-5
-1.031, -2.659e-5
-1.030, -2.694e-5
-1.029, -2.710e-5
-1.028, -2.710e-5
-1.027, -2.744e-5
-1.026, -2.731e-5
-1.025, -2.768e-5
-1.024, -2.794e-5
-1.023, -2.755e-5
-1.022, -2.790e-5
-1.021, -2.801e-5
-1.020, -2.851e-5
-1.019, -2.860e-5
-1.018, -2.851e-5
-1.017, -2.864e-5
-1.016, -2.891e-5
-1.015, -2.930e-5
-1.014, -2.963e-5
-1.013, -2.939e-5
-1.012, -2.958e-5
-1.011, -2.979e-5
-1.010, -3.011e-5
-1.009, -3.029e-5
-1.008, -3.025e-5
-1.007, -3.037e-5
-1.006, -3.065e-5
-1.005, -3.093e-5
-1.004, -3.117e-5
-1.003, -3.127e-5
-1.002, -3.120e-5
-1.001, -3.159e-5
-1.000, -8.684e-6
-1.001, 3.994e-7
-1.002, 3.305e-6
-1.003, 4.798e-6
-1.004, 6.112e-6
-1.005, 6.965e-6
-1.006, 7.905e-6
-1.007, 8.965e-6
-1.008, 9.520e-6
-1.009, 1.026e-5
-1.010, 1.054e-5
-1.011, 1.093e-5
-1.012, 1.169e-5
-1.013, 1.210e-5
-1.014, 1.239e-5
-1.015, 1.260e-5
-1.016, 1.298e-5
-1.017, 1.334e-5
-1.018, 1.375e-5
-1.019, 1.397e-5
-1.020, 1.397e-5
-1.021, 1.430e-5
-1.022, 1.477e-5
-1.023, 1.500e-5
-1.024, 1.492e-5
-1.025, 1.477e-5
-1.026, 1.511e-5
-1.027, 1.537e-5
-1.028, 1.562e-5
-1.029, 1.574e-5
-1.030, 1.570e-5
-1.031, 1.591e-5
-1.032, 1.602e-5
-1.033, 1.623e-5
-1.034, 1.630e-5
-1.035, 1.604e-5
-1.036, 1.627e-5
-1.037, 1.652e-5
-1.038, 1.655e-5
-1.039, 1.663e-5
-1.040, 1.637e-5
-1.041, 1.665e-5
-1.042, 1.702e-5
-1.043, 1.687e-5
-1.044, 1.694e-5
-1.045, 1.672e-5
-1.046, 1.682e-5
-1.047, 1.725e-5
-1.048, 1.708e-5
-1.049, 1.703e-5
-1.050, 1.706e-5
-1.051, 1.703e-5
-1.052, 1.725e-5
-1.053, 1.736e-5
-1.054, 1.722e-5
-1.055, 1.723e-5
-1.056, 1.717e-5
-1.057, 1.738e-5
-1.058, 1.744e-5
-1.059, 1.724e-5
-1.060, 1.735e-5
-1.061, 1.728e-5
-1.062, 1.740e-5
-1.063, 1.753e-5
-1.064, 1.739e-5
-1.065, 1.729e-5
-1.066, 1.741e-5
-1.067, 1.748e-5
-1.068, 1.755e-5
-1.069, 1.742e-5
-1.070, 1.733e-5
-1.071, 1.750e-5
-1.072, 1.748e-5
-1.073, 1.760e-5
-1.074, 1.752e-5
-1.075, 1.751e-5
-1.076, 1.737e-5
-1.077, 1.746e-5
-1.078, 1.756e-5
-1.079, 1.749e-5
-1.080, 1.723e-5
-1.081, 1.732e-5
-1.082, 1.762e-5
-1.083, 1.757e-5
-1.084, 1.748e-5
-1.085, 1.744e-5
-1.086, 1.724e-5
-1.087, 1.742e-5
-1.088, 1.742e-5
-1.089, 1.728e-5
-1.090, 1.733e-5
-1.091, 1.723e-5
-1.092, 1.739e-5
-1.093, 1.752e-5
-1.094, 1.732e-5
-1.095, 1.731e-5
-1.096, 1.726e-5
-1.097, 1.774e-5
-1.098, 1.767e-5
-1.099, 1.726e-5
-1.100, 1.734e-5
-1.101, 1.731e-5
-1.102, 1.744e-5
-1.103, 1.756e-5
-1.104, 1.733e-5
-1.105, 1.732e-5
-1.106, 1.740e-5
-1.107, 1.750e-5
-1.108, 1.769e-5
-1.109, 1.749e-5
-1.110, 1.743e-5
-1.111, 1.754e-5
-1.112, 1.770e-5
-1.113, 1.764e-5
-1.114, 1.739e-5
-1.115, 1.742e-5
-1.116, 1.763e-5
-1.117, 1.777e-5
-1.118, 1.773e-5
-1.119, 1.772e-5
-1.120, 1.766e-5
-1.121, 1.763e-5
-1.122, 1.798e-5
-1.123, 1.784e-5
-1.124, 1.785e-5
-1.125, 1.793e-5
-1.126, 1.791e-5
-1.127, 1.820e-5
-1.128, 1.820e-5
-1.129, 1.808e-5
-1.130, 1.823e-5
-1.131, 1.830e-5
-1.132, 1.842e-5
-1.133, 1.865e-5
-1.134, 1.847e-5
-1.135, 1.849e-5
-1.136, 1.853e-5
-1.137, 1.871e-5
-1.138, 1.896e-5
-1.139, 1.875e-5
-1.140, 1.877e-5
-1.141, 1.911e-5
-1.142, 1.914e-5
-1.143, 1.933e-5
-1.144, 1.940e-5
-1.145, 1.941e-5
-1.146, 1.956e-5
-1.147, 1.946e-5
-1.148, 1.981e-5
-1.149, 1.971e-5
-1.150, 1.974e-5
-1.151, 2.003e-5
-1.152, 2.022e-5
-1.153, 2.037e-5
-1.154, 2.045e-5
-1.155, 2.041e-5
-1.156, 2.067e-5
-1.157, 2.075e-5
-1.158, 2.083e-5
-1.159, 2.105e-5
-1.160, 2.089e-5
-1.161, 2.111e-5
-1.162, 2.153e-5
-1.163, 2.147e-5
-1.164, 2.172e-5
-1.165, 2.161e-5
-1.166, 2.180e-5
-1.167, 2.206e-5
-1.168, 2.224e-5
-1.169, 2.227e-5
-1.170, 2.244e-5
-1.171, 2.254e-5
-1.172, 2.292e-5
-1.173, 2.299e-5
-1.174, 2.299e-5
-1.175, 2.313e-5
-1.176, 2.323e-5
-1.177, 2.367e-5
-1.178, 2.378e-5
-1.179, 2.384e-5
-1.180, 2.390e-5
-1.181, 2.402e-5
-1.182, 2.446e-5
-1.183, 2.468e-5
-1.184, 2.449e-5
-1.185, 2.453e-5
-1.186, 2.503e-5
-1.187, 2.519e-5
-1.188, 2.536e-5
-1.189, 2.533e-5
-1.190, 2.546e-5
-1.191, 2.595e-5
-1.192, 2.607e-5
-1.193, 2.640e-5
-1.194, 2.650e-5
-1.195, 2.626e-5
-1.196, 2.672e-5
-1.197, 2.699e-5
-1.198, 2.712e-5
-1.199, 2.739e-5
-1.200, 2.740e-5
-1.201, 2.771e-5
-1.202, 2.820e-5
-1.203, 2.811e-5
-1.204, 2.841e-5
-1.205, 2.851e-5
-1.206, 2.878e-5
-1.207, 2.930e-5
-1.208, 2.936e-5
-1.209, 2.946e-5
-1.210, 2.982e-5
-1.211, 3.013e-5
-1.212, 3.048e-5
-1.213, 3.059e-5
-1.214, 3.071e-5
-1.215, 3.107e-5
-1.216, 3.135e-5
-1.217, 3.184e-5
-1.218, 3.219e-5
-1.219, 3.219e-5
-1.220, 3.256e-5
-1.221, 3.282e-5
-1.222, 3.324e-5
-1.223, 3.353e-5
-1.224, 3.376e-5
-1.225, 3.396e-5
-1.226, 3.440e-5
-1.227, 3.485e-5
-1.228, 3.539e-5
-1.229, 3.574e-5
-1.230, 3.593e-5
-1.231, 3.645e-5
-1.232, 3.661e-5
-1.233, 3.713e-5
-1.234, 3.737e-5
-1.235, 3.764e-5
-1.236, 3.827e-5
-1.237, 3.876e-5
-1.238, 3.913e-5
-1.239, 3.960e-5
-1.240, 3.987e-5
-1.241, 4.042e-5
-1.242, 4.117e-5
-1.243, 4.157e-5
-1.244, 4.195e-5
-1.245, 4.234e-5
-1.246, 4.284e-5
-1.247, 4.371e-5
-1.248, 4.403e-5
-1.249, 4.440e-5
-1.250, 4.509e-5
-1.251, 4.560e-5
-1.252, 4.649e-5
-1.253, 4.703e-5
-1.254, 4.763e-5
-1.255, 4.825e-5
-1.256, 4.886e-5
-1.257, 4.962e-5
-1.258, 5.037e-5
-1.259, 5.084e-5
-1.260, 5.149e-5
-1.261, 5.229e-5
-1.262, 5.318e-5
-1.263, 5.400e-5
-1.264, 5.449e-5
-1.265, 5.530e-5
-1.266, 5.619e-5
-1.267, 5.715e-5
-1.268, 5.803e-5
-1.269, 5.887e-5
-1.270, 5.962e-5
-1.271, 6.069e-5
-1.272, 6.177e-5
-1.273, 6.277e-5
-1.274, 6.364e-5
-1.275, 6.452e-5
-1.276, 6.556e-5
-1.277, 6.660e-5
-1.278, 6.769e-5
-1.279, 6.885e-5
-1.280, 6.988e-5
-1.281, 7.097e-5
-1.282, 7.245e-5
-1.283, 7.349e-5
-1.284, 7.454e-5
-1.285, 7.560e-5
-1.286, 7.678e-5
-1.287, 7.858e-5
-1.288, 7.967e-5
-1.289, 8.057e-5
-1.290, 8.208e-5
-1.291, 8.330e-5
-1.292, 8.506e-5
-1.293, 8.646e-5
-1.294, 8.763e-5
-1.295, 8.922e-5
-1.296, 9.068e-5
-1.297, 9.234e-5
-1.298, 9.385e-5
-1.299, 9.522e-5
-1.300, 9.655e-5
-1.301, 9.836e-5
-1.302, 1.002e-4
-1.303, 1.019e-4
-1.304, 1.033e-4
-1.305, 1.049e-4
-1.306, 1.069e-4
-1.307, 1.086e-4
-1.308, 1.105e-4
-1.309, 1.121e-4
-1.310, 1.139e-4
-1.311, 1.158e-4
-1.312, 1.178e-4
-1.313, 1.199e-4
-1.314, 1.218e-4
-1.315, 1.237e-4
-1.316, 1.260e-4
-1.317, 1.280e-4
-1.318, 1.301e-4
-1.319, 1.320e-4
-1.320, 1.340e-4
-1.321, 1.363e-4
-1.322, 1.389e-4
-1.323, 1.406e-4
-1.324, 1.431e-4
-1.325, 1.452e-4
-1.326, 1.478e-4
-1.327, 1.504e-4
-1.328, 1.527e-4
-1.329, 1.554e-4
-1.330, 1.578e-4
-1.331, 1.603e-4
-1.332, 1.631e-4
-1.333, 1.658e-4
-1.334, 1.680e-4
-1.335, 1.711e-4
-1.336, 1.739e-4
-1.337, 1.767e-4
-1.338, 1.798e-4
-1.339, 1.824e-4
-1.340, 1.852e-4
-1.341, 1.884e-4
-1.342, 1.915e-4
-1.343, 1.947e-4
-1.344, 1.977e-4
-1.345, 2.006e-4
-1.346, 2.041e-4
-1.347, 2.075e-4
-1.348, 2.110e-4
-1.349, 2.140e-4
-1.350, 2.175e-4
-1.351, 2.212e-4
-1.352, 2.249e-4
-1.353, 2.288e-4
-1.354, 2.326e-4
-1.355, 2.361e-4
-1.356, 2.401e-4
-1.357, 2.438e-4
-1.358, 2.475e-4
-1.359, 2.514e-4
-1.360, 2.551e-4
-1.361, 2.592e-4
-1.362, 2.631e-4
-1.363, 2.670e-4
-1.364, 2.710e-4
-1.365, 2.751e-4
-1.366, 2.798e-4
-1.367, 2.842e-4
-1.368, 2.885e-4
-1.369, 2.928e-4
-1.370, 2.970e-4
-1.371, 3.016e-4
-1.372, 3.061e-4
-1.373, 3.108e-4
-1.374, 3.156e-4
-1.375, 3.198e-4
-1.376, 3.242e-4
-1.377, 3.296e-4
-1.378, 3.348e-4
-1.379, 3.395e-4
-1.380, 3.450e-4
-1.381, 3.506e-4
-1.382, 3.561e-4
-1.383, 3.616e-4
-1.384, 3.665e-4
-1.385, 3.715e-4
-1.386, 3.776e-4
-1.387, 3.833e-4
-1.388, 3.885e-4
-1.389, 3.940e-4
-1.390, 3.997e-4
-1.391, 4.058e-4
-1.392, 4.124e-4
-1.393, 4.191e-4
-1.394, 4.255e-4
-1.395, 4.312e-4
-1.396, 4.378e-4
-1.397, 4.441e-4
-1.398, 4.506e-4
-1.399, 4.572e-4
-1.400, 4.366e-4
-1.399, 4.183e-4
-1.398, 4.055e-4
-1.397, 3.940e-4
-1.396, 3.837e-4
-1.395, 3.736e-4
-1.394, 3.643e-4
-1.393, 3.547e-4
-1.392, 3.459e-4
-1.391, 3.368e-4
-1.390, 3.286e-4
-1.389, 3.207e-4
-1.388, 3.128e-4
-1.387, 3.049e-4
-1.386, 2.976e-4
-1.385, 2.903e-4
-1.384, 2.837e-4
-1.383, 2.771e-4
-1.382, 2.703e-4
-1.381, 2.638e-4
-1.380, 2.573e-4
-1.379, 2.514e-4
-1.378, 2.461e-4
-1.377, 2.401e-4
-1.376, 2.341e-4
-1.375, 2.280e-4
-1.374, 2.226e-4
-1.373, 2.171e-4
-1.372, 2.122e-4
-1.371, 2.070e-4
-1.370, 2.020e-4
-1.369, 1.972e-4
-1.368, 1.928e-4
-1.367, 1.880e-4
-1.366, 1.831e-4
-1.365, 1.788e-4
-1.364, 1.746e-4
-1.363, 1.706e-4
-1.362, 1.662e-4
-1.361, 1.615e-4
-1.360, 1.575e-4
-1.359, 1.536e-4
-1.358, 1.497e-4
-1.357, 1.461e-4
-1.356, 1.425e-4
-1.355, 1.385e-4
-1.354, 1.353e-4
-1.353, 1.318e-4
-1.352, 1.281e-4
-1.351, 1.246e-4
-1.350, 1.212e-4
-1.349, 1.182e-4
-1.348, 1.151e-4
-1.347, 1.117e-4
-1.346, 1.086e-4
-1.345, 1.051e-4
-1.344, 1.025e-4
-1.343, 9.977e-5
-1.342, 9.671e-5
-1.341, 9.380e-5
-1.340, 9.094e-5
-1.339, 8.824e-5
-1.338, 8.593e-5
-1.337, 8.322e-5
-1.336, 8.050e-5
-1.335, 7.785e-5
-1.334, 7.526e-5
-1.333, 7.300e-5
-1.332, 7.049e-5
-1.331, 6.801e-5
-1.330, 6.594e-5
-1.329, 6.360e-5
-1.328, 6.148e-5
-1.327, 5.921e-5
-1.326, 5.705e-5
-1.325, 5.504e-5
-1.324, 5.295e-5
-1.323, 5.065e-5
-1.322, 4.864e-5
-1.321, 4.654e-5
-1.320, 4.477e-5
-1.319, 4.310e-5
-1.318, 4.113e-5
-1.317, 3.926e-5
-1.316, 3.736e-5
-1.315, 3.557e-5
-1.314, 3.402e-5
-1.313, 3.227e-5
-1.312, 3.083e-5
-1.311, 2.908e-5
-1.310, 2.731e-5
-1.309, 2.600e-5
-1.308, 2.447e-5
-1.307, 2.269e-5
-1.306, 2.115e-5
-1.305, 1.953e-5
-1.304, 1.843e-5
-1.303, 1.713e-5
-1.302, 1.552e-5
-1.301, 1.415e-5
-1.300, 1.316e-5
-1.299, 1.200e-5
-1.298, 1.084e-5
-1.297, 9.348e-6
-1.296, 8.007e-6
-1.295, 6.790e-6
-1.294, 5.572e-6
-1.293, 4.620e-6
-1.292, 3.464e-6
-1.291, 2.333e-6
-1.290, 1.290e-6
-1.289, 3.185e-7
-1.288, -5.024e-7
-1.287, -1.438e-6
-1.286, -2.645e-6
-1.285, -3.573e-6
-1.284, -4.414e-6
-1.283, -5.350e-6
-1.282, -6.128e-6
-1.281, -7.462e-6
-1.280, -8.402e-6
-1.279, -8.918e-6
-1.278, -9.852e-6
-1.277, -1.029e-5
-1.276, -1.135e-5
-1.275, -1.211e-5
-1.274, -1.248e-5
-1.273, -1.321e-5
-1.272, -1.401e-5
-1.271, -1.508e-5
-1.270, -1.581e-5
-1.269, -1.605e-5
-1.268, -1.685e-5
-1.267, -1.768e-5
-1.266, -1.820e-5
-1.265, -1.869e-5
-1.264, -1.871e-5
-1.263, -1.926e-5
-1.262, -2.003e-5
-1.261, -2.059e-5
-1.260, -2.129e-5
-1.259, -2.166e-5
-1.258, -2.190e-5
-1.257, -2.257e-5
-1.256, -2.286e-5
-1.255, -2.325e-5
-1.254, -2.371e-5
-1.253, -2.397e-5
-1.252, -2.424e-5
-1.251, -2.482e-5
-1.250, -2.512e-5
-1.249, -2.545e-5
-1.248, -2.562e-5
-1.247, -2.601e-5
-1.246, -2.668e-5
-1.245, -2.681e-5
-1.244, -2.704e-5
-1.243, -2.741e-5
-1.242, -2.762e-5
-1.241, -2.809e-5
-1.240, -2.809e-5
-1.239, -2.800e-5
-1.238, -2.827e-5
-1.237, -2.847e-5
-1.236, -2.891e-5
-1.235, -2.915e-5
-1.234, -2.913e-5
-1.233, -2.959e-5
-1.232, -2.956e-5
-1.231, -2.978e-5
-1.230, -3.002e-5
-1.229, -3.029e-5
-1.228, -2.998e-5
-1.227, -2.998e-5
-1.226, -3.025e-5
-1.225, -3.055e-5
-1.224, -3.045e-5
-1.223, -3.059e-5
-1.222, -3.070e-5
-1.221, -3.080e-5
-1.220, -3.079e-5
-1.219, -3.084e-5
-1.218, -3.084e-5
-1.217, -3.100e-5
-1.216, -3.095e-5
-1.215, -3.085e-5
-1.214, -3.081e-5
-1.213, -3.083e-5
-1.212, -3.085e-5
-1.211, -3.120e-5
-1.210, -3.115e-5
-1.209, -3.098e-5
-1.208, -3.075e-5
-1.207, -3.103e-5
-1.206, -3.131e-5
-1.205, -3.117e-5
-1.204, -3.092e-5
-1.203, -3.097e-5
-1.202, -3.085e-5
-1.201, -3.094e-5
-1.200, -3.079e-5
-1.199, -3.047e-5
-1.198, -3.059e-5
-1.197, -3.054e-5
-1.196, -3.066e-5
-1.195, -3.063e-5
-1.194, -3.043e-5
-1.193, -3.056e-5
-1.192, -3.037e-5
-1.191, -3.042e-5
-1.190, -3.027e-5
-1.189, -2.977e-5
-1.188, -2.966e-5
-1.187, -2.974e-5
-1.186, -2.967e-5
-1.185, -2.973e-5
-1.184, -2.920e-5
-1.183, -2.921e-5
-1.182, -2.949e-5
-1.181, -2.939e-5
-1.180, -2.902e-5
-1.179, -2.896e-5
-1.178, -2.877e-5
-1.177, -2.874e-5
-1.176, -2.848e-5
-1.175, -2.827e-5
-1.174, -2.812e-5
-1.173, -2.786e-5
-1.172, -2.807e-5
-1.171, -2.807e-5
-1.170, -2.776e-5
-1.169, -2.774e-5
-1.168, -2.750e-5
-1.167, -2.745e-5
-1.166, -2.753e-5
-1.165, -2.721e-5
-1.164, -2.697e-5
-1.163, -2.687e-5
-1.162, -2.679e-5
-1.161, -2.670e-5
-1.160, -2.660e-5
-1.159, -2.623e-5
-1.158, -2.621e-5
-1.157, -2.608e-5
-1.156, -2.611e-5
-1.155, -2.610e-5
-1.154, -2.572e-5
-1.153, -2.569e-5
-1.152, -2.566e-5
-1.151, -2.551e-5
-1.150, -2.547e-5
-1.149, -2.491e-5
-1.148, -2.483e-5
-1.147, -2.501e-5
-1.146, -2.481e-5
-1.145, -2.484e-5
-1.144, -2.439e-5
-1.143, -2.418e-5
-1.142, -2.442e-5
-1.141, -2.434e-5
-1.140, -2.408e-5
-1.139, -2.391e-5
-1.138, -2.379e-5
-1.137, -2.393e-5
-1.136, -2.371e-5
-1.135, -2.359e-5
-1.134, -2.341e-5
-1.133, -2.327e-5
-1.132, -2.340e-5
-1.131, -2.343e-5
-1.130, -2.325e-5
-1.129, -2.310e-5
-1.128, -2.302e-5
-1.127, -2.302e-5
-1.126, -2.310e-5
-1.125, -2.288e-5
-1.124, -2.265e-5
-1.123, -2.255e-5
-1.122, -2.258e-5
-1.121, -2.268e-5
-1.120, -2.251e-5
-1.119, -2.233e-5
-1.118, -2.237e-5
-1.117, -2.229e-5
-1.116, -2.231e-5
-1.115, -2.235e-5
-1.114, -2.213e-5
-1.113, -2.199e-5
-1.112, -2.200e-5
-1.111, -2.210e-5
-1.110, -2.221e-5
-1.109, -2.185e-5
-1.108, -2.177e-5
-1.107, -2.203e-5
-1.106, -2.195e-5
-1.105, -2.185e-5
-1.104, -2.193e-5
-1.103, -2.166e-5
-1.102, -2.197e-5
-1.101, -2.191e-5
-1.100, -2.196e-5
-1.099, -2.195e-5
-1.098, -2.182e-5
-1.097, -2.198e-5
-1.096, -2.203e-5
-1.095, -2.186e-5
-1.094, -2.191e-5
-1.093, -2.168e-5
-1.092, -2.182e-5
-1.091, -2.224e-5
-1.090, -2.212e-5
-1.089, -2.205e-5
-1.088, -2.199e-5
-1.087, -2.218e-5
-1.086, -2.244e-5
-1.085, -2.219e-5
-1.084, -2.203e-5
-1.083, -2.229e-5
-1.082, -2.224e-5
-1.081, -2.255e-5
-1.080, -2.237e-5
-1.079, -2.225e-5
-1.078, -2.259e-5
-1.077, -2.265e-5
-1.076, -2.291e-5
-1.075, -2.291e-5
-1.074, -2.274e-5
-1.073, -2.289e-5
-1.072, -2.286e-5
-1.071, -2.319e-5
-1.070, -2.322e-5
-1.069, -2.325e-5
-1.068, -2.314e-5
-1.067, -2.356e-5
-1.066, -2.358e-5
-1.065, -2.367e-5
-1.064, -2.364e-5
-1.063, -2.374e-5
-1.062, -2.409e-5
-1.061, -2.408e-5
-1.060, -2.401e-5
-1.059, -2.422e-5
-1.058, -2.426e-5
-1.057, -2.458e-5
-1.056, -2.467e-5
-1.055, -2.462e-5
-1.054, -2.489e-5
-1.053, -2.482e-5
-1.052, -2.504e-5
-1.051, -2.536e-5
-1.050, -2.539e-5
-1.049, -2.551e-5
-1.048, -2.555e-5
-1.047, -2.576e-5
-1.046, -2.619e-5
-1.045, -2.606e-5
-1.044, -2.610e-5
-1.043, -2.620e-5
-1.042, -2.660e-5
-1.041, -2.698e-5
-1.040, -2.701e-5
-1.039, -2.703e-5
-1.038, -2.733e-5
-1.037, -2.744e-5
-1.036, -2.776e-5
-1.035, -2.787e-5
-1.034, -2.783e-5
-1.033, -2.804e-5
-1.032, -2.828e-5
-1.031, -2.879e-5
-1.030, -2.889e-5
-1.029, -2.869e-5
-1.028, -2.906e-5
-1.027, -2.935e-5
-1.026, -2.959e-5
-1.025, -2.987e-5
-1.024, -2.989e-5
-1.023, -2.997e-5
-1.022, -3.054e-5
-1.021, -3.064e-5
-1.020, -3.073e-5
-1.019, -3.090e-5
-1.018, -3.105e-5
-1.017, -3.156e-5
-1.016, -3.167e-5
-1.015, -3.174e-5
-1.014, -3.193e-5
-1.013, -3.204e-5
-1.012, -3.244e-5
-1.011, -3.287e-5
-1.010, -3.291e-5
-1.009, -3.299e-5
-1.008, -3.315e-5
-1.007, -3.354e-5
-1.006, -3.389e-5
-1.005, -3.395e-5
-1.004, -3.412e-5
-1.003, -3.444e-5
-1.002, -3.457e-5
-1.001, -3.503e-5
-1.000, -1.073e-5
-1.001, -3.790e-7
-1.002, 2.545e-6
-1.003, 4.289e-6
-1.004, 5.751e-6
-1.005, 7.040e-6
-1.006, 8.237e-6
-1.007, 9.460e-6
-1.008, 1.000e-5
-1.009, 1.041e-5
-1.010, 1.116e-5
-1.011, 1.184e-5
-1.012, 1.241e-5
-1.013, 1.276e-5
-1.014, 1.316e-5
-1.015, 1.376e-5
-1.016, 1.413e-5
-1.017, 1.468e-5
-1.018, 1.481e-5
-1.019, 1.510e-5
-1.020, 1.544e-5
-1.021, 1.566e-5
-1.022, 1.591e-5
-1.023, 1.598e-5
-1.024, 1.618e-5
-1.025, 1.639e-5
-1.026, 1.694e-5
-1.027, 1.686e-5
-1.028, 1.704e-5
-1.029, 1.701e-5
-1.030, 1.724e-5
-1.031, 1.763e-5
-1.032, 1.767e-5
-1.033, 1.766e-5
-1.034, 1.741e-5
-1.035, 1.778e-5
-1.036, 1.801e-5
-1.037, 1.802e-5
-1.038, 1.801e-5
-1.039, 1.823e-5
-1.040, 1.817e-5
-1.041, 1.847e-5
-1.042, 1.863e-5
-1.043, 1.830e-5
-1.044, 1.837e-5
-1.045, 1.869e-5
-1.046, 1.871e-5
-1.047, 1.866e-5
-1.048, 1.860e-5
-1.049, 1.856e-5
-1.050, 1.883e-5
-1.051, 1.883e-5
-1.052, 1.886e-5
-1.053, 1.879e-5
-1.054, 1.859e-5
-1.055, 1.906e-5
-1.056, 1.888e-5
-1.057, 1.905e-5
-1.058, 1.898e-5
-1.059, 1.877e-5
-1.060, 1.898e-5
-1.061, 1.892e-5
-1.062, 1.885e-5
-1.063, 1.890e-5
-1.064, 1.866e-5
-1.065, 1.895e-5
-1.066, 1.914e-5
-1.067, 1.896e-5
-1.068, 1.886e-5
-1.069, 1.894e-5
-1.070, 1.918e-5
-1.071, 1.915e-5
-1.072, 1.895e-5
-1.073, 1.884e-5
-1.074, 1.871e-5
-1.075, 1.898e-5
-1.076, 1.910e-5
-1.077, 1.897e-5
-1.078, 1.881e-5
-1.079, 1.879e-5
-1.080, 1.888e-5
-1.081, 1.896e-5
-1.082, 1.896e-5
-1.083, 1.869e-5
-1.084, 1.865e-5
-1.085, 1.891e-5
-1.086, 1.872e-5
-1.087, 1.874e-5
-1.088, 1.851e-5
-1.089, 1.861e-5
-1.090, 1.887e-5
-1.091, 1.867e-5
-1.092, 1.877e-5
-1.093, 1.850e-5
-1.094, 1.841e-5
-1.095, 1.872e-5
-1.096, 1.860e-5
-1.097, 1.860e-5
-1.098, 1.843e-5
-1.099, 1.828e-5
-1.100, 1.859e-5
-1.101, 1.865e-5
-1.102, 1.850e-5
-1.103, 1.838e-5
-1.104, 1.823e-5
-1.105, 1.843e-5
-1.106, 1.854e-5
-1.107, 1.838e-5
-1.108, 1.843e-5
-1.109, 1.809e-5
-1.110, 1.833e-5
-1.111, 1.852e-5
-1.112, 1.826e-5
-1.113, 1.807e-5
-1.114, 1.815e-5
-1.115, 1.820e-5
-1.116, 1.817e-5
-1.117, 1.816e-5
-1.118, 1.804e-5
-1.119, 1.812e-5
-1.120, 1.823e-5
-1.121, 1.824e-5
-1.122, 1.812e-5
-1.123, 1.787e-5
-1.124, 1.785e-5
-1.125, 1.796e-5
-1.126, 1.797e-5
-1.127, 1.808e-5
-1.128, 1.791e-5
-1.129, 1.780e-5
-1.130, 1.814e-5
-1.131, 1.809e-5
-1.132, 1.809e-5
-1.133, 1.795e-5
-1.134, 1.780e-5
-1.135, 1.803e-5
-1.136, 1.791e-5
-1.137, 1.790e-5
-1.138, 1.788e-5
-1.139, 1.778e-5
-1.140, 1.793e-5
-1.141, 1.801e-5
-1.142, 1.796e-5
-1.143, 1.793e-5
-1.144, 1.787e-5
-1.145, 1.797e-5
-1.146, 1.817e-5
-1.147, 1.801e-5
-1.148, 1.782e-5
-1.149, 1.776e-5
-1.150, 1.786e-5
-1.151, 1.826e-5
-1.152, 1.804e-5
-1.153, 1.785e-5
-1.154, 1.802e-5
-1.155, 1.813e-5
-1.156, 1.839e-5
-1.157, 1.820e-5
-1.158, 1.799e-5
-1.159, 1.829e-5
-1.160, 1.829e-5
-1.161, 1.836e-5
-1.162, 1.840e-5
-1.163, 1.824e-5
-1.164, 1.828e-5
-1.165, 1.862e-5
-1.166, 1.861e-5
-1.167, 1.868e-5
-1.168, 1.851e-5
-1.169, 1.858e-5
-1.170, 1.899e-5
-1.171, 1.888e-5
-1.172, 1.901e-5
-1.173, 1.880e-5
-1.174, 1.890e-5
-1.175, 1.934e-5
-1.176, 1.930e-5
-1.177, 1.937e-5
-1.178, 1.934e-5
-1.179, 1.928e-5
-1.180, 1.955e-5
-1.181, 1.970e-5
-1.182, 1.968e-5
-1.183, 1.979e-5
-1.184, 1.989e-5
-1.185, 2.006e-5
-1.186, 2.022e-5
-1.187, 2.011e-5
-1.188, 2.017e-5
-1.189, 2.018e-5
-1.190, 2.045e-5
-1.191, 2.085e-5
-1.192, 2.083e-5
-1.193, 2.067e-5
-1.194, 2.092e-5
-1.195, 2.128e-5
-1.196, 2.147e-5
-1.197, 2.148e-5
-1.198, 2.134e-5
-1.199, 2.159e-5
-1.200, 2.177e-5
-1.201, 2.192e-5
-1.202, 2.222e-5
-1.203, 2.213e-5
-1.204, 2.229e-5
-1.205, 2.270e-5
-1.206, 2.276e-5
-1.207, 2.306e-5
-1.208, 2.280e-5
-1.209, 2.305e-5
-1.210, 2.362e-5
-1.211, 2.369e-5
-1.212, 2.390e-5
-1.213, 2.382e-5
-1.214, 2.404e-5
-1.215, 2.460e-5
-1.216, 2.469e-5
-1.217, 2.494e-5
-1.218, 2.508e-5
-1.219, 2.509e-5
-1.220, 2.558e-5
-1.221, 2.578e-5
-1.222, 2.612e-5
-1.223, 2.625e-5
-1.224, 2.634e-5
-1.225, 2.680e-5
-1.226, 2.720e-5
-1.227, 2.726e-5
-1.228, 2.773e-5
-1.229, 2.793e-5
-1.230, 2.822e-5
-1.231, 2.875e-5
-1.232, 2.880e-5
-1.233, 2.888e-5
-1.234, 2.939e-5
-1.235, 2.981e-5
-1.236, 3.015e-5
-1.237, 3.052e-5
-1.238, 3.071e-5
-1.239, 3.115e-5
-1.240, 3.145e-5
-1.241, 3.187e-5
-1.242, 3.230e-5
-1.243, 3.247e-5
-1.244, 3.300e-5
-1.245, 3.360e-5
-1.246, 3.393e-5
-1.247, 3.449e-5
-1.248, 3.461e-5
-1.249, 3.489e-5
-1.250, 3.582e-5
-1.251, 3.620e-5
-1.252, 3.665e-5
-1.253, 3.701e-5
-1.254, 3.755e-5
-1.255, 3.825e-5
-1.256, 3.866e-5
-1.257, 3.925e-5
-1.258, 3.965e-5
-1.259, 4.012e-5
-1.260, 4.098e-5
-1.261, 4.157e-5
-1.262, 4.209e-5
-1.263, 4.267e-5
-1.264, 4.331e-5
-1.265, 4.400e-5
-1.266, 4.472e-5
-1.267, 4.526e-5
-1.268, 4.585e-5
-1.269, 4.657e-5
-1.270, 4.732e-5
-1.271, 4.837e-5
-1.272, 4.873e-5
-1.273, 4.949e-5
-1.274, 5.040e-5
-1.275, 5.127e-5
-1.276, 5.203e-5
-1.277, 5.264e-5
-1.278, 5.352e-5
-1.279, 5.460e-5
-1.280, 5.555e-5
-1.281, 5.632e-5
-1.282, 5.722e-5
-1.283, 5.794e-5
-1.284, 5.892e-5
-1.285, 6.014e-5
-1.286, 6.109e-5
-1.287, 6.214e-5
-1.288, 6.292e-5
-1.289, 6.386e-5
-1.290, 6.521e-5
-1.291, 6.615e-5
-1.292, 6.725e-5
-1.293, 6.817e-5
-1.294, 6.933e-5
-1.295, 7.080e-5
-1.296, 7.183e-5
-1.297, 7.294e-5
-1.298, 7.422e-5
-1.299, 7.543e-5
-1.300, 7.704e-5
-1.301, 7.816e-5
-1.302, 7.916e-5
-1.303, 8.050e-5
-1.304, 8.201e-5
-1.305, 8.343e-5
-1.306, 8.483e-5
-1.307, 8.608e-5
-1.308, 8.755e-5
-1.309, 8.919e-5
-1.310, 9.074e-5
-1.311, 9.230e-5
-1.312, 9.365e-5
-1.313, 9.510e-5
-1.314, 9.679e-5
-1.315, 9.843e-5
-1.316, 1.002e-4
-1.317, 1.018e-4
-1.318, 1.034e-4
-1.319, 1.053e-4
-1.320, 1.071e-4
-1.321, 1.090e-4
-1.322, 1.109e-4
-1.323, 1.124e-4
-1.324, 1.145e-4
-1.325, 1.165e-4
-1.326, 1.184e-4
-1.327, 1.204e-4
-1.328, 1.222e-4
-1.329, 1.242e-4
-1.330, 1.264e-4
-1.331, 1.284e-4
-1.332, 1.306e-4
-1.333, 1.328e-4
-1.334, 1.352e-4
-1.335, 1.376e-4
-1.336, 1.398e-4
-1.337, 1.421e-4
-1.338, 1.444e-4
-1.339, 1.470e-4
-1.340, 1.496e-4
-1.341, 1.520e-4
-1.342, 1.543e-4
-1.343, 1.569e-4
-1.344, 1.596e-4
-1.345, 1.624e-4
-1.346, 1.654e-4
-1.347, 1.678e-4
-1.348, 1.706e-4
-1.349, 1.735e-4
-1.350, 1.765e-4
-1.351, 1.792e-4
-1.352, 1.825e-4
-1.353, 1.851e-4
-1.354, 1.881e-4
-1.355, 1.913e-4
-1.356, 1.944e-4
-1.357, 1.975e-4
-1.358, 2.009e-4
-1.359, 2.043e-4
-1.360, 2.075e-4
-1.361, 2.111e-4
-1.362, 2.143e-4
-1.363, 2.175e-4
-1.364, 2.212e-4
-1.365, 2.248e-4
-1.366, 2.283e-4
-1.367, 2.322e-4
-1.368, 2.358e-4
-1.369, 2.399e-4
-1.370, 2.439e-4
-1.371, 2.477e-4
-1.372, 2.517e-4
-1.373, 2.554e-4
-1.374, 2.596e-4
-1.375, 2.639e-4
-1.376, 2.679e-4
-1.377, 2.719e-4
-1.378, 2.760e-4
-1.379, 2.804e-4
-1.380, 2.851e-4
-1.381, 2.896e-4
-1.382, 2.943e-4
-1.383, 2.992e-4
-1.384, 3.037e-4
-1.385, 3.088e-4
-1.386, 3.150e-4
-1.387, 3.208e-4
-1.388, 3.265e-4
-1.389, 3.325e-4
-1.390, 3.390e-4
-1.391, 3.445e-4
-1.392, 3.492e-4
-1.393, 3.536e-4
-1.394, 3.591e-4
-1.395, 3.649e-4
-1.396, 3.703e-4
-1.397, 3.756e-4
-1.398, 3.807e-4
-1.399, 3.864e-4
-1.400, 3.662e-4
-1.399, 3.488e-4
-1.398, 3.367e-4
-1.397, 3.262e-4
-1.396, 3.166e-4
-1.395, 3.079e-4
-1.394, 2.992e-4
-1.393, 2.912e-4
-1.392, 2.836e-4
-1.391, 2.762e-4
-1.390, 2.691e-4
-1.389, 2.621e-4
-1.388, 2.552e-4
-1.387, 2.487e-4
-1.386, 2.426e-4
-1.385, 2.363e-4
-1.384, 2.303e-4
-1.383, 2.243e-4
-1.382, 2.186e-4
-1.381, 2.134e-4
-1.380, 2.084e-4
-1.379, 2.032e-4
-1.378, 1.982e-4
-1.377, 1.930e-4
-1.376, 1.885e-4
-1.375, 1.840e-4
-1.374, 1.791e-4
-1.373, 1.748e-4
-1.372, 1.703e-4
-1.371, 1.660e-4
-1.370, 1.622e-4
-1.369, 1.578e-4
-1.368, 1.538e-4
-1.367, 1.501e-4
-1.366, 1.463e-4
-1.365, 1.429e-4
-1.364, 1.391e-4
-1.363, 1.353e-4
-1.362, 1.321e-4
-1.361, 1.287e-4
-1.360, 1.254e-4
-1.359, 1.220e-4
-1.358, 1.184e-4
-1.357, 1.154e-4
-1.356, 1.126e-4
-1.355, 1.096e-4
-1.354, 1.066e-4
-1.353, 1.034e-4
-1.352, 1.007e-4
-1.351, 9.812e-5
-1.350, 9.515e-5
-1.349, 9.259e-5
-1.348, 8.992e-5
-1.347, 8.718e-5
-1.346, 8.479e-5
-1.345, 8.231e-5
-1.344, 7.988e-5
-1.343, 7.740e-5
-1.342, 7.495e-5
-1.341, 7.289e-5
-1.340, 7.066e-5
-1.339, 6.829e-5
-1.338, 6.604e-5
-1.337, 6.381e-5
-1.336, 6.209e-5
-1.335, 6.004e-5
-1.334, 5.781e-5
-1.333, 5.588e-5
-1.332, 5.381e-5
-1.331, 5.200e-5
-1.330, 5.035e-5
-1.329, 4.834e-5
-1.328, 4.652e-5
-1.327, 4.467e-5
-1.326, 4.300e-5
-1.325, 4.145e-5
-1.324, 3.978e-5
-1.323, 3.797e-5
-1.322, 3.636e-5
-1.321, 3.482e-5
-1.320, 3.340e-5
-1.319, 3.177e-5
-1.318, 3.013e-5
-1.317, 2.865e-5
-1.316, 2.747e-5
-1.315, 2.584e-5
-1.314, 2.448e-5
-1.313, 2.291e-5
-1.312, 2.179e-5
-1.311, 2.075e-5
-1.310, 1.937e-5
-1.309, 1.837e-5
-1.308, 1.675e-5
-1.307, 1.523e-5
-1.306, 1.434e-5
-1.305, 1.320e-5
-1.304, 1.233e-5
-1.303, 1.102e-5
-1.302, 9.769e-6
-1.301, 9.167e-6
-1.300, 8.161e-6
-1.299, 7.083e-6
-1.298, 6.012e-6
-1.297, 4.796e-6
-1.296, 4.295e-6
-1.295, 3.243e-6
-1.294, 2.345e-6
-1.293, 1.329e-6
-1.292, 3.678e-7
-1.291, -2.824e-7
-1.290, -9.759e-7
-1.289, -1.937e-6
-1.288, -2.823e-6
-1.287, -3.584e-6
-1.286, -4.109e-6
-1.285, -4.891e-6
-1.284, -5.457e-6
-1.283, -6.495e-6
-1.282, -7.206e-6
-1.281, -7.731e-6
-1.280, -8.439e-6
-1.279, -9.094e-6
-1.278, -9.950e-6
-1.277, -1.055e-5
-1.276, -1.082e-5
-1.275, -1.149e-5
-1.274, -1.184e-5
-1.273, -1.259e-5
-1.272, -1.307e-5
-1.271, -1.338e-5
-1.270, -1.402e-5
-1.269, -1.442e-5
-1.268, -1.504e-5
-1.267, -1.570e-5
-1.266, -1.589e-5
-1.265, -1.629e-5
-1.264, -1.673e-5
-1.263, -1.713e-5
-1.262, -1.777e-5
-1.261, -1.775e-5
-1.260, -1.805e-5
-1.259, -1.854e-5
-1.258, -1.891e-5
-1.257, -1.954e-5
-1.256, -1.947e-5
-1.255, -1.976e-5
-1.254, -2.034e-5
-1.253, -2.066e-5
-1.252, -2.086e-5
-1.251, -2.102e-5
-1.250, -2.109e-5
-1.249, -2.141e-5
-1.248, -2.171e-5
-1.247, -2.208e-5
-1.246, -2.223e-5
-1.245, -2.223e-5
-1.244, -2.261e-5
-1.243, -2.297e-5
-1.242, -2.323e-5
-1.241, -2.308e-5
-1.240, -2.325e-5
-1.239, -2.363e-5
-1.238, -2.414e-5
-1.237, -2.415e-5
-1.236, -2.416e-5
-1.235, -2.390e-5
-1.234, -2.406e-5
-1.233, -2.451e-5
-1.232, -2.465e-5
-1.231, -2.464e-5
-1.230, -2.483e-5
-1.229, -2.507e-5
-1.228, -2.510e-5
-1.227, -2.509e-5
-1.226, -2.477e-5
-1.225, -2.486e-5
-1.224, -2.493e-5
-1.223, -2.499e-5
-1.222, -2.525e-5
-1.221, -2.510e-5
-1.220, -2.498e-5
-1.219, -2.535e-5
-1.218, -2.524e-5
-1.217, -2.534e-5
-1.216, -2.509e-5
-1.215, -2.506e-5
-1.214, -2.518e-5
-1.213, -2.514e-5
-1.212, -2.516e-5
-1.211, -2.509e-5
-1.210, -2.494e-5
-1.209, -2.498e-5
-1.208, -2.513e-5
-1.207, -2.526e-5
-1.206, -2.513e-5
-1.205, -2.497e-5
-1.204, -2.504e-5
-1.203, -2.512e-5
-1.202, -2.507e-5
-1.201, -2.481e-5
-1.200, -2.443e-5
-1.199, -2.458e-5
-1.198, -2.486e-5
-1.197, -2.482e-5
-1.196, -2.465e-5
-1.195, -2.463e-5
-1.194, -2.446e-5
-1.193, -2.460e-5
-1.192, -2.429e-5
-1.191, -2.397e-5
-1.190, -2.408e-5
-1.189, -2.396e-5
-1.188, -2.396e-5
-1.187, -2.400e-5
-1.186, -2.374e-5
-1.185, -2.363e-5
-1.184, -2.363e-5
-1.183, -2.367e-5
-1.182, -2.376e-5
-1.181, -2.328e-5
-1.180, -2.326e-5
-1.179, -2.329e-5
-1.178, -2.347e-5
-1.177, -2.319e-5
-1.176, -2.281e-5
-1.175, -2.281e-5
-1.174, -2.286e-5
-1.173, -2.281e-5
-1.172, -2.270e-5
-1.171, -2.268e-5
-1.170, -2.255e-5
-1.169, -2.247e-5
-1.168, -2.256e-5
-1.167, -2.247e-5
-1.166, -2.237e-5
-1.165, -2.213e-5
-1.164, -2.203e-5
-1.163, -2.232e-5
-1.162, -2.205e-5
-1.161, -2.200e-5
-1.160, -2.171e-5
-1.159, -2.167e-5
-1.158, -2.204e-5
-1.157, -2.189e-5
-1.156, -2.165e-5
-1.155, -2.172e-5
-1.154, -2.147e-5
-1.153, -2.179e-5
-1.152, -2.155e-5
-1.151, -2.118e-5
-1.150, -2.130e-5
-1.149, -2.116e-5
-1.148, -2.129e-5
-1.147, -2.135e-5
-1.146, -2.104e-5
-1.145, -2.105e-5
-1.144, -2.105e-5
-1.143, -2.122e-5
-1.142, -2.129e-5
-1.141, -2.094e-5
-1.140, -2.087e-5
-1.139, -2.109e-5
-1.138, -2.099e-5
-1.137, -2.104e-5
-1.136, -2.070e-5
-1.135, -2.072e-5
-1.134, -2.086e-5
-1.133, -2.091e-5
-1.132, -2.079e-5
-1.131, -2.070e-5
-1.130, -2.061e-5
-1.129, -2.087e-5
-1.128, -2.071e-5
-1.127, -2.071e-5
-1.126, -2.067e-5
-1.125, -2.055e-5
-1.124, -2.065e-5
-1.123, -2.096e-5
-1.122, -2.069e-5
-1.121, -2.062e-5
-1.120, -2.059e-5
-1.119, -2.075e-5
-1.118, -2.090e-5
-1.117, -2.078e-5
-1.116, -2.076e-5
-1.115, -2.083e-5
-1.114, -2.084e-5
-1.113, -2.104e-5
-1.112, -2.102e-5
-1.111, -2.086e-5
-1.110, -2.095e-5
-1.109, -2.095e-5
-1.108, -2.121e-5
-1.107, -2.130e-5
-1.106, -2.101e-5
-1.105, -2.130e-5
-1.104, -2.119e-5
-1.103, -2.134e-5
-1.102, -2.160e-5
-1.101, -2.127e-5
-1.100, -2.133e-5
-1.099, -2.164e-5
-1.098, -2.166e-5
-1.097, -2.169e-5
-1.096, -2.139e-5
-1.095, -2.168e-5
-1.094, -2.197e-5
-1.093, -2.185e-5
-1.092, -2.200e-5
-1.091, -2.197e-5
-1.090, -2.201e-5
-1.089, -2.227e-5
-1.088, -2.240e-5
-1.087, -2.240e-5
-1.086, -2.244e-5
-1.085, -2.226e-5
-1.084, -2.248e-5
-1.083, -2.288e-5
-1.082, -2.286e-5
-1.081, -2.300e-5
-1.080, -2.288e-5
-1.079, -2.309e-5
-1.078, -2.338e-5
-1.077, -2.319e-5
-1.076, -2.339e-5
-1.075, -2.344e-5
-1.074, -2.349e-5
-1.073, -2.360e-5
-1.072, -2.385e-5
-1.071, -2.386e-5
-1.070, -2.386e-5
-1.069, -2.410e-5
-1.068, -2.437e-5
-1.067, -2.441e-5
-1.066, -2.437e-5
-1.065, -2.464e-5
-1.064, -2.475e-5
-1.063, -2.496e-5
-1.062, -2.506e-5
-1.061, -2.496e-5
-1.060, -2.531e-5
-1.059, -2.555e-5
-1.058, -2.575e-5
-1.057, -2.585e-5
-1.056, -2.586e-5
-1.055, -2.589e-5
-1.054, -2.625e-5
-1.053, -2.649e-5
-1.052, -2.640e-5
-1.051, -2.655e-5
-1.050, -2.665e-5
-1.049, -2.705e-5
-1.048, -2.723e-5
-1.047, -2.727e-5
-1.046, -2.740e-5
-1.045, -2.744e-5
-1.044, -2.769e-5
-1.043, -2.831e-5
-1.042, -2.806e-5
-1.041, -2.823e-5
-1.040, -2.819e-5
-1.039, -2.859e-5
-1.038, -2.909e-5
-1.037, -2.912e-5
-1.036, -2.909e-5
-1.035, -2.937e-5
-1.034, -2.953e-5
-1.033, -3.020e-5
-1.032, -3.005e-5
-1.031, -3.009e-5
-1.030, -3.042e-5
-1.029, -3.061e-5
-1.028, -3.104e-5
-1.027, -3.125e-5
-1.026, -3.126e-5
-1.025, -3.155e-5
-1.024, -3.179e-5
-1.023, -3.210e-5
-1.022, -3.222e-5
-1.021, -3.231e-5
-1.020, -3.265e-5
-1.019, -3.314e-5
-1.018, -3.333e-5
-1.017, -3.354e-5
-1.016, -3.359e-5
-1.015, -3.370e-5
-1.014, -3.414e-5
-1.013, -3.434e-5
-1.012, -3.454e-5
-1.011, -3.469e-5
-1.010, -3.469e-5
-1.009, -3.538e-5
-1.008, -3.559e-5
-1.007, -3.566e-5
-1.006, -3.592e-5
-1.005, -3.593e-5
-1.004, -3.634e-5
-1.003, -3.675e-5
-1.002, -3.670e-5
-1.001, -3.691e-5
