Potential V vs RHE, Current mA cm-2
0.013299999999999867,-0.26384365742482935
0.012299999999999978,-1.1798692240874404
0.011299999999999866,-1.7471684553333202
0.010299999999999976,-2.1828995356917518
0.009299999999999864,-2.532333226758415
0.008299999999999974,-2.794054817233447
0.007299999999999862,-3.0119203574126634
0.006299999999999972,-3.1859298472960624
0.00529999999999986,-3.361354048479327
0.0042999999999999705,-3.5353635383627267
0.0032999999999998586,-3.623075638954359
0.0022999999999999687,-3.7970851288377587
0.0012999999999998568,-3.927238568425342
0.00029999999999996696,-4.014950669016974
-0.000700000000000145,-4.102662769608606
-0.0017000000000000348,-4.1889601589003735
-0.0027000000000001467,-4.23281620919619
-0.0037000000000000366,-4.3205283097878215
-0.0047000000000001485,-4.364384360083638
-0.005700000000000038,-4.450681749375406
-0.00670000000000015,-4.494537799671222
-0.00770000000000004,-4.582249900262854
-0.008700000000000152,-4.668547289554621
-0.009700000000000042,-4.712403339850438
-0.010700000000000154,-4.800115440442069
-0.011700000000000044,-4.887827541033701
-0.012700000000000156,-4.974124930325469
-0.013700000000000045,-5.0618370309171015
-0.014700000000000157,-5.105693081212917
-0.015700000000000047,-5.191990470504685
-0.01670000000000016,-5.235846520800501
-0.01770000000000005,-5.367414671687949
-0.01870000000000016,-5.453712060979717
-0.01970000000000005,-5.5414241615713475
-0.020700000000000163,-5.585280211867165
-0.021700000000000053,-5.715433651454749
-0.022700000000000164,-5.80314575204638
-0.023700000000000054,-5.890857852638012
-0.024700000000000166,-5.977155241929781
-0.025700000000000056,-6.064867342521412
-0.026700000000000168,-6.152579443113044
-0.027700000000000058,-6.282732882700628
-0.02870000000000017,-6.37044498329226
-0.02970000000000006,-6.500598422879844
-0.03070000000000017,-6.632166573767292
-0.03170000000000006,-6.806176063650692
-0.03270000000000017,-6.93774421453814
-0.03370000000000006,-7.111753704421539
-0.034700000000000175,-7.243321855308987
-0.035700000000000065,-7.4173313451923875
-0.03670000000000018,-7.591340835075788
-0.03770000000000007,-7.722908985963235
-0.03870000000000018,-7.853062425550818
-0.03970000000000007,-7.984630576438266
-0.04070000000000018,-8.11478401602585
-0.04170000000000007,-8.202496116617484
-0.04270000000000018,-8.246352166913299
-0.04370000000000007,-8.376505606500881
-0.044700000000000184,-8.464217707092514
-0.045700000000000074,-8.508073757388331
-0.046700000000000186,-8.55051509638428
-0.047700000000000076,-8.594371146680096
-0.04870000000000019,-8.68208324727173
-0.04970000000000008,-8.725939297567548
-0.05070000000000019,-8.769795347863363
-0.05170000000000008,-8.812236686859313
-0.05270000000000019,-8.812236686859313
-0.05370000000000008,-8.85609273715513
-0.05470000000000019,-8.85609273715513
-0.05570000000000008,-8.899948787450944
-0.056700000000000195,-8.899948787450944
-0.057700000000000085,-8.943804837746763
-0.058700000000000196,-8.987660888042578
-0.059700000000000086,-8.987660888042578
-0.0607000000000002,-9.031516938338395
-0.06170000000000009,-9.073958277334345
-0.0627000000000002,-9.11781432763016
-0.06370000000000009,-9.161670377925978
-0.0647000000000002,-9.24938247851761
-0.06570000000000009,-9.24938247851761
-0.0667000000000002,-9.335679867809377
-0.0677000000000001,-9.423391968401008
-0.0687000000000002,-9.511104068992642
-0.0697000000000001,-9.55496011928846
-0.07070000000000021,-9.685113558876042
-0.0717000000000001,-9.772825659467674
-0.07270000000000021,-9.946835149351072
-0.0737000000000001,-9.99069119964689
-0.07470000000000021,-10.164700689530287
-0.0757000000000001,-10.296268840417738
-0.07670000000000021,-10.470278330301136
-0.0777000000000001,-10.601846481188586
-0.07870000000000021,-10.731999920776168
-0.0797000000000001,-10.819712021367803
-0.08070000000000022,-10.949865460955383
-0.0817000000000001,-11.081433611842833
-0.08270000000000022,-11.211587051430415
-0.08370000000000011,-11.255443101726232
-0.08470000000000022,-11.343155202317865
-0.08570000000000011,-11.42945259160963
-0.08670000000000022,-11.517164692201263
-0.08770000000000011,-11.56102074249708
-0.08870000000000022,-11.647318131788847
-0.08970000000000011,-11.691174182084664
-0.09070000000000022,-11.73503023238048
-0.09170000000000011,-11.82274233297211
-0.09270000000000023,-11.86659838326793
-0.09370000000000012,-11.909039722263879
-0.09470000000000023,-11.909039722263879
-0.09570000000000012,-11.952895772559694
-0.09670000000000023,-11.952895772559694
-0.09770000000000012,-11.952895772559694
-0.09870000000000023,-11.996751822855511
-0.09970000000000012,-12.040607873151327
-0.10070000000000023,-12.040607873151327
-0.10170000000000012,-12.040607873151327
-0.10270000000000024,-12.040607873151327
-0.10370000000000013,-12.084463923447142
-0.10470000000000024,-12.12831997374296
-0.10570000000000013,-12.12831997374296
-0.10670000000000024,-12.12831997374296
-0.10770000000000013,-12.12831997374296
-0.10870000000000024,-12.170761312738911
-0.10970000000000013,-12.170761312738911
-0.11070000000000024,-12.170761312738911
-0.11170000000000013,-12.170761312738911
-0.11270000000000002,-12.170761312738911
-0.11370000000000013,-12.170761312738911
-0.11470000000000002,-12.170761312738911
-0.11570000000000014,-12.170761312738911
-0.11670000000000003,-12.214617363034726
-0.11770000000000014,-12.214617363034726
-0.11870000000000003,-12.258473413330542
-0.11970000000000014,-12.214617363034726
-0.12070000000000003,-12.258473413330542
-0.12170000000000014,-12.258473413330542
-0.12270000000000003,-12.258473413330542
-0.12370000000000014,-12.258473413330542
-0.12470000000000003,-12.258473413330542
-0.12570000000000014,-12.258473413330542
-0.12670000000000003,-12.258473413330542
-0.12770000000000015,-12.258473413330542
-0.12870000000000004,-12.302329463626359
-0.12970000000000015,-12.258473413330542
-0.13070000000000004,-12.302329463626359
-0.13170000000000015,-12.302329463626359
-0.13270000000000004,-12.346185513922174
-0.13370000000000015,-12.346185513922174
-0.13470000000000004,-12.346185513922174
-0.13570000000000015,-12.346185513922174
-0.13670000000000004,-12.346185513922174
-0.13770000000000016,-12.346185513922174
-0.13870000000000005,-12.346185513922174
-0.13970000000000016,-12.346185513922174
-0.14070000000000005,-12.346185513922174
-0.14170000000000016,-12.390041564217992
-0.14270000000000005,-12.390041564217992
-0.14370000000000016,-12.390041564217992
-0.14470000000000005,-12.390041564217992
-0.14570000000000016,-12.476338953509758
-0.14670000000000005,-12.476338953509758
-0.14770000000000016,-12.432482903213943
-0.14870000000000005,-12.476338953509758
-0.14970000000000017,-12.476338953509758
-0.15070000000000006,-12.476338953509758
-0.15170000000000017,-12.476338953509758
-0.15270000000000006,-12.476338953509758
-0.15370000000000017,-12.476338953509758
-0.15470000000000006,-12.520195003805576
-0.15570000000000017,-12.56405105410139
-0.15670000000000006,-12.607907104397206
-0.15770000000000017,-12.607907104397206
-0.15870000000000006,-12.607907104397206
-0.15970000000000018,-12.607907104397206
-0.16070000000000007,-12.651763154693022
-0.16170000000000018,-12.651763154693022
-0.16270000000000007,-12.651763154693022
-0.16370000000000018,-12.651763154693022
-0.16470000000000007,-12.694204493688973
-0.16570000000000018,-12.73806054398479
-0.16670000000000007,-12.73806054398479
-0.16770000000000018,-12.73806054398479
-0.16870000000000007,-12.781916594280606
-0.16970000000000018,-12.781916594280606
-0.17070000000000007,-12.781916594280606
-0.17170000000000019,-12.781916594280606
-0.17270000000000008,-12.825772644576423
-0.1737000000000002,-12.869628694872238
-0.17470000000000008,-12.913484745168056
-0.1757000000000002,-12.869628694872238
-0.17670000000000008,-12.913484745168056
-0.1777000000000002,-12.913484745168056
-0.17870000000000008,-12.913484745168056
-0.1797000000000002,-12.955926084164007
-0.18070000000000008,-12.955926084164007
-0.1817000000000002,-12.99978213445982
-0.18270000000000008,-13.043638184755638
-0.1837000000000002,-13.043638184755638
-0.1847000000000001,-13.087494235051453
-0.1857000000000002,-13.087494235051453
-0.1867000000000001,-13.13135028534727
-0.1877000000000002,-13.175206335643086
-0.1887000000000001,-13.175206335643086
-0.1897000000000002,-13.175206335643086
-0.1907000000000001,-13.217647674639037
-0.1917000000000001,-13.217647674639037
-0.19269999999999998,-13.261503724934855
-0.1937000000000001,-13.261503724934855
-0.19469999999999998,-13.30535977523067
-0.1957000000000001,-13.349215825526485
-0.19669999999999999,-13.3930718758223
-0.1977000000000001,-13.436927926118118
-0.1987,-13.436927926118118
-0.1997000000000001,-13.47936926511407
-0.2007,-13.523225315409885
-0.2017000000000001,-13.567081365705702
-0.2027,-13.567081365705702
-0.2037000000000001,-13.610937416001518
-0.2047,-13.610937416001518
-0.2057000000000001,-13.654793466297335
-0.2067,-13.698649516593148
-0.2077000000000001,-13.698649516593148
-0.2087,-13.784946905884919
-0.2097000000000001,-13.828802956180734
-0.2107,-13.872659006476551
-0.2117000000000001,-13.916515056772363
-0.2127,-13.916515056772363
-0.2137000000000001,-14.002812446064135
-0.2147,-14.046668496359947
-0.2157000000000001,-14.13438059695158
-0.2167,-14.13438059695158
-0.21770000000000012,-14.13438059695158
-0.2187,-14.175407224647667
-0.21970000000000012,-14.217848563643619
-0.2207,-14.26028990263957
-0.22170000000000012,-14.30273124163552
-0.2227,-14.345172580631472
-0.22370000000000012,-14.401761032626075
-0.2247,-14.486643710617974
-0.22570000000000012,-14.529085049613924
-0.2267,-14.57152638860988
-0.22770000000000012,-14.61396772760583
-0.22870000000000001,-14.65640906660178
-0.22970000000000013,-14.69885040559773
-0.23070000000000002,-14.741291744593681
-0.23170000000000013,-14.783733083589633
-0.23270000000000002,-14.826174422585586
-0.23370000000000013,-14.925204213576137
-0.23470000000000002,-14.967645552572087
-0.23570000000000013,-15.01008689156804
-0.23670000000000002,-15.094969569559943
-0.2376999999999999,-15.179852247551842
-0.23870000000000002,-15.264734925543747
-0.2396999999999999,-15.307176264539699
-0.24070000000000003,-15.349617603535648
-0.24169999999999991,-15.448647394526201
-0.24270000000000003,-15.533530072518102
-0.24369999999999992,-15.575971411514052
-0.24470000000000003,-15.618412750510005
-0.24569999999999992,-15.70329542850191
-0.24670000000000003,-15.78817810649381
-0.24769999999999992,-15.830619445489761
-0.24870000000000003,-15.972090575476265
-0.24969999999999992,-16.014531914472215
-0.25070000000000003,-16.099414592464115
-0.2516999999999999,-16.184297270456018
-0.25270000000000004,-16.269179948447924
-0.2536999999999999,-16.354062626439823
-0.25470000000000004,-16.396503965435777
-0.2556999999999999,-16.53797509542228
-0.25670000000000004,-16.622857773414182
-0.25769999999999993,-16.665299112410132
-0.25870000000000004,-16.750181790402035
-0.25969999999999993,-16.877505807389888
-0.26070000000000004,-16.962388485381787
-0.26169999999999993,-17.061418276372343
-0.26270000000000004,-17.146300954364243
-0.26369999999999993,-17.2736249713521
-0.26470000000000005,-17.316066310348052
-0.26569999999999994,-17.4433903273359
-0.26670000000000005,-17.584861457322408
-0.26769999999999994,-17.71218547431026
-0.26870000000000005,-17.797068152302163
-0.26969999999999994,-17.881950830294063
-0.27070000000000005,-18.06586329927652
-0.27169999999999994,-18.15074597726842
-0.27270000000000005,-18.19318731626437
-0.27369999999999994,-18.362952672248177
-0.27470000000000006,-18.49027668923603
-0.27569999999999995,-18.631747819222536
-0.27670000000000006,-18.716630497214435
-0.27769999999999995,-18.88639585319824
-0.27870000000000006,-18.97127853119014
-0.27969999999999995,-19.155191000172596
-0.28070000000000006,-19.28251501716045
-0.28169999999999995,-19.409839034148305
-0.28270000000000006,-19.537163051136158
-0.28369999999999995,-19.721075520118614
-0.28470000000000006,-19.805958198110513
-0.28569999999999995,-19.93328221509837
-0.28670000000000007,-20.10304757108217
-0.28769999999999996,-20.286960040064624
-0.28870000000000007,-20.414284057052477
-0.28969999999999996,-20.584049413036283
-0.29070000000000007,-20.72552054302279
-0.29169999999999996,-20.89528589900659
-0.29270000000000007,-21.107492593986347
-0.29369999999999996,-21.291405062968803
-0.2947000000000001,-21.418729079956652
-0.29569999999999996,-21.58849443594046
-0.2967000000000001,-21.729965565926964
-0.29769999999999996,-21.899730921910766
-0.2987000000000001,-22.111937616890522
-0.29969999999999997,-22.253408746877028
-0.3007000000000001,-22.46561544185678
-0.30169999999999997,-22.67782213683654
-0.3027000000000001,-22.861734605818995
-0.30369999999999997,-23.073941300798747
-0.3047000000000001,-23.24370665678255
-0.30569999999999997,-23.47006046476096
-0.3067000000000001,-23.682267159740714
-0.3077,-23.86617962872317
-0.3087000000000001,-24.035944984706973
-0.3097,-24.24815167968673
-0.3107000000000001,-24.474505487665134
-0.3117,-24.729153521640843
-0.3127000000000001,-24.95550732961925
-0.3137,-25.12527268560305
-0.3147000000000001,-25.39406783257741
-0.3157,-25.563833188561212
-0.3167000000000001,-25.86092256153287
-0.3177,-26.087276369511276
-0.3187000000000001,-26.34192440348698
-0.3197,-26.568278211465387
-0.3207000000000001,-26.822926245441096
-0.3217,-27.091721392415455
-0.3227000000000001,-27.303928087395207
-0.3237,-27.572723234369565
-0.3247000000000001,-27.78492992934932
-0.3257,-28.09616641531963
-0.3267000000000001,-28.350814449295335
-0.3277,-28.619609596269694
-0.3287000000000001,-28.8742576302454
-0.3297,-29.18549411621571
-0.3307000000000001,-29.482583489187363
-0.3317,-29.751378636161718
-0.3327000000000001,-30.00602667013743
-0.3337,-30.359704495103685
-0.3347000000000001,-30.614352529079397
-0.3357,-30.88314767605375
-0.3367000000000001,-31.19438416202406
-0.3377,-31.49147353499572
-0.3387000000000001,-31.802710020966025
-0.3397,-32.14224073293363
-0.3407000000000001,-32.41103587990799
-0.3417,-32.70812525287965
-0.3427000000000001,-33.06180307784591
-0.3437,-33.41548090281216
-0.3447000000000001,-33.755011614779775
-0.3457,-34.06624810075008
-0.3467000000000001,-34.41992592571634
-0.3477,-34.75945663768395
-0.3487000000000001,-35.11313446265021
-0.3497,-35.46681228761647
-0.3507000000000001,-35.806342999584075
-0.3517,-36.16002082455034
-0.3527000000000001,-36.5136986495166
-0.3537,-36.8532293614842
-0.3547000000000001,-37.206907186450465
-0.3557,-37.60302635041268
-0.35670000000000013,-37.99914551437489
-0.3577,-38.42355890433439
-0.35870000000000013,-38.777236729300654
-0.3597,-39.130914554266916
-0.36070000000000013,-39.56947505722508
-0.3617,-39.95144710818864
-0.3626999999999999,-40.34756627215084
-0.3637,-40.743685436113054
-0.3646999999999999,-41.139804600075266
-0.3657,-41.56421799003478
-0.3666999999999999,-41.96033715399699
-0.3677,-42.39889765695515
-0.3686999999999999,-42.79501682091736
-0.36970000000000003,-43.27601866287147
-0.3706999999999999,-43.70043205283099
-0.37170000000000003,-44.138992555789144
-0.3726999999999999,-44.577553058747306
-0.37370000000000003,-45.01611356170547
-0.3746999999999999,-45.497115403659585
-0.37570000000000003,-45.93567590661774
-0.3766999999999999,-46.41667774857186
-0.37770000000000004,-46.84109113853137
-0.3786999999999999,-47.27965164148953
-0.37970000000000004,-47.71821214444768
-0.3806999999999999,-48.1992139864018
-0.38170000000000004,-48.68021582835591
-0.38269999999999993,-49.16121767031002
-0.38370000000000004,-49.642219512264134
-0.38469999999999993,-50.1656626932142
-0.38570000000000004,-50.68910587416426
-0.38669999999999993,-50.12322135421825
-0.38570000000000004,-47.84553616143554
-0.38469999999999993,-45.85079322862584
-0.38370000000000004,-44.054109877797245
-0.38269999999999993,-42.483780334947056
-0.38170000000000004,-41.04077480908471
-0.3806999999999999,-39.696799074212926
-0.37970000000000004,-38.522588695324956
-0.3786999999999999,-37.41911388143023
-0.37770000000000004,-36.329786180534136
-0.3766999999999999,-35.38192960962457
-0.37570000000000003,-34.50480860370825
-0.3746999999999999,-33.627687597791926
-0.37370000000000003,-32.807155043870196
-0.3726999999999999,-31.972475376949827
-0.37170000000000003,-31.23682550102001
-0.3706999999999999,-30.487028512091538
-0.36970000000000003,-29.751378636161718
-0.3686999999999999,-29.058170099227848
-0.3677,-28.350814449295335
-0.3666999999999999,-27.700047251357418
-0.3657,-27.134162731411404
-0.3646999999999999,-26.483395533473487
-0.3637,-25.86092256153287
-0.3626999999999999,-25.252596702590903
-0.3617,-24.686712182644893
-0.36070000000000013,-24.120827662698876
-0.3597,-23.55494314275286
-0.35870000000000013,-22.989058622806844
-0.3577,-22.42317410286083
-0.35670000000000013,-21.899730921910766
-0.3557,-21.376287740960702
-0.3547000000000001,-20.810403221014692
-0.3537,-20.329401379060574
-0.3527000000000001,-19.805958198110513
-0.3517,-19.367397695152352
-0.3507000000000001,-18.843954514202288
-0.3497,-18.362952672248177
-0.3487000000000001,-17.881950830294063
-0.3477,-17.4433903273359
-0.3467000000000001,-17.018976937376394
-0.3457,-16.53797509542228
-0.3447000000000001,-16.056973253468165
-0.3437,-15.575971411514052
-0.3427000000000001,-15.179852247551842
-0.3417,-14.741291744593681
-0.3407000000000001,-14.30273124163552
-0.3397,-13.872659006476551
-0.3387000000000001,-13.47936926511407
-0.3377,-13.087494235051453
-0.3367000000000001,-12.694204493688973
-0.3357,-12.258473413330542
-0.3347000000000001,-11.909039722263879
-0.3337,-11.517164692201263
-0.3327000000000001,-11.123874950838783
-0.3317,-10.731999920776168
-0.3307000000000001,-10.382566229709504
-0.3297,-9.99069119964689
-0.3287000000000001,-9.641257508580225
-0.3277,-9.293238528813426
-0.3267000000000001,-8.899948787450944
-0.3257,-8.594371146680096
-0.3247000000000001,-8.246352166913299
-0.3237,-7.940774526142452
-0.3227000000000001,-7.591340835075788
-0.3217,-7.243321855308987
-0.3207000000000001,-6.981600264833956
-0.3197,-6.6760226240631075
-0.3187000000000001,-6.326588932996443
-0.3177,-6.021011292225596
-0.3167000000000001,-5.715433651454749
-0.3157,-5.453712060979717
-0.3147000000000001,-5.191990470504685
-0.3137,-4.887827541033701
-0.3127000000000001,-4.582249900262854
-0.3117,-4.364384360083638
-0.3107000000000001,-4.102662769608606
-0.3097,-3.884797229429391
-0.3087000000000001,-3.623075638954359
-0.3077,-3.361354048479327
-0.3067000000000001,-3.1859298472960624
-0.30569999999999997,-2.924208256821031
-0.3047000000000001,-2.706342716641815
-0.30369999999999997,-2.4884771764625997
-0.3027000000000001,-2.2706116362833835
-0.30169999999999997,-2.095187435100119
-0.3007000000000001,-1.8773218949209036
-0.29969999999999997,-1.7033124050375041
-0.2987000000000001,-1.4854468648582886
-0.29769999999999996,-1.3107300193249565
-0.2967000000000001,-1.1798692240874404
-0.29569999999999996,-1.0490084288499246
-0.2947000000000001,-0.8308599464107361
-0.29369999999999996,-0.7001406223032067
-0.29270000000000007,-0.5692798270656908
-0.29169999999999996,-0.3947044526623452
-0.29070000000000007,-0.26384365742482935
-0.28969999999999996,-0.08943804837746762
-0.28870000000000007,0.04140859974704963
-0.28769999999999996,0.17231183632356148
-0.28670000000000007,0.3467457395969205
-0.28569999999999995,0.43403342679859325
-0.28470000000000006,0.5211796428702795
-0.28369999999999995,0.6520404381077953
-0.28270000000000006,0.7393281253094681
-0.28169999999999995,0.870188920546984
-0.28070000000000006,0.9573351366186703
-0.27969999999999995,1.0881959318561862
-0.27870000000000006,1.219056727093702
-0.27769999999999995,1.3063444142953748
-0.27670000000000006,1.3934906303670611
-0.27569999999999995,1.5250587812545096
-0.27470000000000006,1.5675001202504606
-0.27369999999999994,1.6990682711379093
-0.27270000000000005,1.7867803717295414
-0.27169999999999994,1.8730777610213083
-0.27070000000000005,1.9607898616129409
-0.26969999999999994,2.048501962204573
-0.26870000000000005,2.1347993514963406
