June 26, 2026   16:53:03
Cyclic Voltammetry
File: c:/users/guazh/data/20260623_doe_duplica2/2026-06-24-exp16\exp16-2026-06-26t16_31_58-arkoh\exp16_cv_sr_700mvs_efin_-1900mv.bin
Data Source:  Experiment
Instrument Model:  CHI760E
Header: CV ran at 700 mVs
Note: 

Init E (V) = -1
High E (V) = -1
Low E (V) = -1.9
Final E (V) = -1
Init P/N = N
Scan Rate (V/s) = 0.7
Segment = 3
Sample Interval (V) = 0.001
Quiet Time (sec) = 2
Sensitivity (A/V) = 0.01
Comp R (ohm) = 1.7

Results:

Channel 1:
Segment 1:

Segment 2:

Segment 3:

Potential/V, Current/A

-1.000, 1.559e-7
-1.001, 1.559e-7
-1.002, 1.559e-7
-1.003, 1.559e-7
-1.004, 1.559e-7
-1.005, 1.559e-7
-1.006, 1.559e-7
-1.007, 1.559e-7
-1.008, 1.559e-7
-1.009, 1.559e-7
-1.010, 3.239e-6
-1.011, 1.559e-7
-1.012, 1.559e-7
-1.013, 1.559e-7
-1.014, 3.239e-6
-1.015, 3.239e-6
-1.016, 1.559e-7
-1.017, 3.239e-6
-1.018, 1.559e-7
-1.019, 1.559e-7
-1.020, 3.239e-6
-1.021, 3.239e-6
-1.022, 3.239e-6
-1.023, 3.239e-6
-1.024, 3.239e-6
-1.025, 3.239e-6
-1.026, 3.239e-6
-1.027, 1.559e-7
-1.028, 3.239e-6
-1.029, 3.239e-6
-1.030, 3.239e-6
-1.031, 3.239e-6
-1.032, 3.239e-6
-1.033, 3.239e-6
-1.034, 3.239e-6
-1.035, 3.239e-6
-1.036, 3.239e-6
-1.037, 3.239e-6
-1.038, 3.239e-6
-1.039, 3.239e-6
-1.040, 3.239e-6
-1.041, 3.239e-6
-1.042, 3.239e-6
-1.043, 3.239e-6
-1.044, 3.239e-6
-1.045, 3.239e-6
-1.046, 3.239e-6
-1.047, 3.239e-6
-1.048, 3.239e-6
-1.049, 3.239e-6
-1.050, 3.239e-6
-1.051, 3.239e-6
-1.052, 3.239e-6
-1.053, 3.239e-6
-1.054, 3.239e-6
-1.055, 3.239e-6
-1.056, 3.239e-6
-1.057, 3.239e-6
-1.058, 3.239e-6
-1.059, 3.239e-6
-1.060, 3.239e-6
-1.061, 3.239e-6
-1.062, 3.239e-6
-1.063, 3.239e-6
-1.064, 6.322e-6
-1.065, 3.239e-6
-1.066, 3.239e-6
-1.067, 3.239e-6
-1.068, 3.239e-6
-1.069, 3.239e-6
-1.070, 3.239e-6
-1.071, 3.239e-6
-1.072, 3.239e-6
-1.073, 3.239e-6
-1.074, 3.239e-6
-1.075, 6.322e-6
-1.076, 3.239e-6
-1.077, 6.322e-6
-1.078, 3.239e-6
-1.079, 3.239e-6
-1.080, 3.239e-6
-1.081, 6.322e-6
-1.082, 6.322e-6
-1.083, 6.322e-6
-1.084, 6.322e-6
-1.085, 3.239e-6
-1.086, 6.322e-6
-1.087, 3.239e-6
-1.088, 3.239e-6
-1.089, 6.322e-6
-1.090, 3.239e-6
-1.091, 3.239e-6
-1.092, 6.322e-6
-1.093, 6.322e-6
-1.094, 3.239e-6
-1.095, 6.322e-6
-1.096, 3.239e-6
-1.097, 3.239e-6
-1.098, 6.322e-6
-1.099, 6.322e-6
-1.100, 3.239e-6
-1.101, 6.322e-6
-1.102, 6.322e-6
-1.103, 3.239e-6
-1.104, 6.322e-6
-1.105, 3.239e-6
-1.106, 6.322e-6
-1.107, 6.322e-6
-1.108, 6.322e-6
-1.109, 6.322e-6
-1.110, 3.239e-6
-1.111, 6.322e-6
-1.112, 6.322e-6
-1.113, 6.322e-6
-1.114, 6.322e-6
-1.115, 6.322e-6
-1.116, 6.322e-6
-1.117, 6.322e-6
-1.118, 6.322e-6
-1.119, 6.322e-6
-1.120, 6.322e-6
-1.121, 6.322e-6
-1.122, 6.322e-6
-1.123, 6.322e-6
-1.124, 6.322e-6
-1.125, 6.322e-6
-1.126, 6.322e-6
-1.127, 6.322e-6
-1.128, 6.322e-6
-1.129, 6.322e-6
-1.130, 6.322e-6
-1.131, 6.322e-6
-1.132, 6.322e-6
-1.133, 6.322e-6
-1.134, 6.322e-6
-1.135, 6.322e-6
-1.136, 6.322e-6
-1.137, 6.322e-6
-1.138, 6.322e-6
-1.139, 6.322e-6
-1.140, 6.322e-6
-1.141, 6.322e-6
-1.142, 6.322e-6
-1.143, 6.322e-6
-1.144, 6.322e-6
-1.145, 6.322e-6
-1.146, 6.322e-6
-1.147, 6.322e-6
-1.148, 6.322e-6
-1.149, 6.322e-6
-1.150, 6.322e-6
-1.151, 6.322e-6
-1.152, 6.322e-6
-1.153, 6.322e-6
-1.154, 9.405e-6
-1.155, 6.322e-6
-1.156, 6.322e-6
-1.157, 6.322e-6
-1.158, 6.322e-6
-1.159, 6.322e-6
-1.160, 6.322e-6
-1.161, 6.322e-6
-1.162, 6.322e-6
-1.163, 6.322e-6
-1.164, 6.322e-6
-1.165, 6.322e-6
-1.166, 6.322e-6
-1.167, 9.405e-6
-1.168, 6.322e-6
-1.169, 9.405e-6
-1.170, 9.405e-6
-1.171, 6.322e-6
-1.172, 9.405e-6
-1.173, 6.322e-6
-1.174, 9.405e-6
-1.175, 6.322e-6
-1.176, 9.405e-6
-1.177, 6.322e-6
-1.178, 6.322e-6
-1.179, 6.322e-6
-1.180, 6.322e-6
-1.181, 9.405e-6
-1.182, 6.322e-6
-1.183, 9.405e-6
-1.184, 6.322e-6
-1.185, 9.405e-6
-1.186, 6.322e-6
-1.187, 9.405e-6
-1.188, 9.405e-6
-1.189, 6.322e-6
-1.190, 9.405e-6
-1.191, 9.405e-6
-1.192, 9.405e-6
-1.193, 6.322e-6
-1.194, 9.405e-6
-1.195, 9.405e-6
-1.196, 9.405e-6
-1.197, 9.405e-6
-1.198, 9.405e-6
-1.199, 9.405e-6
-1.200, 9.405e-6
-1.201, 9.405e-6
-1.202, 6.322e-6
-1.203, 9.405e-6
-1.204, 9.405e-6
-1.205, 9.405e-6
-1.206, 9.405e-6
-1.207, 9.405e-6
-1.208, 9.405e-6
-1.209, 9.405e-6
-1.210, 9.405e-6
-1.211, 6.322e-6
-1.212, 9.405e-6
-1.213, 9.405e-6
-1.214, 9.405e-6
-1.215, 9.405e-6
-1.216, 9.405e-6
-1.217, 9.405e-6
-1.218, 9.405e-6
-1.219, 9.405e-6
-1.220, 9.405e-6
-1.221, 9.405e-6
-1.222, 9.405e-6
-1.223, 9.405e-6
-1.224, 9.405e-6
-1.225, 9.405e-6
-1.226, 9.405e-6
-1.227, 9.405e-6
-1.228, 9.405e-6
-1.229, 9.405e-6
-1.230, 9.405e-6
-1.231, 9.405e-6
-1.232, 9.405e-6
-1.233, 9.405e-6
-1.234, 9.405e-6
-1.235, 9.405e-6
-1.236, 9.405e-6
-1.237, 9.405e-6
-1.238, 9.405e-6
-1.239, 9.405e-6
-1.240, 9.405e-6
-1.241, 9.405e-6
-1.242, 9.405e-6
-1.243, 9.405e-6
-1.244, 9.405e-6
-1.245, 9.405e-6
-1.246, 9.405e-6
-1.247, 9.405e-6
-1.248, 9.405e-6
-1.249, 9.405e-6
-1.250, 1.249e-5
-1.251, 9.405e-6
-1.252, 9.405e-6
-1.253, 9.405e-6
-1.254, 9.405e-6
-1.255, 9.405e-6
-1.256, 9.405e-6
-1.257, 9.405e-6
-1.258, 9.405e-6
-1.259, 9.405e-6
-1.260, 9.405e-6
-1.261, 9.405e-6
-1.262, 9.405e-6
-1.263, 9.405e-6
-1.264, 9.405e-6
-1.265, 9.405e-6
-1.266, 9.405e-6
-1.267, 1.249e-5
-1.268, 1.249e-5
-1.269, 9.405e-6
-1.270, 9.405e-6
-1.271, 1.249e-5
-1.272, 9.405e-6
-1.273, 1.249e-5
-1.274, 9.405e-6
-1.275, 1.249e-5
-1.276, 9.405e-6
-1.277, 9.405e-6
-1.278, 9.405e-6
-1.279, 1.249e-5
-1.280, 1.249e-5
-1.281, 9.405e-6
-1.282, 1.249e-5
-1.283, 9.405e-6
-1.284, 1.249e-5
-1.285, 1.249e-5
-1.286, 1.249e-5
-1.287, 1.249e-5
-1.288, 1.249e-5
-1.289, 1.249e-5
-1.290, 1.249e-5
-1.291, 1.249e-5
-1.292, 9.405e-6
-1.293, 1.249e-5
-1.294, 1.249e-5
-1.295, 1.249e-5
-1.296, 1.249e-5
-1.297, 1.249e-5
-1.298, 1.249e-5
-1.299, 9.405e-6
-1.300, 1.249e-5
-1.301, 1.249e-5
-1.302, 1.249e-5
-1.303, 1.249e-5
-1.304, 1.249e-5
-1.305, 1.249e-5
-1.306, 1.249e-5
-1.307, 1.249e-5
-1.308, 1.249e-5
-1.309, 1.249e-5
-1.310, 1.249e-5
-1.311, 1.249e-5
-1.312, 1.249e-5
-1.313, 1.249e-5
-1.314, 1.249e-5
-1.315, 1.249e-5
-1.316, 1.249e-5
-1.317, 1.249e-5
-1.318, 1.249e-5
-1.319, 1.249e-5
-1.320, 1.249e-5
-1.321, 1.249e-5
-1.322, 1.249e-5
-1.323, 1.249e-5
-1.324, 1.249e-5
-1.325, 1.249e-5
-1.326, 1.249e-5
-1.327, 1.249e-5
-1.328, 1.249e-5
-1.329, 1.249e-5
-1.330, 1.249e-5
-1.331, 1.249e-5
-1.332, 1.249e-5
-1.333, 1.249e-5
-1.334, 1.249e-5
-1.335, 1.249e-5
-1.336, 1.249e-5
-1.337, 1.249e-5
-1.338, 1.557e-5
-1.339, 1.249e-5
-1.340, 1.557e-5
-1.341, 1.249e-5
-1.342, 1.249e-5
-1.343, 1.249e-5
-1.344, 1.249e-5
-1.345, 1.557e-5
-1.346, 1.249e-5
-1.347, 1.557e-5
-1.348, 1.249e-5
-1.349, 1.557e-5
-1.350, 1.557e-5
-1.351, 1.249e-5
-1.352, 1.249e-5
-1.353, 1.557e-5
-1.354, 1.249e-5
-1.355, 1.557e-5
-1.356, 1.557e-5
-1.357, 1.249e-5
-1.358, 1.249e-5
-1.359, 1.557e-5
-1.360, 1.249e-5
-1.361, 1.557e-5
-1.362, 1.557e-5
-1.363, 1.557e-5
-1.364, 1.249e-5
-1.365, 1.557e-5
-1.366, 1.249e-5
-1.367, 1.557e-5
-1.368, 1.557e-5
-1.369, 1.557e-5
-1.370, 1.557e-5
-1.371, 1.557e-5
-1.372, 1.557e-5
-1.373, 1.557e-5
-1.374, 1.557e-5
-1.375, 1.557e-5
-1.376, 1.557e-5
-1.377, 1.557e-5
-1.378, 1.557e-5
-1.379, 1.557e-5
-1.380, 1.557e-5
-1.381, 1.557e-5
-1.382, 1.557e-5
-1.383, 1.557e-5
-1.384, 1.557e-5
-1.385, 1.557e-5
-1.386, 1.557e-5
-1.387, 1.557e-5
-1.388, 1.557e-5
-1.389, 1.557e-5
-1.390, 1.557e-5
-1.391, 1.557e-5
-1.392, 1.557e-5
-1.393, 1.557e-5
-1.394, 1.557e-5
-1.395, 1.557e-5
-1.396, 1.557e-5
-1.397, 1.557e-5
-1.398, 1.557e-5
-1.399, 1.557e-5
-1.400, 1.557e-5
-1.401, 1.865e-5
-1.402, 1.865e-5
-1.403, 1.557e-5
-1.404, 1.557e-5
-1.405, 1.557e-5
-1.406, 1.557e-5
-1.407, 1.557e-5
-1.408, 1.865e-5
-1.409, 1.557e-5
-1.410, 1.557e-5
-1.411, 1.557e-5
-1.412, 1.557e-5
-1.413, 1.865e-5
-1.414, 1.865e-5
-1.415, 1.865e-5
-1.416, 1.557e-5
-1.417, 1.865e-5
-1.418, 1.865e-5
-1.419, 1.865e-5
-1.420, 1.865e-5
-1.421, 1.865e-5
-1.422, 1.865e-5
-1.423, 1.865e-5
-1.424, 1.865e-5
-1.425, 1.865e-5
-1.426, 1.865e-5
-1.427, 1.865e-5
-1.428, 1.865e-5
-1.429, 1.865e-5
-1.430, 1.865e-5
-1.431, 1.865e-5
-1.432, 1.865e-5
-1.433, 1.865e-5
-1.434, 1.865e-5
-1.435, 1.865e-5
-1.436, 1.865e-5
-1.437, 1.865e-5
-1.438, 1.865e-5
-1.439, 1.865e-5
-1.440, 1.865e-5
-1.441, 1.865e-5
-1.442, 1.865e-5
-1.443, 1.865e-5
-1.444, 1.865e-5
-1.445, 1.865e-5
-1.446, 1.865e-5
-1.447, 1.865e-5
-1.448, 2.174e-5
-1.449, 2.174e-5
-1.450, 1.865e-5
-1.451, 2.174e-5
-1.452, 2.174e-5
-1.453, 1.865e-5
-1.454, 2.174e-5
-1.455, 2.174e-5
-1.456, 2.174e-5
-1.457, 2.174e-5
-1.458, 2.174e-5
-1.459, 2.174e-5
-1.460, 2.174e-5
-1.461, 2.174e-5
-1.462, 2.174e-5
-1.463, 2.174e-5
-1.464, 2.174e-5
-1.465, 2.174e-5
-1.466, 2.174e-5
-1.467, 2.174e-5
-1.468, 2.174e-5
-1.469, 2.174e-5
-1.470, 2.174e-5
-1.471, 2.174e-5
-1.472, 2.174e-5
-1.473, 2.174e-5
-1.474, 2.174e-5
-1.475, 2.174e-5
-1.476, 2.482e-5
-1.477, 2.482e-5
-1.478, 2.482e-5
-1.479, 2.174e-5
-1.480, 2.482e-5
-1.481, 2.482e-5
-1.482, 2.482e-5
-1.483, 2.482e-5
-1.484, 2.482e-5
-1.485, 2.482e-5
-1.486, 2.482e-5
-1.487, 2.482e-5
-1.488, 2.482e-5
-1.489, 2.482e-5
-1.490, 2.482e-5
-1.491, 2.482e-5
-1.492, 2.482e-5
-1.493, 2.790e-5
-1.494, 2.482e-5
-1.495, 2.790e-5
-1.496, 2.790e-5
-1.497, 2.482e-5
-1.498, 2.790e-5
-1.499, 2.790e-5
-1.500, 2.790e-5
-1.501, 2.790e-5
-1.502, 2.790e-5
-1.503, 2.790e-5
-1.504, 2.790e-5
-1.505, 2.790e-5
-1.506, 2.790e-5
-1.507, 3.099e-5
-1.508, 2.790e-5
-1.509, 2.790e-5
-1.510, 2.790e-5
-1.511, 3.099e-5
-1.512, 2.790e-5
-1.513, 3.099e-5
-1.514, 3.099e-5
-1.515, 3.099e-5
-1.516, 3.099e-5
-1.517, 3.099e-5
-1.518, 3.099e-5
-1.519, 3.099e-5
-1.520, 3.099e-5
-1.521, 3.099e-5
-1.522, 3.099e-5
-1.523, 3.407e-5
-1.524, 3.407e-5
-1.525, 3.407e-5
-1.526, 3.407e-5
-1.527, 3.407e-5
-1.528, 3.407e-5
-1.529, 3.407e-5
-1.530, 3.407e-5
-1.531, 3.407e-5
-1.532, 3.715e-5
-1.533, 3.407e-5
-1.534, 3.715e-5
-1.535, 3.715e-5
-1.536, 3.715e-5
-1.537, 3.715e-5
-1.538, 3.715e-5
-1.539, 3.715e-5
-1.540, 3.715e-5
-1.541, 3.715e-5
-1.542, 3.715e-5
-1.543, 4.024e-5
-1.544, 4.024e-5
-1.545, 4.024e-5
-1.546, 4.024e-5
-1.547, 4.024e-5
-1.548, 4.024e-5
-1.549, 4.332e-5
-1.550, 4.332e-5
-1.551, 4.332e-5
-1.552, 4.332e-5
-1.553, 4.332e-5
-1.554, 4.640e-5
-1.555, 4.640e-5
-1.556, 4.640e-5
-1.557, 4.640e-5
-1.558, 4.640e-5
-1.559, 4.640e-5
-1.560, 4.949e-5
-1.561, 4.949e-5
-1.562, 4.949e-5
-1.563, 4.949e-5
-1.564, 4.949e-5
-1.565, 5.257e-5
-1.566, 5.257e-5
-1.567, 5.257e-5
-1.568, 5.257e-5
-1.569, 5.257e-5
-1.570, 5.565e-5
-1.571, 5.565e-5
-1.572, 5.873e-5
-1.573, 5.565e-5
-1.574, 5.873e-5
-1.575, 5.873e-5
-1.576, 5.873e-5
-1.577, 6.182e-5
-1.578, 6.182e-5
-1.579, 6.182e-5
-1.580, 6.182e-5
-1.581, 6.490e-5
-1.582, 6.490e-5
-1.583, 6.798e-5
-1.584, 6.798e-5
-1.585, 6.798e-5
-1.586, 6.798e-5
-1.587, 7.107e-5
-1.588, 7.415e-5
-1.589, 7.107e-5
-1.590, 7.415e-5
-1.591, 7.415e-5
-1.592, 7.723e-5
-1.593, 7.723e-5
-1.594, 8.032e-5
-1.595, 8.032e-5
-1.596, 8.340e-5
-1.597, 8.340e-5
-1.598, 8.648e-5
-1.599, 8.648e-5
-1.600, 8.957e-5
-1.601, 8.957e-5
-1.602, 8.957e-5
-1.603, 9.265e-5
-1.604, 9.573e-5
-1.605, 9.573e-5
-1.606, 9.882e-5
-1.607, 9.882e-5
-1.608, 1.019e-4
-1.609, 1.019e-4
-1.610, 1.050e-4
-1.611, 1.081e-4
-1.612, 1.111e-4
-1.613, 1.111e-4
-1.614, 1.142e-4
-1.615, 1.173e-4
-1.616, 1.204e-4
-1.617, 1.235e-4
-1.618, 1.235e-4
-1.619, 1.266e-4
-1.620, 1.296e-4
-1.621, 1.327e-4
-1.622, 1.358e-4
-1.623, 1.389e-4
-1.624, 1.420e-4
-1.625, 1.451e-4
-1.626, 1.481e-4
-1.627, 1.512e-4
-1.628, 1.543e-4
-1.629, 1.574e-4
-1.630, 1.605e-4
-1.631, 1.636e-4
-1.632, 1.666e-4
-1.633, 1.728e-4
-1.634, 1.759e-4
-1.635, 1.790e-4
-1.636, 1.821e-4
-1.637, 1.882e-4
-1.638, 1.913e-4
-1.639, 1.975e-4
-1.640, 2.006e-4
-1.641, 2.067e-4
-1.642, 2.098e-4
-1.643, 2.160e-4
-1.644, 2.191e-4
-1.645, 2.252e-4
-1.646, 2.314e-4
-1.647, 2.376e-4
-1.648, 2.406e-4
-1.649, 2.468e-4
-1.650, 2.530e-4
-1.651, 2.591e-4
-1.652, 2.653e-4
-1.653, 2.715e-4
-1.654, 2.776e-4
-1.655, 2.838e-4
-1.656, 2.900e-4
-1.657, 2.961e-4
-1.658, 3.054e-4
-1.659, 3.115e-4
-1.660, 3.208e-4
-1.661, 3.270e-4
-1.662, 3.362e-4
-1.663, 3.424e-4
-1.664, 3.516e-4
-1.665, 3.609e-4
-1.666, 3.701e-4
-1.667, 3.763e-4
-1.668, 3.886e-4
-1.669, 3.979e-4
-1.670, 4.071e-4
-1.671, 4.164e-4
-1.672, 4.256e-4
-1.673, 4.380e-4
-1.674, 4.472e-4
-1.675, 4.595e-4
-1.676, 4.688e-4
-1.677, 4.811e-4
-1.678, 4.935e-4
-1.679, 5.058e-4
-1.680, 5.181e-4
-1.681, 5.305e-4
-1.682, 5.459e-4
-1.683, 5.582e-4
-1.684, 5.705e-4
-1.685, 5.859e-4
-1.686, 5.983e-4
-1.687, 6.137e-4
-1.688, 6.260e-4
-1.689, 6.445e-4
-1.690, 6.569e-4
-1.691, 6.754e-4
-1.692, 6.908e-4
-1.693, 7.093e-4
-1.694, 7.247e-4
-1.695, 7.401e-4
-1.696, 7.586e-4
-1.697, 7.802e-4
-1.698, 7.987e-4
-1.699, 8.172e-4
-1.700, 8.388e-4
-1.701, 8.573e-4
-1.702, 8.788e-4
-1.703, 8.973e-4
-1.704, 9.189e-4
-1.705, 9.405e-4
-1.706, 9.621e-4
-1.707, 9.868e-4
-1.708, 1.008e-3
-1.709, 1.030e-3
-1.710, 1.055e-3
-1.711, 1.079e-3
-1.712, 1.104e-3
-1.713, 1.132e-3
-1.714, 1.153e-3
-1.715, 1.181e-3
-1.716, 1.209e-3
-1.717, 1.233e-3
-1.718, 1.258e-3
-1.719, 1.286e-3
-1.720, 1.317e-3
-1.721, 1.347e-3
-1.722, 1.375e-3
-1.723, 1.406e-3
-1.724, 1.434e-3
-1.725, 1.468e-3
-1.726, 1.499e-3
-1.727, 1.532e-3
-1.728, 1.563e-3
-1.729, 1.594e-3
-1.730, 1.628e-3
-1.731, 1.662e-3
-1.732, 1.696e-3
-1.733, 1.733e-3
-1.734, 1.767e-3
-1.735, 1.804e-3
-1.736, 1.838e-3
-1.737, 1.875e-3
-1.738, 1.915e-3
-1.739, 1.952e-3
-1.740, 1.989e-3
-1.741, 2.026e-3
-1.742, 2.069e-3
-1.743, 2.109e-3
-1.744, 2.149e-3
-1.745, 2.189e-3
-1.746, 2.232e-3
-1.747, 2.272e-3
-1.748, 2.316e-3
-1.749, 2.359e-3
-1.750, 2.402e-3
-1.751, 2.445e-3
-1.752, 2.491e-3
-1.753, 2.538e-3
-1.754, 2.584e-3
-1.755, 2.630e-3
-1.756, 2.676e-3
-1.757, 2.726e-3
-1.758, 2.772e-3
-1.759, 2.818e-3
-1.760, 2.867e-3
-1.761, 2.917e-3
-1.762, 2.966e-3
-1.763, 3.019e-3
-1.764, 3.068e-3
-1.765, 3.123e-3
-1.766, 3.176e-3
-1.767, 3.228e-3
-1.768, 3.284e-3
-1.769, 3.336e-3
-1.770, 3.388e-3
-1.771, 3.444e-3
-1.772, 3.503e-3
-1.773, 3.552e-3
-1.774, 3.610e-3
-1.775, 3.669e-3
-1.776, 3.728e-3
-1.777, 3.783e-3
-1.778, 3.842e-3
-1.779, 3.900e-3
-1.780, 3.959e-3
-1.781, 4.017e-3
-1.782, 4.079e-3
-1.783, 4.138e-3
-1.784, 4.199e-3
-1.785, 4.261e-3
-1.786, 4.323e-3
-1.787, 4.381e-3
-1.788, 4.446e-3
-1.789, 4.505e-3
-1.790, 4.569e-3
-1.791, 4.631e-3
-1.792, 4.696e-3
-1.793, 4.760e-3
-1.794, 4.828e-3
-1.795, 4.890e-3
-1.796, 4.958e-3
-1.797, 5.023e-3
-1.798, 5.087e-3
-1.799, 5.155e-3
-1.800, 5.220e-3
-1.801, 5.288e-3
-1.802, 5.356e-3
-1.803, 5.420e-3
-1.804, 5.488e-3
-1.805, 5.559e-3
-1.806, 5.627e-3
-1.807, 5.695e-3
-1.808, 5.762e-3
-1.809, 5.830e-3
-1.810, 5.901e-3
-1.811, 5.969e-3
-1.812, 6.037e-3
-1.813, 6.108e-3
-1.814, 6.179e-3
-1.815, 6.250e-3
-1.816, 6.321e-3
-1.817, 6.391e-3
-1.818, 6.462e-3
-1.819, 6.536e-3
-1.820, 6.607e-3
-1.821, 6.681e-3
-1.822, 6.752e-3
-1.823, 6.823e-3
-1.824, 6.894e-3
-1.825, 6.971e-3
-1.826, 7.045e-3
-1.827, 7.116e-3
-1.828, 7.190e-3
-1.829, 7.264e-3
-1.830, 7.341e-3
-1.831, 7.412e-3
-1.832, 7.486e-3
-1.833, 7.557e-3
-1.834, 7.631e-3
-1.835, 7.708e-3
-1.836, 7.785e-3
-1.837, 7.862e-3
-1.838, 7.936e-3
-1.839, 8.013e-3
-1.840, 8.087e-3
-1.841, 8.161e-3
-1.842, 8.238e-3
-1.843, 8.312e-3
-1.844, 8.389e-3
-1.845, 8.466e-3
-1.846, 8.547e-3
-1.847, 8.627e-3
-1.848, 8.704e-3
-1.849, 8.781e-3
-1.850, 8.861e-3
-1.851, 8.935e-3
-1.852, 9.012e-3
-1.853, 9.089e-3
-1.854, 9.166e-3
-1.855, 9.243e-3
-1.856, 9.323e-3
-1.857, 9.404e-3
-1.858, 9.487e-3
-1.859, 9.567e-3
-1.860, 9.644e-3
-1.861, 9.724e-3
-1.862, 9.801e-3
-1.863, 9.882e-3
-1.864, 9.959e-3
-1.865, 1.004e-2
-1.866, 1.012e-2
-1.867, 1.020e-2
-1.868, 1.028e-2
-1.869, 1.036e-2
-1.870, 1.044e-2
-1.871, 1.052e-2
-1.872, 1.059e-2
-1.873, 1.067e-2
-1.874, 1.075e-2
-1.875, 1.083e-2
-1.876, 1.091e-2
-1.877, 1.099e-2
-1.878, 1.108e-2
-1.879, 1.116e-2
-1.880, 1.124e-2
-1.881, 1.132e-2
-1.882, 1.140e-2
-1.883, 1.148e-2
-1.884, 1.156e-2
-1.885, 1.165e-2
-1.886, 1.173e-2
-1.887, 1.181e-2
-1.888, 1.190e-2
-1.889, 1.198e-2
-1.890, 1.206e-2
-1.891, 1.215e-2
-1.892, 1.223e-2
-1.893, 1.231e-2
-1.894, 1.239e-2
-1.895, 1.248e-2
-1.896, 1.256e-2
-1.897, 1.265e-2
-1.898, 1.273e-2
-1.899, 1.283e-2
-1.900, 1.286e-2
-1.899, 1.281e-2
-1.898, 1.275e-2
-1.897, 1.270e-2
-1.896, 1.264e-2
-1.895, 1.259e-2
-1.894, 1.253e-2
-1.893, 1.247e-2
-1.892, 1.242e-2
-1.891, 1.236e-2
-1.890, 1.230e-2
-1.889, 1.224e-2
-1.888, 1.218e-2
-1.887, 1.212e-2
-1.886, 1.206e-2
-1.885, 1.200e-2
-1.884, 1.193e-2
-1.883, 1.187e-2
-1.882, 1.181e-2
-1.881, 1.174e-2
-1.880, 1.168e-2
-1.879, 1.162e-2
-1.878, 1.156e-2
-1.877, 1.149e-2
-1.876, 1.143e-2
-1.875, 1.137e-2
-1.874, 1.131e-2
-1.873, 1.124e-2
-1.872, 1.118e-2
-1.871, 1.111e-2
-1.870, 1.104e-2
-1.869, 1.098e-2
-1.868, 1.091e-2
-1.867, 1.085e-2
-1.866, 1.078e-2
-1.865, 1.072e-2
-1.864, 1.065e-2
-1.863, 1.059e-2
-1.862, 1.052e-2
-1.861, 1.045e-2
-1.860, 1.039e-2
-1.859, 1.033e-2
-1.858, 1.026e-2
-1.857, 1.020e-2
-1.856, 1.013e-2
-1.855, 1.006e-2
-1.854, 9.996e-3
-1.853, 9.928e-3
-1.852, 9.863e-3
-1.851, 9.798e-3
-1.850, 9.734e-3
-1.849, 9.672e-3
-1.848, 9.610e-3
-1.847, 9.545e-3
-1.846, 9.481e-3
-1.845, 9.419e-3
-1.844, 9.351e-3
-1.843, 9.286e-3
-1.842, 9.225e-3
-1.841, 9.163e-3
-1.840, 9.101e-3
-1.839, 9.043e-3
-1.838, 8.978e-3
-1.837, 8.917e-3
-1.836, 8.852e-3
-1.835, 8.787e-3
-1.834, 8.722e-3
-1.833, 8.664e-3
-1.832, 8.602e-3
-1.831, 8.540e-3
-1.830, 8.479e-3
-1.829, 8.423e-3
-1.828, 8.358e-3
-1.827, 8.303e-3
-1.826, 8.238e-3
-1.825, 8.180e-3
-1.824, 8.118e-3
-1.823, 8.056e-3
-1.822, 7.998e-3
-1.821, 7.939e-3
-1.820, 7.881e-3
-1.819, 7.819e-3
-1.818, 7.760e-3
-1.817, 7.705e-3
-1.816, 7.643e-3
-1.815, 7.585e-3
-1.814, 7.526e-3
-1.813, 7.471e-3
-1.812, 7.409e-3
-1.811, 7.350e-3
-1.810, 7.295e-3
-1.809, 7.236e-3
-1.808, 7.178e-3
-1.807, 7.119e-3
-1.806, 7.064e-3
-1.805, 7.005e-3
-1.804, 6.949e-3
-1.803, 6.894e-3
-1.802, 6.838e-3
-1.801, 6.780e-3
-1.800, 6.728e-3
-1.799, 6.672e-3
-1.798, 6.617e-3
-1.797, 6.564e-3
-1.796, 6.509e-3
-1.795, 6.456e-3
-1.794, 6.398e-3
-1.793, 6.345e-3
-1.792, 6.290e-3
-1.791, 6.234e-3
-1.790, 6.182e-3
-1.789, 6.129e-3
-1.788, 6.080e-3
-1.787, 6.028e-3
-1.786, 5.975e-3
-1.785, 5.926e-3
-1.784, 5.873e-3
-1.783, 5.821e-3
-1.782, 5.769e-3
-1.781, 5.719e-3
-1.780, 5.670e-3
-1.779, 5.618e-3
-1.778, 5.571e-3
-1.777, 5.522e-3
-1.776, 5.473e-3
-1.775, 5.423e-3
-1.774, 5.374e-3
-1.773, 5.325e-3
-1.772, 5.275e-3
-1.771, 5.226e-3
-1.770, 5.180e-3
-1.769, 5.130e-3
-1.768, 5.087e-3
-1.767, 5.038e-3
-1.766, 4.989e-3
-1.765, 4.942e-3
-1.764, 4.893e-3
-1.763, 4.847e-3
-1.762, 4.797e-3
-1.761, 4.751e-3
-1.760, 4.705e-3
-1.759, 4.659e-3
-1.758, 4.612e-3
-1.757, 4.569e-3
-1.756, 4.523e-3
-1.755, 4.477e-3
-1.754, 4.431e-3
-1.753, 4.384e-3
-1.752, 4.341e-3
-1.751, 4.295e-3
-1.750, 4.252e-3
-1.749, 4.206e-3
-1.748, 4.165e-3
-1.747, 4.119e-3
-1.746, 4.076e-3
-1.745, 4.033e-3
-1.744, 3.987e-3
-1.743, 3.943e-3
-1.742, 3.900e-3
-1.741, 3.857e-3
-1.740, 3.814e-3
-1.739, 3.774e-3
-1.738, 3.731e-3
-1.737, 3.688e-3
-1.736, 3.647e-3
-1.735, 3.604e-3
-1.734, 3.564e-3
-1.733, 3.524e-3
-1.732, 3.481e-3
-1.731, 3.441e-3
-1.730, 3.401e-3
-1.729, 3.361e-3
-1.728, 3.321e-3
-1.727, 3.281e-3
-1.726, 3.241e-3
-1.725, 3.204e-3
-1.724, 3.163e-3
-1.723, 3.126e-3
-1.722, 3.086e-3
-1.721, 3.049e-3
-1.720, 3.012e-3
-1.719, 2.978e-3
-1.718, 2.938e-3
-1.717, 2.904e-3
-1.716, 2.871e-3
-1.715, 2.834e-3
-1.714, 2.800e-3
-1.713, 2.766e-3
-1.712, 2.732e-3
-1.711, 2.698e-3
-1.710, 2.664e-3
-1.709, 2.630e-3
-1.708, 2.596e-3
-1.707, 2.562e-3
-1.706, 2.531e-3
-1.705, 2.501e-3
-1.704, 2.467e-3
-1.703, 2.436e-3
-1.702, 2.405e-3
-1.701, 2.371e-3
-1.700, 2.340e-3
-1.699, 2.312e-3
-1.698, 2.282e-3
-1.697, 2.251e-3
-1.696, 2.220e-3
-1.695, 2.189e-3
-1.694, 2.161e-3
-1.693, 2.131e-3
-1.692, 2.103e-3
-1.691, 2.075e-3
-1.690, 2.044e-3
-1.689, 2.017e-3
-1.688, 1.989e-3
-1.687, 1.961e-3
-1.686, 1.933e-3
-1.685, 1.909e-3
-1.684, 1.881e-3
-1.683, 1.853e-3
-1.682, 1.825e-3
-1.681, 1.801e-3
-1.680, 1.776e-3
-1.679, 1.748e-3
-1.678, 1.724e-3
-1.677, 1.696e-3
-1.676, 1.671e-3
-1.675, 1.647e-3
-1.674, 1.622e-3
-1.673, 1.597e-3
-1.672, 1.573e-3
-1.671, 1.551e-3
-1.670, 1.526e-3
-1.669, 1.502e-3
-1.668, 1.480e-3
-1.667, 1.455e-3
-1.666, 1.434e-3
-1.665, 1.412e-3
-1.664, 1.391e-3
-1.663, 1.366e-3
-1.662, 1.344e-3
-1.661, 1.323e-3
-1.660, 1.301e-3
-1.659, 1.280e-3
-1.658, 1.261e-3
-1.657, 1.240e-3
-1.656, 1.218e-3
-1.655, 1.199e-3
-1.654, 1.181e-3
-1.653, 1.162e-3
-1.652, 1.144e-3
-1.651, 1.122e-3
-1.650, 1.104e-3
-1.649, 1.085e-3
-1.648, 1.067e-3
-1.647, 1.048e-3
-1.646, 1.030e-3
-1.645, 1.011e-3
-1.644, 9.929e-4
-1.643, 9.775e-4
-1.642, 9.590e-4
-1.641, 9.405e-4
-1.640, 9.251e-4
-1.639, 9.066e-4
-1.638, 8.912e-4
-1.637, 8.758e-4
-1.636, 8.603e-4
-1.635, 8.418e-4
-1.634, 8.264e-4
-1.633, 8.110e-4
-1.632, 7.987e-4
-1.631, 7.802e-4
-1.630, 7.679e-4
-1.629, 7.524e-4
-1.628, 7.370e-4
-1.627, 7.247e-4
-1.626, 7.124e-4
-1.625, 6.969e-4
-1.624, 6.846e-4
-1.623, 6.692e-4
-1.622, 6.569e-4
-1.621, 6.445e-4
-1.620, 6.322e-4
-1.619, 6.199e-4
-1.618, 6.075e-4
-1.617, 5.952e-4
-1.616, 5.859e-4
-1.615, 5.705e-4
-1.614, 5.613e-4
-1.613, 5.489e-4
-1.612, 5.366e-4
-1.611, 5.274e-4
-1.610, 5.150e-4
-1.609, 5.058e-4
-1.608, 4.965e-4
-1.607, 4.842e-4
-1.606, 4.750e-4
-1.605, 4.657e-4
-1.604, 4.534e-4
-1.603, 4.441e-4
-1.602, 4.349e-4
-1.601, 4.256e-4
-1.600, 4.195e-4
-1.599, 4.102e-4
-1.598, 4.010e-4
-1.597, 3.917e-4
-1.596, 3.825e-4
-1.595, 3.732e-4
-1.594, 3.670e-4
-1.593, 3.578e-4
-1.592, 3.485e-4
-1.591, 3.424e-4
-1.590, 3.331e-4
-1.589, 3.270e-4
-1.588, 3.208e-4
-1.587, 3.115e-4
-1.586, 3.054e-4
-1.585, 2.961e-4
-1.584, 2.900e-4
-1.583, 2.838e-4
-1.582, 2.776e-4
-1.581, 2.715e-4
-1.580, 2.653e-4
-1.579, 2.591e-4
-1.578, 2.530e-4
-1.577, 2.468e-4
-1.576, 2.406e-4
-1.575, 2.345e-4
-1.574, 2.283e-4
-1.573, 2.252e-4
-1.572, 2.191e-4
-1.571, 2.129e-4
-1.570, 2.098e-4
-1.569, 2.036e-4
-1.568, 1.975e-4
-1.567, 1.944e-4
-1.566, 1.882e-4
-1.565, 1.851e-4
-1.564, 1.790e-4
-1.563, 1.728e-4
-1.562, 1.697e-4
-1.561, 1.666e-4
-1.560, 1.636e-4
-1.559, 1.574e-4
-1.558, 1.543e-4
-1.557, 1.481e-4
-1.556, 1.451e-4
-1.555, 1.420e-4
-1.554, 1.389e-4
-1.553, 1.327e-4
-1.552, 1.296e-4
-1.551, 1.266e-4
-1.550, 1.235e-4
-1.549, 1.204e-4
-1.548, 1.173e-4
-1.547, 1.142e-4
-1.546, 1.111e-4
-1.545, 1.081e-4
-1.544, 1.050e-4
-1.543, 1.019e-4
-1.542, 9.882e-5
-1.541, 9.573e-5
-1.540, 9.265e-5
-1.539, 8.957e-5
-1.538, 8.957e-5
-1.537, 8.648e-5
-1.536, 8.340e-5
-1.535, 8.032e-5
-1.534, 7.723e-5
-1.533, 7.723e-5
-1.532, 7.415e-5
-1.531, 7.107e-5
-1.530, 6.798e-5
-1.529, 6.798e-5
-1.528, 6.490e-5
-1.527, 6.490e-5
-1.526, 6.182e-5
-1.525, 6.182e-5
-1.524, 5.873e-5
-1.523, 5.565e-5
-1.522, 5.565e-5
-1.521, 5.257e-5
-1.520, 5.257e-5
-1.519, 4.949e-5
-1.518, 4.949e-5
-1.517, 4.640e-5
-1.516, 4.332e-5
-1.515, 4.332e-5
-1.514, 4.332e-5
-1.513, 4.332e-5
-1.512, 4.024e-5
-1.511, 3.715e-5
-1.510, 3.715e-5
-1.509, 3.715e-5
-1.508, 3.407e-5
-1.507, 3.407e-5
-1.506, 3.099e-5
-1.505, 3.099e-5
-1.504, 2.790e-5
-1.503, 2.790e-5
-1.502, 2.790e-5
-1.501, 2.482e-5
-1.500, 2.790e-5
-1.499, 2.482e-5
-1.498, 2.174e-5
-1.497, 2.174e-5
-1.496, 2.174e-5
-1.495, 2.174e-5
-1.494, 1.865e-5
-1.493, 1.865e-5
-1.492, 1.865e-5
-1.491, 1.557e-5
-1.490, 1.557e-5
-1.489, 1.557e-5
-1.488, 1.557e-5
-1.487, 1.557e-5
-1.486, 1.557e-5
-1.485, 1.249e-5
-1.484, 1.249e-5
-1.483, 1.249e-5
-1.482, 1.249e-5
-1.481, 9.405e-6
-1.480, 9.405e-6
-1.479, 9.405e-6
-1.478, 9.405e-6
-1.477, 9.405e-6
-1.476, 9.405e-6
-1.475, 6.322e-6
-1.474, 6.322e-6
-1.473, 6.322e-6
-1.472, 6.322e-6
-1.471, 6.322e-6
-1.470, 6.322e-6
-1.469, 3.239e-6
-1.468, 3.239e-6
-1.467, 3.239e-6
-1.466, 3.239e-6
-1.465, 3.239e-6
-1.464, 3.239e-6
-1.463, 3.239e-6
-1.462, 3.239e-6
-1.461, 1.559e-7
-1.460, 3.239e-6
-1.459, 1.559e-7
-1.458, 1.559e-7
-1.457, 1.559e-7
-1.456, 1.559e-7
-1.455, 1.559e-7
-1.454, 1.559e-7
-1.453, 1.559e-7
-1.452, 1.559e-7
-1.451, 1.559e-7
-1.450, 1.559e-7
-1.449, -2.927e-6
-1.448, 1.559e-7
-1.447, 1.559e-7
-1.446, -2.927e-6
-1.445, -2.927e-6
-1.444, -2.927e-6
-1.443, -2.927e-6
-1.442, -2.927e-6
-1.441, -2.927e-6
-1.440, -6.010e-6
-1.439, -2.927e-6
-1.438, -2.927e-6
-1.437, -2.927e-6
-1.436, -2.927e-6
-1.435, -2.927e-6
-1.434, -2.927e-6
-1.433, -6.010e-6
-1.432, -6.010e-6
-1.431, -6.010e-6
-1.430, -2.927e-6
-1.429, -6.010e-6
-1.428, -6.010e-6
-1.427, -6.010e-6
-1.426, -2.927e-6
-1.425, -6.010e-6
-1.424, -6.010e-6
-1.423, -6.010e-6
-1.422, -6.010e-6
-1.421, -6.010e-6
-1.420, -6.010e-6
-1.419, -6.010e-6
-1.418, -6.010e-6
-1.417, -6.010e-6
-1.416, -6.010e-6
-1.415, -6.010e-6
-1.414, -6.010e-6
-1.413, -6.010e-6
-1.412, -6.010e-6
-1.411, -6.010e-6
-1.410, -6.010e-6
-1.409, -6.010e-6
-1.408, -6.010e-6
-1.407, -6.010e-6
-1.406, -9.093e-6
-1.405, -6.010e-6
-1.404, -9.093e-6
-1.403, -6.010e-6
-1.402, -9.093e-6
-1.401, -6.010e-6
-1.400, -9.093e-6
-1.399, -6.010e-6
-1.398, -9.093e-6
-1.397, -9.093e-6
-1.396, -6.010e-6
-1.395, -9.093e-6
-1.394, -9.093e-6
-1.393, -9.093e-6
-1.392, -9.093e-6
-1.391, -9.093e-6
-1.390, -9.093e-6
-1.389, -9.093e-6
-1.388, -9.093e-6
-1.387, -9.093e-6
-1.386, -9.093e-6
-1.385, -9.093e-6
-1.384, -9.093e-6
-1.383, -9.093e-6
-1.382, -9.093e-6
-1.381, -9.093e-6
-1.380, -9.093e-6
-1.379, -9.093e-6
-1.378, -9.093e-6
-1.377, -9.093e-6
-1.376, -9.093e-6
-1.375, -9.093e-6
-1.374, -9.093e-6
-1.373, -9.093e-6
-1.372, -9.093e-6
-1.371, -9.093e-6
-1.370, -9.093e-6
-1.369, -9.093e-6
-1.368, -9.093e-6
-1.367, -9.093e-6
-1.366, -9.093e-6
-1.365, -9.093e-6
-1.364, -9.093e-6
-1.363, -9.093e-6
-1.362, -9.093e-6
-1.361, -9.093e-6
-1.360, -9.093e-6
-1.359, -9.093e-6
-1.358, -9.093e-6
-1.357, -9.093e-6
-1.356, -9.093e-6
-1.355, -9.093e-6
-1.354, -9.093e-6
-1.353, -9.093e-6
-1.352, -9.093e-6
-1.351, -9.093e-6
-1.350, -9.093e-6
-1.349, -9.093e-6
-1.348, -9.093e-6
-1.347, -9.093e-6
-1.346, -9.093e-6
-1.345, -9.093e-6
-1.344, -1.218e-5
-1.343, -9.093e-6
-1.342, -9.093e-6
-1.341, -9.093e-6
-1.340, -9.093e-6
-1.339, -9.093e-6
-1.338, -9.093e-6
-1.337, -9.093e-6
-1.336, -9.093e-6
-1.335, -9.093e-6
-1.334, -9.093e-6
-1.333, -9.093e-6
-1.332, -9.093e-6
-1.331, -9.093e-6
-1.330, -9.093e-6
-1.329, -9.093e-6
-1.328, -1.218e-5
-1.327, -9.093e-6
-1.326, -9.093e-6
-1.325, -9.093e-6
-1.324, -9.093e-6
-1.323, -1.218e-5
-1.322, -9.093e-6
-1.321, -9.093e-6
-1.320, -9.093e-6
-1.319, -1.218e-5
-1.318, -9.093e-6
-1.317, -1.218e-5
-1.316, -9.093e-6
-1.315, -9.093e-6
-1.314, -9.093e-6
-1.313, -9.093e-6
-1.312, -1.218e-5
-1.311, -9.093e-6
-1.310, -1.218e-5
-1.309, -9.093e-6
-1.308, -9.093e-6
-1.307, -9.093e-6
-1.306, -1.218e-5
-1.305, -1.218e-5
-1.304, -9.093e-6
-1.303, -1.218e-5
-1.302, -9.093e-6
-1.301, -1.218e-5
-1.300, -9.093e-6
-1.299, -1.218e-5
-1.298, -9.093e-6
-1.297, -9.093e-6
-1.296, -1.218e-5
-1.295, -9.093e-6
-1.294, -1.218e-5
-1.293, -9.093e-6
-1.292, -1.218e-5
-1.291, -9.093e-6
-1.290, -9.093e-6
-1.289, -9.093e-6
-1.288, -9.093e-6
-1.287, -9.093e-6
-1.286, -1.218e-5
-1.285, -9.093e-6
-1.284, -9.093e-6
-1.283, -1.218e-5
-1.282, -1.218e-5
-1.281, -1.218e-5
-1.280, -1.218e-5
-1.279, -1.218e-5
-1.278, -9.093e-6
-1.277, -9.093e-6
-1.276, -1.218e-5
-1.275, -1.218e-5
-1.274, -1.218e-5
-1.273, -1.218e-5
-1.272, -1.218e-5
-1.271, -1.218e-5
-1.270, -1.218e-5
-1.269, -1.218e-5
-1.268, -1.218e-5
-1.267, -9.093e-6
-1.266, -9.093e-6
-1.265, -1.218e-5
-1.264, -1.218e-5
-1.263, -1.218e-5
-1.262, -9.093e-6
-1.261, -9.093e-6
-1.260, -9.093e-6
-1.259, -9.093e-6
-1.258, -9.093e-6
-1.257, -9.093e-6
-1.256, -1.218e-5
-1.255, -9.093e-6
-1.254, -1.218e-5
-1.253, -1.218e-5
-1.252, -1.218e-5
-1.251, -9.093e-6
-1.250, -9.093e-6
-1.249, -1.218e-5
-1.248, -9.093e-6
-1.247, -1.218e-5
-1.246, -9.093e-6
-1.245, -1.218e-5
-1.244, -9.093e-6
-1.243, -1.218e-5
-1.242, -1.218e-5
-1.241, -1.218e-5
-1.240, -1.218e-5
-1.239, -9.093e-6
-1.238, -1.218e-5
-1.237, -9.093e-6
-1.236, -1.218e-5
-1.235, -1.218e-5
-1.234, -1.218e-5
-1.233, -1.218e-5
-1.232, -9.093e-6
-1.231, -1.218e-5
-1.230, -9.093e-6
-1.229, -1.218e-5
-1.228, -1.218e-5
-1.227, -1.218e-5
-1.226, -9.093e-6
-1.225, -1.218e-5
-1.224, -1.218e-5
-1.223, -1.218e-5
-1.222, -1.218e-5
-1.221, -1.218e-5
-1.220, -1.218e-5
-1.219, -1.218e-5
-1.218, -1.218e-5
-1.217, -1.218e-5
-1.216, -1.218e-5
-1.215, -1.218e-5
-1.214, -1.218e-5
-1.213, -1.218e-5
-1.212, -9.093e-6
-1.211, -1.218e-5
-1.210, -1.218e-5
-1.209, -1.218e-5
-1.208, -1.218e-5
-1.207, -1.218e-5
-1.206, -1.218e-5
-1.205, -1.218e-5
-1.204, -1.218e-5
-1.203, -9.093e-6
-1.202, -1.218e-5
-1.201, -1.218e-5
-1.200, -1.218e-5
-1.199, -9.093e-6
-1.198, -1.218e-5
-1.197, -9.093e-6
-1.196, -1.218e-5
-1.195, -1.218e-5
-1.194, -1.218e-5
-1.193, -1.218e-5
-1.192, -1.218e-5
-1.191, -1.218e-5
-1.190, -9.093e-6
-1.189, -1.218e-5
-1.188, -1.218e-5
-1.187, -1.218e-5
-1.186, -1.218e-5
-1.185, -9.093e-6
-1.184, -1.218e-5
-1.183, -1.218e-5
-1.182, -1.218e-5
-1.181, -1.218e-5
-1.180, -1.218e-5
-1.179, -1.218e-5
-1.178, -1.218e-5
-1.177, -1.218e-5
-1.176, -1.218e-5
-1.175, -1.218e-5
-1.174, -1.218e-5
-1.173, -1.218e-5
-1.172, -1.218e-5
-1.171, -1.218e-5
-1.170, -1.218e-5
-1.169, -1.218e-5
-1.168, -1.218e-5
-1.167, -1.218e-5
-1.166, -1.218e-5
-1.165, -1.218e-5
-1.164, -1.218e-5
-1.163, -1.218e-5
-1.162, -1.218e-5
-1.161, -1.218e-5
-1.160, -1.218e-5
-1.159, -1.218e-5
-1.158, -1.218e-5
-1.157, -1.218e-5
-1.156, -9.093e-6
-1.155, -1.218e-5
-1.154, -1.218e-5
-1.153, -1.218e-5
-1.152, -1.218e-5
-1.151, -1.218e-5
-1.150, -9.093e-6
-1.149, -1.218e-5
-1.148, -1.218e-5
-1.147, -1.218e-5
-1.146, -1.218e-5
-1.145, -1.218e-5
-1.144, -1.218e-5
-1.143, -1.218e-5
-1.142, -1.218e-5
-1.141, -1.218e-5
-1.140, -1.218e-5
-1.139, -1.218e-5
-1.138, -1.218e-5
-1.137, -1.218e-5
-1.136, -1.218e-5
-1.135, -1.218e-5
-1.134, -1.218e-5
-1.133, -1.218e-5
-1.132, -1.218e-5
-1.131, -1.218e-5
-1.130, -1.218e-5
-1.129, -1.218e-5
-1.128, -1.218e-5
-1.127, -1.218e-5
-1.126, -1.218e-5
-1.125, -1.218e-5
-1.124, -1.218e-5
-1.123, -1.218e-5
-1.122, -1.218e-5
-1.121, -1.218e-5
-1.120, -1.218e-5
-1.119, -1.218e-5
-1.118, -1.218e-5
-1.117, -1.218e-5
-1.116, -1.218e-5
-1.115, -1.218e-5
-1.114, -1.218e-5
-1.113, -1.218e-5
-1.112, -1.218e-5
-1.111, -1.218e-5
-1.110, -1.218e-5
-1.109, -1.218e-5
-1.108, -1.218e-5
-1.107, -1.218e-5
-1.106, -1.218e-5
-1.105, -1.218e-5
-1.104, -1.218e-5
-1.103, -1.218e-5
-1.102, -1.218e-5
-1.101, -1.218e-5
-1.100, -1.218e-5
-1.099, -1.218e-5
-1.098, -1.218e-5
-1.097, -1.218e-5
-1.096, -1.218e-5
-1.095, -1.218e-5
-1.094, -1.218e-5
-1.093, -1.218e-5
-1.092, -1.218e-5
-1.091, -1.218e-5
-1.090, -1.218e-5
-1.089, -1.218e-5
-1.088, -1.218e-5
-1.087, -1.218e-5
-1.086, -1.218e-5
-1.085, -1.218e-5
-1.084, -1.218e-5
-1.083, -1.218e-5
-1.082, -1.218e-5
-1.081, -1.218e-5
-1.080, -1.218e-5
-1.079, -1.218e-5
-1.078, -1.218e-5
-1.077, -1.218e-5
-1.076, -1.218e-5
-1.075, -1.218e-5
-1.074, -1.218e-5
-1.073, -1.218e-5
-1.072, -1.218e-5
-1.071, -1.218e-5
-1.070, -1.526e-5
-1.069, -1.218e-5
-1.068, -1.526e-5
-1.067, -1.218e-5
-1.066, -1.218e-5
-1.065, -1.218e-5
-1.064, -1.218e-5
-1.063, -1.218e-5
-1.062, -1.218e-5
-1.061, -1.218e-5
-1.060, -1.218e-5
-1.059, -1.218e-5
-1.058, -1.218e-5
-1.057, -1.218e-5
-1.056, -1.218e-5
-1.055, -1.218e-5
-1.054, -1.218e-5
-1.053, -1.218e-5
-1.052, -1.526e-5
-1.051, -1.218e-5
-1.050, -1.218e-5
-1.049, -1.218e-5
-1.048, -1.526e-5
-1.047, -1.526e-5
-1.046, -1.218e-5
-1.045, -1.526e-5
-1.044, -1.218e-5
-1.043, -1.218e-5
-1.042, -1.218e-5
-1.041, -1.526e-5
-1.040, -1.218e-5
-1.039, -1.218e-5
-1.038, -1.218e-5
-1.037, -1.218e-5
-1.036, -1.218e-5
-1.035, -1.218e-5
-1.034, -1.218e-5
-1.033, -1.218e-5
-1.032, -1.218e-5
-1.031, -1.218e-5
-1.030, -1.526e-5
-1.029, -1.218e-5
-1.028, -1.218e-5
-1.027, -1.526e-5
-1.026, -1.218e-5
-1.025, -1.526e-5
-1.024, -1.218e-5
-1.023, -1.526e-5
-1.022, -1.218e-5
-1.021, -1.526e-5
-1.020, -1.526e-5
-1.019, -1.526e-5
-1.018, -1.526e-5
-1.017, -1.218e-5
-1.016, -1.526e-5
-1.015, -1.218e-5
-1.014, -1.526e-5
-1.013, -1.526e-5
-1.012, -1.526e-5
-1.011, -1.218e-5
-1.010, -1.526e-5
-1.009, -1.526e-5
-1.008, -1.526e-5
-1.007, -1.526e-5
-1.006, -1.526e-5
-1.005, -1.526e-5
-1.004, -1.526e-5
-1.003, -1.526e-5
-1.002, -1.526e-5
-1.001, -1.526e-5
