Dec. 20, 2024   17:18:54
Cyclic Voltammetry
File: c:/users/guazh/data/banditlqround7_x0exp667_r5/2024-12-16-exp713\exp713-2024-12-20t17_12_54-h2koh\exp713_cv_sr_100mvs_efin_-1400mv.bin
Data Source:  Experiment
Instrument Model:  CHI760E
Header: CV ran at 100 mVs
Note: 

Init E (V) = -1
High E (V) = -1
Low E (V) = -1.4
Final E (V) = -1
Init P/N = N
Scan Rate (V/s) = 0.1
Segment = 3
Sample Interval (V) = 0.001
Quiet Time (sec) = 2
Sensitivity (A/V) = 0.01
Comp R (ohm) = 1.3

Results:

Channel 1:
Segment 1:

Segment 2:

Segment 3:

Potential/V, Current/A

-1.000, -2.391e-3
-1.001, -2.271e-3
-1.002, -2.178e-3
-1.003, -2.074e-3
-1.004, -1.993e-3
-1.005, -1.908e-3
-1.006, -1.823e-3
-1.007, -1.756e-3
-1.008, -1.673e-3
-1.009, -1.610e-3
-1.010, -1.539e-3
-1.011, -1.469e-3
-1.012, -1.414e-3
-1.013, -1.342e-3
-1.014, -1.290e-3
-1.015, -1.229e-3
-1.016, -1.168e-3
-1.017, -1.121e-3
-1.018, -1.054e-3
-1.019, -1.006e-3
-1.020, -9.501e-4
-1.021, -8.937e-4
-1.022, -8.517e-4
-1.023, -7.896e-4
-1.024, -7.460e-4
-1.025, -6.947e-4
-1.026, -6.424e-4
-1.027, -6.050e-4
-1.028, -5.481e-4
-1.029, -5.103e-4
-1.030, -4.630e-4
-1.031, -4.134e-4
-1.032, -3.794e-4
-1.033, -3.267e-4
-1.034, -2.914e-4
-1.035, -2.471e-4
-1.036, -2.003e-4
-1.037, -1.695e-4
-1.038, -1.185e-4
-1.039, -8.589e-5
-1.040, -4.445e-5
-1.041, 1.066e-7
-1.042, 3.016e-5
-1.043, 7.901e-5
-1.044, 1.107e-4
-1.045, 1.496e-4
-1.046, 1.925e-4
-1.047, 2.202e-4
-1.048, 2.669e-4
-1.049, 2.969e-4
-1.050, 3.354e-4
-1.051, 3.765e-4
-1.052, 4.032e-4
-1.053, 4.492e-4
-1.054, 4.783e-4
-1.055, 5.160e-4
-1.056, 5.564e-4
-1.057, 5.827e-4
-1.058, 6.281e-4
-1.059, 6.555e-4
-1.060, 6.922e-4
-1.061, 7.313e-4
-1.062, 7.559e-4
-1.063, 8.010e-4
-1.064, 8.273e-4
-1.065, 8.633e-4
-1.066, 9.024e-4
-1.067, 9.268e-4
-1.068, 9.714e-4
-1.069, 9.967e-4
-1.070, 1.031e-3
-1.071, 1.070e-3
-1.072, 1.093e-3
-1.073, 1.139e-3
-1.074, 1.165e-3
-1.075, 1.201e-3
-1.076, 1.240e-3
-1.077, 1.264e-3
-1.078, 1.308e-3
-1.079, 1.333e-3
-1.080, 1.367e-3
-1.081, 1.405e-3
-1.082, 1.428e-3
-1.083, 1.471e-3
-1.084, 1.496e-3
-1.085, 1.529e-3
-1.086, 1.566e-3
-1.087, 1.589e-3
-1.088, 1.634e-3
-1.089, 1.659e-3
-1.090, 1.693e-3
-1.091, 1.733e-3
-1.092, 1.757e-3
-1.093, 1.800e-3
-1.094, 1.827e-3
-1.095, 1.862e-3
-1.096, 1.901e-3
-1.097, 1.923e-3
-1.098, 1.966e-3
-1.099, 1.991e-3
-1.100, 2.024e-3
-1.101, 2.063e-3
-1.102, 2.088e-3
-1.103, 2.132e-3
-1.104, 2.159e-3
-1.105, 2.193e-3
-1.106, 2.230e-3
-1.107, 2.253e-3
-1.108, 2.297e-3
-1.109, 2.324e-3
-1.110, 2.358e-3
-1.111, 2.396e-3
-1.112, 2.419e-3
-1.113, 2.462e-3
-1.114, 2.488e-3
-1.115, 2.523e-3
-1.116, 2.563e-3
-1.117, 2.584e-3
-1.118, 2.627e-3
-1.119, 2.653e-3
-1.120, 2.686e-3
-1.121, 2.723e-3
-1.122, 2.749e-3
-1.123, 2.797e-3
-1.124, 2.821e-3
-1.125, 2.856e-3
-1.126, 2.898e-3
-1.127, 2.922e-3
-1.128, 2.965e-3
-1.129, 2.986e-3
-1.130, 3.015e-3
-1.131, 3.051e-3
-1.132, 3.077e-3
-1.133, 3.122e-3
-1.134, 3.151e-3
-1.135, 3.185e-3
-1.136, 3.225e-3
-1.137, 3.251e-3
-1.138, 3.297e-3
-1.139, 3.327e-3
-1.140, 3.364e-3
-1.141, 3.402e-3
-1.142, 3.426e-3
-1.143, 3.469e-3
-1.144, 3.496e-3
-1.145, 3.529e-3
-1.146, 3.569e-3
-1.147, 3.593e-3
-1.148, 3.637e-3
-1.149, 3.664e-3
-1.150, 3.700e-3
-1.151, 3.743e-3
-1.152, 3.768e-3
-1.153, 3.816e-3
-1.154, 3.846e-3
-1.155, 3.882e-3
-1.156, 3.921e-3
-1.157, 3.943e-3
-1.158, 3.985e-3
-1.159, 4.015e-3
-1.160, 4.051e-3
-1.161, 4.093e-3
-1.162, 4.117e-3
-1.163, 4.159e-3
-1.164, 4.187e-3
-1.165, 4.223e-3
-1.166, 4.261e-3
-1.167, 4.284e-3
-1.168, 4.328e-3
-1.169, 4.356e-3
-1.170, 4.389e-3
-1.171, 4.430e-3
-1.172, 4.457e-3
-1.173, 4.506e-3
-1.174, 4.536e-3
-1.175, 4.569e-3
-1.176, 4.612e-3
-1.177, 4.636e-3
-1.178, 4.680e-3
-1.179, 4.710e-3
-1.180, 4.747e-3
-1.181, 4.796e-3
-1.182, 4.822e-3
-1.183, 4.862e-3
-1.184, 4.888e-3
-1.185, 4.922e-3
-1.186, 4.968e-3
-1.187, 4.997e-3
-1.188, 5.045e-3
-1.189, 5.080e-3
-1.190, 5.128e-3
-1.191, 5.179e-3
-1.192, 5.205e-3
-1.193, 5.247e-3
-1.194, 5.277e-3
-1.195, 5.309e-3
-1.196, 5.348e-3
-1.197, 5.369e-3
-1.198, 5.416e-3
-1.199, 5.446e-3
-1.200, 5.482e-3
-1.201, 5.527e-3
-1.202, 5.558e-3
-1.203, 5.611e-3
-1.204, 5.651e-3
-1.205, 5.691e-3
-1.206, 5.736e-3
-1.207, 5.763e-3
-1.208, 5.812e-3
-1.209, 5.844e-3
-1.210, 5.880e-3
-1.211, 5.923e-3
-1.212, 5.950e-3
-1.213, 5.997e-3
-1.214, 6.031e-3
-1.215, 6.070e-3
-1.216, 6.110e-3
-1.217, 6.139e-3
-1.218, 6.191e-3
-1.219, 6.230e-3
-1.220, 6.273e-3
-1.221, 6.321e-3
-1.222, 6.357e-3
-1.223, 6.415e-3
-1.224, 6.453e-3
-1.225, 6.486e-3
-1.226, 6.536e-3
-1.227, 6.567e-3
-1.228, 6.614e-3
-1.229, 6.643e-3
-1.230, 6.682e-3
-1.231, 6.725e-3
-1.232, 6.750e-3
-1.233, 6.792e-3
-1.234, 6.821e-3
-1.235, 6.870e-3
-1.236, 6.922e-3
-1.237, 6.950e-3
-1.238, 7.003e-3
-1.239, 7.039e-3
-1.240, 7.080e-3
-1.241, 7.122e-3
-1.242, 7.142e-3
-1.243, 7.189e-3
-1.244, 7.230e-3
-1.245, 7.273e-3
-1.246, 7.324e-3
-1.247, 7.358e-3
-1.248, 7.413e-3
-1.249, 7.455e-3
-1.250, 7.504e-3
-1.251, 7.555e-3
-1.252, 7.591e-3
-1.253, 7.648e-3
-1.254, 7.686e-3
-1.255, 7.727e-3
-1.256, 7.773e-3
-1.257, 7.805e-3
-1.258, 7.858e-3
-1.259, 7.895e-3
-1.260, 7.939e-3
-1.261, 7.997e-3
-1.262, 8.028e-3
-1.263, 8.082e-3
-1.264, 8.111e-3
-1.265, 8.147e-3
-1.266, 8.194e-3
-1.267, 8.222e-3
-1.268, 8.274e-3
-1.269, 8.313e-3
-1.270, 8.352e-3
-1.271, 8.394e-3
-1.272, 8.424e-3
-1.273, 8.472e-3
-1.274, 8.510e-3
-1.275, 8.553e-3
-1.276, 8.604e-3
-1.277, 8.641e-3
-1.278, 8.686e-3
-1.279, 8.722e-3
-1.280, 8.766e-3
-1.281, 8.818e-3
-1.282, 8.856e-3
-1.283, 8.909e-3
-1.284, 8.964e-3
-1.285, 9.017e-3
-1.286, 9.049e-3
-1.287, 9.062e-3
-1.288, 9.118e-3
-1.289, 9.156e-3
-1.290, 9.184e-3
-1.291, 9.212e-3
-1.292, 9.247e-3
-1.293, 9.306e-3
-1.294, 9.342e-3
-1.295, 9.379e-3
-1.296, 9.434e-3
-1.297, 9.474e-3
-1.298, 9.533e-3
-1.299, 9.572e-3
-1.300, 9.612e-3
-1.301, 9.663e-3
-1.302, 9.694e-3
-1.303, 9.739e-3
-1.304, 9.766e-3
-1.305, 9.798e-3
-1.306, 9.841e-3
-1.307, 9.862e-3
-1.308, 9.901e-3
-1.309, 9.930e-3
-1.310, 9.959e-3
-1.311, 1.000e-2
-1.312, 1.002e-2
-1.313, 1.007e-2
-1.314, 1.009e-2
-1.315, 1.012e-2
-1.316, 1.014e-2
-1.317, 1.016e-2
-1.318, 1.021e-2
-1.319, 1.024e-2
-1.320, 1.027e-2
-1.321, 1.028e-2
-1.322, 1.029e-2
-1.323, 1.033e-2
-1.324, 1.036e-2
-1.325, 1.041e-2
-1.326, 1.046e-2
-1.327, 1.047e-2
-1.328, 1.051e-2
-1.329, 1.054e-2
-1.330, 1.057e-2
-1.331, 1.061e-2
-1.332, 1.063e-2
-1.333, 1.068e-2
-1.334, 1.069e-2
-1.335, 1.071e-2
-1.336, 1.073e-2
-1.337, 1.075e-2
-1.338, 1.078e-2
-1.339, 1.080e-2
-1.340, 1.082e-2
-1.341, 1.085e-2
-1.342, 1.085e-2
-1.343, 1.088e-2
-1.344, 1.090e-2
-1.345, 1.091e-2
-1.346, 1.094e-2
-1.347, 1.096e-2
-1.348, 1.100e-2
-1.349, 1.102e-2
-1.350, 1.105e-2
-1.351, 1.109e-2
-1.352, 1.110e-2
-1.353, 1.114e-2
-1.354, 1.116e-2
-1.355, 1.117e-2
-1.356, 1.119e-2
-1.357, 1.120e-2
-1.358, 1.123e-2
-1.359, 1.125e-2
-1.360, 1.127e-2
-1.361, 1.130e-2
-1.362, 1.131e-2
-1.363, 1.134e-2
-1.364, 1.136e-2
-1.365, 1.137e-2
-1.366, 1.138e-2
-1.367, 1.139e-2
-1.368, 1.144e-2
-1.369, 1.140e-2
-1.370, 1.139e-2
-1.371, 1.141e-2
-1.372, 1.141e-2
-1.373, 1.143e-2
-1.374, 1.144e-2
-1.375, 1.145e-2
-1.376, 1.148e-2
-1.377, 1.148e-2
-1.378, 1.152e-2
-1.379, 1.153e-2
-1.380, 1.154e-2
-1.381, 1.155e-2
-1.382, 1.154e-2
-1.383, 1.157e-2
-1.384, 1.158e-2
-1.385, 1.160e-2
-1.386, 1.163e-2
-1.387, 1.163e-2
-1.388, 1.165e-2
-1.389, 1.166e-2
-1.390, 1.166e-2
-1.391, 1.166e-2
-1.392, 1.165e-2
-1.393, 1.165e-2
-1.394, 1.165e-2
-1.395, 1.166e-2
-1.396, 1.170e-2
-1.397, 1.171e-2
-1.398, 1.176e-2
-1.399, 1.179e-2
-1.400, 1.169e-2
-1.399, 1.148e-2
-1.398, 1.126e-2
-1.397, 1.108e-2
-1.396, 1.088e-2
-1.395, 1.069e-2
-1.394, 1.053e-2
-1.393, 1.033e-2
-1.392, 1.017e-2
-1.391, 9.999e-3
-1.390, 9.826e-3
-1.389, 9.675e-3
-1.388, 9.505e-3
-1.387, 9.375e-3
-1.386, 9.238e-3
-1.385, 9.097e-3
-1.384, 8.964e-3
-1.383, 8.804e-3
-1.382, 8.669e-3
-1.381, 8.530e-3
-1.380, 8.401e-3
-1.379, 8.280e-3
-1.378, 8.141e-3
-1.377, 8.021e-3
-1.376, 7.899e-3
-1.375, 7.775e-3
-1.374, 7.664e-3
-1.373, 7.541e-3
-1.372, 7.436e-3
-1.371, 7.310e-3
-1.370, 7.187e-3
-1.369, 7.081e-3
-1.368, 6.953e-3
-1.367, 6.847e-3
-1.366, 6.731e-3
-1.365, 6.620e-3
-1.364, 6.531e-3
-1.363, 6.425e-3
-1.362, 6.340e-3
-1.361, 6.237e-3
-1.360, 6.128e-3
-1.359, 6.032e-3
-1.358, 5.919e-3
-1.357, 5.828e-3
-1.356, 5.726e-3
-1.355, 5.628e-3
-1.354, 5.540e-3
-1.353, 5.430e-3
-1.352, 5.349e-3
-1.351, 5.253e-3
-1.350, 5.159e-3
-1.349, 5.082e-3
-1.348, 4.979e-3
-1.347, 4.900e-3
-1.346, 4.809e-3
-1.345, 4.719e-3
-1.344, 4.642e-3
-1.343, 4.543e-3
-1.342, 4.464e-3
-1.341, 4.377e-3
-1.340, 4.293e-3
-1.339, 4.224e-3
-1.338, 4.132e-3
-1.337, 4.063e-3
-1.336, 3.982e-3
-1.335, 3.896e-3
-1.334, 3.826e-3
-1.333, 3.738e-3
-1.332, 3.666e-3
-1.331, 3.584e-3
-1.330, 3.504e-3
-1.329, 3.439e-3
-1.328, 3.359e-3
-1.327, 3.295e-3
-1.326, 3.221e-3
-1.325, 3.145e-3
-1.324, 3.086e-3
-1.323, 3.009e-3
-1.322, 2.950e-3
-1.321, 2.883e-3
-1.320, 2.813e-3
-1.319, 2.751e-3
-1.318, 2.671e-3
-1.317, 2.615e-3
-1.316, 2.546e-3
-1.315, 2.477e-3
-1.314, 2.420e-3
-1.313, 2.341e-3
-1.312, 2.288e-3
-1.311, 2.223e-3
-1.310, 2.160e-3
-1.309, 2.111e-3
-1.308, 2.039e-3
-1.307, 1.989e-3
-1.306, 1.927e-3
-1.305, 1.862e-3
-1.304, 1.812e-3
-1.303, 1.738e-3
-1.302, 1.686e-3
-1.301, 1.627e-3
-1.300, 1.562e-3
-1.299, 1.517e-3
-1.298, 1.453e-3
-1.297, 1.407e-3
-1.296, 1.352e-3
-1.295, 1.294e-3
-1.294, 1.253e-3
-1.293, 1.192e-3
-1.292, 1.147e-3
-1.291, 1.096e-3
-1.290, 1.042e-3
-1.289, 1.002e-3
-1.288, 9.414e-4
-1.287, 8.988e-4
-1.286, 8.471e-4
-1.285, 7.930e-4
-1.284, 7.539e-4
-1.283, 6.949e-4
-1.282, 6.551e-4
-1.281, 6.049e-4
-1.280, 5.516e-4
-1.279, 5.153e-4
-1.278, 4.588e-4
-1.277, 4.214e-4
-1.276, 3.744e-4
-1.275, 3.252e-4
-1.274, 2.903e-4
-1.273, 2.347e-4
-1.272, 1.998e-4
-1.271, 1.542e-4
-1.270, 1.060e-4
-1.269, 7.331e-5
-1.268, 1.851e-5
-1.267, -1.620e-5
-1.266, -5.995e-5
-1.265, -1.067e-4
-1.264, -1.374e-4
-1.263, -1.891e-4
-1.262, -2.223e-4
-1.261, -2.645e-4
-1.260, -3.106e-4
-1.259, -3.410e-4
-1.258, -3.906e-4
-1.257, -4.219e-4
-1.256, -4.617e-4
-1.255, -5.069e-4
-1.254, -5.353e-4
-1.253, -5.817e-4
-1.252, -6.124e-4
-1.251, -6.506e-4
-1.250, -6.932e-4
-1.249, -7.190e-4
-1.248, -7.660e-4
-1.247, -7.959e-4
-1.246, -8.348e-4
-1.245, -8.763e-4
-1.244, -9.044e-4
-1.243, -9.520e-4
-1.242, -9.809e-4
-1.241, -1.020e-3
-1.240, -1.061e-3
-1.239, -1.088e-3
-1.238, -1.135e-3
-1.237, -1.163e-3
-1.236, -1.200e-3
-1.235, -1.240e-3
-1.234, -1.265e-3
-1.233, -1.311e-3
-1.232, -1.337e-3
-1.231, -1.373e-3
-1.230, -1.413e-3
-1.229, -1.441e-3
-1.228, -1.487e-3
-1.227, -1.514e-3
-1.226, -1.549e-3
-1.225, -1.591e-3
-1.224, -1.615e-3
-1.223, -1.660e-3
-1.222, -1.690e-3
-1.221, -1.728e-3
-1.220, -1.769e-3
-1.219, -1.794e-3
-1.218, -1.841e-3
-1.217, -1.871e-3
-1.216, -1.906e-3
-1.215, -1.944e-3
-1.214, -1.970e-3
-1.213, -2.014e-3
-1.212, -2.043e-3
-1.211, -2.079e-3
-1.210, -2.119e-3
-1.209, -2.145e-3
-1.208, -2.189e-3
-1.207, -2.217e-3
-1.206, -2.254e-3
-1.205, -2.295e-3
-1.204, -2.320e-3
-1.203, -2.367e-3
-1.202, -2.397e-3
-1.201, -2.433e-3
-1.200, -2.475e-3
-1.199, -2.502e-3
-1.198, -2.550e-3
-1.197, -2.580e-3
-1.196, -2.618e-3
-1.195, -2.661e-3
-1.194, -2.688e-3
-1.193, -2.735e-3
-1.192, -2.764e-3
-1.191, -2.803e-3
-1.190, -2.851e-3
-1.189, -2.878e-3
-1.188, -2.926e-3
-1.187, -2.954e-3
-1.186, -2.993e-3
-1.185, -3.037e-3
-1.184, -3.065e-3
-1.183, -3.115e-3
-1.182, -3.149e-3
-1.181, -3.187e-3
-1.180, -3.232e-3
-1.179, -3.261e-3
-1.178, -3.314e-3
-1.177, -3.349e-3
-1.176, -3.389e-3
-1.175, -3.435e-3
-1.174, -3.469e-3
-1.173, -3.519e-3
-1.172, -3.554e-3
-1.171, -3.596e-3
-1.170, -3.643e-3
-1.169, -3.670e-3
-1.168, -3.721e-3
-1.167, -3.752e-3
-1.166, -3.791e-3
-1.165, -3.837e-3
-1.164, -3.869e-3
-1.163, -3.920e-3
-1.162, -3.955e-3
-1.161, -3.997e-3
-1.160, -4.046e-3
-1.159, -4.080e-3
-1.158, -4.133e-3
-1.157, -4.165e-3
-1.156, -4.213e-3
-1.155, -4.258e-3
-1.154, -4.283e-3
-1.153, -4.329e-3
-1.152, -4.358e-3
-1.151, -4.394e-3
-1.150, -4.439e-3
-1.149, -4.469e-3
-1.148, -4.529e-3
-1.147, -4.571e-3
-1.146, -4.621e-3
-1.145, -4.677e-3
-1.144, -4.715e-3
-1.143, -4.774e-3
-1.142, -4.808e-3
-1.141, -4.844e-3
-1.140, -4.897e-3
-1.139, -4.927e-3
-1.138, -4.976e-3
-1.137, -5.015e-3
-1.136, -5.050e-3
-1.135, -5.094e-3
-1.134, -5.124e-3
-1.133, -5.178e-3
-1.132, -5.214e-3
-1.131, -5.251e-3
-1.130, -5.297e-3
-1.129, -5.329e-3
-1.128, -5.383e-3
-1.127, -5.419e-3
-1.126, -5.460e-3
-1.125, -5.511e-3
-1.124, -5.546e-3
-1.123, -5.598e-3
-1.122, -5.635e-3
-1.121, -5.678e-3
-1.120, -5.724e-3
-1.119, -5.758e-3
-1.118, -5.840e-3
-1.117, -5.864e-3
-1.116, -5.903e-3
-1.115, -5.947e-3
-1.114, -5.979e-3
-1.113, -6.028e-3
-1.112, -6.066e-3
-1.111, -6.104e-3
-1.110, -6.148e-3
-1.109, -6.176e-3
-1.108, -6.228e-3
-1.107, -6.262e-3
-1.106, -6.300e-3
-1.105, -6.349e-3
-1.104, -6.369e-3
-1.103, -6.422e-3
-1.102, -6.451e-3
-1.101, -6.489e-3
-1.100, -6.536e-3
-1.099, -6.558e-3
-1.098, -6.605e-3
-1.097, -6.643e-3
-1.096, -6.681e-3
-1.095, -6.725e-3
-1.094, -6.758e-3
-1.093, -6.813e-3
-1.092, -6.848e-3
-1.091, -6.885e-3
-1.090, -6.916e-3
-1.089, -6.928e-3
-1.088, -6.987e-3
-1.087, -7.022e-3
-1.086, -7.054e-3
-1.085, -7.098e-3
-1.084, -7.122e-3
-1.083, -7.160e-3
-1.082, -7.183e-3
-1.081, -7.217e-3
-1.080, -7.255e-3
-1.079, -7.270e-3
-1.078, -7.308e-3
-1.077, -7.342e-3
-1.076, -7.371e-3
-1.075, -7.415e-3
-1.074, -7.432e-3
-1.073, -7.475e-3
-1.072, -7.501e-3
-1.071, -7.532e-3
-1.070, -7.576e-3
-1.069, -7.597e-3
-1.068, -7.633e-3
-1.067, -7.653e-3
-1.066, -7.676e-3
-1.065, -7.714e-3
-1.064, -7.741e-3
-1.063, -7.789e-3
-1.062, -7.820e-3
-1.061, -7.843e-3
-1.060, -7.877e-3
-1.059, -7.892e-3
-1.058, -7.923e-3
-1.057, -7.935e-3
-1.056, -7.960e-3
-1.055, -7.995e-3
-1.054, -8.011e-3
-1.053, -8.040e-3
-1.052, -8.038e-3
-1.051, -8.046e-3
-1.050, -8.065e-3
-1.049, -8.066e-3
-1.048, -8.109e-3
-1.047, -8.125e-3
-1.046, -8.142e-3
-1.045, -8.169e-3
-1.044, -8.195e-3
-1.043, -8.235e-3
-1.042, -8.256e-3
-1.041, -8.275e-3
-1.040, -8.295e-3
-1.039, -8.304e-3
-1.038, -8.331e-3
-1.037, -8.344e-3
-1.036, -8.365e-3
-1.035, -8.398e-3
-1.034, -8.412e-3
-1.033, -8.443e-3
-1.032, -8.457e-3
-1.031, -8.478e-3
-1.030, -8.509e-3
-1.029, -8.525e-3
-1.028, -8.564e-3
-1.027, -8.584e-3
-1.026, -8.599e-3
-1.025, -8.624e-3
-1.024, -8.631e-3
-1.023, -8.659e-3
-1.022, -8.668e-3
-1.021, -8.675e-3
-1.020, -8.693e-3
-1.019, -8.710e-3
-1.018, -8.734e-3
-1.017, -8.747e-3
-1.016, -8.757e-3
-1.015, -8.770e-3
-1.014, -8.770e-3
-1.013, -8.802e-3
-1.012, -8.814e-3
-1.011, -8.826e-3
-1.010, -8.846e-3
-1.009, -8.850e-3
-1.008, -8.876e-3
-1.007, -8.897e-3
-1.006, -8.920e-3
-1.005, -8.950e-3
-1.004, -8.955e-3
-1.003, -8.976e-3
-1.002, -8.994e-3
-1.001, -9.002e-3
