Potential V vs RHE, Current mA cm-2
0.4132999999999999,-0.010477351886800462
0.4122999999999999,-0.011955725195159425
0.4112999999999999,-0.012339111957422851
0.4102999999999999,-0.012588101146199097
0.4092999999999999,-0.012763525347382362
0.4082999999999999,-0.012844163891474669
0.4072999999999999,-0.012972902619762385
0.4062999999999999,-0.013052126452554828
0.4052999999999999,-0.013186524026042009
0.4042999999999999,-0.013312433331729994
0.4032999999999999,-0.013361948227225272
0.4022999999999999,-0.013434098503518389
0.4012999999999999,-0.0135104929137111
0.4002999999999999,-0.013609522704701654
0.3992999999999999,-0.013711381918291935
0.3982999999999999,-0.013769385081586403
0.3972999999999999,-0.013808996997982624
0.3962999999999999,-0.013902367943773714
0.3952999999999999,-0.013964615240967778
0.3942999999999999,-0.014032521383361298
0.39329999999999987,-0.014086280412756171
0.39229999999999987,-0.014137210019551311
0.39129999999999987,-0.014189554337646317
0.39029999999999987,-0.01426028990263957
0.38929999999999987,-0.014345172580631472
0.38829999999999987,-0.014373466806628774
0.38729999999999987,-0.014401761032626074
0.38629999999999987,-0.014472496597619325
0.38529999999999986,-0.014557379275611227
0.38429999999999986,-0.014628114840604478
0.38329999999999986,-0.01465640906660178
0.38229999999999986,-0.01469885040559773
0.38129999999999986,-0.014741291744593682
0.38029999999999986,-0.014840321535584235
0.37929999999999986,-0.014911057100577486
0.37829999999999986,-0.014939351326574786
0.37729999999999986,-0.014967645552572089
0.37629999999999986,-0.014995939778569388
0.37529999999999986,-0.015080822456561293
0.37429999999999986,-0.015137410908555892
0.37329999999999985,-0.015165705134553195
0.37229999999999985,-0.015208146473549147
0.37129999999999985,-0.015250587812545097
0.37029999999999985,-0.015335470490536997
0.36929999999999985,-0.015406206055530251
0.36829999999999985,-0.015406206055530251
0.36729999999999985,-0.015448647394526203
0.36629999999999985,-0.015476941620523503
0.36529999999999985,-0.015547677185516754
0.36429999999999985,-0.015604265637511355
0.36329999999999985,-0.015618412750510005
0.36229999999999984,-0.015646706976507305
0.36129999999999984,-0.015703295428501907
0.36029999999999984,-0.01575988388049651
0.35929999999999984,-0.01583061944548976
0.35829999999999984,-0.01581647233249111
0.35729999999999984,-0.015873060784485714
0.35629999999999984,-0.01591550212348166
0.35529999999999984,-0.015986237688474913
0.35429999999999984,-0.016042826140469518
0.35329999999999984,-0.01608526747946547
0.35229999999999984,-0.016099414592464115
0.35129999999999983,-0.016127708818461418
0.35029999999999983,-0.01618429727045602
0.34929999999999983,-0.01624088572245062
0.34829999999999983,-0.01624088572245062
0.34729999999999983,-0.016311621287443873
0.34629999999999983,-0.016339915513441175
0.34529999999999983,-0.016424798191433075
0.34429999999999983,-0.01646723953042903
0.3432999999999998,-0.016495533756426328
0.3422999999999998,-0.01652382798242363
0.3412999999999998,-0.01656626932141958
0.3402999999999998,-0.016637004886412832
0.3392999999999998,-0.016693593338407434
0.3382999999999998,-0.01670774045140608
0.3372999999999998,-0.01673603467740338
0.3362999999999998,-0.016764328903400686
0.3352999999999998,-0.016849211581392583
0.3342999999999998,-0.01690580003338719
0.3332999999999998,-0.01691994714638584
0.3322999999999998,-0.016962388485381792
0.3312999999999998,-0.01699068271137909
0.3302999999999998,-0.017075565389370995
0.3292999999999998,-0.017146300954364244
0.3282999999999998,-0.017160448067362895
0.3272999999999998,-0.017188742293360197
0.3262999999999998,-0.017202889406358845
0.3252999999999999,-0.017273624971352097
0.3242999999999999,-0.01731606631034805
0.3232999999999999,-0.01731606631034805
0.3222999999999999,-0.017358507649344
0.3212999999999999,-0.017400948988339954
0.3202999999999999,-0.017471684553333203
0.3192999999999999,-0.017542420118326456
0.3182999999999999,-0.0175282730053278
0.3172999999999999,-0.017556567231325104
0.3162999999999999,-0.017599008570321057
0.3152999999999999,-0.01765559702231566
0.3142999999999999,-0.01772633258730891
0.3132999999999999,-0.01774047970030756
0.3122999999999999,-0.017754626813306213
0.3112999999999999,-0.017782921039303512
0.3102999999999999,-0.017867803717295416
0.3092999999999999,-0.017924392169290013
0.3082999999999999,-0.017938539282288665
0.3072999999999999,-0.017966833508285963
0.3062999999999999,-0.017995127734283266
0.3052999999999999,-0.018065863299276518
0.3042999999999999,-0.01812245175127112
0.3032999999999999,-0.01813659886426977
0.3022999999999999,-0.01817904020326572
0.3012999999999999,-0.01820733442926302
0.3002999999999999,-0.018306364220253574
0.2992999999999999,-0.018320511333252226
0.2982999999999999,-0.018334658446250877
0.2972999999999999,-0.018348805559249524
0.2962999999999999,-0.018377099785246823
0.2952999999999999,-0.018461982463238727
0.2942999999999999,-0.018546865141230634
0.2932999999999999,-0.01856101225422928
0.2922999999999999,-0.01858930648022658
0.2912999999999999,-0.018617600706223883
0.2902999999999999,-0.018702483384215783
0.2892999999999999,-0.018759071836210388
0.2882999999999999,-0.018759071836210388
0.2872999999999999,-0.018787366062207687
0.2862999999999999,-0.018815660288204986
0.2852999999999999,-0.018900542966196893
0.2842999999999999,-0.01897127853119014
0.2832999999999999,-0.018985425644188793
0.2822999999999999,-0.019013719870186095
0.2812999999999999,-0.019056161209182042
0.2802999999999999,-0.019112749661176646
0.2792999999999999,-0.0191551910001726
0.2782999999999999,-0.019169338113171244
0.2772999999999999,-0.0191834852261699
0.2762999999999999,-0.01922592656516585
0.2752999999999999,-0.0192966621301591
0.2742999999999999,-0.019353250582153703
0.2732999999999999,-0.019367397695152354
0.2722999999999999,-0.019381544808151
0.2712999999999999,-0.019452280373144254
0.2702999999999999,-0.01950886882513886
0.2692999999999999,-0.019551310164134805
0.26829999999999987,-0.01959375150313076
0.26729999999999987,-0.01959375150313076
0.26629999999999987,-0.01963619284212671
0.26529999999999987,-0.01970692840711996
0.26429999999999987,-0.019749369746115915
0.26329999999999987,-0.019749369746115915
0.26229999999999987,-0.019777663972113214
0.26129999999999987,-0.019820105311109164
0.26029999999999986,-0.019904987989101064
0.25929999999999986,-0.019947429328097017
0.25829999999999986,-0.019989870667092968
0.25729999999999986,-0.02000401778009162
0.25629999999999986,-0.02003231200608892
0.25529999999999986,-0.02008890045808352
0.25429999999999986,-0.02015963602307677
0.25329999999999986,-0.02015963602307677
0.25229999999999986,-0.02020207736207272
0.25129999999999986,-0.020230371588070024
0.25029999999999986,-0.020315254266061927
0.24929999999999986,-0.020400136944053827
0.24829999999999985,-0.02038598983105518
0.24729999999999985,-0.020400136944053827
0.24629999999999985,-0.020442578283049778
0.24529999999999985,-0.02055575518703898
0.24429999999999985,-0.020626490752032236
0.24329999999999985,-0.020612343639033585
0.24229999999999985,-0.020654784978029535
0.24129999999999985,-0.020683079204026837
0.24029999999999985,-0.020725520543022787
0.23929999999999985,-0.020810403221014687
0.23829999999999985,-0.020824550334013342
0.23729999999999984,-0.02085284456001064
0.23629999999999984,-0.020909433012005242
0.23529999999999984,-0.020951874351001196
0.23429999999999984,-0.021022609915994445
0.23329999999999984,-0.021036757028993096
0.23229999999999984,-0.021065051254990398
0.23129999999999984,-0.021121639706984996
0.23029999999999984,-0.0211782281589796
0.22929999999999984,-0.02124896372397285
0.22829999999999984,-0.0212631108369715
0.22729999999999984,-0.0212631108369715
0.22629999999999983,-0.021291405062968803
0.22529999999999983,-0.021376287740960703
0.22429999999999983,-0.021447023305953956
0.22329999999999983,-0.021461170418952607
0.22229999999999983,-0.021517758870947205
0.22129999999999983,-0.02153190598394586
0.22029999999999983,-0.02163093577493641
0.21929999999999983,-0.02165923000093371
0.21829999999999983,-0.02167337711393236
0.21729999999999983,-0.021715818452928314
0.21629999999999983,-0.021744112678925617
0.21529999999999982,-0.021828995356917517
0.21429999999999982,-0.021885583808912118
0.21329999999999982,-0.02189973092191077
0.21229999999999982,-0.02194217226090672
0.21129999999999982,-0.021956319373905367
0.21029999999999982,-0.022027054938898623
0.20929999999999982,-0.022097790503891875
0.20829999999999982,-0.022111937616890523
0.20729999999999982,-0.022154378955886473
0.20629999999999982,-0.02218267318188378
0.20529999999999982,-0.02226755585987568
0.20429999999999982,-0.02232414431187028
0.20329999999999981,-0.022338291424868928
0.2022999999999998,-0.02238073276386488
0.2012999999999998,-0.02240902698986218
0.20029999999999992,-0.02245146832885813
0.19929999999999992,-0.022536351006850038
0.19829999999999992,-0.022550498119848682
0.19729999999999992,-0.022578792345845984
0.19629999999999992,-0.022621233684841938
0.19529999999999992,-0.022691969249835187
0.19429999999999992,-0.02279099904082574
0.19329999999999992,-0.022833440379821688
0.19229999999999992,-0.022819293266823044
0.19129999999999991,-0.022847587492820343
0.1902999999999999,-0.022890028831816296
0.1892999999999999,-0.022960764396809545
0.1882999999999999,-0.022989058622806844
0.1872999999999999,-0.023031499961802798
0.1862999999999999,-0.023073941300798748
0.1852999999999999,-0.023144676865792004
0.1842999999999999,-0.0232012653177866
0.1832999999999999,-0.0232295595437839
0.1822999999999999,-0.023215412430785252
0.1812999999999999,-0.02327200088277985
0.1802999999999999,-0.023356883560771757
0.1792999999999999,-0.02341347201276636
0.1782999999999999,-0.023427619125765006
0.1772999999999999,-0.02347006046476096
0.1762999999999999,-0.023498354690758262
0.1752999999999999,-0.023583237368750162
0.1742999999999999,-0.023639825820744764
0.1732999999999999,-0.023639825820744764
0.1722999999999999,-0.023682267159740714
0.1712999999999999,-0.023724708498736664
0.1702999999999999,-0.023809591176728567
0.1692999999999999,-0.02388032674172182
0.1682999999999999,-0.02389447385472047
0.1672999999999999,-0.02393691519371642
0.1662999999999999,-0.023965209419713723
0.1652999999999999,-0.024050092097705623
0.1642999999999999,-0.024134974775697527
0.1632999999999999,-0.024134974775697527
0.1622999999999999,-0.024163269001694826
0.1612999999999999,-0.02420571034069078
0.1602999999999999,-0.02429059301868268
0.1592999999999999,-0.024375475696674583
0.15829999999999989,-0.024375475696674583
0.15729999999999988,-0.024403769922671882
0.15629999999999988,-0.024460358374666487
0.15529999999999988,-0.02453109393965974
0.15429999999999988,-0.024587682391654337
0.15329999999999988,-0.024630123730650287
0.15229999999999988,-0.024644270843648942
0.15129999999999988,-0.02468671218264489
0.15029999999999988,-0.024771594860636792
0.14929999999999988,-0.024842330425630044
0.14829999999999988,-0.024870624651627343
0.14729999999999988,-0.024884771764625994
0.14629999999999987,-0.0249413602166206
0.14529999999999987,-0.025012095781613848
0.14429999999999987,-0.02506868423360845
0.14329999999999987,-0.0251111255726044
0.14229999999999987,-0.025139419798601705
0.14129999999999987,-0.025181861137597652
0.14029999999999987,-0.025266743815589552
0.13929999999999987,-0.025323332267584157
0.13829999999999987,-0.025365773606580107
0.13729999999999987,-0.02539406783257741
0.13629999999999987,-0.02543650917157336
0.13529999999999986,-0.02553553896256391
0.13429999999999986,-0.025577980301559864
0.13329999999999986,-0.025606274527557166
0.13229999999999986,-0.025662862979551764
0.13129999999999986,-0.025677010092550415
0.13029999999999986,-0.025747745657543668
0.12929999999999986,-0.025818481222536924
0.12829999999999986,-0.025860922561532867
0.12729999999999986,-0.02587506967453152
0.12629999999999986,-0.02591751101352747
0.12529999999999986,-0.025988246578520724
0.12429999999999986,-0.026101423482509926
0.12329999999999985,-0.026101423482509926
0.12229999999999985,-0.02614386482150588
0.12129999999999985,-0.026186306160501827
0.12029999999999985,-0.02627118883849373
0.11929999999999985,-0.026341924403486983
0.11829999999999985,-0.026370218629484285
0.11729999999999985,-0.026412659968480235
0.11629999999999985,-0.026483395533473487
0.11529999999999985,-0.026539983985468085
0.11429999999999985,-0.026639013776458643
0.11329999999999985,-0.02668145511545459
0.11229999999999984,-0.02668145511545459
0.11129999999999984,-0.026752190680447843
0.11029999999999984,-0.026837073358439746
0.10929999999999984,-0.026893661810434347
0.10829999999999984,-0.02692195603643165
0.10729999999999984,-0.0269643973754276
0.10629999999999984,-0.027006838714423546
0.10529999999999984,-0.02709172139241545
0.10429999999999984,-0.027176604070407354
0.10329999999999984,-0.027219045409403307
0.10229999999999984,-0.027247339635400606
0.10129999999999983,-0.02727563386139791
0.10029999999999983,-0.027374663652388463
0.09929999999999983,-0.02743125210438306
0.09829999999999983,-0.027473693443379014
0.09729999999999983,-0.027516134782374965
0.09629999999999983,-0.02755857612137091
0.09529999999999983,-0.027671753025360117
0.09429999999999983,-0.02772834147735472
0.09329999999999983,-0.02775663570335202
0.09229999999999983,-0.027813224155346622
0.09129999999999983,-0.027869812607341227
0.09029999999999982,-0.027954695285333123
0.08929999999999982,-0.02802543085032638
0.08829999999999982,-0.028053725076323675
0.08729999999999982,-0.028082019302320977
0.08629999999999982,-0.02813860775431558
0.08529999999999982,-0.028237637545306133
0.08429999999999982,-0.028336667336296688
0.08329999999999982,-0.028350814449295336
0.08229999999999982,-0.028407402901289937
0.08129999999999982,-0.028449844240285887
0.08029999999999982,-0.028534726918277787
0.07929999999999982,-0.028633756709268345
0.07829999999999981,-0.028662050935265648
0.07729999999999981,-0.028690345161262943
0.07629999999999981,-0.028746933613257548
0.07529999999999992,-0.028831816291249444
0.07429999999999992,-0.0289025518562427
0.07329999999999992,-0.02894499319523865
0.07229999999999992,-0.028987434534234607
0.07129999999999992,-0.029058170099227856
0.07029999999999992,-0.029143052777219756
0.06929999999999992,-0.02921378834221301
0.06829999999999992,-0.02922793545521166
0.06729999999999992,-0.02927037679420761
0.06629999999999991,-0.029341112359200863
0.06529999999999991,-0.029440142150191414
0.06429999999999991,-0.029510877715184666
0.06329999999999991,-0.029553319054180613
0.06229999999999991,-0.02959576039317657
0.06129999999999991,-0.029652348845171168
0.06029999999999991,-0.029765525749160374
0.05929999999999991,-0.029836261314153626
0.05829999999999991,-0.029878702653149573
0.05729999999999991,-0.029906996879146875
0.056299999999999906,-0.029963585331141473
0.055299999999999905,-0.030048468009133376
0.054299999999999904,-0.03014749780012393
0.0532999999999999,-0.03018993913911988
0.0522999999999999,-0.030246527591114486
0.0512999999999999,-0.030260674704113137
0.0502999999999999,-0.030359704495103685
0.0492999999999999,-0.030458734286094236
0.0482999999999999,-0.030501175625090193
0.0472999999999999,-0.030571911190083446
0.0462999999999999,-0.030614352529079396
0.045299999999999896,-0.030713382320069947
0.044299999999999895,-0.03079826499806185
0.043299999999999894,-0.03082655922405915
0.04229999999999989,-0.030883147676053754
0.04129999999999989,-0.030939736128048352
0.04029999999999989,-0.031067060145036202
0.03929999999999989,-0.031151942823028106
0.03829999999999989,-0.031194384162024056
0.03729999999999989,-0.03123682550102001
0.03629999999999989,-0.03129341395301461
0.03529999999999989,-0.03136414951800787
0.034299999999999886,-0.03146317930899842
0.033299999999999885,-0.031505620647994365
0.032299999999999884,-0.03151976776099302
0.031299999999999883,-0.03160465043898492
0.030299999999999883,-0.03170368022997547
0.02929999999999988,-0.031802710020966025
0.02829999999999988,-0.03184515135996198
0.02729999999999988,-0.03191588692495523
0.02629999999999988,-0.03200076960294713
0.025299999999999878,-0.03209979939393768
0.024299999999999877,-0.03217053495893094
0.023299999999999876,-0.03221297629792688
0.022299999999999875,-0.032255417636922835
0.021299999999999875,-0.03229785897591879
0.020299999999999874,-0.03243933010590529
0.019299999999999873,-0.032524212783897194
0.018299999999999872,-0.03258080123589179
0.01729999999999987,-0.032637389687886396
0.01629999999999987,-0.032693978139880994
0.01529999999999987,-0.03282130215686885
0.014299999999999868,-0.03293447906085806
0.013299999999999867,-0.032976920399854
0.012299999999999978,-0.03303350885184861
0.011299999999999866,-0.033104244416841865
0.010299999999999976,-0.03321742132083106
0.009299999999999864,-0.03331645111182161
0.008299999999999974,-0.03337303956381622
0.007299999999999862,-0.033457922241808116
0.006299999999999972,-0.03350036358080407
0.00529999999999986,-0.033627687597791917
0.0042999999999999705,-0.033740864501781126
0.0032999999999998586,-0.03376915872777843
0.0022999999999999687,-0.033825747179773026
0.0012999999999998568,-0.033896482744766275
0.00029999999999996696,-0.034009659648755484
-0.000700000000000145,-0.03413698366574334
-0.0017000000000000348,-0.034179425004739285
-0.0027000000000001467,-0.034264307682731185
-0.0037000000000000366,-0.034335043247724434
-0.0047000000000001485,-0.03441992592571634
-0.005700000000000038,-0.034547249942704195
-0.00670000000000015,-0.0345755441687015
-0.00770000000000004,-0.0346038383946988
-0.008700000000000152,-0.0346887210726907
-0.009700000000000042,-0.03481604508967855
-0.010700000000000154,-0.03495751621966506
-0.011700000000000044,-0.03501410467165966
-0.012700000000000156,-0.0350565460106556
-0.013700000000000045,-0.035127281575648865
-0.014700000000000157,-0.03524045847963807
-0.015700000000000047,-0.03536778249662592
-0.01670000000000016,-0.03545266517461782
-0.01770000000000005,-0.03549510651361377
-0.01870000000000016,-0.035579989191605675
-0.01970000000000005,-0.03569316609559487
-0.020700000000000163,-0.03577804877358678
-0.021700000000000053,-0.03584878433858003
-0.022700000000000164,-0.03590537279057463
-0.023700000000000054,-0.03600440258156519
-0.024700000000000166,-0.036131726598553036
-0.025700000000000056,-0.036230756389543595
-0.026700000000000168,-0.03631563906753549
-0.027700000000000058,-0.03638637463252875
-0.02870000000000017,-0.03642881597152469
-0.02970000000000006,-0.03655613998851255
-0.03070000000000017,-0.0366834640055004
-0.03170000000000006,-0.03675419957049365
-0.03270000000000017,-0.03679664090948961
-0.03370000000000006,-0.03689567070048015
-0.034700000000000175,-0.03700884760446936
-0.035700000000000065,-0.037150318734455866
-0.03670000000000018,-0.037206907186450464
-0.03770000000000007,-0.037291789864442364
-0.03870000000000018,-0.03736252542943562
-0.03970000000000007,-0.03747570233342482
-0.04070000000000018,-0.037603026350412676
-0.04170000000000007,-0.03763132057640997
-0.04270000000000018,-0.03771620325440188
-0.04370000000000007,-0.037772791706396476
-0.044700000000000184,-0.037885968610385685
-0.045700000000000074,-0.03801329262737353
-0.046700000000000186,-0.03806988107936814
-0.047700000000000076,-0.038126469531362735
-0.04870000000000019,-0.03822549932235329
-0.04970000000000008,-0.03835282333934115
-0.05070000000000019,-0.03846600024333035
-0.05170000000000008,-0.038522588695324954
-0.05270000000000019,-0.0385650300343209
-0.05370000000000008,-0.038621618486315505
-0.05470000000000019,-0.03874894250330335
-0.05570000000000008,-0.03886211940729256
-0.056700000000000195,-0.03893285497228581
-0.057700000000000085,-0.039003590537279066
-0.058700000000000196,-0.039088473215270966
-0.059700000000000086,-0.03920165011926016
-0.0607000000000002,-0.03930067991025072
-0.06170000000000009,-0.03939970970124127
-0.0627000000000002,-0.03947044526623452
-0.06370000000000009,-0.039527033718229125
-0.0647000000000002,-0.03966850484821563
-0.06570000000000009,-0.03978168175220483
