Potential V vs RHE, Current mA cm-2
0.013299999999999867,3.1378296631006513
0.012299999999999978,1.219056727093702
0.011299999999999866,-0.6128529351015338
0.010299999999999976,-2.3569090255751513
0.009299999999999864,-4.014950669016974
0.008299999999999974,-5.672992312458796
0.007299999999999862,-7.199465805013171
0.006299999999999972,-8.68208324727173
0.00529999999999986,-10.120844639234473
0.0042999999999999705,-11.517164692201263
0.0032999999999998586,-12.869628694872238
0.0022999999999999687,-14.175407224647667
0.0012999999999998568,-15.448647394526201
0.00029999999999996696,-16.622857773414182
-0.000700000000000145,-17.75462681330621
-0.0017000000000000348,-18.88639585319824
-0.0027000000000001467,-19.93328221509837
-0.0037000000000000366,-20.93772723800254
-0.0047000000000001485,-21.94217226090672
-0.005700000000000038,-22.904175944814945
-0.00670000000000015,-23.86617962872317
-0.00770000000000004,-24.729153521640843
-0.008700000000000152,-25.648715866553115
-0.009700000000000042,-26.525836872469437
-0.010700000000000154,-27.34636942639116
-0.011700000000000044,-28.18104909331153
-0.012700000000000156,-28.959140308237306
-0.013700000000000045,-29.708937297165768
-0.014700000000000157,-30.487028512091538
-0.015700000000000047,-31.19438416202406
-0.01670000000000016,-31.887592698957924
-0.01770000000000005,-32.53835989689585
-0.01870000000000016,-33.18912709483376
-0.01970000000000005,-33.81160006677438
-0.020700000000000163,-34.377484586720385
-0.021700000000000053,-34.94336910666641
-0.022700000000000164,-35.50925362661242
-0.023700000000000054,-36.11757948555439
-0.024700000000000166,-36.6834640055004
-0.025700000000000056,-37.206907186450465
-0.026700000000000168,-37.73035036740053
-0.027700000000000058,-38.253793548350586
-0.02870000000000017,-38.734795390304704
-0.02970000000000006,-39.258238571254765
-0.03070000000000017,-39.696799074212926
-0.03170000000000006,-40.135359577171094
-0.03270000000000017,-40.559772967130606
-0.03370000000000006,-40.99833347008877
-0.034700000000000175,-41.39445263405098
-0.035700000000000065,-41.79057179801318
-0.03670000000000018,-42.186690961975394
-0.03770000000000007,-42.568663012938956
-0.03870000000000018,-42.92234083790521
-0.03970000000000007,-43.27601866287147
-0.04070000000000018,-43.657990713835034
-0.04170000000000007,-44.011668538801295
-0.04270000000000018,-44.36534636376755
-0.04370000000000007,-44.74731841473111
-0.044700000000000184,-45.10099623969737
-0.045700000000000074,-45.412232725667685
-0.046700000000000186,-45.75176343763528
-0.047700000000000076,-46.02055858460964
-0.04870000000000019,-46.27520661858535
-0.04970000000000008,-46.586443104555656
-0.05070000000000019,-46.84109113853137
-0.05170000000000008,-47.15232762450167
-0.05270000000000019,-47.40697565847737
-0.05370000000000008,-47.71821214444768
-0.05470000000000019,-47.987007291422046
-0.05570000000000008,-48.1992139864018
-0.056700000000000195,-48.51045047237211
-0.057700000000000085,-48.80753984534376
-0.058700000000000196,-49.076334992318124
-0.059700000000000086,-49.373424365289786
-0.0607000000000002,-49.642219512264134
-0.06170000000000009,-49.89686754623985
-0.0627000000000002,-50.1656626932142
-0.06370000000000009,-50.37786938819396
-0.0647000000000002,-50.60422319617236
-0.06570000000000009,-50.77398855215617
-0.0667000000000002,-51.028636586131874
-0.0677000000000001,-51.29743173310623
-0.0687000000000002,-51.509638428085985
-0.0697000000000001,-51.77843357506035
-0.07070000000000021,-51.990640270040096
-0.0717000000000001,-52.25943541701445
-0.07270000000000021,-52.514083450990164
-0.0737000000000001,-52.74043725896857
-0.07470000000000021,-52.995085292944275
-0.0757000000000001,-53.26388043991864
-0.07670000000000021,-53.476087134898386
-0.0777000000000001,-53.68829382987814
-0.07870000000000021,-53.91464763785655
-0.0797000000000001,-54.08441299384035
-0.08070000000000022,-54.26832546282281
-0.0817000000000001,-54.52297349679851
-0.08270000000000022,-54.69273885278232
-0.08370000000000011,-54.961533999756675
-0.08470000000000022,-55.21618203373238
-0.08570000000000011,-55.442535841710786
-0.08670000000000022,-55.6971838756865
-0.08770000000000011,-55.96597902266086
-0.08870000000000022,-56.22062705663656
-0.08970000000000011,-56.44698086461496
-0.09070000000000022,-56.70162889859067
-0.09170000000000011,-56.927982706569075
-0.09270000000000023,-57.14018940154883
-0.09370000000000012,-57.352396096528594
-0.09470000000000023,-57.57874990450699
-0.09570000000000012,-57.79095659948675
-0.09670000000000023,-58.017310407465146
-0.09770000000000012,-58.27195844144086
-0.09870000000000023,-58.498312249419264
-0.09970000000000012,-58.75296028339497
-0.10070000000000023,-59.02175543036933
-0.10170000000000012,-59.27640346434504
-0.10270000000000024,-59.54519861131939
-0.10370000000000013,-59.757405306299155
-0.10470000000000024,-60.06864179226946
-0.10570000000000013,-60.28084848724921
-0.10670000000000024,-60.54964363422357
-0.10770000000000013,-60.761850329203334
-0.10870000000000024,-61.01649836317903
-0.10970000000000013,-61.242852171157445
-0.11070000000000024,-61.49750020513315
-0.11170000000000013,-61.7662953521075
-0.11270000000000002,-61.97850204708726
-0.11370000000000013,-62.24729719406162
-0.11470000000000002,-62.501945228037314
-0.11570000000000014,-62.81318171400764
-0.11670000000000003,-63.06782974798333
-0.11770000000000014,-63.37906623395363
-0.11870000000000003,-63.6761556069253
-0.11970000000000014,-63.98739209289561
-0.12070000000000003,-64.29862857886593
-0.12170000000000014,-64.51083527384567
-0.12270000000000003,-64.77963042082003
-0.12370000000000014,-65.03427845479574
-0.12470000000000003,-65.3030736017701
-0.12570000000000014,-65.5577216357458
-0.12670000000000003,-65.86895812171612
-0.12770000000000015,-66.12360615569182
-0.12870000000000004,-66.43484264166212
-0.12970000000000015,-66.68949067563783
-0.13070000000000004,-66.9582858226122
-0.13170000000000015,-67.2978165345798
-0.13270000000000004,-67.6090530205501
-0.13370000000000015,-67.9202895065204
-0.13470000000000004,-68.21737887949207
-0.13570000000000015,-68.48617402646643
-0.13670000000000004,-68.78326339943808
-0.13770000000000016,-69.05205854641244
-0.13870000000000005,-69.3491479193841
-0.13970000000000016,-69.6603844053544
-0.14070000000000005,-69.91503243933012
-0.14170000000000016,-70.22626892530042
-0.14270000000000005,-70.53750541127073
-0.14370000000000016,-70.8345947842424
-0.14470000000000005,-71.1458312702127
-0.14570000000000016,-71.44292064318435
-0.14670000000000005,-71.75415712915466
-0.14770000000000016,-72.10783495412092
-0.14870000000000005,-72.44736566608852
-0.14970000000000017,-72.80104349105478
-0.15070000000000006,-73.15472131602105
-0.15170000000000017,-73.40936934999675
-0.15270000000000006,-73.72060583596706
-0.15370000000000017,-74.0176952089387
-0.15470000000000006,-74.32893169490903
-0.15570000000000017,-74.62602106788069
-0.15670000000000006,-74.93725755385098
-0.15770000000000017,-75.29093537881725
-0.15870000000000006,-75.5880247517889
-0.15970000000000018,-75.94170257675518
-0.16070000000000007,-76.29538040172143
-0.16170000000000018,-76.63491111368903
-0.16270000000000007,-76.98858893865528
-0.16370000000000018,-77.38470810261751
-0.16470000000000007,-77.76668015358106
-0.16570000000000018,-78.12035797854733
-0.16670000000000007,-78.47403580351359
-0.16770000000000018,-78.77112517648524
-0.16870000000000007,-79.1248030014515
-0.16970000000000018,-79.42189237442317
-0.17070000000000007,-79.73312886039348
-0.17170000000000019,-80.12924802435568
-0.17270000000000008,-80.46877873632329
-0.1737000000000002,-80.90733923928146
-0.17470000000000008,-81.30345840324367
-0.1757000000000002,-81.65713622820991
-0.17670000000000008,-81.95422560118158
-0.1777000000000002,-82.30790342614785
-0.17870000000000008,-82.6615812511141
-0.1797000000000002,-83.08599464107361
-0.18070000000000008,-83.48211380503581
-0.1817000000000002,-83.87823296899803
-0.18270000000000008,-84.23191079396429
-0.1837000000000002,-84.57144150593189
-0.1847000000000001,-84.92511933089816
-0.1857000000000002,-85.32123849486035
-0.1867000000000001,-85.66076920682796
-0.1877000000000002,-86.09932970978613
-0.1887000000000001,-86.45300753475239
-0.1897000000000002,-86.89156803771054
-0.1907000000000001,-87.27354008867411
-0.1917000000000001,-87.66965925263632
-0.19269999999999998,-88.10821975559449
-0.1937000000000001,-88.54678025855264
-0.19469999999999998,-88.94289942251486
-0.1957000000000001,-89.32487147347842
-0.19669999999999999,-89.76343197643658
-0.1977000000000001,-90.15955114039879
-0.1987,-90.55567030436099
-0.1997000000000001,-90.93764235532454
-0.2007,-91.29132018029082
-0.2017000000000001,-91.72988068324898
-0.2027,-92.12599984721119
-0.2037000000000001,-92.56456035016936
-0.2047,-92.94653240113291
-0.2057000000000001,-93.42753424308701
-0.2067,-93.86609474604518
-0.2077000000000001,-94.30465524900335
-0.2087,-94.78565709095746
-0.2097000000000001,-95.18177625491967
-0.2107,-95.69107232287108
-0.2117000000000001,-96.17207416482519
-0.2127,-96.61063466778336
-0.2137000000000001,-97.04919517074151
-0.2147,-97.44531433470372
-0.2157000000000001,-97.88387483766188
-0.2167,-98.364876679616
-0.21770000000000012,-98.88831986056607
-0.2187,-99.31273325052557
-0.21970000000000012,-99.83617643147564
-0.2207,-100.2747369344338
-0.22170000000000012,-100.75573877638791
-0.2227,-101.27918195733798
-0.22370000000000012,-101.76018379929208
-0.2247,-102.24118564124619
-0.22570000000000012,-102.72218748320032
-0.2267,-103.20318932515443
-0.22770000000000012,-103.68419116710854
-0.22870000000000001,-104.16519300906265
-0.22970000000000013,-104.64619485101677
-0.23070000000000002,-105.07060824097626
-0.23170000000000013,-105.5516100829304
-0.23270000000000002,-106.07505326388046
-0.23370000000000013,-106.55605510583456
-0.23470000000000002,-107.07949828678463
-0.23570000000000013,-107.6029414677347
-0.23670000000000002,-108.12638464868475
-0.2376999999999999,-108.69226916863077
-0.23870000000000002,-109.25815368857677
-0.2396999999999999,-109.78159686952685
-0.24070000000000003,-110.3050400504769
-0.24169999999999991,-110.82848323142699
-0.24270000000000003,-111.3094850733811
-0.24369999999999992,-111.83292825433115
-0.24470000000000003,-112.39881277427718
-0.24569999999999992,-112.96469729422319
-0.24670000000000003,-113.48814047517324
-0.24769999999999992,-114.0115836561233
-0.24870000000000003,-114.57746817606933
-0.24969999999999992,-115.10091135701937
-0.25070000000000003,-115.68094298996405
-0.2516999999999999,-116.24682750991008
-0.25270000000000004,-116.85515336885203
-0.2536999999999999,-117.42103788879804
-0.25470000000000004,-118.02936374774
-0.2556999999999999,-118.59524826768603
-0.25670000000000004,-119.16113278763203
-0.25769999999999993,-119.72701730757805
-0.25870000000000004,-120.25046048852812
-0.25969999999999993,-120.81634500847414
-0.26070000000000004,-121.33978818942418
-0.26169999999999993,-121.90567270937021
-0.26270000000000004,-122.48570434231489
-0.26369999999999993,-123.09403020125686
-0.26470000000000005,-123.70235606019881
-0.26569999999999994,-124.35312325813672
-0.26670000000000005,-125.00389045607463
-0.26769999999999994,-125.56977497602065
-0.26870000000000005,-126.19224794796128
-0.26969999999999994,-126.84301514589919
-0.27070000000000005,-127.4937823438371
-0.27169999999999994,-128.18699088077096
-0.27270000000000005,-128.752875400717
-0.27369999999999994,-129.33290703366166
-0.27470000000000006,-129.8563502146117
-0.27569999999999995,-130.42223473455772
-0.27670000000000006,-131.03056059349967
-0.27769999999999995,-131.68132779143764
-0.27870000000000006,-132.37453632837148
-0.27969999999999995,-133.03945063930803
-0.28070000000000006,-133.64777649825
-0.28169999999999995,-134.34098503518388
-0.28270000000000006,-134.94931089412586
-0.28369999999999995,-135.6142252050624
-0.28470000000000006,-136.30743374199628
-0.28569999999999995,-136.91575960093826
-0.28670000000000007,-137.6089681378721
-0.28769999999999996,-138.23144110981272
-0.28870000000000007,-138.88220830775063
-0.28969999999999996,-139.53297550568857
-0.29070000000000007,-140.14130136463055
-0.29169999999999996,-140.74962722357247
-0.29270000000000007,-141.41454153450906
-0.29369999999999996,-142.03701450644968
-0.2947000000000001,-142.7443701563822
-0.29569999999999996,-143.4517258063147
-0.2967000000000001,-144.01761032626072
-0.29769999999999996,-144.72496597619326
-0.2987000000000001,-145.43232162612577
-0.29969999999999997,-146.1396772760583
-0.3007000000000001,-146.8470329259908
-0.30169999999999997,-147.55438857592333
-0.3027000000000001,-148.12027309586935
-0.30369999999999997,-148.82762874580186
-0.3047000000000001,-149.39351326574788
-0.30569999999999997,-150.1008689156804
-0.3067000000000001,-150.8082245656129
-0.3077,-151.37410908555893
-0.3087000000000001,-152.0814647354914
-0.3097,-152.78882038542397
-0.3107000000000001,-153.49617603535648
-0.3117,-154.203531685289
-0.3127000000000001,-154.9108873352215
-0.3137,-155.47677185516753
-0.3147000000000001,-156.18412750510007
-0.3157,-156.89148315503257
-0.3167000000000001,-157.59883880496508
-0.3177,-158.1647233249111
-0.3187000000000001,-158.87207897484362
-0.3197,-159.43796349478964
-0.3207000000000001,-160.14531914472215
-0.3217,-160.71120366466818
-0.3227000000000001,-161.2770881846142
-0.3237,-161.9844438345467
-0.3247000000000001,-162.5503283544927
-0.3257,-163.11621287443873
-0.3267000000000001,-163.82356852437124
-0.3277,-164.38945304431726
-0.3287000000000001,-165.09680869424977
-0.3297,-165.8041643441823
-0.3307000000000001,-166.3700488641283
-0.3317,-167.07740451406085
-0.3327000000000001,-167.50181790402033
-0.3337,-168.06770242396635
-0.3347000000000001,-168.49211581392586
-0.3357,-169.0580003338719
-0.3367000000000001,-169.6238848538179
-0.3377,-170.33124050375042
-0.3387000000000001,-170.89712502369645
-0.3397,-171.32153841365593
-0.3407000000000001,-171.88742293360195
-0.3417,-172.31183632356147
-0.3427000000000001,-172.87772084350746
-0.3437,-173.44360536345349
-0.3447000000000001,-174.0094898833995
-0.3457,-174.57537440334553
-0.3467000000000001,-174.99978779330505
-0.3477,-175.42420118326456
-0.3487000000000001,-175.84861457322407
-0.3497,-176.27302796318358
-0.3507000000000001,-176.6974413531431
-0.3517,-176.98038361311612
-0.3527000000000001,-177.4047970030756
-0.3537,-177.6877392630486
-0.3547000000000001,-178.1121526530081
-0.3557,-178.53656604296762
-0.35670000000000013,-178.81950830294062
-0.3577,-179.24392169290016
-0.35870000000000013,-179.52686395287316
-0.3597,-179.80980621284618
-0.36070000000000013,-180.09274847281918
-0.3617,-180.5171618627787
-0.3626999999999999,-180.8001041227517
-0.3637,-181.08304638272472
-0.3646999999999999,-181.2245175127112
-0.3657,-181.2245175127112
-0.3666999999999999,-181.36598864269772
-0.3677,-181.64893090267074
-0.3686999999999999,-181.93187316264374
-0.36970000000000003,-182.07334429263022
-0.3706999999999999,-182.21481542261674
-0.37170000000000003,-182.35628655260325
-0.3726999999999999,-182.35628655260325
-0.37370000000000003,-182.49775768258974
-0.3746999999999999,-182.49775768258974
-0.37570000000000003,-182.63922881257625
-0.3766999999999999,-182.63922881257625
-0.37770000000000004,-182.63922881257625
-0.3786999999999999,-182.63922881257625
-0.37970000000000004,-182.49775768258974
-0.3806999999999999,-182.49775768258974
-0.38170000000000004,-182.35628655260325
-0.38269999999999993,-182.21481542261674
-0.38370000000000004,-182.21481542261674
-0.38469999999999993,-182.07334429263022
-0.38570000000000004,-181.93187316264374
-0.38669999999999993,-180.23421960280567
-0.38570000000000004,-176.13155683319707
-0.38469999999999993,-172.31183632356147
-0.38370000000000004,-168.49211581392586
-0.38269999999999993,-164.9553375642633
-0.38170000000000004,-161.41855931460069
-0.3806999999999999,-157.88178106493808
-0.37970000000000004,-154.3450028152755
-0.3786999999999999,-150.94969569559944
-0.37770000000000004,-147.6958597059098
-0.3766999999999999,-144.58349484620675
-0.37570000000000003,-141.47112998650366
-0.3746999999999999,-138.48608914378846
-0.37370000000000003,-135.47275407507593
-0.3726999999999999,-132.55844879735392
-0.37170000000000003,-129.6299964066333
-0.3706999999999999,-126.88545648489513
-0.36970000000000003,-124.09847522416102
-0.3686999999999999,-121.38222952842017
-0.3677,-118.72257228467387
-0.3666999999999999,-116.06291504092759
-0.3657,-113.48814047517324
-0.3646999999999999,-110.92751302241753
-0.3637,-108.39517979565912
-0.3626999999999999,-105.94772924689259
-0.3617,-103.54272003712204
-0.36070000000000013,-101.15185794035013
-0.3597,-98.83173140857146
-0.35870000000000013,-96.5681933287874
-0.3577,-94.34709658799929
-0.35670000000000013,-92.16844118620713
-0.3557,-90.07466846240689
-0.3547000000000001,-87.98089573860662
-0.3537,-85.97200569279828
-0.3527000000000001,-83.96311564698992
-0.3517,-81.95422560118158
-0.3507000000000001,-79.94533555537322
-0.3497,-77.95059262256353
-0.3487000000000001,-76.02658525474708
-0.3477,-74.20160767792116
-0.3467000000000001,-72.36248298809663
-0.3457,-70.62238808926263
-0.3447000000000001,-68.82570473843404
-0.3437,-67.128051178596
-0.3427000000000001,-65.38795627976201
-0.3417,-63.732744058919906
-0.3407000000000001,-62.11997317707376
-0.3397,-60.54964363422357
-0.3387000000000001,-58.97931409137338
-0.3377,-57.408984548523186
-0.3367000000000001,-55.881096344668954
-0.3357,-54.35320814081471
-0.3347000000000001,-52.82531993696047
-0.3337,-51.33987307210218
-0.3327000000000001,-49.85442620724389
-0.3317,-48.41142068138156
-0.3307000000000001,-46.982562268517874
-0.3297,-45.581998081651484
-0.3287000000000001,-44.223875233781044
-0.3277,-42.87989949890926
-0.3267000000000001,-41.56421799003478
-0.3257,-40.26268359415894
-0.3247000000000001,-38.98944342428042
-0.3237,-37.77279170639648
-0.3227000000000001,-36.5136986495166
-0.3217,-35.282899818634014
-0.3207000000000001,-34.02380676175414
-0.3197,-32.807155043870196
-0.3187000000000001,-31.533914873991666
-0.3177,-30.359704495103685
-0.3167000000000001,-29.18549411621571
-0.3157,-28.05372507632368
-0.3147000000000001,-26.9643973754276
-0.3137,-25.81848122253692
-0.3127000000000001,-24.729153521640843
-0.3117,-23.639825820744765
-0.3107000000000001,-22.592939458844636
-0.3097,-21.54605309694451
-0.3087000000000001,-20.499166735044383
-0.3077,-19.49472171214021
-0.3067000000000001,-18.49027668923603
-0.30569999999999997,-17.48583166633185
-0.3047000000000001,-16.495533756426326
-0.30369999999999997,-15.491088733522153
-0.3027000000000001,-14.529085049613924
-0.30169999999999997,-13.523225315409885
-0.3007000000000001,-12.607907104397206
-0.29969999999999997,-11.647318131788847
-0.2987000000000001,-10.731999920776168
-0.29769999999999996,-9.81668170976349
-0.2967000000000001,-8.943804837746763
-0.29569999999999996,-8.070927965730034
-0.2947000000000001,-7.243321855308987
-0.29369999999999996,-6.37044498329226
-0.29270000000000007,-5.5414241615713475
-0.29169999999999996,-4.712403339850438
-0.29070000000000007,-3.840941179133574
-0.28969999999999996,-3.0119203574126634
-0.28870000000000007,-2.226755585987568
-0.28769999999999996,-1.3980177065266295
-0.28670000000000007,-0.5692798270656908
-0.28569999999999995,0.21588494435940458
-0.28470000000000006,1.0010497157844997
-0.28369999999999995,1.6990682711379093
-0.28270000000000006,2.4403769922671885
-0.28169999999999995,3.1816857133964676
-0.28070000000000006,3.8791383842299307
-0.27969999999999995,4.6218618166590755
-0.27870000000000006,5.319314487492538
-0.27769999999999995,5.9729111080301855
-0.27670000000000006,6.671778490163514
-0.27569999999999995,7.369231160996977
-0.27470000000000006,8.066683831830439
-0.27369999999999994,8.72169516366795
-0.27270000000000005,9.419147834501414
-0.27169999999999994,10.07274445503906
-0.27070000000000005,10.727755786876573
-0.26969999999999994,11.33891106841827
-0.26870000000000005,11.9486516386601
-0.26769999999999994,12.559806920201796
-0.26670000000000005,13.169547490443627
