Potential V vs RHE, Current mA cm-2
0.013299999999999867,1.7896097943292715
0.012299999999999978,0.2041428405705248
0.011299999999999866,-0.8829213222457692
0.010299999999999976,-1.5590118524512704
0.009299999999999864,-1.9579604390132106
0.008299999999999974,-2.284758749282034
0.007299999999999862,-2.6738043567449195
0.006299999999999972,-3.010505646112798
0.00529999999999986,-3.193003403795388
0.0042999999999999705,-3.2609095461889095
0.0032999999999998586,-3.3783305840777076
0.0022999999999999687,-3.606099103355979
0.0012999999999998568,-3.833867622634249
0.00029999999999996696,-3.9215797232258818
-0.000700000000000145,-3.9258238571254775
-0.0017000000000000348,-3.9838270204199433
-0.0027000000000001467,-4.163495355502803
-0.0037000000000000366,-4.354481380984582
-0.0047000000000001485,-4.422387523378105
-0.005700000000000038,-4.3926785860809385
-0.00670000000000015,-4.433705213777024
-0.00770000000000004,-4.596397013261504
-0.008700000000000152,-4.768991791845038
-0.009700000000000042,-4.81709197604045
-0.010700000000000154,-4.783138904843689
-0.011700000000000044,-4.804359574341665
-0.012700000000000156,-4.945830704328168
-0.013700000000000045,-5.0943753908139975
-0.014700000000000157,-5.129743173310623
-0.015700000000000047,-5.085887123014808
-0.01670000000000016,-5.105693081212917
-0.01770000000000005,-5.235846520800501
-0.01870000000000016,-5.367414671687949
-0.01970000000000005,-5.39853832028498
-0.020700000000000163,-5.324973332691998
-0.021700000000000053,-5.322143910092268
-0.022700000000000164,-5.465029751378637
-0.023700000000000054,-5.602256747465545
-0.024700000000000166,-5.622062705663656
-0.025700000000000056,-5.5414241615713475
-0.026700000000000168,-5.5272770485726985
-0.027700000000000058,-5.660259910760012
-0.02870000000000017,-5.788998639047731
-0.02970000000000006,-5.80031632944665
-0.03070000000000017,-5.728166053153534
-0.03170000000000006,-5.7111895175551535
-0.03270000000000017,-5.827195844144086
-0.03370000000000006,-5.94320217073302
-0.034700000000000175,-5.947446304632614
-0.035700000000000065,-5.876710739639362
-0.03670000000000018,-5.871051894439902
-0.03770000000000007,-5.984228798429105
-0.03870000000000018,-6.101649836317904
-0.03970000000000007,-6.088917434619118
-0.04070000000000018,-6.008278890526811
-0.04170000000000007,-5.995546488828026
-0.04270000000000018,-6.107308681517363
-0.04370000000000007,-6.214826740307106
-0.044700000000000184,-6.209167895107646
-0.045700000000000074,-6.121455794516013
-0.046700000000000186,-6.114382238016689
-0.047700000000000076,-6.220485585506567
-0.04870000000000019,-6.337906623395364
-0.04970000000000008,-6.337906623395364
-0.05070000000000019,-6.230388564605621
-0.05170000000000008,-6.210582606407511
-0.05270000000000019,-6.309612397398063
-0.05370000000000008,-6.411471610988346
-0.05470000000000019,-6.414301033588076
-0.05570000000000008,-6.309612397398063
-0.056700000000000195,-6.289806439199953
-0.057700000000000085,-6.414301033588076
-0.058700000000000196,-6.511916113278764
-0.059700000000000086,-6.494939577680383
-0.0607000000000002,-6.397324497989696
-0.06170000000000009,-6.387421518890641
-0.0627000000000002,-6.490695443780789
-0.06370000000000009,-6.578407544372421
-0.0647000000000002,-6.55860158617431
-0.06570000000000009,-6.466645351683083
-0.0667000000000002,-6.442595259585377
-0.0677000000000001,-6.560016297474175
-0.0687000000000002,-6.6562166658649975
-0.0697000000000001,-6.632166573767292
-0.07070000000000021,-6.537380916676335
-0.0717000000000001,-6.504842556779439
-0.07270000000000021,-6.605287059069856
-0.0737000000000001,-6.702902138760544
-0.07470000000000021,-6.678852046662837
-0.0757000000000001,-6.593969368670936
-0.07670000000000021,-6.55860158617431
-0.0777000000000001,-6.664704933664188
-0.07870000000000021,-6.776467126353525
-0.0797000000000001,-6.75241703425582
-0.08070000000000022,-6.653387243265268
-0.0817000000000001,-6.629337151167562
-0.08270000000000022,-6.745343477756495
-0.08370000000000011,-6.854276247846103
-0.08470000000000022,-6.811834908850152
-0.08570000000000011,-6.697243293561083
-0.08670000000000022,-6.683096180562433
-0.08770000000000011,-6.786370105452581
-0.08870000000000022,-6.895302875542188
-0.08970000000000011,-6.879741051243673
-0.09070000000000022,-6.759490590755146
-0.09170000000000011,-6.7283669421581145
-0.09270000000000023,-6.838714423547587
-0.09370000000000012,-6.9434030597376
-0.09470000000000023,-6.941988348437734
-0.09570000000000012,-6.840129134847452
-0.09670000000000023,-6.811834908850152
-0.09770000000000012,-6.920767678939759
-0.09870000000000023,-7.001406223032068
-0.09970000000000012,-6.998576800432337
-0.10070000000000023,-6.8853998964431335
-0.10170000000000012,-6.868423360844753
-0.10270000000000024,-6.978770842234226
-0.10370000000000013,-7.082044767124374
-0.10470000000000024,-7.079215344524644
-0.10570000000000013,-6.988673821333281
-0.10670000000000024,-6.949061904937061
-0.10770000000000013,-7.046676984627748
-0.10870000000000024,-7.15702446601722
-0.10970000000000013,-7.147121486918166
-0.11070000000000024,-7.050921118527342
-0.11170000000000013,-7.025456315129772
-0.11270000000000002,-7.130144951319785
-0.11370000000000013,-7.258883679607503
-0.11470000000000002,-7.246151277908718
-0.11570000000000014,-7.15702446601722
-0.11670000000000003,-7.12307139482046
-0.11770000000000014,-7.224930608410742
-0.11870000000000003,-7.332448667200485
-0.11970000000000014,-7.31405742030224
-0.12070000000000003,-7.230589453610202
-0.12170000000000014,-7.2079540728123614
-0.12270000000000003,-7.31405742030224
-0.12370000000000014,-7.438552014690363
-0.12470000000000003,-7.428649035591308
-0.12570000000000014,-7.336692801100081
-0.12670000000000003,-7.332448667200485
-0.12770000000000015,-7.452699127689013
-0.12870000000000004,-7.561631897778621
-0.12970000000000015,-7.543240650880375
-0.13070000000000004,-7.451284416389148
-0.13170000000000015,-7.451284416389148
-0.13270000000000004,-7.5814378559767315
-0.13370000000000015,-7.697444182565665
-0.13470000000000004,-7.694614759965935
-0.13570000000000015,-7.5814378559767315
-0.13670000000000004,-7.578608433377001
-0.13770000000000016,-7.703103027765124
-0.13870000000000005,-7.817694643054193
-0.13970000000000016,-7.829012333453114
-0.14070000000000005,-7.746959078060941
-0.14170000000000016,-7.755447345860131
-0.14270000000000005,-7.89550376454677
-0.14370000000000016,-8.008680668535973
-0.14470000000000005,-8.012924802435567
-0.14570000000000016,-7.94360394874218
-0.14670000000000005,-7.933700969643125
-0.14770000000000016,-8.073757388329765
-0.14870000000000005,-8.201081405317618
-0.14970000000000017,-8.203910827917348
-0.15070000000000006,-8.130345840324367
-0.15170000000000017,-8.124686995124907
-0.15270000000000006,-8.267572836411274
-0.15370000000000017,-8.407629255097913
-0.15470000000000006,-8.401970409898452
-0.15570000000000017,-8.34538195790385
-0.15670000000000006,-8.360943782202368
-0.15770000000000017,-8.51656202518752
-0.15870000000000006,-8.66510671167335
-0.15970000000000018,-8.67359497947254
-0.16070000000000007,-8.628324217876859
-0.16170000000000018,-8.612762393578345
-0.16270000000000007,-8.737256987966468
-0.16370000000000018,-8.878728117952969
-0.16470000000000007,-8.933901858647706
-0.16570000000000018,-8.901363498750811
-0.16670000000000007,-8.960781373345142
-0.16770000000000018,-9.110740771130837
-0.16870000000000007,-9.283335549714371
-0.16970000000000018,-9.301726796612616
-0.17070000000000007,-9.242308922018283
-0.17170000000000019,-9.262114880216396
-0.17270000000000008,-9.414903700601819
-0.1737000000000002,-9.584669056585623
-0.17470000000000008,-9.638428085980495
-0.1757000000000002,-9.60871914868333
-0.17670000000000008,-9.65116048767928
-0.1777000000000002,-9.832243534062004
-0.17870000000000008,-9.98503235444743
-0.1797000000000002,-10.043035517741895
-0.18070000000000008,-10.01615600304446
-0.1817000000000002,-10.054353208140816
-0.18270000000000008,-10.260901057921112
-0.1837000000000002,-10.45754592860235
-0.1847000000000001,-10.522622648396142
-0.1857000000000002,-10.529696204895469
-0.1867000000000001,-10.5891140794898
-0.1877000000000002,-10.804150197069285
-0.1887000000000001,-10.99089208865147
-0.1897000000000002,-11.053139385845531
-0.1907000000000001,-11.078604189243103
-0.1917000000000001,-11.163486867235004
-0.19269999999999998,-11.382767118714085
-0.1937000000000001,-11.592144391094111
-0.19469999999999998,-11.678441780385876
-0.1957000000000001,-11.692588893384528
-0.19669999999999999,-11.79161868437508
-0.1977000000000001,-12.017972492353486
-0.1987,-12.254229279430946
-0.1997000000000001,-12.35891791562096
-0.2007,-12.401359254616912
-0.2017000000000001,-12.525853849005037
-0.2027,-12.784746016880337
-0.2037000000000001,-13.026661649157258
-0.2047,-13.128520862747541
-0.2057000000000001,-13.193597582541333
-0.2067,-13.343556980327028
-0.2077000000000001,-13.576984344804757
-0.2087,-13.838705935279789
-0.2097000000000001,-13.994324178264941
-0.2107,-14.059400898058735
-0.2117000000000001,-14.24614278964092
-0.2127,-14.529085049613924
-0.2137000000000001,-14.812027309586934
-0.2147,-14.98179266557074
-0.2157000000000001,-15.094969569559943
-0.2167,-15.264734925543747
-0.21770000000000012,-15.590118524512702
-0.2187,-15.901355010483012
-0.21970000000000012,-16.085267479465468
-0.2207,-16.19844438345467
-0.22170000000000012,-16.424798191433077
-0.2227,-16.750181790402035
-0.22370000000000012,-17.061418276372343
-0.2247,-17.2736249713521
-0.22570000000000012,-17.429243214337255
-0.2267,-17.641449909317007
-0.22770000000000012,-17.995127734283265
-0.22870000000000001,-18.362952672248177
-0.22970000000000013,-18.603453593225233
-0.23070000000000002,-18.80151317520634
-0.23170000000000013,-19.056161209182044
-0.23270000000000002,-19.423986147146955
-0.23370000000000013,-19.820105311109163
-0.23470000000000002,-20.07475334508487
-0.23570000000000013,-20.272812927065978
-0.23670000000000002,-20.569902300037633
-0.2376999999999999,-21.008462802995794
-0.23870000000000002,-21.43287619295531
-0.2396999999999999,-21.744112678925614
-0.24070000000000003,-21.99876071290132
-0.24169999999999991,-22.33829142486893
-0.24270000000000003,-22.87588171881764
-0.24369999999999992,-23.371030673770406
-0.24470000000000003,-23.66812004674206
-0.24569999999999992,-23.86617962872317
-0.24670000000000003,-24.20571034069078
-0.24769999999999992,-24.686712182644893
-0.24870000000000003,-25.196008250596304
-0.24969999999999992,-25.60627452755716
-0.25070000000000003,-25.875069674531517
-0.2516999999999999,-26.28533595149238
-0.25270000000000004,-26.822926245441096
-0.2536999999999999,-27.36051653938981
-0.25470000000000004,-27.756635703352025
-0.2556999999999999,-28.082019302320973
-0.25670000000000004,-28.53472691827779
-0.25769999999999993,-29.086464325225155
-0.25870000000000004,-29.63820173217252
-0.25969999999999993,-30.07676223513068
-0.26070000000000004,-30.45873428609424
-0.26169999999999993,-30.939736128048356
-0.26270000000000004,-31.56220909998897
-0.26369999999999993,-32.170534958930936
-0.26470000000000005,-32.67983102688235
-0.26569999999999994,-33.11839152984051
-0.26670000000000005,-33.670128936787876
-0.26769999999999994,-34.33504324772444
-0.26870000000000005,-34.9716633326637
-0.26969999999999994,-35.55169496560837
-0.27070000000000005,-35.94781412957058
-0.27169999999999994,-36.45711019752199
-0.27270000000000005,-37.164465847454515
-0.27369999999999994,-37.84352727138973
-0.27470000000000006,-38.42355890433439
-0.27569999999999995,-38.96114919828311
-0.27670000000000006,-39.59776928322238
-0.27769999999999995,-40.34756627215084
-0.27870000000000006,-41.097363261079316
-0.27969999999999995,-41.677394894023976
-0.28070000000000006,-42.214985187972694
-0.28169999999999995,-42.87989949890926
-0.28270000000000006,-43.672137826833676
-0.28369999999999995,-44.4926703807554
-0.28470000000000006,-45.11514335269602
-0.28569999999999995,-45.76591055063393
-0.28670000000000007,-46.4874133135651
-0.28769999999999996,-47.30794586748683
-0.28870000000000007,-48.100184195411245
-0.28969999999999996,-48.79339273234511
-0.29070000000000007,-49.387571478288436
-0.29169999999999996,-50.15151558021555
-0.29270000000000007,-51.05693081212917
-0.29369999999999996,-51.990640270040096
-0.2947000000000001,-52.82531993696047
-0.29569999999999996,-53.476087134898386
-0.2967000000000001,-54.2966196888201
-0.29769999999999996,-55.20203492073373
-0.2987000000000001,-56.06500881365141
-0.29969999999999997,-56.82895291557852
-0.3007000000000001,-57.57874990450699
-0.30169999999999997,-58.41342957142736
-0.3027000000000001,-59.375433255335594
-0.30369999999999997,-60.33743693924381
-0.3047000000000001,-61.20041083216149
-0.30569999999999997,-61.97850204708726
-0.3067000000000001,-62.855623053003576
-0.3077,-63.874215188906405
-0.3087000000000001,-64.89280732480923
-0.3097,-65.86895812171612
-0.3107000000000001,-66.71778490163513
-0.3117,-67.6090530205501
-0.3127000000000001,-68.37299712247722
-0.3137,-69.19352967639895
-0.3147000000000001,-70.02820934331933
-0.3157,-70.99021302722754
-0.3167000000000001,-72.06539361512496
-0.3177,-73.197162655017
-0.3187000000000001,-74.32893169490903
-0.3197,-75.30508249181591
-0.3207000000000001,-76.21049772372953
-0.3217,-77.1583542946391
-0.3227000000000001,-78.24768199553519
-0.3237,-79.40774526142451
-0.3247000000000001,-80.45463162332464
-0.3257,-81.37419396823692
-0.3267000000000001,-82.47766878213164
-0.3277,-83.63773204802096
-0.3287000000000001,-84.72705974891704
-0.3297,-85.70321054582392
-0.3307000000000001,-86.66521422973216
-0.3317,-87.79698326962418
-0.3327000000000001,-89.07022343950271
-0.3337,-90.25858093138935
-0.3347000000000001,-91.34790863228542
-0.3357,-92.25332386419905
-0.3367000000000001,-93.17288620911131
-0.3377,-94.4319792659912
-0.3387000000000001,-95.73351366186702
-0.3397,-96.96431249274961
-0.3407000000000001,-98.37902379261465
-0.3417,-99.6805581884905
-0.3427000000000001,-100.86891568037711
-0.3437,-102.12800873725699
-0.3447000000000001,-103.23148355115173
-0.3457,-104.27836991305185
-0.3467000000000001,-105.4384331789412
-0.3477,-106.27311284586155
-0.3487000000000001,-107.30585209476303
-0.3497,-108.53665092564562
-0.3507000000000001,-109.654272852539
-0.3517,-110.82848323142699
-0.3527000000000001,-112.28563587028796
-0.3537,-113.64375871815841
-0.3547000000000001,-114.73308641905447
-0.3557,-115.82241411995055
-0.35670000000000013,-117.0390658378345
-0.3577,-118.41133579870358
-0.35870000000000013,-119.92507688955916
-0.3597,-121.24075839843364
-0.36070000000000013,-122.37252743832566
-0.3617,-123.63162049520555
-0.3626999999999999,-124.86241932608814
-0.3637,-126.03662970497612
-0.3646999999999999,-127.19669297086547
-0.3657,-128.2577264457642
-0.3666999999999999,-129.50267238964545
-0.3677,-130.9173836895105
-0.3686999999999999,-132.3462421023742
-0.36970000000000003,-133.64777649825
-0.3706999999999999,-135.11907625010966
-0.37170000000000003,-136.46305198498143
-0.3726999999999999,-137.92020462384244
-0.37370000000000003,-139.3773572627034
-0.3746999999999999,-140.4383907376022
-0.37570000000000003,-141.47112998650366
-0.3766999999999999,-142.8858412863687
-0.37770000000000004,-144.15908145624724
-0.3786999999999999,-145.29085049613926
-0.37970000000000004,-146.5640906660178
-0.3806999999999999,-147.55438857592333
-0.38170000000000004,-148.40321535584232
-0.38269999999999993,-150.1008689156804
-0.38370000000000004,-151.65705134553193
-0.38469999999999993,-153.07176264539694
-0.38570000000000004,-154.3450028152755
-0.38669999999999993,-153.77911829532948
-0.38570000000000004,-151.7985224755184
-0.38469999999999993,-149.8179266557074
-0.38370000000000004,-148.12027309586935
-0.38269999999999993,-146.4226195360313
-0.38170000000000004,-144.72496597619326
-0.3806999999999999,-143.4517258063147
-0.37970000000000004,-142.03701450644968
-0.3786999999999999,-140.5798618675887
-0.37770000000000004,-139.02367943773717
-0.3766999999999999,-137.43920278188833
-0.37570000000000003,-135.85472612603945
-0.3746999999999999,-134.42586771317576
-0.37370000000000003,-132.91212662232022
-0.3726999999999999,-131.48326820945653
-0.37170000000000003,-129.96952711860092
-0.3706999999999999,-128.5265215927386
-0.36970000000000003,-127.2108400838641
-0.3686999999999999,-125.73954033200447
-0.3677,-124.49459438812325
-0.3666999999999999,-123.00914752326493
-0.3657,-121.55199488440397
-0.3646999999999999,-120.05240090654702
-0.3637,-118.59524826768603
-0.3626999999999999,-117.05321295083314
-0.3617,-115.62435453796945
-0.36070000000000013,-114.40770282008553
-0.3597,-113.24763955419618
-0.35870000000000013,-111.98854649731629
-0.3577,-110.40406984146746
-0.35670000000000013,-108.66397494263347
-0.3557,-107.03705694778867
-0.3547000000000001,-105.39599183994524
-0.3537,-104.05201610507345
-0.3527000000000001,-102.87780572618546
-0.3517,-101.6753011213002
-0.3507000000000001,-100.37376672542435
-0.3497,-99.04393810355123
-0.3487000000000001,-97.77069793367268
-0.3477,-96.27110395581576
-0.3467000000000001,-94.96956955993991
-0.3457,-93.76706495505464
-0.3447000000000001,-92.50797189817473
-0.3437,-91.23473172829621
-0.3427000000000001,-89.79172620243388
-0.3417,-88.6458100495432
-0.3407000000000001,-87.41501121866061
-0.3397,-86.29738929176723
-0.3387000000000001,-84.9392664438968
-0.3377,-83.87823296899803
-0.3367000000000001,-82.54840434712489
-0.3357,-81.37419396823692
-0.3347000000000001,-80.29901338033947
-0.3337,-79.05406743645825
-0.3327000000000001,-77.73838592758376
-0.3317,-76.42270441870929
-0.3307000000000001,-75.47484784779972
-0.3297,-74.41381437290093
-0.3287000000000001,-73.3669280110008
-0.3277,-72.47565989208583
-0.3267000000000001,-71.31559662619651
-0.3257,-70.35359294228827
-0.3247000000000001,-69.30670658038814
-0.3237,-68.0900548625042
-0.3227000000000001,-66.85925603162164
-0.3217,-65.71333987873095
-0.3207000000000001,-64.80792464681733
-0.3197,-63.91665652790236
-0.3187000000000001,-62.51609234103597
-0.3177,-61.15796949316553
-0.3167000000000001,-60.09693601826676
-0.3157,-59.290550577343694
-0.3147000000000001,-58.47001802342197
-0.3137,-57.550455678509685
-0.3127000000000001,-56.72992312458797
-0.3117,-55.7537723276811
-0.3107000000000001,-54.791768643772876
-0.3097,-54.11270721983765
-0.3087000000000001,-53.065820857937524
-0.3077,-51.948198931044146
-0.3067000000000001,-51.042783699130524
-0.30569999999999997,-50.23639825820745
-0.3047000000000001,-49.33098302629383
-0.30369999999999997,-48.4255677943802
-0.3027000000000001,-47.590888127459834
-0.30169999999999997,-46.77035557353811
-0.3007000000000001,-46.048852810606945
-0.29969999999999997,-45.34149716067443
-0.2987000000000001,-44.3511992507689
-0.29769999999999996,-43.33260711486608
-0.2967000000000001,-42.752575481921404
-0.29569999999999996,-41.90374870200238
-0.2947000000000001,-41.25298150406447
-0.29369999999999996,-40.460743176140056
-0.29270000000000007,-39.76753463920618
-0.29169999999999996,-38.96114919828311
-0.29070000000000007,-38.09817530536544
-0.28969999999999996,-37.305936977441014
-0.28870000000000007,-36.47125731052064
-0.28769999999999996,-35.650724756598926
-0.28670000000000007,-35.08484023665291
-0.28569999999999995,-34.84433931567585
-0.28470000000000006,-33.98136542275818
-0.28369999999999995,-33.14668575583781
-0.28270000000000006,-32.24127052392419
-0.28169999999999995,-31.519767760993016
-0.28070000000000006,-30.968030354045652
-0.27969999999999995,-30.260674704113132
-0.27870000000000006,-29.468436376188716
-0.27769999999999995,-28.662050935265643
-0.27670000000000006,-28.039577963325023
-0.27569999999999995,-27.487840556377662
-0.27470000000000006,-26.89366181043435
-0.27369999999999994,-26.14386482150588
-0.27270000000000005,-25.337479380582806
-0.27169999999999994,-24.70085929564354
-0.27070000000000005,-24.134974775697525
-0.26969999999999994,-23.653972933743415
-0.26870000000000005,-23.102235526796047
-0.26769999999999994,-22.168526068885125
-0.26670000000000005,-21.54605309694451
-0.26569999999999994,-21.008462802995794
