Potential V vs RHE, Current mA cm-2
0.013299999999999867,1.5250587812545096
0.012299999999999978,-1.1798692240874404
0.011299999999999866,-3.579219588658543
0.010299999999999976,-5.672992312458796
0.009299999999999864,-7.329619244600755
0.008299999999999974,-8.68208324727173
0.007299999999999862,-10.034547249942705
0.006299999999999972,-11.517164692201263
0.00529999999999986,-13.261503724934855
0.0042999999999999705,-15.094969569559943
0.0032999999999998586,-16.877505807389888
0.0022999999999999687,-18.40539401124413
0.0012999999999998568,-19.49472171214021
0.00029999999999996696,-20.414284057052477
-0.000700000000000145,-21.107492593986347
-0.0017000000000000348,-21.98461359990267
-0.0027000000000001467,-23.15882397879065
-0.0037000000000000366,-24.516946826661083
-0.0047000000000001485,-26.002393691519377
-0.005700000000000038,-27.176604070407354
-0.00670000000000015,-27.954695285333123
-0.00770000000000004,-28.53472691827779
-0.008700000000000152,-28.8742576302454
-0.009700000000000042,-29.440142150191413
-0.010700000000000154,-30.232380478115836
-0.011700000000000044,-31.23682550102001
-0.012700000000000156,-32.368594540912035
-0.013700000000000045,-33.288156885824314
-0.014700000000000157,-34.02380676175414
-0.015700000000000047,-34.41992592571634
-0.01670000000000016,-34.5472499427042
-0.01770000000000005,-34.85848642867451
-0.01870000000000016,-35.198017140642115
-0.01970000000000005,-35.99025546856653
-0.020700000000000163,-36.89567070048016
-0.021700000000000053,-37.73035036740053
-0.022700000000000164,-38.46600024333035
-0.023700000000000054,-38.6499127123128
-0.024700000000000166,-38.81967806829661
-0.025700000000000056,-38.777236729300654
-0.026700000000000168,-38.94700208528445
-0.027700000000000058,-39.51288660523048
-0.02870000000000017,-40.220242255162994
-0.02970000000000006,-41.04077480908471
-0.03070000000000017,-41.66324778102533
-0.03170000000000006,-41.91789581500104
-0.03270000000000017,-41.91789581500104
-0.03370000000000006,-41.79057179801318
-0.034700000000000175,-41.79057179801318
-0.035700000000000065,-42.130102509980794
-0.03670000000000018,-42.71013414292546
-0.03770000000000007,-43.40334267985933
-0.03870000000000018,-44.011668538801295
-0.03970000000000007,-44.3229050247716
-0.04070000000000018,-44.3229050247716
-0.04170000000000007,-44.138992555789144
-0.04270000000000018,-44.096551216793195
-0.04370000000000007,-44.138992555789144
-0.044700000000000184,-44.619994397743255
-0.045700000000000074,-45.18587891768927
-0.046700000000000186,-45.79420477663124
-0.047700000000000076,-46.2327652795894
-0.04870000000000019,-46.19032394059345
-0.04970000000000008,-46.10544126260155
-0.05070000000000019,-45.85079322862584
-0.05170000000000008,-45.79420477663124
-0.05270000000000019,-46.10544126260155
-0.05370000000000008,-46.586443104555656
-0.05470000000000019,-47.23721030249357
-0.05570000000000008,-47.590888127459834
-0.056700000000000195,-47.67577080545174
-0.057700000000000085,-47.54844678846388
-0.058700000000000196,-47.15232762450167
-0.059700000000000086,-47.067444946509774
-0.0607000000000002,-47.23721030249357
-0.06170000000000009,-47.590888127459834
-0.0627000000000002,-48.24165532539775
-0.06370000000000009,-48.55289181136806
-0.0647000000000002,-48.76509850634781
-0.06570000000000009,-48.63777448935996
-0.0667000000000002,-48.2840966643937
-0.0677000000000001,-48.114331308409895
-0.0687000000000002,-48.029448630417996
-0.0697000000000001,-48.32653800338966
-0.07070000000000021,-48.80753984534376
-0.0717000000000001,-49.28854168729788
-0.07270000000000021,-49.59977817326819
-0.0737000000000001,-49.50074838227763
-0.07470000000000021,-49.16121767031002
-0.0757000000000001,-48.89242252333566
-0.07670000000000021,-48.72265716735186
-0.0777000000000001,-48.93486386233162
-0.07870000000000021,-49.373424365289786
-0.0797000000000001,-49.89686754623985
-0.08070000000000022,-50.2505453712061
-0.0817000000000001,-50.2505453712061
-0.08270000000000022,-50.024191563227696
-0.08370000000000011,-49.642219512264134
-0.08470000000000022,-49.458307043281685
-0.08570000000000011,-49.50074838227763
-0.08670000000000022,-49.85442620724389
-0.08770000000000011,-50.37786938819396
-0.08870000000000022,-50.73154721316022
-0.08970000000000011,-50.90131256914402
-0.09070000000000022,-50.68910587416426
-0.09170000000000011,-50.335428049198
-0.09270000000000023,-50.0807800152223
-0.09370000000000012,-49.939308885235796
-0.09470000000000023,-50.2505453712061
-0.09570000000000012,-50.64666453516831
-0.09670000000000023,-51.127666377122424
-0.09770000000000012,-51.33987307210218
-0.09870000000000023,-51.17010771611838
-0.09970000000000012,-50.90131256914402
-0.10070000000000023,-50.547634744177756
-0.10170000000000012,-50.335428049198
-0.10270000000000024,-50.547634744177756
-0.10370000000000013,-50.90131256914402
-0.10470000000000024,-51.46719708909004
-0.10570000000000013,-51.77843357506035
-0.10670000000000024,-51.69355089706845
-0.10770000000000013,-51.46719708909004
-0.10870000000000024,-51.028636586131874
-0.10970000000000013,-50.81642989115212
-0.11070000000000024,-50.90131256914402
-0.11170000000000013,-51.21254905511432
-0.11270000000000002,-51.73599223606439
-0.11370000000000013,-52.033081609036046
-0.11470000000000002,-52.11796428702795
-0.11570000000000014,-51.990640270040096
-0.11670000000000003,-51.55207976708194
-0.11770000000000014,-51.29743173310623
-0.11870000000000003,-51.21254905511432
-0.11970000000000014,-51.46719708909004
-0.12070000000000003,-51.948198931044146
-0.12170000000000014,-52.34431809500636
-0.12270000000000003,-52.59896612898206
-0.12370000000000014,-52.42920077299826
-0.12470000000000003,-52.17455273902255
-0.12570000000000014,-51.73599223606439
-0.12670000000000003,-51.65110955807249
-0.12770000000000015,-51.77843357506035
-0.12870000000000004,-52.17455273902255
-0.12970000000000015,-52.69799591997262
-0.13070000000000004,-52.995085292944275
-0.13170000000000015,-52.95264395394832
-0.13270000000000004,-52.69799591997262
-0.13370000000000015,-52.30187675601041
-0.13470000000000004,-52.075522948032
-0.13570000000000015,-52.17455273902255
-0.13670000000000004,-52.42920077299826
-0.13770000000000016,-52.995085292944275
-0.13870000000000005,-53.26388043991864
-0.13970000000000016,-53.39120445690648
-0.14070000000000005,-53.16485064892808
-0.14170000000000016,-52.82531993696047
-0.14270000000000005,-52.59896612898206
-0.14370000000000016,-52.42920077299826
-0.14470000000000005,-52.78287859796452
-0.14570000000000016,-53.16485064892808
-0.14670000000000005,-53.603411151886235
-0.14770000000000016,-53.91464763785655
-0.14870000000000005,-53.74488228187274
-0.14970000000000017,-53.476087134898386
-0.15070000000000006,-53.03752663194023
-0.15170000000000017,-52.86776127595642
-0.15270000000000006,-53.079967970936174
-0.15370000000000017,-53.476087134898386
-0.15470000000000006,-53.9570889768525
-0.15570000000000017,-54.26832546282281
-0.15670000000000006,-54.2117370108282
-0.15770000000000017,-53.999530315848446
-0.15870000000000006,-53.603411151886235
-0.15970000000000018,-53.348763117910536
-0.16070000000000007,-53.476087134898386
-0.16170000000000018,-53.74488228187274
-0.16270000000000007,-54.26832546282281
-0.16370000000000018,-54.65029751378637
-0.16470000000000007,-54.791768643772876
-0.16570000000000018,-54.60785617479041
-0.16670000000000007,-54.26832546282281
-0.16770000000000018,-53.999530315848446
-0.16870000000000007,-53.91464763785655
-0.16970000000000018,-54.16929567183226
-0.17070000000000007,-54.56541483579447
-0.17170000000000019,-55.088858016744524
-0.17270000000000008,-55.31521182472294
-0.1737000000000002,-55.21618203373238
-0.17470000000000008,-54.919092660760725
-0.1757000000000002,-54.52297349679851
-0.17670000000000008,-54.39564947981066
-0.1777000000000002,-54.60785617479041
-0.17870000000000008,-55.003975338752625
-0.1797000000000002,-55.612301197694585
-0.18070000000000008,-55.881096344668954
-0.1817000000000002,-55.838655005673
-0.18270000000000008,-55.56985985869864
-0.1837000000000002,-55.088858016744524
-0.1847000000000001,-54.961533999756675
-0.1857000000000002,-55.003975338752625
-0.1867000000000001,-55.400094502714836
-0.1877000000000002,-55.96597902266086
-0.1887000000000001,-56.30550973462846
-0.1897000000000002,-56.53186354260687
-0.1907000000000001,-56.44698086461496
-0.1917000000000001,-56.093303039648696
-0.19269999999999998,-55.881096344668954
-0.1937000000000001,-55.7820665536784
-0.19469999999999998,-56.093303039648696
-0.1957000000000001,-56.61674622059877
-0.19669999999999999,-57.012865384560975
-0.1977000000000001,-57.30995475753264
-0.1987,-57.182630740544774
-0.1997000000000001,-56.97042404556503
-0.2007,-56.61674622059877
-0.2017000000000001,-56.489422203610914
-0.2027,-56.70162889859067
-0.2037000000000001,-57.14018940154883
-0.2047,-57.7485152604908
-0.2057000000000001,-58.05975174646111
-0.2067,-58.10219308545706
-0.2077000000000001,-57.87583927747865
-0.2087,-57.57874990450699
-0.2097000000000001,-57.408984548523186
-0.2107,-57.57874990450699
-0.2117000000000001,-57.974869068469204
-0.2127,-58.54075358841522
-0.2137000000000001,-58.97931409137338
-0.2147,-59.19152078635314
-0.2157000000000001,-59.14907944735718
-0.2167,-58.880284300382826
-0.21770000000000012,-58.75296028339497
-0.2187,-58.71051894439902
-0.21970000000000012,-59.10663810836124
-0.2207,-59.6300812893113
-0.22170000000000012,-60.15352447026136
-0.2227,-60.59208497321952
-0.22370000000000012,-60.49305518222897
-0.2247,-60.36573116524111
-0.22570000000000012,-60.06864179226946
-0.2267,-60.02620045327351
-0.22770000000000012,-60.36573116524111
-0.22870000000000001,-60.80429166819927
-0.22970000000000013,-61.53994154412909
-0.23070000000000002,-61.936060708091304
-0.23170000000000013,-61.97850204708726
-0.23270000000000002,-61.936060708091304
-0.23370000000000013,-61.63897133511965
-0.23470000000000002,-61.53994154412909
-0.23570000000000013,-61.80873669110345
-0.23670000000000002,-62.20485585506566
-0.2376999999999999,-62.89806439199953
-0.23870000000000002,-63.421507572949594
-0.2396999999999999,-63.6761556069253
-0.24070000000000003,-63.6761556069253
-0.24169999999999991,-63.46394891194555
-0.24270000000000003,-63.37906623395363
-0.24369999999999992,-63.46394891194555
-0.24470000000000003,-63.902509414903705
-0.24569999999999992,-64.55327661284163
-0.24670000000000003,-65.16160247178358
-0.24769999999999992,-65.60016297474175
-0.24870000000000003,-65.7274869917296
-0.24969999999999992,-65.60016297474175
-0.25070000000000003,-65.38795627976201
-0.2516999999999999,-65.4728389577539
-0.25270000000000004,-65.86895812171612
-0.2536999999999999,-66.47728398065809
-0.25470000000000004,-67.21293385658788
-0.2556999999999999,-67.73637703753796
-0.25670000000000004,-67.9202895065204
-0.25769999999999993,-67.9202895065204
-0.25870000000000004,-67.7788183765339
-0.25969999999999993,-67.82125971552985
-0.26070000000000004,-68.17493754049613
-0.26169999999999993,-68.74082206044213
-0.26270000000000004,-69.53306038836655
-0.26369999999999993,-70.09894490831257
-0.26470000000000005,-70.53750541127073
-0.26569999999999994,-70.62238808926263
-0.26670000000000005,-70.53750541127073
-0.26769999999999994,-70.57994675026669
-0.26870000000000005,-70.70727076725453
-0.26969999999999994,-71.31559662619651
-0.27070000000000005,-72.00880516313036
-0.27169999999999994,-72.75860215205884
-0.27270000000000005,-73.32448667200485
-0.27369999999999994,-73.49425202798865
-0.27470000000000006,-73.57913470598055
-0.27569999999999995,-73.57913470598055
-0.27670000000000006,-73.72060583596706
-0.27769999999999995,-74.28649035591307
-0.27870000000000006,-75.02214023184291
-0.27969999999999995,-75.8992612377592
-0.28070000000000006,-76.63491111368903
-0.28169999999999995,-76.94614759965934
-0.28270000000000006,-77.1583542946391
-0.28369999999999995,-77.0734716166472
-0.28470000000000006,-77.28567831162695
-0.28569999999999995,-77.86570994457162
-0.28670000000000007,-78.60135982050144
-0.28769999999999996,-79.56336350440966
-0.28870000000000007,-80.38389605833139
-0.28969999999999996,-80.99222191727335
-0.29070000000000007,-81.26101706424771
-0.29169999999999996,-81.43078242023151
-0.29270000000000007,-81.65713622820991
-0.29369999999999996,-82.09569673116808
-0.2947000000000001,-82.8313466070979
-0.29569999999999996,-83.79335029100612
-0.2967000000000001,-84.75535397491434
-0.29769999999999996,-85.49100385084417
-0.2987000000000001,-85.88712301480638
-0.29969999999999997,-86.09932970978613
-0.3007000000000001,-86.28324217876859
-0.30169999999999997,-86.66521422973216
-0.3027000000000001,-87.41501121866061
-0.30369999999999997,-88.37701490256885
-0.3047000000000001,-89.50878394246087
-0.30569999999999997,-90.37175783537855
-0.3067000000000001,-90.93764235532454
-0.3077,-91.37620285828272
-0.3087000000000001,-91.51767398826922
-0.3097,-91.98452871722468
-0.3107000000000001,-92.6918843671572
-0.3117,-93.65388805106544
-0.3127000000000001,-94.8280984299534
-0.3137,-95.83254345285758
-0.3147000000000001,-96.65307600677932
-0.3157,-97.09163650973747
-0.3167000000000001,-97.40287299570777
-0.3177,-97.84143349866595
-0.3187000000000001,-98.4497593576079
-0.3197,-99.45420438051207
-0.3207000000000001,-100.58597342040412
-0.3217,-101.71774246029614
-0.3227000000000001,-102.76462882219626
-0.3237,-103.37295468113824
-0.3247000000000001,-103.81151518409638
-0.3257,-104.2076343480586
-0.3267000000000001,-104.77351886800463
-0.3277,-105.73552255191284
-0.3287000000000001,-106.86729159180487
-0.3297,-108.1688259876807
-0.3307000000000001,-109.25815368857677
-0.3317,-110.05039201650122
-0.3327000000000001,-110.65871787544317
-0.3337,-111.05483703940537
-0.3347000000000001,-111.7056042373433
-0.3357,-112.66760792125153
-0.3367000000000001,-113.79937696114357
-0.3377,-115.19994114800993
-0.3387000000000001,-116.45903420488982
-0.3397,-117.42103788879804
-0.3407000000000001,-118.07180508673595
-0.3417,-118.59524826768603
-0.3427000000000001,-119.2884568046199
-0.3437,-120.08069513254432
-0.3447000000000001,-121.29734685042824
-0.3457,-122.61302835930273
-0.3467000000000001,-123.95700409417452
-0.3477,-125.23024426405304
-0.3487000000000001,-126.00833547897882
-0.3497,-126.75813246790726
-0.3507000000000001,-127.28157564885734
-0.3517,-128.144549541775
-0.3527000000000001,-129.33290703366166
-0.3537,-130.67688276853346
-0.3547000000000001,-132.2896536503796
-0.3557,-133.64777649825
-0.35670000000000013,-134.6097801821582
-0.3577,-135.43031273607997
-0.35870000000000013,-136.03863859502192
-0.3597,-136.91575960093826
-0.36070000000000013,-138.08996997982624
-0.3617,-139.4056514887007
-0.3626999999999999,-141.01842237054686
-0.3637,-142.4614278964092
-0.3646999999999999,-143.5931969363012
-0.3657,-144.58349484620675
-0.3666999999999999,-145.14937936615277
-0.3677,-146.1396772760583
-0.3686999999999999,-146.9885040559773
-0.36970000000000003,-148.54468648582886
-0.3706999999999999,-150.1008689156804
-0.37170000000000003,-151.65705134553193
-0.3726999999999999,-153.07176264539694
-0.37370000000000003,-154.0620605553025
-0.3746999999999999,-154.9108873352215
-0.37570000000000003,-155.61824298515404
-0.3766999999999999,-156.75001202504606
-0.37770000000000004,-158.1647233249111
-0.3786999999999999,-159.72090575476264
-0.37970000000000004,-161.5600304445872
-0.3806999999999999,-162.97474174445222
-0.38170000000000004,-164.24798191433075
-0.38269999999999993,-165.09680869424977
-0.38370000000000004,-165.94563547416882
-0.38469999999999993,-166.93593338407433
-0.38570000000000004,-168.20917355395284
-0.38669999999999993,-168.06770242396635
-0.38570000000000004,-165.2382798242363
-0.38469999999999993,-162.40885722450622
-0.38370000000000004,-159.57943462477613
-0.38269999999999993,-156.60854089505958
-0.38170000000000004,-153.63764716534297
-0.3806999999999999,-150.94969569559944
-0.37970000000000004,-148.40321535584232
-0.3786999999999999,-146.4226195360313
-0.37770000000000004,-144.44202371622026
-0.3766999999999999,-142.7443701563822
-0.37570000000000003,-140.9759810315509
-0.3746999999999999,-138.7548842907628
-0.37370000000000003,-136.47719909798008
-0.3726999999999999,-134.08633700120816
-0.37170000000000003,-131.99256427740792
-0.3706999999999999,-130.28076360457123
-0.36970000000000003,-128.8094638527116
-0.3686999999999999,-127.4937823438371
-0.3677,-125.96589413998288
-0.3666999999999999,-124.09847522416102
-0.3657,-122.17446785634456
-0.3646999999999999,-119.99581245455242
-0.3637,-118.07180508673595
-0.3626999999999999,-116.50147554388576
-0.3617,-115.10091135701937
-0.36070000000000013,-113.96914231712736
-0.3597,-112.66760792125153
-0.35870000000000013,-111.13971971739728
-0.3577,-109.35718347956733
-0.35670000000000013,-107.34829343375898
-0.3557,-105.50916874393444
-0.3547000000000001,-103.85395652309235
-0.3537,-102.5524221272165
-0.3527000000000001,-101.44894731332178
-0.3517,-100.31717827342976
-0.3507000000000001,-99.05808521654988
-0.3497,-97.44531433470372
-0.3487000000000001,-95.60618964487918
-0.3477,-93.69632939006138
-0.3467000000000001,-92.04111716921928
-0.3457,-90.68299432134886
-0.3447000000000001,-89.59366662045278
-0.3437,-88.63166293654454
-0.3427000000000001,-87.41501121866061
-0.3417,-85.97200569279828
-0.3407000000000001,-84.27435213296022
-0.3397,-82.39278610413973
-0.3387000000000001,-80.82245656128954
-0.3377,-79.47848082641775
-0.3367000000000001,-78.38915312552167
-0.3357,-77.51203211960537
-0.3347000000000001,-76.42270441870929
-0.3337,-75.19190558782671
-0.3327000000000001,-73.62157604497652
-0.3317,-71.8814811461425
-0.3307000000000001,-70.26871026429637
-0.3297,-68.74082206044213
-0.3287000000000001,-67.693935698542
-0.3277,-66.81681469262568
-0.3267000000000001,-65.82651678272015
-0.3257,-64.86451309881193
-0.3247000000000001,-63.37906623395363
-0.3237,-61.6814126741156
-0.3227000000000001,-60.02620045327351
-0.3217,-58.498312249419264
-0.3207000000000001,-57.45142588751914
-0.3197,-56.489422203610914
-0.3187000000000001,-55.6971838756865
-0.3177,-54.73518019177827
-0.3167000000000001,-53.39120445690648
-0.3157,-51.90575759204819
-0.3147000000000001,-50.20810403221015
-0.3137,-48.76509850634781
-0.3127000000000001,-47.633329466455784
-0.3117,-46.713767121543505
-0.3107000000000001,-45.89323456762179
-0.3097,-45.01611356170547
-0.3087000000000001,-43.92678586080939
-0.3077,-42.483780334947056
-0.3067000000000001,-40.91345079209687
-0.30569999999999997,-39.42800392723857
-0.3047000000000001,-38.16891087035869
-0.30369999999999997,-37.249348525446415
-0.3027000000000001,-36.5136986495166
-0.30169999999999997,-35.763901660588125
-0.3007000000000001,-34.85848642867451
-0.29969999999999997,-33.50036358080407
-0.2987000000000001,-32.05735805494172
-0.29769999999999996,-30.529469851087494
-0.2967000000000001,-29.22793545521166
-0.29569999999999996,-28.308373110299385
-0.2947000000000001,-27.530281895373616
-0.29369999999999996,-27.00683871442355
-0.29270000000000007,-26.087276369511276
-0.29169999999999996,-24.997948668615198
-0.29070000000000007,-23.724708498736668
-0.28969999999999996,-22.111937616890522
-0.28870000000000007,-20.85284456001064
-0.28769999999999996,-19.890840876102416
-0.28670000000000007,-19.112749661176647
-0.28569999999999995,-18.589306480226583
-0.28470000000000006,-17.839509491298113
-0.28369999999999995,-16.919947146385837
-0.28270000000000006,-15.74573676749786
-0.28169999999999995,-14.30273124163552
-0.28070000000000006,-13.043638184755638
-0.27969999999999995,-11.952895772559694
-0.27870000000000006,-11.211587051430415
-0.27769999999999995,-10.644287820184536
-0.27670000000000006,-10.078403300238522
-0.27569999999999995,-9.379535918105192
-0.27470000000000006,-8.246352166913299
-0.27369999999999994,-6.981600264833956
-0.27270000000000005,-5.629136262162981
-0.27169999999999994,-4.494537799671222
-0.27070000000000005,-3.7093730282461257
-0.26969999999999994,-3.1859298472960624
-0.26870000000000005,-2.794054817233447
-0.26769999999999994,-2.1390434853959355
-0.26670000000000005,-1.1362961160515976
-0.26569999999999994,0.04140859974704963
