Potential V vs RHE, Current mA cm-2
0.05339999999999995,-0.025507244736566608
0.05239999999999995,-0.026341924403486983
0.051399999999999946,-0.026851220471438397
0.050399999999999945,-0.02723319252240196
0.049399999999999944,-0.027601017460366868
0.04839999999999994,-0.027982989511330426
0.04739999999999994,-0.028308373110299385
0.04639999999999994,-0.028647903822266993
0.04539999999999994,-0.0289591403082373
0.04439999999999994,-0.029298671020204912
0.04339999999999994,-0.029652348845171168
0.04239999999999994,-0.029963585331141473
0.04139999999999994,-0.030274821817111785
0.040399999999999936,-0.030571911190083446
0.039399999999999935,-0.030911441902051046
0.038399999999999934,-0.03127926684001596
0.03739999999999993,-0.03157635621298762
0.03639999999999993,-0.03185929847296063
0.03539999999999993,-0.03217053495893094
0.03439999999999993,-0.03251006567089854
0.03339999999999993,-0.03287789060886345
0.03239999999999993,-0.03318912709483376
0.03139999999999993,-0.03351451069380272
0.030399999999999927,-0.03383989429277168
0.029399999999999926,-0.03420771923073659
0.028399999999999925,-0.034561397055702846
0.027399999999999924,-0.03487263354167316
0.026399999999999924,-0.035198017140642114
0.025399999999999923,-0.03552340073961108
0.024399999999999922,-0.03587707856457733
0.02339999999999992,-0.03627319772853954
0.02239999999999992,-0.03661272844050715
0.02139999999999992,-0.03695225915247476
0.020399999999999918,-0.037305936977441015
0.019399999999999917,-0.037673761915405925
0.018399999999999916,-0.03806988107936814
0.017399999999999916,-0.038409411791335744
0.016399999999999915,-0.038763089616302
0.015399999999999914,-0.03911676744126827
0.014399999999999913,-0.03948459237923317
0.013399999999999912,-0.03992315288219133
0.012399999999999911,-0.04029097782015625
0.01139999999999991,-0.040630508532123855
0.01039999999999991,-0.041012480583087416
0.009399999999999908,-0.04140859974704963
0.008399999999999908,-0.041818866024010484
0.007399999999999907,-0.042200838074974045
0.006399999999999906,-0.042568663012938955
0.005399999999999905,-0.042936487950903865
0.004399999999999904,-0.04337504845386203
0.003399999999999903,-0.04379946184382154
0.002399999999999902,-0.04419558100778375
0.0013999999999999013,-0.044577553058747305
0.00039999999999990044,-0.04498781933570817
-0.0006000000000001005,-0.04542637983866633
-0.0016000000000001013,-0.04585079322862584
-0.0026000000000001022,-0.04624691239258805
-0.003600000000000103,-0.04664303155655026
-0.004600000000000104,-0.04705329783351112
-0.005600000000000105,-0.047520152562466576
-0.006600000000000106,-0.04797286017842339
-0.007600000000000107,-0.0483972735683829
-0.008600000000000108,-0.048807539845343764
-0.009600000000000108,-0.04924610034830192
-0.01060000000000011,-0.04968466085126009
-0.01160000000000011,-0.0501656626932142
-0.012600000000000111,-0.05060422319617236
-0.013600000000000112,-0.051028636586131874
-0.014600000000000113,-0.051481344202088684
-0.015600000000000114,-0.051948198931044146
-0.016600000000000115,-0.05242920077299826
-0.017600000000000116,-0.05286776127595642
-0.018600000000000116,-0.05330632177891458
-0.019600000000000117,-0.053787323620868695
-0.020600000000000118,-0.054254178349824156
-0.02160000000000012,-0.05476347441777557
-0.02260000000000012,-0.055216182033732374
-0.02360000000000012,-0.05568303676268785
-0.024600000000000122,-0.056149891491643296
-0.025600000000000123,-0.056645040446596066
-0.026600000000000124,-0.05714018940154882
-0.027600000000000124,-0.0576070441305043
-0.028600000000000125,-0.058073898859459745
-0.029600000000000126,-0.05854075358841522
-0.030600000000000127,-0.05903590254336798
-0.03160000000000013,-0.05953105149832075
-0.03260000000000013,-0.0599979062272762
-0.03360000000000013,-0.060478908069230314
-0.03460000000000002,-0.060959909911184426
-0.03560000000000002,-0.06149750020513314
-0.03660000000000002,-0.06202094338608321
-0.03760000000000002,-0.06251609234103597
-0.03860000000000002,-0.06302538840898737
-0.039600000000000024,-0.06352053736394014
-0.040600000000000025,-0.06408642188388616
-0.041600000000000026,-0.06462401217783488
-0.04260000000000003,-0.06511916113278764
-0.04360000000000003,-0.0656426043137377
-0.04460000000000003,-0.06615190038168911
-0.04560000000000003,-0.06668949067563783
-0.04660000000000003,-0.0672412280825852
-0.04760000000000003,-0.0677505241505366
-0.04860000000000003,-0.06828811444448532
-0.04960000000000003,-0.06879741051243674
-0.050600000000000034,-0.06933500080638545
-0.051600000000000035,-0.06990088532633146
-0.052600000000000036,-0.07042432850728152
-0.053600000000000037,-0.07096191880123023
-0.05460000000000004,-0.07148536198218029
-0.05560000000000004,-0.07205124650212633
-0.05660000000000004,-0.07263127813507098
-0.05760000000000004,-0.07315472131602105
-0.05860000000000004,-0.07367816449697111
-0.05960000000000004,-0.07422990190391847
-0.06060000000000004,-0.0747957864238645
-0.061600000000000044,-0.07537581805680914
-0.06260000000000004,-0.07592755546375651
-0.06360000000000005,-0.07645099864470659
-0.06460000000000005,-0.07697444182565666
-0.06560000000000005,-0.07755447345860131
-0.06660000000000005,-0.07816279931754326
-0.06760000000000005,-0.07870038961149198
-0.06860000000000005,-0.07923797990544071
-0.06960000000000005,-0.07978971731238807
-0.07060000000000005,-0.08035560183233408
-0.07160000000000005,-0.08094978057827738
-0.07260000000000005,-0.08150151798522477
-0.07360000000000005,-0.08205325539217213
-0.07460000000000006,-0.0826049927991195
-0.07560000000000006,-0.0831708773190655
-0.07660000000000006,-0.08372261472601288
-0.07760000000000006,-0.08423191079396428
-0.07860000000000006,-0.08478364820091165
-0.07960000000000006,-0.08533538560785901
-0.08060000000000006,-0.08591541724080368
-0.08160000000000006,-0.086509595986747
-0.08260000000000006,-0.08703303916769706
-0.08360000000000006,-0.08755648234864712
-0.08460000000000006,-0.08806577841659853
-0.08560000000000006,-0.08861751582354589
-0.08660000000000007,-0.08921169456948921
-0.08760000000000007,-0.08976343197643659
-0.08860000000000007,-0.09030102227038528
-0.08960000000000007,-0.090838612564334
-0.09060000000000007,-0.09141864419727867
-0.09160000000000007,-0.09199867583022334
-0.09260000000000007,-0.0925221190111734
-0.09360000000000007,-0.09305970930512211
-0.09460000000000007,-0.09359729959907082
-0.09560000000000007,-0.09416318411901684
-0.09660000000000007,-0.09472906863896285
-0.09760000000000008,-0.09523836470691427
-0.09860000000000008,-0.09577595500086299
-0.09960000000000008,-0.09631354529481169
-0.10060000000000008,-0.09685113558876042
-0.10160000000000008,-0.09740287299570777
-0.10260000000000008,-0.0979121690636592
-0.10360000000000008,-0.09843561224460926
-0.10460000000000008,-0.09893076119956201
-0.10560000000000008,-0.09945420438051207
-0.10660000000000008,-0.10000594178745945
-0.10760000000000008,-0.10051523785541085
-0.10860000000000009,-0.10101038681036362
-0.10960000000000009,-0.10150553576531639
-0.11060000000000009,-0.10202897894626643
-0.11160000000000009,-0.10253827501421786
-0.11260000000000009,-0.10300512974317333
-0.11360000000000009,-0.10350027869812609
-0.11460000000000009,-0.10399542765307884
-0.11560000000000009,-0.10449057660803161
-0.11660000000000009,-0.10501401978898167
-0.1176000000000001,-0.10548087451793714
-0.1186000000000001,-0.10593358213389395
-0.1196000000000001,-0.10641458397584806
-0.1206000000000001,-0.10689558581780217
-0.1216000000000001,-0.10739073477275493
-0.1226000000000001,-0.1078292952757131
-0.1236000000000001,-0.10828200289166989
-0.1246000000000001,-0.10872056339462807
-0.1256000000000001,-0.10918741812358353
-0.1266000000000001,-0.10966841996553764
-0.1276000000000001,-0.1101069804684958
-0.1286000000000001,-0.11053139385845531
-0.1296000000000001,-0.11094166013541619
-0.1306000000000001,-0.11139436775137299
-0.1316000000000001,-0.11186122248032847
-0.1326000000000001,-0.11227148875728932
-0.1336000000000001,-0.11266760792125154
-0.1346000000000001,-0.11306372708521374
-0.1356000000000001,-0.11348814047517325
-0.1366000000000001,-0.11392670097813141
-0.1376000000000001,-0.11429452591609632
-0.1386000000000001,-0.11467649796705988
-0.1396000000000001,-0.11505847001802343
-0.1406000000000001,-0.1154687362949843
-0.14160000000000011,-0.11589314968494381
-0.14260000000000012,-0.11627512173590737
-0.14360000000000012,-0.11664294667387226
-0.14460000000000012,-0.11701077161183718
-0.14560000000000012,-0.1173785965498021
-0.14660000000000012,-0.11777471571376431
-0.14760000000000012,-0.11810009931273327
-0.14860000000000012,-0.11841133579870355
-0.14960000000000012,-0.11873671939767255
-0.15060000000000012,-0.11909039722263878
-0.15160000000000012,-0.11944407504760506
-0.15260000000000012,-0.11978360575957266
-0.15360000000000013,-0.12009484224554295
-0.15460000000000013,-0.12039193161851462
-0.15560000000000013,-0.12071731521748358
-0.15660000000000013,-0.12104269881645255
-0.15760000000000013,-0.12133978818942417
-0.15860000000000013,-0.12159443622339991
-0.15960000000000002,-0.12184908425737562
-0.16060000000000002,-0.12213202651734863
-0.16160000000000002,-0.12242911589032028
-0.16260000000000002,-0.12269791103729463
-0.16360000000000002,-0.12295255907127035
-0.16460000000000002,-0.12320720710524605
-0.16560000000000002,-0.12353259070421502
-0.16660000000000003,-0.12387212141618263
-0.16760000000000003,-0.12407018099816372
-0.16860000000000003,-0.12429653480614214
-0.16960000000000003,-0.12452288861412053
-0.17060000000000003,-0.12477753664809622
-0.17160000000000003,-0.12501803756907331
-0.17260000000000003,-0.12523024426405305
-0.17360000000000003,-0.1254141567330355
-0.17460000000000003,-0.12559806920201796
-0.17560000000000003,-0.1258102758969977
-0.17660000000000003,-0.12605077681797475
-0.17760000000000004,-0.1262205421739586
-0.17860000000000004,-0.1264186017559397
-0.17960000000000004,-0.12660251422492214
-0.18060000000000004,-0.12681472091990187
-0.18160000000000004,-0.12702692761488163
-0.18260000000000004,-0.12718254585786679
-0.18360000000000004,-0.12733816410085197
-0.18460000000000004,-0.1274937823438371
-0.18560000000000004,-0.12767769481281957
-0.18660000000000004,-0.12787575439480064
-0.18760000000000004,-0.1280313726377858
-0.18860000000000005,-0.12815869665477364
-0.18960000000000005,-0.1283001677847602
-0.19060000000000005,-0.12846993314074398
-0.19160000000000005,-0.12865384560972642
-0.19260000000000005,-0.1287811696267143
-0.19360000000000005,-0.12888019941770484
-0.19460000000000005,-0.12899337632169403
-0.19560000000000005,-0.12913484745168055
-0.19660000000000005,-0.1292904656946657
-0.19760000000000005,-0.12938949548565626
-0.19860000000000005,-0.12950267238964547
-0.19960000000000006,-0.129601702180636
-0.20060000000000006,-0.12972902619762386
-0.20160000000000006,-0.1298563502146117
-0.20260000000000006,-0.12994123289260362
-0.20360000000000006,-0.13004026268359417
-0.20460000000000006,-0.1301392924745847
-0.20560000000000006,-0.1302666164915726
-0.20660000000000006,-0.13037979339556177
-0.20760000000000006,-0.1304646760735537
-0.20860000000000006,-0.13052126452554827
-0.20960000000000006,-0.13059200009054156
-0.21060000000000006,-0.13069102988153208
-0.21160000000000007,-0.13081835389851995
-0.21260000000000007,-0.13087494235051456
-0.21360000000000007,-0.13094567791550782
-0.21460000000000007,-0.13101641348050105
-0.21560000000000007,-0.13110129615849295
-0.21660000000000007,-0.1312003259494835
-0.21760000000000007,-0.13127106151447676
-0.21860000000000007,-0.1313135028534727
-0.21960000000000007,-0.1313700913054673
-0.22060000000000007,-0.13142667975746194
-0.22160000000000007,-0.1315115624354538
-0.22260000000000008,-0.13156815088744844
-0.22360000000000008,-0.1315964451134457
-0.22460000000000008,-0.13163888645244168
-0.22560000000000008,-0.13170962201743494
-0.22660000000000008,-0.13178035758242818
-0.22760000000000008,-0.1318086518084255
-0.22860000000000008,-0.1318227989214241
-0.22960000000000008,-0.13187938737341873
-0.23060000000000008,-0.13193597582541333
-0.23160000000000008,-0.13200671139040657
-0.23260000000000008,-0.1320491527294025
-0.23360000000000009,-0.13206329984240117
-0.2346000000000001,-0.13207744695539983
-0.2356000000000001,-0.13211988829439578
-0.2366000000000001,-0.13221891808538633
-0.2376000000000001,-0.13221891808538633
-0.2386000000000001,-0.13224721231138362
-0.2396000000000001,-0.13226135942438227
-0.2406000000000001,-0.13231794787637688
-0.2416000000000001,-0.13236038921537283
-0.2426000000000001,-0.13238868344137011
-0.2436000000000001,-0.13241697766736746
-0.2446000000000001,-0.13241697766736746
-0.2456000000000001,-0.13245941900636338
-0.2466000000000001,-0.13251600745835798
-0.2476000000000001,-0.13251600745835798
-0.2486000000000001,-0.13253015457135664
-0.2496000000000001,-0.13254430168435527
-0.2506000000000001,-0.13258674302335122
-0.2516000000000001,-0.1326291843623472
-0.2526000000000001,-0.1326291843623472
-0.2536000000000001,-0.13264333147534585
-0.2546000000000001,-0.13265747858834448
-0.2556000000000001,-0.13268577281434177
-0.2566000000000001,-0.13274236126633637
-0.2576000000000001,-0.13275650837933503
-0.2586000000000001,-0.13275650837933503
-0.2596000000000001,-0.13275650837933503
-0.2606000000000001,-0.13278480260533235
-0.2616000000000001,-0.13284139105732695
-0.2626000000000001,-0.13284139105732695
-0.2636000000000001,-0.13284139105732695
-0.2646000000000001,-0.13284139105732695
-0.2656000000000001,-0.13286968528332424
-0.2666000000000001,-0.13291212662232021
-0.2676000000000001,-0.13292627373531885
-0.2686000000000001,-0.13292627373531885
-0.2696000000000001,-0.1329404208483175
-0.2706000000000001,-0.13296871507431476
-0.2716000000000001,-0.13301115641331077
-0.2726000000000001,-0.1330253035263094
-0.2736000000000001,-0.1329970093003121
-0.2746000000000001,-0.13301115641331077
-0.2756000000000001,-0.13303945063930803
-0.2766000000000001,-0.133081891978304
-0.2776000000000001,-0.13309603909130266
-0.2786000000000001,-0.133081891978304
-0.2796000000000001,-0.13309603909130266
-0.2806000000000001,-0.1331384804302986
-0.28160000000000013,-0.1331667746562959
-0.28260000000000013,-0.13318092176929455
-0.28360000000000013,-0.13315262754329726
-0.2846,-0.13318092176929455
-0.2856,-0.1332233631082905
-0.2866,-0.13323751022128916
-0.2876,-0.13323751022128916
-0.2886,-0.13325165733428782
-0.2896,-0.13325165733428782
-0.2906,-0.13329409867328376
-0.2916,-0.13335068712527834
-0.2926,-0.13333654001227974
-0.2936,-0.13335068712527834
-0.29460000000000003,-0.13335068712527834
-0.29560000000000003,-0.1333931284642743
-0.29660000000000003,-0.1334497169162689
-0.29760000000000003,-0.13343556980327026
-0.29860000000000003,-0.13343556980327026
-0.29960000000000003,-0.1334497169162689
-0.30060000000000003,-0.1334921582552649
-0.30160000000000003,-0.1335345995942608
-0.30260000000000004,-0.1335345995942608
-0.30360000000000004,-0.13354874670725947
-0.30460000000000004,-0.13354874670725947
-0.30560000000000004,-0.1335911880462554
-0.30660000000000004,-0.13364777649825
-0.30760000000000004,-0.13366192361124865
-0.30860000000000004,-0.1336336293852514
-0.30960000000000004,-0.13364777649825
-0.31060000000000004,-0.13370436495024463
-0.31160000000000004,-0.13374680628924054
-0.31260000000000004,-0.13376095340223923
-0.31360000000000005,-0.13376095340223923
-0.31460000000000005,-0.13378924762823652
-0.31560000000000005,-0.13383168896723246
-0.31660000000000005,-0.13387413030622844
-0.31760000000000005,-0.13390242453222573
-0.31860000000000005,-0.13388827741922704
-0.31960000000000005,-0.13391657164522439
-0.32060000000000005,-0.13398730721021762
-0.32160000000000005,-0.13401560143621494
-0.32260000000000005,-0.13404389566221223
-0.32360000000000005,-0.13404389566221223
-0.32460000000000006,-0.13405804277521088
-0.32560000000000006,-0.1341146312272055
-0.32660000000000006,-0.13418536679219872
-0.32760000000000006,-0.13417121967920007
-0.32860000000000006,-0.13419951390519738
-0.32960000000000006,-0.13422780813119467
-0.33060000000000006,-0.13427024947019062
-0.33160000000000006,-0.13431269080918656
-0.33260000000000006,-0.13435513214818254
-0.33360000000000006,-0.13436927926118117
-0.33460000000000006,-0.13438342637417983
-0.33560000000000006,-0.13442586771317577
-0.33660000000000007,-0.13451075039116767
-0.33760000000000007,-0.13449660327816904
-0.33860000000000007,-0.13452489750416632
-0.33960000000000007,-0.13456733884316227
-0.34060000000000007,-0.13460978018215825
-0.34160000000000007,-0.1346805157471515
-0.34260000000000007,-0.13469466286015017
-0.34360000000000007,-0.1347088099731488
-0.3446000000000001,-0.13473710419914608
-0.3456000000000001,-0.134821986877138
-0.3466000000000001,-0.13487857532913258
-0.34759999999999996,-0.13489272244213124
-0.3486000000000001,-0.13493516378112722
-0.34959999999999997,-0.1350200464591191
-0.3506000000000001,-0.1350766349111137
-0.35159999999999997,-0.13514737047610695
-0.3526000000000001,-0.1351898118151029
-0.35359999999999997,-0.13520395892810155
-0.3546000000000001,-0.13524640026709753
-0.35559999999999997,-0.1353029887190921
-0.3566000000000001,-0.1353595771710867
-0.3576,-0.13540201851008268
-0.3586000000000001,-0.13543031273607994
-0.3596,-0.1354586069620773
-0.3606000000000001,-0.13551519541407187
-0.3616,-0.1355859309790651
-0.3626000000000001,-0.13562837231806107
-0.3636,-0.13565666654405836
-0.3646000000000001,-0.13568496077005568
-0.3656,-0.13574154922205028
-0.3666000000000001,-0.13582643190004218
-0.3676,-0.1358688732390381
-0.3686000000000001,-0.13588302035203678
-0.3696,-0.13592546169103273
-0.3706000000000001,-0.13602449148202328
-0.3716,-0.13610937416001517
-0.3726000000000001,-0.1361659626120098
-0.3736,-0.13632158085499493
-0.3746000000000001,-0.13649134621097872
-0.3756,-0.13656208177597198
-0.3766000000000001,-0.13666111156696256
-0.3776,-0.13666111156696256
-0.3786000000000001,-0.13670355290595848
-0.3796,-0.13677428847095174
-0.3806000000000001,-0.13683087692294635
-0.3816,-0.13691575960093824
-0.3826000000000001,-0.1369582009399342
-0.3836,-0.13700064227893016
-0.3846000000000001,-0.13705723073092474
-0.3856,-0.13711381918291934
-0.3866000000000001,-0.13722699608690858
-0.3876,-0.1372694374259045
-0.3886000000000001,-0.13729773165190182
-0.3896,-0.13736846721689508
-0.3906000000000001,-0.13749579123388292
-0.3916,-0.13769385081586402
-0.3926000000000001,-0.13775043926785863
-0.3936,-0.13780702771985323
-0.3946000000000001,-0.13783532194585052
-0.3956,-0.13792020462384244
-0.3966000000000001,-0.13803338152783162
-0.3976,-0.13808996997982623
-0.3986000000000001,-0.1381324113188222
-0.3996,-0.13817485265781812
-0.4006000000000001,-0.13825973533581
-0.4016,-0.13837291223979925
-0.4026000000000001,-0.13842950069179386
-0.4036,-0.13847194203078977
-0.4046000000000001,-0.1385285304827844
-0.4056,-0.13862756027377496
-0.40660000000000013,-0.13871244295176685
-0.4076,-0.13876903140376146
-0.40860000000000013,-0.13891050253374798
-0.4096,-0.13908026788973174
-0.41060000000000013,-0.13916515056772363
-0.4116,-0.1392641803587142
-0.41260000000000013,-0.13930662169771016
-0.4136,-0.13936321014970476
-0.41460000000000014,-0.13943394571469803
-0.4156,-0.13950468127969126
-0.41660000000000014,-0.13963200529667913
-0.4176,-0.13967444663567508
-0.41860000000000014,-0.13975932931366697
-0.41960000000000003,-0.13991494755665213
-0.42060000000000014,-0.14002812446064133
-0.42160000000000003,-0.14015544847762917
-0.42260000000000014,-0.1402120369296238
-0.42360000000000003,-0.1402686253816184
-0.42460000000000014,-0.14033936094661165
-0.42560000000000003,-0.1404383907376022
-0.42660000000000015,-0.1405515676415914
-0.42760000000000004,-0.14060815609358598
-0.42860000000000015,-0.14065059743258196
-0.42960000000000004,-0.14073548011057385
-0.43060000000000015,-0.1408628041275617
-0.43160000000000004,-0.14094768680555358
-0.43260000000000015,-0.14101842237054685
-0.43360000000000004,-0.14108915793554008
-0.43460000000000015,-0.14117404061353203
-0.43560000000000004,-0.14127307040452258
-0.43660000000000015,-0.14138624730851176
