Potential V vs RHE, Current mA cm-2
0.05339999999999995,-0.02888840474324405
0.05239999999999995,-0.030161644913122586
0.051399999999999946,-0.030685088094072648
0.050399999999999945,-0.031095354371033508
0.049399999999999944,-0.031434885083001116
0.04839999999999994,-0.03174612156897143
0.04739999999999994,-0.032071505167940384
0.04639999999999994,-0.032425182992906636
0.04539999999999994,-0.03279300793087155
0.04439999999999994,-0.033104244416841865
0.04339999999999994,-0.03340133378981351
0.04239999999999994,-0.03375501161477978
0.04139999999999994,-0.034094542326747385
0.040399999999999936,-0.034476514377710946
0.039399999999999935,-0.0347736037506826
0.038399999999999934,-0.03509898734965156
0.03739999999999993,-0.03539607672262322
0.03639999999999993,-0.03577804877358678
0.03539999999999993,-0.03614587371155169
0.03439999999999993,-0.036471257310520644
0.03339999999999993,-0.03681078802248825
0.03239999999999993,-0.03713617162145721
0.03139999999999993,-0.037503996559422124
0.030399999999999927,-0.037871821497387034
0.029399999999999926,-0.03821135220935464
0.028399999999999925,-0.03855088292132225
0.027399999999999924,-0.03887626652029121
0.026399999999999924,-0.03927238568425342
0.025399999999999923,-0.039682651961214274
0.024399999999999922,-0.04002218267318189
0.02339999999999992,-0.040347566272150845
0.02239999999999992,-0.04070124409711711
0.02139999999999992,-0.041097363261079316
0.020399999999999918,-0.04150762953804018
0.019399999999999917,-0.04186130736300644
0.018399999999999916,-0.042214985187972696
0.017399999999999916,-0.042568663012938955
0.016399999999999915,-0.04297892928989981
0.015399999999999914,-0.043389195566860675
0.014399999999999913,-0.043757020504825585
0.013399999999999912,-0.044138992555789146
0.012399999999999911,-0.044506817493754056
0.01139999999999991,-0.044959525109710866
0.01039999999999991,-0.04536979138667173
0.009399999999999908,-0.04575176343763528
0.008399999999999908,-0.04610544126260154
0.007399999999999907,-0.04650156042656376
0.006399999999999906,-0.04692597381652327
0.005399999999999905,-0.04737868143248008
0.004399999999999904,-0.04777480059644229
0.003399999999999903,-0.0481426255344072
0.002399999999999902,-0.04856703892436671
0.0013999999999999013,-0.04899145231432622
0.00039999999999990044,-0.049458307043281684
-0.0006000000000001005,-0.049840279094245245
-0.0016000000000001013,-0.0502505453712061
-0.0026000000000001022,-0.050674958761165616
-0.003600000000000103,-0.051113519264123775
-0.004600000000000104,-0.051566226880080585
-0.005600000000000105,-0.05197649315704145
-0.006600000000000106,-0.05240090654700096
-0.007600000000000107,-0.05282531993696047
-0.008600000000000108,-0.05330632177891458
-0.009600000000000108,-0.05377317650787005
-0.01060000000000011,-0.05419758989782956
-0.01160000000000011,-0.054622003287789066
-0.012600000000000111,-0.05510300512974318
-0.013600000000000112,-0.055569859858698646
-0.014600000000000113,-0.05605086170065276
-0.015600000000000114,-0.05646112797761362
-0.016600000000000115,-0.05691383559357043
-0.017600000000000116,-0.05733824898352994
-0.018600000000000116,-0.05781925082548405
-0.019600000000000117,-0.058300252667438164
-0.020600000000000118,-0.058724666057397665
-0.02160000000000012,-0.05917737367335448
-0.02260000000000012,-0.05961593417631265
-0.02360000000000012,-0.06008278890526811
-0.024600000000000122,-0.060606232086218174
-0.025600000000000123,-0.061058939702174984
-0.026600000000000124,-0.061483353092134506
-0.027600000000000124,-0.06196435493408861
-0.028600000000000125,-0.06245950388904137
-0.029600000000000126,-0.06295465284399412
-0.030600000000000127,-0.0634498017989469
-0.03160000000000013,-0.0639025094149037
-0.03260000000000013,-0.06439765836985646
-0.03360000000000013,-0.06490695443780789
-0.03460000000000002,-0.06540210339276065
-0.03560000000000002,-0.06588310523471475
-0.03660000000000002,-0.06633581285067157
-0.03760000000000002,-0.06683096180562433
-0.03860000000000002,-0.06734025787357575
-0.039600000000000024,-0.06787784816752446
-0.040600000000000025,-0.06834470289647993
-0.041600000000000026,-0.06881155762543538
-0.04260000000000003,-0.0692642652413922
-0.04360000000000003,-0.0698018555353409
-0.04460000000000003,-0.07032529871629098
-0.04560000000000003,-0.07082044767124374
-0.04660000000000003,-0.07130144951319785
-0.04760000000000003,-0.07178245135515196
-0.04860000000000003,-0.07232004164910069
-0.04960000000000003,-0.07280104349105479
-0.050600000000000034,-0.07332448667200485
-0.051600000000000035,-0.0737913414009603
-0.052600000000000036,-0.07427234324291442
-0.053600000000000037,-0.07482408064986179
-0.05460000000000004,-0.0753333767178132
-0.05560000000000004,-0.07581437855976732
-0.05660000000000004,-0.07629538040172142
-0.05760000000000004,-0.0767622351306769
-0.05860000000000004,-0.0772998254246256
-0.05960000000000004,-0.07783741571857432
-0.06060000000000004,-0.07830427044752979
-0.061600000000000044,-0.07879941940248254
-0.06260000000000004,-0.07928042124443666
-0.06360000000000005,-0.07980386442538671
-0.06460000000000005,-0.08032730760633679
-0.06560000000000005,-0.0807800152222936
-0.06660000000000005,-0.08126101706424771
-0.06760000000000005,-0.08174201890620184
-0.06860000000000005,-0.08227960920015054
-0.06960000000000005,-0.0828030523811006
-0.07060000000000005,-0.08325575999705741
-0.07160000000000005,-0.08368017338701693
-0.07260000000000005,-0.08411873388997508
-0.07360000000000005,-0.08462802995792648
-0.07460000000000006,-0.08513732602587791
-0.07560000000000006,-0.08560418075483338
-0.07660000000000006,-0.08605688837079019
-0.07760000000000006,-0.086509595986747
-0.07860000000000006,-0.08700474494169977
-0.07960000000000006,-0.08749989389665253
-0.08060000000000006,-0.08791016017361337
-0.08160000000000006,-0.08832042645057424
-0.08260000000000006,-0.08877313406653106
-0.08360000000000006,-0.08928243013448246
-0.08460000000000006,-0.08976343197643659
-0.08560000000000006,-0.09018784536639608
-0.08660000000000007,-0.09061225875635559
-0.08760000000000007,-0.09105081925931376
-0.08860000000000007,-0.09153182110126787
-0.08960000000000007,-0.09199867583022334
-0.09060000000000007,-0.09242308922018284
-0.09160000000000007,-0.09284750261014235
-0.09260000000000007,-0.09324362177410456
-0.09360000000000007,-0.09369632939006138
-0.09460000000000007,-0.09414903700601819
-0.09560000000000007,-0.0945451561699804
-0.09660000000000007,-0.09494127533394262
-0.09760000000000008,-0.09532324738490616
-0.09860000000000008,-0.09576180788786433
-0.09960000000000008,-0.09621451550382115
-0.10060000000000008,-0.09658234044178605
-0.10160000000000008,-0.09697845960574826
-0.10260000000000008,-0.09733213743071452
-0.10360000000000008,-0.09772825659467674
-0.10460000000000008,-0.09812437575863896
-0.10560000000000008,-0.0984780535836052
-0.10660000000000008,-0.09883173140857146
-0.10760000000000008,-0.09918540923353773
-0.10860000000000009,-0.0995673812845013
-0.10960000000000009,-0.09994935333546484
-0.11060000000000009,-0.1002747369344338
-0.11160000000000009,-0.1006142676464014
-0.11260000000000009,-0.10092550413237171
-0.11360000000000009,-0.10129332907033663
-0.11460000000000009,-0.10167530112130019
-0.11560000000000009,-0.10198653760727049
-0.11660000000000009,-0.10225533275424485
-0.1176000000000001,-0.10256656924021516
-0.1186000000000001,-0.10289195283918412
-0.1196000000000001,-0.10320318932515443
-0.1206000000000001,-0.10351442581112473
-0.1216000000000001,-0.10375492673210178
-0.1226000000000001,-0.10400957476607749
-0.1236000000000001,-0.10433495836504646
-0.1246000000000001,-0.10463204773801811
-0.1256000000000001,-0.1048866957719938
-0.1266000000000001,-0.10509890246697358
-0.1276000000000001,-0.10536769761394793
-0.1286000000000001,-0.10566478698691958
-0.1296000000000001,-0.1059477292468926
-0.1306000000000001,-0.10617408305487101
-0.1316000000000001,-0.10638628974985076
-0.1326000000000001,-0.10659849644483052
-0.1336000000000001,-0.10683899736580757
-0.1346000000000001,-0.10709364539978329
-0.1356000000000001,-0.10729170498176437
-0.1366000000000001,-0.10747561745074685
-0.1376000000000001,-0.1076595299197293
-0.1386000000000001,-0.10790003084070635
-0.1396000000000001,-0.1081405317616834
-0.1406000000000001,-0.10832444423066585
-0.14160000000000011,-0.10846591536065237
-0.14260000000000012,-0.10862153360363752
-0.14360000000000012,-0.10881959318561862
-0.14460000000000012,-0.10901765276759973
-0.14560000000000012,-0.1091732710105849
-0.14660000000000012,-0.10930059502757274
-0.14760000000000012,-0.1094562132705579
-0.14860000000000012,-0.1095976844005444
-0.14960000000000012,-0.1097957439825255
-0.15060000000000012,-0.1099089208865147
-0.15160000000000012,-0.11000795067750524
-0.15260000000000012,-0.1101352746944931
-0.15360000000000013,-0.11029089293747825
-0.15460000000000013,-0.11043236406746475
-0.15560000000000013,-0.11051724674545668
-0.15660000000000013,-0.11058798231044992
-0.15760000000000013,-0.11067286498844181
-0.15860000000000013,-0.11080018900542968
-0.15960000000000002,-0.11091336590941887
-0.16060000000000002,-0.11099824858741078
-0.16160000000000002,-0.11106898415240402
-0.16260000000000002,-0.11113971971739729
-0.16360000000000002,-0.11123874950838784
-0.16460000000000002,-0.11132363218637975
-0.16560000000000002,-0.11142266197737029
-0.16660000000000003,-0.1115075446553622
-0.16760000000000003,-0.1115075446553622
-0.16860000000000003,-0.11159242733335409
-0.16960000000000003,-0.11166316289834735
-0.17060000000000003,-0.111677310011346
-0.17160000000000003,-0.11171975135034196
-0.17260000000000003,-0.11171975135034196
-0.17360000000000003,-0.11180463402833385
-0.17460000000000003,-0.11186122248032847
-0.17560000000000003,-0.11186122248032847
-0.17660000000000003,-0.11188951670632576
-0.17760000000000004,-0.11187536959332708
-0.17860000000000004,-0.1119319580453217
-0.17960000000000004,-0.11197439938431765
-0.18060000000000004,-0.11194610515832035
-0.18160000000000004,-0.11194610515832035
-0.18260000000000004,-0.11194610515832035
-0.18360000000000004,-0.11196025227131902
-0.18460000000000004,-0.11200269361031497
-0.18560000000000004,-0.11197439938431765
-0.18660000000000004,-0.11196025227131902
-0.18760000000000004,-0.11190366381932441
-0.18860000000000005,-0.11191781093232304
-0.18960000000000005,-0.11194610515832035
-0.19060000000000005,-0.11190366381932441
-0.19160000000000005,-0.11187536959332708
-0.19260000000000005,-0.11187536959332708
-0.19360000000000005,-0.11186122248032847
-0.19460000000000005,-0.11187536959332708
-0.19560000000000005,-0.1118187811413325
-0.19660000000000005,-0.11174804557633926
-0.19760000000000005,-0.1117056042373433
-0.19860000000000005,-0.1117056042373433
-0.19960000000000006,-0.1117056042373433
-0.20060000000000006,-0.1116490157853487
-0.20160000000000006,-0.11159242733335409
-0.20260000000000006,-0.11154998599435814
-0.20360000000000006,-0.11154998599435814
-0.20460000000000006,-0.11153583888135948
-0.20560000000000006,-0.11146510331636625
-0.20660000000000006,-0.11139436775137299
-0.20760000000000006,-0.11133777929937837
-0.20860000000000006,-0.11132363218637975
-0.20960000000000006,-0.11129533796038243
-0.21060000000000006,-0.11123874950838784
-0.21160000000000007,-0.11115386683039592
-0.21260000000000007,-0.11108313126540269
-0.21360000000000007,-0.11108313126540269
-0.21460000000000007,-0.11104068992640674
-0.21560000000000007,-0.11098410147441214
-0.21660000000000007,-0.11089921879642024
-0.21760000000000007,-0.11088507168342157
-0.21860000000000007,-0.11082848323142698
-0.21960000000000007,-0.11080018900542968
-0.22060000000000007,-0.11070115921443913
-0.22160000000000007,-0.11063042364944586
-0.22260000000000008,-0.11055968808445263
-0.22360000000000008,-0.11054554097145397
-0.22460000000000008,-0.11050309963245801
-0.22560000000000008,-0.11041821695446612
-0.22660000000000008,-0.11033333427647421
-0.22760000000000008,-0.11027674582447962
-0.22860000000000008,-0.11023430448548364
-0.22960000000000008,-0.11020601025948636
-0.23060000000000008,-0.11012112758149446
-0.23160000000000008,-0.1100503920165012
-0.23260000000000008,-0.1099938035645066
-0.23360000000000009,-0.10995136222551065
-0.2346000000000001,-0.10992306799951335
-0.2356000000000001,-0.10985233243452008
-0.2366000000000001,-0.1097391555305309
-0.2376000000000001,-0.10969671419153494
-0.2386000000000001,-0.10966841996553764
-0.2396000000000001,-0.10964012573954035
-0.2406000000000001,-0.10955524306154844
-0.2416000000000001,-0.10947036038355652
-0.2426000000000001,-0.10939962481856329
-0.2436000000000001,-0.10938547770556464
-0.2446000000000001,-0.10932888925357002
-0.2456000000000001,-0.10925815368857679
-0.2466000000000001,-0.1091732710105849
-0.2476000000000001,-0.10910253544559163
-0.2486000000000001,-0.10910253544559163
-0.2496000000000001,-0.10906009410659567
-0.2506000000000001,-0.10897521142860378
-0.2516000000000001,-0.10889032875061187
-0.2526000000000001,-0.10881959318561862
-0.2536000000000001,-0.10880544607261997
-0.2546000000000001,-0.10877715184662266
-0.2556000000000001,-0.10870641628162941
-0.2566000000000001,-0.10862153360363752
-0.2576000000000001,-0.10855079803864424
-0.2586000000000001,-0.10853665092564563
-0.2596000000000001,-0.10852250381264696
-0.2606000000000001,-0.10842347402165642
-0.2616000000000001,-0.10835273845666317
-0.2626000000000001,-0.10828200289166989
-0.2636000000000001,-0.10825370866567262
-0.2646000000000001,-0.10826785577867125
-0.2656000000000001,-0.10816882598768068
-0.2666000000000001,-0.10811223753568612
-0.2676000000000001,-0.10804150197069286
-0.2686000000000001,-0.10802735485769419
-0.2696000000000001,-0.10802735485769419
-0.2706000000000001,-0.10795661929270095
-0.2716000000000001,-0.10787173661470904
-0.2726000000000001,-0.1078292952757131
-0.2736000000000001,-0.10781514816271445
-0.2746000000000001,-0.1078010010497158
-0.2756000000000001,-0.10773026548472255
-0.2766000000000001,-0.1076595299197293
-0.2776000000000001,-0.10760294146773468
-0.2786000000000001,-0.10758879435473605
-0.2796000000000001,-0.10757464724173739
-0.2806000000000001,-0.10751805878974278
-0.28160000000000013,-0.10744732322474954
-0.28260000000000013,-0.10739073477275493
-0.28360000000000013,-0.10739073477275493
-0.2846,-0.10736244054675763
-0.2856,-0.10730585209476304
-0.2866,-0.10724926364276843
-0.2876,-0.10720682230377249
-0.2886,-0.10720682230377249
-0.2896,-0.10717852807777517
-0.2906,-0.10713608673877922
-0.2916,-0.10707949828678462
-0.2926,-0.10700876272179137
-0.2936,-0.10702290983479003
-0.29460000000000003,-0.10705120406078733
-0.29560000000000003,-0.10698046849579408
-0.29660000000000003,-0.10693802715679812
-0.29760000000000003,-0.10688143870480352
-0.29860000000000003,-0.10686729159180487
-0.29960000000000003,-0.10688143870480352
-0.30060000000000003,-0.10681070313981027
-0.30160000000000003,-0.10676826180081432
-0.30260000000000004,-0.10673996757481702
-0.30360000000000004,-0.10672582046181836
-0.30460000000000004,-0.10673996757481702
-0.30560000000000004,-0.10668337912282241
-0.30660000000000004,-0.10665508489682511
-0.30760000000000004,-0.10661264355782916
-0.30860000000000004,-0.10659849644483052
-0.30960000000000004,-0.10661264355782916
-0.31060000000000004,-0.10658434933183186
-0.31160000000000004,-0.10654190799283592
-0.31260000000000004,-0.10649946665383996
-0.31360000000000005,-0.10651361376683861
-0.31460000000000005,-0.10652776087983726
-0.31560000000000005,-0.10648531954084133
-0.31660000000000005,-0.1064287310888467
-0.31760000000000005,-0.10641458397584806
-0.31860000000000005,-0.10641458397584806
-0.31960000000000005,-0.10645702531484401
-0.32060000000000005,-0.10641458397584806
-0.32160000000000005,-0.10635799552385346
-0.32260000000000005,-0.10632970129785616
-0.32360000000000005,-0.10635799552385346
-0.32460000000000006,-0.1063721426368521
-0.32560000000000006,-0.10634384841085481
-0.32660000000000006,-0.10631555418485751
-0.32760000000000006,-0.10630140707185885
-0.32860000000000006,-0.10631555418485751
-0.32960000000000006,-0.10634384841085481
-0.33060000000000006,-0.10628725995886021
-0.33160000000000006,-0.10627311284586156
-0.33260000000000006,-0.10624481861986426
-0.33360000000000006,-0.10627311284586156
-0.33460000000000006,-0.10628725995886021
-0.33560000000000006,-0.10624481861986426
-0.33660000000000007,-0.10621652439386696
-0.33760000000000007,-0.10620237728086832
-0.33860000000000007,-0.10623067150686559
-0.33960000000000007,-0.10625896573286289
-0.34060000000000007,-0.10621652439386696
-0.34160000000000007,-0.10618823016786964
-0.34260000000000007,-0.10618823016786964
-0.34360000000000007,-0.10618823016786964
-0.3446000000000001,-0.10624481861986426
-0.3456000000000001,-0.10621652439386696
-0.3466000000000001,-0.10618823016786964
-0.34759999999999996,-0.10617408305487101
-0.3486000000000001,-0.10617408305487101
-0.34959999999999997,-0.10623067150686559
-0.3506000000000001,-0.10620237728086832
-0.35159999999999997,-0.10615993594187234
-0.3526000000000001,-0.10615993594187234
-0.35359999999999997,-0.10618823016786964
-0.3546000000000001,-0.10623067150686559
-0.35559999999999997,-0.10621652439386696
-0.3566000000000001,-0.10617408305487101
-0.3576,-0.10617408305487101
-0.3586000000000001,-0.10621652439386696
-0.3596,-0.10623067150686559
-0.3606000000000001,-0.10623067150686559
-0.3616,-0.10621652439386696
-0.3626000000000001,-0.10621652439386696
-0.3636,-0.10623067150686559
-0.3646000000000001,-0.10627311284586156
-0.3656,-0.10627311284586156
-0.3666000000000001,-0.10624481861986426
-0.3676,-0.10623067150686559
-0.3686000000000001,-0.10628725995886021
-0.3696,-0.10630140707185885
-0.3706000000000001,-0.10634384841085481
-0.3716,-0.10630140707185885
-0.3726000000000001,-0.10630140707185885
-0.3736,-0.10634384841085481
-0.3746000000000001,-0.1063721426368521
-0.3756,-0.10634384841085481
-0.3766000000000001,-0.10635799552385346
-0.3776,-0.10632970129785616
-0.3786000000000001,-0.10638628974985076
-0.3796,-0.1064287310888467
-0.3806000000000001,-0.10641458397584806
-0.3816,-0.10641458397584806
-0.3826000000000001,-0.1064004368628494
-0.3836,-0.10645702531484401
-0.3846000000000001,-0.10651361376683861
-0.3856,-0.10649946665383996
-0.3866000000000001,-0.10649946665383996
-0.3876,-0.10649946665383996
-0.3886000000000001,-0.10652776087983726
-0.3896,-0.10658434933183186
-0.3906000000000001,-0.1065702022188332
-0.3916,-0.1065702022188332
-0.3926000000000001,-0.10659849644483052
-0.3936,-0.10662679067082782
-0.3946000000000001,-0.10666923200982377
-0.3956,-0.10666923200982377
-0.3966000000000001,-0.10668337912282241
-0.3976,-0.10668337912282241
-0.3986000000000001,-0.10673996757481702
-0.3996,-0.10679655602681161
-0.4006000000000001,-0.10678240891381298
-0.4016,-0.10679655602681161
-0.4026000000000001,-0.10679655602681161
-0.4036,-0.10685314447880623
-0.4046000000000001,-0.10688143870480352
-0.4056,-0.10689558581780217
-0.40660000000000013,-0.10690973293080082
-0.4076,-0.10692388004379948
-0.40860000000000013,-0.10699461560879273
-0.4096,-0.10702290983479003
-0.41060000000000013,-0.10703705694778867
-0.4116,-0.10705120406078733
-0.41260000000000013,-0.10705120406078733
-0.4136,-0.10712193962578058
-0.41460000000000014,-0.10719267519077383
-0.4156,-0.10719267519077383
-0.41660000000000014,-0.10720682230377249
-0.4176,-0.10722096941677112
-0.41860000000000014,-0.10729170498176437
-0.41960000000000003,-0.10736244054675763
-0.42060000000000014,-0.10736244054675763
-0.42160000000000003,-0.10739073477275493
-0.42260000000000014,-0.10741902899875223
-0.42360000000000003,-0.10746147033774818
-0.42460000000000014,-0.10751805878974278
-0.42560000000000003,-0.10753220590274143
-0.42660000000000015,-0.10753220590274143
-0.42760000000000004,-0.10757464724173739
-0.42860000000000015,-0.10761708858073335
-0.42960000000000004,-0.1076878241457266
-0.43060000000000015,-0.10770197125872524
-0.43160000000000004,-0.10773026548472255
-0.43260000000000015,-0.10775855971071985
-0.43360000000000004,-0.1078010010497158
-0.43460000000000015,-0.1078858837277077
-0.43560000000000004,-0.10790003084070635
