Potential V vs RHE, Current mA cm-2
0.05339999999999995,-0.008038389605833139
0.05239999999999995,-0.008624080083977264
0.051399999999999946,-0.00882779851115783
0.050399999999999945,-0.008986246176742712
0.049399999999999944,-0.009137620285828273
0.04839999999999994,-0.009256456035016935
0.04739999999999994,-0.009386609474604518
0.04639999999999994,-0.009487053976894935
0.04539999999999994,-0.009614377993882789
0.04439999999999994,-0.009736043165671183
0.04339999999999994,-0.009829414111462275
0.04239999999999994,-0.009942591015451478
0.04139999999999994,-0.010038791383842298
0.040399999999999936,-0.010142065308732446
0.039399999999999935,-0.010273633459619897
0.038399999999999934,-0.01037266325061045
0.03739999999999993,-0.010467448907701406
0.03639999999999993,-0.010560819853492498
0.03539999999999993,-0.010669752623582105
0.03439999999999993,-0.0107914177953705
0.03339999999999993,-0.010881959318561863
0.03239999999999993,-0.010976744975652817
0.03139999999999993,-0.011082848323142698
0.030399999999999927,-0.011196025227131898
0.029399999999999926,-0.011307787419821238
0.028399999999999925,-0.011385596541313816
0.027399999999999924,-0.011487455754904098
0.026399999999999924,-0.011604876792792897
0.025399999999999923,-0.011722297830681695
0.024399999999999922,-0.011831230600771302
0.02339999999999992,-0.011909039722263879
0.02239999999999992,-0.012015143069753757
0.02139999999999992,-0.012109928726844714
0.020399999999999918,-0.012220276208234187
0.019399999999999917,-0.012334867823523254
0.018399999999999916,-0.012432482903213941
0.017399999999999916,-0.012528683271604767
0.016399999999999915,-0.012630542485195047
0.015399999999999914,-0.012746548811783982
0.014399999999999913,-0.012852652159273859
0.013399999999999912,-0.012953096661564276
0.012399999999999911,-0.013059200009054153
0.01139999999999991,-0.013162473933944301
0.01039999999999991,-0.013271406704033909
0.009399999999999908,-0.013397316009721896
0.008399999999999908,-0.013500589934612043
0.007399999999999907,-0.013606693282101923
0.006399999999999906,-0.013729773165190182
0.005399999999999905,-0.013823144110981272
0.004399999999999904,-0.013961785818368048
0.003399999999999903,-0.014039594939860626
0.002399999999999902,-0.014161260111649017
0.0013999999999999013,-0.01427443701563822
0.00039999999999990044,-0.014387613919627423
-0.0006000000000001005,-0.014529085049613928
-0.0016000000000001013,-0.014642261953603129
-0.0026000000000001022,-0.014755438857592333
-0.003600000000000103,-0.014868615761581536
-0.004600000000000104,-0.014995939778569388
-0.005600000000000105,-0.015151558021554544
-0.006600000000000106,-0.015250587812545097
-0.007600000000000107,-0.0153637647165343
-0.008600000000000108,-0.015476941620523503
-0.009600000000000108,-0.015604265637511355
-0.01060000000000011,-0.01573158965449921
-0.01160000000000011,-0.01585891367148706
-0.012600000000000111,-0.015986237688474913
-0.013600000000000112,-0.01611356170546277
-0.014600000000000113,-0.01624088572245062
-0.015600000000000114,-0.01638235685243712
-0.016600000000000115,-0.01650968086942498
-0.017600000000000116,-0.01665115199941148
-0.018600000000000116,-0.016806770242396636
-0.019600000000000117,-0.016948241372383138
-0.020600000000000118,-0.017075565389370995
-0.02160000000000012,-0.017217036519357496
-0.02260000000000012,-0.01734436053634535
-0.02360000000000012,-0.017499978779330502
-0.024600000000000122,-0.017641449909317007
-0.025600000000000123,-0.01781121526530081
-0.026600000000000124,-0.017938539282288665
-0.027600000000000124,-0.018094157525273817
-0.028600000000000125,-0.018249775768258973
-0.029600000000000126,-0.018419541124242777
-0.030600000000000127,-0.018575159367227933
-0.03160000000000013,-0.018730777610213082
-0.03260000000000013,-0.018886395853198238
-0.03360000000000013,-0.019056161209182042
-0.03460000000000002,-0.01922592656516585
-0.03560000000000002,-0.0194098390341483
-0.03660000000000002,-0.019551310164134805
-0.03760000000000002,-0.019721075520118612
-0.03860000000000002,-0.019890840876102416
-0.039600000000000024,-0.02006060623208622
-0.040600000000000025,-0.020244518701068675
-0.041600000000000026,-0.02041428405705248
-0.04260000000000003,-0.020584049413036282
-0.04360000000000003,-0.020767961882018737
-0.04460000000000003,-0.020966021463999843
-0.04560000000000003,-0.021149933932982302
-0.04660000000000003,-0.021319699288966102
-0.04760000000000003,-0.021517758870947205
-0.04860000000000003,-0.021701671339929663
-0.04960000000000003,-0.021885583808912118
-0.050600000000000034,-0.022111937616890523
-0.051600000000000035,-0.022295850085872978
-0.052600000000000036,-0.022479762554855433
-0.053600000000000037,-0.02267782213683654
-0.05460000000000004,-0.022890028831816296
-0.05560000000000004,-0.0230880884137974
-0.05660000000000004,-0.02327200088277985
-0.05760000000000004,-0.023484207577759608
-0.05860000000000004,-0.023696414272739365
-0.05960000000000004,-0.02389447385472047
-0.06060000000000004,-0.024120827662698876
-0.061600000000000044,-0.024304740131681327
-0.06260000000000004,-0.024516946826661085
-0.06360000000000005,-0.024729153521640842
-0.06460000000000005,-0.024969654442617898
-0.06560000000000005,-0.025181861137597652
-0.06660000000000005,-0.02539406783257741
-0.06760000000000005,-0.025606274527557166
-0.06860000000000005,-0.025818481222536924
-0.06960000000000005,-0.026058982143513973
-0.07060000000000005,-0.026313630177489684
-0.07160000000000005,-0.02652583687246944
-0.07260000000000005,-0.026766337793446494
-0.07360000000000005,-0.026992691601424906
-0.07460000000000006,-0.027219045409403307
-0.07560000000000006,-0.027473693443379014
-0.07660000000000006,-0.02768590013835877
-0.07760000000000006,-0.027940548172334476
-0.07860000000000006,-0.028166901980312884
-0.07960000000000006,-0.028421550014288588
-0.08060000000000006,-0.028690345161262943
-0.08160000000000006,-0.028916698969241348
-0.08260000000000006,-0.029157199890218404
-0.08360000000000006,-0.029425995037192763
-0.08460000000000006,-0.02966649595816982
-0.08560000000000006,-0.029949438218142825
-0.08660000000000007,-0.030175792026121234
-0.08760000000000007,-0.030430440060096934
-0.08860000000000007,-0.030685088094072648
-0.08960000000000007,-0.030939736128048352
-0.09060000000000007,-0.03120853127502271
-0.09160000000000007,-0.03144903219599977
-0.09260000000000007,-0.03168953311697682
-0.09360000000000007,-0.03194418115095252
-0.09460000000000007,-0.03221297629792688
-0.09560000000000007,-0.03249591855789989
-0.09660000000000007,-0.0327505665918756
-0.09760000000000008,-0.03303350885184861
-0.09860000000000008,-0.03331645111182161
-0.09960000000000008,-0.03359939337179463
-0.10060000000000008,-0.03388233563176763
-0.10160000000000008,-0.03416527789174064
-0.10260000000000008,-0.03443407303871499
-0.10360000000000008,-0.034717015298688
-0.10460000000000008,-0.034999957558661005
-0.10560000000000008,-0.035282899818634014
-0.10660000000000008,-0.035565842078607024
-0.10760000000000008,-0.03583463722558138
-0.10860000000000009,-0.036131726598553036
-0.10960000000000009,-0.036457110197522
-0.11060000000000009,-0.036740052457495
-0.11160000000000009,-0.03703714183046666
-0.11260000000000009,-0.03734837831643697
-0.11360000000000009,-0.03765961480240728
-0.11460000000000009,-0.037970851288377586
-0.11560000000000009,-0.03828208777434789
-0.11660000000000009,-0.0385650300343209
-0.1176000000000001,-0.03887626652029121
-0.1186000000000001,-0.03918750300626152
-0.1196000000000001,-0.03949873949223183
-0.1206000000000001,-0.039824123091200786
-0.1216000000000001,-0.04013535957717109
-0.1226000000000001,-0.04043244895014275
-0.1236000000000001,-0.04075783254911171
-0.1246000000000001,-0.04105492192208336
-0.1256000000000001,-0.04139445263405097
-0.1266000000000001,-0.04170568912002128
-0.1276000000000001,-0.04203107271899024
-0.1286000000000001,-0.0423564563179592
-0.1296000000000001,-0.04268183991692816
-0.1306000000000001,-0.043021370628895765
-0.1316000000000001,-0.04333260711486608
-0.1326000000000001,-0.04367213782683368
-0.1336000000000001,-0.04399752142580264
-0.1346000000000001,-0.0443511992507689
-0.1356000000000001,-0.044690729962736514
-0.1366000000000001,-0.04501611356170547
-0.1376000000000001,-0.045327350047675775
-0.1386000000000001,-0.045666880759643376
-0.1396000000000001,-0.046006411471611
-0.1406000000000001,-0.0463742364095759
-0.14160000000000011,-0.04668547289554621
-0.14260000000000012,-0.04701085649451517
-0.14360000000000012,-0.04736453431948143
-0.14460000000000012,-0.04773235925744633
-0.14560000000000012,-0.04810018419541125
-0.14660000000000012,-0.048439714907378854
-0.14760000000000012,-0.04877924561934646
-0.14860000000000012,-0.049118776331314076
-0.14960000000000012,-0.049472454156280335
-0.15060000000000012,-0.049840279094245245
-0.15160000000000012,-0.05015151558021554
-0.15260000000000012,-0.05051934051818046
-0.15360000000000013,-0.05087301834314672
-0.15460000000000013,-0.05124084328111162
-0.15560000000000013,-0.05162281533207519
-0.15660000000000013,-0.0519623460440428
-0.15760000000000013,-0.05233017098200771
-0.15860000000000013,-0.052683848806973965
-0.15960000000000002,-0.05305167374493888
-0.16060000000000002,-0.053419498682903785
-0.16160000000000002,-0.05375902939487139
-0.16260000000000002,-0.054141001445834946
-0.16360000000000002,-0.05450882638379986
-0.16460000000000002,-0.054876651321764766
-0.16560000000000002,-0.055272770485726985
-0.16660000000000003,-0.055626448310693244
-0.16760000000000003,-0.05598012613565951
-0.16860000000000003,-0.05634795107362441
-0.16960000000000003,-0.05671577601158932
-0.17060000000000003,-0.05708360094955423
-0.17160000000000003,-0.057451425887519135
-0.17260000000000003,-0.05779095659948674
-0.17360000000000003,-0.058172928650450303
-0.17460000000000003,-0.05854075358841522
-0.17560000000000003,-0.058922725639378774
-0.17660000000000003,-0.05926225635134639
-0.17760000000000004,-0.059601787063313996
-0.17860000000000004,-0.05996961200127891
-0.17960000000000004,-0.060337436939243816
-0.18060000000000004,-0.06071940899020737
-0.18160000000000004,-0.06110138104117093
-0.18260000000000004,-0.061440911753138545
-0.18360000000000004,-0.06182288380410209
-0.18460000000000004,-0.062190708742067016
-0.18560000000000004,-0.06257268079303058
-0.18660000000000004,-0.06294050573099548
-0.18760000000000004,-0.0633083306689604
-0.18860000000000005,-0.06369030271992396
-0.18960000000000005,-0.06407227477088752
-0.19060000000000005,-0.06446839393484971
-0.19160000000000005,-0.06483621887281464
-0.19260000000000005,-0.06520404381077954
-0.19360000000000005,-0.0655577216357458
-0.19460000000000005,-0.065953840799708
-0.19560000000000005,-0.06633581285067157
-0.19660000000000005,-0.06668949067563783
-0.19760000000000005,-0.06704316850060409
-0.19860000000000005,-0.06742514055156765
-0.19960000000000006,-0.0677788183765339
-0.20060000000000006,-0.06817493754049611
-0.20160000000000006,-0.06852861536546237
-0.20260000000000006,-0.06888229319042864
-0.20360000000000006,-0.06925011812839355
-0.20460000000000006,-0.06958964884036115
-0.20560000000000006,-0.06998576800432338
-0.20660000000000006,-0.07032529871629098
-0.20760000000000006,-0.07067897654125724
-0.20860000000000006,-0.07106094859222079
-0.20960000000000006,-0.0714287735301857
-0.21060000000000006,-0.07181074558114926
-0.21160000000000007,-0.07216442340611552
-0.21260000000000007,-0.07250395411808314
-0.21360000000000007,-0.07285763194304938
-0.21460000000000007,-0.07321130976801564
-0.21560000000000007,-0.07356498759298191
-0.21660000000000007,-0.07391866541794817
-0.21760000000000007,-0.07430063746891173
-0.21860000000000007,-0.07464016818087933
-0.21960000000000007,-0.07497969889284695
-0.22060000000000007,-0.07534752383081185
-0.22160000000000007,-0.07567290742978082
-0.22260000000000008,-0.07601243814174842
-0.22360000000000008,-0.07635196885371603
-0.22460000000000008,-0.07667735245268498
-0.22560000000000008,-0.07701688316465259
-0.22660000000000008,-0.07734226676362156
-0.22760000000000008,-0.0776676503625905
-0.22860000000000008,-0.07800718107455813
-0.22960000000000008,-0.07836085889952438
-0.23060000000000008,-0.07871453672449064
-0.23160000000000008,-0.07902577321046096
-0.23260000000000008,-0.07933700969643126
-0.23360000000000009,-0.07966239329540022
-0.2346000000000001,-0.07998777689436919
-0.2356000000000001,-0.08029901338033948
-0.2366000000000001,-0.0806102498663098
-0.2376000000000001,-0.0809214863522801
-0.2386000000000001,-0.08124686995124906
-0.2396000000000001,-0.08154395932422072
-0.2406000000000001,-0.08186934292318966
-0.2416000000000001,-0.08218057940915997
-0.2426000000000001,-0.08247766878213163
-0.2436000000000001,-0.08277475815510331
-0.2446000000000001,-0.0830577004150763
-0.2456000000000001,-0.08335478978804794
-0.2466000000000001,-0.08360943782202368
-0.2476000000000001,-0.08386408585599937
-0.2486000000000001,-0.08413288100297373
-0.2496000000000001,-0.08440167614994809
-0.2506000000000001,-0.08469876552291973
-0.2516000000000001,-0.08498170778289275
-0.2526000000000001,-0.08523635581686846
-0.2536000000000001,-0.08549100385084417
-0.2546000000000001,-0.08577394611081718
-0.2556000000000001,-0.08605688837079019
-0.2566000000000001,-0.08631153640476588
-0.2576000000000001,-0.08656618443874159
-0.2586000000000001,-0.08682083247271731
-0.2596000000000001,-0.08704718628069572
-0.2606000000000001,-0.08728768720167276
-0.2616000000000001,-0.08751404100965117
-0.2626000000000001,-0.08774039481762959
-0.2636000000000001,-0.08795260151260934
-0.2646000000000001,-0.08817895532058774
-0.2656000000000001,-0.08840530912856613
-0.2666000000000001,-0.08861751582354589
-0.2676000000000001,-0.08885801674452294
-0.2686000000000001,-0.08908437055250136
-0.2696000000000001,-0.08929657724748112
-0.2706000000000001,-0.08952293105545953
-0.2716000000000001,-0.08972099063744063
-0.2726000000000001,-0.08990490310642309
-0.2736000000000001,-0.09010296268840419
-0.2746000000000001,-0.09031516938338394
-0.2756000000000001,-0.0904990818523664
-0.2766000000000001,-0.09066884720835021
-0.2776000000000001,-0.09085275967733265
-0.2786000000000001,-0.09103667214631511
-0.2796000000000001,-0.09122058461529756
-0.2806000000000001,-0.09141864419727867
-0.28160000000000013,-0.09156011532726518
-0.28260000000000013,-0.09171573357025031
-0.28360000000000013,-0.09188549892623413
-0.2846,-0.09204111716921928
-0.2856,-0.09222502963820174
-0.2866,-0.0923523536551896
-0.2876,-0.0924938247851761
-0.2886,-0.09264944302816126
-0.2896,-0.0927767670451491
-0.2906,-0.0929182381751356
-0.2916,-0.09303141507912481
-0.2926,-0.09314459198311402
-0.2936,-0.09328606311310052
-0.29460000000000003,-0.09342753424308703
-0.29560000000000003,-0.09352656403407757
-0.29660000000000003,-0.09363974093806678
-0.29760000000000003,-0.09373877072905733
-0.29860000000000003,-0.09385194763304654
-0.29960000000000003,-0.09395097742403709
-0.30060000000000003,-0.0940641543280263
-0.30160000000000003,-0.09413488989301955
-0.30260000000000004,-0.09421977257101144
-0.30360000000000004,-0.09429050813600469
-0.30460000000000004,-0.0943753908139966
-0.30560000000000004,-0.0944602734919885
-0.30660000000000004,-0.09453100905698175
-0.30760000000000004,-0.094601744621975
-0.30860000000000004,-0.09467248018696825
-0.30960000000000004,-0.0947432157519615
-0.31060000000000004,-0.09479980420395612
-0.31160000000000004,-0.09481395131695476
-0.31260000000000004,-0.09488468688194801
-0.31360000000000005,-0.09492712822094396
-0.31460000000000005,-0.0949695695599399
-0.31560000000000005,-0.09501201089893586
-0.31660000000000005,-0.09504030512493315
-0.31760000000000005,-0.09506859935093047
-0.31860000000000005,-0.0951110406899264
-0.31960000000000005,-0.09515348202892236
-0.32060000000000005,-0.09519592336791832
-0.32160000000000005,-0.09518177625491966
-0.32260000000000005,-0.09519592336791832
-0.32360000000000005,-0.09522421759391562
-0.32460000000000006,-0.09522421759391562
-0.32560000000000006,-0.09523836470691427
-0.32660000000000006,-0.09522421759391562
-0.32760000000000006,-0.09522421759391562
-0.32860000000000006,-0.09522421759391562
-0.32960000000000006,-0.09522421759391562
-0.33060000000000006,-0.09522421759391562
-0.33160000000000006,-0.09519592336791832
-0.33260000000000006,-0.09518177625491966
-0.33360000000000006,-0.09516762914192102
-0.33460000000000006,-0.09513933491592372
-0.33560000000000006,-0.09512518780292507
-0.33660000000000007,-0.09508274646392911
-0.33760000000000007,-0.09505445223793182
-0.33860000000000007,-0.09502615801193452
-0.33960000000000007,-0.0949978637859372
-0.34060000000000007,-0.09495542244694127
-0.34160000000000007,-0.09491298110794531
-0.34260000000000007,-0.09487053976894937
-0.34360000000000007,-0.0948280984299534
-0.3446000000000001,-0.09479980420395612
-0.3456000000000001,-0.0947715099779588
-0.3466000000000001,-0.09470077441296555
-0.34759999999999996,-0.09464418596097096
-0.3486000000000001,-0.09457345039597771
-0.34959999999999997,-0.09451686194398311
-0.3506000000000001,-0.09447442060498715
-0.35159999999999997,-0.09438953792699524
-0.3526000000000001,-0.09433294947500065
-0.35359999999999997,-0.0942622139100074
-0.3546000000000001,-0.09419147834501414
-0.35559999999999997,-0.09414903700601819
-0.3566000000000001,-0.09405000721502763
-0.3576,-0.09397927165003438
-0.3586000000000001,-0.09390853608504113
-0.3596,-0.09382365340704923
-0.3606000000000001,-0.09375291784205599
-0.3616,-0.09366803516406408
-0.3626000000000001,-0.09358315248607219
-0.3636,-0.09348412269508162
-0.3646000000000001,-0.09342753424308703
-0.3656,-0.09334265156509512
-0.3666000000000001,-0.09322947466110591
-0.3676,-0.09313044487011536
-0.3686000000000001,-0.09304556219212347
-0.3696,-0.09296067951413156
-0.3706000000000001,-0.09288994394913831
-0.3716,-0.0928050612711464
-0.3726000000000001,-0.09269188436715721
-0.3736,-0.09259285457616664
-0.3746000000000001,-0.09247967767217745
-0.3756,-0.0924089421071842
-0.3766000000000001,-0.09230991231619365
-0.3776,-0.09219673541220444
-0.3786000000000001,-0.09209770562121389
-0.3796,-0.09198452871722468
-0.3806000000000001,-0.09189964603923279
-0.3816,-0.09177232202224493
-0.3826000000000001,-0.09167329223125438
-0.3836,-0.09156011532726518
-0.3846000000000001,-0.09146108553627462
-0.3856,-0.09136205574528407
-0.3866000000000001,-0.09124887884129487
-0.3876,-0.09113570193730568
-0.3886000000000001,-0.09103667214631511
-0.3896,-0.0909234952423259
-0.3906000000000001,-0.090838612564334
-0.3916,-0.0907254356603448
-0.3926000000000001,-0.0905839645303583
-0.3936,-0.09047078762636909
-0.3946000000000001,-0.09034346360938124
-0.3956,-0.09025858093138935
-0.3966000000000001,-0.09014540402740015
-0.3976,-0.09004637423640958
-0.3986000000000001,-0.08990490310642309
-0.3996,-0.08980587331543252
-0.4006000000000001,-0.08969269641144333
-0.4016,-0.08956537239445547
-0.4026000000000001,-0.08945219549046628
-0.4036,-0.08932487147347841
-0.4046000000000001,-0.08921169456948921
-0.4056,-0.0891268118914973
-0.40660000000000013,-0.08899948787450947
-0.4076,-0.08885801674452294
-0.40860000000000013,-0.0887589869535324
-0.4096,-0.0886458100495432
-0.41060000000000013,-0.08854678025855263
-0.4116,-0.0884194562415648
-0.41260000000000013,-0.0883062793375756
-0.4136,-0.08819310243358638
-0.41460000000000014,-0.08807992552959719
-0.4156,-0.08799504285160528
-0.41660000000000014,-0.08788186594761609
-0.4176,-0.08775454193062822
-0.41860000000000014,-0.08764136502663902
-0.41960000000000003,-0.08754233523564847
-0.42060000000000014,-0.0874433054446579
-0.42160000000000003,-0.08733012854066871
-0.42260000000000014,-0.08723109874967816
-0.42360000000000003,-0.0871037747326903
-0.42460000000000014,-0.08700474494169977
-0.42560000000000003,-0.0869057151507092
-0.42660000000000015,-0.08677839113372135
-0.42760000000000004,-0.08666521422973215
-0.42860000000000015,-0.08655203732574294
-0.42960000000000004,-0.08643886042175375
-0.43060000000000015,-0.08632568351776454
-0.43160000000000004,-0.08621250661377533
-0.43260000000000015,-0.08609932970978613
-0.43360000000000004,-0.08598615280579694
