Potential V vs RHE, Current mA cm-2
0.013299999999999867,-0.30755823659065895
0.012299999999999978,-4.538393849967037
0.011299999999999866,-8.246352166913299
0.010299999999999976,-11.473308641905447
0.009299999999999864,-14.345172580631472
0.008299999999999974,-16.877505807389888
0.007299999999999862,-19.28251501716045
0.006299999999999972,-21.67337711393236
0.00529999999999986,-23.993503645711023
0.0042999999999999705,-26.087276369511276
0.0032999999999998586,-27.827371268345274
0.0022999999999999687,-29.35525947219951
0.0012999999999998568,-30.79826499806185
0.00029999999999996696,-32.283711862920136
-0.000700000000000145,-33.81160006677438
-0.0017000000000000348,-35.282899818634014
-0.0027000000000001467,-36.5136986495166
-0.0037000000000000366,-37.56058501141672
-0.0047000000000001485,-38.38111756533845
-0.005700000000000038,-39.34312124924667
-0.00670000000000015,-40.34756627215084
-0.00770000000000004,-41.352011295055014
-0.008700000000000152,-42.3564563179592
-0.009700000000000042,-43.09210619388902
-0.010700000000000154,-43.75702050482558
-0.011700000000000044,-44.28046368577565
-0.012700000000000156,-44.88878954471762
-0.013700000000000045,-45.666880759643384
-0.014700000000000157,-46.45911908756781
-0.015700000000000047,-47.10988628550572
-0.01670000000000016,-47.590888127459834
-0.01770000000000005,-47.93041883942744
-0.01870000000000016,-48.2840966643937
-0.01970000000000005,-48.76509850634781
-0.020700000000000163,-49.33098302629383
-0.021700000000000053,-49.89686754623985
-0.022700000000000164,-50.37786938819396
-0.023700000000000054,-50.60422319617236
-0.024700000000000166,-50.73154721316022
-0.025700000000000056,-50.98619524713592
-0.026700000000000168,-51.33987307210218
-0.027700000000000058,-51.82087491405629
-0.02870000000000017,-52.17455273902255
-0.02970000000000006,-52.386759434002315
-0.03070000000000017,-52.514083450990164
-0.03170000000000006,-52.59896612898206
-0.03270000000000017,-52.74043725896857
-0.03370000000000006,-53.03752663194023
-0.034700000000000175,-53.433645795902436
-0.035700000000000065,-53.74488228187274
-0.03670000000000018,-53.82976495986464
-0.03770000000000007,-53.82976495986464
-0.03870000000000018,-53.9570889768525
-0.03970000000000007,-54.1268543328363
-0.04070000000000018,-54.39564947981066
-0.04170000000000007,-54.73518019177827
-0.04270000000000018,-54.961533999756675
-0.04370000000000007,-55.003975338752625
-0.044700000000000184,-54.919092660760725
-0.045700000000000074,-55.046416677748574
-0.046700000000000186,-55.25862337272834
-0.047700000000000076,-55.56985985869864
-0.04870000000000019,-55.881096344668954
-0.04970000000000008,-55.96597902266086
-0.05070000000000019,-55.9235376836649
-0.05170000000000008,-55.9235376836649
-0.05270000000000019,-55.96597902266086
-0.05370000000000008,-56.1781857176406
-0.05470000000000019,-56.489422203610914
-0.05570000000000008,-56.65918755959472
-0.056700000000000195,-56.70162889859067
-0.057700000000000085,-56.61674622059877
-0.058700000000000196,-56.53186354260687
-0.059700000000000086,-56.65918755959472
-0.0607000000000002,-56.82895291557852
-0.06170000000000009,-57.097748062552874
-0.0627000000000002,-57.22507207954074
-0.06370000000000009,-57.14018940154883
-0.0647000000000002,-57.012865384560975
-0.06570000000000009,-56.927982706569075
-0.0667000000000002,-57.05530672355693
-0.0677000000000001,-57.26751341853669
-0.0687000000000002,-57.45142588751914
-0.0697000000000001,-57.493867226515086
-0.07070000000000021,-57.408984548523186
-0.0717000000000001,-57.26751341853669
-0.07270000000000021,-57.26751341853669
-0.0737000000000001,-57.45142588751914
-0.07470000000000021,-57.66363258249889
-0.0757000000000001,-57.8333979384827
-0.07670000000000021,-57.8333979384827
-0.0777000000000001,-57.66363258249889
-0.07870000000000021,-57.66363258249889
-0.0797000000000001,-57.7485152604908
-0.08070000000000022,-58.017310407465146
-0.0817000000000001,-58.18707576344896
-0.08270000000000022,-58.31439978043681
-0.08370000000000011,-58.27195844144086
-0.08470000000000022,-58.10219308545706
-0.08570000000000011,-58.10219308545706
-0.08670000000000022,-58.22951710244491
-0.08770000000000011,-58.45587091042332
-0.08870000000000022,-58.62563626640712
-0.08970000000000011,-58.66807760540307
-0.09070000000000022,-58.54075358841522
-0.09170000000000011,-58.39928245842871
-0.09270000000000023,-58.39928245842871
-0.09370000000000012,-58.54075358841522
-0.09470000000000023,-58.71051894439902
-0.09570000000000012,-58.79540162239092
-0.09670000000000023,-58.75296028339497
-0.09770000000000012,-58.583194927411164
-0.09870000000000023,-58.45587091042332
-0.09970000000000012,-58.54075358841522
-0.10070000000000023,-58.71051894439902
-0.10170000000000012,-58.880284300382826
-0.10270000000000024,-58.97931409137338
-0.10370000000000013,-58.880284300382826
-0.10470000000000024,-58.71051894439902
-0.10570000000000013,-58.66807760540307
-0.10670000000000024,-58.83784296138688
-0.10770000000000013,-59.02175543036933
-0.10870000000000024,-59.19152078635314
-0.10970000000000013,-59.23396212534908
-0.11070000000000024,-59.14907944735718
-0.11170000000000013,-58.97931409137338
-0.11270000000000002,-59.02175543036933
-0.11370000000000013,-59.23396212534908
-0.11470000000000002,-59.44616882032884
-0.11570000000000014,-59.6300812893113
-0.11670000000000003,-59.587639950315335
-0.11770000000000014,-59.403727481332886
-0.11870000000000003,-59.36128614233694
-0.11970000000000014,-59.403727481332886
-0.12070000000000003,-59.6300812893113
-0.12170000000000014,-59.7998466452951
-0.12270000000000003,-59.92717066228296
-0.12370000000000014,-59.884729323287
-0.12470000000000003,-59.7149639673032
-0.12570000000000014,-59.67252262830725
-0.12670000000000003,-59.7998466452951
-0.12770000000000015,-59.9696120012789
-0.12870000000000004,-60.11108313126541
-0.12970000000000015,-60.06864179226946
-0.13070000000000004,-59.92717066228296
-0.13170000000000015,-59.842287984291055
-0.13270000000000004,-59.757405306299155
-0.13370000000000015,-59.884729323287
-0.13470000000000004,-60.19596580925731
-0.13570000000000015,-60.23840714825326
-0.13670000000000004,-60.23840714825326
-0.13770000000000016,-60.06864179226946
-0.13870000000000005,-59.9696120012789
-0.13970000000000016,-60.15352447026136
-0.14070000000000005,-60.28084848724921
-0.14170000000000016,-60.49305518222897
-0.14270000000000005,-60.63452631221547
-0.14370000000000016,-60.59208497321952
-0.14470000000000005,-60.45061384323302
-0.14570000000000016,-60.45061384323302
-0.14670000000000005,-60.59208497321952
-0.14770000000000016,-60.889174346191176
-0.14870000000000005,-61.07308681517363
-0.14970000000000017,-61.11552815416958
-0.15070000000000006,-61.07308681517363
-0.15170000000000017,-60.974057024183075
-0.15270000000000006,-60.974057024183075
-0.15370000000000017,-61.15796949316553
-0.15470000000000006,-61.455058866137186
-0.15570000000000017,-61.63897133511965
-0.15670000000000006,-61.5965299961237
-0.15770000000000017,-61.49750020513315
-0.15870000000000006,-61.455058866137186
-0.15970000000000018,-61.49750020513315
-0.16070000000000007,-61.6814126741156
-0.16170000000000018,-61.851178030099405
-0.16270000000000007,-61.936060708091304
-0.16370000000000018,-61.89361936909536
-0.16470000000000007,-61.80873669110345
-0.16570000000000018,-61.80873669110345
-0.16670000000000007,-61.936060708091304
-0.16770000000000018,-62.16241451606972
-0.16870000000000007,-62.33217987205352
-0.16970000000000018,-62.37462121104946
-0.17070000000000007,-62.33217987205352
-0.17170000000000019,-62.28973853305756
-0.17270000000000008,-62.28973853305756
-0.1737000000000002,-62.501945228037314
-0.17470000000000008,-62.855623053003576
-0.1757000000000002,-63.02538840898739
-0.17670000000000008,-63.06782974798333
-0.1777000000000002,-62.98294706999144
-0.17870000000000008,-62.94050573099548
-0.1797000000000002,-63.15271242597524
-0.18070000000000008,-63.421507572949594
-0.1817000000000002,-63.732744058919906
-0.18270000000000008,-63.944950753899654
-0.1837000000000002,-63.902509414903705
-0.1847000000000001,-63.860068075907755
-0.1857000000000002,-63.902509414903705
-0.1867000000000001,-64.0722747708875
-0.1877000000000002,-64.42595259585376
-0.1887000000000001,-64.72304196882543
-0.1897000000000002,-64.86451309881193
-0.1907000000000001,-64.82207175981598
-0.1917000000000001,-64.77963042082003
-0.19269999999999998,-64.90695443780788
-0.1937000000000001,-65.0767197937917
-0.19469999999999998,-65.43039761875795
-0.1957000000000001,-65.60016297474175
-0.19669999999999999,-65.60016297474175
-0.1977000000000001,-65.5577216357458
-0.1987,-65.60016297474175
-0.1997000000000001,-65.76992833072556
-0.2007,-66.08116481669586
-0.2017000000000001,-66.39240130266617
-0.2027,-66.60460799764593
-0.2037000000000001,-66.68949067563783
-0.2047,-66.64704933664189
-0.2057000000000001,-66.77437335362974
-0.2067,-67.08560983960004
-0.2077000000000001,-67.43928766456631
-0.2087,-67.82125971552985
-0.2097000000000001,-68.0051721845123
-0.2107,-68.0900548625042
-0.2117000000000001,-68.13249620150016
-0.2127,-68.30226155748396
-0.2137000000000001,-68.74082206044213
-0.2147,-69.22182390239624
-0.2157000000000001,-69.70282574435035
-0.2167,-69.8301497613382
-0.21770000000000012,-69.87259110033416
-0.2187,-70.05650356931662
-0.21970000000000012,-70.35359294228827
-0.2207,-70.74971210625048
-0.22170000000000012,-71.2307139482046
-0.2227,-71.6268331121668
-0.22370000000000012,-71.7117157901587
-0.2247,-71.7965984681506
-0.22570000000000012,-72.05124650212633
-0.2267,-72.40492432709259
-0.22770000000000012,-72.8859261690467
-0.22870000000000001,-73.23960399401295
-0.22970000000000013,-73.49425202798865
-0.23070000000000002,-73.6781644969711
-0.23170000000000013,-73.8479298529549
-0.23270000000000002,-74.10257788693062
-0.23370000000000013,-74.58357972888473
-0.23470000000000002,-75.1070229098348
-0.23570000000000013,-75.5880247517889
-0.23670000000000002,-75.85681989876326
-0.2376999999999999,-76.06902659374302
-0.23870000000000002,-76.33782174071737
-0.2396999999999999,-76.81882358267148
-0.24070000000000003,-77.38470810261751
-0.24169999999999991,-77.95059262256353
-0.24270000000000003,-78.51647714250953
-0.24369999999999992,-78.85600785447714
-0.24470000000000003,-79.08236166245555
-0.24569999999999992,-79.52092216541372
-0.24670000000000003,-80.17168936335163
-0.24769999999999992,-80.86489790028548
-0.24870000000000003,-81.47322375922747
-0.24969999999999992,-81.95422560118158
-0.25070000000000003,-82.35034476514379
-0.2516999999999999,-82.78890526810196
-0.25270000000000004,-83.31234844905201
-0.2536999999999999,-83.96311564698992
-0.25470000000000004,-84.75535397491434
-0.2556999999999999,-85.40612117285227
-0.25670000000000004,-85.92956435380233
-0.25769999999999993,-86.36812485676049
-0.25870000000000004,-86.84912669871461
-0.25969999999999993,-87.49989389665252
-0.26070000000000004,-88.19310243358639
-0.26169999999999993,-88.9853407615108
-0.26270000000000004,-89.63610795944872
-0.26369999999999993,-90.15955114039879
-0.26470000000000005,-90.59811164335694
-0.26569999999999994,-91.24887884129487
-0.26670000000000005,-91.98452871722468
-0.26769999999999994,-92.94653240113291
-0.26870000000000005,-93.78121206805329
-0.26969999999999994,-94.47442060498715
-0.27070000000000005,-95.04030512493317
-0.27169999999999994,-95.64863098387512
-0.27270000000000005,-96.44086931179956
-0.27369999999999994,-97.40287299570777
-0.27470000000000006,-98.40731801861195
-0.27569999999999995,-99.35517458952152
-0.27670000000000006,-100.10497157844999
-0.27769999999999995,-100.79818011538387
-0.27870000000000006,-101.59041844330828
-0.27969999999999995,-102.5524221272165
-0.28070000000000006,-103.7266325061045
-0.28169999999999995,-104.81596020700057
-0.28270000000000006,-105.7779638909088
-0.28369999999999995,-106.64093778382647
-0.28470000000000006,-107.47561745074682
-0.28569999999999995,-108.43762113465506
-0.28670000000000007,-109.52694883555114
-0.28769999999999996,-110.70115921443913
-0.28870000000000007,-111.91781093232305
-0.28969999999999996,-113.00713863321914
-0.29070000000000007,-113.92670097813141
-0.29169999999999996,-114.84626332304367
-0.29270000000000007,-115.93559102393975
-0.29369999999999996,-117.10980140282774
-0.2947000000000001,-118.42548291170223
-0.29569999999999996,-119.51481061259831
-0.2967000000000001,-120.56169697449842
-0.29769999999999996,-121.56614199740261
-0.2987000000000001,-122.57058702030677
-0.29969999999999997,-123.82968007718667
-0.3007000000000001,-125.14536158606113
-0.30169999999999997,-126.57421999892482
-0.3027000000000001,-127.88990150779931
-0.30369999999999997,-128.9792292086954
-0.3047000000000001,-130.06855690959148
-0.30569999999999997,-131.32764996647134
-0.3067000000000001,-132.81309683132966
-0.3077,-134.29854369618792
-0.3087000000000001,-135.82643190004217
-0.3097,-137.22699608690854
-0.3107000000000001,-138.44364780479248
-0.3117,-139.74518220066832
-0.3127000000000001,-141.2306290655266
-0.3137,-142.8858412863687
-0.3147000000000001,-144.58349484620675
-0.3157,-146.1396772760583
-0.3167000000000001,-147.6958597059098
-0.3177,-149.1105710057749
-0.3187000000000001,-150.5252823056399
-0.3197,-152.0814647354914
-0.3207000000000001,-153.77911829532948
-0.3217,-155.61824298515404
-0.3227000000000001,-157.31589654499206
-0.3237,-159.01355010483013
-0.3247000000000001,-160.28679027470866
-0.3257,-161.84297270456022
-0.3267000000000001,-163.68209739438475
-0.3277,-165.5212220842093
-0.3287000000000001,-167.21887564404733
-0.3297,-168.77505807389886
-0.3307000000000001,-170.47271163373694
-0.3317,-172.0288940635885
-0.3327000000000001,-173.58507649344
-0.3337,-175.42420118326456
-0.3347000000000001,-177.54626813306209
-0.3357,-179.38539282288664
-0.3367000000000001,-181.08304638272472
-0.3377,-182.78069994256273
-0.3387000000000001,-184.47835350240078
-0.3397,-186.45894932221185
-0.3407000000000001,-188.4395451420229
-0.3417,-190.70308322180696
-0.3427000000000001,-192.683679041618
-0.3437,-194.52280373144254
-0.3447000000000001,-196.2204572912806
-0.3457,-198.20105311109162
-0.3467000000000001,-200.4645911908757
-0.3477,-202.86960040064628
-0.3487000000000001,-204.9916673504438
-0.3497,-206.97226317025488
-0.3507000000000001,-208.95285899006592
-0.3517,-211.07492593986345
-0.3527000000000001,-213.05552175967455
-0.3537,-215.31905983945856
-0.3547000000000001,-217.72406904922914
-0.3557,-219.98760712901318
-0.35670000000000013,-222.10967407881074
-0.3577,-224.09026989862178
-0.35870000000000013,-226.21233684841937
-0.3597,-228.47587492820347
-0.36070000000000013,-230.7394130079875
-0.3617,-233.00295108777152
-0.3626999999999999,-235.12501803756908
-0.3637,-237.24708498736666
-0.3646999999999999,-239.0862096771912
-0.3657,-241.34974775697523
-0.3666999999999999,-243.75475696674582
-0.3677,-246.15976617651637
-0.3686999999999999,-248.56477538628693
-0.36970000000000003,-250.828313466071
-0.3706999999999999,-252.95038041586852
-0.37170000000000003,-255.21391849565262
-0.3726999999999999,-257.6189277054232
-0.37370000000000003,-260.02393691519376
-0.3746999999999999,-262.7118883849373
-0.37570000000000003,-265.2583687246944
-0.3766999999999999,-267.6633779344649
-0.37770000000000004,-269.78544488426246
-0.3786999999999999,-272.1904540940331
-0.37970000000000004,-275.0198766937631
-0.3806999999999999,-277.7078281635067
-0.38170000000000004,-280.3957796332503
-0.38269999999999993,-282.9422599730073
-0.38370000000000004,-285.4887403127644
-0.38469999999999993,-287.893749522535
-0.38570000000000004,-290.29875873230554
-0.38669999999999993,-289.87434534234603
-0.38570000000000004,-284.49844240285887
-0.38469999999999993,-279.82989511330425
-0.38370000000000004,-275.44429008372265
-0.38269999999999993,-271.05868505414105
-0.38170000000000004,-266.9560222845325
-0.3806999999999999,-263.13630177489676
-0.37970000000000004,-259.7409946552208
-0.3786999999999999,-256.4871586655312
-0.37770000000000004,-253.09185154585506
-0.3766999999999999,-249.5550732961925
-0.37570000000000003,-246.15976617651637
-0.3746999999999999,-242.90593018682682
-0.37370000000000003,-239.93503645711021
-0.3726999999999999,-237.10561385738015
-0.37170000000000003,-234.13472012766357
-0.3706999999999999,-231.3052975279335
-0.36970000000000003,-228.1929326682304
-0.3686999999999999,-225.08056780852735
-0.3677,-222.25114520879725
-0.3666999999999999,-219.5631937390537
-0.3657,-216.87524226931012
-0.3646999999999999,-214.32876192955305
-0.3637,-211.64081045980947
-0.3626999999999999,-208.8113878600794
-0.3617,-205.84049413036286
-0.36070000000000013,-203.29401379060576
-0.3597,-200.88900458083523
-0.35870000000000013,-198.48399537106465
-0.3577,-195.93751503130758
-0.35670000000000013,-193.249563561564
-0.3557,-190.42014096183394
-0.3547000000000001,-187.87366062207687
-0.3537,-185.46865141230631
-0.3527000000000001,-183.06364220253573
-0.3517,-180.8001041227517
-0.3507000000000001,-178.3950949129811
-0.3497,-175.70714344323756
-0.3487000000000001,-173.01919197349397
-0.3477,-170.33124050375042
-0.3467000000000001,-168.06770242396635
-0.3457,-165.6626932141958
-0.3447000000000001,-163.25768400442522
-0.3437,-160.5697325346817
-0.3427000000000001,-157.88178106493808
-0.3417,-155.19382959519453
-0.3407000000000001,-152.78882038542397
-0.3397,-150.5252823056399
-0.3387000000000001,-148.40321535584232
-0.3377,-145.9982061460718
-0.3367000000000001,-143.4517258063147
-0.3357,-140.9759810315509
-0.3347000000000001,-138.61341316077628
-0.3337,-136.43475775898415
-0.3327000000000001,-134.17121967920008
-0.3317,-132.07744695539984
-0.3307000000000001,-129.9412328926036
-0.3297,-127.57866502182902
-0.3287000000000001,-125.10292024706521
-0.3277,-122.82523505428249
-0.3267000000000001,-120.77390366947817
-0.3257,-118.82160207566443
-0.3247000000000001,-116.81271202985609
-0.3237,-114.57746817606933
-0.3227000000000001,-112.27148875728932
-0.3217,-109.9655093385093
-0.3207000000000001,-107.78685393671715
-0.3197,-105.86284656890071
-0.3187000000000001,-103.93883920108425
-0.3177,-101.92994915527588
-0.3167000000000001,-99.75129375348374
-0.3157,-97.4877556736997
-0.3147000000000001,-95.35154161090348
-0.3137,-93.30021022609918
-0.3127000000000001,-91.46108553627462
-0.3117,-89.55122528145681
-0.3107000000000001,-87.49989389665252
-0.3097,-85.36367983385631
-0.3087000000000001,-83.18502443206415
-0.3077,-81.09125170826391
-0.3067000000000001,-79.25212701843935
-0.30569999999999997,-77.46959078060941
-0.3047000000000001,-75.6729074297808
-0.30369999999999997,-73.76304717496302
-0.3027000000000001,-71.6268331121668
-0.30169999999999997,-69.61794306635846
-0.3007000000000001,-67.82125971552985
-0.29969999999999997,-66.12360615569182
-0.2987000000000001,-64.51083527384567
-0.29769999999999996,-62.72829903601572
-0.2967000000000001,-60.84673300719523
-0.29569999999999996,-58.880284300382826
-0.2947000000000001,-57.012865384560975
-0.29369999999999996,-55.357653163718886
-0.29270000000000007,-53.7873236208687
-0.29169999999999996,-52.17455273902255
-0.29070000000000007,-50.50519340518181
-0.28969999999999996,-48.68021582835591
-0.28870000000000007,-46.79864979953541
-0.28769999999999996,-45.05855490070142
-0.28670000000000007,-43.48822535785123
-0.28569999999999995,-42.04521983198889
-0.28470000000000006,-40.559772967130606
-0.28369999999999995,-38.90456074628851
-0.28270000000000006,-37.164465847454515
-0.28169999999999995,-35.38192960962457
-0.28070000000000006,-33.81160006677438
-0.27969999999999995,-32.32615320191609
-0.27870000000000006,-30.968030354045652
-0.27769999999999995,-29.525024828183312
-0.27670000000000006,-27.869812607341224
-0.27569999999999995,-26.21460038649913
-0.27470000000000006,-24.601829504652986
-0.27369999999999994,-23.15882397879065
-0.27270000000000005,-21.857289582914817
-0.27169999999999994,-20.541608074040333
-0.27070000000000005,-19.155191000172596
-0.26969999999999994,-17.669744135314307
-0.26870000000000005,-16.099414592464115
-0.26769999999999994,-14.61396772760583
-0.26670000000000005,-13.349215825526485
-0.26569999999999994,-12.170761312738911
