Potential V vs RHE, Current mA cm-2
0.013299999999999867,-0.4343163690585663
0.012299999999999978,-2.8845963404248094
0.011299999999999866,-4.231401497896325
0.010299999999999976,-5.075984143915751
0.009299999999999864,-5.644698086461496
0.008299999999999974,-5.967252262830725
0.007299999999999862,-6.2035090499081855
0.006299999999999972,-6.40156863188929
0.00529999999999986,-6.55294274097485
0.0042999999999999705,-6.714219829159464
0.0032999999999998586,-6.817493754049612
0.0022999999999999687,-6.882570473843404
0.0012999999999998568,-6.94623248233733
0.00029999999999996696,-7.005650356931662
-0.000700000000000145,-7.111753704421539
-0.0017000000000000348,-7.192392248513847
-0.0027000000000001467,-7.192392248513847
-0.0037000000000000366,-7.205124650212632
-0.0047000000000001485,-7.268786658706559
-0.005700000000000038,-7.343766357599406
-0.00670000000000015,-7.415916633892522
-0.00770000000000004,-7.360742893197786
-0.008700000000000152,-7.372060583596706
-0.009700000000000042,-7.4498697050892835
-0.010700000000000154,-7.553143629979432
-0.011700000000000044,-7.544655362180241
-0.012700000000000156,-7.506458157083885
-0.013700000000000045,-7.506458157083885
-0.014700000000000157,-7.5743642994774065
-0.015700000000000047,-7.604073236774572
-0.01670000000000016,-7.616805638473357
-0.01770000000000005,-7.604073236774572
-0.01870000000000016,-7.611146793273897
-0.01970000000000005,-7.6337821740717375
-0.020700000000000163,-7.669149956568364
-0.021700000000000053,-7.683297069567015
-0.022700000000000164,-7.693200048666069
-0.023700000000000054,-7.660661688769173
-0.024700000000000166,-7.676223513067688
-0.025700000000000056,-7.73564138766202
-0.026700000000000168,-7.748373789360806
-0.027700000000000058,-7.73564138766202
-0.02870000000000017,-7.69885889386553
-0.02970000000000006,-7.7186648520636405
-0.03070000000000017,-7.8106210865548675
-0.03170000000000006,-7.803547530055542
-0.03270000000000017,-7.745544366761076
-0.03370000000000006,-7.739885521561616
-0.034700000000000175,-7.776668015358106
-0.035700000000000065,-7.8502330029510885
-0.03670000000000018,-7.823353488253653
-0.03770000000000007,-7.782326860557566
-0.03870000000000018,-7.7908151283567575
-0.03970000000000007,-7.816279931754329
-0.04070000000000018,-7.851647714250955
-0.04170000000000007,-7.855891848150549
-0.04270000000000018,-7.830427044752977
-0.04370000000000007,-7.8431594464517636
-0.044700000000000184,-7.845988869051494
-0.045700000000000074,-7.870038961149199
-0.046700000000000186,-7.89550376454677
-0.047700000000000076,-7.875697806348659
-0.04870000000000019,-7.840330023852035
-0.04970000000000008,-7.865794827249602
-0.05070000000000019,-7.912480300145149
-0.05170000000000008,-7.946433371341912
-0.05270000000000019,-7.901162609746229
-0.05370000000000008,-7.862965404649874
-0.05470000000000019,-7.894089053246905
-0.05570000000000008,-7.942189237442316
-0.056700000000000195,-7.9747275973392115
-0.057700000000000085,-7.92379799054407
-0.058700000000000196,-7.889844919347309
-0.059700000000000086,-7.940774526142452
-0.0607000000000002,-7.998777689436918
-0.06170000000000009,-8.005851245936244
-0.0627000000000002,-7.971898174739481
-0.06370000000000009,-7.946433371341912
-0.0647000000000002,-7.986045287738133
-0.06570000000000009,-8.015754225035298
-0.0667000000000002,-8.000192400736783
-0.0677000000000001,-7.993118844237457
-0.0687000000000002,-7.9888747103378615
-0.0697000000000001,-7.990289421637726
-0.07070000000000021,-8.049707296232057
-0.0717000000000001,-8.036974894533273
-0.07270000000000021,-8.038389605833139
-0.0737000000000001,-8.015754225035298
-0.07470000000000021,-8.012924802435567
-0.0757000000000001,-8.076586810929495
-0.07670000000000021,-8.104881036926795
-0.0777000000000001,-8.0723426770299
-0.07870000000000021,-8.038389605833139
-0.0797000000000001,-8.055366141431518
-0.08070000000000022,-8.136004685523828
-0.0817000000000001,-8.161469488921396
-0.08270000000000022,-8.092148635228009
-0.08370000000000011,-8.076586810929495
-0.08470000000000022,-8.130345840324367
-0.08570000000000011,-8.188349003618832
-0.08670000000000022,-8.181275447119509
-0.08770000000000011,-8.141663530723285
-0.08870000000000022,-8.141663530723285
-0.08970000000000011,-8.209569673116807
-0.09070000000000022,-8.212399095716538
-0.09170000000000011,-8.229375631314918
-0.09270000000000023,-8.209569673116807
-0.09370000000000012,-8.209569673116807
-0.09470000000000023,-8.23786389911411
-0.09570000000000012,-8.274646392910599
-0.09670000000000023,-8.295867062408576
-0.09770000000000012,-8.304355330207764
-0.09870000000000023,-8.261913991211815
-0.09970000000000012,-8.293037639808846
-0.10070000000000023,-8.352455514403177
-0.10170000000000012,-8.394896853399128
-0.10270000000000024,-8.375090895201017
-0.10370000000000013,-8.315673020606686
-0.10470000000000024,-8.366602627401825
-0.10570000000000013,-8.44299703759454
-0.10670000000000024,-8.46280299579265
-0.10770000000000013,-8.435923481095214
-0.10870000000000024,-8.4203616567967
-0.10970000000000013,-8.47412068619157
-0.11070000000000024,-8.557588652883606
-0.11170000000000013,-8.542026828585092
-0.11270000000000002,-8.530709138186172
-0.11370000000000013,-8.544856251184823
-0.11470000000000002,-8.594371146680096
-0.11570000000000014,-8.631153640476589
-0.11670000000000003,-8.653789021274429
-0.11770000000000014,-8.643886042175374
-0.11870000000000003,-8.67642440207227
-0.11970000000000014,-8.68491266987146
-0.12070000000000003,-8.733012854066871
-0.12170000000000014,-8.79384543996107
-0.12270000000000003,-8.792430728661204
-0.12370000000000014,-8.783942460862013
-0.12470000000000003,-8.820724954658504
-0.12570000000000014,-8.898534076151082
-0.12670000000000003,-8.969269641144333
-0.12770000000000015,-8.943804837746763
-0.12870000000000004,-8.936731281247436
-0.12970000000000015,-8.980587331543253
-0.13070000000000004,-9.068299432134886
-0.13170000000000015,-9.131961440628812
-0.13270000000000004,-9.102252503331647
-0.13370000000000015,-9.09800836943205
-0.13470000000000004,-9.197038160422604
-0.13570000000000015,-9.267773725415855
-0.13670000000000004,-9.304556219212346
-0.13770000000000016,-9.308800353111941
-0.13870000000000005,-9.342753424308702
-0.13970000000000016,-9.429050813600469
-0.14070000000000005,-9.467248018696827
-0.14170000000000016,-9.516762914192102
-0.14270000000000005,-9.562033675787783
-0.14370000000000016,-9.600230880884139
-0.14470000000000005,-9.639842797280359
-0.14570000000000016,-9.737457876971048
-0.14670000000000005,-9.80536401936457
-0.14770000000000016,-9.852049492260116
-0.14870000000000005,-9.854878914859846
-0.14970000000000017,-9.911467366854446
-0.15070000000000006,-10.044450229041761
-0.15170000000000017,-10.130747618333528
-0.15270000000000006,-10.163285978230423
-0.15370000000000017,-10.176018379929207
-0.15470000000000006,-10.245339233622596
-0.15570000000000017,-10.392469208808558
-0.15670000000000006,-10.484425443299786
-0.15770000000000017,-10.491498999799111
-0.15870000000000006,-10.556575719592905
-0.15970000000000018,-10.664093778382647
-0.16070000000000007,-10.809809042268745
-0.16170000000000018,-10.876300473362404
-0.16270000000000007,-10.920156523658218
-0.16370000000000018,-11.023430448548366
-0.16470000000000007,-11.15924273333541
-0.16570000000000018,-11.239881277427717
-0.16670000000000007,-11.371449428315165
-0.16770000000000018,-11.433696725509227
-0.16870000000000007,-11.545458918198566
-0.16970000000000018,-11.645903420488981
-0.17070000000000007,-11.773227437476836
-0.17170000000000019,-11.911869144863608
-0.17270000000000008,-12.033534316652002
-0.1737000000000002,-12.085878634747008
-0.17470000000000008,-12.235838032532703
-0.1757000000000002,-12.395700409417453
-0.17670000000000008,-12.5838570122995
-0.1777000000000002,-12.668739690291403
-0.17870000000000008,-12.735231121385059
-0.1797000000000002,-12.910655322568324
-0.18070000000000008,-13.134179707947
-0.1817000000000002,-13.296871507431481
-0.18270000000000008,-13.401560143621493
-0.1837000000000002,-13.511907625010965
-0.1847000000000001,-13.741090855589102
-0.1857000000000002,-13.963200529667912
-0.1867000000000001,-14.10608637095428
-0.1877000000000002,-14.26028990263957
-0.1887000000000001,-14.430055258623375
-0.1897000000000002,-14.65640906660178
-0.1907000000000001,-14.868615761581536
-0.1917000000000001,-15.06667534356264
-0.19269999999999998,-15.264734925543747
-0.1937000000000001,-15.491088733522153
-0.19469999999999998,-15.660854089505953
-0.1957000000000001,-15.929649236480316
-0.19669999999999999,-16.184297270456018
-0.1977000000000001,-16.438945304431726
-0.1987,-16.60871066041553
-0.1997000000000001,-16.820917355395284
-0.2007,-17.146300954364243
-0.2017000000000001,-17.471684553333205
-0.2027,-17.683891248312957
-0.2037000000000001,-17.896097943292716
-0.2047,-18.19318731626437
-0.2057000000000001,-18.57515936722793
-0.2067,-18.900542966196888
-0.2077000000000001,-19.112749661176647
-0.2087,-19.409839034148305
-0.2097000000000001,-19.805958198110513
-0.2107,-20.17378313607542
-0.2117000000000001,-20.48501962204573
-0.2127,-20.78210899501739
-0.2137000000000001,-21.149933932982297
-0.2147,-21.58849443594046
-0.2157000000000001,-21.99876071290132
-0.2167,-22.36658565086623
-0.21770000000000012,-22.776851927827092
-0.2187,-23.1729710917893
-0.21970000000000012,-23.54079602975421
-0.2207,-23.96520941971372
-0.22170000000000012,-24.460358374666487
-0.2227,-24.941360216620595
-0.22370000000000012,-25.295038041586857
-0.2247,-25.747745657543668
-0.22570000000000012,-26.28533595149238
-0.2267,-26.86536758443705
-0.22770000000000012,-27.303928087395207
-0.22870000000000001,-27.714194364356068
-0.22970000000000013,-28.251784658304786
-0.23070000000000002,-28.93084608224
-0.23170000000000013,-29.440142150191413
-0.23270000000000002,-29.921143992145527
-0.23370000000000013,-30.47288139909289
-0.23470000000000002,-31.137795710029454
-0.23570000000000013,-31.788562907967375
-0.23670000000000002,-32.31200608891744
-0.2376999999999999,-32.892037721862096
-0.23870000000000002,-33.58524625879597
-0.2396999999999999,-34.278454795729836
-0.24070000000000003,-34.8867806546718
-0.24169999999999991,-35.57998919160567
-0.24270000000000003,-36.30149195453684
-0.24369999999999992,-37.037141830466666
-0.24470000000000003,-37.659614802407276
-0.24569999999999992,-38.38111756533845
-0.24670000000000003,-39.20165011926017
-0.24769999999999992,-40.02218267318189
-0.24870000000000003,-40.65880275812115
-0.24969999999999992,-41.40859974704962
-0.25070000000000003,-42.28572075296594
-0.2516999999999999,-43.27601866287147
-0.25270000000000004,-43.98337431280399
-0.2536999999999999,-44.71902418873381
-0.25470000000000004,-45.624439420647434
-0.2556999999999999,-46.65717866954891
-0.25670000000000004,-47.534299675465235
-0.25769999999999993,-48.32653800338966
-0.25870000000000004,-49.21780612230463
-0.25969999999999993,-50.30713382320071
-0.26070000000000004,-51.31157884610488
-0.26169999999999993,-52.17455273902255
-0.26270000000000004,-53.136556422930774
-0.26369999999999993,-54.2117370108282
-0.26470000000000005,-55.31521182472294
-0.26569999999999994,-56.26306839563251
-0.26670000000000005,-57.33824898352994
-0.26769999999999994,-58.498312249419264
-0.26870000000000005,-59.6583755153086
-0.26969999999999994,-60.62037919921682
-0.27070000000000005,-61.709706900112906
-0.27169999999999994,-62.94050573099548
-0.27270000000000005,-64.22789301387266
-0.27369999999999994,-65.2181909237782
-0.27470000000000006,-66.33581285067157
-0.27569999999999995,-67.67978858554335
-0.27670000000000006,-69.13694122440434
-0.27769999999999995,-70.22626892530042
-0.27870000000000006,-71.32974373919515
-0.27969999999999995,-72.63127813507097
-0.28070000000000006,-74.21575479091983
-0.28169999999999995,-75.47484784779972
-0.28270000000000006,-76.62076400069039
-0.28369999999999995,-77.95059262256353
-0.28470000000000006,-79.57751061740831
-0.28569999999999995,-80.99222191727335
-0.28670000000000007,-82.22302074815593
-0.28769999999999996,-83.56699648302772
-0.28870000000000007,-85.1939144778725
-0.28969999999999996,-86.7359497947254
-0.29070000000000007,-88.00918996460392
-0.29169999999999996,-89.50878394246087
-0.29270000000000007,-91.19229038930027
-0.29369999999999996,-92.84750261014237
-0.2947000000000001,-94.14903700601819
-0.29569999999999996,-95.66277809687378
-0.2967000000000001,-97.41702010870642
-0.29769999999999996,-99.22785057253368
-0.2987000000000001,-100.54353208140815
-0.29969999999999997,-102.08556739826105
-0.3007000000000001,-103.91054497508695
-0.30169999999999997,-105.90528790789664
-0.3027000000000001,-107.36244054675764
-0.30369999999999997,-108.83374029861727
-0.3047000000000001,-110.60212942344857
-0.30569999999999997,-112.75249059924342
-0.3067000000000001,-114.37940859408822
-0.3077,-115.9214439109411
-0.3087000000000001,-117.6615388097751
-0.3097,-119.81189998556997
-0.3107000000000001,-121.6793189013918
-0.3117,-123.2779426702393
-0.3127000000000001,-125.08877313406653
-0.3137,-127.28157564885734
-0.3147000000000001,-129.26217146866838
-0.3157,-130.8607952375159
-0.3167000000000001,-132.71406704033907
-0.3177,-134.9068695551299
-0.3187000000000001,-137.08552495692206
-0.3197,-138.81147274275742
-0.3207000000000001,-140.73548011057386
-0.3217,-143.0273124163552
-0.3227000000000001,-145.29085049613926
-0.3237,-146.9885040559773
-0.3247000000000001,-148.82762874580186
-0.3257,-151.09116682558593
-0.3267000000000001,-153.63764716534297
-0.3277,-155.33530072518104
-0.3287000000000001,-157.31589654499206
-0.3297,-159.57943462477613
-0.3307000000000001,-162.2673860945197
-0.3317,-164.24798191433075
-0.3327000000000001,-166.0871066041553
-0.3337,-168.20917355395284
-0.3347000000000001,-170.89712502369645
-0.3357,-173.16066310348046
-0.3367000000000001,-174.99978779330505
-0.3377,-177.1218547431026
-0.3387000000000001,-179.80980621284618
-0.3397,-182.21481542261674
-0.3407000000000001,-184.05394011244127
-0.3417,-186.17600706223882
-0.3427000000000001,-188.8639585319824
-0.3437,-191.69338113171247
-0.3447000000000001,-193.532505821537
-0.3457,-195.79604390132107
-0.3467000000000001,-198.48399537106465
-0.3477,-201.31341797079472
-0.3487000000000001,-203.15254266061928
-0.3497,-205.27460961041683
-0.3507000000000001,-207.96256108016038
-0.3517,-210.93345480987696
-0.3527000000000001,-213.05552175967455
-0.3537,-215.03611757948556
-0.3547000000000001,-217.72406904922914
-0.3557,-220.83643390893224
-0.35670000000000013,-222.81702972874328
-0.3577,-225.08056780852735
-0.35870000000000013,-227.34410588831142
-0.3597,-229.89058622806846
-0.36070000000000013,-232.01265317786604
-0.3617,-234.13472012766357
-0.3626999999999999,-237.24708498736666
-0.3637,-240.50092097705624
-0.3646999999999999,-243.18887244679982
-0.3657,-245.45241052658386
-0.3666999999999999,-247.85741973635444
-0.3677,-250.1209578161385
-0.3686999999999999,-252.52596702590907
-0.36970000000000003,-254.93097623567962
-0.3706999999999999,-257.6189277054232
-0.37170000000000003,-260.73129256512624
-0.3726999999999999,-263.41924403486985
-0.37370000000000003,-265.9657243746269
-0.3746999999999999,-268.22926245441096
-0.37570000000000003,-270.63427166418154
-0.3766999999999999,-273.8881076538711
-0.37770000000000004,-275.7272323436957
-0.3786999999999999,-277.9907704234797
-0.37970000000000004,-280.9616641531963
-0.3806999999999999,-284.35697127287233
-0.38170000000000004,-286.9034516126294
-0.38269999999999993,-289.1669896924135
-0.38370000000000004,-291.28905664221105
-0.38469999999999993,-294.54289263190066
-0.38570000000000004,-297.23084410164427
-0.38669999999999993,-295.67466167179265
-0.38570000000000004,-291.4305277721976
-0.38469999999999993,-288.6011051724675
-0.38370000000000004,-285.4887403127644
-0.38269999999999993,-282.09343319308834
-0.38170000000000004,-278.5566549434257
-0.3806999999999999,-275.7272323436957
-0.37970000000000004,-273.1807520039386
-0.3786999999999999,-269.5025026242895
-0.37770000000000004,-266.3901377645864
-0.3766999999999999,-263.84365742482936
-0.37570000000000003,-261.4386482150588
-0.3746999999999999,-257.90186996539614
-0.37370000000000003,-254.50656284572008
-0.3726999999999999,-251.96008250596302
-0.37170000000000003,-249.5550732961925
-0.3706999999999999,-246.30123730650286
-0.36970000000000003,-243.18887244679982
-0.3686999999999999,-240.64239210704275
-0.3677,-238.5203251572452
-0.3666999999999999,-235.69090255751513
-0.3657,-232.43706656782552
-0.3646999999999999,-229.74911509808197
-0.3637,-227.4855770182979
-0.3626999999999999,-224.79762554855435
-0.3617,-221.54378955886475
-0.36070000000000013,-218.57289582914817
-0.3597,-216.4508288793506
-0.35870000000000013,-214.18729079956654
-0.3577,-211.07492593986345
-0.35670000000000013,-208.1040322101469
-0.3557,-205.84049413036286
-0.3547000000000001,-203.43548492059227
-0.3537,-200.4645911908757
-0.3527000000000001,-197.91811085111863
-0.3517,-196.0789861612941
-0.3507000000000001,-193.81544808151003
-0.3497,-190.70308322180696
-0.3487000000000001,-188.15660288204987
-0.3477,-185.7515936722793
-0.3467000000000001,-183.77099785246824
-0.3457,-181.08304638272472
-0.3447000000000001,-178.3950949129811
-0.3437,-175.84861457322407
-0.3427000000000001,-173.72654762342648
-0.3417,-172.0288940635885
-0.3407000000000001,-169.3409425938449
-0.3397,-166.79446225408785
-0.3387000000000001,-164.81386643427678
-0.3377,-162.8332706144657
-0.3367000000000001,-160.14531914472215
-0.3357,-157.88178106493808
-0.3347000000000001,-155.75971411514055
-0.3337,-154.203531685289
-0.3327000000000001,-151.5155802155454
-0.3317,-148.96909987578834
-0.3307000000000001,-146.7055617960043
-0.3297,-145.00790823616626
-0.3287000000000001,-142.4614278964092
-0.3277,-140.22618404262244
-0.3267000000000001,-138.3587651268006
-0.3257,-136.74599424495443
-0.3247000000000001,-134.42586771317576
-0.3237,-132.06329984240116
-0.3227000000000001,-129.95538000560228
-0.3217,-128.31431489775883
-0.3207000000000001,-126.27713062595316
-0.3197,-124.04188677216642
-0.3187000000000001,-122.01884961335942
-0.3177,-120.30704894052272
-0.3167000000000001,-118.46792425069816
-0.3157,-116.19023905791546
-0.3147000000000001,-114.1530547861098
-0.3137,-112.37051854827988
-0.3127000000000001,-110.77189477943237
-0.3117,-108.67812205563212
-0.3107000000000001,-106.76826180081432
-0.3097,-104.98572556298437
-0.3087000000000001,-103.28807200314633
-0.3077,-101.56212421731098
-0.3067000000000001,-99.93520622246619
-0.30569999999999997,-98.18096421063355
-0.3047000000000001,-96.5964875547847
-0.30369999999999997,-94.64418596097094
-0.3027000000000001,-92.8050612711464
-0.30169999999999997,-91.22058461529755
-0.3007000000000001,-89.69269641144332
-0.29969999999999997,-87.91016017361338
-0.2987000000000001,-86.02859414479288
-0.29769999999999996,-84.34508769795349
-0.2967000000000001,-82.90208217209116
-0.29569999999999996,-81.23272283825041
-0.2947000000000001,-79.53506927841237
-0.29369999999999996,-77.96473973556218
-0.29270000000000007,-76.5924697746931
-0.29169999999999996,-75.09287579683615
-0.29070000000000007,-73.40936934999675
-0.28969999999999996,-71.83903980714656
-0.28870000000000007,-70.42432850728152
-0.28769999999999996,-69.05205854641244
-0.28670000000000007,-67.51002322955955
-0.28569999999999995,-66.13775326869046
-0.28470000000000006,-64.70889485582677
-0.28369999999999995,-63.37906623395363
-0.28270000000000006,-61.87947225609671
-0.28169999999999995,-60.42231961723571
-0.28070000000000006,-59.07834388236393
-0.27969999999999995,-57.86169216448
-0.27870000000000006,-56.560157768604164
-0.27769999999999995,-55.17374069473642
-0.27670000000000006,-53.942941863853854
-0.27569999999999995,-52.75458437196722
-0.27470000000000006,-51.62281533207519
-0.27369999999999994,-50.3637222751953
-0.27270000000000005,-49.104629218315424
-0.27169999999999994,-47.987007291422046
-0.27070000000000005,-46.72791423454216
-0.26969999999999994,-45.36979138667173
-0.26870000000000005,-44.16728678178645
-0.26769999999999994,-43.148694645883616
-0.26670000000000005,-42.04521983198889
-0.26569999999999994,-40.800273888107654
