Sept. 17, 2024   09:03:46
Linear Sweep Voltammetry
File: c:/users/guazh/data/20240903_batch_252_500/2024-09-03-exp377\regeneratedgce-2024-09-17t08_59_10-lsvinkoh\regeneratedgce_lsv_50mvs_efin_-1900mv.bin
Data Source:  Experiment
Instrument Model:  CHI760E
Header: LSV ran at 50 mVs with Efin at -1900mV
Note: 

Init E (V) = -0.6
Final E (V) = -1.9
Scan Rate (V/s) = 0.05
Sample Interval (V) = 0.001
Quiet Time (sec) = 2
Sensitivity (A/V) = 1e-4
Comp R (ohm) = 2.3

Results:

Channel 1:

Potential/V, Current/A

-0.600, -5.349e-8
-0.601, 5.651e-8
-0.602, 8.680e-8
-0.603, 1.023e-7
-0.604, 1.145e-7
-0.605, 1.268e-7
-0.606, 1.401e-7
-0.607, 1.507e-7
-0.608, 1.598e-7
-0.609, 1.689e-7
-0.610, 1.796e-7
-0.611, 1.874e-7
-0.612, 1.974e-7
-0.613, 2.028e-7
-0.614, 2.128e-7
-0.615, 2.214e-7
-0.616, 2.305e-7
-0.617, 2.376e-7
-0.618, 2.444e-7
-0.619, 2.524e-7
-0.620, 2.610e-7
-0.621, 2.672e-7
-0.622, 2.743e-7
-0.623, 2.810e-7
-0.624, 2.872e-7
-0.625, 2.964e-7
-0.626, 3.025e-7
-0.627, 3.107e-7
-0.628, 3.167e-7
-0.629, 3.221e-7
-0.630, 3.290e-7
-0.631, 3.331e-7
-0.632, 3.401e-7
-0.633, 3.474e-7
-0.634, 3.526e-7
-0.635, 3.607e-7
-0.636, 3.664e-7
-0.637, 3.723e-7
-0.638, 3.777e-7
-0.639, 3.819e-7
-0.640, 3.900e-7
-0.641, 3.950e-7
-0.642, 4.010e-7
-0.643, 4.051e-7
-0.644, 4.124e-7
-0.645, 4.178e-7
-0.646, 4.252e-7
-0.647, 4.300e-7
-0.648, 4.348e-7
-0.649, 4.409e-7
-0.650, 4.464e-7
-0.651, 4.515e-7
-0.652, 4.586e-7
-0.653, 4.622e-7
-0.654, 4.681e-7
-0.655, 4.744e-7
-0.656, 4.806e-7
-0.657, 4.854e-7
-0.658, 4.880e-7
-0.659, 4.926e-7
-0.660, 4.990e-7
-0.661, 5.051e-7
-0.662, 5.121e-7
-0.663, 5.150e-7
-0.664, 5.193e-7
-0.665, 5.277e-7
-0.666, 5.332e-7
-0.667, 5.372e-7
-0.668, 5.408e-7
-0.669, 5.447e-7
-0.670, 5.508e-7
-0.671, 5.556e-7
-0.672, 5.620e-7
-0.673, 5.668e-7
-0.674, 5.714e-7
-0.675, 5.782e-7
-0.676, 5.805e-7
-0.677, 5.839e-7
-0.678, 5.889e-7
-0.679, 5.938e-7
-0.680, 5.998e-7
-0.681, 6.073e-7
-0.682, 6.107e-7
-0.683, 6.154e-7
-0.684, 6.189e-7
-0.685, 6.233e-7
-0.686, 6.282e-7
-0.687, 6.326e-7
-0.688, 6.370e-7
-0.689, 6.420e-7
-0.690, 6.466e-7
-0.691, 6.531e-7
-0.692, 6.580e-7
-0.693, 6.588e-7
-0.694, 6.647e-7
-0.695, 6.700e-7
-0.696, 6.758e-7
-0.697, 6.812e-7
-0.698, 6.842e-7
-0.699, 6.880e-7
-0.700, 6.931e-7
-0.701, 6.963e-7
-0.702, 7.019e-7
-0.703, 7.055e-7
-0.704, 7.104e-7
-0.705, 7.160e-7
-0.706, 7.188e-7
-0.707, 7.248e-7
-0.708, 7.283e-7
-0.709, 7.308e-7
-0.710, 7.365e-7
-0.711, 7.397e-7
-0.712, 7.451e-7
-0.713, 7.489e-7
-0.714, 7.533e-7
-0.715, 7.585e-7
-0.716, 7.640e-7
-0.717, 7.685e-7
-0.718, 7.714e-7
-0.719, 7.743e-7
-0.720, 7.793e-7
-0.721, 7.843e-7
-0.722, 7.885e-7
-0.723, 7.930e-7
-0.724, 7.977e-7
-0.725, 8.028e-7
-0.726, 8.073e-7
-0.727, 8.116e-7
-0.728, 8.140e-7
-0.729, 8.187e-7
-0.730, 8.231e-7
-0.731, 8.280e-7
-0.732, 8.332e-7
-0.733, 8.363e-7
-0.734, 8.407e-7
-0.735, 8.455e-7
-0.736, 8.499e-7
-0.737, 8.541e-7
-0.738, 8.559e-7
-0.739, 8.597e-7
-0.740, 8.651e-7
-0.741, 8.684e-7
-0.742, 8.760e-7
-0.743, 8.792e-7
-0.744, 8.831e-7
-0.745, 8.874e-7
-0.746, 8.894e-7
-0.747, 8.938e-7
-0.748, 8.967e-7
-0.749, 9.011e-7
-0.750, 9.069e-7
-0.751, 9.116e-7
-0.752, 9.156e-7
-0.753, 9.190e-7
-0.754, 9.223e-7
-0.755, 9.282e-7
-0.756, 9.319e-7
-0.757, 9.351e-7
-0.758, 9.380e-7
-0.759, 9.417e-7
-0.760, 9.480e-7
-0.761, 9.537e-7
-0.762, 9.564e-7
-0.763, 9.598e-7
-0.764, 9.642e-7
-0.765, 9.670e-7
-0.766, 9.717e-7
-0.767, 9.750e-7
-0.768, 9.809e-7
-0.769, 9.859e-7
-0.770, 9.885e-7
-0.771, 9.929e-7
-0.772, 9.956e-7
-0.773, 9.985e-7
-0.774, 1.003e-6
-0.775, 1.006e-6
-0.776, 1.011e-6
-0.777, 1.017e-6
-0.778, 1.019e-6
-0.779, 1.023e-6
-0.780, 1.027e-6
-0.781, 1.031e-6
-0.782, 1.035e-6
-0.783, 1.038e-6
-0.784, 1.042e-6
-0.785, 1.047e-6
-0.786, 1.049e-6
-0.787, 1.056e-6
-0.788, 1.058e-6
-0.789, 1.063e-6
-0.790, 1.067e-6
-0.791, 1.070e-6
-0.792, 1.075e-6
-0.793, 1.078e-6
-0.794, 1.080e-6
-0.795, 1.085e-6
-0.796, 1.089e-6
-0.797, 1.093e-6
-0.798, 1.096e-6
-0.799, 1.100e-6
-0.800, 1.104e-6
-0.801, 1.108e-6
-0.802, 1.110e-6
-0.803, 1.113e-6
-0.804, 1.118e-6
-0.805, 1.120e-6
-0.806, 1.125e-6
-0.807, 1.129e-6
-0.808, 1.133e-6
-0.809, 1.136e-6
-0.810, 1.140e-6
-0.811, 1.143e-6
-0.812, 1.147e-6
-0.813, 1.150e-6
-0.814, 1.155e-6
-0.815, 1.158e-6
-0.816, 1.163e-6
-0.817, 1.167e-6
-0.818, 1.170e-6
-0.819, 1.178e-6
-0.820, 1.182e-6
-0.821, 1.183e-6
-0.822, 1.188e-6
-0.823, 1.189e-6
-0.824, 1.192e-6
-0.825, 1.198e-6
-0.826, 1.202e-6
-0.827, 1.207e-6
-0.828, 1.210e-6
-0.829, 1.214e-6
-0.830, 1.216e-6
-0.831, 1.220e-6
-0.832, 1.224e-6
-0.833, 1.227e-6
-0.834, 1.230e-6
-0.835, 1.235e-6
-0.836, 1.241e-6
-0.837, 1.243e-6
-0.838, 1.244e-6
-0.839, 1.248e-6
-0.840, 1.253e-6
-0.841, 1.257e-6
-0.842, 1.260e-6
-0.843, 1.264e-6
-0.844, 1.268e-6
-0.845, 1.273e-6
-0.846, 1.277e-6
-0.847, 1.280e-6
-0.848, 1.283e-6
-0.849, 1.286e-6
-0.850, 1.290e-6
-0.851, 1.295e-6
-0.852, 1.300e-6
-0.853, 1.302e-6
-0.854, 1.307e-6
-0.855, 1.309e-6
-0.856, 1.313e-6
-0.857, 1.317e-6
-0.858, 1.320e-6
-0.859, 1.325e-6
-0.860, 1.330e-6
-0.861, 1.333e-6
-0.862, 1.338e-6
-0.863, 1.339e-6
-0.864, 1.344e-6
-0.865, 1.347e-6
-0.866, 1.350e-6
-0.867, 1.355e-6
-0.868, 1.358e-6
-0.869, 1.360e-6
-0.870, 1.366e-6
-0.871, 1.372e-6
-0.872, 1.375e-6
-0.873, 1.378e-6
-0.874, 1.381e-6
-0.875, 1.383e-6
-0.876, 1.387e-6
-0.877, 1.390e-6
-0.878, 1.394e-6
-0.879, 1.398e-6
-0.880, 1.401e-6
-0.881, 1.407e-6
-0.882, 1.410e-6
-0.883, 1.413e-6
-0.884, 1.417e-6
-0.885, 1.419e-6
-0.886, 1.425e-6
-0.887, 1.427e-6
-0.888, 1.429e-6
-0.889, 1.435e-6
-0.890, 1.438e-6
-0.891, 1.443e-6
-0.892, 1.447e-6
-0.893, 1.449e-6
-0.894, 1.454e-6
-0.895, 1.456e-6
-0.896, 1.461e-6
-0.897, 1.466e-6
-0.898, 1.467e-6
-0.899, 1.473e-6
-0.900, 1.475e-6
-0.901, 1.479e-6
-0.902, 1.483e-6
-0.903, 1.486e-6
-0.904, 1.491e-6
-0.905, 1.495e-6
-0.906, 1.497e-6
-0.907, 1.501e-6
-0.908, 1.505e-6
-0.909, 1.508e-6
-0.910, 1.512e-6
-0.911, 1.516e-6
-0.912, 1.521e-6
-0.913, 1.524e-6
-0.914, 1.527e-6
-0.915, 1.531e-6
-0.916, 1.535e-6
-0.917, 1.538e-6
-0.918, 1.541e-6
-0.919, 1.545e-6
-0.920, 1.549e-6
-0.921, 1.556e-6
-0.922, 1.557e-6
-0.923, 1.560e-6
-0.924, 1.565e-6
-0.925, 1.567e-6
-0.926, 1.571e-6
-0.927, 1.576e-6
-0.928, 1.580e-6
-0.929, 1.585e-6
-0.930, 1.587e-6
-0.931, 1.590e-6
-0.932, 1.594e-6
-0.933, 1.596e-6
-0.934, 1.602e-6
-0.935, 1.607e-6
-0.936, 1.610e-6
-0.937, 1.614e-6
-0.938, 1.615e-6
-0.939, 1.621e-6
-0.940, 1.624e-6
-0.941, 1.628e-6
-0.942, 1.632e-6
-0.943, 1.633e-6
-0.944, 1.638e-6
-0.945, 1.641e-6
-0.946, 1.646e-6
-0.947, 1.651e-6
-0.948, 1.654e-6
-0.949, 1.658e-6
-0.950, 1.662e-6
-0.951, 1.664e-6
-0.952, 1.668e-6
-0.953, 1.670e-6
-0.954, 1.675e-6
-0.955, 1.679e-6
-0.956, 1.684e-6
-0.957, 1.688e-6
-0.958, 1.690e-6
-0.959, 1.694e-6
-0.960, 1.699e-6
-0.961, 1.703e-6
-0.962, 1.705e-6
-0.963, 1.708e-6
-0.964, 1.713e-6
-0.965, 1.718e-6
-0.966, 1.723e-6
-0.967, 1.727e-6
-0.968, 1.729e-6
-0.969, 1.732e-6
-0.970, 1.736e-6
-0.971, 1.741e-6
-0.972, 1.745e-6
-0.973, 1.750e-6
-0.974, 1.755e-6
-0.975, 1.757e-6
-0.976, 1.761e-6
-0.977, 1.764e-6
-0.978, 1.766e-6
-0.979, 1.772e-6
-0.980, 1.777e-6
-0.981, 1.780e-6
-0.982, 1.784e-6
-0.983, 1.786e-6
-0.984, 1.791e-6
-0.985, 1.796e-6
-0.986, 1.800e-6
-0.987, 1.803e-6
-0.988, 1.806e-6
-0.989, 1.810e-6
-0.990, 1.815e-6
-0.991, 1.819e-6
-0.992, 1.823e-6
-0.993, 1.828e-6
-0.994, 1.832e-6
-0.995, 1.835e-6
-0.996, 1.839e-6
-0.997, 1.841e-6
-0.998, 1.846e-6
-0.999, 1.852e-6
-1.000, 1.856e-6
-1.001, 1.862e-6
-1.002, 1.864e-6
-1.003, 1.867e-6
-1.004, 1.872e-6
-1.005, 1.876e-6
-1.006, 1.881e-6
-1.007, 1.883e-6
-1.008, 1.887e-6
-1.009, 1.891e-6
-1.010, 1.894e-6
-1.011, 1.901e-6
-1.012, 1.903e-6
-1.013, 1.906e-6
-1.014, 1.911e-6
-1.015, 1.914e-6
-1.016, 1.920e-6
-1.017, 1.924e-6
-1.018, 1.927e-6
-1.019, 1.931e-6
-1.020, 1.935e-6
-1.021, 1.938e-6
-1.022, 1.941e-6
-1.023, 1.944e-6
-1.024, 1.952e-6
-1.025, 1.958e-6
-1.026, 1.961e-6
-1.027, 1.964e-6
-1.028, 1.966e-6
-1.029, 1.969e-6
-1.030, 1.974e-6
-1.031, 1.978e-6
-1.032, 1.981e-6
-1.033, 1.985e-6
-1.034, 1.989e-6
-1.035, 1.994e-6
-1.036, 1.998e-6
-1.037, 2.002e-6
-1.038, 2.005e-6
-1.039, 2.010e-6
-1.040, 2.013e-6
-1.041, 2.018e-6
-1.042, 2.020e-6
-1.043, 2.024e-6
-1.044, 2.029e-6
-1.045, 2.032e-6
-1.046, 2.037e-6
-1.047, 2.039e-6
-1.048, 2.041e-6
-1.049, 2.047e-6
-1.050, 2.051e-6
-1.051, 2.055e-6
-1.052, 2.060e-6
-1.053, 2.061e-6
-1.054, 2.068e-6
-1.055, 2.072e-6
-1.056, 2.075e-6
-1.057, 2.078e-6
-1.058, 2.079e-6
-1.059, 2.085e-6
-1.060, 2.088e-6
-1.061, 2.092e-6
-1.062, 2.097e-6
-1.063, 2.099e-6
-1.064, 2.104e-6
-1.065, 2.107e-6
-1.066, 2.111e-6
-1.067, 2.114e-6
-1.068, 2.117e-6
-1.069, 2.121e-6
-1.070, 2.127e-6
-1.071, 2.129e-6
-1.072, 2.132e-6
-1.073, 2.135e-6
-1.074, 2.139e-6
-1.075, 2.145e-6
-1.076, 2.151e-6
-1.077, 2.151e-6
-1.078, 2.154e-6
-1.079, 2.157e-6
-1.080, 2.160e-6
-1.081, 2.167e-6
-1.082, 2.168e-6
-1.083, 2.172e-6
-1.084, 2.176e-6
-1.085, 2.178e-6
-1.086, 2.183e-6
-1.087, 2.183e-6
-1.088, 2.188e-6
-1.089, 2.194e-6
-1.090, 2.198e-6
-1.091, 2.203e-6
-1.092, 2.205e-6
-1.093, 2.206e-6
-1.094, 2.212e-6
-1.095, 2.215e-6
-1.096, 2.218e-6
-1.097, 2.221e-6
-1.098, 2.223e-6
-1.099, 2.230e-6
-1.100, 2.234e-6
-1.101, 2.238e-6
-1.102, 2.240e-6
-1.103, 2.242e-6
-1.104, 2.246e-6
-1.105, 2.251e-6
-1.106, 2.255e-6
-1.107, 2.259e-6
-1.108, 2.262e-6
-1.109, 2.266e-6
-1.110, 2.270e-6
-1.111, 2.273e-6
-1.112, 2.275e-6
-1.113, 2.279e-6
-1.114, 2.282e-6
-1.115, 2.286e-6
-1.116, 2.291e-6
-1.117, 2.294e-6
-1.118, 2.298e-6
-1.119, 2.302e-6
-1.120, 2.306e-6
-1.121, 2.310e-6
-1.122, 2.311e-6
-1.123, 2.315e-6
-1.124, 2.319e-6
-1.125, 2.321e-6
-1.126, 2.326e-6
-1.127, 2.331e-6
-1.128, 2.336e-6
-1.129, 2.340e-6
-1.130, 2.342e-6
-1.131, 2.347e-6
-1.132, 2.349e-6
-1.133, 2.351e-6
-1.134, 2.355e-6
-1.135, 2.361e-6
-1.136, 2.365e-6
-1.137, 2.368e-6
-1.138, 2.372e-6
-1.139, 2.377e-6
-1.140, 2.380e-6
-1.141, 2.383e-6
-1.142, 2.385e-6
-1.143, 2.389e-6
-1.144, 2.394e-6
-1.145, 2.400e-6
-1.146, 2.404e-6
-1.147, 2.406e-6
-1.148, 2.407e-6
-1.149, 2.411e-6
-1.150, 2.416e-6
-1.151, 2.419e-6
-1.152, 2.423e-6
-1.153, 2.429e-6
-1.154, 2.433e-6
-1.155, 2.435e-6
-1.156, 2.439e-6
-1.157, 2.440e-6
-1.158, 2.444e-6
-1.159, 2.447e-6
-1.160, 2.452e-6
-1.161, 2.459e-6
-1.162, 2.461e-6
-1.163, 2.464e-6
-1.164, 2.467e-6
-1.165, 2.470e-6
-1.166, 2.474e-6
-1.167, 2.476e-6
-1.168, 2.482e-6
-1.169, 2.486e-6
-1.170, 2.489e-6
-1.171, 2.492e-6
-1.172, 2.494e-6
-1.173, 2.496e-6
-1.174, 2.502e-6
-1.175, 2.507e-6
-1.176, 2.512e-6
-1.177, 2.516e-6
-1.178, 2.520e-6
-1.179, 2.522e-6
-1.180, 2.525e-6
-1.181, 2.528e-6
-1.182, 2.532e-6
-1.183, 2.534e-6
-1.184, 2.540e-6
-1.185, 2.546e-6
-1.186, 2.549e-6
-1.187, 2.552e-6
-1.188, 2.554e-6
-1.189, 2.559e-6
-1.190, 2.564e-6
-1.191, 2.567e-6
-1.192, 2.569e-6
-1.193, 2.573e-6
-1.194, 2.577e-6
-1.195, 2.582e-6
-1.196, 2.587e-6
-1.197, 2.588e-6
-1.198, 2.593e-6
-1.199, 2.596e-6
-1.200, 2.601e-6
-1.201, 2.605e-6
-1.202, 2.606e-6
-1.203, 2.611e-6
-1.204, 2.615e-6
-1.205, 2.618e-6
-1.206, 2.623e-6
-1.207, 2.626e-6
-1.208, 2.631e-6
-1.209, 2.637e-6
-1.210, 2.641e-6
-1.211, 2.644e-6
-1.212, 2.645e-6
-1.213, 2.648e-6
-1.214, 2.653e-6
-1.215, 2.657e-6
-1.216, 2.663e-6
-1.217, 2.666e-6
-1.218, 2.667e-6
-1.219, 2.672e-6
-1.220, 2.676e-6
-1.221, 2.681e-6
-1.222, 2.684e-6
-1.223, 2.687e-6
-1.224, 2.691e-6
-1.225, 2.698e-6
-1.226, 2.700e-6
-1.227, 2.702e-6
-1.228, 2.706e-6
-1.229, 2.715e-6
-1.230, 2.717e-6
-1.231, 2.721e-6
-1.232, 2.725e-6
-1.233, 2.730e-6
-1.234, 2.733e-6
-1.235, 2.736e-6
-1.236, 2.739e-6
-1.237, 2.740e-6
-1.238, 2.745e-6
-1.239, 2.750e-6
-1.240, 2.756e-6
-1.241, 2.763e-6
-1.242, 2.764e-6
-1.243, 2.767e-6
-1.244, 2.771e-6
-1.245, 2.774e-6
-1.246, 2.778e-6
-1.247, 2.781e-6
-1.248, 2.789e-6
-1.249, 2.795e-6
-1.250, 2.798e-6
-1.251, 2.801e-6
-1.252, 2.802e-6
-1.253, 2.805e-6
-1.254, 2.811e-6
-1.255, 2.817e-6
-1.256, 2.822e-6
-1.257, 2.826e-6
-1.258, 2.828e-6
-1.259, 2.831e-6
-1.260, 2.837e-6
-1.261, 2.840e-6
-1.262, 2.844e-6
-1.263, 2.847e-6
-1.264, 2.851e-6
-1.265, 2.857e-6
-1.266, 2.860e-6
-1.267, 2.864e-6
-1.268, 2.869e-6
-1.269, 2.872e-6
-1.270, 2.878e-6
-1.271, 2.881e-6
-1.272, 2.883e-6
-1.273, 2.889e-6
-1.274, 2.892e-6
-1.275, 2.896e-6
-1.276, 2.900e-6
-1.277, 2.902e-6
-1.278, 2.910e-6
-1.279, 2.913e-6
-1.280, 2.920e-6
-1.281, 2.925e-6
-1.282, 2.924e-6
-1.283, 2.929e-6
-1.284, 2.933e-6
-1.285, 2.937e-6
-1.286, 2.941e-6
-1.287, 2.942e-6
-1.288, 2.948e-6
-1.289, 2.952e-6
-1.290, 2.957e-6
-1.291, 2.961e-6
-1.292, 2.964e-6
-1.293, 2.965e-6
-1.294, 2.969e-6
-1.295, 2.972e-6
-1.296, 2.976e-6
-1.297, 2.979e-6
-1.298, 2.984e-6
-1.299, 2.988e-6
-1.300, 2.993e-6
-1.301, 2.996e-6
-1.302, 2.998e-6
-1.303, 3.000e-6
-1.304, 3.003e-6
-1.305, 3.008e-6
-1.306, 3.011e-6
-1.307, 3.013e-6
-1.308, 3.017e-6
-1.309, 3.020e-6
-1.310, 3.027e-6
-1.311, 3.029e-6
-1.312, 3.029e-6
-1.313, 3.032e-6
-1.314, 3.035e-6
-1.315, 3.039e-6
-1.316, 3.044e-6
-1.317, 3.046e-6
-1.318, 3.049e-6
-1.319, 3.052e-6
-1.320, 3.055e-6
-1.321, 3.059e-6
-1.322, 3.059e-6
-1.323, 3.064e-6
-1.324, 3.067e-6
-1.325, 3.071e-6
-1.326, 3.077e-6
-1.327, 3.076e-6
-1.328, 3.078e-6
-1.329, 3.084e-6
-1.330, 3.085e-6
-1.331, 3.091e-6
-1.332, 3.093e-6
-1.333, 3.095e-6
-1.334, 3.100e-6
-1.335, 3.104e-6
-1.336, 3.106e-6
-1.337, 3.110e-6
-1.338, 3.113e-6
-1.339, 3.115e-6
-1.340, 3.119e-6
-1.341, 3.120e-6
-1.342, 3.126e-6
-1.343, 3.130e-6
-1.344, 3.135e-6
-1.345, 3.139e-6
-1.346, 3.140e-6
-1.347, 3.143e-6
-1.348, 3.145e-6
-1.349, 3.148e-6
-1.350, 3.154e-6
-1.351, 3.159e-6
-1.352, 3.162e-6
-1.353, 3.167e-6
-1.354, 3.168e-6
-1.355, 3.172e-6
-1.356, 3.176e-6
-1.357, 3.176e-6
-1.358, 3.181e-6
-1.359, 3.184e-6
-1.360, 3.190e-6
-1.361, 3.195e-6
-1.362, 3.197e-6
-1.363, 3.200e-6
-1.364, 3.205e-6
-1.365, 3.207e-6
-1.366, 3.210e-6
-1.367, 3.212e-6
-1.368, 3.215e-6
-1.369, 3.220e-6
-1.370, 3.224e-6
-1.371, 3.229e-6
-1.372, 3.232e-6
-1.373, 3.234e-6
-1.374, 3.238e-6
-1.375, 3.241e-6
-1.376, 3.244e-6
-1.377, 3.246e-6
-1.378, 3.250e-6
-1.379, 3.255e-6
-1.380, 3.259e-6
-1.381, 3.261e-6
-1.382, 3.266e-6
-1.383, 3.271e-6
-1.384, 3.274e-6
-1.385, 3.279e-6
-1.386, 3.282e-6
-1.387, 3.285e-6
-1.388, 3.288e-6
-1.389, 3.289e-6
-1.390, 3.295e-6
-1.391, 3.296e-6
-1.392, 3.299e-6
-1.393, 3.306e-6
-1.394, 3.307e-6
-1.395, 3.313e-6
-1.396, 3.315e-6
-1.397, 3.316e-6
-1.398, 3.322e-6
-1.399, 3.325e-6
-1.400, 3.329e-6
-1.401, 3.333e-6
-1.402, 3.334e-6
-1.403, 3.339e-6
-1.404, 3.343e-6
-1.405, 3.347e-6
-1.406, 3.350e-6
-1.407, 3.351e-6
-1.408, 3.357e-6
-1.409, 3.362e-6
-1.410, 3.365e-6
-1.411, 3.370e-6
-1.412, 3.372e-6
-1.413, 3.375e-6
-1.414, 3.378e-6
-1.415, 3.383e-6
-1.416, 3.385e-6
-1.417, 3.389e-6
-1.418, 3.391e-6
-1.419, 3.397e-6
-1.420, 3.404e-6
-1.421, 3.405e-6
-1.422, 3.407e-6
-1.423, 3.412e-6
-1.424, 3.414e-6
-1.425, 3.420e-6
-1.426, 3.419e-6
-1.427, 3.422e-6
-1.428, 3.427e-6
-1.429, 3.431e-6
-1.430, 3.439e-6
-1.431, 3.440e-6
-1.432, 3.443e-6
-1.433, 3.449e-6
-1.434, 3.453e-6
-1.435, 3.456e-6
-1.436, 3.459e-6
-1.437, 3.460e-6
-1.438, 3.465e-6
-1.439, 3.469e-6
-1.440, 3.476e-6
-1.441, 3.480e-6
-1.442, 3.481e-6
-1.443, 3.483e-6
-1.444, 3.488e-6
-1.445, 3.489e-6
-1.446, 3.494e-6
-1.447, 3.497e-6
-1.448, 3.502e-6
-1.449, 3.509e-6
-1.450, 3.513e-6
-1.451, 3.516e-6
-1.452, 3.517e-6
-1.453, 3.518e-6
-1.454, 3.524e-6
-1.455, 3.527e-6
-1.456, 3.532e-6
-1.457, 3.537e-6
-1.458, 3.540e-6
-1.459, 3.544e-6
-1.460, 3.548e-6
-1.461, 3.548e-6
-1.462, 3.553e-6
-1.463, 3.557e-6
-1.464, 3.563e-6
-1.465, 3.569e-6
-1.466, 3.571e-6
-1.467, 3.574e-6
-1.468, 3.577e-6
-1.469, 3.581e-6
-1.470, 3.587e-6
-1.471, 3.588e-6
-1.472, 3.593e-6
-1.473, 3.600e-6
-1.474, 3.604e-6
-1.475, 3.610e-6
-1.476, 3.611e-6
-1.477, 3.612e-6
-1.478, 3.617e-6
-1.479, 3.621e-6
-1.480, 3.625e-6
-1.481, 3.632e-6
-1.482, 3.635e-6
-1.483, 3.641e-6
-1.484, 3.646e-6
-1.485, 3.652e-6
-1.486, 3.653e-6
-1.487, 3.654e-6
-1.488, 3.660e-6
-1.489, 3.668e-6
-1.490, 3.672e-6
-1.491, 3.675e-6
-1.492, 3.677e-6
-1.493, 3.681e-6
-1.494, 3.687e-6
-1.495, 3.692e-6
-1.496, 3.696e-6
-1.497, 3.701e-6
-1.498, 3.705e-6
-1.499, 3.708e-6
-1.500, 3.713e-6
-1.501, 3.718e-6
-1.502, 3.723e-6
-1.503, 3.729e-6
-1.504, 3.734e-6
-1.505, 3.740e-6
-1.506, 3.741e-6
-1.507, 3.745e-6
-1.508, 3.751e-6
-1.509, 3.755e-6
-1.510, 3.765e-6
-1.511, 3.767e-6
-1.512, 3.771e-6
-1.513, 3.777e-6
-1.514, 3.781e-6
-1.515, 3.788e-6
-1.516, 3.792e-6
-1.517, 3.794e-6
-1.518, 3.801e-6
-1.519, 3.807e-6
-1.520, 3.813e-6
-1.521, 3.817e-6
-1.522, 3.820e-6
-1.523, 3.828e-6
-1.524, 3.834e-6
-1.525, 3.838e-6
-1.526, 3.845e-6
-1.527, 3.848e-6
-1.528, 3.860e-6
-1.529, 3.866e-6
-1.530, 3.870e-6
-1.531, 3.873e-6
-1.532, 3.877e-6
-1.533, 3.881e-6
-1.534, 3.892e-6
-1.535, 3.896e-6
-1.536, 3.902e-6
-1.537, 3.907e-6
-1.538, 3.914e-6
-1.539, 3.921e-6
-1.540, 3.928e-6
-1.541, 3.931e-6
-1.542, 3.940e-6
-1.543, 3.947e-6
-1.544, 3.953e-6
-1.545, 3.960e-6
-1.546, 3.961e-6
-1.547, 3.967e-6
-1.548, 3.977e-6
-1.549, 3.983e-6
-1.550, 3.994e-6
-1.551, 3.998e-6
-1.552, 4.003e-6
-1.553, 4.011e-6
-1.554, 4.017e-6
-1.555, 4.028e-6
-1.556, 4.031e-6
-1.557, 4.036e-6
-1.558, 4.045e-6
-1.559, 4.050e-6
-1.560, 4.057e-6
-1.561, 4.068e-6
-1.562, 4.074e-6
-1.563, 4.083e-6
-1.564, 4.093e-6
-1.565, 4.097e-6
-1.566, 4.104e-6
-1.567, 4.111e-6
-1.568, 4.119e-6
-1.569, 4.127e-6
-1.570, 4.138e-6
-1.571, 4.147e-6
-1.572, 4.154e-6
-1.573, 4.160e-6
-1.574, 4.170e-6
-1.575, 4.176e-6
-1.576, 4.182e-6
-1.577, 4.192e-6
-1.578, 4.201e-6
-1.579, 4.211e-6
-1.580, 4.223e-6
-1.581, 4.227e-6
-1.582, 4.238e-6
-1.583, 4.245e-6
-1.584, 4.255e-6
-1.585, 4.268e-6
-1.586, 4.272e-6
-1.587, 4.286e-6
-1.588, 4.300e-6
-1.589, 4.308e-6
-1.590, 4.320e-6
-1.591, 4.326e-6
-1.592, 4.337e-6
-1.593, 4.348e-6
-1.594, 4.359e-6
-1.595, 4.373e-6
-1.596, 4.378e-6
-1.597, 4.390e-6
-1.598, 4.407e-6
-1.599, 4.419e-6
-1.600, 4.432e-6
-1.601, 4.440e-6
-1.602, 4.450e-6
-1.603, 4.464e-6
-1.604, 4.480e-6
-1.605, 4.492e-6
-1.606, 4.506e-6
-1.607, 4.518e-6
-1.608, 4.536e-6
-1.609, 4.552e-6
-1.610, 4.562e-6
-1.611, 4.576e-6
-1.612, 4.592e-6
-1.613, 4.603e-6
-1.614, 4.621e-6
-1.615, 4.635e-6
-1.616, 4.646e-6
-1.617, 4.666e-6
-1.618, 4.683e-6
-1.619, 4.704e-6
-1.620, 4.720e-6
-1.621, 4.733e-6
-1.622, 4.747e-6
-1.623, 4.761e-6
-1.624, 4.780e-6
-1.625, 4.800e-6
-1.626, 4.817e-6
-1.627, 4.836e-6
-1.628, 4.857e-6
-1.629, 4.875e-6
-1.630, 4.895e-6
-1.631, 4.908e-6
-1.632, 4.929e-6
-1.633, 4.952e-6
-1.634, 4.973e-6
-1.635, 4.996e-6
-1.636, 5.019e-6
-1.637, 5.043e-6
-1.638, 5.076e-6
-1.639, 5.110e-6
-1.640, 5.124e-6
-1.641, 5.145e-6
-1.642, 5.169e-6
-1.643, 5.197e-6
-1.644, 5.221e-6
-1.645, 5.249e-6
-1.646, 5.279e-6
-1.647, 5.304e-6
-1.648, 5.330e-6
-1.649, 5.360e-6
-1.650, 5.386e-6
-1.651, 5.414e-6
-1.652, 5.446e-6
-1.653, 5.477e-6
-1.654, 5.516e-6
-1.655, 5.553e-6
-1.656, 5.587e-6
-1.657, 5.620e-6
-1.658, 5.654e-6
-1.659, 5.692e-6
-1.660, 5.733e-6
-1.661, 5.766e-6
-1.662, 5.807e-6
-1.663, 5.843e-6
-1.664, 5.889e-6
-1.665, 5.934e-6
-1.666, 5.972e-6
-1.667, 6.015e-6
-1.668, 6.059e-6
-1.669, 6.107e-6
-1.670, 6.156e-6
-1.671, 6.200e-6
-1.672, 6.250e-6
-1.673, 6.304e-6
-1.674, 6.354e-6
-1.675, 6.410e-6
-1.676, 6.457e-6
-1.677, 6.511e-6
-1.678, 6.572e-6
-1.679, 6.633e-6
-1.680, 6.700e-6
-1.681, 6.764e-6
-1.682, 6.825e-6
-1.683, 6.891e-6
-1.684, 6.958e-6
-1.685, 7.024e-6
-1.686, 7.093e-6
-1.687, 7.161e-6
-1.688, 7.236e-6
-1.689, 7.314e-6
-1.690, 7.396e-6
-1.691, 7.471e-6
-1.692, 7.550e-6
-1.693, 7.634e-6
-1.694, 7.724e-6
-1.695, 7.811e-6
-1.696, 7.899e-6
-1.697, 7.997e-6
-1.698, 8.092e-6
-1.699, 8.196e-6
-1.700, 8.306e-6
-1.701, 8.407e-6
-1.702, 8.510e-6
-1.703, 8.616e-6
-1.704, 8.729e-6
-1.705, 8.849e-6
-1.706, 8.961e-6
-1.707, 9.084e-6
-1.708, 9.209e-6
-1.709, 9.344e-6
-1.710, 9.475e-6
-1.711, 9.608e-6
-1.712, 9.750e-6
-1.713, 9.897e-6
-1.714, 1.004e-5
-1.715, 1.019e-5
-1.716, 1.034e-5
-1.717, 1.050e-5
-1.718, 1.067e-5
-1.719, 1.085e-5
-1.720, 1.102e-5
-1.721, 1.120e-5
-1.722, 1.138e-5
-1.723, 1.157e-5
-1.724, 1.178e-5
-1.725, 1.197e-5
-1.726, 1.216e-5
-1.727, 1.237e-5
-1.728, 1.260e-5
-1.729, 1.282e-5
-1.730, 1.306e-5
-1.731, 1.330e-5
-1.732, 1.354e-5
-1.733, 1.379e-5
-1.734, 1.405e-5
-1.735, 1.432e-5
-1.736, 1.460e-5
-1.737, 1.489e-5
-1.738, 1.519e-5
-1.739, 1.550e-5
-1.740, 1.581e-5
-1.741, 1.614e-5
-1.742, 1.647e-5
-1.743, 1.681e-5
-1.744, 1.717e-5
-1.745, 1.753e-5
-1.746, 1.790e-5
-1.747, 1.828e-5
-1.748, 1.868e-5
-1.749, 1.910e-5
-1.750, 1.952e-5
-1.751, 1.995e-5
-1.752, 2.039e-5
-1.753, 2.085e-5
-1.754, 2.133e-5
-1.755, 2.182e-5
-1.756, 2.233e-5
-1.757, 2.285e-5
-1.758, 2.338e-5
-1.759, 2.394e-5
-1.760, 2.452e-5
-1.761, 2.510e-5
-1.762, 2.571e-5
-1.763, 2.634e-5
-1.764, 2.698e-5
-1.765, 2.765e-5
-1.766, 2.832e-5
-1.767, 2.903e-5
-1.768, 2.976e-5
-1.769, 3.051e-5
-1.770, 3.128e-5
-1.771, 3.209e-5
-1.772, 3.291e-5
-1.773, 3.376e-5
-1.774, 3.464e-5
-1.775, 3.554e-5
-1.776, 3.646e-5
-1.777, 3.742e-5
-1.778, 3.841e-5
-1.779, 3.943e-5
-1.780, 4.049e-5
-1.781, 4.156e-5
-1.782, 4.268e-5
-1.783, 4.382e-5
-1.784, 4.501e-5
-1.785, 4.623e-5
-1.786, 4.750e-5
-1.787, 4.880e-5
-1.788, 5.013e-5
-1.789, 5.151e-5
-1.790, 5.294e-5
-1.791, 5.440e-5
-1.792, 5.593e-5
-1.793, 5.750e-5
-1.794, 5.910e-5
-1.795, 6.075e-5
-1.796, 6.245e-5
-1.797, 6.421e-5
-1.798, 6.601e-5
-1.799, 6.788e-5
-1.800, 6.979e-5
-1.801, 7.178e-5
-1.802, 7.382e-5
-1.803, 7.592e-5
-1.804, 7.808e-5
-1.805, 8.032e-5
-1.806, 8.262e-5
-1.807, 8.498e-5
-1.808, 8.743e-5
-1.809, 8.993e-5
-1.810, 9.250e-5
-1.811, 9.517e-5
-1.812, 9.791e-5
-1.813, 1.007e-4
-1.814, 1.036e-4
-1.815, 1.066e-4
-1.816, 1.097e-4
-1.817, 1.129e-4
-1.818, 1.161e-4
-1.819, 1.195e-4
-1.820, 1.229e-4
-1.821, 1.265e-4
-1.822, 1.301e-4
-1.823, 1.339e-4
-1.824, 1.377e-4
-1.825, 1.417e-4
-1.826, 1.458e-4
-1.827, 1.500e-4
-1.828, 1.543e-4
-1.829, 1.587e-4
-1.830, 1.632e-4
-1.831, 1.679e-4
-1.832, 1.727e-4
-1.833, 1.777e-4
-1.834, 1.828e-4
-1.835, 1.880e-4
-1.836, 1.933e-4
-1.837, 1.988e-4
-1.838, 2.044e-4
-1.839, 2.102e-4
-1.840, 2.161e-4
-1.841, 2.223e-4
-1.842, 2.286e-4
-1.843, 2.350e-4
-1.844, 2.416e-4
-1.845, 2.483e-4
-1.846, 2.552e-4
-1.847, 2.624e-4
-1.848, 2.697e-4
-1.849, 2.773e-4
-1.850, 2.850e-4
-1.851, 2.928e-4
-1.852, 3.009e-4
-1.853, 3.092e-4
-1.854, 3.177e-4
-1.855, 3.263e-4
-1.856, 3.353e-4
-1.857, 3.444e-4
-1.858, 3.537e-4
-1.859, 3.630e-4
-1.860, 3.728e-4
-1.861, 3.827e-4
-1.862, 3.930e-4
-1.863, 4.035e-4
-1.864, 4.144e-4
-1.865, 4.252e-4
-1.866, 4.364e-4
-1.867, 4.478e-4
-1.868, 4.595e-4
-1.869, 4.716e-4
-1.870, 4.840e-4
-1.871, 4.967e-4
-1.872, 5.096e-4
-1.873, 5.226e-4
-1.874, 5.359e-4
-1.875, 5.495e-4
-1.876, 5.633e-4
-1.877, 5.773e-4
-1.878, 5.918e-4
-1.879, 6.068e-4
-1.880, 6.222e-4
-1.881, 6.375e-4
-1.882, 6.531e-4
-1.883, 6.692e-4
-1.884, 6.853e-4
-1.885, 7.018e-4
-1.886, 7.188e-4
-1.887, 7.363e-4
-1.888, 7.542e-4
-1.889, 7.720e-4
-1.890, 7.903e-4
-1.891, 8.087e-4
-1.892, 8.273e-4
-1.893, 8.464e-4
-1.894, 8.659e-4
-1.895, 8.861e-4
-1.896, 9.063e-4
-1.897, 9.270e-4
-1.898, 9.479e-4
-1.899, 9.687e-4
