Aug. 17, 2024   03:30:56
Linear Sweep Voltammetry
File: c:/users/guazh/data/20240813_batch_94_500/2024-08-15-exp109\regeneratedgce-2024-08-17t03_27_54-lsvinkoh\regeneratedgce_lsv_50mvs_efin_-1700mv.bin
Data Source:  Experiment
Instrument Model:  CHI760E
Header: LSV ran at 50 mVs with Efin at -1700mV
Note: 

Init E (V) = -0.6
Final E (V) = -1.7
Scan Rate (V/s) = 0.05
Sample Interval (V) = 0.001
Quiet Time (sec) = 2
Sensitivity (A/V) = 1e-4
Comp R (ohm) = 1.5

Results:

Channel 1:

Potential/V, Current/A

-0.600, 3.039e-6
-0.601, 3.186e-6
-0.602, 3.230e-6
-0.603, 3.248e-6
-0.604, 3.258e-6
-0.605, 3.265e-6
-0.606, 3.274e-6
-0.607, 3.277e-6
-0.608, 3.281e-6
-0.609, 3.285e-6
-0.610, 3.284e-6
-0.611, 3.289e-6
-0.612, 3.290e-6
-0.613, 3.290e-6
-0.614, 3.293e-6
-0.615, 3.294e-6
-0.616, 3.294e-6
-0.617, 3.295e-6
-0.618, 3.294e-6
-0.619, 3.295e-6
-0.620, 3.294e-6
-0.621, 3.295e-6
-0.622, 3.295e-6
-0.623, 3.294e-6
-0.624, 3.295e-6
-0.625, 3.294e-6
-0.626, 3.293e-6
-0.627, 3.295e-6
-0.628, 3.294e-6
-0.629, 3.294e-6
-0.630, 3.293e-6
-0.631, 3.293e-6
-0.632, 3.292e-6
-0.633, 3.293e-6
-0.634, 3.291e-6
-0.635, 3.292e-6
-0.636, 3.292e-6
-0.637, 3.291e-6
-0.638, 3.291e-6
-0.639, 3.291e-6
-0.640, 3.292e-6
-0.641, 3.293e-6
-0.642, 3.291e-6
-0.643, 3.292e-6
-0.644, 3.292e-6
-0.645, 3.289e-6
-0.646, 3.291e-6
-0.647, 3.289e-6
-0.648, 3.290e-6
-0.649, 3.292e-6
-0.650, 3.290e-6
-0.651, 3.290e-6
-0.652, 3.289e-6
-0.653, 3.290e-6
-0.654, 3.292e-6
-0.655, 3.290e-6
-0.656, 3.291e-6
-0.657, 3.291e-6
-0.658, 3.291e-6
-0.659, 3.292e-6
-0.660, 3.292e-6
-0.661, 3.292e-6
-0.662, 3.293e-6
-0.663, 3.293e-6
-0.664, 3.293e-6
-0.665, 3.293e-6
-0.666, 3.296e-6
-0.667, 3.296e-6
-0.668, 3.296e-6
-0.669, 3.296e-6
-0.670, 3.295e-6
-0.671, 3.297e-6
-0.672, 3.297e-6
-0.673, 3.299e-6
-0.674, 3.297e-6
-0.675, 3.299e-6
-0.676, 3.299e-6
-0.677, 3.299e-6
-0.678, 3.301e-6
-0.679, 3.302e-6
-0.680, 3.302e-6
-0.681, 3.304e-6
-0.682, 3.304e-6
-0.683, 3.305e-6
-0.684, 3.306e-6
-0.685, 3.306e-6
-0.686, 3.309e-6
-0.687, 3.308e-6
-0.688, 3.309e-6
-0.689, 3.311e-6
-0.690, 3.310e-6
-0.691, 3.314e-6
-0.692, 3.314e-6
-0.693, 3.315e-6
-0.694, 3.317e-6
-0.695, 3.318e-6
-0.696, 3.320e-6
-0.697, 3.321e-6
-0.698, 3.322e-6
-0.699, 3.325e-6
-0.700, 3.326e-6
-0.701, 3.328e-6
-0.702, 3.328e-6
-0.703, 3.331e-6
-0.704, 3.332e-6
-0.705, 3.334e-6
-0.706, 3.333e-6
-0.707, 3.337e-6
-0.708, 3.339e-6
-0.709, 3.339e-6
-0.710, 3.341e-6
-0.711, 3.344e-6
-0.712, 3.344e-6
-0.713, 3.348e-6
-0.714, 3.348e-6
-0.715, 3.349e-6
-0.716, 3.351e-6
-0.717, 3.354e-6
-0.718, 3.357e-6
-0.719, 3.358e-6
-0.720, 3.361e-6
-0.721, 3.363e-6
-0.722, 3.363e-6
-0.723, 3.367e-6
-0.724, 3.369e-6
-0.725, 3.369e-6
-0.726, 3.373e-6
-0.727, 3.375e-6
-0.728, 3.375e-6
-0.729, 3.381e-6
-0.730, 3.380e-6
-0.731, 3.383e-6
-0.732, 3.386e-6
-0.733, 3.387e-6
-0.734, 3.391e-6
-0.735, 3.392e-6
-0.736, 3.394e-6
-0.737, 3.398e-6
-0.738, 3.399e-6
-0.739, 3.403e-6
-0.740, 3.404e-6
-0.741, 3.406e-6
-0.742, 3.409e-6
-0.743, 3.412e-6
-0.744, 3.415e-6
-0.745, 3.417e-6
-0.746, 3.420e-6
-0.747, 3.422e-6
-0.748, 3.425e-6
-0.749, 3.427e-6
-0.750, 3.430e-6
-0.751, 3.433e-6
-0.752, 3.433e-6
-0.753, 3.437e-6
-0.754, 3.439e-6
-0.755, 3.443e-6
-0.756, 3.446e-6
-0.757, 3.447e-6
-0.758, 3.451e-6
-0.759, 3.455e-6
-0.760, 3.457e-6
-0.761, 3.461e-6
-0.762, 3.461e-6
-0.763, 3.465e-6
-0.764, 3.469e-6
-0.765, 3.471e-6
-0.766, 3.473e-6
-0.767, 3.476e-6
-0.768, 3.481e-6
-0.769, 3.485e-6
-0.770, 3.484e-6
-0.771, 3.489e-6
-0.772, 3.491e-6
-0.773, 3.493e-6
-0.774, 3.498e-6
-0.775, 3.499e-6
-0.776, 3.503e-6
-0.777, 3.506e-6
-0.778, 3.508e-6
-0.779, 3.512e-6
-0.780, 3.515e-6
-0.781, 3.518e-6
-0.782, 3.522e-6
-0.783, 3.524e-6
-0.784, 3.527e-6
-0.785, 3.530e-6
-0.786, 3.532e-6
-0.787, 3.537e-6
-0.788, 3.540e-6
-0.789, 3.542e-6
-0.790, 3.545e-6
-0.791, 3.549e-6
-0.792, 3.552e-6
-0.793, 3.556e-6
-0.794, 3.558e-6
-0.795, 3.563e-6
-0.796, 3.566e-6
-0.797, 3.567e-6
-0.798, 3.571e-6
-0.799, 3.575e-6
-0.800, 3.578e-6
-0.801, 3.584e-6
-0.802, 3.584e-6
-0.803, 3.589e-6
-0.804, 3.592e-6
-0.805, 3.595e-6
-0.806, 3.600e-6
-0.807, 3.603e-6
-0.808, 3.606e-6
-0.809, 3.609e-6
-0.810, 3.613e-6
-0.811, 3.618e-6
-0.812, 3.620e-6
-0.813, 3.624e-6
-0.814, 3.628e-6
-0.815, 3.630e-6
-0.816, 3.635e-6
-0.817, 3.638e-6
-0.818, 3.641e-6
-0.819, 3.650e-6
-0.820, 3.654e-6
-0.821, 3.655e-6
-0.822, 3.659e-6
-0.823, 3.661e-6
-0.824, 3.664e-6
-0.825, 3.668e-6
-0.826, 3.671e-6
-0.827, 3.674e-6
-0.828, 3.678e-6
-0.829, 3.681e-6
-0.830, 3.685e-6
-0.831, 3.687e-6
-0.832, 3.692e-6
-0.833, 3.697e-6
-0.834, 3.699e-6
-0.835, 3.703e-6
-0.836, 3.707e-6
-0.837, 3.709e-6
-0.838, 3.714e-6
-0.839, 3.717e-6
-0.840, 3.719e-6
-0.841, 3.724e-6
-0.842, 3.728e-6
-0.843, 3.733e-6
-0.844, 3.735e-6
-0.845, 3.739e-6
-0.846, 3.744e-6
-0.847, 3.746e-6
-0.848, 3.749e-6
-0.849, 3.755e-6
-0.850, 3.758e-6
-0.851, 3.761e-6
-0.852, 3.765e-6
-0.853, 3.768e-6
-0.854, 3.773e-6
-0.855, 3.776e-6
-0.856, 3.780e-6
-0.857, 3.784e-6
-0.858, 3.790e-6
-0.859, 3.793e-6
-0.860, 3.796e-6
-0.861, 3.800e-6
-0.862, 3.805e-6
-0.863, 3.809e-6
-0.864, 3.812e-6
-0.865, 3.817e-6
-0.866, 3.820e-6
-0.867, 3.825e-6
-0.868, 3.829e-6
-0.869, 3.832e-6
-0.870, 3.839e-6
-0.871, 3.845e-6
-0.872, 3.845e-6
-0.873, 3.851e-6
-0.874, 3.855e-6
-0.875, 3.859e-6
-0.876, 3.863e-6
-0.877, 3.867e-6
-0.878, 3.872e-6
-0.879, 3.877e-6
-0.880, 3.880e-6
-0.881, 3.886e-6
-0.882, 3.888e-6
-0.883, 3.894e-6
-0.884, 3.898e-6
-0.885, 3.901e-6
-0.886, 3.907e-6
-0.887, 3.910e-6
-0.888, 3.914e-6
-0.889, 3.920e-6
-0.890, 3.923e-6
-0.891, 3.928e-6
-0.892, 3.932e-6
-0.893, 3.936e-6
-0.894, 3.941e-6
-0.895, 3.945e-6
-0.896, 3.950e-6
-0.897, 3.956e-6
-0.898, 3.960e-6
-0.899, 3.965e-6
-0.900, 3.968e-6
-0.901, 3.974e-6
-0.902, 3.978e-6
-0.903, 3.983e-6
-0.904, 3.988e-6
-0.905, 3.994e-6
-0.906, 3.997e-6
-0.907, 4.003e-6
-0.908, 4.008e-6
-0.909, 4.014e-6
-0.910, 4.018e-6
-0.911, 4.022e-6
-0.912, 4.028e-6
-0.913, 4.034e-6
-0.914, 4.039e-6
-0.915, 4.043e-6
-0.916, 4.050e-6
-0.917, 4.053e-6
-0.918, 4.060e-6
-0.919, 4.064e-6
-0.920, 4.069e-6
-0.921, 4.075e-6
-0.922, 4.080e-6
-0.923, 4.085e-6
-0.924, 4.091e-6
-0.925, 4.096e-6
-0.926, 4.102e-6
-0.927, 4.107e-6
-0.928, 4.112e-6
-0.929, 4.119e-6
-0.930, 4.123e-6
-0.931, 4.129e-6
-0.932, 4.135e-6
-0.933, 4.139e-6
-0.934, 4.146e-6
-0.935, 4.151e-6
-0.936, 4.157e-6
-0.937, 4.163e-6
-0.938, 4.168e-6
-0.939, 4.174e-6
-0.940, 4.180e-6
-0.941, 4.185e-6
-0.942, 4.191e-6
-0.943, 4.196e-6
-0.944, 4.204e-6
-0.945, 4.208e-6
-0.946, 4.215e-6
-0.947, 4.220e-6
-0.948, 4.227e-6
-0.949, 4.233e-6
-0.950, 4.239e-6
-0.951, 4.245e-6
-0.952, 4.251e-6
-0.953, 4.258e-6
-0.954, 4.263e-6
-0.955, 4.270e-6
-0.956, 4.277e-6
-0.957, 4.283e-6
-0.958, 4.289e-6
-0.959, 4.295e-6
-0.960, 4.303e-6
-0.961, 4.310e-6
-0.962, 4.313e-6
-0.963, 4.321e-6
-0.964, 4.329e-6
-0.965, 4.334e-6
-0.966, 4.342e-6
-0.967, 4.348e-6
-0.968, 4.354e-6
-0.969, 4.361e-6
-0.970, 4.367e-6
-0.971, 4.375e-6
-0.972, 4.381e-6
-0.973, 4.392e-6
-0.974, 4.397e-6
-0.975, 4.403e-6
-0.976, 4.409e-6
-0.977, 4.417e-6
-0.978, 4.422e-6
-0.979, 4.431e-6
-0.980, 4.437e-6
-0.981, 4.444e-6
-0.982, 4.451e-6
-0.983, 4.458e-6
-0.984, 4.466e-6
-0.985, 4.473e-6
-0.986, 4.480e-6
-0.987, 4.487e-6
-0.988, 4.493e-6
-0.989, 4.499e-6
-0.990, 4.508e-6
-0.991, 4.514e-6
-0.992, 4.520e-6
-0.993, 4.531e-6
-0.994, 4.535e-6
-0.995, 4.542e-6
-0.996, 4.550e-6
-0.997, 4.556e-6
-0.998, 4.565e-6
-0.999, 4.572e-6
-1.000, 4.578e-6
-1.001, 4.584e-6
-1.002, 4.590e-6
-1.003, 4.598e-6
-1.004, 4.605e-6
-1.005, 4.610e-6
-1.006, 4.619e-6
-1.007, 4.624e-6
-1.008, 4.631e-6
-1.009, 4.638e-6
-1.010, 4.643e-6
-1.011, 4.651e-6
-1.012, 4.659e-6
-1.013, 4.664e-6
-1.014, 4.672e-6
-1.015, 4.677e-6
-1.016, 4.684e-6
-1.017, 4.691e-6
-1.018, 4.697e-6
-1.019, 4.704e-6
-1.020, 4.710e-6
-1.021, 4.714e-6
-1.022, 4.723e-6
-1.023, 4.729e-6
-1.024, 4.738e-6
-1.025, 4.744e-6
-1.026, 4.748e-6
-1.027, 4.755e-6
-1.028, 4.761e-6
-1.029, 4.767e-6
-1.030, 4.774e-6
-1.031, 4.780e-6
-1.032, 4.784e-6
-1.033, 4.793e-6
-1.034, 4.797e-6
-1.035, 4.804e-6
-1.036, 4.811e-6
-1.037, 4.817e-6
-1.038, 4.825e-6
-1.039, 4.829e-6
-1.040, 4.836e-6
-1.041, 4.842e-6
-1.042, 4.848e-6
-1.043, 4.855e-6
-1.044, 4.860e-6
-1.045, 4.866e-6
-1.046, 4.874e-6
-1.047, 4.877e-6
-1.048, 4.884e-6
-1.049, 4.891e-6
-1.050, 4.897e-6
-1.051, 4.903e-6
-1.052, 4.908e-6
-1.053, 4.914e-6
-1.054, 4.921e-6
-1.055, 4.926e-6
-1.056, 4.934e-6
-1.057, 4.939e-6
-1.058, 4.945e-6
-1.059, 4.951e-6
-1.060, 4.958e-6
-1.061, 4.964e-6
-1.062, 4.970e-6
-1.063, 4.976e-6
-1.064, 4.982e-6
-1.065, 4.989e-6
-1.066, 4.993e-6
-1.067, 4.999e-6
-1.068, 5.007e-6
-1.069, 5.013e-6
-1.070, 5.020e-6
-1.071, 5.026e-6
-1.072, 5.031e-6
-1.073, 5.038e-6
-1.074, 5.044e-6
-1.075, 5.054e-6
-1.076, 5.060e-6
-1.077, 5.063e-6
-1.078, 5.070e-6
-1.079, 5.075e-6
-1.080, 5.081e-6
-1.081, 5.089e-6
-1.082, 5.091e-6
-1.083, 5.099e-6
-1.084, 5.106e-6
-1.085, 5.111e-6
-1.086, 5.118e-6
-1.087, 5.122e-6
-1.088, 5.130e-6
-1.089, 5.137e-6
-1.090, 5.140e-6
-1.091, 5.146e-6
-1.092, 5.153e-6
-1.093, 5.159e-6
-1.094, 5.165e-6
-1.095, 5.171e-6
-1.096, 5.178e-6
-1.097, 5.184e-6
-1.098, 5.189e-6
-1.099, 5.198e-6
-1.100, 5.203e-6
-1.101, 5.211e-6
-1.102, 5.216e-6
-1.103, 5.222e-6
-1.104, 5.230e-6
-1.105, 5.235e-6
-1.106, 5.242e-6
-1.107, 5.247e-6
-1.108, 5.254e-6
-1.109, 5.259e-6
-1.110, 5.266e-6
-1.111, 5.271e-6
-1.112, 5.277e-6
-1.113, 5.284e-6
-1.114, 5.289e-6
-1.115, 5.294e-6
-1.116, 5.302e-6
-1.117, 5.306e-6
-1.118, 5.314e-6
-1.119, 5.320e-6
-1.120, 5.327e-6
-1.121, 5.332e-6
-1.122, 5.338e-6
-1.123, 5.346e-6
-1.124, 5.352e-6
-1.125, 5.358e-6
-1.126, 5.365e-6
-1.127, 5.371e-6
-1.128, 5.377e-6
-1.129, 5.383e-6
-1.130, 5.388e-6
-1.131, 5.395e-6
-1.132, 5.401e-6
-1.133, 5.408e-6
-1.134, 5.415e-6
-1.135, 5.420e-6
-1.136, 5.427e-6
-1.137, 5.435e-6
-1.138, 5.440e-6
-1.139, 5.448e-6
-1.140, 5.455e-6
-1.141, 5.460e-6
-1.142, 5.468e-6
-1.143, 5.472e-6
-1.144, 5.481e-6
-1.145, 5.488e-6
-1.146, 5.493e-6
-1.147, 5.501e-6
-1.148, 5.509e-6
-1.149, 5.515e-6
-1.150, 5.521e-6
-1.151, 5.528e-6
-1.152, 5.536e-6
-1.153, 5.544e-6
-1.154, 5.550e-6
-1.155, 5.556e-6
-1.156, 5.565e-6
-1.157, 5.570e-6
-1.158, 5.579e-6
-1.159, 5.585e-6
-1.160, 5.593e-6
-1.161, 5.601e-6
-1.162, 5.607e-6
-1.163, 5.614e-6
-1.164, 5.622e-6
-1.165, 5.629e-6
-1.166, 5.637e-6
-1.167, 5.643e-6
-1.168, 5.651e-6
-1.169, 5.658e-6
-1.170, 5.664e-6
-1.171, 5.673e-6
-1.172, 5.679e-6
-1.173, 5.688e-6
-1.174, 5.696e-6
-1.175, 5.702e-6
-1.176, 5.712e-6
-1.177, 5.719e-6
-1.178, 5.730e-6
-1.179, 5.738e-6
-1.180, 5.744e-6
-1.181, 5.751e-6
-1.182, 5.760e-6
-1.183, 5.767e-6
-1.184, 5.777e-6
-1.185, 5.786e-6
-1.186, 5.791e-6
-1.187, 5.800e-6
-1.188, 5.809e-6
-1.189, 5.816e-6
-1.190, 5.825e-6
-1.191, 5.834e-6
-1.192, 5.840e-6
-1.193, 5.848e-6
-1.194, 5.857e-6
-1.195, 5.865e-6
-1.196, 5.873e-6
-1.197, 5.880e-6
-1.198, 5.889e-6
-1.199, 5.896e-6
-1.200, 5.904e-6
-1.201, 5.914e-6
-1.202, 5.919e-6
-1.203, 5.929e-6
-1.204, 5.937e-6
-1.205, 5.943e-6
-1.206, 5.953e-6
-1.207, 5.960e-6
-1.208, 5.969e-6
-1.209, 5.979e-6
-1.210, 5.985e-6
-1.211, 5.996e-6
-1.212, 6.003e-6
-1.213, 6.012e-6
-1.214, 6.022e-6
-1.215, 6.029e-6
-1.216, 6.040e-6
-1.217, 6.048e-6
-1.218, 6.056e-6
-1.219, 6.065e-6
-1.220, 6.074e-6
-1.221, 6.083e-6
-1.222, 6.092e-6
-1.223, 6.102e-6
-1.224, 6.111e-6
-1.225, 6.120e-6
-1.226, 6.127e-6
-1.227, 6.137e-6
-1.228, 6.146e-6
-1.229, 6.164e-6
-1.230, 6.168e-6
-1.231, 6.174e-6
-1.232, 6.182e-6
-1.233, 6.192e-6
-1.234, 6.199e-6
-1.235, 6.209e-6
-1.236, 6.217e-6
-1.237, 6.225e-6
-1.238, 6.236e-6
-1.239, 6.244e-6
-1.240, 6.252e-6
-1.241, 6.262e-6
-1.242, 6.270e-6
-1.243, 6.281e-6
-1.244, 6.291e-6
-1.245, 6.298e-6
-1.246, 6.310e-6
-1.247, 6.319e-6
-1.248, 6.327e-6
-1.249, 6.339e-6
-1.250, 6.347e-6
-1.251, 6.359e-6
-1.252, 6.367e-6
-1.253, 6.377e-6
-1.254, 6.388e-6
-1.255, 6.396e-6
-1.256, 6.407e-6
-1.257, 6.417e-6
-1.258, 6.425e-6
-1.259, 6.436e-6
-1.260, 6.446e-6
-1.261, 6.456e-6
-1.262, 6.465e-6
-1.263, 6.475e-6
-1.264, 6.484e-6
-1.265, 6.494e-6
-1.266, 6.504e-6
-1.267, 6.516e-6
-1.268, 6.525e-6
-1.269, 6.534e-6
-1.270, 6.545e-6
-1.271, 6.555e-6
-1.272, 6.565e-6
-1.273, 6.577e-6
-1.274, 6.586e-6
-1.275, 6.598e-6
-1.276, 6.608e-6
-1.277, 6.617e-6
-1.278, 6.629e-6
-1.279, 6.640e-6
-1.280, 6.653e-6
-1.281, 6.665e-6
-1.282, 6.674e-6
-1.283, 6.687e-6
-1.284, 6.696e-6
-1.285, 6.707e-6
-1.286, 6.719e-6
-1.287, 6.729e-6
-1.288, 6.740e-6
-1.289, 6.751e-6
-1.290, 6.759e-6
-1.291, 6.773e-6
-1.292, 6.785e-6
-1.293, 6.796e-6
-1.294, 6.808e-6
-1.295, 6.818e-6
-1.296, 6.832e-6
-1.297, 6.844e-6
-1.298, 6.853e-6
-1.299, 6.869e-6
-1.300, 6.879e-6
-1.301, 6.890e-6
-1.302, 6.903e-6
-1.303, 6.914e-6
-1.304, 6.926e-6
-1.305, 6.939e-6
-1.306, 6.952e-6
-1.307, 6.965e-6
-1.308, 6.979e-6
-1.309, 6.991e-6
-1.310, 7.003e-6
-1.311, 7.016e-6
-1.312, 7.028e-6
-1.313, 7.042e-6
-1.314, 7.055e-6
-1.315, 7.069e-6
-1.316, 7.084e-6
-1.317, 7.097e-6
-1.318, 7.111e-6
-1.319, 7.126e-6
-1.320, 7.140e-6
-1.321, 7.155e-6
-1.322, 7.169e-6
-1.323, 7.186e-6
-1.324, 7.200e-6
-1.325, 7.214e-6
-1.326, 7.231e-6
-1.327, 7.245e-6
-1.328, 7.260e-6
-1.329, 7.277e-6
-1.330, 7.289e-6
-1.331, 7.307e-6
-1.332, 7.324e-6
-1.333, 7.339e-6
-1.334, 7.358e-6
-1.335, 7.371e-6
-1.336, 7.390e-6
-1.337, 7.407e-6
-1.338, 7.423e-6
-1.339, 7.443e-6
-1.340, 7.461e-6
-1.341, 7.479e-6
-1.342, 7.498e-6
-1.343, 7.515e-6
-1.344, 7.536e-6
-1.345, 7.556e-6
-1.346, 7.573e-6
-1.347, 7.594e-6
-1.348, 7.614e-6
-1.349, 7.635e-6
-1.350, 7.657e-6
-1.351, 7.679e-6
-1.352, 7.700e-6
-1.353, 7.723e-6
-1.354, 7.744e-6
-1.355, 7.768e-6
-1.356, 7.792e-6
-1.357, 7.817e-6
-1.358, 7.842e-6
-1.359, 7.865e-6
-1.360, 7.890e-6
-1.361, 7.917e-6
-1.362, 7.942e-6
-1.363, 7.971e-6
-1.364, 7.999e-6
-1.365, 8.024e-6
-1.366, 8.054e-6
-1.367, 8.082e-6
-1.368, 8.110e-6
-1.369, 8.142e-6
-1.370, 8.171e-6
-1.371, 8.206e-6
-1.372, 8.237e-6
-1.373, 8.272e-6
-1.374, 8.308e-6
-1.375, 8.340e-6
-1.376, 8.372e-6
-1.377, 8.408e-6
-1.378, 8.441e-6
-1.379, 8.478e-6
-1.380, 8.517e-6
-1.381, 8.553e-6
-1.382, 8.592e-6
-1.383, 8.631e-6
-1.384, 8.669e-6
-1.385, 8.710e-6
-1.386, 8.746e-6
-1.387, 8.791e-6
-1.388, 8.834e-6
-1.389, 8.872e-6
-1.390, 8.914e-6
-1.391, 8.957e-6
-1.392, 9.003e-6
-1.393, 9.052e-6
-1.394, 9.096e-6
-1.395, 9.141e-6
-1.396, 9.188e-6
-1.397, 9.236e-6
-1.398, 9.288e-6
-1.399, 9.333e-6
-1.400, 9.383e-6
-1.401, 9.434e-6
-1.402, 9.482e-6
-1.403, 9.537e-6
-1.404, 9.588e-6
-1.405, 9.640e-6
-1.406, 9.695e-6
-1.407, 9.749e-6
-1.408, 9.807e-6
-1.409, 9.865e-6
-1.410, 9.919e-6
-1.411, 9.980e-6
-1.412, 1.004e-5
-1.413, 1.010e-5
-1.414, 1.016e-5
-1.415, 1.021e-5
-1.416, 1.028e-5
-1.417, 1.034e-5
-1.418, 1.040e-5
-1.419, 1.046e-5
-1.420, 1.053e-5
-1.421, 1.059e-5
-1.422, 1.066e-5
-1.423, 1.072e-5
-1.424, 1.079e-5
-1.425, 1.086e-5
-1.426, 1.093e-5
-1.427, 1.100e-5
-1.428, 1.107e-5
-1.429, 1.114e-5
-1.430, 1.121e-5
-1.431, 1.128e-5
-1.432, 1.135e-5
-1.433, 1.143e-5
-1.434, 1.151e-5
-1.435, 1.158e-5
-1.436, 1.165e-5
-1.437, 1.173e-5
-1.438, 1.181e-5
-1.439, 1.189e-5
-1.440, 1.197e-5
-1.441, 1.204e-5
-1.442, 1.211e-5
-1.443, 1.219e-5
-1.444, 1.228e-5
-1.445, 1.236e-5
-1.446, 1.245e-5
-1.447, 1.253e-5
-1.448, 1.262e-5
-1.449, 1.270e-5
-1.450, 1.279e-5
-1.451, 1.288e-5
-1.452, 1.297e-5
-1.453, 1.306e-5
-1.454, 1.315e-5
-1.455, 1.324e-5
-1.456, 1.333e-5
-1.457, 1.343e-5
-1.458, 1.352e-5
-1.459, 1.362e-5
-1.460, 1.371e-5
-1.461, 1.381e-5
-1.462, 1.391e-5
-1.463, 1.400e-5
-1.464, 1.410e-5
-1.465, 1.420e-5
-1.466, 1.430e-5
-1.467, 1.440e-5
-1.468, 1.450e-5
-1.469, 1.461e-5
-1.470, 1.471e-5
-1.471, 1.481e-5
-1.472, 1.492e-5
-1.473, 1.503e-5
-1.474, 1.513e-5
-1.475, 1.525e-5
-1.476, 1.535e-5
-1.477, 1.546e-5
-1.478, 1.557e-5
-1.479, 1.569e-5
-1.480, 1.580e-5
-1.481, 1.591e-5
-1.482, 1.602e-5
-1.483, 1.614e-5
-1.484, 1.626e-5
-1.485, 1.638e-5
-1.486, 1.649e-5
-1.487, 1.661e-5
-1.488, 1.673e-5
-1.489, 1.685e-5
-1.490, 1.697e-5
-1.491, 1.709e-5
-1.492, 1.722e-5
-1.493, 1.734e-5
-1.494, 1.746e-5
-1.495, 1.759e-5
-1.496, 1.771e-5
-1.497, 1.784e-5
-1.498, 1.796e-5
-1.499, 1.809e-5
-1.500, 1.822e-5
-1.501, 1.835e-5
-1.502, 1.848e-5
-1.503, 1.861e-5
-1.504, 1.875e-5
-1.505, 1.888e-5
-1.506, 1.901e-5
-1.507, 1.915e-5
-1.508, 1.929e-5
-1.509, 1.942e-5
-1.510, 1.956e-5
-1.511, 1.970e-5
-1.512, 1.984e-5
-1.513, 1.998e-5
-1.514, 2.011e-5
-1.515, 2.026e-5
-1.516, 2.040e-5
-1.517, 2.054e-5
-1.518, 2.069e-5
-1.519, 2.084e-5
-1.520, 2.098e-5
-1.521, 2.113e-5
-1.522, 2.128e-5
-1.523, 2.143e-5
-1.524, 2.158e-5
-1.525, 2.172e-5
-1.526, 2.188e-5
-1.527, 2.202e-5
-1.528, 2.218e-5
-1.529, 2.234e-5
-1.530, 2.249e-5
-1.531, 2.264e-5
-1.532, 2.280e-5
-1.533, 2.296e-5
-1.534, 2.312e-5
-1.535, 2.327e-5
-1.536, 2.344e-5
-1.537, 2.360e-5
-1.538, 2.376e-5
-1.539, 2.392e-5
-1.540, 2.409e-5
-1.541, 2.426e-5
-1.542, 2.442e-5
-1.543, 2.458e-5
-1.544, 2.475e-5
-1.545, 2.492e-5
-1.546, 2.509e-5
-1.547, 2.526e-5
-1.548, 2.543e-5
-1.549, 2.560e-5
-1.550, 2.577e-5
-1.551, 2.595e-5
-1.552, 2.612e-5
-1.553, 2.630e-5
-1.554, 2.647e-5
-1.555, 2.665e-5
-1.556, 2.683e-5
-1.557, 2.701e-5
-1.558, 2.719e-5
-1.559, 2.737e-5
-1.560, 2.756e-5
-1.561, 2.774e-5
-1.562, 2.791e-5
-1.563, 2.810e-5
-1.564, 2.829e-5
-1.565, 2.847e-5
-1.566, 2.867e-5
-1.567, 2.885e-5
-1.568, 2.904e-5
-1.569, 2.924e-5
-1.570, 2.943e-5
-1.571, 2.963e-5
-1.572, 2.982e-5
-1.573, 3.001e-5
-1.574, 3.021e-5
-1.575, 3.041e-5
-1.576, 3.061e-5
-1.577, 3.081e-5
-1.578, 3.102e-5
-1.579, 3.122e-5
-1.580, 3.142e-5
-1.581, 3.163e-5
-1.582, 3.185e-5
-1.583, 3.206e-5
-1.584, 3.227e-5
-1.585, 3.248e-5
-1.586, 3.270e-5
-1.587, 3.292e-5
-1.588, 3.314e-5
-1.589, 3.335e-5
-1.590, 3.357e-5
-1.591, 3.379e-5
-1.592, 3.401e-5
-1.593, 3.424e-5
-1.594, 3.446e-5
-1.595, 3.469e-5
-1.596, 3.492e-5
-1.597, 3.515e-5
-1.598, 3.538e-5
-1.599, 3.562e-5
-1.600, 3.585e-5
-1.601, 3.609e-5
-1.602, 3.633e-5
-1.603, 3.658e-5
-1.604, 3.682e-5
-1.605, 3.707e-5
-1.606, 3.732e-5
-1.607, 3.757e-5
-1.608, 3.782e-5
-1.609, 3.807e-5
-1.610, 3.833e-5
-1.611, 3.859e-5
-1.612, 3.885e-5
-1.613, 3.911e-5
-1.614, 3.937e-5
-1.615, 3.964e-5
-1.616, 3.991e-5
-1.617, 4.018e-5
-1.618, 4.045e-5
-1.619, 4.072e-5
-1.620, 4.100e-5
-1.621, 4.128e-5
-1.622, 4.156e-5
-1.623, 4.184e-5
-1.624, 4.212e-5
-1.625, 4.241e-5
-1.626, 4.271e-5
-1.627, 4.301e-5
-1.628, 4.331e-5
-1.629, 4.360e-5
-1.630, 4.390e-5
-1.631, 4.421e-5
-1.632, 4.451e-5
-1.633, 4.483e-5
-1.634, 4.515e-5
-1.635, 4.547e-5
-1.636, 4.579e-5
-1.637, 4.612e-5
-1.638, 4.647e-5
-1.639, 4.682e-5
-1.640, 4.716e-5
-1.641, 4.750e-5
-1.642, 4.785e-5
-1.643, 4.820e-5
-1.644, 4.856e-5
-1.645, 4.892e-5
-1.646, 4.930e-5
-1.647, 4.966e-5
-1.648, 5.003e-5
-1.649, 5.041e-5
-1.650, 5.078e-5
-1.651, 5.117e-5
-1.652, 5.156e-5
-1.653, 5.194e-5
-1.654, 5.234e-5
-1.655, 5.273e-5
-1.656, 5.314e-5
-1.657, 5.355e-5
-1.658, 5.396e-5
-1.659, 5.438e-5
-1.660, 5.481e-5
-1.661, 5.523e-5
-1.662, 5.568e-5
-1.663, 5.612e-5
-1.664, 5.653e-5
-1.665, 5.697e-5
-1.666, 5.743e-5
-1.667, 5.790e-5
-1.668, 5.840e-5
-1.669, 5.889e-5
-1.670, 5.938e-5
-1.671, 5.987e-5
-1.672, 6.039e-5
-1.673, 6.091e-5
-1.674, 6.140e-5
-1.675, 6.191e-5
-1.676, 6.243e-5
-1.677, 6.295e-5
-1.678, 6.347e-5
-1.679, 6.399e-5
-1.680, 6.456e-5
-1.681, 6.514e-5
-1.682, 6.575e-5
-1.683, 6.636e-5
-1.684, 6.696e-5
-1.685, 6.757e-5
-1.686, 6.819e-5
-1.687, 6.881e-5
-1.688, 6.946e-5
-1.689, 7.015e-5
-1.690, 7.084e-5
-1.691, 7.154e-5
-1.692, 7.224e-5
-1.693, 7.297e-5
-1.694, 7.371e-5
-1.695, 7.443e-5
-1.696, 7.518e-5
-1.697, 7.597e-5
-1.698, 7.673e-5
-1.699, 7.750e-5
