Aug. 28, 2024   16:26:15
Cyclic Voltammetry
File: c:/users/guazh/data/20240813_batch_181_500/2024-08-25-exp207\exp207-2024-08-28t16_17_17-arkoh\exp207_cv_sr_800mvs_efin_-1400mv.bin
Data Source:  Experiment
Instrument Model:  CHI760E
Header: CV ran at 800 mVs
Note: 

Init E (V) = -1
High E (V) = -1
Low E (V) = -1.4
Final E (V) = -1
Init P/N = N
Scan Rate (V/s) = 0.8
Segment = 3
Sample Interval (V) = 0.001
Quiet Time (sec) = 2
Sensitivity (A/V) = 0.01
Comp R (ohm) = 1.4

Results:

Channel 1:
Segment 1:

Segment 2:

Segment 3:

Potential/V, Current/A

-1.000, 1.559e-7
-1.001, 8.648e-5
-1.002, 1.481e-4
-1.003, 1.975e-4
-1.004, 2.437e-4
-1.005, 2.807e-4
-1.006, 3.146e-4
-1.007, 3.455e-4
-1.008, 3.732e-4
-1.009, 3.979e-4
-1.010, 4.225e-4
-1.011, 4.441e-4
-1.012, 4.626e-4
-1.013, 4.811e-4
-1.014, 4.965e-4
-1.015, 5.120e-4
-1.016, 5.274e-4
-1.017, 5.397e-4
-1.018, 5.551e-4
-1.019, 5.705e-4
-1.020, 5.859e-4
-1.021, 5.983e-4
-1.022, 6.137e-4
-1.023, 6.291e-4
-1.024, 6.445e-4
-1.025, 6.630e-4
-1.026, 6.784e-4
-1.027, 6.969e-4
-1.028, 7.154e-4
-1.029, 7.339e-4
-1.030, 7.524e-4
-1.031, 7.709e-4
-1.032, 7.925e-4
-1.033, 8.110e-4
-1.034, 8.326e-4
-1.035, 8.511e-4
-1.036, 8.696e-4
-1.037, 8.850e-4
-1.038, 9.066e-4
-1.039, 9.251e-4
-1.040, 9.436e-4
-1.041, 9.621e-4
-1.042, 9.806e-4
-1.043, 9.991e-4
-1.044, 1.014e-3
-1.045, 1.033e-3
-1.046, 1.048e-3
-1.047, 1.067e-3
-1.048, 1.085e-3
-1.049, 1.101e-3
-1.050, 1.113e-3
-1.051, 1.129e-3
-1.052, 1.144e-3
-1.053, 1.156e-3
-1.054, 1.169e-3
-1.055, 1.184e-3
-1.056, 1.193e-3
-1.057, 1.206e-3
-1.058, 1.218e-3
-1.059, 1.230e-3
-1.060, 1.240e-3
-1.061, 1.252e-3
-1.062, 1.261e-3
-1.063, 1.270e-3
-1.064, 1.280e-3
-1.065, 1.289e-3
-1.066, 1.298e-3
-1.067, 1.307e-3
-1.068, 1.314e-3
-1.069, 1.320e-3
-1.070, 1.329e-3
-1.071, 1.335e-3
-1.072, 1.341e-3
-1.073, 1.351e-3
-1.074, 1.354e-3
-1.075, 1.363e-3
-1.076, 1.369e-3
-1.077, 1.375e-3
-1.078, 1.378e-3
-1.079, 1.384e-3
-1.080, 1.388e-3
-1.081, 1.391e-3
-1.082, 1.394e-3
-1.083, 1.400e-3
-1.084, 1.403e-3
-1.085, 1.409e-3
-1.086, 1.409e-3
-1.087, 1.412e-3
-1.088, 1.418e-3
-1.089, 1.418e-3
-1.090, 1.421e-3
-1.091, 1.425e-3
-1.092, 1.425e-3
-1.093, 1.431e-3
-1.094, 1.431e-3
-1.095, 1.434e-3
-1.096, 1.434e-3
-1.097, 1.437e-3
-1.098, 1.440e-3
-1.099, 1.443e-3
-1.100, 1.443e-3
-1.101, 1.446e-3
-1.102, 1.449e-3
-1.103, 1.446e-3
-1.104, 1.446e-3
-1.105, 1.449e-3
-1.106, 1.449e-3
-1.107, 1.452e-3
-1.108, 1.452e-3
-1.109, 1.449e-3
-1.110, 1.452e-3
-1.111, 1.452e-3
-1.112, 1.455e-3
-1.113, 1.455e-3
-1.114, 1.452e-3
-1.115, 1.452e-3
-1.116, 1.455e-3
-1.117, 1.452e-3
-1.118, 1.452e-3
-1.119, 1.449e-3
-1.120, 1.452e-3
-1.121, 1.449e-3
-1.122, 1.449e-3
-1.123, 1.449e-3
-1.124, 1.449e-3
-1.125, 1.449e-3
-1.126, 1.446e-3
-1.127, 1.443e-3
-1.128, 1.443e-3
-1.129, 1.443e-3
-1.130, 1.440e-3
-1.131, 1.440e-3
-1.132, 1.437e-3
-1.133, 1.437e-3
-1.134, 1.437e-3
-1.135, 1.434e-3
-1.136, 1.431e-3
-1.137, 1.431e-3
-1.138, 1.431e-3
-1.139, 1.428e-3
-1.140, 1.428e-3
-1.141, 1.425e-3
-1.142, 1.425e-3
-1.143, 1.421e-3
-1.144, 1.421e-3
-1.145, 1.418e-3
-1.146, 1.415e-3
-1.147, 1.415e-3
-1.148, 1.415e-3
-1.149, 1.409e-3
-1.150, 1.409e-3
-1.151, 1.406e-3
-1.152, 1.409e-3
-1.153, 1.409e-3
-1.154, 1.406e-3
-1.155, 1.403e-3
-1.156, 1.403e-3
-1.157, 1.403e-3
-1.158, 1.400e-3
-1.159, 1.397e-3
-1.160, 1.397e-3
-1.161, 1.397e-3
-1.162, 1.394e-3
-1.163, 1.391e-3
-1.164, 1.391e-3
-1.165, 1.391e-3
-1.166, 1.391e-3
-1.167, 1.388e-3
-1.168, 1.384e-3
-1.169, 1.388e-3
-1.170, 1.384e-3
-1.171, 1.384e-3
-1.172, 1.381e-3
-1.173, 1.381e-3
-1.174, 1.378e-3
-1.175, 1.381e-3
-1.176, 1.378e-3
-1.177, 1.378e-3
-1.178, 1.378e-3
-1.179, 1.381e-3
-1.180, 1.378e-3
-1.181, 1.378e-3
-1.182, 1.378e-3
-1.183, 1.378e-3
-1.184, 1.375e-3
-1.185, 1.375e-3
-1.186, 1.375e-3
-1.187, 1.375e-3
-1.188, 1.375e-3
-1.189, 1.372e-3
-1.190, 1.372e-3
-1.191, 1.372e-3
-1.192, 1.375e-3
-1.193, 1.375e-3
-1.194, 1.375e-3
-1.195, 1.375e-3
-1.196, 1.375e-3
-1.197, 1.375e-3
-1.198, 1.375e-3
-1.199, 1.375e-3
-1.200, 1.375e-3
-1.201, 1.375e-3
-1.202, 1.378e-3
-1.203, 1.378e-3
-1.204, 1.378e-3
-1.205, 1.381e-3
-1.206, 1.381e-3
-1.207, 1.381e-3
-1.208, 1.384e-3
-1.209, 1.384e-3
-1.210, 1.388e-3
-1.211, 1.388e-3
-1.212, 1.391e-3
-1.213, 1.391e-3
-1.214, 1.391e-3
-1.215, 1.394e-3
-1.216, 1.397e-3
-1.217, 1.400e-3
-1.218, 1.400e-3
-1.219, 1.400e-3
-1.220, 1.406e-3
-1.221, 1.409e-3
-1.222, 1.409e-3
-1.223, 1.412e-3
-1.224, 1.412e-3
-1.225, 1.418e-3
-1.226, 1.421e-3
-1.227, 1.425e-3
-1.228, 1.425e-3
-1.229, 1.431e-3
-1.230, 1.434e-3
-1.231, 1.437e-3
-1.232, 1.443e-3
-1.233, 1.446e-3
-1.234, 1.449e-3
-1.235, 1.455e-3
-1.236, 1.458e-3
-1.237, 1.462e-3
-1.238, 1.468e-3
-1.239, 1.471e-3
-1.240, 1.477e-3
-1.241, 1.480e-3
-1.242, 1.483e-3
-1.243, 1.489e-3
-1.244, 1.499e-3
-1.245, 1.502e-3
-1.246, 1.505e-3
-1.247, 1.511e-3
-1.248, 1.520e-3
-1.249, 1.529e-3
-1.250, 1.529e-3
-1.251, 1.539e-3
-1.252, 1.545e-3
-1.253, 1.551e-3
-1.254, 1.557e-3
-1.255, 1.563e-3
-1.256, 1.573e-3
-1.257, 1.582e-3
-1.258, 1.588e-3
-1.259, 1.597e-3
-1.260, 1.603e-3
-1.261, 1.613e-3
-1.262, 1.622e-3
-1.263, 1.628e-3
-1.264, 1.637e-3
-1.265, 1.647e-3
-1.266, 1.656e-3
-1.267, 1.668e-3
-1.268, 1.674e-3
-1.269, 1.684e-3
-1.270, 1.696e-3
-1.271, 1.705e-3
-1.272, 1.717e-3
-1.273, 1.727e-3
-1.274, 1.739e-3
-1.275, 1.751e-3
-1.276, 1.764e-3
-1.277, 1.773e-3
-1.278, 1.782e-3
-1.279, 1.795e-3
-1.280, 1.810e-3
-1.281, 1.822e-3
-1.282, 1.832e-3
-1.283, 1.847e-3
-1.284, 1.862e-3
-1.285, 1.878e-3
-1.286, 1.890e-3
-1.287, 1.906e-3
-1.288, 1.918e-3
-1.289, 1.936e-3
-1.290, 1.949e-3
-1.291, 1.964e-3
-1.292, 1.976e-3
-1.293, 1.995e-3
-1.294, 2.010e-3
-1.295, 2.026e-3
-1.296, 2.038e-3
-1.297, 2.060e-3
-1.298, 2.075e-3
-1.299, 2.097e-3
-1.300, 2.112e-3
-1.301, 2.131e-3
-1.302, 2.149e-3
-1.303, 2.168e-3
-1.304, 2.186e-3
-1.305, 2.205e-3
-1.306, 2.223e-3
-1.307, 2.245e-3
-1.308, 2.266e-3
-1.309, 2.285e-3
-1.310, 2.306e-3
-1.311, 2.328e-3
-1.312, 2.349e-3
-1.313, 2.374e-3
-1.314, 2.393e-3
-1.315, 2.417e-3
-1.316, 2.442e-3
-1.317, 2.464e-3
-1.318, 2.485e-3
-1.319, 2.507e-3
-1.320, 2.531e-3
-1.321, 2.559e-3
-1.322, 2.581e-3
-1.323, 2.605e-3
-1.324, 2.633e-3
-1.325, 2.658e-3
-1.326, 2.686e-3
-1.327, 2.710e-3
-1.328, 2.735e-3
-1.329, 2.766e-3
-1.330, 2.790e-3
-1.331, 2.818e-3
-1.332, 2.846e-3
-1.333, 2.871e-3
-1.334, 2.901e-3
-1.335, 2.929e-3
-1.336, 2.957e-3
-1.337, 2.988e-3
-1.338, 3.019e-3
-1.339, 3.049e-3
-1.340, 3.080e-3
-1.341, 3.111e-3
-1.342, 3.142e-3
-1.343, 3.173e-3
-1.344, 3.207e-3
-1.345, 3.237e-3
-1.346, 3.268e-3
-1.347, 3.302e-3
-1.348, 3.336e-3
-1.349, 3.370e-3
-1.350, 3.404e-3
-1.351, 3.435e-3
-1.352, 3.472e-3
-1.353, 3.506e-3
-1.354, 3.543e-3
-1.355, 3.577e-3
-1.356, 3.614e-3
-1.357, 3.651e-3
-1.358, 3.688e-3
-1.359, 3.721e-3
-1.360, 3.755e-3
-1.361, 3.795e-3
-1.362, 3.832e-3
-1.363, 3.869e-3
-1.364, 3.910e-3
-1.365, 3.947e-3
-1.366, 3.987e-3
-1.367, 4.027e-3
-1.368, 4.067e-3
-1.369, 4.107e-3
-1.370, 4.144e-3
-1.371, 4.187e-3
-1.372, 4.227e-3
-1.373, 4.267e-3
-1.374, 4.307e-3
-1.375, 4.350e-3
-1.376, 4.391e-3
-1.377, 4.431e-3
-1.378, 4.471e-3
-1.379, 4.517e-3
-1.380, 4.560e-3
-1.381, 4.603e-3
-1.382, 4.649e-3
-1.383, 4.693e-3
-1.384, 4.736e-3
-1.385, 4.782e-3
-1.386, 4.825e-3
-1.387, 4.871e-3
-1.388, 4.915e-3
-1.389, 4.961e-3
-1.390, 5.007e-3
-1.391, 5.053e-3
-1.392, 5.100e-3
-1.393, 5.149e-3
-1.394, 5.192e-3
-1.395, 5.241e-3
-1.396, 5.288e-3
-1.397, 5.334e-3
-1.398, 5.383e-3
-1.399, 5.430e-3
-1.400, 5.405e-3
-1.399, 5.263e-3
-1.398, 5.140e-3
-1.397, 5.035e-3
-1.396, 4.939e-3
-1.395, 4.853e-3
-1.394, 4.770e-3
-1.393, 4.690e-3
-1.392, 4.622e-3
-1.391, 4.554e-3
-1.390, 4.486e-3
-1.389, 4.418e-3
-1.388, 4.354e-3
-1.387, 4.286e-3
-1.386, 4.224e-3
-1.385, 4.162e-3
-1.384, 4.104e-3
-1.383, 4.045e-3
-1.382, 3.984e-3
-1.381, 3.925e-3
-1.380, 3.869e-3
-1.379, 3.814e-3
-1.378, 3.762e-3
-1.377, 3.700e-3
-1.376, 3.651e-3
-1.375, 3.595e-3
-1.374, 3.543e-3
-1.373, 3.490e-3
-1.372, 3.435e-3
-1.371, 3.382e-3
-1.370, 3.333e-3
-1.369, 3.284e-3
-1.368, 3.234e-3
-1.367, 3.182e-3
-1.366, 3.136e-3
-1.365, 3.086e-3
-1.364, 3.040e-3
-1.363, 2.988e-3
-1.362, 2.941e-3
-1.361, 2.895e-3
-1.360, 2.849e-3
-1.359, 2.803e-3
-1.358, 2.756e-3
-1.357, 2.713e-3
-1.356, 2.667e-3
-1.355, 2.624e-3
-1.354, 2.578e-3
-1.353, 2.534e-3
-1.352, 2.494e-3
-1.351, 2.451e-3
-1.350, 2.405e-3
-1.349, 2.365e-3
-1.348, 2.322e-3
-1.347, 2.282e-3
-1.346, 2.242e-3
-1.345, 2.198e-3
-1.344, 2.158e-3
-1.343, 2.121e-3
-1.342, 2.081e-3
-1.341, 2.044e-3
-1.340, 2.004e-3
-1.339, 1.967e-3
-1.338, 1.933e-3
-1.337, 1.890e-3
-1.336, 1.853e-3
-1.335, 1.816e-3
-1.334, 1.782e-3
-1.333, 1.748e-3
-1.332, 1.711e-3
-1.331, 1.674e-3
-1.330, 1.640e-3
-1.329, 1.606e-3
-1.328, 1.573e-3
-1.327, 1.539e-3
-1.326, 1.505e-3
-1.325, 1.474e-3
-1.324, 1.440e-3
-1.323, 1.409e-3
-1.322, 1.378e-3
-1.321, 1.344e-3
-1.320, 1.317e-3
-1.319, 1.283e-3
-1.318, 1.252e-3
-1.317, 1.224e-3
-1.316, 1.193e-3
-1.315, 1.166e-3
-1.314, 1.138e-3
-1.313, 1.107e-3
-1.312, 1.079e-3
-1.311, 1.055e-3
-1.310, 1.024e-3
-1.309, 9.991e-4
-1.308, 9.652e-4
-1.307, 9.405e-4
-1.306, 9.158e-4
-1.305, 8.881e-4
-1.304, 8.634e-4
-1.303, 8.357e-4
-1.302, 8.110e-4
-1.301, 7.863e-4
-1.300, 7.617e-4
-1.299, 7.370e-4
-1.298, 7.154e-4
-1.297, 6.908e-4
-1.296, 6.661e-4
-1.295, 6.414e-4
-1.294, 6.199e-4
-1.293, 5.983e-4
-1.292, 5.767e-4
-1.291, 5.520e-4
-1.290, 5.335e-4
-1.289, 5.089e-4
-1.288, 4.904e-4
-1.287, 4.719e-4
-1.286, 4.503e-4
-1.285, 4.287e-4
-1.284, 4.102e-4
-1.283, 3.917e-4
-1.282, 3.732e-4
-1.281, 3.516e-4
-1.280, 3.331e-4
-1.279, 3.146e-4
-1.278, 2.961e-4
-1.277, 2.807e-4
-1.276, 2.622e-4
-1.275, 2.468e-4
-1.274, 2.283e-4
-1.273, 2.129e-4
-1.272, 1.975e-4
-1.271, 1.821e-4
-1.270, 1.636e-4
-1.269, 1.512e-4
-1.268, 1.358e-4
-1.267, 1.173e-4
-1.266, 1.050e-4
-1.265, 9.265e-5
-1.264, 7.723e-5
-1.263, 6.490e-5
-1.262, 4.949e-5
-1.261, 4.024e-5
-1.260, 2.790e-5
-1.259, 1.557e-5
-1.258, 3.239e-6
-1.257, -9.093e-6
-1.256, -2.143e-5
-1.255, -3.068e-5
-1.254, -4.301e-5
-1.253, -5.534e-5
-1.252, -6.459e-5
-1.251, -7.384e-5
-1.250, -8.309e-5
-1.249, -9.542e-5
-1.248, -1.016e-4
-1.247, -1.108e-4
-1.246, -1.201e-4
-1.245, -1.293e-4
-1.244, -1.386e-4
-1.243, -1.478e-4
-1.242, -1.571e-4
-1.241, -1.663e-4
-1.240, -1.756e-4
-1.239, -1.848e-4
-1.238, -1.910e-4
-1.237, -2.002e-4
-1.236, -2.095e-4
-1.235, -2.187e-4
-1.234, -2.249e-4
-1.233, -2.342e-4
-1.232, -2.434e-4
-1.231, -2.496e-4
-1.230, -2.619e-4
-1.229, -2.712e-4
-1.228, -2.804e-4
-1.227, -2.897e-4
-1.226, -3.020e-4
-1.225, -3.112e-4
-1.224, -3.174e-4
-1.223, -3.267e-4
-1.222, -3.421e-4
-1.221, -3.482e-4
-1.220, -3.575e-4
-1.219, -3.667e-4
-1.218, -3.760e-4
-1.217, -3.883e-4
-1.216, -3.945e-4
-1.215, -4.037e-4
-1.214, -4.130e-4
-1.213, -4.222e-4
-1.212, -4.315e-4
-1.211, -4.407e-4
-1.210, -4.469e-4
-1.209, -4.561e-4
-1.208, -4.623e-4
-1.207, -4.716e-4
-1.206, -4.777e-4
-1.205, -4.839e-4
-1.204, -4.901e-4
-1.203, -4.993e-4
-1.202, -5.055e-4
-1.201, -5.086e-4
-1.200, -5.147e-4
-1.199, -5.240e-4
-1.198, -5.301e-4
-1.197, -5.301e-4
-1.196, -5.363e-4
-1.195, -5.425e-4
-1.194, -5.486e-4
-1.193, -5.548e-4
-1.192, -5.548e-4
-1.191, -5.610e-4
-1.190, -5.671e-4
-1.189, -5.702e-4
-1.188, -5.733e-4
-1.187, -5.764e-4
-1.186, -5.826e-4
-1.185, -5.856e-4
-1.184, -5.887e-4
-1.183, -5.887e-4
-1.182, -5.949e-4
-1.181, -5.980e-4
-1.180, -6.011e-4
-1.179, -6.041e-4
-1.178, -6.041e-4
-1.177, -6.134e-4
-1.176, -6.165e-4
-1.175, -6.195e-4
-1.174, -6.226e-4
-1.173, -6.288e-4
-1.172, -6.350e-4
-1.171, -6.411e-4
-1.170, -6.442e-4
-1.169, -6.504e-4
-1.168, -6.565e-4
-1.167, -6.689e-4
-1.166, -6.781e-4
-1.165, -6.874e-4
-1.164, -6.997e-4
-1.163, -7.120e-4
-1.162, -7.275e-4
-1.161, -7.398e-4
-1.160, -7.552e-4
-1.159, -7.706e-4
-1.158, -7.830e-4
-1.157, -7.953e-4
-1.156, -8.107e-4
-1.155, -8.200e-4
-1.154, -8.323e-4
-1.153, -8.446e-4
-1.152, -8.539e-4
-1.151, -8.631e-4
-1.150, -8.754e-4
-1.149, -8.847e-4
-1.148, -8.939e-4
-1.147, -9.032e-4
-1.146, -9.094e-4
-1.145, -9.186e-4
-1.144, -9.248e-4
-1.143, -9.309e-4
-1.142, -9.371e-4
-1.141, -9.402e-4
-1.140, -9.494e-4
-1.139, -9.525e-4
-1.138, -9.587e-4
-1.137, -9.649e-4
-1.136, -9.679e-4
-1.135, -9.741e-4
-1.134, -9.803e-4
-1.133, -9.834e-4
-1.132, -9.864e-4
-1.131, -9.926e-4
-1.130, -9.957e-4
-1.129, -9.988e-4
-1.128, -1.002e-3
-1.127, -1.005e-3
-1.126, -1.011e-3
-1.125, -1.014e-3
-1.124, -1.017e-3
-1.123, -1.020e-3
-1.122, -1.027e-3
-1.121, -1.030e-3
-1.120, -1.033e-3
-1.119, -1.036e-3
-1.118, -1.042e-3
-1.117, -1.045e-3
-1.116, -1.048e-3
-1.115, -1.048e-3
-1.114, -1.051e-3
-1.113, -1.057e-3
-1.112, -1.060e-3
-1.111, -1.064e-3
-1.110, -1.070e-3
-1.109, -1.070e-3
-1.108, -1.076e-3
-1.107, -1.079e-3
-1.106, -1.082e-3
-1.105, -1.085e-3
-1.104, -1.091e-3
-1.103, -1.094e-3
-1.102, -1.097e-3
-1.101, -1.101e-3
-1.100, -1.104e-3
-1.099, -1.107e-3
-1.098, -1.110e-3
-1.097, -1.116e-3
-1.096, -1.116e-3
-1.095, -1.122e-3
-1.094, -1.125e-3
-1.093, -1.131e-3
-1.092, -1.131e-3
-1.091, -1.138e-3
-1.090, -1.141e-3
-1.089, -1.144e-3
-1.088, -1.147e-3
-1.087, -1.150e-3
-1.086, -1.153e-3
-1.085, -1.159e-3
-1.084, -1.162e-3
-1.083, -1.162e-3
-1.082, -1.168e-3
-1.081, -1.171e-3
-1.080, -1.178e-3
-1.079, -1.181e-3
-1.078, -1.184e-3
-1.077, -1.187e-3
-1.076, -1.193e-3
-1.075, -1.196e-3
-1.074, -1.199e-3
-1.073, -1.202e-3
-1.072, -1.205e-3
-1.071, -1.212e-3
-1.070, -1.215e-3
-1.069, -1.218e-3
-1.068, -1.224e-3
-1.067, -1.230e-3
-1.066, -1.233e-3
-1.065, -1.236e-3
-1.064, -1.239e-3
-1.063, -1.245e-3
-1.062, -1.252e-3
-1.061, -1.255e-3
-1.060, -1.258e-3
-1.059, -1.261e-3
-1.058, -1.267e-3
-1.057, -1.273e-3
-1.056, -1.276e-3
-1.055, -1.282e-3
-1.054, -1.286e-3
-1.053, -1.292e-3
-1.052, -1.298e-3
-1.051, -1.301e-3
-1.050, -1.304e-3
-1.049, -1.310e-3
-1.048, -1.313e-3
-1.047, -1.319e-3
-1.046, -1.322e-3
-1.045, -1.329e-3
-1.044, -1.335e-3
-1.043, -1.341e-3
-1.042, -1.344e-3
-1.041, -1.353e-3
-1.040, -1.356e-3
-1.039, -1.366e-3
-1.038, -1.369e-3
-1.037, -1.369e-3
-1.036, -1.378e-3
-1.035, -1.381e-3
-1.034, -1.390e-3
-1.033, -1.396e-3
-1.032, -1.400e-3
-1.031, -1.409e-3
-1.030, -1.415e-3
-1.029, -1.421e-3
-1.028, -1.427e-3
-1.027, -1.437e-3
-1.026, -1.443e-3
-1.025, -1.452e-3
-1.024, -1.455e-3
-1.023, -1.461e-3
-1.022, -1.470e-3
-1.021, -1.477e-3
-1.020, -1.486e-3
-1.019, -1.492e-3
-1.018, -1.501e-3
-1.017, -1.511e-3
-1.016, -1.517e-3
-1.015, -1.526e-3
-1.014, -1.535e-3
-1.013, -1.544e-3
-1.012, -1.554e-3
-1.011, -1.563e-3
-1.010, -1.569e-3
-1.009, -1.578e-3
-1.008, -1.588e-3
-1.007, -1.597e-3
-1.006, -1.606e-3
-1.005, -1.615e-3
-1.004, -1.625e-3
-1.003, -1.637e-3
-1.002, -1.646e-3
-1.001, -1.655e-3
