Potential V vs RHE, Current mA cm-2
0.013299999999999867,-1.3483613399013663
0.012299999999999978,-1.3994324178264943
0.011299999999999866,-1.4288584128636872
0.010299999999999976,-1.4514937936615278
0.009299999999999864,-1.4755438857592333
0.008299999999999974,-1.4896909987578837
0.007299999999999862,-1.501008689156804
0.006299999999999972,-1.5151558021554543
0.00529999999999986,-1.5264734925543744
0.0042999999999999705,-1.54203531685289
0.0032999999999998586,-1.5547677185516753
0.0022999999999999687,-1.5618412750510005
0.0012999999999998568,-1.5703295428501907
0.00029999999999996696,-1.5816472332491107
-0.000700000000000145,-1.5915502123481662
-0.0017000000000000348,-1.6014531914472214
-0.0027000000000001467,-1.6071120366466816
-0.0037000000000000366,-1.6170150157457368
-0.0047000000000001485,-1.6255032835449272
-0.005700000000000038,-1.6339915513441174
-0.00670000000000015,-1.6424798191433077
-0.00770000000000004,-1.6481386643427678
-0.008700000000000152,-1.656626932141958
-0.009700000000000042,-1.6665299112410132
-0.010700000000000154,-1.6750181790402037
-0.011700000000000044,-1.6792623129397986
-0.012700000000000156,-1.6863358694391237
-0.013700000000000045,-1.690580003338719
-0.014700000000000157,-1.6990682711379093
-0.015700000000000047,-1.7075565389370995
-0.01670000000000016,-1.7146300954364246
-0.01770000000000005,-1.7217036519357498
-0.01870000000000016,-1.7245330745354797
-0.01970000000000005,-1.7301919197349398
-0.020700000000000163,-1.7400948988339953
-0.021700000000000053,-1.7471684553333202
-0.022700000000000164,-1.7514125892329155
-0.023700000000000054,-1.7570714344323757
-0.024700000000000166,-1.7655597022315657
-0.025700000000000056,-1.772633258730891
-0.026700000000000168,-1.778292103930351
-0.027700000000000058,-1.7839509491298113
-0.02870000000000017,-1.7881950830294064
-0.02970000000000006,-1.7952686395287314
-0.03070000000000017,-1.8065863299276517
-0.03170000000000006,-1.8108304638272468
-0.03270000000000017,-1.815074597726842
-0.03370000000000006,-1.8179040203265722
-0.034700000000000175,-1.8263922881257622
-0.035700000000000065,-1.8362952672248178
-0.03670000000000018,-1.8447835350240078
-0.03770000000000007,-1.847612957623738
-0.03870000000000018,-1.8518570915233332
-0.03970000000000007,-1.8589306480226582
-0.04070000000000018,-1.8674189158218486
-0.04170000000000007,-1.8759071836210386
-0.04270000000000018,-1.8773218949209036
-0.04370000000000007,-1.884395451420229
-0.044700000000000184,-1.892883719219419
-0.045700000000000074,-1.9042014096183393
-0.046700000000000186,-1.9084455435179344
-0.047700000000000076,-1.9126896774175295
-0.04870000000000019,-1.9183485226169896
-0.04970000000000008,-1.92683679041618
-0.05070000000000019,-1.9367397695152353
-0.05170000000000008,-1.9452280373144257
-0.05270000000000019,-1.9523015938137507
-0.05370000000000008,-1.9551310164134805
-0.05470000000000019,-1.963619284212671
-0.05570000000000008,-1.9749369746115912
-0.056700000000000195,-1.9834252424107812
-0.057700000000000085,-1.9890840876102414
-0.058700000000000196,-1.9947429328097017
-0.059700000000000086,-2.004645911908757
-0.0607000000000002,-2.0159636023076772
-0.06170000000000009,-2.0272812927065975
-0.0627000000000002,-2.0329401379060577
-0.06370000000000009,-2.0357695605057877
-0.0647000000000002,-2.045672539604843
-0.06570000000000009,-2.0598196526034935
-0.0667000000000002,-2.0697226317025486
-0.0677000000000001,-2.076796188201874
-0.0687000000000002,-2.0881138786007942
-0.0697000000000001,-2.0966021463999844
-0.07070000000000021,-2.1079198367989047
-0.0717000000000001,-2.11782281589796
-0.07270000000000021,-2.12631108369715
-0.0737000000000001,-2.1347993514963406
-0.07470000000000021,-2.1461170418952604
-0.0757000000000001,-2.161678866193776
-0.07670000000000021,-2.1729965565926963
-0.0777000000000001,-2.1828995356917518
-0.07870000000000021,-2.192802514790807
-0.0797000000000001,-2.206949627789457
-0.08070000000000022,-2.2196820294882422
-0.0817000000000001,-2.2338291424868926
-0.08270000000000022,-2.2437321215859485
-0.08370000000000011,-2.2564645232847336
-0.08470000000000022,-2.2677822136836534
-0.08570000000000011,-2.2819293266823037
-0.08670000000000022,-2.298905862280684
-0.08770000000000011,-2.3116382639794697
-0.08870000000000022,-2.3272000882779853
-0.08970000000000011,-2.3413472012766356
-0.09070000000000022,-2.358323736875016
-0.09170000000000011,-2.3682267159740715
-0.09270000000000023,-2.383788540272587
-0.09370000000000012,-2.3993503645711023
-0.09470000000000023,-2.4134974775697526
-0.09570000000000012,-2.4347181470677284
-0.09670000000000023,-2.4502799713662435
-0.09770000000000012,-2.468671218264489
-0.09870000000000023,-2.4814036199632743
-0.09970000000000012,-2.49979486686152
-0.10070000000000023,-2.518186113759765
-0.10170000000000012,-2.533747938058281
-0.10270000000000024,-2.552139184956526
-0.10370000000000013,-2.5691157205549064
-0.10470000000000024,-2.591751101352747
-0.10570000000000013,-2.6115570595508575
-0.10670000000000024,-2.627118883849373
-0.10770000000000013,-2.6455101307476188
-0.10870000000000024,-2.666730800245594
-0.10970000000000013,-2.689366181043435
-0.11070000000000024,-2.7134162731411404
-0.11170000000000013,-2.7318075200393857
-0.11270000000000002,-2.7501987669376318
-0.11370000000000013,-2.772834147735472
-0.11470000000000002,-2.795469528533313
-0.11570000000000014,-2.820934331930883
-0.11670000000000003,-2.843569712728724
-0.11770000000000014,-2.8690345161262942
-0.11870000000000003,-2.888840474324405
-0.11970000000000014,-2.9114758551222453
-0.12070000000000003,-2.941184792419411
-0.12170000000000014,-2.968064307116847
-0.12270000000000003,-2.9935291105144173
-0.12370000000000014,-3.0175792026121235
-0.12470000000000003,-3.043044006009694
-0.12570000000000014,-3.0713382320069944
-0.12670000000000003,-3.1024618806040256
-0.12770000000000015,-3.126511972701731
-0.12870000000000004,-3.1548061986990317
-0.12970000000000015,-3.1873445585959277
-0.13070000000000004,-3.2212976297926885
-0.13170000000000015,-3.249591855789989
-0.13270000000000004,-3.27505665918756
-0.13370000000000015,-3.3061803077845906
-0.13470000000000004,-3.3401333789813514
-0.13570000000000015,-3.3783305840777076
-0.13670000000000004,-3.412283655274469
-0.13770000000000016,-3.4434073038714996
-0.13870000000000005,-3.4717015298688
-0.13970000000000016,-3.509898734965156
-0.14070000000000005,-3.548095940061512
-0.14170000000000016,-3.586293145157868
-0.14270000000000005,-3.6202462163546287
-0.14370000000000016,-3.658443421450985
-0.14470000000000005,-3.698055337847206
-0.14570000000000016,-3.734837831643697
-0.14670000000000005,-3.7744497480399173
-0.14770000000000016,-3.815476375736004
-0.14870000000000005,-3.8565030034320897
-0.14970000000000017,-3.8947002085284463
-0.15070000000000006,-3.9413856814239923
-0.15170000000000017,-3.9809975978202137
-0.15270000000000006,-4.024853648116029
-0.15370000000000017,-4.068709698411845
-0.15470000000000006,-4.111151037407797
-0.15570000000000017,-4.160665932903073
-0.15670000000000006,-4.211595539698214
-0.15770000000000017,-4.25545158999403
-0.15870000000000006,-4.299307640289847
-0.15970000000000018,-4.341748979285797
-0.16070000000000007,-4.395508008680669
-0.16170000000000018,-4.450681749375406
-0.16270000000000007,-4.501611356170546
-0.16370000000000018,-4.551126251665823
-0.16470000000000007,-4.599226435861234
-0.16570000000000018,-4.652985465256107
-0.16670000000000007,-4.708159205950842
-0.16770000000000018,-4.760503524045848
-0.16870000000000007,-4.810018419541125
-0.16970000000000018,-4.865192160235861
-0.17070000000000007,-4.9302688800296535
-0.17170000000000019,-4.986857332024254
-0.17270000000000008,-5.037786938819395
-0.1737000000000002,-5.092960679514132
-0.17470000000000008,-5.155207976708193
-0.1757000000000002,-5.2188699852021205
-0.17670000000000008,-5.282531993696048
-0.1777000000000002,-5.344779290890109
-0.17870000000000008,-5.39853832028498
-0.1797000000000002,-5.463615040078771
-0.18070000000000008,-5.528691759872564
-0.1817000000000002,-5.59801261356595
-0.18270000000000008,-5.658845199460147
-0.1837000000000002,-5.716848362754614
-0.1847000000000001,-5.779095659948675
-0.1857000000000002,-5.849831224941926
-0.1867000000000001,-5.916322656035583
-0.1877000000000002,-5.97998466452951
-0.1887000000000001,-6.039402539123842
-0.1897000000000002,-6.097405702418309
-0.1907000000000001,-6.16814126741156
-0.1917000000000001,-6.231803275905486
-0.19269999999999998,-6.294050573099549
-0.1937000000000001,-6.357712581593474
-0.19469999999999998,-6.425618723986997
-0.1957000000000001,-6.4850365985813285
-0.19669999999999999,-6.543039761875795
-0.1977000000000001,-6.605287059069856
-0.1987,-6.670363778863648
-0.1997000000000001,-6.738269921257169
-0.2007,-6.800517218451231
-0.2017000000000001,-6.864179226945158
-0.2027,-6.916523545040165
-0.2037000000000001,-6.983014976133821
-0.2047,-7.041018139428288
-0.2057000000000001,-7.104680147922214
-0.2067,-7.171171579015871
-0.2077000000000001,-7.234833587509797
-0.2087,-7.290007328204534
-0.2097000000000001,-7.342351646299541
-0.2107,-7.404598943493602
-0.2117000000000001,-7.465431529387798
-0.2127,-7.523434692682265
-0.2137000000000001,-7.578608433377001
-0.2147,-7.636611596671468
-0.2157000000000001,-7.694614759965935
-0.2167,-7.756862057159997
-0.21770000000000012,-7.8106210865548675
-0.2187,-7.862965404649874
-0.21970000000000012,-7.9153097227448805
-0.2207,-7.961995195640427
-0.22170000000000012,-8.011510091135703
-0.2227,-8.062439697930845
-0.22370000000000012,-8.102051614327065
-0.2247,-8.145907664622882
-0.22570000000000012,-8.196837271418023
-0.2267,-8.235034476514379
-0.22770000000000012,-8.27181697031087
-0.22870000000000001,-8.305770041507632
-0.22970000000000013,-8.339723112704391
-0.23070000000000002,-8.368017338701693
-0.23170000000000013,-8.397726275998858
-0.23270000000000002,-8.426020501996158
-0.23370000000000013,-8.448655882793998
-0.23470000000000002,-8.472705974891705
-0.23570000000000013,-8.491097221789948
-0.23670000000000002,-8.509488468688197
-0.2376999999999999,-8.519391447787251
-0.23870000000000002,-8.530709138186172
-0.2396999999999999,-8.544856251184823
-0.24070000000000003,-8.55334451898401
-0.24169999999999991,-8.563247498083067
-0.24270000000000003,-8.570321054582392
-0.24369999999999992,-8.575979899781853
-0.24470000000000003,-8.574565188481987
-0.24569999999999992,-8.570321054582392
-0.24670000000000003,-8.574565188481987
-0.24769999999999992,-8.571735765882257
-0.24870000000000003,-8.567491631982662
-0.24969999999999992,-8.561832786783201
-0.25070000000000003,-8.554759230283878
-0.2516999999999999,-8.546270962484687
-0.25270000000000004,-8.540612117285226
-0.2536999999999999,-8.523635581686847
-0.25470000000000004,-8.51656202518752
-0.2556999999999999,-8.508073757388331
-0.25670000000000004,-8.49958548958914
-0.25769999999999993,-8.48826779919022
-0.25870000000000004,-8.464217707092514
-0.25969999999999993,-8.44299703759454
-0.26070000000000004,-8.423191079396428
-0.26169999999999993,-8.404799832498183
-0.26270000000000004,-8.382164451700342
-0.26369999999999993,-8.35669964830277
-0.26470000000000005,-8.33406426750493
-0.26569999999999994,-8.310014175407224
-0.26670000000000005,-8.29162292850898
-0.26769999999999994,-8.26898754771114
-0.26870000000000005,-8.24352274431357
-0.26969999999999994,-8.212399095716538
-0.27070000000000005,-8.192593137518429
-0.27169999999999994,-8.168543045420723
-0.27270000000000005,-8.141663530723285
-0.27369999999999994,-8.119028149925446
-0.27470000000000006,-8.099222191727335
-0.27569999999999995,-8.087904501328415
-0.27670000000000006,-8.0723426770299
-0.27769999999999995,-8.055366141431518
-0.27870000000000006,-8.039804317133003
-0.27969999999999995,-8.027071915434218
-0.28070000000000006,-8.022827781534623
-0.28169999999999995,-8.017168936335162
-0.28270000000000006,-8.007265957236108
-0.28369999999999995,-8.003021823336512
-0.28470000000000006,-7.997362978137053
-0.28569999999999995,-7.990289421637726
-0.28670000000000007,-7.990289421637726
-0.28769999999999996,-7.993118844237457
-0.28870000000000007,-7.9945335555373225
-0.28969999999999996,-7.995948266837187
-0.29070000000000007,-7.997362978137053
-0.29169999999999996,-7.9888747103378615
-0.29270000000000007,-7.973312886039348
-0.29369999999999996,-7.984630576438266
-0.2947000000000001,-7.993118844237457
-0.29569999999999996,-8.011510091135703
-0.2967000000000001,-8.029901338033948
-0.29769999999999996,-8.036974894533273
-0.2987000000000001,-8.052536718831789
-0.29969999999999997,-8.069513254430168
-0.3007000000000001,-8.085075078728684
-0.30169999999999997,-8.104881036926795
-0.3027000000000001,-8.11478401602585
-0.30369999999999997,-8.12610170642477
-0.3047000000000001,-8.134589974223962
-0.30569999999999997,-8.14873708722261
-0.3067000000000001,-8.161469488921396
-0.3077,-8.165713622820993
-0.3087000000000001,-8.177031313219912
-0.3097,-8.202496116617484
-0.3107000000000001,-8.225131497415324
-0.3117,-8.236449187814243
-0.3127000000000001,-8.244937455613433
-0.3137,-8.26898754771114
-0.3147000000000001,-8.295867062408576
-0.3157,-8.321331865806146
-0.3167000000000001,-8.349626091803447
-0.3177,-8.373676183901154
-0.3187000000000001,-8.394896853399128
-0.3197,-8.431679347195619
-0.3207000000000001,-8.461388284492784
-0.3217,-8.498170778289277
-0.3227000000000001,-8.530709138186172
-0.3237,-8.568906343282526
-0.3247000000000001,-8.601444703179425
-0.3257,-8.631153640476589
-0.3267000000000001,-8.669350845572946
-0.3277,-8.699059782870112
-0.3287000000000001,-8.734427565366737
-0.3297,-8.768380636563498
-0.3307000000000001,-8.815066109459044
-0.3317,-8.853263314555399
-0.3327000000000001,-8.891460519651757
-0.3337,-8.928243013448247
-0.3347000000000001,-8.974928486343794
-0.3357,-9.020199247939473
-0.3367000000000001,-9.073958277334345
-0.3377,-9.116399616330296
-0.3387000000000001,-9.161670377925978
-0.3397,-9.211185273421254
-0.3407000000000001,-9.263529591516258
-0.3417,-9.3144591983114
-0.3427000000000001,-9.355485826007486
-0.3437,-9.405000721502764
-0.3447000000000001,-9.451686194398311
-0.3457,-9.525251181991292
-0.3467000000000001,-9.588913190485219
-0.3477,-9.639842797280359
-0.3487000000000001,-9.68794298147577
-0.3497,-9.757263835169159
-0.3507000000000001,-9.822340554962949
-0.3517,-9.876099584357823
-0.3527000000000001,-9.919955634653638
-0.3537,-9.973714664048508
-0.3547000000000001,-10.035961961242569
-0.3557,-10.082647434138115
-0.35670000000000013,-10.146309442632043
-0.3577,-10.217045007625295
-0.35870000000000013,-10.299098263017466
-0.3597,-10.385395652309235
-0.36070000000000013,-10.46037535120208
-0.3617,-10.542428606594253
-0.3626999999999999,-10.604675903788314
-0.3637,-10.688143870480351
-0.3646999999999999,-10.792832506670365
-0.3657,-10.852250381264698
-0.3666999999999999,-10.89044758636105
-0.3677,-10.938547770556465
-0.3686999999999999,-11.002209779050391
-0.36970000000000003,-11.077189477943236
-0.3706999999999999,-11.15641331073568
-0.37170000000000003,-11.229978298328662
-0.3726999999999999,-11.304957997221507
-0.37370000000000003,-11.385596541313816
-0.3746999999999999,-11.469064508005852
-0.37570000000000003,-11.544044206898699
-0.3766999999999999,-11.627512173590738
-0.37770000000000004,-11.710980140282773
-0.3786999999999999,-11.801521663474135
-0.37970000000000004,-11.890648475365632
-0.3806999999999999,-11.979775287257132
-0.38170000000000004,-12.070316810448494
-0.38269999999999993,-12.156614199740261
-0.38370000000000004,-12.249985145531353
-0.38469999999999993,-12.365991472120287
-0.38570000000000004,-12.474924242209893
-0.38669999999999993,-12.326379555724063
-0.38570000000000004,-12.084463923447142
-0.38469999999999993,-11.889233764065768
-0.38370000000000004,-11.713809562882503
-0.38269999999999993,-11.536970650399374
-0.38170000000000004,-11.361546449216108
-0.3806999999999999,-11.200269361031495
-0.37970000000000004,-11.036162850247152
-0.3786999999999999,-10.866397494263348
-0.37770000000000004,-10.712193962578057
-0.3766999999999999,-10.569308121291689
-0.37570000000000003,-10.427836991305185
-0.3746999999999999,-10.283536438718953
-0.37370000000000003,-10.146309442632043
-0.3726999999999999,-9.992105910946753
-0.37170000000000003,-9.860537760059307
-0.3706999999999999,-9.723310763972396
-0.36970000000000003,-9.590327901785084
-0.3686999999999999,-9.467248018696827
-0.3677,-9.355485826007486
-0.3666999999999999,-9.228161809019635
-0.3657,-9.103667214631512
-0.3646999999999999,-8.984831465442848
-0.3637,-8.868825138853914
-0.3626999999999999,-8.759892368764307
-0.3617,-8.64813017607497
-0.36070000000000013,-8.532123849486036
-0.3597,-8.41470281159724
-0.35870000000000013,-8.31425830930682
-0.3577,-8.213813807016404
-0.35670000000000013,-8.11478401602585
-0.3557,-8.012924802435567
-0.3547000000000001,-7.916724434044746
-0.3537,-7.8106210865548675
-0.3527000000000001,-7.714420718164044
-0.3517,-7.623879194972683
-0.3507000000000001,-7.526264115281995
-0.3497,-7.441381437290093
-0.3487000000000001,-7.35649875929819
-0.3477,-7.267371947406693
-0.3467000000000001,-7.179659846815062
-0.3457,-7.090533034923564
-0.3447000000000001,-7.004235645631797
-0.3437,-6.920767678939759
-0.3427000000000001,-6.845787980046913
-0.3417,-6.765149435954606
-0.3407000000000001,-6.680266757962703
-0.3397,-6.598213502570531
-0.3387000000000001,-6.526063226277413
-0.3377,-6.4595717951837575
-0.3367000000000001,-6.388836230190505
-0.3357,-6.318100665197254
-0.3347000000000001,-6.2360474098050815
-0.3337,-6.16814126741156
-0.3327000000000001,-6.1044792589176335
-0.3317,-6.040817250423707
-0.3307000000000001,-5.97149639673032
-0.3297,-5.909249099536258
-0.3287000000000001,-5.839928245842872
-0.3277,-5.77768094864881
-0.3267000000000001,-5.715433651454749
-0.3257,-5.654601065560552
-0.3247000000000001,-5.59801261356595
-0.3237,-5.538594738971618
-0.3227000000000001,-5.486250420876612
-0.3217,-5.425417834982416
-0.3207000000000001,-5.3702440942876795
-0.3197,-5.310826219693348
-0.3187000000000001,-5.255652478998611
-0.3177,-5.203308160903605
-0.3167000000000001,-5.156622688008059
-0.3157,-5.107107792512783
-0.3147000000000001,-5.046275206618586
-0.3137,-4.98827204332412
-0.3127000000000001,-4.943001281728439
-0.3117,-4.901974654032353
-0.3107000000000001,-4.8453862020377505
-0.3097,-4.797286017842339
-0.3087000000000001,-4.750600544946793
-0.3077,-4.698256226851787
-0.3067000000000001,-4.655814887855835
-0.30569999999999997,-4.603470569760829
-0.3047000000000001,-4.551126251665823
-0.30369999999999997,-4.5044407787702765
-0.3027000000000001,-4.470487707573516
-0.30169999999999997,-4.419558100778375
-0.3007000000000001,-4.364384360083638
-0.29969999999999997,-4.316284175888227
-0.2987000000000001,-4.276672259492005
-0.29769999999999996,-4.239889765695515
-0.2967000000000001,-4.198863137999429
-0.29569999999999996,-4.1564217990034775
-0.2947000000000001,-4.102662769608606
-0.29369999999999996,-4.0644655645122505
-0.29270000000000007,-4.024853648116029
-0.29169999999999996,-3.988071154319539
-0.29070000000000007,-3.9470445266234524
-0.28969999999999996,-3.9116767441268263
-0.28870000000000007,-3.8649912712312804
-0.28769999999999996,-3.8282087774347895
-0.28670000000000007,-3.798499840137624
-0.28569999999999995,-3.7588879237414026
-0.28470000000000006,-3.7249348525446417
-0.28369999999999995,-3.6853229361484203
-0.28270000000000006,-3.6541992875513896
-0.28169999999999995,-3.6145873711551686
-0.28070000000000006,-3.5778048773586777
-0.27969999999999995,-3.545266517461782
-0.27870000000000006,-3.509898734965156
-0.27769999999999995,-3.4801897976679905
-0.27670000000000006,-3.45472499427042
-0.27569999999999995,-3.4193572117737934
-0.27470000000000006,-3.3769158727778423
-0.27369999999999994,-3.3415480902812167
-0.27270000000000005,-3.3203274207832414
-0.27169999999999994,-3.2948626173856703
-0.27070000000000005,-3.2623242574887747
-0.26969999999999994,-3.232615320191609
-0.26870000000000005,-3.201491671594578
-0.26769999999999994,-3.167538600397817
-0.26670000000000005,-3.1449032195999767
-0.26569999999999994,-3.110950148403216
