Aug. 21, 2024   12:19:56
Linear Sweep Voltammetry
File: c:/users/guazh/data/20240813_batch_94_500/2024-08-15-exp149\regeneratedgce-2024-08-21t12_16_54-lsvinkoh\regeneratedgce_lsv_50mvs_efin_-1700mv.bin
Data Source:  Experiment
Instrument Model:  CHI760E
Header: LSV ran at 50 mVs with Efin at -1700mV
Note: 

Init E (V) = -0.6
Final E (V) = -1.7
Scan Rate (V/s) = 0.05
Sample Interval (V) = 0.001
Quiet Time (sec) = 2
Sensitivity (A/V) = 1e-4
Comp R (ohm) = 1.6

Results:

Channel 1:

Potential/V, Current/A

-0.600, 2.201e-6
-0.601, 2.362e-6
-0.602, 2.410e-6
-0.603, 2.432e-6
-0.604, 2.446e-6
-0.605, 2.455e-6
-0.606, 2.463e-6
-0.607, 2.469e-6
-0.608, 2.474e-6
-0.609, 2.479e-6
-0.610, 2.482e-6
-0.611, 2.488e-6
-0.612, 2.489e-6
-0.613, 2.493e-6
-0.614, 2.497e-6
-0.615, 2.501e-6
-0.616, 2.503e-6
-0.617, 2.505e-6
-0.618, 2.507e-6
-0.619, 2.510e-6
-0.620, 2.512e-6
-0.621, 2.513e-6
-0.622, 2.514e-6
-0.623, 2.516e-6
-0.624, 2.517e-6
-0.625, 2.521e-6
-0.626, 2.521e-6
-0.627, 2.523e-6
-0.628, 2.526e-6
-0.629, 2.520e-6
-0.630, 2.530e-6
-0.631, 2.532e-6
-0.632, 2.532e-6
-0.633, 2.536e-6
-0.634, 2.537e-6
-0.635, 2.540e-6
-0.636, 2.541e-6
-0.637, 2.540e-6
-0.638, 2.545e-6
-0.639, 2.545e-6
-0.640, 2.548e-6
-0.641, 2.551e-6
-0.642, 2.548e-6
-0.643, 2.553e-6
-0.644, 2.554e-6
-0.645, 2.556e-6
-0.646, 2.559e-6
-0.647, 2.559e-6
-0.648, 2.561e-6
-0.649, 2.564e-6
-0.650, 2.565e-6
-0.651, 2.567e-6
-0.652, 2.569e-6
-0.653, 2.571e-6
-0.654, 2.574e-6
-0.655, 2.575e-6
-0.656, 2.576e-6
-0.657, 2.577e-6
-0.658, 2.579e-6
-0.659, 2.583e-6
-0.660, 2.585e-6
-0.661, 2.584e-6
-0.662, 2.587e-6
-0.663, 2.590e-6
-0.664, 2.591e-6
-0.665, 2.595e-6
-0.666, 2.599e-6
-0.667, 2.597e-6
-0.668, 2.601e-6
-0.669, 2.603e-6
-0.670, 2.605e-6
-0.671, 2.608e-6
-0.672, 2.608e-6
-0.673, 2.612e-6
-0.674, 2.612e-6
-0.675, 2.616e-6
-0.676, 2.619e-6
-0.677, 2.619e-6
-0.678, 2.622e-6
-0.679, 2.625e-6
-0.680, 2.627e-6
-0.681, 2.630e-6
-0.682, 2.629e-6
-0.683, 2.632e-6
-0.684, 2.636e-6
-0.685, 2.637e-6
-0.686, 2.638e-6
-0.687, 2.640e-6
-0.688, 2.643e-6
-0.689, 2.647e-6
-0.690, 2.647e-6
-0.691, 2.653e-6
-0.692, 2.652e-6
-0.693, 2.653e-6
-0.694, 2.656e-6
-0.695, 2.657e-6
-0.696, 2.661e-6
-0.697, 2.660e-6
-0.698, 2.663e-6
-0.699, 2.666e-6
-0.700, 2.669e-6
-0.701, 2.670e-6
-0.702, 2.674e-6
-0.703, 2.675e-6
-0.704, 2.679e-6
-0.705, 2.683e-6
-0.706, 2.683e-6
-0.707, 2.685e-6
-0.708, 2.689e-6
-0.709, 2.689e-6
-0.710, 2.696e-6
-0.711, 2.696e-6
-0.712, 2.698e-6
-0.713, 2.701e-6
-0.714, 2.701e-6
-0.715, 2.707e-6
-0.716, 2.709e-6
-0.717, 2.710e-6
-0.718, 2.714e-6
-0.719, 2.714e-6
-0.720, 2.718e-6
-0.721, 2.719e-6
-0.722, 2.720e-6
-0.723, 2.722e-6
-0.724, 2.727e-6
-0.725, 2.728e-6
-0.726, 2.732e-6
-0.727, 2.733e-6
-0.728, 2.736e-6
-0.729, 2.738e-6
-0.730, 2.741e-6
-0.731, 2.746e-6
-0.732, 2.746e-6
-0.733, 2.748e-6
-0.734, 2.752e-6
-0.735, 2.755e-6
-0.736, 2.757e-6
-0.737, 2.760e-6
-0.738, 2.761e-6
-0.739, 2.765e-6
-0.740, 2.767e-6
-0.741, 2.770e-6
-0.742, 2.772e-6
-0.743, 2.775e-6
-0.744, 2.779e-6
-0.745, 2.782e-6
-0.746, 2.784e-6
-0.747, 2.784e-6
-0.748, 2.788e-6
-0.749, 2.789e-6
-0.750, 2.796e-6
-0.751, 2.798e-6
-0.752, 2.798e-6
-0.753, 2.803e-6
-0.754, 2.805e-6
-0.755, 2.809e-6
-0.756, 2.812e-6
-0.757, 2.812e-6
-0.758, 2.816e-6
-0.759, 2.817e-6
-0.760, 2.821e-6
-0.761, 2.826e-6
-0.762, 2.825e-6
-0.763, 2.830e-6
-0.764, 2.833e-6
-0.765, 2.836e-6
-0.766, 2.839e-6
-0.767, 2.840e-6
-0.768, 2.845e-6
-0.769, 2.848e-6
-0.770, 2.849e-6
-0.771, 2.854e-6
-0.772, 2.856e-6
-0.773, 2.858e-6
-0.774, 2.863e-6
-0.775, 2.864e-6
-0.776, 2.867e-6
-0.777, 2.869e-6
-0.778, 2.872e-6
-0.779, 2.877e-6
-0.780, 2.882e-6
-0.781, 2.883e-6
-0.782, 2.885e-6
-0.783, 2.888e-6
-0.784, 2.893e-6
-0.785, 2.894e-6
-0.786, 2.897e-6
-0.787, 2.902e-6
-0.788, 2.907e-6
-0.789, 2.909e-6
-0.790, 2.913e-6
-0.791, 2.915e-6
-0.792, 2.918e-6
-0.793, 2.922e-6
-0.794, 2.928e-6
-0.795, 2.930e-6
-0.796, 2.934e-6
-0.797, 2.936e-6
-0.798, 2.939e-6
-0.799, 2.941e-6
-0.800, 2.949e-6
-0.801, 2.950e-6
-0.802, 2.954e-6
-0.803, 2.958e-6
-0.804, 2.961e-6
-0.805, 2.964e-6
-0.806, 2.969e-6
-0.807, 2.972e-6
-0.808, 2.976e-6
-0.809, 2.979e-6
-0.810, 2.982e-6
-0.811, 2.985e-6
-0.812, 2.990e-6
-0.813, 2.992e-6
-0.814, 2.999e-6
-0.815, 3.002e-6
-0.816, 3.006e-6
-0.817, 3.009e-6
-0.818, 3.011e-6
-0.819, 3.022e-6
-0.820, 3.029e-6
-0.821, 3.029e-6
-0.822, 3.033e-6
-0.823, 3.034e-6
-0.824, 3.039e-6
-0.825, 3.046e-6
-0.826, 3.047e-6
-0.827, 3.052e-6
-0.828, 3.054e-6
-0.829, 3.060e-6
-0.830, 3.065e-6
-0.831, 3.070e-6
-0.832, 3.072e-6
-0.833, 3.077e-6
-0.834, 3.080e-6
-0.835, 3.087e-6
-0.836, 3.092e-6
-0.837, 3.093e-6
-0.838, 3.099e-6
-0.839, 3.104e-6
-0.840, 3.109e-6
-0.841, 3.115e-6
-0.842, 3.114e-6
-0.843, 3.120e-6
-0.844, 3.128e-6
-0.845, 3.131e-6
-0.846, 3.137e-6
-0.847, 3.140e-6
-0.848, 3.147e-6
-0.849, 3.151e-6
-0.850, 3.155e-6
-0.851, 3.164e-6
-0.852, 3.168e-6
-0.853, 3.170e-6
-0.854, 3.176e-6
-0.855, 3.180e-6
-0.856, 3.187e-6
-0.857, 3.191e-6
-0.858, 3.193e-6
-0.859, 3.201e-6
-0.860, 3.207e-6
-0.861, 3.212e-6
-0.862, 3.216e-6
-0.863, 3.217e-6
-0.864, 3.225e-6
-0.865, 3.231e-6
-0.866, 3.236e-6
-0.867, 3.242e-6
-0.868, 3.244e-6
-0.869, 3.250e-6
-0.870, 3.257e-6
-0.871, 3.265e-6
-0.872, 3.269e-6
-0.873, 3.273e-6
-0.874, 3.278e-6
-0.875, 3.285e-6
-0.876, 3.292e-6
-0.877, 3.295e-6
-0.878, 3.301e-6
-0.879, 3.305e-6
-0.880, 3.311e-6
-0.881, 3.322e-6
-0.882, 3.324e-6
-0.883, 3.330e-6
-0.884, 3.339e-6
-0.885, 3.341e-6
-0.886, 3.349e-6
-0.887, 3.353e-6
-0.888, 3.359e-6
-0.889, 3.367e-6
-0.890, 3.372e-6
-0.891, 3.380e-6
-0.892, 3.384e-6
-0.893, 3.390e-6
-0.894, 3.397e-6
-0.895, 3.403e-6
-0.896, 3.406e-6
-0.897, 3.417e-6
-0.898, 3.419e-6
-0.899, 3.428e-6
-0.900, 3.432e-6
-0.901, 3.439e-6
-0.902, 3.443e-6
-0.903, 3.447e-6
-0.904, 3.457e-6
-0.905, 3.462e-6
-0.906, 3.470e-6
-0.907, 3.472e-6
-0.908, 3.478e-6
-0.909, 3.484e-6
-0.910, 3.493e-6
-0.911, 3.497e-6
-0.912, 3.502e-6
-0.913, 3.509e-6
-0.914, 3.513e-6
-0.915, 3.521e-6
-0.916, 3.526e-6
-0.917, 3.529e-6
-0.918, 3.536e-6
-0.919, 3.539e-6
-0.920, 3.546e-6
-0.921, 3.552e-6
-0.922, 3.555e-6
-0.923, 3.562e-6
-0.924, 3.566e-6
-0.925, 3.572e-6
-0.926, 3.580e-6
-0.927, 3.582e-6
-0.928, 3.589e-6
-0.929, 3.595e-6
-0.930, 3.598e-6
-0.931, 3.606e-6
-0.932, 3.612e-6
-0.933, 3.614e-6
-0.934, 3.621e-6
-0.935, 3.625e-6
-0.936, 3.632e-6
-0.937, 3.635e-6
-0.938, 3.639e-6
-0.939, 3.645e-6
-0.940, 3.649e-6
-0.941, 3.656e-6
-0.942, 3.661e-6
-0.943, 3.665e-6
-0.944, 3.670e-6
-0.945, 3.678e-6
-0.946, 3.681e-6
-0.947, 3.687e-6
-0.948, 3.691e-6
-0.949, 3.696e-6
-0.950, 3.703e-6
-0.951, 3.707e-6
-0.952, 3.712e-6
-0.953, 3.714e-6
-0.954, 3.720e-6
-0.955, 3.728e-6
-0.956, 3.733e-6
-0.957, 3.736e-6
-0.958, 3.742e-6
-0.959, 3.744e-6
-0.960, 3.752e-6
-0.961, 3.757e-6
-0.962, 3.760e-6
-0.963, 3.765e-6
-0.964, 3.772e-6
-0.965, 3.773e-6
-0.966, 3.782e-6
-0.967, 3.785e-6
-0.968, 3.788e-6
-0.969, 3.796e-6
-0.970, 3.800e-6
-0.971, 3.807e-6
-0.972, 3.812e-6
-0.973, 3.817e-6
-0.974, 3.822e-6
-0.975, 3.825e-6
-0.976, 3.831e-6
-0.977, 3.837e-6
-0.978, 3.839e-6
-0.979, 3.847e-6
-0.980, 3.850e-6
-0.981, 3.854e-6
-0.982, 3.859e-6
-0.983, 3.863e-6
-0.984, 3.868e-6
-0.985, 3.873e-6
-0.986, 3.876e-6
-0.987, 3.883e-6
-0.988, 3.887e-6
-0.989, 3.893e-6
-0.990, 3.897e-6
-0.991, 3.902e-6
-0.992, 3.907e-6
-0.993, 3.912e-6
-0.994, 3.916e-6
-0.995, 3.921e-6
-0.996, 3.927e-6
-0.997, 3.929e-6
-0.998, 3.934e-6
-0.999, 3.940e-6
-1.000, 3.944e-6
-1.001, 3.949e-6
-1.002, 3.954e-6
-1.003, 3.959e-6
-1.004, 3.965e-6
-1.005, 3.969e-6
-1.006, 3.973e-6
-1.007, 3.977e-6
-1.008, 3.982e-6
-1.009, 3.988e-6
-1.010, 3.990e-6
-1.011, 3.997e-6
-1.012, 3.999e-6
-1.013, 4.004e-6
-1.014, 4.011e-6
-1.015, 4.012e-6
-1.016, 4.021e-6
-1.017, 4.024e-6
-1.018, 4.028e-6
-1.019, 4.035e-6
-1.020, 4.040e-6
-1.021, 4.044e-6
-1.022, 4.049e-6
-1.023, 4.051e-6
-1.024, 4.061e-6
-1.025, 4.065e-6
-1.026, 4.069e-6
-1.027, 4.074e-6
-1.028, 4.077e-6
-1.029, 4.083e-6
-1.030, 4.087e-6
-1.031, 4.091e-6
-1.032, 4.095e-6
-1.033, 4.098e-6
-1.034, 4.103e-6
-1.035, 4.107e-6
-1.036, 4.113e-6
-1.037, 4.119e-6
-1.038, 4.121e-6
-1.039, 4.127e-6
-1.040, 4.131e-6
-1.041, 4.136e-6
-1.042, 4.140e-6
-1.043, 4.145e-6
-1.044, 4.152e-6
-1.045, 4.157e-6
-1.046, 4.162e-6
-1.047, 4.165e-6
-1.048, 4.172e-6
-1.049, 4.174e-6
-1.050, 4.179e-6
-1.051, 4.189e-6
-1.052, 4.191e-6
-1.053, 4.193e-6
-1.054, 4.199e-6
-1.055, 4.204e-6
-1.056, 4.210e-6
-1.057, 4.215e-6
-1.058, 4.216e-6
-1.059, 4.223e-6
-1.060, 4.228e-6
-1.061, 4.231e-6
-1.062, 4.237e-6
-1.063, 4.239e-6
-1.064, 4.245e-6
-1.065, 4.253e-6
-1.066, 4.255e-6
-1.067, 4.261e-6
-1.068, 4.263e-6
-1.069, 4.271e-6
-1.070, 4.276e-6
-1.071, 4.282e-6
-1.072, 4.285e-6
-1.073, 4.289e-6
-1.074, 4.294e-6
-1.075, 4.301e-6
-1.076, 4.308e-6
-1.077, 4.308e-6
-1.078, 4.313e-6
-1.079, 4.319e-6
-1.080, 4.325e-6
-1.081, 4.332e-6
-1.082, 4.332e-6
-1.083, 4.338e-6
-1.084, 4.342e-6
-1.085, 4.348e-6
-1.086, 4.355e-6
-1.087, 4.357e-6
-1.088, 4.361e-6
-1.089, 4.366e-6
-1.090, 4.373e-6
-1.091, 4.379e-6
-1.092, 4.383e-6
-1.093, 4.385e-6
-1.094, 4.392e-6
-1.095, 4.398e-6
-1.096, 4.404e-6
-1.097, 4.408e-6
-1.098, 4.409e-6
-1.099, 4.418e-6
-1.100, 4.424e-6
-1.101, 4.427e-6
-1.102, 4.435e-6
-1.103, 4.438e-6
-1.104, 4.447e-6
-1.105, 4.451e-6
-1.106, 4.454e-6
-1.107, 4.464e-6
-1.108, 4.468e-6
-1.109, 4.472e-6
-1.110, 4.479e-6
-1.111, 4.482e-6
-1.112, 4.488e-6
-1.113, 4.492e-6
-1.114, 4.498e-6
-1.115, 4.506e-6
-1.116, 4.514e-6
-1.117, 4.516e-6
-1.118, 4.522e-6
-1.119, 4.527e-6
-1.120, 4.533e-6
-1.121, 4.540e-6
-1.122, 4.541e-6
-1.123, 4.550e-6
-1.124, 4.555e-6
-1.125, 4.561e-6
-1.126, 4.567e-6
-1.127, 4.569e-6
-1.128, 4.575e-6
-1.129, 4.582e-6
-1.130, 4.586e-6
-1.131, 4.594e-6
-1.132, 4.599e-6
-1.133, 4.603e-6
-1.134, 4.607e-6
-1.135, 4.615e-6
-1.136, 4.622e-6
-1.137, 4.625e-6
-1.138, 4.630e-6
-1.139, 4.638e-6
-1.140, 4.645e-6
-1.141, 4.652e-6
-1.142, 4.661e-6
-1.143, 4.663e-6
-1.144, 4.670e-6
-1.145, 4.678e-6
-1.146, 4.684e-6
-1.147, 4.691e-6
-1.148, 4.697e-6
-1.149, 4.699e-6
-1.150, 4.706e-6
-1.151, 4.713e-6
-1.152, 4.720e-6
-1.153, 4.722e-6
-1.154, 4.726e-6
-1.155, 4.735e-6
-1.156, 4.741e-6
-1.157, 4.747e-6
-1.158, 4.753e-6
-1.159, 4.757e-6
-1.160, 4.763e-6
-1.161, 4.770e-6
-1.162, 4.777e-6
-1.163, 4.783e-6
-1.164, 4.790e-6
-1.165, 4.797e-6
-1.166, 4.805e-6
-1.167, 4.809e-6
-1.168, 4.812e-6
-1.169, 4.824e-6
-1.170, 4.829e-6
-1.171, 4.839e-6
-1.172, 4.845e-6
-1.173, 4.850e-6
-1.174, 4.857e-6
-1.175, 4.864e-6
-1.176, 4.870e-6
-1.177, 4.881e-6
-1.178, 4.893e-6
-1.179, 4.898e-6
-1.180, 4.907e-6
-1.181, 4.911e-6
-1.182, 4.922e-6
-1.183, 4.932e-6
-1.184, 4.938e-6
-1.185, 4.946e-6
-1.186, 4.952e-6
-1.187, 4.960e-6
-1.188, 4.966e-6
-1.189, 4.972e-6
-1.190, 4.984e-6
-1.191, 4.992e-6
-1.192, 5.000e-6
-1.193, 5.011e-6
-1.194, 5.017e-6
-1.195, 5.027e-6
-1.196, 5.035e-6
-1.197, 5.043e-6
-1.198, 5.054e-6
-1.199, 5.063e-6
-1.200, 5.071e-6
-1.201, 5.084e-6
-1.202, 5.093e-6
-1.203, 5.103e-6
-1.204, 5.111e-6
-1.205, 5.119e-6
-1.206, 5.130e-6
-1.207, 5.139e-6
-1.208, 5.146e-6
-1.209, 5.158e-6
-1.210, 5.169e-6
-1.211, 5.180e-6
-1.212, 5.189e-6
-1.213, 5.196e-6
-1.214, 5.210e-6
-1.215, 5.220e-6
-1.216, 5.230e-6
-1.217, 5.242e-6
-1.218, 5.254e-6
-1.219, 5.264e-6
-1.220, 5.274e-6
-1.221, 5.285e-6
-1.222, 5.300e-6
-1.223, 5.307e-6
-1.224, 5.318e-6
-1.225, 5.328e-6
-1.226, 5.343e-6
-1.227, 5.353e-6
-1.228, 5.366e-6
-1.229, 5.386e-6
-1.230, 5.395e-6
-1.231, 5.404e-6
-1.232, 5.414e-6
-1.233, 5.429e-6
-1.234, 5.440e-6
-1.235, 5.452e-6
-1.236, 5.465e-6
-1.237, 5.474e-6
-1.238, 5.489e-6
-1.239, 5.501e-6
-1.240, 5.514e-6
-1.241, 5.529e-6
-1.242, 5.544e-6
-1.243, 5.556e-6
-1.244, 5.575e-6
-1.245, 5.588e-6
-1.246, 5.603e-6
-1.247, 5.615e-6
-1.248, 5.631e-6
-1.249, 5.648e-6
-1.250, 5.659e-6
-1.251, 5.676e-6
-1.252, 5.694e-6
-1.253, 5.706e-6
-1.254, 5.727e-6
-1.255, 5.743e-6
-1.256, 5.758e-6
-1.257, 5.779e-6
-1.258, 5.790e-6
-1.259, 5.808e-6
-1.260, 5.828e-6
-1.261, 5.845e-6
-1.262, 5.864e-6
-1.263, 5.880e-6
-1.264, 5.897e-6
-1.265, 5.915e-6
-1.266, 5.933e-6
-1.267, 5.953e-6
-1.268, 5.969e-6
-1.269, 5.988e-6
-1.270, 6.011e-6
-1.271, 6.029e-6
-1.272, 6.049e-6
-1.273, 6.067e-6
-1.274, 6.088e-6
-1.275, 6.107e-6
-1.276, 6.129e-6
-1.277, 6.152e-6
-1.278, 6.174e-6
-1.279, 6.190e-6
-1.280, 6.218e-6
-1.281, 6.242e-6
-1.282, 6.261e-6
-1.283, 6.289e-6
-1.284, 6.314e-6
-1.285, 6.332e-6
-1.286, 6.357e-6
-1.287, 6.384e-6
-1.288, 6.412e-6
-1.289, 6.438e-6
-1.290, 6.465e-6
-1.291, 6.490e-6
-1.292, 6.518e-6
-1.293, 6.547e-6
-1.294, 6.576e-6
-1.295, 6.606e-6
-1.296, 6.636e-6
-1.297, 6.669e-6
-1.298, 6.695e-6
-1.299, 6.723e-6
-1.300, 6.755e-6
-1.301, 6.786e-6
-1.302, 6.820e-6
-1.303, 6.849e-6
-1.304, 6.883e-6
-1.305, 6.918e-6
-1.306, 6.948e-6
-1.307, 6.982e-6
-1.308, 7.013e-6
-1.309, 7.049e-6
-1.310, 7.087e-6
-1.311, 7.124e-6
-1.312, 7.160e-6
-1.313, 7.198e-6
-1.314, 7.233e-6
-1.315, 7.273e-6
-1.316, 7.310e-6
-1.317, 7.353e-6
-1.318, 7.388e-6
-1.319, 7.428e-6
-1.320, 7.471e-6
-1.321, 7.517e-6
-1.322, 7.558e-6
-1.323, 7.602e-6
-1.324, 7.643e-6
-1.325, 7.687e-6
-1.326, 7.735e-6
-1.327, 7.779e-6
-1.328, 7.824e-6
-1.329, 7.871e-6
-1.330, 7.922e-6
-1.331, 7.971e-6
-1.332, 8.022e-6
-1.333, 8.068e-6
-1.334, 8.121e-6
-1.335, 8.169e-6
-1.336, 8.229e-6
-1.337, 8.282e-6
-1.338, 8.331e-6
-1.339, 8.383e-6
-1.340, 8.438e-6
-1.341, 8.494e-6
-1.342, 8.554e-6
-1.343, 8.606e-6
-1.344, 8.661e-6
-1.345, 8.724e-6
-1.346, 8.784e-6
-1.347, 8.846e-6
-1.348, 8.902e-6
-1.349, 8.961e-6
-1.350, 9.029e-6
-1.351, 9.088e-6
-1.352, 9.151e-6
-1.353, 9.214e-6
-1.354, 9.280e-6
-1.355, 9.353e-6
-1.356, 9.414e-6
-1.357, 9.482e-6
-1.358, 9.550e-6
-1.359, 9.618e-6
-1.360, 9.686e-6
-1.361, 9.759e-6
-1.362, 9.834e-6
-1.363, 9.906e-6
-1.364, 9.980e-6
-1.365, 1.005e-5
-1.366, 1.013e-5
-1.367, 1.020e-5
-1.368, 1.028e-5
-1.369, 1.036e-5
-1.370, 1.044e-5
-1.371, 1.052e-5
-1.372, 1.060e-5
-1.373, 1.069e-5
-1.374, 1.077e-5
-1.375, 1.086e-5
-1.376, 1.094e-5
-1.377, 1.103e-5
-1.378, 1.111e-5
-1.379, 1.120e-5
-1.380, 1.129e-5
-1.381, 1.138e-5
-1.382, 1.147e-5
-1.383, 1.157e-5
-1.384, 1.166e-5
-1.385, 1.175e-5
-1.386, 1.185e-5
-1.387, 1.194e-5
-1.388, 1.203e-5
-1.389, 1.212e-5
-1.390, 1.221e-5
-1.391, 1.231e-5
-1.392, 1.242e-5
-1.393, 1.253e-5
-1.394, 1.263e-5
-1.395, 1.274e-5
-1.396, 1.285e-5
-1.397, 1.295e-5
-1.398, 1.307e-5
-1.399, 1.317e-5
-1.400, 1.328e-5
-1.401, 1.339e-5
-1.402, 1.351e-5
-1.403, 1.362e-5
-1.404, 1.374e-5
-1.405, 1.386e-5
-1.406, 1.397e-5
-1.407, 1.409e-5
-1.408, 1.420e-5
-1.409, 1.433e-5
-1.410, 1.445e-5
-1.411, 1.457e-5
-1.412, 1.469e-5
-1.413, 1.481e-5
-1.414, 1.494e-5
-1.415, 1.506e-5
-1.416, 1.520e-5
-1.417, 1.533e-5
-1.418, 1.546e-5
-1.419, 1.559e-5
-1.420, 1.573e-5
-1.421, 1.588e-5
-1.422, 1.602e-5
-1.423, 1.616e-5
-1.424, 1.630e-5
-1.425, 1.645e-5
-1.426, 1.660e-5
-1.427, 1.674e-5
-1.428, 1.689e-5
-1.429, 1.703e-5
-1.430, 1.718e-5
-1.431, 1.733e-5
-1.432, 1.748e-5
-1.433, 1.763e-5
-1.434, 1.779e-5
-1.435, 1.794e-5
-1.436, 1.810e-5
-1.437, 1.826e-5
-1.438, 1.842e-5
-1.439, 1.858e-5
-1.440, 1.875e-5
-1.441, 1.892e-5
-1.442, 1.909e-5
-1.443, 1.926e-5
-1.444, 1.942e-5
-1.445, 1.960e-5
-1.446, 1.978e-5
-1.447, 1.995e-5
-1.448, 2.013e-5
-1.449, 2.031e-5
-1.450, 2.049e-5
-1.451, 2.067e-5
-1.452, 2.086e-5
-1.453, 2.104e-5
-1.454, 2.123e-5
-1.455, 2.142e-5
-1.456, 2.162e-5
-1.457, 2.181e-5
-1.458, 2.200e-5
-1.459, 2.219e-5
-1.460, 2.240e-5
-1.461, 2.260e-5
-1.462, 2.281e-5
-1.463, 2.301e-5
-1.464, 2.322e-5
-1.465, 2.343e-5
-1.466, 2.364e-5
-1.467, 2.385e-5
-1.468, 2.407e-5
-1.469, 2.429e-5
-1.470, 2.450e-5
-1.471, 2.472e-5
-1.472, 2.494e-5
-1.473, 2.516e-5
-1.474, 2.538e-5
-1.475, 2.561e-5
-1.476, 2.584e-5
-1.477, 2.607e-5
-1.478, 2.631e-5
-1.479, 2.654e-5
-1.480, 2.678e-5
-1.481, 2.702e-5
-1.482, 2.726e-5
-1.483, 2.751e-5
-1.484, 2.776e-5
-1.485, 2.800e-5
-1.486, 2.825e-5
-1.487, 2.851e-5
-1.488, 2.877e-5
-1.489, 2.903e-5
-1.490, 2.928e-5
-1.491, 2.954e-5
-1.492, 2.981e-5
-1.493, 3.006e-5
-1.494, 3.033e-5
-1.495, 3.060e-5
-1.496, 3.088e-5
-1.497, 3.116e-5
-1.498, 3.143e-5
-1.499, 3.171e-5
-1.500, 3.200e-5
-1.501, 3.228e-5
-1.502, 3.257e-5
-1.503, 3.285e-5
-1.504, 3.314e-5
-1.505, 3.344e-5
-1.506, 3.374e-5
-1.507, 3.404e-5
-1.508, 3.434e-5
-1.509, 3.465e-5
-1.510, 3.496e-5
-1.511, 3.527e-5
-1.512, 3.558e-5
-1.513, 3.589e-5
-1.514, 3.621e-5
-1.515, 3.653e-5
-1.516, 3.684e-5
-1.517, 3.714e-5
-1.518, 3.746e-5
-1.519, 3.778e-5
-1.520, 3.812e-5
-1.521, 3.847e-5
-1.522, 3.881e-5
-1.523, 3.916e-5
-1.524, 3.951e-5
-1.525, 3.986e-5
-1.526, 4.022e-5
-1.527, 4.057e-5
-1.528, 4.094e-5
-1.529, 4.131e-5
-1.530, 4.167e-5
-1.531, 4.204e-5
-1.532, 4.243e-5
-1.533, 4.282e-5
-1.534, 4.322e-5
-1.535, 4.362e-5
-1.536, 4.402e-5
-1.537, 4.443e-5
-1.538, 4.484e-5
-1.539, 4.524e-5
-1.540, 4.566e-5
-1.541, 4.606e-5
-1.542, 4.648e-5
-1.543, 4.691e-5
-1.544, 4.735e-5
-1.545, 4.779e-5
-1.546, 4.824e-5
-1.547, 4.869e-5
-1.548, 4.915e-5
-1.549, 4.962e-5
-1.550, 5.010e-5
-1.551, 5.058e-5
-1.552, 5.108e-5
-1.553, 5.158e-5
-1.554, 5.209e-5
-1.555, 5.261e-5
-1.556, 5.312e-5
-1.557, 5.363e-5
-1.558, 5.415e-5
-1.559, 5.467e-5
-1.560, 5.521e-5
-1.561, 5.575e-5
-1.562, 5.630e-5
-1.563, 5.685e-5
-1.564, 5.741e-5
-1.565, 5.797e-5
-1.566, 5.856e-5
-1.567, 5.913e-5
-1.568, 5.966e-5
-1.569, 6.021e-5
-1.570, 6.076e-5
-1.571, 6.131e-5
-1.572, 6.185e-5
-1.573, 6.241e-5
-1.574, 6.300e-5
-1.575, 6.358e-5
-1.576, 6.411e-5
-1.577, 6.449e-5
-1.578, 6.479e-5
-1.579, 6.530e-5
-1.580, 6.601e-5
-1.581, 6.676e-5
-1.582, 6.755e-5
-1.583, 6.836e-5
-1.584, 6.913e-5
-1.585, 6.986e-5
-1.586, 7.058e-5
-1.587, 7.133e-5
-1.588, 7.211e-5
-1.589, 7.287e-5
-1.590, 7.361e-5
-1.591, 7.439e-5
-1.592, 7.489e-5
-1.593, 7.540e-5
-1.594, 7.617e-5
-1.595, 7.687e-5
-1.596, 7.801e-5
-1.597, 7.908e-5
-1.598, 7.995e-5
-1.599, 8.089e-5
-1.600, 8.193e-5
-1.601, 8.303e-5
-1.602, 8.419e-5
-1.603, 8.537e-5
-1.604, 8.659e-5
-1.605, 8.782e-5
-1.606, 8.904e-5
-1.607, 9.022e-5
-1.608, 9.157e-5
-1.609, 9.298e-5
-1.610, 9.437e-5
-1.611, 9.577e-5
-1.612, 9.719e-5
-1.613, 9.861e-5
-1.614, 1.001e-4
-1.615, 1.016e-4
-1.616, 1.032e-4
-1.617, 1.048e-4
-1.618, 1.062e-4
-1.619, 1.078e-4
-1.620, 1.097e-4
-1.621, 1.120e-4
-1.622, 1.141e-4
-1.623, 1.160e-4
-1.624, 1.180e-4
-1.625, 1.200e-4
-1.626, 1.220e-4
-1.627, 1.241e-4
-1.628, 1.263e-4
-1.629, 1.284e-4
-1.630, 1.305e-4
-1.631, 1.327e-4
-1.632, 1.348e-4
-1.633, 1.369e-4
-1.634, 1.391e-4
-1.635, 1.413e-4
-1.636, 1.436e-4
-1.637, 1.460e-4
-1.638, 1.482e-4
-1.639, 1.505e-4
-1.640, 1.528e-4
-1.641, 1.553e-4
-1.642, 1.578e-4
-1.643, 1.599e-4
-1.644, 1.622e-4
-1.645, 1.645e-4
-1.646, 1.666e-4
-1.647, 1.690e-4
-1.648, 1.717e-4
-1.649, 1.746e-4
-1.650, 1.774e-4
-1.651, 1.802e-4
-1.652, 1.827e-4
-1.653, 1.855e-4
-1.654, 1.883e-4
-1.655, 1.912e-4
-1.656, 1.943e-4
-1.657, 1.972e-4
-1.658, 2.003e-4
-1.659, 2.035e-4
-1.660, 2.070e-4
-1.661, 2.105e-4
-1.662, 2.142e-4
-1.663, 2.178e-4
-1.664, 2.215e-4
-1.665, 2.252e-4
-1.666, 2.289e-4
-1.667, 2.327e-4
-1.668, 2.365e-4
-1.669, 2.404e-4
-1.670, 2.444e-4
-1.671, 2.480e-4
-1.672, 2.517e-4
-1.673, 2.555e-4
-1.674, 2.594e-4
-1.675, 2.637e-4
-1.676, 2.683e-4
-1.677, 2.732e-4
-1.678, 2.780e-4
-1.679, 2.831e-4
-1.680, 2.881e-4
-1.681, 2.933e-4
-1.682, 2.985e-4
-1.683, 3.039e-4
-1.684, 3.094e-4
-1.685, 3.150e-4
-1.686, 3.208e-4
-1.687, 3.269e-4
-1.688, 3.331e-4
-1.689, 3.394e-4
-1.690, 3.456e-4
-1.691, 3.515e-4
-1.692, 3.575e-4
-1.693, 3.633e-4
-1.694, 3.695e-4
-1.695, 3.761e-4
-1.696, 3.829e-4
-1.697, 3.896e-4
-1.698, 3.965e-4
-1.699, 4.037e-4
