Potential V vs RHE, Current mA cm-2
0.05339999999999995,-0.1137569356221476
0.05239999999999995,-0.2392276808071777
0.051399999999999946,-0.3717861296045316
0.050399999999999945,-0.46544001765559706
0.049399999999999944,-0.5327802755291728
0.04839999999999994,-0.5837098823243142
0.04739999999999994,-0.6221900296806432
0.04639999999999994,-0.6518989669778088
0.04539999999999994,-0.6773637703753796
0.04439999999999994,-0.6983014976133821
0.04339999999999994,-0.715985388861695
0.04239999999999994,-0.731688684290197
0.04139999999999994,-0.7445625571189688
0.040399999999999936,-0.7565876031678217
0.039399999999999935,-0.7681882358267149
0.038399999999999934,-0.7799303396155948
0.03739999999999993,-0.7898333187146499
0.03639999999999993,-0.7980386442538671
0.03539999999999993,-0.8061024986630978
0.03439999999999993,-0.8150151798522477
0.03339999999999993,-0.8233619765214514
0.03239999999999993,-0.8314258309306821
0.03139999999999993,-0.8384993874300073
0.030399999999999927,-0.845148530539373
0.029399999999999926,-0.8534953272085767
0.028399999999999925,-0.8608518259678749
0.027399999999999924,-0.8679253824672
0.026399999999999924,-0.8747159967065521
0.025399999999999923,-0.8815066109459044
0.024399999999999922,-0.8885801674452296
0.02339999999999992,-0.8960781373345142
0.02239999999999992,-0.903010222703853
0.02139999999999992,-0.909800836943205
0.020399999999999918,-0.9163085089225843
0.019399999999999917,-0.9236650076818825
0.018399999999999916,-0.9314459198311402
0.017399999999999916,-0.9379535918105193
0.016399999999999915,-0.9444612637898985
0.015399999999999914,-0.9509689357692777
0.014399999999999913,-0.9574766077486568
0.013399999999999912,-0.965116048767928
0.012399999999999911,-0.9724725475272262
0.01139999999999991,-0.9786972772466322
0.01039999999999991,-0.9856293626159711
0.009399999999999908,-0.9932688036352422
0.008399999999999908,-1.000766773524527
0.007399999999999907,-1.0076988588938656
0.006399999999999906,-1.0143480020032312
0.005399999999999905,-1.0219874430225024
0.004399999999999904,-1.0292024706518144
0.003399999999999903,-1.0367004405410989
0.002399999999999902,-1.0441984104303836
0.0013999999999999013,-1.0507060824097627
0.00039999999999990044,-1.0580625811690607
-0.0006000000000001005,-1.065419079928359
-0.0016000000000001013,-1.0730585209476302
-0.0026000000000001022,-1.080556490836915
-0.003600000000000103,-1.0873471050762673
-0.004600000000000104,-1.0941377193156194
-0.005600000000000105,-1.10220157372485
-0.006600000000000106,-1.1101239570040942
-0.007600000000000107,-1.1174804557633924
-0.008600000000000108,-1.124695483392704
-0.009600000000000108,-1.1313446265020697
-0.01060000000000011,-1.1399743654312466
-0.01160000000000011,-1.14832116210045
-0.012600000000000111,-1.1572338432895999
-0.013600000000000112,-1.1651562265688442
-0.014600000000000113,-1.1716638985482233
-0.015600000000000114,-1.1797277529574541
-0.016600000000000115,-1.1879330784966713
-0.017600000000000116,-1.195148106125983
-0.018600000000000116,-1.203070489405227
-0.019600000000000117,-1.2104269881645253
-0.020600000000000118,-1.2191981982236886
-0.02160000000000012,-1.2279694082828518
-0.02260000000000012,-1.2358917915620962
-0.02360000000000012,-1.2442385882312998
-0.024600000000000122,-1.252443913770517
-0.025600000000000123,-1.2609321815697072
-0.026600000000000124,-1.2702692761488166
-0.027600000000000124,-1.2790404862079796
-0.028600000000000125,-1.2865384560972641
-0.029600000000000126,-1.2953096661564274
-0.030600000000000127,-1.3045052896055502
-0.03160000000000013,-1.313700913054673
-0.03260000000000013,-1.3227550653738094
-0.03360000000000013,-1.3312433331729996
-0.03460000000000002,-1.3401560143621492
-0.03560000000000002,-1.3492101666812855
-0.03660000000000002,-1.3586887323903811
-0.03760000000000002,-1.3685917114894366
-0.03860000000000002,-1.3777873349385592
-0.039600000000000024,-1.387265900647655
-0.040600000000000025,-1.3966029952267642
-0.041600000000000026,-1.406364503195833
-0.04260000000000003,-1.4161260111649017
-0.04360000000000003,-1.426028990263957
-0.04460000000000003,-1.4345172580631471
-0.04560000000000003,-1.4444202371622026
-0.04660000000000003,-1.4557379275611226
-0.04760000000000003,-1.4656409066601779
-0.04860000000000003,-1.4755438857592333
-0.04960000000000003,-1.4840321535584236
-0.050600000000000034,-1.4953498439573436
-0.051600000000000035,-1.506667534356264
-0.052600000000000036,-1.5151558021554543
-0.053600000000000037,-1.5264734925543744
-0.05460000000000004,-1.5363764716534298
-0.05560000000000004,-1.54769416205235
-0.05660000000000004,-1.5590118524512704
-0.05760000000000004,-1.5675001202504606
-0.05860000000000004,-1.5788178106493809
-0.05960000000000004,-1.5887207897484361
-0.06060000000000004,-1.6000384801473564
-0.061600000000000044,-1.6113561705462767
-0.06260000000000004,-1.6226738609451972
-0.06360000000000005,-1.6339915513441174
-0.06460000000000005,-1.643894530443173
-0.06560000000000005,-1.655212220842093
-0.06660000000000005,-1.6679446225408785
-0.06760000000000005,-1.6778476016399335
-0.06860000000000005,-1.6891652920388538
-0.06960000000000005,-1.700482982437774
-0.07060000000000005,-1.7118006728366943
-0.07160000000000005,-1.7231183632356148
-0.07260000000000005,-1.7358507649344
-0.07360000000000005,-1.7457537440334552
-0.07460000000000006,-1.7570714344323757
-0.07560000000000006,-1.769803836131161
-0.07660000000000006,-1.781121526530081
-0.07760000000000006,-1.7938539282288664
-0.07860000000000006,-1.8037569073279218
-0.07960000000000006,-1.8164893090267071
-0.08060000000000006,-1.8292217107254924
-0.08160000000000006,-1.8405394011244125
-0.08260000000000006,-1.8532718028231983
-0.08360000000000006,-1.8631747819222533
-0.08460000000000006,-1.8759071836210386
-0.08560000000000006,-1.8886395853198237
-0.08660000000000007,-1.9013719870186092
-0.08760000000000007,-1.9126896774175295
-0.08860000000000007,-1.925422079116315
-0.08960000000000007,-1.9367397695152353
-0.09060000000000007,-1.9494721712140204
-0.09160000000000007,-1.9622045729128061
-0.09260000000000007,-1.9735222633117262
-0.09360000000000007,-1.9862546650105113
-0.09460000000000007,-1.9975723554094316
-0.09560000000000007,-2.011719468408082
-0.09660000000000007,-2.0244518701068674
-0.09760000000000008,-2.0371842718056525
-0.09860000000000008,-2.048501962204573
-0.09960000000000008,-2.0612343639033583
-0.10060000000000008,-2.073966765602144
-0.10160000000000008,-2.0866991673009294
-0.10260000000000008,-2.0994315689997145
-0.10360000000000008,-2.1121639706984996
-0.10460000000000008,-2.124896372397285
-0.10560000000000008,-2.13762877409607
-0.10660000000000008,-2.150361175794856
-0.10760000000000008,-2.1630935774936413
-0.10860000000000009,-2.174411267892561
-0.10960000000000009,-2.1871436695913467
-0.11060000000000009,-2.199876071290132
-0.11160000000000009,-2.2140231842887825
-0.11260000000000009,-2.225340874687703
-0.11360000000000009,-2.238073276386488
-0.11460000000000009,-2.2522203893851382
-0.11560000000000009,-2.2663675023837886
-0.11660000000000009,-2.279099904082574
-0.1176000000000001,-2.2918323057813597
-0.1186000000000001,-2.30314999618028
-0.1196000000000001,-2.3158823978790646
-0.1206000000000001,-2.32861479957785
-0.1216000000000001,-2.3413472012766356
-0.1226000000000001,-2.355494314275286
-0.1236000000000001,-2.3668120046742067
-0.1246000000000001,-2.379544406372992
-0.1256000000000001,-2.3936915193716417
-0.1266000000000001,-2.4064239210704272
-0.1276000000000001,-2.4191563227692128
-0.1286000000000001,-2.430474013168133
-0.1296000000000001,-2.4432064148669186
-0.1306000000000001,-2.457353527865569
-0.1316000000000001,-2.4700859295643536
-0.1326000000000001,-2.4828183312631396
-0.1336000000000001,-2.4955507329619246
-0.1346000000000001,-2.50828313466071
-0.1356000000000001,-2.5210155363594953
-0.1366000000000001,-2.5351626493581456
-0.1376000000000001,-2.546480339757066
-0.1386000000000001,-2.5592127414558514
-0.1396000000000001,-2.5719451431546365
-0.1406000000000001,-2.584677544853422
-0.14160000000000011,-2.5988246578520724
-0.14260000000000012,-2.6115570595508575
-0.14360000000000012,-2.6228747499497778
-0.14460000000000012,-2.6356071516485633
-0.14560000000000012,-2.648339553347349
-0.14660000000000012,-2.661071955046134
-0.14760000000000012,-2.6738043567449195
-0.14860000000000012,-2.6865367584437045
-0.14960000000000012,-2.69926916014249
-0.15060000000000012,-2.712001561841275
-0.15160000000000012,-2.7247339635400607
-0.15260000000000012,-2.737466365238846
-0.15360000000000013,-2.7501987669376318
-0.15460000000000013,-2.7629311686364164
-0.15560000000000013,-2.775663570335202
-0.15660000000000013,-2.788395972033987
-0.15760000000000013,-2.8011283737327726
-0.15860000000000013,-2.8124460641316933
-0.15960000000000002,-2.8251784658304784
-0.16060000000000002,-2.8379108675292635
-0.16160000000000002,-2.8506432692280486
-0.16260000000000002,-2.863375670926834
-0.16360000000000002,-2.874693361325755
-0.16460000000000002,-2.88742576302454
-0.16560000000000002,-2.90157287602319
-0.16660000000000003,-2.9185494116215707
-0.16760000000000003,-2.9298671020204905
-0.16860000000000003,-2.941184792419411
-0.16960000000000003,-2.9525024828183315
-0.17060000000000003,-2.965234884517117
-0.17160000000000003,-2.976552574916037
-0.17260000000000003,-2.9878702653149576
-0.17360000000000003,-3.000602667013743
-0.17460000000000003,-3.0119203574126634
-0.17560000000000003,-3.024652759111448
-0.17660000000000003,-3.0373851608102336
-0.17760000000000004,-3.0487028512091543
-0.17860000000000004,-3.0600205416080746
-0.17960000000000004,-3.0727529433068597
-0.18060000000000004,-3.08407063370578
-0.18160000000000004,-3.0968030354045655
-0.18260000000000004,-3.1081207258034858
-0.18360000000000004,-3.119438416202406
-0.18460000000000004,-3.1321708179011907
-0.18560000000000004,-3.1434885083001114
-0.18660000000000004,-3.156220909998897
-0.18760000000000004,-3.167538600397817
-0.18860000000000005,-3.178856290796737
-0.18960000000000005,-3.1901739811956578
-0.19060000000000005,-3.201491671594578
-0.19160000000000005,-3.214224073293363
-0.19260000000000005,-3.225541763692284
-0.19360000000000005,-3.235444742791339
-0.19460000000000005,-3.246762433190259
-0.19560000000000005,-3.2594948348890447
-0.19660000000000005,-3.270812525287965
-0.19760000000000005,-3.28071550438702
-0.19860000000000005,-3.2906184834860754
-0.19960000000000006,-3.3019361738849957
-0.20060000000000006,-3.313253864283916
-0.20160000000000006,-3.3245715546828363
-0.20260000000000006,-3.335889245081757
-0.20360000000000006,-3.3457922241808116
-0.20460000000000006,-3.357109914579732
-0.20560000000000006,-3.368427604978652
-0.20660000000000006,-3.3783305840777076
-0.20760000000000006,-3.389648274476628
-0.20860000000000006,-3.3995512535756833
-0.20960000000000006,-3.4094542326747383
-0.21060000000000006,-3.4207719230736586
-0.21160000000000007,-3.430674902172714
-0.21260000000000007,-3.440577881271769
-0.21360000000000007,-3.450480860370824
-0.21460000000000007,-3.4603838394698796
-0.21560000000000007,-3.4702868185689346
-0.21660000000000007,-3.4816045089678553
-0.21760000000000007,-3.492922199366775
-0.21860000000000007,-3.5014104671659654
-0.21960000000000007,-3.5113134462650213
-0.22060000000000007,-3.5212164253640763
-0.22160000000000007,-3.5311194044631313
-0.22260000000000008,-3.539607672262322
-0.22360000000000008,-3.548095940061512
-0.22460000000000008,-3.557998919160567
-0.22560000000000008,-3.566487186959758
-0.22660000000000008,-3.576390166058813
-0.22760000000000008,-3.5848784338580026
-0.22860000000000008,-3.593366701657193
-0.22960000000000008,-3.6032696807562488
-0.23060000000000008,-3.6117579485554394
-0.23160000000000008,-3.6216609276544935
-0.23260000000000008,-3.6287344841538194
-0.23360000000000009,-3.6372227519530096
-0.2346000000000001,-3.6457110197521994
-0.2356000000000001,-3.6541992875513896
-0.2366000000000001,-3.66268755535058
-0.2376000000000001,-3.6711758231497704
-0.2386000000000001,-3.678249379649095
-0.2396000000000001,-3.686737647448285
-0.2406000000000001,-3.695225915247476
-0.2416000000000001,-3.702299471746801
-0.2426000000000001,-3.710787739545991
-0.2436000000000001,-3.7178612960453163
-0.2446000000000001,-3.7249348525446417
-0.2456000000000001,-3.733423120343832
-0.2466000000000001,-3.7404966768431565
-0.2476000000000001,-3.747570233342482
-0.2486000000000001,-3.7532290785419424
-0.2496000000000001,-3.7603026350412674
-0.2506000000000001,-3.768790902840458
-0.2516000000000001,-3.7758644593397825
-0.2526000000000001,-3.781523304539243
-0.2536000000000001,-3.788596861038568
-0.2546000000000001,-3.795670417537894
-0.2556000000000001,-3.8027439740372184
-0.2566000000000001,-3.8098175305365434
-0.2576000000000001,-3.815476375736004
-0.2586000000000001,-3.821135220935464
-0.2596000000000001,-3.8282087774347895
-0.2606000000000001,-3.835282333934114
-0.2616000000000001,-3.840941179133574
-0.2626000000000001,-3.8466000243330347
-0.2636000000000001,-3.852258869532495
-0.2646000000000001,-3.8593324260318203
-0.2656000000000001,-3.8649912712312804
-0.2666000000000001,-3.8720648277306053
-0.2676000000000001,-3.8777236729300655
-0.2686000000000001,-3.8833825181295256
-0.2696000000000001,-3.889041363328986
-0.2706000000000001,-3.8947002085284463
-0.2716000000000001,-3.9003590537279056
-0.2726000000000001,-3.906017898927366
-0.2736000000000001,-3.9116767441268263
-0.2746000000000001,-3.9173355893262864
-0.2756000000000001,-3.9244091458256123
-0.2766000000000001,-3.9300679910250715
-0.2776000000000001,-3.934312124924667
-0.2786000000000001,-3.939970970124127
-0.2796000000000001,-3.945629815323587
-0.2806000000000001,-3.9512886605230477
-0.28160000000000013,-3.956947505722508
-0.28260000000000013,-3.962606350921967
-0.28360000000000013,-3.9668504848215624
-0.2846,-3.9725093300210226
-0.2856,-3.979582886520348
-0.2866,-3.9838270204199433
-0.2876,-3.9894858656194034
-0.2886,-3.995144710818863
-0.2896,-4.000803556018323
-0.2906,-4.006462401217783
-0.2916,-4.0121212464172435
-0.2926,-4.017780091616704
-0.2936,-4.023438936816164
-0.29460000000000003,-4.029097782015624
-0.29560000000000003,-4.034756627215084
-0.29660000000000003,-4.040415472414544
-0.29760000000000003,-4.046074317614004
-0.29860000000000003,-4.051733162813465
-0.29960000000000003,-4.057392008012925
-0.30060000000000003,-4.063050853212385
-0.30160000000000003,-4.068709698411845
-0.30260000000000004,-4.074368543611305
-0.30360000000000004,-4.080027388810766
-0.30460000000000004,-4.085686234010226
-0.30560000000000004,-4.09275979050955
-0.30660000000000004,-4.099833347008876
-0.30760000000000004,-4.105492192208336
-0.30860000000000004,-4.109736326107932
-0.30960000000000004,-4.116809882607257
-0.31060000000000004,-4.1238834391065815
-0.31160000000000004,-4.130956995605907
-0.31260000000000004,-4.136615840805367
-0.31360000000000005,-4.142274686004828
-0.31460000000000005,-4.149348242504152
-0.31560000000000005,-4.1564217990034775
-0.31660000000000005,-4.162080644202938
-0.31760000000000005,-4.1691542007022635
-0.31860000000000005,-4.174813045901724
-0.31960000000000005,-4.1833013137009125
-0.32060000000000005,-4.191789581500104
-0.32160000000000005,-4.197448426699564
-0.32260000000000005,-4.20452198319889
-0.32360000000000005,-4.21018082839835
-0.32460000000000006,-4.217254384897673
-0.32560000000000006,-4.225742652696865
-0.32660000000000006,-4.23281620919619
-0.32760000000000006,-4.239889765695515
-0.32860000000000006,-4.24696332219484
-0.32960000000000006,-4.254036878694166
-0.33060000000000006,-4.262525146493355
-0.33160000000000006,-4.271013414292546
-0.33260000000000006,-4.278086970791871
-0.33360000000000006,-4.286575238591061
-0.33460000000000006,-4.2936487950903865
-0.33560000000000006,-4.303551774189442
-0.33660000000000007,-4.310625330688767
-0.33760000000000007,-4.319113598487957
-0.33860000000000007,-4.327601866287147
-0.33960000000000007,-4.336090134086337
-0.34060000000000007,-4.344578401885528
-0.34160000000000007,-4.354481380984582
-0.34260000000000007,-4.361554937483908
-0.34360000000000007,-4.371457916582963
-0.3446000000000001,-4.379946184382153
-0.3456000000000001,-4.389849163481209
-0.3466000000000001,-4.398337431280399
-0.34759999999999996,-4.408240410379454
-0.3486000000000001,-4.416728678178644
-0.34959999999999997,-4.426631657277699
-0.3506000000000001,-4.436534636376755
-0.35159999999999997,-4.44643761547581
-0.3526000000000001,-4.456340594574866
-0.35359999999999997,-4.466243573673921
-0.3546000000000001,-4.476146552772976
-0.35559999999999997,-4.487464243171897
-0.3566000000000001,-4.498781933570816
-0.3576,-4.508684912669872
-0.3586000000000001,-4.518587891768927
-0.3596,-4.529905582167847
-0.3606000000000001,-4.541223272566767
-0.3616,-4.552540962965688
-0.3626000000000001,-4.5638586533646075
-0.3636,-4.575176343763529
-0.3646000000000001,-4.586494034162449
-0.3656,-4.599226435861234
-0.3666000000000001,-4.610544126260154
-0.3676,-4.6218618166590755
-0.3686000000000001,-4.634594218357861
-0.3696,-4.647326620056646
-0.3706000000000001,-4.66005902175543
-0.3716,-4.6742061347540815
-0.3726000000000001,-4.685523825153001
-0.3736,-4.698256226851787
-0.3746000000000001,-4.710988628550572
-0.3756,-4.725135741549222
-0.3766000000000001,-4.737868143248008
-0.3776,-4.750600544946793
-0.3786000000000001,-4.764747657945444
-0.3796,-4.778894770944094
-0.3806000000000001,-4.793041883942744
-0.3816,-4.807188996941395
-0.3826000000000001,-4.819921398640179
-0.3836,-4.835483222938696
-0.3846000000000001,-4.851045047237211
-0.3856,-4.865192160235861
-0.3866000000000001,-4.880753984534377
-0.3876,-4.894901097533027
-0.3886000000000001,-4.909048210531677
-0.3896,-4.926024746130058
-0.3906000000000001,-4.941586570428573
-0.3916,-4.9571483947270885
-0.3926000000000001,-4.972710219025604
-0.3936,-4.98827204332412
-0.3946000000000001,-5.0052485789225
-0.3956,-5.0222251145208805
-0.3966000000000001,-5.039201650119261
-0.3976,-5.056178185717641
-0.3986000000000001,-5.071740010016156
-0.3996,-5.090131256914402
-0.4006000000000001,-5.108522503812647
-0.4016,-5.125499039411029
-0.4026000000000001,-5.142475575009408
-0.4036,-5.159452110607789
-0.4046000000000001,-5.177843357506034
-0.4056,-5.197649315704145
-0.40660000000000013,-5.214625851302525
-0.4076,-5.23301709820077
-0.40860000000000013,-5.252823056398881
-0.4096,-5.271214303297127
-0.41060000000000013,-5.2910202614952375
-0.4116,-5.310826219693348
-0.41260000000000013,-5.329217466591594
-0.4136,-5.347608713489839
-0.41460000000000014,-5.368829382987815
-0.4156,-5.388635341185925
-0.41660000000000014,-5.409856010683901
-0.4176,-5.428247257582146
-0.41860000000000014,-5.449467927080121
-0.41960000000000003,-5.470688596578097
-0.42060000000000014,-5.491909266076072
-0.42160000000000003,-5.513129935574048
-0.42260000000000014,-5.535765316371888
-0.42360000000000003,-5.556985985869864
-0.42460000000000014,-5.57820665536784
-0.42560000000000003,-5.600842036165679
-0.42660000000000015,-5.622062705663656
-0.42760000000000004,-5.644698086461496
-0.42860000000000015,-5.665918755959472
-0.42960000000000004,-5.689968848057178
-0.43060000000000015,-5.712604228855018
-0.43160000000000004,-5.735239609652858
-0.43260000000000015,-5.757874990450699
-0.43360000000000004,-5.78051037124854
-0.43460000000000015,-5.804560463346245
-0.43560000000000004,-5.830025266743816
-0.43660000000000015,-5.852660647541658
-0.43760000000000004,-5.876710739639362
-0.43860000000000016,-5.900760831737068
-0.43960000000000005,-5.926225635134639
-0.44060000000000016,-5.951690438532209
-0.44160000000000005,-5.975740530629915
-0.44260000000000016,-6.001205334027486
-0.44360000000000005,-6.026670137425056
-0.44460000000000016,-6.0521349408226275
-0.44560000000000005,-6.0790144555200625
-0.44660000000000016,-6.1044792589176335
-0.44760000000000005,-6.129944062315205
-0.44860000000000017,-6.158238288312504
-0.44960000000000006,-6.183703091710075
-0.45060000000000017,-6.210582606407511
-0.45160000000000006,-6.238876832404812
-0.45260000000000017,-6.264341635802381
-0.45360000000000006,-6.292635861799683
-0.45460000000000017,-6.320930087796984
