Jan. 12, 2025   07:47:35
Cyclic Voltammetry
File: c:/users/guazh/data/banditlqround7_x0exp772_r5/2025-01-10-exp821\exp821-2025-01-12t07_40_30-arkoh\exp821_cv_sr_400mvs_efin_-1400mv.bin
Data Source:  Experiment
Instrument Model:  CHI760E
Header: CV ran at 400 mVs
Note: 

Init E (V) = -1
High E (V) = -1
Low E (V) = -1.4
Final E (V) = -1
Init P/N = N
Scan Rate (V/s) = 0.4
Segment = 3
Sample Interval (V) = 0.001
Quiet Time (sec) = 2
Sensitivity (A/V) = 0.01
Comp R (ohm) = 1.4

Results:

Channel 1:
Segment 1:

Segment 2:

Segment 3:

Potential/V, Current/A

-1.000, -5.949e-4
-1.001, -4.777e-4
-1.002, -3.760e-4
-1.003, -2.681e-4
-1.004, -1.540e-4
-1.005, -3.992e-5
-1.006, 6.182e-5
-1.007, 1.451e-4
-1.008, 2.160e-4
-1.009, 2.869e-4
-1.010, 3.701e-4
-1.011, 4.595e-4
-1.012, 5.489e-4
-1.013, 6.260e-4
-1.014, 6.877e-4
-1.015, 7.401e-4
-1.016, 7.987e-4
-1.017, 8.727e-4
-1.018, 9.528e-4
-1.019, 1.024e-3
-1.020, 1.085e-3
-1.021, 1.132e-3
-1.022, 1.178e-3
-1.023, 1.227e-3
-1.024, 1.295e-3
-1.025, 1.366e-3
-1.026, 1.428e-3
-1.027, 1.471e-3
-1.028, 1.508e-3
-1.029, 1.548e-3
-1.030, 1.603e-3
-1.031, 1.665e-3
-1.032, 1.727e-3
-1.033, 1.779e-3
-1.034, 1.816e-3
-1.035, 1.847e-3
-1.036, 1.887e-3
-1.037, 1.939e-3
-1.038, 2.001e-3
-1.039, 2.057e-3
-1.040, 2.097e-3
-1.041, 2.128e-3
-1.042, 2.161e-3
-1.043, 2.198e-3
-1.044, 2.251e-3
-1.045, 2.309e-3
-1.046, 2.359e-3
-1.047, 2.393e-3
-1.048, 2.417e-3
-1.049, 2.448e-3
-1.050, 2.491e-3
-1.051, 2.544e-3
-1.052, 2.596e-3
-1.053, 2.639e-3
-1.054, 2.670e-3
-1.055, 2.692e-3
-1.056, 2.726e-3
-1.057, 2.772e-3
-1.058, 2.824e-3
-1.059, 2.877e-3
-1.060, 2.914e-3
-1.061, 2.938e-3
-1.062, 2.966e-3
-1.063, 3.000e-3
-1.064, 3.046e-3
-1.065, 3.105e-3
-1.066, 3.154e-3
-1.067, 3.188e-3
-1.068, 3.216e-3
-1.069, 3.241e-3
-1.070, 3.287e-3
-1.071, 3.339e-3
-1.072, 3.395e-3
-1.073, 3.441e-3
-1.074, 3.472e-3
-1.075, 3.499e-3
-1.076, 3.533e-3
-1.077, 3.580e-3
-1.078, 3.635e-3
-1.079, 3.688e-3
-1.080, 3.725e-3
-1.081, 3.752e-3
-1.082, 3.777e-3
-1.083, 3.814e-3
-1.084, 3.863e-3
-1.085, 3.922e-3
-1.086, 3.968e-3
-1.087, 4.005e-3
-1.088, 4.030e-3
-1.089, 4.058e-3
-1.090, 4.098e-3
-1.091, 4.153e-3
-1.092, 4.212e-3
-1.093, 4.255e-3
-1.094, 4.286e-3
-1.095, 4.310e-3
-1.096, 4.347e-3
-1.097, 4.394e-3
-1.098, 4.449e-3
-1.099, 4.501e-3
-1.100, 4.545e-3
-1.101, 4.572e-3
-1.102, 4.600e-3
-1.103, 4.634e-3
-1.104, 4.686e-3
-1.105, 4.745e-3
-1.106, 4.797e-3
-1.107, 4.834e-3
-1.108, 4.862e-3
-1.109, 4.890e-3
-1.110, 4.936e-3
-1.111, 4.992e-3
-1.112, 5.050e-3
-1.113, 5.100e-3
-1.114, 5.130e-3
-1.115, 5.158e-3
-1.116, 5.192e-3
-1.117, 5.245e-3
-1.118, 5.297e-3
-1.119, 5.352e-3
-1.120, 5.389e-3
-1.121, 5.420e-3
-1.122, 5.451e-3
-1.123, 5.488e-3
-1.124, 5.544e-3
-1.125, 5.605e-3
-1.126, 5.658e-3
-1.127, 5.698e-3
-1.128, 5.725e-3
-1.129, 5.756e-3
-1.130, 5.803e-3
-1.131, 5.867e-3
-1.132, 5.926e-3
-1.133, 5.972e-3
-1.134, 6.012e-3
-1.135, 6.043e-3
-1.136, 6.080e-3
-1.137, 6.132e-3
-1.138, 6.194e-3
-1.139, 6.253e-3
-1.140, 6.299e-3
-1.141, 6.330e-3
-1.142, 6.364e-3
-1.143, 6.401e-3
-1.144, 6.456e-3
-1.145, 6.521e-3
-1.146, 6.576e-3
-1.147, 6.610e-3
-1.148, 6.641e-3
-1.149, 6.672e-3
-1.150, 6.718e-3
-1.151, 6.777e-3
-1.152, 6.835e-3
-1.153, 6.879e-3
-1.154, 6.912e-3
-1.155, 6.940e-3
-1.156, 6.977e-3
-1.157, 7.030e-3
-1.158, 7.085e-3
-1.159, 7.150e-3
-1.160, 7.196e-3
-1.161, 7.230e-3
-1.162, 7.261e-3
-1.163, 7.301e-3
-1.164, 7.350e-3
-1.165, 7.409e-3
-1.166, 7.461e-3
-1.167, 7.501e-3
-1.168, 7.532e-3
-1.169, 7.563e-3
-1.170, 7.612e-3
-1.171, 7.671e-3
-1.172, 7.733e-3
-1.173, 7.782e-3
-1.174, 7.819e-3
-1.175, 7.847e-3
-1.176, 7.884e-3
-1.177, 7.939e-3
-1.178, 7.998e-3
-1.179, 8.056e-3
-1.180, 8.103e-3
-1.181, 8.140e-3
-1.182, 8.173e-3
-1.183, 8.217e-3
-1.184, 8.272e-3
-1.185, 8.334e-3
-1.186, 8.389e-3
-1.187, 8.432e-3
-1.188, 8.466e-3
-1.189, 8.503e-3
-1.190, 8.556e-3
-1.191, 8.614e-3
-1.192, 8.673e-3
-1.193, 8.728e-3
-1.194, 8.765e-3
-1.195, 8.799e-3
-1.196, 8.839e-3
-1.197, 8.895e-3
-1.198, 8.957e-3
-1.199, 9.012e-3
-1.200, 9.052e-3
-1.201, 9.086e-3
-1.202, 9.117e-3
-1.203, 9.163e-3
-1.204, 9.225e-3
-1.205, 9.290e-3
-1.206, 9.342e-3
-1.207, 9.379e-3
-1.208, 9.407e-3
-1.209, 9.441e-3
-1.210, 9.484e-3
-1.211, 9.542e-3
-1.212, 9.601e-3
-1.213, 9.660e-3
-1.214, 9.693e-3
-1.215, 9.724e-3
-1.216, 9.761e-3
-1.217, 9.817e-3
-1.218, 9.882e-3
-1.219, 9.937e-3
-1.220, 9.980e-3
-1.221, 1.001e-2
-1.222, 1.003e-2
-1.223, 1.007e-2
-1.224, 1.012e-2
-1.225, 1.019e-2
-1.226, 1.024e-2
-1.227, 1.028e-2
-1.228, 1.031e-2
-1.229, 1.035e-2
-1.230, 1.039e-2
-1.231, 1.045e-2
-1.232, 1.051e-2
-1.233, 1.056e-2
-1.234, 1.060e-2
-1.235, 1.063e-2
-1.236, 1.066e-2
-1.237, 1.072e-2
-1.238, 1.078e-2
-1.239, 1.084e-2
-1.240, 1.088e-2
-1.241, 1.091e-2
-1.242, 1.094e-2
-1.243, 1.099e-2
-1.244, 1.104e-2
-1.245, 1.110e-2
-1.246, 1.115e-2
-1.247, 1.119e-2
-1.248, 1.122e-2
-1.249, 1.125e-2
-1.250, 1.130e-2
-1.251, 1.135e-2
-1.252, 1.142e-2
-1.253, 1.148e-2
-1.254, 1.152e-2
-1.255, 1.154e-2
-1.256, 1.158e-2
-1.257, 1.163e-2
-1.258, 1.169e-2
-1.259, 1.174e-2
-1.260, 1.179e-2
-1.261, 1.182e-2
-1.262, 1.185e-2
-1.263, 1.189e-2
-1.264, 1.194e-2
-1.265, 1.201e-2
-1.266, 1.206e-2
-1.267, 1.210e-2
-1.268, 1.213e-2
-1.269, 1.216e-2
-1.270, 1.221e-2
-1.271, 1.227e-2
-1.272, 1.233e-2
-1.273, 1.238e-2
-1.274, 1.241e-2
-1.275, 1.244e-2
-1.276, 1.248e-2
-1.277, 1.253e-2
-1.278, 1.259e-2
-1.279, 1.265e-2
-1.280, 1.269e-2
-1.281, 1.272e-2
-1.282, 1.275e-2
-1.283, 1.279e-2
-1.284, 1.284e-2
-1.285, 1.291e-2
-1.286, 1.296e-2
-1.287, 1.300e-2
-1.288, 1.302e-2
-1.289, 1.305e-2
-1.290, 1.309e-2
-1.291, 1.315e-2
-1.292, 1.320e-2
-1.293, 1.325e-2
-1.294, 1.328e-2
-1.295, 1.331e-2
-1.296, 1.335e-2
-1.297, 1.341e-2
-1.298, 1.347e-2
-1.299, 1.353e-2
-1.300, 1.357e-2
-1.301, 1.360e-2
-1.302, 1.363e-2
-1.303, 1.367e-2
-1.304, 1.372e-2
-1.305, 1.378e-2
-1.306, 1.383e-2
-1.307, 1.386e-2
-1.308, 1.388e-2
-1.309, 1.390e-2
-1.310, 1.394e-2
-1.311, 1.399e-2
-1.312, 1.405e-2
-1.313, 1.410e-2
-1.314, 1.414e-2
-1.315, 1.416e-2
-1.316, 1.418e-2
-1.317, 1.422e-2
-1.318, 1.427e-2
-1.319, 1.433e-2
-1.320, 1.437e-2
-1.321, 1.440e-2
-1.322, 1.443e-2
-1.323, 1.447e-2
-1.324, 1.453e-2
-1.325, 1.459e-2
-1.326, 1.464e-2
-1.327, 1.467e-2
-1.328, 1.469e-2
-1.329, 1.472e-2
-1.330, 1.475e-2
-1.331, 1.481e-2
-1.332, 1.486e-2
-1.333, 1.490e-2
-1.334, 1.493e-2
-1.335, 1.494e-2
-1.336, 1.496e-2
-1.337, 1.500e-2
-1.338, 1.506e-2
-1.339, 1.511e-2
-1.340, 1.515e-2
-1.341, 1.517e-2
-1.342, 1.519e-2
-1.343, 1.522e-2
-1.344, 1.527e-2
-1.345, 1.533e-2
-1.346, 1.537e-2
-1.347, 1.540e-2
-1.348, 1.542e-2
-1.349, 1.544e-2
-1.350, 1.548e-2
-1.351, 1.552e-2
-1.352, 1.557e-2
-1.353, 1.561e-2
-1.354, 1.564e-2
-1.355, 1.566e-2
-1.356, 1.569e-2
-1.357, 1.573e-2
-1.358, 1.578e-2
-1.359, 1.583e-2
-1.360, 1.586e-2
-1.361, 1.588e-2
-1.362, 1.589e-2
-1.363, 1.592e-2
-1.364, 1.595e-2
-1.365, 1.600e-2
-1.366, 1.604e-2
-1.367, 1.606e-2
-1.368, 1.608e-2
-1.369, 1.609e-2
-1.370, 1.613e-2
-1.371, 1.616e-2
-1.372, 1.620e-2
-1.373, 1.623e-2
-1.374, 1.625e-2
-1.375, 1.626e-2
-1.376, 1.628e-2
-1.377, 1.631e-2
-1.378, 1.635e-2
-1.379, 1.639e-2
-1.380, 1.642e-2
-1.381, 1.643e-2
-1.382, 1.644e-2
-1.383, 1.646e-2
-1.384, 1.650e-2
-1.385, 1.654e-2
-1.386, 1.658e-2
-1.387, 1.660e-2
-1.388, 1.661e-2
-1.389, 1.663e-2
-1.390, 1.665e-2
-1.391, 1.669e-2
-1.392, 1.673e-2
-1.393, 1.675e-2
-1.394, 1.677e-2
-1.395, 1.678e-2
-1.396, 1.679e-2
-1.397, 1.682e-2
-1.398, 1.686e-2
-1.399, 1.689e-2
-1.400, 1.681e-2
-1.399, 1.654e-2
-1.398, 1.629e-2
-1.397, 1.604e-2
-1.396, 1.582e-2
-1.395, 1.562e-2
-1.394, 1.540e-2
-1.393, 1.518e-2
-1.392, 1.495e-2
-1.391, 1.474e-2
-1.390, 1.453e-2
-1.389, 1.434e-2
-1.388, 1.415e-2
-1.387, 1.396e-2
-1.386, 1.376e-2
-1.385, 1.356e-2
-1.384, 1.336e-2
-1.383, 1.317e-2
-1.382, 1.300e-2
-1.381, 1.282e-2
-1.380, 1.264e-2
-1.379, 1.244e-2
-1.378, 1.225e-2
-1.377, 1.207e-2
-1.376, 1.190e-2
-1.375, 1.174e-2
-1.374, 1.158e-2
-1.373, 1.140e-2
-1.372, 1.122e-2
-1.371, 1.103e-2
-1.370, 1.087e-2
-1.369, 1.072e-2
-1.368, 1.057e-2
-1.367, 1.041e-2
-1.366, 1.024e-2
-1.365, 1.006e-2
-1.364, 9.900e-3
-1.363, 9.752e-3
-1.362, 9.613e-3
-1.361, 9.471e-3
-1.360, 9.317e-3
-1.359, 9.157e-3
-1.358, 8.991e-3
-1.357, 8.843e-3
-1.356, 8.707e-3
-1.355, 8.584e-3
-1.354, 8.451e-3
-1.353, 8.303e-3
-1.352, 8.143e-3
-1.351, 7.988e-3
-1.350, 7.850e-3
-1.349, 7.726e-3
-1.348, 7.600e-3
-1.347, 7.471e-3
-1.346, 7.329e-3
-1.345, 7.181e-3
-1.344, 7.039e-3
-1.343, 6.912e-3
-1.342, 6.798e-3
-1.341, 6.684e-3
-1.340, 6.555e-3
-1.339, 6.413e-3
-1.338, 6.271e-3
-1.337, 6.139e-3
-1.336, 6.028e-3
-1.335, 5.917e-3
-1.334, 5.809e-3
-1.333, 5.685e-3
-1.332, 5.550e-3
-1.331, 5.417e-3
-1.330, 5.300e-3
-1.329, 5.195e-3
-1.328, 5.100e-3
-1.327, 4.986e-3
-1.326, 4.862e-3
-1.325, 4.739e-3
-1.324, 4.616e-3
-1.323, 4.511e-3
-1.322, 4.415e-3
-1.321, 4.320e-3
-1.320, 4.209e-3
-1.319, 4.091e-3
-1.318, 3.971e-3
-1.317, 3.866e-3
-1.316, 3.771e-3
-1.315, 3.688e-3
-1.314, 3.595e-3
-1.313, 3.490e-3
-1.312, 3.376e-3
-1.311, 3.262e-3
-1.310, 3.167e-3
-1.309, 3.083e-3
-1.308, 3.003e-3
-1.307, 2.914e-3
-1.306, 2.809e-3
-1.305, 2.701e-3
-1.304, 2.599e-3
-1.303, 2.513e-3
-1.302, 2.439e-3
-1.301, 2.362e-3
-1.300, 2.269e-3
-1.299, 2.168e-3
-1.298, 2.066e-3
-1.297, 1.973e-3
-1.296, 1.896e-3
-1.295, 1.825e-3
-1.294, 1.751e-3
-1.293, 1.659e-3
-1.292, 1.560e-3
-1.291, 1.462e-3
-1.290, 1.381e-3
-1.289, 1.310e-3
-1.288, 1.246e-3
-1.287, 1.172e-3
-1.286, 1.082e-3
-1.285, 9.837e-4
-1.284, 8.973e-4
-1.283, 8.233e-4
-1.282, 7.617e-4
-1.281, 7.000e-4
-1.280, 6.168e-4
-1.279, 5.305e-4
-1.278, 4.380e-4
-1.277, 3.609e-4
-1.276, 2.961e-4
-1.275, 2.406e-4
-1.274, 1.759e-4
-1.273, 9.882e-5
-1.272, 1.249e-5
-1.271, -7.384e-5
-1.270, -1.417e-4
-1.269, -1.972e-4
-1.268, -2.527e-4
-1.267, -3.174e-4
-1.266, -3.945e-4
-1.265, -4.777e-4
-1.264, -5.548e-4
-1.263, -6.165e-4
-1.262, -6.658e-4
-1.261, -7.182e-4
-1.260, -7.860e-4
-1.259, -8.631e-4
-1.258, -9.433e-4
-1.257, -1.011e-3
-1.256, -1.064e-3
-1.255, -1.113e-3
-1.254, -1.165e-3
-1.253, -1.230e-3
-1.252, -1.307e-3
-1.251, -1.384e-3
-1.250, -1.443e-3
-1.249, -1.489e-3
-1.248, -1.532e-3
-1.247, -1.591e-3
-1.246, -1.659e-3
-1.245, -1.733e-3
-1.244, -1.800e-3
-1.243, -1.856e-3
-1.242, -1.896e-3
-1.241, -1.942e-3
-1.240, -1.998e-3
-1.239, -2.066e-3
-1.238, -2.140e-3
-1.237, -2.198e-3
-1.236, -2.244e-3
-1.235, -2.281e-3
-1.234, -2.331e-3
-1.233, -2.389e-3
-1.232, -2.457e-3
-1.231, -2.525e-3
-1.230, -2.580e-3
-1.229, -2.620e-3
-1.228, -2.661e-3
-1.227, -2.707e-3
-1.226, -2.768e-3
-1.225, -2.836e-3
-1.224, -2.895e-3
-1.223, -2.944e-3
-1.222, -2.978e-3
-1.221, -3.018e-3
-1.220, -3.068e-3
-1.219, -3.129e-3
-1.218, -3.194e-3
-1.217, -3.253e-3
-1.216, -3.293e-3
-1.215, -3.327e-3
-1.214, -3.367e-3
-1.213, -3.422e-3
-1.212, -3.484e-3
-1.211, -3.545e-3
-1.210, -3.592e-3
-1.209, -3.632e-3
-1.208, -3.666e-3
-1.207, -3.709e-3
-1.206, -3.764e-3
-1.205, -3.829e-3
-1.204, -3.885e-3
-1.203, -3.928e-3
-1.202, -3.962e-3
-1.201, -3.996e-3
-1.200, -4.045e-3
-1.199, -4.107e-3
-1.198, -4.168e-3
-1.197, -4.221e-3
-1.196, -4.258e-3
-1.195, -4.288e-3
-1.194, -4.325e-3
-1.193, -4.378e-3
-1.192, -4.440e-3
-1.191, -4.498e-3
-1.190, -4.544e-3
-1.189, -4.578e-3
-1.188, -4.612e-3
-1.187, -4.649e-3
-1.186, -4.705e-3
-1.185, -4.766e-3
-1.184, -4.822e-3
-1.183, -4.862e-3
-1.182, -4.893e-3
-1.181, -4.924e-3
-1.180, -4.973e-3
-1.179, -5.028e-3
-1.178, -5.090e-3
-1.177, -5.142e-3
-1.176, -5.176e-3
-1.175, -5.207e-3
-1.174, -5.244e-3
-1.173, -5.297e-3
-1.172, -5.358e-3
-1.171, -5.417e-3
-1.170, -5.460e-3
-1.169, -5.491e-3
-1.168, -5.516e-3
-1.167, -5.556e-3
-1.166, -5.608e-3
-1.165, -5.664e-3
-1.164, -5.716e-3
-1.163, -5.756e-3
-1.162, -5.787e-3
-1.161, -5.821e-3
-1.160, -5.864e-3
-1.159, -5.919e-3
-1.158, -5.978e-3
-1.157, -6.027e-3
-1.156, -6.061e-3
-1.155, -6.089e-3
-1.154, -6.123e-3
-1.153, -6.169e-3
-1.152, -6.228e-3
-1.151, -6.289e-3
-1.150, -6.333e-3
-1.149, -6.360e-3
-1.148, -6.391e-3
-1.147, -6.431e-3
-1.146, -6.484e-3
-1.145, -6.545e-3
-1.144, -6.598e-3
-1.143, -6.641e-3
-1.142, -6.666e-3
-1.141, -6.693e-3
-1.140, -6.740e-3
-1.139, -6.795e-3
-1.138, -6.857e-3
-1.137, -6.906e-3
-1.136, -6.937e-3
-1.135, -6.958e-3
-1.134, -6.986e-3
-1.133, -7.032e-3
-1.132, -7.091e-3
-1.131, -7.146e-3
-1.130, -7.183e-3
-1.129, -7.211e-3
-1.128, -7.233e-3
-1.127, -7.267e-3
-1.126, -7.319e-3
-1.125, -7.378e-3
-1.124, -7.430e-3
-1.123, -7.467e-3
-1.122, -7.492e-3
-1.121, -7.520e-3
-1.120, -7.560e-3
-1.119, -7.615e-3
-1.118, -7.671e-3
-1.117, -7.723e-3
-1.116, -7.757e-3
-1.115, -7.782e-3
-1.114, -7.812e-3
-1.113, -7.862e-3
-1.112, -7.923e-3
-1.111, -7.976e-3
-1.110, -8.025e-3
-1.109, -8.053e-3
-1.108, -8.081e-3
-1.107, -8.115e-3
-1.106, -8.164e-3
-1.105, -8.216e-3
-1.104, -8.266e-3
-1.103, -8.300e-3
-1.102, -8.327e-3
-1.101, -8.358e-3
-1.100, -8.398e-3
-1.099, -8.454e-3
-1.098, -8.503e-3
-1.097, -8.549e-3
-1.096, -8.580e-3
-1.095, -8.608e-3
-1.094, -8.639e-3
-1.093, -8.682e-3
-1.092, -8.734e-3
-1.091, -8.790e-3
-1.090, -8.827e-3
-1.089, -8.855e-3
-1.088, -8.882e-3
-1.087, -8.916e-3
-1.086, -8.966e-3
-1.085, -9.021e-3
-1.084, -9.070e-3
-1.083, -9.107e-3
-1.082, -9.129e-3
-1.081, -9.154e-3
-1.080, -9.191e-3
-1.079, -9.243e-3
-1.078, -9.295e-3
-1.077, -9.342e-3
-1.076, -9.372e-3
-1.075, -9.394e-3
-1.074, -9.422e-3
-1.073, -9.468e-3
-1.072, -9.527e-3
-1.071, -9.576e-3
-1.070, -9.613e-3
-1.069, -9.635e-3
-1.068, -9.653e-3
-1.067, -9.681e-3
-1.066, -9.730e-3
-1.065, -9.786e-3
-1.064, -9.832e-3
-1.063, -9.866e-3
-1.062, -9.884e-3
-1.061, -9.906e-3
-1.060, -9.943e-3
-1.059, -9.992e-3
-1.058, -1.004e-2
-1.057, -1.009e-2
-1.056, -1.012e-2
-1.055, -1.013e-2
-1.054, -1.015e-2
-1.053, -1.019e-2
-1.052, -1.025e-2
-1.051, -1.029e-2
-1.050, -1.033e-2
-1.049, -1.035e-2
-1.048, -1.037e-2
-1.047, -1.039e-2
-1.046, -1.043e-2
-1.045, -1.048e-2
-1.044, -1.053e-2
-1.043, -1.055e-2
-1.042, -1.057e-2
-1.041, -1.060e-2
-1.040, -1.063e-2
-1.039, -1.068e-2
-1.038, -1.073e-2
-1.037, -1.077e-2
-1.036, -1.079e-2
-1.035, -1.080e-2
-1.034, -1.082e-2
-1.033, -1.085e-2
-1.032, -1.089e-2
-1.031, -1.094e-2
-1.030, -1.098e-2
-1.029, -1.099e-2
-1.028, -1.101e-2
-1.027, -1.103e-2
-1.026, -1.107e-2
-1.025, -1.112e-2
-1.024, -1.117e-2
-1.023, -1.120e-2
-1.022, -1.122e-2
-1.021, -1.124e-2
-1.020, -1.127e-2
-1.019, -1.131e-2
-1.018, -1.135e-2
-1.017, -1.140e-2
-1.016, -1.142e-2
-1.015, -1.144e-2
-1.014, -1.146e-2
-1.013, -1.149e-2
-1.012, -1.154e-2
-1.011, -1.158e-2
-1.010, -1.161e-2
-1.009, -1.163e-2
-1.008, -1.164e-2
-1.007, -1.166e-2
-1.006, -1.171e-2
-1.005, -1.175e-2
-1.004, -1.179e-2
-1.003, -1.182e-2
-1.002, -1.184e-2
-1.001, -1.186e-2
