Mar. 14, 2025   22:04:56
Linear Sweep Voltammetry
File: c:/users/guazh/data/banditlqround7_x0exp891_r5/2025-03-03-exp896\1acid_3ac-2025-03-14t22_01_40-lsvinphos\1acid_3ac_lsv_50mvs_efin_-2300mv.bin
Data Source:  Experiment
Instrument Model:  CHI760E
Header: LSV ran at 50 mVs with Efin at -2300mV
Note: 

Init E (V) = -0.6
Final E (V) = -2.3
Scan Rate (V/s) = 0.05
Sample Interval (V) = 0.001
Quiet Time (sec) = 2
Sensitivity (A/V) = 1e-4
Comp R (ohm) = 8.9

Results:

Channel 1:
Ep = -1.889V
ip = 7.038e-4A
Ah = 7.949e-4C

Potential/V, Current/A

-0.600, 2.667e-6
-0.601, 2.766e-6
-0.602, 2.809e-6
-0.603, 2.844e-6
-0.604, 2.876e-6
-0.605, 2.906e-6
-0.606, 2.935e-6
-0.607, 2.964e-6
-0.608, 2.994e-6
-0.609, 3.026e-6
-0.610, 3.053e-6
-0.611, 3.083e-6
-0.612, 3.110e-6
-0.613, 3.140e-6
-0.614, 3.172e-6
-0.615, 3.202e-6
-0.616, 3.229e-6
-0.617, 3.257e-6
-0.618, 3.286e-6
-0.619, 3.318e-6
-0.620, 3.347e-6
-0.621, 3.376e-6
-0.622, 3.404e-6
-0.623, 3.435e-6
-0.624, 3.467e-6
-0.625, 3.497e-6
-0.626, 3.523e-6
-0.627, 3.553e-6
-0.628, 3.585e-6
-0.629, 3.616e-6
-0.630, 3.646e-6
-0.631, 3.676e-6
-0.632, 3.705e-6
-0.633, 3.739e-6
-0.634, 3.769e-6
-0.635, 3.800e-6
-0.636, 3.830e-6
-0.637, 3.859e-6
-0.638, 3.892e-6
-0.639, 3.923e-6
-0.640, 3.954e-6
-0.641, 3.986e-6
-0.642, 4.015e-6
-0.643, 4.048e-6
-0.644, 4.080e-6
-0.645, 4.110e-6
-0.646, 4.139e-6
-0.647, 4.169e-6
-0.648, 4.201e-6
-0.649, 4.233e-6
-0.650, 4.263e-6
-0.651, 4.294e-6
-0.652, 4.325e-6
-0.653, 4.358e-6
-0.654, 4.390e-6
-0.655, 4.421e-6
-0.656, 4.451e-6
-0.657, 4.483e-6
-0.658, 4.516e-6
-0.659, 4.552e-6
-0.660, 4.582e-6
-0.661, 4.612e-6
-0.662, 4.643e-6
-0.663, 4.676e-6
-0.664, 4.709e-6
-0.665, 4.740e-6
-0.666, 4.771e-6
-0.667, 4.803e-6
-0.668, 4.836e-6
-0.669, 4.867e-6
-0.670, 4.897e-6
-0.671, 4.927e-6
-0.672, 4.959e-6
-0.673, 4.992e-6
-0.674, 5.025e-6
-0.675, 5.055e-6
-0.676, 5.085e-6
-0.677, 5.114e-6
-0.678, 5.147e-6
-0.679, 5.179e-6
-0.680, 5.209e-6
-0.681, 5.238e-6
-0.682, 5.267e-6
-0.683, 5.299e-6
-0.684, 5.331e-6
-0.685, 5.359e-6
-0.686, 5.387e-6
-0.687, 5.416e-6
-0.688, 5.446e-6
-0.689, 5.479e-6
-0.690, 5.507e-6
-0.691, 5.535e-6
-0.692, 5.564e-6
-0.693, 5.594e-6
-0.694, 5.624e-6
-0.695, 5.649e-6
-0.696, 5.676e-6
-0.697, 5.703e-6
-0.698, 5.732e-6
-0.699, 5.762e-6
-0.700, 5.789e-6
-0.701, 5.814e-6
-0.702, 5.840e-6
-0.703, 5.868e-6
-0.704, 5.895e-6
-0.705, 5.918e-6
-0.706, 5.940e-6
-0.707, 5.964e-6
-0.708, 5.991e-6
-0.709, 6.018e-6
-0.710, 6.040e-6
-0.711, 6.062e-6
-0.712, 6.087e-6
-0.713, 6.113e-6
-0.714, 6.136e-6
-0.715, 6.157e-6
-0.716, 6.178e-6
-0.717, 6.198e-6
-0.718, 6.221e-6
-0.719, 6.242e-6
-0.720, 6.261e-6
-0.721, 6.282e-6
-0.722, 6.301e-6
-0.723, 6.323e-6
-0.724, 6.345e-6
-0.725, 6.363e-6
-0.726, 6.381e-6
-0.727, 6.399e-6
-0.728, 6.420e-6
-0.729, 6.439e-6
-0.730, 6.455e-6
-0.731, 6.470e-6
-0.732, 6.486e-6
-0.733, 6.504e-6
-0.734, 6.523e-6
-0.735, 6.536e-6
-0.736, 6.550e-6
-0.737, 6.566e-6
-0.738, 6.581e-6
-0.739, 6.597e-6
-0.740, 6.609e-6
-0.741, 6.622e-6
-0.742, 6.634e-6
-0.743, 6.650e-6
-0.744, 6.662e-6
-0.745, 6.673e-6
-0.746, 6.682e-6
-0.747, 6.694e-6
-0.748, 6.706e-6
-0.749, 6.718e-6
-0.750, 6.726e-6
-0.751, 6.733e-6
-0.752, 6.742e-6
-0.753, 6.753e-6
-0.754, 6.763e-6
-0.755, 6.770e-6
-0.756, 6.777e-6
-0.757, 6.783e-6
-0.758, 6.792e-6
-0.759, 6.799e-6
-0.760, 6.804e-6
-0.761, 6.809e-6
-0.762, 6.813e-6
-0.763, 6.821e-6
-0.764, 6.827e-6
-0.765, 6.829e-6
-0.766, 6.832e-6
-0.767, 6.836e-6
-0.768, 6.843e-6
-0.769, 6.847e-6
-0.770, 6.846e-6
-0.771, 6.849e-6
-0.772, 6.851e-6
-0.773, 6.854e-6
-0.774, 6.856e-6
-0.775, 6.855e-6
-0.776, 6.855e-6
-0.777, 6.855e-6
-0.778, 6.857e-6
-0.779, 6.857e-6
-0.780, 6.855e-6
-0.781, 6.853e-6
-0.782, 6.853e-6
-0.783, 6.853e-6
-0.784, 6.853e-6
-0.785, 6.848e-6
-0.786, 6.845e-6
-0.787, 6.843e-6
-0.788, 6.843e-6
-0.789, 6.840e-6
-0.790, 6.836e-6
-0.791, 6.831e-6
-0.792, 6.828e-6
-0.793, 6.827e-6
-0.794, 6.823e-6
-0.795, 6.818e-6
-0.796, 6.813e-6
-0.797, 6.807e-6
-0.798, 6.805e-6
-0.799, 6.800e-6
-0.800, 6.794e-6
-0.801, 6.787e-6
-0.802, 6.779e-6
-0.803, 6.777e-6
-0.804, 6.771e-6
-0.805, 6.763e-6
-0.806, 6.757e-6
-0.807, 6.750e-6
-0.808, 6.746e-6
-0.809, 6.740e-6
-0.810, 6.731e-6
-0.811, 6.723e-6
-0.812, 6.717e-6
-0.813, 6.711e-6
-0.814, 6.704e-6
-0.815, 6.695e-6
-0.816, 6.686e-6
-0.817, 6.679e-6
-0.818, 6.673e-6
-0.819, 6.670e-6
-0.820, 6.661e-6
-0.821, 6.649e-6
-0.822, 6.641e-6
-0.823, 6.637e-6
-0.824, 6.626e-6
-0.825, 6.616e-6
-0.826, 6.607e-6
-0.827, 6.598e-6
-0.828, 6.592e-6
-0.829, 6.583e-6
-0.830, 6.572e-6
-0.831, 6.563e-6
-0.832, 6.555e-6
-0.833, 6.548e-6
-0.834, 6.537e-6
-0.835, 6.527e-6
-0.836, 6.516e-6
-0.837, 6.508e-6
-0.838, 6.500e-6
-0.839, 6.492e-6
-0.840, 6.481e-6
-0.841, 6.472e-6
-0.842, 6.462e-6
-0.843, 6.455e-6
-0.844, 6.446e-6
-0.845, 6.435e-6
-0.846, 6.425e-6
-0.847, 6.417e-6
-0.848, 6.409e-6
-0.849, 6.400e-6
-0.850, 6.387e-6
-0.851, 6.378e-6
-0.852, 6.369e-6
-0.853, 6.361e-6
-0.854, 6.352e-6
-0.855, 6.342e-6
-0.856, 6.330e-6
-0.857, 6.321e-6
-0.858, 6.314e-6
-0.859, 6.306e-6
-0.860, 6.293e-6
-0.861, 6.283e-6
-0.862, 6.275e-6
-0.863, 6.268e-6
-0.864, 6.258e-6
-0.865, 6.248e-6
-0.866, 6.238e-6
-0.867, 6.229e-6
-0.868, 6.223e-6
-0.869, 6.214e-6
-0.870, 6.205e-6
-0.871, 6.197e-6
-0.872, 6.187e-6
-0.873, 6.183e-6
-0.874, 6.174e-6
-0.875, 6.162e-6
-0.876, 6.153e-6
-0.877, 6.145e-6
-0.878, 6.139e-6
-0.879, 6.130e-6
-0.880, 6.120e-6
-0.881, 6.110e-6
-0.882, 6.102e-6
-0.883, 6.096e-6
-0.884, 6.088e-6
-0.885, 6.077e-6
-0.886, 6.068e-6
-0.887, 6.060e-6
-0.888, 6.053e-6
-0.889, 6.045e-6
-0.890, 6.035e-6
-0.891, 6.026e-6
-0.892, 6.020e-6
-0.893, 6.012e-6
-0.894, 6.004e-6
-0.895, 5.995e-6
-0.896, 5.986e-6
-0.897, 5.979e-6
-0.898, 5.973e-6
-0.899, 5.964e-6
-0.900, 5.954e-6
-0.901, 5.947e-6
-0.902, 5.941e-6
-0.903, 5.936e-6
-0.904, 5.927e-6
-0.905, 5.920e-6
-0.906, 5.911e-6
-0.907, 5.905e-6
-0.908, 5.901e-6
-0.909, 5.893e-6
-0.910, 5.886e-6
-0.911, 5.878e-6
-0.912, 5.872e-6
-0.913, 5.867e-6
-0.914, 5.859e-6
-0.915, 5.852e-6
-0.916, 5.845e-6
-0.917, 5.837e-6
-0.918, 5.834e-6
-0.919, 5.825e-6
-0.920, 5.816e-6
-0.921, 5.810e-6
-0.922, 5.804e-6
-0.923, 5.800e-6
-0.924, 5.792e-6
-0.925, 5.785e-6
-0.926, 5.777e-6
-0.927, 5.771e-6
-0.928, 5.767e-6
-0.929, 5.759e-6
-0.930, 5.752e-6
-0.931, 5.744e-6
-0.932, 5.739e-6
-0.933, 5.734e-6
-0.934, 5.729e-6
-0.935, 5.721e-6
-0.936, 5.714e-6
-0.937, 5.709e-6
-0.938, 5.704e-6
-0.939, 5.699e-6
-0.940, 5.692e-6
-0.941, 5.685e-6
-0.942, 5.680e-6
-0.943, 5.676e-6
-0.944, 5.670e-6
-0.945, 5.665e-6
-0.946, 5.658e-6
-0.947, 5.654e-6
-0.948, 5.651e-6
-0.949, 5.645e-6
-0.950, 5.639e-6
-0.951, 5.632e-6
-0.952, 5.627e-6
-0.953, 5.626e-6
-0.954, 5.621e-6
-0.955, 5.614e-6
-0.956, 5.608e-6
-0.957, 5.604e-6
-0.958, 5.601e-6
-0.959, 5.595e-6
-0.960, 5.589e-6
-0.961, 5.583e-6
-0.962, 5.579e-6
-0.963, 5.576e-6
-0.964, 5.571e-6
-0.965, 5.565e-6
-0.966, 5.561e-6
-0.967, 5.557e-6
-0.968, 5.554e-6
-0.969, 5.549e-6
-0.970, 5.542e-6
-0.971, 5.537e-6
-0.972, 5.534e-6
-0.973, 5.533e-6
-0.974, 5.527e-6
-0.975, 5.522e-6
-0.976, 5.516e-6
-0.977, 5.513e-6
-0.978, 5.510e-6
-0.979, 5.505e-6
-0.980, 5.501e-6
-0.981, 5.496e-6
-0.982, 5.492e-6
-0.983, 5.490e-6
-0.984, 5.486e-6
-0.985, 5.480e-6
-0.986, 5.475e-6
-0.987, 5.473e-6
-0.988, 5.472e-6
-0.989, 5.466e-6
-0.990, 5.462e-6
-0.991, 5.456e-6
-0.992, 5.455e-6
-0.993, 5.453e-6
-0.994, 5.447e-6
-0.995, 5.444e-6
-0.996, 5.439e-6
-0.997, 5.437e-6
-0.998, 5.436e-6
-0.999, 5.431e-6
-1.000, 5.427e-6
-1.001, 5.422e-6
-1.002, 5.420e-6
-1.003, 5.419e-6
-1.004, 5.415e-6
-1.005, 5.410e-6
-1.006, 5.407e-6
-1.007, 5.404e-6
-1.008, 5.404e-6
-1.009, 5.400e-6
-1.010, 5.395e-6
-1.011, 5.392e-6
-1.012, 5.391e-6
-1.013, 5.388e-6
-1.014, 5.386e-6
-1.015, 5.380e-6
-1.016, 5.377e-6
-1.017, 5.377e-6
-1.018, 5.375e-6
-1.019, 5.370e-6
-1.020, 5.367e-6
-1.021, 5.364e-6
-1.022, 5.363e-6
-1.023, 5.361e-6
-1.024, 5.359e-6
-1.025, 5.357e-6
-1.026, 5.351e-6
-1.027, 5.350e-6
-1.028, 5.350e-6
-1.029, 5.345e-6
-1.030, 5.343e-6
-1.031, 5.339e-6
-1.032, 5.337e-6
-1.033, 5.337e-6
-1.034, 5.333e-6
-1.035, 5.330e-6
-1.036, 5.327e-6
-1.037, 5.326e-6
-1.038, 5.325e-6
-1.039, 5.321e-6
-1.040, 5.319e-6
-1.041, 5.315e-6
-1.042, 5.314e-6
-1.043, 5.315e-6
-1.044, 5.311e-6
-1.045, 5.308e-6
-1.046, 5.306e-6
-1.047, 5.305e-6
-1.048, 5.303e-6
-1.049, 5.302e-6
-1.050, 5.300e-6
-1.051, 5.296e-6
-1.052, 5.296e-6
-1.053, 5.295e-6
-1.054, 5.291e-6
-1.055, 5.289e-6
-1.056, 5.288e-6
-1.057, 5.288e-6
-1.058, 5.287e-6
-1.059, 5.285e-6
-1.060, 5.282e-6
-1.061, 5.280e-6
-1.062, 5.279e-6
-1.063, 5.280e-6
-1.064, 5.277e-6
-1.065, 5.275e-6
-1.066, 5.272e-6
-1.067, 5.272e-6
-1.068, 5.272e-6
-1.069, 5.269e-6
-1.070, 5.268e-6
-1.071, 5.265e-6
-1.072, 5.267e-6
-1.073, 5.267e-6
-1.074, 5.264e-6
-1.075, 5.263e-6
-1.076, 5.262e-6
-1.077, 5.262e-6
-1.078, 5.262e-6
-1.079, 5.260e-6
-1.080, 5.258e-6
-1.081, 5.258e-6
-1.082, 5.257e-6
-1.083, 5.257e-6
-1.084, 5.256e-6
-1.085, 5.254e-6
-1.086, 5.252e-6
-1.087, 5.253e-6
-1.088, 5.254e-6
-1.089, 5.253e-6
-1.090, 5.250e-6
-1.091, 5.250e-6
-1.092, 5.251e-6
-1.093, 5.251e-6
-1.094, 5.251e-6
-1.095, 5.248e-6
-1.096, 5.247e-6
-1.097, 5.249e-6
-1.098, 5.249e-6
-1.099, 5.247e-6
-1.100, 5.247e-6
-1.101, 5.245e-6
-1.102, 5.248e-6
-1.103, 5.248e-6
-1.104, 5.247e-6
-1.105, 5.247e-6
-1.106, 5.245e-6
-1.107, 5.247e-6
-1.108, 5.248e-6
-1.109, 5.246e-6
-1.110, 5.247e-6
-1.111, 5.245e-6
-1.112, 5.247e-6
-1.113, 5.248e-6
-1.114, 5.248e-6
-1.115, 5.247e-6
-1.116, 5.246e-6
-1.117, 5.248e-6
-1.118, 5.250e-6
-1.119, 5.250e-6
-1.120, 5.248e-6
-1.121, 5.249e-6
-1.122, 5.251e-6
-1.123, 5.252e-6
-1.124, 5.251e-6
-1.125, 5.250e-6
-1.126, 5.252e-6
-1.127, 5.254e-6
-1.128, 5.255e-6
-1.129, 5.254e-6
-1.130, 5.254e-6
-1.131, 5.254e-6
-1.132, 5.258e-6
-1.133, 5.259e-6
-1.134, 5.259e-6
-1.135, 5.258e-6
-1.136, 5.259e-6
-1.137, 5.261e-6
-1.138, 5.262e-6
-1.139, 5.264e-6
-1.140, 5.262e-6
-1.141, 5.263e-6
-1.142, 5.267e-6
-1.143, 5.267e-6
-1.144, 5.267e-6
-1.145, 5.268e-6
-1.146, 5.268e-6
-1.147, 5.271e-6
-1.148, 5.273e-6
-1.149, 5.272e-6
-1.150, 5.274e-6
-1.151, 5.275e-6
-1.152, 5.277e-6
-1.153, 5.281e-6
-1.154, 5.280e-6
-1.155, 5.281e-6
-1.156, 5.281e-6
-1.157, 5.286e-6
-1.158, 5.286e-6
-1.159, 5.286e-6
-1.160, 5.286e-6
-1.161, 5.288e-6
-1.162, 5.290e-6
-1.163, 5.293e-6
-1.164, 5.293e-6
-1.165, 5.294e-6
-1.166, 5.296e-6
-1.167, 5.299e-6
-1.168, 5.302e-6
-1.169, 5.301e-6
-1.170, 5.300e-6
-1.171, 5.303e-6
-1.172, 5.307e-6
-1.173, 5.308e-6
-1.174, 5.308e-6
-1.175, 5.308e-6
-1.176, 5.309e-6
-1.177, 5.313e-6
-1.178, 5.317e-6
-1.179, 5.318e-6
-1.180, 5.318e-6
-1.181, 5.317e-6
-1.182, 5.323e-6
-1.183, 5.324e-6
-1.184, 5.324e-6
-1.185, 5.327e-6
-1.186, 5.327e-6
-1.187, 5.331e-6
-1.188, 5.333e-6
-1.189, 5.333e-6
-1.190, 5.335e-6
-1.191, 5.336e-6
-1.192, 5.340e-6
-1.193, 5.342e-6
-1.194, 5.342e-6
-1.195, 5.343e-6
-1.196, 5.347e-6
-1.197, 5.349e-6
-1.198, 5.351e-6
-1.199, 5.351e-6
-1.200, 5.353e-6
-1.201, 5.356e-6
-1.202, 5.359e-6
-1.203, 5.362e-6
-1.204, 5.363e-6
-1.205, 5.364e-6
-1.206, 5.368e-6
-1.207, 5.371e-6
-1.208, 5.372e-6
-1.209, 5.373e-6
-1.210, 5.374e-6
-1.211, 5.375e-6
-1.212, 5.380e-6
-1.213, 5.382e-6
-1.214, 5.383e-6
-1.215, 5.385e-6
-1.216, 5.388e-6
-1.217, 5.392e-6
-1.218, 5.393e-6
-1.219, 5.396e-6
-1.220, 5.396e-6
-1.221, 5.398e-6
-1.222, 5.401e-6
-1.223, 5.404e-6
-1.224, 5.405e-6
-1.225, 5.407e-6
-1.226, 5.409e-6
-1.227, 5.413e-6
-1.228, 5.416e-6
-1.229, 5.420e-6
-1.230, 5.422e-6
-1.231, 5.423e-6
-1.232, 5.427e-6
-1.233, 5.430e-6
-1.234, 5.430e-6
-1.235, 5.433e-6
-1.236, 5.436e-6
-1.237, 5.439e-6
-1.238, 5.442e-6
-1.239, 5.443e-6
-1.240, 5.444e-6
-1.241, 5.448e-6
-1.242, 5.453e-6
-1.243, 5.456e-6
-1.244, 5.457e-6
-1.245, 5.458e-6
-1.246, 5.462e-6
-1.247, 5.466e-6
-1.248, 5.470e-6
-1.249, 5.471e-6
-1.250, 5.473e-6
-1.251, 5.477e-6
-1.252, 5.482e-6
-1.253, 5.484e-6
-1.254, 5.486e-6
-1.255, 5.488e-6
-1.256, 5.490e-6
-1.257, 5.495e-6
-1.258, 5.500e-6
-1.259, 5.501e-6
-1.260, 5.505e-6
-1.261, 5.508e-6
-1.262, 5.514e-6
-1.263, 5.517e-6
-1.264, 5.519e-6
-1.265, 5.523e-6
-1.266, 5.525e-6
-1.267, 5.531e-6
-1.268, 5.536e-6
-1.269, 5.536e-6
-1.270, 5.540e-6
-1.271, 5.543e-6
-1.272, 5.549e-6
-1.273, 5.551e-6
-1.274, 5.554e-6
-1.275, 5.559e-6
-1.276, 5.563e-6
-1.277, 5.568e-6
-1.278, 5.571e-6
-1.279, 5.575e-6
-1.280, 5.581e-6
-1.281, 5.586e-6
-1.282, 5.590e-6
-1.283, 5.595e-6
-1.284, 5.599e-6
-1.285, 5.600e-6
-1.286, 5.606e-6
-1.287, 5.612e-6
-1.288, 5.616e-6
-1.289, 5.619e-6
-1.290, 5.624e-6
-1.291, 5.628e-6
-1.292, 5.634e-6
-1.293, 5.639e-6
-1.294, 5.642e-6
-1.295, 5.647e-6
-1.296, 5.651e-6
-1.297, 5.659e-6
-1.298, 5.663e-6
-1.299, 5.667e-6
-1.300, 5.670e-6
-1.301, 5.676e-6
-1.302, 5.683e-6
-1.303, 5.687e-6
-1.304, 5.691e-6
-1.305, 5.697e-6
-1.306, 5.703e-6
-1.307, 5.711e-6
-1.308, 5.717e-6
-1.309, 5.720e-6
-1.310, 5.725e-6
-1.311, 5.733e-6
-1.312, 5.741e-6
-1.313, 5.749e-6
-1.314, 5.753e-6
-1.315, 5.759e-6
-1.316, 5.767e-6
-1.317, 5.776e-6
-1.318, 5.784e-6
-1.319, 5.790e-6
-1.320, 5.794e-6
-1.321, 5.802e-6
-1.322, 5.811e-6
-1.323, 5.816e-6
-1.324, 5.822e-6
-1.325, 5.831e-6
-1.326, 5.839e-6
-1.327, 5.848e-6
-1.328, 5.857e-6
-1.329, 5.863e-6
-1.330, 5.869e-6
-1.331, 5.879e-6
-1.332, 5.890e-6
-1.333, 5.895e-6
-1.334, 5.902e-6
-1.335, 5.909e-6
-1.336, 5.918e-6
-1.337, 5.929e-6
-1.338, 5.937e-6
-1.339, 5.945e-6
-1.340, 5.952e-6
-1.341, 5.962e-6
-1.342, 5.973e-6
-1.343, 5.982e-6
-1.344, 5.992e-6
-1.345, 6.000e-6
-1.346, 6.009e-6
-1.347, 6.026e-6
-1.348, 6.034e-6
-1.349, 6.042e-6
-1.350, 6.051e-6
-1.351, 6.062e-6
-1.352, 6.076e-6
-1.353, 6.089e-6
-1.354, 6.098e-6
-1.355, 6.107e-6
-1.356, 6.120e-6
-1.357, 6.135e-6
-1.358, 6.146e-6
-1.359, 6.156e-6
-1.360, 6.166e-6
-1.361, 6.178e-6
-1.362, 6.189e-6
-1.363, 6.201e-6
-1.364, 6.208e-6
-1.365, 6.220e-6
-1.366, 6.233e-6
-1.367, 6.245e-6
-1.368, 6.257e-6
-1.369, 6.268e-6
-1.370, 6.280e-6
-1.371, 6.297e-6
-1.372, 6.313e-6
-1.373, 6.327e-6
-1.374, 6.341e-6
-1.375, 6.353e-6
-1.376, 6.371e-6
-1.377, 6.388e-6
-1.378, 6.402e-6
-1.379, 6.417e-6
-1.380, 6.431e-6
-1.381, 6.447e-6
-1.382, 6.469e-6
-1.383, 6.484e-6
-1.384, 6.497e-6
-1.385, 6.513e-6
-1.386, 6.530e-6
-1.387, 6.551e-6
-1.388, 6.567e-6
-1.389, 6.586e-6
-1.390, 6.603e-6
-1.391, 6.622e-6
-1.392, 6.641e-6
-1.393, 6.657e-6
-1.394, 6.669e-6
-1.395, 6.689e-6
-1.396, 6.708e-6
-1.397, 6.731e-6
-1.398, 6.746e-6
-1.399, 6.766e-6
-1.400, 6.787e-6
-1.401, 6.810e-6
-1.402, 6.830e-6
-1.403, 6.850e-6
-1.404, 6.867e-6
-1.405, 6.888e-6
-1.406, 6.913e-6
-1.407, 6.935e-6
-1.408, 6.958e-6
-1.409, 6.979e-6
-1.410, 6.999e-6
-1.411, 7.024e-6
-1.412, 7.051e-6
-1.413, 7.074e-6
-1.414, 7.100e-6
-1.415, 7.122e-6
-1.416, 7.145e-6
-1.417, 7.169e-6
-1.418, 7.192e-6
-1.419, 7.219e-6
-1.420, 7.242e-6
-1.421, 7.270e-6
-1.422, 7.300e-6
-1.423, 7.324e-6
-1.424, 7.352e-6
-1.425, 7.379e-6
-1.426, 7.407e-6
-1.427, 7.440e-6
-1.428, 7.468e-6
-1.429, 7.500e-6
-1.430, 7.530e-6
-1.431, 7.562e-6
-1.432, 7.594e-6
-1.433, 7.624e-6
-1.434, 7.652e-6
-1.435, 7.685e-6
-1.436, 7.719e-6
-1.437, 7.753e-6
-1.438, 7.785e-6
-1.439, 7.817e-6
-1.440, 7.852e-6
-1.441, 7.889e-6
-1.442, 7.925e-6
-1.443, 7.959e-6
-1.444, 7.994e-6
-1.445, 8.029e-6
-1.446, 8.070e-6
-1.447, 8.112e-6
-1.448, 8.145e-6
-1.449, 8.183e-6
-1.450, 8.223e-6
-1.451, 8.269e-6
-1.452, 8.312e-6
-1.453, 8.352e-6
-1.454, 8.396e-6
-1.455, 8.435e-6
-1.456, 8.483e-6
-1.457, 8.526e-6
-1.458, 8.567e-6
-1.459, 8.608e-6
-1.460, 8.647e-6
-1.461, 8.692e-6
-1.462, 8.745e-6
-1.463, 8.789e-6
-1.464, 8.832e-6
-1.465, 8.874e-6
-1.466, 8.921e-6
-1.467, 8.973e-6
-1.468, 9.020e-6
-1.469, 9.064e-6
-1.470, 9.113e-6
-1.471, 9.164e-6
-1.472, 9.213e-6
-1.473, 9.266e-6
-1.474, 9.314e-6
-1.475, 9.367e-6
-1.476, 9.422e-6
-1.477, 9.479e-6
-1.478, 9.533e-6
-1.479, 9.588e-6
-1.480, 9.643e-6
-1.481, 9.698e-6
-1.482, 9.756e-6
-1.483, 9.815e-6
-1.484, 9.870e-6
-1.485, 9.927e-6
-1.486, 9.989e-6
-1.487, 1.005e-5
-1.488, 1.011e-5
-1.489, 1.015e-5
-1.490, 1.021e-5
-1.491, 1.027e-5
-1.492, 1.034e-5
-1.493, 1.040e-5
-1.494, 1.046e-5
-1.495, 1.052e-5
-1.496, 1.059e-5
-1.497, 1.066e-5
-1.498, 1.072e-5
-1.499, 1.078e-5
-1.500, 1.085e-5
-1.501, 1.091e-5
-1.502, 1.098e-5
-1.503, 1.105e-5
-1.504, 1.112e-5
-1.505, 1.118e-5
-1.506, 1.125e-5
-1.507, 1.132e-5
-1.508, 1.139e-5
-1.509, 1.146e-5
-1.510, 1.154e-5
-1.511, 1.161e-5
-1.512, 1.169e-5
-1.513, 1.176e-5
-1.514, 1.183e-5
-1.515, 1.191e-5
-1.516, 1.198e-5
-1.517, 1.205e-5
-1.518, 1.212e-5
-1.519, 1.219e-5
-1.520, 1.227e-5
-1.521, 1.235e-5
-1.522, 1.243e-5
-1.523, 1.251e-5
-1.524, 1.259e-5
-1.525, 1.267e-5
-1.526, 1.275e-5
-1.527, 1.283e-5
-1.528, 1.291e-5
-1.529, 1.299e-5
-1.530, 1.308e-5
-1.531, 1.317e-5
-1.532, 1.326e-5
-1.533, 1.334e-5
-1.534, 1.343e-5
-1.535, 1.352e-5
-1.536, 1.361e-5
-1.537, 1.370e-5
-1.538, 1.379e-5
-1.539, 1.389e-5
-1.540, 1.398e-5
-1.541, 1.408e-5
-1.542, 1.418e-5
-1.543, 1.427e-5
-1.544, 1.436e-5
-1.545, 1.446e-5
-1.546, 1.456e-5
-1.547, 1.467e-5
-1.548, 1.478e-5
-1.549, 1.488e-5
-1.550, 1.499e-5
-1.551, 1.510e-5
-1.552, 1.522e-5
-1.553, 1.534e-5
-1.554, 1.545e-5
-1.555, 1.556e-5
-1.556, 1.569e-5
-1.557, 1.581e-5
-1.558, 1.594e-5
-1.559, 1.607e-5
-1.560, 1.620e-5
-1.561, 1.633e-5
-1.562, 1.646e-5
-1.563, 1.660e-5
-1.564, 1.673e-5
-1.565, 1.687e-5
-1.566, 1.701e-5
-1.567, 1.716e-5
-1.568, 1.731e-5
-1.569, 1.746e-5
-1.570, 1.762e-5
-1.571, 1.778e-5
-1.572, 1.793e-5
-1.573, 1.809e-5
-1.574, 1.827e-5
-1.575, 1.843e-5
-1.576, 1.861e-5
-1.577, 1.878e-5
-1.578, 1.896e-5
-1.579, 1.915e-5
-1.580, 1.934e-5
-1.581, 1.954e-5
-1.582, 1.974e-5
-1.583, 1.994e-5
-1.584, 2.014e-5
-1.585, 2.035e-5
-1.586, 2.057e-5
-1.587, 2.080e-5
-1.588, 2.103e-5
-1.589, 2.125e-5
-1.590, 2.148e-5
-1.591, 2.173e-5
-1.592, 2.199e-5
-1.593, 2.224e-5
-1.594, 2.250e-5
-1.595, 2.277e-5
-1.596, 2.304e-5
-1.597, 2.333e-5
-1.598, 2.361e-5
-1.599, 2.390e-5
-1.600, 2.420e-5
-1.601, 2.450e-5
-1.602, 2.483e-5
-1.603, 2.517e-5
-1.604, 2.550e-5
-1.605, 2.583e-5
-1.606, 2.618e-5
-1.607, 2.653e-5
-1.608, 2.689e-5
-1.609, 2.726e-5
-1.610, 2.765e-5
-1.611, 2.803e-5
-1.612, 2.843e-5
-1.613, 2.883e-5
-1.614, 2.925e-5
-1.615, 2.967e-5
-1.616, 3.011e-5
-1.617, 3.055e-5
-1.618, 3.101e-5
-1.619, 3.148e-5
-1.620, 3.195e-5
-1.621, 3.245e-5
-1.622, 3.296e-5
-1.623, 3.347e-5
-1.624, 3.399e-5
-1.625, 3.453e-5
-1.626, 3.508e-5
-1.627, 3.565e-5
-1.628, 3.622e-5
-1.629, 3.682e-5
-1.630, 3.742e-5
-1.631, 3.803e-5
-1.632, 3.866e-5
-1.633, 3.928e-5
-1.634, 3.993e-5
-1.635, 4.060e-5
-1.636, 4.128e-5
-1.637, 4.199e-5
-1.638, 4.271e-5
-1.639, 4.345e-5
-1.640, 4.417e-5
-1.641, 4.494e-5
-1.642, 4.571e-5
-1.643, 4.650e-5
-1.644, 4.732e-5
-1.645, 4.815e-5
-1.646, 4.899e-5
-1.647, 4.985e-5
-1.648, 5.073e-5
-1.649, 5.161e-5
-1.650, 5.251e-5
-1.651, 5.344e-5
-1.652, 5.437e-5
-1.653, 5.533e-5
-1.654, 5.631e-5
-1.655, 5.731e-5
-1.656, 5.834e-5
-1.657, 5.938e-5
-1.658, 6.044e-5
-1.659, 6.151e-5
-1.660, 6.259e-5
-1.661, 6.371e-5
-1.662, 6.485e-5
-1.663, 6.599e-5
-1.664, 6.716e-5
-1.665, 6.835e-5
-1.666, 6.956e-5
-1.667, 7.078e-5
-1.668, 7.203e-5
-1.669, 7.328e-5
-1.670, 7.456e-5
-1.671, 7.585e-5
-1.672, 7.717e-5
-1.673, 7.852e-5
-1.674, 7.989e-5
-1.675, 8.128e-5
-1.676, 8.266e-5
-1.677, 8.408e-5
-1.678, 8.553e-5
-1.679, 8.698e-5
-1.680, 8.845e-5
-1.681, 8.993e-5
-1.682, 9.142e-5
-1.683, 9.293e-5
-1.684, 9.444e-5
-1.685, 9.599e-5
-1.686, 9.756e-5
-1.687, 9.913e-5
-1.688, 1.007e-4
-1.689, 1.023e-4
-1.690, 1.039e-4
-1.691, 1.055e-4
-1.692, 1.071e-4
-1.693, 1.087e-4
-1.694, 1.103e-4
-1.695, 1.119e-4
-1.696, 1.135e-4
-1.697, 1.151e-4
-1.698, 1.166e-4
-1.699, 1.182e-4
-1.700, 1.197e-4
-1.701, 1.212e-4
-1.702, 1.227e-4
-1.703, 1.242e-4
-1.704, 1.256e-4
-1.705, 1.270e-4
-1.706, 1.284e-4
-1.707, 1.297e-4
-1.708, 1.310e-4
-1.709, 1.322e-4
-1.710, 1.333e-4
-1.711, 1.345e-4
-1.712, 1.357e-4
-1.713, 1.368e-4
-1.714, 1.379e-4
-1.715, 1.390e-4
-1.716, 1.402e-4
-1.717, 1.414e-4
-1.718, 1.426e-4
-1.719, 1.439e-4
-1.720, 1.454e-4
-1.721, 1.468e-4
-1.722, 1.484e-4
-1.723, 1.500e-4
-1.724, 1.517e-4
-1.725, 1.535e-4
-1.726, 1.553e-4
-1.727, 1.572e-4
-1.728, 1.591e-4
-1.729, 1.611e-4
-1.730, 1.631e-4
-1.731, 1.651e-4
-1.732, 1.672e-4
-1.733, 1.693e-4
-1.734, 1.714e-4
-1.735, 1.735e-4
-1.736, 1.756e-4
-1.737, 1.777e-4
-1.738, 1.799e-4
-1.739, 1.820e-4
-1.740, 1.841e-4
-1.741, 1.862e-4
-1.742, 1.883e-4
-1.743, 1.905e-4
-1.744, 1.926e-4
-1.745, 1.947e-4
-1.746, 1.969e-4
-1.747, 1.991e-4
-1.748, 2.013e-4
-1.749, 2.035e-4
-1.750, 2.057e-4
-1.751, 2.079e-4
-1.752, 2.102e-4
-1.753, 2.125e-4
-1.754, 2.147e-4
-1.755, 2.171e-4
-1.756, 2.194e-4
-1.757, 2.218e-4
-1.758, 2.242e-4
-1.759, 2.266e-4
-1.760, 2.291e-4
-1.761, 2.316e-4
-1.762, 2.341e-4
-1.763, 2.367e-4
-1.764, 2.392e-4
-1.765, 2.419e-4
-1.766, 2.446e-4
-1.767, 2.473e-4
-1.768, 2.501e-4
-1.769, 2.528e-4
-1.770, 2.556e-4
-1.771, 2.585e-4
-1.772, 2.614e-4
-1.773, 2.643e-4
-1.774, 2.673e-4
-1.775, 2.703e-4
-1.776, 2.734e-4
-1.777, 2.765e-4
-1.778, 2.796e-4
-1.779, 2.828e-4
-1.780, 2.861e-4
-1.781, 2.893e-4
-1.782, 2.926e-4
-1.783, 2.960e-4
-1.784, 2.993e-4
-1.785, 3.027e-4
-1.786, 3.062e-4
-1.787, 3.098e-4
-1.788, 3.133e-4
-1.789, 3.169e-4
-1.790, 3.205e-4
-1.791, 3.242e-4
-1.792, 3.280e-4
-1.793, 3.318e-4
-1.794, 3.356e-4
-1.795, 3.395e-4
-1.796, 3.434e-4
-1.797, 3.474e-4
-1.798, 3.514e-4
-1.799, 3.555e-4
-1.800, 3.596e-4
-1.801, 3.638e-4
-1.802, 3.680e-4
-1.803, 3.723e-4
-1.804, 3.766e-4
-1.805, 3.810e-4
-1.806, 3.854e-4
-1.807, 3.899e-4
-1.808, 3.944e-4
-1.809, 3.990e-4
-1.810, 4.037e-4
-1.811, 4.084e-4
-1.812, 4.133e-4
-1.813, 4.181e-4
-1.814, 4.230e-4
-1.815, 4.281e-4
-1.816, 4.331e-4
-1.817, 4.382e-4
-1.818, 4.434e-4
-1.819, 4.487e-4
-1.820, 4.541e-4
-1.821, 4.595e-4
-1.822, 4.650e-4
-1.823, 4.705e-4
-1.824, 4.762e-4
-1.825, 4.818e-4
-1.826, 4.876e-4
-1.827, 4.935e-4
-1.828, 4.994e-4
-1.829, 5.054e-4
-1.830, 5.115e-4
-1.831, 5.176e-4
-1.832, 5.238e-4
-1.833, 5.301e-4
-1.834, 5.365e-4
-1.835, 5.429e-4
-1.836, 5.494e-4
-1.837, 5.560e-4
-1.838, 5.627e-4
-1.839, 5.695e-4
-1.840, 5.763e-4
-1.841, 5.832e-4
-1.842, 5.903e-4
-1.843, 5.974e-4
-1.844, 6.045e-4
-1.845, 6.118e-4
-1.846, 6.191e-4
-1.847, 6.265e-4
-1.848, 6.339e-4
-1.849, 6.415e-4
-1.850, 6.491e-4
-1.851, 6.569e-4
-1.852, 6.647e-4
-1.853, 6.725e-4
-1.854, 6.805e-4
-1.855, 6.885e-4
-1.856, 6.967e-4
-1.857, 7.049e-4
-1.858, 7.132e-4
-1.859, 7.216e-4
-1.860, 7.301e-4
-1.861, 7.387e-4
-1.862, 7.474e-4
-1.863, 7.561e-4
-1.864, 7.650e-4
-1.865, 7.740e-4
-1.866, 7.830e-4
-1.867, 7.922e-4
-1.868, 8.015e-4
-1.869, 8.109e-4
-1.870, 8.203e-4
-1.871, 8.299e-4
-1.872, 8.396e-4
-1.873, 8.493e-4
-1.874, 8.592e-4
-1.875, 8.692e-4
-1.876, 8.793e-4
-1.877, 8.895e-4
-1.878, 8.997e-4
-1.879, 9.101e-4
-1.880, 9.206e-4
-1.881, 9.314e-4
-1.882, 9.422e-4
-1.883, 9.532e-4
-1.884, 9.643e-4
-1.885, 9.755e-4
-1.886, 9.868e-4
-1.887, 9.983e-4
-1.888, 1.009e-3
-1.889, 1.011e-3
-1.890, 1.011e-3
-1.891, 1.011e-3
-1.892, 1.011e-3
-1.893, 1.011e-3
-1.894, 1.011e-3
-1.895, 1.011e-3
-1.896, 1.011e-3
-1.897, 1.011e-3
-1.898, 1.011e-3
-1.899, 1.011e-3
-1.900, 1.011e-3
-1.901, 1.011e-3
-1.902, 1.011e-3
-1.903, 1.011e-3
-1.904, 1.011e-3
-1.905, 1.011e-3
-1.906, 1.011e-3
-1.907, 1.011e-3
-1.908, 1.011e-3
-1.909, 1.011e-3
-1.910, 1.011e-3
-1.911, 1.011e-3
-1.912, 1.011e-3
-1.913, 1.011e-3
-1.914, 1.011e-3
-1.915, 1.011e-3
-1.916, 1.011e-3
-1.917, 1.011e-3
-1.918, 1.011e-3
-1.919, 1.011e-3
-1.920, 1.011e-3
-1.921, 1.011e-3
-1.922, 1.011e-3
-1.923, 1.011e-3
-1.924, 1.011e-3
-1.925, 1.011e-3
-1.926, 1.011e-3
-1.927, 1.011e-3
-1.928, 1.011e-3
-1.929, 1.011e-3
-1.930, 1.011e-3
-1.931, 1.011e-3
-1.932, 1.011e-3
-1.933, 1.011e-3
-1.934, 1.011e-3
-1.935, 1.011e-3
-1.936, 1.011e-3
-1.937, 1.011e-3
-1.938, 1.011e-3
-1.939, 1.011e-3
-1.940, 1.011e-3
-1.941, 1.011e-3
-1.942, 1.011e-3
-1.943, 1.011e-3
-1.944, 1.011e-3
-1.945, 1.011e-3
-1.946, 1.011e-3
-1.947, 1.011e-3
-1.948, 1.011e-3
-1.949, 1.011e-3
-1.950, 1.011e-3
-1.951, 1.011e-3
-1.952, 1.011e-3
-1.953, 1.011e-3
-1.954, 1.011e-3
-1.955, 1.011e-3
-1.956, 1.011e-3
-1.957, 1.011e-3
-1.958, 1.011e-3
-1.959, 1.011e-3
-1.960, 1.011e-3
-1.961, 1.011e-3
-1.962, 1.011e-3
-1.963, 1.011e-3
-1.964, 1.011e-3
-1.965, 1.011e-3
-1.966, 1.011e-3
-1.967, 1.011e-3
-1.968, 1.011e-3
-1.969, 1.011e-3
-1.970, 1.011e-3
-1.971, 1.011e-3
-1.972, 1.011e-3
-1.973, 1.011e-3
-1.974, 1.011e-3
-1.975, 1.011e-3
-1.976, 1.011e-3
-1.977, 1.011e-3
-1.978, 1.011e-3
-1.979, 1.011e-3
-1.980, 1.011e-3
-1.981, 1.011e-3
-1.982, 1.011e-3
-1.983, 1.011e-3
-1.984, 1.011e-3
-1.985, 1.011e-3
-1.986, 1.011e-3
-1.987, 1.011e-3
-1.988, 1.011e-3
-1.989, 1.011e-3
-1.990, 1.011e-3
-1.991, 1.011e-3
-1.992, 1.011e-3
-1.993, 1.011e-3
-1.994, 1.011e-3
-1.995, 1.011e-3
-1.996, 1.011e-3
-1.997, 1.011e-3
-1.998, 1.011e-3
-1.999, 1.011e-3
-2.000, 1.011e-3
-2.001, 1.011e-3
-2.002, 1.011e-3
-2.003, 1.011e-3
-2.004, 1.011e-3
-2.005, 1.011e-3
-2.006, 1.011e-3
-2.007, 1.011e-3
-2.008, 1.011e-3
-2.009, 1.011e-3
-2.010, 1.011e-3
-2.011, 1.011e-3
-2.012, 1.011e-3
-2.013, 1.011e-3
-2.014, 1.011e-3
-2.015, 1.011e-3
-2.016, 1.011e-3
-2.017, 1.011e-3
-2.018, 1.011e-3
-2.019, 1.011e-3
-2.020, 1.011e-3
-2.021, 1.011e-3
-2.022, 1.011e-3
-2.023, 1.011e-3
-2.024, 1.011e-3
-2.025, 1.011e-3
-2.026, 1.011e-3
-2.027, 1.011e-3
-2.028, 1.011e-3
-2.029, 1.011e-3
-2.030, 1.011e-3
-2.031, 1.011e-3
-2.032, 1.011e-3
-2.033, 1.011e-3
-2.034, 1.011e-3
-2.035, 1.011e-3
-2.036, 1.011e-3
-2.037, 1.011e-3
-2.038, 1.011e-3
-2.039, 1.011e-3
-2.040, 1.011e-3
-2.041, 1.011e-3
-2.042, 1.011e-3
-2.043, 1.011e-3
-2.044, 1.011e-3
-2.045, 1.011e-3
-2.046, 1.011e-3
-2.047, 1.011e-3
-2.048, 1.011e-3
-2.049, 1.011e-3
-2.050, 1.011e-3
-2.051, 1.011e-3
-2.052, 1.011e-3
-2.053, 1.011e-3
-2.054, 1.011e-3
-2.055, 1.011e-3
-2.056, 1.011e-3
-2.057, 1.011e-3
-2.058, 1.011e-3
-2.059, 1.011e-3
-2.060, 1.011e-3
-2.061, 1.011e-3
-2.062, 1.011e-3
-2.063, 1.011e-3
-2.064, 1.011e-3
-2.065, 1.011e-3
-2.066, 1.011e-3
-2.067, 1.011e-3
-2.068, 1.011e-3
-2.069, 1.011e-3
-2.070, 1.011e-3
-2.071, 1.011e-3
-2.072, 1.011e-3
-2.073, 1.011e-3
-2.074, 1.011e-3
-2.075, 1.011e-3
-2.076, 1.011e-3
-2.077, 1.011e-3
-2.078, 1.011e-3
-2.079, 1.011e-3
-2.080, 1.011e-3
-2.081, 1.011e-3
-2.082, 1.011e-3
-2.083, 1.011e-3
-2.084, 1.011e-3
-2.085, 1.011e-3
-2.086, 1.011e-3
-2.087, 1.011e-3
-2.088, 1.011e-3
-2.089, 1.011e-3
-2.090, 1.011e-3
-2.091, 1.011e-3
-2.092, 1.011e-3
-2.093, 1.011e-3
-2.094, 1.011e-3
-2.095, 1.011e-3
-2.096, 1.011e-3
-2.097, 1.011e-3
-2.098, 1.011e-3
-2.099, 1.011e-3
-2.100, 1.011e-3
-2.101, 1.011e-3
-2.102, 1.011e-3
-2.103, 1.011e-3
-2.104, 1.011e-3
-2.105, 1.011e-3
-2.106, 1.011e-3
-2.107, 1.011e-3
-2.108, 1.011e-3
-2.109, 1.011e-3
-2.110, 1.011e-3
-2.111, 1.011e-3
-2.112, 1.011e-3
-2.113, 1.011e-3
-2.114, 1.011e-3
-2.115, 1.011e-3
-2.116, 1.011e-3
-2.117, 1.011e-3
-2.118, 1.011e-3
-2.119, 1.011e-3
-2.120, 1.011e-3
-2.121, 1.011e-3
-2.122, 1.011e-3
-2.123, 1.011e-3
-2.124, 1.011e-3
-2.125, 1.011e-3
-2.126, 1.011e-3
-2.127, 1.011e-3
-2.128, 1.011e-3
-2.129, 1.011e-3
-2.130, 1.011e-3
-2.131, 1.011e-3
-2.132, 1.011e-3
-2.133, 1.011e-3
-2.134, 1.011e-3
-2.135, 1.011e-3
-2.136, 1.011e-3
-2.137, 1.011e-3
-2.138, 1.011e-3
-2.139, 1.011e-3
-2.140, 1.011e-3
-2.141, 1.011e-3
-2.142, 1.011e-3
-2.143, 1.011e-3
-2.144, 1.011e-3
-2.145, 1.011e-3
-2.146, 1.011e-3
-2.147, 1.011e-3
-2.148, 1.011e-3
-2.149, 1.011e-3
-2.150, 1.011e-3
-2.151, 1.011e-3
-2.152, 1.011e-3
-2.153, 1.011e-3
-2.154, 1.011e-3
-2.155, 1.011e-3
-2.156, 1.011e-3
-2.157, 1.011e-3
-2.158, 1.011e-3
-2.159, 1.011e-3
-2.160, 1.011e-3
-2.161, 1.011e-3
-2.162, 1.011e-3
-2.163, 1.011e-3
-2.164, 1.011e-3
-2.165, 1.011e-3
-2.166, 1.011e-3
-2.167, 1.011e-3
-2.168, 1.011e-3
-2.169, 1.011e-3
-2.170, 1.011e-3
-2.171, 1.011e-3
-2.172, 1.011e-3
-2.173, 1.011e-3
-2.174, 1.011e-3
-2.175, 1.011e-3
-2.176, 1.011e-3
-2.177, 1.011e-3
-2.178, 1.011e-3
-2.179, 1.011e-3
-2.180, 1.011e-3
-2.181, 1.011e-3
-2.182, 1.011e-3
-2.183, 1.011e-3
-2.184, 1.011e-3
-2.185, 1.011e-3
-2.186, 1.011e-3
-2.187, 1.011e-3
-2.188, 1.011e-3
-2.189, 1.011e-3
-2.190, 1.011e-3
-2.191, 1.011e-3
-2.192, 1.011e-3
-2.193, 1.011e-3
-2.194, 1.011e-3
-2.195, 1.011e-3
-2.196, 1.011e-3
-2.197, 1.011e-3
-2.198, 1.011e-3
-2.199, 1.011e-3
-2.200, 1.011e-3
-2.201, 1.011e-3
-2.202, 1.011e-3
-2.203, 1.011e-3
-2.204, 1.011e-3
-2.205, 1.011e-3
-2.206, 1.011e-3
-2.207, 1.011e-3
-2.208, 1.011e-3
-2.209, 1.011e-3
-2.210, 1.011e-3
-2.211, 1.011e-3
-2.212, 1.011e-3
-2.213, 1.011e-3
-2.214, 1.011e-3
-2.215, 1.011e-3
-2.216, 1.011e-3
-2.217, 1.011e-3
-2.218, 1.011e-3
-2.219, 1.011e-3
-2.220, 1.011e-3
-2.221, 1.011e-3
-2.222, 1.011e-3
-2.223, 1.011e-3
-2.224, 1.011e-3
-2.225, 1.011e-3
-2.226, 1.011e-3
-2.227, 1.011e-3
-2.228, 1.011e-3
-2.229, 1.011e-3
-2.230, 1.011e-3
-2.231, 1.011e-3
-2.232, 1.011e-3
-2.233, 1.011e-3
-2.234, 1.011e-3
-2.235, 1.011e-3
-2.236, 1.011e-3
-2.237, 1.011e-3
-2.238, 1.011e-3
-2.239, 1.011e-3
-2.240, 1.011e-3
-2.241, 1.011e-3
-2.242, 1.011e-3
-2.243, 1.011e-3
-2.244, 1.011e-3
-2.245, 1.011e-3
-2.246, 1.011e-3
-2.247, 1.011e-3
-2.248, 1.011e-3
-2.249, 1.011e-3
-2.250, 1.011e-3
-2.251, 1.011e-3
-2.252, 1.011e-3
-2.253, 1.011e-3
-2.254, 1.011e-3
-2.255, 1.011e-3
-2.256, 1.011e-3
-2.257, 1.011e-3
-2.258, 1.011e-3
-2.259, 1.011e-3
-2.260, 1.011e-3
-2.261, 1.011e-3
-2.262, 1.011e-3
-2.263, 1.011e-3
-2.264, 1.011e-3
-2.265, 1.011e-3
-2.266, 1.011e-3
-2.267, 1.011e-3
-2.268, 1.011e-3
-2.269, 1.011e-3
-2.270, 1.011e-3
-2.271, 1.011e-3
-2.272, 1.011e-3
-2.273, 1.011e-3
-2.274, 1.011e-3
-2.275, 1.011e-3
-2.276, 1.011e-3
-2.277, 1.011e-3
-2.278, 1.011e-3
-2.279, 1.011e-3
-2.280, 1.011e-3
-2.281, 1.011e-3
-2.282, 1.011e-3
-2.283, 1.011e-3
-2.284, 1.011e-3
-2.285, 1.011e-3
-2.286, 1.011e-3
-2.287, 1.011e-3
-2.288, 1.011e-3
-2.289, 1.011e-3
-2.290, 1.011e-3
-2.291, 1.011e-3
-2.292, 1.011e-3
-2.293, 1.011e-3
-2.294, 1.011e-3
-2.295, 1.011e-3
-2.296, 1.011e-3
-2.297, 1.011e-3
-2.298, 1.011e-3
-2.299, 1.011e-3
