Aug. 19, 2024   06:12:48
Cyclic Voltammetry
File: c:/users/guazh/data/20240813_batch_94_500/2024-08-15-exp129\exp129-2024-08-19t05_58_43-h2koh\exp129_cv_sr_200mvs_efin_-1600mv.bin
Data Source:  Experiment
Instrument Model:  CHI760E
Header: CV ran at 200 mVs
Note: 

Init E (V) = -1
High E (V) = -1
Low E (V) = -1.6
Final E (V) = -1
Init P/N = N
Scan Rate (V/s) = 0.2
Segment = 3
Sample Interval (V) = 0.001
Quiet Time (sec) = 2
Sensitivity (A/V) = 0.01
Comp R (ohm) = 1.5

Results:

Channel 1:
Segment 1:

Segment 2:

Segment 3:

Potential/V, Current/A

-1.000, 1.020e-5
-1.001, 1.775e-5
-1.002, 1.995e-5
-1.003, 2.046e-5
-1.004, 2.156e-5
-1.005, 2.232e-5
-1.006, 2.248e-5
-1.007, 2.307e-5
-1.008, 2.359e-5
-1.009, 2.378e-5
-1.010, 2.390e-5
-1.011, 2.401e-5
-1.012, 2.496e-5
-1.013, 2.434e-5
-1.014, 2.456e-5
-1.015, 2.524e-5
-1.016, 2.519e-5
-1.017, 2.512e-5
-1.018, 2.552e-5
-1.019, 2.559e-5
-1.020, 2.553e-5
-1.021, 2.594e-5
-1.022, 2.621e-5
-1.023, 2.587e-5
-1.024, 2.645e-5
-1.025, 2.683e-5
-1.026, 2.644e-5
-1.027, 2.644e-5
-1.028, 2.722e-5
-1.029, 2.685e-5
-1.030, 2.704e-5
-1.031, 2.740e-5
-1.032, 2.760e-5
-1.033, 2.722e-5
-1.034, 2.797e-5
-1.035, 2.814e-5
-1.036, 2.807e-5
-1.037, 2.819e-5
-1.038, 2.880e-5
-1.039, 2.876e-5
-1.040, 2.848e-5
-1.041, 2.868e-5
-1.042, 2.897e-5
-1.043, 2.824e-5
-1.044, 2.880e-5
-1.045, 2.899e-5
-1.046, 2.848e-5
-1.047, 2.878e-5
-1.048, 2.898e-5
-1.049, 2.878e-5
-1.050, 2.856e-5
-1.051, 2.908e-5
-1.052, 2.929e-5
-1.053, 2.857e-5
-1.054, 2.902e-5
-1.055, 2.924e-5
-1.056, 2.867e-5
-1.057, 2.908e-5
-1.058, 2.904e-5
-1.059, 2.899e-5
-1.060, 2.887e-5
-1.061, 2.907e-5
-1.062, 2.930e-5
-1.063, 2.927e-5
-1.064, 2.903e-5
-1.065, 2.947e-5
-1.066, 2.893e-5
-1.067, 2.925e-5
-1.068, 2.965e-5
-1.069, 2.933e-5
-1.070, 2.923e-5
-1.071, 2.943e-5
-1.072, 2.966e-5
-1.073, 2.921e-5
-1.074, 2.969e-5
-1.075, 2.998e-5
-1.076, 2.954e-5
-1.077, 2.984e-5
-1.078, 3.002e-5
-1.079, 2.983e-5
-1.080, 2.961e-5
-1.081, 2.979e-5
-1.082, 3.027e-5
-1.083, 2.959e-5
-1.084, 3.028e-5
-1.085, 3.019e-5
-1.086, 3.001e-5
-1.087, 3.030e-5
-1.088, 3.052e-5
-1.089, 3.042e-5
-1.090, 3.049e-5
-1.091, 3.066e-5
-1.092, 3.097e-5
-1.093, 3.037e-5
-1.094, 3.067e-5
-1.095, 3.131e-5
-1.096, 3.055e-5
-1.097, 3.077e-5
-1.098, 3.133e-5
-1.099, 3.091e-5
-1.100, 3.101e-5
-1.101, 3.144e-5
-1.102, 3.141e-5
-1.103, 3.122e-5
-1.104, 3.136e-5
-1.105, 3.183e-5
-1.106, 3.148e-5
-1.107, 3.164e-5
-1.108, 3.219e-5
-1.109, 3.176e-5
-1.110, 3.169e-5
-1.111, 3.204e-5
-1.112, 3.235e-5
-1.113, 3.205e-5
-1.114, 3.253e-5
-1.115, 3.256e-5
-1.116, 3.217e-5
-1.117, 3.247e-5
-1.118, 3.306e-5
-1.119, 3.286e-5
-1.120, 3.269e-5
-1.121, 3.305e-5
-1.122, 3.341e-5
-1.123, 3.280e-5
-1.124, 3.329e-5
-1.125, 3.368e-5
-1.126, 3.329e-5
-1.127, 3.354e-5
-1.128, 3.388e-5
-1.129, 3.390e-5
-1.130, 3.370e-5
-1.131, 3.430e-5
-1.132, 3.454e-5
-1.133, 3.421e-5
-1.134, 3.450e-5
-1.135, 3.483e-5
-1.136, 3.463e-5
-1.137, 3.481e-5
-1.138, 3.513e-5
-1.139, 3.503e-5
-1.140, 3.517e-5
-1.141, 3.543e-5
-1.142, 3.555e-5
-1.143, 3.544e-5
-1.144, 3.576e-5
-1.145, 3.624e-5
-1.146, 3.590e-5
-1.147, 3.595e-5
-1.148, 3.679e-5
-1.149, 3.633e-5
-1.150, 3.633e-5
-1.151, 3.700e-5
-1.152, 3.724e-5
-1.153, 3.684e-5
-1.154, 3.745e-5
-1.155, 3.776e-5
-1.156, 3.749e-5
-1.157, 3.787e-5
-1.158, 3.837e-5
-1.159, 3.837e-5
-1.160, 3.826e-5
-1.161, 3.890e-5
-1.162, 3.918e-5
-1.163, 3.895e-5
-1.164, 3.949e-5
-1.165, 3.988e-5
-1.166, 3.963e-5
-1.167, 4.005e-5
-1.168, 4.048e-5
-1.169, 4.036e-5
-1.170, 4.086e-5
-1.171, 4.112e-5
-1.172, 4.167e-5
-1.173, 4.130e-5
-1.174, 4.211e-5
-1.175, 4.248e-5
-1.176, 4.224e-5
-1.177, 4.277e-5
-1.178, 4.387e-5
-1.179, 4.339e-5
-1.180, 4.392e-5
-1.181, 4.409e-5
-1.182, 4.452e-5
-1.183, 4.460e-5
-1.184, 4.532e-5
-1.185, 4.551e-5
-1.186, 4.557e-5
-1.187, 4.622e-5
-1.188, 4.703e-5
-1.189, 4.676e-5
-1.190, 4.722e-5
-1.191, 4.809e-5
-1.192, 4.844e-5
-1.193, 4.844e-5
-1.194, 4.920e-5
-1.195, 4.968e-5
-1.196, 4.988e-5
-1.197, 5.027e-5
-1.198, 5.118e-5
-1.199, 5.146e-5
-1.200, 5.163e-5
-1.201, 5.249e-5
-1.202, 5.313e-5
-1.203, 5.319e-5
-1.204, 5.406e-5
-1.205, 5.465e-5
-1.206, 5.492e-5
-1.207, 5.563e-5
-1.208, 5.652e-5
-1.209, 5.660e-5
-1.210, 5.741e-5
-1.211, 5.807e-5
-1.212, 5.892e-5
-1.213, 5.883e-5
-1.214, 5.982e-5
-1.215, 6.088e-5
-1.216, 6.104e-5
-1.217, 6.190e-5
-1.218, 6.309e-5
-1.219, 6.312e-5
-1.220, 6.398e-5
-1.221, 6.483e-5
-1.222, 6.539e-5
-1.223, 6.588e-5
-1.224, 6.701e-5
-1.225, 6.789e-5
-1.226, 6.814e-5
-1.227, 6.928e-5
-1.228, 7.083e-5
-1.229, 7.154e-5
-1.230, 7.203e-5
-1.231, 7.300e-5
-1.232, 7.382e-5
-1.233, 7.419e-5
-1.234, 7.550e-5
-1.235, 7.662e-5
-1.236, 7.718e-5
-1.237, 7.830e-5
-1.238, 7.966e-5
-1.239, 8.033e-5
-1.240, 8.113e-5
-1.241, 8.235e-5
-1.242, 8.361e-5
-1.243, 8.422e-5
-1.244, 8.553e-5
-1.245, 8.684e-5
-1.246, 8.748e-5
-1.247, 8.896e-5
-1.248, 9.043e-5
-1.249, 9.091e-5
-1.250, 9.218e-5
-1.251, 9.369e-5
-1.252, 9.511e-5
-1.253, 9.566e-5
-1.254, 9.722e-5
-1.255, 9.904e-5
-1.256, 9.961e-5
-1.257, 1.010e-4
-1.258, 1.029e-4
-1.259, 1.038e-4
-1.260, 1.051e-4
-1.261, 1.067e-4
-1.262, 1.081e-4
-1.263, 1.092e-4
-1.264, 1.106e-4
-1.265, 1.124e-4
-1.266, 1.135e-4
-1.267, 1.152e-4
-1.268, 1.174e-4
-1.269, 1.182e-4
-1.270, 1.199e-4
-1.271, 1.217e-4
-1.272, 1.233e-4
-1.273, 1.243e-4
-1.274, 1.264e-4
-1.275, 1.283e-4
-1.276, 1.296e-4
-1.277, 1.314e-4
-1.278, 1.336e-4
-1.279, 1.349e-4
-1.280, 1.370e-4
-1.281, 1.386e-4
-1.282, 1.405e-4
-1.283, 1.418e-4
-1.284, 1.442e-4
-1.285, 1.462e-4
-1.286, 1.478e-4
-1.287, 1.498e-4
-1.288, 1.522e-4
-1.289, 1.535e-4
-1.290, 1.556e-4
-1.291, 1.577e-4
-1.292, 1.599e-4
-1.293, 1.614e-4
-1.294, 1.640e-4
-1.295, 1.663e-4
-1.296, 1.678e-4
-1.297, 1.703e-4
-1.298, 1.728e-4
-1.299, 1.742e-4
-1.300, 1.767e-4
-1.301, 1.789e-4
-1.302, 1.812e-4
-1.303, 1.832e-4
-1.304, 1.857e-4
-1.305, 1.885e-4
-1.306, 1.902e-4
-1.307, 1.925e-4
-1.308, 1.956e-4
-1.309, 1.974e-4
-1.310, 1.998e-4
-1.311, 2.026e-4
-1.312, 2.048e-4
-1.313, 2.070e-4
-1.314, 2.098e-4
-1.315, 2.122e-4
-1.316, 2.145e-4
-1.317, 2.172e-4
-1.318, 2.201e-4
-1.319, 2.223e-4
-1.320, 2.249e-4
-1.321, 2.277e-4
-1.322, 2.302e-4
-1.323, 2.325e-4
-1.324, 2.354e-4
-1.325, 2.384e-4
-1.326, 2.410e-4
-1.327, 2.437e-4
-1.328, 2.467e-4
-1.329, 2.485e-4
-1.330, 2.516e-4
-1.331, 2.548e-4
-1.332, 2.575e-4
-1.333, 2.599e-4
-1.334, 2.633e-4
-1.335, 2.667e-4
-1.336, 2.688e-4
-1.337, 2.723e-4
-1.338, 2.757e-4
-1.339, 2.774e-4
-1.340, 2.807e-4
-1.341, 2.839e-4
-1.342, 2.869e-4
-1.343, 2.899e-4
-1.344, 2.937e-4
-1.345, 2.973e-4
-1.346, 2.996e-4
-1.347, 3.030e-4
-1.348, 3.067e-4
-1.349, 3.088e-4
-1.350, 3.121e-4
-1.351, 3.162e-4
-1.352, 3.191e-4
-1.353, 3.224e-4
-1.354, 3.261e-4
-1.355, 3.293e-4
-1.356, 3.325e-4
-1.357, 3.361e-4
-1.358, 3.401e-4
-1.359, 3.427e-4
-1.360, 3.465e-4
-1.361, 3.501e-4
-1.362, 3.539e-4
-1.363, 3.569e-4
-1.364, 3.612e-4
-1.365, 3.649e-4
-1.366, 3.684e-4
-1.367, 3.722e-4
-1.368, 3.765e-4
-1.369, 3.793e-4
-1.370, 3.834e-4
-1.371, 3.871e-4
-1.372, 3.909e-4
-1.373, 3.949e-4
-1.374, 3.992e-4
-1.375, 4.035e-4
-1.376, 4.068e-4
-1.377, 4.110e-4
-1.378, 4.157e-4
-1.379, 4.183e-4
-1.380, 4.228e-4
-1.381, 4.269e-4
-1.382, 4.316e-4
-1.383, 4.359e-4
-1.384, 4.408e-4
-1.385, 4.451e-4
-1.386, 4.489e-4
-1.387, 4.529e-4
-1.388, 4.580e-4
-1.389, 4.613e-4
-1.390, 4.665e-4
-1.391, 4.714e-4
-1.392, 4.761e-4
-1.393, 4.808e-4
-1.394, 4.856e-4
-1.395, 4.903e-4
-1.396, 4.948e-4
-1.397, 5.003e-4
-1.398, 5.050e-4
-1.399, 5.093e-4
-1.400, 5.144e-4
-1.401, 5.197e-4
-1.402, 5.245e-4
-1.403, 5.291e-4
-1.404, 5.351e-4
-1.405, 5.404e-4
-1.406, 5.456e-4
-1.407, 5.510e-4
-1.408, 5.564e-4
-1.409, 5.617e-4
-1.410, 5.672e-4
-1.411, 5.727e-4
-1.412, 5.783e-4
-1.413, 5.841e-4
-1.414, 5.905e-4
-1.415, 5.964e-4
-1.416, 6.010e-4
-1.417, 6.065e-4
-1.418, 6.131e-4
-1.419, 6.176e-4
-1.420, 6.240e-4
-1.421, 6.305e-4
-1.422, 6.371e-4
-1.423, 6.433e-4
-1.424, 6.503e-4
-1.425, 6.563e-4
-1.426, 6.622e-4
-1.427, 6.685e-4
-1.428, 6.754e-4
-1.429, 6.808e-4
-1.430, 6.883e-4
-1.431, 6.958e-4
-1.432, 7.031e-4
-1.433, 7.098e-4
-1.434, 7.173e-4
-1.435, 7.232e-4
-1.436, 7.296e-4
-1.437, 7.367e-4
-1.438, 7.440e-4
-1.439, 7.507e-4
-1.440, 7.593e-4
-1.441, 7.674e-4
-1.442, 7.749e-4
-1.443, 7.818e-4
-1.444, 7.899e-4
-1.445, 7.978e-4
-1.446, 8.051e-4
-1.447, 8.135e-4
-1.448, 8.219e-4
-1.449, 8.293e-4
-1.450, 8.383e-4
-1.451, 8.463e-4
-1.452, 8.546e-4
-1.453, 8.631e-4
-1.454, 8.724e-4
-1.455, 8.813e-4
-1.456, 8.887e-4
-1.457, 8.975e-4
-1.458, 9.072e-4
-1.459, 9.148e-4
-1.460, 9.244e-4
-1.461, 9.337e-4
-1.462, 9.438e-4
-1.463, 9.532e-4
-1.464, 9.626e-4
-1.465, 9.721e-4
-1.466, 9.805e-4
-1.467, 9.908e-4
-1.468, 1.001e-3
-1.469, 1.009e-3
-1.470, 1.020e-3
-1.471, 1.031e-3
-1.472, 1.042e-3
-1.473, 1.052e-3
-1.474, 1.062e-3
-1.475, 1.072e-3
-1.476, 1.083e-3
-1.477, 1.093e-3
-1.478, 1.104e-3
-1.479, 1.115e-3
-1.480, 1.128e-3
-1.481, 1.140e-3
-1.482, 1.151e-3
-1.483, 1.162e-3
-1.484, 1.174e-3
-1.485, 1.184e-3
-1.486, 1.194e-3
-1.487, 1.206e-3
-1.488, 1.219e-3
-1.489, 1.231e-3
-1.490, 1.246e-3
-1.491, 1.258e-3
-1.492, 1.270e-3
-1.493, 1.282e-3
-1.494, 1.295e-3
-1.495, 1.307e-3
-1.496, 1.320e-3
-1.497, 1.334e-3
-1.498, 1.348e-3
-1.499, 1.362e-3
-1.500, 1.375e-3
-1.501, 1.389e-3
-1.502, 1.404e-3
-1.503, 1.419e-3
-1.504, 1.433e-3
-1.505, 1.447e-3
-1.506, 1.461e-3
-1.507, 1.475e-3
-1.508, 1.490e-3
-1.509, 1.504e-3
-1.510, 1.520e-3
-1.511, 1.537e-3
-1.512, 1.553e-3
-1.513, 1.568e-3
-1.514, 1.584e-3
-1.515, 1.601e-3
-1.516, 1.618e-3
-1.517, 1.633e-3
-1.518, 1.650e-3
-1.519, 1.668e-3
-1.520, 1.687e-3
-1.521, 1.705e-3
-1.522, 1.722e-3
-1.523, 1.736e-3
-1.524, 1.754e-3
-1.525, 1.771e-3
-1.526, 1.788e-3
-1.527, 1.806e-3
-1.528, 1.827e-3
-1.529, 1.846e-3
-1.530, 1.867e-3
-1.531, 1.887e-3
-1.532, 1.907e-3
-1.533, 1.924e-3
-1.534, 1.942e-3
-1.535, 1.960e-3
-1.536, 1.980e-3
-1.537, 2.002e-3
-1.538, 2.026e-3
-1.539, 2.049e-3
-1.540, 2.070e-3
-1.541, 2.090e-3
-1.542, 2.110e-3
-1.543, 2.129e-3
-1.544, 2.150e-3
-1.545, 2.172e-3
-1.546, 2.194e-3
-1.547, 2.219e-3
-1.548, 2.243e-3
-1.549, 2.265e-3
-1.550, 2.289e-3
-1.551, 2.314e-3
-1.552, 2.339e-3
-1.553, 2.361e-3
-1.554, 2.385e-3
-1.555, 2.410e-3
-1.556, 2.435e-3
-1.557, 2.458e-3
-1.558, 2.483e-3
-1.559, 2.510e-3
-1.560, 2.538e-3
-1.561, 2.566e-3
-1.562, 2.592e-3
-1.563, 2.617e-3
-1.564, 2.645e-3
-1.565, 2.669e-3
-1.566, 2.694e-3
-1.567, 2.722e-3
-1.568, 2.754e-3
-1.569, 2.784e-3
-1.570, 2.813e-3
-1.571, 2.842e-3
-1.572, 2.869e-3
-1.573, 2.897e-3
-1.574, 2.924e-3
-1.575, 2.951e-3
-1.576, 2.982e-3
-1.577, 3.017e-3
-1.578, 3.052e-3
-1.579, 3.085e-3
-1.580, 3.116e-3
-1.581, 3.148e-3
-1.582, 3.177e-3
-1.583, 3.205e-3
-1.584, 3.234e-3
-1.585, 3.270e-3
-1.586, 3.308e-3
-1.587, 3.347e-3
-1.588, 3.384e-3
-1.589, 3.418e-3
-1.590, 3.449e-3
-1.591, 3.480e-3
-1.592, 3.511e-3
-1.593, 3.543e-3
-1.594, 3.580e-3
-1.595, 3.619e-3
-1.596, 3.661e-3
-1.597, 3.700e-3
-1.598, 3.737e-3
-1.599, 3.772e-3
-1.600, 3.771e-3
-1.599, 3.736e-3
-1.598, 3.703e-3
-1.597, 3.670e-3
-1.596, 3.641e-3
-1.595, 3.608e-3
-1.594, 3.575e-3
-1.593, 3.542e-3
-1.592, 3.514e-3
-1.591, 3.485e-3
-1.590, 3.455e-3
-1.589, 3.422e-3
-1.588, 3.388e-3
-1.587, 3.358e-3
-1.586, 3.326e-3
-1.585, 3.294e-3
-1.584, 3.264e-3
-1.583, 3.238e-3
-1.582, 3.211e-3
-1.581, 3.181e-3
-1.580, 3.147e-3
-1.579, 3.116e-3
-1.578, 3.083e-3
-1.577, 3.049e-3
-1.576, 3.018e-3
-1.575, 2.991e-3
-1.574, 2.964e-3
-1.573, 2.938e-3
-1.572, 2.911e-3
-1.571, 2.884e-3
-1.570, 2.854e-3
-1.569, 2.823e-3
-1.568, 2.792e-3
-1.567, 2.764e-3
-1.566, 2.740e-3
-1.565, 2.717e-3
-1.564, 2.691e-3
-1.563, 2.664e-3
-1.562, 2.636e-3
-1.561, 2.606e-3
-1.560, 2.578e-3
-1.559, 2.550e-3
-1.558, 2.524e-3
-1.557, 2.500e-3
-1.556, 2.478e-3
-1.555, 2.454e-3
-1.554, 2.427e-3
-1.553, 2.401e-3
-1.552, 2.378e-3
-1.551, 2.353e-3
-1.550, 2.328e-3
-1.549, 2.303e-3
-1.548, 2.279e-3
-1.547, 2.256e-3
-1.546, 2.232e-3
-1.545, 2.209e-3
-1.544, 2.187e-3
-1.543, 2.166e-3
-1.542, 2.145e-3
-1.541, 2.121e-3
-1.540, 2.097e-3
-1.539, 2.076e-3
-1.538, 2.054e-3
-1.537, 2.031e-3
-1.536, 2.010e-3
-1.535, 1.992e-3
-1.534, 1.972e-3
-1.533, 1.953e-3
-1.532, 1.932e-3
-1.531, 1.909e-3
-1.530, 1.890e-3
-1.529, 1.868e-3
-1.528, 1.848e-3
-1.527, 1.830e-3
-1.526, 1.813e-3
-1.525, 1.796e-3
-1.524, 1.777e-3
-1.523, 1.758e-3
-1.522, 1.739e-3
-1.521, 1.720e-3
-1.520, 1.701e-3
-1.519, 1.682e-3
-1.518, 1.666e-3
-1.517, 1.650e-3
-1.516, 1.634e-3
-1.515, 1.617e-3
-1.514, 1.600e-3
-1.513, 1.582e-3
-1.512, 1.564e-3
-1.511, 1.547e-3
-1.510, 1.531e-3
-1.509, 1.516e-3
-1.508, 1.501e-3
-1.507, 1.486e-3
-1.506, 1.471e-3
-1.505, 1.455e-3
-1.504, 1.440e-3
-1.503, 1.425e-3
-1.502, 1.410e-3
-1.501, 1.395e-3
-1.500, 1.381e-3
-1.499, 1.367e-3
-1.498, 1.353e-3
-1.497, 1.338e-3
-1.496, 1.325e-3
-1.495, 1.312e-3
-1.494, 1.298e-3
-1.493, 1.285e-3
-1.492, 1.271e-3
-1.491, 1.257e-3
-1.490, 1.245e-3
-1.489, 1.231e-3
-1.488, 1.219e-3
-1.487, 1.207e-3
-1.486, 1.196e-3
-1.485, 1.184e-3
-1.484, 1.172e-3
-1.483, 1.159e-3
-1.482, 1.147e-3
-1.481, 1.135e-3
-1.480, 1.123e-3
-1.479, 1.111e-3
-1.478, 1.101e-3
-1.477, 1.090e-3
-1.476, 1.079e-3
-1.475, 1.068e-3
-1.474, 1.056e-3
-1.473, 1.045e-3
-1.472, 1.035e-3
-1.471, 1.023e-3
-1.470, 1.012e-3
-1.469, 1.003e-3
-1.468, 9.938e-4
-1.467, 9.838e-4
-1.466, 9.738e-4
-1.465, 9.629e-4
-1.464, 9.530e-4
-1.463, 9.425e-4
-1.462, 9.325e-4
-1.461, 9.226e-4
-1.460, 9.140e-4
-1.459, 9.054e-4
-1.458, 8.964e-4
-1.457, 8.868e-4
-1.456, 8.773e-4
-1.455, 8.678e-4
-1.454, 8.585e-4
-1.453, 8.494e-4
-1.452, 8.407e-4
-1.451, 8.322e-4
-1.450, 8.238e-4
-1.449, 8.157e-4
-1.448, 8.067e-4
-1.447, 7.978e-4
-1.446, 7.897e-4
-1.445, 7.821e-4
-1.444, 7.734e-4
-1.443, 7.648e-4
-1.442, 7.573e-4
-1.441, 7.491e-4
-1.440, 7.412e-4
-1.439, 7.335e-4
-1.438, 7.257e-4
-1.437, 7.186e-4
-1.436, 7.111e-4
-1.435, 7.038e-4
-1.434, 6.956e-4
-1.433, 6.882e-4
-1.432, 6.818e-4
-1.431, 6.734e-4
-1.430, 6.661e-4
-1.429, 6.601e-4
-1.428, 6.532e-4
-1.427, 6.462e-4
-1.426, 6.391e-4
-1.425, 6.318e-4
-1.424, 6.250e-4
-1.423, 6.186e-4
-1.422, 6.120e-4
-1.421, 6.051e-4
-1.420, 5.992e-4
-1.419, 5.931e-4
-1.418, 5.870e-4
-1.417, 5.803e-4
-1.416, 5.740e-4
-1.415, 5.681e-4
-1.414, 5.608e-4
-1.413, 5.546e-4
-1.412, 5.491e-4
-1.411, 5.433e-4
-1.410, 5.377e-4
-1.409, 5.317e-4
-1.408, 5.258e-4
-1.407, 5.195e-4
-1.406, 5.134e-4
-1.405, 5.082e-4
-1.404, 5.018e-4
-1.403, 4.965e-4
-1.402, 4.917e-4
-1.401, 4.859e-4
-1.400, 4.809e-4
-1.399, 4.752e-4
-1.398, 4.697e-4
-1.397, 4.642e-4
-1.396, 4.589e-4
-1.395, 4.540e-4
-1.394, 4.482e-4
-1.393, 4.433e-4
-1.392, 4.386e-4
-1.391, 4.332e-4
-1.390, 4.282e-4
-1.389, 4.235e-4
-1.388, 4.188e-4
-1.387, 4.139e-4
-1.386, 4.090e-4
-1.385, 4.044e-4
-1.384, 3.995e-4
-1.383, 3.944e-4
-1.382, 3.901e-4
-1.381, 3.849e-4
-1.380, 3.809e-4
-1.379, 3.765e-4
-1.378, 3.722e-4
-1.377, 3.674e-4
-1.376, 3.627e-4
-1.375, 3.586e-4
-1.374, 3.540e-4
-1.373, 3.497e-4
-1.372, 3.455e-4
-1.371, 3.415e-4
-1.370, 3.372e-4
-1.369, 3.331e-4
-1.368, 3.288e-4
-1.367, 3.243e-4
-1.366, 3.202e-4
-1.365, 3.167e-4
-1.364, 3.121e-4
-1.363, 3.080e-4
-1.362, 3.051e-4
-1.361, 3.003e-4
-1.360, 2.969e-4
-1.359, 2.932e-4
-1.358, 2.888e-4
-1.357, 2.850e-4
-1.356, 2.809e-4
-1.355, 2.775e-4
-1.354, 2.737e-4
-1.353, 2.702e-4
-1.352, 2.675e-4
-1.351, 2.632e-4
-1.350, 2.595e-4
-1.349, 2.561e-4
-1.348, 2.524e-4
-1.347, 2.486e-4
-1.346, 2.455e-4
-1.345, 2.421e-4
-1.344, 2.386e-4
-1.343, 2.354e-4
-1.342, 2.324e-4
-1.341, 2.286e-4
-1.340, 2.254e-4
-1.339, 2.228e-4
-1.338, 2.193e-4
-1.337, 2.157e-4
-1.336, 2.127e-4
-1.335, 2.098e-4
-1.334, 2.064e-4
-1.333, 2.034e-4
-1.332, 2.009e-4
-1.331, 1.973e-4
-1.330, 1.944e-4
-1.329, 1.914e-4
-1.328, 1.883e-4
-1.327, 1.852e-4
-1.326, 1.823e-4
-1.325, 1.799e-4
-1.324, 1.765e-4
-1.323, 1.739e-4
-1.322, 1.717e-4
-1.321, 1.680e-4
-1.320, 1.659e-4
-1.319, 1.628e-4
-1.318, 1.598e-4
-1.317, 1.570e-4
-1.316, 1.544e-4
-1.315, 1.521e-4
-1.314, 1.493e-4
-1.313, 1.467e-4
-1.312, 1.446e-4
-1.311, 1.415e-4
-1.310, 1.388e-4
-1.309, 1.365e-4
-1.308, 1.338e-4
-1.307, 1.313e-4
-1.306, 1.289e-4
-1.305, 1.267e-4
-1.304, 1.242e-4
-1.303, 1.220e-4
-1.302, 1.199e-4
-1.301, 1.171e-4
-1.300, 1.148e-4
-1.299, 1.127e-4
-1.298, 1.103e-4
-1.297, 1.078e-4
-1.296, 1.058e-4
-1.295, 1.040e-4
-1.294, 1.014e-4
-1.293, 9.909e-5
-1.292, 9.741e-5
-1.291, 9.484e-5
-1.290, 9.312e-5
-1.289, 9.078e-5
-1.288, 8.899e-5
-1.287, 8.668e-5
-1.286, 8.469e-5
-1.285, 8.302e-5
-1.284, 8.075e-5
-1.283, 7.868e-5
-1.282, 7.730e-5
-1.281, 7.468e-5
-1.280, 7.288e-5
-1.279, 7.126e-5
-1.278, 6.893e-5
-1.277, 6.740e-5
-1.276, 6.544e-5
-1.275, 6.403e-5
-1.274, 6.203e-5
-1.273, 6.015e-5
-1.272, 5.905e-5
-1.271, 5.662e-5
-1.270, 5.493e-5
-1.269, 5.387e-5
-1.268, 5.181e-5
-1.267, 5.008e-5
-1.266, 4.844e-5
-1.265, 4.698e-5
-1.264, 4.512e-5
-1.263, 4.369e-5
-1.262, 4.264e-5
-1.261, 4.057e-5
-1.260, 3.915e-5
-1.259, 3.773e-5
-1.258, 3.615e-5
-1.257, 3.450e-5
-1.256, 3.327e-5
-1.255, 3.186e-5
-1.254, 3.009e-5
-1.253, 2.909e-5
-1.252, 2.792e-5
-1.251, 2.598e-5
-1.250, 2.522e-5
-1.249, 2.377e-5
-1.248, 2.217e-5
-1.247, 2.095e-5
-1.246, 1.980e-5
-1.245, 1.893e-5
-1.244, 1.729e-5
-1.243, 1.591e-5
-1.242, 1.535e-5
-1.241, 1.367e-5
-1.240, 1.263e-5
-1.239, 1.179e-5
-1.238, 1.052e-5
-1.237, 9.134e-6
-1.236, 8.147e-6
-1.235, 7.447e-6
-1.234, 6.135e-6
-1.233, 5.109e-6
-1.232, 4.665e-6
-1.231, 3.402e-6
-1.230, 2.090e-6
-1.229, 1.172e-6
-1.228, 3.335e-7
-1.227, -8.110e-7
-1.226, -1.502e-6
-1.225, -2.084e-6
-1.224, -3.031e-6
-1.223, -3.998e-6
-1.222, -4.619e-6
-1.221, -5.754e-6
-1.220, -6.553e-6
-1.219, -7.056e-6
-1.218, -7.697e-6
-1.217, -8.852e-6
-1.216, -9.621e-6
-1.215, -1.008e-5
-1.214, -1.108e-5
-1.213, -1.150e-5
-1.212, -1.218e-5
-1.211, -1.315e-5
-1.210, -1.366e-5
-1.209, -1.424e-5
-1.208, -1.502e-5
-1.207, -1.573e-5
-1.206, -1.633e-5
-1.205, -1.667e-5
-1.204, -1.755e-5
-1.203, -1.831e-5
-1.202, -1.839e-5
-1.201, -1.949e-5
-1.200, -2.007e-5
-1.199, -2.017e-5
-1.198, -2.124e-5
-1.197, -2.173e-5
-1.196, -2.197e-5
-1.195, -2.252e-5
-1.194, -2.343e-5
-1.193, -2.379e-5
-1.192, -2.371e-5
-1.191, -2.497e-5
-1.190, -2.554e-5
-1.189, -2.546e-5
-1.188, -2.635e-5
-1.187, -2.687e-5
-1.186, -2.709e-5
-1.185, -2.763e-5
-1.184, -2.810e-5
-1.183, -2.864e-5
-1.182, -2.868e-5
-1.181, -2.940e-5
-1.180, -2.972e-5
-1.179, -3.008e-5
-1.178, -3.075e-5
-1.177, -3.149e-5
-1.176, -3.146e-5
-1.175, -3.170e-5
-1.174, -3.273e-5
-1.173, -3.259e-5
-1.172, -3.249e-5
-1.171, -3.348e-5
-1.170, -3.358e-5
-1.169, -3.374e-5
-1.168, -3.387e-5
-1.167, -3.424e-5
-1.166, -3.423e-5
-1.165, -3.441e-5
-1.164, -3.493e-5
-1.163, -3.505e-5
-1.162, -3.459e-5
-1.161, -3.533e-5
-1.160, -3.559e-5
-1.159, -3.535e-5
-1.158, -3.600e-5
-1.157, -3.605e-5
-1.156, -3.641e-5
-1.155, -3.625e-5
-1.154, -3.674e-5
-1.153, -3.707e-5
-1.152, -3.697e-5
-1.151, -3.762e-5
-1.150, -3.781e-5
-1.149, -3.757e-5
-1.148, -3.819e-5
-1.147, -3.843e-5
-1.146, -3.856e-5
-1.145, -3.865e-5
-1.144, -3.901e-5
-1.143, -3.897e-5
-1.142, -3.905e-5
-1.141, -3.960e-5
-1.140, -3.971e-5
-1.139, -3.971e-5
-1.138, -3.986e-5
-1.137, -4.027e-5
-1.136, -4.015e-5
-1.135, -4.014e-5
-1.134, -4.081e-5
-1.133, -4.065e-5
-1.132, -4.060e-5
-1.131, -4.117e-5
-1.130, -4.137e-5
-1.129, -4.105e-5
-1.128, -4.133e-5
-1.127, -4.148e-5
-1.126, -4.159e-5
-1.125, -4.177e-5
-1.124, -4.206e-5
-1.123, -4.207e-5
-1.122, -4.148e-5
-1.121, -4.252e-5
-1.120, -4.219e-5
-1.119, -4.208e-5
-1.118, -4.250e-5
-1.117, -4.266e-5
-1.116, -4.273e-5
-1.115, -4.271e-5
-1.114, -4.299e-5
-1.113, -4.294e-5
-1.112, -4.272e-5
-1.111, -4.335e-5
-1.110, -4.340e-5
-1.109, -4.298e-5
-1.108, -4.330e-5
-1.107, -4.366e-5
-1.106, -4.341e-5
-1.105, -4.317e-5
-1.104, -4.368e-5
-1.103, -4.374e-5
-1.102, -4.361e-5
-1.101, -4.395e-5
-1.100, -4.422e-5
-1.099, -4.384e-5
-1.098, -4.416e-5
-1.097, -4.418e-5
-1.096, -4.431e-5
-1.095, -4.417e-5
-1.094, -4.461e-5
-1.093, -4.430e-5
-1.092, -4.436e-5
-1.091, -4.461e-5
-1.090, -4.471e-5
-1.089, -4.433e-5
-1.088, -4.479e-5
-1.087, -4.482e-5
-1.086, -4.474e-5
-1.085, -4.439e-5
-1.084, -4.502e-5
-1.083, -4.500e-5
-1.082, -4.454e-5
-1.081, -4.541e-5
-1.080, -4.508e-5
-1.079, -4.484e-5
-1.078, -4.542e-5
-1.077, -4.511e-5
-1.076, -4.526e-5
-1.075, -4.529e-5
-1.074, -4.561e-5
-1.073, -4.553e-5
-1.072, -4.531e-5
-1.071, -4.566e-5
-1.070, -4.575e-5
-1.069, -4.518e-5
-1.068, -4.567e-5
-1.067, -4.575e-5
-1.066, -4.552e-5
-1.065, -4.550e-5
-1.064, -4.597e-5
-1.063, -4.590e-5
-1.062, -4.584e-5
-1.061, -4.619e-5
-1.060, -4.616e-5
-1.059, -4.578e-5
-1.058, -4.599e-5
-1.057, -4.645e-5
-1.056, -4.614e-5
-1.055, -4.595e-5
-1.054, -4.668e-5
-1.053, -4.620e-5
-1.052, -4.615e-5
-1.051, -4.664e-5
-1.050, -4.675e-5
-1.049, -4.639e-5
-1.048, -4.636e-5
-1.047, -4.671e-5
-1.046, -4.657e-5
-1.045, -4.644e-5
-1.044, -4.700e-5
-1.043, -4.717e-5
-1.042, -4.652e-5
-1.041, -4.730e-5
-1.040, -4.704e-5
-1.039, -4.662e-5
-1.038, -4.713e-5
-1.037, -4.737e-5
-1.036, -4.727e-5
-1.035, -4.719e-5
-1.034, -4.754e-5
-1.033, -4.756e-5
-1.032, -4.740e-5
-1.031, -4.767e-5
-1.030, -4.780e-5
-1.029, -4.723e-5
-1.028, -4.780e-5
-1.027, -4.795e-5
-1.026, -4.738e-5
-1.025, -4.774e-5
-1.024, -4.835e-5
-1.023, -4.826e-5
-1.022, -4.806e-5
-1.021, -4.811e-5
-1.020, -4.850e-5
-1.019, -4.805e-5
-1.018, -4.826e-5
-1.017, -4.862e-5
-1.016, -4.836e-5
-1.015, -4.829e-5
-1.014, -4.902e-5
-1.013, -4.862e-5
-1.012, -4.843e-5
-1.011, -4.912e-5
-1.010, -4.895e-5
-1.009, -4.873e-5
-1.008, -4.894e-5
-1.007, -4.903e-5
-1.006, -4.926e-5
-1.005, -4.888e-5
-1.004, -4.946e-5
-1.003, -4.944e-5
-1.002, -4.938e-5
-1.001, -4.983e-5
