Potential V vs RHE, Current mA cm-2
0.013299999999999867,-0.6128529351015338
0.012299999999999978,-2.4884771764625997
0.011299999999999866,-4.102662769608606
0.010299999999999976,-5.585280211867165
0.009299999999999864,-6.893888164242324
0.008299999999999974,-8.11478401602585
0.007299999999999862,-9.161670377925978
0.006299999999999972,-10.120844639234473
0.00529999999999986,-10.993721511251199
0.0042999999999999705,-11.778886282676295
0.0032999999999998586,-12.476338953509758
0.0022999999999999687,-13.087494235051453
0.0012999999999998568,-13.654793466297335
0.00029999999999996696,-14.13438059695158
-0.000700000000000145,-14.529085049613924
-0.0017000000000000348,-14.925204213576137
-0.0027000000000001467,-15.264734925543747
-0.0037000000000000366,-15.575971411514052
-0.0047000000000001485,-15.87306078448571
-0.005700000000000038,-16.141855931460068
-0.00670000000000015,-16.438945304431726
-0.00770000000000004,-16.70774045140608
-0.008700000000000152,-16.919947146385837
-0.009700000000000042,-17.103859615368293
-0.010700000000000154,-17.2736249713521
-0.011700000000000044,-17.4433903273359
-0.012700000000000156,-17.584861457322408
-0.013700000000000045,-17.71218547431026
-0.014700000000000157,-17.797068152302163
-0.015700000000000047,-17.881950830294063
-0.01670000000000016,-17.924392169290012
-0.01770000000000005,-18.009274847281915
-0.01870000000000016,-18.06586329927652
-0.01970000000000005,-18.15074597726842
-0.020700000000000163,-18.19318731626437
-0.021700000000000053,-18.27806999425627
-0.022700000000000164,-18.362952672248177
-0.023700000000000054,-18.40539401124413
-0.024700000000000166,-18.49027668923603
-0.025700000000000056,-18.53271802823198
-0.026700000000000168,-18.589306480226583
-0.027700000000000058,-18.631747819222536
-0.02870000000000017,-18.589306480226583
-0.02970000000000006,-18.631747819222536
-0.03070000000000017,-18.631747819222536
-0.03170000000000006,-18.589306480226583
-0.03270000000000017,-18.589306480226583
-0.03370000000000006,-18.589306480226583
-0.034700000000000175,-18.631747819222536
-0.035700000000000065,-18.631747819222536
-0.03670000000000018,-18.674189158218486
-0.03770000000000007,-18.674189158218486
-0.03870000000000018,-18.716630497214435
-0.03970000000000007,-18.759071836210385
-0.04070000000000018,-18.80151317520634
-0.04170000000000007,-18.843954514202288
-0.04270000000000018,-18.80151317520634
-0.04370000000000007,-18.80151317520634
-0.044700000000000184,-18.80151317520634
-0.045700000000000074,-18.759071836210385
-0.046700000000000186,-18.759071836210385
-0.047700000000000076,-18.716630497214435
-0.04870000000000019,-18.716630497214435
-0.04970000000000008,-18.716630497214435
-0.05070000000000019,-18.716630497214435
-0.05170000000000008,-18.759071836210385
-0.05270000000000019,-18.759071836210385
-0.05370000000000008,-18.80151317520634
-0.05470000000000019,-18.843954514202288
-0.05570000000000008,-18.843954514202288
-0.056700000000000195,-18.88639585319824
-0.057700000000000085,-18.843954514202288
-0.058700000000000196,-18.843954514202288
-0.059700000000000086,-18.843954514202288
-0.0607000000000002,-18.80151317520634
-0.06170000000000009,-18.759071836210385
-0.0627000000000002,-18.759071836210385
-0.06370000000000009,-18.759071836210385
-0.0647000000000002,-18.716630497214435
-0.06570000000000009,-18.716630497214435
-0.0667000000000002,-18.759071836210385
-0.0677000000000001,-18.80151317520634
-0.0687000000000002,-18.80151317520634
-0.0697000000000001,-18.843954514202288
-0.07070000000000021,-18.88639585319824
-0.0717000000000001,-18.843954514202288
-0.07270000000000021,-18.843954514202288
-0.0737000000000001,-18.843954514202288
-0.07470000000000021,-18.80151317520634
-0.0757000000000001,-18.80151317520634
-0.07670000000000021,-18.716630497214435
-0.0777000000000001,-18.716630497214435
-0.07870000000000021,-18.716630497214435
-0.0797000000000001,-18.674189158218486
-0.08070000000000022,-18.716630497214435
-0.0817000000000001,-18.759071836210385
-0.08270000000000022,-18.759071836210385
-0.08370000000000011,-18.80151317520634
-0.08470000000000022,-18.843954514202288
-0.08570000000000011,-18.843954514202288
-0.08670000000000022,-18.88639585319824
-0.08770000000000011,-18.88639585319824
-0.08870000000000022,-18.88639585319824
-0.08970000000000011,-18.88639585319824
-0.09070000000000022,-18.843954514202288
-0.09170000000000011,-18.80151317520634
-0.09270000000000023,-18.80151317520634
-0.09370000000000012,-18.80151317520634
-0.09470000000000023,-18.759071836210385
-0.09570000000000012,-18.759071836210385
-0.09670000000000023,-18.759071836210385
-0.09770000000000012,-18.80151317520634
-0.09870000000000023,-18.80151317520634
-0.09970000000000012,-18.843954514202288
-0.10070000000000023,-18.843954514202288
-0.10170000000000012,-18.843954514202288
-0.10270000000000024,-18.843954514202288
-0.10370000000000013,-18.843954514202288
-0.10470000000000024,-18.80151317520634
-0.10570000000000013,-18.80151317520634
-0.10670000000000024,-18.759071836210385
-0.10770000000000013,-18.80151317520634
-0.10870000000000024,-18.80151317520634
-0.10970000000000013,-18.80151317520634
-0.11070000000000024,-18.843954514202288
-0.11170000000000013,-18.88639585319824
-0.11270000000000002,-18.92883719219419
-0.11370000000000013,-18.97127853119014
-0.11470000000000002,-19.056161209182044
-0.11570000000000014,-19.056161209182044
-0.11670000000000003,-19.056161209182044
-0.11770000000000014,-19.01371987018609
-0.11870000000000003,-19.01371987018609
-0.11970000000000014,-18.97127853119014
-0.12070000000000003,-18.92883719219419
-0.12170000000000014,-18.88639585319824
-0.12270000000000003,-18.843954514202288
-0.12370000000000014,-18.843954514202288
-0.12470000000000003,-18.80151317520634
-0.12570000000000014,-18.843954514202288
-0.12670000000000003,-18.843954514202288
-0.12770000000000015,-18.843954514202288
-0.12870000000000004,-18.88639585319824
-0.12970000000000015,-18.92883719219419
-0.13070000000000004,-18.92883719219419
-0.13170000000000015,-18.97127853119014
-0.13270000000000004,-18.97127853119014
-0.13370000000000015,-18.97127853119014
-0.13470000000000004,-18.97127853119014
-0.13570000000000015,-18.92883719219419
-0.13670000000000004,-18.88639585319824
-0.13770000000000016,-18.92883719219419
-0.13870000000000005,-18.88639585319824
-0.13970000000000016,-18.88639585319824
-0.14070000000000005,-18.88639585319824
-0.14170000000000016,-18.97127853119014
-0.14270000000000005,-19.01371987018609
-0.14370000000000016,-19.01371987018609
-0.14470000000000005,-19.056161209182044
-0.14570000000000016,-19.112749661176647
-0.14670000000000005,-19.112749661176647
-0.14770000000000016,-19.155191000172596
-0.14870000000000005,-19.112749661176647
-0.14970000000000017,-19.112749661176647
-0.15070000000000006,-19.112749661176647
-0.15170000000000017,-19.056161209182044
-0.15270000000000006,-19.056161209182044
-0.15370000000000017,-19.056161209182044
-0.15470000000000006,-19.056161209182044
-0.15570000000000017,-19.056161209182044
-0.15670000000000006,-19.112749661176647
-0.15770000000000017,-19.112749661176647
-0.15870000000000006,-19.112749661176647
-0.15970000000000018,-19.155191000172596
-0.16070000000000007,-19.155191000172596
-0.16170000000000018,-19.155191000172596
-0.16270000000000007,-19.155191000172596
-0.16370000000000018,-19.155191000172596
-0.16470000000000007,-19.155191000172596
-0.16570000000000018,-19.112749661176647
-0.16670000000000007,-19.112749661176647
-0.16770000000000018,-19.112749661176647
-0.16870000000000007,-19.112749661176647
-0.16970000000000018,-19.112749661176647
-0.17070000000000007,-19.112749661176647
-0.17170000000000019,-19.155191000172596
-0.17270000000000008,-19.2400736781645
-0.1737000000000002,-19.28251501716045
-0.17470000000000008,-19.3249563561564
-0.1757000000000002,-19.367397695152352
-0.17670000000000008,-19.409839034148305
-0.1777000000000002,-19.452280373144255
-0.17870000000000008,-19.452280373144255
-0.1797000000000002,-19.452280373144255
-0.18070000000000008,-19.452280373144255
-0.1817000000000002,-19.452280373144255
-0.18270000000000008,-19.452280373144255
-0.1837000000000002,-19.452280373144255
-0.1847000000000001,-19.452280373144255
-0.1857000000000002,-19.49472171214021
-0.1867000000000001,-19.49472171214021
-0.1877000000000002,-19.537163051136158
-0.1887000000000001,-19.579604390132108
-0.1897000000000002,-19.636192842126707
-0.1907000000000001,-19.678634181122664
-0.1917000000000001,-19.721075520118614
-0.19269999999999998,-19.763516859114564
-0.1937000000000001,-19.763516859114564
-0.19469999999999998,-19.763516859114564
-0.1957000000000001,-19.763516859114564
-0.19669999999999999,-19.763516859114564
-0.1977000000000001,-19.763516859114564
-0.1987,-19.805958198110513
-0.1997000000000001,-19.805958198110513
-0.2007,-19.890840876102416
-0.2017000000000001,-19.890840876102416
-0.2027,-19.97572355409432
-0.2037000000000001,-20.01816489309027
-0.2047,-20.10304757108217
-0.2057000000000001,-20.159636023076775
-0.2067,-20.202077362072725
-0.2077000000000001,-20.244518701068674
-0.2087,-20.244518701068674
-0.2097000000000001,-20.286960040064624
-0.2107,-20.329401379060574
-0.2117000000000001,-20.329401379060574
-0.2127,-20.329401379060574
-0.2137000000000001,-20.371842718056527
-0.2147,-20.414284057052477
-0.2157000000000001,-20.541608074040333
-0.2167,-20.584049413036283
-0.21770000000000012,-20.683079204026836
-0.2187,-20.72552054302279
-0.21970000000000012,-20.85284456001064
-0.2207,-20.85284456001064
-0.22170000000000012,-20.93772723800254
-0.2227,-20.980168576998494
-0.22370000000000012,-21.022609915994444
-0.2247,-21.065051254990397
-0.22570000000000012,-21.065051254990397
-0.2267,-21.107492593986347
-0.22770000000000012,-21.107492593986347
-0.22870000000000001,-21.2065223849769
-0.22970000000000013,-21.2065223849769
-0.23070000000000002,-21.291405062968803
-0.23170000000000013,-21.333846401964752
-0.23270000000000002,-21.418729079956652
-0.23370000000000013,-21.503611757948562
-0.23470000000000002,-21.58849443594046
-0.23570000000000013,-21.67337711393236
-0.23670000000000002,-21.772406904922917
-0.2376999999999999,-21.857289582914817
-0.23870000000000002,-21.94217226090672
-0.2396999999999999,-21.98461359990267
-0.24070000000000003,-22.069496277894572
-0.24169999999999991,-22.111937616890522
-0.24270000000000003,-22.253408746877028
-0.24369999999999992,-22.33829142486893
-0.24470000000000003,-22.42317410286083
-0.24569999999999992,-22.550498119848687
-0.24670000000000003,-22.67782213683654
-0.24769999999999992,-22.819293266823045
-0.24870000000000003,-22.946617283810895
-0.24969999999999992,-23.1163826397947
-0.25070000000000003,-23.24370665678255
-0.2516999999999999,-23.385177786769056
-0.25270000000000004,-23.51250180375691
-0.2536999999999999,-23.597384481748815
-0.25470000000000004,-23.724708498736668
-0.2556999999999999,-23.767149837732617
-0.25670000000000004,-23.908620967719123
-0.25769999999999993,-24.035944984706973
-0.25870000000000004,-24.120827662698876
-0.25969999999999993,-24.24815167968673
-0.26070000000000004,-24.389622809673234
-0.26169999999999993,-24.559388165657033
-0.26270000000000004,-24.729153521640843
-0.26369999999999993,-24.9130659906233
-0.26470000000000005,-25.0828313466071
-0.26569999999999994,-25.295038041586857
-0.26670000000000005,-25.478950510569312
-0.26769999999999994,-25.648715866553115
-0.26870000000000005,-25.77603988354097
-0.26969999999999994,-25.91751101352747
-0.27070000000000005,-26.087276369511276
-0.27169999999999994,-26.21460038649913
-0.27270000000000005,-26.440954194477534
-0.27369999999999994,-26.61071955046134
-0.27470000000000006,-26.780484906445146
-0.27569999999999995,-27.00683871442355
-0.27670000000000006,-27.219045409403304
-0.27769999999999995,-27.43125210438306
-0.27870000000000006,-27.65760591236147
-0.27969999999999995,-27.954695285333123
-0.28070000000000006,-28.13860775431558
-0.28169999999999995,-28.393255788291288
-0.28270000000000006,-28.619609596269694
-0.28369999999999995,-28.831816291249446
-0.28470000000000006,-29.058170099227848
-0.28569999999999995,-29.27037679420761
-0.28670000000000007,-29.482583489187363
-0.28769999999999996,-29.708937297165768
-0.28870000000000007,-29.96358533114148
-0.28969999999999996,-30.274821817111786
-0.29070000000000007,-30.529469851087494
-0.29169999999999996,-30.8407063370578
-0.29270000000000007,-31.137795710029454
-0.29369999999999996,-31.449032195999767
-0.2947000000000001,-31.802710020966025
-0.29569999999999996,-32.14224073293363
-0.2967000000000001,-32.45347721890394
-0.29769999999999996,-32.764713704874254
-0.2987000000000001,-33.06180307784591
-0.29969999999999997,-33.373039563816214
-0.3007000000000001,-33.670128936787876
-0.30169999999999997,-33.98136542275818
-0.3027000000000001,-34.278454795729836
-0.30369999999999997,-34.58969128170015
-0.3047000000000001,-34.98581044566235
-0.30569999999999997,-35.32534115762997
-0.3067000000000001,-35.679018982596226
-0.3077,-36.07513814655844
-0.3087000000000001,-36.47125731052064
-0.3097,-36.89567070048016
-0.3107000000000001,-37.291789864442364
-0.3117,-37.73035036740053
-0.3127000000000001,-38.16891087035869
-0.3137,-38.5650300343209
-0.3147000000000001,-38.98944342428042
-0.3157,-39.38556258824262
-0.3167000000000001,-39.82412309120078
-0.3177,-40.26268359415894
-0.3187000000000001,-40.701244097117105
-0.3197,-41.139804600075266
-0.3207000000000001,-41.606659329030734
-0.3217,-42.130102509980794
-0.3227000000000001,-42.6111043519349
-0.3237,-43.09210619388902
-0.3247000000000001,-43.61554937483908
-0.3257,-44.138992555789144
-0.3267000000000001,-44.66243573673921
-0.3277,-45.143437578693316
-0.3287000000000001,-45.624439420647434
-0.3297,-46.147882601597495
-0.3307000000000001,-46.628884443551605
-0.3317,-47.15232762450167
-0.3327000000000001,-47.71821214444768
-0.3337,-48.2840966643937
-0.3347000000000001,-48.84998118433972
-0.3357,-49.41586570428573
-0.3367000000000001,-50.0807800152223
-0.3377,-50.73154721316022
-0.3387000000000001,-51.33987307210218
-0.3397,-52.033081609036046
-0.3407000000000001,-52.64140746797801
-0.3417,-53.30632177891458
-0.3427000000000001,-53.91464763785655
-0.3437,-54.56541483579447
-0.3447000000000001,-55.21618203373238
-0.3457,-55.881096344668954
-0.3467000000000001,-56.489422203610914
-0.3477,-57.182630740544774
-0.3487000000000001,-57.79095659948675
-0.3497,-58.498312249419264
-0.3507000000000001,-59.19152078635314
-0.3517,-59.92717066228296
-0.3527000000000001,-60.67696765121143
-0.3537,-61.412617527141244
-0.3547000000000001,-62.16241451606972
-0.3557,-62.94050573099548
-0.35670000000000013,-63.77518539791585
-0.3577,-64.55327661284163
-0.35870000000000013,-65.38795627976201
-0.3597,-66.12360615569182
-0.36070000000000013,-66.91584448361623
-0.3617,-67.693935698542
-0.3626999999999999,-68.48617402646643
-0.3637,-69.26426524139221
-0.3646999999999999,-70.09894490831257
-0.3657,-70.96191880123024
-0.3666999999999999,-71.7965984681506
-0.3677,-72.63127813507097
-0.3686999999999999,-73.49425202798865
-0.36970000000000003,-74.37137303390499
-0.3706999999999999,-75.19190558782671
-0.37170000000000003,-76.06902659374302
-0.3726999999999999,-76.94614759965934
-0.37370000000000003,-77.76668015358106
-0.3746999999999999,-78.68624249849334
-0.37570000000000003,-79.56336350440966
-0.3766999999999999,-80.42633739732734
-0.37770000000000004,-81.3458997422396
-0.3786999999999999,-82.22302074815593
-0.37970000000000004,-83.18502443206415
-0.3806999999999999,-84.13288100297372
-0.38170000000000004,-85.09488468688197
-0.38269999999999993,-86.14177104878208
-0.38370000000000004,-87.18865741068221
-0.38469999999999993,-88.23554377258235
-0.38570000000000004,-89.28243013448247
-0.38669999999999993,-88.9004580835189
-0.38570000000000004,-86.14177104878208
-0.38469999999999993,-83.75090895201016
-0.38370000000000004,-81.65713622820991
-0.38269999999999993,-79.73312886039348
-0.38170000000000004,-77.99303396155948
-0.3806999999999999,-76.33782174071737
-0.37970000000000004,-74.80993353686314
-0.3786999999999999,-73.3669280110008
-0.37770000000000004,-71.92392248513846
-0.3766999999999999,-70.62238808926263
-0.37570000000000003,-69.3491479193841
-0.3746999999999999,-68.13249620150016
-0.37370000000000003,-67.00072716160814
-0.3726999999999999,-65.86895812171612
-0.37170000000000003,-64.72304196882543
-0.3706999999999999,-63.6761556069253
-0.36970000000000003,-62.58682790602922
-0.3686999999999999,-61.53994154412909
-0.3677,-60.49305518222897
-0.3666999999999999,-59.44616882032884
-0.3657,-58.45587091042332
-0.3646999999999999,-57.493867226515086
-0.3637,-56.53186354260687
-0.3626999999999999,-55.612301197694585
-0.3617,-54.69273885278232
-0.36070000000000013,-53.82976495986464
-0.3597,-52.91020261495237
-0.35870000000000013,-52.033081609036046
-0.3577,-51.127666377122424
-0.35670000000000013,-50.20810403221015
-0.3557,-49.24610034830193
-0.3547000000000001,-48.2840966643937
-0.3537,-47.32209298048547
-0.3527000000000001,-46.37423640957591
-0.3517,-45.45467406466363
-0.3507000000000001,-44.4926703807554
-0.3497,-43.61554937483908
-0.3487000000000001,-42.71013414292546
-0.3477,-41.79057179801318
-0.3467000000000001,-40.95589213109281
-0.3457,-40.092918238175145
-0.3447000000000001,-39.30067991025072
-0.3437,-38.46600024333035
-0.3427000000000001,-37.60302635041268
-0.3417,-36.81078802248826
-0.3407000000000001,-35.99025546856653
-0.3397,-35.15557580164616
-0.3387000000000001,-34.33504324772444
-0.3377,-33.45792224180811
-0.3367000000000001,-32.58080123589179
-0.3357,-31.802710020966025
-0.3347000000000001,-30.968030354045652
-0.3337,-30.147497800123933
-0.3327000000000001,-29.35525947219951
-0.3317,-28.619609596269694
-0.3307000000000001,-27.869812607341224
-0.3297,-27.134162731411404
-0.3287000000000001,-26.38436574248293
-0.3277,-25.691157205549064
-0.3267000000000001,-24.9130659906233
-0.3257,-24.20571034069078
-0.3247000000000001,-23.427619125765005
-0.3237,-22.67782213683654
-0.3227000000000001,-21.94217226090672
-0.3217,-21.2065223849769
-0.3207000000000001,-20.499166735044383
-0.3197,-19.805958198110513
-0.3187000000000001,-19.112749661176647
-0.3177,-18.44783535024008
-0.3167000000000001,-17.797068152302163
-0.3157,-17.146300954364243
-0.3147000000000001,-16.53797509542228
-0.3137,-15.91550212348166
-0.3127000000000001,-15.307176264539699
-0.3117,-14.65640906660178
-0.3107000000000001,-14.002812446064135
-0.3097,-13.349215825526485
-0.3087000000000001,-12.73806054398479
-0.3077,-12.084463923447142
-0.3067000000000001,-11.42945259160963
-0.30569999999999997,-10.819712021367803
-0.3047000000000001,-10.208556739826104
-0.30369999999999997,-9.59740145828441
-0.3027000000000001,-9.031516938338395
-0.30169999999999997,-8.464217707092514
-0.3007000000000001,-7.940774526142452
-0.29969999999999997,-7.4173313451923875
-0.2987000000000001,-6.893888164242324
-0.29769999999999996,-6.37044498329226
-0.2967000000000001,-5.847001802342197
-0.29569999999999996,-5.323558621392133
-0.2947000000000001,-4.756259390146253
-0.29369999999999996,-4.23281620919619
-0.29270000000000007,-3.7093730282461257
-0.29169999999999996,-3.1859298472960624
-0.29070000000000007,-2.662486666345999
-0.28969999999999996,-2.1828995356917518
-0.28870000000000007,-1.6594563547416883
-0.28769999999999996,-1.2234423321232837
-0.28670000000000007,-0.7437137303390498
-0.28569999999999995,-0.30755823659065895
-0.28470000000000006,0.12863969849672777
-0.28369999999999995,0.5211796428702795
-0.28270000000000006,0.9573351366186703
-0.28169999999999995,1.349917522331218
-0.28070000000000006,1.8292217107254924
-0.27969999999999995,2.2225114520879723
-0.27870000000000006,2.70209858274222
-0.27769999999999995,3.0939736128048354
-0.27670000000000006,3.5311194044631313
-0.27569999999999995,3.922994434525747
-0.27470000000000006,4.316284175888227
-0.27369999999999994,4.752015256246658
-0.27270000000000005,5.101448947313322
-0.27169999999999994,5.449467927080121
-0.27070000000000005,5.798901618146785
-0.26969999999999994,6.060623208621817
-0.26870000000000005,6.410056899688482
-0.26769999999999994,6.75807587945528
