Aug. 11, 2024   03:31:46
Cyclic Voltammetry
File: c:/users/guazh/data/20240802_batch_500/2024-08-02-exp79\exp79-2024-08-11t03_12_06-h2koh\exp79_cv_sr_600mvs_efin_-1700mv.bin
Data Source:  Experiment
Instrument Model:  CHI760E
Header: CV ran at 600 mVs
Note: 

Init E (V) = -1
High E (V) = -1
Low E (V) = -1.7
Final E (V) = -1
Init P/N = N
Scan Rate (V/s) = 0.6
Segment = 3
Sample Interval (V) = 0.001
Quiet Time (sec) = 2
Sensitivity (A/V) = 0.01
Comp R (ohm) = 1.8

Results:

Channel 1:
Segment 1:

Segment 2:

Segment 3:

Potential/V, Current/A

-1.000, 3.099e-5
-1.001, 7.723e-5
-1.002, 9.573e-5
-1.003, 1.050e-4
-1.004, 1.142e-4
-1.005, 1.142e-4
-1.006, 1.173e-4
-1.007, 1.173e-4
-1.008, 1.173e-4
-1.009, 1.173e-4
-1.010, 1.204e-4
-1.011, 1.266e-4
-1.012, 1.296e-4
-1.013, 1.327e-4
-1.014, 1.358e-4
-1.015, 1.389e-4
-1.016, 1.358e-4
-1.017, 1.358e-4
-1.018, 1.327e-4
-1.019, 1.327e-4
-1.020, 1.358e-4
-1.021, 1.389e-4
-1.022, 1.420e-4
-1.023, 1.451e-4
-1.024, 1.481e-4
-1.025, 1.481e-4
-1.026, 1.451e-4
-1.027, 1.451e-4
-1.028, 1.451e-4
-1.029, 1.420e-4
-1.030, 1.451e-4
-1.031, 1.481e-4
-1.032, 1.481e-4
-1.033, 1.512e-4
-1.034, 1.543e-4
-1.035, 1.543e-4
-1.036, 1.543e-4
-1.037, 1.512e-4
-1.038, 1.481e-4
-1.039, 1.481e-4
-1.040, 1.481e-4
-1.041, 1.512e-4
-1.042, 1.543e-4
-1.043, 1.574e-4
-1.044, 1.605e-4
-1.045, 1.605e-4
-1.046, 1.574e-4
-1.047, 1.543e-4
-1.048, 1.543e-4
-1.049, 1.512e-4
-1.050, 1.543e-4
-1.051, 1.574e-4
-1.052, 1.605e-4
-1.053, 1.605e-4
-1.054, 1.636e-4
-1.055, 1.636e-4
-1.056, 1.636e-4
-1.057, 1.605e-4
-1.058, 1.574e-4
-1.059, 1.574e-4
-1.060, 1.574e-4
-1.061, 1.605e-4
-1.062, 1.636e-4
-1.063, 1.666e-4
-1.064, 1.666e-4
-1.065, 1.666e-4
-1.066, 1.666e-4
-1.067, 1.636e-4
-1.068, 1.605e-4
-1.069, 1.605e-4
-1.070, 1.605e-4
-1.071, 1.636e-4
-1.072, 1.666e-4
-1.073, 1.697e-4
-1.074, 1.697e-4
-1.075, 1.697e-4
-1.076, 1.697e-4
-1.077, 1.666e-4
-1.078, 1.666e-4
-1.079, 1.636e-4
-1.080, 1.636e-4
-1.081, 1.666e-4
-1.082, 1.697e-4
-1.083, 1.728e-4
-1.084, 1.759e-4
-1.085, 1.728e-4
-1.086, 1.697e-4
-1.087, 1.697e-4
-1.088, 1.666e-4
-1.089, 1.666e-4
-1.090, 1.697e-4
-1.091, 1.697e-4
-1.092, 1.728e-4
-1.093, 1.759e-4
-1.094, 1.790e-4
-1.095, 1.759e-4
-1.096, 1.728e-4
-1.097, 1.728e-4
-1.098, 1.697e-4
-1.099, 1.697e-4
-1.100, 1.697e-4
-1.101, 1.728e-4
-1.102, 1.759e-4
-1.103, 1.790e-4
-1.104, 1.790e-4
-1.105, 1.790e-4
-1.106, 1.790e-4
-1.107, 1.759e-4
-1.108, 1.759e-4
-1.109, 1.728e-4
-1.110, 1.728e-4
-1.111, 1.759e-4
-1.112, 1.790e-4
-1.113, 1.821e-4
-1.114, 1.851e-4
-1.115, 1.821e-4
-1.116, 1.821e-4
-1.117, 1.790e-4
-1.118, 1.790e-4
-1.119, 1.759e-4
-1.120, 1.759e-4
-1.121, 1.790e-4
-1.122, 1.821e-4
-1.123, 1.821e-4
-1.124, 1.882e-4
-1.125, 1.851e-4
-1.126, 1.821e-4
-1.127, 1.821e-4
-1.128, 1.790e-4
-1.129, 1.790e-4
-1.130, 1.790e-4
-1.131, 1.790e-4
-1.132, 1.851e-4
-1.133, 1.851e-4
-1.134, 1.882e-4
-1.135, 1.882e-4
-1.136, 1.851e-4
-1.137, 1.821e-4
-1.138, 1.821e-4
-1.139, 1.790e-4
-1.140, 1.821e-4
-1.141, 1.851e-4
-1.142, 1.851e-4
-1.143, 1.882e-4
-1.144, 1.913e-4
-1.145, 1.882e-4
-1.146, 1.882e-4
-1.147, 1.851e-4
-1.148, 1.851e-4
-1.149, 1.821e-4
-1.150, 1.851e-4
-1.151, 1.851e-4
-1.152, 1.882e-4
-1.153, 1.913e-4
-1.154, 1.913e-4
-1.155, 1.913e-4
-1.156, 1.913e-4
-1.157, 1.882e-4
-1.158, 1.851e-4
-1.159, 1.851e-4
-1.160, 1.851e-4
-1.161, 1.882e-4
-1.162, 1.913e-4
-1.163, 1.913e-4
-1.164, 1.944e-4
-1.165, 1.913e-4
-1.166, 1.913e-4
-1.167, 1.882e-4
-1.168, 1.851e-4
-1.169, 1.851e-4
-1.170, 1.882e-4
-1.171, 1.882e-4
-1.172, 1.913e-4
-1.173, 1.913e-4
-1.174, 1.944e-4
-1.175, 1.944e-4
-1.176, 1.913e-4
-1.177, 1.882e-4
-1.178, 1.882e-4
-1.179, 1.851e-4
-1.180, 1.882e-4
-1.181, 1.882e-4
-1.182, 1.913e-4
-1.183, 1.944e-4
-1.184, 1.944e-4
-1.185, 1.944e-4
-1.186, 1.913e-4
-1.187, 1.882e-4
-1.188, 1.882e-4
-1.189, 1.851e-4
-1.190, 1.851e-4
-1.191, 1.882e-4
-1.192, 1.913e-4
-1.193, 1.944e-4
-1.194, 1.944e-4
-1.195, 1.944e-4
-1.196, 1.944e-4
-1.197, 1.882e-4
-1.198, 1.882e-4
-1.199, 1.851e-4
-1.200, 1.882e-4
-1.201, 1.913e-4
-1.202, 1.944e-4
-1.203, 1.944e-4
-1.204, 1.975e-4
-1.205, 1.944e-4
-1.206, 1.944e-4
-1.207, 1.913e-4
-1.208, 1.882e-4
-1.209, 1.882e-4
-1.210, 1.913e-4
-1.211, 1.913e-4
-1.212, 1.975e-4
-1.213, 1.975e-4
-1.214, 2.006e-4
-1.215, 1.975e-4
-1.216, 1.944e-4
-1.217, 1.944e-4
-1.218, 1.944e-4
-1.219, 1.913e-4
-1.220, 1.944e-4
-1.221, 1.975e-4
-1.222, 1.975e-4
-1.223, 2.006e-4
-1.224, 2.036e-4
-1.225, 2.006e-4
-1.226, 2.006e-4
-1.227, 1.975e-4
-1.228, 1.975e-4
-1.229, 1.975e-4
-1.230, 2.006e-4
-1.231, 2.006e-4
-1.232, 2.067e-4
-1.233, 2.067e-4
-1.234, 2.098e-4
-1.235, 2.098e-4
-1.236, 2.067e-4
-1.237, 2.036e-4
-1.238, 2.036e-4
-1.239, 2.036e-4
-1.240, 2.036e-4
-1.241, 2.067e-4
-1.242, 2.129e-4
-1.243, 2.129e-4
-1.244, 2.191e-4
-1.245, 2.160e-4
-1.246, 2.160e-4
-1.247, 2.129e-4
-1.248, 2.129e-4
-1.249, 2.129e-4
-1.250, 2.160e-4
-1.251, 2.160e-4
-1.252, 2.221e-4
-1.253, 2.252e-4
-1.254, 2.283e-4
-1.255, 2.283e-4
-1.256, 2.252e-4
-1.257, 2.252e-4
-1.258, 2.252e-4
-1.259, 2.252e-4
-1.260, 2.283e-4
-1.261, 2.314e-4
-1.262, 2.345e-4
-1.263, 2.376e-4
-1.264, 2.406e-4
-1.265, 2.437e-4
-1.266, 2.406e-4
-1.267, 2.406e-4
-1.268, 2.406e-4
-1.269, 2.406e-4
-1.270, 2.437e-4
-1.271, 2.468e-4
-1.272, 2.530e-4
-1.273, 2.561e-4
-1.274, 2.591e-4
-1.275, 2.591e-4
-1.276, 2.591e-4
-1.277, 2.591e-4
-1.278, 2.591e-4
-1.279, 2.591e-4
-1.280, 2.653e-4
-1.281, 2.684e-4
-1.282, 2.715e-4
-1.283, 2.776e-4
-1.284, 2.807e-4
-1.285, 2.838e-4
-1.286, 2.838e-4
-1.287, 2.838e-4
-1.288, 2.838e-4
-1.289, 2.838e-4
-1.290, 2.900e-4
-1.291, 2.931e-4
-1.292, 2.992e-4
-1.293, 3.023e-4
-1.294, 3.085e-4
-1.295, 3.085e-4
-1.296, 3.115e-4
-1.297, 3.115e-4
-1.298, 3.115e-4
-1.299, 3.146e-4
-1.300, 3.177e-4
-1.301, 3.239e-4
-1.302, 3.300e-4
-1.303, 3.362e-4
-1.304, 3.424e-4
-1.305, 3.424e-4
-1.306, 3.455e-4
-1.307, 3.455e-4
-1.308, 3.485e-4
-1.309, 3.516e-4
-1.310, 3.547e-4
-1.311, 3.609e-4
-1.312, 3.701e-4
-1.313, 3.732e-4
-1.314, 3.794e-4
-1.315, 3.825e-4
-1.316, 3.855e-4
-1.317, 3.886e-4
-1.318, 3.917e-4
-1.319, 3.948e-4
-1.320, 4.010e-4
-1.321, 4.071e-4
-1.322, 4.133e-4
-1.323, 4.225e-4
-1.324, 4.287e-4
-1.325, 4.318e-4
-1.326, 4.349e-4
-1.327, 4.380e-4
-1.328, 4.441e-4
-1.329, 4.472e-4
-1.330, 4.534e-4
-1.331, 4.595e-4
-1.332, 4.688e-4
-1.333, 4.780e-4
-1.334, 4.873e-4
-1.335, 4.904e-4
-1.336, 4.935e-4
-1.337, 4.965e-4
-1.338, 5.027e-4
-1.339, 5.058e-4
-1.340, 5.150e-4
-1.341, 5.243e-4
-1.342, 5.366e-4
-1.343, 5.428e-4
-1.344, 5.520e-4
-1.345, 5.582e-4
-1.346, 5.644e-4
-1.347, 5.674e-4
-1.348, 5.736e-4
-1.349, 5.798e-4
-1.350, 5.890e-4
-1.351, 5.983e-4
-1.352, 6.075e-4
-1.353, 6.168e-4
-1.354, 6.291e-4
-1.355, 6.353e-4
-1.356, 6.445e-4
-1.357, 6.476e-4
-1.358, 6.569e-4
-1.359, 6.630e-4
-1.360, 6.723e-4
-1.361, 6.815e-4
-1.362, 6.939e-4
-1.363, 7.062e-4
-1.364, 7.185e-4
-1.365, 7.247e-4
-1.366, 7.339e-4
-1.367, 7.401e-4
-1.368, 7.494e-4
-1.369, 7.555e-4
-1.370, 7.679e-4
-1.371, 7.802e-4
-1.372, 7.925e-4
-1.373, 8.048e-4
-1.374, 8.172e-4
-1.375, 8.295e-4
-1.376, 8.388e-4
-1.377, 8.449e-4
-1.378, 8.542e-4
-1.379, 8.634e-4
-1.380, 8.758e-4
-1.381, 8.881e-4
-1.382, 9.035e-4
-1.383, 9.158e-4
-1.384, 9.313e-4
-1.385, 9.436e-4
-1.386, 9.498e-4
-1.387, 9.590e-4
-1.388, 9.713e-4
-1.389, 9.806e-4
-1.390, 9.929e-4
-1.391, 1.005e-3
-1.392, 1.021e-3
-1.393, 1.036e-3
-1.394, 1.048e-3
-1.395, 1.061e-3
-1.396, 1.070e-3
-1.397, 1.079e-3
-1.398, 1.092e-3
-1.399, 1.101e-3
-1.400, 1.116e-3
-1.401, 1.132e-3
-1.402, 1.144e-3
-1.403, 1.159e-3
-1.404, 1.175e-3
-1.405, 1.187e-3
-1.406, 1.199e-3
-1.407, 1.209e-3
-1.408, 1.221e-3
-1.409, 1.230e-3
-1.410, 1.246e-3
-1.411, 1.258e-3
-1.412, 1.277e-3
-1.413, 1.292e-3
-1.414, 1.307e-3
-1.415, 1.320e-3
-1.416, 1.332e-3
-1.417, 1.344e-3
-1.418, 1.357e-3
-1.419, 1.369e-3
-1.420, 1.381e-3
-1.421, 1.397e-3
-1.422, 1.415e-3
-1.423, 1.431e-3
-1.424, 1.449e-3
-1.425, 1.462e-3
-1.426, 1.474e-3
-1.427, 1.486e-3
-1.428, 1.499e-3
-1.429, 1.511e-3
-1.430, 1.523e-3
-1.431, 1.539e-3
-1.432, 1.557e-3
-1.433, 1.573e-3
-1.434, 1.591e-3
-1.435, 1.606e-3
-1.436, 1.619e-3
-1.437, 1.631e-3
-1.438, 1.643e-3
-1.439, 1.656e-3
-1.440, 1.671e-3
-1.441, 1.687e-3
-1.442, 1.702e-3
-1.443, 1.721e-3
-1.444, 1.739e-3
-1.445, 1.751e-3
-1.446, 1.764e-3
-1.447, 1.776e-3
-1.448, 1.788e-3
-1.449, 1.801e-3
-1.450, 1.813e-3
-1.451, 1.832e-3
-1.452, 1.847e-3
-1.453, 1.865e-3
-1.454, 1.884e-3
-1.455, 1.896e-3
-1.456, 1.912e-3
-1.457, 1.924e-3
-1.458, 1.936e-3
-1.459, 1.949e-3
-1.460, 1.964e-3
-1.461, 1.980e-3
-1.462, 1.998e-3
-1.463, 2.017e-3
-1.464, 2.035e-3
-1.465, 2.047e-3
-1.466, 2.063e-3
-1.467, 2.075e-3
-1.468, 2.091e-3
-1.469, 2.103e-3
-1.470, 2.118e-3
-1.471, 2.134e-3
-1.472, 2.152e-3
-1.473, 2.171e-3
-1.474, 2.189e-3
-1.475, 2.208e-3
-1.476, 2.223e-3
-1.477, 2.235e-3
-1.478, 2.251e-3
-1.479, 2.260e-3
-1.480, 2.275e-3
-1.481, 2.294e-3
-1.482, 2.312e-3
-1.483, 2.331e-3
-1.484, 2.349e-3
-1.485, 2.365e-3
-1.486, 2.380e-3
-1.487, 2.396e-3
-1.488, 2.408e-3
-1.489, 2.423e-3
-1.490, 2.439e-3
-1.491, 2.454e-3
-1.492, 2.473e-3
-1.493, 2.491e-3
-1.494, 2.513e-3
-1.495, 2.528e-3
-1.496, 2.544e-3
-1.497, 2.559e-3
-1.498, 2.575e-3
-1.499, 2.587e-3
-1.500, 2.602e-3
-1.501, 2.618e-3
-1.502, 2.639e-3
-1.503, 2.658e-3
-1.504, 2.676e-3
-1.505, 2.695e-3
-1.506, 2.710e-3
-1.507, 2.723e-3
-1.508, 2.741e-3
-1.509, 2.753e-3
-1.510, 2.772e-3
-1.511, 2.790e-3
-1.512, 2.809e-3
-1.513, 2.827e-3
-1.514, 2.849e-3
-1.515, 2.867e-3
-1.516, 2.886e-3
-1.517, 2.898e-3
-1.518, 2.917e-3
-1.519, 2.932e-3
-1.520, 2.951e-3
-1.521, 2.972e-3
-1.522, 2.991e-3
-1.523, 3.012e-3
-1.524, 3.034e-3
-1.525, 3.056e-3
-1.526, 3.074e-3
-1.527, 3.089e-3
-1.528, 3.108e-3
-1.529, 3.123e-3
-1.530, 3.142e-3
-1.531, 3.160e-3
-1.532, 3.185e-3
-1.533, 3.207e-3
-1.534, 3.231e-3
-1.535, 3.250e-3
-1.536, 3.268e-3
-1.537, 3.287e-3
-1.538, 3.305e-3
-1.539, 3.318e-3
-1.540, 3.339e-3
-1.541, 3.361e-3
-1.542, 3.379e-3
-1.543, 3.404e-3
-1.544, 3.425e-3
-1.545, 3.444e-3
-1.546, 3.462e-3
-1.547, 3.478e-3
-1.548, 3.493e-3
-1.549, 3.509e-3
-1.550, 3.527e-3
-1.551, 3.549e-3
-1.552, 3.573e-3
-1.553, 3.598e-3
-1.554, 3.623e-3
-1.555, 3.644e-3
-1.556, 3.666e-3
-1.557, 3.684e-3
-1.558, 3.706e-3
-1.559, 3.725e-3
-1.560, 3.746e-3
-1.561, 3.768e-3
-1.562, 3.792e-3
-1.563, 3.817e-3
-1.564, 3.845e-3
-1.565, 3.866e-3
-1.566, 3.888e-3
-1.567, 3.910e-3
-1.568, 3.928e-3
-1.569, 3.950e-3
-1.570, 3.971e-3
-1.571, 3.996e-3
-1.572, 4.024e-3
-1.573, 4.048e-3
-1.574, 4.079e-3
-1.575, 4.104e-3
-1.576, 4.125e-3
-1.577, 4.150e-3
-1.578, 4.172e-3
-1.579, 4.193e-3
-1.580, 4.218e-3
-1.581, 4.246e-3
-1.582, 4.273e-3
-1.583, 4.301e-3
-1.584, 4.329e-3
-1.585, 4.357e-3
-1.586, 4.378e-3
-1.587, 4.400e-3
-1.588, 4.424e-3
-1.589, 4.446e-3
-1.590, 4.468e-3
-1.591, 4.495e-3
-1.592, 4.523e-3
-1.593, 4.551e-3
-1.594, 4.582e-3
-1.595, 4.606e-3
-1.596, 4.634e-3
-1.597, 4.656e-3
-1.598, 4.680e-3
-1.599, 4.702e-3
-1.600, 4.723e-3
-1.601, 4.754e-3
-1.602, 4.782e-3
-1.603, 4.810e-3
-1.604, 4.841e-3
-1.605, 4.868e-3
-1.606, 4.896e-3
-1.607, 4.921e-3
-1.608, 4.949e-3
-1.609, 4.973e-3
-1.610, 5.001e-3
-1.611, 5.029e-3
-1.612, 5.063e-3
-1.613, 5.093e-3
-1.614, 5.127e-3
-1.615, 5.158e-3
-1.616, 5.186e-3
-1.617, 5.214e-3
-1.618, 5.241e-3
-1.619, 5.266e-3
-1.620, 5.300e-3
-1.621, 5.331e-3
-1.622, 5.368e-3
-1.623, 5.402e-3
-1.624, 5.439e-3
-1.625, 5.476e-3
-1.626, 5.510e-3
-1.627, 5.541e-3
-1.628, 5.571e-3
-1.629, 5.602e-3
-1.630, 5.633e-3
-1.631, 5.670e-3
-1.632, 5.707e-3
-1.633, 5.744e-3
-1.634, 5.781e-3
-1.635, 5.818e-3
-1.636, 5.855e-3
-1.637, 5.886e-3
-1.638, 5.920e-3
-1.639, 5.951e-3
-1.640, 5.984e-3
-1.641, 6.021e-3
-1.642, 6.058e-3
-1.643, 6.099e-3
-1.644, 6.139e-3
-1.645, 6.176e-3
-1.646, 6.213e-3
-1.647, 6.243e-3
-1.648, 6.277e-3
-1.649, 6.308e-3
-1.650, 6.345e-3
-1.651, 6.382e-3
-1.652, 6.422e-3
-1.653, 6.462e-3
-1.654, 6.502e-3
-1.655, 6.539e-3
-1.656, 6.576e-3
-1.657, 6.610e-3
-1.658, 6.644e-3
-1.659, 6.678e-3
-1.660, 6.715e-3
-1.661, 6.755e-3
-1.662, 6.798e-3
-1.663, 6.842e-3
-1.664, 6.888e-3
-1.665, 6.931e-3
-1.666, 6.974e-3
-1.667, 7.014e-3
-1.668, 7.054e-3
-1.669, 7.094e-3
-1.670, 7.138e-3
-1.671, 7.184e-3
-1.672, 7.233e-3
-1.673, 7.279e-3
-1.674, 7.332e-3
-1.675, 7.381e-3
-1.676, 7.430e-3
-1.677, 7.477e-3
-1.678, 7.523e-3
-1.679, 7.566e-3
-1.680, 7.619e-3
-1.681, 7.668e-3
-1.682, 7.723e-3
-1.683, 7.779e-3
-1.684, 7.834e-3
-1.685, 7.890e-3
-1.686, 7.942e-3
-1.687, 7.992e-3
-1.688, 8.041e-3
-1.689, 8.087e-3
-1.690, 8.140e-3
-1.691, 8.195e-3
-1.692, 8.254e-3
-1.693, 8.309e-3
-1.694, 8.371e-3
-1.695, 8.426e-3
-1.696, 8.482e-3
-1.697, 8.531e-3
-1.698, 8.584e-3
-1.699, 8.633e-3
-1.700, 8.605e-3
-1.699, 8.491e-3
-1.698, 8.399e-3
-1.697, 8.303e-3
-1.696, 8.210e-3
-1.695, 8.118e-3
-1.694, 8.022e-3
-1.693, 7.921e-3
-1.692, 7.825e-3
-1.691, 7.726e-3
-1.690, 7.634e-3
-1.689, 7.545e-3
-1.688, 7.458e-3
-1.687, 7.378e-3
-1.686, 7.298e-3
-1.685, 7.212e-3
-1.684, 7.128e-3
-1.683, 7.042e-3
-1.682, 6.959e-3
-1.681, 6.879e-3
-1.680, 6.798e-3
-1.679, 6.721e-3
-1.678, 6.650e-3
-1.677, 6.580e-3
-1.676, 6.512e-3
-1.675, 6.441e-3
-1.674, 6.370e-3
-1.673, 6.296e-3
-1.672, 6.228e-3
-1.671, 6.157e-3
-1.670, 6.086e-3
-1.669, 6.021e-3
-1.668, 5.957e-3
-1.667, 5.895e-3
-1.666, 5.833e-3
-1.665, 5.772e-3
-1.664, 5.710e-3
-1.663, 5.645e-3
-1.662, 5.581e-3
-1.661, 5.516e-3
-1.660, 5.454e-3
-1.659, 5.396e-3
-1.658, 5.340e-3
-1.657, 5.285e-3
-1.656, 5.232e-3
-1.655, 5.177e-3
-1.654, 5.121e-3
-1.653, 5.063e-3
-1.652, 5.004e-3
-1.651, 4.949e-3
-1.650, 4.893e-3
-1.649, 4.841e-3
-1.648, 4.794e-3
-1.647, 4.742e-3
-1.646, 4.696e-3
-1.645, 4.646e-3
-1.644, 4.594e-3
-1.643, 4.542e-3
-1.642, 4.492e-3
-1.641, 4.440e-3
-1.640, 4.394e-3
-1.639, 4.347e-3
-1.638, 4.301e-3
-1.637, 4.261e-3
-1.636, 4.221e-3
-1.635, 4.181e-3
-1.634, 4.138e-3
-1.633, 4.091e-3
-1.632, 4.048e-3
-1.631, 4.005e-3
-1.630, 3.965e-3
-1.629, 3.928e-3
-1.628, 3.894e-3
-1.627, 3.857e-3
-1.626, 3.823e-3
-1.625, 3.786e-3
-1.624, 3.749e-3
-1.623, 3.709e-3
-1.622, 3.672e-3
-1.621, 3.635e-3
-1.620, 3.601e-3
-1.619, 3.567e-3
-1.618, 3.536e-3
-1.617, 3.506e-3
-1.616, 3.475e-3
-1.615, 3.441e-3
-1.614, 3.407e-3
-1.613, 3.376e-3
-1.612, 3.342e-3
-1.611, 3.308e-3
-1.610, 3.278e-3
-1.609, 3.250e-3
-1.608, 3.222e-3
-1.607, 3.194e-3
-1.606, 3.170e-3
-1.605, 3.142e-3
-1.604, 3.111e-3
-1.603, 3.080e-3
-1.602, 3.049e-3
-1.601, 3.019e-3
-1.600, 2.994e-3
-1.599, 2.969e-3
-1.598, 2.945e-3
-1.597, 2.920e-3
-1.596, 2.898e-3
-1.595, 2.871e-3
-1.594, 2.846e-3
-1.593, 2.818e-3
-1.592, 2.793e-3
-1.591, 2.766e-3
-1.590, 2.744e-3
-1.589, 2.723e-3
-1.588, 2.704e-3
-1.587, 2.682e-3
-1.586, 2.661e-3
-1.585, 2.639e-3
-1.584, 2.618e-3
-1.583, 2.593e-3
-1.582, 2.575e-3
-1.581, 2.550e-3
-1.580, 2.531e-3
-1.579, 2.513e-3
-1.578, 2.497e-3
-1.577, 2.479e-3
-1.576, 2.464e-3
-1.575, 2.445e-3
-1.574, 2.423e-3
-1.573, 2.402e-3
-1.572, 2.380e-3
-1.571, 2.359e-3
-1.570, 2.340e-3
-1.569, 2.325e-3
-1.568, 2.309e-3
-1.567, 2.291e-3
-1.566, 2.279e-3
-1.565, 2.260e-3
-1.564, 2.238e-3
-1.563, 2.220e-3
-1.562, 2.201e-3
-1.561, 2.183e-3
-1.560, 2.168e-3
-1.559, 2.152e-3
-1.558, 2.140e-3
-1.557, 2.124e-3
-1.556, 2.109e-3
-1.555, 2.094e-3
-1.554, 2.075e-3
-1.553, 2.057e-3
-1.552, 2.041e-3
-1.551, 2.020e-3
-1.550, 2.007e-3
-1.549, 1.992e-3
-1.548, 1.980e-3
-1.547, 1.967e-3
-1.546, 1.955e-3
-1.545, 1.939e-3
-1.544, 1.924e-3
-1.543, 1.906e-3
-1.542, 1.890e-3
-1.541, 1.875e-3
-1.540, 1.859e-3
-1.539, 1.850e-3
-1.538, 1.838e-3
-1.537, 1.825e-3
-1.536, 1.816e-3
-1.535, 1.801e-3
-1.534, 1.785e-3
-1.533, 1.770e-3
-1.532, 1.754e-3
-1.531, 1.739e-3
-1.530, 1.727e-3
-1.529, 1.714e-3
-1.528, 1.705e-3
-1.527, 1.693e-3
-1.526, 1.684e-3
-1.525, 1.671e-3
-1.524, 1.656e-3
-1.523, 1.640e-3
-1.522, 1.628e-3
-1.521, 1.613e-3
-1.520, 1.600e-3
-1.519, 1.588e-3
-1.518, 1.582e-3
-1.517, 1.569e-3
-1.516, 1.560e-3
-1.515, 1.548e-3
-1.514, 1.532e-3
-1.513, 1.517e-3
-1.512, 1.505e-3
-1.511, 1.492e-3
-1.510, 1.480e-3
-1.509, 1.471e-3
-1.508, 1.462e-3
-1.507, 1.452e-3
-1.506, 1.443e-3
-1.505, 1.428e-3
-1.504, 1.418e-3
-1.503, 1.403e-3
-1.502, 1.391e-3
-1.501, 1.375e-3
-1.500, 1.366e-3
-1.499, 1.357e-3
-1.498, 1.347e-3
-1.497, 1.338e-3
-1.496, 1.329e-3
-1.495, 1.317e-3
-1.494, 1.301e-3
-1.493, 1.289e-3
-1.492, 1.277e-3
-1.491, 1.261e-3
-1.490, 1.252e-3
-1.489, 1.243e-3
-1.488, 1.236e-3
-1.487, 1.224e-3
-1.486, 1.218e-3
-1.485, 1.206e-3
-1.484, 1.193e-3
-1.483, 1.178e-3
-1.482, 1.166e-3
-1.481, 1.153e-3
-1.480, 1.144e-3
-1.479, 1.135e-3
-1.478, 1.125e-3
-1.477, 1.116e-3
-1.476, 1.107e-3
-1.475, 1.095e-3
-1.474, 1.082e-3
-1.473, 1.070e-3
-1.472, 1.058e-3
-1.471, 1.045e-3
-1.470, 1.033e-3
-1.469, 1.027e-3
-1.468, 1.018e-3
-1.467, 1.008e-3
-1.466, 1.002e-3
-1.465, 9.898e-4
-1.464, 9.775e-4
-1.463, 9.621e-4
-1.462, 9.528e-4
-1.461, 9.374e-4
-1.460, 9.282e-4
-1.459, 9.189e-4
-1.458, 9.128e-4
-1.457, 9.035e-4
-1.456, 8.943e-4
-1.455, 8.850e-4
-1.454, 8.727e-4
-1.453, 8.573e-4
-1.452, 8.449e-4
-1.451, 8.357e-4
-1.450, 8.233e-4
-1.449, 8.141e-4
-1.448, 8.079e-4
-1.447, 8.018e-4
-1.446, 7.925e-4
-1.445, 7.802e-4
-1.444, 7.679e-4
-1.443, 7.524e-4
-1.442, 7.432e-4
-1.441, 7.309e-4
-1.440, 7.216e-4
-1.439, 7.154e-4
-1.438, 7.062e-4
-1.437, 7.000e-4
-1.436, 6.908e-4
-1.435, 6.815e-4
-1.434, 6.692e-4
-1.433, 6.569e-4
-1.432, 6.476e-4
-1.431, 6.353e-4
-1.430, 6.260e-4
-1.429, 6.199e-4
-1.428, 6.106e-4
-1.427, 6.044e-4
-1.426, 5.983e-4
-1.425, 5.859e-4
-1.424, 5.736e-4
-1.423, 5.644e-4
-1.422, 5.520e-4
-1.421, 5.397e-4
-1.420, 5.335e-4
-1.419, 5.243e-4
-1.418, 5.212e-4
-1.417, 5.120e-4
-1.416, 5.058e-4
-1.415, 4.965e-4
-1.414, 4.842e-4
-1.413, 4.719e-4
-1.412, 4.626e-4
-1.411, 4.534e-4
-1.410, 4.441e-4
-1.409, 4.380e-4
-1.408, 4.318e-4
-1.407, 4.256e-4
-1.406, 4.195e-4
-1.405, 4.102e-4
-1.404, 4.010e-4
-1.403, 3.886e-4
-1.402, 3.794e-4
-1.401, 3.701e-4
-1.400, 3.640e-4
-1.399, 3.578e-4
-1.398, 3.516e-4
-1.397, 3.455e-4
-1.396, 3.393e-4
-1.395, 3.300e-4
-1.394, 3.208e-4
-1.393, 3.115e-4
-1.392, 3.023e-4
-1.391, 2.931e-4
-1.390, 2.838e-4
-1.389, 2.807e-4
-1.388, 2.746e-4
-1.387, 2.715e-4
-1.386, 2.653e-4
-1.385, 2.561e-4
-1.384, 2.468e-4
-1.383, 2.376e-4
-1.382, 2.283e-4
-1.381, 2.221e-4
-1.380, 2.129e-4
-1.379, 2.129e-4
-1.378, 2.067e-4
-1.377, 2.036e-4
-1.376, 1.975e-4
-1.375, 1.913e-4
-1.374, 1.821e-4
-1.373, 1.728e-4
-1.372, 1.666e-4
-1.371, 1.574e-4
-1.370, 1.512e-4
-1.369, 1.481e-4
-1.368, 1.451e-4
-1.367, 1.389e-4
-1.366, 1.358e-4
-1.365, 1.296e-4
-1.364, 1.204e-4
-1.363, 1.142e-4
-1.362, 1.081e-4
-1.361, 9.882e-5
-1.360, 9.265e-5
-1.359, 8.957e-5
-1.358, 8.957e-5
-1.357, 8.340e-5
-1.356, 8.032e-5
-1.355, 7.415e-5
-1.354, 6.798e-5
-1.353, 5.873e-5
-1.352, 5.565e-5
-1.351, 4.640e-5
-1.350, 4.024e-5
-1.349, 4.024e-5
-1.348, 3.715e-5
-1.347, 3.407e-5
-1.346, 3.099e-5
-1.345, 2.482e-5
-1.344, 1.865e-5
-1.343, 1.249e-5
-1.342, 6.322e-6
-1.341, 1.559e-7
-1.340, -2.927e-6
-1.339, -6.010e-6
-1.338, -6.010e-6
-1.337, -9.093e-6
-1.336, -1.218e-5
-1.335, -1.526e-5
-1.334, -2.143e-5
-1.333, -3.068e-5
-1.332, -3.376e-5
-1.331, -3.992e-5
-1.330, -4.301e-5
-1.329, -4.301e-5
-1.328, -4.609e-5
-1.327, -4.609e-5
-1.326, -4.917e-5
-1.325, -5.226e-5
-1.324, -5.842e-5
-1.323, -6.459e-5
-1.322, -7.076e-5
-1.321, -7.384e-5
-1.320, -7.692e-5
-1.319, -7.692e-5
-1.318, -7.692e-5
-1.317, -8.000e-5
-1.316, -8.000e-5
-1.315, -8.617e-5
-1.314, -8.925e-5
-1.313, -9.542e-5
-1.312, -9.850e-5
-1.311, -1.016e-4
-1.310, -1.047e-4
-1.309, -1.047e-4
-1.308, -1.047e-4
-1.307, -1.047e-4
-1.306, -1.047e-4
-1.305, -1.108e-4
-1.304, -1.139e-4
-1.303, -1.201e-4
-1.302, -1.232e-4
-1.301, -1.263e-4
-1.300, -1.293e-4
-1.299, -1.293e-4
-1.298, -1.293e-4
-1.297, -1.293e-4
-1.296, -1.293e-4
-1.295, -1.324e-4
-1.294, -1.355e-4
-1.293, -1.417e-4
-1.292, -1.448e-4
-1.291, -1.478e-4
-1.290, -1.478e-4
-1.289, -1.478e-4
-1.288, -1.478e-4
-1.287, -1.478e-4
-1.286, -1.478e-4
-1.285, -1.509e-4
-1.284, -1.540e-4
-1.283, -1.571e-4
-1.282, -1.602e-4
-1.281, -1.632e-4
-1.280, -1.663e-4
-1.279, -1.632e-4
-1.278, -1.632e-4
-1.277, -1.602e-4
-1.276, -1.632e-4
-1.275, -1.632e-4
-1.274, -1.663e-4
-1.273, -1.725e-4
-1.272, -1.725e-4
-1.271, -1.756e-4
-1.270, -1.787e-4
-1.269, -1.756e-4
-1.268, -1.756e-4
-1.267, -1.756e-4
-1.266, -1.725e-4
-1.265, -1.756e-4
-1.264, -1.787e-4
-1.263, -1.817e-4
-1.262, -1.848e-4
-1.261, -1.879e-4
-1.260, -1.879e-4
-1.259, -1.848e-4
-1.258, -1.848e-4
-1.257, -1.817e-4
-1.256, -1.817e-4
-1.255, -1.848e-4
-1.254, -1.879e-4
-1.253, -1.910e-4
-1.252, -1.941e-4
-1.251, -1.941e-4
-1.250, -1.941e-4
-1.249, -1.941e-4
-1.248, -1.910e-4
-1.247, -1.910e-4
-1.246, -1.910e-4
-1.245, -1.910e-4
-1.244, -1.941e-4
-1.243, -1.972e-4
-1.242, -2.002e-4
-1.241, -2.002e-4
-1.240, -2.002e-4
-1.239, -2.002e-4
-1.238, -1.972e-4
-1.237, -1.941e-4
-1.236, -1.941e-4
-1.235, -1.972e-4
-1.234, -1.972e-4
-1.233, -2.033e-4
-1.232, -2.033e-4
-1.231, -2.033e-4
-1.230, -2.064e-4
-1.229, -2.033e-4
-1.228, -2.033e-4
-1.227, -2.002e-4
-1.226, -1.972e-4
-1.225, -2.002e-4
-1.224, -2.033e-4
-1.223, -2.064e-4
-1.222, -2.095e-4
-1.221, -2.095e-4
-1.220, -2.095e-4
-1.219, -2.064e-4
-1.218, -2.033e-4
-1.217, -2.033e-4
-1.216, -2.033e-4
-1.215, -2.033e-4
-1.214, -2.064e-4
-1.213, -2.095e-4
-1.212, -2.126e-4
-1.211, -2.126e-4
-1.210, -2.126e-4
-1.209, -2.126e-4
-1.208, -2.095e-4
-1.207, -2.064e-4
-1.206, -2.064e-4
-1.205, -2.064e-4
-1.204, -2.095e-4
-1.203, -2.126e-4
-1.202, -2.157e-4
-1.201, -2.157e-4
-1.200, -2.157e-4
-1.199, -2.126e-4
-1.198, -2.126e-4
-1.197, -2.095e-4
-1.196, -2.095e-4
-1.195, -2.095e-4
-1.194, -2.126e-4
-1.193, -2.157e-4
-1.192, -2.187e-4
-1.191, -2.187e-4
-1.190, -2.187e-4
-1.189, -2.157e-4
-1.188, -2.157e-4
-1.187, -2.126e-4
-1.186, -2.126e-4
-1.185, -2.157e-4
-1.184, -2.157e-4
-1.183, -2.187e-4
-1.182, -2.218e-4
-1.181, -2.218e-4
-1.180, -2.218e-4
-1.179, -2.218e-4
-1.178, -2.187e-4
-1.177, -2.187e-4
-1.176, -2.187e-4
-1.175, -2.187e-4
-1.174, -2.218e-4
-1.173, -2.249e-4
-1.172, -2.249e-4
-1.171, -2.280e-4
-1.170, -2.280e-4
-1.169, -2.249e-4
-1.168, -2.218e-4
-1.167, -2.218e-4
-1.166, -2.218e-4
-1.165, -2.218e-4
-1.164, -2.249e-4
-1.163, -2.280e-4
-1.162, -2.311e-4
-1.161, -2.311e-4
-1.160, -2.311e-4
-1.159, -2.311e-4
-1.158, -2.280e-4
-1.157, -2.249e-4
-1.156, -2.249e-4
-1.155, -2.280e-4
-1.154, -2.280e-4
-1.153, -2.342e-4
-1.152, -2.342e-4
-1.151, -2.372e-4
-1.150, -2.372e-4
-1.149, -2.342e-4
-1.148, -2.342e-4
-1.147, -2.311e-4
-1.146, -2.311e-4
-1.145, -2.342e-4
-1.144, -2.342e-4
-1.143, -2.372e-4
-1.142, -2.403e-4
-1.141, -2.434e-4
-1.140, -2.434e-4
-1.139, -2.403e-4
-1.138, -2.403e-4
-1.137, -2.403e-4
-1.136, -2.372e-4
-1.135, -2.403e-4
-1.134, -2.434e-4
-1.133, -2.465e-4
-1.132, -2.496e-4
-1.131, -2.496e-4
-1.130, -2.496e-4
-1.129, -2.496e-4
-1.128, -2.465e-4
-1.127, -2.465e-4
-1.126, -2.465e-4
-1.125, -2.496e-4
-1.124, -2.527e-4
-1.123, -2.557e-4
-1.122, -2.557e-4
-1.121, -2.588e-4
-1.120, -2.619e-4
-1.119, -2.588e-4
-1.118, -2.557e-4
-1.117, -2.557e-4
-1.116, -2.557e-4
-1.115, -2.588e-4
-1.114, -2.619e-4
-1.113, -2.650e-4
-1.112, -2.681e-4
-1.111, -2.712e-4
-1.110, -2.712e-4
-1.109, -2.681e-4
-1.108, -2.681e-4
-1.107, -2.681e-4
-1.106, -2.681e-4
-1.105, -2.712e-4
-1.104, -2.742e-4
-1.103, -2.773e-4
-1.102, -2.804e-4
-1.101, -2.804e-4
-1.100, -2.835e-4
-1.099, -2.835e-4
-1.098, -2.804e-4
-1.097, -2.804e-4
-1.096, -2.804e-4
-1.095, -2.835e-4
-1.094, -2.866e-4
-1.093, -2.897e-4
-1.092, -2.958e-4
-1.091, -2.958e-4
-1.090, -2.989e-4
-1.089, -2.989e-4
-1.088, -2.958e-4
-1.087, -2.989e-4
-1.086, -2.989e-4
-1.085, -2.989e-4
-1.084, -3.051e-4
-1.083, -3.082e-4
-1.082, -3.112e-4
-1.081, -3.143e-4
-1.080, -3.174e-4
-1.079, -3.174e-4
-1.078, -3.174e-4
-1.077, -3.143e-4
-1.076, -3.174e-4
-1.075, -3.205e-4
-1.074, -3.236e-4
-1.073, -3.297e-4
-1.072, -3.328e-4
-1.071, -3.359e-4
-1.070, -3.390e-4
-1.069, -3.390e-4
-1.068, -3.390e-4
-1.067, -3.390e-4
-1.066, -3.390e-4
-1.065, -3.452e-4
-1.064, -3.482e-4
-1.063, -3.544e-4
-1.062, -3.575e-4
-1.061, -3.637e-4
-1.060, -3.637e-4
-1.059, -3.667e-4
-1.058, -3.667e-4
-1.057, -3.667e-4
-1.056, -3.667e-4
-1.055, -3.729e-4
-1.054, -3.760e-4
-1.053, -3.821e-4
-1.052, -3.883e-4
-1.051, -3.914e-4
-1.050, -3.945e-4
-1.049, -3.945e-4
-1.048, -3.976e-4
-1.047, -3.976e-4
-1.046, -3.976e-4
-1.045, -4.037e-4
-1.044, -4.099e-4
-1.043, -4.130e-4
-1.042, -4.191e-4
-1.041, -4.253e-4
-1.040, -4.284e-4
-1.039, -4.284e-4
-1.038, -4.315e-4
-1.037, -4.315e-4
-1.036, -4.346e-4
-1.035, -4.376e-4
-1.034, -4.438e-4
-1.033, -4.500e-4
-1.032, -4.531e-4
-1.031, -4.592e-4
-1.030, -4.623e-4
-1.029, -4.623e-4
-1.028, -4.623e-4
-1.027, -4.623e-4
-1.026, -4.654e-4
-1.025, -4.685e-4
-1.024, -4.746e-4
-1.023, -4.808e-4
-1.022, -4.839e-4
-1.021, -4.870e-4
-1.020, -4.901e-4
-1.019, -4.901e-4
-1.018, -4.901e-4
-1.017, -4.901e-4
-1.016, -4.901e-4
-1.015, -4.931e-4
-1.014, -4.993e-4
-1.013, -5.024e-4
-1.012, -5.055e-4
-1.011, -5.086e-4
-1.010, -5.116e-4
-1.009, -5.116e-4
-1.008, -5.086e-4
-1.007, -5.086e-4
-1.006, -5.086e-4
-1.005, -5.086e-4
-1.004, -5.116e-4
-1.003, -5.147e-4
-1.002, -5.178e-4
-1.001, -5.209e-4
