Potential V vs RHE, Current mA cm-2
0.05339999999999995,-0.037772791706396476
0.05239999999999995,-0.04113980460007527
0.051399999999999946,-0.04248378033494705
0.050399999999999945,-0.04336090134086337
0.049399999999999944,-0.04406825699079589
0.04839999999999994,-0.044662435736739205
0.04739999999999994,-0.045256614482682526
0.04639999999999994,-0.045794204776631244
0.04539999999999994,-0.046331795070579954
0.04439999999999994,-0.046883532477527315
0.04339999999999994,-0.04736453431948143
0.04239999999999994,-0.0478596832744342
0.04139999999999994,-0.0483406851163883
0.040399999999999936,-0.04883583407134107
0.039399999999999935,-0.04935927725229113
0.038399999999999934,-0.049826131981246594
0.03739999999999993,-0.05026469248420476
0.03639999999999993,-0.050745694326158865
0.03539999999999993,-0.05119840194211568
0.03439999999999993,-0.051693550897068445
0.03339999999999993,-0.05214625851302525
0.03239999999999993,-0.052584819015983414
0.03139999999999993,-0.053037526631940224
0.030399999999999927,-0.053504381360895685
0.029399999999999926,-0.05399953031584845
0.028399999999999925,-0.05446638504480392
0.027399999999999924,-0.05490494554776207
0.026399999999999924,-0.05537180027671754
0.025399999999999923,-0.05586694923167029
0.024399999999999922,-0.056291362621629815
0.02339999999999992,-0.05677236446358393
0.02239999999999992,-0.057182630740544776
0.02139999999999992,-0.05763533835650159
0.020399999999999918,-0.058144634424453
0.019399999999999917,-0.058597342040409825
0.018399999999999916,-0.05903590254336798
0.017399999999999916,-0.05947446304632614
0.016399999999999915,-0.0599130235492843
0.015399999999999914,-0.060408172504237065
0.014399999999999913,-0.06087502723319253
0.013399999999999912,-0.06134188196214799
0.012399999999999911,-0.06182288380410209
0.01139999999999991,-0.062247297194061614
0.01039999999999991,-0.06278488748801032
0.009399999999999908,-0.06326588932996444
0.008399999999999908,-0.0637044498329226
0.007399999999999907,-0.06419959878787536
0.006399999999999906,-0.06465230640383217
0.005399999999999905,-0.06516160247178358
0.004399999999999904,-0.065670898539735
0.003399999999999903,-0.06612360615569181
0.002399999999999902,-0.06661875511064458
0.0013999999999999013,-0.06705731561360274
0.00039999999999990044,-0.06759490590755145
-0.0006000000000001005,-0.06810420197550286
-0.0016000000000001013,-0.06854276247846103
-0.0026000000000001022,-0.06900961720741648
-0.003600000000000103,-0.06950476616236925
-0.004600000000000104,-0.06999991511732201
-0.005600000000000105,-0.07053750541127073
-0.006600000000000106,-0.07100436014022618
-0.007600000000000107,-0.07149950909517895
-0.008600000000000108,-0.07202295227612901
-0.009600000000000108,-0.07248980700508448
-0.01060000000000011,-0.07301325018603454
-0.01160000000000011,-0.07352254625398597
-0.012600000000000111,-0.07404598943493602
-0.013600000000000112,-0.07451284416389148
-0.014600000000000113,-0.0750504344578402
-0.015600000000000114,-0.07555973052579161
-0.016600000000000115,-0.07606902659374302
-0.017600000000000116,-0.07653588132269848
-0.018600000000000116,-0.07703103027765125
-0.019600000000000117,-0.07756862057159995
-0.020600000000000118,-0.07810621086554868
-0.02160000000000012,-0.0786155069335001
-0.02260000000000012,-0.07911065588845285
-0.02360000000000012,-0.07959165773040697
-0.024600000000000122,-0.08015754225035297
-0.025600000000000123,-0.08065269120530574
-0.026600000000000124,-0.08116198727325716
-0.027600000000000124,-0.08169957756720586
-0.028600000000000125,-0.08219472652215863
-0.029600000000000126,-0.08276061104210465
-0.030600000000000127,-0.08325575999705741
-0.03160000000000013,-0.08372261472601288
-0.03260000000000013,-0.08421776368096563
-0.03360000000000013,-0.08469876552291973
-0.03460000000000002,-0.08526465004286575
-0.03560000000000002,-0.08580224033681448
-0.03660000000000002,-0.08629738929176724
-0.03760000000000002,-0.08682083247271731
-0.03860000000000002,-0.08731598142767007
-0.039600000000000024,-0.08781113038262284
-0.040600000000000025,-0.08834872067657155
-0.041600000000000026,-0.08882972251852565
-0.04260000000000003,-0.08932487147347841
-0.04360000000000003,-0.08986246176742714
-0.04460000000000003,-0.09037175783537854
-0.04560000000000003,-0.09093764235532456
-0.04660000000000003,-0.09141864419727867
-0.04760000000000003,-0.09189964603923279
-0.04860000000000003,-0.0924372363331815
-0.04960000000000003,-0.09296067951413156
-0.050600000000000034,-0.09349826980808028
-0.051600000000000035,-0.09402171298903034
-0.052600000000000036,-0.09447442060498715
-0.053600000000000037,-0.09498371667293856
-0.05460000000000004,-0.09554960119288458
-0.05560000000000004,-0.09604475014783734
-0.05660000000000004,-0.09655404621578875
-0.05760000000000004,-0.09703504805774286
-0.05860000000000004,-0.09751604989969698
-0.05960000000000004,-0.09802534596764839
-0.06060000000000004,-0.09852049492260115
-0.061600000000000044,-0.09901564387755392
-0.06260000000000004,-0.09949664571950805
-0.06360000000000005,-0.0999917946744608
-0.06460000000000005,-0.10048694362941356
-0.06560000000000005,-0.10098209258436633
-0.06660000000000005,-0.10143480020032314
-0.06760000000000005,-0.1019299491552759
-0.06860000000000005,-0.10235436254523542
-0.06960000000000005,-0.10284951150018817
-0.07060000000000005,-0.10334466045514094
-0.07160000000000005,-0.10376907384510045
-0.07260000000000005,-0.10425007568705455
-0.07360000000000005,-0.10466034196401541
-0.07460000000000006,-0.10514134380596953
-0.07560000000000006,-0.10562234564792364
-0.07660000000000006,-0.10606090615088182
-0.07760000000000006,-0.10649946665383996
-0.07860000000000006,-0.10692388004379948
-0.07960000000000006,-0.10736244054675763
-0.08060000000000006,-0.1078575895017104
-0.08160000000000006,-0.10825370866567262
-0.08260000000000006,-0.10863568071663617
-0.08360000000000006,-0.10907424121959435
-0.08460000000000006,-0.10951280172255247
-0.08560000000000006,-0.10995136222551065
-0.08660000000000007,-0.11033333427647421
-0.08760000000000007,-0.11072945344043642
-0.08860000000000007,-0.11112557260439863
-0.08960000000000007,-0.11154998599435814
-0.09060000000000007,-0.1119319580453217
-0.09160000000000007,-0.11231393009628526
-0.09260000000000007,-0.11266760792125154
-0.09360000000000007,-0.11303543285921643
-0.09460000000000007,-0.11341740491017999
-0.09560000000000007,-0.1137852298481449
-0.09660000000000007,-0.11413890767311115
-0.09760000000000008,-0.11446429127208012
-0.09860000000000008,-0.11478967487104909
-0.09960000000000008,-0.11512920558301669
-0.10060000000000008,-0.11548288340798295
-0.10160000000000008,-0.1158365612329492
-0.10260000000000008,-0.11617609194491682
-0.10360000000000008,-0.11644488709189117
-0.10460000000000008,-0.11679856491685743
-0.10560000000000008,-0.11710980140282773
-0.10660000000000008,-0.11742103788879804
-0.10760000000000008,-0.11770398014877105
-0.10860000000000009,-0.11795862818274677
-0.10960000000000009,-0.11822742332972111
-0.11060000000000009,-0.11851036558969412
-0.11160000000000009,-0.11875086651067117
-0.11260000000000009,-0.11900551454464689
-0.11360000000000009,-0.11921772123962665
-0.11460000000000009,-0.11952895772559695
-0.11560000000000009,-0.1198260470985686
-0.11660000000000009,-0.11998166534155377
-0.1176000000000001,-0.12020801914953216
-0.1186000000000001,-0.12039193161851462
-0.1196000000000001,-0.12061828542649301
-0.1206000000000001,-0.12087293346046873
-0.1216000000000001,-0.12104269881645255
-0.1226000000000001,-0.12121246417243635
-0.1236000000000001,-0.12138222952842014
-0.1246000000000001,-0.12153784777140529
-0.1256000000000001,-0.12175005446638507
-0.1266000000000001,-0.12189152559637156
-0.1276000000000001,-0.12200470250036077
-0.1286000000000001,-0.12214617363034727
-0.1296000000000001,-0.12228764476033378
-0.1306000000000001,-0.12244326300331891
-0.1316000000000001,-0.12259888124630408
-0.1326000000000001,-0.12265546969829867
-0.1336000000000001,-0.12279694082828517
-0.1346000000000001,-0.1229101177322744
-0.1356000000000001,-0.12302329463626359
-0.1366000000000001,-0.12310817731425551
-0.1376000000000001,-0.12320720710524605
-0.1386000000000001,-0.12326379555724064
-0.1396000000000001,-0.12337697246122986
-0.1406000000000001,-0.1234760022522204
-0.14160000000000011,-0.12356088493021229
-0.14260000000000012,-0.12361747338220691
-0.14360000000000012,-0.12363162049520555
-0.14460000000000012,-0.12371650317319745
-0.14560000000000012,-0.12377309162519207
-0.14660000000000012,-0.12380138585118937
-0.14760000000000012,-0.1238438271901853
-0.14860000000000012,-0.12382968007718667
-0.14960000000000012,-0.12388626852918126
-0.15060000000000012,-0.12395700409417452
-0.15160000000000012,-0.12395700409417452
-0.15260000000000012,-0.1239852983201718
-0.15360000000000013,-0.12394285698117587
-0.15460000000000013,-0.12397115120717317
-0.15560000000000013,-0.12402773965916776
-0.15660000000000013,-0.12395700409417452
-0.15760000000000013,-0.1239852983201718
-0.15860000000000013,-0.12394285698117587
-0.15960000000000002,-0.12392870986817722
-0.16060000000000002,-0.12397115120717317
-0.16160000000000002,-0.12392870986817722
-0.16260000000000002,-0.12387212141618263
-0.16360000000000002,-0.1238438271901853
-0.16460000000000002,-0.12382968007718667
-0.16560000000000002,-0.1239004156421799
-0.16660000000000003,-0.12388626852918126
-0.16760000000000003,-0.12375894451219341
-0.16860000000000003,-0.1237023560601988
-0.16960000000000003,-0.12365991472120287
-0.17060000000000003,-0.12363162049520555
-0.17160000000000003,-0.12356088493021229
-0.17260000000000003,-0.12350429647821769
-0.17360000000000003,-0.12340526668722714
-0.17460000000000003,-0.12337697246122986
-0.17560000000000003,-0.12332038400923526
-0.17660000000000003,-0.12324964844424201
-0.17760000000000004,-0.12317891287924874
-0.17860000000000004,-0.12309403020125685
-0.17960000000000004,-0.1230515888622609
-0.18060000000000004,-0.12299500041026629
-0.18160000000000004,-0.12292426484527302
-0.18260000000000004,-0.12282523505428247
-0.18360000000000004,-0.12272620526329193
-0.18460000000000004,-0.12266961681129733
-0.18560000000000004,-0.12261302835930274
-0.18660000000000004,-0.12252814568131082
-0.18760000000000004,-0.12245741011631758
-0.18860000000000005,-0.12234423321232836
-0.18960000000000005,-0.12228764476033378
-0.19060000000000005,-0.12224520342133782
-0.19160000000000005,-0.1221603207433459
-0.19260000000000005,-0.12208958517835267
-0.19360000000000005,-0.12197640827436346
-0.19460000000000005,-0.12193396693536751
-0.19560000000000005,-0.1218773784833729
-0.19660000000000005,-0.12177834869238235
-0.19760000000000005,-0.12170761312738912
-0.19860000000000005,-0.1216227304493972
-0.19960000000000006,-0.12153784777140529
-0.20060000000000006,-0.12149540643240934
-0.20160000000000006,-0.1213963766414188
-0.20260000000000006,-0.1213114939634269
-0.20360000000000006,-0.1212549055114323
-0.20460000000000006,-0.12118416994643905
-0.20560000000000006,-0.12114172860744309
-0.20660000000000006,-0.12104269881645255
-0.20760000000000006,-0.120943669025462
-0.20860000000000006,-0.12087293346046873
-0.20960000000000006,-0.12078805078247684
-0.21060000000000006,-0.12077390366947817
-0.21160000000000007,-0.12070316810448493
-0.21260000000000007,-0.12058999120049572
-0.21360000000000007,-0.12051925563550246
-0.21460000000000007,-0.12046266718350787
-0.21560000000000007,-0.12039193161851462
-0.21660000000000007,-0.12034949027951866
-0.21760000000000007,-0.12030704894052272
-0.21860000000000007,-0.12023631337552945
-0.21960000000000007,-0.12017972492353488
-0.22060000000000007,-0.12012313647154027
-0.22160000000000007,-0.12003825379354836
-0.22260000000000008,-0.1199675182285551
-0.22360000000000008,-0.11991092977656051
-0.22460000000000008,-0.11986848843756456
-0.22560000000000008,-0.11985434132456589
-0.22660000000000008,-0.11978360575957266
-0.22760000000000008,-0.11972701730757807
-0.22860000000000008,-0.11964213462958616
-0.22960000000000008,-0.11964213462958616
-0.23060000000000008,-0.1196279875165875
-0.23160000000000008,-0.1195713990645929
-0.23260000000000008,-0.11952895772559695
-0.23360000000000009,-0.11945822216060371
-0.2346000000000001,-0.11944407504760506
-0.2356000000000001,-0.11944407504760506
-0.2366000000000001,-0.11938748659561045
-0.2376000000000001,-0.11935919236961315
-0.2386000000000001,-0.11931675103061717
-0.2396000000000001,-0.11927430969162124
-0.2406000000000001,-0.11930260391761856
-0.2416000000000001,-0.1192601625786226
-0.2426000000000001,-0.11924601546562394
-0.2436000000000001,-0.1192318683526253
-0.2446000000000001,-0.11920357412662799
-0.2456000000000001,-0.1192318683526253
-0.2466000000000001,-0.11920357412662799
-0.2476000000000001,-0.11916113278763205
-0.2486000000000001,-0.11916113278763205
-0.2496000000000001,-0.11916113278763205
-0.2506000000000001,-0.11920357412662799
-0.2516000000000001,-0.11921772123962665
-0.2526000000000001,-0.11918942701362933
-0.2536000000000001,-0.11918942701362933
-0.2546000000000001,-0.11917527990063068
-0.2556000000000001,-0.11924601546562394
-0.2566000000000001,-0.1192601625786226
-0.2576000000000001,-0.11924601546562394
-0.2586000000000001,-0.11924601546562394
-0.2596000000000001,-0.11930260391761856
-0.2606000000000001,-0.11933089814361585
-0.2616000000000001,-0.11937333948261179
-0.2626000000000001,-0.11937333948261179
-0.2636000000000001,-0.11941578082160774
-0.2646000000000001,-0.11944407504760506
-0.2656000000000001,-0.11950066349959966
-0.2666000000000001,-0.11954310483859559
-0.2676000000000001,-0.1195713990645929
-0.2686000000000001,-0.11959969329059021
-0.2696000000000001,-0.1196845759685821
-0.2706000000000001,-0.11974116442057671
-0.2716000000000001,-0.11978360575957266
-0.2726000000000001,-0.1198260470985686
-0.2736000000000001,-0.11986848843756456
-0.2746000000000001,-0.11995337111555646
-0.2756000000000001,-0.12002410668054972
-0.2766000000000001,-0.12008069513254432
-0.2776000000000001,-0.12016557781053622
-0.2786000000000001,-0.12020801914953216
-0.2796000000000001,-0.12026460760152678
-0.2806000000000001,-0.12037778450551596
-0.28160000000000013,-0.12046266718350787
-0.28260000000000013,-0.12054754986149978
-0.28360000000000013,-0.12060413831349438
-0.2846,-0.12068902099148628
-0.2856,-0.12081634500847413
-0.2866,-0.12090122768646602
-0.2876,-0.12097196325145929
-0.2886,-0.1210851401554485
-0.2896,-0.12119831705943768
-0.2906,-0.1213114939634269
-0.2916,-0.12142467086741611
-0.2926,-0.121509553545408
-0.2936,-0.1216227304493972
-0.29460000000000003,-0.12172176024038774
-0.29560000000000003,-0.12184908425737562
-0.29660000000000003,-0.12199055538736212
-0.29760000000000003,-0.12206129095235536
-0.29860000000000003,-0.12218861496934323
-0.29960000000000003,-0.12231593898633109
-0.30060000000000003,-0.12247155722931624
-0.30160000000000003,-0.1226271754723014
-0.30260000000000004,-0.12275449948928924
-0.30360000000000004,-0.12288182350627709
-0.30460000000000004,-0.1230515888622609
-0.30560000000000004,-0.12322135421824468
-0.30660000000000004,-0.12337697246122986
-0.30760000000000004,-0.12356088493021229
-0.30860000000000004,-0.12367406183420152
-0.30960000000000004,-0.12387212141618263
-0.31060000000000004,-0.12407018099816372
-0.31160000000000004,-0.12423994635414752
-0.31260000000000004,-0.12440971171013133
-0.31360000000000005,-0.1245936241791138
-0.31460000000000005,-0.12477753664809622
-0.31560000000000005,-0.12498974334307597
-0.31660000000000005,-0.1251595086990598
-0.31760000000000005,-0.12534342116804223
-0.31860000000000005,-0.12554148075002336
-0.31960000000000005,-0.12576783455800175
-0.32060000000000005,-0.1259800412529815
-0.32160000000000005,-0.12617810083496261
-0.32260000000000005,-0.12639030752994238
-0.32360000000000005,-0.12660251422492214
-0.32460000000000006,-0.12680057380690324
-0.32560000000000006,-0.1270976631798749
-0.32660000000000006,-0.12730986987485465
-0.32760000000000006,-0.12753622368283307
-0.32860000000000006,-0.1277767246038101
-0.32960000000000006,-0.12801722552478714
-0.33060000000000006,-0.12828602067176154
-0.33160000000000006,-0.12856896293173453
-0.33260000000000006,-0.12879531673971292
-0.33360000000000006,-0.12904996477368866
-0.33460000000000006,-0.12930461280766434
-0.33560000000000006,-0.1295734079546387
-0.33660000000000007,-0.12989879155360767
-0.33760000000000007,-0.13015343958758338
-0.33860000000000007,-0.1304363818475564
-0.33960000000000007,-0.13073347122052806
-0.34060000000000007,-0.13104470770649834
-0.34160000000000007,-0.13135594419246865
-0.34260000000000007,-0.13166718067843897
-0.34360000000000007,-0.13196427005141062
-0.3446000000000001,-0.13227550653738093
-0.3456000000000001,-0.13260089013634987
-0.3466000000000001,-0.13291212662232021
-0.34759999999999996,-0.13323751022128916
-0.3486000000000001,-0.1335345995942608
-0.34959999999999997,-0.13387413030622844
-0.3506000000000001,-0.13424195524419333
-0.35159999999999997,-0.13460978018215825
-0.3526000000000001,-0.1349634580071245
-0.35359999999999997,-0.1353029887190921
-0.3546000000000001,-0.13567081365705702
-0.35559999999999997,-0.13608107993401788
-0.3566000000000001,-0.13643475775898414
-0.3576,-0.1368167298099477
-0.3586000000000001,-0.1371845547479126
-0.3596,-0.13759482102487347
-0.3606000000000001,-0.13801923441483296
-0.3616,-0.13842950069179386
-0.3626000000000001,-0.13882561985575606
-0.3636,-0.1392358861327169
-0.3646000000000001,-0.13966029952267642
-0.3656,-0.14009886002563457
-0.3666000000000001,-0.14052327341559406
-0.3676,-0.1409759810315509
-0.3686000000000001,-0.14141454153450908
-0.3696,-0.14189554337646318
-0.3706000000000001,-0.1423199567664227
-0.3716,-0.1428858412863687
-0.3726000000000001,-0.1433102546763282
-0.3736,-0.1437346680662877
-0.3746000000000001,-0.14415908145624726
-0.3756,-0.14458349484620675
-0.3766000000000001,-0.14514937936615277
-0.3776,-0.14571526388609876
-0.3786000000000001,-0.14613967727605828
-0.3796,-0.1467055617960043
-0.3806000000000001,-0.14727144631595032
-0.3816,-0.14783733083589634
-0.3826000000000001,-0.14826174422585583
-0.3836,-0.14882762874580185
-0.3846000000000001,-0.14939351326574787
-0.3856,-0.1499593977856939
-0.3866000000000001,-0.15052528230563988
-0.3876,-0.1512326379555724
-0.3886000000000001,-0.15179852247551845
-0.3896,-0.15236440699546444
-0.3906000000000001,-0.15293029151541046
-0.3916,-0.15363764716534298
-0.3926000000000001,-0.154203531685289
-0.3936,-0.15476941620523502
-0.3946000000000001,-0.15547677185516753
-0.3956,-0.15618412750510002
-0.3966000000000001,-0.15675001202504607
-0.3976,-0.1574573676749786
-0.3986000000000001,-0.15802325219492458
-0.3996,-0.1587306078448571
-0.4006000000000001,-0.15943796349478964
-0.4016,-0.16014531914472213
-0.4026000000000001,-0.16085267479465465
-0.4036,-0.1615600304445872
-0.4046000000000001,-0.1622673860945197
-0.4056,-0.16311621287443873
-0.40660000000000013,-0.16382356852437122
-0.4076,-0.16453092417430376
-0.40860000000000013,-0.16537975095422278
-0.4096,-0.16608710660415532
-0.41060000000000013,-0.1669359333840743
-0.4116,-0.16764328903400685
-0.41260000000000013,-0.16849211581392587
-0.4136,-0.1693409425938449
-0.41460000000000014,-0.17004829824377743
-0.4156,-0.17075565389370992
-0.41660000000000014,-0.17160448067362896
-0.4176,-0.17245330745354798
-0.41860000000000014,-0.173302134233467
-0.41960000000000003,-0.17415096101338604
-0.42060000000000014,-0.17514125892329155
-0.42160000000000003,-0.17599008570321056
-0.42260000000000014,-0.1769803836131161
-0.42360000000000003,-0.17782921039303512
-0.42460000000000014,-0.17881950830294063
-0.42560000000000003,-0.17980980621284617
-0.42660000000000015,-0.1808001041227517
-0.42760000000000004,-0.18179040203265723
-0.42860000000000015,-0.18278069994256274
-0.42960000000000004,-0.18377099785246825
-0.43060000000000015,-0.1847612957623738
-0.43160000000000004,-0.1858930648022658
-0.43260000000000015,-0.18688336271217135
-0.43360000000000004,-0.18787366062207686
-0.43460000000000015,-0.1890054296619689
-0.43560000000000004,-0.19013719870186094
-0.43660000000000015,-0.19126896774175295
