Potential V vs RHE, Current mA cm-2
0.4132999999999999,-0.0006236047409805082
0.4122999999999999,-0.00251111255726044
0.4112999999999999,-0.003248177144490124
0.4102999999999999,-0.003621660927654494
0.4092999999999999,-0.003911676744126826
0.4082999999999999,-0.004196033715399699
0.4072999999999999,-0.004481805397972436
0.4062999999999999,-0.004685523825153002
0.4052999999999999,-0.0048312390890391
0.4042999999999999,-0.005001004445022905
0.4032999999999999,-0.005141060863709543
0.4022999999999999,-0.0053476087134898395
0.4012999999999999,-0.005484835709576748
0.4002999999999999,-0.005569718387568649
0.3992999999999999,-0.005670162889859067
0.3982999999999999,-0.005814463442445301
0.3972999999999999,-0.005943202170733019
0.3962999999999999,-0.006064867342521413
0.3952999999999999,-0.006105893970217498
0.3942999999999999,-0.006186532514309805
0.39329999999999987,-0.006272829903601573
0.39229999999999987,-0.006401568631889292
0.39129999999999987,-0.006493524866380518
0.39029999999999987,-0.006540210339276065
0.38929999999999987,-0.006585481100871746
0.38829999999999987,-0.006673193201463378
0.38729999999999987,-0.006773637703753795
0.38629999999999987,-0.0068712527834444825
0.38529999999999986,-0.006879741051243673
0.38429999999999986,-0.00693774421453814
0.38329999999999986,-0.007005650356931662
0.38229999999999986,-0.007110338993121673
0.38129999999999986,-0.007181074558114927
0.38029999999999986,-0.007203709938912767
0.37929999999999986,-0.0072447365666088535
0.37829999999999986,-0.007304154441203185
0.37729999999999986,-0.007406013654793468
0.37629999999999986,-0.007476749219786719
0.37529999999999986,-0.007483822776286044
0.37429999999999986,-0.007517775847482805
0.37329999999999985,-0.0075998291028749766
0.37229999999999985,-0.0077101765842644485
0.37129999999999985,-0.007756862057159997
0.37029999999999985,-0.0077879857057570265
0.36929999999999985,-0.007803547530055544
0.36829999999999985,-0.007860135982050145
0.36729999999999985,-0.007988874710337861
0.36629999999999985,-0.008036974894533274
0.36529999999999985,-0.008056780852731385
0.36429999999999985,-0.008087904501328413
0.36329999999999985,-0.008137419396823692
0.36229999999999984,-0.00824069332171384
0.36129999999999984,-0.008295867062408575
0.36029999999999984,-0.008314258309306821
0.35929999999999984,-0.008360943782202368
0.35829999999999984,-0.008404799832498182
0.35729999999999984,-0.00852787971558644
0.35629999999999984,-0.008595785857979963
0.35529999999999984,-0.008591541724080368
0.35429999999999984,-0.008621250661377535
0.35329999999999984,-0.00868774209247119
0.35229999999999984,-0.008774039481762958
0.35129999999999983,-0.008854678025855265
0.35029999999999983,-0.008860336871054727
0.34929999999999983,-0.008888631097052025
0.34829999999999983,-0.008979172620243388
0.34729999999999983,-0.00908952010163286
0.34629999999999983,-0.009156011532726518
0.34529999999999983,-0.009148937976227192
0.34429999999999983,-0.009194208737822873
0.3432999999999998,-0.009267773725415856
0.3422999999999998,-0.009372462361605868
0.3412999999999998,-0.009430465524900334
0.3402999999999998,-0.009468662729996689
0.3392999999999998,-0.009481395131695474
0.3382999999999998,-0.009571936654886837
0.3372999999999998,-0.009685113558876041
0.3362999999999998,-0.009737457876971048
0.3352999999999998,-0.009777069793367269
0.3342999999999998,-0.009809608153264164
0.3332999999999998,-0.009904393810355122
0.3322999999999998,-0.01002181484824392
0.3312999999999998,-0.010074159166338926
0.3302999999999998,-0.010092550413237172
0.3292999999999998,-0.010156212421731097
0.3282999999999998,-0.010221289141524889
0.3272999999999998,-0.010342954313313283
0.3262999999999998,-0.01040661632180721
0.3252999999999999,-0.010430666413904915
0.3242999999999999,-0.010484425443299786
0.3232999999999999,-0.010557990430892767
0.3222999999999999,-0.010689558581780218
0.3212999999999999,-0.010758879435473602
0.3202999999999999,-0.010780100104971579
0.3192999999999999,-0.010839517979565911
0.3182999999999999,-0.010914497678458758
0.3172999999999999,-0.011040406984146746
0.3162999999999999,-0.011121045528239054
0.3152999999999999,-0.011157828022035543
0.3142999999999999,-0.01121300176273028
0.3132999999999999,-0.011293640306822589
0.3122999999999999,-0.01140115836561233
0.3112999999999999,-0.011487455754904098
0.3102999999999999,-0.011495944022703288
0.3092999999999999,-0.011559606031197215
0.3082999999999999,-0.011637415152689791
0.3072999999999999,-0.01173785965498021
0.3062999999999999,-0.011819912910372382
0.3052999999999999,-0.011838304157270628
0.3042999999999999,-0.011872257228467388
0.3032999999999999,-0.01195713990645929
0.3022999999999999,-0.012058999120049574
0.3012999999999999,-0.012121246417243634
0.3002999999999999,-0.012136808241542148
0.2992999999999999,-0.01214812593194107
0.2982999999999999,-0.012231593898633108
0.2972999999999999,-0.012329208978323795
0.2962999999999999,-0.012371650317319745
0.2952999999999999,-0.012388626852918127
0.2942999999999999,-0.012401359254616912
0.2932999999999999,-0.012465021263110838
0.2922999999999999,-0.01254990394110274
0.2912999999999999,-0.012586686434899233
0.2902999999999999,-0.012579612878399905
0.2892999999999999,-0.012614980660896532
0.2882999999999999,-0.012654592577292753
0.2872999999999999,-0.012763525347382362
0.2862999999999999,-0.012779087171680878
0.2852999999999999,-0.012760695924782631
0.2842999999999999,-0.012800307841178853
0.2832999999999999,-0.012832846201075748
0.2822999999999999,-0.012903581766068999
0.2812999999999999,-0.012944608393765086
0.2802999999999999,-0.012906411188668731
0.2792999999999999,-0.012921973012967245
0.2782999999999999,-0.012965829063263061
0.2772999999999999,-0.013043638184755638
0.2762999999999999,-0.013060614720354018
0.2752999999999999,-0.013043638184755638
0.2742999999999999,-0.013047882318655234
0.2732999999999999,-0.013073347122052803
0.2722999999999999,-0.013134179707946999
0.2712999999999999,-0.013168132779143762
0.2702999999999999,-0.013161059222644435
0.2692999999999999,-0.01315115624354538
0.26829999999999987,-0.013196427005141061
0.26729999999999987,-0.013245941900636339
0.26629999999999987,-0.013271406704033909
0.26529999999999987,-0.01326291843623472
0.26429999999999987,-0.013254430168435529
0.26329999999999987,-0.01328272439443283
0.26229999999999987,-0.013343556980327026
0.26129999999999987,-0.013340727557727295
0.26029999999999986,-0.013335068712527836
0.25929999999999986,-0.01330535977523067
0.25829999999999986,-0.01335345995942608
0.25729999999999986,-0.013429854369618792
0.25629999999999986,-0.013425610235719199
0.25529999999999986,-0.013402974854921357
0.25429999999999986,-0.013395901298422032
0.25329999999999986,-0.013429854369618792
0.25229999999999986,-0.013500589934612043
0.25129999999999986,-0.013502004645911909
0.25029999999999986,-0.013480783976413935
0.24929999999999986,-0.01346522215211542
0.24829999999999985,-0.013499175223312178
0.24729999999999985,-0.013567081365705703
0.24629999999999985,-0.013568496077005568
0.24529999999999985,-0.013582643190004217
0.24429999999999985,-0.013569910788305434
0.24329999999999985,-0.013591131457803407
0.24229999999999985,-0.013657622888897063
0.24129999999999985,-0.013663281734096522
0.24029999999999985,-0.013633572796799357
0.23929999999999985,-0.013629328662899764
0.23829999999999985,-0.013663281734096522
0.23729999999999984,-0.013732602587789912
0.23629999999999984,-0.013742505566888965
0.23529999999999984,-0.01370996720699207
0.23429999999999984,-0.013705723073092474
0.23329999999999984,-0.013736846721689507
0.23229999999999984,-0.013808996997982624
0.23129999999999984,-0.013810411709282489
0.23029999999999984,-0.013786361617184781
0.22929999999999984,-0.013784946905884917
0.22829999999999984,-0.01383304709008033
0.22729999999999984,-0.013869829583876819
0.22629999999999983,-0.01389812380987412
0.22529999999999983,-0.013865585449977224
0.22429999999999983,-0.013858511893477898
0.22329999999999983,-0.013915100345472501
0.22229999999999983,-0.013961785818368048
0.22129999999999983,-0.013958956395768317
0.22029999999999983,-0.013963200529667912
0.21929999999999983,-0.013960371107068182
0.21829999999999983,-0.013992909466965077
0.21729999999999983,-0.014076377433657115
0.21629999999999983,-0.014067889165857925
0.21529999999999982,-0.014056571475459002
0.21429999999999982,-0.014048083207659816
0.21329999999999982,-0.014090524546655766
0.21229999999999982,-0.014161260111649017
0.21129999999999982,-0.014175407224647668
0.21029999999999982,-0.014175407224647668
0.20929999999999982,-0.014175407224647668
0.20829999999999982,-0.014217848563643616
0.20729999999999982,-0.014316878354634173
0.20629999999999982,-0.014316878354634173
0.20529999999999982,-0.014288584128636872
0.20429999999999982,-0.014288584128636872
0.20329999999999981,-0.014316878354634173
0.2022999999999998,-0.014401761032626074
0.2012999999999998,-0.014415908145624722
0.20029999999999992,-0.014387613919627423
0.19929999999999992,-0.014401761032626074
0.19829999999999992,-0.014444202371622025
0.19729999999999992,-0.014514937936615275
0.19629999999999992,-0.014529085049613928
0.19529999999999992,-0.014500790823616624
0.19429999999999992,-0.014543232162612576
0.19329999999999992,-0.014628114840604478
0.19229999999999992,-0.01465640906660178
0.19129999999999991,-0.014642261953603129
0.1902999999999999,-0.014642261953603129
0.1892999999999999,-0.01465640906660178
0.1882999999999999,-0.014684703292599082
0.1872999999999999,-0.014755438857592333
0.1862999999999999,-0.014783733083589632
0.1852999999999999,-0.014755438857592333
0.1842999999999999,-0.014755438857592333
0.1832999999999999,-0.014826174422585584
0.1822999999999999,-0.014882762874580187
0.1812999999999999,-0.014896909987578835
0.1802999999999999,-0.014882762874580187
0.1792999999999999,-0.014882762874580187
0.1782999999999999,-0.014939351326574786
0.1772999999999999,-0.015024234004566688
0.1762999999999999,-0.01501008689156804
0.1752999999999999,-0.01501008689156804
0.1742999999999999,-0.015024234004566688
0.1732999999999999,-0.015066675343562642
0.1722999999999999,-0.015137410908555892
0.1712999999999999,-0.015165705134553195
0.1702999999999999,-0.015137410908555892
0.1692999999999999,-0.015137410908555892
0.1682999999999999,-0.015208146473549147
0.1672999999999999,-0.015307176264539698
0.1662999999999999,-0.015307176264539698
0.1652999999999999,-0.015278882038542396
0.1642999999999999,-0.015307176264539698
0.1632999999999999,-0.015335470490536997
0.1622999999999999,-0.015420353168528897
0.1612999999999999,-0.015420353168528897
0.1602999999999999,-0.015392058942531598
0.1592999999999999,-0.015420353168528897
0.15829999999999989,-0.015448647394526203
0.15729999999999988,-0.015533530072518101
0.15629999999999988,-0.015547677185516754
0.15529999999999988,-0.015547677185516754
0.15429999999999988,-0.015561824298515404
0.15329999999999988,-0.015604265637511355
0.15229999999999988,-0.015660854089505957
0.15129999999999988,-0.01568914831550326
0.15029999999999988,-0.015675001202504608
0.14929999999999988,-0.01568914831550326
0.14829999999999988,-0.01573158965449921
0.14729999999999988,-0.01580232521949246
0.14629999999999987,-0.01581647233249111
0.14529999999999987,-0.01583061944548976
0.14429999999999987,-0.01583061944548976
0.14329999999999987,-0.015943796349478963
0.14229999999999987,-0.016028679027470863
0.14129999999999987,-0.016042826140469518
0.14029999999999987,-0.016028679027470863
0.13929999999999987,-0.016042826140469518
0.13829999999999987,-0.01608526747946547
0.13729999999999987,-0.01614185593146007
0.13629999999999987,-0.01615600304445872
0.13529999999999986,-0.01615600304445872
0.13429999999999986,-0.01614185593146007
0.13329999999999986,-0.01624088572245062
0.13229999999999986,-0.01629747417444522
0.13129999999999986,-0.01629747417444522
0.13029999999999986,-0.016311621287443873
0.12929999999999986,-0.016325768400442524
0.12829999999999986,-0.016368209739438477
0.12729999999999986,-0.016453092417430374
0.12629999999999986,-0.01648138664342768
0.12529999999999986,-0.01648138664342768
0.12429999999999986,-0.01650968086942498
0.12329999999999985,-0.016552122208420932
0.12229999999999985,-0.01665115199941148
0.12129999999999985,-0.01665115199941148
0.12029999999999985,-0.016637004886412832
0.11929999999999985,-0.01666529911241013
0.11829999999999985,-0.016721887564404736
0.11729999999999985,-0.016820917355395284
0.11629999999999985,-0.01683506446839394
0.11529999999999985,-0.016820917355395284
0.11429999999999985,-0.016863358694391237
0.11329999999999985,-0.01690580003338719
0.11229999999999984,-0.01697653559838044
0.11129999999999984,-0.017004829824377742
0.11029999999999984,-0.01699068271137909
0.10929999999999984,-0.017004829824377742
0.10829999999999984,-0.01706141827637234
0.10729999999999984,-0.017146300954364244
0.10629999999999984,-0.017160448067362895
0.10529999999999984,-0.017160448067362895
0.10429999999999984,-0.017174595180361543
0.10329999999999984,-0.017259477858353446
0.10229999999999984,-0.0173302134233467
0.10129999999999983,-0.01734436053634535
0.10029999999999983,-0.017358507649344
0.09929999999999983,-0.017358507649344
0.09829999999999983,-0.017429243214337253
0.09729999999999983,-0.017499978779330502
0.09629999999999983,-0.017514125892329157
0.09529999999999983,-0.0175282730053278
0.09429999999999983,-0.017542420118326456
0.09329999999999983,-0.017599008570321057
0.09229999999999983,-0.01768389124831296
0.09129999999999983,-0.01771218547431026
0.09029999999999982,-0.01771218547431026
0.08929999999999982,-0.01771218547431026
0.08829999999999982,-0.017782921039303512
0.08729999999999982,-0.017867803717295416
0.08629999999999982,-0.017881950830294063
0.08529999999999982,-0.017881950830294063
0.08429999999999982,-0.017910245056291362
0.08329999999999982,-0.017966833508285963
0.08229999999999982,-0.018051716186277867
0.08129999999999982,-0.018065863299276518
0.08029999999999982,-0.018065863299276518
0.07929999999999982,-0.018108304638272472
0.07829999999999981,-0.01817904020326572
0.07729999999999981,-0.018249775768258973
0.07629999999999981,-0.018263922881257624
0.07529999999999992,-0.018278069994256275
0.07429999999999992,-0.018320511333252226
0.07329999999999992,-0.018377099785246823
0.07229999999999992,-0.018461982463238727
0.07129999999999992,-0.01849027668923603
0.07029999999999992,-0.01847612957623738
0.06929999999999992,-0.01851857091523333
0.06829999999999992,-0.018575159367227933
0.06729999999999992,-0.018660042045219833
0.06629999999999991,-0.018688336271217135
0.06529999999999991,-0.018688336271217135
0.06429999999999991,-0.018688336271217135
0.06329999999999991,-0.018787366062207687
0.06229999999999991,-0.01887224874019959
0.06129999999999991,-0.018886395853198238
0.06029999999999991,-0.018900542966196893
0.05929999999999991,-0.01892883719219419
0.05829999999999991,-0.018985425644188793
0.05729999999999991,-0.019056161209182042
0.056299999999999906,-0.019070308322180696
0.055299999999999905,-0.019084455435179344
0.054299999999999904,-0.019112749661176646
0.0532999999999999,-0.019197632339168547
0.0522999999999999,-0.0192966621301591
0.0512999999999999,-0.01928251501716045
0.0502999999999999,-0.019310809243157753
0.0492999999999999,-0.0193249563561564
0.0482999999999999,-0.0194098390341483
0.0472999999999999,-0.01950886882513886
0.0462999999999999,-0.01950886882513886
0.045299999999999896,-0.019537163051136158
0.044299999999999895,-0.019565457277133456
0.043299999999999894,-0.01963619284212671
0.04229999999999989,-0.019721075520118612
0.04129999999999989,-0.019721075520118612
0.04029999999999989,-0.019763516859114563
0.03929999999999989,-0.019805958198110513
0.03829999999999989,-0.019876693763103765
0.03729999999999989,-0.02000401778009162
0.03629999999999989,-0.02007475334508487
0.03529999999999989,-0.020103047571082173
0.034299999999999886,-0.02011719468408082
0.033299999999999885,-0.020187930249074077
0.032299999999999884,-0.020244518701068675
0.031299999999999883,-0.020244518701068675
0.030299999999999883,-0.020230371588070024
0.02929999999999988,-0.020272812927065977
0.02829999999999988,-0.020357695605057877
0.02729999999999988,-0.02042843117005113
0.02629999999999988,-0.020470872509047083
0.025299999999999878,-0.02048501962204573
0.024299999999999877,-0.020513313848043033
0.023299999999999876,-0.020598196526034934
0.022299999999999875,-0.020668932091028186
0.021299999999999875,-0.020683079204026837
0.020299999999999874,-0.020697226317025485
0.019299999999999873,-0.020725520543022787
0.018299999999999872,-0.020810403221014687
0.01729999999999987,-0.020909433012005242
0.01629999999999987,-0.020923580125003893
0.01529999999999987,-0.020966021463999843
0.014299999999999868,-0.020994315689997142
0.013299999999999867,-0.021079198367989046
0.012299999999999978,-0.021164081045980946
0.011299999999999866,-0.02119237527197825
0.010299999999999976,-0.0212065223849769
0.009299999999999864,-0.0212065223849769
0.008299999999999974,-0.021305552175967454
0.007299999999999862,-0.021404581966958002
0.006299999999999972,-0.021418729079956657
0.00529999999999986,-0.021447023305953956
0.0042999999999999705,-0.021489464644949906
0.0032999999999998586,-0.02157434732294181
0.0022999999999999687,-0.02165923000093371
0.0012999999999998568,-0.021687524226931015
0.00029999999999996696,-0.021701671339929663
-0.000700000000000145,-0.021744112678925617
-0.0017000000000000348,-0.021828995356917517
-0.0027000000000001467,-0.02194217226090672
-0.0037000000000000366,-0.021956319373905367
-0.0047000000000001485,-0.02197046648690402
-0.005700000000000038,-0.022012907825899968
-0.00670000000000015,-0.022097790503891875
-0.00770000000000004,-0.022196820294882423
-0.008700000000000152,-0.022196820294882423
-0.009700000000000042,-0.022210967407881078
-0.010700000000000154,-0.022281702972874327
-0.011700000000000044,-0.02239487987686353
-0.012700000000000156,-0.022479762554855433
-0.013700000000000045,-0.022536351006850038
-0.014700000000000157,-0.022550498119848682
-0.015700000000000047,-0.022578792345845984
-0.01670000000000016,-0.022691969249835187
-0.01770000000000005,-0.02274855770182979
-0.01870000000000016,-0.02276270481482844
-0.01970000000000005,-0.02277685192782709
-0.020700000000000163,-0.02280514615382439
-0.021700000000000053,-0.022890028831816296
-0.022700000000000164,-0.0230032057358055
-0.023700000000000054,-0.023045647074801445
-0.024700000000000166,-0.0230597941878001
-0.025700000000000056,-0.023073941300798748
-0.026700000000000168,-0.02318711820478795
-0.027700000000000058,-0.02327200088277985
-0.02870000000000017,-0.023257853769781203
-0.02970000000000006,-0.023300295108777156
-0.03070000000000017,-0.023356883560771757
-0.03170000000000006,-0.023427619125765006
-0.03270000000000017,-0.02352664891675556
-0.03370000000000006,-0.02356909025575151
-0.034700000000000175,-0.023583237368750162
-0.035700000000000065,-0.023625678707746112
-0.03670000000000018,-0.023724708498736664
-0.03770000000000007,-0.023809591176728567
-0.03870000000000018,-0.023823738289727222
-0.03970000000000007,-0.023837885402725866
-0.04070000000000018,-0.02389447385472047
-0.04170000000000007,-0.023965209419713723
-0.04270000000000018,-0.024064239210704275
-0.04370000000000007,-0.024092533436701577
-0.044700000000000184,-0.024106680549700225
-0.045700000000000074,-0.024163269001694826
-0.046700000000000186,-0.02426229879268538
-0.047700000000000076,-0.02433303435767863
-0.04870000000000019,-0.02436132858367593
-0.04970000000000008,-0.02438962280967323
-0.05070000000000019,-0.024446211261667832
-0.05170000000000008,-0.024559388165657038
-0.05270000000000019,-0.024644270843648942
-0.05370000000000008,-0.02468671218264489
-0.05470000000000019,-0.02468671218264489
-0.05570000000000008,-0.024729153521640842
-0.056700000000000195,-0.024814036199632745
-0.057700000000000085,-0.024927213103621948
-0.058700000000000196,-0.0249413602166206
-0.059700000000000086,-0.024969654442617898
-0.0607000000000002,-0.025012095781613848
-0.06170000000000009,-0.025139419798601705
-0.0627000000000002,-0.025252596702590904
-0.06370000000000009,-0.025224302476593602
