Potential V vs RHE, Current mA cm-2
0.05339999999999995,-0.019777663972113214
0.05239999999999995,-0.020683079204026837
0.051399999999999946,-0.021107492593986348
0.050399999999999945,-0.021418729079956657
0.049399999999999944,-0.021687524226931015
0.04839999999999994,-0.02194217226090672
0.04739999999999994,-0.022225114520879725
0.04639999999999994,-0.022465615441856785
0.04539999999999994,-0.02273441058883114
0.04439999999999994,-0.022960764396809545
0.04339999999999994,-0.02318711820478795
0.04239999999999994,-0.023427619125765006
0.04139999999999994,-0.023668120046742062
0.040399999999999936,-0.02390862096771912
0.039399999999999935,-0.024149121888696175
0.038399999999999934,-0.024403769922671882
0.03739999999999993,-0.024644270843648942
0.03639999999999993,-0.024884771764625994
0.03539999999999993,-0.025139419798601705
0.03439999999999993,-0.025365773606580107
0.03339999999999993,-0.025606274527557166
0.03239999999999993,-0.025846775448534223
0.03139999999999993,-0.026101423482509926
0.030399999999999927,-0.026370218629484285
0.029399999999999926,-0.02661071955046134
0.028399999999999925,-0.026865367584437045
0.027399999999999924,-0.027105868505414105
0.026399999999999924,-0.027374663652388463
0.025399999999999923,-0.027657605912361466
0.024399999999999922,-0.027898106833338522
0.02339999999999992,-0.02815275486731423
0.02239999999999992,-0.028407402901289937
0.02139999999999992,-0.028690345161262943
0.020399999999999918,-0.029001581647233248
0.019399999999999917,-0.02922793545521166
0.018399999999999916,-0.029510877715184666
0.017399999999999916,-0.029779672862159025
0.016399999999999915,-0.03006261512213203
0.015399999999999914,-0.030345557382105034
0.014399999999999913,-0.03058605830308209
0.013399999999999912,-0.030897294789052406
0.012399999999999911,-0.031151942823028106
0.01139999999999991,-0.031420737970002464
0.01039999999999991,-0.03171782734297412
0.009399999999999908,-0.031972475376949826
0.008399999999999908,-0.03226956474992148
0.007399999999999907,-0.032552507009894496
0.006399999999999906,-0.0328637434958648
0.005399999999999905,-0.033174979981835113
0.004399999999999904,-0.033457922241808116
0.003399999999999903,-0.03375501161477978
0.002399999999999902,-0.03406624810075008
0.0013999999999999013,-0.034391631699719045
0.00039999999999990044,-0.03470286818568935
-0.0006000000000001005,-0.03498581044566235
-0.0016000000000001013,-0.035297046931632665
-0.0026000000000001022,-0.035594136304604326
-0.003600000000000103,-0.035947814129570585
-0.004600000000000104,-0.03627319772853954
-0.005600000000000105,-0.036598581327508505
-0.006600000000000106,-0.03693811203947611
-0.007600000000000107,-0.03724934852544641
-0.008600000000000108,-0.037603026350412676
-0.009600000000000108,-0.03794255706238028
-0.01060000000000011,-0.03826794066134924
-0.01160000000000011,-0.0385933242603182
-0.012600000000000111,-0.03893285497228581
-0.013600000000000112,-0.03930067991025072
-0.014600000000000113,-0.03965435773521698
-0.015600000000000114,-0.03999388844718459
-0.016600000000000115,-0.040347566272150845
-0.017600000000000116,-0.04068709698411845
-0.018600000000000116,-0.04106906903508201
-0.019600000000000117,-0.041451041086045574
-0.020600000000000118,-0.04177642468501453
-0.02160000000000012,-0.04214424962297945
-0.02260000000000012,-0.0424979274479457
-0.02360000000000012,-0.04287989949890925
-0.024600000000000122,-0.043290165775870124
-0.025600000000000123,-0.04364384360083638
-0.026600000000000124,-0.044039962764798594
-0.027600000000000124,-0.044421934815762155
-0.028600000000000125,-0.04481805397972436
-0.029600000000000126,-0.04520002603068792
-0.030600000000000127,-0.04556785096865284
-0.03160000000000013,-0.04594982301961639
-0.03260000000000013,-0.046331795070579954
-0.03360000000000013,-0.04672791423454216
-0.03460000000000002,-0.04715232762450167
-0.03560000000000002,-0.047548446788463886
-0.03660000000000002,-0.04795871306542474
-0.03760000000000002,-0.048368979342385605
-0.03860000000000002,-0.04879339273234512
-0.039600000000000024,-0.049189511896307325
-0.040600000000000025,-0.04961392528626684
-0.041600000000000026,-0.050010044450229045
-0.04260000000000003,-0.05042031072718991
-0.04360000000000003,-0.050844724117149416
-0.04460000000000003,-0.05128328462010758
-0.04560000000000003,-0.051707698010067096
-0.04660000000000003,-0.052132111400026604
-0.04760000000000003,-0.05254237767698746
-0.04860000000000003,-0.052980938179945626
-0.04960000000000003,-0.053405351569905134
-0.050600000000000034,-0.053858059185861944
-0.051600000000000035,-0.05431076680181876
-0.052600000000000036,-0.05473518019177826
-0.053600000000000037,-0.055202034920733736
-0.05460000000000004,-0.055640595423691895
-0.05560000000000004,-0.0560650088136514
-0.05660000000000004,-0.05651771642960821
-0.05760000000000004,-0.05695627693256638
-0.05860000000000004,-0.05740898454852319
-0.05960000000000004,-0.057875839277478656
-0.06060000000000004,-0.05831439978043681
-0.061600000000000044,-0.058767107396393625
-0.06260000000000004,-0.05920566789935178
-0.06360000000000005,-0.05964422840230994
-0.06460000000000005,-0.06012523024426406
-0.06560000000000005,-0.06056379074722222
-0.06660000000000005,-0.06103064547617768
-0.06760000000000005,-0.06149750020513314
-0.06860000000000005,-0.06195020782108995
-0.06960000000000005,-0.06243120966304407
-0.07060000000000005,-0.06289806439199953
-0.07160000000000005,-0.06337906623395365
-0.07260000000000005,-0.06384592096290911
-0.07360000000000005,-0.06434106991786188
-0.07460000000000006,-0.06485036598581327
-0.07560000000000006,-0.0653030736017701
-0.07660000000000006,-0.0657557812177269
-0.07760000000000006,-0.06623678305968102
-0.07860000000000006,-0.06671778490163513
-0.07960000000000006,-0.06719878674358926
-0.08060000000000006,-0.06767978858554335
-0.08160000000000006,-0.06814664331449882
-0.08260000000000006,-0.06864179226945158
-0.08360000000000006,-0.06910864699840705
-0.08460000000000006,-0.06958964884036115
-0.08560000000000006,-0.07005650356931663
-0.08660000000000007,-0.07053750541127073
-0.08760000000000007,-0.07101850725322485
-0.08860000000000007,-0.07151365620817761
-0.08960000000000007,-0.07202295227612901
-0.09060000000000007,-0.07248980700508448
-0.09160000000000007,-0.07297080884703859
-0.09260000000000007,-0.07342351646299541
-0.09360000000000007,-0.07391866541794817
-0.09460000000000007,-0.07442796148589957
-0.09560000000000007,-0.07488066910185638
-0.09660000000000007,-0.07537581805680914
-0.09760000000000008,-0.07582852567276598
-0.09860000000000008,-0.07630952751472009
-0.09960000000000008,-0.07679052935667419
-0.10060000000000008,-0.07722908985963235
-0.10160000000000008,-0.07772423881458512
-0.10260000000000008,-0.07821938776953788
-0.10360000000000008,-0.07868624249849335
-0.10460000000000008,-0.07916724434044746
-0.10560000000000008,-0.07960580484340561
-0.10660000000000008,-0.08007265957236107
-0.10760000000000008,-0.08053951430131655
-0.10860000000000009,-0.08099222191727334
-0.10960000000000009,-0.0814873708722261
-0.11060000000000009,-0.08194007848818292
-0.11160000000000009,-0.08240693321713838
-0.11260000000000009,-0.08284549372009656
-0.11360000000000009,-0.0832840542230547
-0.11460000000000009,-0.08373676183901152
-0.11560000000000009,-0.08414702811597238
-0.11660000000000009,-0.0845714415059319
-0.1176000000000001,-0.08501000200889006
-0.1186000000000001,-0.08546270962484687
-0.1196000000000001,-0.08590127012780503
-0.1206000000000001,-0.08633983063076318
-0.1216000000000001,-0.08675009690772406
-0.1226000000000001,-0.08716036318468491
-0.1236000000000001,-0.08755648234864712
-0.1246000000000001,-0.08795260151260934
-0.1256000000000001,-0.08834872067657155
-0.1266000000000001,-0.08874483984053375
-0.1276000000000001,-0.08915510611749461
-0.1286000000000001,-0.08956537239445547
-0.1296000000000001,-0.08997563867141634
-0.1306000000000001,-0.09037175783537854
-0.1316000000000001,-0.09075372988634212
-0.1326000000000001,-0.09113570193730568
-0.1336000000000001,-0.09150352687527057
-0.1346000000000001,-0.09191379315223143
-0.1356000000000001,-0.09225332386419903
-0.1366000000000001,-0.09262114880216396
-0.1376000000000001,-0.09298897374012885
-0.1386000000000001,-0.09334265156509512
-0.1396000000000001,-0.09371047650306003
-0.1406000000000001,-0.0940641543280263
-0.14160000000000011,-0.0944036850399939
-0.14260000000000012,-0.0947432157519615
-0.14360000000000012,-0.09505445223793182
-0.14460000000000012,-0.09539398294989941
-0.14560000000000012,-0.09570521943586972
-0.14660000000000012,-0.09603060303483868
-0.14760000000000012,-0.09635598663380765
-0.14860000000000012,-0.09663892889378066
-0.14960000000000012,-0.09696431249274962
-0.15060000000000012,-0.09724725475272263
-0.15160000000000012,-0.09751604989969698
-0.15260000000000012,-0.09779899215966999
-0.15360000000000013,-0.0980536401936457
-0.15460000000000013,-0.0983365824536187
-0.15560000000000013,-0.09861952471359171
-0.15660000000000013,-0.09884587852157012
-0.15760000000000013,-0.09908637944254717
-0.15860000000000013,-0.09934102747652288
-0.15960000000000002,-0.0995673812845013
-0.16060000000000002,-0.09980788220547833
-0.16160000000000002,-0.10002008890045809
-0.16260000000000002,-0.1002464427084365
-0.16360000000000002,-0.1004727965164149
-0.16460000000000002,-0.10068500321139465
-0.16560000000000002,-0.10093965124537037
-0.16660000000000003,-0.10115185794035012
-0.16760000000000003,-0.10132162329633393
-0.16860000000000003,-0.10151968287831505
-0.16960000000000003,-0.10167530112130019
-0.17060000000000003,-0.10185921359028265
-0.17160000000000003,-0.1020148318332678
-0.17260000000000003,-0.10217045007625294
-0.17360000000000003,-0.10231192120623946
-0.17460000000000003,-0.10248168656222324
-0.17560000000000003,-0.10260901057921111
-0.17660000000000003,-0.10273633459619896
-0.17760000000000004,-0.10283536438718952
-0.17860000000000004,-0.10294854129117871
-0.17960000000000004,-0.10309001242116521
-0.18060000000000004,-0.10320318932515443
-0.18160000000000004,-0.10330221911614497
-0.18260000000000004,-0.10340124890713552
-0.18360000000000004,-0.10347198447212877
-0.18460000000000004,-0.10357101426311933
-0.18560000000000004,-0.10365589694111124
-0.18660000000000004,-0.10372663250610449
-0.18760000000000004,-0.10379736807109774
-0.18860000000000005,-0.10385395652309233
-0.18960000000000005,-0.10391054497508695
-0.19060000000000005,-0.1039812805400802
-0.19160000000000005,-0.10400957476607749
-0.19260000000000005,-0.10405201610507345
-0.19360000000000005,-0.10408031033107075
-0.19460000000000005,-0.1041227516700667
-0.19560000000000005,-0.104151045896064
-0.19660000000000005,-0.10416519300906264
-0.19760000000000005,-0.10416519300906264
-0.19860000000000005,-0.1041793401220613
-0.19960000000000006,-0.1042076343480586
-0.20060000000000006,-0.10419348723505996
-0.20160000000000006,-0.10416519300906264
-0.20260000000000006,-0.10416519300906264
-0.20360000000000006,-0.10416519300906264
-0.20460000000000006,-0.104151045896064
-0.20560000000000006,-0.1041227516700667
-0.20660000000000006,-0.10408031033107075
-0.20760000000000006,-0.1040378689920748
-0.20860000000000006,-0.10399542765307884
-0.20960000000000006,-0.10396713342708154
-0.21060000000000006,-0.10391054497508695
-0.21160000000000007,-0.10386810363609099
-0.21260000000000007,-0.10379736807109774
-0.21360000000000007,-0.10374077961910314
-0.21460000000000007,-0.10368419116710853
-0.21560000000000007,-0.10364174982811258
-0.21660000000000007,-0.10357101426311933
-0.21760000000000007,-0.10351442581112473
-0.21860000000000007,-0.10342954313313284
-0.21960000000000007,-0.10338710179413689
-0.22060000000000007,-0.1032739248901477
-0.22160000000000007,-0.10317489509915713
-0.22260000000000008,-0.10309001242116521
-0.22360000000000008,-0.10300512974317333
-0.22460000000000008,-0.10293439417818008
-0.22560000000000008,-0.10280707016119221
-0.22660000000000008,-0.1027221874832003
-0.22760000000000008,-0.10260901057921111
-0.22860000000000008,-0.10249583367522191
-0.22960000000000008,-0.10241095099723
-0.23060000000000008,-0.1022977740932408
-0.23160000000000008,-0.1021845971892516
-0.23260000000000008,-0.10208556739826105
-0.23360000000000009,-0.10197239049427186
-0.2346000000000001,-0.10185921359028265
-0.2356000000000001,-0.10173188957329479
-0.2366000000000001,-0.10160456555630692
-0.2376000000000001,-0.10147724153931909
-0.2386000000000001,-0.10133577040933257
-0.2396000000000001,-0.10123674061834202
-0.2406000000000001,-0.10109526948835552
-0.2416000000000001,-0.10093965124537037
-0.2426000000000001,-0.10084062145437982
-0.2436000000000001,-0.10069915032439332
-0.2446000000000001,-0.10057182630740545
-0.2456000000000001,-0.10045864940341626
-0.2466000000000001,-0.10028888404743246
-0.2476000000000001,-0.10014741291744596
-0.2486000000000001,-0.10000594178745945
-0.2496000000000001,-0.09986447065747293
-0.2506000000000001,-0.09973714664048508
-0.2516000000000001,-0.09955323417150262
-0.2526000000000001,-0.09944005726751343
-0.2536000000000001,-0.09929858613752693
-0.2546000000000001,-0.09915711500754042
-0.2556000000000001,-0.09902979099055256
-0.2566000000000001,-0.09887417274756742
-0.2576000000000001,-0.09871855450458226
-0.2586000000000001,-0.09856293626159711
-0.2596000000000001,-0.0984214651316106
-0.2606000000000001,-0.09827999400162409
-0.2616000000000001,-0.09813852287163759
-0.2626000000000001,-0.09798290462865245
-0.2636000000000001,-0.09784143349866595
-0.2646000000000001,-0.09771410948167808
-0.2656000000000001,-0.09755849123869292
-0.2666000000000001,-0.09740287299570777
-0.2676000000000001,-0.09727554897871993
-0.2686000000000001,-0.09713407784873342
-0.2696000000000001,-0.09700675383174556
-0.2706000000000001,-0.09685113558876042
-0.2716000000000001,-0.09666722311977795
-0.2726000000000001,-0.09655404621578875
-0.2736000000000001,-0.09638428085980494
-0.2746000000000001,-0.09624280972981844
-0.2756000000000001,-0.09612963282582924
-0.2766000000000001,-0.09594572035684679
-0.2776000000000001,-0.09579010211386164
-0.2786000000000001,-0.09564863098387513
-0.2796000000000001,-0.09550715985388863
-0.2806000000000001,-0.09537983583690077
-0.28160000000000013,-0.09522421759391562
-0.28260000000000013,-0.09508274646392911
-0.28360000000000013,-0.09494127533394262
-0.2846,-0.09479980420395612
-0.2856,-0.0946583330739696
-0.2866,-0.09450271483098445
-0.2876,-0.0943753908139966
-0.2886,-0.09421977257101144
-0.2896,-0.09409244855402359
-0.2906,-0.09396512453703573
-0.2916,-0.09380950629405059
-0.2926,-0.09365388805106543
-0.2936,-0.09354071114707624
-0.29460000000000003,-0.09342753424308703
-0.29560000000000003,-0.09328606311310052
-0.29660000000000003,-0.09313044487011536
-0.29760000000000003,-0.09298897374012885
-0.29860000000000003,-0.09284750261014235
-0.29960000000000003,-0.09272017859315451
-0.30060000000000003,-0.09259285457616664
-0.30160000000000003,-0.09245138344618015
-0.30260000000000004,-0.09232405942919229
-0.30360000000000004,-0.09218258829920578
-0.30460000000000004,-0.09208355850821524
-0.30560000000000004,-0.09195623449122738
-0.30660000000000004,-0.09181476336124088
-0.30760000000000004,-0.09168743934425302
-0.30860000000000004,-0.09154596821426653
-0.30960000000000004,-0.09144693842327598
-0.31060000000000004,-0.09133376151928675
-0.31160000000000004,-0.09119229038930025
-0.31260000000000004,-0.09106496637231241
-0.31360000000000005,-0.09093764235532456
-0.31460000000000005,-0.090838612564334
-0.31560000000000005,-0.0907254356603448
-0.31660000000000005,-0.0905839645303583
-0.31760000000000005,-0.09048493473936775
-0.31860000000000005,-0.0903576107223799
-0.31960000000000005,-0.09027272804438799
-0.32060000000000005,-0.09017369825339744
-0.32160000000000005,-0.09001808001041228
-0.32260000000000005,-0.08991905021942173
-0.32360000000000005,-0.08979172620243389
-0.32460000000000006,-0.08967854929844467
-0.32560000000000006,-0.08959366662045277
-0.32660000000000006,-0.08946634260346491
-0.32760000000000006,-0.08933901858647707
-0.32860000000000006,-0.08921169456948921
-0.32960000000000006,-0.08911266477849866
-0.33060000000000006,-0.08902778210050676
-0.33160000000000006,-0.08891460519651756
-0.33260000000000006,-0.088815575405527
-0.33360000000000006,-0.0887023985015378
-0.33460000000000006,-0.08861751582354589
-0.33560000000000006,-0.088532633145554
-0.33660000000000007,-0.08840530912856613
-0.33760000000000007,-0.0883062793375756
-0.33860000000000007,-0.08822139665958369
-0.33960000000000007,-0.08813651398159178
-0.34060000000000007,-0.08802333707760258
-0.34160000000000007,-0.08793845439961068
-0.34260000000000007,-0.08785357172161878
-0.34360000000000007,-0.08774039481762959
-0.3446000000000001,-0.08768380636563497
-0.3456000000000001,-0.08761307080064172
-0.3466000000000001,-0.08749989389665253
-0.34759999999999996,-0.0874150112186606
-0.3486000000000001,-0.08731598142767007
-0.34959999999999997,-0.08725939297567546
-0.3506000000000001,-0.08717451029768356
-0.35159999999999997,-0.08707548050669302
-0.3526000000000001,-0.08700474494169977
-0.35359999999999997,-0.08689156803771056
-0.3546000000000001,-0.08683497958571595
-0.35559999999999997,-0.0867642440207227
-0.3566000000000001,-0.08666521422973215
-0.3576,-0.08658033155174025
-0.3586000000000001,-0.08649544887374834
-0.3596,-0.08641056619575643
-0.3606000000000001,-0.0863681248567605
-0.3616,-0.08625494795277128
-0.3626000000000001,-0.08617006527477938
-0.3636,-0.08608518259678749
-0.3646000000000001,-0.08601444703179424
-0.3656,-0.08595785857979962
-0.3666000000000001,-0.08587297590180773
-0.3676,-0.08578809322381582
-0.3686000000000001,-0.08570321054582393
-0.3696,-0.08563247498083068
-0.3706000000000001,-0.08559003364183472
-0.3716,-0.08550515096384281
-0.3726000000000001,-0.0854202682858509
-0.3736,-0.08536367983385632
-0.3746000000000001,-0.08529294426886307
-0.3756,-0.08523635581686846
-0.3766000000000001,-0.08516562025187521
-0.3776,-0.08509488468688196
-0.3786000000000001,-0.08502414912188871
-0.3796,-0.0849675606698941
-0.3806000000000001,-0.08489682510490085
-0.3816,-0.08481194242690895
-0.3826000000000001,-0.084769501087913
-0.3836,-0.08469876552291973
-0.3846000000000001,-0.08462802995792648
-0.3856,-0.08458558861893054
-0.3866000000000001,-0.08450070594093864
-0.3876,-0.08444411748894404
-0.3886000000000001,-0.08437338192395079
-0.3896,-0.08431679347195618
-0.3906000000000001,-0.0842884992459589
-0.3916,-0.08420361656796697
-0.3926000000000001,-0.08414702811597238
-0.3936,-0.08410458677697644
-0.3946000000000001,-0.08403385121198319
-0.3956,-0.08400555698598587
-0.3966000000000001,-0.08394896853399128
-0.3976,-0.08389238008199668
-0.3986000000000001,-0.08383579163000207
-0.3996,-0.08379335029100612
-0.4006000000000001,-0.08377920317800747
-0.4016,-0.08370846761301422
-0.4026000000000001,-0.08366602627401826
-0.4036,-0.08360943782202368
-0.4046000000000001,-0.08355284937002906
-0.4056,-0.08352455514403176
-0.40660000000000013,-0.08348211380503581
-0.4076,-0.08342552535304121
-0.40860000000000013,-0.08338308401404526
-0.4096,-0.08332649556205066
-0.41060000000000013,-0.08331234844905201
-0.4116,-0.08325575999705741
-0.41260000000000013,-0.08319917154506282
-0.4136,-0.08315673020606687
-0.41460000000000014,-0.08311428886707091
-0.4156,-0.08310014175407225
-0.41660000000000014,-0.0830577004150763
-0.4176,-0.08301525907608036
-0.41860000000000014,-0.08295867062408575
-0.41960000000000003,-0.08293037639808845
-0.42060000000000014,-0.08290208217209115
-0.42160000000000003,-0.08287378794609385
-0.42260000000000014,-0.0828313466070979
-0.42360000000000003,-0.08277475815510331
-0.42460000000000014,-0.08276061104210465
-0.42560000000000003,-0.08271816970310869
-0.42660000000000015,-0.08267572836411274
-0.42760000000000004,-0.08263328702511678
-0.42860000000000015,-0.08259084568612084
-0.42960000000000004,-0.08256255146012353
-0.43060000000000015,-0.08253425723412625
-0.43160000000000004,-0.08249181589513029
-0.43260000000000015,-0.08247766878213163
-0.43360000000000004,-0.08242108033013704
-0.43460000000000015,-0.08240693321713838
