Jan. 9, 2025   17:35:02
Linear Sweep Voltammetry
File: c:/users/guazh/data/banditlqround7_x0exp772_r5/2025-01-08-exp810\1acid_1ac-2025-01-09t17_31_51-lsvinphos\1acid_1ac_lsv_50mvs_efin_-2100mv.bin
Data Source:  Experiment
Instrument Model:  CHI760E
Header: LSV ran at 50 mVs with Efin at -2100mV
Note: 

Init E (V) = -0.6
Final E (V) = -2.1
Scan Rate (V/s) = 0.05
Sample Interval (V) = 0.001
Quiet Time (sec) = 2
Sensitivity (A/V) = 1e-4
Comp R (ohm) = 9.8

Results:

Channel 1:
Ep = -1.963V
ip = 7.257e-4A
Ah = 9.907e-4C

Potential/V, Current/A

-0.600, 3.634e-6
-0.601, 3.771e-6
-0.602, 3.831e-6
-0.603, 3.875e-6
-0.604, 3.910e-6
-0.605, 3.944e-6
-0.606, 3.985e-6
-0.607, 4.027e-6
-0.608, 4.065e-6
-0.609, 4.098e-6
-0.610, 4.129e-6
-0.611, 4.169e-6
-0.612, 4.208e-6
-0.613, 4.243e-6
-0.614, 4.276e-6
-0.615, 4.311e-6
-0.616, 4.346e-6
-0.617, 4.389e-6
-0.618, 4.425e-6
-0.619, 4.456e-6
-0.620, 4.490e-6
-0.621, 4.528e-6
-0.622, 4.570e-6
-0.623, 4.607e-6
-0.624, 4.637e-6
-0.625, 4.670e-6
-0.626, 4.707e-6
-0.627, 4.749e-6
-0.628, 4.786e-6
-0.629, 4.815e-6
-0.630, 4.849e-6
-0.631, 4.885e-6
-0.632, 4.925e-6
-0.633, 4.962e-6
-0.634, 4.993e-6
-0.635, 5.026e-6
-0.636, 5.064e-6
-0.637, 5.104e-6
-0.638, 5.138e-6
-0.639, 5.167e-6
-0.640, 5.201e-6
-0.641, 5.239e-6
-0.642, 5.278e-6
-0.643, 5.313e-6
-0.644, 5.343e-6
-0.645, 5.373e-6
-0.646, 5.410e-6
-0.647, 5.449e-6
-0.648, 5.482e-6
-0.649, 5.512e-6
-0.650, 5.542e-6
-0.651, 5.578e-6
-0.652, 5.617e-6
-0.653, 5.650e-6
-0.654, 5.679e-6
-0.655, 5.708e-6
-0.656, 5.743e-6
-0.657, 5.782e-6
-0.658, 5.814e-6
-0.659, 5.842e-6
-0.660, 5.870e-6
-0.661, 5.902e-6
-0.662, 5.936e-6
-0.663, 5.966e-6
-0.664, 5.993e-6
-0.665, 6.022e-6
-0.666, 6.057e-6
-0.667, 6.092e-6
-0.668, 6.122e-6
-0.669, 6.145e-6
-0.670, 6.171e-6
-0.671, 6.201e-6
-0.672, 6.233e-6
-0.673, 6.260e-6
-0.674, 6.283e-6
-0.675, 6.309e-6
-0.676, 6.340e-6
-0.677, 6.372e-6
-0.678, 6.400e-6
-0.679, 6.421e-6
-0.680, 6.445e-6
-0.681, 6.473e-6
-0.682, 6.504e-6
-0.683, 6.530e-6
-0.684, 6.551e-6
-0.685, 6.573e-6
-0.686, 6.602e-6
-0.687, 6.630e-6
-0.688, 6.653e-6
-0.689, 6.672e-6
-0.690, 6.691e-6
-0.691, 6.718e-6
-0.692, 6.745e-6
-0.693, 6.766e-6
-0.694, 6.783e-6
-0.695, 6.801e-6
-0.696, 6.824e-6
-0.697, 6.851e-6
-0.698, 6.870e-6
-0.699, 6.884e-6
-0.700, 6.899e-6
-0.701, 6.922e-6
-0.702, 6.944e-6
-0.703, 6.961e-6
-0.704, 6.974e-6
-0.705, 6.989e-6
-0.706, 7.007e-6
-0.707, 7.028e-6
-0.708, 7.043e-6
-0.709, 7.052e-6
-0.710, 7.066e-6
-0.711, 7.084e-6
-0.712, 7.103e-6
-0.713, 7.116e-6
-0.714, 7.124e-6
-0.715, 7.134e-6
-0.716, 7.150e-6
-0.717, 7.167e-6
-0.718, 7.177e-6
-0.719, 7.184e-6
-0.720, 7.191e-6
-0.721, 7.207e-6
-0.722, 7.219e-6
-0.723, 7.227e-6
-0.724, 7.234e-6
-0.725, 7.239e-6
-0.726, 7.251e-6
-0.727, 7.263e-6
-0.728, 7.267e-6
-0.729, 7.271e-6
-0.730, 7.275e-6
-0.731, 7.284e-6
-0.732, 7.294e-6
-0.733, 7.297e-6
-0.734, 7.298e-6
-0.735, 7.299e-6
-0.736, 7.307e-6
-0.737, 7.316e-6
-0.738, 7.317e-6
-0.739, 7.316e-6
-0.740, 7.315e-6
-0.741, 7.322e-6
-0.742, 7.329e-6
-0.743, 7.329e-6
-0.744, 7.325e-6
-0.745, 7.324e-6
-0.746, 7.328e-6
-0.747, 7.332e-6
-0.748, 7.329e-6
-0.749, 7.325e-6
-0.750, 7.321e-6
-0.751, 7.323e-6
-0.752, 7.326e-6
-0.753, 7.323e-6
-0.754, 7.314e-6
-0.755, 7.311e-6
-0.756, 7.314e-6
-0.757, 7.312e-6
-0.758, 7.308e-6
-0.759, 7.298e-6
-0.760, 7.292e-6
-0.761, 7.293e-6
-0.762, 7.292e-6
-0.763, 7.285e-6
-0.764, 7.275e-6
-0.765, 7.267e-6
-0.766, 7.267e-6
-0.767, 7.266e-6
-0.768, 7.259e-6
-0.769, 7.248e-6
-0.770, 7.238e-6
-0.771, 7.236e-6
-0.772, 7.233e-6
-0.773, 7.222e-6
-0.774, 7.213e-6
-0.775, 7.202e-6
-0.776, 7.199e-6
-0.777, 7.195e-6
-0.778, 7.183e-6
-0.779, 7.171e-6
-0.780, 7.160e-6
-0.781, 7.156e-6
-0.782, 7.152e-6
-0.783, 7.139e-6
-0.784, 7.126e-6
-0.785, 7.116e-6
-0.786, 7.110e-6
-0.787, 7.106e-6
-0.788, 7.093e-6
-0.789, 7.077e-6
-0.790, 7.068e-6
-0.791, 7.061e-6
-0.792, 7.055e-6
-0.793, 7.042e-6
-0.794, 7.028e-6
-0.795, 7.016e-6
-0.796, 7.009e-6
-0.797, 7.002e-6
-0.798, 6.990e-6
-0.799, 6.974e-6
-0.800, 6.962e-6
-0.801, 6.957e-6
-0.802, 6.948e-6
-0.803, 6.933e-6
-0.804, 6.918e-6
-0.805, 6.905e-6
-0.806, 6.898e-6
-0.807, 6.891e-6
-0.808, 6.876e-6
-0.809, 6.862e-6
-0.810, 6.849e-6
-0.811, 6.843e-6
-0.812, 6.835e-6
-0.813, 6.819e-6
-0.814, 6.804e-6
-0.815, 6.791e-6
-0.816, 6.784e-6
-0.817, 6.777e-6
-0.818, 6.761e-6
-0.819, 6.748e-6
-0.820, 6.737e-6
-0.821, 6.727e-6
-0.822, 6.720e-6
-0.823, 6.704e-6
-0.824, 6.687e-6
-0.825, 6.675e-6
-0.826, 6.667e-6
-0.827, 6.659e-6
-0.828, 6.644e-6
-0.829, 6.628e-6
-0.830, 6.617e-6
-0.831, 6.610e-6
-0.832, 6.602e-6
-0.833, 6.587e-6
-0.834, 6.570e-6
-0.835, 6.560e-6
-0.836, 6.553e-6
-0.837, 6.543e-6
-0.838, 6.530e-6
-0.839, 6.514e-6
-0.840, 6.502e-6
-0.841, 6.496e-6
-0.842, 6.488e-6
-0.843, 6.473e-6
-0.844, 6.456e-6
-0.845, 6.444e-6
-0.846, 6.439e-6
-0.847, 6.431e-6
-0.848, 6.418e-6
-0.849, 6.403e-6
-0.850, 6.391e-6
-0.851, 6.386e-6
-0.852, 6.378e-6
-0.853, 6.362e-6
-0.854, 6.346e-6
-0.855, 6.336e-6
-0.856, 6.330e-6
-0.857, 6.323e-6
-0.858, 6.307e-6
-0.859, 6.293e-6
-0.860, 6.283e-6
-0.861, 6.277e-6
-0.862, 6.271e-6
-0.863, 6.256e-6
-0.864, 6.242e-6
-0.865, 6.234e-6
-0.866, 6.229e-6
-0.867, 6.222e-6
-0.868, 6.208e-6
-0.869, 6.193e-6
-0.870, 6.186e-6
-0.871, 6.183e-6
-0.872, 6.174e-6
-0.873, 6.160e-6
-0.874, 6.147e-6
-0.875, 6.139e-6
-0.876, 6.135e-6
-0.877, 6.127e-6
-0.878, 6.114e-6
-0.879, 6.100e-6
-0.880, 6.091e-6
-0.881, 6.089e-6
-0.882, 6.082e-6
-0.883, 6.069e-6
-0.884, 6.056e-6
-0.885, 6.045e-6
-0.886, 6.041e-6
-0.887, 6.034e-6
-0.888, 6.021e-6
-0.889, 6.010e-6
-0.890, 6.000e-6
-0.891, 5.996e-6
-0.892, 5.989e-6
-0.893, 5.975e-6
-0.894, 5.965e-6
-0.895, 5.958e-6
-0.896, 5.954e-6
-0.897, 5.948e-6
-0.898, 5.934e-6
-0.899, 5.924e-6
-0.900, 5.918e-6
-0.901, 5.914e-6
-0.902, 5.909e-6
-0.903, 5.897e-6
-0.904, 5.888e-6
-0.905, 5.881e-6
-0.906, 5.878e-6
-0.907, 5.872e-6
-0.908, 5.859e-6
-0.909, 5.849e-6
-0.910, 5.843e-6
-0.911, 5.839e-6
-0.912, 5.834e-6
-0.913, 5.822e-6
-0.914, 5.810e-6
-0.915, 5.805e-6
-0.916, 5.802e-6
-0.917, 5.795e-6
-0.918, 5.784e-6
-0.919, 5.773e-6
-0.920, 5.767e-6
-0.921, 5.765e-6
-0.922, 5.759e-6
-0.923, 5.747e-6
-0.924, 5.738e-6
-0.925, 5.732e-6
-0.926, 5.730e-6
-0.927, 5.724e-6
-0.928, 5.712e-6
-0.929, 5.703e-6
-0.930, 5.697e-6
-0.931, 5.695e-6
-0.932, 5.690e-6
-0.933, 5.678e-6
-0.934, 5.672e-6
-0.935, 5.670e-6
-0.936, 5.667e-6
-0.937, 5.666e-6
-0.938, 5.655e-6
-0.939, 5.642e-6
-0.940, 5.637e-6
-0.941, 5.635e-6
-0.942, 5.630e-6
-0.943, 5.618e-6
-0.944, 5.610e-6
-0.945, 5.605e-6
-0.946, 5.603e-6
-0.947, 5.598e-6
-0.948, 5.588e-6
-0.949, 5.579e-6
-0.950, 5.576e-6
-0.951, 5.575e-6
-0.952, 5.568e-6
-0.953, 5.558e-6
-0.954, 5.550e-6
-0.955, 5.547e-6
-0.956, 5.545e-6
-0.957, 5.540e-6
-0.958, 5.530e-6
-0.959, 5.523e-6
-0.960, 5.520e-6
-0.961, 5.521e-6
-0.962, 5.512e-6
-0.963, 5.503e-6
-0.964, 5.497e-6
-0.965, 5.492e-6
-0.966, 5.494e-6
-0.967, 5.486e-6
-0.968, 5.478e-6
-0.969, 5.470e-6
-0.970, 5.466e-6
-0.971, 5.467e-6
-0.972, 5.461e-6
-0.973, 5.452e-6
-0.974, 5.445e-6
-0.975, 5.441e-6
-0.976, 5.442e-6
-0.977, 5.435e-6
-0.978, 5.423e-6
-0.979, 5.419e-6
-0.980, 5.418e-6
-0.981, 5.417e-6
-0.982, 5.410e-6
-0.983, 5.402e-6
-0.984, 5.395e-6
-0.985, 5.394e-6
-0.986, 5.395e-6
-0.987, 5.390e-6
-0.988, 5.381e-6
-0.989, 5.374e-6
-0.990, 5.373e-6
-0.991, 5.375e-6
-0.992, 5.369e-6
-0.993, 5.360e-6
-0.994, 5.353e-6
-0.995, 5.352e-6
-0.996, 5.353e-6
-0.997, 5.346e-6
-0.998, 5.339e-6
-0.999, 5.332e-6
-1.000, 5.332e-6
-1.001, 5.334e-6
-1.002, 5.326e-6
-1.003, 5.318e-6
-1.004, 5.313e-6
-1.005, 5.310e-6
-1.006, 5.312e-6
-1.007, 5.306e-6
-1.008, 5.297e-6
-1.009, 5.292e-6
-1.010, 5.290e-6
-1.011, 5.294e-6
-1.012, 5.287e-6
-1.013, 5.279e-6
-1.014, 5.275e-6
-1.015, 5.273e-6
-1.016, 5.273e-6
-1.017, 5.269e-6
-1.018, 5.260e-6
-1.019, 5.255e-6
-1.020, 5.254e-6
-1.021, 5.254e-6
-1.022, 5.252e-6
-1.023, 5.243e-6
-1.024, 5.240e-6
-1.025, 5.240e-6
-1.026, 5.237e-6
-1.027, 5.234e-6
-1.028, 5.226e-6
-1.029, 5.219e-6
-1.030, 5.221e-6
-1.031, 5.222e-6
-1.032, 5.217e-6
-1.033, 5.208e-6
-1.034, 5.203e-6
-1.035, 5.203e-6
-1.036, 5.205e-6
-1.037, 5.200e-6
-1.038, 5.192e-6
-1.039, 5.189e-6
-1.040, 5.188e-6
-1.041, 5.190e-6
-1.042, 5.184e-6
-1.043, 5.177e-6
-1.044, 5.172e-6
-1.045, 5.172e-6
-1.046, 5.174e-6
-1.047, 5.169e-6
-1.048, 5.162e-6
-1.049, 5.159e-6
-1.050, 5.159e-6
-1.051, 5.160e-6
-1.052, 5.155e-6
-1.053, 5.147e-6
-1.054, 5.145e-6
-1.055, 5.145e-6
-1.056, 5.147e-6
-1.057, 5.141e-6
-1.058, 5.133e-6
-1.059, 5.129e-6
-1.060, 5.130e-6
-1.061, 5.131e-6
-1.062, 5.125e-6
-1.063, 5.119e-6
-1.064, 5.113e-6
-1.065, 5.116e-6
-1.066, 5.117e-6
-1.067, 5.112e-6
-1.068, 5.105e-6
-1.069, 5.101e-6
-1.070, 5.102e-6
-1.071, 5.103e-6
-1.072, 5.098e-6
-1.073, 5.094e-6
-1.074, 5.089e-6
-1.075, 5.091e-6
-1.076, 5.091e-6
-1.077, 5.084e-6
-1.078, 5.081e-6
-1.079, 5.076e-6
-1.080, 5.079e-6
-1.081, 5.081e-6
-1.082, 5.074e-6
-1.083, 5.069e-6
-1.084, 5.064e-6
-1.085, 5.066e-6
-1.086, 5.067e-6
-1.087, 5.061e-6
-1.088, 5.055e-6
-1.089, 5.052e-6
-1.090, 5.053e-6
-1.091, 5.055e-6
-1.092, 5.051e-6
-1.093, 5.044e-6
-1.094, 5.041e-6
-1.095, 5.043e-6
-1.096, 5.044e-6
-1.097, 5.039e-6
-1.098, 5.034e-6
-1.099, 5.033e-6
-1.100, 5.035e-6
-1.101, 5.037e-6
-1.102, 5.032e-6
-1.103, 5.026e-6
-1.104, 5.022e-6
-1.105, 5.024e-6
-1.106, 5.023e-6
-1.107, 5.021e-6
-1.108, 5.014e-6
-1.109, 5.012e-6
-1.110, 5.014e-6
-1.111, 5.014e-6
-1.112, 5.009e-6
-1.113, 5.003e-6
-1.114, 5.000e-6
-1.115, 5.001e-6
-1.116, 5.002e-6
-1.117, 4.998e-6
-1.118, 4.994e-6
-1.119, 4.989e-6
-1.120, 4.994e-6
-1.121, 4.994e-6
-1.122, 4.989e-6
-1.123, 4.984e-6
-1.124, 4.982e-6
-1.125, 4.984e-6
-1.126, 4.986e-6
-1.127, 4.984e-6
-1.128, 4.977e-6
-1.129, 4.976e-6
-1.130, 4.979e-6
-1.131, 4.980e-6
-1.132, 4.975e-6
-1.133, 4.969e-6
-1.134, 4.969e-6
-1.135, 4.971e-6
-1.136, 4.972e-6
-1.137, 4.969e-6
-1.138, 4.962e-6
-1.139, 4.963e-6
-1.140, 4.966e-6
-1.141, 4.966e-6
-1.142, 4.961e-6
-1.143, 4.955e-6
-1.144, 4.956e-6
-1.145, 4.961e-6
-1.146, 4.960e-6
-1.147, 4.956e-6
-1.148, 4.951e-6
-1.149, 4.950e-6
-1.150, 4.955e-6
-1.151, 4.956e-6
-1.152, 4.952e-6
-1.153, 4.949e-6
-1.154, 4.947e-6
-1.155, 4.951e-6
-1.156, 4.951e-6
-1.157, 4.948e-6
-1.158, 4.946e-6
-1.159, 4.945e-6
-1.160, 4.948e-6
-1.161, 4.950e-6
-1.162, 4.945e-6
-1.163, 4.940e-6
-1.164, 4.941e-6
-1.165, 4.944e-6
-1.166, 4.946e-6
-1.167, 4.942e-6
-1.168, 4.938e-6
-1.169, 4.938e-6
-1.170, 4.942e-6
-1.171, 4.944e-6
-1.172, 4.943e-6
-1.173, 4.936e-6
-1.174, 4.937e-6
-1.175, 4.942e-6
-1.176, 4.944e-6
-1.177, 4.940e-6
-1.178, 4.939e-6
-1.179, 4.937e-6
-1.180, 4.942e-6
-1.181, 4.944e-6
-1.182, 4.941e-6
-1.183, 4.938e-6
-1.184, 4.938e-6
-1.185, 4.944e-6
-1.186, 4.943e-6
-1.187, 4.940e-6
-1.188, 4.938e-6
-1.189, 4.937e-6
-1.190, 4.943e-6
-1.191, 4.945e-6
-1.192, 4.942e-6
-1.193, 4.940e-6
-1.194, 4.939e-6
-1.195, 4.944e-6
-1.196, 4.946e-6
-1.197, 4.941e-6
-1.198, 4.940e-6
-1.199, 4.940e-6
-1.200, 4.944e-6
-1.201, 4.946e-6
-1.202, 4.943e-6
-1.203, 4.942e-6
-1.204, 4.944e-6
-1.205, 4.948e-6
-1.206, 4.952e-6
-1.207, 4.947e-6
-1.208, 4.944e-6
-1.209, 4.944e-6
-1.210, 4.950e-6
-1.211, 4.952e-6
-1.212, 4.948e-6
-1.213, 4.947e-6
-1.214, 4.948e-6
-1.215, 4.953e-6
-1.216, 4.955e-6
-1.217, 4.953e-6
-1.218, 4.949e-6
-1.219, 4.952e-6
-1.220, 4.957e-6
-1.221, 4.957e-6
-1.222, 4.956e-6
-1.223, 4.954e-6
-1.224, 4.956e-6
-1.225, 4.962e-6
-1.226, 4.962e-6
-1.227, 4.960e-6
-1.228, 4.958e-6
-1.229, 4.966e-6
-1.230, 4.969e-6
-1.231, 4.971e-6
-1.232, 4.967e-6
-1.233, 4.964e-6
-1.234, 4.966e-6
-1.235, 4.971e-6
-1.236, 4.974e-6
-1.237, 4.971e-6
-1.238, 4.969e-6
-1.239, 4.970e-6
-1.240, 4.978e-6
-1.241, 4.979e-6
-1.242, 4.977e-6
-1.243, 4.975e-6
-1.244, 4.976e-6
-1.245, 4.983e-6
-1.246, 4.985e-6
-1.247, 4.982e-6
-1.248, 4.981e-6
-1.249, 4.984e-6
-1.250, 4.989e-6
-1.251, 4.992e-6
-1.252, 4.990e-6
-1.253, 4.988e-6
-1.254, 4.993e-6
-1.255, 4.997e-6
-1.256, 5.000e-6
-1.257, 4.997e-6
-1.258, 4.996e-6
-1.259, 4.999e-6
-1.260, 5.005e-6
-1.261, 5.006e-6
-1.262, 5.006e-6
-1.263, 5.004e-6
-1.264, 5.008e-6
-1.265, 5.013e-6
-1.266, 5.015e-6
-1.267, 5.013e-6
-1.268, 5.013e-6
-1.269, 5.014e-6
-1.270, 5.021e-6
-1.271, 5.023e-6
-1.272, 5.021e-6
-1.273, 5.021e-6
-1.274, 5.024e-6
-1.275, 5.031e-6
-1.276, 5.035e-6
-1.277, 5.032e-6
-1.278, 5.032e-6
-1.279, 5.033e-6
-1.280, 5.043e-6
-1.281, 5.045e-6
-1.282, 5.041e-6
-1.283, 5.041e-6
-1.284, 5.045e-6
-1.285, 5.050e-6
-1.286, 5.052e-6
-1.287, 5.051e-6
-1.288, 5.051e-6
-1.289, 5.054e-6
-1.290, 5.060e-6
-1.291, 5.062e-6
-1.292, 5.060e-6
-1.293, 5.061e-6
-1.294, 5.065e-6
-1.295, 5.070e-6
-1.296, 5.072e-6
-1.297, 5.071e-6
-1.298, 5.070e-6
-1.299, 5.075e-6
-1.300, 5.082e-6
-1.301, 5.082e-6
-1.302, 5.080e-6
-1.303, 5.080e-6
-1.304, 5.085e-6
-1.305, 5.092e-6
-1.306, 5.094e-6
-1.307, 5.093e-6
-1.308, 5.093e-6
-1.309, 5.098e-6
-1.310, 5.105e-6
-1.311, 5.106e-6
-1.312, 5.104e-6
-1.313, 5.106e-6
-1.314, 5.108e-6
-1.315, 5.116e-6
-1.316, 5.118e-6
-1.317, 5.115e-6
-1.318, 5.119e-6
-1.319, 5.122e-6
-1.320, 5.127e-6
-1.321, 5.132e-6
-1.322, 5.129e-6
-1.323, 5.130e-6
-1.324, 5.136e-6
-1.325, 5.143e-6
-1.326, 5.161e-6
-1.327, 5.156e-6
-1.328, 5.153e-6
-1.329, 5.158e-6
-1.330, 5.162e-6
-1.331, 5.166e-6
-1.332, 5.162e-6
-1.333, 5.162e-6
-1.334, 5.168e-6
-1.335, 5.174e-6
-1.336, 5.177e-6
-1.337, 5.175e-6
-1.338, 5.177e-6
-1.339, 5.184e-6
-1.340, 5.191e-6
-1.341, 5.190e-6
-1.342, 5.189e-6
-1.343, 5.190e-6
-1.344, 5.196e-6
-1.345, 5.203e-6
-1.346, 5.206e-6
-1.347, 5.204e-6
-1.348, 5.206e-6
-1.349, 5.212e-6
-1.350, 5.223e-6
-1.351, 5.225e-6
-1.352, 5.223e-6
-1.353, 5.225e-6
-1.354, 5.231e-6
-1.355, 5.238e-6
-1.356, 5.242e-6
-1.357, 5.241e-6
-1.358, 5.244e-6
-1.359, 5.250e-6
-1.360, 5.258e-6
-1.361, 5.261e-6
-1.362, 5.260e-6
-1.363, 5.264e-6
-1.364, 5.269e-6
-1.365, 5.276e-6
-1.366, 5.280e-6
-1.367, 5.278e-6
-1.368, 5.281e-6
-1.369, 5.288e-6
-1.370, 5.298e-6
-1.371, 5.299e-6
-1.372, 5.300e-6
-1.373, 5.301e-6
-1.374, 5.309e-6
-1.375, 5.318e-6
-1.376, 5.322e-6
-1.377, 5.322e-6
-1.378, 5.323e-6
-1.379, 5.331e-6
-1.380, 5.342e-6
-1.381, 5.344e-6
-1.382, 5.345e-6
-1.383, 5.351e-6
-1.384, 5.355e-6
-1.385, 5.368e-6
-1.386, 5.371e-6
-1.387, 5.369e-6
-1.388, 5.373e-6
-1.389, 5.380e-6
-1.390, 5.390e-6
-1.391, 5.395e-6
-1.392, 5.395e-6
-1.393, 5.399e-6
-1.394, 5.406e-6
-1.395, 5.417e-6
-1.396, 5.421e-6
-1.397, 5.421e-6
-1.398, 5.426e-6
-1.399, 5.433e-6
-1.400, 5.444e-6
-1.401, 5.449e-6
-1.402, 5.450e-6
-1.403, 5.453e-6
-1.404, 5.464e-6
-1.405, 5.474e-6
-1.406, 5.480e-6
-1.407, 5.482e-6
-1.408, 5.484e-6
-1.409, 5.494e-6
-1.410, 5.504e-6
-1.411, 5.510e-6
-1.412, 5.511e-6
-1.413, 5.515e-6
-1.414, 5.527e-6
-1.415, 5.538e-6
-1.416, 5.545e-6
-1.417, 5.547e-6
-1.418, 5.551e-6
-1.419, 5.562e-6
-1.420, 5.574e-6
-1.421, 5.580e-6
-1.422, 5.584e-6
-1.423, 5.588e-6
-1.424, 5.599e-6
-1.425, 5.611e-6
-1.426, 5.616e-6
-1.427, 5.620e-6
-1.428, 5.625e-6
-1.429, 5.636e-6
-1.430, 5.650e-6
-1.431, 5.654e-6
-1.432, 5.659e-6
-1.433, 5.664e-6
-1.434, 5.678e-6
-1.435, 5.691e-6
-1.436, 5.698e-6
-1.437, 5.700e-6
-1.438, 5.707e-6
-1.439, 5.719e-6
-1.440, 5.735e-6
-1.441, 5.743e-6
-1.442, 5.746e-6
-1.443, 5.754e-6
-1.444, 5.767e-6
-1.445, 5.780e-6
-1.446, 5.789e-6
-1.447, 5.794e-6
-1.448, 5.802e-6
-1.449, 5.817e-6
-1.450, 5.830e-6
-1.451, 5.840e-6
-1.452, 5.846e-6
-1.453, 5.852e-6
-1.454, 5.867e-6
-1.455, 5.879e-6
-1.456, 5.888e-6
-1.457, 5.895e-6
-1.458, 5.901e-6
-1.459, 5.917e-6
-1.460, 5.933e-6
-1.461, 5.940e-6
-1.462, 5.948e-6
-1.463, 5.954e-6
-1.464, 5.970e-6
-1.465, 5.988e-6
-1.466, 5.999e-6
-1.467, 6.007e-6
-1.468, 6.016e-6
-1.469, 6.033e-6
-1.470, 6.051e-6
-1.471, 6.060e-6
-1.472, 6.069e-6
-1.473, 6.081e-6
-1.474, 6.097e-6
-1.475, 6.116e-6
-1.476, 6.127e-6
-1.477, 6.135e-6
-1.478, 6.148e-6
-1.479, 6.166e-6
-1.480, 6.184e-6
-1.481, 6.196e-6
-1.482, 6.205e-6
-1.483, 6.216e-6
-1.484, 6.234e-6
-1.485, 6.256e-6
-1.486, 6.270e-6
-1.487, 6.277e-6
-1.488, 6.292e-6
-1.489, 6.313e-6
-1.490, 6.333e-6
-1.491, 6.348e-6
-1.492, 6.359e-6
-1.493, 6.373e-6
-1.494, 6.395e-6
-1.495, 6.416e-6
-1.496, 6.431e-6
-1.497, 6.442e-6
-1.498, 6.458e-6
-1.499, 6.481e-6
-1.500, 6.504e-6
-1.501, 6.520e-6
-1.502, 6.534e-6
-1.503, 6.551e-6
-1.504, 6.577e-6
-1.505, 6.603e-6
-1.506, 6.618e-6
-1.507, 6.633e-6
-1.508, 6.652e-6
-1.509, 6.675e-6
-1.510, 6.701e-6
-1.511, 6.721e-6
-1.512, 6.736e-6
-1.513, 6.756e-6
-1.514, 6.783e-6
-1.515, 6.813e-6
-1.516, 6.831e-6
-1.517, 6.846e-6
-1.518, 6.870e-6
-1.519, 6.898e-6
-1.520, 6.923e-6
-1.521, 6.946e-6
-1.522, 6.964e-6
-1.523, 6.988e-6
-1.524, 7.018e-6
-1.525, 7.046e-6
-1.526, 7.071e-6
-1.527, 7.091e-6
-1.528, 7.116e-6
-1.529, 7.149e-6
-1.530, 7.180e-6
-1.531, 7.206e-6
-1.532, 7.228e-6
-1.533, 7.254e-6
-1.534, 7.289e-6
-1.535, 7.322e-6
-1.536, 7.348e-6
-1.537, 7.371e-6
-1.538, 7.398e-6
-1.539, 7.433e-6
-1.540, 7.468e-6
-1.541, 7.497e-6
-1.542, 7.523e-6
-1.543, 7.553e-6
-1.544, 7.591e-6
-1.545, 7.629e-6
-1.546, 7.658e-6
-1.547, 7.686e-6
-1.548, 7.718e-6
-1.549, 7.757e-6
-1.550, 7.795e-6
-1.551, 7.827e-6
-1.552, 7.856e-6
-1.553, 7.890e-6
-1.554, 7.931e-6
-1.555, 7.973e-6
-1.556, 8.007e-6
-1.557, 8.038e-6
-1.558, 8.074e-6
-1.559, 8.114e-6
-1.560, 8.159e-6
-1.561, 8.198e-6
-1.562, 8.233e-6
-1.563, 8.273e-6
-1.564, 8.320e-6
-1.565, 8.363e-6
-1.566, 8.402e-6
-1.567, 8.438e-6
-1.568, 8.480e-6
-1.569, 8.530e-6
-1.570, 8.576e-6
-1.571, 8.616e-6
-1.572, 8.654e-6
-1.573, 8.696e-6
-1.574, 8.749e-6
-1.575, 8.802e-6
-1.576, 8.843e-6
-1.577, 8.884e-6
-1.578, 8.928e-6
-1.579, 8.986e-6
-1.580, 9.039e-6
-1.581, 9.085e-6
-1.582, 9.130e-6
-1.583, 9.179e-6
-1.584, 9.240e-6
-1.585, 9.299e-6
-1.586, 9.350e-6
-1.587, 9.400e-6
-1.588, 9.453e-6
-1.589, 9.514e-6
-1.590, 9.578e-6
-1.591, 9.631e-6
-1.592, 9.683e-6
-1.593, 9.742e-6
-1.594, 9.810e-6
-1.595, 9.878e-6
-1.596, 9.934e-6
-1.597, 9.990e-6
-1.598, 1.005e-5
-1.599, 1.012e-5
-1.600, 1.019e-5
-1.601, 1.026e-5
-1.602, 1.032e-5
-1.603, 1.039e-5
-1.604, 1.046e-5
-1.605, 1.054e-5
-1.606, 1.061e-5
-1.607, 1.068e-5
-1.608, 1.075e-5
-1.609, 1.083e-5
-1.610, 1.091e-5
-1.611, 1.099e-5
-1.612, 1.106e-5
-1.613, 1.114e-5
-1.614, 1.123e-5
-1.615, 1.132e-5
-1.616, 1.140e-5
-1.617, 1.149e-5
-1.618, 1.157e-5
-1.619, 1.167e-5
-1.620, 1.177e-5
-1.621, 1.186e-5
-1.622, 1.195e-5
-1.623, 1.204e-5
-1.624, 1.213e-5
-1.625, 1.223e-5
-1.626, 1.233e-5
-1.627, 1.243e-5
-1.628, 1.254e-5
-1.629, 1.266e-5
-1.630, 1.277e-5
-1.631, 1.288e-5
-1.632, 1.299e-5
-1.633, 1.311e-5
-1.634, 1.323e-5
-1.635, 1.336e-5
-1.636, 1.348e-5
-1.637, 1.360e-5
-1.638, 1.373e-5
-1.639, 1.388e-5
-1.640, 1.401e-5
-1.641, 1.415e-5
-1.642, 1.428e-5
-1.643, 1.443e-5
-1.644, 1.458e-5
-1.645, 1.473e-5
-1.646, 1.488e-5
-1.647, 1.503e-5
-1.648, 1.519e-5
-1.649, 1.536e-5
-1.650, 1.553e-5
-1.651, 1.569e-5
-1.652, 1.586e-5
-1.653, 1.604e-5
-1.654, 1.624e-5
-1.655, 1.643e-5
-1.656, 1.662e-5
-1.657, 1.680e-5
-1.658, 1.700e-5
-1.659, 1.721e-5
-1.660, 1.742e-5
-1.661, 1.763e-5
-1.662, 1.785e-5
-1.663, 1.807e-5
-1.664, 1.829e-5
-1.665, 1.853e-5
-1.666, 1.877e-5
-1.667, 1.900e-5
-1.668, 1.925e-5
-1.669, 1.951e-5
-1.670, 1.978e-5
-1.671, 2.003e-5
-1.672, 2.030e-5
-1.673, 2.057e-5
-1.674, 2.086e-5
-1.675, 2.116e-5
-1.676, 2.145e-5
-1.677, 2.175e-5
-1.678, 2.206e-5
-1.679, 2.239e-5
-1.680, 2.272e-5
-1.681, 2.306e-5
-1.682, 2.339e-5
-1.683, 2.374e-5
-1.684, 2.410e-5
-1.685, 2.448e-5
-1.686, 2.485e-5
-1.687, 2.522e-5
-1.688, 2.562e-5
-1.689, 2.603e-5
-1.690, 2.644e-5
-1.691, 2.686e-5
-1.692, 2.727e-5
-1.693, 2.772e-5
-1.694, 2.816e-5
-1.695, 2.863e-5
-1.696, 2.911e-5
-1.697, 2.958e-5
-1.698, 3.006e-5
-1.699, 3.057e-5
-1.700, 3.110e-5
-1.701, 3.163e-5
-1.702, 3.217e-5
-1.703, 3.272e-5
-1.704, 3.329e-5
-1.705, 3.387e-5
-1.706, 3.445e-5
-1.707, 3.505e-5
-1.708, 3.566e-5
-1.709, 3.629e-5
-1.710, 3.694e-5
-1.711, 3.759e-5
-1.712, 3.825e-5
-1.713, 3.892e-5
-1.714, 3.963e-5
-1.715, 4.035e-5
-1.716, 4.107e-5
-1.717, 4.179e-5
-1.718, 4.255e-5
-1.719, 4.333e-5
-1.720, 4.409e-5
-1.721, 4.488e-5
-1.722, 4.568e-5
-1.723, 4.653e-5
-1.724, 4.738e-5
-1.725, 4.825e-5
-1.726, 4.912e-5
-1.727, 4.999e-5
-1.728, 5.091e-5
-1.729, 5.185e-5
-1.730, 5.281e-5
-1.731, 5.376e-5
-1.732, 5.473e-5
-1.733, 5.574e-5
-1.734, 5.677e-5
-1.735, 5.782e-5
-1.736, 5.886e-5
-1.737, 5.991e-5
-1.738, 6.101e-5
-1.739, 6.212e-5
-1.740, 6.326e-5
-1.741, 6.442e-5
-1.742, 6.556e-5
-1.743, 6.674e-5
-1.744, 6.796e-5
-1.745, 6.919e-5
-1.746, 7.043e-5
-1.747, 7.171e-5
-1.748, 7.300e-5
-1.749, 7.432e-5
-1.750, 7.565e-5
-1.751, 7.698e-5
-1.752, 7.833e-5
-1.753, 7.971e-5
-1.754, 8.113e-5
-1.755, 8.255e-5
-1.756, 8.400e-5
-1.757, 8.548e-5
-1.758, 8.699e-5
-1.759, 8.852e-5
-1.760, 9.007e-5
-1.761, 9.161e-5
-1.762, 9.317e-5
-1.763, 9.476e-5
-1.764, 9.639e-5
-1.765, 9.804e-5
-1.766, 9.972e-5
-1.767, 1.014e-4
-1.768, 1.031e-4
-1.769, 1.049e-4
-1.770, 1.066e-4
-1.771, 1.084e-4
-1.772, 1.102e-4
-1.773, 1.120e-4
-1.774, 1.139e-4
-1.775, 1.157e-4
-1.776, 1.176e-4
-1.777, 1.195e-4
-1.778, 1.214e-4
-1.779, 1.233e-4
-1.780, 1.253e-4
-1.781, 1.273e-4
-1.782, 1.293e-4
-1.783, 1.313e-4
-1.784, 1.333e-4
-1.785, 1.354e-4
-1.786, 1.374e-4
-1.787, 1.395e-4
-1.788, 1.416e-4
-1.789, 1.437e-4
-1.790, 1.458e-4
-1.791, 1.480e-4
-1.792, 1.501e-4
-1.793, 1.523e-4
-1.794, 1.544e-4
-1.795, 1.566e-4
-1.796, 1.588e-4
-1.797, 1.610e-4
-1.798, 1.632e-4
-1.799, 1.655e-4
-1.800, 1.678e-4
-1.801, 1.700e-4
-1.802, 1.723e-4
-1.803, 1.746e-4
-1.804, 1.769e-4
-1.805, 1.793e-4
-1.806, 1.817e-4
-1.807, 1.840e-4
-1.808, 1.864e-4
-1.809, 1.888e-4
-1.810, 1.912e-4
-1.811, 1.936e-4
-1.812, 1.960e-4
-1.813, 1.985e-4
-1.814, 2.009e-4
-1.815, 2.035e-4
-1.816, 2.060e-4
-1.817, 2.085e-4
-1.818, 2.111e-4
-1.819, 2.137e-4
-1.820, 2.164e-4
-1.821, 2.190e-4
-1.822, 2.217e-4
-1.823, 2.245e-4
-1.824, 2.273e-4
-1.825, 2.301e-4
-1.826, 2.330e-4
-1.827, 2.359e-4
-1.828, 2.388e-4
-1.829, 2.417e-4
-1.830, 2.447e-4
-1.831, 2.477e-4
-1.832, 2.508e-4
-1.833, 2.539e-4
-1.834, 2.570e-4
-1.835, 2.602e-4
-1.836, 2.634e-4
-1.837, 2.666e-4
-1.838, 2.699e-4
-1.839, 2.732e-4
-1.840, 2.765e-4
-1.841, 2.799e-4
-1.842, 2.833e-4
-1.843, 2.868e-4
-1.844, 2.902e-4
-1.845, 2.938e-4
-1.846, 2.973e-4
-1.847, 3.009e-4
-1.848, 3.045e-4
-1.849, 3.082e-4
-1.850, 3.119e-4
-1.851, 3.156e-4
-1.852, 3.194e-4
-1.853, 3.232e-4
-1.854, 3.271e-4
-1.855, 3.311e-4
-1.856, 3.350e-4
-1.857, 3.390e-4
-1.858, 3.431e-4
-1.859, 3.472e-4
-1.860, 3.512e-4
-1.861, 3.553e-4
-1.862, 3.595e-4
-1.863, 3.638e-4
-1.864, 3.681e-4
-1.865, 3.724e-4
-1.866, 3.768e-4
-1.867, 3.812e-4
-1.868, 3.856e-4
-1.869, 3.901e-4
-1.870, 3.947e-4
-1.871, 3.992e-4
-1.872, 4.038e-4
-1.873, 4.085e-4
-1.874, 4.132e-4
-1.875, 4.179e-4
-1.876, 4.227e-4
-1.877, 4.275e-4
-1.878, 4.324e-4
-1.879, 4.374e-4
-1.880, 4.424e-4
-1.881, 4.474e-4
-1.882, 4.525e-4
-1.883, 4.575e-4
-1.884, 4.627e-4
-1.885, 4.678e-4
-1.886, 4.730e-4
-1.887, 4.783e-4
-1.888, 4.837e-4
-1.889, 4.891e-4
-1.890, 4.945e-4
-1.891, 5.000e-4
-1.892, 5.055e-4
-1.893, 5.110e-4
-1.894, 5.166e-4
-1.895, 5.223e-4
-1.896, 5.281e-4
-1.897, 5.338e-4
-1.898, 5.397e-4
-1.899, 5.456e-4
-1.900, 5.515e-4
-1.901, 5.575e-4
-1.902, 5.635e-4
-1.903, 5.695e-4
-1.904, 5.756e-4
-1.905, 5.818e-4
-1.906, 5.880e-4
-1.907, 5.943e-4
-1.908, 6.006e-4
-1.909, 6.070e-4
-1.910, 6.134e-4
-1.911, 6.199e-4
-1.912, 6.264e-4
-1.913, 6.331e-4
-1.914, 6.398e-4
-1.915, 6.465e-4
-1.916, 6.532e-4
-1.917, 6.600e-4
-1.918, 6.667e-4
-1.919, 6.735e-4
-1.920, 6.805e-4
-1.921, 6.876e-4
-1.922, 6.946e-4
-1.923, 7.017e-4
-1.924, 7.088e-4
-1.925, 7.159e-4
-1.926, 7.230e-4
-1.927, 7.301e-4
-1.928, 7.373e-4
-1.929, 7.446e-4
-1.930, 7.520e-4
-1.931, 7.594e-4
-1.932, 7.667e-4
-1.933, 7.743e-4
-1.934, 7.819e-4
-1.935, 7.895e-4
-1.936, 7.972e-4
-1.937, 8.049e-4
-1.938, 8.128e-4
-1.939, 8.209e-4
-1.940, 8.288e-4
-1.941, 8.368e-4
-1.942, 8.448e-4
-1.943, 8.529e-4
-1.944, 8.611e-4
-1.945, 8.693e-4
-1.946, 8.776e-4
-1.947, 8.857e-4
-1.948, 8.939e-4
-1.949, 9.022e-4
-1.950, 9.104e-4
-1.951, 9.186e-4
-1.952, 9.266e-4
-1.953, 9.349e-4
-1.954, 9.432e-4
-1.955, 9.516e-4
-1.956, 9.602e-4
-1.957, 9.687e-4
-1.958, 9.772e-4
-1.959, 9.859e-4
-1.960, 9.949e-4
-1.961, 1.004e-3
-1.962, 1.010e-3
-1.963, 1.011e-3
-1.964, 1.011e-3
-1.965, 1.011e-3
-1.966, 1.011e-3
-1.967, 1.011e-3
-1.968, 1.011e-3
-1.969, 1.011e-3
-1.970, 1.011e-3
-1.971, 1.011e-3
-1.972, 1.011e-3
-1.973, 1.011e-3
-1.974, 1.011e-3
-1.975, 1.011e-3
-1.976, 1.011e-3
-1.977, 1.011e-3
-1.978, 1.011e-3
-1.979, 1.011e-3
-1.980, 1.011e-3
-1.981, 1.011e-3
-1.982, 1.011e-3
-1.983, 1.011e-3
-1.984, 1.011e-3
-1.985, 1.011e-3
-1.986, 1.011e-3
-1.987, 1.011e-3
-1.988, 1.011e-3
-1.989, 1.011e-3
-1.990, 1.011e-3
-1.991, 1.011e-3
-1.992, 1.011e-3
-1.993, 1.011e-3
-1.994, 1.011e-3
-1.995, 1.011e-3
-1.996, 1.011e-3
-1.997, 1.011e-3
-1.998, 1.011e-3
-1.999, 1.011e-3
-2.000, 1.011e-3
-2.001, 1.011e-3
-2.002, 1.011e-3
-2.003, 1.011e-3
-2.004, 1.011e-3
-2.005, 1.011e-3
-2.006, 1.011e-3
-2.007, 1.011e-3
-2.008, 1.011e-3
-2.009, 1.011e-3
-2.010, 1.011e-3
-2.011, 1.011e-3
-2.012, 1.011e-3
-2.013, 1.011e-3
-2.014, 1.011e-3
-2.015, 1.011e-3
-2.016, 1.011e-3
-2.017, 1.011e-3
-2.018, 1.011e-3
-2.019, 1.011e-3
-2.020, 1.011e-3
-2.021, 1.011e-3
-2.022, 1.011e-3
-2.023, 1.011e-3
-2.024, 1.011e-3
-2.025, 1.011e-3
-2.026, 1.011e-3
-2.027, 1.011e-3
-2.028, 1.011e-3
-2.029, 1.011e-3
-2.030, 1.011e-3
-2.031, 1.011e-3
-2.032, 1.011e-3
-2.033, 1.011e-3
-2.034, 1.011e-3
-2.035, 1.011e-3
-2.036, 1.011e-3
-2.037, 1.011e-3
-2.038, 1.011e-3
-2.039, 1.011e-3
-2.040, 1.011e-3
-2.041, 1.011e-3
-2.042, 1.011e-3
-2.043, 1.011e-3
-2.044, 1.011e-3
-2.045, 1.011e-3
-2.046, 1.011e-3
-2.047, 1.011e-3
-2.048, 1.011e-3
-2.049, 1.011e-3
-2.050, 1.011e-3
-2.051, 1.011e-3
-2.052, 1.011e-3
-2.053, 1.011e-3
-2.054, 1.011e-3
-2.055, 1.011e-3
-2.056, 1.011e-3
-2.057, 1.011e-3
-2.058, 1.011e-3
-2.059, 1.011e-3
-2.060, 1.011e-3
-2.061, 1.011e-3
-2.062, 1.011e-3
-2.063, 1.011e-3
-2.064, 1.011e-3
-2.065, 1.011e-3
-2.066, 1.011e-3
-2.067, 1.011e-3
-2.068, 1.011e-3
-2.069, 1.011e-3
-2.070, 1.011e-3
-2.071, 1.011e-3
-2.072, 1.011e-3
-2.073, 1.011e-3
-2.074, 1.011e-3
-2.075, 1.011e-3
-2.076, 1.011e-3
-2.077, 1.011e-3
-2.078, 1.011e-3
-2.079, 1.011e-3
-2.080, 1.011e-3
-2.081, 1.011e-3
-2.082, 1.011e-3
-2.083, 1.011e-3
-2.084, 1.011e-3
-2.085, 1.011e-3
-2.086, 1.011e-3
-2.087, 1.011e-3
-2.088, 1.011e-3
-2.089, 1.011e-3
-2.090, 1.011e-3
-2.091, 1.011e-3
-2.092, 1.011e-3
-2.093, 1.011e-3
-2.094, 1.011e-3
-2.095, 1.011e-3
-2.096, 1.011e-3
-2.097, 1.011e-3
-2.098, 1.011e-3
-2.099, 1.011e-3
