Potential V vs RHE, Current mA cm-2
0.4132999999999999,-0.030274821817111785
0.4122999999999999,-0.03249591855789989
0.4112999999999999,-0.033344745337818914
0.4102999999999999,-0.03388233563176763
0.4092999999999999,-0.03432089613472579
0.4082999999999999,-0.03484433931567585
0.4072999999999999,-0.03531119404463132
0.4062999999999999,-0.035664871869597575
0.4052999999999999,-0.03597610835556788
0.4042999999999999,-0.03634393329353279
0.4032999999999999,-0.03666931689250175
0.4022999999999999,-0.03703714183046666
0.4012999999999999,-0.03733423120343832
0.4002999999999999,-0.03771620325440188
0.3992999999999999,-0.03806988107936814
0.3982999999999999,-0.03833867622634249
0.3972999999999999,-0.038692354051308754
0.3962999999999999,-0.03903188476327636
0.3952999999999999,-0.03935726836224532
0.3942999999999999,-0.03964021062221833
0.39329999999999987,-0.03993729999518999
0.39229999999999987,-0.040276830707157596
0.39129999999999987,-0.04065880275812116
0.39029999999999987,-0.040927597905095515
0.38929999999999987,-0.04121054016506852
0.38829999999999987,-0.041535923764037475
0.38729999999999987,-0.04180471891101184
0.38629999999999987,-0.042130102509980796
0.38529999999999986,-0.0424130447699538
0.38429999999999986,-0.04271013414292545
0.38329999999999986,-0.04303551774189441
0.38229999999999986,-0.043403342679859326
0.38129999999999986,-0.04370043205283098
0.38029999999999986,-0.043912638747810734
0.37929999999999986,-0.044025815651799936
0.37829999999999986,-0.04447852326775675
0.37729999999999986,-0.04470487707573516
0.37629999999999986,-0.04498781933570817
0.37529999999999986,-0.04535564427367308
0.37429999999999986,-0.045695174985640685
0.37329999999999985,-0.04610544126260154
0.37229999999999985,-0.046416677748571854
0.37129999999999985,-0.04662888444355161
0.37029999999999985,-0.04692597381652327
0.36929999999999985,-0.04719476896349762
0.36829999999999985,-0.04759088812745983
0.36729999999999985,-0.048086037082412596
0.36629999999999985,-0.0483406851163883
0.36529999999999985,-0.04855289181136806
0.36429999999999985,-0.04883583407134107
0.36329999999999985,-0.049118776331314076
0.36229999999999984,-0.04935927725229113
0.36129999999999984,-0.04965636662526278
0.36029999999999984,-0.0501373684672169
0.35929999999999984,-0.050363722275195304
0.35829999999999984,-0.05075984143915752
0.35729999999999984,-0.05117010771611837
0.35629999999999984,-0.051396461524096784
0.35529999999999984,-0.051721845123065734
0.35429999999999984,-0.051948198931044146
0.35329999999999984,-0.05228772964301176
0.35229999999999984,-0.05264140746797802
0.35129999999999983,-0.053037526631940224
0.35029999999999983,-0.05326388043991863
0.34929999999999983,-0.053589264038887585
0.34829999999999983,-0.053872206298860595
0.34729999999999983,-0.054324913914817405
0.34629999999999983,-0.05477762153077422
0.34529999999999983,-0.054890798434763424
0.34429999999999983,-0.05523032914673103
0.3432999999999998,-0.05551327140670404
0.3422999999999998,-0.055796213666677044
0.3412999999999998,-0.05607915592665005
0.3402999999999998,-0.05646112797761362
0.3392999999999998,-0.05668748178559202
0.3382999999999998,-0.05694212981956772
0.3372999999999998,-0.05715433651454749
0.3362999999999998,-0.057493867226515095
0.3352999999999998,-0.05781925082548405
0.3342999999999998,-0.058003163294466496
0.3332999999999998,-0.058300252667438164
0.3322999999999998,-0.058668077605403074
0.3312999999999998,-0.058837842961386874
0.3302999999999998,-0.059248109238347745
0.3292999999999998,-0.059403727481332894
0.3282999999999998,-0.05961593417631265
0.3272999999999998,-0.059870582210288355
0.3262999999999998,-0.06028084848724922
0.3252999999999999,-0.06043646673023437
0.3242999999999999,-0.060931615685187124
0.3232999999999999,-0.06115796949316554
0.3222999999999999,-0.06156823577012639
0.3212999999999999,-0.06182288380410209
0.3202999999999999,-0.06206338472507915
0.3192999999999999,-0.062360474098050823
0.3182999999999999,-0.06240291543704677
0.3172999999999999,-0.06253023945403462
0.3162999999999999,-0.06261512213202652
0.3152999999999999,-0.06298294706999143
0.3142999999999999,-0.06320930087796985
0.3132999999999999,-0.0634215075729496
0.3122999999999999,-0.06394495075389965
0.3112999999999999,-0.06431277569186457
0.3102999999999999,-0.06479377753381868
0.3092999999999999,-0.0653030736017701
0.3082999999999999,-0.0653596620537647
0.3072999999999999,-0.06557186874874445
0.3062999999999999,-0.06543039761875795
0.3052999999999999,-0.06562845720073905
0.3042999999999999,-0.06636410707666887
0.3032999999999999,-0.06666119644964053
0.3022999999999999,-0.06683096180562433
0.3012999999999999,-0.06690169737061757
0.3002999999999999,-0.0672978165345798
0.2992999999999999,-0.06717049251759194
0.2982999999999999,-0.06728366942158114
0.2972999999999999,-0.0675241703425582
0.2962999999999999,-0.06779296548953255
0.2952999999999999,-0.06821737887949207
0.2942999999999999,-0.06855690959145967
0.2932999999999999,-0.06893888164242323
0.2922999999999999,-0.06927841235439085
0.2912999999999999,-0.06946232482337329
0.2902999999999999,-0.06953306038836657
0.2892999999999999,-0.07016968047330582
0.2882999999999999,-0.07038188716828557
0.2872999999999999,-0.07066482942825858
0.2862999999999999,-0.07021212181230177
0.2852999999999999,-0.07052335829827208
0.2842999999999999,-0.07055165252426938
0.2832999999999999,-0.07039603428128423
0.2822999999999999,-0.07096191880123023
0.2812999999999999,-0.0709760659142289
0.2802999999999999,-0.0712873024001992
0.2792999999999999,-0.07155609754717356
0.2782999999999999,-0.07188148114614251
0.2772999999999999,-0.07254639545707908
0.2762999999999999,-0.07256054257007773
0.2752999999999999,-0.07261713102207233
0.2742999999999999,-0.07299910307303589
0.2732999999999999,-0.07366401738397246
0.2722999999999999,-0.07431478458191038
0.2712999999999999,-0.07448454993789419
0.2702999999999999,-0.0747957864238645
0.2692999999999999,-0.07531922960481456
0.26829999999999987,-0.075503142073797
0.26729999999999987,-0.07588511412476057
0.26629999999999987,-0.07639441019271198
0.26529999999999987,-0.07646514575770523
0.26429999999999987,-0.07694614759965934
0.26329999999999987,-0.07700273605165395
0.26229999999999987,-0.07737056098961885
0.26129999999999987,-0.07804962241355407
0.26029999999999986,-0.07848818291651223
0.25929999999999986,-0.07884186074147849
0.25829999999999986,-0.07974727597339212
0.25729999999999986,-0.08025657204134354
0.25629999999999986,-0.08015754225035297
0.25529999999999986,-0.0804121902843287
0.25429999999999986,-0.08063854409230709
0.25329999999999986,-0.08093563346527875
0.25229999999999986,-0.08140248819423422
0.25129999999999986,-0.08196837271418023
0.25029999999999986,-0.08285964083309519
0.24929999999999986,-0.08308599464107361
0.24829999999999985,-0.08315673020606687
0.24729999999999985,-0.08380749740400478
0.24629999999999985,-0.08472705974891705
0.24529999999999985,-0.08607103548378882
0.24429999999999985,-0.08675009690772406
0.24329999999999985,-0.08706133339369435
0.24229999999999985,-0.08761307080064172
0.24129999999999985,-0.08849019180655805
0.24029999999999985,-0.08919754745649056
0.23929999999999985,-0.08967854929844467
0.23829999999999985,-0.08996149155841768
0.23729999999999984,-0.0906405529823529
0.23629999999999984,-0.09107911348531106
0.23529999999999984,-0.09212599984721119
0.23429999999999984,-0.09328606311310052
0.23329999999999984,-0.0940641543280263
0.23229999999999984,-0.09488468688194801
0.23129999999999984,-0.09471492152596421
0.23029999999999984,-0.09653989910279011
0.22929999999999984,-0.09856293626159711
0.22829999999999984,-0.09832243534062005
0.22729999999999984,-0.09908637944254717
0.22629999999999983,-0.10067085609839602
0.22529999999999983,-0.10133577040933257
0.22429999999999983,-0.10200068472026914
0.22329999999999983,-0.10321733643815308
0.22229999999999983,-0.10501401978898167
0.22129999999999983,-0.10664093778382645
0.22029999999999983,-0.10757464724173739
0.21929999999999983,-0.10997965645150796
0.21829999999999983,-0.1130495799722151
0.21729999999999983,-0.11435111436809091
0.21629999999999983,-0.1159780323629357
0.21529999999999982,-0.11841133579870355
0.21429999999999982,-0.12101440459045523
0.21329999999999982,-0.12289597061927575
0.21229999999999982,-0.12493315489108141
0.21129999999999982,-0.12728157564885736
0.21029999999999982,-0.13030905783056854
0.20929999999999982,-0.1334497169162689
0.20829999999999982,-0.13585472612603947
0.20729999999999982,-0.138542677595783
0.20629999999999982,-0.14113159927453606
0.20529999999999982,-0.1433102546763282
0.20429999999999982,-0.14543232162612577
0.20329999999999981,-0.14797880196588284
0.2022999999999998,-0.15052528230563988
0.2012999999999998,-0.15222293586547794
0.20029999999999992,-0.15462794507524852
0.19929999999999992,-0.15604265637511353
0.19829999999999992,-0.1585891367148706
0.19729999999999992,-0.1618429727045602
0.19629999999999992,-0.16481386643427676
0.19529999999999992,-0.1669359333840743
0.19429999999999992,-0.1693409425938449
0.19329999999999992,-0.17075565389370992
0.19229999999999992,-0.17231183632356148
0.19129999999999991,-0.17415096101338604
0.1902999999999999,-0.17613155683319706
0.1892999999999999,-0.17768773926304862
0.1882999999999999,-0.17924392169290015
0.1872999999999999,-0.18122451751271118
0.1862999999999999,-0.18320511333252223
0.1852999999999999,-0.1846198246323873
0.1842999999999999,-0.1860345359322523
0.1832999999999999,-0.18858101627200938
0.1822999999999999,-0.18985425644188791
0.1812999999999999,-0.19098602548177993
0.1802999999999999,-0.1922592656516585
0.1792999999999999,-0.19395691921149652
0.1782999999999999,-0.19565457277133455
0.1772999999999999,-0.1973522263311726
0.1762999999999999,-0.19975723554094318
0.1752999999999999,-0.2011719468408082
0.1742999999999999,-0.20258665814067325
0.1732999999999999,-0.2040013694405383
0.1722999999999999,-0.2041428405705248
0.1712999999999999,-0.20513313848043033
0.1702999999999999,-0.20555755187038985
0.1692999999999999,-0.20683079204026839
0.1682999999999999,-0.2086699167300929
0.1672999999999999,-0.20852844560010642
0.1662999999999999,-0.21065051254990397
0.1652999999999999,-0.21079198367989047
0.1642999999999999,-0.21121639706985
0.1632999999999999,-0.21277257949970152
0.1622999999999999,-0.21447023305953958
0.1612999999999999,-0.2161678866193776
0.1602999999999999,-0.21687524226931013
0.1592999999999999,-0.21800701130920216
0.15829999999999989,-0.21843142469916169
0.15729999999999988,-0.21828995356917516
0.15629999999999988,-0.21800701130920216
0.15529999999999988,-0.21913878034909418
0.15429999999999988,-0.2204120205189727
0.15329999999999988,-0.2206949627789457
0.15229999999999988,-0.22154378955886472
0.15129999999999988,-0.2228170297287433
0.15029999999999988,-0.22366585650866228
0.14929999999999988,-0.2239487987686353
0.14829999999999988,-0.22380732763864883
0.14729999999999988,-0.2229585008587298
0.14629999999999987,-0.2235243853786758
0.14529999999999987,-0.22437321215859482
0.14429999999999987,-0.22564645232847336
0.14329999999999987,-0.22635380797840585
0.14229999999999987,-0.22776851927827088
0.14129999999999987,-0.22805146153824393
0.14029999999999987,-0.22918323057813594
0.13929999999999987,-0.2307394130079875
0.13829999999999987,-0.23088088413797397
0.13729999999999987,-0.23059794187800098
0.13629999999999987,-0.23144676865792
0.13529999999999986,-0.23187118204787951
0.13429999999999986,-0.23286147995778506
0.13329999999999986,-0.23371030673770407
0.13229999999999986,-0.23427619125765006
0.13129999999999986,-0.23413472012766354
0.13029999999999986,-0.23470060464760956
0.12929999999999986,-0.2356909025575151
0.12829999999999986,-0.23611531594747462
0.12729999999999986,-0.23668120046742064
0.12629999999999986,-0.23696414272739363
0.12529999999999986,-0.2388032674172182
0.12429999999999986,-0.2397935653271237
0.12329999999999985,-0.2395106230671507
0.12229999999999985,-0.24092533436701574
0.12129999999999985,-0.24035944984706975
0.12029999999999985,-0.2397935653271237
0.11929999999999985,-0.2423400456668808
0.11829999999999985,-0.2446035837466648
0.11729999999999985,-0.24672565069646235
0.11629999999999985,-0.2468671218264489
0.11529999999999985,-0.24700859295643537
0.11429999999999985,-0.24842330425630044
0.11329999999999985,-0.24941360216620592
0.11229999999999984,-0.25012095781613847
0.11129999999999984,-0.24927213103621945
0.11029999999999984,-0.24870624651627343
0.10929999999999984,-0.24842330425630044
0.10829999999999984,-0.24983801555616547
0.10729999999999984,-0.250545371206098
0.10629999999999984,-0.25012095781613847
0.10529999999999984,-0.25012095781613847
0.10429999999999984,-0.250828313466071
0.10329999999999984,-0.25167714024599
0.10229999999999984,-0.2518186113759765
0.10129999999999983,-0.2521015536359495
0.10029999999999983,-0.24842330425630044
0.09929999999999983,-0.24757447747638137
0.09829999999999983,-0.24516946826661082
0.09729999999999983,-0.24672565069646235
0.09629999999999983,-0.24729153521640837
0.09529999999999983,-0.24658417956647588
0.09429999999999983,-0.24630123730650288
0.09329999999999983,-0.24884771764625993
0.09229999999999983,-0.24913065990623293
0.09129999999999983,-0.24842330425630044
0.09029999999999982,-0.24842330425630044
0.08929999999999982,-0.24785741973635445
0.08829999999999982,-0.24927213103621945
0.08729999999999982,-0.24997948668615194
0.08629999999999982,-0.251111255726044
0.08529999999999982,-0.25167714024599
0.08429999999999982,-0.2518186113759765
0.08329999999999982,-0.251960082505963
0.08229999999999982,-0.2518186113759765
0.08129999999999982,-0.252525967025909
0.08029999999999982,-0.25295038041586854
0.07929999999999982,-0.25365773606580105
0.07829999999999981,-0.25365773606580105
0.07729999999999981,-0.2518186113759765
0.07629999999999981,-0.25464803397570657
0.07529999999999992,-0.25507244736566614
0.07429999999999992,-0.2518186113759765
0.07329999999999992,-0.251111255726044
0.07229999999999992,-0.2523844958959225
0.07129999999999992,-0.25662862979551765
0.07029999999999992,-0.25422362058574705
0.06929999999999992,-0.25309185154585506
0.06829999999999992,-0.2557798030155986
0.06729999999999992,-0.2583262833553557
0.06629999999999991,-0.2586092256153287
0.06529999999999991,-0.2591751101352747
0.06429999999999991,-0.2587506967453152
0.06329999999999991,-0.25450656284572004
0.06229999999999991,-0.25733598544545017
0.06129999999999991,-0.25507244736566614
0.06029999999999991,-0.25931658126526125
0.05929999999999991,-0.2652583687246944
0.05829999999999991,-0.25988246578520724
0.05729999999999991,-0.2586092256153287
0.056299999999999906,-0.25705304318547717
0.055299999999999905,-0.2560627452755716
0.054299999999999904,-0.25790186996539616
0.0532999999999999,-0.2567701009255041
0.0522999999999999,-0.25436509171573357
0.0512999999999999,-0.2547895051056931
0.0502999999999999,-0.2591751101352747
0.0492999999999999,-0.2618630616050183
0.0482999999999999,-0.2583262833553557
0.0472999999999999,-0.2583262833553557
0.0462999999999999,-0.2583262833553557
0.045299999999999896,-0.2577603988354097
0.044299999999999895,-0.2580433410953827
0.043299999999999894,-0.2627118883849373
0.04229999999999989,-0.2648339553347349
0.04129999999999989,-0.26044835030515323
0.04029999999999989,-0.25903363900528825
0.03929999999999989,-0.26356071516485635
0.03829999999999989,-0.26681455115454594
0.03729999999999989,-0.26455101307476186
0.03629999999999989,-0.2620045327350048
0.03529999999999989,-0.2628533595149239
0.034299999999999886,-0.26709749341451894
0.033299999999999885,-0.269643973754276
0.032299999999999884,-0.26766337793446493
0.031299999999999883,-0.27035132940420853
0.030299999999999883,-0.269643973754276
0.02929999999999988,-0.2665316088945729
0.02829999999999988,-0.26780484906445146
0.02729999999999988,-0.267946320194438
0.02629999999999988,-0.2697854448842625
0.025299999999999878,-0.27487840556377663
0.024299999999999877,-0.2772834147735472
0.023299999999999876,-0.2770004725135742
0.022299999999999875,-0.2770004725135742
0.021299999999999875,-0.27077574279416805
0.020299999999999874,-0.269926916014249
0.019299999999999873,-0.2700683871442355
0.018299999999999872,-0.27120015618412757
0.01729999999999987,-0.27219045409403303
0.01629999999999987,-0.2728978097439656
0.01529999999999987,-0.2767175302536012
0.014299999999999868,-0.2733222231339251
0.013299999999999867,-0.27190751183406003
0.012299999999999978,-0.2726148674839926
0.011299999999999866,-0.2737466365238846
0.010299999999999976,-0.2764345879936282
0.009299999999999864,-0.27445399217381716
0.008299999999999974,-0.27501987669376315
0.007299999999999862,-0.2765760591236147
0.006299999999999972,-0.2770004725135742
0.00529999999999986,-0.2777078281635067
0.0042999999999999705,-0.27982989511330425
0.0032999999999998586,-0.28308373110299384
0.0022999999999999687,-0.28534726918277786
0.0012999999999998568,-0.2823763754530613
0.00029999999999996696,-0.28379108675292636
-0.000700000000000145,-0.2927037679420761
-0.0017000000000000348,-0.29128905664221105
-0.0027000000000001467,-0.289874345342346
-0.0037000000000000366,-0.288742576302454
-0.0047000000000001485,-0.288176691782508
-0.005700000000000038,-0.28775227839254847
-0.00670000000000015,-0.29086464325225153
-0.00770000000000004,-0.29001581647233254
-0.008700000000000152,-0.2894499319523865
-0.009700000000000042,-0.29128905664221105
-0.010700000000000154,-0.2938355369819681
-0.011700000000000044,-0.29425995037192765
-0.012700000000000156,-0.29199641229214357
-0.013700000000000045,-0.2924208256821031
-0.014700000000000157,-0.2941184792419411
-0.015700000000000047,-0.2924208256821031
-0.01670000000000016,-0.2911475855122245
-0.01770000000000005,-0.2924208256821031
-0.01870000000000016,-0.2927037679420761
-0.01970000000000005,-0.2931281813320356
-0.020700000000000163,-0.29539171941181963
-0.021700000000000053,-0.2962405461917387
-0.022700000000000164,-0.2955331905418062
-0.023700000000000054,-0.2938355369819681
-0.024700000000000166,-0.29256229681208956
-0.025700000000000056,-0.2914305277721975
-0.026700000000000168,-0.2918549411621571
-0.027700000000000058,-0.29355259472199513
-0.02870000000000017,-0.29539171941181963
-0.02970000000000006,-0.29369406585198166
-0.03070000000000017,-0.29029875873230554
-0.03170000000000006,-0.2915719989021841
-0.03270000000000017,-0.29256229681208956
-0.03370000000000006,-0.2927037679420761
-0.034700000000000175,-0.2927037679420761
-0.035700000000000065,-0.2911475855122245
-0.03670000000000018,-0.2915719989021841
-0.03770000000000007,-0.2918549411621571
-0.03870000000000018,-0.2924208256821031
-0.03970000000000007,-0.29510877715184664
-0.04070000000000018,-0.29680643071168467
-0.04170000000000007,-0.29850408427152275
-0.04270000000000018,-0.2992114399214552
-0.04370000000000007,-0.3002017378313608
-0.044700000000000184,-0.29906996879146874
-0.045700000000000074,-0.29977732444140126
-0.046700000000000186,-0.3002017378313608
-0.047700000000000076,-0.2992114399214552
-0.04870000000000019,-0.29850408427152275
-0.04970000000000008,-0.29680643071168467
-0.05070000000000019,-0.2963820173217252
-0.05170000000000008,-0.29680643071168467
-0.05270000000000019,-0.29680643071168467
-0.05370000000000008,-0.29807967088156323
-0.05470000000000019,-0.29779672862159023
-0.05570000000000008,-0.2993529110514418
-0.056700000000000195,-0.29708937297165766
-0.057700000000000085,-0.29793819975157676
-0.058700000000000196,-0.29708937297165766
-0.059700000000000086,-0.29751378636161724
-0.0607000000000002,-0.2993529110514418
-0.06170000000000009,-0.3007676223513068
-0.0627000000000002,-0.3027482181711178
-0.06370000000000009,-0.30373851608102337
-0.0647000000000002,-0.3031726315610774
-0.06570000000000009,-0.3027482181711178
-0.0667000000000002,-0.3024652759111448
-0.0677000000000001,-0.30147497800123935
-0.0687000000000002,-0.30204086252118534
-0.0697000000000001,-0.30204086252118534
-0.07070000000000021,-0.3028896893011043
-0.0717000000000001,-0.30571911190083445
-0.07270000000000021,-0.30656793868075344
-0.0737000000000001,-0.3061435252907939
-0.07470000000000021,-0.3074167654606725
-0.0757000000000001,-0.308690005630551
