Potential V vs RHE, Current mA cm-2
0.013299999999999867,0.4776065348344364
0.012299999999999978,-1.4415908145624723
0.011299999999999866,-3.2297858975918787
0.010299999999999976,-4.9302688800296535
0.009299999999999864,-6.458157083883892
0.008299999999999974,-7.896918475846635
0.007299999999999862,-9.205526428221793
0.006299999999999972,-10.340124890713554
0.00529999999999986,-11.385596541313816
0.0042999999999999705,-12.258473413330542
0.0032999999999998586,-13.043638184755638
0.0022999999999999687,-13.916515056772363
0.0012999999999998568,-14.69885040559773
0.00029999999999996696,-15.533530072518102
-0.000700000000000145,-16.396503965435777
-0.0017000000000000348,-17.231183632356142
-0.0027000000000001467,-18.10830463827247
-0.0037000000000000366,-19.01371987018609
-0.0047000000000001485,-19.763516859114564
-0.005700000000000038,-20.456725396048434
-0.00670000000000015,-21.022609915994444
-0.00770000000000004,-21.461170418952605
-0.008700000000000152,-21.857289582914817
-0.009700000000000042,-22.196820294882425
-0.010700000000000154,-22.508056780852733
-0.011700000000000044,-22.861734605818995
-0.012700000000000156,-23.300295108777156
-0.013700000000000045,-23.724708498736668
-0.014700000000000157,-24.20571034069078
-0.015700000000000047,-24.729153521640843
-0.01670000000000016,-25.252596702590903
-0.01770000000000005,-25.691157205549064
-0.01870000000000016,-26.087276369511276
-0.01970000000000005,-26.34192440348698
-0.020700000000000163,-26.568278211465387
-0.021700000000000053,-26.69560222845324
-0.022700000000000164,-26.822926245441096
-0.023700000000000054,-26.86536758443705
-0.024700000000000166,-27.091721392415455
-0.025700000000000056,-27.176604070407354
-0.026700000000000168,-27.43125210438306
-0.027700000000000058,-27.742488590353368
-0.02870000000000017,-28.09616641531963
-0.02970000000000006,-28.435697127287238
-0.03070000000000017,-28.746933613257543
-0.03170000000000006,-29.001581647233255
-0.03270000000000017,-29.18549411621571
-0.03370000000000006,-29.35525947219951
-0.034700000000000175,-29.39770081119546
-0.035700000000000065,-29.35525947219951
-0.03670000000000018,-29.27037679420761
-0.03770000000000007,-29.31281813320356
-0.03870000000000018,-29.35525947219951
-0.03970000000000007,-29.482583489187363
-0.04070000000000018,-29.708937297165768
-0.04170000000000007,-29.921143992145527
-0.04270000000000018,-30.147497800123933
-0.04370000000000007,-30.444587173095588
-0.044700000000000184,-30.571911190083444
-0.045700000000000074,-30.79826499806185
-0.046700000000000186,-30.88314767605375
-0.047700000000000076,-30.79826499806185
-0.04870000000000019,-30.7558236590659
-0.04970000000000008,-30.670940981073993
-0.05070000000000019,-30.614352529079397
-0.05170000000000008,-30.571911190083444
-0.05270000000000019,-30.571911190083444
-0.05370000000000008,-30.71338232006995
-0.05470000000000019,-30.925589015049702
-0.05570000000000008,-31.137795710029454
-0.056700000000000195,-31.40659085700382
-0.057700000000000085,-31.57635621298762
-0.058700000000000196,-31.76026868197007
-0.059700000000000086,-31.802710020966025
-0.0607000000000002,-31.802710020966025
-0.06170000000000009,-31.717827342974125
-0.0627000000000002,-31.618797551983565
-0.06370000000000009,-31.449032195999767
-0.0647000000000002,-31.40659085700382
-0.06570000000000009,-31.321708179011907
-0.0667000000000002,-31.40659085700382
-0.0677000000000001,-31.533914873991666
-0.0687000000000002,-31.661238890979522
-0.0697000000000001,-31.887592698957924
-0.07070000000000021,-32.09979939393769
-0.0717000000000001,-32.184682071929586
-0.07270000000000021,-32.24127052392419
-0.0737000000000001,-32.24127052392419
-0.07470000000000021,-32.184682071929586
-0.0757000000000001,-32.09979939393769
-0.07670000000000021,-31.887592698957924
-0.0777000000000001,-31.84515135996197
-0.07870000000000021,-31.802710020966025
-0.0797000000000001,-31.84515135996197
-0.08070000000000022,-31.972475376949827
-0.0817000000000001,-32.09979939393769
-0.08270000000000022,-32.24127052392419
-0.08370000000000011,-32.49591855789989
-0.08470000000000022,-32.62324257488775
-0.08570000000000011,-32.70812525287965
-0.08670000000000022,-32.70812525287965
-0.08770000000000011,-32.58080123589179
-0.08870000000000022,-32.49591855789989
-0.08970000000000011,-32.32615320191609
-0.09070000000000022,-32.24127052392419
-0.09170000000000011,-32.14224073293363
-0.09270000000000023,-32.09979939393769
-0.09370000000000012,-32.14224073293363
-0.09470000000000023,-32.32615320191609
-0.09570000000000012,-32.49591855789989
-0.09670000000000023,-32.70812525287965
-0.09770000000000012,-32.84959638286615
-0.09870000000000023,-32.93447906085806
-0.09970000000000012,-32.93447906085806
-0.10070000000000023,-32.892037721862096
-0.10170000000000012,-32.84959638286615
-0.10270000000000024,-32.66568391388369
-0.10370000000000013,-32.49591855789989
-0.10470000000000024,-32.45347721890394
-0.10570000000000013,-32.368594540912035
-0.10670000000000024,-32.45347721890394
-0.10770000000000013,-32.58080123589179
-0.10870000000000024,-32.70812525287965
-0.10970000000000013,-32.93447906085806
-0.11070000000000024,-33.06180307784591
-0.11170000000000013,-33.18912709483376
-0.11270000000000002,-33.231568433829715
-0.11370000000000013,-33.18912709483376
-0.11470000000000002,-33.10424441684186
-0.11570000000000014,-32.97692039985401
-0.11670000000000003,-32.807155043870196
-0.11770000000000014,-32.70812525287965
-0.11870000000000003,-32.62324257488775
-0.11970000000000014,-32.66568391388369
-0.12070000000000003,-32.764713704874254
-0.12170000000000014,-32.84959638286615
-0.12270000000000003,-33.01936173884996
-0.12370000000000014,-33.18912709483376
-0.12470000000000003,-33.288156885824314
-0.12570000000000014,-33.373039563816214
-0.12670000000000003,-33.41548090281216
-0.12770000000000015,-33.330598224820264
-0.12870000000000004,-33.18912709483376
-0.12970000000000015,-33.06180307784591
-0.13070000000000004,-32.97692039985401
-0.13170000000000015,-32.892037721862096
-0.13270000000000004,-32.93447906085806
-0.13370000000000015,-33.01936173884996
-0.13470000000000004,-33.14668575583781
-0.13570000000000015,-33.330598224820264
-0.13670000000000004,-33.58524625879597
-0.13770000000000016,-33.712570275783825
-0.13870000000000005,-33.81160006677438
-0.13970000000000016,-33.81160006677438
-0.14070000000000005,-33.712570275783825
-0.14170000000000016,-33.627687597791926
-0.14270000000000005,-33.54280491980002
-0.14370000000000016,-33.330598224820264
-0.14470000000000005,-33.288156885824314
-0.14570000000000016,-33.18912709483376
-0.14670000000000005,-33.231568433829715
-0.14770000000000016,-33.41548090281216
-0.14870000000000005,-33.54280491980002
-0.14970000000000017,-33.712570275783825
-0.15070000000000006,-33.85404140577033
-0.15170000000000017,-34.02380676175414
-0.15270000000000006,-34.06624810075008
-0.15370000000000017,-34.06624810075008
-0.15470000000000006,-33.93892408376223
-0.15570000000000017,-33.85404140577033
-0.15670000000000006,-33.670128936787876
-0.15770000000000017,-33.627687597791926
-0.15870000000000006,-33.58524625879597
-0.15970000000000018,-33.627687597791926
-0.16070000000000007,-33.81160006677438
-0.16170000000000018,-33.98136542275818
-0.16270000000000007,-34.193572117737936
-0.16370000000000018,-34.50480860370825
-0.16470000000000007,-34.632132620696105
-0.16570000000000018,-34.75945663768395
-0.16670000000000007,-34.717015298688004
-0.16770000000000018,-34.632132620696105
-0.16870000000000007,-34.50480860370825
-0.16970000000000018,-34.33504324772444
-0.17070000000000007,-34.193572117737936
-0.17170000000000019,-34.10868943974604
-0.17270000000000008,-34.15113077874198
-0.1737000000000002,-34.193572117737936
-0.17470000000000008,-34.33504324772444
-0.1757000000000002,-34.462367264712285
-0.17670000000000008,-34.75945663768395
-0.1777000000000002,-34.98581044566235
-0.17870000000000008,-35.15557580164616
-0.1797000000000002,-35.198017140642115
-0.18070000000000008,-35.198017140642115
-0.1817000000000002,-35.240458479638065
-0.18270000000000008,-35.198017140642115
-0.1837000000000002,-35.11313446265021
-0.1847000000000001,-35.11313446265021
-0.1857000000000002,-35.11313446265021
-0.1867000000000001,-35.240458479638065
-0.1877000000000002,-35.46681228761647
-0.1887000000000001,-35.679018982596226
-0.1897000000000002,-35.94781412957058
-0.1907000000000001,-36.16002082455034
-0.1917000000000001,-36.329786180534136
-0.19269999999999998,-36.4288159715247
-0.1937000000000001,-36.47125731052064
-0.19469999999999998,-36.4288159715247
-0.1957000000000001,-36.329786180534136
-0.19669999999999999,-36.11757948555439
-0.1977000000000001,-36.07513814655844
-0.1987,-36.03269680756248
-0.1997000000000001,-36.11757948555439
-0.2007,-36.20246216354629
-0.2017000000000001,-36.37222751953009
-0.2027,-36.55613998851254
-0.2037000000000001,-36.81078802248826
-0.2047,-36.99470049147071
-0.2057000000000001,-37.164465847454515
-0.2067,-37.206907186450465
-0.2077000000000001,-37.164465847454515
-0.2087,-37.164465847454515
-0.2097000000000001,-37.122024508458566
-0.2107,-37.07958316946261
-0.2117000000000001,-37.122024508458566
-0.2127,-37.206907186450465
-0.2137000000000001,-37.376672542434264
-0.2147,-37.645467689408626
-0.2157000000000001,-37.94255706238028
-0.2167,-38.253793548350586
-0.21770000000000012,-38.522588695324956
-0.2187,-38.734795390304704
-0.21970000000000012,-38.90456074628851
-0.2207,-38.94700208528445
-0.22170000000000012,-38.94700208528445
-0.2227,-38.94700208528445
-0.22370000000000012,-38.90456074628851
-0.2247,-38.94700208528445
-0.22570000000000012,-38.98944342428042
-0.2267,-39.173355893262865
-0.22770000000000012,-39.38556258824262
-0.22870000000000001,-39.696799074212926
-0.22970000000000013,-40.092918238175145
-0.23070000000000002,-40.3900076111468
-0.23170000000000013,-40.65880275812115
-0.23270000000000002,-40.828568114104954
-0.23370000000000013,-40.95589213109281
-0.23470000000000002,-41.04077480908471
-0.23570000000000013,-41.083216148080666
-0.23670000000000002,-40.99833347008877
-0.2376999999999999,-41.139804600075266
-0.23870000000000002,-41.22468727806717
-0.2396999999999999,-41.52177665103883
-0.24070000000000003,-41.79057179801318
-0.24169999999999991,-42.130102509980794
-0.24270000000000003,-42.526221673943
-0.24369999999999992,-42.96478217690117
-0.24470000000000003,-43.31846000186743
-0.24569999999999992,-43.657990713835034
-0.24670000000000003,-43.84190318281749
-0.24769999999999992,-43.96922719980534
-0.24870000000000003,-44.096551216793195
-0.24969999999999992,-44.181433894785094
-0.25070000000000003,-44.28046368577565
-0.2516999999999999,-44.4926703807554
-0.25270000000000004,-44.704877075735155
-0.2536999999999999,-45.05855490070142
-0.25470000000000004,-45.45467406466363
-0.2556999999999999,-45.89323456762179
-0.25670000000000004,-46.41667774857186
-0.25769999999999993,-46.75620846053947
-0.25870000000000004,-47.15232762450167
-0.25969999999999993,-47.46356411047198
-0.26070000000000004,-47.71821214444768
-0.26169999999999993,-47.8879775004315
-0.26270000000000004,-48.071889969413945
-0.26369999999999993,-48.1992139864018
-0.26470000000000005,-48.41142068138156
-0.26569999999999994,-48.72265716735186
-0.26670000000000005,-49.076334992318124
-0.26769999999999994,-49.557336834272235
-0.26870000000000005,-50.024191563227696
-0.26969999999999994,-50.60422319617236
-0.27070000000000005,-51.127666377122424
-0.27169999999999994,-51.55207976708194
-0.27270000000000005,-51.990640270040096
-0.27369999999999994,-52.386759434002315
-0.27470000000000006,-52.69799591997262
-0.27569999999999995,-52.995085292944275
-0.27670000000000006,-53.22143910092268
-0.27769999999999995,-53.56096981289029
-0.27870000000000006,-53.9570889768525
-0.27969999999999995,-54.43809081880661
-0.28070000000000006,-55.003975338752625
-0.28169999999999995,-55.56985985869864
-0.28270000000000006,-56.1781857176406
-0.28369999999999995,-56.82895291557852
-0.28470000000000006,-57.408984548523186
-0.28569999999999995,-57.974869068469204
-0.28670000000000007,-58.39928245842871
-0.28769999999999996,-58.75296028339497
-0.28870000000000007,-59.10663810836124
-0.28969999999999996,-59.403727481332886
-0.29070000000000007,-59.757405306299155
-0.29169999999999996,-60.19596580925731
-0.29270000000000007,-60.67696765121143
-0.29369999999999996,-61.20041083216149
-0.2947000000000001,-61.80873669110345
-0.29569999999999996,-62.501945228037314
-0.2967000000000001,-63.251742216965795
-0.29769999999999996,-63.860068075907755
-0.2987000000000001,-64.51083527384567
-0.29969999999999997,-65.03427845479574
-0.3007000000000001,-65.51528029674984
-0.30169999999999997,-65.99628213870396
-0.3027000000000001,-66.51972531965401
-0.30369999999999997,-66.9582858226122
-0.3047000000000001,-67.52417034255821
-0.30569999999999997,-68.0900548625042
-0.3067000000000001,-68.78326339943808
-0.3077,-69.61794306635846
-0.3087000000000001,-70.35359294228827
-0.3097,-71.18827260920865
-0.3107000000000001,-72.00880516313036
-0.3117,-72.80104349105478
-0.3127000000000001,-73.45181068899271
-0.3137,-74.10257788693062
-0.3147000000000001,-74.72505085887124
-0.3157,-75.29093537881725
-0.3167000000000001,-75.81437855976732
-0.3177,-76.38026307971333
-0.3187000000000001,-76.98858893865528
-0.3197,-77.7242388145851
-0.3207000000000001,-78.55891848150549
-0.3217,-79.37945103542721
-0.3227000000000001,-80.21413070234757
-0.3237,-81.1761343862558
-0.3247000000000001,-81.99666694017753
-0.3257,-82.87378794609386
-0.3267000000000001,-83.60943782202366
-0.3277,-84.23191079396429
-0.3287000000000001,-84.8826779919022
-0.3297,-85.49100385084417
-0.3307000000000001,-86.18421238777805
-0.3317,-86.93400937670651
-0.3327000000000001,-87.71210059163228
-0.3337,-88.54678025855264
-0.3347000000000001,-89.46634260346492
-0.3357,-90.47078762636909
-0.3367000000000001,-91.56011532726518
-0.3377,-92.50797189817473
-0.3387000000000001,-93.42753424308701
-0.3397,-94.21977257101145
-0.3407000000000001,-94.99786378593721
-0.3417,-95.74766077486568
-0.3427000000000001,-96.44086931179956
-0.3437,-97.13407784873341
-0.3447000000000001,-97.92631617665783
-0.3457,-98.7044073915836
-0.3467000000000001,-99.62396973649588
-0.3477,-100.62841475940007
-0.3487000000000001,-101.6753011213002
-0.3497,-102.80707016119221
-0.3507000000000001,-103.89639786208829
-0.3517,-104.98572556298437
-0.3527000000000001,-105.94772924689259
-0.3537,-106.73996757481702
-0.3547000000000001,-107.39073477275493
-0.3557,-108.0839433096888
-0.35670000000000013,-108.77715184662266
-0.3577,-109.56939017454708
-0.35870000000000013,-110.4465111804634
-0.3597,-111.5358388813595
-0.36070000000000013,-112.71004926024747
-0.3617,-113.96914231712736
-0.3626999999999999,-115.36970650399375
-0.3637,-116.81271202985609
-0.3646999999999999,-118.07180508673595
-0.3657,-119.38748659561045
-0.3666999999999999,-120.56169697449842
-0.3677,-121.56614199740261
-0.3686999999999999,-122.57058702030677
-0.36970000000000003,-123.39111957422851
-0.3706999999999999,-124.26824058014482
-0.37170000000000003,-125.14536158606113
-0.3726999999999999,-126.00833547897882
-0.37370000000000003,-126.9278978238911
-0.3746999999999999,-127.84746016880335
-0.37570000000000003,-128.85190519170752
-0.3766999999999999,-129.98367423159957
-0.37770000000000004,-131.03056059349967
-0.3786999999999999,-132.07744695539984
-0.37970000000000004,-133.03945063930803
-0.3806999999999999,-133.9873072102176
-0.38170000000000004,-135.03419357211774
-0.38269999999999993,-136.03863859502192
-0.38370000000000004,-137.00064227893017
-0.38469999999999993,-138.00508730183432
-0.38570000000000004,-139.09441500273041
-0.38669999999999993,-138.96709098574257
-0.38570000000000004,-136.66111156696255
-0.38469999999999993,-134.69466286015015
-0.38370000000000004,-132.89797950932152
-0.38269999999999993,-131.2003259494835
-0.38170000000000004,-129.58755506763737
-0.3806999999999999,-127.93234284679528
-0.37970000000000004,-126.3195719649491
-0.3786999999999999,-124.57947706611512
-0.37770000000000004,-122.82523505428249
-0.3766999999999999,-121.00025747745659
-0.37570000000000003,-119.38748659561045
-0.3746999999999999,-117.67568592277377
-0.37370000000000003,-116.14779771891952
-0.3726999999999999,-114.67649796705987
-0.37170000000000003,-113.31837511918944
-0.3706999999999999,-112.01684072331359
-0.36970000000000003,-110.78604189243102
-0.3686999999999999,-109.56939017454708
-0.3677,-108.39517979565912
-0.3666999999999999,-107.07949828678463
-0.3657,-105.82040522990474
-0.3646999999999999,-104.50472372103027
-0.3637,-103.11830664716253
-0.3626999999999999,-101.80262513828804
-0.3617,-100.45864940341626
-0.36070000000000013,-99.22785057253368
-0.3597,-98.09608153264163
-0.35870000000000013,-97.04919517074151
-0.3577,-96.00230880884139
-0.35670000000000013,-95.08274646392913
-0.3557,-94.03586010202899
-0.3547000000000001,-93.03141507912481
-0.3537,-91.85720470023682
-0.3527000000000001,-90.59811164335694
-0.3517,-89.32487147347842
-0.3507000000000001,-87.98089573860662
-0.3497,-86.7076555687281
-0.3487000000000001,-85.49100385084417
-0.3477,-84.27435213296022
-0.3467000000000001,-83.18502443206415
-0.3457,-82.18057940915998
-0.3447000000000001,-81.1761343862558
-0.3437,-80.25657204134353
-0.3427000000000001,-79.20968567944341
-0.3417,-78.20524065653922
-0.3407000000000001,-77.0734716166472
-0.3397,-75.94170257675518
-0.3387000000000001,-74.80993353686314
-0.3377,-73.57913470598055
-0.3367000000000001,-72.27760031010472
-0.3357,-71.1458312702127
-0.3347000000000001,-69.95747377832606
-0.3337,-68.96717586842054
-0.3327000000000001,-68.04761352350828
-0.3317,-67.128051178596
-0.3307000000000001,-66.25093017267966
-0.3297,-65.43039761875795
-0.3287000000000001,-64.46839393484973
-0.3277,-63.54883158993744
-0.3267000000000001,-62.459503889041365
-0.3257,-61.412617527141244
-0.3247000000000001,-60.23840714825326
-0.3237,-59.06419676936528
-0.3227000000000001,-57.974869068469204
-0.3217,-56.82895291557852
-0.3207000000000001,-55.838655005673
-0.3197,-54.919092660760725
-0.3187000000000001,-54.0419716548444
-0.3177,-53.22143910092268
-0.3167000000000001,-52.42920077299826
-0.3157,-51.46719708909004
-0.3147000000000001,-50.64666453516831
-0.3137,-49.642219512264134
-0.3127000000000001,-48.59533315036401
-0.3117,-47.54844678846388
-0.3107000000000001,-46.37423640957591
-0.3097,-45.27076159568118
-0.3087000000000001,-44.28046368577565
-0.3077,-43.27601866287147
-0.3067000000000001,-42.3564563179592
-0.30569999999999997,-41.56421799003478
-0.3047000000000001,-40.78612677510901
-0.30369999999999997,-40.092918238175145
-0.3027000000000001,-39.30067991025072
-0.30169999999999997,-38.5650300343209
-0.3007000000000001,-37.687909028404576
-0.29969999999999997,-36.768346683492304
-0.2987000000000001,-35.848784338580025
-0.29769999999999996,-34.8018979766799
-0.2967000000000001,-33.712570275783825
-0.29569999999999996,-32.807155043870196
-0.2947000000000001,-31.84515135996197
-0.29369999999999996,-31.052913032037555
-0.29270000000000007,-30.317263156107735
-0.29169999999999996,-29.62405461917387
-0.29070000000000007,-28.959140308237306
-0.28969999999999996,-28.308373110299385
-0.28870000000000007,-27.65760591236147
-0.28769999999999996,-26.907808923433
-0.28670000000000007,-26.087276369511276
-0.28569999999999995,-25.167714024599
-0.28470000000000006,-24.20571034069078
-0.28369999999999995,-23.24370665678255
-0.28270000000000006,-22.295850085872978
-0.28169999999999995,-21.418729079956652
-0.28070000000000006,-20.626490752032236
-0.27969999999999995,-19.890840876102416
-0.27870000000000006,-19.28251501716045
-0.27769999999999995,-18.674189158218486
-0.27670000000000006,-18.10830463827247
-0.27569999999999995,-17.4433903273359
-0.27470000000000006,-16.792623129397985
-0.27369999999999994,-16.056973253468165
-0.27270000000000005,-15.222293586547794
-0.27169999999999994,-14.401761032626075
-0.27070000000000005,-13.47936926511407
-0.26969999999999994,-12.651763154693022
-0.26870000000000005,-11.86659838326793
-0.26769999999999994,-11.037577561547016
-0.26670000000000005,-10.382566229709504
