June 25, 2026   14:13:41
Cyclic Voltammetry
File: c:/users/guazh/data/20260623_doe_duplica2/2026-06-24-exp6\exp6-2026-06-25t14_06_25-arkoh\exp6_cv_sr_500mvs_efin_-1400mv.bin
Data Source:  Experiment
Instrument Model:  CHI760E
Header: CV ran at 500 mVs
Note: 

Init E (V) = -1
High E (V) = -1
Low E (V) = -1.4
Final E (V) = -1
Init P/N = N
Scan Rate (V/s) = 0.5
Segment = 3
Sample Interval (V) = 0.001
Quiet Time (sec) = 2
Sensitivity (A/V) = 0.01
Comp R (ohm) = 1.3

Results:

Channel 1:
Segment 1:

Segment 2:

Segment 3:

Potential/V, Current/A

-1.000, 3.099e-5
-1.001, 1.481e-4
-1.002, 2.345e-4
-1.003, 3.054e-4
-1.004, 3.670e-4
-1.005, 4.133e-4
-1.006, 4.534e-4
-1.007, 4.873e-4
-1.008, 5.150e-4
-1.009, 5.366e-4
-1.010, 5.582e-4
-1.011, 5.736e-4
-1.012, 5.890e-4
-1.013, 6.014e-4
-1.014, 6.137e-4
-1.015, 6.199e-4
-1.016, 6.291e-4
-1.017, 6.353e-4
-1.018, 6.414e-4
-1.019, 6.476e-4
-1.020, 6.538e-4
-1.021, 6.569e-4
-1.022, 6.599e-4
-1.023, 6.630e-4
-1.024, 6.661e-4
-1.025, 6.692e-4
-1.026, 6.723e-4
-1.027, 6.723e-4
-1.028, 6.754e-4
-1.029, 6.784e-4
-1.030, 6.784e-4
-1.031, 6.815e-4
-1.032, 6.815e-4
-1.033, 6.846e-4
-1.034, 6.846e-4
-1.035, 6.846e-4
-1.036, 6.877e-4
-1.037, 6.877e-4
-1.038, 6.908e-4
-1.039, 6.908e-4
-1.040, 6.908e-4
-1.041, 6.908e-4
-1.042, 6.908e-4
-1.043, 6.939e-4
-1.044, 6.939e-4
-1.045, 6.939e-4
-1.046, 6.939e-4
-1.047, 6.969e-4
-1.048, 6.969e-4
-1.049, 6.969e-4
-1.050, 6.969e-4
-1.051, 6.969e-4
-1.052, 7.000e-4
-1.053, 7.000e-4
-1.054, 7.000e-4
-1.055, 7.000e-4
-1.056, 7.031e-4
-1.057, 7.000e-4
-1.058, 7.000e-4
-1.059, 7.000e-4
-1.060, 7.000e-4
-1.061, 7.000e-4
-1.062, 7.031e-4
-1.063, 7.031e-4
-1.064, 7.031e-4
-1.065, 7.031e-4
-1.066, 7.031e-4
-1.067, 7.031e-4
-1.068, 7.031e-4
-1.069, 7.031e-4
-1.070, 7.031e-4
-1.071, 7.062e-4
-1.072, 7.062e-4
-1.073, 7.031e-4
-1.074, 7.062e-4
-1.075, 7.062e-4
-1.076, 7.062e-4
-1.077, 7.062e-4
-1.078, 7.062e-4
-1.079, 7.062e-4
-1.080, 7.062e-4
-1.081, 7.062e-4
-1.082, 7.062e-4
-1.083, 7.062e-4
-1.084, 7.093e-4
-1.085, 7.062e-4
-1.086, 7.062e-4
-1.087, 7.062e-4
-1.088, 7.062e-4
-1.089, 7.093e-4
-1.090, 7.062e-4
-1.091, 7.093e-4
-1.092, 7.093e-4
-1.093, 7.062e-4
-1.094, 7.093e-4
-1.095, 7.093e-4
-1.096, 7.093e-4
-1.097, 7.093e-4
-1.098, 7.093e-4
-1.099, 7.093e-4
-1.100, 7.093e-4
-1.101, 7.093e-4
-1.102, 7.093e-4
-1.103, 7.093e-4
-1.104, 7.093e-4
-1.105, 7.093e-4
-1.106, 7.124e-4
-1.107, 7.124e-4
-1.108, 7.124e-4
-1.109, 7.093e-4
-1.110, 7.093e-4
-1.111, 7.093e-4
-1.112, 7.124e-4
-1.113, 7.124e-4
-1.114, 7.124e-4
-1.115, 7.124e-4
-1.116, 7.124e-4
-1.117, 7.124e-4
-1.118, 7.124e-4
-1.119, 7.124e-4
-1.120, 7.124e-4
-1.121, 7.124e-4
-1.122, 7.124e-4
-1.123, 7.124e-4
-1.124, 7.154e-4
-1.125, 7.154e-4
-1.126, 7.154e-4
-1.127, 7.154e-4
-1.128, 7.154e-4
-1.129, 7.185e-4
-1.130, 7.185e-4
-1.131, 7.185e-4
-1.132, 7.185e-4
-1.133, 7.185e-4
-1.134, 7.185e-4
-1.135, 7.185e-4
-1.136, 7.216e-4
-1.137, 7.216e-4
-1.138, 7.216e-4
-1.139, 7.216e-4
-1.140, 7.247e-4
-1.141, 7.247e-4
-1.142, 7.247e-4
-1.143, 7.247e-4
-1.144, 7.247e-4
-1.145, 7.278e-4
-1.146, 7.278e-4
-1.147, 7.278e-4
-1.148, 7.309e-4
-1.149, 7.309e-4
-1.150, 7.309e-4
-1.151, 7.339e-4
-1.152, 7.339e-4
-1.153, 7.339e-4
-1.154, 7.370e-4
-1.155, 7.370e-4
-1.156, 7.401e-4
-1.157, 7.401e-4
-1.158, 7.432e-4
-1.159, 7.432e-4
-1.160, 7.432e-4
-1.161, 7.463e-4
-1.162, 7.463e-4
-1.163, 7.494e-4
-1.164, 7.494e-4
-1.165, 7.524e-4
-1.166, 7.555e-4
-1.167, 7.555e-4
-1.168, 7.555e-4
-1.169, 7.586e-4
-1.170, 7.617e-4
-1.171, 7.617e-4
-1.172, 7.648e-4
-1.173, 7.648e-4
-1.174, 7.679e-4
-1.175, 7.709e-4
-1.176, 7.709e-4
-1.177, 7.771e-4
-1.178, 7.802e-4
-1.179, 7.833e-4
-1.180, 7.863e-4
-1.181, 7.863e-4
-1.182, 7.894e-4
-1.183, 7.925e-4
-1.184, 7.925e-4
-1.185, 7.987e-4
-1.186, 7.987e-4
-1.187, 8.048e-4
-1.188, 8.048e-4
-1.189, 8.079e-4
-1.190, 8.110e-4
-1.191, 8.141e-4
-1.192, 8.172e-4
-1.193, 8.233e-4
-1.194, 8.264e-4
-1.195, 8.295e-4
-1.196, 8.326e-4
-1.197, 8.357e-4
-1.198, 8.418e-4
-1.199, 8.449e-4
-1.200, 8.480e-4
-1.201, 8.542e-4
-1.202, 8.573e-4
-1.203, 8.634e-4
-1.204, 8.696e-4
-1.205, 8.727e-4
-1.206, 8.758e-4
-1.207, 8.819e-4
-1.208, 8.850e-4
-1.209, 8.912e-4
-1.210, 8.973e-4
-1.211, 9.035e-4
-1.212, 9.066e-4
-1.213, 9.128e-4
-1.214, 9.189e-4
-1.215, 9.220e-4
-1.216, 9.313e-4
-1.217, 9.374e-4
-1.218, 9.405e-4
-1.219, 9.498e-4
-1.220, 9.559e-4
-1.221, 9.621e-4
-1.222, 9.713e-4
-1.223, 9.775e-4
-1.224, 9.837e-4
-1.225, 9.898e-4
-1.226, 9.991e-4
-1.227, 1.005e-3
-1.228, 1.011e-3
-1.229, 1.024e-3
-1.230, 1.030e-3
-1.231, 1.039e-3
-1.232, 1.045e-3
-1.233, 1.055e-3
-1.234, 1.061e-3
-1.235, 1.070e-3
-1.236, 1.079e-3
-1.237, 1.088e-3
-1.238, 1.098e-3
-1.239, 1.107e-3
-1.240, 1.116e-3
-1.241, 1.129e-3
-1.242, 1.138e-3
-1.243, 1.147e-3
-1.244, 1.156e-3
-1.245, 1.169e-3
-1.246, 1.178e-3
-1.247, 1.190e-3
-1.248, 1.203e-3
-1.249, 1.212e-3
-1.250, 1.221e-3
-1.251, 1.233e-3
-1.252, 1.243e-3
-1.253, 1.258e-3
-1.254, 1.270e-3
-1.255, 1.283e-3
-1.256, 1.295e-3
-1.257, 1.307e-3
-1.258, 1.320e-3
-1.259, 1.335e-3
-1.260, 1.351e-3
-1.261, 1.363e-3
-1.262, 1.378e-3
-1.263, 1.391e-3
-1.264, 1.406e-3
-1.265, 1.418e-3
-1.266, 1.434e-3
-1.267, 1.449e-3
-1.268, 1.465e-3
-1.269, 1.480e-3
-1.270, 1.495e-3
-1.271, 1.514e-3
-1.272, 1.529e-3
-1.273, 1.548e-3
-1.274, 1.563e-3
-1.275, 1.582e-3
-1.276, 1.600e-3
-1.277, 1.616e-3
-1.278, 1.634e-3
-1.279, 1.653e-3
-1.280, 1.671e-3
-1.281, 1.693e-3
-1.282, 1.708e-3
-1.283, 1.730e-3
-1.284, 1.748e-3
-1.285, 1.767e-3
-1.286, 1.788e-3
-1.287, 1.807e-3
-1.288, 1.828e-3
-1.289, 1.850e-3
-1.290, 1.869e-3
-1.291, 1.890e-3
-1.292, 1.912e-3
-1.293, 1.933e-3
-1.294, 1.958e-3
-1.295, 1.980e-3
-1.296, 2.001e-3
-1.297, 2.026e-3
-1.298, 2.047e-3
-1.299, 2.072e-3
-1.300, 2.097e-3
-1.301, 2.121e-3
-1.302, 2.146e-3
-1.303, 2.171e-3
-1.304, 2.192e-3
-1.305, 2.217e-3
-1.306, 2.242e-3
-1.307, 2.269e-3
-1.308, 2.297e-3
-1.309, 2.322e-3
-1.310, 2.349e-3
-1.311, 2.377e-3
-1.312, 2.405e-3
-1.313, 2.433e-3
-1.314, 2.464e-3
-1.315, 2.491e-3
-1.316, 2.519e-3
-1.317, 2.547e-3
-1.318, 2.578e-3
-1.319, 2.608e-3
-1.320, 2.636e-3
-1.321, 2.667e-3
-1.322, 2.698e-3
-1.323, 2.729e-3
-1.324, 2.760e-3
-1.325, 2.790e-3
-1.326, 2.821e-3
-1.327, 2.855e-3
-1.328, 2.889e-3
-1.329, 2.920e-3
-1.330, 2.954e-3
-1.331, 2.988e-3
-1.332, 3.022e-3
-1.333, 3.059e-3
-1.334, 3.093e-3
-1.335, 3.126e-3
-1.336, 3.160e-3
-1.337, 3.200e-3
-1.338, 3.237e-3
-1.339, 3.274e-3
-1.340, 3.311e-3
-1.341, 3.348e-3
-1.342, 3.382e-3
-1.343, 3.419e-3
-1.344, 3.459e-3
-1.345, 3.499e-3
-1.346, 3.540e-3
-1.347, 3.580e-3
-1.348, 3.617e-3
-1.349, 3.657e-3
-1.350, 3.697e-3
-1.351, 3.743e-3
-1.352, 3.786e-3
-1.353, 3.829e-3
-1.354, 3.869e-3
-1.355, 3.913e-3
-1.356, 3.956e-3
-1.357, 3.999e-3
-1.358, 4.045e-3
-1.359, 4.088e-3
-1.360, 4.135e-3
-1.361, 4.178e-3
-1.362, 4.224e-3
-1.363, 4.270e-3
-1.364, 4.320e-3
-1.365, 4.366e-3
-1.366, 4.412e-3
-1.367, 4.458e-3
-1.368, 4.505e-3
-1.369, 4.554e-3
-1.370, 4.606e-3
-1.371, 4.656e-3
-1.372, 4.705e-3
-1.373, 4.757e-3
-1.374, 4.807e-3
-1.375, 4.859e-3
-1.376, 4.912e-3
-1.377, 4.964e-3
-1.378, 5.016e-3
-1.379, 5.069e-3
-1.380, 5.121e-3
-1.381, 5.174e-3
-1.382, 5.229e-3
-1.383, 5.285e-3
-1.384, 5.340e-3
-1.385, 5.396e-3
-1.386, 5.451e-3
-1.387, 5.507e-3
-1.388, 5.568e-3
-1.389, 5.627e-3
-1.390, 5.685e-3
-1.391, 5.747e-3
-1.392, 5.806e-3
-1.393, 5.867e-3
-1.394, 5.923e-3
-1.395, 5.981e-3
-1.396, 6.043e-3
-1.397, 6.102e-3
-1.398, 6.163e-3
-1.399, 6.225e-3
-1.400, 6.188e-3
-1.399, 6.012e-3
-1.398, 5.880e-3
-1.397, 5.766e-3
-1.396, 5.664e-3
-1.395, 5.571e-3
-1.394, 5.485e-3
-1.393, 5.399e-3
-1.392, 5.319e-3
-1.391, 5.241e-3
-1.390, 5.171e-3
-1.389, 5.100e-3
-1.388, 5.023e-3
-1.387, 4.949e-3
-1.386, 4.878e-3
-1.385, 4.807e-3
-1.384, 4.739e-3
-1.383, 4.671e-3
-1.382, 4.600e-3
-1.381, 4.532e-3
-1.380, 4.461e-3
-1.379, 4.397e-3
-1.378, 4.335e-3
-1.377, 4.273e-3
-1.376, 4.209e-3
-1.375, 4.144e-3
-1.374, 4.076e-3
-1.373, 4.014e-3
-1.372, 3.953e-3
-1.371, 3.891e-3
-1.370, 3.832e-3
-1.369, 3.771e-3
-1.368, 3.712e-3
-1.367, 3.651e-3
-1.366, 3.592e-3
-1.365, 3.536e-3
-1.364, 3.481e-3
-1.363, 3.425e-3
-1.362, 3.367e-3
-1.361, 3.311e-3
-1.360, 3.256e-3
-1.359, 3.200e-3
-1.358, 3.148e-3
-1.357, 3.096e-3
-1.356, 3.040e-3
-1.355, 2.991e-3
-1.354, 2.938e-3
-1.353, 2.886e-3
-1.352, 2.837e-3
-1.351, 2.787e-3
-1.350, 2.738e-3
-1.349, 2.692e-3
-1.348, 2.642e-3
-1.347, 2.593e-3
-1.346, 2.547e-3
-1.345, 2.501e-3
-1.344, 2.454e-3
-1.343, 2.405e-3
-1.342, 2.359e-3
-1.341, 2.312e-3
-1.340, 2.269e-3
-1.339, 2.226e-3
-1.338, 2.183e-3
-1.337, 2.140e-3
-1.336, 2.097e-3
-1.335, 2.054e-3
-1.334, 2.013e-3
-1.333, 1.973e-3
-1.332, 1.933e-3
-1.331, 1.890e-3
-1.330, 1.850e-3
-1.329, 1.813e-3
-1.328, 1.773e-3
-1.327, 1.736e-3
-1.326, 1.696e-3
-1.325, 1.659e-3
-1.324, 1.619e-3
-1.323, 1.585e-3
-1.322, 1.548e-3
-1.321, 1.514e-3
-1.320, 1.480e-3
-1.319, 1.443e-3
-1.318, 1.409e-3
-1.317, 1.375e-3
-1.316, 1.341e-3
-1.315, 1.307e-3
-1.314, 1.277e-3
-1.313, 1.246e-3
-1.312, 1.215e-3
-1.311, 1.184e-3
-1.310, 1.150e-3
-1.309, 1.122e-3
-1.308, 1.092e-3
-1.307, 1.061e-3
-1.306, 1.033e-3
-1.305, 1.002e-3
-1.304, 9.744e-4
-1.303, 9.467e-4
-1.302, 9.189e-4
-1.301, 8.912e-4
-1.300, 8.665e-4
-1.299, 8.388e-4
-1.298, 8.141e-4
-1.297, 7.863e-4
-1.296, 7.617e-4
-1.295, 7.339e-4
-1.294, 7.124e-4
-1.293, 6.877e-4
-1.292, 6.630e-4
-1.291, 6.384e-4
-1.290, 6.168e-4
-1.289, 5.921e-4
-1.288, 5.705e-4
-1.287, 5.489e-4
-1.286, 5.274e-4
-1.285, 5.027e-4
-1.284, 4.811e-4
-1.283, 4.626e-4
-1.282, 4.410e-4
-1.281, 4.195e-4
-1.280, 3.979e-4
-1.279, 3.794e-4
-1.278, 3.609e-4
-1.277, 3.424e-4
-1.276, 3.208e-4
-1.275, 3.023e-4
-1.274, 2.869e-4
-1.273, 2.653e-4
-1.272, 2.499e-4
-1.271, 2.314e-4
-1.270, 2.129e-4
-1.269, 1.975e-4
-1.268, 1.821e-4
-1.267, 1.636e-4
-1.266, 1.481e-4
-1.265, 1.327e-4
-1.264, 1.142e-4
-1.263, 9.882e-5
-1.262, 8.648e-5
-1.261, 6.798e-5
-1.260, 5.257e-5
-1.259, 4.024e-5
-1.258, 2.482e-5
-1.257, 9.405e-6
-1.256, -2.927e-6
-1.255, -1.834e-5
-1.254, -3.068e-5
-1.253, -4.609e-5
-1.252, -5.842e-5
-1.251, -7.076e-5
-1.250, -8.309e-5
-1.249, -9.542e-5
-1.248, -1.078e-4
-1.247, -1.201e-4
-1.246, -1.324e-4
-1.245, -1.448e-4
-1.244, -1.571e-4
-1.243, -1.663e-4
-1.242, -1.787e-4
-1.241, -1.910e-4
-1.240, -2.002e-4
-1.239, -2.126e-4
-1.238, -2.218e-4
-1.237, -2.311e-4
-1.236, -2.434e-4
-1.235, -2.527e-4
-1.234, -2.619e-4
-1.233, -2.712e-4
-1.232, -2.804e-4
-1.231, -2.897e-4
-1.230, -2.989e-4
-1.229, -3.112e-4
-1.228, -3.205e-4
-1.227, -3.297e-4
-1.226, -3.359e-4
-1.225, -3.452e-4
-1.224, -3.544e-4
-1.223, -3.637e-4
-1.222, -3.698e-4
-1.221, -3.760e-4
-1.220, -3.852e-4
-1.219, -3.914e-4
-1.218, -4.006e-4
-1.217, -4.068e-4
-1.216, -4.161e-4
-1.215, -4.222e-4
-1.214, -4.284e-4
-1.213, -4.346e-4
-1.212, -4.438e-4
-1.211, -4.500e-4
-1.210, -4.561e-4
-1.209, -4.623e-4
-1.208, -4.685e-4
-1.207, -4.746e-4
-1.206, -4.808e-4
-1.205, -4.870e-4
-1.204, -4.931e-4
-1.203, -4.993e-4
-1.202, -5.055e-4
-1.201, -5.116e-4
-1.200, -5.147e-4
-1.199, -5.209e-4
-1.198, -5.271e-4
-1.197, -5.332e-4
-1.196, -5.394e-4
-1.195, -5.425e-4
-1.194, -5.486e-4
-1.193, -5.517e-4
-1.192, -5.548e-4
-1.191, -5.610e-4
-1.190, -5.671e-4
-1.189, -5.702e-4
-1.188, -5.764e-4
-1.187, -5.795e-4
-1.186, -5.826e-4
-1.185, -5.887e-4
-1.184, -5.918e-4
-1.183, -5.980e-4
-1.182, -6.011e-4
-1.181, -6.041e-4
-1.180, -6.103e-4
-1.179, -6.134e-4
-1.178, -6.165e-4
-1.177, -6.226e-4
-1.176, -6.226e-4
-1.175, -6.288e-4
-1.174, -6.288e-4
-1.173, -6.319e-4
-1.172, -6.380e-4
-1.171, -6.380e-4
-1.170, -6.442e-4
-1.169, -6.473e-4
-1.168, -6.473e-4
-1.167, -6.535e-4
-1.166, -6.565e-4
-1.165, -6.596e-4
-1.164, -6.627e-4
-1.163, -6.658e-4
-1.162, -6.689e-4
-1.161, -6.689e-4
-1.160, -6.720e-4
-1.159, -6.750e-4
-1.158, -6.781e-4
-1.157, -6.812e-4
-1.156, -6.843e-4
-1.155, -6.874e-4
-1.154, -6.874e-4
-1.153, -6.905e-4
-1.152, -6.935e-4
-1.151, -6.966e-4
-1.150, -6.966e-4
-1.149, -6.997e-4
-1.148, -6.997e-4
-1.147, -7.028e-4
-1.146, -7.059e-4
-1.145, -7.090e-4
-1.144, -7.090e-4
-1.143, -7.120e-4
-1.142, -7.151e-4
-1.141, -7.151e-4
-1.140, -7.182e-4
-1.139, -7.213e-4
-1.138, -7.213e-4
-1.137, -7.213e-4
-1.136, -7.244e-4
-1.135, -7.244e-4
-1.134, -7.275e-4
-1.133, -7.275e-4
-1.132, -7.305e-4
-1.131, -7.305e-4
-1.130, -7.336e-4
-1.129, -7.367e-4
-1.128, -7.367e-4
-1.127, -7.398e-4
-1.126, -7.398e-4
-1.125, -7.429e-4
-1.124, -7.429e-4
-1.123, -7.460e-4
-1.122, -7.460e-4
-1.121, -7.460e-4
-1.120, -7.490e-4
-1.119, -7.521e-4
-1.118, -7.521e-4
-1.117, -7.521e-4
-1.116, -7.552e-4
-1.115, -7.552e-4
-1.114, -7.583e-4
-1.113, -7.614e-4
-1.112, -7.583e-4
-1.111, -7.614e-4
-1.110, -7.645e-4
-1.109, -7.645e-4
-1.108, -7.675e-4
-1.107, -7.645e-4
-1.106, -7.675e-4
-1.105, -7.675e-4
-1.104, -7.675e-4
-1.103, -7.706e-4
-1.102, -7.706e-4
-1.101, -7.737e-4
-1.100, -7.737e-4
-1.099, -7.768e-4
-1.098, -7.768e-4
-1.097, -7.768e-4
-1.096, -7.768e-4
-1.095, -7.799e-4
-1.094, -7.799e-4
-1.093, -7.830e-4
-1.092, -7.830e-4
-1.091, -7.860e-4
-1.090, -7.860e-4
-1.089, -7.860e-4
-1.088, -7.860e-4
-1.087, -7.891e-4
-1.086, -7.922e-4
-1.085, -7.922e-4
-1.084, -7.922e-4
-1.083, -7.922e-4
-1.082, -7.953e-4
-1.081, -7.953e-4
-1.080, -7.953e-4
-1.079, -7.984e-4
-1.078, -7.984e-4
-1.077, -7.984e-4
-1.076, -8.015e-4
-1.075, -8.045e-4
-1.074, -8.045e-4
-1.073, -8.076e-4
-1.072, -8.076e-4
-1.071, -8.076e-4
-1.070, -8.107e-4
-1.069, -8.107e-4
-1.068, -8.107e-4
-1.067, -8.138e-4
-1.066, -8.138e-4
-1.065, -8.138e-4
-1.064, -8.169e-4
-1.063, -8.169e-4
-1.062, -8.200e-4
-1.061, -8.200e-4
-1.060, -8.230e-4
-1.059, -8.230e-4
-1.058, -8.230e-4
-1.057, -8.261e-4
-1.056, -8.261e-4
-1.055, -8.292e-4
-1.054, -8.292e-4
-1.053, -8.292e-4
-1.052, -8.323e-4
-1.051, -8.354e-4
-1.050, -8.354e-4
-1.049, -8.385e-4
-1.048, -8.385e-4
-1.047, -8.415e-4
-1.046, -8.415e-4
-1.045, -8.415e-4
-1.044, -8.446e-4
-1.043, -8.477e-4
-1.042, -8.477e-4
-1.041, -8.508e-4
-1.040, -8.508e-4
-1.039, -8.539e-4
-1.038, -8.569e-4
-1.037, -8.569e-4
-1.036, -8.600e-4
-1.035, -8.600e-4
-1.034, -8.631e-4
-1.033, -8.631e-4
-1.032, -8.662e-4
-1.031, -8.662e-4
-1.030, -8.693e-4
-1.029, -8.724e-4
-1.028, -8.754e-4
-1.027, -8.754e-4
-1.026, -8.754e-4
-1.025, -8.785e-4
-1.024, -8.816e-4
-1.023, -8.847e-4
-1.022, -8.847e-4
-1.021, -8.878e-4
-1.020, -8.909e-4
-1.019, -8.939e-4
-1.018, -8.939e-4
-1.017, -9.001e-4
-1.016, -9.001e-4
-1.015, -9.032e-4
-1.014, -9.032e-4
-1.013, -9.063e-4
-1.012, -9.094e-4
-1.011, -9.124e-4
-1.010, -9.155e-4
-1.009, -9.186e-4
-1.008, -9.217e-4
-1.007, -9.248e-4
-1.006, -9.279e-4
-1.005, -9.279e-4
-1.004, -9.309e-4
-1.003, -9.340e-4
-1.002, -9.402e-4
-1.001, -9.402e-4
