Sept. 25, 2024   15:39:23
Linear Sweep Voltammetry
File: c:/users/guazh/data/20240922_batch_417_500/2024-09-22-exp445\1acid_3ac-2024-09-25t15_36_11-lsvinphos\1acid_3ac_lsv_50mvs_efin_-2300mv.bin
Data Source:  Experiment
Instrument Model:  CHI760E
Header: LSV ran at 50 mVs with Efin at -2300mV
Note: 

Init E (V) = -0.6
Final E (V) = -2.3
Scan Rate (V/s) = 0.05
Sample Interval (V) = 0.001
Quiet Time (sec) = 2
Sensitivity (A/V) = 1e-4
Comp R (ohm) = 14.3

Results:

Channel 1:
Ep = -0.897V
ip = 6.898e-8A
Ah = 5.562e-8C

Ep = -1.820V
ip = 8.258e-4A
Ah = 1.015e-3C

Potential/V, Current/A

-0.600, 4.513e-6
-0.601, 4.632e-6
-0.602, 4.682e-6
-0.603, 4.719e-6
-0.604, 4.754e-6
-0.605, 4.788e-6
-0.606, 4.823e-6
-0.607, 4.855e-6
-0.608, 4.887e-6
-0.609, 4.919e-6
-0.610, 4.951e-6
-0.611, 4.981e-6
-0.612, 5.012e-6
-0.613, 5.043e-6
-0.614, 5.076e-6
-0.615, 5.105e-6
-0.616, 5.134e-6
-0.617, 5.165e-6
-0.618, 5.194e-6
-0.619, 5.224e-6
-0.620, 5.253e-6
-0.621, 5.281e-6
-0.622, 5.311e-6
-0.623, 5.340e-6
-0.624, 5.368e-6
-0.625, 5.396e-6
-0.626, 5.422e-6
-0.627, 5.452e-6
-0.628, 5.479e-6
-0.629, 5.508e-6
-0.630, 5.537e-6
-0.631, 5.563e-6
-0.632, 5.592e-6
-0.633, 5.620e-6
-0.634, 5.647e-6
-0.635, 5.673e-6
-0.636, 5.698e-6
-0.637, 5.725e-6
-0.638, 5.753e-6
-0.639, 5.779e-6
-0.640, 5.805e-6
-0.641, 5.833e-6
-0.642, 5.859e-6
-0.643, 5.883e-6
-0.644, 5.908e-6
-0.645, 5.929e-6
-0.646, 5.953e-6
-0.647, 5.977e-6
-0.648, 6.002e-6
-0.649, 6.027e-6
-0.650, 6.051e-6
-0.651, 6.074e-6
-0.652, 6.099e-6
-0.653, 6.123e-6
-0.654, 6.147e-6
-0.655, 6.167e-6
-0.656, 6.188e-6
-0.657, 6.209e-6
-0.658, 6.229e-6
-0.659, 6.253e-6
-0.660, 6.275e-6
-0.661, 6.295e-6
-0.662, 6.319e-6
-0.663, 6.338e-6
-0.664, 6.360e-6
-0.665, 6.381e-6
-0.666, 6.402e-6
-0.667, 6.423e-6
-0.668, 6.443e-6
-0.669, 6.461e-6
-0.670, 6.481e-6
-0.671, 6.498e-6
-0.672, 6.518e-6
-0.673, 6.536e-6
-0.674, 6.555e-6
-0.675, 6.572e-6
-0.676, 6.590e-6
-0.677, 6.607e-6
-0.678, 6.626e-6
-0.679, 6.643e-6
-0.680, 6.658e-6
-0.681, 6.675e-6
-0.682, 6.691e-6
-0.683, 6.706e-6
-0.684, 6.722e-6
-0.685, 6.735e-6
-0.686, 6.750e-6
-0.687, 6.764e-6
-0.688, 6.779e-6
-0.689, 6.794e-6
-0.690, 6.806e-6
-0.691, 6.821e-6
-0.692, 6.834e-6
-0.693, 6.846e-6
-0.694, 6.859e-6
-0.695, 6.870e-6
-0.696, 6.881e-6
-0.697, 6.894e-6
-0.698, 6.905e-6
-0.699, 6.915e-6
-0.700, 6.925e-6
-0.701, 6.934e-6
-0.702, 6.945e-6
-0.703, 6.955e-6
-0.704, 6.965e-6
-0.705, 6.974e-6
-0.706, 6.981e-6
-0.707, 6.992e-6
-0.708, 6.999e-6
-0.709, 7.007e-6
-0.710, 7.016e-6
-0.711, 7.022e-6
-0.712, 7.029e-6
-0.713, 7.036e-6
-0.714, 7.043e-6
-0.715, 7.051e-6
-0.716, 7.057e-6
-0.717, 7.064e-6
-0.718, 7.068e-6
-0.719, 7.073e-6
-0.720, 7.080e-6
-0.721, 7.085e-6
-0.722, 7.090e-6
-0.723, 7.095e-6
-0.724, 7.101e-6
-0.725, 7.102e-6
-0.726, 7.108e-6
-0.727, 7.111e-6
-0.728, 7.115e-6
-0.729, 7.119e-6
-0.730, 7.122e-6
-0.731, 7.124e-6
-0.732, 7.127e-6
-0.733, 7.129e-6
-0.734, 7.133e-6
-0.735, 7.135e-6
-0.736, 7.137e-6
-0.737, 7.139e-6
-0.738, 7.140e-6
-0.739, 7.142e-6
-0.740, 7.143e-6
-0.741, 7.144e-6
-0.742, 7.147e-6
-0.743, 7.148e-6
-0.744, 7.150e-6
-0.745, 7.149e-6
-0.746, 7.149e-6
-0.747, 7.150e-6
-0.748, 7.151e-6
-0.749, 7.152e-6
-0.750, 7.152e-6
-0.751, 7.150e-6
-0.752, 7.150e-6
-0.753, 7.151e-6
-0.754, 7.150e-6
-0.755, 7.151e-6
-0.756, 7.150e-6
-0.757, 7.150e-6
-0.758, 7.150e-6
-0.759, 7.149e-6
-0.760, 7.149e-6
-0.761, 7.148e-6
-0.762, 7.147e-6
-0.763, 7.148e-6
-0.764, 7.147e-6
-0.765, 7.144e-6
-0.766, 7.145e-6
-0.767, 7.144e-6
-0.768, 7.146e-6
-0.769, 7.144e-6
-0.770, 7.141e-6
-0.771, 7.141e-6
-0.772, 7.141e-6
-0.773, 7.138e-6
-0.774, 7.138e-6
-0.775, 7.136e-6
-0.776, 7.135e-6
-0.777, 7.135e-6
-0.778, 7.133e-6
-0.779, 7.132e-6
-0.780, 7.130e-6
-0.781, 7.129e-6
-0.782, 7.130e-6
-0.783, 7.127e-6
-0.784, 7.127e-6
-0.785, 7.125e-6
-0.786, 7.124e-6
-0.787, 7.125e-6
-0.788, 7.123e-6
-0.789, 7.122e-6
-0.790, 7.121e-6
-0.791, 7.119e-6
-0.792, 7.119e-6
-0.793, 7.119e-6
-0.794, 7.118e-6
-0.795, 7.118e-6
-0.796, 7.117e-6
-0.797, 7.116e-6
-0.798, 7.116e-6
-0.799, 7.116e-6
-0.800, 7.114e-6
-0.801, 7.113e-6
-0.802, 7.112e-6
-0.803, 7.113e-6
-0.804, 7.112e-6
-0.805, 7.111e-6
-0.806, 7.111e-6
-0.807, 7.111e-6
-0.808, 7.110e-6
-0.809, 7.113e-6
-0.810, 7.109e-6
-0.811, 7.108e-6
-0.812, 7.109e-6
-0.813, 7.109e-6
-0.814, 7.111e-6
-0.815, 7.109e-6
-0.816, 7.109e-6
-0.817, 7.111e-6
-0.818, 7.110e-6
-0.819, 7.114e-6
-0.820, 7.114e-6
-0.821, 7.113e-6
-0.822, 7.113e-6
-0.823, 7.113e-6
-0.824, 7.113e-6
-0.825, 7.115e-6
-0.826, 7.114e-6
-0.827, 7.116e-6
-0.828, 7.116e-6
-0.829, 7.116e-6
-0.830, 7.117e-6
-0.831, 7.115e-6
-0.832, 7.119e-6
-0.833, 7.118e-6
-0.834, 7.120e-6
-0.835, 7.120e-6
-0.836, 7.121e-6
-0.837, 7.122e-6
-0.838, 7.122e-6
-0.839, 7.123e-6
-0.840, 7.123e-6
-0.841, 7.125e-6
-0.842, 7.125e-6
-0.843, 7.126e-6
-0.844, 7.127e-6
-0.845, 7.129e-6
-0.846, 7.129e-6
-0.847, 7.131e-6
-0.848, 7.132e-6
-0.849, 7.136e-6
-0.850, 7.135e-6
-0.851, 7.136e-6
-0.852, 7.138e-6
-0.853, 7.138e-6
-0.854, 7.140e-6
-0.855, 7.141e-6
-0.856, 7.141e-6
-0.857, 7.144e-6
-0.858, 7.145e-6
-0.859, 7.147e-6
-0.860, 7.147e-6
-0.861, 7.147e-6
-0.862, 7.150e-6
-0.863, 7.150e-6
-0.864, 7.153e-6
-0.865, 7.154e-6
-0.866, 7.154e-6
-0.867, 7.155e-6
-0.868, 7.156e-6
-0.869, 7.158e-6
-0.870, 7.159e-6
-0.871, 7.161e-6
-0.872, 7.162e-6
-0.873, 7.163e-6
-0.874, 7.163e-6
-0.875, 7.164e-6
-0.876, 7.164e-6
-0.877, 7.167e-6
-0.878, 7.167e-6
-0.879, 7.169e-6
-0.880, 7.169e-6
-0.881, 7.169e-6
-0.882, 7.170e-6
-0.883, 7.172e-6
-0.884, 7.173e-6
-0.885, 7.172e-6
-0.886, 7.173e-6
-0.887, 7.175e-6
-0.888, 7.174e-6
-0.889, 7.177e-6
-0.890, 7.175e-6
-0.891, 7.176e-6
-0.892, 7.177e-6
-0.893, 7.177e-6
-0.894, 7.178e-6
-0.895, 7.177e-6
-0.896, 7.177e-6
-0.897, 7.179e-6
-0.898, 7.177e-6
-0.899, 7.178e-6
-0.900, 7.177e-6
-0.901, 7.176e-6
-0.902, 7.177e-6
-0.903, 7.177e-6
-0.904, 7.177e-6
-0.905, 7.178e-6
-0.906, 7.175e-6
-0.907, 7.176e-6
-0.908, 7.174e-6
-0.909, 7.176e-6
-0.910, 7.174e-6
-0.911, 7.173e-6
-0.912, 7.174e-6
-0.913, 7.172e-6
-0.914, 7.170e-6
-0.915, 7.170e-6
-0.916, 7.168e-6
-0.917, 7.167e-6
-0.918, 7.167e-6
-0.919, 7.165e-6
-0.920, 7.162e-6
-0.921, 7.162e-6
-0.922, 7.161e-6
-0.923, 7.160e-6
-0.924, 7.159e-6
-0.925, 7.155e-6
-0.926, 7.153e-6
-0.927, 7.152e-6
-0.928, 7.153e-6
-0.929, 7.151e-6
-0.930, 7.147e-6
-0.931, 7.145e-6
-0.932, 7.142e-6
-0.933, 7.140e-6
-0.934, 7.138e-6
-0.935, 7.135e-6
-0.936, 7.131e-6
-0.937, 7.130e-6
-0.938, 7.126e-6
-0.939, 7.124e-6
-0.940, 7.120e-6
-0.941, 7.117e-6
-0.942, 7.115e-6
-0.943, 7.112e-6
-0.944, 7.109e-6
-0.945, 7.105e-6
-0.946, 7.101e-6
-0.947, 7.100e-6
-0.948, 7.097e-6
-0.949, 7.093e-6
-0.950, 7.089e-6
-0.951, 7.085e-6
-0.952, 7.082e-6
-0.953, 7.080e-6
-0.954, 7.075e-6
-0.955, 7.071e-6
-0.956, 7.067e-6
-0.957, 7.064e-6
-0.958, 7.062e-6
-0.959, 7.057e-6
-0.960, 7.054e-6
-0.961, 7.052e-6
-0.962, 7.049e-6
-0.963, 7.046e-6
-0.964, 7.043e-6
-0.965, 7.037e-6
-0.966, 7.034e-6
-0.967, 7.031e-6
-0.968, 7.029e-6
-0.969, 7.027e-6
-0.970, 7.023e-6
-0.971, 7.021e-6
-0.972, 7.017e-6
-0.973, 7.015e-6
-0.974, 7.012e-6
-0.975, 7.010e-6
-0.976, 7.006e-6
-0.977, 7.006e-6
-0.978, 7.004e-6
-0.979, 7.002e-6
-0.980, 6.999e-6
-0.981, 6.996e-6
-0.982, 6.997e-6
-0.983, 6.995e-6
-0.984, 6.994e-6
-0.985, 6.995e-6
-0.986, 6.993e-6
-0.987, 6.993e-6
-0.988, 6.991e-6
-0.989, 6.991e-6
-0.990, 6.992e-6
-0.991, 6.993e-6
-0.992, 6.995e-6
-0.993, 6.995e-6
-0.994, 6.995e-6
-0.995, 6.996e-6
-0.996, 6.997e-6
-0.997, 6.999e-6
-0.998, 7.003e-6
-0.999, 7.006e-6
-1.000, 7.007e-6
-1.001, 7.010e-6
-1.002, 7.013e-6
-1.003, 7.018e-6
-1.004, 7.021e-6
-1.005, 7.026e-6
-1.006, 7.032e-6
-1.007, 7.036e-6
-1.008, 7.043e-6
-1.009, 7.049e-6
-1.010, 7.054e-6
-1.011, 7.061e-6
-1.012, 7.068e-6
-1.013, 7.075e-6
-1.014, 7.084e-6
-1.015, 7.092e-6
-1.016, 7.100e-6
-1.017, 7.109e-6
-1.018, 7.119e-6
-1.019, 7.129e-6
-1.020, 7.139e-6
-1.021, 7.149e-6
-1.022, 7.161e-6
-1.023, 7.171e-6
-1.024, 7.185e-6
-1.025, 7.198e-6
-1.026, 7.210e-6
-1.027, 7.225e-6
-1.028, 7.238e-6
-1.029, 7.250e-6
-1.030, 7.264e-6
-1.031, 7.278e-6
-1.032, 7.293e-6
-1.033, 7.310e-6
-1.034, 7.326e-6
-1.035, 7.341e-6
-1.036, 7.357e-6
-1.037, 7.377e-6
-1.038, 7.395e-6
-1.039, 7.412e-6
-1.040, 7.430e-6
-1.041, 7.449e-6
-1.042, 7.470e-6
-1.043, 7.490e-6
-1.044, 7.511e-6
-1.045, 7.531e-6
-1.046, 7.552e-6
-1.047, 7.574e-6
-1.048, 7.596e-6
-1.049, 7.620e-6
-1.050, 7.641e-6
-1.051, 7.663e-6
-1.052, 7.688e-6
-1.053, 7.711e-6
-1.054, 7.736e-6
-1.055, 7.759e-6
-1.056, 7.782e-6
-1.057, 7.808e-6
-1.058, 7.831e-6
-1.059, 7.856e-6
-1.060, 7.881e-6
-1.061, 7.906e-6
-1.062, 7.932e-6
-1.063, 7.959e-6
-1.064, 7.984e-6
-1.065, 8.009e-6
-1.066, 8.035e-6
-1.067, 8.062e-6
-1.068, 8.088e-6
-1.069, 8.115e-6
-1.070, 8.140e-6
-1.071, 8.167e-6
-1.072, 8.197e-6
-1.073, 8.226e-6
-1.074, 8.254e-6
-1.075, 8.281e-6
-1.076, 8.311e-6
-1.077, 8.336e-6
-1.078, 8.362e-6
-1.079, 8.389e-6
-1.080, 8.413e-6
-1.081, 8.442e-6
-1.082, 8.470e-6
-1.083, 8.497e-6
-1.084, 8.523e-6
-1.085, 8.550e-6
-1.086, 8.577e-6
-1.087, 8.601e-6
-1.088, 8.626e-6
-1.089, 8.653e-6
-1.090, 8.677e-6
-1.091, 8.705e-6
-1.092, 8.733e-6
-1.093, 8.757e-6
-1.094, 8.784e-6
-1.095, 8.808e-6
-1.096, 8.832e-6
-1.097, 8.857e-6
-1.098, 8.881e-6
-1.099, 8.903e-6
-1.100, 8.927e-6
-1.101, 8.952e-6
-1.102, 8.978e-6
-1.103, 9.001e-6
-1.104, 9.024e-6
-1.105, 9.047e-6
-1.106, 9.066e-6
-1.107, 9.089e-6
-1.108, 9.110e-6
-1.109, 9.131e-6
-1.110, 9.153e-6
-1.111, 9.174e-6
-1.112, 9.194e-6
-1.113, 9.215e-6
-1.114, 9.237e-6
-1.115, 9.257e-6
-1.116, 9.277e-6
-1.117, 9.298e-6
-1.118, 9.318e-6
-1.119, 9.337e-6
-1.120, 9.355e-6
-1.121, 9.373e-6
-1.122, 9.389e-6
-1.123, 9.406e-6
-1.124, 9.423e-6
-1.125, 9.440e-6
-1.126, 9.458e-6
-1.127, 9.473e-6
-1.128, 9.491e-6
-1.129, 9.507e-6
-1.130, 9.521e-6
-1.131, 9.539e-6
-1.132, 9.554e-6
-1.133, 9.569e-6
-1.134, 9.584e-6
-1.135, 9.597e-6
-1.136, 9.611e-6
-1.137, 9.625e-6
-1.138, 9.635e-6
-1.139, 9.650e-6
-1.140, 9.661e-6
-1.141, 9.675e-6
-1.142, 9.688e-6
-1.143, 9.701e-6
-1.144, 9.713e-6
-1.145, 9.725e-6
-1.146, 9.735e-6
-1.147, 9.747e-6
-1.148, 9.759e-6
-1.149, 9.771e-6
-1.150, 9.781e-6
-1.151, 9.790e-6
-1.152, 9.804e-6
-1.153, 9.815e-6
-1.154, 9.823e-6
-1.155, 9.833e-6
-1.156, 9.841e-6
-1.157, 9.852e-6
-1.158, 9.862e-6
-1.159, 9.873e-6
-1.160, 9.883e-6
-1.161, 9.892e-6
-1.162, 9.897e-6
-1.163, 9.906e-6
-1.164, 9.914e-6
-1.165, 9.921e-6
-1.166, 9.929e-6
-1.167, 9.938e-6
-1.168, 9.944e-6
-1.169, 9.952e-6
-1.170, 9.958e-6
-1.171, 9.967e-6
-1.172, 9.975e-6
-1.173, 9.981e-6
-1.174, 9.988e-6
-1.175, 9.995e-6
-1.176, 1.000e-5
-1.177, 1.001e-5
-1.178, 1.001e-5
-1.179, 1.002e-5
-1.180, 1.003e-5
-1.181, 1.003e-5
-1.182, 1.004e-5
-1.183, 1.004e-5
-1.184, 1.005e-5
-1.185, 1.005e-5
-1.186, 1.006e-5
-1.187, 1.007e-5
-1.188, 1.007e-5
-1.189, 1.008e-5
-1.190, 1.008e-5
-1.191, 1.008e-5
-1.192, 1.009e-5
-1.193, 1.010e-5
-1.194, 1.010e-5
-1.195, 1.010e-5
-1.196, 1.011e-5
-1.197, 1.012e-5
-1.198, 1.012e-5
-1.199, 1.013e-5
-1.200, 1.013e-5
-1.201, 1.014e-5
-1.202, 1.014e-5
-1.203, 1.015e-5
-1.204, 1.015e-5
-1.205, 1.015e-5
-1.206, 1.016e-5
-1.207, 1.016e-5
-1.208, 1.017e-5
-1.209, 1.017e-5
-1.210, 1.018e-5
-1.211, 1.018e-5
-1.212, 1.019e-5
-1.213, 1.019e-5
-1.214, 1.020e-5
-1.215, 1.020e-5
-1.216, 1.020e-5
-1.217, 1.021e-5
-1.218, 1.021e-5
-1.219, 1.022e-5
-1.220, 1.022e-5
-1.221, 1.023e-5
-1.222, 1.023e-5
-1.223, 1.023e-5
-1.224, 1.024e-5
-1.225, 1.024e-5
-1.226, 1.025e-5
-1.227, 1.025e-5
-1.228, 1.026e-5
-1.229, 1.027e-5
-1.230, 1.027e-5
-1.231, 1.027e-5
-1.232, 1.028e-5
-1.233, 1.028e-5
-1.234, 1.029e-5
-1.235, 1.029e-5
-1.236, 1.030e-5
-1.237, 1.030e-5
-1.238, 1.031e-5
-1.239, 1.031e-5
-1.240, 1.032e-5
-1.241, 1.032e-5
-1.242, 1.033e-5
-1.243, 1.033e-5
-1.244, 1.034e-5
-1.245, 1.034e-5
-1.246, 1.035e-5
-1.247, 1.035e-5
-1.248, 1.036e-5
-1.249, 1.037e-5
-1.250, 1.037e-5
-1.251, 1.038e-5
-1.252, 1.038e-5
-1.253, 1.039e-5
-1.254, 1.039e-5
-1.255, 1.040e-5
-1.256, 1.040e-5
-1.257, 1.041e-5
-1.258, 1.041e-5
-1.259, 1.042e-5
-1.260, 1.042e-5
-1.261, 1.043e-5
-1.262, 1.044e-5
-1.263, 1.044e-5
-1.264, 1.045e-5
-1.265, 1.045e-5
-1.266, 1.046e-5
-1.267, 1.047e-5
-1.268, 1.047e-5
-1.269, 1.048e-5
-1.270, 1.048e-5
-1.271, 1.049e-5
-1.272, 1.050e-5
-1.273, 1.050e-5
-1.274, 1.051e-5
-1.275, 1.052e-5
-1.276, 1.052e-5
-1.277, 1.053e-5
-1.278, 1.054e-5
-1.279, 1.054e-5
-1.280, 1.055e-5
-1.281, 1.057e-5
-1.282, 1.057e-5
-1.283, 1.058e-5
-1.284, 1.058e-5
-1.285, 1.059e-5
-1.286, 1.060e-5
-1.287, 1.060e-5
-1.288, 1.061e-5
-1.289, 1.062e-5
-1.290, 1.064e-5
-1.291, 1.065e-5
-1.292, 1.066e-5
-1.293, 1.067e-5
-1.294, 1.068e-5
-1.295, 1.068e-5
-1.296, 1.070e-5
-1.297, 1.071e-5
-1.298, 1.071e-5
-1.299, 1.072e-5
-1.300, 1.073e-5
-1.301, 1.074e-5
-1.302, 1.075e-5
-1.303, 1.076e-5
-1.304, 1.076e-5
-1.305, 1.078e-5
-1.306, 1.078e-5
-1.307, 1.079e-5
-1.308, 1.080e-5
-1.309, 1.081e-5
-1.310, 1.082e-5
-1.311, 1.083e-5
-1.312, 1.084e-5
-1.313, 1.085e-5
-1.314, 1.087e-5
-1.315, 1.088e-5
-1.316, 1.089e-5
-1.317, 1.090e-5
-1.318, 1.091e-5
-1.319, 1.092e-5
-1.320, 1.093e-5
-1.321, 1.095e-5
-1.322, 1.096e-5
-1.323, 1.097e-5
-1.324, 1.098e-5
-1.325, 1.099e-5
-1.326, 1.100e-5
-1.327, 1.101e-5
-1.328, 1.102e-5
-1.329, 1.104e-5
-1.330, 1.105e-5
-1.331, 1.106e-5
-1.332, 1.108e-5
-1.333, 1.109e-5
-1.334, 1.111e-5
-1.335, 1.112e-5
-1.336, 1.113e-5
-1.337, 1.115e-5
-1.338, 1.116e-5
-1.339, 1.118e-5
-1.340, 1.120e-5
-1.341, 1.121e-5
-1.342, 1.123e-5
-1.343, 1.124e-5
-1.344, 1.126e-5
-1.345, 1.128e-5
-1.346, 1.129e-5
-1.347, 1.131e-5
-1.348, 1.133e-5
-1.349, 1.134e-5
-1.350, 1.136e-5
-1.351, 1.138e-5
-1.352, 1.140e-5
-1.353, 1.142e-5
-1.354, 1.144e-5
-1.355, 1.146e-5
-1.356, 1.148e-5
-1.357, 1.150e-5
-1.358, 1.152e-5
-1.359, 1.154e-5
-1.360, 1.156e-5
-1.361, 1.158e-5
-1.362, 1.160e-5
-1.363, 1.162e-5
-1.364, 1.165e-5
-1.365, 1.167e-5
-1.366, 1.169e-5
-1.367, 1.172e-5
-1.368, 1.174e-5
-1.369, 1.176e-5
-1.370, 1.179e-5
-1.371, 1.181e-5
-1.372, 1.184e-5
-1.373, 1.186e-5
-1.374, 1.189e-5
-1.375, 1.192e-5
-1.376, 1.194e-5
-1.377, 1.197e-5
-1.378, 1.199e-5
-1.379, 1.202e-5
-1.380, 1.204e-5
-1.381, 1.206e-5
-1.382, 1.209e-5
-1.383, 1.212e-5
-1.384, 1.215e-5
-1.385, 1.218e-5
-1.386, 1.221e-5
-1.387, 1.224e-5
-1.388, 1.227e-5
-1.389, 1.230e-5
-1.390, 1.234e-5
-1.391, 1.237e-5
-1.392, 1.240e-5
-1.393, 1.244e-5
-1.394, 1.247e-5
-1.395, 1.251e-5
-1.396, 1.255e-5
-1.397, 1.258e-5
-1.398, 1.262e-5
-1.399, 1.266e-5
-1.400, 1.270e-5
-1.401, 1.273e-5
-1.402, 1.277e-5
-1.403, 1.281e-5
-1.404, 1.286e-5
-1.405, 1.289e-5
-1.406, 1.294e-5
-1.407, 1.298e-5
-1.408, 1.302e-5
-1.409, 1.306e-5
-1.410, 1.311e-5
-1.411, 1.315e-5
-1.412, 1.319e-5
-1.413, 1.324e-5
-1.414, 1.329e-5
-1.415, 1.333e-5
-1.416, 1.339e-5
-1.417, 1.343e-5
-1.418, 1.348e-5
-1.419, 1.353e-5
-1.420, 1.358e-5
-1.421, 1.363e-5
-1.422, 1.369e-5
-1.423, 1.374e-5
-1.424, 1.380e-5
-1.425, 1.385e-5
-1.426, 1.390e-5
-1.427, 1.396e-5
-1.428, 1.402e-5
-1.429, 1.408e-5
-1.430, 1.413e-5
-1.431, 1.419e-5
-1.432, 1.425e-5
-1.433, 1.431e-5
-1.434, 1.438e-5
-1.435, 1.444e-5
-1.436, 1.450e-5
-1.437, 1.456e-5
-1.438, 1.463e-5
-1.439, 1.470e-5
-1.440, 1.476e-5
-1.441, 1.483e-5
-1.442, 1.490e-5
-1.443, 1.498e-5
-1.444, 1.505e-5
-1.445, 1.512e-5
-1.446, 1.520e-5
-1.447, 1.528e-5
-1.448, 1.535e-5
-1.449, 1.542e-5
-1.450, 1.550e-5
-1.451, 1.558e-5
-1.452, 1.566e-5
-1.453, 1.574e-5
-1.454, 1.582e-5
-1.455, 1.590e-5
-1.456, 1.598e-5
-1.457, 1.607e-5
-1.458, 1.616e-5
-1.459, 1.626e-5
-1.460, 1.635e-5
-1.461, 1.644e-5
-1.462, 1.654e-5
-1.463, 1.663e-5
-1.464, 1.674e-5
-1.465, 1.686e-5
-1.466, 1.695e-5
-1.467, 1.706e-5
-1.468, 1.717e-5
-1.469, 1.727e-5
-1.470, 1.738e-5
-1.471, 1.750e-5
-1.472, 1.761e-5
-1.473, 1.771e-5
-1.474, 1.783e-5
-1.475, 1.795e-5
-1.476, 1.806e-5
-1.477, 1.817e-5
-1.478, 1.828e-5
-1.479, 1.840e-5
-1.480, 1.852e-5
-1.481, 1.865e-5
-1.482, 1.878e-5
-1.483, 1.891e-5
-1.484, 1.905e-5
-1.485, 1.919e-5
-1.486, 1.932e-5
-1.487, 1.944e-5
-1.488, 1.958e-5
-1.489, 1.972e-5
-1.490, 1.986e-5
-1.491, 2.001e-5
-1.492, 2.017e-5
-1.493, 2.033e-5
-1.494, 2.048e-5
-1.495, 2.063e-5
-1.496, 2.079e-5
-1.497, 2.095e-5
-1.498, 2.110e-5
-1.499, 2.127e-5
-1.500, 2.145e-5
-1.501, 2.162e-5
-1.502, 2.180e-5
-1.503, 2.196e-5
-1.504, 2.213e-5
-1.505, 2.231e-5
-1.506, 2.250e-5
-1.507, 2.269e-5
-1.508, 2.288e-5
-1.509, 2.308e-5
-1.510, 2.327e-5
-1.511, 2.348e-5
-1.512, 2.368e-5
-1.513, 2.389e-5
-1.514, 2.412e-5
-1.515, 2.430e-5
-1.516, 2.450e-5
-1.517, 2.471e-5
-1.518, 2.492e-5
-1.519, 2.514e-5
-1.520, 2.539e-5
-1.521, 2.561e-5
-1.522, 2.583e-5
-1.523, 2.605e-5
-1.524, 2.629e-5
-1.525, 2.652e-5
-1.526, 2.676e-5
-1.527, 2.700e-5
-1.528, 2.726e-5
-1.529, 2.751e-5
-1.530, 2.777e-5
-1.531, 2.804e-5
-1.532, 2.835e-5
-1.533, 2.863e-5
-1.534, 2.886e-5
-1.535, 2.907e-5
-1.536, 2.947e-5
-1.537, 2.977e-5
-1.538, 2.991e-5
-1.539, 3.013e-5
-1.540, 3.040e-5
-1.541, 3.065e-5
-1.542, 3.091e-5
-1.543, 3.119e-5
-1.544, 3.155e-5
-1.545, 3.182e-5
-1.546, 3.213e-5
-1.547, 3.247e-5
-1.548, 3.281e-5
-1.549, 3.315e-5
-1.550, 3.355e-5
-1.551, 3.397e-5
-1.552, 3.428e-5
-1.553, 3.458e-5
-1.554, 3.486e-5
-1.555, 3.515e-5
-1.556, 3.545e-5
-1.557, 3.578e-5
-1.558, 3.616e-5
-1.559, 3.665e-5
-1.560, 3.708e-5
-1.561, 3.745e-5
-1.562, 3.778e-5
-1.563, 3.811e-5
-1.564, 3.847e-5
-1.565, 3.887e-5
-1.566, 3.930e-5
-1.567, 3.973e-5
-1.568, 4.013e-5
-1.569, 4.054e-5
-1.570, 4.094e-5
-1.571, 4.141e-5
-1.572, 4.184e-5
-1.573, 4.226e-5
-1.574, 4.266e-5
-1.575, 4.315e-5
-1.576, 4.369e-5
-1.577, 4.426e-5
-1.578, 4.470e-5
-1.579, 4.510e-5
-1.580, 4.559e-5
-1.581, 4.612e-5
-1.582, 4.667e-5
-1.583, 4.724e-5
-1.584, 4.783e-5
-1.585, 4.836e-5
-1.586, 4.890e-5
-1.587, 4.945e-5
-1.588, 4.997e-5
-1.589, 5.053e-5
-1.590, 5.109e-5
-1.591, 5.168e-5
-1.592, 5.227e-5
-1.593, 5.288e-5
-1.594, 5.351e-5
-1.595, 5.414e-5
-1.596, 5.478e-5
-1.597, 5.546e-5
-1.598, 5.614e-5
-1.599, 5.682e-5
-1.600, 5.752e-5
-1.601, 5.824e-5
-1.602, 5.890e-5
-1.603, 5.950e-5
-1.604, 6.017e-5
-1.605, 6.090e-5
-1.606, 6.159e-5
-1.607, 6.232e-5
-1.608, 6.309e-5
-1.609, 6.387e-5
-1.610, 6.467e-5
-1.611, 6.547e-5
-1.612, 6.629e-5
-1.613, 6.714e-5
-1.614, 6.796e-5
-1.615, 6.878e-5
-1.616, 6.959e-5
-1.617, 7.043e-5
-1.618, 7.130e-5
-1.619, 7.222e-5
-1.620, 7.309e-5
-1.621, 7.401e-5
-1.622, 7.496e-5
-1.623, 7.589e-5
-1.624, 7.688e-5
-1.625, 7.787e-5
-1.626, 7.882e-5
-1.627, 7.977e-5
-1.628, 8.068e-5
-1.629, 8.163e-5
-1.630, 8.259e-5
-1.631, 8.353e-5
-1.632, 8.451e-5
-1.633, 8.549e-5
-1.634, 8.647e-5
-1.635, 8.741e-5
-1.636, 8.823e-5
-1.637, 8.880e-5
-1.638, 8.968e-5
-1.639, 9.067e-5
-1.640, 9.169e-5
-1.641, 9.277e-5
-1.642, 9.387e-5
-1.643, 9.499e-5
-1.644, 9.612e-5
-1.645, 9.728e-5
-1.646, 9.842e-5
-1.647, 9.962e-5
-1.648, 1.008e-4
-1.649, 1.020e-4
-1.650, 1.032e-4
-1.651, 1.045e-4
-1.652, 1.057e-4
-1.653, 1.070e-4
-1.654, 1.083e-4
-1.655, 1.096e-4
-1.656, 1.109e-4
-1.657, 1.121e-4
-1.658, 1.134e-4
-1.659, 1.147e-4
-1.660, 1.161e-4
-1.661, 1.174e-4
-1.662, 1.186e-4
-1.663, 1.199e-4
-1.664, 1.213e-4
-1.665, 1.226e-4
-1.666, 1.240e-4
-1.667, 1.254e-4
-1.668, 1.268e-4
-1.669, 1.282e-4
-1.670, 1.295e-4
-1.671, 1.309e-4
-1.672, 1.324e-4
-1.673, 1.338e-4
-1.674, 1.352e-4
-1.675, 1.367e-4
-1.676, 1.382e-4
-1.677, 1.398e-4
-1.678, 1.414e-4
-1.679, 1.430e-4
-1.680, 1.446e-4
-1.681, 1.463e-4
-1.682, 1.480e-4
-1.683, 1.497e-4
-1.684, 1.515e-4
-1.685, 1.534e-4
-1.686, 1.552e-4
-1.687, 1.571e-4
-1.688, 1.590e-4
-1.689, 1.610e-4
-1.690, 1.630e-4
-1.691, 1.651e-4
-1.692, 1.673e-4
-1.693, 1.694e-4
-1.694, 1.716e-4
-1.695, 1.739e-4
-1.696, 1.763e-4
-1.697, 1.787e-4
-1.698, 1.811e-4
-1.699, 1.837e-4
-1.700, 1.863e-4
-1.701, 1.890e-4
-1.702, 1.918e-4
-1.703, 1.947e-4
-1.704, 1.977e-4
-1.705, 2.008e-4
-1.706, 2.041e-4
-1.707, 2.076e-4
-1.708, 2.113e-4
-1.709, 2.152e-4
-1.710, 2.192e-4
-1.711, 2.235e-4
-1.712, 2.279e-4
-1.713, 2.324e-4
-1.714, 2.371e-4
-1.715, 2.419e-4
-1.716, 2.468e-4
-1.717, 2.518e-4
-1.718, 2.569e-4
-1.719, 2.621e-4
-1.720, 2.674e-4
-1.721, 2.727e-4
-1.722, 2.781e-4
-1.723, 2.836e-4
-1.724, 2.891e-4
-1.725, 2.947e-4
-1.726, 3.004e-4
-1.727, 3.062e-4
-1.728, 3.119e-4
-1.729, 3.178e-4
-1.730, 3.237e-4
-1.731, 3.296e-4
-1.732, 3.356e-4
-1.733, 3.417e-4
-1.734, 3.479e-4
-1.735, 3.541e-4
-1.736, 3.604e-4
-1.737, 3.667e-4
-1.738, 3.731e-4
-1.739, 3.795e-4
-1.740, 3.860e-4
-1.741, 3.925e-4
-1.742, 3.991e-4
-1.743, 4.058e-4
-1.744, 4.125e-4
-1.745, 4.192e-4
-1.746, 4.260e-4
-1.747, 4.329e-4
-1.748, 4.398e-4
-1.749, 4.467e-4
-1.750, 4.537e-4
-1.751, 4.607e-4
-1.752, 4.678e-4
-1.753, 4.750e-4
-1.754, 4.822e-4
-1.755, 4.894e-4
-1.756, 4.968e-4
-1.757, 5.041e-4
-1.758, 5.114e-4
-1.759, 5.189e-4
-1.760, 5.263e-4
-1.761, 5.338e-4
-1.762, 5.413e-4
-1.763, 5.488e-4
-1.764, 5.564e-4
-1.765, 5.641e-4
-1.766, 5.717e-4
-1.767, 5.794e-4
-1.768, 5.871e-4
-1.769, 5.949e-4
-1.770, 6.027e-4
-1.771, 6.105e-4
-1.772, 6.183e-4
-1.773, 6.262e-4
-1.774, 6.341e-4
-1.775, 6.420e-4
-1.776, 6.499e-4
-1.777, 6.579e-4
-1.778, 6.660e-4
-1.779, 6.740e-4
-1.780, 6.820e-4
-1.781, 6.901e-4
-1.782, 6.982e-4
-1.783, 7.064e-4
-1.784, 7.146e-4
-1.785, 7.227e-4
-1.786, 7.310e-4
-1.787, 7.392e-4
-1.788, 7.475e-4
-1.789, 7.558e-4
-1.790, 7.642e-4
-1.791, 7.725e-4
-1.792, 7.809e-4
-1.793, 7.893e-4
-1.794, 7.977e-4
-1.795, 8.062e-4
-1.796, 8.146e-4
-1.797, 8.231e-4
-1.798, 8.316e-4
-1.799, 8.401e-4
-1.800, 8.486e-4
-1.801, 8.571e-4
-1.802, 8.656e-4
-1.803, 8.742e-4
-1.804, 8.828e-4
-1.805, 8.914e-4
-1.806, 9.000e-4
-1.807, 9.087e-4
-1.808, 9.174e-4
-1.809, 9.260e-4
-1.810, 9.348e-4
-1.811, 9.436e-4
-1.812, 9.523e-4
-1.813, 9.611e-4
-1.814, 9.699e-4
-1.815, 9.787e-4
-1.816, 9.875e-4
-1.817, 9.964e-4
-1.818, 1.005e-3
-1.819, 1.011e-3
-1.820, 1.011e-3
-1.821, 1.011e-3
-1.822, 1.011e-3
-1.823, 1.011e-3
-1.824, 1.011e-3
-1.825, 1.011e-3
-1.826, 1.011e-3
-1.827, 1.011e-3
-1.828, 1.011e-3
-1.829, 1.011e-3
-1.830, 1.011e-3
-1.831, 1.011e-3
-1.832, 1.011e-3
-1.833, 1.011e-3
-1.834, 1.011e-3
-1.835, 1.011e-3
-1.836, 1.011e-3
-1.837, 1.011e-3
-1.838, 1.011e-3
-1.839, 1.011e-3
-1.840, 1.011e-3
-1.841, 1.011e-3
-1.842, 1.011e-3
-1.843, 1.011e-3
-1.844, 1.011e-3
-1.845, 1.011e-3
-1.846, 1.011e-3
-1.847, 1.011e-3
-1.848, 1.011e-3
-1.849, 1.011e-3
-1.850, 1.011e-3
-1.851, 1.011e-3
-1.852, 1.011e-3
-1.853, 1.011e-3
-1.854, 1.011e-3
-1.855, 1.011e-3
-1.856, 1.011e-3
-1.857, 1.011e-3
-1.858, 1.011e-3
-1.859, 1.011e-3
-1.860, 1.011e-3
-1.861, 1.011e-3
-1.862, 1.011e-3
-1.863, 1.011e-3
-1.864, 1.011e-3
-1.865, 1.011e-3
-1.866, 1.011e-3
-1.867, 1.011e-3
-1.868, 1.011e-3
-1.869, 1.011e-3
-1.870, 1.011e-3
-1.871, 1.011e-3
-1.872, 1.011e-3
-1.873, 1.011e-3
-1.874, 1.011e-3
-1.875, 1.011e-3
-1.876, 1.011e-3
-1.877, 1.011e-3
-1.878, 1.011e-3
-1.879, 1.011e-3
-1.880, 1.011e-3
-1.881, 1.011e-3
-1.882, 1.011e-3
-1.883, 1.011e-3
-1.884, 1.011e-3
-1.885, 1.011e-3
-1.886, 1.011e-3
-1.887, 1.011e-3
-1.888, 1.011e-3
-1.889, 1.011e-3
-1.890, 1.011e-3
-1.891, 1.011e-3
-1.892, 1.011e-3
-1.893, 1.011e-3
-1.894, 1.011e-3
-1.895, 1.011e-3
-1.896, 1.011e-3
-1.897, 1.011e-3
-1.898, 1.011e-3
-1.899, 1.011e-3
-1.900, 1.011e-3
-1.901, 1.011e-3
-1.902, 1.011e-3
-1.903, 1.011e-3
-1.904, 1.011e-3
-1.905, 1.011e-3
-1.906, 1.011e-3
-1.907, 1.011e-3
-1.908, 1.011e-3
-1.909, 1.011e-3
-1.910, 1.011e-3
-1.911, 1.011e-3
-1.912, 1.011e-3
-1.913, 1.011e-3
-1.914, 1.011e-3
-1.915, 1.011e-3
-1.916, 1.011e-3
-1.917, 1.011e-3
-1.918, 1.011e-3
-1.919, 1.011e-3
-1.920, 1.011e-3
-1.921, 1.011e-3
-1.922, 1.011e-3
-1.923, 1.011e-3
-1.924, 1.011e-3
-1.925, 1.011e-3
-1.926, 1.011e-3
-1.927, 1.011e-3
-1.928, 1.011e-3
-1.929, 1.011e-3
-1.930, 1.011e-3
-1.931, 1.011e-3
-1.932, 1.011e-3
-1.933, 1.011e-3
-1.934, 1.011e-3
-1.935, 1.011e-3
-1.936, 1.011e-3
-1.937, 1.011e-3
-1.938, 1.011e-3
-1.939, 1.011e-3
-1.940, 1.011e-3
-1.941, 1.011e-3
-1.942, 1.011e-3
-1.943, 1.011e-3
-1.944, 1.011e-3
-1.945, 1.011e-3
-1.946, 1.011e-3
-1.947, 1.011e-3
-1.948, 1.011e-3
-1.949, 1.011e-3
-1.950, 1.011e-3
-1.951, 1.011e-3
-1.952, 1.011e-3
-1.953, 1.011e-3
-1.954, 1.011e-3
-1.955, 1.011e-3
-1.956, 1.011e-3
-1.957, 1.011e-3
-1.958, 1.011e-3
-1.959, 1.011e-3
-1.960, 1.011e-3
-1.961, 1.011e-3
-1.962, 1.011e-3
-1.963, 1.011e-3
-1.964, 1.011e-3
-1.965, 1.011e-3
-1.966, 1.011e-3
-1.967, 1.011e-3
-1.968, 1.011e-3
-1.969, 1.011e-3
-1.970, 1.011e-3
-1.971, 1.011e-3
-1.972, 1.011e-3
-1.973, 1.011e-3
-1.974, 1.011e-3
-1.975, 1.011e-3
-1.976, 1.011e-3
-1.977, 1.011e-3
-1.978, 1.011e-3
-1.979, 1.011e-3
-1.980, 1.011e-3
-1.981, 1.011e-3
-1.982, 1.011e-3
-1.983, 1.011e-3
-1.984, 1.011e-3
-1.985, 1.011e-3
-1.986, 1.011e-3
-1.987, 1.011e-3
-1.988, 1.011e-3
-1.989, 1.011e-3
-1.990, 1.011e-3
-1.991, 1.011e-3
-1.992, 1.011e-3
-1.993, 1.011e-3
-1.994, 1.011e-3
-1.995, 1.011e-3
-1.996, 1.011e-3
-1.997, 1.011e-3
-1.998, 1.011e-3
-1.999, 1.011e-3
-2.000, 1.011e-3
-2.001, 1.011e-3
-2.002, 1.011e-3
-2.003, 1.011e-3
-2.004, 1.011e-3
-2.005, 1.011e-3
-2.006, 1.011e-3
-2.007, 1.011e-3
-2.008, 1.011e-3
-2.009, 1.011e-3
-2.010, 1.011e-3
-2.011, 1.011e-3
-2.012, 1.011e-3
-2.013, 1.011e-3
-2.014, 1.011e-3
-2.015, 1.011e-3
-2.016, 1.011e-3
-2.017, 1.011e-3
-2.018, 1.011e-3
-2.019, 1.011e-3
-2.020, 1.011e-3
-2.021, 1.011e-3
-2.022, 1.011e-3
-2.023, 1.011e-3
-2.024, 1.011e-3
-2.025, 1.011e-3
-2.026, 1.011e-3
-2.027, 1.011e-3
-2.028, 1.011e-3
-2.029, 1.011e-3
-2.030, 1.011e-3
-2.031, 1.011e-3
-2.032, 1.011e-3
-2.033, 1.011e-3
-2.034, 1.011e-3
-2.035, 1.011e-3
-2.036, 1.011e-3
-2.037, 1.011e-3
-2.038, 1.011e-3
-2.039, 1.011e-3
-2.040, 1.011e-3
-2.041, 1.011e-3
-2.042, 1.011e-3
-2.043, 1.011e-3
-2.044, 1.011e-3
-2.045, 1.011e-3
-2.046, 1.011e-3
-2.047, 1.011e-3
-2.048, 1.011e-3
-2.049, 1.011e-3
-2.050, 1.011e-3
-2.051, 1.011e-3
-2.052, 1.011e-3
-2.053, 1.011e-3
-2.054, 1.011e-3
-2.055, 1.011e-3
-2.056, 1.011e-3
-2.057, 1.011e-3
-2.058, 1.011e-3
-2.059, 1.011e-3
-2.060, 1.011e-3
-2.061, 1.011e-3
-2.062, 1.011e-3
-2.063, 1.011e-3
-2.064, 1.011e-3
-2.065, 1.011e-3
-2.066, 1.011e-3
-2.067, 1.011e-3
-2.068, 1.011e-3
-2.069, 1.011e-3
-2.070, 1.011e-3
-2.071, 1.011e-3
-2.072, 1.011e-3
-2.073, 1.011e-3
-2.074, 1.011e-3
-2.075, 1.011e-3
-2.076, 1.011e-3
-2.077, 1.011e-3
-2.078, 1.011e-3
-2.079, 1.011e-3
-2.080, 1.011e-3
-2.081, 1.011e-3
-2.082, 1.011e-3
-2.083, 1.011e-3
-2.084, 1.011e-3
-2.085, 1.011e-3
-2.086, 1.011e-3
-2.087, 1.011e-3
-2.088, 1.011e-3
-2.089, 1.011e-3
-2.090, 1.011e-3
-2.091, 1.011e-3
-2.092, 1.011e-3
-2.093, 1.011e-3
-2.094, 1.011e-3
-2.095, 1.011e-3
-2.096, 1.011e-3
-2.097, 1.011e-3
-2.098, 1.011e-3
-2.099, 1.011e-3
-2.100, 1.011e-3
-2.101, 1.011e-3
-2.102, 1.011e-3
-2.103, 1.011e-3
-2.104, 1.011e-3
-2.105, 1.011e-3
-2.106, 1.011e-3
-2.107, 1.011e-3
-2.108, 1.011e-3
-2.109, 1.011e-3
-2.110, 1.011e-3
-2.111, 1.011e-3
-2.112, 1.011e-3
-2.113, 1.011e-3
-2.114, 1.011e-3
-2.115, 1.011e-3
-2.116, 1.011e-3
-2.117, 1.011e-3
-2.118, 1.011e-3
-2.119, 1.011e-3
-2.120, 1.011e-3
-2.121, 1.011e-3
-2.122, 1.011e-3
-2.123, 1.011e-3
-2.124, 1.011e-3
-2.125, 1.011e-3
-2.126, 1.011e-3
-2.127, 1.011e-3
-2.128, 1.011e-3
-2.129, 1.011e-3
-2.130, 1.011e-3
-2.131, 1.011e-3
-2.132, 1.011e-3
-2.133, 1.011e-3
-2.134, 1.011e-3
-2.135, 1.011e-3
-2.136, 1.011e-3
-2.137, 1.011e-3
-2.138, 1.011e-3
-2.139, 1.011e-3
-2.140, 1.011e-3
-2.141, 1.011e-3
-2.142, 1.011e-3
-2.143, 1.011e-3
-2.144, 1.011e-3
-2.145, 1.011e-3
-2.146, 1.011e-3
-2.147, 1.011e-3
-2.148, 1.011e-3
-2.149, 1.011e-3
-2.150, 1.011e-3
-2.151, 1.011e-3
-2.152, 1.011e-3
-2.153, 1.011e-3
-2.154, 1.011e-3
-2.155, 1.011e-3
-2.156, 1.011e-3
-2.157, 1.011e-3
-2.158, 1.011e-3
-2.159, 1.011e-3
-2.160, 1.011e-3
-2.161, 1.011e-3
-2.162, 1.011e-3
-2.163, 1.011e-3
-2.164, 1.011e-3
-2.165, 1.011e-3
-2.166, 1.011e-3
-2.167, 1.011e-3
-2.168, 1.011e-3
-2.169, 1.011e-3
-2.170, 1.011e-3
-2.171, 1.011e-3
-2.172, 1.011e-3
-2.173, 1.011e-3
-2.174, 1.011e-3
-2.175, 1.011e-3
-2.176, 1.011e-3
-2.177, 1.011e-3
-2.178, 1.011e-3
-2.179, 1.011e-3
-2.180, 1.011e-3
-2.181, 1.011e-3
-2.182, 1.011e-3
-2.183, 1.011e-3
-2.184, 1.011e-3
-2.185, 1.011e-3
-2.186, 1.011e-3
-2.187, 1.011e-3
-2.188, 1.011e-3
-2.189, 1.011e-3
-2.190, 1.011e-3
-2.191, 1.011e-3
-2.192, 1.011e-3
-2.193, 1.011e-3
-2.194, 1.011e-3
-2.195, 1.011e-3
-2.196, 1.011e-3
-2.197, 1.011e-3
-2.198, 1.011e-3
-2.199, 1.011e-3
-2.200, 1.011e-3
-2.201, 1.011e-3
-2.202, 1.011e-3
-2.203, 1.011e-3
-2.204, 1.011e-3
-2.205, 1.011e-3
-2.206, 1.011e-3
-2.207, 1.011e-3
-2.208, 1.011e-3
-2.209, 1.011e-3
-2.210, 1.011e-3
-2.211, 1.011e-3
-2.212, 1.011e-3
-2.213, 1.011e-3
-2.214, 1.011e-3
-2.215, 1.011e-3
-2.216, 1.011e-3
-2.217, 1.011e-3
-2.218, 1.011e-3
-2.219, 1.011e-3
-2.220, 1.011e-3
-2.221, 1.011e-3
-2.222, 1.011e-3
-2.223, 1.011e-3
-2.224, 1.011e-3
-2.225, 1.011e-3
-2.226, 1.011e-3
-2.227, 1.011e-3
-2.228, 1.011e-3
-2.229, 1.011e-3
-2.230, 1.011e-3
-2.231, 1.011e-3
-2.232, 1.011e-3
-2.233, 1.011e-3
-2.234, 1.011e-3
-2.235, 1.011e-3
-2.236, 1.011e-3
-2.237, 1.011e-3
-2.238, 1.011e-3
-2.239, 1.011e-3
-2.240, 1.011e-3
-2.241, 1.011e-3
-2.242, 1.011e-3
-2.243, 1.011e-3
-2.244, 1.011e-3
-2.245, 1.011e-3
-2.246, 1.011e-3
-2.247, 1.011e-3
-2.248, 1.011e-3
-2.249, 1.011e-3
-2.250, 1.011e-3
-2.251, 1.011e-3
-2.252, 1.011e-3
-2.253, 1.011e-3
-2.254, 1.011e-3
-2.255, 1.011e-3
-2.256, 1.011e-3
-2.257, 1.011e-3
-2.258, 1.011e-3
-2.259, 1.011e-3
-2.260, 1.011e-3
-2.261, 1.011e-3
-2.262, 1.011e-3
-2.263, 1.011e-3
-2.264, 1.011e-3
-2.265, 1.011e-3
-2.266, 1.011e-3
-2.267, 1.011e-3
-2.268, 1.011e-3
-2.269, 1.011e-3
-2.270, 1.011e-3
-2.271, 1.011e-3
-2.272, 1.011e-3
-2.273, 1.011e-3
-2.274, 1.011e-3
-2.275, 1.011e-3
-2.276, 1.011e-3
-2.277, 1.011e-3
-2.278, 1.011e-3
-2.279, 1.011e-3
-2.280, 1.011e-3
-2.281, 1.011e-3
-2.282, 1.011e-3
-2.283, 1.011e-3
-2.284, 1.011e-3
-2.285, 1.011e-3
-2.286, 1.011e-3
-2.287, 1.011e-3
-2.288, 1.011e-3
-2.289, 1.011e-3
-2.290, 1.011e-3
-2.291, 1.011e-3
-2.292, 1.011e-3
-2.293, 1.011e-3
-2.294, 1.011e-3
-2.295, 1.011e-3
-2.296, 1.011e-3
-2.297, 1.011e-3
-2.298, 1.011e-3
-2.299, 1.011e-3
