Apr. 5, 2025   05:04:28
Linear Sweep Voltammetry
File: c:/users/guazh/data/banditlqround7_x0exp994_r5/2025-03-28-exp986\regeneratedgce-2025-04-05t05_01_26-lsvinkoh\regeneratedgce_lsv_50mvs_efin_-1700mv.bin
Data Source:  Experiment
Instrument Model:  CHI760E
Header: LSV ran at 50 mVs with Efin at -1700mV
Note: 

Init E (V) = -0.6
Final E (V) = -1.7
Scan Rate (V/s) = 0.05
Sample Interval (V) = 0.001
Quiet Time (sec) = 2
Sensitivity (A/V) = 1e-4
Comp R (ohm) = 1.9

Results:

Channel 1:

Potential/V, Current/A

-0.600, 5.969e-7
-0.601, 7.111e-7
-0.602, 7.417e-7
-0.603, 7.560e-7
-0.604, 7.654e-7
-0.605, 7.745e-7
-0.606, 7.824e-7
-0.607, 7.910e-7
-0.608, 7.969e-7
-0.609, 8.015e-7
-0.610, 8.070e-7
-0.611, 8.121e-7
-0.612, 8.211e-7
-0.613, 8.253e-7
-0.614, 8.312e-7
-0.615, 8.359e-7
-0.616, 8.402e-7
-0.617, 8.454e-7
-0.618, 8.484e-7
-0.619, 8.519e-7
-0.620, 8.553e-7
-0.621, 8.601e-7
-0.622, 8.653e-7
-0.623, 8.678e-7
-0.624, 8.708e-7
-0.625, 8.754e-7
-0.626, 8.774e-7
-0.627, 8.833e-7
-0.628, 8.872e-7
-0.629, 8.889e-7
-0.630, 8.938e-7
-0.631, 8.964e-7
-0.632, 9.009e-7
-0.633, 9.056e-7
-0.634, 9.058e-7
-0.635, 9.103e-7
-0.636, 9.133e-7
-0.637, 9.184e-7
-0.638, 9.219e-7
-0.639, 9.234e-7
-0.640, 9.261e-7
-0.641, 9.302e-7
-0.642, 9.342e-7
-0.643, 9.376e-7
-0.644, 9.394e-7
-0.645, 9.436e-7
-0.646, 9.475e-7
-0.647, 9.505e-7
-0.648, 9.528e-7
-0.649, 9.562e-7
-0.650, 9.581e-7
-0.651, 9.626e-7
-0.652, 9.661e-7
-0.653, 9.690e-7
-0.654, 9.710e-7
-0.655, 9.741e-7
-0.656, 9.765e-7
-0.657, 9.818e-7
-0.658, 9.824e-7
-0.659, 9.843e-7
-0.660, 9.881e-7
-0.661, 9.909e-7
-0.662, 9.958e-7
-0.663, 9.982e-7
-0.664, 1.000e-6
-0.665, 1.003e-6
-0.666, 1.007e-6
-0.667, 1.009e-6
-0.668, 1.013e-6
-0.669, 1.014e-6
-0.670, 1.017e-6
-0.671, 1.021e-6
-0.672, 1.026e-6
-0.673, 1.030e-6
-0.674, 1.028e-6
-0.675, 1.031e-6
-0.676, 1.035e-6
-0.677, 1.038e-6
-0.678, 1.042e-6
-0.679, 1.043e-6
-0.680, 1.045e-6
-0.681, 1.049e-6
-0.682, 1.053e-6
-0.683, 1.055e-6
-0.684, 1.056e-6
-0.685, 1.057e-6
-0.686, 1.062e-6
-0.687, 1.066e-6
-0.688, 1.068e-6
-0.689, 1.070e-6
-0.690, 1.072e-6
-0.691, 1.075e-6
-0.692, 1.079e-6
-0.693, 1.080e-6
-0.694, 1.083e-6
-0.695, 1.084e-6
-0.696, 1.086e-6
-0.697, 1.092e-6
-0.698, 1.093e-6
-0.699, 1.095e-6
-0.700, 1.097e-6
-0.701, 1.099e-6
-0.702, 1.104e-6
-0.703, 1.107e-6
-0.704, 1.107e-6
-0.705, 1.111e-6
-0.706, 1.113e-6
-0.707, 1.117e-6
-0.708, 1.119e-6
-0.709, 1.119e-6
-0.710, 1.122e-6
-0.711, 1.125e-6
-0.712, 1.129e-6
-0.713, 1.132e-6
-0.714, 1.132e-6
-0.715, 1.134e-6
-0.716, 1.136e-6
-0.717, 1.139e-6
-0.718, 1.142e-6
-0.719, 1.144e-6
-0.720, 1.146e-6
-0.721, 1.148e-6
-0.722, 1.152e-6
-0.723, 1.154e-6
-0.724, 1.155e-6
-0.725, 1.158e-6
-0.726, 1.161e-6
-0.727, 1.165e-6
-0.728, 1.167e-6
-0.729, 1.169e-6
-0.730, 1.171e-6
-0.731, 1.175e-6
-0.732, 1.178e-6
-0.733, 1.178e-6
-0.734, 1.181e-6
-0.735, 1.181e-6
-0.736, 1.184e-6
-0.737, 1.190e-6
-0.738, 1.191e-6
-0.739, 1.193e-6
-0.740, 1.194e-6
-0.741, 1.196e-6
-0.742, 1.202e-6
-0.743, 1.204e-6
-0.744, 1.206e-6
-0.745, 1.209e-6
-0.746, 1.210e-6
-0.747, 1.215e-6
-0.748, 1.217e-6
-0.749, 1.218e-6
-0.750, 1.220e-6
-0.751, 1.221e-6
-0.752, 1.225e-6
-0.753, 1.228e-6
-0.754, 1.228e-6
-0.755, 1.232e-6
-0.756, 1.235e-6
-0.757, 1.237e-6
-0.758, 1.240e-6
-0.759, 1.240e-6
-0.760, 1.243e-6
-0.761, 1.246e-6
-0.762, 1.250e-6
-0.763, 1.251e-6
-0.764, 1.253e-6
-0.765, 1.254e-6
-0.766, 1.258e-6
-0.767, 1.262e-6
-0.768, 1.265e-6
-0.769, 1.267e-6
-0.770, 1.268e-6
-0.771, 1.271e-6
-0.772, 1.275e-6
-0.773, 1.275e-6
-0.774, 1.278e-6
-0.775, 1.280e-6
-0.776, 1.282e-6
-0.777, 1.285e-6
-0.778, 1.287e-6
-0.779, 1.287e-6
-0.780, 1.291e-6
-0.781, 1.294e-6
-0.782, 1.298e-6
-0.783, 1.300e-6
-0.784, 1.301e-6
-0.785, 1.303e-6
-0.786, 1.304e-6
-0.787, 1.309e-6
-0.788, 1.313e-6
-0.789, 1.314e-6
-0.790, 1.317e-6
-0.791, 1.319e-6
-0.792, 1.323e-6
-0.793, 1.326e-6
-0.794, 1.327e-6
-0.795, 1.330e-6
-0.796, 1.333e-6
-0.797, 1.334e-6
-0.798, 1.338e-6
-0.799, 1.338e-6
-0.800, 1.342e-6
-0.801, 1.344e-6
-0.802, 1.347e-6
-0.803, 1.350e-6
-0.804, 1.352e-6
-0.805, 1.354e-6
-0.806, 1.357e-6
-0.807, 1.361e-6
-0.808, 1.362e-6
-0.809, 1.364e-6
-0.810, 1.366e-6
-0.811, 1.370e-6
-0.812, 1.373e-6
-0.813, 1.376e-6
-0.814, 1.379e-6
-0.815, 1.381e-6
-0.816, 1.383e-6
-0.817, 1.388e-6
-0.818, 1.388e-6
-0.819, 1.394e-6
-0.820, 1.397e-6
-0.821, 1.397e-6
-0.822, 1.402e-6
-0.823, 1.403e-6
-0.824, 1.404e-6
-0.825, 1.406e-6
-0.826, 1.408e-6
-0.827, 1.412e-6
-0.828, 1.414e-6
-0.829, 1.415e-6
-0.830, 1.419e-6
-0.831, 1.421e-6
-0.832, 1.426e-6
-0.833, 1.428e-6
-0.834, 1.430e-6
-0.835, 1.433e-6
-0.836, 1.435e-6
-0.837, 1.438e-6
-0.838, 1.442e-6
-0.839, 1.442e-6
-0.840, 1.445e-6
-0.841, 1.448e-6
-0.842, 1.452e-6
-0.843, 1.455e-6
-0.844, 1.456e-6
-0.845, 1.458e-6
-0.846, 1.460e-6
-0.847, 1.465e-6
-0.848, 1.467e-6
-0.849, 1.469e-6
-0.850, 1.472e-6
-0.851, 1.475e-6
-0.852, 1.480e-6
-0.853, 1.480e-6
-0.854, 1.482e-6
-0.855, 1.485e-6
-0.856, 1.487e-6
-0.857, 1.492e-6
-0.858, 1.495e-6
-0.859, 1.497e-6
-0.860, 1.500e-6
-0.861, 1.502e-6
-0.862, 1.508e-6
-0.863, 1.510e-6
-0.864, 1.512e-6
-0.865, 1.515e-6
-0.866, 1.518e-6
-0.867, 1.522e-6
-0.868, 1.524e-6
-0.869, 1.525e-6
-0.870, 1.531e-6
-0.871, 1.536e-6
-0.872, 1.537e-6
-0.873, 1.541e-6
-0.874, 1.542e-6
-0.875, 1.544e-6
-0.876, 1.548e-6
-0.877, 1.552e-6
-0.878, 1.555e-6
-0.879, 1.555e-6
-0.880, 1.559e-6
-0.881, 1.563e-6
-0.882, 1.565e-6
-0.883, 1.570e-6
-0.884, 1.571e-6
-0.885, 1.574e-6
-0.886, 1.577e-6
-0.887, 1.581e-6
-0.888, 1.583e-6
-0.889, 1.586e-6
-0.890, 1.588e-6
-0.891, 1.592e-6
-0.892, 1.596e-6
-0.893, 1.597e-6
-0.894, 1.602e-6
-0.895, 1.604e-6
-0.896, 1.608e-6
-0.897, 1.613e-6
-0.898, 1.613e-6
-0.899, 1.616e-6
-0.900, 1.619e-6
-0.901, 1.622e-6
-0.902, 1.628e-6
-0.903, 1.631e-6
-0.904, 1.633e-6
-0.905, 1.636e-6
-0.906, 1.639e-6
-0.907, 1.642e-6
-0.908, 1.647e-6
-0.909, 1.649e-6
-0.910, 1.652e-6
-0.911, 1.656e-6
-0.912, 1.660e-6
-0.913, 1.663e-6
-0.914, 1.665e-6
-0.915, 1.670e-6
-0.916, 1.673e-6
-0.917, 1.677e-6
-0.918, 1.680e-6
-0.919, 1.682e-6
-0.920, 1.684e-6
-0.921, 1.688e-6
-0.922, 1.693e-6
-0.923, 1.696e-6
-0.924, 1.698e-6
-0.925, 1.701e-6
-0.926, 1.705e-6
-0.927, 1.710e-6
-0.928, 1.712e-6
-0.929, 1.714e-6
-0.930, 1.717e-6
-0.931, 1.721e-6
-0.932, 1.727e-6
-0.933, 1.730e-6
-0.934, 1.734e-6
-0.935, 1.737e-6
-0.936, 1.739e-6
-0.937, 1.744e-6
-0.938, 1.746e-6
-0.939, 1.748e-6
-0.940, 1.752e-6
-0.941, 1.757e-6
-0.942, 1.762e-6
-0.943, 1.764e-6
-0.944, 1.767e-6
-0.945, 1.771e-6
-0.946, 1.774e-6
-0.947, 1.781e-6
-0.948, 1.786e-6
-0.949, 1.787e-6
-0.950, 1.792e-6
-0.951, 1.794e-6
-0.952, 1.799e-6
-0.953, 1.804e-6
-0.954, 1.805e-6
-0.955, 1.808e-6
-0.956, 1.812e-6
-0.957, 1.817e-6
-0.958, 1.822e-6
-0.959, 1.824e-6
-0.960, 1.828e-6
-0.961, 1.832e-6
-0.962, 1.837e-6
-0.963, 1.841e-6
-0.964, 1.843e-6
-0.965, 1.847e-6
-0.966, 1.852e-6
-0.967, 1.857e-6
-0.968, 1.861e-6
-0.969, 1.864e-6
-0.970, 1.867e-6
-0.971, 1.872e-6
-0.972, 1.878e-6
-0.973, 1.885e-6
-0.974, 1.890e-6
-0.975, 1.893e-6
-0.976, 1.897e-6
-0.977, 1.904e-6
-0.978, 1.906e-6
-0.979, 1.909e-6
-0.980, 1.912e-6
-0.981, 1.914e-6
-0.982, 1.921e-6
-0.983, 1.925e-6
-0.984, 1.928e-6
-0.985, 1.934e-6
-0.986, 1.938e-6
-0.987, 1.943e-6
-0.988, 1.947e-6
-0.989, 1.948e-6
-0.990, 1.953e-6
-0.991, 1.957e-6
-0.992, 1.963e-6
-0.993, 1.968e-6
-0.994, 1.971e-6
-0.995, 1.976e-6
-0.996, 1.981e-6
-0.997, 1.986e-6
-0.998, 1.991e-6
-0.999, 1.993e-6
-1.000, 1.997e-6
-1.001, 2.003e-6
-1.002, 2.009e-6
-1.003, 2.013e-6
-1.004, 2.018e-6
-1.005, 2.021e-6
-1.006, 2.027e-6
-1.007, 2.033e-6
-1.008, 2.037e-6
-1.009, 2.041e-6
-1.010, 2.044e-6
-1.011, 2.051e-6
-1.012, 2.058e-6
-1.013, 2.061e-6
-1.014, 2.065e-6
-1.015, 2.069e-6
-1.016, 2.074e-6
-1.017, 2.081e-6
-1.018, 2.085e-6
-1.019, 2.090e-6
-1.020, 2.094e-6
-1.021, 2.100e-6
-1.022, 2.107e-6
-1.023, 2.112e-6
-1.024, 2.119e-6
-1.025, 2.124e-6
-1.026, 2.128e-6
-1.027, 2.135e-6
-1.028, 2.138e-6
-1.029, 2.140e-6
-1.030, 2.146e-6
-1.031, 2.151e-6
-1.032, 2.157e-6
-1.033, 2.162e-6
-1.034, 2.165e-6
-1.035, 2.170e-6
-1.036, 2.175e-6
-1.037, 2.182e-6
-1.038, 2.186e-6
-1.039, 2.190e-6
-1.040, 2.194e-6
-1.041, 2.199e-6
-1.042, 2.203e-6
-1.043, 2.209e-6
-1.044, 2.213e-6
-1.045, 2.217e-6
-1.046, 2.224e-6
-1.047, 2.230e-6
-1.048, 2.235e-6
-1.049, 2.238e-6
-1.050, 2.243e-6
-1.051, 2.248e-6
-1.052, 2.254e-6
-1.053, 2.258e-6
-1.054, 2.264e-6
-1.055, 2.269e-6
-1.056, 2.274e-6
-1.057, 2.280e-6
-1.058, 2.283e-6
-1.059, 2.286e-6
-1.060, 2.293e-6
-1.061, 2.296e-6
-1.062, 2.304e-6
-1.063, 2.308e-6
-1.064, 2.313e-6
-1.065, 2.317e-6
-1.066, 2.322e-6
-1.067, 2.329e-6
-1.068, 2.333e-6
-1.069, 2.336e-6
-1.070, 2.344e-6
-1.071, 2.349e-6
-1.072, 2.357e-6
-1.073, 2.363e-6
-1.074, 2.365e-6
-1.075, 2.373e-6
-1.076, 2.378e-6
-1.077, 2.381e-6
-1.078, 2.386e-6
-1.079, 2.390e-6
-1.080, 2.396e-6
-1.081, 2.403e-6
-1.082, 2.408e-6
-1.083, 2.414e-6
-1.084, 2.419e-6
-1.085, 2.422e-6
-1.086, 2.427e-6
-1.087, 2.433e-6
-1.088, 2.438e-6
-1.089, 2.442e-6
-1.090, 2.446e-6
-1.091, 2.451e-6
-1.092, 2.458e-6
-1.093, 2.461e-6
-1.094, 2.466e-6
-1.095, 2.471e-6
-1.096, 2.474e-6
-1.097, 2.482e-6
-1.098, 2.484e-6
-1.099, 2.488e-6
-1.100, 2.495e-6
-1.101, 2.501e-6
-1.102, 2.507e-6
-1.103, 2.510e-6
-1.104, 2.514e-6
-1.105, 2.520e-6
-1.106, 2.524e-6
-1.107, 2.532e-6
-1.108, 2.538e-6
-1.109, 2.539e-6
-1.110, 2.546e-6
-1.111, 2.551e-6
-1.112, 2.557e-6
-1.113, 2.563e-6
-1.114, 2.566e-6
-1.115, 2.571e-6
-1.116, 2.577e-6
-1.117, 2.583e-6
-1.118, 2.588e-6
-1.119, 2.591e-6
-1.120, 2.595e-6
-1.121, 2.601e-6
-1.122, 2.607e-6
-1.123, 2.612e-6
-1.124, 2.617e-6
-1.125, 2.621e-6
-1.126, 2.628e-6
-1.127, 2.634e-6
-1.128, 2.638e-6
-1.129, 2.643e-6
-1.130, 2.646e-6
-1.131, 2.652e-6
-1.132, 2.660e-6
-1.133, 2.663e-6
-1.134, 2.668e-6
-1.135, 2.671e-6
-1.136, 2.676e-6
-1.137, 2.684e-6
-1.138, 2.685e-6
-1.139, 2.692e-6
-1.140, 2.696e-6
-1.141, 2.700e-6
-1.142, 2.707e-6
-1.143, 2.711e-6
-1.144, 2.713e-6
-1.145, 2.718e-6
-1.146, 2.722e-6
-1.147, 2.729e-6
-1.148, 2.734e-6
-1.149, 2.736e-6
-1.150, 2.741e-6
-1.151, 2.746e-6
-1.152, 2.752e-6
-1.153, 2.760e-6
-1.154, 2.760e-6
-1.155, 2.764e-6
-1.156, 2.769e-6
-1.157, 2.776e-6
-1.158, 2.780e-6
-1.159, 2.784e-6
-1.160, 2.787e-6
-1.161, 2.794e-6
-1.162, 2.798e-6
-1.163, 2.804e-6
-1.164, 2.808e-6
-1.165, 2.811e-6
-1.166, 2.817e-6
-1.167, 2.823e-6
-1.168, 2.826e-6
-1.169, 2.830e-6
-1.170, 2.834e-6
-1.171, 2.839e-6
-1.172, 2.845e-6
-1.173, 2.848e-6
-1.174, 2.851e-6
-1.175, 2.854e-6
-1.176, 2.858e-6
-1.177, 2.867e-6
-1.178, 2.872e-6
-1.179, 2.874e-6
-1.180, 2.877e-6
-1.181, 2.881e-6
-1.182, 2.888e-6
-1.183, 2.891e-6
-1.184, 2.894e-6
-1.185, 2.899e-6
-1.186, 2.902e-6
-1.187, 2.908e-6
-1.188, 2.913e-6
-1.189, 2.913e-6
-1.190, 2.919e-6
-1.191, 2.924e-6
-1.192, 2.930e-6
-1.193, 2.935e-6
-1.194, 2.935e-6
-1.195, 2.940e-6
-1.196, 2.945e-6
-1.197, 2.948e-6
-1.198, 2.954e-6
-1.199, 2.956e-6
-1.200, 2.958e-6
-1.201, 2.964e-6
-1.202, 2.968e-6
-1.203, 2.973e-6
-1.204, 2.977e-6
-1.205, 2.979e-6
-1.206, 2.984e-6
-1.207, 2.989e-6
-1.208, 2.993e-6
-1.209, 2.996e-6
-1.210, 2.999e-6
-1.211, 3.004e-6
-1.212, 3.010e-6
-1.213, 3.012e-6
-1.214, 3.015e-6
-1.215, 3.018e-6
-1.216, 3.022e-6
-1.217, 3.030e-6
-1.218, 3.032e-6
-1.219, 3.035e-6
-1.220, 3.039e-6
-1.221, 3.043e-6
-1.222, 3.049e-6
-1.223, 3.052e-6
-1.224, 3.054e-6
-1.225, 3.062e-6
-1.226, 3.064e-6
-1.227, 3.072e-6
-1.228, 3.075e-6
-1.229, 3.083e-6
-1.230, 3.083e-6
-1.231, 3.088e-6
-1.232, 3.093e-6
-1.233, 3.096e-6
-1.234, 3.097e-6
-1.235, 3.101e-6
-1.236, 3.106e-6
-1.237, 3.112e-6
-1.238, 3.115e-6
-1.239, 3.117e-6
-1.240, 3.120e-6
-1.241, 3.126e-6
-1.242, 3.131e-6
-1.243, 3.133e-6
-1.244, 3.137e-6
-1.245, 3.138e-6
-1.246, 3.144e-6
-1.247, 3.149e-6
-1.248, 3.154e-6
-1.249, 3.156e-6
-1.250, 3.158e-6
-1.251, 3.162e-6
-1.252, 3.168e-6
-1.253, 3.172e-6
-1.254, 3.177e-6
-1.255, 3.181e-6
-1.256, 3.183e-6
-1.257, 3.190e-6
-1.258, 3.193e-6
-1.259, 3.197e-6
-1.260, 3.199e-6
-1.261, 3.204e-6
-1.262, 3.211e-6
-1.263, 3.214e-6
-1.264, 3.215e-6
-1.265, 3.221e-6
-1.266, 3.224e-6
-1.267, 3.231e-6
-1.268, 3.235e-6
-1.269, 3.236e-6
-1.270, 3.240e-6
-1.271, 3.245e-6
-1.272, 3.250e-6
-1.273, 3.255e-6
-1.274, 3.257e-6
-1.275, 3.261e-6
-1.276, 3.266e-6
-1.277, 3.270e-6
-1.278, 3.276e-6
-1.279, 3.278e-6
-1.280, 3.286e-6
-1.281, 3.291e-6
-1.282, 3.296e-6
-1.283, 3.301e-6
-1.284, 3.304e-6
-1.285, 3.306e-6
-1.286, 3.310e-6
-1.287, 3.317e-6
-1.288, 3.321e-6
-1.289, 3.325e-6
-1.290, 3.328e-6
-1.291, 3.333e-6
-1.292, 3.343e-6
-1.293, 3.348e-6
-1.294, 3.352e-6
-1.295, 3.355e-6
-1.296, 3.361e-6
-1.297, 3.369e-6
-1.298, 3.374e-6
-1.299, 3.378e-6
-1.300, 3.385e-6
-1.301, 3.389e-6
-1.302, 3.398e-6
-1.303, 3.402e-6
-1.304, 3.408e-6
-1.305, 3.415e-6
-1.306, 3.420e-6
-1.307, 3.431e-6
-1.308, 3.437e-6
-1.309, 3.443e-6
-1.310, 3.453e-6
-1.311, 3.458e-6
-1.312, 3.468e-6
-1.313, 3.475e-6
-1.314, 3.480e-6
-1.315, 3.487e-6
-1.316, 3.495e-6
-1.317, 3.505e-6
-1.318, 3.514e-6
-1.319, 3.521e-6
-1.320, 3.529e-6
-1.321, 3.538e-6
-1.322, 3.547e-6
-1.323, 3.559e-6
-1.324, 3.567e-6
-1.325, 3.576e-6
-1.326, 3.587e-6
-1.327, 3.598e-6
-1.328, 3.609e-6
-1.329, 3.619e-6
-1.330, 3.627e-6
-1.331, 3.640e-6
-1.332, 3.653e-6
-1.333, 3.663e-6
-1.334, 3.675e-6
-1.335, 3.684e-6
-1.336, 3.697e-6
-1.337, 3.711e-6
-1.338, 3.722e-6
-1.339, 3.732e-6
-1.340, 3.744e-6
-1.341, 3.755e-6
-1.342, 3.771e-6
-1.343, 3.782e-6
-1.344, 3.793e-6
-1.345, 3.809e-6
-1.346, 3.818e-6
-1.347, 3.834e-6
-1.348, 3.848e-6
-1.349, 3.858e-6
-1.350, 3.872e-6
-1.351, 3.884e-6
-1.352, 3.900e-6
-1.353, 3.912e-6
-1.354, 3.922e-6
-1.355, 3.936e-6
-1.356, 3.949e-6
-1.357, 3.964e-6
-1.358, 3.978e-6
-1.359, 3.987e-6
-1.360, 3.999e-6
-1.361, 4.013e-6
-1.362, 4.026e-6
-1.363, 4.039e-6
-1.364, 4.052e-6
-1.365, 4.064e-6
-1.366, 4.076e-6
-1.367, 4.092e-6
-1.368, 4.104e-6
-1.369, 4.114e-6
-1.370, 4.126e-6
-1.371, 4.138e-6
-1.372, 4.154e-6
-1.373, 4.165e-6
-1.374, 4.175e-6
-1.375, 4.186e-6
-1.376, 4.196e-6
-1.377, 4.212e-6
-1.378, 4.221e-6
-1.379, 4.232e-6
-1.380, 4.243e-6
-1.381, 4.253e-6
-1.382, 4.270e-6
-1.383, 4.283e-6
-1.384, 4.290e-6
-1.385, 4.302e-6
-1.386, 4.313e-6
-1.387, 4.327e-6
-1.388, 4.340e-6
-1.389, 4.349e-6
-1.390, 4.361e-6
-1.391, 4.369e-6
-1.392, 4.383e-6
-1.393, 4.393e-6
-1.394, 4.399e-6
-1.395, 4.411e-6
-1.396, 4.421e-6
-1.397, 4.433e-6
-1.398, 4.445e-6
-1.399, 4.452e-6
-1.400, 4.461e-6
-1.401, 4.473e-6
-1.402, 4.481e-6
-1.403, 4.492e-6
-1.404, 4.498e-6
-1.405, 4.506e-6
-1.406, 4.517e-6
-1.407, 4.528e-6
-1.408, 4.538e-6
-1.409, 4.546e-6
-1.410, 4.551e-6
-1.411, 4.559e-6
-1.412, 4.570e-6
-1.413, 4.577e-6
-1.414, 4.584e-6
-1.415, 4.590e-6
-1.416, 4.597e-6
-1.417, 4.606e-6
-1.418, 4.613e-6
-1.419, 4.618e-6
-1.420, 4.623e-6
-1.421, 4.630e-6
-1.422, 4.642e-6
-1.423, 4.647e-6
-1.424, 4.652e-6
-1.425, 4.659e-6
-1.426, 4.664e-6
-1.427, 4.672e-6
-1.428, 4.681e-6
-1.429, 4.684e-6
-1.430, 4.689e-6
-1.431, 4.693e-6
-1.432, 4.702e-6
-1.433, 4.709e-6
-1.434, 4.714e-6
-1.435, 4.718e-6
-1.436, 4.725e-6
-1.437, 4.731e-6
-1.438, 4.738e-6
-1.439, 4.739e-6
-1.440, 4.743e-6
-1.441, 4.750e-6
-1.442, 4.754e-6
-1.443, 4.764e-6
-1.444, 4.765e-6
-1.445, 4.768e-6
-1.446, 4.776e-6
-1.447, 4.783e-6
-1.448, 4.788e-6
-1.449, 4.793e-6
-1.450, 4.795e-6
-1.451, 4.802e-6
-1.452, 4.810e-6
-1.453, 4.814e-6
-1.454, 4.818e-6
-1.455, 4.823e-6
-1.456, 4.829e-6
-1.457, 4.839e-6
-1.458, 4.844e-6
-1.459, 4.849e-6
-1.460, 4.854e-6
-1.461, 4.859e-6
-1.462, 4.868e-6
-1.463, 4.873e-6
-1.464, 4.877e-6
-1.465, 4.882e-6
-1.466, 4.888e-6
-1.467, 4.896e-6
-1.468, 4.903e-6
-1.469, 4.907e-6
-1.470, 4.914e-6
-1.471, 4.920e-6
-1.472, 4.931e-6
-1.473, 4.939e-6
-1.474, 4.942e-6
-1.475, 4.951e-6
-1.476, 4.959e-6
-1.477, 4.968e-6
-1.478, 4.979e-6
-1.479, 4.986e-6
-1.480, 4.994e-6
-1.481, 5.002e-6
-1.482, 5.011e-6
-1.483, 5.024e-6
-1.484, 5.033e-6
-1.485, 5.045e-6
-1.486, 5.056e-6
-1.487, 5.067e-6
-1.488, 5.078e-6
-1.489, 5.086e-6
-1.490, 5.094e-6
-1.491, 5.106e-6
-1.492, 5.119e-6
-1.493, 5.134e-6
-1.494, 5.146e-6
-1.495, 5.157e-6
-1.496, 5.170e-6
-1.497, 5.185e-6
-1.498, 5.199e-6
-1.499, 5.212e-6
-1.500, 5.225e-6
-1.501, 5.239e-6
-1.502, 5.259e-6
-1.503, 5.274e-6
-1.504, 5.288e-6
-1.505, 5.306e-6
-1.506, 5.320e-6
-1.507, 5.341e-6
-1.508, 5.360e-6
-1.509, 5.375e-6
-1.510, 5.393e-6
-1.511, 5.411e-6
-1.512, 5.433e-6
-1.513, 5.453e-6
-1.514, 5.472e-6
-1.515, 5.496e-6
-1.516, 5.518e-6
-1.517, 5.542e-6
-1.518, 5.569e-6
-1.519, 5.587e-6
-1.520, 5.608e-6
-1.521, 5.635e-6
-1.522, 5.658e-6
-1.523, 5.684e-6
-1.524, 5.710e-6
-1.525, 5.734e-6
-1.526, 5.763e-6
-1.527, 5.793e-6
-1.528, 5.820e-6
-1.529, 5.850e-6
-1.530, 5.876e-6
-1.531, 5.904e-6
-1.532, 5.934e-6
-1.533, 5.963e-6
-1.534, 5.997e-6
-1.535, 6.030e-6
-1.536, 6.061e-6
-1.537, 6.098e-6
-1.538, 6.131e-6
-1.539, 6.165e-6
-1.540, 6.198e-6
-1.541, 6.232e-6
-1.542, 6.272e-6
-1.543, 6.313e-6
-1.544, 6.349e-6
-1.545, 6.389e-6
-1.546, 6.425e-6
-1.547, 6.470e-6
-1.548, 6.512e-6
-1.549, 6.552e-6
-1.550, 6.596e-6
-1.551, 6.639e-6
-1.552, 6.687e-6
-1.553, 6.733e-6
-1.554, 6.776e-6
-1.555, 6.822e-6
-1.556, 6.870e-6
-1.557, 6.920e-6
-1.558, 6.971e-6
-1.559, 7.018e-6
-1.560, 7.069e-6
-1.561, 7.124e-6
-1.562, 7.179e-6
-1.563, 7.234e-6
-1.564, 7.287e-6
-1.565, 7.339e-6
-1.566, 7.397e-6
-1.567, 7.457e-6
-1.568, 7.515e-6
-1.569, 7.574e-6
-1.570, 7.630e-6
-1.571, 7.694e-6
-1.572, 7.763e-6
-1.573, 7.823e-6
-1.574, 7.889e-6
-1.575, 7.954e-6
-1.576, 8.020e-6
-1.577, 8.091e-6
-1.578, 8.162e-6
-1.579, 8.237e-6
-1.580, 8.309e-6
-1.581, 8.380e-6
-1.582, 8.459e-6
-1.583, 8.530e-6
-1.584, 8.605e-6
-1.585, 8.682e-6
-1.586, 8.760e-6
-1.587, 8.848e-6
-1.588, 8.928e-6
-1.589, 9.007e-6
-1.590, 9.091e-6
-1.591, 9.176e-6
-1.592, 9.266e-6
-1.593, 9.358e-6
-1.594, 9.443e-6
-1.595, 9.535e-6
-1.596, 9.630e-6
-1.597, 9.728e-6
-1.598, 9.826e-6
-1.599, 9.920e-6
-1.600, 1.002e-5
-1.601, 1.012e-5
-1.602, 1.022e-5
-1.603, 1.032e-5
-1.604, 1.043e-5
-1.605, 1.053e-5
-1.606, 1.065e-5
-1.607, 1.076e-5
-1.608, 1.087e-5
-1.609, 1.099e-5
-1.610, 1.110e-5
-1.611, 1.122e-5
-1.612, 1.135e-5
-1.613, 1.147e-5
-1.614, 1.159e-5
-1.615, 1.172e-5
-1.616, 1.184e-5
-1.617, 1.198e-5
-1.618, 1.210e-5
-1.619, 1.223e-5
-1.620, 1.236e-5
-1.621, 1.251e-5
-1.622, 1.265e-5
-1.623, 1.280e-5
-1.624, 1.294e-5
-1.625, 1.310e-5
-1.626, 1.325e-5
-1.627, 1.341e-5
-1.628, 1.357e-5
-1.629, 1.372e-5
-1.630, 1.385e-5
-1.631, 1.400e-5
-1.632, 1.417e-5
-1.633, 1.434e-5
-1.634, 1.450e-5
-1.635, 1.468e-5
-1.636, 1.485e-5
-1.637, 1.497e-5
-1.638, 1.513e-5
-1.639, 1.532e-5
-1.640, 1.550e-5
-1.641, 1.569e-5
-1.642, 1.589e-5
-1.643, 1.609e-5
-1.644, 1.630e-5
-1.645, 1.650e-5
-1.646, 1.672e-5
-1.647, 1.693e-5
-1.648, 1.715e-5
-1.649, 1.735e-5
-1.650, 1.755e-5
-1.651, 1.777e-5
-1.652, 1.798e-5
-1.653, 1.818e-5
-1.654, 1.839e-5
-1.655, 1.863e-5
-1.656, 1.889e-5
-1.657, 1.915e-5
-1.658, 1.941e-5
-1.659, 1.968e-5
-1.660, 1.994e-5
-1.661, 2.020e-5
-1.662, 2.048e-5
-1.663, 2.079e-5
-1.664, 2.111e-5
-1.665, 2.137e-5
-1.666, 2.164e-5
-1.667, 2.196e-5
-1.668, 2.225e-5
-1.669, 2.252e-5
-1.670, 2.283e-5
-1.671, 2.314e-5
-1.672, 2.346e-5
-1.673, 2.372e-5
-1.674, 2.405e-5
-1.675, 2.442e-5
-1.676, 2.479e-5
-1.677, 2.515e-5
-1.678, 2.554e-5
-1.679, 2.591e-5
-1.680, 2.630e-5
-1.681, 2.670e-5
-1.682, 2.711e-5
-1.683, 2.751e-5
-1.684, 2.791e-5
-1.685, 2.834e-5
-1.686, 2.879e-5
-1.687, 2.927e-5
-1.688, 2.969e-5
-1.689, 3.012e-5
-1.690, 3.067e-5
-1.691, 3.113e-5
-1.692, 3.157e-5
-1.693, 3.204e-5
-1.694, 3.251e-5
-1.695, 3.300e-5
-1.696, 3.352e-5
-1.697, 3.405e-5
-1.698, 3.453e-5
-1.699, 3.502e-5
