Potential V vs RHE, Current mA cm-2
0.05339999999999995,-0.025012095781613848
0.05239999999999995,-0.02594580523952477
0.051399999999999946,-0.026384365742482933
0.050399999999999945,-0.026723896454450544
0.049399999999999944,-0.026992691601424906
0.04839999999999994,-0.027247339635400606
0.04739999999999994,-0.027544429008372267
0.04639999999999994,-0.027813224155346622
0.04539999999999994,-0.02811031352831828
0.04439999999999994,-0.028379108675292634
0.04339999999999994,-0.028647903822266993
0.04239999999999994,-0.028916698969241348
0.04139999999999994,-0.029199641229214358
0.040399999999999936,-0.02949673060218601
0.039399999999999935,-0.029779672862159025
0.038399999999999934,-0.030034320896134725
0.03739999999999993,-0.030288968930110433
0.03639999999999993,-0.03055776407708479
0.03539999999999993,-0.030840706337057794
0.03439999999999993,-0.031123648597030807
0.03339999999999993,-0.03136414951800787
0.03239999999999993,-0.03163294466498222
0.03139999999999993,-0.03191588692495523
0.030399999999999927,-0.03221297629792688
0.029399999999999926,-0.032467624331902596
0.028399999999999925,-0.0327505665918756
0.027399999999999924,-0.03301936173884996
0.026399999999999924,-0.03331645111182161
0.025399999999999923,-0.033655981823789226
0.024399999999999922,-0.033924776970763584
0.02339999999999992,-0.03422186634373524
0.02239999999999992,-0.03450480860370824
0.02139999999999992,-0.03478775086368125
0.020399999999999918,-0.03511313446265021
0.019399999999999917,-0.035381929609624566
0.018399999999999916,-0.035664871869597575
0.017399999999999916,-0.03597610835556788
0.016399999999999915,-0.036301491954536844
0.015399999999999914,-0.0366268755535058
0.014399999999999913,-0.036923964926477454
0.013399999999999912,-0.03724934852544641
0.012399999999999911,-0.03756058501141672
0.01139999999999991,-0.03785767438438838
0.01039999999999991,-0.03821135220935464
0.009399999999999908,-0.038508441582326296
0.008399999999999908,-0.03879138384229931
0.007399999999999907,-0.03913091455426691
0.006399999999999906,-0.039456298153235876
0.005399999999999905,-0.03980997597820213
0.004399999999999904,-0.04013535957717109
0.003399999999999903,-0.0404465960631414
0.002399999999999902,-0.04078612677510901
0.0013999999999999013,-0.04111151037407796
0.00039999999999990044,-0.04147933531204288
-0.0006000000000001005,-0.041818866024010484
-0.0016000000000001013,-0.04214424962297945
-0.0026000000000001022,-0.0424696332219484
-0.003600000000000103,-0.042809163933916004
-0.004600000000000104,-0.043191135984879565
-0.005600000000000105,-0.04351651958384853
-0.006600000000000106,-0.043870197408814794
-0.007600000000000107,-0.0442097281207824
-0.008600000000000108,-0.044577553058747305
-0.009600000000000108,-0.044959525109710866
-0.01060000000000011,-0.04529905582167848
-0.01160000000000011,-0.04565273364664474
-0.012600000000000111,-0.046006411471611
-0.013600000000000112,-0.046345942183578605
-0.014600000000000113,-0.04674206134754081
-0.015600000000000114,-0.04710988628550572
-0.016600000000000115,-0.04746356411047198
-0.017600000000000116,-0.04784553616143554
-0.018600000000000116,-0.048227508212399094
-0.019600000000000117,-0.048609480263362655
-0.020600000000000118,-0.04897730520132757
-0.02160000000000012,-0.04934513013929248
-0.02260000000000012,-0.04971295507725739
-0.02360000000000012,-0.050094927128220945
-0.024600000000000122,-0.050491046292183164
-0.025600000000000123,-0.05088716545614537
-0.026600000000000124,-0.05124084328111162
-0.027600000000000124,-0.05163696244507385
-0.028600000000000125,-0.0520189344960374
-0.029600000000000126,-0.05242920077299826
-0.030600000000000127,-0.05282531993696047
-0.03160000000000013,-0.05319314487492538
-0.03260000000000013,-0.053589264038887585
-0.03360000000000013,-0.053971236089851146
-0.03460000000000002,-0.05440979659280931
-0.03560000000000002,-0.05483420998276882
-0.03660000000000002,-0.05518788780773508
-0.03760000000000002,-0.05558400697169729
-0.03860000000000002,-0.05598012613565951
-0.039600000000000024,-0.05640453952561902
-0.040600000000000025,-0.056814805802579874
-0.041600000000000026,-0.05721092496654208
-0.04260000000000003,-0.05759289701750564
-0.04360000000000003,-0.058003163294466496
-0.04460000000000003,-0.05844172379742466
-0.04560000000000003,-0.058837842961386874
-0.04660000000000003,-0.05920566789935178
-0.04760000000000003,-0.059601787063313996
-0.04860000000000003,-0.05998375911427755
-0.04960000000000003,-0.060408172504237065
-0.050600000000000034,-0.060846733007195224
-0.051600000000000035,-0.06122870505815879
-0.052600000000000036,-0.06163897133511965
-0.053600000000000037,-0.06206338472507915
-0.05460000000000004,-0.06248779811503867
-0.05560000000000004,-0.06291221150499818
-0.05660000000000004,-0.06332247778195904
-0.05760000000000004,-0.06374689117191855
-0.05860000000000004,-0.06417130456187807
-0.05960000000000004,-0.06462401217783488
-0.06060000000000004,-0.06503427845479573
-0.061600000000000044,-0.06543039761875795
-0.06260000000000004,-0.0658406638957188
-0.06360000000000005,-0.06627922439867698
-0.06460000000000005,-0.06671778490163513
-0.06560000000000005,-0.06712805117859601
-0.06660000000000005,-0.06753831745555686
-0.06760000000000005,-0.06796273084551636
-0.06860000000000005,-0.06835885000947857
-0.06960000000000005,-0.06878326339943809
-0.07060000000000005,-0.06922182390239626
-0.07160000000000005,-0.06958964884036115
-0.07260000000000005,-0.06999991511732201
-0.07360000000000005,-0.07042432850728152
-0.07460000000000006,-0.07086288901023968
-0.07560000000000006,-0.0712873024001992
-0.07660000000000006,-0.07169756867716005
-0.07760000000000006,-0.07209368784112226
-0.07860000000000006,-0.07250395411808314
-0.07960000000000006,-0.07292836750804264
-0.08060000000000006,-0.07335278089800215
-0.08160000000000006,-0.07373475294896571
-0.08260000000000006,-0.07414501922592658
-0.08360000000000006,-0.07455528550288744
-0.08460000000000006,-0.07496555177984829
-0.08560000000000006,-0.07538996516980781
-0.08660000000000007,-0.07575779010777271
-0.08760000000000007,-0.07615390927173492
-0.08860000000000007,-0.07653588132269848
-0.08960000000000007,-0.07694614759965934
-0.09060000000000007,-0.07734226676362156
-0.09160000000000007,-0.07773838592758377
-0.09260000000000007,-0.07812035797854733
-0.09360000000000007,-0.07850233002951089
-0.09460000000000007,-0.07891259630647175
-0.09560000000000007,-0.07930871547043396
-0.09660000000000007,-0.07967654040839886
-0.09760000000000008,-0.08001607112036647
-0.09860000000000008,-0.08036974894533275
-0.09960000000000008,-0.08076586810929494
-0.10060000000000008,-0.0811478401602585
-0.10160000000000008,-0.08152981221122206
-0.10260000000000008,-0.08186934292318966
-0.10360000000000008,-0.08222302074815592
-0.10460000000000008,-0.08261913991211814
-0.10560000000000008,-0.08298696485008306
-0.10660000000000008,-0.08329820133605337
-0.10760000000000008,-0.08362358493502231
-0.10860000000000009,-0.08392067430799398
-0.10960000000000009,-0.08427435213296022
-0.11060000000000009,-0.08461388284492784
-0.11160000000000009,-0.0849392664438968
-0.11260000000000009,-0.08526465004286575
-0.11360000000000009,-0.08556173941583743
-0.11460000000000009,-0.08592956435380232
-0.11560000000000009,-0.0862832421787686
-0.11660000000000009,-0.08656618443874159
-0.1176000000000001,-0.08686327381171326
-0.1186000000000001,-0.08716036318468491
-0.1196000000000001,-0.0874433054446579
-0.1206000000000001,-0.08775454193062822
-0.1216000000000001,-0.08800918996460394
-0.1226000000000001,-0.08824969088558099
-0.1236000000000001,-0.08854678025855263
-0.1246000000000001,-0.08884386963152431
-0.1256000000000001,-0.0891268118914973
-0.1266000000000001,-0.08938145992547303
-0.1276000000000001,-0.08965025507244738
-0.1286000000000001,-0.08991905021942173
-0.1296000000000001,-0.09017369825339744
-0.1306000000000001,-0.09045664051337043
-0.1316000000000001,-0.09068299432134884
-0.1326000000000001,-0.09090934812932726
-0.1336000000000001,-0.09114984905030431
-0.1346000000000001,-0.09139034997128137
-0.1356000000000001,-0.09161670377925978
-0.1366000000000001,-0.09181476336124088
-0.1376000000000001,-0.09202697005622064
-0.1386000000000001,-0.09222502963820174
-0.1396000000000001,-0.09247967767217745
-0.1406000000000001,-0.09270603148015585
-0.14160000000000011,-0.09287579683613965
-0.14260000000000012,-0.09305970930512211
-0.14360000000000012,-0.09324362177410456
-0.14460000000000012,-0.09344168135608567
-0.14560000000000012,-0.09363974093806678
-0.14660000000000012,-0.09379535918105193
-0.14760000000000012,-0.09393683031103843
-0.14860000000000012,-0.09407830144102494
-0.14960000000000012,-0.0942622139100074
-0.15060000000000012,-0.09443197926599119
-0.15160000000000012,-0.09455930328297905
-0.15260000000000012,-0.09470077441296555
-0.15360000000000013,-0.0948280984299534
-0.15460000000000013,-0.0949695695599399
-0.15560000000000013,-0.0951110406899264
-0.15660000000000013,-0.09521007048091697
-0.15760000000000013,-0.09530910027190752
-0.15860000000000013,-0.09540813006289808
-0.15960000000000002,-0.09552130696688728
-0.16060000000000002,-0.09566277809687378
-0.16160000000000002,-0.0957193665488684
-0.16260000000000002,-0.09580424922686027
-0.16360000000000002,-0.09588913190485218
-0.16460000000000002,-0.09598816169584275
-0.16560000000000002,-0.09611548571283059
-0.16660000000000003,-0.09621451550382115
-0.16760000000000003,-0.0962286626168198
-0.16860000000000003,-0.0962852510688144
-0.16960000000000003,-0.09634183952080899
-0.17060000000000003,-0.0964267221988009
-0.17160000000000003,-0.09645501642479819
-0.17260000000000003,-0.09646916353779686
-0.17360000000000003,-0.09649745776379416
-0.17460000000000003,-0.09653989910279011
-0.17560000000000003,-0.0965964875547847
-0.17660000000000003,-0.09661063466778336
-0.17760000000000004,-0.0965964875547847
-0.17860000000000004,-0.096624781780782
-0.17960000000000004,-0.0966530760067793
-0.18060000000000004,-0.09666722311977795
-0.18160000000000004,-0.09666722311977795
-0.18260000000000004,-0.09663892889378066
-0.18360000000000004,-0.09661063466778336
-0.18460000000000004,-0.096624781780782
-0.18560000000000004,-0.096624781780782
-0.18660000000000004,-0.09661063466778336
-0.18760000000000004,-0.09656819332878741
-0.18860000000000005,-0.09652575198979144
-0.18960000000000005,-0.0965116048767928
-0.19060000000000005,-0.0965116048767928
-0.19160000000000005,-0.09645501642479819
-0.19260000000000005,-0.09641257508580224
-0.19360000000000005,-0.09634183952080899
-0.19460000000000005,-0.09631354529481169
-0.19560000000000005,-0.0962852510688144
-0.19660000000000005,-0.09621451550382115
-0.19760000000000005,-0.09614377993882789
-0.19860000000000005,-0.0960871914868333
-0.19960000000000006,-0.09603060303483868
-0.20060000000000006,-0.09597401458284409
-0.20160000000000006,-0.09588913190485218
-0.20260000000000006,-0.09583254345285759
-0.20360000000000006,-0.09573351366186703
-0.20460000000000006,-0.09566277809687378
-0.20560000000000006,-0.09562033675787783
-0.20660000000000006,-0.09552130696688728
-0.20760000000000006,-0.09542227717589671
-0.20860000000000006,-0.09532324738490616
-0.20960000000000006,-0.09525251181991291
-0.21060000000000006,-0.09521007048091697
-0.21160000000000007,-0.09509689357692777
-0.21260000000000007,-0.0949695695599399
-0.21360000000000007,-0.09488468688194801
-0.21460000000000007,-0.09478565709095746
-0.21560000000000007,-0.09471492152596421
-0.21660000000000007,-0.09461589173497365
-0.21760000000000007,-0.09451686194398311
-0.21860000000000007,-0.09438953792699524
-0.21960000000000007,-0.09430465524900335
-0.22060000000000007,-0.09421977257101144
-0.22160000000000007,-0.09409244855402359
-0.22260000000000008,-0.09395097742403709
-0.22360000000000008,-0.09383780052004788
-0.22460000000000008,-0.09375291784205599
-0.22560000000000008,-0.09363974093806678
-0.22660000000000008,-0.09352656403407757
-0.22760000000000008,-0.09338509290409107
-0.22860000000000008,-0.09327191600010187
-0.22960000000000008,-0.09314459198311402
-0.23060000000000008,-0.09305970930512211
-0.23160000000000008,-0.09293238528813427
-0.23260000000000008,-0.0928050612711464
-0.23360000000000009,-0.09264944302816126
-0.2346000000000001,-0.09253626612417204
-0.2356000000000001,-0.0924372363331815
-0.2366000000000001,-0.09232405942919229
-0.2376000000000001,-0.09216844118620715
-0.2386000000000001,-0.09204111716921928
-0.2396000000000001,-0.09191379315223143
-0.2406000000000001,-0.09181476336124088
-0.2416000000000001,-0.09167329223125438
-0.2426000000000001,-0.09156011532726518
-0.2436000000000001,-0.09141864419727867
-0.2446000000000001,-0.09129132018029082
-0.2456000000000001,-0.09117814327630162
-0.2466000000000001,-0.09105081925931376
-0.2476000000000001,-0.09090934812932726
-0.2486000000000001,-0.0907820241123394
-0.2496000000000001,-0.09066884720835021
-0.2506000000000001,-0.090555670304361
-0.2516000000000001,-0.0904141991743745
-0.2526000000000001,-0.09027272804438799
-0.2536000000000001,-0.09014540402740015
-0.2546000000000001,-0.09001808001041228
-0.2556000000000001,-0.08991905021942173
-0.2566000000000001,-0.08980587331543252
-0.2576000000000001,-0.08963610795944872
-0.2586000000000001,-0.08949463682946222
-0.2596000000000001,-0.08936731281247437
-0.2606000000000001,-0.08926828302148382
-0.2616000000000001,-0.0891268118914973
-0.2626000000000001,-0.08899948787450947
-0.2636000000000001,-0.08885801674452294
-0.2646000000000001,-0.08874483984053375
-0.2656000000000001,-0.0886458100495432
-0.2666000000000001,-0.088532633145554
-0.2676000000000001,-0.08837701490256884
-0.2686000000000001,-0.08824969088558099
-0.2696000000000001,-0.08813651398159178
-0.2706000000000001,-0.08805163130359987
-0.2716000000000001,-0.08793845439961068
-0.2726000000000001,-0.08781113038262284
-0.2736000000000001,-0.08766965925263633
-0.2746000000000001,-0.08755648234864712
-0.2756000000000001,-0.08748574678365387
-0.2766000000000001,-0.08735842276666603
-0.2776000000000001,-0.08723109874967816
-0.2786000000000001,-0.08711792184568896
-0.2796000000000001,-0.0869905978287011
-0.2806000000000001,-0.08691986226370785
-0.28160000000000013,-0.08680668535971865
-0.28260000000000013,-0.08666521422973215
-0.28360000000000013,-0.08655203732574294
-0.2846,-0.08643886042175375
-0.2856,-0.08635397774376184
-0.2866,-0.08622665372677399
-0.2876,-0.08609932970978613
-0.2886,-0.08598615280579694
-0.2896,-0.08587297590180773
-0.2906,-0.08578809322381582
-0.2916,-0.08567491631982663
-0.2926,-0.08553344518984012
-0.2936,-0.08543441539884956
-0.29460000000000003,-0.08532123849486037
-0.29560000000000003,-0.08523635581686846
-0.29660000000000003,-0.08513732602587791
-0.29760000000000003,-0.08501000200889006
-0.29860000000000003,-0.08489682510490085
-0.29960000000000003,-0.0847977953139103
-0.30060000000000003,-0.0847129126359184
-0.30160000000000003,-0.08462802995792648
-0.30260000000000004,-0.08448655882793998
-0.30360000000000004,-0.08437338192395079
-0.30460000000000004,-0.08427435213296022
-0.30560000000000004,-0.08421776368096563
-0.30660000000000004,-0.08411873388997508
-0.30760000000000004,-0.08401970409898453
-0.30860000000000004,-0.08390652719499532
-0.30960000000000004,-0.08382164451700343
-0.31060000000000004,-0.08373676183901152
-0.31160000000000004,-0.08366602627401826
-0.31260000000000004,-0.08358114359602638
-0.31360000000000005,-0.08346796669203715
-0.31460000000000005,-0.08338308401404526
-0.31560000000000005,-0.08331234844905201
-0.31660000000000005,-0.08322746577106012
-0.31760000000000005,-0.08311428886707091
-0.31860000000000005,-0.083029406189079
-0.31960000000000005,-0.08295867062408575
-0.32060000000000005,-0.08290208217209115
-0.32160000000000005,-0.0828030523811006
-0.32260000000000005,-0.08270402259011005
-0.32360000000000005,-0.0826049927991195
-0.32460000000000006,-0.08252011012112759
-0.32560000000000006,-0.08247766878213163
-0.32660000000000006,-0.08239278610413973
-0.32760000000000006,-0.08225131497415322
-0.32860000000000006,-0.08216643229616134
-0.32960000000000006,-0.08210984384416672
-0.33060000000000006,-0.08203910827917348
-0.33160000000000006,-0.08196837271418023
-0.33260000000000006,-0.08185519581019103
-0.33360000000000006,-0.08177031313219911
-0.33460000000000006,-0.08169957756720586
-0.33560000000000006,-0.08164298911521127
-0.33660000000000007,-0.08157225355021802
-0.33760000000000007,-0.08147322375922747
-0.33860000000000007,-0.08140248819423422
-0.33960000000000007,-0.08130345840324366
-0.34060000000000007,-0.08124686995124906
-0.34160000000000007,-0.08117613438625582
-0.34260000000000007,-0.08107710459526525
-0.34360000000000007,-0.08099222191727334
-0.3446000000000001,-0.08093563346527875
-0.3456000000000001,-0.08087904501328413
-0.3466000000000001,-0.08079416233529225
-0.34759999999999996,-0.08072342677029899
-0.3486000000000001,-0.08065269120530574
-0.34959999999999997,-0.08055366141431519
-0.3506000000000001,-0.08052536718831789
-0.35159999999999997,-0.08046877873632328
-0.3526000000000001,-0.08036974894533275
-0.35359999999999997,-0.08031316049333813
-0.3546000000000001,-0.08022827781534624
-0.35559999999999997,-0.08019998358934893
-0.3566000000000001,-0.08012924802435568
-0.3576,-0.08005851245936244
-0.3586000000000001,-0.07998777689436919
-0.3596,-0.07993118844237457
-0.3606000000000001,-0.07990289421637728
-0.3616,-0.07983215865138403
-0.3626000000000001,-0.07976142308639078
-0.3636,-0.07970483463439616
-0.3646000000000001,-0.07961995195640426
-0.3656,-0.07956336350440966
-0.3666000000000001,-0.07953506927841236
-0.3676,-0.0794643337134191
-0.3686000000000001,-0.07939359814842585
-0.3696,-0.0793228625834326
-0.3706000000000001,-0.0793228625834326
-0.3716,-0.07928042124443666
-0.3726000000000001,-0.07919553856644475
-0.3736,-0.0791530972274488
-0.3746000000000001,-0.07905406743645825
-0.3756,-0.07903992032345959
-0.3766000000000001,-0.07899747898446366
-0.3776,-0.07891259630647175
-0.3786000000000001,-0.07885600785447715
-0.3796,-0.0787852722894839
-0.3806000000000001,-0.0787569780634866
-0.3816,-0.07871453672449064
-0.3826000000000001,-0.07862965404649873
-0.3836,-0.07858721270750278
-0.3846000000000001,-0.07854477136850684
-0.3856,-0.07850233002951089
-0.3866000000000001,-0.07848818291651223
-0.3876,-0.07841744735151898
-0.3886000000000001,-0.07834671178652573
-0.3896,-0.07829012333453113
-0.3906000000000001,-0.07827597622153248
-0.3916,-0.07823353488253654
-0.3926000000000001,-0.07819109354354058
-0.3936,-0.07810621086554868
-0.3946000000000001,-0.07806376952655272
-0.3956,-0.07804962241355407
-0.3966000000000001,-0.07800718107455813
-0.3976,-0.07795059262256351
-0.3986000000000001,-0.07789400417056892
-0.3996,-0.07782326860557567
-0.4006000000000001,-0.07780912149257702
-0.4016,-0.07779497437957837
-0.4026000000000001,-0.07772423881458512
-0.4036,-0.0776676503625905
-0.4046000000000001,-0.07762520902359457
-0.4056,-0.07761106191059591
-0.40660000000000013,-0.07759691479759726
-0.4076,-0.07754032634560266
-0.40860000000000013,-0.07748373789360806
-0.4096,-0.0774412965546121
-0.41060000000000013,-0.07741300232861481
-0.4116,-0.07738470810261751
-0.41260000000000013,-0.0773281196506229
-0.4136,-0.07728567831162694
-0.41460000000000014,-0.07724323697263101
-0.4156,-0.0772149427466337
-0.41660000000000014,-0.0772149427466337
-0.4176,-0.07714420718164045
-0.41860000000000014,-0.07711591295564316
-0.41960000000000003,-0.0770734716166472
-0.42060000000000014,-0.07704517739064991
-0.42160000000000003,-0.07705932450364854
-0.42260000000000014,-0.07700273605165395
-0.42360000000000003,-0.07696029471265799
-0.42460000000000014,-0.0769320004866607
-0.42560000000000003,-0.0769037062606634
-0.42660000000000015,-0.07688955914766474
-0.42760000000000004,-0.07684711780866879
-0.42860000000000015,-0.07680467646967284
-0.42960000000000004,-0.0767622351306769
-0.43060000000000015,-0.07674808801767824
-0.43160000000000004,-0.07674808801767824
-0.43260000000000015,-0.0767056466786823
-0.43360000000000004,-0.07666320533968635
-0.43460000000000015,-0.07663491111368903
-0.43560000000000004,-0.0766207640006904
