Potential V vs RHE, Current mA cm-2
0.05339999999999995,-0.4678450268653676
0.05239999999999995,-0.558669492316703
0.051399999999999946,-0.6397324497989695
0.050399999999999945,-0.6864179226945158
0.049399999999999944,-0.7151365620817761
0.04839999999999994,-0.7352254625398595
0.04739999999999994,-0.7500799311884424
0.04639999999999994,-0.7618220349773223
0.04539999999999994,-0.7720079563363506
0.04439999999999994,-0.7814865220454462
0.04339999999999994,-0.789550376454677
0.04239999999999994,-0.7967654040839887
0.04139999999999994,-0.8029901338033948
0.040399999999999936,-0.8097807480427469
0.039399999999999935,-0.8162884200221262
0.038399999999999934,-0.8223716786115459
0.03739999999999993,-0.8273231681610735
0.03639999999999993,-0.8315673020606686
0.03539999999999993,-0.8360943782202367
0.03439999999999993,-0.841187338899751
0.03339999999999993,-0.8455729439293325
0.03239999999999993,-0.8489682510490086
0.03139999999999993,-0.8532123849486036
0.030399999999999927,-0.8568906343282527
0.029399999999999926,-0.8614177104878209
0.028399999999999925,-0.865378902127443
0.027399999999999924,-0.868774209247119
0.026399999999999924,-0.8724524586267681
0.025399999999999923,-0.8757062946164578
0.024399999999999922,-0.8796674862560799
0.02339999999999992,-0.8833457356357289
0.02239999999999992,-0.8857507448454994
0.02139999999999992,-0.888721638575216
0.020399999999999918,-0.8925413590848515
0.019399999999999917,-0.8960781373345142
0.018399999999999916,-0.8990490310642308
0.017399999999999916,-0.9013125691440148
0.016399999999999915,-0.9040005206137584
0.015399999999999914,-0.9073958277334346
0.014399999999999913,-0.9102252503331645
0.013399999999999912,-0.912913201802908
0.012399999999999911,-0.9154596821426652
0.01139999999999991,-0.9174402779624763
0.01039999999999991,-0.9205526428221793
0.009399999999999908,-0.9230991231619364
0.008399999999999908,-0.9256456035016934
0.007399999999999907,-0.9280506127114639
0.006399999999999906,-0.9300312085312752
0.005399999999999905,-0.9332850445209646
0.004399999999999904,-0.9361144671206947
0.003399999999999903,-0.9385194763304654
0.002399999999999902,-0.9410659566702223
0.0013999999999999013,-0.9429050813600469
0.00039999999999990044,-0.945734503959777
-0.0006000000000001005,-0.9488468688194802
-0.0016000000000001013,-0.9509689357692777
-0.0026000000000001022,-0.9532324738490617
-0.003600000000000103,-0.9550715985388862
-0.004600000000000104,-0.9580424922686028
-0.005600000000000105,-0.9615792705182654
-0.006600000000000106,-0.9644086931179956
-0.007600000000000107,-0.9670966445877391
-0.008600000000000108,-0.9699260671874691
-0.009600000000000108,-0.9723310763972398
-0.01060000000000011,-0.9755849123869293
-0.01160000000000011,-0.9784143349866592
-0.012600000000000111,-0.9820925843663083
-0.013600000000000112,-0.9849220069660385
-0.014600000000000113,-0.9871855450458225
-0.015600000000000114,-0.9907223232954853
-0.016600000000000115,-0.9939761592851746
-0.017600000000000116,-0.9966641107549185
-0.018600000000000116,-1.0002008890045808
-0.019600000000000117,-1.0038791383842298
-0.020600000000000118,-1.0074159166338927
-0.02160000000000012,-1.011518579403501
-0.02260000000000012,-1.0146309442632042
-0.02360000000000012,-1.0184506647728397
-0.024600000000000122,-1.023260683192381
-0.025600000000000123,-1.027504817091976
-0.026600000000000124,-1.0321733643815307
-0.027600000000000124,-1.036417498281126
-0.028600000000000125,-1.040944574440694
-0.029600000000000126,-1.0458960639902217
-0.030600000000000127,-1.0511304957997225
-0.03160000000000013,-1.0567893409991824
-0.03260000000000013,-1.061457888288737
-0.03360000000000013,-1.066692320098238
-0.03460000000000002,-1.0727755786876572
-0.03560000000000002,-1.0784344238871173
-0.03660000000000002,-1.0848006247365103
-0.03760000000000002,-1.0913082967158894
-0.03860000000000002,-1.097391555305309
-0.039600000000000024,-1.104182169544661
-0.040600000000000025,-1.1113971971739727
-0.041600000000000026,-1.118187811413325
-0.04260000000000003,-1.1256857813026095
-0.04360000000000003,-1.1323349244119754
-0.04460000000000003,-1.1399743654312466
-0.04560000000000003,-1.14832116210045
-0.04660000000000003,-1.156102074249708
-0.04760000000000003,-1.1640244575289522
-0.04860000000000003,-1.1726541964581287
-0.04960000000000003,-1.1815668776472785
-0.050600000000000034,-1.191186914486361
-0.051600000000000035,-1.1995337111555648
-0.052600000000000036,-1.2084463923447144
-0.053600000000000037,-1.2175005446638505
-0.05460000000000004,-1.2269791103729464
-0.05560000000000004,-1.237872387381907
-0.05660000000000004,-1.2479168376109488
-0.05760000000000004,-1.257253932190058
-0.05860000000000004,-1.2671569112891135
-0.05960000000000004,-1.277201361518155
-0.06060000000000004,-1.288094638527116
-0.061600000000000044,-1.2988464444060903
-0.06260000000000004,-1.3094567791550777
-0.06360000000000005,-1.320632998424012
-0.06460000000000005,-1.331667746562959
-0.06560000000000005,-1.3422780813119468
-0.06660000000000005,-1.3537372428408536
-0.06760000000000005,-1.3646305198498143
-0.06860000000000005,-1.3759482102487348
-0.06960000000000005,-1.388114727427574
-0.07060000000000005,-1.3999983023464404
-0.07160000000000005,-1.411174521615374
-0.07260000000000005,-1.421784856364362
-0.07360000000000005,-1.433102546763282
-0.07460000000000006,-1.4458349484620676
-0.07560000000000006,-1.4585673501608527
-0.07660000000000006,-1.4698850405597732
-0.07760000000000006,-1.4812027309586933
-0.07860000000000006,-1.4925204213576138
-0.07960000000000006,-1.5038381117565338
-0.08060000000000006,-1.5165705134553193
-0.08160000000000006,-1.5278882038542394
-0.08260000000000006,-1.53920589425316
-0.08360000000000006,-1.55052358465208
-0.08460000000000006,-1.5618412750510005
-0.08560000000000006,-1.5745736767497858
-0.08660000000000007,-1.585891367148706
-0.08760000000000007,-1.5972090575476263
-0.08860000000000007,-1.6085267479465466
-0.08960000000000007,-1.6198444383454669
-0.09060000000000007,-1.6311621287443874
-0.09160000000000007,-1.6424798191433077
-0.09260000000000007,-1.6523827982423631
-0.09360000000000007,-1.6637004886412832
-0.09460000000000007,-1.6750181790402037
-0.09560000000000007,-1.6863358694391237
-0.09660000000000007,-1.6976535598380442
-0.09760000000000008,-1.7075565389370995
-0.09860000000000008,-1.7188742293360195
-0.09960000000000008,-1.7301919197349398
-0.10060000000000008,-1.7415096101338603
-0.10160000000000008,-1.7528273005327806
-0.10260000000000008,-1.7627302796318356
-0.10360000000000008,-1.772633258730891
-0.10460000000000008,-1.7839509491298113
-0.10560000000000008,-1.7952686395287314
-0.10660000000000008,-1.8051716186277869
-0.10760000000000008,-1.8164893090267071
-0.10860000000000009,-1.8263922881257622
-0.10960000000000009,-1.8377099785246829
-0.11060000000000009,-1.849027668923603
-0.11160000000000009,-1.8589306480226582
-0.11260000000000009,-1.8702483384215782
-0.11360000000000009,-1.8801513175206337
-0.11460000000000009,-1.891469007919554
-0.11560000000000009,-1.9042014096183393
-0.11660000000000009,-1.9141043887173947
-0.1176000000000001,-1.92400736781645
-0.1186000000000001,-1.933910346915505
-0.1196000000000001,-1.9452280373144257
-0.1206000000000001,-1.9565457277133458
-0.1216000000000001,-1.9664487068124006
-0.1226000000000001,-1.9777663972113213
-0.1236000000000001,-1.9890840876102414
-0.1246000000000001,-2.0004017780091616
-0.1256000000000001,-2.013134179707947
-0.1266000000000001,-2.0244518701068674
-0.1276000000000001,-2.0343548492059225
-0.1286000000000001,-2.047087250904708
-0.1296000000000001,-2.0584049413036287
-0.1306000000000001,-2.0697226317025486
-0.1316000000000001,-2.081040322101469
-0.1326000000000001,-2.0937727238002544
-0.1336000000000001,-2.105090414199175
-0.1346000000000001,-2.11782281589796
-0.1356000000000001,-2.1305552175967453
-0.1366000000000001,-2.1418729079956655
-0.1376000000000001,-2.1531905983945863
-0.1386000000000001,-2.1673377113932366
-0.1396000000000001,-2.1800701130920217
-0.1406000000000001,-2.192802514790807
-0.14160000000000011,-2.205534916489592
-0.14260000000000012,-2.2182673181883774
-0.14360000000000012,-2.230999719887163
-0.14460000000000012,-2.2437321215859485
-0.14560000000000012,-2.257879234584599
-0.14660000000000012,-2.2706116362833835
-0.14760000000000012,-2.283344037982169
-0.14860000000000012,-2.296076439680954
-0.14960000000000012,-2.3130529752793345
-0.15060000000000012,-2.33144422217758
-0.15160000000000012,-2.3455913351762305
-0.15260000000000012,-2.359738448174881
-0.15360000000000013,-2.3738855611735317
-0.15460000000000013,-2.388032674172182
-0.15560000000000013,-2.4007650758709675
-0.15660000000000013,-2.4134974775697526
-0.15760000000000013,-2.427644590568403
-0.15860000000000013,-2.4417917035670533
-0.15960000000000002,-2.4559388165657037
-0.16060000000000002,-2.4700859295643536
-0.16160000000000002,-2.4842330425630044
-0.16260000000000002,-2.4983801555616547
-0.16360000000000002,-2.512527268560305
-0.16460000000000002,-2.5266743815589554
-0.16560000000000002,-2.543650917157336
-0.16660000000000003,-2.5606274527557162
-0.16760000000000003,-2.5733598544545018
-0.16860000000000003,-2.587506967453152
-0.16960000000000003,-2.6016540804518025
-0.17060000000000003,-2.6172159047503176
-0.17160000000000003,-2.6327777290488332
-0.17260000000000003,-2.6469248420474836
-0.17360000000000003,-2.661071955046134
-0.17460000000000003,-2.6766337793446495
-0.17560000000000003,-2.69361031494303
-0.17660000000000003,-2.7077574279416803
-0.17760000000000004,-2.7233192522401954
-0.17860000000000004,-2.738881076538711
-0.17960000000000004,-2.7530281895373614
-0.18060000000000004,-2.768590013835877
-0.18160000000000004,-2.785566549434257
-0.18260000000000004,-2.8011283737327726
-0.18360000000000004,-2.8166901980312877
-0.18460000000000004,-2.833666733629668
-0.18560000000000004,-2.8492285579281837
-0.18660000000000004,-2.864790382226699
-0.18760000000000004,-2.8803522065252145
-0.18860000000000005,-2.8944993195238653
-0.18960000000000005,-2.9114758551222453
-0.19060000000000005,-2.927037679420761
-0.19160000000000005,-2.942599503719276
-0.19260000000000005,-2.9581613280177916
-0.19360000000000005,-2.973723152316307
-0.19460000000000005,-2.989284976614823
-0.19560000000000005,-3.004846800913338
-0.19660000000000005,-3.0204086252118536
-0.19760000000000005,-3.0359704495103688
-0.19860000000000005,-3.050117562509019
-0.19960000000000006,-3.0670940981073995
-0.20060000000000006,-3.082655922405915
-0.20160000000000006,-3.0968030354045655
-0.20260000000000006,-3.1123648597030806
-0.20360000000000006,-3.126511972701731
-0.20460000000000006,-3.1420737970002466
-0.20560000000000006,-3.1576356212987617
-0.20660000000000006,-3.1731974455972773
-0.20760000000000006,-3.1873445585959277
-0.20860000000000006,-3.201491671594578
-0.20960000000000006,-3.2156387845932284
-0.21060000000000006,-3.2312006088917435
-0.21160000000000007,-3.2453477218903943
-0.21260000000000007,-3.2594948348890447
-0.21360000000000007,-3.27505665918756
-0.21460000000000007,-3.2906184834860754
-0.21560000000000007,-3.3047655964847262
-0.21660000000000007,-3.3189127094833766
-0.21760000000000007,-3.3330598224820265
-0.21860000000000007,-3.347206935480677
-0.21960000000000007,-3.361354048479327
-0.22060000000000007,-3.3740864501781123
-0.22160000000000007,-3.3882335631767626
-0.22260000000000008,-3.400965964875548
-0.22360000000000008,-3.415113077874199
-0.22460000000000008,-3.4292601908728493
-0.22560000000000008,-3.4419925925716344
-0.22660000000000008,-3.4561397055702843
-0.22760000000000008,-3.46887210726907
-0.22860000000000008,-3.4816045089678553
-0.22960000000000008,-3.4957516219665052
-0.23060000000000008,-3.508484023665291
-0.23160000000000008,-3.5212164253640763
-0.23260000000000008,-3.533948827062862
-0.23360000000000009,-3.545266517461782
-0.2346000000000001,-3.557998919160567
-0.2356000000000001,-3.572146032159218
-0.2366000000000001,-3.586293145157868
-0.2376000000000001,-3.5990255468566534
-0.2386000000000001,-3.6103432372555737
-0.2396000000000001,-3.623075638954359
-0.2406000000000001,-3.6343933293532795
-0.2416000000000001,-3.6457110197521994
-0.2426000000000001,-3.65702871015112
-0.2436000000000001,-3.6683464005500404
-0.2446000000000001,-3.67966409094896
-0.2456000000000001,-3.6923964926477457
-0.2466000000000001,-3.7037141830466664
-0.2476000000000001,-3.713617162145721
-0.2486000000000001,-3.7249348525446417
-0.2496000000000001,-3.734837831643697
-0.2506000000000001,-3.747570233342482
-0.2516000000000001,-3.7574732124415373
-0.2526000000000001,-3.768790902840458
-0.2536000000000001,-3.7786938819395126
-0.2546000000000001,-3.788596861038568
-0.2556000000000001,-3.798499840137624
-0.2566000000000001,-3.8084028192366786
-0.2576000000000001,-3.818305798335734
-0.2586000000000001,-3.8282087774347895
-0.2596000000000001,-3.8366970452339793
-0.2606000000000001,-3.84518531303317
-0.2616000000000001,-3.855088292132225
-0.2626000000000001,-3.8649912712312804
-0.2636000000000001,-3.8734795390304706
-0.2646000000000001,-3.8833825181295256
-0.2656000000000001,-3.8932854972285815
-0.2666000000000001,-3.9046031876275014
-0.2676000000000001,-3.9130914554266916
-0.2686000000000001,-3.9215797232258818
-0.2696000000000001,-3.9300679910250715
-0.2706000000000001,-3.939970970124127
-0.2716000000000001,-3.9484592379233177
-0.2726000000000001,-3.956947505722508
-0.2736000000000001,-3.9640210622218324
-0.2746000000000001,-3.9725093300210226
-0.2756000000000001,-3.9809975978202137
-0.2766000000000001,-3.9894858656194034
-0.2776000000000001,-3.9965594221187284
-0.2786000000000001,-4.003632978618054
-0.2796000000000001,-4.01070653511738
-0.2806000000000001,-4.019194802916569
-0.28160000000000013,-4.026268359415894
-0.28260000000000013,-4.034756627215084
-0.28360000000000013,-4.04183018371441
-0.2846,-4.048903740213735
-0.2856,-4.05597729671306
-0.2866,-4.0644655645122505
-0.2876,-4.0715391210115754
-0.2886,-4.078612677510901
-0.2896,-4.085686234010226
-0.2906,-4.094174501809416
-0.2916,-4.102662769608606
-0.2926,-4.108321614808066
-0.2936,-4.116809882607257
-0.29460000000000003,-4.1238834391065815
-0.29560000000000003,-4.132371706905772
-0.29660000000000003,-4.139445263405097
-0.29760000000000003,-4.147933531204288
-0.29860000000000003,-4.1564217990034775
-0.29960000000000003,-4.164910066802668
-0.30060000000000003,-4.1762277572015885
-0.30160000000000003,-4.184716025000778
-0.30260000000000004,-4.191789581500104
-0.30360000000000004,-4.200277849299294
-0.30460000000000004,-4.2087661170984845
-0.30560000000000004,-4.215839673597809
-0.30660000000000004,-4.224327941396999
-0.30760000000000004,-4.23281620919619
-0.30860000000000004,-4.242719188295245
-0.30960000000000004,-4.251207456094435
-0.31060000000000004,-4.259695723893626
-0.31160000000000004,-4.2681839916928155
-0.31260000000000004,-4.276672259492005
-0.31360000000000005,-4.283745815991331
-0.31460000000000005,-4.2936487950903865
-0.31560000000000005,-4.302137062889576
-0.31660000000000005,-4.310625330688767
-0.31760000000000005,-4.319113598487957
-0.31860000000000005,-4.327601866287147
-0.31960000000000005,-4.338919556686067
-0.32060000000000005,-4.348822535785122
-0.32160000000000005,-4.358725514884178
-0.32260000000000005,-4.368628493983234
-0.32360000000000005,-4.377116761782423
-0.32460000000000006,-4.387019740881478
-0.32560000000000006,-4.396922719980535
-0.32660000000000006,-4.406825699079589
-0.32760000000000006,-4.416728678178644
-0.32860000000000006,-4.425216945977835
-0.32960000000000006,-4.433705213777024
-0.33060000000000006,-4.445022904175945
-0.33160000000000006,-4.453511171975136
-0.33260000000000006,-4.463414151074191
-0.33360000000000006,-4.473317130173245
-0.33460000000000006,-4.481805397972437
-0.33560000000000006,-4.493123088371357
-0.33660000000000007,-4.5044407787702765
-0.33760000000000007,-4.512929046569467
-0.33860000000000007,-4.522832025668523
-0.33960000000000007,-4.532735004767577
-0.34060000000000007,-4.544052695166498
-0.34160000000000007,-4.553955674265553
-0.34260000000000007,-4.5638586533646075
-0.34360000000000007,-4.573761632463664
-0.3446000000000001,-4.585079322862584
-0.3456000000000001,-4.596397013261504
-0.3466000000000001,-4.607714703660425
-0.34759999999999996,-4.61761768275948
-0.3486000000000001,-4.627520661858535
-0.34959999999999997,-4.63742364095759
-0.3506000000000001,-4.647326620056646
-0.35159999999999997,-4.658644310455566
-0.3526000000000001,-4.672791423454216
-0.35359999999999997,-4.685523825153001
-0.3546000000000001,-4.696841515551922
-0.35559999999999997,-4.705329783351112
-0.3566000000000001,-4.7138180511503025
-0.3576,-4.723721030249357
-0.3586000000000001,-4.730794586748683
-0.3596,-4.7406975658477375
-0.3606000000000001,-4.749185833646928
-0.3616,-4.757674101446118
-0.3626000000000001,-4.764747657945444
-0.3636,-4.773235925744634
-0.3646000000000001,-4.781724193543823
-0.3656,-4.790212461343015
-0.3666000000000001,-4.798700729142205
-0.3676,-4.800115440442069
-0.3686000000000001,-4.807188996941395
-0.3696,-4.819921398640179
-0.3706000000000001,-4.8312390890391
-0.3716,-4.842556779438021
-0.3726000000000001,-4.851045047237211
-0.3736,-4.8581186037365365
-0.3746000000000001,-4.865192160235861
-0.3756,-4.873680428035052
-0.3766000000000001,-4.880753984534377
-0.3776,-4.889242252333567
-0.3786000000000001,-4.8977305201327574
-0.3796,-4.904804076632082
-0.3806000000000001,-4.911877633131407
-0.3816,-4.918951189630732
-0.3826000000000001,-4.920365900930598
-0.3836,-4.923195323530328
-0.3846000000000001,-4.927439457429923
-0.3856,-4.933098302629383
-0.3866000000000001,-4.9444159930283025
-0.3876,-4.952904260827493
-0.3886000000000001,-4.959977817326819
-0.3896,-4.965636662526279
-0.3906000000000001,-4.971295507725738
-0.3916,-4.978369064225063
-0.3926000000000001,-4.985442620724389
-0.3936,-4.991101465923849
-0.3946000000000001,-4.996760311123309
-0.3956,-5.002419156322769
-0.3966000000000001,-5.00807800152223
-0.3976,-5.01373684672169
-0.3986000000000001,-5.015151558021555
-0.3996,-5.01090742412196
-0.4006000000000001,-5.015151558021555
-0.4016,-5.01939569192115
-0.4026000000000001,-5.0222251145208805
-0.4036,-5.02505453712061
-0.4046000000000001,-5.027883959720341
-0.4056,-5.032128093619936
-0.40660000000000013,-5.034957516219666
-0.4076,-5.037786938819395
-0.40860000000000013,-5.039201650119261
-0.4096,-5.0420310727189905
-0.41060000000000013,-5.043445784018855
-0.4116,-5.044860495318721
-0.41260000000000013,-5.046275206618586
-0.4136,-5.047689917918451
-0.41460000000000014,-5.0491046292183155
-0.4156,-5.050519340518181
-0.41660000000000014,-5.050519340518181
-0.4176,-5.050519340518181
-0.41860000000000014,-5.051934051818047
-0.41960000000000003,-5.053348763117911
-0.42060000000000014,-5.053348763117911
-0.42160000000000003,-5.0547634744177765
-0.42260000000000014,-5.056178185717641
-0.42360000000000003,-5.0547634744177765
-0.42460000000000014,-5.0547634744177765
-0.42560000000000003,-5.056178185717641
-0.42660000000000015,-5.056178185717641
-0.42760000000000004,-5.056178185717641
-0.42860000000000015,-5.0547634744177765
-0.42960000000000004,-5.056178185717641
-0.43060000000000015,-5.056178185717641
-0.43160000000000004,-5.056178185717641
-0.43260000000000015,-5.056178185717641
-0.43360000000000004,-5.056178185717641
-0.43460000000000015,-5.056178185717641
-0.43560000000000004,-5.057592897017507
-0.43660000000000015,-5.057592897017507
-0.43760000000000004,-5.057592897017507
-0.43860000000000016,-5.057592897017507
-0.43960000000000005,-5.057592897017507
-0.44060000000000016,-5.059007608317371
-0.44160000000000005,-5.060422319617237
-0.44260000000000016,-5.059007608317371
-0.44360000000000005,-5.059007608317371
-0.44460000000000016,-5.060422319617237
-0.44560000000000005,-5.0618370309171015
-0.44660000000000016,-5.063251742216966
-0.44760000000000005,-5.06466645351683
-0.44860000000000017,-5.06466645351683
-0.44960000000000006,-5.066081164816696
-0.45060000000000017,-5.068910587416426
-0.45160000000000006,-5.070325298716291
-0.45260000000000017,-5.070325298716291
-0.45360000000000006,-5.073154721316022
