Sept. 27, 2024   21:57:00
Linear Sweep Voltammetry
File: c:/users/guazh/data/20240922_batch_417_500/2024-09-22-exp466\1acid_2ac-2024-09-27t21_53_46-lsvinphos\1acid_2ac_lsv_50mvs_efin_-2300mv.bin
Data Source:  Experiment
Instrument Model:  CHI760E
Header: LSV ran at 50 mVs with Efin at -2300mV
Note: 

Init E (V) = -0.6
Final E (V) = -2.3
Scan Rate (V/s) = 0.05
Sample Interval (V) = 0.001
Quiet Time (sec) = 2
Sensitivity (A/V) = 1e-4
Comp R (ohm) = 13.9

Results:

Channel 1:
Ep = -1.841V
ip = 7.910e-4A
Ah = 1.024e-3C

Potential/V, Current/A

-0.600, 7.113e-6
-0.601, 7.251e-6
-0.602, 7.312e-6
-0.603, 7.356e-6
-0.604, 7.394e-6
-0.605, 7.432e-6
-0.606, 7.470e-6
-0.607, 7.505e-6
-0.608, 7.539e-6
-0.609, 7.579e-6
-0.610, 7.611e-6
-0.611, 7.645e-6
-0.612, 7.677e-6
-0.613, 7.706e-6
-0.614, 7.741e-6
-0.615, 7.772e-6
-0.616, 7.801e-6
-0.617, 7.834e-6
-0.618, 7.861e-6
-0.619, 7.892e-6
-0.620, 7.922e-6
-0.621, 7.947e-6
-0.622, 7.975e-6
-0.623, 7.999e-6
-0.624, 8.026e-6
-0.625, 8.052e-6
-0.626, 8.080e-6
-0.627, 8.106e-6
-0.628, 8.133e-6
-0.629, 8.155e-6
-0.630, 8.182e-6
-0.631, 8.207e-6
-0.632, 8.232e-6
-0.633, 8.258e-6
-0.634, 8.283e-6
-0.635, 8.308e-6
-0.636, 8.329e-6
-0.637, 8.350e-6
-0.638, 8.372e-6
-0.639, 8.392e-6
-0.640, 8.415e-6
-0.641, 8.439e-6
-0.642, 8.458e-6
-0.643, 8.478e-6
-0.644, 8.499e-6
-0.645, 8.518e-6
-0.646, 8.537e-6
-0.647, 8.552e-6
-0.648, 8.569e-6
-0.649, 8.589e-6
-0.650, 8.603e-6
-0.651, 8.621e-6
-0.652, 8.637e-6
-0.653, 8.652e-6
-0.654, 8.668e-6
-0.655, 8.681e-6
-0.656, 8.697e-6
-0.657, 8.715e-6
-0.658, 8.728e-6
-0.659, 8.745e-6
-0.660, 8.759e-6
-0.661, 8.773e-6
-0.662, 8.790e-6
-0.663, 8.798e-6
-0.664, 8.809e-6
-0.665, 8.822e-6
-0.666, 8.833e-6
-0.667, 8.847e-6
-0.668, 8.852e-6
-0.669, 8.862e-6
-0.670, 8.873e-6
-0.671, 8.883e-6
-0.672, 8.891e-6
-0.673, 8.901e-6
-0.674, 8.904e-6
-0.675, 8.913e-6
-0.676, 8.922e-6
-0.677, 8.928e-6
-0.678, 8.935e-6
-0.679, 8.941e-6
-0.680, 8.949e-6
-0.681, 8.957e-6
-0.682, 8.958e-6
-0.683, 8.962e-6
-0.684, 8.966e-6
-0.685, 8.970e-6
-0.686, 8.975e-6
-0.687, 8.977e-6
-0.688, 8.979e-6
-0.689, 8.982e-6
-0.690, 8.986e-6
-0.691, 8.988e-6
-0.692, 8.990e-6
-0.693, 8.990e-6
-0.694, 8.990e-6
-0.695, 8.992e-6
-0.696, 8.991e-6
-0.697, 8.992e-6
-0.698, 8.993e-6
-0.699, 8.993e-6
-0.700, 8.990e-6
-0.701, 8.991e-6
-0.702, 8.989e-6
-0.703, 8.984e-6
-0.704, 8.985e-6
-0.705, 8.984e-6
-0.706, 8.981e-6
-0.707, 8.981e-6
-0.708, 8.978e-6
-0.709, 8.972e-6
-0.710, 8.970e-6
-0.711, 8.967e-6
-0.712, 8.964e-6
-0.713, 8.960e-6
-0.714, 8.954e-6
-0.715, 8.953e-6
-0.716, 8.949e-6
-0.717, 8.946e-6
-0.718, 8.938e-6
-0.719, 8.931e-6
-0.720, 8.924e-6
-0.721, 8.918e-6
-0.722, 8.911e-6
-0.723, 8.905e-6
-0.724, 8.899e-6
-0.725, 8.890e-6
-0.726, 8.886e-6
-0.727, 8.880e-6
-0.728, 8.872e-6
-0.729, 8.865e-6
-0.730, 8.862e-6
-0.731, 8.856e-6
-0.732, 8.848e-6
-0.733, 8.840e-6
-0.734, 8.829e-6
-0.735, 8.820e-6
-0.736, 8.809e-6
-0.737, 8.803e-6
-0.738, 8.791e-6
-0.739, 8.782e-6
-0.740, 8.775e-6
-0.741, 8.771e-6
-0.742, 8.765e-6
-0.743, 8.751e-6
-0.744, 8.740e-6
-0.745, 8.734e-6
-0.746, 8.724e-6
-0.747, 8.716e-6
-0.748, 8.703e-6
-0.749, 8.693e-6
-0.750, 8.686e-6
-0.751, 8.674e-6
-0.752, 8.669e-6
-0.753, 8.655e-6
-0.754, 8.644e-6
-0.755, 8.636e-6
-0.756, 8.627e-6
-0.757, 8.619e-6
-0.758, 8.608e-6
-0.759, 8.598e-6
-0.760, 8.592e-6
-0.761, 8.581e-6
-0.762, 8.573e-6
-0.763, 8.561e-6
-0.764, 8.552e-6
-0.765, 8.545e-6
-0.766, 8.537e-6
-0.767, 8.528e-6
-0.768, 8.520e-6
-0.769, 8.507e-6
-0.770, 8.497e-6
-0.771, 8.486e-6
-0.772, 8.476e-6
-0.773, 8.467e-6
-0.774, 8.456e-6
-0.775, 8.448e-6
-0.776, 8.439e-6
-0.777, 8.427e-6
-0.778, 8.414e-6
-0.779, 8.406e-6
-0.780, 8.397e-6
-0.781, 8.389e-6
-0.782, 8.381e-6
-0.783, 8.374e-6
-0.784, 8.361e-6
-0.785, 8.351e-6
-0.786, 8.341e-6
-0.787, 8.334e-6
-0.788, 8.326e-6
-0.789, 8.312e-6
-0.790, 8.302e-6
-0.791, 8.293e-6
-0.792, 8.286e-6
-0.793, 8.281e-6
-0.794, 8.269e-6
-0.795, 8.261e-6
-0.796, 8.251e-6
-0.797, 8.242e-6
-0.798, 8.234e-6
-0.799, 8.221e-6
-0.800, 8.211e-6
-0.801, 8.205e-6
-0.802, 8.193e-6
-0.803, 8.187e-6
-0.804, 8.179e-6
-0.805, 8.173e-6
-0.806, 8.161e-6
-0.807, 8.148e-6
-0.808, 8.142e-6
-0.809, 8.135e-6
-0.810, 8.126e-6
-0.811, 8.118e-6
-0.812, 8.109e-6
-0.813, 8.100e-6
-0.814, 8.093e-6
-0.815, 8.082e-6
-0.816, 8.072e-6
-0.817, 8.069e-6
-0.818, 8.061e-6
-0.819, 8.057e-6
-0.820, 8.051e-6
-0.821, 8.038e-6
-0.822, 8.032e-6
-0.823, 8.028e-6
-0.824, 8.020e-6
-0.825, 8.011e-6
-0.826, 8.006e-6
-0.827, 7.998e-6
-0.828, 7.989e-6
-0.829, 7.980e-6
-0.830, 7.974e-6
-0.831, 7.966e-6
-0.832, 7.961e-6
-0.833, 7.952e-6
-0.834, 7.942e-6
-0.835, 7.936e-6
-0.836, 7.928e-6
-0.837, 7.921e-6
-0.838, 7.915e-6
-0.839, 7.906e-6
-0.840, 7.901e-6
-0.841, 7.895e-6
-0.842, 7.883e-6
-0.843, 7.879e-6
-0.844, 7.872e-6
-0.845, 7.865e-6
-0.846, 7.862e-6
-0.847, 7.855e-6
-0.848, 7.850e-6
-0.849, 7.845e-6
-0.850, 7.838e-6
-0.851, 7.835e-6
-0.852, 7.827e-6
-0.853, 7.817e-6
-0.854, 7.810e-6
-0.855, 7.807e-6
-0.856, 7.802e-6
-0.857, 7.797e-6
-0.858, 7.791e-6
-0.859, 7.784e-6
-0.860, 7.781e-6
-0.861, 7.775e-6
-0.862, 7.770e-6
-0.863, 7.761e-6
-0.864, 7.756e-6
-0.865, 7.751e-6
-0.866, 7.741e-6
-0.867, 7.737e-6
-0.868, 7.737e-6
-0.869, 7.732e-6
-0.870, 7.731e-6
-0.871, 7.729e-6
-0.872, 7.724e-6
-0.873, 7.714e-6
-0.874, 7.708e-6
-0.875, 7.702e-6
-0.876, 7.701e-6
-0.877, 7.698e-6
-0.878, 7.694e-6
-0.879, 7.687e-6
-0.880, 7.689e-6
-0.881, 7.682e-6
-0.882, 7.680e-6
-0.883, 7.675e-6
-0.884, 7.673e-6
-0.885, 7.667e-6
-0.886, 7.662e-6
-0.887, 7.659e-6
-0.888, 7.652e-6
-0.889, 7.648e-6
-0.890, 7.645e-6
-0.891, 7.643e-6
-0.892, 7.642e-6
-0.893, 7.637e-6
-0.894, 7.632e-6
-0.895, 7.630e-6
-0.896, 7.630e-6
-0.897, 7.628e-6
-0.898, 7.623e-6
-0.899, 7.620e-6
-0.900, 7.616e-6
-0.901, 7.617e-6
-0.902, 7.613e-6
-0.903, 7.608e-6
-0.904, 7.603e-6
-0.905, 7.599e-6
-0.906, 7.592e-6
-0.907, 7.593e-6
-0.908, 7.595e-6
-0.909, 7.590e-6
-0.910, 7.586e-6
-0.911, 7.587e-6
-0.912, 7.586e-6
-0.913, 7.585e-6
-0.914, 7.579e-6
-0.915, 7.578e-6
-0.916, 7.576e-6
-0.917, 7.572e-6
-0.918, 7.569e-6
-0.919, 7.567e-6
-0.920, 7.566e-6
-0.921, 7.567e-6
-0.922, 7.565e-6
-0.923, 7.560e-6
-0.924, 7.558e-6
-0.925, 7.558e-6
-0.926, 7.556e-6
-0.927, 7.555e-6
-0.928, 7.552e-6
-0.929, 7.554e-6
-0.930, 7.548e-6
-0.931, 7.546e-6
-0.932, 7.543e-6
-0.933, 7.542e-6
-0.934, 7.540e-6
-0.935, 7.538e-6
-0.936, 7.533e-6
-0.937, 7.533e-6
-0.938, 7.532e-6
-0.939, 7.525e-6
-0.940, 7.521e-6
-0.941, 7.522e-6
-0.942, 7.520e-6
-0.943, 7.519e-6
-0.944, 7.515e-6
-0.945, 7.516e-6
-0.946, 7.517e-6
-0.947, 7.516e-6
-0.948, 7.518e-6
-0.949, 7.512e-6
-0.950, 7.515e-6
-0.951, 7.515e-6
-0.952, 7.515e-6
-0.953, 7.515e-6
-0.954, 7.510e-6
-0.955, 7.510e-6
-0.956, 7.512e-6
-0.957, 7.510e-6
-0.958, 7.509e-6
-0.959, 7.510e-6
-0.960, 7.510e-6
-0.961, 7.515e-6
-0.962, 7.513e-6
-0.963, 7.518e-6
-0.964, 7.517e-6
-0.965, 7.516e-6
-0.966, 7.515e-6
-0.967, 7.517e-6
-0.968, 7.518e-6
-0.969, 7.517e-6
-0.970, 7.517e-6
-0.971, 7.520e-6
-0.972, 7.524e-6
-0.973, 7.527e-6
-0.974, 7.528e-6
-0.975, 7.529e-6
-0.976, 7.533e-6
-0.977, 7.536e-6
-0.978, 7.536e-6
-0.979, 7.543e-6
-0.980, 7.545e-6
-0.981, 7.546e-6
-0.982, 7.550e-6
-0.983, 7.552e-6
-0.984, 7.554e-6
-0.985, 7.557e-6
-0.986, 7.562e-6
-0.987, 7.566e-6
-0.988, 7.574e-6
-0.989, 7.576e-6
-0.990, 7.580e-6
-0.991, 7.586e-6
-0.992, 7.592e-6
-0.993, 7.596e-6
-0.994, 7.599e-6
-0.995, 7.607e-6
-0.996, 7.612e-6
-0.997, 7.615e-6
-0.998, 7.621e-6
-0.999, 7.628e-6
-1.000, 7.633e-6
-1.001, 7.638e-6
-1.002, 7.644e-6
-1.003, 7.652e-6
-1.004, 7.661e-6
-1.005, 7.669e-6
-1.006, 7.677e-6
-1.007, 7.682e-6
-1.008, 7.693e-6
-1.009, 7.699e-6
-1.010, 7.710e-6
-1.011, 7.722e-6
-1.012, 7.733e-6
-1.013, 7.742e-6
-1.014, 7.750e-6
-1.015, 7.759e-6
-1.016, 7.767e-6
-1.017, 7.778e-6
-1.018, 7.788e-6
-1.019, 7.797e-6
-1.020, 7.806e-6
-1.021, 7.818e-6
-1.022, 7.827e-6
-1.023, 7.840e-6
-1.024, 7.858e-6
-1.025, 7.871e-6
-1.026, 7.877e-6
-1.027, 7.886e-6
-1.028, 7.902e-6
-1.029, 7.907e-6
-1.030, 7.922e-6
-1.031, 7.932e-6
-1.032, 7.946e-6
-1.033, 7.961e-6
-1.034, 7.973e-6
-1.035, 7.987e-6
-1.036, 8.003e-6
-1.037, 8.012e-6
-1.038, 8.030e-6
-1.039, 8.040e-6
-1.040, 8.054e-6
-1.041, 8.071e-6
-1.042, 8.086e-6
-1.043, 8.103e-6
-1.044, 8.119e-6
-1.045, 8.128e-6
-1.046, 8.145e-6
-1.047, 8.157e-6
-1.048, 8.175e-6
-1.049, 8.193e-6
-1.050, 8.207e-6
-1.051, 8.224e-6
-1.052, 8.248e-6
-1.053, 8.263e-6
-1.054, 8.282e-6
-1.055, 8.296e-6
-1.056, 8.315e-6
-1.057, 8.336e-6
-1.058, 8.354e-6
-1.059, 8.372e-6
-1.060, 8.387e-6
-1.061, 8.407e-6
-1.062, 8.428e-6
-1.063, 8.446e-6
-1.064, 8.465e-6
-1.065, 8.485e-6
-1.066, 8.500e-6
-1.067, 8.519e-6
-1.068, 8.542e-6
-1.069, 8.560e-6
-1.070, 8.582e-6
-1.071, 8.600e-6
-1.072, 8.619e-6
-1.073, 8.639e-6
-1.074, 8.658e-6
-1.075, 8.682e-6
-1.076, 8.706e-6
-1.077, 8.727e-6
-1.078, 8.743e-6
-1.079, 8.765e-6
-1.080, 8.788e-6
-1.081, 8.816e-6
-1.082, 8.837e-6
-1.083, 8.857e-6
-1.084, 8.875e-6
-1.085, 8.895e-6
-1.086, 8.915e-6
-1.087, 8.940e-6
-1.088, 8.963e-6
-1.089, 8.989e-6
-1.090, 9.011e-6
-1.091, 9.031e-6
-1.092, 9.057e-6
-1.093, 9.079e-6
-1.094, 9.104e-6
-1.095, 9.127e-6
-1.096, 9.159e-6
-1.097, 9.197e-6
-1.098, 9.223e-6
-1.099, 9.245e-6
-1.100, 9.268e-6
-1.101, 9.293e-6
-1.102, 9.315e-6
-1.103, 9.335e-6
-1.104, 9.359e-6
-1.105, 9.387e-6
-1.106, 9.407e-6
-1.107, 9.430e-6
-1.108, 9.459e-6
-1.109, 9.490e-6
-1.110, 9.518e-6
-1.111, 9.542e-6
-1.112, 9.563e-6
-1.113, 9.590e-6
-1.114, 9.618e-6
-1.115, 9.643e-6
-1.116, 9.670e-6
-1.117, 9.692e-6
-1.118, 9.725e-6
-1.119, 9.754e-6
-1.120, 9.779e-6
-1.121, 9.804e-6
-1.122, 9.831e-6
-1.123, 9.864e-6
-1.124, 9.889e-6
-1.125, 9.911e-6
-1.126, 9.943e-6
-1.127, 9.970e-6
-1.128, 9.991e-6
-1.129, 1.002e-5
-1.130, 1.006e-5
-1.131, 1.009e-5
-1.132, 1.011e-5
-1.133, 1.014e-5
-1.134, 1.017e-5
-1.135, 1.020e-5
-1.136, 1.023e-5
-1.137, 1.027e-5
-1.138, 1.029e-5
-1.139, 1.031e-5
-1.140, 1.035e-5
-1.141, 1.037e-5
-1.142, 1.039e-5
-1.143, 1.042e-5
-1.144, 1.046e-5
-1.145, 1.049e-5
-1.146, 1.051e-5
-1.147, 1.054e-5
-1.148, 1.058e-5
-1.149, 1.060e-5
-1.150, 1.063e-5
-1.151, 1.067e-5
-1.152, 1.069e-5
-1.153, 1.072e-5
-1.154, 1.075e-5
-1.155, 1.077e-5
-1.156, 1.080e-5
-1.157, 1.083e-5
-1.158, 1.085e-5
-1.159, 1.088e-5
-1.160, 1.090e-5
-1.161, 1.092e-5
-1.162, 1.095e-5
-1.163, 1.098e-5
-1.164, 1.099e-5
-1.165, 1.102e-5
-1.166, 1.104e-5
-1.167, 1.107e-5
-1.168, 1.109e-5
-1.169, 1.112e-5
-1.170, 1.114e-5
-1.171, 1.116e-5
-1.172, 1.118e-5
-1.173, 1.120e-5
-1.174, 1.121e-5
-1.175, 1.122e-5
-1.176, 1.123e-5
-1.177, 1.124e-5
-1.178, 1.126e-5
-1.179, 1.128e-5
-1.180, 1.129e-5
-1.181, 1.131e-5
-1.182, 1.132e-5
-1.183, 1.133e-5
-1.184, 1.134e-5
-1.185, 1.135e-5
-1.186, 1.137e-5
-1.187, 1.138e-5
-1.188, 1.138e-5
-1.189, 1.139e-5
-1.190, 1.140e-5
-1.191, 1.141e-5
-1.192, 1.142e-5
-1.193, 1.143e-5
-1.194, 1.144e-5
-1.195, 1.145e-5
-1.196, 1.145e-5
-1.197, 1.146e-5
-1.198, 1.148e-5
-1.199, 1.147e-5
-1.200, 1.148e-5
-1.201, 1.148e-5
-1.202, 1.149e-5
-1.203, 1.150e-5
-1.204, 1.151e-5
-1.205, 1.151e-5
-1.206, 1.152e-5
-1.207, 1.152e-5
-1.208, 1.153e-5
-1.209, 1.154e-5
-1.210, 1.155e-5
-1.211, 1.156e-5
-1.212, 1.158e-5
-1.213, 1.159e-5
-1.214, 1.160e-5
-1.215, 1.160e-5
-1.216, 1.161e-5
-1.217, 1.163e-5
-1.218, 1.164e-5
-1.219, 1.165e-5
-1.220, 1.166e-5
-1.221, 1.167e-5
-1.222, 1.169e-5
-1.223, 1.171e-5
-1.224, 1.172e-5
-1.225, 1.173e-5
-1.226, 1.175e-5
-1.227, 1.176e-5
-1.228, 1.176e-5
-1.229, 1.177e-5
-1.230, 1.178e-5
-1.231, 1.180e-5
-1.232, 1.183e-5
-1.233, 1.185e-5
-1.234, 1.187e-5
-1.235, 1.188e-5
-1.236, 1.189e-5
-1.237, 1.190e-5
-1.238, 1.192e-5
-1.239, 1.193e-5
-1.240, 1.194e-5
-1.241, 1.194e-5
-1.242, 1.196e-5
-1.243, 1.198e-5
-1.244, 1.199e-5
-1.245, 1.201e-5
-1.246, 1.203e-5
-1.247, 1.205e-5
-1.248, 1.207e-5
-1.249, 1.209e-5
-1.250, 1.211e-5
-1.251, 1.212e-5
-1.252, 1.214e-5
-1.253, 1.216e-5
-1.254, 1.217e-5
-1.255, 1.218e-5
-1.256, 1.221e-5
-1.257, 1.223e-5
-1.258, 1.225e-5
-1.259, 1.228e-5
-1.260, 1.231e-5
-1.261, 1.235e-5
-1.262, 1.237e-5
-1.263, 1.239e-5
-1.264, 1.241e-5
-1.265, 1.245e-5
-1.266, 1.248e-5
-1.267, 1.250e-5
-1.268, 1.251e-5
-1.269, 1.252e-5
-1.270, 1.253e-5
-1.271, 1.256e-5
-1.272, 1.259e-5
-1.273, 1.263e-5
-1.274, 1.266e-5
-1.275, 1.270e-5
-1.276, 1.272e-5
-1.277, 1.274e-5
-1.278, 1.278e-5
-1.279, 1.280e-5
-1.280, 1.283e-5
-1.281, 1.287e-5
-1.282, 1.289e-5
-1.283, 1.293e-5
-1.284, 1.296e-5
-1.285, 1.299e-5
-1.286, 1.301e-5
-1.287, 1.304e-5
-1.288, 1.306e-5
-1.289, 1.309e-5
-1.290, 1.312e-5
-1.291, 1.315e-5
-1.292, 1.316e-5
-1.293, 1.319e-5
-1.294, 1.322e-5
-1.295, 1.325e-5
-1.296, 1.329e-5
-1.297, 1.332e-5
-1.298, 1.334e-5
-1.299, 1.338e-5
-1.300, 1.342e-5
-1.301, 1.345e-5
-1.302, 1.348e-5
-1.303, 1.351e-5
-1.304, 1.354e-5
-1.305, 1.357e-5
-1.306, 1.361e-5
-1.307, 1.366e-5
-1.308, 1.370e-5
-1.309, 1.372e-5
-1.310, 1.375e-5
-1.311, 1.377e-5
-1.312, 1.380e-5
-1.313, 1.383e-5
-1.314, 1.387e-5
-1.315, 1.392e-5
-1.316, 1.395e-5
-1.317, 1.398e-5
-1.318, 1.403e-5
-1.319, 1.406e-5
-1.320, 1.409e-5
-1.321, 1.413e-5
-1.322, 1.418e-5
-1.323, 1.421e-5
-1.324, 1.425e-5
-1.325, 1.428e-5
-1.326, 1.434e-5
-1.327, 1.439e-5
-1.328, 1.443e-5
-1.329, 1.446e-5
-1.330, 1.450e-5
-1.331, 1.455e-5
-1.332, 1.459e-5
-1.333, 1.464e-5
-1.334, 1.468e-5
-1.335, 1.472e-5
-1.336, 1.476e-5
-1.337, 1.478e-5
-1.338, 1.482e-5
-1.339, 1.486e-5
-1.340, 1.489e-5
-1.341, 1.492e-5
-1.342, 1.495e-5
-1.343, 1.500e-5
-1.344, 1.506e-5
-1.345, 1.510e-5
-1.346, 1.515e-5
-1.347, 1.520e-5
-1.348, 1.523e-5
-1.349, 1.527e-5
-1.350, 1.532e-5
-1.351, 1.538e-5
-1.352, 1.542e-5
-1.353, 1.548e-5
-1.354, 1.552e-5
-1.355, 1.557e-5
-1.356, 1.561e-5
-1.357, 1.565e-5
-1.358, 1.571e-5
-1.359, 1.575e-5
-1.360, 1.580e-5
-1.361, 1.587e-5
-1.362, 1.592e-5
-1.363, 1.598e-5
-1.364, 1.603e-5
-1.365, 1.609e-5
-1.366, 1.611e-5
-1.367, 1.615e-5
-1.368, 1.620e-5
-1.369, 1.625e-5
-1.370, 1.631e-5
-1.371, 1.636e-5
-1.372, 1.641e-5
-1.373, 1.646e-5
-1.374, 1.652e-5
-1.375, 1.658e-5
-1.376, 1.663e-5
-1.377, 1.669e-5
-1.378, 1.674e-5
-1.379, 1.680e-5
-1.380, 1.686e-5
-1.381, 1.691e-5
-1.382, 1.695e-5
-1.383, 1.700e-5
-1.384, 1.703e-5
-1.385, 1.709e-5
-1.386, 1.715e-5
-1.387, 1.724e-5
-1.388, 1.730e-5
-1.389, 1.736e-5
-1.390, 1.742e-5
-1.391, 1.748e-5
-1.392, 1.756e-5
-1.393, 1.762e-5
-1.394, 1.768e-5
-1.395, 1.774e-5
-1.396, 1.782e-5
-1.397, 1.790e-5
-1.398, 1.796e-5
-1.399, 1.804e-5
-1.400, 1.810e-5
-1.401, 1.815e-5
-1.402, 1.821e-5
-1.403, 1.828e-5
-1.404, 1.833e-5
-1.405, 1.837e-5
-1.406, 1.844e-5
-1.407, 1.850e-5
-1.408, 1.855e-5
-1.409, 1.859e-5
-1.410, 1.864e-5
-1.411, 1.870e-5
-1.412, 1.877e-5
-1.413, 1.883e-5
-1.414, 1.889e-5
-1.415, 1.896e-5
-1.416, 1.905e-5
-1.417, 1.912e-5
-1.418, 1.919e-5
-1.419, 1.926e-5
-1.420, 1.933e-5
-1.421, 1.941e-5
-1.422, 1.950e-5
-1.423, 1.957e-5
-1.424, 1.963e-5
-1.425, 1.968e-5
-1.426, 1.976e-5
-1.427, 1.983e-5
-1.428, 1.991e-5
-1.429, 2.000e-5
-1.430, 2.007e-5
-1.431, 2.013e-5
-1.432, 2.021e-5
-1.433, 2.029e-5
-1.434, 2.039e-5
-1.435, 2.047e-5
-1.436, 2.053e-5
-1.437, 2.060e-5
-1.438, 2.070e-5
-1.439, 2.078e-5
-1.440, 2.086e-5
-1.441, 2.091e-5
-1.442, 2.098e-5
-1.443, 2.106e-5
-1.444, 2.114e-5
-1.445, 2.121e-5
-1.446, 2.130e-5
-1.447, 2.140e-5
-1.448, 2.149e-5
-1.449, 2.158e-5
-1.450, 2.168e-5
-1.451, 2.180e-5
-1.452, 2.193e-5
-1.453, 2.201e-5
-1.454, 2.211e-5
-1.455, 2.220e-5
-1.456, 2.227e-5
-1.457, 2.236e-5
-1.458, 2.247e-5
-1.459, 2.257e-5
-1.460, 2.266e-5
-1.461, 2.274e-5
-1.462, 2.286e-5
-1.463, 2.297e-5
-1.464, 2.314e-5
-1.465, 2.326e-5
-1.466, 2.337e-5
-1.467, 2.347e-5
-1.468, 2.356e-5
-1.469, 2.365e-5
-1.470, 2.372e-5
-1.471, 2.382e-5
-1.472, 2.391e-5
-1.473, 2.403e-5
-1.474, 2.414e-5
-1.475, 2.425e-5
-1.476, 2.438e-5
-1.477, 2.450e-5
-1.478, 2.459e-5
-1.479, 2.467e-5
-1.480, 2.477e-5
-1.481, 2.487e-5
-1.482, 2.499e-5
-1.483, 2.510e-5
-1.484, 2.522e-5
-1.485, 2.535e-5
-1.486, 2.547e-5
-1.487, 2.557e-5
-1.488, 2.571e-5
-1.489, 2.582e-5
-1.490, 2.592e-5
-1.491, 2.604e-5
-1.492, 2.621e-5
-1.493, 2.637e-5
-1.494, 2.649e-5
-1.495, 2.659e-5
-1.496, 2.671e-5
-1.497, 2.683e-5
-1.498, 2.695e-5
-1.499, 2.708e-5
-1.500, 2.725e-5
-1.501, 2.738e-5
-1.502, 2.753e-5
-1.503, 2.769e-5
-1.504, 2.786e-5
-1.505, 2.801e-5
-1.506, 2.814e-5
-1.507, 2.829e-5
-1.508, 2.840e-5
-1.509, 2.860e-5
-1.510, 2.877e-5
-1.511, 2.893e-5
-1.512, 2.912e-5
-1.513, 2.937e-5
-1.514, 2.952e-5
-1.515, 2.967e-5
-1.516, 2.979e-5
-1.517, 2.995e-5
-1.518, 3.012e-5
-1.519, 3.031e-5
-1.520, 3.048e-5
-1.521, 3.066e-5
-1.522, 3.084e-5
-1.523, 3.100e-5
-1.524, 3.116e-5
-1.525, 3.136e-5
-1.526, 3.157e-5
-1.527, 3.179e-5
-1.528, 3.198e-5
-1.529, 3.219e-5
-1.530, 3.240e-5
-1.531, 3.265e-5
-1.532, 3.288e-5
-1.533, 3.310e-5
-1.534, 3.335e-5
-1.535, 3.357e-5
-1.536, 3.377e-5
-1.537, 3.399e-5
-1.538, 3.425e-5
-1.539, 3.451e-5
-1.540, 3.474e-5
-1.541, 3.500e-5
-1.542, 3.527e-5
-1.543, 3.551e-5
-1.544, 3.577e-5
-1.545, 3.605e-5
-1.546, 3.632e-5
-1.547, 3.660e-5
-1.548, 3.686e-5
-1.549, 3.715e-5
-1.550, 3.747e-5
-1.551, 3.772e-5
-1.552, 3.798e-5
-1.553, 3.824e-5
-1.554, 3.857e-5
-1.555, 3.890e-5
-1.556, 3.921e-5
-1.557, 3.952e-5
-1.558, 3.982e-5
-1.559, 4.010e-5
-1.560, 4.044e-5
-1.561, 4.082e-5
-1.562, 4.117e-5
-1.563, 4.148e-5
-1.564, 4.181e-5
-1.565, 4.219e-5
-1.566, 4.254e-5
-1.567, 4.291e-5
-1.568, 4.328e-5
-1.569, 4.367e-5
-1.570, 4.406e-5
-1.571, 4.446e-5
-1.572, 4.487e-5
-1.573, 4.528e-5
-1.574, 4.567e-5
-1.575, 4.605e-5
-1.576, 4.645e-5
-1.577, 4.694e-5
-1.578, 4.743e-5
-1.579, 4.797e-5
-1.580, 4.843e-5
-1.581, 4.886e-5
-1.582, 4.933e-5
-1.583, 4.977e-5
-1.584, 5.021e-5
-1.585, 5.074e-5
-1.586, 5.123e-5
-1.587, 5.166e-5
-1.588, 5.215e-5
-1.589, 5.266e-5
-1.590, 5.319e-5
-1.591, 5.370e-5
-1.592, 5.432e-5
-1.593, 5.485e-5
-1.594, 5.534e-5
-1.595, 5.590e-5
-1.596, 5.648e-5
-1.597, 5.707e-5
-1.598, 5.765e-5
-1.599, 5.816e-5
-1.600, 5.873e-5
-1.601, 5.934e-5
-1.602, 5.994e-5
-1.603, 6.053e-5
-1.604, 6.112e-5
-1.605, 6.178e-5
-1.606, 6.240e-5
-1.607, 6.307e-5
-1.608, 6.378e-5
-1.609, 6.442e-5
-1.610, 6.504e-5
-1.611, 6.573e-5
-1.612, 6.646e-5
-1.613, 6.711e-5
-1.614, 6.781e-5
-1.615, 6.850e-5
-1.616, 6.921e-5
-1.617, 6.998e-5
-1.618, 7.079e-5
-1.619, 7.158e-5
-1.620, 7.234e-5
-1.621, 7.306e-5
-1.622, 7.375e-5
-1.623, 7.447e-5
-1.624, 7.522e-5
-1.625, 7.596e-5
-1.626, 7.669e-5
-1.627, 7.750e-5
-1.628, 7.834e-5
-1.629, 7.911e-5
-1.630, 7.990e-5
-1.631, 8.059e-5
-1.632, 8.141e-5
-1.633, 8.223e-5
-1.634, 8.306e-5
-1.635, 8.395e-5
-1.636, 8.477e-5
-1.637, 8.554e-5
-1.638, 8.636e-5
-1.639, 8.726e-5
-1.640, 8.812e-5
-1.641, 8.902e-5
-1.642, 8.994e-5
-1.643, 9.085e-5
-1.644, 9.170e-5
-1.645, 9.261e-5
-1.646, 9.352e-5
-1.647, 9.446e-5
-1.648, 9.539e-5
-1.649, 9.632e-5
-1.650, 9.738e-5
-1.651, 9.847e-5
-1.652, 9.947e-5
-1.653, 1.005e-4
-1.654, 1.016e-4
-1.655, 1.027e-4
-1.656, 1.038e-4
-1.657, 1.049e-4
-1.658, 1.060e-4
-1.659, 1.071e-4
-1.660, 1.081e-4
-1.661, 1.093e-4
-1.662, 1.105e-4
-1.663, 1.117e-4
-1.664, 1.129e-4
-1.665, 1.142e-4
-1.666, 1.154e-4
-1.667, 1.167e-4
-1.668, 1.180e-4
-1.669, 1.193e-4
-1.670, 1.206e-4
-1.671, 1.220e-4
-1.672, 1.234e-4
-1.673, 1.248e-4
-1.674, 1.262e-4
-1.675, 1.277e-4
-1.676, 1.291e-4
-1.677, 1.306e-4
-1.678, 1.321e-4
-1.679, 1.336e-4
-1.680, 1.352e-4
-1.681, 1.367e-4
-1.682, 1.384e-4
-1.683, 1.400e-4
-1.684, 1.417e-4
-1.685, 1.434e-4
-1.686, 1.451e-4
-1.687, 1.467e-4
-1.688, 1.485e-4
-1.689, 1.503e-4
-1.690, 1.520e-4
-1.691, 1.539e-4
-1.692, 1.558e-4
-1.693, 1.578e-4
-1.694, 1.598e-4
-1.695, 1.618e-4
-1.696, 1.638e-4
-1.697, 1.658e-4
-1.698, 1.679e-4
-1.699, 1.700e-4
-1.700, 1.723e-4
-1.701, 1.746e-4
-1.702, 1.769e-4
-1.703, 1.793e-4
-1.704, 1.818e-4
-1.705, 1.843e-4
-1.706, 1.870e-4
-1.707, 1.896e-4
-1.708, 1.923e-4
-1.709, 1.951e-4
-1.710, 1.981e-4
-1.711, 2.011e-4
-1.712, 2.041e-4
-1.713, 2.071e-4
-1.714, 2.103e-4
-1.715, 2.136e-4
-1.716, 2.169e-4
-1.717, 2.202e-4
-1.718, 2.238e-4
-1.719, 2.273e-4
-1.720, 2.309e-4
-1.721, 2.346e-4
-1.722, 2.383e-4
-1.723, 2.420e-4
-1.724, 2.458e-4
-1.725, 2.497e-4
-1.726, 2.537e-4
-1.727, 2.578e-4
-1.728, 2.619e-4
-1.729, 2.660e-4
-1.730, 2.702e-4
-1.731, 2.745e-4
-1.732, 2.789e-4
-1.733, 2.833e-4
-1.734, 2.878e-4
-1.735, 2.924e-4
-1.736, 2.970e-4
-1.737, 3.017e-4
-1.738, 3.064e-4
-1.739, 3.111e-4
-1.740, 3.159e-4
-1.741, 3.208e-4
-1.742, 3.258e-4
-1.743, 3.307e-4
-1.744, 3.358e-4
-1.745, 3.408e-4
-1.746, 3.459e-4
-1.747, 3.512e-4
-1.748, 3.564e-4
-1.749, 3.617e-4
-1.750, 3.671e-4
-1.751, 3.726e-4
-1.752, 3.780e-4
-1.753, 3.835e-4
-1.754, 3.891e-4
-1.755, 3.948e-4
-1.756, 4.006e-4
-1.757, 4.064e-4
-1.758, 4.122e-4
-1.759, 4.180e-4
-1.760, 4.238e-4
-1.761, 4.298e-4
-1.762, 4.358e-4
-1.763, 4.418e-4
-1.764, 4.479e-4
-1.765, 4.540e-4
-1.766, 4.602e-4
-1.767, 4.664e-4
-1.768, 4.727e-4
-1.769, 4.791e-4
-1.770, 4.854e-4
-1.771, 4.918e-4
-1.772, 4.983e-4
-1.773, 5.047e-4
-1.774, 5.113e-4
-1.775, 5.179e-4
-1.776, 5.246e-4
-1.777, 5.313e-4
-1.778, 5.380e-4
-1.779, 5.449e-4
-1.780, 5.517e-4
-1.781, 5.586e-4
-1.782, 5.653e-4
-1.783, 5.722e-4
-1.784, 5.791e-4
-1.785, 5.861e-4
-1.786, 5.931e-4
-1.787, 6.001e-4
-1.788, 6.072e-4
-1.789, 6.143e-4
-1.790, 6.215e-4
-1.791, 6.287e-4
-1.792, 6.359e-4
-1.793, 6.433e-4
-1.794, 6.506e-4
-1.795, 6.580e-4
-1.796, 6.653e-4
-1.797, 6.726e-4
-1.798, 6.799e-4
-1.799, 6.874e-4
-1.800, 6.948e-4
-1.801, 7.024e-4
-1.802, 7.099e-4
-1.803, 7.174e-4
-1.804, 7.249e-4
-1.805, 7.325e-4
-1.806, 7.401e-4
-1.807, 7.477e-4
-1.808, 7.555e-4
-1.809, 7.632e-4
-1.810, 7.710e-4
-1.811, 7.787e-4
-1.812, 7.865e-4
-1.813, 7.943e-4
-1.814, 8.021e-4
-1.815, 8.100e-4
-1.816, 8.178e-4
-1.817, 8.257e-4
-1.818, 8.336e-4
-1.819, 8.415e-4
-1.820, 8.495e-4
-1.821, 8.575e-4
-1.822, 8.655e-4
-1.823, 8.735e-4
-1.824, 8.816e-4
-1.825, 8.897e-4
-1.826, 8.978e-4
-1.827, 9.061e-4
-1.828, 9.142e-4
-1.829, 9.225e-4
-1.830, 9.307e-4
-1.831, 9.389e-4
-1.832, 9.472e-4
-1.833, 9.555e-4
-1.834, 9.639e-4
-1.835, 9.723e-4
-1.836, 9.808e-4
-1.837, 9.891e-4
-1.838, 9.975e-4
-1.839, 1.006e-3
-1.840, 1.011e-3
-1.841, 1.011e-3
-1.842, 1.011e-3
-1.843, 1.011e-3
-1.844, 1.011e-3
-1.845, 1.011e-3
-1.846, 1.011e-3
-1.847, 1.011e-3
-1.848, 1.011e-3
-1.849, 1.011e-3
-1.850, 1.011e-3
-1.851, 1.011e-3
-1.852, 1.011e-3
-1.853, 1.011e-3
-1.854, 1.011e-3
-1.855, 1.011e-3
-1.856, 1.011e-3
-1.857, 1.011e-3
-1.858, 1.011e-3
-1.859, 1.011e-3
-1.860, 1.011e-3
-1.861, 1.011e-3
-1.862, 1.011e-3
-1.863, 1.011e-3
-1.864, 1.011e-3
-1.865, 1.011e-3
-1.866, 1.011e-3
-1.867, 1.011e-3
-1.868, 1.011e-3
-1.869, 1.011e-3
-1.870, 1.011e-3
-1.871, 1.011e-3
-1.872, 1.011e-3
-1.873, 1.011e-3
-1.874, 1.011e-3
-1.875, 1.011e-3
-1.876, 1.011e-3
-1.877, 1.011e-3
-1.878, 1.011e-3
-1.879, 1.011e-3
-1.880, 1.011e-3
-1.881, 1.011e-3
-1.882, 1.011e-3
-1.883, 1.011e-3
-1.884, 1.011e-3
-1.885, 1.011e-3
-1.886, 1.011e-3
-1.887, 1.011e-3
-1.888, 1.011e-3
-1.889, 1.011e-3
-1.890, 1.011e-3
-1.891, 1.011e-3
-1.892, 1.011e-3
-1.893, 1.011e-3
-1.894, 1.011e-3
-1.895, 1.011e-3
-1.896, 1.011e-3
-1.897, 1.011e-3
-1.898, 1.011e-3
-1.899, 1.011e-3
-1.900, 1.011e-3
-1.901, 1.011e-3
-1.902, 1.011e-3
-1.903, 1.011e-3
-1.904, 1.011e-3
-1.905, 1.011e-3
-1.906, 1.011e-3
-1.907, 1.011e-3
-1.908, 1.011e-3
-1.909, 1.011e-3
-1.910, 1.011e-3
-1.911, 1.011e-3
-1.912, 1.011e-3
-1.913, 1.011e-3
-1.914, 1.011e-3
-1.915, 1.011e-3
-1.916, 1.011e-3
-1.917, 1.011e-3
-1.918, 1.011e-3
-1.919, 1.011e-3
-1.920, 1.011e-3
-1.921, 1.011e-3
-1.922, 1.011e-3
-1.923, 1.011e-3
-1.924, 1.011e-3
-1.925, 1.011e-3
-1.926, 1.011e-3
-1.927, 1.011e-3
-1.928, 1.011e-3
-1.929, 1.011e-3
-1.930, 1.011e-3
-1.931, 1.011e-3
-1.932, 1.011e-3
-1.933, 1.011e-3
-1.934, 1.011e-3
-1.935, 1.011e-3
-1.936, 1.011e-3
-1.937, 1.011e-3
-1.938, 1.011e-3
-1.939, 1.011e-3
-1.940, 1.011e-3
-1.941, 1.011e-3
-1.942, 1.011e-3
-1.943, 1.011e-3
-1.944, 1.011e-3
-1.945, 1.011e-3
-1.946, 1.011e-3
-1.947, 1.011e-3
-1.948, 1.011e-3
-1.949, 1.011e-3
-1.950, 1.011e-3
-1.951, 1.011e-3
-1.952, 1.011e-3
-1.953, 1.011e-3
-1.954, 1.011e-3
-1.955, 1.011e-3
-1.956, 1.011e-3
-1.957, 1.011e-3
-1.958, 1.011e-3
-1.959, 1.011e-3
-1.960, 1.011e-3
-1.961, 1.011e-3
-1.962, 1.011e-3
-1.963, 1.011e-3
-1.964, 1.011e-3
-1.965, 1.011e-3
-1.966, 1.011e-3
-1.967, 1.011e-3
-1.968, 1.011e-3
-1.969, 1.011e-3
-1.970, 1.011e-3
-1.971, 1.011e-3
-1.972, 1.011e-3
-1.973, 1.011e-3
-1.974, 1.011e-3
-1.975, 1.011e-3
-1.976, 1.011e-3
-1.977, 1.011e-3
-1.978, 1.011e-3
-1.979, 1.011e-3
-1.980, 1.011e-3
-1.981, 1.011e-3
-1.982, 1.011e-3
-1.983, 1.011e-3
-1.984, 1.011e-3
-1.985, 1.011e-3
-1.986, 1.011e-3
-1.987, 1.011e-3
-1.988, 1.011e-3
-1.989, 1.011e-3
-1.990, 1.011e-3
-1.991, 1.011e-3
-1.992, 1.011e-3
-1.993, 1.011e-3
-1.994, 1.011e-3
-1.995, 1.011e-3
-1.996, 1.011e-3
-1.997, 1.011e-3
-1.998, 1.011e-3
-1.999, 1.011e-3
-2.000, 1.011e-3
-2.001, 1.011e-3
-2.002, 1.011e-3
-2.003, 1.011e-3
-2.004, 1.011e-3
-2.005, 1.011e-3
-2.006, 1.011e-3
-2.007, 1.011e-3
-2.008, 1.011e-3
-2.009, 1.011e-3
-2.010, 1.011e-3
-2.011, 1.011e-3
-2.012, 1.011e-3
-2.013, 1.011e-3
-2.014, 1.011e-3
-2.015, 1.011e-3
-2.016, 1.011e-3
-2.017, 1.011e-3
-2.018, 1.011e-3
-2.019, 1.011e-3
-2.020, 1.011e-3
-2.021, 1.011e-3
-2.022, 1.011e-3
-2.023, 1.011e-3
-2.024, 1.011e-3
-2.025, 1.011e-3
-2.026, 1.011e-3
-2.027, 1.011e-3
-2.028, 1.011e-3
-2.029, 1.011e-3
-2.030, 1.011e-3
-2.031, 1.011e-3
-2.032, 1.011e-3
-2.033, 1.011e-3
-2.034, 1.011e-3
-2.035, 1.011e-3
-2.036, 1.011e-3
-2.037, 1.011e-3
-2.038, 1.011e-3
-2.039, 1.011e-3
-2.040, 1.011e-3
-2.041, 1.011e-3
-2.042, 1.011e-3
-2.043, 1.011e-3
-2.044, 1.011e-3
-2.045, 1.011e-3
-2.046, 1.011e-3
-2.047, 1.011e-3
-2.048, 1.011e-3
-2.049, 1.011e-3
-2.050, 1.011e-3
-2.051, 1.011e-3
-2.052, 1.011e-3
-2.053, 1.011e-3
-2.054, 1.011e-3
-2.055, 1.011e-3
-2.056, 1.011e-3
-2.057, 1.011e-3
-2.058, 1.011e-3
-2.059, 1.011e-3
-2.060, 1.011e-3
-2.061, 1.011e-3
-2.062, 1.011e-3
-2.063, 1.011e-3
-2.064, 1.011e-3
-2.065, 1.011e-3
-2.066, 1.011e-3
-2.067, 1.011e-3
-2.068, 1.011e-3
-2.069, 1.011e-3
-2.070, 1.011e-3
-2.071, 1.011e-3
-2.072, 1.011e-3
-2.073, 1.011e-3
-2.074, 1.011e-3
-2.075, 1.011e-3
-2.076, 1.011e-3
-2.077, 1.011e-3
-2.078, 1.011e-3
-2.079, 1.011e-3
-2.080, 1.011e-3
-2.081, 1.011e-3
-2.082, 1.011e-3
-2.083, 1.011e-3
-2.084, 1.011e-3
-2.085, 1.011e-3
-2.086, 1.011e-3
-2.087, 1.011e-3
-2.088, 1.011e-3
-2.089, 1.011e-3
-2.090, 1.011e-3
-2.091, 1.011e-3
-2.092, 1.011e-3
-2.093, 1.011e-3
-2.094, 1.011e-3
-2.095, 1.011e-3
-2.096, 1.011e-3
-2.097, 1.011e-3
-2.098, 1.011e-3
-2.099, 1.011e-3
-2.100, 1.011e-3
-2.101, 1.011e-3
-2.102, 1.011e-3
-2.103, 1.011e-3
-2.104, 1.011e-3
-2.105, 1.011e-3
-2.106, 1.011e-3
-2.107, 1.011e-3
-2.108, 1.011e-3
-2.109, 1.011e-3
-2.110, 1.011e-3
-2.111, 1.011e-3
-2.112, 1.011e-3
-2.113, 1.011e-3
-2.114, 1.011e-3
-2.115, 1.011e-3
-2.116, 1.011e-3
-2.117, 1.011e-3
-2.118, 1.011e-3
-2.119, 1.011e-3
-2.120, 1.011e-3
-2.121, 1.011e-3
-2.122, 1.011e-3
-2.123, 1.011e-3
-2.124, 1.011e-3
-2.125, 1.011e-3
-2.126, 1.011e-3
-2.127, 1.011e-3
-2.128, 1.011e-3
-2.129, 1.011e-3
-2.130, 1.011e-3
-2.131, 1.011e-3
-2.132, 1.011e-3
-2.133, 1.011e-3
-2.134, 1.011e-3
-2.135, 1.011e-3
-2.136, 1.011e-3
-2.137, 1.011e-3
-2.138, 1.011e-3
-2.139, 1.011e-3
-2.140, 1.011e-3
-2.141, 1.011e-3
-2.142, 1.011e-3
-2.143, 1.011e-3
-2.144, 1.011e-3
-2.145, 1.011e-3
-2.146, 1.011e-3
-2.147, 1.011e-3
-2.148, 1.011e-3
-2.149, 1.011e-3
-2.150, 1.011e-3
-2.151, 1.011e-3
-2.152, 1.011e-3
-2.153, 1.011e-3
-2.154, 1.011e-3
-2.155, 1.011e-3
-2.156, 1.011e-3
-2.157, 1.011e-3
-2.158, 1.011e-3
-2.159, 1.011e-3
-2.160, 1.011e-3
-2.161, 1.011e-3
-2.162, 1.011e-3
-2.163, 1.011e-3
-2.164, 1.011e-3
-2.165, 1.011e-3
-2.166, 1.011e-3
-2.167, 1.011e-3
-2.168, 1.011e-3
-2.169, 1.011e-3
-2.170, 1.011e-3
-2.171, 1.011e-3
-2.172, 1.011e-3
-2.173, 1.011e-3
-2.174, 1.011e-3
-2.175, 1.011e-3
-2.176, 1.011e-3
-2.177, 1.011e-3
-2.178, 1.011e-3
-2.179, 1.011e-3
-2.180, 1.011e-3
-2.181, 1.011e-3
-2.182, 1.011e-3
-2.183, 1.011e-3
-2.184, 1.011e-3
-2.185, 1.011e-3
-2.186, 1.011e-3
-2.187, 1.011e-3
-2.188, 1.011e-3
-2.189, 1.011e-3
-2.190, 1.011e-3
-2.191, 1.011e-3
-2.192, 1.011e-3
-2.193, 1.011e-3
-2.194, 1.011e-3
-2.195, 1.011e-3
-2.196, 1.011e-3
-2.197, 1.011e-3
-2.198, 1.011e-3
-2.199, 1.011e-3
-2.200, 1.011e-3
-2.201, 1.011e-3
-2.202, 1.011e-3
-2.203, 1.011e-3
-2.204, 1.011e-3
-2.205, 1.011e-3
-2.206, 1.011e-3
-2.207, 1.011e-3
-2.208, 1.011e-3
-2.209, 1.011e-3
-2.210, 1.011e-3
-2.211, 1.011e-3
-2.212, 1.011e-3
-2.213, 1.011e-3
-2.214, 1.011e-3
-2.215, 1.011e-3
-2.216, 1.011e-3
-2.217, 1.011e-3
-2.218, 1.011e-3
-2.219, 1.011e-3
-2.220, 1.011e-3
-2.221, 1.011e-3
-2.222, 1.011e-3
-2.223, 1.011e-3
-2.224, 1.011e-3
-2.225, 1.011e-3
-2.226, 1.011e-3
-2.227, 1.011e-3
-2.228, 1.011e-3
-2.229, 1.011e-3
-2.230, 1.011e-3
-2.231, 1.011e-3
-2.232, 1.011e-3
-2.233, 1.011e-3
-2.234, 1.011e-3
-2.235, 1.011e-3
-2.236, 1.011e-3
-2.237, 1.011e-3
-2.238, 1.011e-3
-2.239, 1.011e-3
-2.240, 1.011e-3
-2.241, 1.011e-3
-2.242, 1.011e-3
-2.243, 1.011e-3
-2.244, 1.011e-3
-2.245, 1.011e-3
-2.246, 1.011e-3
-2.247, 1.011e-3
-2.248, 1.011e-3
-2.249, 1.011e-3
-2.250, 1.011e-3
-2.251, 1.011e-3
-2.252, 1.011e-3
-2.253, 1.011e-3
-2.254, 1.011e-3
-2.255, 1.011e-3
-2.256, 1.011e-3
-2.257, 1.011e-3
-2.258, 1.011e-3
-2.259, 1.011e-3
-2.260, 1.011e-3
-2.261, 1.011e-3
-2.262, 1.011e-3
-2.263, 1.011e-3
-2.264, 1.011e-3
-2.265, 1.011e-3
-2.266, 1.011e-3
-2.267, 1.011e-3
-2.268, 1.011e-3
-2.269, 1.011e-3
-2.270, 1.011e-3
-2.271, 1.011e-3
-2.272, 1.011e-3
-2.273, 1.011e-3
-2.274, 1.011e-3
-2.275, 1.011e-3
-2.276, 1.011e-3
-2.277, 1.011e-3
-2.278, 1.011e-3
-2.279, 1.011e-3
-2.280, 1.011e-3
-2.281, 1.011e-3
-2.282, 1.011e-3
-2.283, 1.011e-3
-2.284, 1.011e-3
-2.285, 1.011e-3
-2.286, 1.011e-3
-2.287, 1.011e-3
-2.288, 1.011e-3
-2.289, 1.011e-3
-2.290, 1.011e-3
-2.291, 1.011e-3
-2.292, 1.011e-3
-2.293, 1.011e-3
-2.294, 1.011e-3
-2.295, 1.011e-3
-2.296, 1.011e-3
-2.297, 1.011e-3
-2.298, 1.011e-3
-2.299, 1.011e-3
