May 2, 2025   05:41:59
Cyclic Voltammetry
File: c:/users/guazh/data/banditlqround7_x0exp1108_r5/2025-04-30-exp1214\exp1214-2025-05-02t05_30_23-arkoh\exp1214_cv_sr_600mvs_efin_-1500mv.bin
Data Source:  Experiment
Instrument Model:  CHI760E
Header: CV ran at 600 mVs
Note: 

Init E (V) = -1
High E (V) = -1
Low E (V) = -1.5
Final E (V) = -1
Init P/N = N
Scan Rate (V/s) = 0.6
Segment = 3
Sample Interval (V) = 0.001
Quiet Time (sec) = 2
Sensitivity (A/V) = 0.01
Comp R (ohm) = 1.0

Results:

Channel 1:
Segment 1:

Segment 2:

Segment 3:

Potential/V, Current/A

-1.000, 5.257e-5
-1.001, 2.006e-4
-1.002, 3.208e-4
-1.003, 4.195e-4
-1.004, 5.027e-4
-1.005, 5.674e-4
-1.006, 6.229e-4
-1.007, 6.661e-4
-1.008, 7.031e-4
-1.009, 7.309e-4
-1.010, 7.617e-4
-1.011, 7.894e-4
-1.012, 8.172e-4
-1.013, 8.418e-4
-1.014, 8.634e-4
-1.015, 8.819e-4
-1.016, 8.943e-4
-1.017, 9.066e-4
-1.018, 9.128e-4
-1.019, 9.189e-4
-1.020, 9.282e-4
-1.021, 9.343e-4
-1.022, 9.467e-4
-1.023, 9.559e-4
-1.024, 9.683e-4
-1.025, 9.775e-4
-1.026, 9.806e-4
-1.027, 9.806e-4
-1.028, 9.837e-4
-1.029, 9.806e-4
-1.030, 9.837e-4
-1.031, 9.868e-4
-1.032, 9.929e-4
-1.033, 9.991e-4
-1.034, 1.008e-3
-1.035, 1.011e-3
-1.036, 1.014e-3
-1.037, 1.014e-3
-1.038, 1.011e-3
-1.039, 1.008e-3
-1.040, 1.005e-3
-1.041, 1.008e-3
-1.042, 1.014e-3
-1.043, 1.021e-3
-1.044, 1.027e-3
-1.045, 1.030e-3
-1.046, 1.033e-3
-1.047, 1.027e-3
-1.048, 1.027e-3
-1.049, 1.024e-3
-1.050, 1.024e-3
-1.051, 1.027e-3
-1.052, 1.033e-3
-1.053, 1.039e-3
-1.054, 1.045e-3
-1.055, 1.045e-3
-1.056, 1.045e-3
-1.057, 1.042e-3
-1.058, 1.039e-3
-1.059, 1.036e-3
-1.060, 1.039e-3
-1.061, 1.042e-3
-1.062, 1.048e-3
-1.063, 1.051e-3
-1.064, 1.055e-3
-1.065, 1.055e-3
-1.066, 1.058e-3
-1.067, 1.058e-3
-1.068, 1.058e-3
-1.069, 1.051e-3
-1.070, 1.051e-3
-1.071, 1.055e-3
-1.072, 1.058e-3
-1.073, 1.064e-3
-1.074, 1.070e-3
-1.075, 1.073e-3
-1.076, 1.076e-3
-1.077, 1.070e-3
-1.078, 1.070e-3
-1.079, 1.064e-3
-1.080, 1.064e-3
-1.081, 1.064e-3
-1.082, 1.070e-3
-1.083, 1.076e-3
-1.084, 1.082e-3
-1.085, 1.082e-3
-1.086, 1.085e-3
-1.087, 1.082e-3
-1.088, 1.079e-3
-1.089, 1.073e-3
-1.090, 1.073e-3
-1.091, 1.076e-3
-1.092, 1.082e-3
-1.093, 1.085e-3
-1.094, 1.092e-3
-1.095, 1.095e-3
-1.096, 1.095e-3
-1.097, 1.092e-3
-1.098, 1.088e-3
-1.099, 1.085e-3
-1.100, 1.088e-3
-1.101, 1.088e-3
-1.102, 1.095e-3
-1.103, 1.101e-3
-1.104, 1.104e-3
-1.105, 1.107e-3
-1.106, 1.110e-3
-1.107, 1.107e-3
-1.108, 1.104e-3
-1.109, 1.101e-3
-1.110, 1.104e-3
-1.111, 1.104e-3
-1.112, 1.110e-3
-1.113, 1.116e-3
-1.114, 1.125e-3
-1.115, 1.129e-3
-1.116, 1.129e-3
-1.117, 1.125e-3
-1.118, 1.125e-3
-1.119, 1.122e-3
-1.120, 1.122e-3
-1.121, 1.129e-3
-1.122, 1.132e-3
-1.123, 1.138e-3
-1.124, 1.147e-3
-1.125, 1.147e-3
-1.126, 1.150e-3
-1.127, 1.150e-3
-1.128, 1.147e-3
-1.129, 1.147e-3
-1.130, 1.150e-3
-1.131, 1.150e-3
-1.132, 1.159e-3
-1.133, 1.166e-3
-1.134, 1.175e-3
-1.135, 1.175e-3
-1.136, 1.178e-3
-1.137, 1.178e-3
-1.138, 1.175e-3
-1.139, 1.175e-3
-1.140, 1.178e-3
-1.141, 1.181e-3
-1.142, 1.190e-3
-1.143, 1.196e-3
-1.144, 1.203e-3
-1.145, 1.206e-3
-1.146, 1.212e-3
-1.147, 1.209e-3
-1.148, 1.209e-3
-1.149, 1.209e-3
-1.150, 1.212e-3
-1.151, 1.215e-3
-1.152, 1.224e-3
-1.153, 1.230e-3
-1.154, 1.236e-3
-1.155, 1.243e-3
-1.156, 1.246e-3
-1.157, 1.246e-3
-1.158, 1.246e-3
-1.159, 1.246e-3
-1.160, 1.249e-3
-1.161, 1.255e-3
-1.162, 1.261e-3
-1.163, 1.270e-3
-1.164, 1.280e-3
-1.165, 1.286e-3
-1.166, 1.289e-3
-1.167, 1.289e-3
-1.168, 1.289e-3
-1.169, 1.292e-3
-1.170, 1.295e-3
-1.171, 1.301e-3
-1.172, 1.310e-3
-1.173, 1.317e-3
-1.174, 1.326e-3
-1.175, 1.332e-3
-1.176, 1.335e-3
-1.177, 1.338e-3
-1.178, 1.341e-3
-1.179, 1.338e-3
-1.180, 1.344e-3
-1.181, 1.351e-3
-1.182, 1.360e-3
-1.183, 1.369e-3
-1.184, 1.378e-3
-1.185, 1.384e-3
-1.186, 1.391e-3
-1.187, 1.391e-3
-1.188, 1.394e-3
-1.189, 1.394e-3
-1.190, 1.400e-3
-1.191, 1.406e-3
-1.192, 1.415e-3
-1.193, 1.425e-3
-1.194, 1.437e-3
-1.195, 1.443e-3
-1.196, 1.449e-3
-1.197, 1.449e-3
-1.198, 1.452e-3
-1.199, 1.455e-3
-1.200, 1.462e-3
-1.201, 1.468e-3
-1.202, 1.477e-3
-1.203, 1.489e-3
-1.204, 1.502e-3
-1.205, 1.508e-3
-1.206, 1.514e-3
-1.207, 1.517e-3
-1.208, 1.520e-3
-1.209, 1.523e-3
-1.210, 1.529e-3
-1.211, 1.536e-3
-1.212, 1.548e-3
-1.213, 1.557e-3
-1.214, 1.573e-3
-1.215, 1.579e-3
-1.216, 1.585e-3
-1.217, 1.591e-3
-1.218, 1.591e-3
-1.219, 1.594e-3
-1.220, 1.603e-3
-1.221, 1.613e-3
-1.222, 1.622e-3
-1.223, 1.634e-3
-1.224, 1.647e-3
-1.225, 1.656e-3
-1.226, 1.662e-3
-1.227, 1.668e-3
-1.228, 1.671e-3
-1.229, 1.677e-3
-1.230, 1.684e-3
-1.231, 1.696e-3
-1.232, 1.705e-3
-1.233, 1.721e-3
-1.234, 1.733e-3
-1.235, 1.742e-3
-1.236, 1.751e-3
-1.237, 1.754e-3
-1.238, 1.758e-3
-1.239, 1.764e-3
-1.240, 1.770e-3
-1.241, 1.779e-3
-1.242, 1.795e-3
-1.243, 1.807e-3
-1.244, 1.819e-3
-1.245, 1.828e-3
-1.246, 1.838e-3
-1.247, 1.844e-3
-1.248, 1.847e-3
-1.249, 1.853e-3
-1.250, 1.862e-3
-1.251, 1.872e-3
-1.252, 1.887e-3
-1.253, 1.899e-3
-1.254, 1.915e-3
-1.255, 1.927e-3
-1.256, 1.936e-3
-1.257, 1.943e-3
-1.258, 1.949e-3
-1.259, 1.955e-3
-1.260, 1.964e-3
-1.261, 1.973e-3
-1.262, 1.989e-3
-1.263, 2.004e-3
-1.264, 2.020e-3
-1.265, 2.032e-3
-1.266, 2.041e-3
-1.267, 2.050e-3
-1.268, 2.057e-3
-1.269, 2.063e-3
-1.270, 2.075e-3
-1.271, 2.084e-3
-1.272, 2.100e-3
-1.273, 2.115e-3
-1.274, 2.134e-3
-1.275, 2.146e-3
-1.276, 2.158e-3
-1.277, 2.164e-3
-1.278, 2.174e-3
-1.279, 2.183e-3
-1.280, 2.195e-3
-1.281, 2.211e-3
-1.282, 2.226e-3
-1.283, 2.242e-3
-1.284, 2.260e-3
-1.285, 2.272e-3
-1.286, 2.285e-3
-1.287, 2.297e-3
-1.288, 2.306e-3
-1.289, 2.312e-3
-1.290, 2.328e-3
-1.291, 2.340e-3
-1.292, 2.359e-3
-1.293, 2.377e-3
-1.294, 2.396e-3
-1.295, 2.411e-3
-1.296, 2.427e-3
-1.297, 2.439e-3
-1.298, 2.448e-3
-1.299, 2.457e-3
-1.300, 2.473e-3
-1.301, 2.488e-3
-1.302, 2.510e-3
-1.303, 2.528e-3
-1.304, 2.550e-3
-1.305, 2.568e-3
-1.306, 2.584e-3
-1.307, 2.599e-3
-1.308, 2.612e-3
-1.309, 2.624e-3
-1.310, 2.639e-3
-1.311, 2.658e-3
-1.312, 2.679e-3
-1.313, 2.701e-3
-1.314, 2.723e-3
-1.315, 2.744e-3
-1.316, 2.760e-3
-1.317, 2.775e-3
-1.318, 2.787e-3
-1.319, 2.803e-3
-1.320, 2.821e-3
-1.321, 2.843e-3
-1.322, 2.864e-3
-1.323, 2.889e-3
-1.324, 2.914e-3
-1.325, 2.935e-3
-1.326, 2.957e-3
-1.327, 2.972e-3
-1.328, 2.991e-3
-1.329, 3.009e-3
-1.330, 3.028e-3
-1.331, 3.052e-3
-1.332, 3.077e-3
-1.333, 3.105e-3
-1.334, 3.133e-3
-1.335, 3.154e-3
-1.336, 3.179e-3
-1.337, 3.200e-3
-1.338, 3.219e-3
-1.339, 3.237e-3
-1.340, 3.262e-3
-1.341, 3.284e-3
-1.342, 3.314e-3
-1.343, 3.342e-3
-1.344, 3.373e-3
-1.345, 3.401e-3
-1.346, 3.425e-3
-1.347, 3.447e-3
-1.348, 3.469e-3
-1.349, 3.490e-3
-1.350, 3.518e-3
-1.351, 3.546e-3
-1.352, 3.577e-3
-1.353, 3.607e-3
-1.354, 3.644e-3
-1.355, 3.672e-3
-1.356, 3.700e-3
-1.357, 3.725e-3
-1.358, 3.749e-3
-1.359, 3.774e-3
-1.360, 3.805e-3
-1.361, 3.836e-3
-1.362, 3.869e-3
-1.363, 3.906e-3
-1.364, 3.940e-3
-1.365, 3.974e-3
-1.366, 4.008e-3
-1.367, 4.036e-3
-1.368, 4.067e-3
-1.369, 4.095e-3
-1.370, 4.128e-3
-1.371, 4.162e-3
-1.372, 4.190e-3
-1.373, 4.224e-3
-1.374, 4.264e-3
-1.375, 4.298e-3
-1.376, 4.332e-3
-1.377, 4.366e-3
-1.378, 4.394e-3
-1.379, 4.428e-3
-1.380, 4.464e-3
-1.381, 4.498e-3
-1.382, 4.542e-3
-1.383, 4.585e-3
-1.384, 4.628e-3
-1.385, 4.671e-3
-1.386, 4.708e-3
-1.387, 4.745e-3
-1.388, 4.782e-3
-1.389, 4.816e-3
-1.390, 4.856e-3
-1.391, 4.896e-3
-1.392, 4.942e-3
-1.393, 4.989e-3
-1.394, 5.035e-3
-1.395, 5.081e-3
-1.396, 5.124e-3
-1.397, 5.161e-3
-1.398, 5.204e-3
-1.399, 5.241e-3
-1.400, 5.288e-3
-1.401, 5.334e-3
-1.402, 5.383e-3
-1.403, 5.433e-3
-1.404, 5.485e-3
-1.405, 5.534e-3
-1.406, 5.581e-3
-1.407, 5.627e-3
-1.408, 5.670e-3
-1.409, 5.713e-3
-1.410, 5.759e-3
-1.411, 5.806e-3
-1.412, 5.858e-3
-1.413, 5.907e-3
-1.414, 5.960e-3
-1.415, 6.012e-3
-1.416, 6.058e-3
-1.417, 6.105e-3
-1.418, 6.151e-3
-1.419, 6.194e-3
-1.420, 6.247e-3
-1.421, 6.299e-3
-1.422, 6.358e-3
-1.423, 6.413e-3
-1.424, 6.472e-3
-1.425, 6.527e-3
-1.426, 6.580e-3
-1.427, 6.641e-3
-1.428, 6.697e-3
-1.429, 6.752e-3
-1.430, 6.808e-3
-1.431, 6.866e-3
-1.432, 6.931e-3
-1.433, 6.990e-3
-1.434, 7.054e-3
-1.435, 7.116e-3
-1.436, 7.171e-3
-1.437, 7.224e-3
-1.438, 7.276e-3
-1.439, 7.326e-3
-1.440, 7.381e-3
-1.441, 7.443e-3
-1.442, 7.504e-3
-1.443, 7.566e-3
-1.444, 7.634e-3
-1.445, 7.696e-3
-1.446, 7.757e-3
-1.447, 7.819e-3
-1.448, 7.878e-3
-1.449, 7.936e-3
-1.450, 7.998e-3
-1.451, 8.062e-3
-1.452, 8.130e-3
-1.453, 8.198e-3
-1.454, 8.269e-3
-1.455, 8.337e-3
-1.456, 8.399e-3
-1.457, 8.463e-3
-1.458, 8.525e-3
-1.459, 8.587e-3
-1.460, 8.648e-3
-1.461, 8.713e-3
-1.462, 8.781e-3
-1.463, 8.852e-3
-1.464, 8.920e-3
-1.465, 8.987e-3
-1.466, 9.040e-3
-1.467, 9.098e-3
-1.468, 9.160e-3
-1.469, 9.222e-3
-1.470, 9.296e-3
-1.471, 9.367e-3
-1.472, 9.441e-3
-1.473, 9.512e-3
-1.474, 9.589e-3
-1.475, 9.663e-3
-1.476, 9.730e-3
-1.477, 9.801e-3
-1.478, 9.872e-3
-1.479, 9.940e-3
-1.480, 1.001e-2
-1.481, 1.009e-2
-1.482, 1.017e-2
-1.483, 1.025e-2
-1.484, 1.032e-2
-1.485, 1.039e-2
-1.486, 1.047e-2
-1.487, 1.054e-2
-1.488, 1.061e-2
-1.489, 1.068e-2
-1.490, 1.075e-2
-1.491, 1.082e-2
-1.492, 1.091e-2
-1.493, 1.098e-2
-1.494, 1.107e-2
-1.495, 1.115e-2
-1.496, 1.122e-2
-1.497, 1.130e-2
-1.498, 1.138e-2
-1.499, 1.145e-2
-1.500, 1.140e-2
-1.499, 1.116e-2
-1.498, 1.097e-2
-1.497, 1.079e-2
-1.496, 1.064e-2
-1.495, 1.049e-2
-1.494, 1.034e-2
-1.493, 1.020e-2
-1.492, 1.006e-2
-1.491, 9.922e-3
-1.490, 9.792e-3
-1.489, 9.663e-3
-1.488, 9.542e-3
-1.487, 9.422e-3
-1.486, 9.308e-3
-1.485, 9.194e-3
-1.484, 9.074e-3
-1.483, 8.960e-3
-1.482, 8.843e-3
-1.481, 8.725e-3
-1.480, 8.614e-3
-1.479, 8.506e-3
-1.478, 8.405e-3
-1.477, 8.303e-3
-1.476, 8.204e-3
-1.475, 8.103e-3
-1.474, 8.001e-3
-1.473, 7.896e-3
-1.472, 7.794e-3
-1.471, 7.689e-3
-1.470, 7.591e-3
-1.469, 7.492e-3
-1.468, 7.393e-3
-1.467, 7.301e-3
-1.466, 7.212e-3
-1.465, 7.113e-3
-1.464, 7.020e-3
-1.463, 6.922e-3
-1.462, 6.826e-3
-1.461, 6.731e-3
-1.460, 6.638e-3
-1.459, 6.549e-3
-1.458, 6.465e-3
-1.457, 6.385e-3
-1.456, 6.308e-3
-1.455, 6.225e-3
-1.454, 6.142e-3
-1.453, 6.055e-3
-1.452, 5.969e-3
-1.451, 5.883e-3
-1.450, 5.799e-3
-1.449, 5.719e-3
-1.448, 5.645e-3
-1.447, 5.565e-3
-1.446, 5.491e-3
-1.445, 5.411e-3
-1.444, 5.334e-3
-1.443, 5.257e-3
-1.442, 5.177e-3
-1.441, 5.093e-3
-1.440, 5.013e-3
-1.439, 4.933e-3
-1.438, 4.865e-3
-1.437, 4.801e-3
-1.436, 4.733e-3
-1.435, 4.665e-3
-1.434, 4.591e-3
-1.433, 4.517e-3
-1.432, 4.446e-3
-1.431, 4.372e-3
-1.430, 4.301e-3
-1.429, 4.236e-3
-1.428, 4.178e-3
-1.427, 4.116e-3
-1.426, 4.054e-3
-1.425, 3.993e-3
-1.424, 3.928e-3
-1.423, 3.860e-3
-1.422, 3.789e-3
-1.421, 3.725e-3
-1.420, 3.657e-3
-1.419, 3.598e-3
-1.418, 3.540e-3
-1.417, 3.484e-3
-1.416, 3.429e-3
-1.415, 3.370e-3
-1.414, 3.311e-3
-1.413, 3.250e-3
-1.412, 3.188e-3
-1.411, 3.123e-3
-1.410, 3.065e-3
-1.409, 3.009e-3
-1.408, 2.957e-3
-1.407, 2.904e-3
-1.406, 2.855e-3
-1.405, 2.806e-3
-1.404, 2.750e-3
-1.403, 2.692e-3
-1.402, 2.633e-3
-1.401, 2.578e-3
-1.400, 2.528e-3
-1.399, 2.476e-3
-1.398, 2.430e-3
-1.397, 2.380e-3
-1.396, 2.334e-3
-1.395, 2.288e-3
-1.394, 2.235e-3
-1.393, 2.183e-3
-1.392, 2.134e-3
-1.391, 2.078e-3
-1.390, 2.032e-3
-1.389, 1.986e-3
-1.388, 1.943e-3
-1.387, 1.902e-3
-1.386, 1.859e-3
-1.385, 1.816e-3
-1.384, 1.773e-3
-1.383, 1.724e-3
-1.382, 1.674e-3
-1.381, 1.625e-3
-1.380, 1.579e-3
-1.379, 1.539e-3
-1.378, 1.502e-3
-1.377, 1.465e-3
-1.376, 1.428e-3
-1.375, 1.388e-3
-1.374, 1.344e-3
-1.373, 1.304e-3
-1.372, 1.261e-3
-1.371, 1.215e-3
-1.370, 1.178e-3
-1.369, 1.138e-3
-1.368, 1.104e-3
-1.367, 1.067e-3
-1.366, 1.033e-3
-1.365, 9.991e-4
-1.364, 9.590e-4
-1.363, 9.220e-4
-1.362, 8.819e-4
-1.361, 8.418e-4
-1.360, 8.079e-4
-1.359, 7.740e-4
-1.358, 7.432e-4
-1.357, 7.154e-4
-1.356, 6.877e-4
-1.355, 6.569e-4
-1.354, 6.229e-4
-1.353, 5.859e-4
-1.352, 5.520e-4
-1.351, 5.150e-4
-1.350, 4.842e-4
-1.349, 4.534e-4
-1.348, 4.256e-4
-1.347, 4.010e-4
-1.346, 3.763e-4
-1.345, 3.485e-4
-1.344, 3.208e-4
-1.343, 2.869e-4
-1.342, 2.530e-4
-1.341, 2.221e-4
-1.340, 1.913e-4
-1.339, 1.666e-4
-1.338, 1.420e-4
-1.337, 1.204e-4
-1.336, 9.882e-5
-1.335, 7.107e-5
-1.334, 4.640e-5
-1.333, 1.557e-5
-1.332, -1.218e-5
-1.331, -4.301e-5
-1.330, -6.767e-5
-1.329, -9.234e-5
-1.328, -1.139e-4
-1.327, -1.324e-4
-1.326, -1.540e-4
-1.325, -1.756e-4
-1.324, -2.002e-4
-1.323, -2.249e-4
-1.322, -2.527e-4
-1.321, -2.835e-4
-1.320, -3.051e-4
-1.319, -3.267e-4
-1.318, -3.482e-4
-1.317, -3.637e-4
-1.316, -3.791e-4
-1.315, -4.006e-4
-1.314, -4.222e-4
-1.313, -4.469e-4
-1.312, -4.716e-4
-1.311, -4.962e-4
-1.310, -5.178e-4
-1.309, -5.363e-4
-1.308, -5.517e-4
-1.307, -5.702e-4
-1.306, -5.826e-4
-1.305, -6.011e-4
-1.304, -6.195e-4
-1.303, -6.411e-4
-1.302, -6.658e-4
-1.301, -6.874e-4
-1.300, -7.059e-4
-1.299, -7.244e-4
-1.298, -7.367e-4
-1.297, -7.490e-4
-1.296, -7.614e-4
-1.295, -7.799e-4
-1.294, -7.984e-4
-1.293, -8.200e-4
-1.292, -8.415e-4
-1.291, -8.631e-4
-1.290, -8.785e-4
-1.289, -8.939e-4
-1.288, -9.063e-4
-1.287, -9.186e-4
-1.286, -9.279e-4
-1.285, -9.433e-4
-1.284, -9.587e-4
-1.283, -9.772e-4
-1.282, -9.957e-4
-1.281, -1.017e-3
-1.280, -1.033e-3
-1.279, -1.045e-3
-1.278, -1.054e-3
-1.277, -1.064e-3
-1.276, -1.073e-3
-1.275, -1.082e-3
-1.274, -1.097e-3
-1.273, -1.113e-3
-1.272, -1.131e-3
-1.271, -1.150e-3
-1.270, -1.162e-3
-1.269, -1.175e-3
-1.268, -1.184e-3
-1.267, -1.190e-3
-1.266, -1.199e-3
-1.265, -1.212e-3
-1.264, -1.221e-3
-1.263, -1.236e-3
-1.262, -1.252e-3
-1.261, -1.267e-3
-1.260, -1.282e-3
-1.259, -1.292e-3
-1.258, -1.298e-3
-1.257, -1.307e-3
-1.256, -1.310e-3
-1.255, -1.322e-3
-1.254, -1.335e-3
-1.253, -1.347e-3
-1.252, -1.359e-3
-1.251, -1.372e-3
-1.250, -1.384e-3
-1.249, -1.393e-3
-1.248, -1.396e-3
-1.247, -1.403e-3
-1.246, -1.409e-3
-1.245, -1.415e-3
-1.244, -1.427e-3
-1.243, -1.440e-3
-1.242, -1.452e-3
-1.241, -1.467e-3
-1.240, -1.477e-3
-1.239, -1.483e-3
-1.238, -1.486e-3
-1.237, -1.492e-3
-1.236, -1.495e-3
-1.235, -1.501e-3
-1.234, -1.514e-3
-1.233, -1.523e-3
-1.232, -1.535e-3
-1.231, -1.551e-3
-1.230, -1.557e-3
-1.229, -1.569e-3
-1.228, -1.572e-3
-1.227, -1.575e-3
-1.226, -1.578e-3
-1.225, -1.581e-3
-1.224, -1.588e-3
-1.223, -1.600e-3
-1.222, -1.612e-3
-1.221, -1.622e-3
-1.220, -1.631e-3
-1.219, -1.637e-3
-1.218, -1.640e-3
-1.217, -1.643e-3
-1.216, -1.643e-3
-1.215, -1.649e-3
-1.214, -1.655e-3
-1.213, -1.665e-3
-1.212, -1.677e-3
-1.211, -1.686e-3
-1.210, -1.692e-3
-1.209, -1.699e-3
-1.208, -1.699e-3
-1.207, -1.702e-3
-1.206, -1.702e-3
-1.205, -1.708e-3
-1.204, -1.714e-3
-1.203, -1.723e-3
-1.202, -1.733e-3
-1.201, -1.742e-3
-1.200, -1.745e-3
-1.199, -1.748e-3
-1.198, -1.748e-3
-1.197, -1.748e-3
-1.196, -1.748e-3
-1.195, -1.751e-3
-1.194, -1.754e-3
-1.193, -1.763e-3
-1.192, -1.773e-3
-1.191, -1.779e-3
-1.190, -1.785e-3
-1.189, -1.788e-3
-1.188, -1.791e-3
-1.187, -1.791e-3
-1.186, -1.791e-3
-1.185, -1.794e-3
-1.184, -1.800e-3
-1.183, -1.810e-3
-1.182, -1.816e-3
-1.181, -1.828e-3
-1.180, -1.831e-3
-1.179, -1.834e-3
-1.178, -1.837e-3
-1.177, -1.840e-3
-1.176, -1.840e-3
-1.175, -1.844e-3
-1.174, -1.850e-3
-1.173, -1.856e-3
-1.172, -1.865e-3
-1.171, -1.874e-3
-1.170, -1.881e-3
-1.169, -1.884e-3
-1.168, -1.884e-3
-1.167, -1.887e-3
-1.166, -1.884e-3
-1.165, -1.890e-3
-1.164, -1.893e-3
-1.163, -1.902e-3
-1.162, -1.908e-3
-1.161, -1.918e-3
-1.160, -1.921e-3
-1.159, -1.924e-3
-1.158, -1.927e-3
-1.157, -1.924e-3
-1.156, -1.924e-3
-1.155, -1.924e-3
-1.154, -1.927e-3
-1.153, -1.936e-3
-1.152, -1.942e-3
-1.151, -1.951e-3
-1.150, -1.961e-3
-1.149, -1.964e-3
-1.148, -1.970e-3
-1.147, -1.970e-3
-1.146, -1.970e-3
-1.145, -1.973e-3
-1.144, -1.979e-3
-1.143, -1.985e-3
-1.142, -1.995e-3
-1.141, -2.001e-3
-1.140, -2.007e-3
-1.139, -2.010e-3
-1.138, -2.010e-3
-1.137, -2.010e-3
-1.136, -2.010e-3
-1.135, -2.013e-3
-1.134, -2.019e-3
-1.133, -2.022e-3
-1.132, -2.032e-3
-1.131, -2.038e-3
-1.130, -2.044e-3
-1.129, -2.047e-3
-1.128, -2.047e-3
-1.127, -2.050e-3
-1.126, -2.047e-3
-1.125, -2.050e-3
-1.124, -2.056e-3
-1.123, -2.062e-3
-1.122, -2.069e-3
-1.121, -2.078e-3
-1.120, -2.081e-3
-1.119, -2.087e-3
-1.118, -2.084e-3
-1.117, -2.084e-3
-1.116, -2.084e-3
-1.115, -2.084e-3
-1.114, -2.090e-3
-1.113, -2.096e-3
-1.112, -2.103e-3
-1.111, -2.112e-3
-1.110, -2.115e-3
-1.109, -2.115e-3
-1.108, -2.118e-3
-1.107, -2.115e-3
-1.106, -2.112e-3
-1.105, -2.115e-3
-1.104, -2.118e-3
-1.103, -2.124e-3
-1.102, -2.130e-3
-1.101, -2.136e-3
-1.100, -2.143e-3
-1.099, -2.143e-3
-1.098, -2.143e-3
-1.097, -2.143e-3
-1.096, -2.136e-3
-1.095, -2.140e-3
-1.094, -2.143e-3
-1.093, -2.149e-3
-1.092, -2.155e-3
-1.091, -2.161e-3
-1.090, -2.164e-3
-1.089, -2.164e-3
-1.088, -2.161e-3
-1.087, -2.158e-3
-1.086, -2.155e-3
-1.085, -2.155e-3
-1.084, -2.155e-3
-1.083, -2.158e-3
-1.082, -2.161e-3
-1.081, -2.167e-3
-1.080, -2.167e-3
-1.079, -2.161e-3
-1.078, -2.158e-3
-1.077, -2.152e-3
-1.076, -2.149e-3
-1.075, -2.149e-3
-1.074, -2.149e-3
-1.073, -2.152e-3
-1.072, -2.155e-3
-1.071, -2.158e-3
-1.070, -2.161e-3
-1.069, -2.158e-3
-1.068, -2.155e-3
-1.067, -2.149e-3
-1.066, -2.143e-3
-1.065, -2.140e-3
-1.064, -2.140e-3
-1.063, -2.143e-3
-1.062, -2.146e-3
-1.061, -2.149e-3
-1.060, -2.149e-3
-1.059, -2.146e-3
-1.058, -2.143e-3
-1.057, -2.136e-3
-1.056, -2.130e-3
-1.055, -2.127e-3
-1.054, -2.127e-3
-1.053, -2.127e-3
-1.052, -2.133e-3
-1.051, -2.133e-3
-1.050, -2.133e-3
-1.049, -2.130e-3
-1.048, -2.124e-3
-1.047, -2.115e-3
-1.046, -2.109e-3
-1.045, -2.103e-3
-1.044, -2.106e-3
-1.043, -2.103e-3
-1.042, -2.106e-3
-1.041, -2.109e-3
-1.040, -2.103e-3
-1.039, -2.099e-3
-1.038, -2.093e-3
-1.037, -2.084e-3
-1.036, -2.075e-3
-1.035, -2.072e-3
-1.034, -2.069e-3
-1.033, -2.072e-3
-1.032, -2.072e-3
-1.031, -2.072e-3
-1.030, -2.072e-3
-1.029, -2.069e-3
-1.028, -2.062e-3
-1.027, -2.059e-3
-1.026, -2.053e-3
-1.025, -2.053e-3
-1.024, -2.053e-3
-1.023, -2.053e-3
-1.022, -2.056e-3
-1.021, -2.059e-3
-1.020, -2.056e-3
-1.019, -2.050e-3
-1.018, -2.044e-3
-1.017, -2.038e-3
-1.016, -2.029e-3
-1.015, -2.025e-3
-1.014, -2.022e-3
-1.013, -2.022e-3
-1.012, -2.022e-3
-1.011, -2.022e-3
-1.010, -2.022e-3
-1.009, -2.016e-3
-1.008, -2.010e-3
-1.007, -2.004e-3
-1.006, -1.995e-3
-1.005, -1.992e-3
-1.004, -1.988e-3
-1.003, -1.988e-3
-1.002, -1.988e-3
-1.001, -1.992e-3
