Potential V vs RHE, Current mA cm-2
0.013299999999999867,-0.41083216148080665
0.012299999999999978,-0.4159251221603208
0.011299999999999866,-0.4198863137999429
0.010299999999999976,-0.42271573639967297
0.009299999999999864,-0.42596957238936256
0.008299999999999974,-0.42823311046914664
0.007299999999999862,-0.43049664854893066
0.006299999999999972,-0.4323357732387552
0.00529999999999986,-0.43474078244852576
0.0042999999999999705,-0.43615549374839085
0.0032999999999998586,-0.4385605029581614
0.0022999999999999687,-0.43983374312803997
0.0012999999999998568,-0.44195581007783746
0.00029999999999996696,-0.44322905024771597
-0.000700000000000145,-0.44506817493754053
-0.0017000000000000348,-0.4464828862374056
-0.0027000000000001467,-0.4478975975372706
-0.0037000000000000366,-0.44973672222709515
-0.0047000000000001485,-0.4514343757869332
-0.005700000000000038,-0.45299055821678474
-0.00670000000000015,-0.4541223272566768
-0.00770000000000004,-0.4558199808165148
-0.008700000000000152,-0.45765910550633937
-0.009700000000000042,-0.45907381680620446
-0.010700000000000154,-0.46091294149602896
-0.011700000000000044,-0.46176176827594795
-0.012700000000000156,-0.4630350084458265
-0.013700000000000045,-0.46473266200566454
-0.014700000000000157,-0.4661473733055296
-0.015700000000000047,-0.46756208460539456
-0.01670000000000016,-0.4688353247752731
-0.01770000000000005,-0.47010856494515163
-0.01870000000000016,-0.4715232762450167
-0.01970000000000005,-0.4733624009348413
-0.020700000000000163,-0.47463564110471984
-0.021700000000000053,-0.47590888127459835
-0.022700000000000164,-0.47746506370444985
-0.023700000000000054,-0.4790212461343014
-0.024700000000000166,-0.48015301517419345
-0.025700000000000056,-0.481709197604045
-0.026700000000000168,-0.48227508212399106
-0.027700000000000058,-0.4838312645538425
-0.02870000000000017,-0.4845386202037751
-0.02970000000000006,-0.48637774489359964
-0.03070000000000017,-0.4877924561934647
-0.03170000000000006,-0.48892422523335666
-0.03270000000000017,-0.48991452314326217
-0.03370000000000006,-0.4917536478330867
-0.034700000000000175,-0.4921780612230462
-0.035700000000000065,-0.4941586570428573
-0.03670000000000018,-0.49514895495276273
-0.03770000000000007,-0.49613925286266836
-0.03870000000000018,-0.4969880796425873
-0.03970000000000007,-0.49868573320242543
-0.04070000000000018,-0.4995345599823444
-0.04170000000000007,-0.5009492712822095
-0.04270000000000018,-0.5012322135421824
-0.04370000000000007,-0.5029298671020205
-0.044700000000000184,-0.5034957516219666
-0.045700000000000074,-0.505051934051818
-0.046700000000000186,-0.5057592897017505
-0.047700000000000076,-0.5067495876116561
-0.04870000000000019,-0.5077398855215616
-0.04970000000000008,-0.5092960679514131
-0.05070000000000019,-0.5098619524713591
-0.05170000000000008,-0.5109937215112512
-0.05270000000000019,-0.5119840194211568
-0.05370000000000008,-0.5131157884610488
-0.05470000000000019,-0.5136816729809948
-0.05570000000000008,-0.5149549131508734
-0.056700000000000195,-0.5153793265408328
-0.057700000000000085,-0.5166525667107114
-0.058700000000000196,-0.5175013934906304
-0.059700000000000086,-0.5186331625305225
-0.0607000000000002,-0.5191990470504685
-0.06170000000000009,-0.5203308160903605
-0.0627000000000002,-0.521321114000266
-0.06370000000000009,-0.5221699407801851
-0.0647000000000002,-0.5230187675601041
-0.06570000000000009,-0.5238675943400232
-0.0667000000000002,-0.5249993633799152
-0.0677000000000001,-0.5259896612898207
-0.0687000000000002,-0.5271214303297127
-0.0697000000000001,-0.5275458437196722
-0.07070000000000021,-0.5286776127595643
-0.0717000000000001,-0.5293849684094968
-0.07270000000000021,-0.5306582085793753
-0.0737000000000001,-0.5306582085793753
-0.07470000000000021,-0.5319314487492538
-0.0757000000000001,-0.5323558621392133
-0.07670000000000021,-0.533346160049119
-0.0777000000000001,-0.5334876311791055
-0.07870000000000021,-0.5344779290890109
-0.0797000000000001,-0.5346194002189975
-0.08070000000000022,-0.5360341115188624
-0.0817000000000001,-0.5361755826488489
-0.08270000000000022,-0.537307351688741
-0.08370000000000011,-0.5377317650787005
-0.08470000000000022,-0.538722062988606
-0.08570000000000011,-0.539287947508552
-0.08670000000000022,-0.5399953031584845
-0.08770000000000011,-0.539853832028498
-0.08870000000000022,-0.5409856010683901
-0.08970000000000011,-0.5414100144583496
-0.09070000000000022,-0.5414100144583496
-0.09170000000000011,-0.5418344278483092
-0.09270000000000023,-0.5425417834982416
-0.09370000000000012,-0.5433906102781606
-0.09470000000000023,-0.5438150236681201
-0.09570000000000012,-0.5442394370580796
-0.09670000000000023,-0.5442394370580796
-0.09770000000000012,-0.5455126772279582
-0.09870000000000023,-0.5456541483579447
-0.09970000000000012,-0.5465029751378637
-0.10070000000000023,-0.5466444462678502
-0.10170000000000012,-0.5474932730477692
-0.10270000000000024,-0.5474932730477692
-0.10370000000000013,-0.5484835709576747
-0.10470000000000024,-0.5486250420876613
-0.10570000000000013,-0.5496153399975668
-0.10670000000000024,-0.5497568111275533
-0.10770000000000013,-0.5497568111275533
-0.10870000000000024,-0.5500397533875263
-0.10970000000000013,-0.5511715224274183
-0.11070000000000024,-0.5510300512974318
-0.11170000000000013,-0.5515959358173778
-0.11270000000000002,-0.5515959358173778
-0.11370000000000013,-0.5524447625972969
-0.11470000000000002,-0.5523032914673103
-0.11570000000000014,-0.5530106471172429
-0.11670000000000003,-0.5527277048572699
-0.11770000000000014,-0.553293589377216
-0.11870000000000003,-0.5534350605072024
-0.11970000000000014,-0.5540009450271484
-0.12070000000000003,-0.5544253584171079
-0.12170000000000014,-0.5547083006770809
-0.12270000000000003,-0.5547083006770809
-0.12370000000000014,-0.5552741851970269
-0.12470000000000003,-0.5559815408469594
-0.12570000000000014,-0.5552741851970269
-0.12670000000000003,-0.5554156563270134
-0.12770000000000015,-0.5552741851970269
-0.12870000000000004,-0.5559815408469594
-0.12970000000000015,-0.5562644831069326
-0.13070000000000004,-0.556688896496892
-0.13170000000000015,-0.5565474253669055
-0.13270000000000004,-0.556971838756865
-0.13370000000000015,-0.556971838756865
-0.13470000000000004,-0.557537723276811
-0.13570000000000015,-0.557537723276811
-0.13670000000000004,-0.5579621366667705
-0.13770000000000016,-0.5573962521468245
-0.13870000000000005,-0.5581036077967569
-0.13970000000000016,-0.5579621366667705
-0.14070000000000005,-0.558669492316703
-0.14170000000000016,-0.558669492316703
-0.14270000000000005,-0.5596597902266085
-0.14370000000000016,-0.559235376836649
-0.14470000000000005,-0.5599427324865814
-0.14570000000000016,-0.5599427324865814
-0.14670000000000005,-0.5603671458765411
-0.14770000000000016,-0.5600842036165681
-0.14870000000000005,-0.5605086170065275
-0.14970000000000017,-0.5605086170065275
-0.15070000000000006,-0.5607915592665006
-0.15170000000000017,-0.5606500881365141
-0.15270000000000006,-0.5607915592665006
-0.15370000000000017,-0.5610745015264736
-0.15470000000000006,-0.5607915592665006
-0.15570000000000017,-0.561781857176406
-0.15670000000000006,-0.561781857176406
-0.15770000000000017,-0.5620647994363791
-0.15870000000000006,-0.561781857176406
-0.15970000000000018,-0.5620647994363791
-0.16070000000000007,-0.5620647994363791
-0.16170000000000018,-0.5627721550863116
-0.16270000000000007,-0.5619233283063926
-0.16370000000000018,-0.5626306839563251
-0.16470000000000007,-0.562913626216298
-0.16570000000000018,-0.5631965684762711
-0.16670000000000007,-0.5627721550863116
-0.16770000000000018,-0.5636209818662306
-0.16870000000000007,-0.5636209818662306
-0.16970000000000018,-0.5639039241262036
-0.17070000000000007,-0.5641868663861767
-0.17170000000000019,-0.5641868663861767
-0.17270000000000008,-0.5648942220361092
-0.1737000000000002,-0.5644698086461497
-0.17470000000000008,-0.5648942220361092
-0.1757000000000002,-0.5646112797761362
-0.17670000000000008,-0.5657430488160282
-0.1777000000000002,-0.5650356931660957
-0.17870000000000008,-0.5658845199460147
-0.1797000000000002,-0.5654601065560552
-0.18070000000000008,-0.5663089333359742
-0.1817000000000002,-0.5663089333359742
-0.18270000000000008,-0.5670162889859067
-0.1837000000000002,-0.5674407023758662
-0.1847000000000001,-0.5672992312458797
-0.1857000000000002,-0.5675821735058527
-0.1867000000000001,-0.5672992312458797
-0.1877000000000002,-0.5675821735058527
-0.1887000000000001,-0.5675821735058527
-0.1897000000000002,-0.5685724714157583
-0.1907000000000001,-0.5685724714157583
-0.1917000000000001,-0.5695627693256637
-0.19269999999999998,-0.5692798270656908
-0.1937000000000001,-0.5699871827156233
-0.19469999999999998,-0.5702701249755963
-0.1957000000000001,-0.5709774806255288
-0.19669999999999999,-0.5708360094955423
-0.1977000000000001,-0.5715433651454748
-0.1987,-0.5718263074054479
-0.1997000000000001,-0.5716848362754614
-0.2007,-0.5723921919253939
-0.2017000000000001,-0.5728166053153534
-0.2027,-0.5729580764453399
-0.2037000000000001,-0.5729580764453399
-0.2047,-0.5738069032252588
-0.2057000000000001,-0.5735239609652859
-0.2067,-0.5740898454852319
-0.2077000000000001,-0.5742313166152184
-0.2087,-0.5752216145251239
-0.2097000000000001,-0.5752216145251239
-0.2107,-0.576070441305043
-0.2117000000000001,-0.5762119124350294
-0.2127,-0.576919268084962
-0.2137000000000001,-0.5767777969549754
-0.2147,-0.5781925082548405
-0.2157000000000001,-0.578333979384827
-0.2167,-0.578333979384827
-0.21770000000000012,-0.5790413350347595
-0.2187,-0.5791828061647459
-0.21970000000000012,-0.5800316329446651
-0.2207,-0.580314575204638
-0.22170000000000012,-0.5811634019845571
-0.2227,-0.5810219308545705
-0.22370000000000012,-0.582295171024449
-0.2247,-0.5824366421544356
-0.22570000000000012,-0.5837098823243142
-0.2267,-0.5832854689343547
-0.22770000000000012,-0.5844172379742467
-0.22870000000000001,-0.5849831224941927
-0.22970000000000013,-0.5855490070141387
-0.23070000000000002,-0.5862563626640712
-0.23170000000000013,-0.5863978337940576
-0.23270000000000002,-0.5878125450939228
-0.23370000000000013,-0.5882369584838822
-0.23470000000000002,-0.5889443141338148
-0.23570000000000013,-0.5890857852638013
-0.23670000000000002,-0.5906419676936527
-0.2376999999999999,-0.5907834388236393
-0.23870000000000002,-0.5916322656035584
-0.2396999999999999,-0.5921981501235044
-0.24070000000000003,-0.5933299191633964
-0.24169999999999991,-0.5937543325533559
-0.24270000000000003,-0.5943202170733018
-0.24369999999999992,-0.595169043853221
-0.24470000000000003,-0.5955934572431805
-0.24569999999999992,-0.596866697413059
-0.24670000000000003,-0.5971496396730319
-0.24769999999999992,-0.5987058221028836
-0.24870000000000003,-0.5992717066228296
-0.24969999999999992,-0.600262004532735
-0.25070000000000003,-0.600827889052681
-0.2516999999999999,-0.601393773572627
-0.25270000000000004,-0.6022426003525461
-0.2536999999999999,-0.6030914271324651
-0.25470000000000004,-0.6046476095623167
-0.2556999999999999,-0.6049305518222896
-0.25670000000000004,-0.6062037919921682
-0.25769999999999993,-0.6063452631221548
-0.25870000000000004,-0.6080429166819927
-0.25969999999999993,-0.6088917434619118
-0.26070000000000004,-0.6095990991118443
-0.26169999999999993,-0.6111552815416958
-0.26270000000000004,-0.6115796949316553
-0.26369999999999993,-0.6129944062315204
-0.26470000000000005,-0.6138432330114394
-0.26569999999999994,-0.615399415441291
-0.26670000000000005,-0.6161067710912235
-0.26769999999999994,-0.616814126741156
-0.26870000000000005,-0.6183703091710075
-0.26969999999999994,-0.618794722560967
-0.27070000000000005,-0.620775318380778
-0.27169999999999994,-0.6211997317707375
-0.27270000000000005,-0.6230388564605621
-0.27369999999999994,-0.6234632698505217
-0.27470000000000006,-0.6251609234103597
-0.27569999999999995,-0.6262926924502518
-0.27670000000000006,-0.6274244614901437
-0.27769999999999995,-0.6286977016600223
-0.27870000000000006,-0.6299709418299009
-0.27969999999999995,-0.6316685953897389
-0.28070000000000006,-0.6325174221696578
-0.28169999999999995,-0.6340736045995095
-0.28270000000000006,-0.6349224313794284
-0.28369999999999995,-0.6361956715493069
-0.28470000000000006,-0.6380347962391315
-0.28569999999999995,-0.6384592096290911
-0.28670000000000007,-0.640722747708875
-0.28769999999999996,-0.6419959878787537
-0.28870000000000007,-0.6434106991786186
-0.28969999999999996,-0.6449668816084703
-0.29070000000000007,-0.6468060062982948
-0.29169999999999996,-0.6482207175981597
-0.29270000000000007,-0.6500598422879843
-0.29369999999999996,-0.6517574958478223
-0.2947000000000001,-0.6534551494076605
-0.29569999999999996,-0.6555772163574579
-0.2967000000000001,-0.6569919276573231
-0.29769999999999996,-0.6588310523471476
-0.2987000000000001,-0.6612360615569182
-0.29969999999999997,-0.6626507728567832
-0.3007000000000001,-0.6651972531965403
-0.30169999999999997,-0.6667534356263918
-0.3027000000000001,-0.6691584448361624
-0.30369999999999997,-0.6708560983960004
-0.3047000000000001,-0.6738269921257171
-0.30569999999999997,-0.6756661168155416
-0.3067000000000001,-0.678071126025312
-0.3077,-0.6806176063650692
-0.3087000000000001,-0.6824567310548937
-0.3097,-0.6857105670445833
-0.3107000000000001,-0.6878326339943809
-0.3117,-0.6905205854641244
-0.3127000000000001,-0.692925594673895
-0.3137,-0.695472075013652
-0.3147000000000001,-0.6987259110033417
-0.3157,-0.7008479779531391
-0.3167000000000001,-0.7042432850728153
-0.3177,-0.7070727076725454
-0.3187000000000001,-0.710326543662235
-0.3197,-0.7130144951319785
-0.3207000000000001,-0.7164098022516546
-0.3217,-0.7199465805013172
-0.3227000000000001,-0.7229174742310338
-0.3237,-0.7267371947406693
-0.3247000000000001,-0.7298495596003725
-0.3257,-0.733952222369981
-0.3267000000000001,-0.7370645872296842
-0.3277,-0.7411672499992927
-0.3287000000000001,-0.7445625571189688
-0.3297,-0.7486652198885775
-0.3307000000000001,-0.7527678826581861
-0.3317,-0.7568705454277946
-0.3327000000000001,-0.7613976215873628
-0.3337,-0.7652173420969983
-0.3347000000000001,-0.7703103027765125
-0.3357,-0.774695907806094
-0.3367000000000001,-0.7792229839656621
-0.3377,-0.7843159446451763
-0.3387000000000001,-0.7891259630647174
-0.3397,-0.7949262793941642
-0.3407000000000001,-0.7994533555537322
-0.3417,-0.8049707296232058
-0.3427000000000001,-0.81006369030272
-0.3437,-0.8155810643721937
-0.3447000000000001,-0.8218057940915999
-0.3457,-0.827181697031087
-0.3467000000000001,-0.8338308401404527
-0.3477,-0.8393482142099263
-0.3487000000000001,-0.845714415059319
-0.3497,-0.8516562025187521
-0.3507000000000001,-0.8578809322381583
-0.3517,-0.8646715464775104
-0.3527000000000001,-0.8704718628069571
-0.3537,-0.8776868904362687
-0.3547000000000001,-0.8834872067657155
-0.3557,-0.8902778210050675
-0.35670000000000013,-0.8972099063744062
-0.3577,-0.9032931649638258
-0.35870000000000013,-0.9100837792031781
-0.3597,-0.9164499800525707
-0.36070000000000013,-0.923806478811869
-0.3617,-0.930314150791248
-0.3626999999999999,-0.9372462361605868
-0.3637,-0.9443197926599118
-0.3646999999999999,-0.9518177625491967
-0.3657,-0.9594572035684679
-0.3666999999999999,-0.9668137023277661
-0.3677,-0.9747360856070102
-0.3686999999999999,-0.9823755266262814
-0.36970000000000003,-0.9912882078154313
-0.3706999999999999,-0.9986447065747294
-0.37170000000000003,-1.0071329743739197
-0.3726999999999999,-1.0150553576531638
-0.37370000000000003,-1.022694798672435
-0.3746999999999999,-1.0316074798615846
-0.37570000000000003,-1.039246920880856
-0.3766999999999999,-1.0478766598100326
-0.37770000000000004,-1.0565063987392094
-0.3786999999999999,-1.0649946665383996
-0.37970000000000004,-1.073624405467576
-0.3806999999999999,-1.0826785577867126
-0.38170000000000004,-1.0924400657557813
-0.38269999999999993,-1.1009283335549715
-0.38370000000000004,-1.1104068992640672
-0.38469999999999993,-1.1200269361031494
-0.38570000000000004,-1.1295055018122453
-0.38669999999999993,-1.118470753673298
-0.38570000000000004,-1.0988062666051739
-0.38469999999999993,-1.0822541443967533
-0.38370000000000004,-1.0676826180081431
-0.38269999999999993,-1.0536769761394795
-0.38170000000000004,-1.0396713342708155
-0.3806999999999999,-1.027221874832003
-0.37970000000000004,-1.0140650597432583
-0.3786999999999999,-1.002181484824392
-0.37770000000000004,-0.9895905542555933
-0.3766999999999999,-0.9785558061166459
-0.37570000000000003,-0.9679454713676581
-0.3746999999999999,-0.9566277809687379
-0.37370000000000003,-0.9467248018696826
-0.3726999999999999,-0.9358315248607216
-0.37170000000000003,-0.92578707463168
-0.3706999999999999,-0.9158840955326246
-0.36970000000000003,-0.9056981741735964
-0.3686999999999999,-0.8965025507244737
-0.3677,-0.887023985015378
-0.3666999999999999,-0.8782527749562148
-0.3657,-0.8693400937670651
-0.3646999999999999,-0.8597200569279828
-0.3637,-0.8503829623488736
-0.3626999999999999,-0.8418946945496834
-0.3617,-0.8342552535304122
-0.36070000000000013,-0.8250596300812894
-0.3597,-0.8177031313219912
-0.35870000000000013,-0.809497805782774
-0.3577,-0.8017168936335162
-0.35670000000000013,-0.794077452614245
-0.3557,-0.7858721270750278
-0.3547000000000001,-0.7789400417056891
-0.3537,-0.7705932450364854
-0.3527000000000001,-0.7640855730571063
-0.3517,-0.7567290742978081
-0.3507000000000001,-0.7496555177984829
-0.3497,-0.7431478458191038
-0.3487000000000001,-0.7362157604497651
-0.3477,-0.729425146210413
-0.3467000000000001,-0.7227760031010473
-0.3457,-0.7161268599916816
-0.3447000000000001,-0.7096191880123024
-0.3437,-0.7029700449029368
-0.3427000000000001,-0.6967453151835306
-0.3417,-0.6905205854641244
-0.3407000000000001,-0.6847202691346778
-0.3397,-0.678071126025312
-0.3387000000000001,-0.6728366942158115
-0.3377,-0.6673193201463378
-0.3367000000000001,-0.6612360615569182
-0.3357,-0.655860158617431
-0.3347000000000001,-0.6500598422879843
-0.3337,-0.6445424682185106
-0.3327000000000001,-0.6395909786689831
-0.3317,-0.6343565468594824
-0.3307000000000001,-0.6289806439199952
-0.3297,-0.6238876832404812
-0.3287000000000001,-0.6190776648209401
-0.3277,-0.6141261752714124
-0.3267000000000001,-0.6093161568518712
-0.3257,-0.6042231961723572
-0.3247000000000001,-0.599130235492843
-0.3237,-0.595169043853221
-0.3227000000000001,-0.5910663810836124
-0.3217,-0.5869637183140037
-0.3207000000000001,-0.5817292865045031
-0.3197,-0.577768094864881
-0.3187000000000001,-0.5730995475753263
-0.3177,-0.5684310002857718
-0.3167000000000001,-0.5651771642960822
-0.3157,-0.5602256747465546
-0.3147000000000001,-0.556688896496892
-0.3137,-0.5523032914673103
-0.3127000000000001,-0.5484835709576747
-0.3117,-0.5448053215780257
-0.3107000000000001,-0.5408441299384036
-0.3097,-0.5380147073386735
-0.3087000000000001,-0.5334876311791055
-0.3077,-0.5299508529294428
-0.3067000000000001,-0.5268384880697398
-0.30569999999999997,-0.5231602386900907
-0.3047000000000001,-0.519340518180455
-0.30369999999999997,-0.5156622688008059
-0.3027000000000001,-0.5125499039411028
-0.30169999999999997,-0.5094375390813997
-0.3007000000000001,-0.5061837030917101
-0.29969999999999997,-0.503071338232007
-0.2987000000000001,-0.49967603111233094
-0.29769999999999996,-0.49670513738261435
-0.2967000000000001,-0.4935927725229112
-0.29569999999999996,-0.4913292344431272
-0.2947000000000001,-0.4877924561934647
-0.29369999999999996,-0.48496303359373455
-0.29270000000000007,-0.4826994955139505
-0.29169999999999996,-0.47916271726428794
-0.29070000000000007,-0.47675770805451734
-0.28969999999999996,-0.4735038720648278
-0.28870000000000007,-0.4708159205950842
-0.28769999999999996,-0.4684109113853136
-0.28670000000000007,-0.4655814887855836
-0.28569999999999995,-0.463459421835786
-0.28470000000000006,-0.4599226435861234
-0.28369999999999995,-0.45822499002628536
-0.28270000000000006,-0.45539556742655535
-0.28169999999999995,-0.45327350047675774
-0.28070000000000006,-0.4511514335269602
-0.27969999999999995,-0.4483220109272302
-0.27870000000000006,-0.4464828862374056
-0.27769999999999995,-0.443511992507689
-0.27670000000000006,-0.4413899255578914
-0.27569999999999995,-0.4384190318281749
-0.27470000000000006,-0.4364384360083638
-0.27369999999999994,-0.4344578401885528
