Aug. 29, 2024   02:15:39
Cyclic Voltammetry
File: c:/users/guazh/data/20240813_batch_181_500/2024-08-25-exp211\exp211-2024-08-29t01_50_42-h2koh\exp211_cv_sr_500mvs_efin_-1900mv.bin
Data Source:  Experiment
Instrument Model:  CHI760E
Header: CV ran at 500 mVs
Note: 

Init E (V) = -1
High E (V) = -1
Low E (V) = -1.9
Final E (V) = -1
Init P/N = N
Scan Rate (V/s) = 0.5
Segment = 3
Sample Interval (V) = 0.001
Quiet Time (sec) = 2
Sensitivity (A/V) = 0.01
Comp R (ohm) = 2.1

Results:

Channel 1:
Segment 1:

Segment 2:

Segment 3:

Potential/V, Current/A

-1.000, 6.322e-6
-1.001, 6.322e-6
-1.002, 9.405e-6
-1.003, 9.405e-6
-1.004, 9.405e-6
-1.005, 1.249e-5
-1.006, 1.249e-5
-1.007, 1.249e-5
-1.008, 1.249e-5
-1.009, 1.249e-5
-1.010, 1.557e-5
-1.011, 1.557e-5
-1.012, 1.557e-5
-1.013, 1.557e-5
-1.014, 1.557e-5
-1.015, 1.557e-5
-1.016, 1.557e-5
-1.017, 1.557e-5
-1.018, 1.865e-5
-1.019, 1.865e-5
-1.020, 1.865e-5
-1.021, 1.865e-5
-1.022, 1.865e-5
-1.023, 1.865e-5
-1.024, 1.865e-5
-1.025, 1.865e-5
-1.026, 1.865e-5
-1.027, 1.865e-5
-1.028, 1.865e-5
-1.029, 2.174e-5
-1.030, 1.865e-5
-1.031, 2.174e-5
-1.032, 2.174e-5
-1.033, 2.174e-5
-1.034, 2.174e-5
-1.035, 2.174e-5
-1.036, 2.174e-5
-1.037, 2.174e-5
-1.038, 2.174e-5
-1.039, 2.174e-5
-1.040, 2.174e-5
-1.041, 2.174e-5
-1.042, 2.174e-5
-1.043, 2.174e-5
-1.044, 2.174e-5
-1.045, 2.174e-5
-1.046, 2.174e-5
-1.047, 2.482e-5
-1.048, 2.482e-5
-1.049, 2.482e-5
-1.050, 2.482e-5
-1.051, 2.482e-5
-1.052, 2.482e-5
-1.053, 2.482e-5
-1.054, 2.482e-5
-1.055, 2.482e-5
-1.056, 2.482e-5
-1.057, 2.482e-5
-1.058, 2.482e-5
-1.059, 2.482e-5
-1.060, 2.790e-5
-1.061, 2.482e-5
-1.062, 2.482e-5
-1.063, 2.482e-5
-1.064, 2.482e-5
-1.065, 2.482e-5
-1.066, 2.482e-5
-1.067, 2.482e-5
-1.068, 2.482e-5
-1.069, 2.790e-5
-1.070, 2.482e-5
-1.071, 2.482e-5
-1.072, 2.482e-5
-1.073, 2.790e-5
-1.074, 2.790e-5
-1.075, 2.790e-5
-1.076, 2.790e-5
-1.077, 2.790e-5
-1.078, 2.790e-5
-1.079, 2.790e-5
-1.080, 2.790e-5
-1.081, 2.790e-5
-1.082, 2.790e-5
-1.083, 2.790e-5
-1.084, 2.790e-5
-1.085, 2.790e-5
-1.086, 2.790e-5
-1.087, 2.790e-5
-1.088, 2.790e-5
-1.089, 2.790e-5
-1.090, 2.790e-5
-1.091, 2.790e-5
-1.092, 2.790e-5
-1.093, 2.790e-5
-1.094, 2.790e-5
-1.095, 2.790e-5
-1.096, 2.790e-5
-1.097, 2.790e-5
-1.098, 2.790e-5
-1.099, 2.790e-5
-1.100, 2.790e-5
-1.101, 2.790e-5
-1.102, 3.099e-5
-1.103, 2.790e-5
-1.104, 3.099e-5
-1.105, 2.790e-5
-1.106, 3.099e-5
-1.107, 2.790e-5
-1.108, 3.099e-5
-1.109, 2.790e-5
-1.110, 2.790e-5
-1.111, 3.099e-5
-1.112, 2.790e-5
-1.113, 3.099e-5
-1.114, 3.099e-5
-1.115, 3.099e-5
-1.116, 3.099e-5
-1.117, 3.099e-5
-1.118, 3.099e-5
-1.119, 3.099e-5
-1.120, 3.099e-5
-1.121, 3.099e-5
-1.122, 3.099e-5
-1.123, 3.099e-5
-1.124, 3.099e-5
-1.125, 3.099e-5
-1.126, 3.099e-5
-1.127, 3.099e-5
-1.128, 3.099e-5
-1.129, 3.099e-5
-1.130, 3.099e-5
-1.131, 3.099e-5
-1.132, 3.099e-5
-1.133, 3.099e-5
-1.134, 3.099e-5
-1.135, 3.099e-5
-1.136, 3.099e-5
-1.137, 3.099e-5
-1.138, 3.099e-5
-1.139, 3.407e-5
-1.140, 3.099e-5
-1.141, 3.099e-5
-1.142, 3.099e-5
-1.143, 3.099e-5
-1.144, 3.407e-5
-1.145, 3.407e-5
-1.146, 3.099e-5
-1.147, 3.099e-5
-1.148, 3.407e-5
-1.149, 3.099e-5
-1.150, 3.407e-5
-1.151, 3.407e-5
-1.152, 3.099e-5
-1.153, 3.407e-5
-1.154, 3.407e-5
-1.155, 3.407e-5
-1.156, 3.099e-5
-1.157, 3.407e-5
-1.158, 3.407e-5
-1.159, 3.407e-5
-1.160, 3.407e-5
-1.161, 3.407e-5
-1.162, 3.407e-5
-1.163, 3.407e-5
-1.164, 3.407e-5
-1.165, 3.407e-5
-1.166, 3.407e-5
-1.167, 3.407e-5
-1.168, 3.407e-5
-1.169, 3.407e-5
-1.170, 3.407e-5
-1.171, 3.407e-5
-1.172, 3.407e-5
-1.173, 3.407e-5
-1.174, 3.407e-5
-1.175, 3.407e-5
-1.176, 3.407e-5
-1.177, 3.407e-5
-1.178, 3.407e-5
-1.179, 3.715e-5
-1.180, 3.407e-5
-1.181, 3.715e-5
-1.182, 3.407e-5
-1.183, 3.407e-5
-1.184, 3.715e-5
-1.185, 3.715e-5
-1.186, 3.715e-5
-1.187, 3.407e-5
-1.188, 3.715e-5
-1.189, 3.715e-5
-1.190, 3.715e-5
-1.191, 3.715e-5
-1.192, 3.715e-5
-1.193, 3.715e-5
-1.194, 3.715e-5
-1.195, 3.715e-5
-1.196, 3.715e-5
-1.197, 3.715e-5
-1.198, 3.715e-5
-1.199, 3.715e-5
-1.200, 3.715e-5
-1.201, 3.715e-5
-1.202, 3.715e-5
-1.203, 3.715e-5
-1.204, 3.715e-5
-1.205, 3.715e-5
-1.206, 3.715e-5
-1.207, 3.715e-5
-1.208, 3.715e-5
-1.209, 3.715e-5
-1.210, 4.024e-5
-1.211, 3.715e-5
-1.212, 3.715e-5
-1.213, 3.715e-5
-1.214, 3.715e-5
-1.215, 3.715e-5
-1.216, 3.715e-5
-1.217, 3.715e-5
-1.218, 3.715e-5
-1.219, 3.715e-5
-1.220, 3.715e-5
-1.221, 3.715e-5
-1.222, 4.024e-5
-1.223, 4.024e-5
-1.224, 3.715e-5
-1.225, 3.715e-5
-1.226, 4.024e-5
-1.227, 4.024e-5
-1.228, 4.024e-5
-1.229, 4.024e-5
-1.230, 4.024e-5
-1.231, 4.024e-5
-1.232, 4.024e-5
-1.233, 4.024e-5
-1.234, 4.024e-5
-1.235, 4.024e-5
-1.236, 4.024e-5
-1.237, 4.024e-5
-1.238, 4.024e-5
-1.239, 4.024e-5
-1.240, 4.024e-5
-1.241, 4.024e-5
-1.242, 4.024e-5
-1.243, 4.024e-5
-1.244, 4.024e-5
-1.245, 4.024e-5
-1.246, 4.024e-5
-1.247, 4.024e-5
-1.248, 4.024e-5
-1.249, 4.024e-5
-1.250, 4.332e-5
-1.251, 4.024e-5
-1.252, 4.024e-5
-1.253, 4.024e-5
-1.254, 4.332e-5
-1.255, 4.332e-5
-1.256, 4.332e-5
-1.257, 4.024e-5
-1.258, 4.332e-5
-1.259, 4.332e-5
-1.260, 4.332e-5
-1.261, 4.332e-5
-1.262, 4.332e-5
-1.263, 4.332e-5
-1.264, 4.332e-5
-1.265, 4.332e-5
-1.266, 4.332e-5
-1.267, 4.332e-5
-1.268, 4.332e-5
-1.269, 4.332e-5
-1.270, 4.332e-5
-1.271, 4.332e-5
-1.272, 4.332e-5
-1.273, 4.332e-5
-1.274, 4.332e-5
-1.275, 4.332e-5
-1.276, 4.332e-5
-1.277, 4.332e-5
-1.278, 4.332e-5
-1.279, 4.332e-5
-1.280, 4.332e-5
-1.281, 4.640e-5
-1.282, 4.332e-5
-1.283, 4.640e-5
-1.284, 4.332e-5
-1.285, 4.640e-5
-1.286, 4.332e-5
-1.287, 4.640e-5
-1.288, 4.332e-5
-1.289, 4.640e-5
-1.290, 4.332e-5
-1.291, 4.640e-5
-1.292, 4.640e-5
-1.293, 4.640e-5
-1.294, 4.640e-5
-1.295, 4.640e-5
-1.296, 4.640e-5
-1.297, 4.640e-5
-1.298, 4.640e-5
-1.299, 4.640e-5
-1.300, 4.640e-5
-1.301, 4.640e-5
-1.302, 4.640e-5
-1.303, 4.640e-5
-1.304, 4.640e-5
-1.305, 4.640e-5
-1.306, 4.640e-5
-1.307, 4.640e-5
-1.308, 4.640e-5
-1.309, 4.640e-5
-1.310, 4.949e-5
-1.311, 4.949e-5
-1.312, 4.949e-5
-1.313, 4.640e-5
-1.314, 4.949e-5
-1.315, 4.949e-5
-1.316, 4.949e-5
-1.317, 4.949e-5
-1.318, 4.949e-5
-1.319, 4.949e-5
-1.320, 4.949e-5
-1.321, 4.949e-5
-1.322, 4.949e-5
-1.323, 4.949e-5
-1.324, 4.949e-5
-1.325, 4.949e-5
-1.326, 4.949e-5
-1.327, 4.949e-5
-1.328, 4.949e-5
-1.329, 4.949e-5
-1.330, 4.949e-5
-1.331, 4.949e-5
-1.332, 4.949e-5
-1.333, 5.257e-5
-1.334, 5.257e-5
-1.335, 5.257e-5
-1.336, 5.257e-5
-1.337, 5.257e-5
-1.338, 5.257e-5
-1.339, 5.257e-5
-1.340, 5.257e-5
-1.341, 5.257e-5
-1.342, 5.257e-5
-1.343, 5.257e-5
-1.344, 5.257e-5
-1.345, 5.257e-5
-1.346, 5.257e-5
-1.347, 5.565e-5
-1.348, 5.257e-5
-1.349, 5.257e-5
-1.350, 5.257e-5
-1.351, 5.565e-5
-1.352, 5.565e-5
-1.353, 5.565e-5
-1.354, 5.257e-5
-1.355, 5.565e-5
-1.356, 5.565e-5
-1.357, 5.565e-5
-1.358, 5.565e-5
-1.359, 5.565e-5
-1.360, 5.873e-5
-1.361, 5.565e-5
-1.362, 5.565e-5
-1.363, 5.565e-5
-1.364, 5.565e-5
-1.365, 5.873e-5
-1.366, 5.873e-5
-1.367, 5.565e-5
-1.368, 5.873e-5
-1.369, 5.873e-5
-1.370, 5.873e-5
-1.371, 5.873e-5
-1.372, 5.873e-5
-1.373, 5.873e-5
-1.374, 5.873e-5
-1.375, 5.873e-5
-1.376, 5.873e-5
-1.377, 5.873e-5
-1.378, 5.873e-5
-1.379, 6.182e-5
-1.380, 6.182e-5
-1.381, 6.182e-5
-1.382, 6.182e-5
-1.383, 6.182e-5
-1.384, 6.182e-5
-1.385, 6.182e-5
-1.386, 6.182e-5
-1.387, 6.182e-5
-1.388, 6.182e-5
-1.389, 6.490e-5
-1.390, 6.490e-5
-1.391, 6.490e-5
-1.392, 6.490e-5
-1.393, 6.490e-5
-1.394, 6.490e-5
-1.395, 6.798e-5
-1.396, 6.490e-5
-1.397, 6.798e-5
-1.398, 6.798e-5
-1.399, 6.798e-5
-1.400, 6.798e-5
-1.401, 6.798e-5
-1.402, 6.798e-5
-1.403, 6.798e-5
-1.404, 7.107e-5
-1.405, 7.107e-5
-1.406, 7.107e-5
-1.407, 7.107e-5
-1.408, 7.107e-5
-1.409, 7.107e-5
-1.410, 7.107e-5
-1.411, 7.415e-5
-1.412, 7.415e-5
-1.413, 7.415e-5
-1.414, 7.415e-5
-1.415, 7.415e-5
-1.416, 7.415e-5
-1.417, 7.415e-5
-1.418, 7.723e-5
-1.419, 7.723e-5
-1.420, 7.723e-5
-1.421, 7.723e-5
-1.422, 8.032e-5
-1.423, 8.032e-5
-1.424, 8.032e-5
-1.425, 8.032e-5
-1.426, 8.032e-5
-1.427, 8.032e-5
-1.428, 8.340e-5
-1.429, 8.340e-5
-1.430, 8.340e-5
-1.431, 8.648e-5
-1.432, 8.340e-5
-1.433, 8.648e-5
-1.434, 8.648e-5
-1.435, 8.648e-5
-1.436, 8.648e-5
-1.437, 8.957e-5
-1.438, 8.957e-5
-1.439, 8.957e-5
-1.440, 8.957e-5
-1.441, 9.265e-5
-1.442, 9.265e-5
-1.443, 9.265e-5
-1.444, 9.265e-5
-1.445, 9.573e-5
-1.446, 9.573e-5
-1.447, 9.573e-5
-1.448, 9.573e-5
-1.449, 9.882e-5
-1.450, 9.882e-5
-1.451, 9.882e-5
-1.452, 1.019e-4
-1.453, 1.019e-4
-1.454, 1.019e-4
-1.455, 1.050e-4
-1.456, 1.050e-4
-1.457, 1.081e-4
-1.458, 1.081e-4
-1.459, 1.081e-4
-1.460, 1.111e-4
-1.461, 1.111e-4
-1.462, 1.111e-4
-1.463, 1.142e-4
-1.464, 1.142e-4
-1.465, 1.142e-4
-1.466, 1.173e-4
-1.467, 1.173e-4
-1.468, 1.204e-4
-1.469, 1.204e-4
-1.470, 1.204e-4
-1.471, 1.235e-4
-1.472, 1.235e-4
-1.473, 1.266e-4
-1.474, 1.266e-4
-1.475, 1.266e-4
-1.476, 1.296e-4
-1.477, 1.296e-4
-1.478, 1.327e-4
-1.479, 1.327e-4
-1.480, 1.358e-4
-1.481, 1.358e-4
-1.482, 1.389e-4
-1.483, 1.389e-4
-1.484, 1.420e-4
-1.485, 1.420e-4
-1.486, 1.451e-4
-1.487, 1.451e-4
-1.488, 1.481e-4
-1.489, 1.481e-4
-1.490, 1.512e-4
-1.491, 1.512e-4
-1.492, 1.543e-4
-1.493, 1.574e-4
-1.494, 1.574e-4
-1.495, 1.605e-4
-1.496, 1.605e-4
-1.497, 1.636e-4
-1.498, 1.666e-4
-1.499, 1.697e-4
-1.500, 1.697e-4
-1.501, 1.728e-4
-1.502, 1.759e-4
-1.503, 1.759e-4
-1.504, 1.790e-4
-1.505, 1.821e-4
-1.506, 1.821e-4
-1.507, 1.851e-4
-1.508, 1.882e-4
-1.509, 1.882e-4
-1.510, 1.913e-4
-1.511, 1.944e-4
-1.512, 1.975e-4
-1.513, 2.006e-4
-1.514, 2.036e-4
-1.515, 2.036e-4
-1.516, 2.067e-4
-1.517, 2.098e-4
-1.518, 2.129e-4
-1.519, 2.160e-4
-1.520, 2.160e-4
-1.521, 2.221e-4
-1.522, 2.221e-4
-1.523, 2.252e-4
-1.524, 2.283e-4
-1.525, 2.314e-4
-1.526, 2.345e-4
-1.527, 2.376e-4
-1.528, 2.406e-4
-1.529, 2.437e-4
-1.530, 2.468e-4
-1.531, 2.499e-4
-1.532, 2.530e-4
-1.533, 2.561e-4
-1.534, 2.591e-4
-1.535, 2.622e-4
-1.536, 2.684e-4
-1.537, 2.715e-4
-1.538, 2.746e-4
-1.539, 2.776e-4
-1.540, 2.807e-4
-1.541, 2.838e-4
-1.542, 2.869e-4
-1.543, 2.931e-4
-1.544, 2.961e-4
-1.545, 3.023e-4
-1.546, 3.054e-4
-1.547, 3.085e-4
-1.548, 3.115e-4
-1.549, 3.146e-4
-1.550, 3.208e-4
-1.551, 3.239e-4
-1.552, 3.300e-4
-1.553, 3.331e-4
-1.554, 3.393e-4
-1.555, 3.424e-4
-1.556, 3.485e-4
-1.557, 3.516e-4
-1.558, 3.578e-4
-1.559, 3.609e-4
-1.560, 3.670e-4
-1.561, 3.701e-4
-1.562, 3.763e-4
-1.563, 3.825e-4
-1.564, 3.886e-4
-1.565, 3.948e-4
-1.566, 3.979e-4
-1.567, 4.040e-4
-1.568, 4.102e-4
-1.569, 4.133e-4
-1.570, 4.225e-4
-1.571, 4.256e-4
-1.572, 4.318e-4
-1.573, 4.380e-4
-1.574, 4.441e-4
-1.575, 4.503e-4
-1.576, 4.565e-4
-1.577, 4.626e-4
-1.578, 4.688e-4
-1.579, 4.719e-4
-1.580, 4.811e-4
-1.581, 4.873e-4
-1.582, 4.935e-4
-1.583, 5.027e-4
-1.584, 5.089e-4
-1.585, 5.150e-4
-1.586, 5.212e-4
-1.587, 5.305e-4
-1.588, 5.366e-4
-1.589, 5.459e-4
-1.590, 5.520e-4
-1.591, 5.613e-4
-1.592, 5.674e-4
-1.593, 5.767e-4
-1.594, 5.829e-4
-1.595, 5.921e-4
-1.596, 5.983e-4
-1.597, 6.075e-4
-1.598, 6.168e-4
-1.599, 6.229e-4
-1.600, 6.322e-4
-1.601, 6.414e-4
-1.602, 6.507e-4
-1.603, 6.599e-4
-1.604, 6.692e-4
-1.605, 6.815e-4
-1.606, 6.877e-4
-1.607, 7.000e-4
-1.608, 7.093e-4
-1.609, 7.185e-4
-1.610, 7.278e-4
-1.611, 7.370e-4
-1.612, 7.463e-4
-1.613, 7.555e-4
-1.614, 7.679e-4
-1.615, 7.771e-4
-1.616, 7.894e-4
-1.617, 7.987e-4
-1.618, 8.110e-4
-1.619, 8.233e-4
-1.620, 8.357e-4
-1.621, 8.449e-4
-1.622, 8.573e-4
-1.623, 8.696e-4
-1.624, 8.819e-4
-1.625, 8.943e-4
-1.626, 9.066e-4
-1.627, 9.189e-4
-1.628, 9.313e-4
-1.629, 9.436e-4
-1.630, 9.559e-4
-1.631, 9.713e-4
-1.632, 9.806e-4
-1.633, 9.929e-4
-1.634, 1.008e-3
-1.635, 1.024e-3
-1.636, 1.036e-3
-1.637, 1.048e-3
-1.638, 1.064e-3
-1.639, 1.079e-3
-1.640, 1.095e-3
-1.641, 1.107e-3
-1.642, 1.122e-3
-1.643, 1.138e-3
-1.644, 1.153e-3
-1.645, 1.169e-3
-1.646, 1.184e-3
-1.647, 1.203e-3
-1.648, 1.215e-3
-1.649, 1.230e-3
-1.650, 1.246e-3
-1.651, 1.264e-3
-1.652, 1.280e-3
-1.653, 1.298e-3
-1.654, 1.317e-3
-1.655, 1.332e-3
-1.656, 1.347e-3
-1.657, 1.369e-3
-1.658, 1.384e-3
-1.659, 1.403e-3
-1.660, 1.421e-3
-1.661, 1.437e-3
-1.662, 1.455e-3
-1.663, 1.474e-3
-1.664, 1.495e-3
-1.665, 1.514e-3
-1.666, 1.532e-3
-1.667, 1.551e-3
-1.668, 1.573e-3
-1.669, 1.591e-3
-1.670, 1.613e-3
-1.671, 1.631e-3
-1.672, 1.653e-3
-1.673, 1.671e-3
-1.674, 1.693e-3
-1.675, 1.711e-3
-1.676, 1.733e-3
-1.677, 1.754e-3
-1.678, 1.776e-3
-1.679, 1.798e-3
-1.680, 1.819e-3
-1.681, 1.838e-3
-1.682, 1.862e-3
-1.683, 1.881e-3
-1.684, 1.906e-3
-1.685, 1.927e-3
-1.686, 1.952e-3
-1.687, 1.973e-3
-1.688, 1.998e-3
-1.689, 2.020e-3
-1.690, 2.041e-3
-1.691, 2.066e-3
-1.692, 2.087e-3
-1.693, 2.112e-3
-1.694, 2.137e-3
-1.695, 2.161e-3
-1.696, 2.186e-3
-1.697, 2.211e-3
-1.698, 2.232e-3
-1.699, 2.257e-3
-1.700, 2.285e-3
-1.701, 2.309e-3
-1.702, 2.334e-3
-1.703, 2.365e-3
-1.704, 2.393e-3
-1.705, 2.420e-3
-1.706, 2.445e-3
-1.707, 2.473e-3
-1.708, 2.504e-3
-1.709, 2.528e-3
-1.710, 2.559e-3
-1.711, 2.590e-3
-1.712, 2.618e-3
-1.713, 2.649e-3
-1.714, 2.676e-3
-1.715, 2.707e-3
-1.716, 2.738e-3
-1.717, 2.769e-3
-1.718, 2.800e-3
-1.719, 2.830e-3
-1.720, 2.861e-3
-1.721, 2.892e-3
-1.722, 2.926e-3
-1.723, 2.960e-3
-1.724, 2.994e-3
-1.725, 3.025e-3
-1.726, 3.059e-3
-1.727, 3.089e-3
-1.728, 3.123e-3
-1.729, 3.160e-3
-1.730, 3.197e-3
-1.731, 3.228e-3
-1.732, 3.265e-3
-1.733, 3.299e-3
-1.734, 3.336e-3
-1.735, 3.373e-3
-1.736, 3.407e-3
-1.737, 3.444e-3
-1.738, 3.478e-3
-1.739, 3.518e-3
-1.740, 3.555e-3
-1.741, 3.592e-3
-1.742, 3.629e-3
-1.743, 3.666e-3
-1.744, 3.706e-3
-1.745, 3.746e-3
-1.746, 3.786e-3
-1.747, 3.823e-3
-1.748, 3.863e-3
-1.749, 3.900e-3
-1.750, 3.940e-3
-1.751, 3.987e-3
-1.752, 4.021e-3
-1.753, 4.064e-3
-1.754, 4.104e-3
-1.755, 4.144e-3
-1.756, 4.187e-3
-1.757, 4.227e-3
-1.758, 4.267e-3
-1.759, 4.310e-3
-1.760, 4.354e-3
-1.761, 4.391e-3
-1.762, 4.437e-3
-1.763, 4.480e-3
-1.764, 4.523e-3
-1.765, 4.566e-3
-1.766, 4.612e-3
-1.767, 4.653e-3
-1.768, 4.702e-3
-1.769, 4.745e-3
-1.770, 4.788e-3
-1.771, 4.831e-3
-1.772, 4.878e-3
-1.773, 4.927e-3
-1.774, 4.970e-3
-1.775, 5.016e-3
-1.776, 5.063e-3
-1.777, 5.109e-3
-1.778, 5.155e-3
-1.779, 5.201e-3
-1.780, 5.254e-3
-1.781, 5.303e-3
-1.782, 5.349e-3
-1.783, 5.399e-3
-1.784, 5.448e-3
-1.785, 5.491e-3
-1.786, 5.541e-3
-1.787, 5.590e-3
-1.788, 5.639e-3
-1.789, 5.685e-3
-1.790, 5.738e-3
-1.791, 5.787e-3
-1.792, 5.840e-3
-1.793, 5.889e-3
-1.794, 5.938e-3
-1.795, 5.991e-3
-1.796, 6.040e-3
-1.797, 6.095e-3
-1.798, 6.145e-3
-1.799, 6.194e-3
-1.800, 6.247e-3
-1.801, 6.302e-3
-1.802, 6.354e-3
-1.803, 6.404e-3
-1.804, 6.459e-3
-1.805, 6.515e-3
-1.806, 6.564e-3
-1.807, 6.620e-3
-1.808, 6.675e-3
-1.809, 6.728e-3
-1.810, 6.786e-3
-1.811, 6.842e-3
-1.812, 6.894e-3
-1.813, 6.949e-3
-1.814, 7.008e-3
-1.815, 7.057e-3
-1.816, 7.116e-3
-1.817, 7.171e-3
-1.818, 7.227e-3
-1.819, 7.282e-3
-1.820, 7.335e-3
-1.821, 7.393e-3
-1.822, 7.449e-3
-1.823, 7.508e-3
-1.824, 7.563e-3
-1.825, 7.622e-3
-1.826, 7.677e-3
-1.827, 7.736e-3
-1.828, 7.794e-3
-1.829, 7.853e-3
-1.830, 7.911e-3
-1.831, 7.970e-3
-1.832, 8.022e-3
-1.833, 8.084e-3
-1.834, 8.140e-3
-1.835, 8.198e-3
-1.836, 8.257e-3
-1.837, 8.315e-3
-1.838, 8.374e-3
-1.839, 8.436e-3
-1.840, 8.497e-3
-1.841, 8.559e-3
-1.842, 8.617e-3
-1.843, 8.682e-3
-1.844, 8.744e-3
-1.845, 8.806e-3
-1.846, 8.867e-3
-1.847, 8.926e-3
-1.848, 8.984e-3
-1.849, 9.046e-3
-1.850, 9.105e-3
-1.851, 9.163e-3
-1.852, 9.225e-3
-1.853, 9.280e-3
-1.854, 9.342e-3
-1.855, 9.404e-3
-1.856, 9.462e-3
-1.857, 9.527e-3
-1.858, 9.582e-3
-1.859, 9.644e-3
-1.860, 9.703e-3
-1.861, 9.764e-3
-1.862, 9.826e-3
-1.863, 9.885e-3
-1.864, 9.943e-3
-1.865, 9.999e-3
-1.866, 1.006e-2
-1.867, 1.012e-2
-1.868, 1.018e-2
-1.869, 1.024e-2
-1.870, 1.030e-2
-1.871, 1.036e-2
-1.872, 1.043e-2
-1.873, 1.049e-2
-1.874, 1.055e-2
-1.875, 1.061e-2
-1.876, 1.067e-2
-1.877, 1.073e-2
-1.878, 1.078e-2
-1.879, 1.084e-2
-1.880, 1.091e-2
-1.881, 1.096e-2
-1.882, 1.102e-2
-1.883, 1.108e-2
-1.884, 1.114e-2
-1.885, 1.119e-2
-1.886, 1.125e-2
-1.887, 1.131e-2
-1.888, 1.137e-2
-1.889, 1.143e-2
-1.890, 1.148e-2
-1.891, 1.154e-2
-1.892, 1.160e-2
-1.893, 1.166e-2
-1.894, 1.172e-2
-1.895, 1.178e-2
-1.896, 1.183e-2
-1.897, 1.189e-2
-1.898, 1.194e-2
-1.899, 1.200e-2
-1.900, 1.202e-2
-1.899, 1.197e-2
-1.898, 1.192e-2
-1.897, 1.186e-2
-1.896, 1.181e-2
-1.895, 1.176e-2
-1.894, 1.171e-2
-1.893, 1.166e-2
-1.892, 1.162e-2
-1.891, 1.155e-2
-1.890, 1.150e-2
-1.889, 1.145e-2
-1.888, 1.138e-2
-1.887, 1.133e-2
-1.886, 1.128e-2
-1.885, 1.122e-2
-1.884, 1.115e-2
-1.883, 1.110e-2
-1.882, 1.104e-2
-1.881, 1.098e-2
-1.880, 1.092e-2
-1.879, 1.087e-2
-1.878, 1.081e-2
-1.877, 1.075e-2
-1.876, 1.069e-2
-1.875, 1.065e-2
-1.874, 1.059e-2
-1.873, 1.052e-2
-1.872, 1.047e-2
-1.871, 1.041e-2
-1.870, 1.036e-2
-1.869, 1.031e-2
-1.868, 1.024e-2
-1.867, 1.018e-2
-1.866, 1.013e-2
-1.865, 1.008e-2
-1.864, 1.001e-2
-1.863, 9.968e-3
-1.862, 9.912e-3
-1.861, 9.863e-3
-1.860, 9.808e-3
-1.859, 9.752e-3
-1.858, 9.697e-3
-1.857, 9.650e-3
-1.856, 9.579e-3
-1.855, 9.530e-3
-1.854, 9.475e-3
-1.853, 9.425e-3
-1.852, 9.360e-3
-1.851, 9.302e-3
-1.850, 9.256e-3
-1.849, 9.203e-3
-1.848, 9.151e-3
-1.847, 9.089e-3
-1.846, 9.037e-3
-1.845, 8.981e-3
-1.844, 8.929e-3
-1.843, 8.880e-3
-1.842, 8.818e-3
-1.841, 8.762e-3
-1.840, 8.710e-3
-1.839, 8.658e-3
-1.838, 8.605e-3
-1.837, 8.543e-3
-1.836, 8.491e-3
-1.835, 8.448e-3
-1.834, 8.395e-3
-1.833, 8.349e-3
-1.832, 8.291e-3
-1.831, 8.241e-3
-1.830, 8.189e-3
-1.829, 8.143e-3
-1.828, 8.090e-3
-1.827, 8.035e-3
-1.826, 7.982e-3
-1.825, 7.936e-3
-1.824, 7.887e-3
-1.823, 7.834e-3
-1.822, 7.785e-3
-1.821, 7.726e-3
-1.820, 7.683e-3
-1.819, 7.628e-3
-1.818, 7.582e-3
-1.817, 7.535e-3
-1.816, 7.477e-3
-1.815, 7.430e-3
-1.814, 7.384e-3
-1.813, 7.335e-3
-1.812, 7.286e-3
-1.811, 7.227e-3
-1.810, 7.184e-3
-1.809, 7.134e-3
-1.808, 7.085e-3
-1.807, 7.036e-3
-1.806, 6.977e-3
-1.805, 6.931e-3
-1.804, 6.888e-3
-1.803, 6.842e-3
-1.802, 6.792e-3
-1.801, 6.737e-3
-1.800, 6.700e-3
-1.799, 6.657e-3
-1.798, 6.617e-3
-1.797, 6.561e-3
-1.796, 6.515e-3
-1.795, 6.472e-3
-1.794, 6.432e-3
-1.793, 6.376e-3
-1.792, 6.333e-3
-1.791, 6.287e-3
-1.790, 6.240e-3
-1.789, 6.188e-3
-1.788, 6.151e-3
-1.787, 6.111e-3
-1.786, 6.058e-3
-1.785, 6.009e-3
-1.784, 5.975e-3
-1.783, 5.926e-3
-1.782, 5.883e-3
-1.781, 5.843e-3
-1.780, 5.796e-3
-1.779, 5.750e-3
-1.778, 5.710e-3
-1.777, 5.661e-3
-1.776, 5.618e-3
-1.775, 5.581e-3
-1.774, 5.531e-3
-1.773, 5.491e-3
-1.772, 5.448e-3
-1.771, 5.402e-3
-1.770, 5.359e-3
-1.769, 5.322e-3
-1.768, 5.278e-3
-1.767, 5.235e-3
-1.766, 5.201e-3
-1.765, 5.149e-3
-1.764, 5.118e-3
-1.763, 5.078e-3
-1.762, 5.029e-3
-1.761, 4.995e-3
-1.760, 4.958e-3
-1.759, 4.912e-3
-1.758, 4.881e-3
-1.757, 4.841e-3
-1.756, 4.791e-3
-1.755, 4.757e-3
-1.754, 4.717e-3
-1.753, 4.677e-3
-1.752, 4.637e-3
-1.751, 4.603e-3
-1.750, 4.554e-3
-1.749, 4.520e-3
-1.748, 4.486e-3
-1.747, 4.443e-3
-1.746, 4.406e-3
-1.745, 4.369e-3
-1.744, 4.329e-3
-1.743, 4.292e-3
-1.742, 4.258e-3
-1.741, 4.221e-3
-1.740, 4.178e-3
-1.739, 4.144e-3
-1.738, 4.107e-3
-1.737, 4.070e-3
-1.736, 4.039e-3
-1.735, 4.005e-3
-1.734, 3.971e-3
-1.733, 3.928e-3
-1.732, 3.894e-3
-1.731, 3.863e-3
-1.730, 3.829e-3
-1.729, 3.795e-3
-1.728, 3.762e-3
-1.727, 3.731e-3
-1.726, 3.691e-3
-1.725, 3.657e-3
-1.724, 3.623e-3
-1.723, 3.589e-3
-1.722, 3.558e-3
-1.721, 3.518e-3
-1.720, 3.487e-3
-1.719, 3.456e-3
-1.718, 3.425e-3
-1.717, 3.385e-3
-1.716, 3.351e-3
-1.715, 3.324e-3
-1.714, 3.293e-3
-1.713, 3.259e-3
-1.712, 3.225e-3
-1.711, 3.200e-3
-1.710, 3.170e-3
-1.709, 3.139e-3
-1.708, 3.099e-3
-1.707, 3.071e-3
-1.706, 3.037e-3
-1.705, 3.012e-3
-1.704, 2.985e-3
-1.703, 2.948e-3
-1.702, 2.917e-3
-1.701, 2.892e-3
-1.700, 2.864e-3
-1.699, 2.837e-3
-1.698, 2.803e-3
-1.697, 2.775e-3
-1.696, 2.750e-3
-1.695, 2.726e-3
-1.694, 2.701e-3
-1.693, 2.670e-3
-1.692, 2.639e-3
-1.691, 2.612e-3
-1.690, 2.584e-3
-1.689, 2.559e-3
-1.688, 2.531e-3
-1.687, 2.510e-3
-1.686, 2.482e-3
-1.685, 2.454e-3
-1.684, 2.417e-3
-1.683, 2.396e-3
-1.682, 2.371e-3
-1.681, 2.343e-3
-1.680, 2.322e-3
-1.679, 2.294e-3
-1.678, 2.275e-3
-1.677, 2.245e-3
-1.676, 2.217e-3
-1.675, 2.192e-3
-1.674, 2.174e-3
-1.673, 2.146e-3
-1.672, 2.124e-3
-1.671, 2.100e-3
-1.670, 2.078e-3
-1.669, 2.054e-3
-1.668, 2.026e-3
-1.667, 2.001e-3
-1.666, 1.983e-3
-1.665, 1.961e-3
-1.664, 1.936e-3
-1.663, 1.918e-3
-1.662, 1.899e-3
-1.661, 1.875e-3
-1.660, 1.850e-3
-1.659, 1.828e-3
-1.658, 1.810e-3
-1.657, 1.791e-3
-1.656, 1.770e-3
-1.655, 1.748e-3
-1.654, 1.730e-3
-1.653, 1.711e-3
-1.652, 1.687e-3
-1.651, 1.668e-3
-1.650, 1.647e-3
-1.649, 1.625e-3
-1.648, 1.606e-3
-1.647, 1.588e-3
-1.646, 1.569e-3
-1.645, 1.551e-3
-1.644, 1.536e-3
-1.643, 1.517e-3
-1.642, 1.489e-3
-1.641, 1.474e-3
-1.640, 1.455e-3
-1.639, 1.440e-3
-1.638, 1.425e-3
-1.637, 1.406e-3
-1.636, 1.388e-3
-1.635, 1.372e-3
-1.634, 1.357e-3
-1.633, 1.338e-3
-1.632, 1.323e-3
-1.631, 1.301e-3
-1.630, 1.283e-3
-1.629, 1.267e-3
-1.628, 1.252e-3
-1.627, 1.236e-3
-1.626, 1.224e-3
-1.625, 1.206e-3
-1.624, 1.193e-3
-1.623, 1.181e-3
-1.622, 1.166e-3
-1.621, 1.150e-3
-1.620, 1.135e-3
-1.619, 1.116e-3
-1.618, 1.104e-3
-1.617, 1.088e-3
-1.616, 1.073e-3
-1.615, 1.061e-3
-1.614, 1.045e-3
-1.613, 1.036e-3
-1.612, 1.024e-3
-1.611, 1.011e-3
-1.610, 9.960e-4
-1.609, 9.806e-4
-1.608, 9.713e-4
-1.607, 9.590e-4
-1.606, 9.436e-4
-1.605, 9.313e-4
-1.604, 9.189e-4
-1.603, 9.097e-4
-1.602, 8.943e-4
-1.601, 8.850e-4
-1.600, 8.727e-4
-1.599, 8.603e-4
-1.598, 8.480e-4
-1.597, 8.326e-4
-1.596, 8.203e-4
-1.595, 8.110e-4
-1.594, 7.987e-4
-1.593, 7.894e-4
-1.592, 7.802e-4
-1.591, 7.679e-4
-1.590, 7.586e-4
-1.589, 7.463e-4
-1.588, 7.370e-4
-1.587, 7.278e-4
-1.586, 7.185e-4
-1.585, 7.093e-4
-1.584, 7.000e-4
-1.583, 6.908e-4
-1.582, 6.784e-4
-1.581, 6.723e-4
-1.580, 6.630e-4
-1.579, 6.538e-4
-1.578, 6.414e-4
-1.577, 6.291e-4
-1.576, 6.229e-4
-1.575, 6.137e-4
-1.574, 6.075e-4
-1.573, 5.983e-4
-1.572, 5.890e-4
-1.571, 5.798e-4
-1.570, 5.736e-4
-1.569, 5.644e-4
-1.568, 5.582e-4
-1.567, 5.489e-4
-1.566, 5.428e-4
-1.565, 5.335e-4
-1.564, 5.243e-4
-1.563, 5.181e-4
-1.562, 5.120e-4
-1.561, 5.058e-4
-1.560, 4.965e-4
-1.559, 4.904e-4
-1.558, 4.811e-4
-1.557, 4.780e-4
-1.556, 4.688e-4
-1.555, 4.626e-4
-1.554, 4.534e-4
-1.553, 4.503e-4
-1.552, 4.410e-4
-1.551, 4.349e-4
-1.550, 4.287e-4
-1.549, 4.225e-4
-1.548, 4.164e-4
-1.547, 4.102e-4
-1.546, 4.040e-4
-1.545, 4.010e-4
-1.544, 3.948e-4
-1.543, 3.886e-4
-1.542, 3.825e-4
-1.541, 3.763e-4
-1.540, 3.670e-4
-1.539, 3.609e-4
-1.538, 3.578e-4
-1.537, 3.516e-4
-1.536, 3.455e-4
-1.535, 3.424e-4
-1.534, 3.362e-4
-1.533, 3.331e-4
-1.532, 3.270e-4
-1.531, 3.239e-4
-1.530, 3.177e-4
-1.529, 3.115e-4
-1.528, 3.085e-4
-1.527, 3.023e-4
-1.526, 2.992e-4
-1.525, 2.931e-4
-1.524, 2.900e-4
-1.523, 2.838e-4
-1.522, 2.807e-4
-1.521, 2.776e-4
-1.520, 2.746e-4
-1.519, 2.684e-4
-1.518, 2.653e-4
-1.517, 2.591e-4
-1.516, 2.561e-4
-1.515, 2.530e-4
-1.514, 2.499e-4
-1.513, 2.437e-4
-1.512, 2.406e-4
-1.511, 2.376e-4
-1.510, 2.345e-4
-1.509, 2.314e-4
-1.508, 2.283e-4
-1.507, 2.252e-4
-1.506, 2.191e-4
-1.505, 2.160e-4
-1.504, 2.129e-4
-1.503, 2.098e-4
-1.502, 2.067e-4
-1.501, 2.006e-4
-1.500, 1.975e-4
-1.499, 1.944e-4
-1.498, 1.913e-4
-1.497, 1.882e-4
-1.496, 1.851e-4
-1.495, 1.851e-4
-1.494, 1.790e-4
-1.493, 1.790e-4
-1.492, 1.759e-4
-1.491, 1.728e-4
-1.490, 1.697e-4
-1.489, 1.666e-4
-1.488, 1.636e-4
-1.487, 1.605e-4
-1.486, 1.605e-4
-1.485, 1.543e-4
-1.484, 1.543e-4
-1.483, 1.512e-4
-1.482, 1.512e-4
-1.481, 1.451e-4
-1.480, 1.451e-4
-1.479, 1.420e-4
-1.478, 1.420e-4
-1.477, 1.389e-4
-1.476, 1.358e-4
-1.475, 1.327e-4
-1.474, 1.327e-4
-1.473, 1.296e-4
-1.472, 1.266e-4
-1.471, 1.235e-4
-1.470, 1.204e-4
-1.469, 1.173e-4
-1.468, 1.173e-4
-1.467, 1.142e-4
-1.466, 1.142e-4
-1.465, 1.111e-4
-1.464, 1.111e-4
-1.463, 1.081e-4
-1.462, 1.050e-4
-1.461, 1.050e-4
-1.460, 1.019e-4
-1.459, 9.882e-5
-1.458, 9.882e-5
-1.457, 9.882e-5
-1.456, 9.573e-5
-1.455, 9.573e-5
-1.454, 9.265e-5
-1.453, 8.957e-5
-1.452, 8.957e-5
-1.451, 8.648e-5
-1.450, 8.648e-5
-1.449, 8.648e-5
-1.448, 8.340e-5
-1.447, 8.032e-5
-1.446, 8.032e-5
-1.445, 8.032e-5
-1.444, 7.723e-5
-1.443, 7.415e-5
-1.442, 7.415e-5
-1.441, 7.415e-5
-1.440, 7.415e-5
-1.439, 7.107e-5
-1.438, 6.798e-5
-1.437, 6.798e-5
-1.436, 6.798e-5
-1.435, 6.490e-5
-1.434, 6.490e-5
-1.433, 6.182e-5
-1.432, 6.182e-5
-1.431, 6.182e-5
-1.430, 5.873e-5
-1.429, 5.873e-5
-1.428, 5.873e-5
-1.427, 5.565e-5
-1.426, 5.565e-5
-1.425, 5.257e-5
-1.424, 5.257e-5
-1.423, 5.257e-5
-1.422, 5.257e-5
-1.421, 4.949e-5
-1.420, 4.949e-5
-1.419, 4.949e-5
-1.418, 4.949e-5
-1.417, 4.640e-5
-1.416, 4.640e-5
-1.415, 4.332e-5
-1.414, 4.332e-5
-1.413, 4.332e-5
-1.412, 4.332e-5
-1.411, 4.024e-5
-1.410, 4.024e-5
-1.409, 4.024e-5
-1.408, 3.715e-5
-1.407, 3.715e-5
-1.406, 3.715e-5
-1.405, 3.407e-5
-1.404, 3.407e-5
-1.403, 3.407e-5
-1.402, 3.407e-5
-1.401, 3.099e-5
-1.400, 3.099e-5
-1.399, 3.099e-5
-1.398, 3.099e-5
-1.397, 2.790e-5
-1.396, 2.790e-5
-1.395, 2.790e-5
-1.394, 2.790e-5
-1.393, 2.790e-5
-1.392, 2.482e-5
-1.391, 2.482e-5
-1.390, 2.482e-5
-1.389, 2.482e-5
-1.388, 2.174e-5
-1.387, 2.174e-5
-1.386, 2.174e-5
-1.385, 2.174e-5
-1.384, 2.174e-5
-1.383, 2.174e-5
-1.382, 2.174e-5
-1.381, 1.865e-5
-1.380, 1.865e-5
-1.379, 1.865e-5
-1.378, 1.865e-5
-1.377, 1.865e-5
-1.376, 1.557e-5
-1.375, 1.557e-5
-1.374, 1.557e-5
-1.373, 1.557e-5
-1.372, 1.557e-5
-1.371, 1.557e-5
-1.370, 1.557e-5
-1.369, 1.249e-5
-1.368, 1.249e-5
-1.367, 1.249e-5
-1.366, 1.249e-5
-1.365, 1.249e-5
-1.364, 9.405e-6
-1.363, 9.405e-6
-1.362, 9.405e-6
-1.361, 9.405e-6
-1.360, 9.405e-6
-1.359, 9.405e-6
-1.358, 9.405e-6
-1.357, 9.405e-6
-1.356, 9.405e-6
-1.355, 6.322e-6
-1.354, 6.322e-6
-1.353, 9.405e-6
-1.352, 6.322e-6
-1.351, 6.322e-6
-1.350, 6.322e-6
-1.349, 6.322e-6
-1.348, 6.322e-6
-1.347, 6.322e-6
-1.346, 3.239e-6
-1.345, 3.239e-6
-1.344, 3.239e-6
-1.343, 3.239e-6
-1.342, 3.239e-6
-1.341, 3.239e-6
-1.340, 3.239e-6
-1.339, 3.239e-6
-1.338, 3.239e-6
-1.337, 1.559e-7
-1.336, 1.559e-7
-1.335, 1.559e-7
-1.334, 1.559e-7
-1.333, 1.559e-7
-1.332, 1.559e-7
-1.331, 1.559e-7
-1.330, 1.559e-7
-1.329, 1.559e-7
-1.328, 1.559e-7
-1.327, 1.559e-7
-1.326, -2.927e-6
-1.325, 1.559e-7
-1.324, -2.927e-6
-1.323, -2.927e-6
-1.322, -2.927e-6
-1.321, -2.927e-6
-1.320, -2.927e-6
-1.319, -2.927e-6
-1.318, -2.927e-6
-1.317, -2.927e-6
-1.316, -2.927e-6
-1.315, -2.927e-6
-1.314, -2.927e-6
-1.313, -6.010e-6
-1.312, -2.927e-6
-1.311, -6.010e-6
-1.310, -6.010e-6
-1.309, -6.010e-6
-1.308, -6.010e-6
-1.307, -6.010e-6
-1.306, -6.010e-6
-1.305, -6.010e-6
-1.304, -6.010e-6
-1.303, -6.010e-6
-1.302, -6.010e-6
-1.301, -6.010e-6
-1.300, -6.010e-6
-1.299, -6.010e-6
-1.298, -6.010e-6
-1.297, -6.010e-6
-1.296, -6.010e-6
-1.295, -6.010e-6
-1.294, -6.010e-6
-1.293, -6.010e-6
-1.292, -9.093e-6
-1.291, -9.093e-6
-1.290, -9.093e-6
-1.289, -9.093e-6
-1.288, -9.093e-6
-1.287, -6.010e-6
-1.286, -9.093e-6
-1.285, -9.093e-6
-1.284, -9.093e-6
-1.283, -9.093e-6
-1.282, -9.093e-6
-1.281, -9.093e-6
-1.280, -9.093e-6
-1.279, -9.093e-6
-1.278, -9.093e-6
-1.277, -9.093e-6
-1.276, -9.093e-6
-1.275, -9.093e-6
-1.274, -9.093e-6
-1.273, -9.093e-6
-1.272, -1.218e-5
-1.271, -1.218e-5
-1.270, -9.093e-6
-1.269, -9.093e-6
-1.268, -1.218e-5
-1.267, -1.218e-5
-1.266, -1.218e-5
-1.265, -1.218e-5
-1.264, -1.218e-5
-1.263, -1.218e-5
-1.262, -1.218e-5
-1.261, -9.093e-6
-1.260, -1.218e-5
-1.259, -1.218e-5
-1.258, -1.218e-5
-1.257, -1.218e-5
-1.256, -1.218e-5
-1.255, -1.218e-5
-1.254, -1.218e-5
-1.253, -1.218e-5
-1.252, -1.218e-5
-1.251, -1.218e-5
-1.250, -1.218e-5
-1.249, -1.218e-5
-1.248, -1.218e-5
-1.247, -1.218e-5
-1.246, -1.218e-5
-1.245, -1.218e-5
-1.244, -1.526e-5
-1.243, -1.218e-5
-1.242, -1.526e-5
-1.241, -1.218e-5
-1.240, -1.526e-5
-1.239, -1.526e-5
-1.238, -1.526e-5
-1.237, -1.218e-5
-1.236, -1.218e-5
-1.235, -1.526e-5
-1.234, -1.526e-5
-1.233, -1.526e-5
-1.232, -1.526e-5
-1.231, -1.526e-5
-1.230, -1.526e-5
-1.229, -1.526e-5
-1.228, -1.526e-5
-1.227, -1.526e-5
-1.226, -1.526e-5
-1.225, -1.526e-5
-1.224, -1.526e-5
-1.223, -1.526e-5
-1.222, -1.526e-5
-1.221, -1.526e-5
-1.220, -1.526e-5
-1.219, -1.526e-5
-1.218, -1.526e-5
-1.217, -1.526e-5
-1.216, -1.526e-5
-1.215, -1.526e-5
-1.214, -1.526e-5
-1.213, -1.834e-5
-1.212, -1.526e-5
-1.211, -1.834e-5
-1.210, -1.526e-5
-1.209, -1.834e-5
-1.208, -1.526e-5
-1.207, -1.834e-5
-1.206, -1.834e-5
-1.205, -1.834e-5
-1.204, -1.834e-5
-1.203, -1.526e-5
-1.202, -1.834e-5
-1.201, -1.834e-5
-1.200, -1.834e-5
-1.199, -1.834e-5
-1.198, -1.834e-5
-1.197, -1.834e-5
-1.196, -1.834e-5
-1.195, -1.526e-5
-1.194, -1.834e-5
-1.193, -1.834e-5
-1.192, -1.834e-5
-1.191, -1.834e-5
-1.190, -1.834e-5
-1.189, -1.834e-5
-1.188, -1.834e-5
-1.187, -1.834e-5
-1.186, -1.834e-5
-1.185, -1.834e-5
-1.184, -1.834e-5
-1.183, -1.834e-5
-1.182, -1.834e-5
-1.181, -1.834e-5
-1.180, -1.834e-5
-1.179, -1.834e-5
-1.178, -2.143e-5
-1.177, -1.834e-5
-1.176, -2.143e-5
-1.175, -2.143e-5
-1.174, -2.143e-5
-1.173, -2.143e-5
-1.172, -1.834e-5
-1.171, -2.143e-5
-1.170, -2.143e-5
-1.169, -2.143e-5
-1.168, -2.143e-5
-1.167, -2.143e-5
-1.166, -2.143e-5
-1.165, -2.143e-5
-1.164, -2.143e-5
-1.163, -2.143e-5
-1.162, -2.143e-5
-1.161, -2.143e-5
-1.160, -2.143e-5
-1.159, -2.143e-5
-1.158, -2.143e-5
-1.157, -2.143e-5
-1.156, -2.143e-5
-1.155, -2.143e-5
-1.154, -2.143e-5
-1.153, -2.143e-5
-1.152, -2.143e-5
-1.151, -2.143e-5
-1.150, -2.143e-5
-1.149, -2.143e-5
-1.148, -2.143e-5
-1.147, -2.451e-5
-1.146, -2.451e-5
-1.145, -2.143e-5
-1.144, -2.143e-5
-1.143, -2.451e-5
-1.142, -2.451e-5
-1.141, -2.451e-5
-1.140, -2.451e-5
-1.139, -2.451e-5
-1.138, -2.451e-5
-1.137, -2.451e-5
-1.136, -2.451e-5
-1.135, -2.451e-5
-1.134, -2.451e-5
-1.133, -2.451e-5
-1.132, -2.451e-5
-1.131, -2.451e-5
-1.130, -2.451e-5
-1.129, -2.451e-5
-1.128, -2.451e-5
-1.127, -2.451e-5
-1.126, -2.451e-5
-1.125, -2.451e-5
-1.124, -2.451e-5
-1.123, -2.759e-5
-1.122, -2.451e-5
-1.121, -2.451e-5
-1.120, -2.451e-5
-1.119, -2.451e-5
-1.118, -2.759e-5
-1.117, -2.451e-5
-1.116, -2.759e-5
-1.115, -2.451e-5
-1.114, -2.759e-5
-1.113, -2.759e-5
-1.112, -2.759e-5
-1.111, -2.451e-5
-1.110, -2.759e-5
-1.109, -2.759e-5
-1.108, -2.759e-5
-1.107, -2.759e-5
-1.106, -2.759e-5
-1.105, -2.759e-5
-1.104, -2.759e-5
-1.103, -2.759e-5
-1.102, -2.759e-5
-1.101, -2.759e-5
-1.100, -2.759e-5
-1.099, -2.759e-5
-1.098, -2.759e-5
-1.097, -2.759e-5
-1.096, -2.759e-5
-1.095, -2.759e-5
-1.094, -3.068e-5
-1.093, -2.759e-5
-1.092, -2.759e-5
-1.091, -2.759e-5
-1.090, -2.759e-5
-1.089, -2.759e-5
-1.088, -2.759e-5
-1.087, -3.068e-5
-1.086, -3.068e-5
-1.085, -3.068e-5
-1.084, -2.759e-5
-1.083, -3.068e-5
-1.082, -3.068e-5
-1.081, -3.068e-5
-1.080, -3.068e-5
-1.079, -3.068e-5
-1.078, -3.068e-5
-1.077, -3.068e-5
-1.076, -3.068e-5
-1.075, -3.068e-5
-1.074, -3.068e-5
-1.073, -3.068e-5
-1.072, -3.068e-5
-1.071, -3.068e-5
-1.070, -3.068e-5
-1.069, -3.068e-5
-1.068, -3.068e-5
-1.067, -3.068e-5
-1.066, -3.068e-5
-1.065, -3.068e-5
-1.064, -3.068e-5
-1.063, -3.068e-5
-1.062, -3.068e-5
-1.061, -3.068e-5
-1.060, -3.068e-5
-1.059, -3.068e-5
-1.058, -3.068e-5
-1.057, -3.068e-5
-1.056, -3.068e-5
-1.055, -3.068e-5
-1.054, -3.376e-5
-1.053, -3.068e-5
-1.052, -3.068e-5
-1.051, -3.068e-5
-1.050, -3.068e-5
-1.049, -3.068e-5
-1.048, -3.068e-5
-1.047, -3.068e-5
-1.046, -3.376e-5
-1.045, -3.376e-5
-1.044, -3.376e-5
-1.043, -3.376e-5
-1.042, -3.068e-5
-1.041, -3.068e-5
-1.040, -3.376e-5
-1.039, -3.376e-5
-1.038, -3.376e-5
-1.037, -3.376e-5
-1.036, -3.376e-5
-1.035, -3.376e-5
-1.034, -3.376e-5
-1.033, -3.376e-5
-1.032, -3.376e-5
-1.031, -3.376e-5
-1.030, -3.376e-5
-1.029, -3.376e-5
-1.028, -3.376e-5
-1.027, -3.376e-5
-1.026, -3.376e-5
-1.025, -3.376e-5
-1.024, -3.376e-5
-1.023, -3.376e-5
-1.022, -3.376e-5
-1.021, -3.684e-5
-1.020, -3.376e-5
-1.019, -3.684e-5
-1.018, -3.684e-5
-1.017, -3.376e-5
-1.016, -3.684e-5
-1.015, -3.376e-5
-1.014, -3.684e-5
-1.013, -3.684e-5
-1.012, -3.684e-5
-1.011, -3.684e-5
-1.010, -3.684e-5
-1.009, -3.684e-5
-1.008, -3.684e-5
-1.007, -3.684e-5
-1.006, -3.684e-5
-1.005, -3.684e-5
-1.004, -3.684e-5
-1.003, -3.684e-5
-1.002, -3.684e-5
-1.001, -3.684e-5
