Apr. 8, 2025   16:35:56
Cyclic Voltammetry
File: c:/users/guazh/data/banditlqround7_x0exp994_r5/2025-03-28-exp1020\exp1020-2025-04-08t16_29_35-h2koh\exp1020_cv_sr_200mvs_efin_-1400mv.bin
Data Source:  Experiment
Instrument Model:  CHI760E
Header: CV ran at 200 mVs
Note: 

Init E (V) = -1
High E (V) = -1
Low E (V) = -1.4
Final E (V) = -1
Init P/N = N
Scan Rate (V/s) = 0.2
Segment = 3
Sample Interval (V) = 0.001
Quiet Time (sec) = 2
Sensitivity (A/V) = 0.01
Comp R (ohm) = 1.6

Results:

Channel 1:
Segment 1:
Ep = -1.243V
ip = 8.152e-4A
Ah = 3.347e-4C

Segment 2:

Segment 3:

Potential/V, Current/A

-1.000, -1.004e-4
-1.001, -1.385e-5
-1.002, 5.128e-5
-1.003, 1.082e-4
-1.004, 1.474e-4
-1.005, 1.794e-4
-1.006, 2.154e-4
-1.007, 2.433e-4
-1.008, 2.624e-4
-1.009, 2.884e-4
-1.010, 3.125e-4
-1.011, 3.270e-4
-1.012, 3.451e-4
-1.013, 3.677e-4
-1.014, 3.809e-4
-1.015, 3.936e-4
-1.016, 4.138e-4
-1.017, 4.284e-4
-1.018, 4.375e-4
-1.019, 4.538e-4
-1.020, 4.716e-4
-1.021, 4.793e-4
-1.022, 4.920e-4
-1.023, 5.106e-4
-1.024, 5.210e-4
-1.025, 5.300e-4
-1.026, 5.466e-4
-1.027, 5.590e-4
-1.028, 5.659e-4
-1.029, 5.812e-4
-1.030, 5.971e-4
-1.031, 6.034e-4
-1.032, 6.148e-4
-1.033, 6.325e-4
-1.034, 6.415e-4
-1.035, 6.498e-4
-1.036, 6.679e-4
-1.037, 6.810e-4
-1.038, 6.882e-4
-1.039, 7.037e-4
-1.040, 7.193e-4
-1.041, 7.278e-4
-1.042, 7.391e-4
-1.043, 7.568e-4
-1.044, 7.666e-4
-1.045, 7.747e-4
-1.046, 7.939e-4
-1.047, 8.076e-4
-1.048, 8.145e-4
-1.049, 8.307e-4
-1.050, 8.482e-4
-1.051, 8.556e-4
-1.052, 8.673e-4
-1.053, 8.841e-4
-1.054, 8.944e-4
-1.055, 9.053e-4
-1.056, 9.224e-4
-1.057, 9.358e-4
-1.058, 9.441e-4
-1.059, 9.601e-4
-1.060, 9.773e-4
-1.061, 9.849e-4
-1.062, 9.981e-4
-1.063, 1.017e-3
-1.064, 1.027e-3
-1.065, 1.037e-3
-1.066, 1.055e-3
-1.067, 1.070e-3
-1.068, 1.079e-3
-1.069, 1.094e-3
-1.070, 1.111e-3
-1.071, 1.120e-3
-1.072, 1.131e-3
-1.073, 1.149e-3
-1.074, 1.158e-3
-1.075, 1.170e-3
-1.076, 1.189e-3
-1.077, 1.204e-3
-1.078, 1.212e-3
-1.079, 1.228e-3
-1.080, 1.244e-3
-1.081, 1.253e-3
-1.082, 1.266e-3
-1.083, 1.286e-3
-1.084, 1.297e-3
-1.085, 1.306e-3
-1.086, 1.326e-3
-1.087, 1.340e-3
-1.088, 1.347e-3
-1.089, 1.361e-3
-1.090, 1.378e-3
-1.091, 1.388e-3
-1.092, 1.402e-3
-1.093, 1.420e-3
-1.094, 1.431e-3
-1.095, 1.443e-3
-1.096, 1.462e-3
-1.097, 1.476e-3
-1.098, 1.485e-3
-1.099, 1.502e-3
-1.100, 1.521e-3
-1.101, 1.529e-3
-1.102, 1.543e-3
-1.103, 1.561e-3
-1.104, 1.574e-3
-1.105, 1.584e-3
-1.106, 1.598e-3
-1.107, 1.610e-3
-1.108, 1.620e-3
-1.109, 1.634e-3
-1.110, 1.650e-3
-1.111, 1.661e-3
-1.112, 1.674e-3
-1.113, 1.695e-3
-1.114, 1.707e-3
-1.115, 1.719e-3
-1.116, 1.740e-3
-1.117, 1.754e-3
-1.118, 1.764e-3
-1.119, 1.781e-3
-1.120, 1.800e-3
-1.121, 1.810e-3
-1.122, 1.824e-3
-1.123, 1.844e-3
-1.124, 1.862e-3
-1.125, 1.877e-3
-1.126, 1.901e-3
-1.127, 1.919e-3
-1.128, 1.928e-3
-1.129, 1.949e-3
-1.130, 1.970e-3
-1.131, 1.981e-3
-1.132, 1.997e-3
-1.133, 2.018e-3
-1.134, 2.032e-3
-1.135, 2.045e-3
-1.136, 2.069e-3
-1.137, 2.090e-3
-1.138, 2.102e-3
-1.139, 2.124e-3
-1.140, 2.149e-3
-1.141, 2.165e-3
-1.142, 2.181e-3
-1.143, 2.200e-3
-1.144, 2.205e-3
-1.145, 2.219e-3
-1.146, 2.245e-3
-1.147, 2.262e-3
-1.148, 2.279e-3
-1.149, 2.302e-3
-1.150, 2.326e-3
-1.151, 2.341e-3
-1.152, 2.361e-3
-1.153, 2.389e-3
-1.154, 2.407e-3
-1.155, 2.424e-3
-1.156, 2.450e-3
-1.157, 2.472e-3
-1.158, 2.488e-3
-1.159, 2.514e-3
-1.160, 2.539e-3
-1.161, 2.555e-3
-1.162, 2.575e-3
-1.163, 2.602e-3
-1.164, 2.621e-3
-1.165, 2.640e-3
-1.166, 2.668e-3
-1.167, 2.693e-3
-1.168, 2.711e-3
-1.169, 2.738e-3
-1.170, 2.764e-3
-1.171, 2.782e-3
-1.172, 2.804e-3
-1.173, 2.831e-3
-1.174, 2.851e-3
-1.175, 2.870e-3
-1.176, 2.898e-3
-1.177, 2.925e-3
-1.178, 2.942e-3
-1.179, 2.966e-3
-1.180, 2.992e-3
-1.181, 3.008e-3
-1.182, 3.031e-3
-1.183, 3.061e-3
-1.184, 3.082e-3
-1.185, 3.099e-3
-1.186, 3.126e-3
-1.187, 3.151e-3
-1.188, 3.171e-3
-1.189, 3.198e-3
-1.190, 3.226e-3
-1.191, 3.242e-3
-1.192, 3.264e-3
-1.193, 3.295e-3
-1.194, 3.316e-3
-1.195, 3.336e-3
-1.196, 3.364e-3
-1.197, 3.386e-3
-1.198, 3.405e-3
-1.199, 3.431e-3
-1.200, 3.457e-3
-1.201, 3.473e-3
-1.202, 3.493e-3
-1.203, 3.518e-3
-1.204, 3.539e-3
-1.205, 3.555e-3
-1.206, 3.577e-3
-1.207, 3.604e-3
-1.208, 3.623e-3
-1.209, 3.640e-3
-1.210, 3.663e-3
-1.211, 3.687e-3
-1.212, 3.715e-3
-1.213, 3.738e-3
-1.214, 3.754e-3
-1.215, 3.776e-3
-1.216, 3.800e-3
-1.217, 3.804e-3
-1.218, 3.809e-3
-1.219, 3.836e-3
-1.220, 3.858e-3
-1.221, 3.867e-3
-1.222, 3.874e-3
-1.223, 3.888e-3
-1.224, 3.893e-3
-1.225, 3.905e-3
-1.226, 3.925e-3
-1.227, 3.939e-3
-1.228, 3.946e-3
-1.229, 3.965e-3
-1.230, 3.980e-3
-1.231, 3.984e-3
-1.232, 3.995e-3
-1.233, 4.013e-3
-1.234, 4.016e-3
-1.235, 4.018e-3
-1.236, 4.031e-3
-1.237, 4.036e-3
-1.238, 4.036e-3
-1.239, 4.048e-3
-1.240, 4.061e-3
-1.241, 4.064e-3
-1.242, 4.068e-3
-1.243, 4.072e-3
-1.244, 4.067e-3
-1.245, 4.060e-3
-1.246, 4.064e-3
-1.247, 4.065e-3
-1.248, 4.057e-3
-1.249, 4.052e-3
-1.250, 4.047e-3
-1.251, 4.035e-3
-1.252, 4.024e-3
-1.253, 4.017e-3
-1.254, 4.006e-3
-1.255, 3.992e-3
-1.256, 3.987e-3
-1.257, 3.973e-3
-1.258, 3.954e-3
-1.259, 3.944e-3
-1.260, 3.931e-3
-1.261, 3.909e-3
-1.262, 3.895e-3
-1.263, 3.883e-3
-1.264, 3.862e-3
-1.265, 3.838e-3
-1.266, 3.819e-3
-1.267, 3.801e-3
-1.268, 3.786e-3
-1.269, 3.772e-3
-1.270, 3.750e-3
-1.271, 3.713e-3
-1.272, 3.689e-3
-1.273, 3.673e-3
-1.274, 3.643e-3
-1.275, 3.612e-3
-1.276, 3.591e-3
-1.277, 3.564e-3
-1.278, 3.527e-3
-1.279, 3.501e-3
-1.280, 3.476e-3
-1.281, 3.443e-3
-1.282, 3.410e-3
-1.283, 3.384e-3
-1.284, 3.348e-3
-1.285, 3.309e-3
-1.286, 3.279e-3
-1.287, 3.246e-3
-1.288, 3.203e-3
-1.289, 3.171e-3
-1.290, 3.139e-3
-1.291, 3.097e-3
-1.292, 3.061e-3
-1.293, 3.032e-3
-1.294, 2.996e-3
-1.295, 2.960e-3
-1.296, 2.933e-3
-1.297, 2.903e-3
-1.298, 2.866e-3
-1.299, 2.839e-3
-1.300, 2.818e-3
-1.301, 2.785e-3
-1.302, 2.753e-3
-1.303, 2.727e-3
-1.304, 2.690e-3
-1.305, 2.655e-3
-1.306, 2.633e-3
-1.307, 2.608e-3
-1.308, 2.576e-3
-1.309, 2.553e-3
-1.310, 2.533e-3
-1.311, 2.505e-3
-1.312, 2.482e-3
-1.313, 2.464e-3
-1.314, 2.438e-3
-1.315, 2.411e-3
-1.316, 2.396e-3
-1.317, 2.376e-3
-1.318, 2.349e-3
-1.319, 2.332e-3
-1.320, 2.318e-3
-1.321, 2.297e-3
-1.322, 2.283e-3
-1.323, 2.275e-3
-1.324, 2.259e-3
-1.325, 2.244e-3
-1.326, 2.239e-3
-1.327, 2.228e-3
-1.328, 2.213e-3
-1.329, 2.210e-3
-1.330, 2.208e-3
-1.331, 2.195e-3
-1.332, 2.193e-3
-1.333, 2.198e-3
-1.334, 2.192e-3
-1.335, 2.182e-3
-1.336, 2.178e-3
-1.337, 2.171e-3
-1.338, 2.161e-3
-1.339, 2.164e-3
-1.340, 2.169e-3
-1.341, 2.165e-3
-1.342, 2.171e-3
-1.343, 2.176e-3
-1.344, 2.170e-3
-1.345, 2.171e-3
-1.346, 2.178e-3
-1.347, 2.179e-3
-1.348, 2.178e-3
-1.349, 2.189e-3
-1.350, 2.196e-3
-1.351, 2.195e-3
-1.352, 2.204e-3
-1.353, 2.220e-3
-1.354, 2.227e-3
-1.355, 2.230e-3
-1.356, 2.242e-3
-1.357, 2.249e-3
-1.358, 2.246e-3
-1.359, 2.251e-3
-1.360, 2.263e-3
-1.361, 2.272e-3
-1.362, 2.283e-3
-1.363, 2.299e-3
-1.364, 2.309e-3
-1.365, 2.316e-3
-1.366, 2.334e-3
-1.367, 2.345e-3
-1.368, 2.346e-3
-1.369, 2.357e-3
-1.370, 2.373e-3
-1.371, 2.382e-3
-1.372, 2.397e-3
-1.373, 2.418e-3
-1.374, 2.432e-3
-1.375, 2.442e-3
-1.376, 2.463e-3
-1.377, 2.482e-3
-1.378, 2.492e-3
-1.379, 2.508e-3
-1.380, 2.522e-3
-1.381, 2.530e-3
-1.382, 2.547e-3
-1.383, 2.568e-3
-1.384, 2.579e-3
-1.385, 2.593e-3
-1.386, 2.616e-3
-1.387, 2.634e-3
-1.388, 2.644e-3
-1.389, 2.660e-3
-1.390, 2.678e-3
-1.391, 2.689e-3
-1.392, 2.707e-3
-1.393, 2.730e-3
-1.394, 2.743e-3
-1.395, 2.757e-3
-1.396, 2.779e-3
-1.397, 2.801e-3
-1.398, 2.815e-3
-1.399, 2.832e-3
-1.400, 2.731e-3
-1.399, 2.516e-3
-1.398, 2.350e-3
-1.397, 2.218e-3
-1.396, 2.097e-3
-1.395, 1.989e-3
-1.394, 1.903e-3
-1.393, 1.817e-3
-1.392, 1.733e-3
-1.391, 1.664e-3
-1.390, 1.600e-3
-1.389, 1.533e-3
-1.388, 1.472e-3
-1.387, 1.420e-3
-1.386, 1.362e-3
-1.385, 1.306e-3
-1.384, 1.261e-3
-1.383, 1.211e-3
-1.382, 1.158e-3
-1.381, 1.116e-3
-1.380, 1.074e-3
-1.379, 1.025e-3
-1.378, 9.840e-4
-1.377, 9.479e-4
-1.376, 9.057e-4
-1.375, 8.647e-4
-1.374, 8.329e-4
-1.373, 7.958e-4
-1.372, 7.545e-4
-1.371, 7.230e-4
-1.370, 6.927e-4
-1.369, 6.544e-4
-1.368, 6.238e-4
-1.367, 5.987e-4
-1.366, 5.648e-4
-1.365, 5.321e-4
-1.364, 5.082e-4
-1.363, 4.804e-4
-1.362, 4.481e-4
-1.361, 4.253e-4
-1.360, 4.042e-4
-1.359, 3.733e-4
-1.358, 3.485e-4
-1.357, 3.289e-4
-1.356, 3.014e-4
-1.355, 2.749e-4
-1.354, 2.575e-4
-1.353, 2.351e-4
-1.352, 2.093e-4
-1.351, 1.919e-4
-1.350, 1.749e-4
-1.349, 1.498e-4
-1.348, 1.307e-4
-1.347, 1.176e-4
-1.346, 9.587e-5
-1.345, 7.423e-5
-1.344, 6.278e-5
-1.343, 4.546e-5
-1.342, 2.179e-5
-1.341, 9.311e-6
-1.340, -3.810e-6
-1.339, -2.472e-5
-1.338, -3.986e-5
-1.337, -4.971e-5
-1.336, -6.716e-5
-1.335, -8.548e-5
-1.334, -9.377e-5
-1.333, -1.074e-4
-1.332, -1.264e-4
-1.331, -1.366e-4
-1.330, -1.447e-4
-1.329, -1.633e-4
-1.328, -1.758e-4
-1.327, -1.825e-4
-1.326, -1.978e-4
-1.325, -2.119e-4
-1.324, -2.179e-4
-1.323, -2.284e-4
-1.322, -2.447e-4
-1.321, -2.520e-4
-1.320, -2.583e-4
-1.319, -2.747e-4
-1.318, -2.847e-4
-1.317, -2.889e-4
-1.316, -3.021e-4
-1.315, -3.147e-4
-1.314, -3.187e-4
-1.313, -3.277e-4
-1.312, -3.413e-4
-1.311, -3.467e-4
-1.310, -3.521e-4
-1.309, -3.649e-4
-1.308, -3.727e-4
-1.307, -3.753e-4
-1.306, -3.863e-4
-1.305, -3.981e-4
-1.304, -4.000e-4
-1.303, -4.080e-4
-1.302, -4.213e-4
-1.301, -4.246e-4
-1.300, -4.291e-4
-1.299, -4.416e-4
-1.298, -4.485e-4
-1.297, -4.494e-4
-1.296, -4.591e-4
-1.295, -4.692e-4
-1.294, -4.700e-4
-1.293, -4.765e-4
-1.292, -4.886e-4
-1.291, -4.908e-4
-1.290, -4.931e-4
-1.289, -5.047e-4
-1.288, -5.096e-4
-1.287, -5.106e-4
-1.286, -5.199e-4
-1.285, -5.288e-4
-1.284, -5.290e-4
-1.283, -5.345e-4
-1.282, -5.454e-4
-1.281, -5.479e-4
-1.280, -5.517e-4
-1.279, -5.632e-4
-1.278, -5.681e-4
-1.277, -5.674e-4
-1.276, -5.759e-4
-1.275, -5.836e-4
-1.274, -5.827e-4
-1.273, -5.891e-4
-1.272, -5.991e-4
-1.271, -6.011e-4
-1.270, -6.024e-4
-1.269, -6.130e-4
-1.268, -6.171e-4
-1.267, -6.159e-4
-1.266, -6.232e-4
-1.265, -6.311e-4
-1.264, -6.291e-4
-1.263, -6.350e-4
-1.262, -6.444e-4
-1.261, -6.455e-4
-1.260, -6.476e-4
-1.259, -6.579e-4
-1.258, -6.624e-4
-1.257, -6.626e-4
-1.256, -6.693e-4
-1.255, -6.772e-4
-1.254, -6.771e-4
-1.253, -6.826e-4
-1.252, -6.933e-4
-1.251, -6.944e-4
-1.250, -6.966e-4
-1.249, -7.076e-4
-1.248, -7.120e-4
-1.247, -7.118e-4
-1.246, -7.202e-4
-1.245, -7.283e-4
-1.244, -7.286e-4
-1.243, -7.332e-4
-1.242, -7.432e-4
-1.241, -7.443e-4
-1.240, -7.451e-4
-1.239, -7.563e-4
-1.238, -7.621e-4
-1.237, -7.621e-4
-1.236, -7.720e-4
-1.235, -7.817e-4
-1.234, -7.822e-4
-1.233, -7.885e-4
-1.232, -7.993e-4
-1.231, -8.026e-4
-1.230, -8.058e-4
-1.229, -8.202e-4
-1.228, -8.266e-4
-1.227, -8.270e-4
-1.226, -8.366e-4
-1.225, -8.465e-4
-1.224, -8.460e-4
-1.223, -8.530e-4
-1.222, -8.648e-4
-1.221, -8.679e-4
-1.220, -8.728e-4
-1.219, -8.859e-4
-1.218, -8.934e-4
-1.217, -8.953e-4
-1.216, -9.068e-4
-1.215, -9.197e-4
-1.214, -9.228e-4
-1.213, -9.309e-4
-1.212, -9.444e-4
-1.211, -9.501e-4
-1.210, -9.555e-4
-1.209, -9.699e-4
-1.208, -9.795e-4
-1.207, -9.845e-4
-1.206, -9.976e-4
-1.205, -1.010e-3
-1.204, -1.016e-3
-1.203, -1.028e-3
-1.202, -1.044e-3
-1.201, -1.048e-3
-1.200, -1.060e-3
-1.199, -1.082e-3
-1.198, -1.093e-3
-1.197, -1.097e-3
-1.196, -1.111e-3
-1.195, -1.124e-3
-1.194, -1.127e-3
-1.193, -1.139e-3
-1.192, -1.156e-3
-1.191, -1.166e-3
-1.190, -1.177e-3
-1.189, -1.196e-3
-1.188, -1.209e-3
-1.187, -1.218e-3
-1.186, -1.235e-3
-1.185, -1.253e-3
-1.184, -1.260e-3
-1.183, -1.276e-3
-1.182, -1.296e-3
-1.181, -1.308e-3
-1.180, -1.320e-3
-1.179, -1.340e-3
-1.178, -1.356e-3
-1.177, -1.368e-3
-1.176, -1.388e-3
-1.175, -1.406e-3
-1.174, -1.417e-3
-1.173, -1.433e-3
-1.172, -1.454e-3
-1.171, -1.466e-3
-1.170, -1.480e-3
-1.169, -1.503e-3
-1.168, -1.519e-3
-1.167, -1.530e-3
-1.166, -1.551e-3
-1.165, -1.572e-3
-1.164, -1.582e-3
-1.163, -1.599e-3
-1.162, -1.623e-3
-1.161, -1.638e-3
-1.160, -1.652e-3
-1.159, -1.676e-3
-1.158, -1.694e-3
-1.157, -1.708e-3
-1.156, -1.729e-3
-1.155, -1.749e-3
-1.154, -1.764e-3
-1.153, -1.787e-3
-1.152, -1.809e-3
-1.151, -1.822e-3
-1.150, -1.838e-3
-1.149, -1.862e-3
-1.148, -1.878e-3
-1.147, -1.887e-3
-1.146, -1.909e-3
-1.145, -1.934e-3
-1.144, -1.947e-3
-1.143, -1.965e-3
-1.142, -1.988e-3
-1.141, -2.000e-3
-1.140, -2.016e-3
-1.139, -2.042e-3
-1.138, -2.060e-3
-1.137, -2.072e-3
-1.136, -2.094e-3
-1.135, -2.117e-3
-1.134, -2.127e-3
-1.133, -2.142e-3
-1.132, -2.164e-3
-1.131, -2.178e-3
-1.130, -2.192e-3
-1.129, -2.217e-3
-1.128, -2.235e-3
-1.127, -2.248e-3
-1.126, -2.269e-3
-1.125, -2.292e-3
-1.124, -2.304e-3
-1.123, -2.319e-3
-1.122, -2.339e-3
-1.121, -2.351e-3
-1.120, -2.364e-3
-1.119, -2.386e-3
-1.118, -2.403e-3
-1.117, -2.414e-3
-1.116, -2.434e-3
-1.115, -2.453e-3
-1.114, -2.466e-3
-1.113, -2.486e-3
-1.112, -2.509e-3
-1.111, -2.522e-3
-1.110, -2.538e-3
-1.109, -2.563e-3
-1.108, -2.582e-3
-1.107, -2.593e-3
-1.106, -2.612e-3
-1.105, -2.634e-3
-1.104, -2.647e-3
-1.103, -2.658e-3
-1.102, -2.674e-3
-1.101, -2.683e-3
-1.100, -2.696e-3
-1.099, -2.718e-3
-1.098, -2.735e-3
-1.097, -2.745e-3
-1.096, -2.759e-3
-1.095, -2.775e-3
-1.094, -2.787e-3
-1.093, -2.803e-3
-1.092, -2.820e-3
-1.091, -2.830e-3
-1.090, -2.843e-3
-1.089, -2.867e-3
-1.088, -2.885e-3
-1.087, -2.895e-3
-1.086, -2.913e-3
-1.085, -2.927e-3
-1.084, -2.935e-3
-1.083, -2.951e-3
-1.082, -2.966e-3
-1.081, -2.971e-3
-1.080, -2.982e-3
-1.079, -3.002e-3
-1.078, -3.010e-3
-1.077, -3.015e-3
-1.076, -3.032e-3
-1.075, -3.048e-3
-1.074, -3.054e-3
-1.073, -3.064e-3
-1.072, -3.079e-3
-1.071, -3.088e-3
-1.070, -3.098e-3
-1.069, -3.118e-3
-1.068, -3.134e-3
-1.067, -3.143e-3
-1.066, -3.157e-3
-1.065, -3.169e-3
-1.064, -3.174e-3
-1.063, -3.188e-3
-1.062, -3.202e-3
-1.061, -3.200e-3
-1.060, -3.207e-3
-1.059, -3.227e-3
-1.058, -3.233e-3
-1.057, -3.233e-3
-1.056, -3.245e-3
-1.055, -3.259e-3
-1.054, -3.264e-3
-1.053, -3.273e-3
-1.052, -3.290e-3
-1.051, -3.295e-3
-1.050, -3.306e-3
-1.049, -3.324e-3
-1.048, -3.332e-3
-1.047, -3.334e-3
-1.046, -3.344e-3
-1.045, -3.352e-3
-1.044, -3.350e-3
-1.043, -3.354e-3
-1.042, -3.364e-3
-1.041, -3.371e-3
-1.040, -3.373e-3
-1.039, -3.383e-3
-1.038, -3.389e-3
-1.037, -3.389e-3
-1.036, -3.403e-3
-1.035, -3.415e-3
-1.034, -3.415e-3
-1.033, -3.419e-3
-1.032, -3.431e-3
-1.031, -3.443e-3
-1.030, -3.445e-3
-1.029, -3.449e-3
-1.028, -3.456e-3
-1.027, -3.462e-3
-1.026, -3.471e-3
-1.025, -3.480e-3
-1.024, -3.481e-3
-1.023, -3.493e-3
-1.022, -3.505e-3
-1.021, -3.505e-3
-1.020, -3.510e-3
-1.019, -3.521e-3
-1.018, -3.527e-3
-1.017, -3.524e-3
-1.016, -3.527e-3
-1.015, -3.534e-3
-1.014, -3.534e-3
-1.013, -3.542e-3
-1.012, -3.556e-3
-1.011, -3.559e-3
-1.010, -3.564e-3
-1.009, -3.564e-3
-1.008, -3.561e-3
-1.007, -3.566e-3
-1.006, -3.568e-3
-1.005, -3.570e-3
-1.004, -3.572e-3
-1.003, -3.578e-3
-1.002, -3.582e-3
-1.001, -3.580e-3
