Potential V vs RHE, Current mA cm-2
0.05339999999999995,-0.10532525627495198
0.05239999999999995,-0.11643073997889253
0.051399999999999946,-0.1213963766414188
0.050399999999999945,-0.1239004156421799
0.049399999999999944,-0.12579612878399907
0.04839999999999994,-0.12747963523083847
0.04739999999999994,-0.12907825899968592
0.04639999999999994,-0.13032320494356717
0.04539999999999994,-0.13149741532245518
0.04439999999999994,-0.13267162570134314
0.04339999999999994,-0.1337751005152379
0.04239999999999994,-0.1349917522331218
0.04139999999999994,-0.13593960880403136
0.040399999999999936,-0.13685917114894364
0.039399999999999935,-0.13789191039784512
0.038399999999999934,-0.13899538521173985
0.03739999999999993,-0.13995738889564807
0.03639999999999993,-0.14079206856256846
0.03539999999999993,-0.14147112998650369
0.03439999999999993,-0.1424614278964092
0.03339999999999993,-0.1433102546763282
0.03239999999999993,-0.14430055258623375
0.03139999999999993,-0.14500790823616627
0.030399999999999927,-0.14557379275611226
0.029399999999999926,-0.14642261953603128
0.028399999999999925,-0.14741291744593682
0.027399999999999924,-0.14812027309586934
0.026399999999999924,-0.14896909987578838
0.025399999999999923,-0.14953498439573437
0.024399999999999922,-0.1502423400456669
0.02339999999999992,-0.1510911668255859
0.02239999999999992,-0.15193999360550495
0.02139999999999992,-0.15264734925543746
0.020399999999999918,-0.15321323377538346
0.019399999999999917,-0.15392058942531597
0.018399999999999916,-0.15476941620523502
0.017399999999999916,-0.15547677185516753
0.016399999999999915,-0.15618412750510002
0.015399999999999914,-0.15675001202504607
0.014399999999999913,-0.15731589654499206
0.013399999999999912,-0.15816472332491108
0.012399999999999911,-0.1588720789748436
0.01139999999999991,-0.15943796349478964
0.01039999999999991,-0.16000384801473563
0.009399999999999908,-0.16056973253468165
0.008399999999999908,-0.16127708818461417
0.007399999999999907,-0.1619844438345467
0.006399999999999906,-0.1625503283544927
0.005399999999999905,-0.1629747417444522
0.004399999999999904,-0.16354062626439822
0.003399999999999903,-0.16424798191433077
0.002399999999999902,-0.16495533756426325
0.0013999999999999013,-0.16537975095422278
0.00039999999999990044,-0.1659456354741688
-0.0006000000000001005,-0.16651151999411481
-0.0016000000000001013,-0.16707740451406086
-0.0026000000000001022,-0.16778476016399335
-0.003600000000000103,-0.16820917355395287
-0.004600000000000104,-0.16863358694391237
-0.005600000000000105,-0.16919947146385841
-0.006600000000000106,-0.1697653559838044
-0.007600000000000107,-0.17018976937376393
-0.008600000000000108,-0.17075565389370992
-0.009600000000000108,-0.17103859615368294
-0.01060000000000011,-0.17146300954364244
-0.01160000000000011,-0.17202889406358848
-0.012600000000000111,-0.172736249713521
-0.013600000000000112,-0.1731606631034805
-0.014600000000000113,-0.1734436053634535
-0.015600000000000114,-0.173868018753413
-0.016600000000000115,-0.17457537440334553
-0.017600000000000116,-0.17499978779330505
-0.018600000000000116,-0.17542420118326454
-0.019600000000000117,-0.17584861457322407
-0.020600000000000118,-0.17613155683319706
-0.02160000000000012,-0.1766974413531431
-0.02260000000000012,-0.1772633258730891
-0.02360000000000012,-0.17754626813306212
-0.024600000000000122,-0.17797068152302162
-0.025600000000000123,-0.1782536237829946
-0.026600000000000124,-0.17881950830294063
-0.027600000000000124,-0.17924392169290015
-0.028600000000000125,-0.17966833508285968
-0.029600000000000126,-0.17995127734283267
-0.030600000000000127,-0.18037569073279217
-0.03160000000000013,-0.1808001041227517
-0.03260000000000013,-0.18136598864269768
-0.03360000000000013,-0.18150745977268423
-0.03460000000000002,-0.18193187316264373
-0.03560000000000002,-0.18221481542261672
-0.03660000000000002,-0.18263922881257624
-0.03760000000000002,-0.18320511333252223
-0.03860000000000002,-0.18348805559249526
-0.039600000000000024,-0.18377099785246825
-0.040600000000000025,-0.18419541124242778
-0.041600000000000026,-0.1846198246323873
-0.04260000000000003,-0.1849027668923603
-0.04360000000000003,-0.1851857091523333
-0.04460000000000003,-0.18532718028231981
-0.04560000000000003,-0.1857515936722793
-0.04660000000000003,-0.1861760070622388
-0.04760000000000003,-0.18645894932221183
-0.04860000000000003,-0.18674189158218485
-0.04960000000000003,-0.18702483384215784
-0.050600000000000034,-0.18730777610213087
-0.051600000000000035,-0.18773218949209036
-0.052600000000000036,-0.18801513175206336
-0.053600000000000037,-0.18843954514202288
-0.05460000000000004,-0.18858101627200938
-0.05560000000000004,-0.18886395853198237
-0.05660000000000004,-0.18942984305192842
-0.05760000000000004,-0.18957131418191492
-0.05860000000000004,-0.18985425644188791
-0.05960000000000004,-0.19013719870186094
-0.06060000000000004,-0.19042014096183393
-0.061600000000000044,-0.19084455435179343
-0.06260000000000004,-0.19112749661176645
-0.06360000000000005,-0.19141043887173945
-0.06460000000000005,-0.19169338113171247
-0.06560000000000005,-0.19183485226169897
-0.06660000000000005,-0.1922592656516585
-0.06760000000000005,-0.19254220791163149
-0.06860000000000005,-0.19268367904161798
-0.06960000000000005,-0.192966621301591
-0.07060000000000005,-0.193249563561564
-0.07160000000000005,-0.193532505821537
-0.07260000000000005,-0.19395691921149652
-0.07360000000000005,-0.19409839034148305
-0.07460000000000006,-0.19423986147146954
-0.07560000000000006,-0.19452280373144254
-0.07660000000000006,-0.19494721712140206
-0.07760000000000006,-0.19523015938137506
-0.07860000000000006,-0.19537163051136155
-0.07960000000000006,-0.19551310164134805
-0.08060000000000006,-0.19579604390132105
-0.08160000000000006,-0.19607898616129407
-0.08260000000000006,-0.1965033995512536
-0.08360000000000006,-0.1966448706812401
-0.08460000000000006,-0.19678634181122662
-0.08560000000000006,-0.1970692840711996
-0.08660000000000007,-0.1973522263311726
-0.08760000000000007,-0.1976351685911456
-0.08860000000000007,-0.19791811085111863
-0.08960000000000007,-0.19791811085111863
-0.09060000000000007,-0.19820105311109162
-0.09160000000000007,-0.19862546650105112
-0.09260000000000007,-0.19876693763103764
-0.09360000000000007,-0.19904987989101067
-0.09460000000000007,-0.19919135102099716
-0.09560000000000007,-0.19947429328097016
-0.09660000000000007,-0.19975723554094318
-0.09760000000000008,-0.19989870667092968
-0.09860000000000008,-0.20018164893090268
-0.09960000000000008,-0.20032312006088918
-0.10060000000000008,-0.20046459119087567
-0.10160000000000008,-0.2010304757108217
-0.10260000000000008,-0.2011719468408082
-0.10360000000000008,-0.20131341797079472
-0.10460000000000008,-0.20159636023076774
-0.10560000000000008,-0.20173783136075424
-0.10660000000000008,-0.20216224475071373
-0.10760000000000008,-0.20244518701068673
-0.10860000000000009,-0.20258665814067325
-0.10960000000000009,-0.20272812927065975
-0.11060000000000009,-0.20286960040064628
-0.11160000000000009,-0.20315254266061927
-0.11260000000000009,-0.2035769560505788
-0.11360000000000009,-0.2037184271805653
-0.11460000000000009,-0.2040013694405383
-0.11560000000000009,-0.20428431170051128
-0.11660000000000009,-0.2044257828304978
-0.1176000000000001,-0.20485019622045733
-0.1186000000000001,-0.20499166735044383
-0.1196000000000001,-0.20513313848043033
-0.1206000000000001,-0.20541608074040332
-0.1216000000000001,-0.20569902300037635
-0.1226000000000001,-0.20598196526034934
-0.1236000000000001,-0.20612343639033584
-0.1246000000000001,-0.20626490752032234
-0.1256000000000001,-0.2065478497802954
-0.1266000000000001,-0.20683079204026839
-0.1276000000000001,-0.20725520543022788
-0.1286000000000001,-0.2075381476902009
-0.1296000000000001,-0.2076796188201874
-0.1306000000000001,-0.2078210899501739
-0.1316000000000001,-0.2082455033401334
-0.1326000000000001,-0.20852844560010642
-0.1336000000000001,-0.2086699167300929
-0.1346000000000001,-0.2088113878600794
-0.1356000000000001,-0.20909433012005244
-0.1366000000000001,-0.20951874351001196
-0.1376000000000001,-0.20980168576998495
-0.1386000000000001,-0.20994315689997145
-0.1396000000000001,-0.21022609915994445
-0.1406000000000001,-0.21050904141991747
-0.14160000000000011,-0.21093345480987696
-0.14260000000000012,-0.21121639706985
-0.14360000000000012,-0.21149933932982298
-0.14460000000000012,-0.2116408104598095
-0.14560000000000012,-0.2119237527197825
-0.14660000000000012,-0.21234816610974203
-0.14760000000000012,-0.21263110836971502
-0.14860000000000012,-0.21277257949970152
-0.14960000000000012,-0.21305552175967452
-0.15060000000000012,-0.21333846401964754
-0.15160000000000012,-0.21362140627962053
-0.15260000000000012,-0.21404581966958006
-0.15360000000000013,-0.21432876192955308
-0.15460000000000013,-0.21447023305953958
-0.15560000000000013,-0.21489464644949907
-0.15660000000000013,-0.2151775887094721
-0.15760000000000013,-0.2156020020994316
-0.15860000000000013,-0.21588494435940458
-0.15960000000000002,-0.2160264154893911
-0.16060000000000002,-0.2164508288793506
-0.16160000000000002,-0.2167337711393236
-0.16260000000000002,-0.21729965565926962
-0.16360000000000002,-0.21744112678925615
-0.16460000000000002,-0.21772406904922914
-0.16560000000000002,-0.21828995356917516
-0.16660000000000003,-0.21885583808912115
-0.16760000000000003,-0.2189973092191077
-0.16860000000000003,-0.2192802514790807
-0.16960000000000003,-0.21942172260906717
-0.17060000000000003,-0.2198461359990267
-0.17160000000000003,-0.2202705493889862
-0.17260000000000003,-0.22055349164895924
-0.17360000000000003,-0.22097790503891873
-0.17460000000000003,-0.22126084729889173
-0.17560000000000003,-0.22154378955886472
-0.17660000000000003,-0.22210967407881074
-0.17760000000000004,-0.22239261633878374
-0.17860000000000004,-0.2228170297287433
-0.17960000000000004,-0.22309997198871628
-0.18060000000000004,-0.22338291424868928
-0.18160000000000004,-0.2239487987686353
-0.18260000000000004,-0.22437321215859482
-0.18360000000000004,-0.22465615441856782
-0.18460000000000004,-0.2250805678085273
-0.18560000000000004,-0.22550498119848683
-0.18660000000000004,-0.22607086571843285
-0.18760000000000004,-0.22649527910839237
-0.18860000000000005,-0.2267782213683654
-0.18960000000000005,-0.22720263475832486
-0.19060000000000005,-0.2276270481482844
-0.19160000000000005,-0.2281929326682304
-0.19260000000000005,-0.22875881718817642
-0.19360000000000005,-0.22904175944814942
-0.19460000000000005,-0.22946617283810894
-0.19560000000000005,-0.22989058622806843
-0.19660000000000005,-0.23031499961802795
-0.19760000000000005,-0.23088088413797397
-0.19860000000000005,-0.2313052975279335
-0.19960000000000006,-0.231729710917893
-0.20060000000000006,-0.23229559543783898
-0.20160000000000006,-0.23272000882779853
-0.20260000000000006,-0.23328589334774452
-0.20360000000000006,-0.23371030673770407
-0.20460000000000006,-0.23413472012766354
-0.20560000000000006,-0.23470060464760956
-0.20660000000000006,-0.23526648916755558
-0.20760000000000006,-0.23583237368750162
-0.20860000000000006,-0.23639825820744764
-0.20960000000000006,-0.23668120046742064
-0.21060000000000006,-0.23724708498736666
-0.21160000000000007,-0.23795444063729917
-0.21260000000000007,-0.2385203251572452
-0.21360000000000007,-0.2389447385472047
-0.21460000000000007,-0.2393691519371642
-0.21560000000000007,-0.24389622809673234
-0.21660000000000007,-0.24615976617651636
-0.21760000000000007,-0.24417917035670533
-0.21860000000000007,-0.24389622809673234
-0.21960000000000007,-0.24417917035670533
-0.22060000000000007,-0.2443206414866918
-0.22160000000000007,-0.24502799713662435
-0.22260000000000008,-0.24559388165657034
-0.22360000000000008,-0.24587682391654336
-0.22460000000000008,-0.24630123730650288
-0.22560000000000008,-0.24672565069646235
-0.22660000000000008,-0.2474330063463949
-0.22760000000000008,-0.24799889086634092
-0.22860000000000008,-0.2485647753862869
-0.22960000000000008,-0.24913065990623293
-0.23060000000000008,-0.24983801555616547
-0.23160000000000008,-0.25026242894612494
-0.23260000000000008,-0.25096978459605745
-0.23360000000000009,-0.2515356691160035
-0.2346000000000001,-0.2521015536359495
-0.2356000000000001,-0.252808909285882
-0.2366000000000001,-0.2535162649358146
-0.2376000000000001,-0.25422362058574705
-0.2386000000000001,-0.2547895051056931
-0.2396000000000001,-0.25535538962563914
-0.2406000000000001,-0.2560627452755716
-0.2416000000000001,-0.2567701009255041
-0.2426000000000001,-0.2574774565754367
-0.2436000000000001,-0.2581848122253692
-0.2446000000000001,-0.2587506967453152
-0.2456000000000001,-0.25959952352523424
-0.2466000000000001,-0.26030687917516676
-0.2476000000000001,-0.2611557059550858
-0.2486000000000001,-0.2618630616050183
-0.2496000000000001,-0.2624289461249643
-0.2506000000000001,-0.2631363017748969
-0.2516000000000001,-0.26412659968480234
-0.2526000000000001,-0.2648339553347349
-0.2536000000000001,-0.2656827821146539
-0.2546000000000001,-0.2662486666345999
-0.2556000000000001,-0.26709749341451894
-0.2566000000000001,-0.26808779132442445
-0.2576000000000001,-0.268795146974357
-0.2586000000000001,-0.269643973754276
-0.2596000000000001,-0.27035132940420853
-0.2606000000000001,-0.27120015618412757
-0.2616000000000001,-0.27219045409403303
-0.2626000000000001,-0.27303928087395213
-0.2636000000000001,-0.2737466365238846
-0.2646000000000001,-0.27459546330380363
-0.2656000000000001,-0.27530281895373615
-0.2666000000000001,-0.2764345879936282
-0.2676000000000001,-0.2774248859035337
-0.2686000000000001,-0.27827371268345275
-0.2696000000000001,-0.27912253946337173
-0.2706000000000001,-0.2799713662432907
-0.2716000000000001,-0.2811031352831828
-0.2726000000000001,-0.2819519620631018
-0.2736000000000001,-0.28280078884302084
-0.2746000000000001,-0.28364961562293983
-0.2756000000000001,-0.2846399135328454
-0.2766000000000001,-0.2856302114427509
-0.2776000000000001,-0.2866205093526564
-0.2786000000000001,-0.28775227839254847
-0.2796000000000001,-0.2886011051724675
-0.2806000000000001,-0.28959140308237297
-0.28160000000000013,-0.29058170099227854
-0.28260000000000013,-0.2917134700321706
-0.28360000000000013,-0.2931281813320356
-0.2846,-0.29397700811195465
-0.2856,-0.2946843637618871
-0.2866,-0.2956746616717927
-0.2876,-0.2966649595816982
-0.2886,-0.29779672862159023
-0.2896,-0.29878702653149575
-0.2906,-0.2999187955713878
-0.2916,-0.30105056461127977
-0.2926,-0.3021823336511718
-0.2936,-0.3033141026910639
-0.29460000000000003,-0.30430440060096936
-0.29560000000000003,-0.30543616964086145
-0.29660000000000003,-0.3067094098107399
-0.29760000000000003,-0.3076997077206455
-0.29860000000000003,-0.30883147676053746
-0.29960000000000003,-0.3099632458004295
-0.30060000000000003,-0.3110950148403216
-0.30160000000000003,-0.31236825501020005
-0.30260000000000004,-0.3136414951800786
-0.30360000000000004,-0.3146317930899841
-0.30460000000000004,-0.3159050332598627
-0.30560000000000004,-0.3171782734297412
-0.30660000000000004,-0.31831004246963324
-0.30760000000000004,-0.31958328263951175
-0.30860000000000004,-0.32071505167940384
-0.30960000000000004,-0.3219882918492823
-0.31060000000000004,-0.3234030031491474
-0.31160000000000004,-0.3246762433190259
-0.31260000000000004,-0.3260909546188909
-0.31360000000000005,-0.32722272365878297
-0.31460000000000005,-0.32849596382866153
-0.31560000000000005,-0.3300521462585131
-0.31660000000000005,-0.3313253864283916
-0.31760000000000005,-0.33274009772825663
-0.31860000000000005,-0.3340133378981352
-0.31960000000000005,-0.3354280491980002
-0.32060000000000005,-0.33684276049786527
-0.32160000000000005,-0.3382574717977303
-0.32260000000000005,-0.33981365422758186
-0.32360000000000005,-0.34122836552744684
-0.32460000000000006,-0.3425016056973254
-0.32560000000000006,-0.34405778812717697
-0.32660000000000006,-0.3456139705570285
-0.32760000000000006,-0.34717015298688
-0.32860000000000006,-0.34858486428674507
-0.32960000000000006,-0.3498581044566236
-0.33060000000000006,-0.35155575801646166
-0.33160000000000006,-0.35311194044631317
-0.33260000000000006,-0.3548095940061512
-0.33360000000000006,-0.35622430530601623
-0.33460000000000006,-0.3577804877358678
-0.33560000000000006,-0.35933667016571935
-0.33660000000000007,-0.3611757948555439
-0.33760000000000007,-0.36287344841538194
-0.33860000000000007,-0.36442963084523344
-0.33960000000000007,-0.365985813275085
-0.34060000000000007,-0.36768346683492303
-0.34160000000000007,-0.3695225915247476
-0.34260000000000007,-0.3712202450845856
-0.34360000000000007,-0.37291789864442365
-0.3446000000000001,-0.37461555220426174
-0.3456000000000001,-0.3764546768940863
-0.3466000000000001,-0.37829380158391085
-0.34759999999999996,-0.3802743974037219
-0.3486000000000001,-0.38197205096355985
-0.34959999999999997,-0.3838111756533844
-0.3506000000000001,-0.3857917714731955
-0.35159999999999997,-0.38777236729300657
-0.3526000000000001,-0.3897529631128176
-0.35359999999999997,-0.3915920878026421
-0.3546000000000001,-0.39343121249246665
-0.35559999999999997,-0.3954118083122777
-0.3566000000000001,-0.3975338752620753
-0.3576,-0.39965594221187284
-0.3586000000000001,-0.4016365380316839
-0.3596,-0.4037586049814815
-0.3606000000000001,-0.40602214306126555
-0.3616,-0.4082856811410496
-0.3626000000000001,-0.4104077480908471
-0.3636,-0.4125298150406447
-0.3646000000000001,-0.41465188199044223
-0.3656,-0.41719836233019936
-0.3666000000000001,-0.4194619004099834
-0.3676,-0.4218669096197539
-0.3686000000000001,-0.424130447699538
-0.3696,-0.42625251464933556
-0.3706000000000001,-0.42879899498909263
-0.3716,-0.4314869464588362
-0.3726000000000001,-0.4338919556686068
-0.3736,-0.4362969648783774
-0.3746000000000001,-0.43884344521813434
-0.3756,-0.4413899255578914
-0.3766000000000001,-0.44407787702763507
-0.3776,-0.44676582849737856
-0.3786000000000001,-0.44931230883713563
-0.3796,-0.4520002603068792
-0.3806000000000001,-0.4546882117766228
-0.3816,-0.45765910550633937
-0.3826000000000001,-0.4604885281060694
-0.3836,-0.46317647957581304
-0.3846000000000001,-0.46600590217554305
-0.3856,-0.4688353247752731
-0.3866000000000001,-0.4719476896349762
-0.3876,-0.4747771122347063
-0.3886000000000001,-0.47774800596442285
-0.3896,-0.4807188996941395
-0.3906000000000001,-0.48368979342385604
-0.3916,-0.48694362941354563
-0.3926000000000001,-0.4900559942732487
-0.3936,-0.49302688800296524
-0.3946000000000001,-0.49613925286266836
-0.3956,-0.4993930888523579
-0.3966000000000001,-0.5027883959720341
-0.3976,-0.5060422319617235
-0.3986000000000001,-0.5091545968214266
-0.3996,-0.5125499039411028
-0.4006000000000001,-0.5159452110607788
-0.4016,-0.5194819893104415
-0.4026000000000001,-0.5228772964301176
-0.4036,-0.5264140746797802
-0.4046000000000001,-0.5298093817994564
-0.4056,-0.5334876311791055
-0.40660000000000013,-0.5371658805587545
-0.4076,-0.5408441299384036
-0.40860000000000013,-0.5445223793180526
-0.4096,-0.5480591575677152
-0.41060000000000013,-0.5518788780773508
-0.4116,-0.5558400697169729
-0.41260000000000013,-0.559801261356595
-0.4136,-0.5636209818662306
-0.41460000000000014,-0.5675821735058527
-0.4156,-0.5715433651454748
-0.41660000000000014,-0.5756460279150835
-0.4176,-0.5798901618146786
-0.41860000000000014,-0.5839928245842871
-0.41960000000000003,-0.5880954873538957
-0.42060000000000014,-0.5923396212534908
-0.42160000000000003,-0.596866697413059
-0.42260000000000014,-0.6011108313126541
-0.42360000000000003,-0.6053549652122492
-0.42460000000000014,-0.6097405702418307
-0.42560000000000003,-0.6141261752714124
-0.42660000000000015,-0.6186532514309806
-0.42760000000000004,-0.6230388564605621
-0.42860000000000015,-0.6277074037501167
-0.42960000000000004,-0.6325174221696578
-0.43060000000000015,-0.6371859694592126
-0.43160000000000004,-0.6421374590087401
-0.43260000000000015,-0.6469474774282812
-0.43360000000000004,-0.6516160247178359
-0.43460000000000015,-0.6565675142673635
-0.43560000000000004,-0.6616604749468776
-0.43660000000000015,-0.6667534356263918
-0.43760000000000004,-0.672129338565879
-0.43860000000000016,-0.6772222992453931
-0.43960000000000005,-0.6824567310548937
-0.44060000000000016,-0.6876911628643944
