May 2, 2025   20:44:07
Linear Sweep Voltammetry
File: c:/users/guazh/data/banditlqround7_x0exp1108_r5/2025-04-30-exp1220\regeneratedgce-2025-05-02t20_41_04-lsvinkoh\regeneratedgce_lsv_50mvs_efin_-1700mv.bin
Data Source:  Experiment
Instrument Model:  CHI760E
Header: LSV ran at 50 mVs with Efin at -1700mV
Note: 

Init E (V) = -0.6
Final E (V) = -1.7
Scan Rate (V/s) = 0.05
Sample Interval (V) = 0.001
Quiet Time (sec) = 2
Sensitivity (A/V) = 1e-4
Comp R (ohm) = 1.2

Results:

Channel 1:
Ep = -1.327V
ip = 3.003e-4A
Ah = 3.260e-4C

Potential/V, Current/A

-0.600, -4.764e-5
-0.601, -4.391e-5
-0.602, -4.044e-5
-0.603, -3.752e-5
-0.604, -3.485e-5
-0.605, -3.236e-5
-0.606, -2.997e-5
-0.607, -2.771e-5
-0.608, -2.547e-5
-0.609, -2.329e-5
-0.610, -2.120e-5
-0.611, -1.916e-5
-0.612, -1.719e-5
-0.613, -1.519e-5
-0.614, -1.325e-5
-0.615, -1.133e-5
-0.616, -9.479e-6
-0.617, -7.655e-6
-0.618, -5.849e-6
-0.619, -4.063e-6
-0.620, -2.320e-6
-0.621, -6.029e-7
-0.622, 1.096e-6
-0.623, 2.768e-6
-0.624, 4.445e-6
-0.625, 6.081e-6
-0.626, 7.683e-6
-0.627, 9.298e-6
-0.628, 1.088e-5
-0.629, 1.244e-5
-0.630, 1.401e-5
-0.631, 1.551e-5
-0.632, 1.704e-5
-0.633, 1.855e-5
-0.634, 2.005e-5
-0.635, 2.152e-5
-0.636, 2.296e-5
-0.637, 2.441e-5
-0.638, 2.586e-5
-0.639, 2.728e-5
-0.640, 2.869e-5
-0.641, 3.006e-5
-0.642, 3.145e-5
-0.643, 3.285e-5
-0.644, 3.422e-5
-0.645, 3.556e-5
-0.646, 3.690e-5
-0.647, 3.821e-5
-0.648, 3.958e-5
-0.649, 4.090e-5
-0.650, 4.217e-5
-0.651, 4.345e-5
-0.652, 4.473e-5
-0.653, 4.603e-5
-0.654, 4.730e-5
-0.655, 4.855e-5
-0.656, 4.979e-5
-0.657, 5.102e-5
-0.658, 5.225e-5
-0.659, 5.349e-5
-0.660, 5.469e-5
-0.661, 5.590e-5
-0.662, 5.710e-5
-0.663, 5.829e-5
-0.664, 5.948e-5
-0.665, 6.065e-5
-0.666, 6.183e-5
-0.667, 6.300e-5
-0.668, 6.417e-5
-0.669, 6.534e-5
-0.670, 6.648e-5
-0.671, 6.760e-5
-0.672, 6.873e-5
-0.673, 6.989e-5
-0.674, 7.100e-5
-0.675, 7.213e-5
-0.676, 7.323e-5
-0.677, 7.433e-5
-0.678, 7.543e-5
-0.679, 7.652e-5
-0.680, 7.759e-5
-0.681, 7.865e-5
-0.682, 7.972e-5
-0.683, 8.079e-5
-0.684, 8.190e-5
-0.685, 8.294e-5
-0.686, 8.400e-5
-0.687, 8.512e-5
-0.688, 8.622e-5
-0.689, 8.728e-5
-0.690, 8.829e-5
-0.691, 8.930e-5
-0.692, 9.032e-5
-0.693, 9.132e-5
-0.694, 9.235e-5
-0.695, 9.327e-5
-0.696, 9.426e-5
-0.697, 9.528e-5
-0.698, 9.628e-5
-0.699, 9.735e-5
-0.700, 9.830e-5
-0.701, 9.925e-5
-0.702, 1.002e-4
-0.703, 1.012e-4
-0.704, 1.022e-4
-0.705, 1.032e-4
-0.706, 1.041e-4
-0.707, 1.051e-4
-0.708, 1.060e-4
-0.709, 1.070e-4
-0.710, 1.080e-4
-0.711, 1.089e-4
-0.712, 1.097e-4
-0.713, 1.107e-4
-0.714, 1.117e-4
-0.715, 1.126e-4
-0.716, 1.136e-4
-0.717, 1.145e-4
-0.718, 1.154e-4
-0.719, 1.164e-4
-0.720, 1.174e-4
-0.721, 1.183e-4
-0.722, 1.192e-4
-0.723, 1.201e-4
-0.724, 1.210e-4
-0.725, 1.219e-4
-0.726, 1.228e-4
-0.727, 1.237e-4
-0.728, 1.247e-4
-0.729, 1.256e-4
-0.730, 1.264e-4
-0.731, 1.273e-4
-0.732, 1.282e-4
-0.733, 1.292e-4
-0.734, 1.301e-4
-0.735, 1.310e-4
-0.736, 1.318e-4
-0.737, 1.327e-4
-0.738, 1.336e-4
-0.739, 1.345e-4
-0.740, 1.354e-4
-0.741, 1.363e-4
-0.742, 1.372e-4
-0.743, 1.381e-4
-0.744, 1.390e-4
-0.745, 1.399e-4
-0.746, 1.407e-4
-0.747, 1.416e-4
-0.748, 1.425e-4
-0.749, 1.435e-4
-0.750, 1.444e-4
-0.751, 1.452e-4
-0.752, 1.461e-4
-0.753, 1.470e-4
-0.754, 1.479e-4
-0.755, 1.488e-4
-0.756, 1.496e-4
-0.757, 1.505e-4
-0.758, 1.514e-4
-0.759, 1.523e-4
-0.760, 1.532e-4
-0.761, 1.540e-4
-0.762, 1.550e-4
-0.763, 1.558e-4
-0.764, 1.566e-4
-0.765, 1.574e-4
-0.766, 1.583e-4
-0.767, 1.593e-4
-0.768, 1.603e-4
-0.769, 1.611e-4
-0.770, 1.618e-4
-0.771, 1.627e-4
-0.772, 1.636e-4
-0.773, 1.645e-4
-0.774, 1.653e-4
-0.775, 1.660e-4
-0.776, 1.668e-4
-0.777, 1.676e-4
-0.778, 1.686e-4
-0.779, 1.695e-4
-0.780, 1.704e-4
-0.781, 1.713e-4
-0.782, 1.721e-4
-0.783, 1.730e-4
-0.784, 1.740e-4
-0.785, 1.750e-4
-0.786, 1.758e-4
-0.787, 1.766e-4
-0.788, 1.775e-4
-0.789, 1.783e-4
-0.790, 1.792e-4
-0.791, 1.800e-4
-0.792, 1.808e-4
-0.793, 1.818e-4
-0.794, 1.827e-4
-0.795, 1.836e-4
-0.796, 1.844e-4
-0.797, 1.852e-4
-0.798, 1.862e-4
-0.799, 1.871e-4
-0.800, 1.881e-4
-0.801, 1.890e-4
-0.802, 1.897e-4
-0.803, 1.907e-4
-0.804, 1.915e-4
-0.805, 1.923e-4
-0.806, 1.933e-4
-0.807, 1.942e-4
-0.808, 1.952e-4
-0.809, 1.961e-4
-0.810, 1.970e-4
-0.811, 1.979e-4
-0.812, 1.989e-4
-0.813, 1.998e-4
-0.814, 2.009e-4
-0.815, 2.018e-4
-0.816, 2.026e-4
-0.817, 2.036e-4
-0.818, 2.047e-4
-0.819, 2.056e-4
-0.820, 2.066e-4
-0.821, 2.075e-4
-0.822, 2.084e-4
-0.823, 2.094e-4
-0.824, 2.104e-4
-0.825, 2.115e-4
-0.826, 2.123e-4
-0.827, 2.132e-4
-0.828, 2.142e-4
-0.829, 2.154e-4
-0.830, 2.165e-4
-0.831, 2.175e-4
-0.832, 2.184e-4
-0.833, 2.195e-4
-0.834, 2.207e-4
-0.835, 2.216e-4
-0.836, 2.225e-4
-0.837, 2.234e-4
-0.838, 2.243e-4
-0.839, 2.252e-4
-0.840, 2.264e-4
-0.841, 2.272e-4
-0.842, 2.279e-4
-0.843, 2.290e-4
-0.844, 2.302e-4
-0.845, 2.310e-4
-0.846, 2.321e-4
-0.847, 2.330e-4
-0.848, 2.339e-4
-0.849, 2.350e-4
-0.850, 2.360e-4
-0.851, 2.370e-4
-0.852, 2.379e-4
-0.853, 2.390e-4
-0.854, 2.399e-4
-0.855, 2.410e-4
-0.856, 2.422e-4
-0.857, 2.431e-4
-0.858, 2.439e-4
-0.859, 2.449e-4
-0.860, 2.461e-4
-0.861, 2.472e-4
-0.862, 2.482e-4
-0.863, 2.492e-4
-0.864, 2.502e-4
-0.865, 2.512e-4
-0.866, 2.523e-4
-0.867, 2.535e-4
-0.868, 2.545e-4
-0.869, 2.555e-4
-0.870, 2.568e-4
-0.871, 2.576e-4
-0.872, 2.587e-4
-0.873, 2.598e-4
-0.874, 2.607e-4
-0.875, 2.617e-4
-0.876, 2.626e-4
-0.877, 2.637e-4
-0.878, 2.646e-4
-0.879, 2.657e-4
-0.880, 2.666e-4
-0.881, 2.677e-4
-0.882, 2.688e-4
-0.883, 2.699e-4
-0.884, 2.707e-4
-0.885, 2.718e-4
-0.886, 2.729e-4
-0.887, 2.737e-4
-0.888, 2.748e-4
-0.889, 2.756e-4
-0.890, 2.766e-4
-0.891, 2.777e-4
-0.892, 2.787e-4
-0.893, 2.798e-4
-0.894, 2.809e-4
-0.895, 2.818e-4
-0.896, 2.828e-4
-0.897, 2.838e-4
-0.898, 2.847e-4
-0.899, 2.859e-4
-0.900, 2.871e-4
-0.901, 2.882e-4
-0.902, 2.893e-4
-0.903, 2.902e-4
-0.904, 2.913e-4
-0.905, 2.923e-4
-0.906, 2.934e-4
-0.907, 2.945e-4
-0.908, 2.952e-4
-0.909, 2.962e-4
-0.910, 2.974e-4
-0.911, 2.986e-4
-0.912, 2.996e-4
-0.913, 3.002e-4
-0.914, 3.011e-4
-0.915, 3.022e-4
-0.916, 3.034e-4
-0.917, 3.044e-4
-0.918, 3.054e-4
-0.919, 3.063e-4
-0.920, 3.072e-4
-0.921, 3.081e-4
-0.922, 3.091e-4
-0.923, 3.103e-4
-0.924, 3.113e-4
-0.925, 3.122e-4
-0.926, 3.131e-4
-0.927, 3.141e-4
-0.928, 3.152e-4
-0.929, 3.163e-4
-0.930, 3.174e-4
-0.931, 3.183e-4
-0.932, 3.194e-4
-0.933, 3.205e-4
-0.934, 3.217e-4
-0.935, 3.225e-4
-0.936, 3.235e-4
-0.937, 3.246e-4
-0.938, 3.255e-4
-0.939, 3.268e-4
-0.940, 3.275e-4
-0.941, 3.284e-4
-0.942, 3.295e-4
-0.943, 3.306e-4
-0.944, 3.317e-4
-0.945, 3.327e-4
-0.946, 3.336e-4
-0.947, 3.347e-4
-0.948, 3.355e-4
-0.949, 3.368e-4
-0.950, 3.377e-4
-0.951, 3.388e-4
-0.952, 3.399e-4
-0.953, 3.409e-4
-0.954, 3.418e-4
-0.955, 3.424e-4
-0.956, 3.431e-4
-0.957, 3.439e-4
-0.958, 3.449e-4
-0.959, 3.458e-4
-0.960, 3.468e-4
-0.961, 3.477e-4
-0.962, 3.482e-4
-0.963, 3.494e-4
-0.964, 3.505e-4
-0.965, 3.514e-4
-0.966, 3.524e-4
-0.967, 3.532e-4
-0.968, 3.542e-4
-0.969, 3.549e-4
-0.970, 3.559e-4
-0.971, 3.570e-4
-0.972, 3.582e-4
-0.973, 3.590e-4
-0.974, 3.599e-4
-0.975, 3.605e-4
-0.976, 3.616e-4
-0.977, 3.627e-4
-0.978, 3.637e-4
-0.979, 3.648e-4
-0.980, 3.656e-4
-0.981, 3.662e-4
-0.982, 3.669e-4
-0.983, 3.679e-4
-0.984, 3.689e-4
-0.985, 3.695e-4
-0.986, 3.704e-4
-0.987, 3.712e-4
-0.988, 3.722e-4
-0.989, 3.732e-4
-0.990, 3.745e-4
-0.991, 3.756e-4
-0.992, 3.763e-4
-0.993, 3.772e-4
-0.994, 3.775e-4
-0.995, 3.785e-4
-0.996, 3.795e-4
-0.997, 3.803e-4
-0.998, 3.811e-4
-0.999, 3.820e-4
-1.000, 3.830e-4
-1.001, 3.839e-4
-1.002, 3.848e-4
-1.003, 3.857e-4
-1.004, 3.865e-4
-1.005, 3.874e-4
-1.006, 3.883e-4
-1.007, 3.892e-4
-1.008, 3.903e-4
-1.009, 3.909e-4
-1.010, 3.917e-4
-1.011, 3.926e-4
-1.012, 3.936e-4
-1.013, 3.944e-4
-1.014, 3.950e-4
-1.015, 3.959e-4
-1.016, 3.970e-4
-1.017, 3.978e-4
-1.018, 3.988e-4
-1.019, 3.997e-4
-1.020, 4.005e-4
-1.021, 4.011e-4
-1.022, 4.020e-4
-1.023, 4.028e-4
-1.024, 4.037e-4
-1.025, 4.050e-4
-1.026, 4.058e-4
-1.027, 4.064e-4
-1.028, 4.073e-4
-1.029, 4.083e-4
-1.030, 4.093e-4
-1.031, 4.102e-4
-1.032, 4.110e-4
-1.033, 4.118e-4
-1.034, 4.124e-4
-1.035, 4.133e-4
-1.036, 4.142e-4
-1.037, 4.151e-4
-1.038, 4.158e-4
-1.039, 4.168e-4
-1.040, 4.179e-4
-1.041, 4.187e-4
-1.042, 4.194e-4
-1.043, 4.204e-4
-1.044, 4.212e-4
-1.045, 4.223e-4
-1.046, 4.231e-4
-1.047, 4.239e-4
-1.048, 4.249e-4
-1.049, 4.260e-4
-1.050, 4.268e-4
-1.051, 4.276e-4
-1.052, 4.283e-4
-1.053, 4.291e-4
-1.054, 4.300e-4
-1.055, 4.309e-4
-1.056, 4.316e-4
-1.057, 4.326e-4
-1.058, 4.335e-4
-1.059, 4.344e-4
-1.060, 4.353e-4
-1.061, 4.363e-4
-1.062, 4.372e-4
-1.063, 4.379e-4
-1.064, 4.387e-4
-1.065, 4.395e-4
-1.066, 4.406e-4
-1.067, 4.416e-4
-1.068, 4.426e-4
-1.069, 4.433e-4
-1.070, 4.445e-4
-1.071, 4.455e-4
-1.072, 4.464e-4
-1.073, 4.472e-4
-1.074, 4.482e-4
-1.075, 4.493e-4
-1.076, 4.499e-4
-1.077, 4.505e-4
-1.078, 4.514e-4
-1.079, 4.522e-4
-1.080, 4.532e-4
-1.081, 4.541e-4
-1.082, 4.550e-4
-1.083, 4.561e-4
-1.084, 4.570e-4
-1.085, 4.579e-4
-1.086, 4.590e-4
-1.087, 4.599e-4
-1.088, 4.609e-4
-1.089, 4.619e-4
-1.090, 4.630e-4
-1.091, 4.641e-4
-1.092, 4.652e-4
-1.093, 4.661e-4
-1.094, 4.671e-4
-1.095, 4.684e-4
-1.096, 4.694e-4
-1.097, 4.705e-4
-1.098, 4.715e-4
-1.099, 4.726e-4
-1.100, 4.734e-4
-1.101, 4.744e-4
-1.102, 4.755e-4
-1.103, 4.765e-4
-1.104, 4.778e-4
-1.105, 4.788e-4
-1.106, 4.796e-4
-1.107, 4.806e-4
-1.108, 4.817e-4
-1.109, 4.832e-4
-1.110, 4.846e-4
-1.111, 4.856e-4
-1.112, 4.866e-4
-1.113, 4.878e-4
-1.114, 4.890e-4
-1.115, 4.902e-4
-1.116, 4.913e-4
-1.117, 4.923e-4
-1.118, 4.934e-4
-1.119, 4.947e-4
-1.120, 4.957e-4
-1.121, 4.968e-4
-1.122, 4.980e-4
-1.123, 4.990e-4
-1.124, 4.999e-4
-1.125, 5.010e-4
-1.126, 5.020e-4
-1.127, 5.033e-4
-1.128, 5.046e-4
-1.129, 5.056e-4
-1.130, 5.067e-4
-1.131, 5.079e-4
-1.132, 5.089e-4
-1.133, 5.098e-4
-1.134, 5.108e-4
-1.135, 5.118e-4
-1.136, 5.132e-4
-1.137, 5.146e-4
-1.138, 5.160e-4
-1.139, 5.172e-4
-1.140, 5.184e-4
-1.141, 5.196e-4
-1.142, 5.209e-4
-1.143, 5.222e-4
-1.144, 5.234e-4
-1.145, 5.243e-4
-1.146, 5.255e-4
-1.147, 5.267e-4
-1.148, 5.280e-4
-1.149, 5.295e-4
-1.150, 5.306e-4
-1.151, 5.319e-4
-1.152, 5.333e-4
-1.153, 5.346e-4
-1.154, 5.358e-4
-1.155, 5.369e-4
-1.156, 5.381e-4
-1.157, 5.397e-4
-1.158, 5.415e-4
-1.159, 5.432e-4
-1.160, 5.447e-4
-1.161, 5.459e-4
-1.162, 5.472e-4
-1.163, 5.488e-4
-1.164, 5.501e-4
-1.165, 5.513e-4
-1.166, 5.526e-4
-1.167, 5.541e-4
-1.168, 5.556e-4
-1.169, 5.573e-4
-1.170, 5.587e-4
-1.171, 5.603e-4
-1.172, 5.617e-4
-1.173, 5.634e-4
-1.174, 5.647e-4
-1.175, 5.662e-4
-1.176, 5.679e-4
-1.177, 5.695e-4
-1.178, 5.711e-4
-1.179, 5.728e-4
-1.180, 5.746e-4
-1.181, 5.759e-4
-1.182, 5.777e-4
-1.183, 5.795e-4
-1.184, 5.813e-4
-1.185, 5.829e-4
-1.186, 5.845e-4
-1.187, 5.861e-4
-1.188, 5.877e-4
-1.189, 5.895e-4
-1.190, 5.915e-4
-1.191, 5.934e-4
-1.192, 5.951e-4
-1.193, 5.968e-4
-1.194, 5.986e-4
-1.195, 6.007e-4
-1.196, 6.027e-4
-1.197, 6.047e-4
-1.198, 6.068e-4
-1.199, 6.089e-4
-1.200, 6.108e-4
-1.201, 6.130e-4
-1.202, 6.150e-4
-1.203, 6.169e-4
-1.204, 6.189e-4
-1.205, 6.209e-4
-1.206, 6.230e-4
-1.207, 6.249e-4
-1.208, 6.270e-4
-1.209, 6.290e-4
-1.210, 6.312e-4
-1.211, 6.331e-4
-1.212, 6.352e-4
-1.213, 6.373e-4
-1.214, 6.392e-4
-1.215, 6.412e-4
-1.216, 6.432e-4
-1.217, 6.450e-4
-1.218, 6.471e-4
-1.219, 6.495e-4
-1.220, 6.519e-4
-1.221, 6.541e-4
-1.222, 6.563e-4
-1.223, 6.583e-4
-1.224, 6.604e-4
-1.225, 6.625e-4
-1.226, 6.648e-4
-1.227, 6.667e-4
-1.228, 6.685e-4
-1.229, 6.709e-4
-1.230, 6.735e-4
-1.231, 6.759e-4
-1.232, 6.779e-4
-1.233, 6.798e-4
-1.234, 6.818e-4
-1.235, 6.838e-4
-1.236, 6.861e-4
-1.237, 6.882e-4
-1.238, 6.903e-4
-1.239, 6.923e-4
-1.240, 6.946e-4
-1.241, 6.968e-4
-1.242, 6.987e-4
-1.243, 7.008e-4
-1.244, 7.028e-4
-1.245, 7.049e-4
-1.246, 7.074e-4
-1.247, 7.092e-4
-1.248, 7.115e-4
-1.249, 7.142e-4
-1.250, 7.160e-4
-1.251, 7.179e-4
-1.252, 7.198e-4
-1.253, 7.223e-4
-1.254, 7.246e-4
-1.255, 7.265e-4
-1.256, 7.287e-4
-1.257, 7.309e-4
-1.258, 7.328e-4
-1.259, 7.348e-4
-1.260, 7.365e-4
-1.261, 7.386e-4
-1.262, 7.408e-4
-1.263, 7.428e-4
-1.264, 7.449e-4
-1.265, 7.469e-4
-1.266, 7.491e-4
-1.267, 7.512e-4
-1.268, 7.537e-4
-1.269, 7.565e-4
-1.270, 7.595e-4
-1.271, 7.617e-4
-1.272, 7.642e-4
-1.273, 7.667e-4
-1.274, 7.690e-4
-1.275, 7.714e-4
-1.276, 7.740e-4
-1.277, 7.767e-4
-1.278, 7.793e-4
-1.279, 7.820e-4
-1.280, 7.849e-4
-1.281, 7.881e-4
-1.282, 7.910e-4
-1.283, 7.947e-4
-1.284, 7.974e-4
-1.285, 8.001e-4
-1.286, 8.033e-4
-1.287, 8.063e-4
-1.288, 8.097e-4
-1.289, 8.132e-4
-1.290, 8.168e-4
-1.291, 8.202e-4
-1.292, 8.236e-4
-1.293, 8.275e-4
-1.294, 8.319e-4
-1.295, 8.362e-4
-1.296, 8.404e-4
-1.297, 8.442e-4
-1.298, 8.485e-4
-1.299, 8.529e-4
-1.300, 8.576e-4
-1.301, 8.623e-4
-1.302, 8.669e-4
-1.303, 8.714e-4
-1.304, 8.761e-4
-1.305, 8.811e-4
-1.306, 8.863e-4
-1.307, 8.913e-4
-1.308, 8.960e-4
-1.309, 9.016e-4
-1.310, 9.076e-4
-1.311, 9.131e-4
-1.312, 9.187e-4
-1.313, 9.247e-4
-1.314, 9.306e-4
-1.315, 9.365e-4
-1.316, 9.425e-4
-1.317, 9.494e-4
-1.318, 9.559e-4
-1.319, 9.621e-4
-1.320, 9.675e-4
-1.321, 9.739e-4
-1.322, 9.808e-4
-1.323, 9.877e-4
-1.324, 9.946e-4
-1.325, 1.001e-3
-1.326, 1.008e-3
-1.327, 1.011e-3
-1.328, 1.011e-3
-1.329, 1.011e-3
-1.330, 1.011e-3
-1.331, 1.011e-3
-1.332, 1.011e-3
-1.333, 1.011e-3
-1.334, 1.011e-3
-1.335, 1.011e-3
-1.336, 1.011e-3
-1.337, 1.011e-3
-1.338, 1.011e-3
-1.339, 1.011e-3
-1.340, 1.011e-3
-1.341, 1.011e-3
-1.342, 1.011e-3
-1.343, 1.011e-3
-1.344, 1.011e-3
-1.345, 1.011e-3
-1.346, 1.011e-3
-1.347, 1.011e-3
-1.348, 1.011e-3
-1.349, 1.011e-3
-1.350, 1.011e-3
-1.351, 1.011e-3
-1.352, 1.011e-3
-1.353, 1.011e-3
-1.354, 1.011e-3
-1.355, 1.011e-3
-1.356, 1.011e-3
-1.357, 1.011e-3
-1.358, 1.011e-3
-1.359, 1.011e-3
-1.360, 1.011e-3
-1.361, 1.011e-3
-1.362, 1.011e-3
-1.363, 1.011e-3
-1.364, 1.011e-3
-1.365, 1.011e-3
-1.366, 1.011e-3
-1.367, 1.011e-3
-1.368, 1.011e-3
-1.369, 1.011e-3
-1.370, 1.011e-3
-1.371, 1.011e-3
-1.372, 1.011e-3
-1.373, 1.011e-3
-1.374, 1.011e-3
-1.375, 1.011e-3
-1.376, 1.011e-3
-1.377, 1.011e-3
-1.378, 1.011e-3
-1.379, 1.011e-3
-1.380, 1.011e-3
-1.381, 1.011e-3
-1.382, 1.011e-3
-1.383, 1.011e-3
-1.384, 1.011e-3
-1.385, 1.011e-3
-1.386, 1.011e-3
-1.387, 1.011e-3
-1.388, 1.011e-3
-1.389, 1.011e-3
-1.390, 1.011e-3
-1.391, 1.011e-3
-1.392, 1.011e-3
-1.393, 1.011e-3
-1.394, 1.011e-3
-1.395, 1.011e-3
-1.396, 1.011e-3
-1.397, 1.011e-3
-1.398, 1.011e-3
-1.399, 1.011e-3
-1.400, 1.011e-3
-1.401, 1.011e-3
-1.402, 1.011e-3
-1.403, 1.011e-3
-1.404, 1.011e-3
-1.405, 1.011e-3
-1.406, 1.011e-3
-1.407, 1.011e-3
-1.408, 1.011e-3
-1.409, 1.011e-3
-1.410, 1.011e-3
-1.411, 1.011e-3
-1.412, 1.011e-3
-1.413, 1.011e-3
-1.414, 1.011e-3
-1.415, 1.011e-3
-1.416, 1.011e-3
-1.417, 1.011e-3
-1.418, 1.011e-3
-1.419, 1.011e-3
-1.420, 1.011e-3
-1.421, 1.011e-3
-1.422, 1.011e-3
-1.423, 1.011e-3
-1.424, 1.011e-3
-1.425, 1.011e-3
-1.426, 1.011e-3
-1.427, 1.011e-3
-1.428, 1.011e-3
-1.429, 1.011e-3
-1.430, 1.011e-3
-1.431, 1.011e-3
-1.432, 1.011e-3
-1.433, 1.011e-3
-1.434, 1.011e-3
-1.435, 1.011e-3
-1.436, 1.011e-3
-1.437, 1.011e-3
-1.438, 1.011e-3
-1.439, 1.011e-3
-1.440, 1.011e-3
-1.441, 1.011e-3
-1.442, 1.011e-3
-1.443, 1.011e-3
-1.444, 1.011e-3
-1.445, 1.011e-3
-1.446, 1.011e-3
-1.447, 1.011e-3
-1.448, 1.011e-3
-1.449, 1.011e-3
-1.450, 1.011e-3
-1.451, 1.011e-3
-1.452, 1.011e-3
-1.453, 1.011e-3
-1.454, 1.011e-3
-1.455, 1.011e-3
-1.456, 1.011e-3
-1.457, 1.011e-3
-1.458, 1.011e-3
-1.459, 1.011e-3
-1.460, 1.011e-3
-1.461, 1.011e-3
-1.462, 1.011e-3
-1.463, 1.011e-3
-1.464, 1.011e-3
-1.465, 1.011e-3
-1.466, 1.011e-3
-1.467, 1.011e-3
-1.468, 1.011e-3
-1.469, 1.011e-3
-1.470, 1.011e-3
-1.471, 1.011e-3
-1.472, 1.011e-3
-1.473, 1.011e-3
-1.474, 1.011e-3
-1.475, 1.011e-3
-1.476, 1.011e-3
-1.477, 1.011e-3
-1.478, 1.011e-3
-1.479, 1.011e-3
-1.480, 1.011e-3
-1.481, 1.011e-3
-1.482, 1.011e-3
-1.483, 1.011e-3
-1.484, 1.011e-3
-1.485, 1.011e-3
-1.486, 1.011e-3
-1.487, 1.011e-3
-1.488, 1.011e-3
-1.489, 1.011e-3
-1.490, 1.011e-3
-1.491, 1.011e-3
-1.492, 1.011e-3
-1.493, 1.011e-3
-1.494, 1.011e-3
-1.495, 1.011e-3
-1.496, 1.011e-3
-1.497, 1.011e-3
-1.498, 1.011e-3
-1.499, 1.011e-3
-1.500, 1.011e-3
-1.501, 1.011e-3
-1.502, 1.011e-3
-1.503, 1.011e-3
-1.504, 1.011e-3
-1.505, 1.011e-3
-1.506, 1.011e-3
-1.507, 1.011e-3
-1.508, 1.011e-3
-1.509, 1.011e-3
-1.510, 1.011e-3
-1.511, 1.011e-3
-1.512, 1.011e-3
-1.513, 1.011e-3
-1.514, 1.011e-3
-1.515, 1.011e-3
-1.516, 1.011e-3
-1.517, 1.011e-3
-1.518, 1.011e-3
-1.519, 1.011e-3
-1.520, 1.011e-3
-1.521, 1.011e-3
-1.522, 1.011e-3
-1.523, 1.011e-3
-1.524, 1.011e-3
-1.525, 1.011e-3
-1.526, 1.011e-3
-1.527, 1.011e-3
-1.528, 1.011e-3
-1.529, 1.011e-3
-1.530, 1.011e-3
-1.531, 1.011e-3
-1.532, 1.011e-3
-1.533, 1.011e-3
-1.534, 1.011e-3
-1.535, 1.011e-3
-1.536, 1.011e-3
-1.537, 1.011e-3
-1.538, 1.011e-3
-1.539, 1.011e-3
-1.540, 1.011e-3
-1.541, 1.011e-3
-1.542, 1.011e-3
-1.543, 1.011e-3
-1.544, 1.011e-3
-1.545, 1.011e-3
-1.546, 1.011e-3
-1.547, 1.011e-3
-1.548, 1.011e-3
-1.549, 1.011e-3
-1.550, 1.011e-3
-1.551, 1.011e-3
-1.552, 1.011e-3
-1.553, 1.011e-3
-1.554, 1.011e-3
-1.555, 1.011e-3
-1.556, 1.011e-3
-1.557, 1.011e-3
-1.558, 1.011e-3
-1.559, 1.011e-3
-1.560, 1.011e-3
-1.561, 1.011e-3
-1.562, 1.011e-3
-1.563, 1.011e-3
-1.564, 1.011e-3
-1.565, 1.011e-3
-1.566, 1.011e-3
-1.567, 1.011e-3
-1.568, 1.011e-3
-1.569, 1.011e-3
-1.570, 1.011e-3
-1.571, 1.011e-3
-1.572, 1.011e-3
-1.573, 1.011e-3
-1.574, 1.011e-3
-1.575, 1.011e-3
-1.576, 1.011e-3
-1.577, 1.011e-3
-1.578, 1.011e-3
-1.579, 1.011e-3
-1.580, 1.011e-3
-1.581, 1.011e-3
-1.582, 1.011e-3
-1.583, 1.011e-3
-1.584, 1.011e-3
-1.585, 1.011e-3
-1.586, 1.011e-3
-1.587, 1.011e-3
-1.588, 1.011e-3
-1.589, 1.011e-3
-1.590, 1.011e-3
-1.591, 1.011e-3
-1.592, 1.011e-3
-1.593, 1.011e-3
-1.594, 1.011e-3
-1.595, 1.011e-3
-1.596, 1.011e-3
-1.597, 1.011e-3
-1.598, 1.011e-3
-1.599, 1.011e-3
-1.600, 1.011e-3
-1.601, 1.011e-3
-1.602, 1.011e-3
-1.603, 1.011e-3
-1.604, 1.011e-3
-1.605, 1.011e-3
-1.606, 1.011e-3
-1.607, 1.011e-3
-1.608, 1.011e-3
-1.609, 1.011e-3
-1.610, 1.011e-3
-1.611, 1.011e-3
-1.612, 1.011e-3
-1.613, 1.011e-3
-1.614, 1.011e-3
-1.615, 1.011e-3
-1.616, 1.011e-3
-1.617, 1.011e-3
-1.618, 1.011e-3
-1.619, 1.011e-3
-1.620, 1.011e-3
-1.621, 1.011e-3
-1.622, 1.011e-3
-1.623, 1.011e-3
-1.624, 1.011e-3
-1.625, 1.011e-3
-1.626, 1.011e-3
-1.627, 1.011e-3
-1.628, 1.011e-3
-1.629, 1.011e-3
-1.630, 1.011e-3
-1.631, 1.011e-3
-1.632, 1.011e-3
-1.633, 1.011e-3
-1.634, 1.011e-3
-1.635, 1.011e-3
-1.636, 1.011e-3
-1.637, 1.011e-3
-1.638, 1.011e-3
-1.639, 1.011e-3
-1.640, 1.011e-3
-1.641, 1.011e-3
-1.642, 1.011e-3
-1.643, 1.011e-3
-1.644, 1.011e-3
-1.645, 1.011e-3
-1.646, 1.011e-3
-1.647, 1.011e-3
-1.648, 1.011e-3
-1.649, 1.011e-3
-1.650, 1.011e-3
-1.651, 1.011e-3
-1.652, 1.011e-3
-1.653, 1.011e-3
-1.654, 1.011e-3
-1.655, 1.011e-3
-1.656, 1.011e-3
-1.657, 1.011e-3
-1.658, 1.011e-3
-1.659, 1.011e-3
-1.660, 1.011e-3
-1.661, 1.011e-3
-1.662, 1.011e-3
-1.663, 1.011e-3
-1.664, 1.011e-3
-1.665, 1.011e-3
-1.666, 1.011e-3
-1.667, 1.011e-3
-1.668, 1.011e-3
-1.669, 1.011e-3
-1.670, 1.011e-3
-1.671, 1.011e-3
-1.672, 1.011e-3
-1.673, 1.011e-3
-1.674, 1.011e-3
-1.675, 1.011e-3
-1.676, 1.011e-3
-1.677, 1.011e-3
-1.678, 1.011e-3
-1.679, 1.011e-3
-1.680, 1.011e-3
-1.681, 1.011e-3
-1.682, 1.011e-3
-1.683, 1.011e-3
-1.684, 1.011e-3
-1.685, 1.011e-3
-1.686, 1.011e-3
-1.687, 1.011e-3
-1.688, 1.011e-3
-1.689, 1.011e-3
-1.690, 1.011e-3
-1.691, 1.011e-3
-1.692, 1.011e-3
-1.693, 1.011e-3
-1.694, 1.011e-3
-1.695, 1.011e-3
-1.696, 1.011e-3
-1.697, 1.011e-3
-1.698, 1.011e-3
-1.699, 1.011e-3
