Aug. 23, 2024   22:47:06
Cyclic Voltammetry
File: c:/users/guazh/data/20240813_batch_94_500/2024-08-15-exp173\exp173-2024-08-23t22_30_32-arkoh\exp173_cv_sr_900mvs_efin_-1600mv.bin
Data Source:  Experiment
Instrument Model:  CHI760E
Header: CV ran at 900 mVs
Note: 

Init E (V) = -1
High E (V) = -1
Low E (V) = -1.6
Final E (V) = -1
Init P/N = N
Scan Rate (V/s) = 0.9
Segment = 3
Sample Interval (V) = 0.001
Quiet Time (sec) = 2
Sensitivity (A/V) = 0.01
Comp R (ohm) = 2.2

Results:

Channel 1:
Segment 1:

Segment 2:

Segment 3:

Potential/V, Current/A

-1.000, 2.790e-5
-1.001, 7.415e-5
-1.002, 1.019e-4
-1.003, 1.173e-4
-1.004, 1.296e-4
-1.005, 1.389e-4
-1.006, 1.481e-4
-1.007, 1.543e-4
-1.008, 1.605e-4
-1.009, 1.666e-4
-1.010, 1.728e-4
-1.011, 1.790e-4
-1.012, 1.821e-4
-1.013, 1.851e-4
-1.014, 1.882e-4
-1.015, 1.913e-4
-1.016, 1.975e-4
-1.017, 2.006e-4
-1.018, 2.006e-4
-1.019, 2.036e-4
-1.020, 2.036e-4
-1.021, 2.098e-4
-1.022, 2.098e-4
-1.023, 2.129e-4
-1.024, 2.160e-4
-1.025, 2.191e-4
-1.026, 2.191e-4
-1.027, 2.221e-4
-1.028, 2.252e-4
-1.029, 2.252e-4
-1.030, 2.283e-4
-1.031, 2.283e-4
-1.032, 2.314e-4
-1.033, 2.314e-4
-1.034, 2.314e-4
-1.035, 2.345e-4
-1.036, 2.376e-4
-1.037, 2.376e-4
-1.038, 2.406e-4
-1.039, 2.406e-4
-1.040, 2.406e-4
-1.041, 2.437e-4
-1.042, 2.468e-4
-1.043, 2.437e-4
-1.044, 2.468e-4
-1.045, 2.468e-4
-1.046, 2.468e-4
-1.047, 2.468e-4
-1.048, 2.468e-4
-1.049, 2.499e-4
-1.050, 2.499e-4
-1.051, 2.499e-4
-1.052, 2.499e-4
-1.053, 2.530e-4
-1.054, 2.530e-4
-1.055, 2.561e-4
-1.056, 2.530e-4
-1.057, 2.530e-4
-1.058, 2.561e-4
-1.059, 2.561e-4
-1.060, 2.561e-4
-1.061, 2.561e-4
-1.062, 2.561e-4
-1.063, 2.561e-4
-1.064, 2.561e-4
-1.065, 2.561e-4
-1.066, 2.561e-4
-1.067, 2.561e-4
-1.068, 2.561e-4
-1.069, 2.591e-4
-1.070, 2.591e-4
-1.071, 2.591e-4
-1.072, 2.591e-4
-1.073, 2.591e-4
-1.074, 2.591e-4
-1.075, 2.591e-4
-1.076, 2.591e-4
-1.077, 2.622e-4
-1.078, 2.591e-4
-1.079, 2.591e-4
-1.080, 2.591e-4
-1.081, 2.622e-4
-1.082, 2.622e-4
-1.083, 2.622e-4
-1.084, 2.622e-4
-1.085, 2.653e-4
-1.086, 2.653e-4
-1.087, 2.622e-4
-1.088, 2.622e-4
-1.089, 2.653e-4
-1.090, 2.653e-4
-1.091, 2.653e-4
-1.092, 2.653e-4
-1.093, 2.653e-4
-1.094, 2.622e-4
-1.095, 2.653e-4
-1.096, 2.653e-4
-1.097, 2.653e-4
-1.098, 2.653e-4
-1.099, 2.653e-4
-1.100, 2.684e-4
-1.101, 2.684e-4
-1.102, 2.684e-4
-1.103, 2.684e-4
-1.104, 2.684e-4
-1.105, 2.684e-4
-1.106, 2.684e-4
-1.107, 2.684e-4
-1.108, 2.684e-4
-1.109, 2.684e-4
-1.110, 2.684e-4
-1.111, 2.715e-4
-1.112, 2.684e-4
-1.113, 2.715e-4
-1.114, 2.715e-4
-1.115, 2.715e-4
-1.116, 2.715e-4
-1.117, 2.715e-4
-1.118, 2.715e-4
-1.119, 2.715e-4
-1.120, 2.715e-4
-1.121, 2.746e-4
-1.122, 2.746e-4
-1.123, 2.715e-4
-1.124, 2.715e-4
-1.125, 2.715e-4
-1.126, 2.715e-4
-1.127, 2.746e-4
-1.128, 2.746e-4
-1.129, 2.746e-4
-1.130, 2.776e-4
-1.131, 2.746e-4
-1.132, 2.776e-4
-1.133, 2.776e-4
-1.134, 2.776e-4
-1.135, 2.776e-4
-1.136, 2.776e-4
-1.137, 2.776e-4
-1.138, 2.776e-4
-1.139, 2.746e-4
-1.140, 2.776e-4
-1.141, 2.776e-4
-1.142, 2.776e-4
-1.143, 2.807e-4
-1.144, 2.776e-4
-1.145, 2.807e-4
-1.146, 2.807e-4
-1.147, 2.807e-4
-1.148, 2.807e-4
-1.149, 2.807e-4
-1.150, 2.807e-4
-1.151, 2.807e-4
-1.152, 2.838e-4
-1.153, 2.807e-4
-1.154, 2.807e-4
-1.155, 2.838e-4
-1.156, 2.807e-4
-1.157, 2.838e-4
-1.158, 2.838e-4
-1.159, 2.838e-4
-1.160, 2.869e-4
-1.161, 2.869e-4
-1.162, 2.838e-4
-1.163, 2.838e-4
-1.164, 2.869e-4
-1.165, 2.869e-4
-1.166, 2.869e-4
-1.167, 2.869e-4
-1.168, 2.869e-4
-1.169, 2.869e-4
-1.170, 2.869e-4
-1.171, 2.869e-4
-1.172, 2.869e-4
-1.173, 2.900e-4
-1.174, 2.900e-4
-1.175, 2.900e-4
-1.176, 2.900e-4
-1.177, 2.900e-4
-1.178, 2.931e-4
-1.179, 2.931e-4
-1.180, 2.931e-4
-1.181, 2.900e-4
-1.182, 2.931e-4
-1.183, 2.931e-4
-1.184, 2.900e-4
-1.185, 2.931e-4
-1.186, 2.931e-4
-1.187, 2.931e-4
-1.188, 2.931e-4
-1.189, 2.931e-4
-1.190, 2.961e-4
-1.191, 2.961e-4
-1.192, 2.961e-4
-1.193, 2.992e-4
-1.194, 2.992e-4
-1.195, 2.961e-4
-1.196, 2.992e-4
-1.197, 2.992e-4
-1.198, 2.961e-4
-1.199, 2.992e-4
-1.200, 2.992e-4
-1.201, 2.992e-4
-1.202, 2.992e-4
-1.203, 2.992e-4
-1.204, 3.023e-4
-1.205, 3.023e-4
-1.206, 3.023e-4
-1.207, 3.023e-4
-1.208, 3.023e-4
-1.209, 3.023e-4
-1.210, 3.054e-4
-1.211, 3.023e-4
-1.212, 3.023e-4
-1.213, 3.023e-4
-1.214, 3.023e-4
-1.215, 3.054e-4
-1.216, 3.054e-4
-1.217, 3.054e-4
-1.218, 3.054e-4
-1.219, 3.054e-4
-1.220, 3.054e-4
-1.221, 3.085e-4
-1.222, 3.085e-4
-1.223, 3.085e-4
-1.224, 3.115e-4
-1.225, 3.085e-4
-1.226, 3.085e-4
-1.227, 3.115e-4
-1.228, 3.085e-4
-1.229, 3.115e-4
-1.230, 3.115e-4
-1.231, 3.115e-4
-1.232, 3.115e-4
-1.233, 3.146e-4
-1.234, 3.115e-4
-1.235, 3.146e-4
-1.236, 3.146e-4
-1.237, 3.146e-4
-1.238, 3.146e-4
-1.239, 3.177e-4
-1.240, 3.177e-4
-1.241, 3.177e-4
-1.242, 3.146e-4
-1.243, 3.177e-4
-1.244, 3.146e-4
-1.245, 3.177e-4
-1.246, 3.177e-4
-1.247, 3.177e-4
-1.248, 3.177e-4
-1.249, 3.208e-4
-1.250, 3.208e-4
-1.251, 3.208e-4
-1.252, 3.239e-4
-1.253, 3.208e-4
-1.254, 3.239e-4
-1.255, 3.239e-4
-1.256, 3.239e-4
-1.257, 3.270e-4
-1.258, 3.239e-4
-1.259, 3.239e-4
-1.260, 3.270e-4
-1.261, 3.270e-4
-1.262, 3.270e-4
-1.263, 3.300e-4
-1.264, 3.270e-4
-1.265, 3.300e-4
-1.266, 3.300e-4
-1.267, 3.300e-4
-1.268, 3.300e-4
-1.269, 3.331e-4
-1.270, 3.331e-4
-1.271, 3.331e-4
-1.272, 3.362e-4
-1.273, 3.362e-4
-1.274, 3.331e-4
-1.275, 3.362e-4
-1.276, 3.362e-4
-1.277, 3.362e-4
-1.278, 3.393e-4
-1.279, 3.393e-4
-1.280, 3.393e-4
-1.281, 3.424e-4
-1.282, 3.424e-4
-1.283, 3.424e-4
-1.284, 3.424e-4
-1.285, 3.455e-4
-1.286, 3.455e-4
-1.287, 3.455e-4
-1.288, 3.455e-4
-1.289, 3.455e-4
-1.290, 3.485e-4
-1.291, 3.516e-4
-1.292, 3.485e-4
-1.293, 3.485e-4
-1.294, 3.516e-4
-1.295, 3.516e-4
-1.296, 3.547e-4
-1.297, 3.547e-4
-1.298, 3.547e-4
-1.299, 3.578e-4
-1.300, 3.578e-4
-1.301, 3.578e-4
-1.302, 3.609e-4
-1.303, 3.609e-4
-1.304, 3.609e-4
-1.305, 3.640e-4
-1.306, 3.640e-4
-1.307, 3.640e-4
-1.308, 3.670e-4
-1.309, 3.670e-4
-1.310, 3.701e-4
-1.311, 3.701e-4
-1.312, 3.732e-4
-1.313, 3.732e-4
-1.314, 3.763e-4
-1.315, 3.732e-4
-1.316, 3.794e-4
-1.317, 3.794e-4
-1.318, 3.794e-4
-1.319, 3.794e-4
-1.320, 3.825e-4
-1.321, 3.825e-4
-1.322, 3.825e-4
-1.323, 3.855e-4
-1.324, 3.886e-4
-1.325, 3.886e-4
-1.326, 3.917e-4
-1.327, 3.948e-4
-1.328, 3.948e-4
-1.329, 3.979e-4
-1.330, 4.010e-4
-1.331, 4.010e-4
-1.332, 4.040e-4
-1.333, 4.040e-4
-1.334, 4.040e-4
-1.335, 4.071e-4
-1.336, 4.102e-4
-1.337, 4.102e-4
-1.338, 4.133e-4
-1.339, 4.164e-4
-1.340, 4.164e-4
-1.341, 4.195e-4
-1.342, 4.225e-4
-1.343, 4.225e-4
-1.344, 4.256e-4
-1.345, 4.287e-4
-1.346, 4.318e-4
-1.347, 4.349e-4
-1.348, 4.349e-4
-1.349, 4.349e-4
-1.350, 4.380e-4
-1.351, 4.410e-4
-1.352, 4.441e-4
-1.353, 4.472e-4
-1.354, 4.503e-4
-1.355, 4.534e-4
-1.356, 4.565e-4
-1.357, 4.595e-4
-1.358, 4.595e-4
-1.359, 4.626e-4
-1.360, 4.657e-4
-1.361, 4.688e-4
-1.362, 4.719e-4
-1.363, 4.750e-4
-1.364, 4.780e-4
-1.365, 4.811e-4
-1.366, 4.842e-4
-1.367, 4.842e-4
-1.368, 4.904e-4
-1.369, 4.935e-4
-1.370, 4.965e-4
-1.371, 5.027e-4
-1.372, 5.058e-4
-1.373, 5.089e-4
-1.374, 5.120e-4
-1.375, 5.150e-4
-1.376, 5.181e-4
-1.377, 5.243e-4
-1.378, 5.243e-4
-1.379, 5.274e-4
-1.380, 5.335e-4
-1.381, 5.366e-4
-1.382, 5.428e-4
-1.383, 5.489e-4
-1.384, 5.520e-4
-1.385, 5.551e-4
-1.386, 5.613e-4
-1.387, 5.644e-4
-1.388, 5.705e-4
-1.389, 5.736e-4
-1.390, 5.767e-4
-1.391, 5.829e-4
-1.392, 5.859e-4
-1.393, 5.921e-4
-1.394, 5.952e-4
-1.395, 6.014e-4
-1.396, 6.075e-4
-1.397, 6.106e-4
-1.398, 6.168e-4
-1.399, 6.229e-4
-1.400, 6.291e-4
-1.401, 6.353e-4
-1.402, 6.414e-4
-1.403, 6.445e-4
-1.404, 6.538e-4
-1.405, 6.569e-4
-1.406, 6.630e-4
-1.407, 6.723e-4
-1.408, 6.754e-4
-1.409, 6.815e-4
-1.410, 6.877e-4
-1.411, 6.939e-4
-1.412, 7.000e-4
-1.413, 7.062e-4
-1.414, 7.154e-4
-1.415, 7.216e-4
-1.416, 7.309e-4
-1.417, 7.339e-4
-1.418, 7.432e-4
-1.419, 7.524e-4
-1.420, 7.586e-4
-1.421, 7.648e-4
-1.422, 7.740e-4
-1.423, 7.802e-4
-1.424, 7.863e-4
-1.425, 7.956e-4
-1.426, 8.048e-4
-1.427, 8.110e-4
-1.428, 8.233e-4
-1.429, 8.295e-4
-1.430, 8.388e-4
-1.431, 8.480e-4
-1.432, 8.573e-4
-1.433, 8.665e-4
-1.434, 8.758e-4
-1.435, 8.850e-4
-1.436, 8.943e-4
-1.437, 9.035e-4
-1.438, 9.128e-4
-1.439, 9.220e-4
-1.440, 9.313e-4
-1.441, 9.436e-4
-1.442, 9.528e-4
-1.443, 9.652e-4
-1.444, 9.775e-4
-1.445, 9.868e-4
-1.446, 9.960e-4
-1.447, 1.008e-3
-1.448, 1.021e-3
-1.449, 1.033e-3
-1.450, 1.042e-3
-1.451, 1.051e-3
-1.452, 1.067e-3
-1.453, 1.076e-3
-1.454, 1.088e-3
-1.455, 1.101e-3
-1.456, 1.113e-3
-1.457, 1.125e-3
-1.458, 1.141e-3
-1.459, 1.153e-3
-1.460, 1.169e-3
-1.461, 1.181e-3
-1.462, 1.193e-3
-1.463, 1.209e-3
-1.464, 1.221e-3
-1.465, 1.233e-3
-1.466, 1.249e-3
-1.467, 1.264e-3
-1.468, 1.277e-3
-1.469, 1.292e-3
-1.470, 1.307e-3
-1.471, 1.323e-3
-1.472, 1.338e-3
-1.473, 1.357e-3
-1.474, 1.372e-3
-1.475, 1.388e-3
-1.476, 1.406e-3
-1.477, 1.421e-3
-1.478, 1.437e-3
-1.479, 1.455e-3
-1.480, 1.471e-3
-1.481, 1.489e-3
-1.482, 1.508e-3
-1.483, 1.526e-3
-1.484, 1.542e-3
-1.485, 1.563e-3
-1.486, 1.582e-3
-1.487, 1.600e-3
-1.488, 1.622e-3
-1.489, 1.640e-3
-1.490, 1.659e-3
-1.491, 1.680e-3
-1.492, 1.699e-3
-1.493, 1.721e-3
-1.494, 1.742e-3
-1.495, 1.761e-3
-1.496, 1.782e-3
-1.497, 1.804e-3
-1.498, 1.822e-3
-1.499, 1.847e-3
-1.500, 1.869e-3
-1.501, 1.887e-3
-1.502, 1.912e-3
-1.503, 1.936e-3
-1.504, 1.958e-3
-1.505, 1.983e-3
-1.506, 2.007e-3
-1.507, 2.029e-3
-1.508, 2.054e-3
-1.509, 2.078e-3
-1.510, 2.103e-3
-1.511, 2.128e-3
-1.512, 2.152e-3
-1.513, 2.180e-3
-1.514, 2.201e-3
-1.515, 2.229e-3
-1.516, 2.254e-3
-1.517, 2.279e-3
-1.518, 2.309e-3
-1.519, 2.334e-3
-1.520, 2.362e-3
-1.521, 2.393e-3
-1.522, 2.420e-3
-1.523, 2.445e-3
-1.524, 2.476e-3
-1.525, 2.504e-3
-1.526, 2.531e-3
-1.527, 2.562e-3
-1.528, 2.590e-3
-1.529, 2.618e-3
-1.530, 2.649e-3
-1.531, 2.679e-3
-1.532, 2.710e-3
-1.533, 2.741e-3
-1.534, 2.772e-3
-1.535, 2.803e-3
-1.536, 2.837e-3
-1.537, 2.867e-3
-1.538, 2.898e-3
-1.539, 2.932e-3
-1.540, 2.963e-3
-1.541, 3.000e-3
-1.542, 3.031e-3
-1.543, 3.065e-3
-1.544, 3.096e-3
-1.545, 3.133e-3
-1.546, 3.167e-3
-1.547, 3.200e-3
-1.548, 3.237e-3
-1.549, 3.271e-3
-1.550, 3.308e-3
-1.551, 3.345e-3
-1.552, 3.379e-3
-1.553, 3.419e-3
-1.554, 3.456e-3
-1.555, 3.493e-3
-1.556, 3.530e-3
-1.557, 3.567e-3
-1.558, 3.607e-3
-1.559, 3.644e-3
-1.560, 3.684e-3
-1.561, 3.725e-3
-1.562, 3.765e-3
-1.563, 3.808e-3
-1.564, 3.848e-3
-1.565, 3.888e-3
-1.566, 3.931e-3
-1.567, 3.971e-3
-1.568, 4.014e-3
-1.569, 4.061e-3
-1.570, 4.101e-3
-1.571, 4.147e-3
-1.572, 4.190e-3
-1.573, 4.233e-3
-1.574, 4.280e-3
-1.575, 4.323e-3
-1.576, 4.366e-3
-1.577, 4.412e-3
-1.578, 4.458e-3
-1.579, 4.505e-3
-1.580, 4.554e-3
-1.581, 4.600e-3
-1.582, 4.649e-3
-1.583, 4.696e-3
-1.584, 4.745e-3
-1.585, 4.794e-3
-1.586, 4.844e-3
-1.587, 4.893e-3
-1.588, 4.942e-3
-1.589, 4.992e-3
-1.590, 5.041e-3
-1.591, 5.090e-3
-1.592, 5.140e-3
-1.593, 5.192e-3
-1.594, 5.245e-3
-1.595, 5.297e-3
-1.596, 5.349e-3
-1.597, 5.399e-3
-1.598, 5.451e-3
-1.599, 5.507e-3
-1.600, 5.494e-3
-1.599, 5.402e-3
-1.598, 5.337e-3
-1.597, 5.275e-3
-1.596, 5.223e-3
-1.595, 5.171e-3
-1.594, 5.121e-3
-1.593, 5.069e-3
-1.592, 5.019e-3
-1.591, 4.970e-3
-1.590, 4.924e-3
-1.589, 4.875e-3
-1.588, 4.825e-3
-1.587, 4.776e-3
-1.586, 4.727e-3
-1.585, 4.680e-3
-1.584, 4.634e-3
-1.583, 4.585e-3
-1.582, 4.535e-3
-1.581, 4.489e-3
-1.580, 4.443e-3
-1.579, 4.397e-3
-1.578, 4.350e-3
-1.577, 4.304e-3
-1.576, 4.261e-3
-1.575, 4.215e-3
-1.574, 4.169e-3
-1.573, 4.122e-3
-1.572, 4.079e-3
-1.571, 4.033e-3
-1.570, 3.990e-3
-1.569, 3.943e-3
-1.568, 3.900e-3
-1.567, 3.857e-3
-1.566, 3.811e-3
-1.565, 3.771e-3
-1.564, 3.731e-3
-1.563, 3.684e-3
-1.562, 3.644e-3
-1.561, 3.601e-3
-1.560, 3.561e-3
-1.559, 3.521e-3
-1.558, 3.481e-3
-1.557, 3.438e-3
-1.556, 3.401e-3
-1.555, 3.361e-3
-1.554, 3.318e-3
-1.553, 3.281e-3
-1.552, 3.237e-3
-1.551, 3.200e-3
-1.550, 3.160e-3
-1.549, 3.123e-3
-1.548, 3.083e-3
-1.547, 3.046e-3
-1.546, 3.009e-3
-1.545, 2.975e-3
-1.544, 2.935e-3
-1.543, 2.898e-3
-1.542, 2.864e-3
-1.541, 2.827e-3
-1.540, 2.790e-3
-1.539, 2.760e-3
-1.538, 2.723e-3
-1.537, 2.686e-3
-1.536, 2.652e-3
-1.535, 2.618e-3
-1.534, 2.584e-3
-1.533, 2.550e-3
-1.532, 2.516e-3
-1.531, 2.485e-3
-1.530, 2.451e-3
-1.529, 2.420e-3
-1.528, 2.386e-3
-1.527, 2.353e-3
-1.526, 2.322e-3
-1.525, 2.291e-3
-1.524, 2.260e-3
-1.523, 2.232e-3
-1.522, 2.198e-3
-1.521, 2.168e-3
-1.520, 2.137e-3
-1.519, 2.109e-3
-1.518, 2.078e-3
-1.517, 2.050e-3
-1.516, 2.020e-3
-1.515, 1.995e-3
-1.514, 1.967e-3
-1.513, 1.936e-3
-1.512, 1.909e-3
-1.511, 1.884e-3
-1.510, 1.853e-3
-1.509, 1.828e-3
-1.508, 1.801e-3
-1.507, 1.776e-3
-1.506, 1.748e-3
-1.505, 1.724e-3
-1.504, 1.699e-3
-1.503, 1.674e-3
-1.502, 1.647e-3
-1.501, 1.622e-3
-1.500, 1.600e-3
-1.499, 1.576e-3
-1.498, 1.551e-3
-1.497, 1.526e-3
-1.496, 1.505e-3
-1.495, 1.480e-3
-1.494, 1.458e-3
-1.493, 1.434e-3
-1.492, 1.412e-3
-1.491, 1.391e-3
-1.490, 1.369e-3
-1.489, 1.347e-3
-1.488, 1.326e-3
-1.487, 1.307e-3
-1.486, 1.286e-3
-1.485, 1.264e-3
-1.484, 1.246e-3
-1.483, 1.224e-3
-1.482, 1.206e-3
-1.481, 1.187e-3
-1.480, 1.169e-3
-1.479, 1.150e-3
-1.478, 1.132e-3
-1.477, 1.113e-3
-1.476, 1.095e-3
-1.475, 1.076e-3
-1.474, 1.058e-3
-1.473, 1.039e-3
-1.472, 1.024e-3
-1.471, 1.005e-3
-1.470, 9.898e-4
-1.469, 9.744e-4
-1.468, 9.559e-4
-1.467, 9.405e-4
-1.466, 9.251e-4
-1.465, 9.097e-4
-1.464, 8.943e-4
-1.463, 8.758e-4
-1.462, 8.634e-4
-1.461, 8.480e-4
-1.460, 8.326e-4
-1.459, 8.172e-4
-1.458, 8.018e-4
-1.457, 7.894e-4
-1.456, 7.740e-4
-1.455, 7.617e-4
-1.454, 7.463e-4
-1.453, 7.339e-4
-1.452, 7.185e-4
-1.451, 7.062e-4
-1.450, 6.939e-4
-1.449, 6.815e-4
-1.448, 6.692e-4
-1.447, 6.569e-4
-1.446, 6.414e-4
-1.445, 6.322e-4
-1.444, 6.199e-4
-1.443, 6.044e-4
-1.442, 5.983e-4
-1.441, 5.859e-4
-1.440, 5.736e-4
-1.439, 5.644e-4
-1.438, 5.489e-4
-1.437, 5.397e-4
-1.436, 5.305e-4
-1.435, 5.181e-4
-1.434, 5.089e-4
-1.433, 4.965e-4
-1.432, 4.873e-4
-1.431, 4.780e-4
-1.430, 4.688e-4
-1.429, 4.595e-4
-1.428, 4.472e-4
-1.427, 4.380e-4
-1.426, 4.287e-4
-1.425, 4.225e-4
-1.424, 4.102e-4
-1.423, 4.010e-4
-1.422, 3.917e-4
-1.421, 3.855e-4
-1.420, 3.763e-4
-1.419, 3.670e-4
-1.418, 3.578e-4
-1.417, 3.485e-4
-1.416, 3.424e-4
-1.415, 3.331e-4
-1.414, 3.270e-4
-1.413, 3.146e-4
-1.412, 3.085e-4
-1.411, 3.023e-4
-1.410, 2.931e-4
-1.409, 2.900e-4
-1.408, 2.807e-4
-1.407, 2.715e-4
-1.406, 2.684e-4
-1.405, 2.591e-4
-1.404, 2.499e-4
-1.403, 2.468e-4
-1.402, 2.376e-4
-1.401, 2.283e-4
-1.400, 2.252e-4
-1.399, 2.160e-4
-1.398, 2.129e-4
-1.397, 2.067e-4
-1.396, 1.975e-4
-1.395, 1.944e-4
-1.394, 1.882e-4
-1.393, 1.821e-4
-1.392, 1.759e-4
-1.391, 1.666e-4
-1.390, 1.636e-4
-1.389, 1.574e-4
-1.388, 1.512e-4
-1.387, 1.481e-4
-1.386, 1.420e-4
-1.385, 1.358e-4
-1.384, 1.296e-4
-1.383, 1.266e-4
-1.382, 1.204e-4
-1.381, 1.142e-4
-1.380, 1.081e-4
-1.379, 1.050e-4
-1.378, 9.882e-5
-1.377, 9.265e-5
-1.376, 8.957e-5
-1.375, 8.340e-5
-1.374, 8.032e-5
-1.373, 7.723e-5
-1.372, 7.107e-5
-1.371, 6.490e-5
-1.370, 6.182e-5
-1.369, 5.873e-5
-1.368, 5.257e-5
-1.367, 4.949e-5
-1.366, 4.332e-5
-1.365, 4.332e-5
-1.364, 3.715e-5
-1.363, 3.099e-5
-1.362, 2.790e-5
-1.361, 2.482e-5
-1.360, 1.865e-5
-1.359, 1.557e-5
-1.358, 1.249e-5
-1.357, 6.322e-6
-1.356, 3.239e-6
-1.355, 1.559e-7
-1.354, -2.927e-6
-1.353, -6.010e-6
-1.352, -1.218e-5
-1.351, -1.526e-5
-1.350, -1.834e-5
-1.349, -2.143e-5
-1.348, -2.451e-5
-1.347, -2.759e-5
-1.346, -3.068e-5
-1.345, -3.684e-5
-1.344, -3.992e-5
-1.343, -4.301e-5
-1.342, -4.609e-5
-1.341, -4.917e-5
-1.340, -5.226e-5
-1.339, -5.534e-5
-1.338, -5.842e-5
-1.337, -6.151e-5
-1.336, -6.459e-5
-1.335, -6.767e-5
-1.334, -7.076e-5
-1.333, -7.384e-5
-1.332, -7.692e-5
-1.331, -8.000e-5
-1.330, -8.309e-5
-1.329, -8.925e-5
-1.328, -8.925e-5
-1.327, -9.542e-5
-1.326, -9.850e-5
-1.325, -9.850e-5
-1.324, -1.047e-4
-1.323, -1.047e-4
-1.322, -1.078e-4
-1.321, -1.108e-4
-1.320, -1.139e-4
-1.319, -1.170e-4
-1.318, -1.201e-4
-1.317, -1.201e-4
-1.316, -1.263e-4
-1.315, -1.293e-4
-1.314, -1.293e-4
-1.313, -1.355e-4
-1.312, -1.386e-4
-1.311, -1.417e-4
-1.310, -1.448e-4
-1.309, -1.448e-4
-1.308, -1.509e-4
-1.307, -1.509e-4
-1.306, -1.540e-4
-1.305, -1.571e-4
-1.304, -1.602e-4
-1.303, -1.602e-4
-1.302, -1.663e-4
-1.301, -1.663e-4
-1.300, -1.694e-4
-1.299, -1.725e-4
-1.298, -1.756e-4
-1.297, -1.787e-4
-1.296, -1.817e-4
-1.295, -1.848e-4
-1.294, -1.879e-4
-1.293, -1.910e-4
-1.292, -1.910e-4
-1.291, -1.941e-4
-1.290, -1.972e-4
-1.289, -1.972e-4
-1.288, -2.002e-4
-1.287, -2.033e-4
-1.286, -2.064e-4
-1.285, -2.095e-4
-1.284, -2.095e-4
-1.283, -2.126e-4
-1.282, -2.157e-4
-1.281, -2.187e-4
-1.280, -2.218e-4
-1.279, -2.218e-4
-1.278, -2.249e-4
-1.277, -2.249e-4
-1.276, -2.280e-4
-1.275, -2.280e-4
-1.274, -2.342e-4
-1.273, -2.342e-4
-1.272, -2.372e-4
-1.271, -2.372e-4
-1.270, -2.403e-4
-1.269, -2.403e-4
-1.268, -2.434e-4
-1.267, -2.465e-4
-1.266, -2.496e-4
-1.265, -2.496e-4
-1.264, -2.527e-4
-1.263, -2.557e-4
-1.262, -2.557e-4
-1.261, -2.557e-4
-1.260, -2.588e-4
-1.259, -2.557e-4
-1.258, -2.588e-4
-1.257, -2.619e-4
-1.256, -2.619e-4
-1.255, -2.650e-4
-1.254, -2.681e-4
-1.253, -2.681e-4
-1.252, -2.712e-4
-1.251, -2.712e-4
-1.250, -2.712e-4
-1.249, -2.742e-4
-1.248, -2.742e-4
-1.247, -2.742e-4
-1.246, -2.773e-4
-1.245, -2.742e-4
-1.244, -2.773e-4
-1.243, -2.804e-4
-1.242, -2.773e-4
-1.241, -2.804e-4
-1.240, -2.835e-4
-1.239, -2.835e-4
-1.238, -2.835e-4
-1.237, -2.835e-4
-1.236, -2.866e-4
-1.235, -2.866e-4
-1.234, -2.866e-4
-1.233, -2.897e-4
-1.232, -2.897e-4
-1.231, -2.866e-4
-1.230, -2.897e-4
-1.229, -2.897e-4
-1.228, -2.927e-4
-1.227, -2.927e-4
-1.226, -2.927e-4
-1.225, -2.927e-4
-1.224, -2.927e-4
-1.223, -2.927e-4
-1.222, -2.958e-4
-1.221, -2.958e-4
-1.220, -2.958e-4
-1.219, -2.958e-4
-1.218, -2.989e-4
-1.217, -2.958e-4
-1.216, -2.958e-4
-1.215, -2.958e-4
-1.214, -2.958e-4
-1.213, -2.958e-4
-1.212, -2.989e-4
-1.211, -2.989e-4
-1.210, -2.989e-4
-1.209, -2.989e-4
-1.208, -2.989e-4
-1.207, -3.020e-4
-1.206, -3.020e-4
-1.205, -3.020e-4
-1.204, -3.020e-4
-1.203, -3.020e-4
-1.202, -3.020e-4
-1.201, -3.020e-4
-1.200, -2.989e-4
-1.199, -3.020e-4
-1.198, -3.020e-4
-1.197, -3.020e-4
-1.196, -3.020e-4
-1.195, -3.020e-4
-1.194, -3.020e-4
-1.193, -3.020e-4
-1.192, -3.020e-4
-1.191, -3.020e-4
-1.190, -3.051e-4
-1.189, -3.051e-4
-1.188, -3.051e-4
-1.187, -3.051e-4
-1.186, -3.020e-4
-1.185, -3.020e-4
-1.184, -3.051e-4
-1.183, -3.051e-4
-1.182, -3.020e-4
-1.181, -3.020e-4
-1.180, -3.051e-4
-1.179, -3.051e-4
-1.178, -3.051e-4
-1.177, -3.051e-4
-1.176, -3.051e-4
-1.175, -3.051e-4
-1.174, -3.051e-4
-1.173, -3.051e-4
-1.172, -3.051e-4
-1.171, -3.051e-4
-1.170, -3.051e-4
-1.169, -3.051e-4
-1.168, -3.051e-4
-1.167, -3.020e-4
-1.166, -3.051e-4
-1.165, -3.051e-4
-1.164, -3.020e-4
-1.163, -3.051e-4
-1.162, -3.051e-4
-1.161, -3.051e-4
-1.160, -3.051e-4
-1.159, -3.051e-4
-1.158, -3.051e-4
-1.157, -3.051e-4
-1.156, -3.051e-4
-1.155, -3.020e-4
-1.154, -3.020e-4
-1.153, -3.051e-4
-1.152, -3.020e-4
-1.151, -3.051e-4
-1.150, -3.020e-4
-1.149, -3.020e-4
-1.148, -3.020e-4
-1.147, -3.020e-4
-1.146, -3.051e-4
-1.145, -3.020e-4
-1.144, -3.051e-4
-1.143, -3.051e-4
-1.142, -3.020e-4
-1.141, -3.020e-4
-1.140, -3.020e-4
-1.139, -3.020e-4
-1.138, -3.020e-4
-1.137, -3.020e-4
-1.136, -3.020e-4
-1.135, -3.020e-4
-1.134, -3.020e-4
-1.133, -3.020e-4
-1.132, -3.020e-4
-1.131, -3.020e-4
-1.130, -3.020e-4
-1.129, -3.020e-4
-1.128, -3.020e-4
-1.127, -3.020e-4
-1.126, -3.020e-4
-1.125, -2.989e-4
-1.124, -3.020e-4
-1.123, -3.020e-4
-1.122, -2.989e-4
-1.121, -2.989e-4
-1.120, -2.989e-4
-1.119, -2.989e-4
-1.118, -3.020e-4
-1.117, -2.989e-4
-1.116, -3.020e-4
-1.115, -2.989e-4
-1.114, -2.989e-4
-1.113, -3.020e-4
-1.112, -2.989e-4
-1.111, -2.989e-4
-1.110, -2.989e-4
-1.109, -2.989e-4
-1.108, -2.989e-4
-1.107, -2.989e-4
-1.106, -2.989e-4
-1.105, -2.989e-4
-1.104, -3.020e-4
-1.103, -2.989e-4
-1.102, -2.989e-4
-1.101, -3.020e-4
-1.100, -2.989e-4
-1.099, -2.989e-4
-1.098, -2.989e-4
-1.097, -2.989e-4
-1.096, -2.989e-4
-1.095, -2.989e-4
-1.094, -2.989e-4
-1.093, -2.989e-4
-1.092, -2.989e-4
-1.091, -2.989e-4
-1.090, -2.989e-4
-1.089, -2.989e-4
-1.088, -3.020e-4
-1.087, -2.989e-4
-1.086, -3.020e-4
-1.085, -2.989e-4
-1.084, -3.020e-4
-1.083, -3.020e-4
-1.082, -3.020e-4
-1.081, -3.020e-4
-1.080, -2.989e-4
-1.079, -3.020e-4
-1.078, -3.020e-4
-1.077, -3.020e-4
-1.076, -3.020e-4
-1.075, -3.020e-4
-1.074, -3.020e-4
-1.073, -3.020e-4
-1.072, -3.020e-4
-1.071, -3.051e-4
-1.070, -3.051e-4
-1.069, -3.020e-4
-1.068, -3.051e-4
-1.067, -3.051e-4
-1.066, -3.051e-4
-1.065, -3.051e-4
-1.064, -3.020e-4
-1.063, -3.051e-4
-1.062, -3.051e-4
-1.061, -3.051e-4
-1.060, -3.051e-4
-1.059, -3.082e-4
-1.058, -3.051e-4
-1.057, -3.082e-4
-1.056, -3.082e-4
-1.055, -3.082e-4
-1.054, -3.082e-4
-1.053, -3.082e-4
-1.052, -3.082e-4
-1.051, -3.112e-4
-1.050, -3.082e-4
-1.049, -3.112e-4
-1.048, -3.112e-4
-1.047, -3.112e-4
-1.046, -3.112e-4
-1.045, -3.143e-4
-1.044, -3.143e-4
-1.043, -3.143e-4
-1.042, -3.143e-4
-1.041, -3.174e-4
-1.040, -3.174e-4
-1.039, -3.174e-4
-1.038, -3.174e-4
-1.037, -3.174e-4
-1.036, -3.174e-4
-1.035, -3.174e-4
-1.034, -3.174e-4
-1.033, -3.174e-4
-1.032, -3.205e-4
-1.031, -3.205e-4
-1.030, -3.205e-4
-1.029, -3.205e-4
-1.028, -3.205e-4
-1.027, -3.236e-4
-1.026, -3.236e-4
-1.025, -3.236e-4
-1.024, -3.236e-4
-1.023, -3.267e-4
-1.022, -3.236e-4
-1.021, -3.236e-4
-1.020, -3.267e-4
-1.019, -3.236e-4
-1.018, -3.236e-4
-1.017, -3.267e-4
-1.016, -3.267e-4
-1.015, -3.297e-4
-1.014, -3.267e-4
-1.013, -3.267e-4
-1.012, -3.297e-4
-1.011, -3.297e-4
-1.010, -3.328e-4
-1.009, -3.328e-4
-1.008, -3.328e-4
-1.007, -3.328e-4
-1.006, -3.328e-4
-1.005, -3.328e-4
-1.004, -3.328e-4
-1.003, -3.328e-4
-1.002, -3.328e-4
-1.001, -3.328e-4
