Potential V vs RHE, Current mA cm-2
0.013299999999999867,0.19268367904161798
0.012299999999999978,-0.21418729079956658
0.011299999999999866,-0.505334876311791
0.010299999999999976,-0.7007065068231527
0.009299999999999864,-0.8561832786783202
0.008299999999999974,-1.0190165492927858
0.007299999999999862,-1.1493114600103558
0.006299999999999972,-1.233628253482312
0.00529999999999986,-1.334780111422662
0.0042999999999999705,-1.4302731241635522
0.0032999999999998586,-1.4783733083589634
0.0022999999999999687,-1.5363764716534298
0.0012999999999998568,-1.6226738609451972
0.00029999999999996696,-1.656626932141958
-0.000700000000000145,-1.690580003338719
-0.0017000000000000348,-1.7499978779330503
-0.0027000000000001467,-1.8023421960280568
-0.0037000000000000366,-1.815074597726842
-0.0047000000000001485,-1.8702483384215782
-0.005700000000000038,-1.92400736781645
-0.00670000000000015,-1.959375150313076
-0.00770000000000004,-2.0032312006088917
-0.008700000000000152,-2.083869744701199
-0.009700000000000042,-2.12631108369715
-0.010700000000000154,-2.1701671339929662
-0.011700000000000044,-2.250805678085273
-0.012700000000000156,-2.330029510877715
-0.013700000000000045,-2.3738855611735317
-0.014700000000000157,-2.468671218264489
-0.015700000000000047,-2.5747745657543666
-0.01670000000000016,-2.641265996848024
-0.01770000000000005,-2.744539921738171
-0.01870000000000016,-2.8718639387260247
-0.01970000000000005,-2.9793819975157674
-0.020700000000000163,-3.0883147676053753
-0.021700000000000053,-3.2411035879907995
-0.022700000000000164,-3.3995512535756833
-0.023700000000000054,-3.522631136663941
-0.024700000000000166,-3.693811203947611
-0.025700000000000056,-3.86782069383101
-0.026700000000000168,-4.003632978618054
-0.027700000000000058,-4.146518819904423
-0.02870000000000017,-4.331846000186743
-0.02970000000000006,-4.483220109272302
-0.03070000000000017,-4.613373548859885
-0.03170000000000006,-4.753429967546523
-0.03270000000000017,-4.899145231432622
-0.03370000000000006,-4.99958973372304
-0.034700000000000175,-5.136816729809948
-0.035700000000000065,-5.299508529294427
-0.03670000000000018,-5.449467927080121
-0.03770000000000007,-5.590939057066626
-0.03870000000000018,-5.78051037124854
-0.03970000000000007,-5.931884480334099
-0.04070000000000018,-6.073355610320603
-0.04170000000000007,-6.250194522803732
-0.04270000000000018,-6.435521703086052
-0.04370000000000007,-6.575578121772692
-0.044700000000000184,-6.7212933856587895
-0.045700000000000074,-6.869838072144618
-0.046700000000000186,-6.970282574435036
-0.047700000000000076,-7.0565799637268025
-0.04870000000000019,-7.189562825914116
-0.04970000000000008,-7.278689637805614
-0.05070000000000019,-7.35932818189792
-0.05170000000000008,-7.445625571189688
-0.05270000000000019,-7.514946424883075
-0.05370000000000008,-7.523434692682265
-0.05470000000000019,-7.554558341279295
-0.05570000000000008,-7.604073236774572
-0.056700000000000195,-7.609732081974033
-0.057700000000000085,-7.623879194972683
-0.058700000000000196,-7.680467646967284
-0.059700000000000086,-7.687541203466609
-0.0607000000000002,-7.66490582266877
-0.06170000000000009,-7.66490582266877
-0.0627000000000002,-7.674808801767824
-0.06370000000000009,-7.6408557305710625
-0.0647000000000002,-7.6408557305710625
-0.06570000000000009,-7.669149956568364
-0.0667000000000002,-7.655002843569713
-0.0677000000000001,-7.605487948074437
-0.0687000000000002,-7.621049772372953
-0.0697000000000001,-7.582852567276596
-0.07070000000000021,-7.537581805680916
-0.0717000000000001,-7.529093537881726
-0.07270000000000021,-7.53616709438105
-0.0737000000000001,-7.4937257553851
-0.07470000000000021,-7.48523748758591
-0.0757000000000001,-7.49938460058456
-0.07670000000000021,-7.456943261588608
-0.0777000000000001,-7.413087211292793
-0.07870000000000021,-7.4229901903918485
-0.0797000000000001,-7.406013654793467
-0.08070000000000022,-7.369231160996977
-0.0817000000000001,-7.35932818189792
-0.08270000000000022,-7.366401738397246
-0.08370000000000011,-7.3183015542018355
-0.08470000000000022,-7.305569152503049
-0.08570000000000011,-7.32820453330089
-0.08670000000000022,-7.294251462104128
-0.08770000000000011,-7.258883679607503
-0.08870000000000022,-7.268786658706559
-0.08970000000000011,-7.248980700508447
-0.09070000000000022,-7.205124650212632
-0.09170000000000011,-7.200880516313037
-0.09270000000000023,-7.219271763211282
-0.09370000000000012,-7.175415712915465
-0.09470000000000023,-7.166927445116276
-0.09570000000000012,-7.174001001615601
-0.09670000000000023,-7.134389085219379
-0.09770000000000012,-7.1089242818218095
-0.09870000000000023,-7.131559662619649
-0.09970000000000012,-7.130144951319785
-0.10070000000000023,-7.0891183236236985
-0.10170000000000012,-7.094777168823159
-0.10270000000000024,-7.099021302722755
-0.10370000000000013,-7.0565799637268025
-0.10470000000000024,-7.052335829827209
-0.10570000000000013,-7.074971210625048
-0.10670000000000024,-7.070727076725453
-0.10770000000000013,-7.057994675026669
-0.10870000000000024,-7.079215344524644
-0.10970000000000013,-7.072141788025317
-0.11070000000000024,-7.043847562028017
-0.11170000000000013,-7.057994675026669
-0.11270000000000002,-7.083459478424238
-0.11370000000000013,-7.074971210625048
-0.11470000000000002,-7.066482942825859
-0.11570000000000014,-7.0891183236236985
-0.11670000000000003,-7.067897654125724
-0.11770000000000014,-7.045262273327882
-0.11870000000000003,-7.077800633224777
-0.11970000000000014,-7.066482942825859
-0.12070000000000003,-7.073556499325184
-0.12170000000000014,-7.093362457523294
-0.12270000000000003,-7.113168415721404
-0.12370000000000014,-7.093362457523294
-0.12470000000000003,-7.104680147922214
-0.12570000000000014,-7.144292064318436
-0.12670000000000003,-7.147121486918166
-0.12770000000000015,-7.142877353018569
-0.12870000000000004,-7.185318692014522
-0.12970000000000015,-7.2065393615124975
-0.13070000000000004,-7.2022952276129
-0.13170000000000015,-7.2390777214093935
-0.13270000000000004,-7.268786658706559
-0.13370000000000015,-7.261713102207232
-0.13470000000000004,-7.277274926505749
-0.13570000000000015,-7.31405742030224
-0.13670000000000004,-7.321130976801564
-0.13770000000000016,-7.33386337850035
-0.13870000000000005,-7.410257788693063
-0.13970000000000016,-7.428649035591308
-0.14070000000000005,-7.438552014690363
-0.14170000000000016,-7.478163931086583
-0.14270000000000005,-7.523434692682265
-0.14370000000000016,-7.523434692682265
-0.14470000000000005,-7.5814378559767315
-0.14570000000000016,-7.6408557305710625
-0.14670000000000005,-7.660661688769173
-0.14770000000000016,-7.680467646967284
-0.14870000000000005,-7.744129655461211
-0.14970000000000017,-7.778082726657972
-0.15070000000000006,-7.807791663955138
-0.15170000000000017,-7.874283095048795
-0.15270000000000006,-7.930871547043396
-0.15370000000000017,-7.953506927841237
-0.15470000000000006,-8.003021823336512
-0.15570000000000017,-8.085075078728684
-0.15670000000000006,-8.117613438625579
-0.15770000000000017,-8.158640066321666
-0.15870000000000006,-8.26049927991195
-0.15970000000000018,-8.31425830930682
-0.16070000000000007,-8.360943782202368
-0.16170000000000018,-8.441582326294675
-0.16270000000000007,-8.523635581686847
-0.16370000000000018,-8.560418075483337
-0.16470000000000007,-8.63398306307632
-0.16570000000000018,-8.723109874967816
-0.16670000000000007,-8.792430728661204
-0.16770000000000018,-8.851848603255535
-0.16870000000000007,-8.974928486343794
-0.16970000000000018,-9.0555670304361
-0.17070000000000007,-9.107911348531106
-0.17170000000000019,-9.216844118620713
-0.17270000000000008,-9.335679867809377
-0.1737000000000002,-9.390853608504113
-0.17470000000000008,-9.47998042039561
-0.1757000000000002,-9.590327901785084
-0.17670000000000008,-9.661063466778335
-0.1777000000000002,-9.734628454371316
-0.17870000000000008,-9.874684873057957
-0.1797000000000002,-9.973714664048508
-0.18070000000000008,-10.055767919440681
-0.1817000000000002,-10.168944823429884
-0.18270000000000008,-10.297683551717602
-0.1837000000000002,-10.372663250610449
-0.1847000000000001,-10.504231401497897
-0.1857000000000002,-10.669752623582108
-0.1867000000000001,-10.765952991972927
-0.1877000000000002,-10.869226916863076
-0.1887000000000001,-11.01918631464877
-0.1897000000000002,-11.140851486437164
-0.1907000000000001,-11.244125411327312
-0.1917000000000001,-11.406817210811791
-0.19269999999999998,-11.592144391094111
-0.1937000000000001,-11.692588893384528
-0.19469999999999998,-11.825571755571842
-0.1957000000000001,-11.995337111555646
-0.19669999999999999,-12.124075839843364
-0.1977000000000001,-12.261302835930273
-0.1987,-12.460777129211243
-0.1997000000000001,-12.647519020793428
-0.2007,-12.774843037781283
-0.2017000000000001,-12.954511372864141
-0.2027,-13.128520862747541
-0.2037000000000001,-13.255844879735394
-0.2047,-13.429854369618793
-0.2057000000000001,-13.633572796799358
-0.2067,-13.835876512680057
-0.2077000000000001,-14.005641868663862
-0.2087,-14.203701450644967
-0.2097000000000001,-14.401761032626075
-0.2107,-14.543232162612577
-0.2117000000000001,-14.741291744593681
-0.2127,-14.939351326574789
-0.2137000000000001,-15.123263795557243
-0.2147,-15.363764716534297
-0.2157000000000001,-15.618412750510005
-0.2167,-15.802325219492458
-0.21770000000000012,-15.986237688474914
-0.2187,-16.21259149645332
-0.21970000000000012,-16.410651078434423
-0.2207,-16.59456354741688
-0.22170000000000012,-16.877505807389888
-0.2227,-17.146300954364243
-0.22370000000000012,-17.316066310348052
-0.2247,-17.542420118326454
-0.22570000000000012,-17.782921039303513
-0.2267,-17.995127734283265
-0.22770000000000012,-18.221481542261674
-0.22870000000000001,-18.518570915233333
-0.22970000000000013,-18.829807401203638
-0.23070000000000002,-19.042014096183394
-0.23170000000000013,-19.31080924315775
-0.23270000000000002,-19.579604390132108
-0.23370000000000013,-19.805958198110513
-0.23470000000000002,-20.07475334508487
-0.23570000000000013,-20.38598983105518
-0.23670000000000002,-20.711373430024135
-0.2376999999999999,-21.008462802995794
-0.23870000000000002,-21.291405062968803
-0.2396999999999999,-21.574347322941808
-0.24070000000000003,-21.800701130920213
-0.24169999999999991,-22.111937616890522
-0.24270000000000003,-22.42317410286083
-0.24369999999999992,-22.748557701829792
-0.24470000000000003,-23.13052975279335
-0.24569999999999992,-23.45591335176231
-0.24670000000000003,-23.724708498736668
-0.24769999999999992,-23.951062306715073
-0.24870000000000003,-24.23400456668808
-0.24969999999999992,-24.516946826661083
-0.25070000000000003,-24.799889086634096
-0.2516999999999999,-25.238449589592253
-0.25270000000000004,-25.592127414558515
-0.2536999999999999,-25.86092256153287
-0.25470000000000004,-26.14386482150588
-0.2556999999999999,-26.511689759470787
-0.25670000000000004,-26.851220471438396
-0.25769999999999993,-27.261486748399253
-0.25870000000000004,-27.742488590353368
-0.25969999999999993,-28.06787218932233
-0.26070000000000004,-28.379108675292635
-0.26169999999999993,-28.732786500258893
-0.26270000000000004,-29.157199890218404
-0.26369999999999993,-29.581613280177915
-0.26470000000000005,-30.04846800913338
-0.26569999999999994,-30.51532273808884
-0.26670000000000005,-30.925589015049702
-0.26769999999999994,-31.335855292010564
-0.26870000000000005,-31.76026868197007
-0.26969999999999994,-32.14224073293363
-0.27070000000000005,-32.52421278389719
-0.27169999999999994,-32.93447906085806
-0.27270000000000005,-33.38718667681487
-0.27369999999999994,-33.79745295377573
-0.27470000000000006,-34.221866343735236
-0.27569999999999995,-34.6887210726907
-0.27670000000000006,-35.098987349651566
-0.27769999999999995,-35.46681228761647
-0.27870000000000006,-35.91951990357328
-0.27969999999999995,-36.30149195453684
-0.28070000000000006,-36.669316892501755
-0.28169999999999995,-37.178612960453165
-0.28270000000000006,-37.744497480399176
-0.28369999999999995,-38.18305798335734
-0.28470000000000006,-38.664059825311455
-0.28569999999999995,-39.145061667265566
-0.28670000000000007,-39.59776928322238
-0.28769999999999996,-40.05047689917919
-0.28870000000000007,-40.5880671931279
-0.28969999999999996,-41.168098826072566
-0.29070000000000007,-41.63495355502803
-0.29169999999999996,-42.115955396982145
-0.29270000000000007,-42.582810125937606
-0.29369999999999996,-43.007223515897124
-0.2947000000000001,-43.50237247084988
-0.29569999999999996,-44.025815651799945
-0.2967000000000001,-44.577553058747306
-0.29769999999999996,-45.22832025668522
-0.2987000000000001,-45.83664611562718
-0.29969999999999997,-46.33179507057995
-0.3007000000000001,-46.74206134754081
-0.30169999999999997,-47.22306318949492
-0.3027000000000001,-47.77480059644228
-0.30369999999999997,-48.29824377739235
-0.3047000000000001,-48.991452314326224
-0.30569999999999997,-49.656366625262784
-0.3067000000000001,-50.1656626932142
-0.3077,-50.68910587416426
-0.3087000000000001,-51.19840194211567
-0.3097,-51.679403784069784
-0.3107000000000001,-52.14625851302525
-0.3117,-52.72629014596991
-0.3127000000000001,-53.46194002189973
-0.3137,-54.09856010683901
-0.3147000000000001,-54.66444462678501
-0.3157,-55.31521182472294
-0.3167000000000001,-55.838655005673
-0.3177,-56.39039241262036
-0.3187000000000001,-57.05530672355693
-0.3197,-57.7202210344935
-0.3207000000000001,-58.427576684426015
-0.3217,-59.24810923834774
-0.3227000000000001,-59.92717066228296
-0.3237,-60.521349408226264
-0.3247000000000001,-61.05893970217499
-0.3257,-61.61067710912235
-0.3267000000000001,-62.10582606407511
-0.3277,-62.700004810018434
-0.3287000000000001,-63.4780960249442
-0.3297,-64.32692280486322
-0.3307000000000001,-65.02013134179708
-0.3317,-65.65675142673635
-0.3327000000000001,-66.22263594668237
-0.3337,-66.63290222364323
-0.3347000000000001,-67.18463963059058
-0.3357,-67.87784816752446
-0.3367000000000001,-68.67008649544888
-0.3377,-69.5189132753679
-0.3387000000000001,-70.19797469930313
-0.3397,-70.8345947842424
-0.3407000000000001,-71.35803796519245
-0.3417,-72.00880516313036
-0.3427000000000001,-72.74445503906018
-0.3437,-73.46595780199135
-0.3447000000000001,-74.47040282489553
-0.3457,-75.26264115281995
-0.3467000000000001,-75.85681989876326
-0.3477,-76.46514575770523
-0.3487000000000001,-77.17250140763775
-0.3497,-77.85156283157298
-0.3507000000000001,-78.58721270750279
-0.3517,-79.56336350440966
-0.3527000000000001,-80.45463162332464
-0.3537,-82.12399095716538
-0.3547000000000001,-82.84549372009654
-0.3557,-83.36893690104661
-0.35670000000000013,-83.97726275998858
-0.3577,-84.64217707092514
-0.35870000000000013,-85.60418075483337
-0.3597,-86.43886042175373
-0.36070000000000013,-87.06133339369435
-0.3617,-87.83942460862012
-0.3626999999999999,-88.61751582354589
-0.3637,-89.29657724748111
-0.3646999999999999,-90.00393289741362
-0.3657,-90.9517894683232
-0.3666999999999999,-91.67329223125436
-0.3677,-92.08355850821525
-0.3686999999999999,-93.34265156509512
-0.36970000000000003,-94.44612637898985
-0.3706999999999999,-94.94127533394261
-0.37170000000000003,-95.49301274088998
-0.3726999999999999,-96.03060303483868
-0.37370000000000003,-97.72825659467674
-0.3746999999999999,-98.60537760059306
-0.37570000000000003,-99.34102747652288
-0.3766999999999999,-99.9635004484635
-0.37770000000000004,-100.60012053340276
-0.3786999999999999,-101.15185794035013
-0.37970000000000004,-102.21289141524889
-0.3806999999999999,-103.62760271511394
-0.38170000000000004,-104.36325259104376
-0.38269999999999993,-105.24037359696008
-0.38370000000000004,-105.97602347288989
-0.38469999999999993,-106.38628974985076
-0.38570000000000004,-107.99906063169689
-0.38669999999999993,-107.87173661470905
-0.38570000000000004,-106.73996757481702
-0.38469999999999993,-105.7213754389142
-0.38370000000000004,-104.61790062501946
-0.38269999999999993,-103.5568671501207
-0.38170000000000004,-102.31192120623945
-0.3806999999999999,-101.16600505334877
-0.37970000000000004,-100.11911869144865
-0.3786999999999999,-99.29858613752693
-0.37770000000000004,-98.26584688862545
-0.3766999999999999,-96.72381157177257
-0.37570000000000003,-96.4267221988009
-0.3746999999999999,-94.41783215299256
-0.37370000000000003,-94.12074278002089
-0.3726999999999999,-93.25776888710321
-0.37170000000000003,-92.42308922018285
-0.3706999999999999,-91.84305758723818
-0.36970000000000003,-90.71128854734616
-0.3686999999999999,-89.80587331543254
-0.3677,-88.8438696315243
-0.3666999999999999,-87.81113038262282
-0.3657,-86.7076555687281
-0.3646999999999999,-85.83053456281178
-0.3637,-84.769501087913
-0.3626999999999999,-84.92511933089816
-0.3617,-84.06214543798048
-0.36070000000000013,-82.78890526810196
-0.3597,-81.88349003618832
-0.35870000000000013,-80.61024986630979
-0.3577,-80.9780748042747
-0.35670000000000013,-80.03021823336512
-0.3557,-78.71453672449066
-0.3547000000000001,-77.7242388145851
-0.3537,-76.71979379168094
-0.3527000000000001,-76.05487948074436
-0.3517,-75.20605270082535
-0.3507000000000001,-73.8762240789522
-0.3497,-72.8293377170521
-0.3487000000000001,-72.34833587509796
-0.3477,-71.8248926941479
-0.3467000000000001,-71.10338993121674
-0.3457,-70.28285737729502
-0.3447000000000001,-69.44817771037465
-0.3437,-68.50032113946509
-0.3427000000000001,-67.4958761165609
-0.3417,-66.81681469262568
-0.3407000000000001,-66.05287059069857
-0.3397,-65.20404381077954
-0.3387000000000001,-64.56742372584027
-0.3377,-64.05812765788886
-0.3367000000000001,-63.364919120955
-0.3357,-62.55853368003192
-0.3347000000000001,-61.83703091710075
-0.3337,-61.10138104117093
-0.3327000000000001,-60.28084848724921
-0.3317,-59.72911108030185
-0.3307000000000001,-58.99346120437203
-0.3297,-58.13048731145436
-0.3287000000000001,-57.380690322525886
-0.3277,-56.68748178559202
-0.3267000000000001,-56.10745015264736
-0.3257,-55.32935893772159
-0.3247000000000001,-54.72103307877962
-0.3237,-54.05611876784305
-0.3227000000000001,-53.405351569905136
-0.3217,-52.896055501953725
-0.3207000000000001,-52.31602386900906
-0.3197,-51.60866821907654
-0.3187000000000001,-50.957901021138625
-0.3177,-50.26469248420475
-0.3167000000000001,-49.571483947270885
-0.3157,-49.019746540323524
-0.3147000000000001,-48.46800913337616
-0.3137,-47.77480059644228
-0.3127000000000001,-47.067444946509774
-0.3117,-46.41667774857186
-0.3107000000000001,-45.79420477663124
-0.3097,-45.20002603068792
-0.3087000000000001,-44.67658284973786
-0.3077,-44.054109877797245
-0.3067000000000001,-43.36090134086337
-0.30569999999999997,-42.71013414292546
-0.3047000000000001,-42.172543848976744
-0.30369999999999997,-41.66324778102533
-0.3027000000000001,-41.139804600075266
-0.30169999999999997,-40.630508532123855
-0.3007000000000001,-40.177800916167044
-0.29969999999999997,-39.52703371822913
-0.2987000000000001,-38.94700208528445
-0.29769999999999996,-38.46600024333035
-0.2967000000000001,-37.92840994938163
-0.29569999999999996,-37.40496676843157
-0.2947000000000001,-36.9381120394761
-0.29369999999999996,-36.44296308452335
-0.29270000000000007,-35.91951990357328
-0.29169999999999996,-35.45266517461782
-0.29070000000000007,-34.9716633326637
-0.28969999999999996,-34.43407303871499
-0.28870000000000007,-33.95307119676088
-0.28769999999999996,-33.47206935480677
-0.28670000000000007,-32.87789060886345
-0.28569999999999995,-32.368594540912035
-0.28470000000000006,-31.986622489948477
-0.28369999999999995,-31.54806198699032
-0.28270000000000006,-31.095354371033505
-0.28169999999999995,-30.62849964207804
-0.28070000000000006,-30.13335068712528
-0.27969999999999995,-29.609907506175215
-0.27870000000000006,-29.171347003217054
-0.27769999999999995,-28.718639387260247
-0.27670000000000006,-28.22349043230748
-0.27569999999999995,-27.714194364356068
-0.27470000000000006,-27.303928087395207
-0.27369999999999994,-26.907808923433
-0.27270000000000005,-26.469248420474838
-0.27169999999999994,-26.073129256512626
-0.27070000000000005,-25.662862979551768
-0.26969999999999994,-25.18186113759765
-0.26870000000000005,-24.74330063463949
-0.26769999999999994,-24.37547569667458
-0.26670000000000005,-23.993503645711023
-0.26569999999999994,-23.55494314275286
-0.26470000000000005,-23.1729710917893
