Potential V vs RHE, Current mA cm-2
0.013299999999999867,0.2567701009255041
0.012299999999999978,-0.0365419928755139
0.011299999999999866,-0.23809591176728565
0.010299999999999976,-0.3675419957049365
0.009299999999999864,-0.505334876311791
0.008299999999999974,-0.5977155241929779
0.007299999999999862,-0.6738269921257171
0.006299999999999972,-0.7519190558782669
0.00529999999999986,-0.7877112517648525
0.0042999999999999705,-0.8534953272085767
0.0032999999999998586,-0.8966440218544603
0.0022999999999999687,-0.9294653240113291
0.0012999999999998568,-0.9779899215966998
0.00029999999999996696,-0.9990691199646888
-0.000700000000000145,-1.0505646112797762
-0.0017000000000000348,-1.0853665092564562
-0.0027000000000001467,-1.117621926893379
-0.0037000000000000366,-1.1685515336885204
-0.0047000000000001485,-1.1992507688955918
-0.005700000000000038,-1.254990394110274
-0.00670000000000015,-1.3022417515257663
-0.00770000000000004,-1.349634580071245
-0.008700000000000152,-1.411457463875347
-0.009700000000000042,-1.4529085049613928
-0.010700000000000154,-1.5321323377538347
-0.011700000000000044,-1.5915502123481662
-0.012700000000000156,-1.658041643441823
-0.013700000000000045,-1.7386801875341302
-0.014700000000000157,-1.8051716186277869
-0.015700000000000047,-1.9013719870186092
-0.01670000000000016,-1.9791811085111866
-0.01770000000000005,-2.0683079204026833
-0.01870000000000016,-2.1645082887935065
-0.01970000000000005,-2.2409026989862184
-0.020700000000000163,-2.351250180375691
-0.021700000000000053,-2.4417917035670533
-0.022700000000000164,-2.5408214945576058
-0.023700000000000054,-2.639851285548158
-0.024700000000000166,-2.7134162731411404
-0.025700000000000056,-2.8096166415319628
-0.026700000000000168,-2.893084608224
-0.027700000000000058,-2.965234884517117
-0.02870000000000017,-3.0402145834099636
-0.02970000000000006,-3.0996324580042955
-0.03070000000000017,-3.200076960294713
-0.03170000000000006,-3.2594948348890447
-0.03270000000000017,-3.3316451111821612
-0.03370000000000006,-3.4250160569732535
-0.034700000000000175,-3.4971663332663705
-0.035700000000000065,-3.589122567757598
-0.03670000000000018,-3.6711758231497704
-0.03770000000000007,-3.7702056141403233
-0.03870000000000018,-3.8635765599314156
-0.03970000000000007,-3.914506166726557
-0.04070000000000018,-4.0121212464172435
-0.04170000000000007,-4.078612677510901
-0.04270000000000018,-4.128127573006177
-0.04370000000000007,-4.184716025000778
-0.044700000000000184,-4.22715736399673
-0.045700000000000074,-4.278086970791871
-0.046700000000000186,-4.280916393391601
-0.047700000000000076,-4.300722351589712
-0.04870000000000019,-4.3332607114866075
-0.04970000000000008,-4.334675422786473
-0.05070000000000019,-4.345993113185393
-0.05170000000000008,-4.338919556686067
-0.05270000000000019,-4.351651958384853
-0.05370000000000008,-4.368628493983234
-0.05470000000000019,-4.360140226184043
-0.05570000000000008,-4.3728726278828285
-0.056700000000000195,-4.361554937483908
-0.057700000000000085,-4.350237247084988
-0.058700000000000196,-4.344578401885528
-0.059700000000000086,-4.324772443687417
-0.0607000000000002,-4.336090134086337
-0.06170000000000009,-4.309210619388901
-0.0627000000000002,-4.295063506390251
-0.06370000000000009,-4.2936487950903865
-0.0647000000000002,-4.272428125592412
-0.06570000000000009,-4.271013414292546
-0.0667000000000002,-4.2483780334947046
-0.0677000000000001,-4.251207456094435
-0.0687000000000002,-4.24979274479457
-0.0697000000000001,-4.214424962297944
-0.07070000000000021,-4.23281620919619
-0.0717000000000001,-4.22149851879727
-0.07270000000000021,-4.20735140579862
-0.0737000000000001,-4.20735140579862
-0.07470000000000021,-4.186130736300643
-0.0757000000000001,-4.198863137999429
-0.07670000000000021,-4.174813045901724
-0.0777000000000001,-4.164910066802668
-0.07870000000000021,-4.173398334601859
-0.0797000000000001,-4.142274686004828
-0.08070000000000022,-4.153592376403748
-0.0817000000000001,-4.145104108604558
-0.08270000000000022,-4.143689397304692
-0.08370000000000011,-4.146518819904423
-0.08470000000000022,-4.118224593907121
-0.08570000000000011,-4.142274686004828
-0.08670000000000022,-4.135201129505503
-0.08770000000000011,-4.1295422843060425
-0.08870000000000022,-4.139445263405097
-0.08970000000000011,-4.1295422843060425
-0.09070000000000022,-4.140859974704963
-0.09170000000000011,-4.1295422843060425
-0.09270000000000023,-4.132371706905772
-0.09370000000000012,-4.146518819904423
-0.09470000000000023,-4.125298150406447
-0.09570000000000012,-4.139445263405097
-0.09670000000000023,-4.140859974704963
-0.09770000000000012,-4.146518819904423
-0.09870000000000023,-4.143689397304692
-0.09970000000000012,-4.132371706905772
-0.10070000000000023,-4.1691542007022635
-0.10170000000000012,-4.164910066802668
-0.10270000000000024,-4.1691542007022635
-0.10370000000000013,-4.1889601589003735
-0.10470000000000024,-4.180471891101184
-0.10570000000000013,-4.20735140579862
-0.10670000000000024,-4.198863137999429
-0.10770000000000013,-4.213010250998079
-0.10870000000000024,-4.237060343095785
-0.10970000000000013,-4.220083807497405
-0.11070000000000024,-4.24979274479457
-0.11170000000000013,-4.2611104351934905
-0.11270000000000002,-4.279501682091736
-0.11370000000000013,-4.295063506390251
-0.11470000000000002,-4.287989949890926
-0.11570000000000014,-4.336090134086337
-0.11670000000000003,-4.345993113185393
-0.11770000000000014,-4.353066669684718
-0.11870000000000003,-4.371457916582963
-0.11970000000000014,-4.377116761782423
-0.12070000000000003,-4.4124845442790495
-0.12170000000000014,-4.422387523378105
-0.12270000000000003,-4.454925883275001
-0.12370000000000014,-4.501611356170546
-0.12470000000000003,-4.503026067470412
-0.12570000000000014,-4.558199808165148
-0.12670000000000003,-4.599226435861234
-0.12770000000000015,-4.633179507057995
-0.12870000000000004,-4.66005902175543
-0.12970000000000015,-4.681279691253407
-0.13070000000000004,-4.743526988447469
-0.13170000000000015,-4.754844678846388
-0.13270000000000004,-4.781724193543823
-0.13370000000000015,-4.8312390890391
-0.13470000000000004,-4.841142068138156
-0.13570000000000015,-4.879339273234511
-0.13670000000000004,-4.928854168729788
-0.13770000000000016,-4.976954352925199
-0.13870000000000005,-5.03637222751953
-0.13970000000000016,-5.070325298716291
-0.14070000000000005,-5.145304997609139
-0.14170000000000016,-5.1863316253052245
-0.14270000000000005,-5.241505365999961
-0.14370000000000016,-5.296679106694698
-0.14470000000000005,-5.334876311791054
-0.14570000000000016,-5.41268543328363
-0.14670000000000005,-5.440979659280932
-0.14770000000000016,-5.510300512974317
-0.14870000000000005,-5.565474253669055
-0.14970000000000017,-5.5838655005673
-0.15070000000000006,-5.665918755959472
-0.15170000000000017,-5.728166053153534
-0.15270000000000006,-5.793242772947325
-0.15370000000000017,-5.8682224718401725
-0.15470000000000006,-5.947446304632614
-0.15570000000000017,-6.042231961723571
-0.15670000000000006,-6.111552815416958
-0.15770000000000017,-6.187947225609671
-0.15870000000000006,-6.281318171400763
-0.15970000000000018,-6.34498017989469
-0.16070000000000007,-6.448254104784837
-0.16170000000000018,-6.514745535878494
-0.16270000000000007,-6.598213502570531
-0.16370000000000018,-6.687340314462029
-0.16470000000000007,-6.76373472465474
-0.16570000000000018,-6.8853998964431335
-0.16670000000000007,-6.950476616236925
-0.16770000000000018,-7.043847562028017
-0.16870000000000007,-7.166927445116276
-0.16970000000000018,-7.2404924327092575
-0.17070000000000007,-7.35932818189792
-0.17170000000000019,-7.48806691018564
-0.17270000000000008,-7.6069026593743025
-0.1737000000000002,-7.69885889386553
-0.17470000000000008,-7.807791663955138
-0.1757000000000002,-7.963409906940291
-0.17670000000000008,-8.055366141431518
-0.1777000000000002,-8.169957756720587
-0.17870000000000008,-8.324161288405875
-0.1797000000000002,-8.434508769795347
-0.18070000000000008,-8.554759230283878
-0.1817000000000002,-8.683497958571595
-0.18270000000000008,-8.834872067657153
-0.1837000000000002,-8.950878394246088
-0.1847000000000001,-9.048493473936775
-0.1857000000000002,-9.25504132371707
-0.1867000000000001,-9.39509774240371
-0.1877000000000002,-9.513933491592372
-0.1887000000000001,-9.661063466778335
-0.1897000000000002,-9.84214651316106
-0.1907000000000001,-10.02181484824392
-0.1917000000000001,-10.122259350534337
-0.19269999999999998,-10.296268840417738
-0.1937000000000001,-10.514134380596953
-0.19469999999999998,-10.642873108884672
-0.1957000000000001,-10.801320774469554
-0.19669999999999999,-10.99938035645066
-0.1977000000000001,-11.197439938431765
-0.1987,-11.34739933621746
-0.1997000000000001,-11.505847001802342
-0.2007,-11.75200676797886
-0.2017000000000001,-11.913283856163474
-0.2027,-12.074560944348088
-0.2037000000000001,-12.32779426702393
-0.2047,-12.525853849005037
-0.2057000000000001,-12.70410747278803
-0.2067,-12.904996477368863
-0.2077000000000001,-13.155400377444975
-0.2087,-13.34780111422662
-0.2097000000000001,-13.492101666812855
-0.2107,-13.755237968587751
-0.2117000000000001,-13.999983023464402
-0.2127,-14.217848563643619
-0.2137000000000001,-14.401761032626075
-0.2147,-14.61396772760583
-0.2157000000000001,-14.896909987578834
-0.2167,-15.10911668255859
-0.21770000000000012,-15.307176264539699
-0.2187,-15.590118524512702
-0.21970000000000012,-15.858913671487063
-0.2207,-16.170150157457368
-0.22170000000000012,-16.396503965435777
-0.2227,-16.665299112410132
-0.22370000000000012,-16.93409425938449
-0.2247,-17.132153841365596
-0.22570000000000012,-17.37265476234265
-0.2267,-17.627302796318357
-0.22770000000000012,-17.896097943292716
-0.22870000000000001,-18.13659886426977
-0.22970000000000013,-18.419541124242777
-0.23070000000000002,-18.80151317520634
-0.23170000000000013,-19.084455435179343
-0.23270000000000002,-19.339103469155052
-0.23370000000000013,-19.65033995512536
-0.23470000000000002,-19.947429328097016
-0.23570000000000013,-20.286960040064624
-0.23670000000000002,-20.52746096104168
-0.2376999999999999,-20.810403221014692
-0.23870000000000002,-21.22066949797555
-0.2396999999999999,-21.531905983945855
-0.24070000000000003,-21.828995356917517
-0.24169999999999991,-22.126084729889175
-0.24270000000000003,-22.522203893851387
-0.24369999999999992,-22.87588171881764
-0.24470000000000003,-23.1163826397947
-0.24569999999999992,-23.49835469075826
-0.24670000000000003,-23.894473854720466
-0.24769999999999992,-24.191563227692125
-0.24870000000000003,-24.502799713662437
-0.24969999999999992,-24.898918877624645
-0.25070000000000003,-25.323332267584156
-0.2516999999999999,-25.60627452755716
-0.25270000000000004,-26.002393691519377
-0.2536999999999999,-26.469248420474838
-0.25470000000000004,-26.780484906445146
-0.2556999999999999,-27.162456957408708
-0.25670000000000004,-27.615164573365515
-0.25769999999999993,-28.02543085032638
-0.25870000000000004,-28.308373110299385
-0.25969999999999993,-28.662050935265643
-0.26070000000000004,-29.100611438223805
-0.26169999999999993,-29.72308441016442
-0.26270000000000004,-30.17579202612123
-0.26369999999999993,-30.487028512091538
-0.26470000000000005,-30.968030354045652
-0.26569999999999994,-31.449032195999767
-0.26670000000000005,-31.83100424696332
-0.26769999999999994,-32.354447427913385
-0.26870000000000005,-32.8354492698675
-0.26969999999999994,-33.01936173884996
-0.27070000000000005,-33.40133378981351
-0.27169999999999994,-33.88233563176763
-0.27270000000000005,-34.193572117737936
-0.27369999999999994,-34.56139705570285
-0.27470000000000006,-35.198017140642115
-0.27569999999999995,-35.735607434590825
-0.27670000000000006,-36.00440258156518
-0.27769999999999995,-36.52784576251525
-0.27870000000000006,-37.178612960453165
-0.27969999999999995,-37.56058501141672
-0.28070000000000006,-38.05573396636949
-0.28169999999999995,-38.706501164307404
-0.28270000000000006,-39.159208780264215
-0.28369999999999995,-39.58362217022373
-0.28470000000000006,-40.177800916167044
-0.28569999999999995,-40.6729498711198
-0.28670000000000007,-40.97003924409146
-0.28769999999999996,-41.52177665103883
-0.28870000000000007,-42.14424962297944
-0.28969999999999996,-42.497927447945706
-0.29070000000000007,-42.89404661190791
-0.29169999999999996,-43.558960922844484
-0.29270000000000007,-44.2097281207824
-0.29369999999999996,-44.605847284744605
-0.2947000000000001,-45.01611356170547
-0.29569999999999996,-45.85079322862584
-0.2967000000000001,-46.41667774857186
-0.29769999999999996,-46.74206134754081
-0.2987000000000001,-47.33624009348412
-0.29969999999999997,-48.04359574341665
-0.3007000000000001,-48.49630335937346
-0.30169999999999997,-49.062187879319474
-0.3027000000000001,-49.79783775524929
-0.30369999999999997,-50.32128093619935
-0.3047000000000001,-50.81642989115212
-0.30569999999999997,-51.594521106077885
-0.3067000000000001,-51.934051818045496
-0.3077,-52.72629014596991
-0.3087000000000001,-53.32046889191324
-0.3097,-53.971236089851146
-0.3107000000000001,-54.76347441777557
-0.3117,-55.28691759872564
-0.3127000000000001,-55.79621366667705
-0.3137,-56.53186354260687
-0.3147000000000001,-57.16848362754614
-0.3157,-57.6919268084962
-0.3167000000000001,-58.45587091042332
-0.3177,-59.17737367335449
-0.3187000000000001,-59.46031593332749
-0.3197,-60.02620045327351
-0.3207000000000001,-60.86088012019388
-0.3217,-61.21455794516014
-0.3227000000000001,-61.72385401311155
-0.3237,-62.72829903601572
-0.3247000000000001,-63.23759510396713
-0.3257,-63.61956715493069
-0.3267000000000001,-64.36936414385917
-0.3277,-65.04842556779438
-0.3287000000000001,-65.7557812177269
-0.3297,-66.34995996367022
-0.3307000000000001,-67.3261107605771
-0.3317,-68.21737887949207
-0.3327000000000001,-69.0096172074165
-0.3337,-69.8301497613382
-0.3347000000000001,-70.45262273327883
-0.3357,-70.91947746223428
-0.3367000000000001,-71.48536198218031
-0.3377,-72.32004164910067
-0.3387000000000001,-72.75860215205884
-0.3397,-73.35278089800215
-0.3407000000000001,-74.30063746891172
-0.3417,-74.7391979718699
-0.3427000000000001,-75.23434692682265
-0.3437,-76.30952751472009
-0.3447000000000001,-77.03103027765125
-0.3457,-77.46959078060941
-0.3467000000000001,-78.34671178652573
-0.3477,-79.30871547043395
-0.3487000000000001,-79.7472759733921
-0.3497,-80.18583647635029
-0.3507000000000001,-81.38834108123557
-0.3517,-82.09569673116808
-0.3527000000000001,-82.47766878213164
-0.3537,-83.52455514403178
-0.3547000000000001,-84.48655882793999
-0.3557,-84.8826779919022
-0.35670000000000013,-85.37782694685497
-0.3577,-86.5378902127443
-0.35870000000000013,-87.30183431467142
-0.3597,-87.54233523564847
-0.36070000000000013,-88.43360335456343
-0.3617,-89.72099063744062
-0.3626999999999999,-90.20199247939475
-0.3637,-90.54152319136236
-0.3646999999999999,-91.56011532726518
-0.3657,-92.6918843671572
-0.3666999999999999,-93.08800353111941
-0.3677,-93.63974093806678
-0.3686999999999999,-94.89883399494667
-0.36970000000000003,-95.69107232287108
-0.3706999999999999,-96.14377993882789
-0.37170000000000003,-97.17651918772938
-0.3726999999999999,-98.29414111462276
-0.37370000000000003,-98.63367182659036
-0.3746999999999999,-99.27029191152963
-0.37570000000000003,-100.5576791944068
-0.3766999999999999,-101.16600505334877
-0.37770000000000004,-101.56212421731098
-0.3786999999999999,-103.14660087315983
-0.37970000000000004,-104.09445744406939
-0.3806999999999999,-105.12719669297088
-0.38170000000000004,-106.07505326388046
-0.38269999999999993,-106.76826180081432
-0.38370000000000004,-107.40488188575358
-0.38469999999999993,-107.95661929270095
-0.38570000000000004,-109.00350565460108
-0.38669999999999993,-108.60738649063886
-0.38570000000000004,-107.09364539978327
-0.38469999999999993,-106.69752623582107
-0.38370000000000004,-105.69308121291688
-0.38269999999999993,-104.22178146105726
-0.38170000000000004,-103.31636622914363
-0.3806999999999999,-102.56656924021516
-0.37970000000000004,-101.18015216634743
-0.3786999999999999,-100.44450229041762
-0.37770000000000004,-99.73714664048508
-0.3766999999999999,-98.81758429557281
-0.37570000000000003,-98.2799940016241
-0.3746999999999999,-97.10578362273613
-0.37370000000000003,-95.86083767885488
-0.3726999999999999,-95.11104068992641
-0.37170000000000003,-94.12074278002089
-0.3706999999999999,-93.49826980808028
-0.36970000000000003,-92.70603148015586
-0.3686999999999999,-91.40449708428001
-0.3677,-90.71128854734616
-0.3666999999999999,-89.69269641144332
-0.3657,-88.53263314555399
-0.3646999999999999,-87.78283615662552
-0.3637,-87.13206895868761
-0.3626999999999999,-85.98615280579692
-0.3617,-84.86853087890354
-0.36070000000000013,-84.27435213296022
-0.3597,-83.45381957903851
-0.35870000000000013,-82.29375631314919
-0.3577,-81.50151798522475
-0.35670000000000013,-81.09125170826391
-0.3557,-80.19998358934893
-0.3547000000000001,-79.23797990544071
-0.3537,-78.65794827249603
-0.3527000000000001,-78.07791663955136
-0.3517,-76.94614759965934
-0.3507000000000001,-76.02658525474708
-0.3497,-75.47484784779972
-0.3487000000000001,-74.7109037458726
-0.3477,-73.6498702709738
-0.3467000000000001,-72.87177905604804
-0.3457,-72.48980700508447
-0.3447000000000001,-71.72586290315735
-0.3437,-70.63653520226127
-0.3427000000000001,-69.90088532633146
-0.3417,-69.50476616236925
-0.3407000000000001,-68.61349804345427
-0.3397,-67.63734724654739
-0.3387000000000001,-66.94413870961354
-0.3377,-66.53387243265267
-0.3367000000000001,-65.40210339276065
-0.3357,-64.59571795183757
-0.3347000000000001,-64.55327661284163
-0.3337,-63.95909786689831
-0.3327000000000001,-63.03953552198603
-0.3317,-62.27559142005891
-0.3307000000000001,-61.48335309213449
-0.3297,-61.07308681517363
-0.3287000000000001,-60.53549652122492
-0.3277,-59.7149639673032
-0.3267000000000001,-59.10663810836124
-0.3257,-58.61148915340847
-0.3247000000000001,-57.67777969549755
-0.3237,-57.04115961055828
-0.3227000000000001,-56.44698086461496
-0.3217,-55.51327140670405
-0.3207000000000001,-54.82006286977017
-0.3197,-54.36735525381336
-0.3187000000000001,-53.49023424789704
-0.3177,-52.68384880697396
-0.3167000000000001,-52.08967006103065
-0.3157,-51.55207976708194
-0.3147000000000001,-50.87301834314672
-0.3137,-50.29298671020206
-0.3127000000000001,-49.995897337230396
-0.3117,-49.387571478288436
-0.3107000000000001,-48.581186037365356
-0.3097,-48.01530151741934
-0.3087000000000001,-47.534299675465235
-0.3077,-46.84109113853137
-0.3067000000000001,-46.048852810606945
-0.30569999999999997,-45.581998081651484
-0.3047000000000001,-45.17173180469062
-0.30369999999999997,-44.4643761547581
-0.3027000000000001,-43.78531473082289
-0.30169999999999997,-43.40334267985933
-0.3007000000000001,-42.95063506390252
-0.29969999999999997,-42.229132300971344
-0.2987000000000001,-41.606659329030734
-0.29769999999999996,-41.281275730061765
-0.2967000000000001,-40.77197966211036
-0.29569999999999996,-40.03632978618054
-0.2947000000000001,-39.39970970124127
-0.29369999999999996,-39.116767441268266
-0.29270000000000007,-38.81967806829661
-0.29169999999999996,-38.22549932235329
-0.29070000000000007,-37.744497480399176
-0.28969999999999996,-37.26349563844507
-0.28870000000000007,-36.78249379649095
-0.28769999999999996,-36.28734484153819
-0.28670000000000007,-35.82049011258273
-0.28569999999999995,-35.38192960962457
-0.28470000000000006,-34.731162411686654
-0.28369999999999995,-34.292601908728486
-0.28270000000000006,-33.924776970763574
-0.28169999999999995,-33.274009772825664
-0.28070000000000006,-32.79300793087155
-0.27969999999999995,-32.41103587990799
-0.27870000000000006,-31.816857133964678
-0.27769999999999995,-31.335855292010564
-0.27670000000000006,-30.953883241047
-0.27569999999999995,-30.45873428609424
-0.27470000000000006,-29.949438218142824
-0.27369999999999994,-29.581613280177915
-0.27270000000000005,-29.213788342213007
-0.27169999999999994,-28.718639387260247
-0.27070000000000005,-28.350814449295335
-0.26969999999999994,-28.082019302320973
-0.26870000000000005,-27.572723234369565
-0.26769999999999994,-27.091721392415455
-0.26670000000000005,-26.667308002455943
-0.26569999999999994,-26.313630177489685
-0.26470000000000005,-25.846775448534224
