Aug. 6, 2024   12:52:20
Linear Sweep Voltammetry
File: c:/users/guazh/data/20240802_batch_500/2024-08-02-exp35\pre-regen-2024-08-06t12_49_16-lsvinphos\pre-regen_lsv_50mvs_efin_-1900mv.bin
Data Source:  Experiment
Instrument Model:  CHI760E
Header: LSV ran at 50 mVs with Efin at -1900mV
Note: 

Init E (V) = -0.6
Final E (V) = -1.9
Scan Rate (V/s) = 0.05
Sample Interval (V) = 0.001
Quiet Time (sec) = 2
Sensitivity (A/V) = 1e-4
Comp R (ohm) = 7.4

Results:

Channel 1:
Ep = -1.192V
ip = 1.349e-4A
Ah = 3.470e-4C

Ep = -1.679V
ip = 4.407e-4A
Ah = 5.586e-4C

Potential/V, Current/A

-0.600, -8.640e-6
-0.601, -7.498e-6
-0.602, -6.945e-6
-0.603, -6.526e-6
-0.604, -6.136e-6
-0.605, -5.766e-6
-0.606, -5.425e-6
-0.607, -5.111e-6
-0.608, -4.804e-6
-0.609, -4.477e-6
-0.610, -4.170e-6
-0.611, -3.879e-6
-0.612, -3.623e-6
-0.613, -3.355e-6
-0.614, -3.071e-6
-0.615, -2.789e-6
-0.616, -2.541e-6
-0.617, -2.303e-6
-0.618, -2.073e-6
-0.619, -1.824e-6
-0.620, -1.578e-6
-0.621, -1.362e-6
-0.622, -1.149e-6
-0.623, -9.479e-7
-0.624, -7.272e-7
-0.625, -5.012e-7
-0.626, -3.100e-7
-0.627, -1.233e-7
-0.628, 5.987e-8
-0.629, 2.550e-7
-0.630, 4.613e-7
-0.631, 6.300e-7
-0.632, 7.925e-7
-0.633, 9.612e-7
-0.634, 1.128e-6
-0.635, 1.315e-6
-0.636, 1.470e-6
-0.637, 1.608e-6
-0.638, 1.756e-6
-0.639, 1.916e-6
-0.640, 2.080e-6
-0.641, 2.223e-6
-0.642, 2.337e-6
-0.643, 2.472e-6
-0.644, 2.620e-6
-0.645, 2.764e-6
-0.646, 2.896e-6
-0.647, 3.005e-6
-0.648, 3.122e-6
-0.649, 3.259e-6
-0.650, 3.395e-6
-0.651, 3.514e-6
-0.652, 3.616e-6
-0.653, 3.723e-6
-0.654, 3.854e-6
-0.655, 3.974e-6
-0.656, 4.084e-6
-0.657, 4.180e-6
-0.658, 4.268e-6
-0.659, 4.390e-6
-0.660, 4.512e-6
-0.661, 4.615e-6
-0.662, 4.707e-6
-0.663, 4.790e-6
-0.664, 4.906e-6
-0.665, 5.026e-6
-0.666, 5.131e-6
-0.667, 5.216e-6
-0.668, 5.294e-6
-0.669, 5.395e-6
-0.670, 5.516e-6
-0.671, 5.604e-6
-0.672, 5.689e-6
-0.673, 5.776e-6
-0.674, 5.873e-6
-0.675, 5.982e-6
-0.676, 6.084e-6
-0.677, 6.151e-6
-0.678, 6.238e-6
-0.679, 6.333e-6
-0.680, 6.444e-6
-0.681, 6.542e-6
-0.682, 6.610e-6
-0.683, 6.696e-6
-0.684, 6.798e-6
-0.685, 6.905e-6
-0.686, 7.002e-6
-0.687, 7.073e-6
-0.688, 7.159e-6
-0.689, 7.259e-6
-0.690, 7.362e-6
-0.691, 7.466e-6
-0.692, 7.544e-6
-0.693, 7.620e-6
-0.694, 7.728e-6
-0.695, 7.837e-6
-0.696, 7.936e-6
-0.697, 8.018e-6
-0.698, 8.096e-6
-0.699, 8.207e-6
-0.700, 8.323e-6
-0.701, 8.421e-6
-0.702, 8.510e-6
-0.703, 8.588e-6
-0.704, 8.702e-6
-0.705, 8.817e-6
-0.706, 8.910e-6
-0.707, 9.006e-6
-0.708, 9.091e-6
-0.709, 9.201e-6
-0.710, 9.328e-6
-0.711, 9.426e-6
-0.712, 9.517e-6
-0.713, 9.613e-6
-0.714, 9.719e-6
-0.715, 9.848e-6
-0.716, 9.962e-6
-0.717, 1.005e-5
-0.718, 1.015e-5
-0.719, 1.026e-5
-0.720, 1.038e-5
-0.721, 1.050e-5
-0.722, 1.060e-5
-0.723, 1.070e-5
-0.724, 1.082e-5
-0.725, 1.095e-5
-0.726, 1.107e-5
-0.727, 1.117e-5
-0.728, 1.128e-5
-0.729, 1.140e-5
-0.730, 1.153e-5
-0.731, 1.166e-5
-0.732, 1.176e-5
-0.733, 1.187e-5
-0.734, 1.200e-5
-0.735, 1.212e-5
-0.736, 1.225e-5
-0.737, 1.236e-5
-0.738, 1.246e-5
-0.739, 1.260e-5
-0.740, 1.274e-5
-0.741, 1.287e-5
-0.742, 1.299e-5
-0.743, 1.310e-5
-0.744, 1.324e-5
-0.745, 1.339e-5
-0.746, 1.351e-5
-0.747, 1.365e-5
-0.748, 1.376e-5
-0.749, 1.389e-5
-0.750, 1.405e-5
-0.751, 1.418e-5
-0.752, 1.430e-5
-0.753, 1.442e-5
-0.754, 1.455e-5
-0.755, 1.471e-5
-0.756, 1.486e-5
-0.757, 1.498e-5
-0.758, 1.511e-5
-0.759, 1.524e-5
-0.760, 1.541e-5
-0.761, 1.555e-5
-0.762, 1.567e-5
-0.763, 1.581e-5
-0.764, 1.594e-5
-0.765, 1.610e-5
-0.766, 1.626e-5
-0.767, 1.639e-5
-0.768, 1.654e-5
-0.769, 1.668e-5
-0.770, 1.683e-5
-0.771, 1.698e-5
-0.772, 1.711e-5
-0.773, 1.724e-5
-0.774, 1.739e-5
-0.775, 1.755e-5
-0.776, 1.770e-5
-0.777, 1.784e-5
-0.778, 1.796e-5
-0.779, 1.811e-5
-0.780, 1.827e-5
-0.781, 1.843e-5
-0.782, 1.857e-5
-0.783, 1.869e-5
-0.784, 1.885e-5
-0.785, 1.901e-5
-0.786, 1.916e-5
-0.787, 1.930e-5
-0.788, 1.943e-5
-0.789, 1.958e-5
-0.790, 1.976e-5
-0.791, 1.990e-5
-0.792, 2.004e-5
-0.793, 2.018e-5
-0.794, 2.032e-5
-0.795, 2.049e-5
-0.796, 2.065e-5
-0.797, 2.078e-5
-0.798, 2.092e-5
-0.799, 2.106e-5
-0.800, 2.123e-5
-0.801, 2.140e-5
-0.802, 2.153e-5
-0.803, 2.167e-5
-0.804, 2.182e-5
-0.805, 2.198e-5
-0.806, 2.214e-5
-0.807, 2.228e-5
-0.808, 2.242e-5
-0.809, 2.257e-5
-0.810, 2.273e-5
-0.811, 2.290e-5
-0.812, 2.303e-5
-0.813, 2.316e-5
-0.814, 2.332e-5
-0.815, 2.349e-5
-0.816, 2.365e-5
-0.817, 2.379e-5
-0.818, 2.393e-5
-0.819, 2.411e-5
-0.820, 2.431e-5
-0.821, 2.445e-5
-0.822, 2.458e-5
-0.823, 2.471e-5
-0.824, 2.487e-5
-0.825, 2.504e-5
-0.826, 2.520e-5
-0.827, 2.534e-5
-0.828, 2.548e-5
-0.829, 2.563e-5
-0.830, 2.580e-5
-0.831, 2.596e-5
-0.832, 2.610e-5
-0.833, 2.625e-5
-0.834, 2.639e-5
-0.835, 2.657e-5
-0.836, 2.673e-5
-0.837, 2.688e-5
-0.838, 2.702e-5
-0.839, 2.718e-5
-0.840, 2.735e-5
-0.841, 2.752e-5
-0.842, 2.766e-5
-0.843, 2.780e-5
-0.844, 2.795e-5
-0.845, 2.813e-5
-0.846, 2.830e-5
-0.847, 2.844e-5
-0.848, 2.859e-5
-0.849, 2.875e-5
-0.850, 2.892e-5
-0.851, 2.911e-5
-0.852, 2.925e-5
-0.853, 2.940e-5
-0.854, 2.957e-5
-0.855, 2.974e-5
-0.856, 2.992e-5
-0.857, 3.008e-5
-0.858, 3.022e-5
-0.859, 3.039e-5
-0.860, 3.057e-5
-0.861, 3.075e-5
-0.862, 3.092e-5
-0.863, 3.106e-5
-0.864, 3.123e-5
-0.865, 3.142e-5
-0.866, 3.160e-5
-0.867, 3.177e-5
-0.868, 3.193e-5
-0.869, 3.210e-5
-0.870, 3.230e-5
-0.871, 3.251e-5
-0.872, 3.267e-5
-0.873, 3.283e-5
-0.874, 3.300e-5
-0.875, 3.320e-5
-0.876, 3.339e-5
-0.877, 3.357e-5
-0.878, 3.374e-5
-0.879, 3.391e-5
-0.880, 3.411e-5
-0.881, 3.432e-5
-0.882, 3.449e-5
-0.883, 3.467e-5
-0.884, 3.485e-5
-0.885, 3.506e-5
-0.886, 3.527e-5
-0.887, 3.545e-5
-0.888, 3.564e-5
-0.889, 3.583e-5
-0.890, 3.604e-5
-0.891, 3.625e-5
-0.892, 3.644e-5
-0.893, 3.663e-5
-0.894, 3.684e-5
-0.895, 3.705e-5
-0.896, 3.728e-5
-0.897, 3.748e-5
-0.898, 3.767e-5
-0.899, 3.788e-5
-0.900, 3.810e-5
-0.901, 3.834e-5
-0.902, 3.855e-5
-0.903, 3.875e-5
-0.904, 3.897e-5
-0.905, 3.921e-5
-0.906, 3.944e-5
-0.907, 3.967e-5
-0.908, 3.988e-5
-0.909, 4.011e-5
-0.910, 4.037e-5
-0.911, 4.061e-5
-0.912, 4.084e-5
-0.913, 4.107e-5
-0.914, 4.130e-5
-0.915, 4.156e-5
-0.916, 4.182e-5
-0.917, 4.206e-5
-0.918, 4.230e-5
-0.919, 4.254e-5
-0.920, 4.281e-5
-0.921, 4.308e-5
-0.922, 4.333e-5
-0.923, 4.357e-5
-0.924, 4.382e-5
-0.925, 4.410e-5
-0.926, 4.439e-5
-0.927, 4.465e-5
-0.928, 4.491e-5
-0.929, 4.518e-5
-0.930, 4.547e-5
-0.931, 4.577e-5
-0.932, 4.604e-5
-0.933, 4.632e-5
-0.934, 4.660e-5
-0.935, 4.691e-5
-0.936, 4.722e-5
-0.937, 4.751e-5
-0.938, 4.780e-5
-0.939, 4.810e-5
-0.940, 4.842e-5
-0.941, 4.875e-5
-0.942, 4.906e-5
-0.943, 4.936e-5
-0.944, 4.967e-5
-0.945, 5.000e-5
-0.946, 5.035e-5
-0.947, 5.068e-5
-0.948, 5.100e-5
-0.949, 5.133e-5
-0.950, 5.168e-5
-0.951, 5.203e-5
-0.952, 5.238e-5
-0.953, 5.273e-5
-0.954, 5.308e-5
-0.955, 5.345e-5
-0.956, 5.383e-5
-0.957, 5.420e-5
-0.958, 5.457e-5
-0.959, 5.494e-5
-0.960, 5.534e-5
-0.961, 5.576e-5
-0.962, 5.615e-5
-0.963, 5.655e-5
-0.964, 5.693e-5
-0.965, 5.736e-5
-0.966, 5.780e-5
-0.967, 5.822e-5
-0.968, 5.864e-5
-0.969, 5.908e-5
-0.970, 5.952e-5
-0.971, 5.999e-5
-0.972, 6.045e-5
-0.973, 6.092e-5
-0.974, 6.139e-5
-0.975, 6.186e-5
-0.976, 6.237e-5
-0.977, 6.287e-5
-0.978, 6.336e-5
-0.979, 6.388e-5
-0.980, 6.440e-5
-0.981, 6.495e-5
-0.982, 6.549e-5
-0.983, 6.602e-5
-0.984, 6.657e-5
-0.985, 6.715e-5
-0.986, 6.773e-5
-0.987, 6.832e-5
-0.988, 6.889e-5
-0.989, 6.949e-5
-0.990, 7.012e-5
-0.991, 7.075e-5
-0.992, 7.139e-5
-0.993, 7.204e-5
-0.994, 7.268e-5
-0.995, 7.336e-5
-0.996, 7.405e-5
-0.997, 7.474e-5
-0.998, 7.543e-5
-0.999, 7.612e-5
-1.000, 7.686e-5
-1.001, 7.762e-5
-1.002, 7.836e-5
-1.003, 7.912e-5
-1.004, 7.989e-5
-1.005, 8.069e-5
-1.006, 8.151e-5
-1.007, 8.232e-5
-1.008, 8.313e-5
-1.009, 8.396e-5
-1.010, 8.482e-5
-1.011, 8.572e-5
-1.012, 8.660e-5
-1.013, 8.748e-5
-1.014, 8.839e-5
-1.015, 8.931e-5
-1.016, 9.028e-5
-1.017, 9.123e-5
-1.018, 9.218e-5
-1.019, 9.315e-5
-1.020, 9.415e-5
-1.021, 9.518e-5
-1.022, 9.621e-5
-1.023, 9.724e-5
-1.024, 9.830e-5
-1.025, 9.938e-5
-1.026, 1.005e-4
-1.027, 1.016e-4
-1.028, 1.027e-4
-1.029, 1.038e-4
-1.030, 1.050e-4
-1.031, 1.061e-4
-1.032, 1.073e-4
-1.033, 1.085e-4
-1.034, 1.097e-4
-1.035, 1.109e-4
-1.036, 1.121e-4
-1.037, 1.134e-4
-1.038, 1.146e-4
-1.039, 1.159e-4
-1.040, 1.172e-4
-1.041, 1.185e-4
-1.042, 1.198e-4
-1.043, 1.212e-4
-1.044, 1.225e-4
-1.045, 1.239e-4
-1.046, 1.252e-4
-1.047, 1.266e-4
-1.048, 1.280e-4
-1.049, 1.294e-4
-1.050, 1.308e-4
-1.051, 1.323e-4
-1.052, 1.337e-4
-1.053, 1.352e-4
-1.054, 1.366e-4
-1.055, 1.381e-4
-1.056, 1.395e-4
-1.057, 1.410e-4
-1.058, 1.425e-4
-1.059, 1.440e-4
-1.060, 1.455e-4
-1.061, 1.470e-4
-1.062, 1.486e-4
-1.063, 1.501e-4
-1.064, 1.516e-4
-1.065, 1.532e-4
-1.066, 1.547e-4
-1.067, 1.562e-4
-1.068, 1.578e-4
-1.069, 1.593e-4
-1.070, 1.609e-4
-1.071, 1.624e-4
-1.072, 1.640e-4
-1.073, 1.655e-4
-1.074, 1.671e-4
-1.075, 1.687e-4
-1.076, 1.702e-4
-1.077, 1.718e-4
-1.078, 1.733e-4
-1.079, 1.748e-4
-1.080, 1.764e-4
-1.081, 1.779e-4
-1.082, 1.794e-4
-1.083, 1.809e-4
-1.084, 1.824e-4
-1.085, 1.839e-4
-1.086, 1.855e-4
-1.087, 1.869e-4
-1.088, 1.884e-4
-1.089, 1.899e-4
-1.090, 1.913e-4
-1.091, 1.928e-4
-1.092, 1.942e-4
-1.093, 1.956e-4
-1.094, 1.970e-4
-1.095, 1.985e-4
-1.096, 1.999e-4
-1.097, 2.012e-4
-1.098, 2.026e-4
-1.099, 2.039e-4
-1.100, 2.052e-4
-1.101, 2.066e-4
-1.102, 2.079e-4
-1.103, 2.092e-4
-1.104, 2.104e-4
-1.105, 2.117e-4
-1.106, 2.129e-4
-1.107, 2.142e-4
-1.108, 2.154e-4
-1.109, 2.166e-4
-1.110, 2.177e-4
-1.111, 2.189e-4
-1.112, 2.200e-4
-1.113, 2.212e-4
-1.114, 2.223e-4
-1.115, 2.234e-4
-1.116, 2.245e-4
-1.117, 2.255e-4
-1.118, 2.266e-4
-1.119, 2.276e-4
-1.120, 2.286e-4
-1.121, 2.296e-4
-1.122, 2.306e-4
-1.123, 2.315e-4
-1.124, 2.325e-4
-1.125, 2.334e-4
-1.126, 2.343e-4
-1.127, 2.352e-4
-1.128, 2.361e-4
-1.129, 2.370e-4
-1.130, 2.378e-4
-1.131, 2.387e-4
-1.132, 2.395e-4
-1.133, 2.403e-4
-1.134, 2.411e-4
-1.135, 2.419e-4
-1.136, 2.427e-4
-1.137, 2.434e-4
-1.138, 2.441e-4
-1.139, 2.448e-4
-1.140, 2.455e-4
-1.141, 2.463e-4
-1.142, 2.469e-4
-1.143, 2.476e-4
-1.144, 2.482e-4
-1.145, 2.489e-4
-1.146, 2.495e-4
-1.147, 2.501e-4
-1.148, 2.507e-4
-1.149, 2.513e-4
-1.150, 2.518e-4
-1.151, 2.524e-4
-1.152, 2.530e-4
-1.153, 2.535e-4
-1.154, 2.540e-4
-1.155, 2.545e-4
-1.156, 2.550e-4
-1.157, 2.555e-4
-1.158, 2.559e-4
-1.159, 2.564e-4
-1.160, 2.568e-4
-1.161, 2.572e-4
-1.162, 2.577e-4
-1.163, 2.581e-4
-1.164, 2.584e-4
-1.165, 2.588e-4
-1.166, 2.592e-4
-1.167, 2.595e-4
-1.168, 2.598e-4
-1.169, 2.601e-4
-1.170, 2.604e-4
-1.171, 2.607e-4
-1.172, 2.610e-4
-1.173, 2.613e-4
-1.174, 2.615e-4
-1.175, 2.617e-4
-1.176, 2.620e-4
-1.177, 2.622e-4
-1.178, 2.624e-4
-1.179, 2.626e-4
-1.180, 2.627e-4
-1.181, 2.629e-4
-1.182, 2.630e-4
-1.183, 2.631e-4
-1.184, 2.632e-4
-1.185, 2.633e-4
-1.186, 2.634e-4
-1.187, 2.635e-4
-1.188, 2.635e-4
-1.189, 2.635e-4
-1.190, 2.635e-4
-1.191, 2.636e-4
-1.192, 2.636e-4
-1.193, 2.635e-4
-1.194, 2.635e-4
-1.195, 2.634e-4
-1.196, 2.634e-4
-1.197, 2.633e-4
-1.198, 2.632e-4
-1.199, 2.631e-4
-1.200, 2.630e-4
-1.201, 2.629e-4
-1.202, 2.628e-4
-1.203, 2.626e-4
-1.204, 2.624e-4
-1.205, 2.623e-4
-1.206, 2.621e-4
-1.207, 2.619e-4
-1.208, 2.617e-4
-1.209, 2.614e-4
-1.210, 2.612e-4
-1.211, 2.610e-4
-1.212, 2.607e-4
-1.213, 2.604e-4
-1.214, 2.601e-4
-1.215, 2.598e-4
-1.216, 2.596e-4
-1.217, 2.593e-4
-1.218, 2.589e-4
-1.219, 2.586e-4
-1.220, 2.582e-4
-1.221, 2.579e-4
-1.222, 2.576e-4
-1.223, 2.572e-4
-1.224, 2.568e-4
-1.225, 2.564e-4
-1.226, 2.561e-4
-1.227, 2.557e-4
-1.228, 2.553e-4
-1.229, 2.549e-4
-1.230, 2.545e-4
-1.231, 2.541e-4
-1.232, 2.537e-4
-1.233, 2.532e-4
-1.234, 2.528e-4
-1.235, 2.523e-4
-1.236, 2.519e-4
-1.237, 2.515e-4
-1.238, 2.510e-4
-1.239, 2.505e-4
-1.240, 2.501e-4
-1.241, 2.496e-4
-1.242, 2.492e-4
-1.243, 2.487e-4
-1.244, 2.482e-4
-1.245, 2.478e-4
-1.246, 2.473e-4
-1.247, 2.469e-4
-1.248, 2.464e-4
-1.249, 2.459e-4
-1.250, 2.454e-4
-1.251, 2.450e-4
-1.252, 2.445e-4
-1.253, 2.440e-4
-1.254, 2.436e-4
-1.255, 2.431e-4
-1.256, 2.427e-4
-1.257, 2.422e-4
-1.258, 2.417e-4
-1.259, 2.413e-4
-1.260, 2.408e-4
-1.261, 2.404e-4
-1.262, 2.399e-4
-1.263, 2.395e-4
-1.264, 2.390e-4
-1.265, 2.386e-4
-1.266, 2.382e-4
-1.267, 2.377e-4
-1.268, 2.373e-4
-1.269, 2.369e-4
-1.270, 2.365e-4
-1.271, 2.360e-4
-1.272, 2.357e-4
-1.273, 2.352e-4
-1.274, 2.348e-4
-1.275, 2.345e-4
-1.276, 2.341e-4
-1.277, 2.337e-4
-1.278, 2.333e-4
-1.279, 2.330e-4
-1.280, 2.326e-4
-1.281, 2.323e-4
-1.282, 2.320e-4
-1.283, 2.316e-4
-1.284, 2.313e-4
-1.285, 2.310e-4
-1.286, 2.306e-4
-1.287, 2.303e-4
-1.288, 2.300e-4
-1.289, 2.297e-4
-1.290, 2.294e-4
-1.291, 2.292e-4
-1.292, 2.289e-4
-1.293, 2.287e-4
-1.294, 2.284e-4
-1.295, 2.281e-4
-1.296, 2.279e-4
-1.297, 2.277e-4
-1.298, 2.275e-4
-1.299, 2.272e-4
-1.300, 2.270e-4
-1.301, 2.268e-4
-1.302, 2.267e-4
-1.303, 2.265e-4
-1.304, 2.263e-4
-1.305, 2.261e-4
-1.306, 2.260e-4
-1.307, 2.259e-4
-1.308, 2.257e-4
-1.309, 2.256e-4
-1.310, 2.254e-4
-1.311, 2.253e-4
-1.312, 2.253e-4
-1.313, 2.252e-4
-1.314, 2.251e-4
-1.315, 2.250e-4
-1.316, 2.249e-4
-1.317, 2.249e-4
-1.318, 2.249e-4
-1.319, 2.248e-4
-1.320, 2.248e-4
-1.321, 2.248e-4
-1.322, 2.247e-4
-1.323, 2.247e-4
-1.324, 2.247e-4
-1.325, 2.248e-4
-1.326, 2.248e-4
-1.327, 2.248e-4
-1.328, 2.249e-4
-1.329, 2.249e-4
-1.330, 2.250e-4
-1.331, 2.251e-4
-1.332, 2.252e-4
-1.333, 2.253e-4
-1.334, 2.253e-4
-1.335, 2.254e-4
-1.336, 2.256e-4
-1.337, 2.257e-4
-1.338, 2.259e-4
-1.339, 2.260e-4
-1.340, 2.262e-4
-1.341, 2.263e-4
-1.342, 2.265e-4
-1.343, 2.267e-4
-1.344, 2.269e-4
-1.345, 2.271e-4
-1.346, 2.273e-4
-1.347, 2.276e-4
-1.348, 2.278e-4
-1.349, 2.280e-4
-1.350, 2.283e-4
-1.351, 2.286e-4
-1.352, 2.289e-4
-1.353, 2.292e-4
-1.354, 2.294e-4
-1.355, 2.298e-4
-1.356, 2.301e-4
-1.357, 2.304e-4
-1.358, 2.308e-4
-1.359, 2.311e-4
-1.360, 2.314e-4
-1.361, 2.318e-4
-1.362, 2.322e-4
-1.363, 2.326e-4
-1.364, 2.330e-4
-1.365, 2.333e-4
-1.366, 2.338e-4
-1.367, 2.342e-4
-1.368, 2.347e-4
-1.369, 2.351e-4
-1.370, 2.355e-4
-1.371, 2.360e-4
-1.372, 2.365e-4
-1.373, 2.370e-4
-1.374, 2.374e-4
-1.375, 2.379e-4
-1.376, 2.385e-4
-1.377, 2.390e-4
-1.378, 2.395e-4
-1.379, 2.401e-4
-1.380, 2.406e-4
-1.381, 2.412e-4
-1.382, 2.418e-4
-1.383, 2.424e-4
-1.384, 2.430e-4
-1.385, 2.435e-4
-1.386, 2.442e-4
-1.387, 2.448e-4
-1.388, 2.454e-4
-1.389, 2.460e-4
-1.390, 2.467e-4
-1.391, 2.474e-4
-1.392, 2.480e-4
-1.393, 2.487e-4
-1.394, 2.493e-4
-1.395, 2.500e-4
-1.396, 2.508e-4
-1.397, 2.515e-4
-1.398, 2.522e-4
-1.399, 2.529e-4
-1.400, 2.536e-4
-1.401, 2.544e-4
-1.402, 2.552e-4
-1.403, 2.559e-4
-1.404, 2.567e-4
-1.405, 2.575e-4
-1.406, 2.583e-4
-1.407, 2.591e-4
-1.408, 2.599e-4
-1.409, 2.607e-4
-1.410, 2.615e-4
-1.411, 2.624e-4
-1.412, 2.633e-4
-1.413, 2.641e-4
-1.414, 2.649e-4
-1.415, 2.658e-4
-1.416, 2.667e-4
-1.417, 2.676e-4
-1.418, 2.685e-4
-1.419, 2.694e-4
-1.420, 2.703e-4
-1.421, 2.712e-4
-1.422, 2.722e-4
-1.423, 2.731e-4
-1.424, 2.741e-4
-1.425, 2.750e-4
-1.426, 2.760e-4
-1.427, 2.770e-4
-1.428, 2.780e-4
-1.429, 2.790e-4
-1.430, 2.800e-4
-1.431, 2.810e-4
-1.432, 2.820e-4
-1.433, 2.831e-4
-1.434, 2.841e-4
-1.435, 2.852e-4
-1.436, 2.862e-4
-1.437, 2.873e-4
-1.438, 2.884e-4
-1.439, 2.894e-4
-1.440, 2.905e-4
-1.441, 2.916e-4
-1.442, 2.928e-4
-1.443, 2.939e-4
-1.444, 2.950e-4
-1.445, 2.961e-4
-1.446, 2.973e-4
-1.447, 2.984e-4
-1.448, 2.996e-4
-1.449, 3.008e-4
-1.450, 3.019e-4
-1.451, 3.031e-4
-1.452, 3.043e-4
-1.453, 3.056e-4
-1.454, 3.068e-4
-1.455, 3.080e-4
-1.456, 3.092e-4
-1.457, 3.105e-4
-1.458, 3.118e-4
-1.459, 3.130e-4
-1.460, 3.143e-4
-1.461, 3.156e-4
-1.462, 3.169e-4
-1.463, 3.182e-4
-1.464, 3.195e-4
-1.465, 3.208e-4
-1.466, 3.221e-4
-1.467, 3.235e-4
-1.468, 3.249e-4
-1.469, 3.262e-4
-1.470, 3.276e-4
-1.471, 3.289e-4
-1.472, 3.303e-4
-1.473, 3.317e-4
-1.474, 3.331e-4
-1.475, 3.346e-4
-1.476, 3.360e-4
-1.477, 3.374e-4
-1.478, 3.389e-4
-1.479, 3.403e-4
-1.480, 3.418e-4
-1.481, 3.433e-4
-1.482, 3.448e-4
-1.483, 3.463e-4
-1.484, 3.478e-4
-1.485, 3.493e-4
-1.486, 3.509e-4
-1.487, 3.525e-4
-1.488, 3.540e-4
-1.489, 3.556e-4
-1.490, 3.571e-4
-1.491, 3.587e-4
-1.492, 3.603e-4
-1.493, 3.619e-4
-1.494, 3.636e-4
-1.495, 3.652e-4
-1.496, 3.668e-4
-1.497, 3.685e-4
-1.498, 3.701e-4
-1.499, 3.718e-4
-1.500, 3.735e-4
-1.501, 3.752e-4
-1.502, 3.769e-4
-1.503, 3.786e-4
-1.504, 3.804e-4
-1.505, 3.821e-4
-1.506, 3.839e-4
-1.507, 3.857e-4
-1.508, 3.874e-4
-1.509, 3.892e-4
-1.510, 3.910e-4
-1.511, 3.928e-4
-1.512, 3.947e-4
-1.513, 3.966e-4
-1.514, 3.984e-4
-1.515, 4.002e-4
-1.516, 4.021e-4
-1.517, 4.041e-4
-1.518, 4.060e-4
-1.519, 4.079e-4
-1.520, 4.098e-4
-1.521, 4.118e-4
-1.522, 4.137e-4
-1.523, 4.157e-4
-1.524, 4.177e-4
-1.525, 4.197e-4
-1.526, 4.217e-4
-1.527, 4.238e-4
-1.528, 4.258e-4
-1.529, 4.279e-4
-1.530, 4.299e-4
-1.531, 4.320e-4
-1.532, 4.342e-4
-1.533, 4.363e-4
-1.534, 4.384e-4
-1.535, 4.405e-4
-1.536, 4.427e-4
-1.537, 4.449e-4
-1.538, 4.471e-4
-1.539, 4.493e-4
-1.540, 4.515e-4
-1.541, 4.537e-4
-1.542, 4.560e-4
-1.543, 4.582e-4
-1.544, 4.605e-4
-1.545, 4.628e-4
-1.546, 4.651e-4
-1.547, 4.675e-4
-1.548, 4.698e-4
-1.549, 4.722e-4
-1.550, 4.746e-4
-1.551, 4.770e-4
-1.552, 4.794e-4
-1.553, 4.818e-4
-1.554, 4.843e-4
-1.555, 4.867e-4
-1.556, 4.892e-4
-1.557, 4.917e-4
-1.558, 4.942e-4
-1.559, 4.968e-4
-1.560, 4.993e-4
-1.561, 5.019e-4
-1.562, 5.045e-4
-1.563, 5.071e-4
-1.564, 5.097e-4
-1.565, 5.124e-4
-1.566, 5.151e-4
-1.567, 5.177e-4
-1.568, 5.204e-4
-1.569, 5.232e-4
-1.570, 5.259e-4
-1.571, 5.287e-4
-1.572, 5.315e-4
-1.573, 5.343e-4
-1.574, 5.371e-4
-1.575, 5.399e-4
-1.576, 5.428e-4
-1.577, 5.457e-4
-1.578, 5.486e-4
-1.579, 5.516e-4
-1.580, 5.545e-4
-1.581, 5.575e-4
-1.582, 5.605e-4
-1.583, 5.635e-4
-1.584, 5.665e-4
-1.585, 5.696e-4
-1.586, 5.727e-4
-1.587, 5.759e-4
-1.588, 5.790e-4
-1.589, 5.822e-4
-1.590, 5.854e-4
-1.591, 5.886e-4
-1.592, 5.919e-4
-1.593, 5.951e-4
-1.594, 5.984e-4
-1.595, 6.017e-4
-1.596, 6.050e-4
-1.597, 6.084e-4
-1.598, 6.118e-4
-1.599, 6.152e-4
-1.600, 6.186e-4
-1.601, 6.221e-4
-1.602, 6.256e-4
-1.603, 6.292e-4
-1.604, 6.327e-4
-1.605, 6.363e-4
-1.606, 6.399e-4
-1.607, 6.435e-4
-1.608, 6.472e-4
-1.609, 6.509e-4
-1.610, 6.546e-4
-1.611, 6.584e-4
-1.612, 6.622e-4
-1.613, 6.660e-4
-1.614, 6.699e-4
-1.615, 6.738e-4
-1.616, 6.777e-4
-1.617, 6.817e-4
-1.618, 6.857e-4
-1.619, 6.897e-4
-1.620, 6.938e-4
-1.621, 6.979e-4
-1.622, 7.021e-4
-1.623, 7.063e-4
-1.624, 7.105e-4
-1.625, 7.147e-4
-1.626, 7.190e-4
-1.627, 7.233e-4
-1.628, 7.276e-4
-1.629, 7.320e-4
-1.630, 7.364e-4
-1.631, 7.407e-4
-1.632, 7.452e-4
-1.633, 7.497e-4
-1.634, 7.543e-4
-1.635, 7.589e-4
-1.636, 7.636e-4
-1.637, 7.683e-4
-1.638, 7.731e-4
-1.639, 7.781e-4
-1.640, 7.830e-4
-1.641, 7.879e-4
-1.642, 7.929e-4
-1.643, 7.979e-4
-1.644, 8.029e-4
-1.645, 8.080e-4
-1.646, 8.132e-4
-1.647, 8.184e-4
-1.648, 8.237e-4
-1.649, 8.290e-4
-1.650, 8.343e-4
-1.651, 8.397e-4
-1.652, 8.452e-4
-1.653, 8.507e-4
-1.654, 8.563e-4
-1.655, 8.619e-4
-1.656, 8.676e-4
-1.657, 8.733e-4
-1.658, 8.791e-4
-1.659, 8.849e-4
-1.660, 8.908e-4
-1.661, 8.968e-4
-1.662, 9.028e-4
-1.663, 9.089e-4
-1.664, 9.151e-4
-1.665, 9.213e-4
-1.666, 9.276e-4
-1.667, 9.339e-4
-1.668, 9.403e-4
-1.669, 9.468e-4
-1.670, 9.535e-4
-1.671, 9.601e-4
-1.672, 9.667e-4
-1.673, 9.735e-4
-1.674, 9.802e-4
-1.675, 9.871e-4
-1.676, 9.940e-4
-1.677, 1.001e-3
-1.678, 1.008e-3
-1.679, 1.011e-3
-1.680, 1.011e-3
-1.681, 1.011e-3
-1.682, 1.011e-3
-1.683, 1.011e-3
-1.684, 1.011e-3
-1.685, 1.011e-3
-1.686, 1.011e-3
-1.687, 1.011e-3
-1.688, 1.011e-3
-1.689, 1.011e-3
-1.690, 1.011e-3
-1.691, 1.011e-3
-1.692, 1.011e-3
-1.693, 1.011e-3
-1.694, 1.011e-3
-1.695, 1.011e-3
-1.696, 1.011e-3
-1.697, 1.011e-3
-1.698, 1.011e-3
-1.699, 1.011e-3
-1.700, 1.011e-3
-1.701, 1.011e-3
-1.702, 1.011e-3
-1.703, 1.011e-3
-1.704, 1.011e-3
-1.705, 1.011e-3
-1.706, 1.011e-3
-1.707, 1.011e-3
-1.708, 1.011e-3
-1.709, 1.011e-3
-1.710, 1.011e-3
-1.711, 1.011e-3
-1.712, 1.011e-3
-1.713, 1.011e-3
-1.714, 1.011e-3
-1.715, 1.011e-3
-1.716, 1.011e-3
-1.717, 1.011e-3
-1.718, 1.011e-3
-1.719, 1.011e-3
-1.720, 1.011e-3
-1.721, 1.011e-3
-1.722, 1.011e-3
-1.723, 1.011e-3
-1.724, 1.011e-3
-1.725, 1.011e-3
-1.726, 1.011e-3
-1.727, 1.011e-3
-1.728, 1.011e-3
-1.729, 1.011e-3
-1.730, 1.011e-3
-1.731, 1.011e-3
-1.732, 1.011e-3
-1.733, 1.011e-3
-1.734, 1.011e-3
-1.735, 1.011e-3
-1.736, 1.011e-3
-1.737, 1.011e-3
-1.738, 1.011e-3
-1.739, 1.011e-3
-1.740, 1.011e-3
-1.741, 1.011e-3
-1.742, 1.011e-3
-1.743, 1.011e-3
-1.744, 1.011e-3
-1.745, 1.011e-3
-1.746, 1.011e-3
-1.747, 1.011e-3
-1.748, 1.011e-3
-1.749, 1.011e-3
-1.750, 1.011e-3
-1.751, 1.011e-3
-1.752, 1.011e-3
-1.753, 1.011e-3
-1.754, 1.011e-3
-1.755, 1.011e-3
-1.756, 1.011e-3
-1.757, 1.011e-3
-1.758, 1.011e-3
-1.759, 1.011e-3
-1.760, 1.011e-3
-1.761, 1.011e-3
-1.762, 1.011e-3
-1.763, 1.011e-3
-1.764, 1.011e-3
-1.765, 1.011e-3
-1.766, 1.011e-3
-1.767, 1.011e-3
-1.768, 1.011e-3
-1.769, 1.011e-3
-1.770, 1.011e-3
-1.771, 1.011e-3
-1.772, 1.011e-3
-1.773, 1.011e-3
-1.774, 1.011e-3
-1.775, 1.011e-3
-1.776, 1.011e-3
-1.777, 1.011e-3
-1.778, 1.011e-3
-1.779, 1.011e-3
-1.780, 1.011e-3
-1.781, 1.011e-3
-1.782, 1.011e-3
-1.783, 1.011e-3
-1.784, 1.011e-3
-1.785, 1.011e-3
-1.786, 1.011e-3
-1.787, 1.011e-3
-1.788, 1.011e-3
-1.789, 1.011e-3
-1.790, 1.011e-3
-1.791, 1.011e-3
-1.792, 1.011e-3
-1.793, 1.011e-3
-1.794, 1.011e-3
-1.795, 1.011e-3
-1.796, 1.011e-3
-1.797, 1.011e-3
-1.798, 1.011e-3
-1.799, 1.011e-3
-1.800, 1.011e-3
-1.801, 1.011e-3
-1.802, 1.011e-3
-1.803, 1.011e-3
-1.804, 1.011e-3
-1.805, 1.011e-3
-1.806, 1.011e-3
-1.807, 1.011e-3
-1.808, 1.011e-3
-1.809, 1.011e-3
-1.810, 1.011e-3
-1.811, 1.011e-3
-1.812, 1.011e-3
-1.813, 1.011e-3
-1.814, 1.011e-3
-1.815, 1.011e-3
-1.816, 1.011e-3
-1.817, 1.011e-3
-1.818, 1.011e-3
-1.819, 1.011e-3
-1.820, 1.011e-3
-1.821, 1.011e-3
-1.822, 1.011e-3
-1.823, 1.011e-3
-1.824, 1.011e-3
-1.825, 1.011e-3
-1.826, 1.011e-3
-1.827, 1.011e-3
-1.828, 1.011e-3
-1.829, 1.011e-3
-1.830, 1.011e-3
-1.831, 1.011e-3
-1.832, 1.011e-3
-1.833, 1.011e-3
-1.834, 1.011e-3
-1.835, 1.011e-3
-1.836, 1.011e-3
-1.837, 1.011e-3
-1.838, 1.011e-3
-1.839, 1.011e-3
-1.840, 1.011e-3
-1.841, 1.011e-3
-1.842, 1.011e-3
-1.843, 1.011e-3
-1.844, 1.011e-3
-1.845, 1.011e-3
-1.846, 1.011e-3
-1.847, 1.011e-3
-1.848, 1.011e-3
-1.849, 1.011e-3
-1.850, 1.011e-3
-1.851, 1.011e-3
-1.852, 1.011e-3
-1.853, 1.011e-3
-1.854, 1.011e-3
-1.855, 1.011e-3
-1.856, 1.011e-3
-1.857, 1.011e-3
-1.858, 1.011e-3
-1.859, 1.011e-3
-1.860, 1.011e-3
-1.861, 1.011e-3
-1.862, 1.011e-3
-1.863, 1.011e-3
-1.864, 1.011e-3
-1.865, 1.011e-3
-1.866, 1.011e-3
-1.867, 1.011e-3
-1.868, 1.011e-3
-1.869, 1.011e-3
-1.870, 1.011e-3
-1.871, 1.011e-3
-1.872, 1.011e-3
-1.873, 1.011e-3
-1.874, 1.011e-3
-1.875, 1.011e-3
-1.876, 1.011e-3
-1.877, 1.011e-3
-1.878, 1.011e-3
-1.879, 1.011e-3
-1.880, 1.011e-3
-1.881, 1.011e-3
-1.882, 1.011e-3
-1.883, 1.011e-3
-1.884, 1.011e-3
-1.885, 1.011e-3
-1.886, 1.011e-3
-1.887, 1.011e-3
-1.888, 1.011e-3
-1.889, 1.011e-3
-1.890, 1.011e-3
-1.891, 1.011e-3
-1.892, 1.011e-3
-1.893, 1.011e-3
-1.894, 1.011e-3
-1.895, 1.011e-3
-1.896, 1.011e-3
-1.897, 1.011e-3
-1.898, 1.011e-3
-1.899, 1.011e-3
