Sept. 3, 2024   19:07:39
Linear Sweep Voltammetry
File: c:/users/guazh/data/20240903_batch_252_500/2024-09-03-exp254\regeneratedgce-2024-09-03t19_04_34-lsvinkoh\regeneratedgce_lsv_50mvs_efin_-1700mv.bin
Data Source:  Experiment
Instrument Model:  CHI760E
Header: LSV ran at 50 mVs with Efin at -1700mV
Note: 

Init E (V) = -0.6
Final E (V) = -1.7
Scan Rate (V/s) = 0.05
Sample Interval (V) = 0.001
Quiet Time (sec) = 2
Sensitivity (A/V) = 1e-4
Comp R (ohm) = 4.0

Results:

Channel 1:

Potential/V, Current/A

-0.600, 2.233e-6
-0.601, 1.780e-6
-0.602, 1.711e-6
-0.603, 1.679e-6
-0.604, 1.665e-6
-0.605, 1.653e-6
-0.606, 1.648e-6
-0.607, 1.648e-6
-0.608, 1.643e-6
-0.609, 6.867e-7
-0.610, 2.879e-8
-0.611, 3.532e-9
-0.612, 2.151e-9
-0.613, 2.052e-9
-0.614, 1.054e-6
-0.615, 6.652e-6
-0.616, 2.755e-6
-0.617, 2.064e-6
-0.618, 1.916e-6
-0.619, 1.849e-6
-0.620, 1.811e-6
-0.621, 1.790e-6
-0.622, 1.777e-6
-0.623, 1.768e-6
-0.624, 1.001e-6
-0.625, 5.908e-8
-0.626, 4.124e-9
-0.627, 1.953e-9
-0.628, 1.756e-9
-0.629, 2.545e-9
-0.630, 5.749e-6
-0.631, 4.409e-6
-0.632, 2.355e-6
-0.633, 2.077e-6
-0.634, 1.968e-6
-0.635, 1.911e-6
-0.636, 1.877e-6
-0.637, 1.853e-6
-0.638, 1.838e-6
-0.639, 1.706e-6
-0.640, 3.800e-7
-0.641, 1.093e-8
-0.642, 3.137e-9
-0.643, 1.263e-9
-0.644, 1.756e-9
-0.645, 8.976e-8
-0.646, 7.572e-6
-0.647, 3.670e-6
-0.648, 2.354e-6
-0.649, 2.136e-6
-0.650, 2.036e-6
-0.651, 1.982e-6
-0.652, 1.948e-6
-0.653, 1.922e-6
-0.654, 1.906e-6
-0.655, 1.687e-6
-0.656, 2.990e-7
-0.657, 8.070e-9
-0.658, 1.855e-9
-0.659, 1.164e-9
-0.660, 3.749e-10
-0.661, 1.661e-6
-0.662, 7.437e-6
-0.663, 3.039e-6
-0.664, 2.317e-6
-0.665, 2.150e-6
-0.666, 2.070e-6
-0.667, 2.021e-6
-0.668, 1.989e-6
-0.669, 1.968e-6
-0.670, 1.957e-6
-0.671, 1.107e-6
-0.672, 6.332e-8
-0.673, 2.940e-9
-0.674, 4.736e-10
-0.675, 1.776e-10
-0.676, 5.434e-8
-0.677, 7.511e-6
-0.678, 3.832e-6
-0.679, 2.463e-6
-0.680, 2.237e-6
-0.681, 2.148e-6
-0.682, 2.094e-6
-0.683, 2.062e-6
-0.684, 2.038e-6
-0.685, 2.019e-6
-0.686, 2.006e-6
-0.687, 1.300e-6
-0.688, 9.272e-8
-0.689, 2.545e-9
-0.690, -1.973e-11
-0.691, -1.204e-9
-0.692, 9.430e-8
-0.693, 7.594e-6
-0.694, 3.793e-6
-0.695, 2.501e-6
-0.696, 2.283e-6
-0.697, 2.190e-6
-0.698, 2.137e-6
-0.699, 2.104e-6
-0.700, 2.081e-6
-0.701, 2.066e-6
-0.702, 1.605e-6
-0.703, 1.774e-7
-0.704, 3.335e-9
-0.705, 9.669e-10
-0.706, -7.103e-10
-0.707, -3.157e-10
-0.708, 6.906e-7
-0.709, 8.615e-6
-0.710, 3.703e-6
-0.711, 2.617e-6
-0.712, 2.402e-6
-0.713, 2.303e-6
-0.714, 2.244e-6
-0.715, 2.207e-6
-0.716, 2.182e-6
-0.717, 2.165e-6
-0.718, 1.752e-6
-0.719, 2.205e-7
-0.720, 4.716e-9
-0.721, 7.893e-11
-0.722, 3.749e-10
-0.723, -2.092e-9
-0.724, 7.197e-6
-0.725, 4.561e-6
-0.726, 2.772e-6
-0.727, 2.497e-6
-0.728, 2.387e-6
-0.729, 2.325e-6
-0.730, 2.286e-6
-0.731, 2.261e-6
-0.732, 2.246e-6
-0.733, 2.239e-6
-0.734, 1.329e-6
-0.735, 7.911e-8
-0.736, 4.736e-10
-0.737, -2.171e-10
-0.738, -2.881e-9
-0.739, 1.030e-6
-0.740, 8.336e-6
-0.741, 3.658e-6
-0.742, 2.740e-6
-0.743, 2.544e-6
-0.744, 2.452e-6
-0.745, 2.402e-6
-0.746, 2.367e-6
-0.747, 2.346e-6
-0.748, 2.333e-6
-0.749, 2.324e-6
-0.750, 1.444e-6
-0.751, 9.242e-8
-0.752, 4.736e-10
-0.753, -1.894e-9
-0.754, -1.500e-9
-0.755, 2.622e-7
-0.756, 8.712e-6
-0.757, 4.221e-6
-0.758, 2.926e-6
-0.759, 2.693e-6
-0.760, 2.588e-6
-0.761, 2.530e-6
-0.762, 2.492e-6
-0.763, 2.466e-6
-0.764, 2.450e-6
-0.765, 2.143e-6
-0.766, 3.533e-7
-0.767, 5.604e-9
-0.768, -1.184e-10
-0.769, -1.894e-9
-0.770, -2.782e-9
-0.771, 4.018e-6
-0.772, 7.782e-6
-0.773, 3.548e-6
-0.774, 2.941e-6
-0.775, 2.760e-6
-0.776, 2.670e-6
-0.777, 2.618e-6
-0.778, 2.583e-6
-0.779, 2.561e-6
-0.780, 2.550e-6
-0.781, 2.538e-6
-0.782, 1.269e-6
-0.783, 5.651e-8
-0.784, 2.762e-10
-0.785, -1.894e-9
-0.786, -4.755e-9
-0.787, -3.571e-9
-0.788, -4.755e-9
-0.789, 4.752e-7
-0.790, 1.157e-5
-0.791, 5.231e-6
-0.792, 3.473e-6
-0.793, 3.122e-6
-0.794, 2.960e-6
-0.795, 2.877e-6
-0.796, 2.827e-6
-0.797, 2.788e-6
-0.798, 2.759e-6
-0.799, 2.242e-6
-0.800, 2.866e-7
-0.801, 2.052e-9
-0.802, -1.302e-9
-0.803, -2.684e-9
-0.804, -2.980e-9
-0.805, 1.614e-6
-0.806, 1.039e-5
-0.807, 4.546e-6
-0.808, 3.404e-6
-0.809, 3.140e-6
-0.810, 3.008e-6
-0.811, 2.935e-6
-0.812, 2.886e-6
-0.813, 2.854e-6
-0.814, 2.793e-6
-0.815, 9.535e-7
-0.816, 2.672e-8
-0.817, -1.105e-9
-0.818, -3.867e-9
-0.819, -3.177e-9
-0.820, -3.670e-9
-0.821, 5.844e-6
-0.822, 8.682e-6
-0.823, 4.119e-6
-0.824, 3.451e-6
-0.825, 3.232e-6
-0.826, 3.114e-6
-0.827, 3.047e-6
-0.828, 3.002e-6
-0.829, 2.972e-6
-0.830, 2.954e-6
-0.831, 1.736e-6
-0.832, 1.022e-7
-0.833, 3.749e-10
-0.834, -2.190e-9
-0.835, -2.289e-9
-0.836, -3.867e-9
-0.837, 6.847e-6
-0.838, 8.089e-6
-0.839, 4.133e-6
-0.840, 3.552e-6
-0.841, 3.352e-6
-0.842, 3.245e-6
-0.843, 3.180e-6
-0.844, 3.133e-6
-0.845, 3.103e-6
-0.846, 3.076e-6
-0.847, 1.400e-6
-0.848, 5.592e-8
-0.849, 8.682e-10
-0.850, -1.796e-9
-0.851, -3.670e-9
-0.852, 2.530e-7
-0.853, 1.110e-5
-0.854, 5.716e-6
-0.855, 3.916e-6
-0.856, 3.567e-6
-0.857, 3.416e-6
-0.858, 3.326e-6
-0.859, 3.273e-6
-0.860, 3.241e-6
-0.861, 3.218e-6
-0.862, 2.764e-6
-0.863, 4.218e-7
-0.864, 5.407e-9
-0.865, -8.090e-10
-0.866, -3.571e-9
-0.867, -4.065e-9
-0.868, -5.939e-9
-0.869, 2.676e-6
-0.870, 1.274e-5
-0.871, 5.531e-6
-0.872, 4.156e-6
-0.873, 3.812e-6
-0.874, 3.636e-6
-0.875, 3.536e-6
-0.876, 3.472e-6
-0.877, 3.430e-6
-0.878, 3.400e-6
-0.879, 3.380e-6
-0.880, 3.362e-6
-0.881, 1.585e-6
-0.882, 6.579e-8
-0.883, -8.090e-10
-0.884, -2.684e-9
-0.885, -3.867e-9
-0.886, 4.491e-6
-0.887, 1.028e-5
-0.888, 4.872e-6
-0.889, 4.020e-6
-0.890, 3.768e-6
-0.891, 3.645e-6
-0.892, 3.575e-6
-0.893, 3.530e-6
-0.894, 3.498e-6
-0.895, 3.447e-6
-0.896, 1.346e-6
-0.897, 4.566e-8
-0.898, -1.105e-9
-0.899, -2.980e-9
-0.900, -3.670e-9
-0.901, -5.742e-9
-0.902, 6.648e-6
-0.903, 1.077e-5
-0.904, 5.126e-6
-0.905, 4.242e-6
-0.906, 3.959e-6
-0.907, 3.812e-6
-0.908, 3.721e-6
-0.909, 3.662e-6
-0.910, 3.619e-6
-0.911, 3.559e-6
-0.912, 1.385e-6
-0.913, 4.576e-8
-0.914, -1.204e-9
-0.915, -2.486e-9
-0.916, -4.163e-9
-0.917, -1.006e-9
-0.918, 1.191e-5
-0.919, 7.473e-6
-0.920, 4.653e-6
-0.921, 4.151e-6
-0.922, 3.941e-6
-0.923, 3.824e-6
-0.924, 3.747e-6
-0.925, 3.696e-6
-0.926, 3.663e-6
-0.927, 3.244e-6
-0.928, 5.705e-7
-0.929, 8.860e-9
-0.930, -1.006e-9
-0.931, -4.558e-9
-0.932, -4.854e-9
-0.933, 7.175e-6
-0.934, 1.005e-5
-0.935, 5.072e-6
-0.936, 4.293e-6
-0.937, 4.034e-6
-0.938, 3.896e-6
-0.939, 3.815e-6
-0.940, 3.758e-6
-0.941, 3.719e-6
-0.942, 3.366e-6
-0.943, 6.523e-7
-0.944, 1.014e-8
-0.945, -1.894e-9
-0.946, -5.347e-9
-0.947, -5.249e-9
-0.948, -6.235e-9
-0.949, 1.111e-5
-0.950, 8.892e-6
-0.951, 5.033e-6
-0.952, 4.387e-6
-0.953, 4.134e-6
-0.954, 3.994e-6
-0.955, 3.904e-6
-0.956, 3.841e-6
-0.957, 3.796e-6
-0.958, 3.763e-6
-0.959, 3.738e-6
-0.960, 3.721e-6
-0.961, 3.709e-6
-0.962, 3.691e-6
-0.963, 3.680e-6
-0.964, 3.669e-6
-0.965, 3.659e-6
-0.966, 3.016e-6
-0.967, 3.938e-7
-0.968, 3.335e-9
-0.969, -3.374e-9
-0.970, -4.262e-9
-0.971, -7.222e-9
-0.972, 1.589e-6
-0.973, 1.367e-5
-0.974, 6.391e-6
-0.975, 4.664e-6
-0.976, 4.258e-6
-0.977, 4.071e-6
-0.978, 3.966e-6
-0.979, 3.902e-6
-0.980, 3.855e-6
-0.981, 3.816e-6
-0.982, 2.603e-6
-0.983, 2.042e-7
-0.984, 7.893e-11
-0.985, -3.867e-9
-0.986, -6.137e-9
-0.987, -6.433e-9
-0.988, 7.110e-6
-0.989, 1.098e-5
-0.990, 5.446e-6
-0.991, 4.538e-6
-0.992, 4.233e-6
-0.993, 4.077e-6
-0.994, 3.979e-6
-0.995, 3.915e-6
-0.996, 3.873e-6
-0.997, 3.705e-6
-0.998, 1.043e-6
-0.999, 2.445e-8
-1.000, -1.993e-9
-1.001, -4.755e-9
-1.002, -6.433e-9
-1.003, 9.590e-7
-1.004, 1.369e-5
-1.005, 6.749e-6
-1.006, 4.809e-6
-1.007, 4.373e-6
-1.008, 4.164e-6
-1.009, 4.042e-6
-1.010, 3.960e-6
-1.011, 3.906e-6
-1.012, 3.869e-6
-1.013, 2.691e-6
-1.014, 2.196e-7
-1.015, -2.171e-10
-1.016, -5.545e-9
-1.017, -6.235e-9
-1.018, -8.110e-9
-1.019, 1.183e-6
-1.020, 1.443e-5
-1.021, 6.965e-6
-1.022, 4.947e-6
-1.023, 4.479e-6
-1.024, 4.271e-6
-1.025, 4.142e-6
-1.026, 4.052e-6
-1.027, 3.987e-6
-1.028, 3.938e-6
-1.029, 3.840e-6
-1.030, 1.294e-6
-1.031, 3.530e-8
-1.032, -4.163e-9
-1.033, -5.545e-9
-1.034, -7.518e-9
-1.035, 4.982e-6
-1.036, 1.191e-5
-1.037, 5.757e-6
-1.038, 4.677e-6
-1.039, 4.348e-6
-1.040, 4.183e-6
-1.041, 4.084e-6
-1.042, 4.016e-6
-1.043, 3.969e-6
-1.044, 3.732e-6
-1.045, 9.052e-7
-1.046, 1.685e-8
-1.047, -2.782e-9
-1.048, -5.841e-9
-1.049, -6.433e-9
-1.050, 9.402e-7
-1.051, 1.424e-5
-1.052, 7.077e-6
-1.053, 5.011e-6
-1.054, 4.542e-6
-1.055, 4.324e-6
-1.056, 4.200e-6
-1.057, 4.117e-6
-1.058, 4.057e-6
-1.059, 4.018e-6
-1.060, 3.329e-6
-1.061, 4.497e-7
-1.062, 3.729e-9
-1.063, -3.571e-9
-1.064, -5.841e-9
-1.065, -6.729e-9
-1.066, 4.052e-6
-1.067, 1.353e-5
-1.068, 6.308e-6
-1.069, 4.928e-6
-1.070, 4.536e-6
-1.071, 4.336e-6
-1.072, 4.220e-6
-1.073, 4.146e-6
-1.074, 4.094e-6
-1.075, 4.060e-6
-1.076, 2.006e-6
-1.077, 8.779e-8
-1.078, -2.782e-9
-1.079, -6.729e-9
-1.080, -7.222e-9
-1.081, -8.702e-9
-1.082, -9.195e-9
-1.083, -1.008e-8
-1.084, 5.982e-6
-1.085, 1.633e-5
-1.086, 7.151e-6
-1.087, 5.407e-6
-1.088, 4.886e-6
-1.089, 4.617e-6
-1.090, 4.448e-6
-1.091, 4.340e-6
-1.092, 4.259e-6
-1.093, 4.200e-6
-1.094, 4.158e-6
-1.095, 3.601e-6
-1.096, 5.760e-7
-1.097, 5.703e-9
-1.098, -4.755e-9
-1.099, -8.011e-9
-1.100, -9.096e-9
-1.101, 7.766e-6
-1.102, 1.163e-5
-1.103, 5.887e-6
-1.104, 4.913e-6
-1.105, 4.583e-6
-1.106, 4.403e-6
-1.107, 4.297e-6
-1.108, 4.228e-6
-1.109, 4.177e-6
-1.110, 4.127e-6
-1.111, 1.758e-6
-1.112, 6.135e-8
-1.113, -3.769e-9
-1.114, -6.334e-9
-1.115, -6.531e-9
-1.116, 3.267e-7
-1.117, 1.456e-5
-1.118, 7.891e-6
-1.119, 5.305e-6
-1.120, 4.764e-6
-1.121, 4.523e-6
-1.122, 4.381e-6
-1.123, 4.294e-6
-1.124, 4.232e-6
-1.125, 4.189e-6
-1.126, 3.170e-6
-1.127, 3.225e-7
-1.128, 4.736e-10
-1.129, -5.643e-9
-1.130, -5.939e-9
-1.131, -8.110e-9
-1.132, 4.139e-6
-1.133, 1.456e-5
-1.134, 6.721e-6
-1.135, 5.174e-6
-1.136, 4.737e-6
-1.137, 4.521e-6
-1.138, 4.390e-6
-1.139, 4.308e-6
-1.140, 4.252e-6
-1.141, 4.147e-6
-1.142, 1.397e-6
-1.143, 3.717e-8
-1.144, -4.361e-9
-1.145, -6.630e-9
-1.146, -8.208e-9
-1.147, -9.392e-9
-1.148, 1.602e-6
-1.149, 1.673e-5
-1.150, 7.912e-6
-1.151, 5.516e-6
-1.152, 4.937e-6
-1.153, 4.665e-6
-1.154, 4.502e-6
-1.155, 4.402e-6
-1.156, 4.331e-6
-1.157, 4.281e-6
-1.158, 3.920e-6
-1.159, 8.082e-7
-1.160, 1.231e-8
-1.161, -5.150e-9
-1.162, -7.222e-9
-1.163, -9.096e-9
-1.164, 5.318e-7
-1.165, 1.565e-5
-1.166, 8.175e-6
-1.167, 5.503e-6
-1.168, 4.924e-6
-1.169, 4.669e-6
-1.170, 4.527e-6
-1.171, 4.435e-6
-1.172, 4.367e-6
-1.173, 4.317e-6
-1.174, 4.280e-6
-1.175, 4.252e-6
-1.176, 4.235e-6
-1.177, 4.219e-6
-1.178, 4.212e-6
-1.179, 4.197e-6
-1.180, 4.189e-6
-1.181, 4.177e-6
-1.182, 4.168e-6
-1.183, 4.160e-6
-1.184, 4.153e-6
-1.185, 4.148e-6
-1.186, 4.142e-6
-1.187, 4.139e-6
-1.188, 4.136e-6
-1.189, 4.131e-6
-1.190, 4.126e-6
-1.191, 4.123e-6
-1.192, 4.118e-6
-1.193, 4.114e-6
-1.194, 2.019e-6
-1.195, 8.473e-8
-1.196, -5.249e-9
-1.197, -8.208e-9
-1.198, -9.787e-9
-1.199, 2.011e-6
-1.200, 1.477e-5
-1.201, 7.077e-6
-1.202, 5.221e-6
-1.203, 4.775e-6
-1.204, 4.564e-6
-1.205, 4.441e-6
-1.206, 4.369e-6
-1.207, 4.318e-6
-1.208, 4.284e-6
-1.209, 3.022e-6
-1.210, 2.539e-7
-1.211, -1.993e-9
-1.212, -7.814e-9
-1.213, -9.886e-9
-1.214, -1.127e-8
-1.215, 7.473e-6
-1.216, 1.334e-5
-1.217, 6.441e-6
-1.218, 5.240e-6
-1.219, 4.857e-6
-1.220, 4.665e-6
-1.221, 4.548e-6
-1.222, 4.473e-6
-1.223, 4.423e-6
-1.224, 4.320e-6
-1.225, 1.453e-6
-1.226, 3.717e-8
-1.227, -6.235e-9
-1.228, -8.702e-9
-1.229, -9.491e-9
-1.230, -9.886e-9
-1.231, 1.047e-5
-1.232, 1.258e-5
-1.233, 6.400e-6
-1.234, 5.335e-6
-1.235, 4.963e-6
-1.236, 4.771e-6
-1.237, 4.654e-6
-1.238, 4.583e-6
-1.239, 4.529e-6
-1.240, 4.174e-6
-1.241, 8.911e-7
-1.242, 1.271e-8
-1.243, -5.545e-9
-1.244, -8.998e-9
-1.245, -9.491e-9
-1.246, -4.459e-9
-1.247, 1.528e-5
-1.248, 1.004e-5
-1.249, 6.066e-6
-1.250, 5.317e-6
-1.251, 5.012e-6
-1.252, 4.846e-6
-1.253, 4.742e-6
-1.254, 4.681e-6
-1.255, 4.638e-6
-1.256, 3.643e-6
-1.257, 4.104e-7
-1.258, 2.762e-10
-1.259, -7.912e-9
-1.260, -9.688e-9
-1.261, -9.984e-9
-1.262, -1.206e-8
-1.263, 1.349e-5
-1.264, 1.231e-5
-1.265, 6.615e-6
-1.266, 5.622e-6
-1.267, 5.259e-6
-1.268, 5.072e-6
-1.269, 4.960e-6
-1.270, 4.895e-6
-1.271, 4.853e-6
-1.272, 4.827e-6
-1.273, 4.009e-6
-1.274, 5.383e-7
-1.275, 3.039e-9
-1.276, -6.235e-9
-1.277, -9.688e-9
-1.278, -1.127e-8
-1.279, 4.100e-6
-1.280, 1.724e-5
-1.281, 8.003e-6
-1.282, 6.086e-6
-1.283, 5.613e-6
-1.284, 5.397e-6
-1.285, 5.282e-6
-1.286, 5.220e-6
-1.287, 5.180e-6
-1.288, 5.144e-6
-1.289, 2.261e-6
-1.290, 8.374e-8
-1.291, -4.065e-9
-1.292, -8.406e-9
-1.293, -9.984e-9
-1.294, -1.137e-8
-1.295, 1.171e-5
-1.296, 1.462e-5
-1.297, 7.501e-6
-1.298, 6.307e-6
-1.299, 5.925e-6
-1.300, 5.740e-6
-1.301, 5.638e-6
-1.302, 5.581e-6
-1.303, 5.547e-6
-1.304, 4.836e-6
-1.305, 7.791e-7
-1.306, 9.057e-9
-1.307, -5.841e-9
-1.308, -8.603e-9
-1.309, -1.018e-8
-1.310, -1.215e-8
-1.311, 1.685e-5
-1.312, 1.349e-5
-1.313, 7.679e-6
-1.314, 6.665e-6
-1.315, 6.295e-6
-1.316, 6.116e-6
-1.317, 6.016e-6
-1.318, 5.949e-6
-1.319, 5.910e-6
-1.320, 5.573e-6
-1.321, 1.344e-6
-1.322, 2.622e-8
-1.323, -5.446e-9
-1.324, -8.998e-9
-1.325, 3.783e-7
-1.326, 1.878e-5
-1.327, 1.070e-5
-1.328, 7.329e-6
-1.329, 6.692e-6
-1.330, 6.436e-6
-1.331, 6.313e-6
-1.332, 6.242e-6
-1.333, 6.206e-6
-1.334, 6.188e-6
-1.335, 4.621e-6
-1.336, 4.515e-7
-1.337, 1.657e-9
-1.338, -7.025e-9
-1.339, -9.392e-9
-1.340, -1.196e-8
-1.341, 4.313e-6
-1.342, 2.227e-5
-1.343, 1.042e-5
-1.344, 7.822e-6
-1.345, 7.223e-6
-1.346, 6.967e-6
-1.347, 6.838e-6
-1.348, 6.768e-6
-1.349, 6.729e-6
-1.350, 6.710e-6
-1.351, 5.301e-6
-1.352, 6.086e-7
-1.353, 4.223e-9
-1.354, -7.123e-9
-1.355, -9.195e-9
-1.356, -1.097e-8
-1.357, 1.660e-5
-1.358, 1.631e-5
-1.359, 9.125e-6
-1.360, 7.972e-6
-1.361, 7.599e-6
-1.362, 7.433e-6
-1.363, 7.354e-6
-1.364, 7.319e-6
-1.365, 7.305e-6
-1.366, 7.310e-6
-1.367, 5.945e-6
-1.368, 7.434e-7
-1.369, 6.689e-9
-1.370, -5.742e-9
-1.371, -8.110e-9
-1.372, -1.067e-8
-1.373, 1.533e-6
-1.374, 2.658e-5
-1.375, 1.352e-5
-1.376, 9.445e-6
-1.377, 8.664e-6
-1.378, 8.365e-6
-1.379, 8.230e-6
-1.380, 8.156e-6
-1.381, 8.128e-6
-1.382, 8.122e-6
-1.383, 7.353e-6
-1.384, 1.395e-6
-1.385, 2.543e-8
-1.386, -1.401e-9
-1.387, -7.123e-9
-1.388, -1.008e-8
-1.389, 4.395e-6
-1.390, 2.790e-5
-1.391, 1.340e-5
-1.392, 1.011e-5
-1.393, 9.437e-6
-1.394, 9.168e-6
-1.395, 9.053e-6
-1.396, 9.002e-6
-1.397, 8.987e-6
-1.398, 9.000e-6
-1.399, 9.016e-6
-1.400, 7.165e-6
-1.401, 8.412e-7
-1.402, 1.271e-8
-1.403, -3.078e-9
-1.404, -7.518e-9
-1.405, -9.787e-9
-1.406, 2.171e-5
-1.407, 2.083e-5
-1.408, 1.198e-5
-1.409, 1.065e-5
-1.410, 1.025e-5
-1.411, 1.008e-5
-1.412, 9.994e-6
-1.413, 9.953e-6
-1.414, 9.937e-6
-1.415, 9.088e-6
-1.416, 1.832e-6
-1.417, 3.984e-8
-1.418, 7.695e-10
-1.419, -6.235e-9
-1.420, -8.899e-9
-1.421, 1.040e-5
-1.422, 3.016e-5
-1.423, 1.462e-5
-1.424, 1.187e-5
-1.425, 1.124e-5
-1.426, 1.097e-5
-1.427, 1.084e-5
-1.428, 1.077e-5
-1.429, 1.073e-5
-1.430, 1.066e-5
-1.431, 4.491e-6
-1.432, 1.801e-7
-1.433, 4.025e-9
-1.434, -3.177e-9
-1.435, -7.123e-9
-1.436, -9.195e-9
-1.437, 2.608e-5
-1.438, 2.487e-5
-1.439, 1.410e-5
-1.440, 1.248e-5
-1.441, 1.199e-5
-1.442, 1.175e-5
-1.443, 1.163e-5
-1.444, 1.156e-5
-1.445, 1.151e-5
-1.446, 1.143e-5
-1.447, 4.672e-6
-1.448, 1.862e-7
-1.449, 6.886e-9
-1.450, -2.092e-9
-1.451, -5.446e-9
-1.452, -8.110e-9
-1.453, 3.143e-5
-1.454, 2.416e-5
-1.455, 1.466e-5
-1.456, 1.323e-5
-1.457, 1.275e-5
-1.458, 1.252e-5
-1.459, 1.240e-5
-1.460, 1.234e-5
-1.461, 1.230e-5
-1.462, 1.227e-5
-1.463, 5.859e-6
-1.464, 2.780e-7
-1.465, 9.353e-9
-1.466, 7.893e-11
-1.467, -5.249e-9
-1.468, -9.077e-10
-1.469, 3.523e-5
-1.470, 2.434e-5
-1.471, 1.540e-5
-1.472, 1.406e-5
-1.473, 1.361e-5
-1.474, 1.340e-5
-1.475, 1.329e-5
-1.476, 1.324e-5
-1.477, 1.322e-5
-1.478, 1.155e-5
-1.479, 1.925e-6
-1.480, 4.546e-8
-1.481, 5.308e-9
-1.482, -3.078e-9
-1.483, -6.630e-9
-1.484, 2.541e-6
-1.485, 4.379e-5
-1.486, 2.252e-5
-1.487, 1.615e-5
-1.488, 1.508e-5
-1.489, 1.469e-5
-1.490, 1.450e-5
-1.491, 1.441e-5
-1.492, 1.436e-5
-1.493, 1.435e-5
-1.494, 1.229e-5
-1.495, 1.902e-6
-1.496, 4.832e-8
-1.497, 7.182e-9
-1.498, -1.204e-9
-1.499, -4.854e-9
-1.500, 3.215e-5
-1.501, 3.140e-5
-1.502, 1.829e-5
-1.503, 1.650e-5
-1.504, 1.599e-5
-1.505, 1.578e-5
-1.506, 1.571e-5
-1.507, 1.568e-5
-1.508, 1.568e-5
-1.509, 1.395e-5
-1.510, 2.509e-6
-1.511, 6.638e-8
-1.512, 9.156e-9
-1.513, 1.776e-10
-1.514, -5.150e-9
-1.515, 8.651e-7
-1.516, 4.956e-5
-1.517, 2.820e-5
-1.518, 1.946e-5
-1.519, 1.816e-5
-1.520, 1.773e-5
-1.521, 1.754e-5
-1.522, 1.745e-5
-1.523, 1.743e-5
-1.524, 1.745e-5
-1.525, 1.682e-5
-1.526, 4.735e-6
-1.527, 1.582e-7
-1.528, 1.586e-8
-1.529, 3.729e-9
-1.530, -2.092e-9
-1.531, 7.873e-6
-1.532, 5.358e-5
-1.533, 2.660e-5
-1.534, 2.089e-5
-1.535, 1.992e-5
-1.536, 1.958e-5
-1.537, 1.944e-5
-1.538, 1.942e-5
-1.539, 1.946e-5
-1.540, 1.951e-5
-1.541, 1.499e-5
-1.542, 1.694e-6
-1.543, 5.000e-8
-1.544, 1.369e-8
-1.545, 1.362e-9
-1.546, -2.782e-9
-1.547, 9.796e-6
-1.548, 6.017e-5
-1.549, 2.983e-5
-1.550, 2.362e-5
-1.551, 2.257e-5
-1.552, 2.223e-5
-1.553, 2.209e-5
-1.554, 2.208e-5
-1.555, 2.213e-5
-1.556, 2.222e-5
-1.557, 1.718e-5
-1.558, 1.993e-6
-1.559, 6.253e-8
-1.560, 1.517e-8
-1.561, 3.335e-9
-1.562, -1.006e-9
-1.563, 2.275e-5
-1.564, 6.072e-5
-1.565, 3.098e-5
-1.566, 2.642e-5
-1.567, 2.559e-5
-1.568, 2.532e-5
-1.569, 2.526e-5
-1.570, 2.529e-5
-1.571, 2.537e-5
-1.572, 2.546e-5
-1.573, 1.253e-5
-1.574, 6.938e-7
-1.575, 3.994e-8
-1.576, 1.498e-8
-1.577, 5.012e-9
-1.578, 8.091e-7
-1.579, 6.906e-5
-1.580, 4.292e-5
-1.581, 3.098e-5
-1.582, 2.940e-5
-1.583, 2.898e-5
-1.584, 2.886e-5
-1.585, 2.890e-5
-1.586, 2.901e-5
-1.587, 2.917e-5
-1.588, 2.138e-5
-1.589, 2.232e-6
-1.590, 8.088e-8
-1.591, 2.642e-8
-1.592, 1.054e-8
-1.593, 2.743e-9
-1.594, 6.998e-6
-1.595, 8.383e-5
-1.596, 4.534e-5
-1.597, 3.538e-5
-1.598, 3.394e-5
-1.599, 3.355e-5
-1.600, 3.347e-5
-1.601, 3.357e-5
-1.602, 3.375e-5
-1.603, 3.397e-5
-1.604, 2.128e-5
-1.605, 1.689e-6
-1.606, 8.098e-8
-1.607, 3.126e-8
-1.608, 1.409e-8
-1.609, 6.196e-9
-1.610, 7.303e-5
-1.611, 6.155e-5
-1.612, 4.169e-5
-1.613, 3.927e-5
-1.614, 3.876e-5
-1.615, 3.867e-5
-1.616, 3.878e-5
-1.617, 3.900e-5
-1.618, 3.925e-5
-1.619, 3.586e-5
-1.620, 7.561e-6
-1.621, 2.782e-7
-1.622, 5.188e-8
-1.623, 2.474e-8
-1.624, 1.271e-8
-1.625, 6.883e-5
-1.626, 7.376e-5
-1.627, 4.836e-5
-1.628, 4.528e-5
-1.629, 4.473e-5
-1.630, 4.468e-5
-1.631, 4.485e-5
-1.632, 4.515e-5
-1.633, 4.550e-5
-1.634, 4.504e-5
-1.635, 1.601e-5
-1.636, 7.485e-7
-1.637, 7.516e-8
-1.638, 3.540e-8
-1.639, 1.981e-8
-1.640, 1.103e-8
-1.641, 8.020e-5
-1.642, 8.718e-5
-1.643, 5.714e-5
-1.644, 5.343e-5
-1.645, 5.274e-5
-1.646, 5.267e-5
-1.647, 5.287e-5
-1.648, 5.320e-5
-1.649, 5.362e-5
-1.650, 5.092e-5
-1.651, 1.334e-5
-1.652, 5.668e-7
-1.653, 8.552e-8
-1.654, 4.270e-8
-1.655, 2.415e-8
-1.656, 3.273e-5
-1.657, 1.217e-4
-1.658, 7.139e-5
-1.659, 6.275e-5
-1.660, 6.155e-5
-1.661, 6.141e-5
-1.662, 6.165e-5
-1.663, 6.208e-5
-1.664, 6.260e-5
-1.665, 6.307e-5
-1.666, 3.130e-5
-1.667, 2.052e-6
-1.668, 1.417e-7
-1.669, 6.332e-8
-1.670, 3.599e-8
-1.671, 8.453e-8
-1.672, 1.222e-4
-1.673, 1.002e-4
-1.674, 7.539e-5
-1.675, 7.246e-5
-1.676, 7.203e-5
-1.677, 7.225e-5
-1.678, 7.272e-5
-1.679, 7.335e-5
-1.680, 7.406e-5
-1.681, 6.314e-5
-1.682, 1.089e-5
-1.683, 4.533e-7
-1.684, 1.045e-7
-1.685, 5.622e-8
-1.686, 3.481e-8
-1.687, 2.395e-8
-1.688, 2.530e-5
-1.689, 1.677e-4
-1.690, 1.031e-4
-1.691, 8.846e-5
-1.692, 8.653e-5
-1.693, 8.640e-5
-1.694, 8.682e-5
-1.695, 8.753e-5
-1.696, 8.839e-5
-1.697, 8.856e-5
-1.698, 3.759e-5
-1.699, 2.335e-6
