Apr. 19, 2025   05:47:10
Linear Sweep Voltammetry
File: c:/users/guazh/data/banditlqround7_x0exp590_r20/2025-04-16-exp1124\1acid_1ac-2025-04-19t05_44_00-lsvinphos\1acid_1ac_lsv_50mvs_efin_-2100mv.bin
Data Source:  Experiment
Instrument Model:  CHI760E
Header: LSV ran at 50 mVs with Efin at -2100mV
Note: 

Init E (V) = -0.6
Final E (V) = -2.1
Scan Rate (V/s) = 0.05
Sample Interval (V) = 0.001
Quiet Time (sec) = 2
Sensitivity (A/V) = 1e-4
Comp R (ohm) = 9.8

Results:

Channel 1:
Ep = -1.407V
ip = 5.733e-4A
Ah = 7.636e-4C

Potential/V, Current/A

-0.600, 7.032e-5
-0.601, 7.067e-5
-0.602, 7.113e-5
-0.603, 7.149e-5
-0.604, 7.171e-5
-0.605, 7.187e-5
-0.606, 7.184e-5
-0.607, 7.179e-5
-0.608, 7.180e-5
-0.609, 7.201e-5
-0.610, 7.216e-5
-0.611, 7.201e-5
-0.612, 7.188e-5
-0.613, 7.181e-5
-0.614, 7.178e-5
-0.615, 7.188e-5
-0.616, 7.200e-5
-0.617, 7.166e-5
-0.618, 7.147e-5
-0.619, 7.144e-5
-0.620, 7.146e-5
-0.621, 7.133e-5
-0.622, 7.132e-5
-0.623, 7.156e-5
-0.624, 7.147e-5
-0.625, 7.136e-5
-0.626, 7.146e-5
-0.627, 7.255e-5
-0.628, 7.319e-5
-0.629, 7.299e-5
-0.630, 7.214e-5
-0.631, 7.151e-5
-0.632, 7.111e-5
-0.633, 7.049e-5
-0.634, 7.029e-5
-0.635, 7.031e-5
-0.636, 7.022e-5
-0.637, 7.053e-5
-0.638, 7.070e-5
-0.639, 7.052e-5
-0.640, 7.033e-5
-0.641, 7.028e-5
-0.642, 7.005e-5
-0.643, 6.989e-5
-0.644, 6.977e-5
-0.645, 6.970e-5
-0.646, 7.000e-5
-0.647, 7.028e-5
-0.648, 7.176e-5
-0.649, 7.331e-5
-0.650, 7.309e-5
-0.651, 7.282e-5
-0.652, 7.268e-5
-0.653, 7.240e-5
-0.654, 7.248e-5
-0.655, 7.296e-5
-0.656, 7.289e-5
-0.657, 7.234e-5
-0.658, 7.224e-5
-0.659, 7.339e-5
-0.660, 7.370e-5
-0.661, 7.369e-5
-0.662, 7.374e-5
-0.663, 7.333e-5
-0.664, 7.301e-5
-0.665, 7.296e-5
-0.666, 7.306e-5
-0.667, 7.265e-5
-0.668, 7.241e-5
-0.669, 7.238e-5
-0.670, 7.300e-5
-0.671, 7.293e-5
-0.672, 7.272e-5
-0.673, 7.345e-5
-0.674, 7.401e-5
-0.675, 7.385e-5
-0.676, 7.337e-5
-0.677, 7.316e-5
-0.678, 7.262e-5
-0.679, 7.252e-5
-0.680, 7.252e-5
-0.681, 7.255e-5
-0.682, 7.246e-5
-0.683, 7.206e-5
-0.684, 7.176e-5
-0.685, 7.153e-5
-0.686, 7.127e-5
-0.687, 7.061e-5
-0.688, 7.025e-5
-0.689, 7.002e-5
-0.690, 6.963e-5
-0.691, 6.934e-5
-0.692, 6.901e-5
-0.693, 6.883e-5
-0.694, 6.874e-5
-0.695, 6.854e-5
-0.696, 6.832e-5
-0.697, 6.809e-5
-0.698, 6.772e-5
-0.699, 6.719e-5
-0.700, 6.631e-5
-0.701, 6.580e-5
-0.702, 6.582e-5
-0.703, 6.556e-5
-0.704, 6.544e-5
-0.705, 6.565e-5
-0.706, 6.575e-5
-0.707, 6.557e-5
-0.708, 6.527e-5
-0.709, 6.474e-5
-0.710, 6.494e-5
-0.711, 6.517e-5
-0.712, 6.541e-5
-0.713, 6.562e-5
-0.714, 6.572e-5
-0.715, 6.557e-5
-0.716, 6.537e-5
-0.717, 6.530e-5
-0.718, 6.509e-5
-0.719, 6.507e-5
-0.720, 6.528e-5
-0.721, 6.489e-5
-0.722, 6.454e-5
-0.723, 6.433e-5
-0.724, 6.424e-5
-0.725, 6.463e-5
-0.726, 6.479e-5
-0.727, 6.446e-5
-0.728, 6.428e-5
-0.729, 6.419e-5
-0.730, 6.407e-5
-0.731, 6.385e-5
-0.732, 6.364e-5
-0.733, 6.333e-5
-0.734, 6.324e-5
-0.735, 6.341e-5
-0.736, 6.326e-5
-0.737, 6.327e-5
-0.738, 6.311e-5
-0.739, 6.306e-5
-0.740, 6.323e-5
-0.741, 6.306e-5
-0.742, 6.299e-5
-0.743, 6.290e-5
-0.744, 6.279e-5
-0.745, 6.282e-5
-0.746, 6.272e-5
-0.747, 6.287e-5
-0.748, 6.276e-5
-0.749, 6.263e-5
-0.750, 6.247e-5
-0.751, 6.231e-5
-0.752, 6.230e-5
-0.753, 6.232e-5
-0.754, 6.241e-5
-0.755, 6.242e-5
-0.756, 6.239e-5
-0.757, 6.236e-5
-0.758, 6.233e-5
-0.759, 6.225e-5
-0.760, 6.227e-5
-0.761, 6.225e-5
-0.762, 6.223e-5
-0.763, 6.209e-5
-0.764, 6.212e-5
-0.765, 6.217e-5
-0.766, 6.216e-5
-0.767, 6.220e-5
-0.768, 6.213e-5
-0.769, 6.212e-5
-0.770, 6.219e-5
-0.771, 6.221e-5
-0.772, 6.217e-5
-0.773, 6.201e-5
-0.774, 6.209e-5
-0.775, 6.215e-5
-0.776, 6.220e-5
-0.777, 6.233e-5
-0.778, 6.247e-5
-0.779, 6.266e-5
-0.780, 6.286e-5
-0.781, 6.282e-5
-0.782, 6.280e-5
-0.783, 6.284e-5
-0.784, 6.305e-5
-0.785, 6.298e-5
-0.786, 6.305e-5
-0.787, 6.309e-5
-0.788, 6.317e-5
-0.789, 6.331e-5
-0.790, 6.345e-5
-0.791, 6.355e-5
-0.792, 6.355e-5
-0.793, 6.360e-5
-0.794, 6.372e-5
-0.795, 6.370e-5
-0.796, 6.382e-5
-0.797, 6.403e-5
-0.798, 6.403e-5
-0.799, 6.430e-5
-0.800, 6.456e-5
-0.801, 6.470e-5
-0.802, 6.458e-5
-0.803, 6.458e-5
-0.804, 6.477e-5
-0.805, 6.489e-5
-0.806, 6.492e-5
-0.807, 6.500e-5
-0.808, 6.498e-5
-0.809, 6.515e-5
-0.810, 6.530e-5
-0.811, 6.530e-5
-0.812, 6.539e-5
-0.813, 6.563e-5
-0.814, 6.577e-5
-0.815, 6.587e-5
-0.816, 6.603e-5
-0.817, 6.615e-5
-0.818, 6.611e-5
-0.819, 6.614e-5
-0.820, 6.627e-5
-0.821, 6.643e-5
-0.822, 6.665e-5
-0.823, 6.676e-5
-0.824, 6.690e-5
-0.825, 6.699e-5
-0.826, 6.725e-5
-0.827, 6.743e-5
-0.828, 6.754e-5
-0.829, 6.768e-5
-0.830, 6.794e-5
-0.831, 6.828e-5
-0.832, 6.867e-5
-0.833, 6.891e-5
-0.834, 6.901e-5
-0.835, 6.921e-5
-0.836, 6.952e-5
-0.837, 6.969e-5
-0.838, 6.990e-5
-0.839, 7.016e-5
-0.840, 7.034e-5
-0.841, 7.060e-5
-0.842, 7.085e-5
-0.843, 7.113e-5
-0.844, 7.143e-5
-0.845, 7.165e-5
-0.846, 7.178e-5
-0.847, 7.206e-5
-0.848, 7.242e-5
-0.849, 7.264e-5
-0.850, 7.272e-5
-0.851, 7.310e-5
-0.852, 7.343e-5
-0.853, 7.357e-5
-0.854, 7.390e-5
-0.855, 7.425e-5
-0.856, 7.456e-5
-0.857, 7.470e-5
-0.858, 7.492e-5
-0.859, 7.521e-5
-0.860, 7.582e-5
-0.861, 7.609e-5
-0.862, 7.641e-5
-0.863, 7.680e-5
-0.864, 7.709e-5
-0.865, 7.741e-5
-0.866, 7.773e-5
-0.867, 7.801e-5
-0.868, 7.826e-5
-0.869, 7.862e-5
-0.870, 7.900e-5
-0.871, 7.929e-5
-0.872, 7.973e-5
-0.873, 7.993e-5
-0.874, 8.034e-5
-0.875, 8.065e-5
-0.876, 8.095e-5
-0.877, 8.136e-5
-0.878, 8.162e-5
-0.879, 8.192e-5
-0.880, 8.230e-5
-0.881, 8.269e-5
-0.882, 8.303e-5
-0.883, 8.343e-5
-0.884, 8.395e-5
-0.885, 8.434e-5
-0.886, 8.455e-5
-0.887, 8.481e-5
-0.888, 8.520e-5
-0.889, 8.555e-5
-0.890, 8.590e-5
-0.891, 8.625e-5
-0.892, 8.658e-5
-0.893, 8.707e-5
-0.894, 8.773e-5
-0.895, 8.808e-5
-0.896, 8.839e-5
-0.897, 8.880e-5
-0.898, 8.920e-5
-0.899, 8.975e-5
-0.900, 9.033e-5
-0.901, 9.086e-5
-0.902, 9.122e-5
-0.903, 9.170e-5
-0.904, 9.231e-5
-0.905, 9.283e-5
-0.906, 9.335e-5
-0.907, 9.399e-5
-0.908, 9.444e-5
-0.909, 9.509e-5
-0.910, 9.565e-5
-0.911, 9.686e-5
-0.912, 9.780e-5
-0.913, 9.854e-5
-0.914, 9.896e-5
-0.915, 9.895e-5
-0.916, 9.905e-5
-0.917, 9.943e-5
-0.918, 9.992e-5
-0.919, 1.003e-4
-0.920, 1.009e-4
-0.921, 1.013e-4
-0.922, 1.016e-4
-0.923, 1.020e-4
-0.924, 1.024e-4
-0.925, 1.028e-4
-0.926, 1.034e-4
-0.927, 1.040e-4
-0.928, 1.047e-4
-0.929, 1.051e-4
-0.930, 1.053e-4
-0.931, 1.059e-4
-0.932, 1.066e-4
-0.933, 1.073e-4
-0.934, 1.079e-4
-0.935, 1.083e-4
-0.936, 1.090e-4
-0.937, 1.099e-4
-0.938, 1.103e-4
-0.939, 1.108e-4
-0.940, 1.116e-4
-0.941, 1.122e-4
-0.942, 1.125e-4
-0.943, 1.129e-4
-0.944, 1.133e-4
-0.945, 1.138e-4
-0.946, 1.141e-4
-0.947, 1.145e-4
-0.948, 1.150e-4
-0.949, 1.155e-4
-0.950, 1.159e-4
-0.951, 1.164e-4
-0.952, 1.168e-4
-0.953, 1.172e-4
-0.954, 1.176e-4
-0.955, 1.180e-4
-0.956, 1.188e-4
-0.957, 1.193e-4
-0.958, 1.198e-4
-0.959, 1.202e-4
-0.960, 1.208e-4
-0.961, 1.213e-4
-0.962, 1.219e-4
-0.963, 1.224e-4
-0.964, 1.228e-4
-0.965, 1.234e-4
-0.966, 1.240e-4
-0.967, 1.245e-4
-0.968, 1.249e-4
-0.969, 1.252e-4
-0.970, 1.256e-4
-0.971, 1.263e-4
-0.972, 1.270e-4
-0.973, 1.274e-4
-0.974, 1.277e-4
-0.975, 1.282e-4
-0.976, 1.287e-4
-0.977, 1.290e-4
-0.978, 1.294e-4
-0.979, 1.300e-4
-0.980, 1.303e-4
-0.981, 1.308e-4
-0.982, 1.313e-4
-0.983, 1.320e-4
-0.984, 1.326e-4
-0.985, 1.331e-4
-0.986, 1.334e-4
-0.987, 1.338e-4
-0.988, 1.340e-4
-0.989, 1.342e-4
-0.990, 1.346e-4
-0.991, 1.349e-4
-0.992, 1.352e-4
-0.993, 1.356e-4
-0.994, 1.360e-4
-0.995, 1.364e-4
-0.996, 1.368e-4
-0.997, 1.371e-4
-0.998, 1.374e-4
-0.999, 1.378e-4
-1.000, 1.381e-4
-1.001, 1.384e-4
-1.002, 1.387e-4
-1.003, 1.390e-4
-1.004, 1.394e-4
-1.005, 1.396e-4
-1.006, 1.398e-4
-1.007, 1.400e-4
-1.008, 1.403e-4
-1.009, 1.406e-4
-1.010, 1.409e-4
-1.011, 1.412e-4
-1.012, 1.415e-4
-1.013, 1.418e-4
-1.014, 1.420e-4
-1.015, 1.423e-4
-1.016, 1.429e-4
-1.017, 1.431e-4
-1.018, 1.433e-4
-1.019, 1.435e-4
-1.020, 1.438e-4
-1.021, 1.440e-4
-1.022, 1.441e-4
-1.023, 1.444e-4
-1.024, 1.448e-4
-1.025, 1.451e-4
-1.026, 1.454e-4
-1.027, 1.455e-4
-1.028, 1.457e-4
-1.029, 1.459e-4
-1.030, 1.461e-4
-1.031, 1.463e-4
-1.032, 1.466e-4
-1.033, 1.468e-4
-1.034, 1.470e-4
-1.035, 1.475e-4
-1.036, 1.477e-4
-1.037, 1.478e-4
-1.038, 1.480e-4
-1.039, 1.483e-4
-1.040, 1.486e-4
-1.041, 1.487e-4
-1.042, 1.489e-4
-1.043, 1.492e-4
-1.044, 1.494e-4
-1.045, 1.496e-4
-1.046, 1.499e-4
-1.047, 1.503e-4
-1.048, 1.506e-4
-1.049, 1.510e-4
-1.050, 1.513e-4
-1.051, 1.516e-4
-1.052, 1.520e-4
-1.053, 1.521e-4
-1.054, 1.525e-4
-1.055, 1.529e-4
-1.056, 1.533e-4
-1.057, 1.539e-4
-1.058, 1.541e-4
-1.059, 1.544e-4
-1.060, 1.549e-4
-1.061, 1.554e-4
-1.062, 1.556e-4
-1.063, 1.561e-4
-1.064, 1.564e-4
-1.065, 1.566e-4
-1.066, 1.571e-4
-1.067, 1.576e-4
-1.068, 1.580e-4
-1.069, 1.586e-4
-1.070, 1.590e-4
-1.071, 1.594e-4
-1.072, 1.599e-4
-1.073, 1.602e-4
-1.074, 1.607e-4
-1.075, 1.613e-4
-1.076, 1.619e-4
-1.077, 1.624e-4
-1.078, 1.631e-4
-1.079, 1.637e-4
-1.080, 1.642e-4
-1.081, 1.647e-4
-1.082, 1.653e-4
-1.083, 1.657e-4
-1.084, 1.663e-4
-1.085, 1.669e-4
-1.086, 1.675e-4
-1.087, 1.682e-4
-1.088, 1.689e-4
-1.089, 1.696e-4
-1.090, 1.702e-4
-1.091, 1.708e-4
-1.092, 1.714e-4
-1.093, 1.721e-4
-1.094, 1.728e-4
-1.095, 1.735e-4
-1.096, 1.743e-4
-1.097, 1.751e-4
-1.098, 1.757e-4
-1.099, 1.764e-4
-1.100, 1.770e-4
-1.101, 1.777e-4
-1.102, 1.785e-4
-1.103, 1.792e-4
-1.104, 1.799e-4
-1.105, 1.805e-4
-1.106, 1.812e-4
-1.107, 1.823e-4
-1.108, 1.831e-4
-1.109, 1.838e-4
-1.110, 1.845e-4
-1.111, 1.853e-4
-1.112, 1.861e-4
-1.113, 1.868e-4
-1.114, 1.876e-4
-1.115, 1.885e-4
-1.116, 1.894e-4
-1.117, 1.902e-4
-1.118, 1.910e-4
-1.119, 1.917e-4
-1.120, 1.923e-4
-1.121, 1.932e-4
-1.122, 1.939e-4
-1.123, 1.947e-4
-1.124, 1.956e-4
-1.125, 1.966e-4
-1.126, 1.974e-4
-1.127, 1.982e-4
-1.128, 1.988e-4
-1.129, 1.998e-4
-1.130, 2.006e-4
-1.131, 2.014e-4
-1.132, 2.022e-4
-1.133, 2.029e-4
-1.134, 2.036e-4
-1.135, 2.043e-4
-1.136, 2.052e-4
-1.137, 2.059e-4
-1.138, 2.066e-4
-1.139, 2.074e-4
-1.140, 2.082e-4
-1.141, 2.090e-4
-1.142, 2.098e-4
-1.143, 2.105e-4
-1.144, 2.112e-4
-1.145, 2.121e-4
-1.146, 2.129e-4
-1.147, 2.137e-4
-1.148, 2.144e-4
-1.149, 2.153e-4
-1.150, 2.162e-4
-1.151, 2.170e-4
-1.152, 2.177e-4
-1.153, 2.184e-4
-1.154, 2.192e-4
-1.155, 2.199e-4
-1.156, 2.207e-4
-1.157, 2.214e-4
-1.158, 2.222e-4
-1.159, 2.229e-4
-1.160, 2.237e-4
-1.161, 2.244e-4
-1.162, 2.251e-4
-1.163, 2.259e-4
-1.164, 2.268e-4
-1.165, 2.275e-4
-1.166, 2.282e-4
-1.167, 2.289e-4
-1.168, 2.296e-4
-1.169, 2.303e-4
-1.170, 2.311e-4
-1.171, 2.319e-4
-1.172, 2.328e-4
-1.173, 2.336e-4
-1.174, 2.344e-4
-1.175, 2.352e-4
-1.176, 2.359e-4
-1.177, 2.367e-4
-1.178, 2.375e-4
-1.179, 2.385e-4
-1.180, 2.397e-4
-1.181, 2.408e-4
-1.182, 2.418e-4
-1.183, 2.428e-4
-1.184, 2.438e-4
-1.185, 2.446e-4
-1.186, 2.456e-4
-1.187, 2.467e-4
-1.188, 2.478e-4
-1.189, 2.488e-4
-1.190, 2.498e-4
-1.191, 2.507e-4
-1.192, 2.516e-4
-1.193, 2.524e-4
-1.194, 2.533e-4
-1.195, 2.543e-4
-1.196, 2.555e-4
-1.197, 2.565e-4
-1.198, 2.575e-4
-1.199, 2.586e-4
-1.200, 2.595e-4
-1.201, 2.604e-4
-1.202, 2.615e-4
-1.203, 2.624e-4
-1.204, 2.636e-4
-1.205, 2.649e-4
-1.206, 2.658e-4
-1.207, 2.667e-4
-1.208, 2.676e-4
-1.209, 2.687e-4
-1.210, 2.697e-4
-1.211, 2.709e-4
-1.212, 2.720e-4
-1.213, 2.731e-4
-1.214, 2.743e-4
-1.215, 2.756e-4
-1.216, 2.767e-4
-1.217, 2.778e-4
-1.218, 2.789e-4
-1.219, 2.802e-4
-1.220, 2.815e-4
-1.221, 2.826e-4
-1.222, 2.838e-4
-1.223, 2.850e-4
-1.224, 2.863e-4
-1.225, 2.875e-4
-1.226, 2.886e-4
-1.227, 2.898e-4
-1.228, 2.912e-4
-1.229, 2.927e-4
-1.230, 2.940e-4
-1.231, 2.955e-4
-1.232, 2.970e-4
-1.233, 2.984e-4
-1.234, 2.999e-4
-1.235, 3.015e-4
-1.236, 3.030e-4
-1.237, 3.045e-4
-1.238, 3.059e-4
-1.239, 3.076e-4
-1.240, 3.091e-4
-1.241, 3.107e-4
-1.242, 3.129e-4
-1.243, 3.147e-4
-1.244, 3.164e-4
-1.245, 3.180e-4
-1.246, 3.196e-4
-1.247, 3.212e-4
-1.248, 3.230e-4
-1.249, 3.251e-4
-1.250, 3.268e-4
-1.251, 3.285e-4
-1.252, 3.304e-4
-1.253, 3.323e-4
-1.254, 3.344e-4
-1.255, 3.363e-4
-1.256, 3.382e-4
-1.257, 3.402e-4
-1.258, 3.423e-4
-1.259, 3.442e-4
-1.260, 3.462e-4
-1.261, 3.483e-4
-1.262, 3.505e-4
-1.263, 3.525e-4
-1.264, 3.547e-4
-1.265, 3.569e-4
-1.266, 3.590e-4
-1.267, 3.610e-4
-1.268, 3.633e-4
-1.269, 3.655e-4
-1.270, 3.679e-4
-1.271, 3.702e-4
-1.272, 3.725e-4
-1.273, 3.749e-4
-1.274, 3.775e-4
-1.275, 3.801e-4
-1.276, 3.827e-4
-1.277, 3.855e-4
-1.278, 3.882e-4
-1.279, 3.910e-4
-1.280, 3.940e-4
-1.281, 3.966e-4
-1.282, 3.994e-4
-1.283, 4.023e-4
-1.284, 4.052e-4
-1.285, 4.081e-4
-1.286, 4.110e-4
-1.287, 4.142e-4
-1.288, 4.174e-4
-1.289, 4.203e-4
-1.290, 4.233e-4
-1.291, 4.265e-4
-1.292, 4.294e-4
-1.293, 4.328e-4
-1.294, 4.362e-4
-1.295, 4.398e-4
-1.296, 4.433e-4
-1.297, 4.466e-4
-1.298, 4.498e-4
-1.299, 4.532e-4
-1.300, 4.566e-4
-1.301, 4.599e-4
-1.302, 4.634e-4
-1.303, 4.670e-4
-1.304, 4.706e-4
-1.305, 4.745e-4
-1.306, 4.782e-4
-1.307, 4.821e-4
-1.308, 4.861e-4
-1.309, 4.899e-4
-1.310, 4.936e-4
-1.311, 4.974e-4
-1.312, 5.014e-4
-1.313, 5.055e-4
-1.314, 5.094e-4
-1.315, 5.134e-4
-1.316, 5.174e-4
-1.317, 5.215e-4
-1.318, 5.257e-4
-1.319, 5.300e-4
-1.320, 5.343e-4
-1.321, 5.384e-4
-1.322, 5.426e-4
-1.323, 5.470e-4
-1.324, 5.513e-4
-1.325, 5.559e-4
-1.326, 5.604e-4
-1.327, 5.649e-4
-1.328, 5.693e-4
-1.329, 5.739e-4
-1.330, 5.786e-4
-1.331, 5.832e-4
-1.332, 5.878e-4
-1.333, 5.926e-4
-1.334, 5.974e-4
-1.335, 6.023e-4
-1.336, 6.074e-4
-1.337, 6.122e-4
-1.338, 6.172e-4
-1.339, 6.222e-4
-1.340, 6.273e-4
-1.341, 6.324e-4
-1.342, 6.373e-4
-1.343, 6.422e-4
-1.344, 6.473e-4
-1.345, 6.524e-4
-1.346, 6.577e-4
-1.347, 6.628e-4
-1.348, 6.681e-4
-1.349, 6.734e-4
-1.350, 6.790e-4
-1.351, 6.846e-4
-1.352, 6.899e-4
-1.353, 6.953e-4
-1.354, 7.008e-4
-1.355, 7.063e-4
-1.356, 7.117e-4
-1.357, 7.171e-4
-1.358, 7.228e-4
-1.359, 7.285e-4
-1.360, 7.339e-4
-1.361, 7.393e-4
-1.362, 7.448e-4
-1.363, 7.505e-4
-1.364, 7.561e-4
-1.365, 7.617e-4
-1.366, 7.674e-4
-1.367, 7.730e-4
-1.368, 7.788e-4
-1.369, 7.846e-4
-1.370, 7.904e-4
-1.371, 7.962e-4
-1.372, 8.019e-4
-1.373, 8.078e-4
-1.374, 8.137e-4
-1.375, 8.197e-4
-1.376, 8.256e-4
-1.377, 8.314e-4
-1.378, 8.374e-4
-1.379, 8.434e-4
-1.380, 8.494e-4
-1.381, 8.553e-4
-1.382, 8.612e-4
-1.383, 8.674e-4
-1.384, 8.737e-4
-1.385, 8.798e-4
-1.386, 8.860e-4
-1.387, 8.921e-4
-1.388, 8.980e-4
-1.389, 9.042e-4
-1.390, 9.105e-4
-1.391, 9.167e-4
-1.392, 9.227e-4
-1.393, 9.288e-4
-1.394, 9.350e-4
-1.395, 9.414e-4
-1.396, 9.475e-4
-1.397, 9.536e-4
-1.398, 9.598e-4
-1.399, 9.661e-4
-1.400, 9.724e-4
-1.401, 9.786e-4
-1.402, 9.850e-4
-1.403, 9.914e-4
-1.404, 9.974e-4
-1.405, 1.004e-3
-1.406, 1.009e-3
-1.407, 1.011e-3
-1.408, 1.011e-3
-1.409, 1.011e-3
-1.410, 1.011e-3
-1.411, 1.011e-3
-1.412, 1.011e-3
-1.413, 1.011e-3
-1.414, 1.011e-3
-1.415, 1.011e-3
-1.416, 1.011e-3
-1.417, 1.011e-3
-1.418, 1.011e-3
-1.419, 1.011e-3
-1.420, 1.011e-3
-1.421, 1.011e-3
-1.422, 1.011e-3
-1.423, 1.011e-3
-1.424, 1.011e-3
-1.425, 1.011e-3
-1.426, 1.011e-3
-1.427, 1.011e-3
-1.428, 1.011e-3
-1.429, 1.011e-3
-1.430, 1.011e-3
-1.431, 1.011e-3
-1.432, 1.011e-3
-1.433, 1.011e-3
-1.434, 1.011e-3
-1.435, 1.011e-3
-1.436, 1.011e-3
-1.437, 1.011e-3
-1.438, 1.011e-3
-1.439, 1.011e-3
-1.440, 1.011e-3
-1.441, 1.011e-3
-1.442, 1.011e-3
-1.443, 1.011e-3
-1.444, 1.011e-3
-1.445, 1.011e-3
-1.446, 1.011e-3
-1.447, 1.011e-3
-1.448, 1.011e-3
-1.449, 1.011e-3
-1.450, 1.011e-3
-1.451, 1.011e-3
-1.452, 1.011e-3
-1.453, 1.011e-3
-1.454, 1.011e-3
-1.455, 1.011e-3
-1.456, 1.011e-3
-1.457, 1.011e-3
-1.458, 1.011e-3
-1.459, 1.011e-3
-1.460, 1.011e-3
-1.461, 1.011e-3
-1.462, 1.011e-3
-1.463, 1.011e-3
-1.464, 1.011e-3
-1.465, 1.011e-3
-1.466, 1.011e-3
-1.467, 1.011e-3
-1.468, 1.011e-3
-1.469, 1.011e-3
-1.470, 1.011e-3
-1.471, 1.011e-3
-1.472, 1.011e-3
-1.473, 1.011e-3
-1.474, 1.011e-3
-1.475, 1.011e-3
-1.476, 1.011e-3
-1.477, 1.011e-3
-1.478, 1.011e-3
-1.479, 1.011e-3
-1.480, 1.011e-3
-1.481, 1.011e-3
-1.482, 1.011e-3
-1.483, 1.011e-3
-1.484, 1.011e-3
-1.485, 1.011e-3
-1.486, 1.011e-3
-1.487, 1.011e-3
-1.488, 1.011e-3
-1.489, 1.011e-3
-1.490, 1.011e-3
-1.491, 1.011e-3
-1.492, 1.011e-3
-1.493, 1.011e-3
-1.494, 1.011e-3
-1.495, 1.011e-3
-1.496, 1.011e-3
-1.497, 1.011e-3
-1.498, 1.011e-3
-1.499, 1.011e-3
-1.500, 1.011e-3
-1.501, 1.011e-3
-1.502, 1.011e-3
-1.503, 1.011e-3
-1.504, 1.011e-3
-1.505, 1.011e-3
-1.506, 1.011e-3
-1.507, 1.011e-3
-1.508, 1.011e-3
-1.509, 1.011e-3
-1.510, 1.011e-3
-1.511, 1.011e-3
-1.512, 1.011e-3
-1.513, 1.011e-3
-1.514, 1.011e-3
-1.515, 1.011e-3
-1.516, 1.011e-3
-1.517, 1.011e-3
-1.518, 1.011e-3
-1.519, 1.011e-3
-1.520, 1.011e-3
-1.521, 1.011e-3
-1.522, 1.011e-3
-1.523, 1.011e-3
-1.524, 1.011e-3
-1.525, 1.011e-3
-1.526, 1.011e-3
-1.527, 1.011e-3
-1.528, 1.011e-3
-1.529, 1.011e-3
-1.530, 1.011e-3
-1.531, 1.011e-3
-1.532, 1.011e-3
-1.533, 1.011e-3
-1.534, 1.011e-3
-1.535, 1.011e-3
-1.536, 1.011e-3
-1.537, 1.011e-3
-1.538, 1.011e-3
-1.539, 1.011e-3
-1.540, 1.011e-3
-1.541, 1.011e-3
-1.542, 1.011e-3
-1.543, 1.011e-3
-1.544, 1.011e-3
-1.545, 1.011e-3
-1.546, 1.011e-3
-1.547, 1.011e-3
-1.548, 1.011e-3
-1.549, 1.011e-3
-1.550, 1.011e-3
-1.551, 1.011e-3
-1.552, 1.011e-3
-1.553, 1.011e-3
-1.554, 1.011e-3
-1.555, 1.011e-3
-1.556, 1.011e-3
-1.557, 1.011e-3
-1.558, 1.011e-3
-1.559, 1.011e-3
-1.560, 1.011e-3
-1.561, 1.011e-3
-1.562, 1.011e-3
-1.563, 1.011e-3
-1.564, 1.011e-3
-1.565, 1.011e-3
-1.566, 1.011e-3
-1.567, 1.011e-3
-1.568, 1.011e-3
-1.569, 1.011e-3
-1.570, 1.011e-3
-1.571, 1.011e-3
-1.572, 1.011e-3
-1.573, 1.011e-3
-1.574, 1.011e-3
-1.575, 1.011e-3
-1.576, 1.011e-3
-1.577, 1.011e-3
-1.578, 1.011e-3
-1.579, 1.011e-3
-1.580, 1.011e-3
-1.581, 1.011e-3
-1.582, 1.011e-3
-1.583, 1.011e-3
-1.584, 1.011e-3
-1.585, 1.011e-3
-1.586, 1.011e-3
-1.587, 1.011e-3
-1.588, 1.011e-3
-1.589, 1.011e-3
-1.590, 1.011e-3
-1.591, 1.011e-3
-1.592, 1.011e-3
-1.593, 1.011e-3
-1.594, 1.011e-3
-1.595, 1.011e-3
-1.596, 1.011e-3
-1.597, 1.011e-3
-1.598, 1.011e-3
-1.599, 1.011e-3
-1.600, 1.011e-3
-1.601, 1.011e-3
-1.602, 1.011e-3
-1.603, 1.011e-3
-1.604, 1.011e-3
-1.605, 1.011e-3
-1.606, 1.011e-3
-1.607, 1.011e-3
-1.608, 1.011e-3
-1.609, 1.011e-3
-1.610, 1.011e-3
-1.611, 1.011e-3
-1.612, 1.011e-3
-1.613, 1.011e-3
-1.614, 1.011e-3
-1.615, 1.011e-3
-1.616, 1.011e-3
-1.617, 1.011e-3
-1.618, 1.011e-3
-1.619, 1.011e-3
-1.620, 1.011e-3
-1.621, 1.011e-3
-1.622, 1.011e-3
-1.623, 1.011e-3
-1.624, 1.011e-3
-1.625, 1.011e-3
-1.626, 1.011e-3
-1.627, 1.011e-3
-1.628, 1.011e-3
-1.629, 1.011e-3
-1.630, 1.011e-3
-1.631, 1.011e-3
-1.632, 1.011e-3
-1.633, 1.011e-3
-1.634, 1.011e-3
-1.635, 1.011e-3
-1.636, 1.011e-3
-1.637, 1.011e-3
-1.638, 1.011e-3
-1.639, 1.011e-3
-1.640, 1.011e-3
-1.641, 1.011e-3
-1.642, 1.011e-3
-1.643, 1.011e-3
-1.644, 1.011e-3
-1.645, 1.011e-3
-1.646, 1.011e-3
-1.647, 1.011e-3
-1.648, 1.011e-3
-1.649, 1.011e-3
-1.650, 1.011e-3
-1.651, 1.011e-3
-1.652, 1.011e-3
-1.653, 1.011e-3
-1.654, 1.011e-3
-1.655, 1.011e-3
-1.656, 1.011e-3
-1.657, 1.011e-3
-1.658, 1.011e-3
-1.659, 1.011e-3
-1.660, 1.011e-3
-1.661, 1.011e-3
-1.662, 1.011e-3
-1.663, 1.011e-3
-1.664, 1.011e-3
-1.665, 1.011e-3
-1.666, 1.011e-3
-1.667, 1.011e-3
-1.668, 1.011e-3
-1.669, 1.011e-3
-1.670, 1.011e-3
-1.671, 1.011e-3
-1.672, 1.011e-3
-1.673, 1.011e-3
-1.674, 1.011e-3
-1.675, 1.011e-3
-1.676, 1.011e-3
-1.677, 1.011e-3
-1.678, 1.011e-3
-1.679, 1.011e-3
-1.680, 1.011e-3
-1.681, 1.011e-3
-1.682, 1.011e-3
-1.683, 1.011e-3
-1.684, 1.011e-3
-1.685, 1.011e-3
-1.686, 1.011e-3
-1.687, 1.011e-3
-1.688, 1.011e-3
-1.689, 1.011e-3
-1.690, 1.011e-3
-1.691, 1.011e-3
-1.692, 1.011e-3
-1.693, 1.011e-3
-1.694, 1.011e-3
-1.695, 1.011e-3
-1.696, 1.011e-3
-1.697, 1.011e-3
-1.698, 1.011e-3
-1.699, 1.011e-3
-1.700, 1.011e-3
-1.701, 1.011e-3
-1.702, 1.011e-3
-1.703, 1.011e-3
-1.704, 1.011e-3
-1.705, 1.011e-3
-1.706, 1.011e-3
-1.707, 1.011e-3
-1.708, 1.011e-3
-1.709, 1.011e-3
-1.710, 1.011e-3
-1.711, 1.011e-3
-1.712, 1.011e-3
-1.713, 1.011e-3
-1.714, 1.011e-3
-1.715, 1.011e-3
-1.716, 1.011e-3
-1.717, 1.011e-3
-1.718, 1.011e-3
-1.719, 1.011e-3
-1.720, 1.011e-3
-1.721, 1.011e-3
-1.722, 1.011e-3
-1.723, 1.011e-3
-1.724, 1.011e-3
-1.725, 1.011e-3
-1.726, 1.011e-3
-1.727, 1.011e-3
-1.728, 1.011e-3
-1.729, 1.011e-3
-1.730, 1.011e-3
-1.731, 1.011e-3
-1.732, 1.011e-3
-1.733, 1.011e-3
-1.734, 1.011e-3
-1.735, 1.011e-3
-1.736, 1.011e-3
-1.737, 1.011e-3
-1.738, 1.011e-3
-1.739, 1.011e-3
-1.740, 1.011e-3
-1.741, 1.011e-3
-1.742, 1.011e-3
-1.743, 1.011e-3
-1.744, 1.011e-3
-1.745, 1.011e-3
-1.746, 1.011e-3
-1.747, 1.011e-3
-1.748, 1.011e-3
-1.749, 1.011e-3
-1.750, 1.011e-3
-1.751, 1.011e-3
-1.752, 1.011e-3
-1.753, 1.011e-3
-1.754, 1.011e-3
-1.755, 1.011e-3
-1.756, 1.011e-3
-1.757, 1.011e-3
-1.758, 1.011e-3
-1.759, 1.011e-3
-1.760, 1.011e-3
-1.761, 1.011e-3
-1.762, 1.011e-3
-1.763, 1.011e-3
-1.764, 1.011e-3
-1.765, 1.011e-3
-1.766, 1.011e-3
-1.767, 1.011e-3
-1.768, 1.011e-3
-1.769, 1.011e-3
-1.770, 1.011e-3
-1.771, 1.011e-3
-1.772, 1.011e-3
-1.773, 1.011e-3
-1.774, 1.011e-3
-1.775, 1.011e-3
-1.776, 1.011e-3
-1.777, 1.011e-3
-1.778, 1.011e-3
-1.779, 1.011e-3
-1.780, 1.011e-3
-1.781, 1.011e-3
-1.782, 1.011e-3
-1.783, 1.011e-3
-1.784, 1.011e-3
-1.785, 1.011e-3
-1.786, 1.011e-3
-1.787, 1.011e-3
-1.788, 1.011e-3
-1.789, 1.011e-3
-1.790, 1.011e-3
-1.791, 1.011e-3
-1.792, 1.011e-3
-1.793, 1.011e-3
-1.794, 1.011e-3
-1.795, 1.011e-3
-1.796, 1.011e-3
-1.797, 1.011e-3
-1.798, 1.011e-3
-1.799, 1.011e-3
-1.800, 1.011e-3
-1.801, 1.011e-3
-1.802, 1.011e-3
-1.803, 1.011e-3
-1.804, 1.011e-3
-1.805, 1.011e-3
-1.806, 1.011e-3
-1.807, 1.011e-3
-1.808, 1.011e-3
-1.809, 1.011e-3
-1.810, 1.011e-3
-1.811, 1.011e-3
-1.812, 1.011e-3
-1.813, 1.011e-3
-1.814, 1.011e-3
-1.815, 1.011e-3
-1.816, 1.011e-3
-1.817, 1.011e-3
-1.818, 1.011e-3
-1.819, 1.011e-3
-1.820, 1.011e-3
-1.821, 1.011e-3
-1.822, 1.011e-3
-1.823, 1.011e-3
-1.824, 1.011e-3
-1.825, 1.011e-3
-1.826, 1.011e-3
-1.827, 1.011e-3
-1.828, 1.011e-3
-1.829, 1.011e-3
-1.830, 1.011e-3
-1.831, 1.011e-3
-1.832, 1.011e-3
-1.833, 1.011e-3
-1.834, 1.011e-3
-1.835, 1.011e-3
-1.836, 1.011e-3
-1.837, 1.011e-3
-1.838, 1.011e-3
-1.839, 1.011e-3
-1.840, 1.011e-3
-1.841, 1.011e-3
-1.842, 1.011e-3
-1.843, 1.011e-3
-1.844, 1.011e-3
-1.845, 1.011e-3
-1.846, 1.011e-3
-1.847, 1.011e-3
-1.848, 1.011e-3
-1.849, 1.011e-3
-1.850, 1.011e-3
-1.851, 1.011e-3
-1.852, 1.011e-3
-1.853, 1.011e-3
-1.854, 1.011e-3
-1.855, 1.011e-3
-1.856, 1.011e-3
-1.857, 1.011e-3
-1.858, 1.011e-3
-1.859, 1.011e-3
-1.860, 1.011e-3
-1.861, 1.011e-3
-1.862, 1.011e-3
-1.863, 1.011e-3
-1.864, 1.011e-3
-1.865, 1.011e-3
-1.866, 1.011e-3
-1.867, 1.011e-3
-1.868, 1.011e-3
-1.869, 1.011e-3
-1.870, 1.011e-3
-1.871, 1.011e-3
-1.872, 1.011e-3
-1.873, 1.011e-3
-1.874, 1.011e-3
-1.875, 1.011e-3
-1.876, 1.011e-3
-1.877, 1.011e-3
-1.878, 1.011e-3
-1.879, 1.011e-3
-1.880, 1.011e-3
-1.881, 1.011e-3
-1.882, 1.011e-3
-1.883, 1.011e-3
-1.884, 1.011e-3
-1.885, 1.011e-3
-1.886, 1.011e-3
-1.887, 1.011e-3
-1.888, 1.011e-3
-1.889, 1.011e-3
-1.890, 1.011e-3
-1.891, 1.011e-3
-1.892, 1.011e-3
-1.893, 1.011e-3
-1.894, 1.011e-3
-1.895, 1.011e-3
-1.896, 1.011e-3
-1.897, 1.011e-3
-1.898, 1.011e-3
-1.899, 1.011e-3
-1.900, 1.011e-3
-1.901, 1.011e-3
-1.902, 1.011e-3
-1.903, 1.011e-3
-1.904, 1.011e-3
-1.905, 1.011e-3
-1.906, 1.011e-3
-1.907, 1.011e-3
-1.908, 1.011e-3
-1.909, 1.011e-3
-1.910, 1.011e-3
-1.911, 1.011e-3
-1.912, 1.011e-3
-1.913, 1.011e-3
-1.914, 1.011e-3
-1.915, 1.011e-3
-1.916, 1.011e-3
-1.917, 1.011e-3
-1.918, 1.011e-3
-1.919, 1.011e-3
-1.920, 1.011e-3
-1.921, 1.011e-3
-1.922, 1.011e-3
-1.923, 1.011e-3
-1.924, 1.011e-3
-1.925, 1.011e-3
-1.926, 1.011e-3
-1.927, 1.011e-3
-1.928, 1.011e-3
-1.929, 1.011e-3
-1.930, 1.011e-3
-1.931, 1.011e-3
-1.932, 1.011e-3
-1.933, 1.011e-3
-1.934, 1.011e-3
-1.935, 1.011e-3
-1.936, 1.011e-3
-1.937, 1.011e-3
-1.938, 1.011e-3
-1.939, 1.011e-3
-1.940, 1.011e-3
-1.941, 1.011e-3
-1.942, 1.011e-3
-1.943, 1.011e-3
-1.944, 1.011e-3
-1.945, 1.011e-3
-1.946, 1.011e-3
-1.947, 1.011e-3
-1.948, 1.011e-3
-1.949, 1.011e-3
-1.950, 1.011e-3
-1.951, 1.011e-3
-1.952, 1.011e-3
-1.953, 1.011e-3
-1.954, 1.011e-3
-1.955, 1.011e-3
-1.956, 1.011e-3
-1.957, 1.011e-3
-1.958, 1.011e-3
-1.959, 1.011e-3
-1.960, 1.011e-3
-1.961, 1.011e-3
-1.962, 1.011e-3
-1.963, 1.011e-3
-1.964, 1.011e-3
-1.965, 1.011e-3
-1.966, 1.011e-3
-1.967, 1.011e-3
-1.968, 1.011e-3
-1.969, 1.011e-3
-1.970, 1.011e-3
-1.971, 1.011e-3
-1.972, 1.011e-3
-1.973, 1.011e-3
-1.974, 1.011e-3
-1.975, 1.011e-3
-1.976, 1.011e-3
-1.977, 1.011e-3
-1.978, 1.011e-3
-1.979, 1.011e-3
-1.980, 1.011e-3
-1.981, 1.011e-3
-1.982, 1.011e-3
-1.983, 1.011e-3
-1.984, 1.011e-3
-1.985, 1.011e-3
-1.986, 1.011e-3
-1.987, 1.011e-3
-1.988, 1.011e-3
-1.989, 1.011e-3
-1.990, 1.011e-3
-1.991, 1.011e-3
-1.992, 1.011e-3
-1.993, 1.011e-3
-1.994, 1.011e-3
-1.995, 1.011e-3
-1.996, 1.011e-3
-1.997, 1.011e-3
-1.998, 1.011e-3
-1.999, 1.011e-3
-2.000, 1.011e-3
-2.001, 1.011e-3
-2.002, 1.011e-3
-2.003, 1.011e-3
-2.004, 1.011e-3
-2.005, 1.011e-3
-2.006, 1.011e-3
-2.007, 1.011e-3
-2.008, 1.011e-3
-2.009, 1.011e-3
-2.010, 1.011e-3
-2.011, 1.011e-3
-2.012, 1.011e-3
-2.013, 1.011e-3
-2.014, 1.011e-3
-2.015, 1.011e-3
-2.016, 1.011e-3
-2.017, 1.011e-3
-2.018, 1.011e-3
-2.019, 1.011e-3
-2.020, 1.011e-3
-2.021, 1.011e-3
-2.022, 1.011e-3
-2.023, 1.011e-3
-2.024, 1.011e-3
-2.025, 1.011e-3
-2.026, 1.011e-3
-2.027, 1.011e-3
-2.028, 1.011e-3
-2.029, 1.011e-3
-2.030, 1.011e-3
-2.031, 1.011e-3
-2.032, 1.011e-3
-2.033, 1.011e-3
-2.034, 1.011e-3
-2.035, 1.011e-3
-2.036, 1.011e-3
-2.037, 1.011e-3
-2.038, 1.011e-3
-2.039, 1.011e-3
-2.040, 1.011e-3
-2.041, 1.011e-3
-2.042, 1.011e-3
-2.043, 1.011e-3
-2.044, 1.011e-3
-2.045, 1.011e-3
-2.046, 1.011e-3
-2.047, 1.011e-3
-2.048, 1.011e-3
-2.049, 1.011e-3
-2.050, 1.011e-3
-2.051, 1.011e-3
-2.052, 1.011e-3
-2.053, 1.011e-3
-2.054, 1.011e-3
-2.055, 1.011e-3
-2.056, 1.011e-3
-2.057, 1.011e-3
-2.058, 1.011e-3
-2.059, 1.011e-3
-2.060, 1.011e-3
-2.061, 1.011e-3
-2.062, 1.011e-3
-2.063, 1.011e-3
-2.064, 1.011e-3
-2.065, 1.011e-3
-2.066, 1.011e-3
-2.067, 1.011e-3
-2.068, 1.011e-3
-2.069, 1.011e-3
-2.070, 1.011e-3
-2.071, 1.011e-3
-2.072, 1.011e-3
-2.073, 1.011e-3
-2.074, 1.011e-3
-2.075, 1.011e-3
-2.076, 1.011e-3
-2.077, 1.011e-3
-2.078, 1.011e-3
-2.079, 1.011e-3
-2.080, 1.011e-3
-2.081, 1.011e-3
-2.082, 1.011e-3
-2.083, 1.011e-3
-2.084, 1.011e-3
-2.085, 1.011e-3
-2.086, 1.011e-3
-2.087, 1.011e-3
-2.088, 1.011e-3
-2.089, 1.011e-3
-2.090, 1.011e-3
-2.091, 1.011e-3
-2.092, 1.011e-3
-2.093, 1.011e-3
-2.094, 1.011e-3
-2.095, 1.011e-3
-2.096, 1.011e-3
-2.097, 1.011e-3
-2.098, 1.011e-3
-2.099, 1.011e-3
