Aug. 5, 2024   15:05:30
Linear Sweep Voltammetry
File: c:/users/guazh/data/20240802_batch_500/2024-08-02-exp26\regeneratedgce-2024-08-05t14_59_19-lsvinkoh\regeneratedgce_lsv_50mvs_efin_-2100mv.bin
Data Source:  Experiment
Instrument Model:  CHI760E
Header: LSV ran at 50 mVs with Efin at -2100mV
Note: 

Init E (V) = -0.6
Final E (V) = -2.1
Scan Rate (V/s) = 0.05
Sample Interval (V) = 0.001
Quiet Time (sec) = 2
Sensitivity (A/V) = 1e-4
Comp R (ohm) = 2.3

Results:

Channel 1:
Ep = -1.931V
ip = 9.220e-4A
Ah = 1.105e-3C

Potential/V, Current/A

-0.600, -5.998e-7
-0.601, -4.679e-7
-0.602, -4.146e-7
-0.603, -3.833e-7
-0.604, -3.574e-7
-0.605, -3.351e-7
-0.606, -3.127e-7
-0.607, -2.958e-7
-0.608, -2.807e-7
-0.609, -2.652e-7
-0.610, -2.525e-7
-0.611, -2.366e-7
-0.612, -2.246e-7
-0.613, -2.151e-7
-0.614, -2.018e-7
-0.615, -1.877e-7
-0.616, -1.761e-7
-0.617, -1.652e-7
-0.618, -1.575e-7
-0.619, -1.473e-7
-0.620, -1.367e-7
-0.621, -1.262e-7
-0.622, -1.182e-7
-0.623, -1.094e-7
-0.624, -1.006e-7
-0.625, -9.266e-8
-0.626, -8.171e-8
-0.627, -7.461e-8
-0.628, -6.770e-8
-0.629, -6.099e-8
-0.630, -5.162e-8
-0.631, -4.363e-8
-0.632, -3.643e-8
-0.633, -2.952e-8
-0.634, -2.330e-8
-0.635, -1.482e-8
-0.636, -7.222e-9
-0.637, -2.092e-9
-0.638, 3.828e-9
-0.639, 8.662e-9
-0.640, 1.656e-8
-0.641, 2.524e-8
-0.642, 2.958e-8
-0.643, 3.481e-8
-0.644, 3.964e-8
-0.645, 4.546e-8
-0.646, 5.444e-8
-0.647, 5.918e-8
-0.648, 6.312e-8
-0.649, 6.894e-8
-0.650, 7.506e-8
-0.651, 8.305e-8
-0.652, 8.907e-8
-0.653, 9.213e-8
-0.654, 9.677e-8
-0.655, 1.031e-7
-0.656, 1.098e-7
-0.657, 1.135e-7
-0.658, 1.164e-7
-0.659, 1.205e-7
-0.660, 1.272e-7
-0.661, 1.329e-7
-0.662, 1.373e-7
-0.663, 1.395e-7
-0.664, 1.440e-7
-0.665, 1.504e-7
-0.666, 1.584e-7
-0.667, 1.616e-7
-0.668, 1.641e-7
-0.669, 1.671e-7
-0.670, 1.729e-7
-0.671, 1.783e-7
-0.672, 1.823e-7
-0.673, 1.863e-7
-0.674, 1.890e-7
-0.675, 1.936e-7
-0.676, 2.002e-7
-0.677, 2.029e-7
-0.678, 2.068e-7
-0.679, 2.090e-7
-0.680, 2.152e-7
-0.681, 2.214e-7
-0.682, 2.239e-7
-0.683, 2.277e-7
-0.684, 2.300e-7
-0.685, 2.333e-7
-0.686, 2.397e-7
-0.687, 2.427e-7
-0.688, 2.457e-7
-0.689, 2.481e-7
-0.690, 2.533e-7
-0.691, 2.597e-7
-0.692, 2.631e-7
-0.693, 2.647e-7
-0.694, 2.669e-7
-0.695, 2.707e-7
-0.696, 2.783e-7
-0.697, 2.807e-7
-0.698, 2.820e-7
-0.699, 2.851e-7
-0.700, 2.893e-7
-0.701, 2.945e-7
-0.702, 2.976e-7
-0.703, 2.982e-7
-0.704, 3.013e-7
-0.705, 3.060e-7
-0.706, 3.105e-7
-0.707, 3.139e-7
-0.708, 3.155e-7
-0.709, 3.171e-7
-0.710, 3.220e-7
-0.711, 3.269e-7
-0.712, 3.282e-7
-0.713, 3.306e-7
-0.714, 3.325e-7
-0.715, 3.362e-7
-0.716, 3.416e-7
-0.717, 3.441e-7
-0.718, 3.459e-7
-0.719, 3.473e-7
-0.720, 3.516e-7
-0.721, 3.565e-7
-0.722, 3.576e-7
-0.723, 3.592e-7
-0.724, 3.616e-7
-0.725, 3.651e-7
-0.726, 3.707e-7
-0.727, 3.722e-7
-0.728, 3.737e-7
-0.729, 3.754e-7
-0.730, 3.792e-7
-0.731, 3.861e-7
-0.732, 3.870e-7
-0.733, 3.882e-7
-0.734, 3.905e-7
-0.735, 3.929e-7
-0.736, 3.986e-7
-0.737, 4.008e-7
-0.738, 3.997e-7
-0.739, 4.032e-7
-0.740, 4.066e-7
-0.741, 4.103e-7
-0.742, 4.136e-7
-0.743, 4.159e-7
-0.744, 4.167e-7
-0.745, 4.202e-7
-0.746, 4.237e-7
-0.747, 4.252e-7
-0.748, 4.266e-7
-0.749, 4.282e-7
-0.750, 4.320e-7
-0.751, 4.356e-7
-0.752, 4.374e-7
-0.753, 4.392e-7
-0.754, 4.387e-7
-0.755, 4.440e-7
-0.756, 4.502e-7
-0.757, 4.483e-7
-0.758, 4.509e-7
-0.759, 4.515e-7
-0.760, 4.538e-7
-0.761, 4.593e-7
-0.762, 4.602e-7
-0.763, 4.619e-7
-0.764, 4.640e-7
-0.765, 4.655e-7
-0.766, 4.712e-7
-0.767, 4.718e-7
-0.768, 4.748e-7
-0.769, 4.767e-7
-0.770, 4.793e-7
-0.771, 4.843e-7
-0.772, 4.850e-7
-0.773, 4.845e-7
-0.774, 4.867e-7
-0.775, 4.898e-7
-0.776, 4.936e-7
-0.777, 4.953e-7
-0.778, 4.957e-7
-0.779, 4.976e-7
-0.780, 5.001e-7
-0.781, 5.045e-7
-0.782, 5.063e-7
-0.783, 5.070e-7
-0.784, 5.096e-7
-0.785, 5.115e-7
-0.786, 5.146e-7
-0.787, 5.174e-7
-0.788, 5.171e-7
-0.789, 5.191e-7
-0.790, 5.219e-7
-0.791, 5.258e-7
-0.792, 5.273e-7
-0.793, 5.288e-7
-0.794, 5.302e-7
-0.795, 5.330e-7
-0.796, 5.365e-7
-0.797, 5.373e-7
-0.798, 5.389e-7
-0.799, 5.401e-7
-0.800, 5.432e-7
-0.801, 5.478e-7
-0.802, 5.475e-7
-0.803, 5.491e-7
-0.804, 5.504e-7
-0.805, 5.531e-7
-0.806, 5.578e-7
-0.807, 5.591e-7
-0.808, 5.602e-7
-0.809, 5.618e-7
-0.810, 5.635e-7
-0.811, 5.675e-7
-0.812, 5.689e-7
-0.813, 5.690e-7
-0.814, 5.722e-7
-0.815, 5.741e-7
-0.816, 5.774e-7
-0.817, 5.796e-7
-0.818, 5.799e-7
-0.819, 5.854e-7
-0.820, 5.899e-7
-0.821, 5.900e-7
-0.822, 5.919e-7
-0.823, 5.913e-7
-0.824, 5.936e-7
-0.825, 5.970e-7
-0.826, 5.996e-7
-0.827, 6.012e-7
-0.828, 6.014e-7
-0.829, 6.026e-7
-0.830, 6.074e-7
-0.831, 6.099e-7
-0.832, 6.115e-7
-0.833, 6.128e-7
-0.834, 6.124e-7
-0.835, 6.166e-7
-0.836, 6.202e-7
-0.837, 6.198e-7
-0.838, 6.221e-7
-0.839, 6.227e-7
-0.840, 6.252e-7
-0.841, 6.302e-7
-0.842, 6.304e-7
-0.843, 6.311e-7
-0.844, 6.322e-7
-0.845, 6.348e-7
-0.846, 6.397e-7
-0.847, 6.399e-7
-0.848, 6.403e-7
-0.849, 6.430e-7
-0.850, 6.448e-7
-0.851, 6.494e-7
-0.852, 6.511e-7
-0.853, 6.521e-7
-0.854, 6.531e-7
-0.855, 6.551e-7
-0.856, 6.590e-7
-0.857, 6.604e-7
-0.858, 6.604e-7
-0.859, 6.627e-7
-0.860, 6.668e-7
-0.861, 6.693e-7
-0.862, 6.715e-7
-0.863, 6.711e-7
-0.864, 6.720e-7
-0.865, 6.757e-7
-0.866, 6.786e-7
-0.867, 6.796e-7
-0.868, 6.802e-7
-0.869, 6.801e-7
-0.870, 6.858e-7
-0.871, 6.908e-7
-0.872, 6.901e-7
-0.873, 6.910e-7
-0.874, 6.912e-7
-0.875, 6.947e-7
-0.876, 6.993e-7
-0.877, 7.005e-7
-0.878, 7.013e-7
-0.879, 7.023e-7
-0.880, 7.051e-7
-0.881, 7.094e-7
-0.882, 7.096e-7
-0.883, 7.110e-7
-0.884, 7.122e-7
-0.885, 7.152e-7
-0.886, 7.191e-7
-0.887, 7.196e-7
-0.888, 7.204e-7
-0.889, 7.222e-7
-0.890, 7.262e-7
-0.891, 7.290e-7
-0.892, 7.299e-7
-0.893, 7.290e-7
-0.894, 7.322e-7
-0.895, 7.351e-7
-0.896, 7.407e-7
-0.897, 7.423e-7
-0.898, 7.424e-7
-0.899, 7.438e-7
-0.900, 7.471e-7
-0.901, 7.497e-7
-0.902, 7.524e-7
-0.903, 7.512e-7
-0.904, 7.535e-7
-0.905, 7.578e-7
-0.906, 7.603e-7
-0.907, 7.616e-7
-0.908, 7.626e-7
-0.909, 7.644e-7
-0.910, 7.688e-7
-0.911, 7.721e-7
-0.912, 7.745e-7
-0.913, 7.761e-7
-0.914, 7.761e-7
-0.915, 7.806e-7
-0.916, 7.851e-7
-0.917, 7.851e-7
-0.918, 7.868e-7
-0.919, 7.877e-7
-0.920, 7.909e-7
-0.921, 7.949e-7
-0.922, 7.967e-7
-0.923, 7.979e-7
-0.924, 7.995e-7
-0.925, 8.028e-7
-0.926, 8.062e-7
-0.927, 8.072e-7
-0.928, 8.098e-7
-0.929, 8.117e-7
-0.930, 8.151e-7
-0.931, 8.189e-7
-0.932, 8.214e-7
-0.933, 8.210e-7
-0.934, 8.241e-7
-0.935, 8.274e-7
-0.936, 8.302e-7
-0.937, 8.329e-7
-0.938, 8.352e-7
-0.939, 8.370e-7
-0.940, 8.402e-7
-0.941, 8.442e-7
-0.942, 8.458e-7
-0.943, 8.468e-7
-0.944, 8.487e-7
-0.945, 8.518e-7
-0.946, 8.559e-7
-0.947, 8.580e-7
-0.948, 8.594e-7
-0.949, 8.612e-7
-0.950, 8.658e-7
-0.951, 8.691e-7
-0.952, 8.703e-7
-0.953, 8.725e-7
-0.954, 8.748e-7
-0.955, 8.782e-7
-0.956, 8.827e-7
-0.957, 8.822e-7
-0.958, 8.848e-7
-0.959, 8.856e-7
-0.960, 8.910e-7
-0.961, 8.960e-7
-0.962, 8.967e-7
-0.963, 8.989e-7
-0.964, 8.996e-7
-0.965, 9.036e-7
-0.966, 9.083e-7
-0.967, 9.102e-7
-0.968, 9.109e-7
-0.969, 9.129e-7
-0.970, 9.176e-7
-0.971, 9.220e-7
-0.972, 9.239e-7
-0.973, 9.276e-7
-0.974, 9.299e-7
-0.975, 9.333e-7
-0.976, 9.369e-7
-0.977, 9.397e-7
-0.978, 9.397e-7
-0.979, 9.436e-7
-0.980, 9.476e-7
-0.981, 9.527e-7
-0.982, 9.546e-7
-0.983, 9.573e-7
-0.984, 9.590e-7
-0.985, 9.644e-7
-0.986, 9.685e-7
-0.987, 9.693e-7
-0.988, 9.699e-7
-0.989, 9.735e-7
-0.990, 9.770e-7
-0.991, 9.819e-7
-0.992, 9.845e-7
-0.993, 9.875e-7
-0.994, 9.879e-7
-0.995, 9.930e-7
-0.996, 9.976e-7
-0.997, 9.979e-7
-0.998, 1.001e-6
-0.999, 1.004e-6
-1.000, 1.008e-6
-1.001, 1.014e-6
-1.002, 1.014e-6
-1.003, 1.016e-6
-1.004, 1.019e-6
-1.005, 1.023e-6
-1.006, 1.029e-6
-1.007, 1.030e-6
-1.008, 1.031e-6
-1.009, 1.035e-6
-1.010, 1.038e-6
-1.011, 1.044e-6
-1.012, 1.045e-6
-1.013, 1.048e-6
-1.014, 1.051e-6
-1.015, 1.054e-6
-1.016, 1.058e-6
-1.017, 1.061e-6
-1.018, 1.062e-6
-1.019, 1.065e-6
-1.020, 1.070e-6
-1.021, 1.074e-6
-1.022, 1.077e-6
-1.023, 1.078e-6
-1.024, 1.083e-6
-1.025, 1.088e-6
-1.026, 1.090e-6
-1.027, 1.093e-6
-1.028, 1.095e-6
-1.029, 1.095e-6
-1.030, 1.101e-6
-1.031, 1.106e-6
-1.032, 1.108e-6
-1.033, 1.111e-6
-1.034, 1.113e-6
-1.035, 1.116e-6
-1.036, 1.121e-6
-1.037, 1.122e-6
-1.038, 1.125e-6
-1.039, 1.126e-6
-1.040, 1.132e-6
-1.041, 1.136e-6
-1.042, 1.137e-6
-1.043, 1.139e-6
-1.044, 1.143e-6
-1.045, 1.146e-6
-1.046, 1.151e-6
-1.047, 1.152e-6
-1.048, 1.155e-6
-1.049, 1.157e-6
-1.050, 1.162e-6
-1.051, 1.166e-6
-1.052, 1.170e-6
-1.053, 1.172e-6
-1.054, 1.174e-6
-1.055, 1.178e-6
-1.056, 1.183e-6
-1.057, 1.185e-6
-1.058, 1.186e-6
-1.059, 1.188e-6
-1.060, 1.194e-6
-1.061, 1.199e-6
-1.062, 1.201e-6
-1.063, 1.204e-6
-1.064, 1.207e-6
-1.065, 1.211e-6
-1.066, 1.215e-6
-1.067, 1.217e-6
-1.068, 1.219e-6
-1.069, 1.221e-6
-1.070, 1.226e-6
-1.071, 1.230e-6
-1.072, 1.231e-6
-1.073, 1.232e-6
-1.074, 1.234e-6
-1.075, 1.241e-6
-1.076, 1.247e-6
-1.077, 1.247e-6
-1.078, 1.249e-6
-1.079, 1.250e-6
-1.080, 1.254e-6
-1.081, 1.260e-6
-1.082, 1.262e-6
-1.083, 1.263e-6
-1.084, 1.265e-6
-1.085, 1.268e-6
-1.086, 1.274e-6
-1.087, 1.277e-6
-1.088, 1.279e-6
-1.089, 1.282e-6
-1.090, 1.286e-6
-1.091, 1.291e-6
-1.092, 1.293e-6
-1.093, 1.294e-6
-1.094, 1.296e-6
-1.095, 1.300e-6
-1.096, 1.307e-6
-1.097, 1.309e-6
-1.098, 1.309e-6
-1.099, 1.311e-6
-1.100, 1.317e-6
-1.101, 1.322e-6
-1.102, 1.324e-6
-1.103, 1.326e-6
-1.104, 1.327e-6
-1.105, 1.332e-6
-1.106, 1.337e-6
-1.107, 1.339e-6
-1.108, 1.341e-6
-1.109, 1.343e-6
-1.110, 1.349e-6
-1.111, 1.353e-6
-1.112, 1.355e-6
-1.113, 1.357e-6
-1.114, 1.360e-6
-1.115, 1.364e-6
-1.116, 1.368e-6
-1.117, 1.370e-6
-1.118, 1.373e-6
-1.119, 1.374e-6
-1.120, 1.379e-6
-1.121, 1.385e-6
-1.122, 1.385e-6
-1.123, 1.389e-6
-1.124, 1.391e-6
-1.125, 1.394e-6
-1.126, 1.402e-6
-1.127, 1.403e-6
-1.128, 1.405e-6
-1.129, 1.408e-6
-1.130, 1.412e-6
-1.131, 1.418e-6
-1.132, 1.419e-6
-1.133, 1.421e-6
-1.134, 1.424e-6
-1.135, 1.428e-6
-1.136, 1.432e-6
-1.137, 1.434e-6
-1.138, 1.436e-6
-1.139, 1.439e-6
-1.140, 1.443e-6
-1.141, 1.448e-6
-1.142, 1.451e-6
-1.143, 1.452e-6
-1.144, 1.455e-6
-1.145, 1.461e-6
-1.146, 1.466e-6
-1.147, 1.468e-6
-1.148, 1.470e-6
-1.149, 1.472e-6
-1.150, 1.478e-6
-1.151, 1.483e-6
-1.152, 1.486e-6
-1.153, 1.488e-6
-1.154, 1.490e-6
-1.155, 1.495e-6
-1.156, 1.501e-6
-1.157, 1.502e-6
-1.158, 1.504e-6
-1.159, 1.507e-6
-1.160, 1.512e-6
-1.161, 1.517e-6
-1.162, 1.519e-6
-1.163, 1.521e-6
-1.164, 1.523e-6
-1.165, 1.528e-6
-1.166, 1.534e-6
-1.167, 1.536e-6
-1.168, 1.538e-6
-1.169, 1.542e-6
-1.170, 1.545e-6
-1.171, 1.551e-6
-1.172, 1.552e-6
-1.173, 1.554e-6
-1.174, 1.559e-6
-1.175, 1.564e-6
-1.176, 1.570e-6
-1.177, 1.573e-6
-1.178, 1.576e-6
-1.179, 1.578e-6
-1.180, 1.583e-6
-1.181, 1.587e-6
-1.182, 1.590e-6
-1.183, 1.592e-6
-1.184, 1.595e-6
-1.185, 1.601e-6
-1.186, 1.604e-6
-1.187, 1.607e-6
-1.188, 1.610e-6
-1.189, 1.612e-6
-1.190, 1.618e-6
-1.191, 1.623e-6
-1.192, 1.624e-6
-1.193, 1.629e-6
-1.194, 1.629e-6
-1.195, 1.635e-6
-1.196, 1.641e-6
-1.197, 1.643e-6
-1.198, 1.647e-6
-1.199, 1.648e-6
-1.200, 1.653e-6
-1.201, 1.661e-6
-1.202, 1.663e-6
-1.203, 1.669e-6
-1.204, 1.670e-6
-1.205, 1.674e-6
-1.206, 1.680e-6
-1.207, 1.680e-6
-1.208, 1.683e-6
-1.209, 1.688e-6
-1.210, 1.692e-6
-1.211, 1.699e-6
-1.212, 1.701e-6
-1.213, 1.702e-6
-1.214, 1.707e-6
-1.215, 1.710e-6
-1.216, 1.718e-6
-1.217, 1.720e-6
-1.218, 1.723e-6
-1.219, 1.726e-6
-1.220, 1.732e-6
-1.221, 1.738e-6
-1.222, 1.743e-6
-1.223, 1.743e-6
-1.224, 1.745e-6
-1.225, 1.752e-6
-1.226, 1.758e-6
-1.227, 1.761e-6
-1.228, 1.765e-6
-1.229, 1.773e-6
-1.230, 1.778e-6
-1.231, 1.782e-6
-1.232, 1.784e-6
-1.233, 1.786e-6
-1.234, 1.790e-6
-1.235, 1.797e-6
-1.236, 1.802e-6
-1.237, 1.805e-6
-1.238, 1.809e-6
-1.239, 1.812e-6
-1.240, 1.818e-6
-1.241, 1.826e-6
-1.242, 1.828e-6
-1.243, 1.833e-6
-1.244, 1.837e-6
-1.245, 1.843e-6
-1.246, 1.850e-6
-1.247, 1.853e-6
-1.248, 1.857e-6
-1.249, 1.861e-6
-1.250, 1.867e-6
-1.251, 1.874e-6
-1.252, 1.877e-6
-1.253, 1.880e-6
-1.254, 1.884e-6
-1.255, 1.891e-6
-1.256, 1.898e-6
-1.257, 1.903e-6
-1.258, 1.905e-6
-1.259, 1.909e-6
-1.260, 1.917e-6
-1.261, 1.924e-6
-1.262, 1.928e-6
-1.263, 1.930e-6
-1.264, 1.935e-6
-1.265, 1.943e-6
-1.266, 1.948e-6
-1.267, 1.953e-6
-1.268, 1.957e-6
-1.269, 1.961e-6
-1.270, 1.971e-6
-1.271, 1.977e-6
-1.272, 1.981e-6
-1.273, 1.985e-6
-1.274, 1.989e-6
-1.275, 1.998e-6
-1.276, 2.005e-6
-1.277, 2.008e-6
-1.278, 2.013e-6
-1.279, 2.018e-6
-1.280, 2.028e-6
-1.281, 2.037e-6
-1.282, 2.040e-6
-1.283, 2.045e-6
-1.284, 2.051e-6
-1.285, 2.058e-6
-1.286, 2.067e-6
-1.287, 2.070e-6
-1.288, 2.077e-6
-1.289, 2.083e-6
-1.290, 2.090e-6
-1.291, 2.097e-6
-1.292, 2.101e-6
-1.293, 2.106e-6
-1.294, 2.110e-6
-1.295, 2.119e-6
-1.296, 2.126e-6
-1.297, 2.132e-6
-1.298, 2.135e-6
-1.299, 2.139e-6
-1.300, 2.147e-6
-1.301, 2.154e-6
-1.302, 2.160e-6
-1.303, 2.164e-6
-1.304, 2.169e-6
-1.305, 2.177e-6
-1.306, 2.185e-6
-1.307, 2.188e-6
-1.308, 2.192e-6
-1.309, 2.198e-6
-1.310, 2.206e-6
-1.311, 2.213e-6
-1.312, 2.218e-6
-1.313, 2.224e-6
-1.314, 2.227e-6
-1.315, 2.236e-6
-1.316, 2.244e-6
-1.317, 2.247e-6
-1.318, 2.254e-6
-1.319, 2.258e-6
-1.320, 2.266e-6
-1.321, 2.275e-6
-1.322, 2.278e-6
-1.323, 2.284e-6
-1.324, 2.288e-6
-1.325, 2.296e-6
-1.326, 2.305e-6
-1.327, 2.309e-6
-1.328, 2.315e-6
-1.329, 2.320e-6
-1.330, 2.327e-6
-1.331, 2.336e-6
-1.332, 2.341e-6
-1.333, 2.347e-6
-1.334, 2.353e-6
-1.335, 2.361e-6
-1.336, 2.369e-6
-1.337, 2.376e-6
-1.338, 2.378e-6
-1.339, 2.384e-6
-1.340, 2.393e-6
-1.341, 2.400e-6
-1.342, 2.406e-6
-1.343, 2.411e-6
-1.344, 2.418e-6
-1.345, 2.427e-6
-1.346, 2.435e-6
-1.347, 2.442e-6
-1.348, 2.446e-6
-1.349, 2.451e-6
-1.350, 2.460e-6
-1.351, 2.468e-6
-1.352, 2.473e-6
-1.353, 2.479e-6
-1.354, 2.485e-6
-1.355, 2.494e-6
-1.356, 2.504e-6
-1.357, 2.510e-6
-1.358, 2.516e-6
-1.359, 2.521e-6
-1.360, 2.532e-6
-1.361, 2.543e-6
-1.362, 2.548e-6
-1.363, 2.557e-6
-1.364, 2.563e-6
-1.365, 2.572e-6
-1.366, 2.582e-6
-1.367, 2.587e-6
-1.368, 2.592e-6
-1.369, 2.600e-6
-1.370, 2.610e-6
-1.371, 2.622e-6
-1.372, 2.628e-6
-1.373, 2.634e-6
-1.374, 2.641e-6
-1.375, 2.651e-6
-1.376, 2.661e-6
-1.377, 2.668e-6
-1.378, 2.673e-6
-1.379, 2.683e-6
-1.380, 2.694e-6
-1.381, 2.702e-6
-1.382, 2.711e-6
-1.383, 2.720e-6
-1.384, 2.727e-6
-1.385, 2.739e-6
-1.386, 2.749e-6
-1.387, 2.759e-6
-1.388, 2.764e-6
-1.389, 2.771e-6
-1.390, 2.782e-6
-1.391, 2.792e-6
-1.392, 2.801e-6
-1.393, 2.809e-6
-1.394, 2.816e-6
-1.395, 2.831e-6
-1.396, 2.842e-6
-1.397, 2.850e-6
-1.398, 2.857e-6
-1.399, 2.865e-6
-1.400, 2.878e-6
-1.401, 2.889e-6
-1.402, 2.896e-6
-1.403, 2.906e-6
-1.404, 2.914e-6
-1.405, 2.926e-6
-1.406, 2.940e-6
-1.407, 2.948e-6
-1.408, 2.957e-6
-1.409, 2.968e-6
-1.410, 2.979e-6
-1.411, 2.993e-6
-1.412, 3.001e-6
-1.413, 3.008e-6
-1.414, 3.019e-6
-1.415, 3.032e-6
-1.416, 3.045e-6
-1.417, 3.055e-6
-1.418, 3.063e-6
-1.419, 3.077e-6
-1.420, 3.092e-6
-1.421, 3.107e-6
-1.422, 3.118e-6
-1.423, 3.126e-6
-1.424, 3.135e-6
-1.425, 3.150e-6
-1.426, 3.162e-6
-1.427, 3.175e-6
-1.428, 3.187e-6
-1.429, 3.197e-6
-1.430, 3.212e-6
-1.431, 3.225e-6
-1.432, 3.235e-6
-1.433, 3.247e-6
-1.434, 3.261e-6
-1.435, 3.276e-6
-1.436, 3.289e-6
-1.437, 3.300e-6
-1.438, 3.312e-6
-1.439, 3.323e-6
-1.440, 3.342e-6
-1.441, 3.357e-6
-1.442, 3.367e-6
-1.443, 3.378e-6
-1.444, 3.391e-6
-1.445, 3.409e-6
-1.446, 3.426e-6
-1.447, 3.438e-6
-1.448, 3.451e-6
-1.449, 3.463e-6
-1.450, 3.479e-6
-1.451, 3.496e-6
-1.452, 3.509e-6
-1.453, 3.522e-6
-1.454, 3.538e-6
-1.455, 3.555e-6
-1.456, 3.572e-6
-1.457, 3.586e-6
-1.458, 3.597e-6
-1.459, 3.613e-6
-1.460, 3.631e-6
-1.461, 3.647e-6
-1.462, 3.660e-6
-1.463, 3.673e-6
-1.464, 3.689e-6
-1.465, 3.710e-6
-1.466, 3.727e-6
-1.467, 3.741e-6
-1.468, 3.755e-6
-1.469, 3.770e-6
-1.470, 3.789e-6
-1.471, 3.809e-6
-1.472, 3.823e-6
-1.473, 3.839e-6
-1.474, 3.856e-6
-1.475, 3.878e-6
-1.476, 3.895e-6
-1.477, 3.910e-6
-1.478, 3.925e-6
-1.479, 3.941e-6
-1.480, 3.964e-6
-1.481, 3.985e-6
-1.482, 3.999e-6
-1.483, 4.016e-6
-1.484, 4.033e-6
-1.485, 4.060e-6
-1.486, 4.081e-6
-1.487, 4.095e-6
-1.488, 4.113e-6
-1.489, 4.133e-6
-1.490, 4.154e-6
-1.491, 4.177e-6
-1.492, 4.194e-6
-1.493, 4.208e-6
-1.494, 4.228e-6
-1.495, 4.248e-6
-1.496, 4.272e-6
-1.497, 4.291e-6
-1.498, 4.308e-6
-1.499, 4.330e-6
-1.500, 4.355e-6
-1.501, 4.378e-6
-1.502, 4.396e-6
-1.503, 4.415e-6
-1.504, 4.437e-6
-1.505, 4.464e-6
-1.506, 4.488e-6
-1.507, 4.511e-6
-1.508, 4.533e-6
-1.509, 4.556e-6
-1.510, 4.584e-6
-1.511, 4.608e-6
-1.512, 4.630e-6
-1.513, 4.650e-6
-1.514, 4.672e-6
-1.515, 4.702e-6
-1.516, 4.730e-6
-1.517, 4.753e-6
-1.518, 4.776e-6
-1.519, 4.799e-6
-1.520, 4.828e-6
-1.521, 4.855e-6
-1.522, 4.879e-6
-1.523, 4.902e-6
-1.524, 4.929e-6
-1.525, 4.960e-6
-1.526, 4.992e-6
-1.527, 5.018e-6
-1.528, 5.045e-6
-1.529, 5.074e-6
-1.530, 5.106e-6
-1.531, 5.138e-6
-1.532, 5.166e-6
-1.533, 5.191e-6
-1.534, 5.224e-6
-1.535, 5.255e-6
-1.536, 5.289e-6
-1.537, 5.319e-6
-1.538, 5.346e-6
-1.539, 5.381e-6
-1.540, 5.417e-6
-1.541, 5.451e-6
-1.542, 5.485e-6
-1.543, 5.517e-6
-1.544, 5.551e-6
-1.545, 5.589e-6
-1.546, 5.625e-6
-1.547, 5.657e-6
-1.548, 5.690e-6
-1.549, 5.725e-6
-1.550, 5.770e-6
-1.551, 5.807e-6
-1.552, 5.841e-6
-1.553, 5.875e-6
-1.554, 5.910e-6
-1.555, 5.951e-6
-1.556, 5.990e-6
-1.557, 6.027e-6
-1.558, 6.066e-6
-1.559, 6.102e-6
-1.560, 6.147e-6
-1.561, 6.190e-6
-1.562, 6.228e-6
-1.563, 6.264e-6
-1.564, 6.308e-6
-1.565, 6.356e-6
-1.566, 6.404e-6
-1.567, 6.444e-6
-1.568, 6.485e-6
-1.569, 6.530e-6
-1.570, 6.577e-6
-1.571, 6.627e-6
-1.572, 6.670e-6
-1.573, 6.715e-6
-1.574, 6.765e-6
-1.575, 6.815e-6
-1.576, 6.867e-6
-1.577, 6.917e-6
-1.578, 6.965e-6
-1.579, 7.019e-6
-1.580, 7.074e-6
-1.581, 7.127e-6
-1.582, 7.176e-6
-1.583, 7.223e-6
-1.584, 7.274e-6
-1.585, 7.333e-6
-1.586, 7.389e-6
-1.587, 7.446e-6
-1.588, 7.501e-6
-1.589, 7.556e-6
-1.590, 7.620e-6
-1.591, 7.677e-6
-1.592, 7.734e-6
-1.593, 7.791e-6
-1.594, 7.850e-6
-1.595, 7.916e-6
-1.596, 7.980e-6
-1.597, 8.037e-6
-1.598, 8.098e-6
-1.599, 8.160e-6
-1.600, 8.233e-6
-1.601, 8.304e-6
-1.602, 8.365e-6
-1.603, 8.431e-6
-1.604, 8.499e-6
-1.605, 8.572e-6
-1.606, 8.644e-6
-1.607, 8.708e-6
-1.608, 8.780e-6
-1.609, 8.851e-6
-1.610, 8.924e-6
-1.611, 9.004e-6
-1.612, 9.077e-6
-1.613, 9.147e-6
-1.614, 9.226e-6
-1.615, 9.307e-6
-1.616, 9.387e-6
-1.617, 9.463e-6
-1.618, 9.537e-6
-1.619, 9.623e-6
-1.620, 9.709e-6
-1.621, 9.796e-6
-1.622, 9.876e-6
-1.623, 9.954e-6
-1.624, 1.004e-5
-1.625, 1.013e-5
-1.626, 1.022e-5
-1.627, 1.031e-5
-1.628, 1.039e-5
-1.629, 1.048e-5
-1.630, 1.058e-5
-1.631, 1.068e-5
-1.632, 1.077e-5
-1.633, 1.087e-5
-1.634, 1.097e-5
-1.635, 1.107e-5
-1.636, 1.117e-5
-1.637, 1.127e-5
-1.638, 1.138e-5
-1.639, 1.150e-5
-1.640, 1.160e-5
-1.641, 1.171e-5
-1.642, 1.181e-5
-1.643, 1.192e-5
-1.644, 1.202e-5
-1.645, 1.213e-5
-1.646, 1.225e-5
-1.647, 1.236e-5
-1.648, 1.248e-5
-1.649, 1.260e-5
-1.650, 1.273e-5
-1.651, 1.286e-5
-1.652, 1.299e-5
-1.653, 1.311e-5
-1.654, 1.324e-5
-1.655, 1.337e-5
-1.656, 1.351e-5
-1.657, 1.361e-5
-1.658, 1.373e-5
-1.659, 1.387e-5
-1.660, 1.402e-5
-1.661, 1.415e-5
-1.662, 1.429e-5
-1.663, 1.444e-5
-1.664, 1.459e-5
-1.665, 1.475e-5
-1.666, 1.490e-5
-1.667, 1.505e-5
-1.668, 1.521e-5
-1.669, 1.536e-5
-1.670, 1.554e-5
-1.671, 1.571e-5
-1.672, 1.587e-5
-1.673, 1.604e-5
-1.674, 1.621e-5
-1.675, 1.640e-5
-1.676, 1.658e-5
-1.677, 1.677e-5
-1.678, 1.695e-5
-1.679, 1.714e-5
-1.680, 1.734e-5
-1.681, 1.753e-5
-1.682, 1.773e-5
-1.683, 1.793e-5
-1.684, 1.814e-5
-1.685, 1.835e-5
-1.686, 1.856e-5
-1.687, 1.878e-5
-1.688, 1.901e-5
-1.689, 1.924e-5
-1.690, 1.949e-5
-1.691, 1.973e-5
-1.692, 1.996e-5
-1.693, 2.019e-5
-1.694, 2.043e-5
-1.695, 2.069e-5
-1.696, 2.096e-5
-1.697, 2.123e-5
-1.698, 2.149e-5
-1.699, 2.176e-5
-1.700, 2.204e-5
-1.701, 2.233e-5
-1.702, 2.262e-5
-1.703, 2.292e-5
-1.704, 2.322e-5
-1.705, 2.354e-5
-1.706, 2.386e-5
-1.707, 2.418e-5
-1.708, 2.449e-5
-1.709, 2.483e-5
-1.710, 2.519e-5
-1.711, 2.554e-5
-1.712, 2.589e-5
-1.713, 2.626e-5
-1.714, 2.664e-5
-1.715, 2.704e-5
-1.716, 2.744e-5
-1.717, 2.781e-5
-1.718, 2.821e-5
-1.719, 2.864e-5
-1.720, 2.909e-5
-1.721, 2.954e-5
-1.722, 2.999e-5
-1.723, 3.046e-5
-1.724, 3.094e-5
-1.725, 3.143e-5
-1.726, 3.195e-5
-1.727, 3.247e-5
-1.728, 3.299e-5
-1.729, 3.357e-5
-1.730, 3.413e-5
-1.731, 3.472e-5
-1.732, 3.525e-5
-1.733, 3.585e-5
-1.734, 3.650e-5
-1.735, 3.712e-5
-1.736, 3.777e-5
-1.737, 3.838e-5
-1.738, 3.897e-5
-1.739, 3.968e-5
-1.740, 4.043e-5
-1.741, 4.119e-5
-1.742, 4.196e-5
-1.743, 4.270e-5
-1.744, 4.355e-5
-1.745, 4.437e-5
-1.746, 4.523e-5
-1.747, 4.605e-5
-1.748, 4.694e-5
-1.749, 4.792e-5
-1.750, 4.891e-5
-1.751, 4.985e-5
-1.752, 5.085e-5
-1.753, 5.191e-5
-1.754, 5.294e-5
-1.755, 5.402e-5
-1.756, 5.519e-5
-1.757, 5.628e-5
-1.758, 5.744e-5
-1.759, 5.869e-5
-1.760, 5.988e-5
-1.761, 6.113e-5
-1.762, 6.246e-5
-1.763, 6.386e-5
-1.764, 6.526e-5
-1.765, 6.659e-5
-1.766, 6.794e-5
-1.767, 6.930e-5
-1.768, 7.067e-5
-1.769, 7.224e-5
-1.770, 7.378e-5
-1.771, 7.541e-5
-1.772, 7.713e-5
-1.773, 7.883e-5
-1.774, 8.053e-5
-1.775, 8.212e-5
-1.776, 8.378e-5
-1.777, 8.550e-5
-1.778, 8.750e-5
-1.779, 8.946e-5
-1.780, 9.143e-5
-1.781, 9.342e-5
-1.782, 9.538e-5
-1.783, 9.738e-5
-1.784, 9.947e-5
-1.785, 1.016e-4
-1.786, 1.038e-4
-1.787, 1.061e-4
-1.788, 1.085e-4
-1.789, 1.106e-4
-1.790, 1.128e-4
-1.791, 1.150e-4
-1.792, 1.173e-4
-1.793, 1.199e-4
-1.794, 1.226e-4
-1.795, 1.251e-4
-1.796, 1.278e-4
-1.797, 1.306e-4
-1.798, 1.332e-4
-1.799, 1.358e-4
-1.800, 1.385e-4
-1.801, 1.414e-4
-1.802, 1.442e-4
-1.803, 1.472e-4
-1.804, 1.498e-4
-1.805, 1.529e-4
-1.806, 1.559e-4
-1.807, 1.589e-4
-1.808, 1.619e-4
-1.809, 1.648e-4
-1.810, 1.683e-4
-1.811, 1.716e-4
-1.812, 1.747e-4
-1.813, 1.779e-4
-1.814, 1.812e-4
-1.815, 1.845e-4
-1.816, 1.877e-4
-1.817, 1.913e-4
-1.818, 1.947e-4
-1.819, 1.984e-4
-1.820, 2.020e-4
-1.821, 2.057e-4
-1.822, 2.096e-4
-1.823, 2.132e-4
-1.824, 2.169e-4
-1.825, 2.207e-4
-1.826, 2.247e-4
-1.827, 2.285e-4
-1.828, 2.326e-4
-1.829, 2.367e-4
-1.830, 2.408e-4
-1.831, 2.450e-4
-1.832, 2.491e-4
-1.833, 2.533e-4
-1.834, 2.574e-4
-1.835, 2.614e-4
-1.836, 2.657e-4
-1.837, 2.698e-4
-1.838, 2.742e-4
-1.839, 2.788e-4
-1.840, 2.833e-4
-1.841, 2.877e-4
-1.842, 2.924e-4
-1.843, 2.969e-4
-1.844, 3.017e-4
-1.845, 3.069e-4
-1.846, 3.118e-4
-1.847, 3.169e-4
-1.848, 3.218e-4
-1.849, 3.266e-4
-1.850, 3.314e-4
-1.851, 3.364e-4
-1.852, 3.418e-4
-1.853, 3.472e-4
-1.854, 3.523e-4
-1.855, 3.581e-4
-1.856, 3.634e-4
-1.857, 3.688e-4
-1.858, 3.744e-4
-1.859, 3.799e-4
-1.860, 3.857e-4
-1.861, 3.913e-4
-1.862, 3.971e-4
-1.863, 4.031e-4
-1.864, 4.088e-4
-1.865, 4.151e-4
-1.866, 4.213e-4
-1.867, 4.276e-4
-1.868, 4.339e-4
-1.869, 4.402e-4
-1.870, 4.468e-4
-1.871, 4.535e-4
-1.872, 4.600e-4
-1.873, 4.666e-4
-1.874, 4.737e-4
-1.875, 4.805e-4
-1.876, 4.871e-4
-1.877, 4.940e-4
-1.878, 5.013e-4
-1.879, 5.083e-4
-1.880, 5.151e-4
-1.881, 5.221e-4
-1.882, 5.292e-4
-1.883, 5.368e-4
-1.884, 5.441e-4
-1.885, 5.522e-4
-1.886, 5.596e-4
-1.887, 5.679e-4
-1.888, 5.760e-4
-1.889, 5.836e-4
-1.890, 5.916e-4
-1.891, 5.995e-4
-1.892, 6.077e-4
-1.893, 6.161e-4
-1.894, 6.243e-4
-1.895, 6.335e-4
-1.896, 6.422e-4
-1.897, 6.511e-4
-1.898, 6.596e-4
-1.899, 6.683e-4
-1.900, 6.775e-4
-1.901, 6.870e-4
-1.902, 6.960e-4
-1.903, 7.050e-4
-1.904, 7.143e-4
-1.905, 7.239e-4
-1.906, 7.335e-4
-1.907, 7.436e-4
-1.908, 7.533e-4
-1.909, 7.635e-4
-1.910, 7.740e-4
-1.911, 7.844e-4
-1.912, 7.949e-4
-1.913, 8.054e-4
-1.914, 8.158e-4
-1.915, 8.275e-4
-1.916, 8.384e-4
-1.917, 8.492e-4
-1.918, 8.598e-4
-1.919, 8.707e-4
-1.920, 8.823e-4
-1.921, 8.936e-4
-1.922, 9.055e-4
-1.923, 9.173e-4
-1.924, 9.295e-4
-1.925, 9.420e-4
-1.926, 9.540e-4
-1.927, 9.662e-4
-1.928, 9.794e-4
-1.929, 9.925e-4
-1.930, 1.005e-3
-1.931, 1.011e-3
-1.932, 1.011e-3
-1.933, 1.011e-3
-1.934, 1.011e-3
-1.935, 1.011e-3
-1.936, 1.011e-3
-1.937, 1.011e-3
-1.938, 1.011e-3
-1.939, 1.011e-3
-1.940, 1.011e-3
-1.941, 1.011e-3
-1.942, 1.011e-3
-1.943, 1.011e-3
-1.944, 1.011e-3
-1.945, 1.011e-3
-1.946, 1.011e-3
-1.947, 1.011e-3
-1.948, 1.011e-3
-1.949, 1.011e-3
-1.950, 1.011e-3
-1.951, 1.011e-3
-1.952, 1.011e-3
-1.953, 1.011e-3
-1.954, 1.011e-3
-1.955, 1.011e-3
-1.956, 1.011e-3
-1.957, 1.011e-3
-1.958, 1.011e-3
-1.959, 1.011e-3
-1.960, 1.011e-3
-1.961, 1.011e-3
-1.962, 1.011e-3
-1.963, 1.011e-3
-1.964, 1.011e-3
-1.965, 1.011e-3
-1.966, 1.011e-3
-1.967, 1.011e-3
-1.968, 1.011e-3
-1.969, 1.011e-3
-1.970, 1.011e-3
-1.971, 1.011e-3
-1.972, 1.011e-3
-1.973, 1.011e-3
-1.974, 1.011e-3
-1.975, 1.011e-3
-1.976, 1.011e-3
-1.977, 1.011e-3
-1.978, 1.011e-3
-1.979, 1.011e-3
-1.980, 1.011e-3
-1.981, 1.011e-3
-1.982, 1.011e-3
-1.983, 1.011e-3
-1.984, 1.011e-3
-1.985, 1.011e-3
-1.986, 1.011e-3
-1.987, 1.011e-3
-1.988, 1.011e-3
-1.989, 1.011e-3
-1.990, 1.011e-3
-1.991, 1.011e-3
-1.992, 1.011e-3
-1.993, 1.011e-3
-1.994, 1.011e-3
-1.995, 1.011e-3
-1.996, 1.011e-3
-1.997, 1.011e-3
-1.998, 1.011e-3
-1.999, 1.011e-3
-2.000, 1.011e-3
-2.001, 1.011e-3
-2.002, 1.011e-3
-2.003, 1.011e-3
-2.004, 1.011e-3
-2.005, 1.011e-3
-2.006, 1.011e-3
-2.007, 1.011e-3
-2.008, 1.011e-3
-2.009, 1.011e-3
-2.010, 1.011e-3
-2.011, 1.011e-3
-2.012, 1.011e-3
-2.013, 1.011e-3
-2.014, 1.011e-3
-2.015, 1.011e-3
-2.016, 1.011e-3
-2.017, 1.011e-3
-2.018, 1.011e-3
-2.019, 1.011e-3
-2.020, 1.011e-3
-2.021, 1.011e-3
-2.022, 1.011e-3
-2.023, 1.011e-3
-2.024, 1.011e-3
-2.025, 1.011e-3
-2.026, 1.011e-3
-2.027, 1.011e-3
-2.028, 1.011e-3
-2.029, 1.011e-3
-2.030, 1.011e-3
-2.031, 1.011e-3
-2.032, 1.011e-3
-2.033, 1.011e-3
-2.034, 1.011e-3
-2.035, 1.011e-3
-2.036, 1.011e-3
-2.037, 1.011e-3
-2.038, 1.011e-3
-2.039, 1.011e-3
-2.040, 1.011e-3
-2.041, 1.011e-3
-2.042, 1.011e-3
-2.043, 1.011e-3
-2.044, 1.011e-3
-2.045, 1.011e-3
-2.046, 1.011e-3
-2.047, 1.011e-3
-2.048, 1.011e-3
-2.049, 1.011e-3
-2.050, 1.011e-3
-2.051, 1.011e-3
-2.052, 1.011e-3
-2.053, 1.011e-3
-2.054, 1.011e-3
-2.055, 1.011e-3
-2.056, 1.011e-3
-2.057, 1.011e-3
-2.058, 1.011e-3
-2.059, 1.011e-3
-2.060, 1.011e-3
-2.061, 1.011e-3
-2.062, 1.011e-3
-2.063, 1.011e-3
-2.064, 1.011e-3
-2.065, 1.011e-3
-2.066, 1.011e-3
-2.067, 1.011e-3
-2.068, 1.011e-3
-2.069, 1.011e-3
-2.070, 1.011e-3
-2.071, 1.011e-3
-2.072, 1.011e-3
-2.073, 1.011e-3
-2.074, 1.011e-3
-2.075, 1.011e-3
-2.076, 1.011e-3
-2.077, 1.011e-3
-2.078, 1.011e-3
-2.079, 1.011e-3
-2.080, 1.011e-3
-2.081, 1.011e-3
-2.082, 1.011e-3
-2.083, 1.011e-3
-2.084, 1.011e-3
-2.085, 1.011e-3
-2.086, 1.011e-3
-2.087, 1.011e-3
-2.088, 1.011e-3
-2.089, 1.011e-3
-2.090, 1.011e-3
-2.091, 1.011e-3
-2.092, 1.011e-3
-2.093, 1.011e-3
-2.094, 1.011e-3
-2.095, 1.011e-3
-2.096, 1.011e-3
-2.097, 1.011e-3
-2.098, 1.011e-3
-2.099, 1.011e-3
