Potential V vs RHE, Current mA cm-2
0.013299999999999867,-0.2202705493889862
0.012299999999999978,-1.3107300193249565
0.011299999999999866,-2.3569090255751513
0.010299999999999976,-3.317497998183511
0.009299999999999864,-4.1889601589003735
0.008299999999999974,-5.017980980621284
0.007299999999999862,-5.759289701750564
0.006299999999999972,-6.500598422879844
0.00529999999999986,-7.155609754717355
0.0042999999999999705,-7.809206375255003
0.0032999999999998586,-8.332649556205066
0.0022999999999999687,-8.899948787450944
0.0012999999999998568,-9.423391968401008
0.00029999999999996696,-9.902979099055257
-0.000700000000000145,-10.382566229709504
-0.0017000000000000348,-10.819712021367803
-0.0027000000000001467,-11.211587051430415
-0.0037000000000000366,-11.604876792792895
-0.0047000000000001485,-11.952895772559694
-0.005700000000000038,-12.258473413330542
-0.00670000000000015,-12.607907104397206
-0.00770000000000004,-12.913484745168056
-0.008700000000000152,-13.175206335643086
-0.009700000000000042,-13.436927926118118
-0.010700000000000154,-13.698649516593148
-0.011700000000000044,-13.960371107068182
-0.012700000000000156,-14.13438059695158
-0.013700000000000045,-14.345172580631472
-0.014700000000000157,-14.529085049613924
-0.015700000000000047,-14.69885040559773
-0.01670000000000016,-14.868615761581536
-0.01770000000000005,-15.01008689156804
-0.01870000000000016,-15.179852247551842
-0.01970000000000005,-15.349617603535648
-0.020700000000000163,-15.491088733522153
-0.021700000000000053,-15.618412750510005
-0.022700000000000164,-15.70329542850191
-0.023700000000000054,-15.830619445489761
-0.024700000000000166,-15.91550212348166
-0.025700000000000056,-16.014531914472215
-0.026700000000000168,-16.099414592464115
-0.027700000000000058,-16.22673860945197
-0.02870000000000017,-16.311621287443874
-0.02970000000000006,-16.396503965435777
-0.03070000000000017,-16.495533756426326
-0.03170000000000006,-16.53797509542228
-0.03270000000000017,-16.580416434418233
-0.03370000000000006,-16.70774045140608
-0.034700000000000175,-16.750181790402035
-0.035700000000000065,-16.835064468393938
-0.03670000000000018,-16.835064468393938
-0.03770000000000007,-16.877505807389888
-0.03870000000000018,-16.962388485381787
-0.03970000000000007,-17.018976937376394
-0.04070000000000018,-17.103859615368293
-0.04170000000000007,-17.146300954364243
-0.04270000000000018,-17.188742293360193
-0.04370000000000007,-17.188742293360193
-0.044700000000000184,-17.231183632356142
-0.045700000000000074,-17.231183632356142
-0.046700000000000186,-17.2736249713521
-0.047700000000000076,-17.316066310348052
-0.04870000000000019,-17.358507649344002
-0.04970000000000008,-17.4433903273359
-0.05070000000000019,-17.4433903273359
-0.05170000000000008,-17.4433903273359
-0.05270000000000019,-17.4433903273359
-0.05370000000000008,-17.48583166633185
-0.05470000000000019,-17.542420118326454
-0.05570000000000008,-17.584861457322408
-0.056700000000000195,-17.584861457322408
-0.057700000000000085,-17.584861457322408
-0.058700000000000196,-17.584861457322408
-0.059700000000000086,-17.627302796318357
-0.0607000000000002,-17.669744135314307
-0.06170000000000009,-17.669744135314307
-0.0627000000000002,-17.669744135314307
-0.06370000000000009,-17.669744135314307
-0.0647000000000002,-17.669744135314307
-0.06570000000000009,-17.71218547431026
-0.0667000000000002,-17.71218547431026
-0.0677000000000001,-17.71218547431026
-0.0687000000000002,-17.71218547431026
-0.0697000000000001,-17.71218547431026
-0.07070000000000021,-17.71218547431026
-0.0717000000000001,-17.75462681330621
-0.07270000000000021,-17.75462681330621
-0.0737000000000001,-17.797068152302163
-0.07470000000000021,-17.75462681330621
-0.0757000000000001,-17.75462681330621
-0.07670000000000021,-17.75462681330621
-0.0777000000000001,-17.75462681330621
-0.07870000000000021,-17.797068152302163
-0.0797000000000001,-17.839509491298113
-0.08070000000000022,-17.839509491298113
-0.0817000000000001,-17.839509491298113
-0.08270000000000022,-17.797068152302163
-0.08370000000000011,-17.797068152302163
-0.08470000000000022,-17.839509491298113
-0.08570000000000011,-17.839509491298113
-0.08670000000000022,-17.881950830294063
-0.08770000000000011,-17.881950830294063
-0.08870000000000022,-17.839509491298113
-0.08970000000000011,-17.881950830294063
-0.09070000000000022,-17.881950830294063
-0.09170000000000011,-17.924392169290012
-0.09270000000000023,-17.924392169290012
-0.09370000000000012,-17.881950830294063
-0.09470000000000023,-17.881950830294063
-0.09570000000000012,-17.839509491298113
-0.09670000000000023,-17.881950830294063
-0.09770000000000012,-17.924392169290012
-0.09870000000000023,-17.924392169290012
-0.09970000000000012,-17.924392169290012
-0.10070000000000023,-17.881950830294063
-0.10170000000000012,-17.881950830294063
-0.10270000000000024,-17.881950830294063
-0.10370000000000013,-17.924392169290012
-0.10470000000000024,-17.924392169290012
-0.10570000000000013,-17.924392169290012
-0.10670000000000024,-17.881950830294063
-0.10770000000000013,-17.881950830294063
-0.10870000000000024,-17.881950830294063
-0.10970000000000013,-17.924392169290012
-0.11070000000000024,-17.924392169290012
-0.11170000000000013,-17.924392169290012
-0.11270000000000002,-17.924392169290012
-0.11370000000000013,-17.924392169290012
-0.11470000000000002,-17.924392169290012
-0.11570000000000014,-17.924392169290012
-0.11670000000000003,-17.924392169290012
-0.11770000000000014,-17.924392169290012
-0.11870000000000003,-17.924392169290012
-0.11970000000000014,-17.881950830294063
-0.12070000000000003,-17.924392169290012
-0.12170000000000014,-17.966833508285966
-0.12270000000000003,-17.966833508285966
-0.12370000000000014,-17.966833508285966
-0.12470000000000003,-17.924392169290012
-0.12570000000000014,-17.924392169290012
-0.12670000000000003,-17.924392169290012
-0.12770000000000015,-17.924392169290012
-0.12870000000000004,-17.966833508285966
-0.12970000000000015,-17.966833508285966
-0.13070000000000004,-17.966833508285966
-0.13170000000000015,-17.966833508285966
-0.13270000000000004,-17.966833508285966
-0.13370000000000015,-17.966833508285966
-0.13470000000000004,-18.009274847281915
-0.13570000000000015,-18.009274847281915
-0.13670000000000004,-18.009274847281915
-0.13770000000000016,-18.06586329927652
-0.13870000000000005,-18.06586329927652
-0.13970000000000016,-18.06586329927652
-0.14070000000000005,-18.10830463827247
-0.14170000000000016,-18.10830463827247
-0.14270000000000005,-18.10830463827247
-0.14370000000000016,-18.10830463827247
-0.14470000000000005,-18.10830463827247
-0.14570000000000016,-18.10830463827247
-0.14670000000000005,-18.15074597726842
-0.14770000000000016,-18.15074597726842
-0.14870000000000005,-18.19318731626437
-0.14970000000000017,-18.19318731626437
-0.15070000000000006,-18.19318731626437
-0.15170000000000017,-18.23562865526032
-0.15270000000000006,-18.23562865526032
-0.15370000000000017,-18.23562865526032
-0.15470000000000006,-18.23562865526032
-0.15570000000000017,-18.23562865526032
-0.15670000000000006,-18.27806999425627
-0.15770000000000017,-18.27806999425627
-0.15870000000000006,-18.320511333252224
-0.15970000000000018,-18.320511333252224
-0.16070000000000007,-18.362952672248177
-0.16170000000000018,-18.362952672248177
-0.16270000000000007,-18.362952672248177
-0.16370000000000018,-18.362952672248177
-0.16470000000000007,-18.40539401124413
-0.16570000000000018,-18.40539401124413
-0.16670000000000007,-18.40539401124413
-0.16770000000000018,-18.44783535024008
-0.16870000000000007,-18.44783535024008
-0.16970000000000018,-18.49027668923603
-0.17070000000000007,-18.49027668923603
-0.17170000000000019,-18.53271802823198
-0.17270000000000008,-18.53271802823198
-0.1737000000000002,-18.589306480226583
-0.17470000000000008,-18.589306480226583
-0.1757000000000002,-18.631747819222536
-0.17670000000000008,-18.631747819222536
-0.1777000000000002,-18.674189158218486
-0.17870000000000008,-18.674189158218486
-0.1797000000000002,-18.716630497214435
-0.18070000000000008,-18.759071836210385
-0.1817000000000002,-18.80151317520634
-0.18270000000000008,-18.843954514202288
-0.1837000000000002,-18.843954514202288
-0.1847000000000001,-18.843954514202288
-0.1857000000000002,-18.843954514202288
-0.1867000000000001,-18.88639585319824
-0.1877000000000002,-18.92883719219419
-0.1887000000000001,-19.01371987018609
-0.1897000000000002,-19.056161209182044
-0.1907000000000001,-19.056161209182044
-0.1917000000000001,-19.056161209182044
-0.19269999999999998,-19.112749661176647
-0.1937000000000001,-19.155191000172596
-0.19469999999999998,-19.197632339168546
-0.1957000000000001,-19.197632339168546
-0.19669999999999999,-19.2400736781645
-0.1977000000000001,-19.28251501716045
-0.1987,-19.28251501716045
-0.1997000000000001,-19.367397695152352
-0.2007,-19.409839034148305
-0.2017000000000001,-19.409839034148305
-0.2027,-19.452280373144255
-0.2037000000000001,-19.452280373144255
-0.2047,-19.49472171214021
-0.2057000000000001,-19.579604390132108
-0.2067,-19.636192842126707
-0.2077000000000001,-19.678634181122664
-0.2087,-19.678634181122664
-0.2097000000000001,-19.721075520118614
-0.2107,-19.721075520118614
-0.2117000000000001,-19.805958198110513
-0.2127,-19.848399537106463
-0.2137000000000001,-19.890840876102416
-0.2147,-19.93328221509837
-0.2157000000000001,-19.97572355409432
-0.2167,-20.01816489309027
-0.21770000000000012,-20.06060623208622
-0.2187,-20.159636023076775
-0.21970000000000012,-20.244518701068674
-0.2207,-20.286960040064624
-0.22170000000000012,-20.286960040064624
-0.2227,-20.329401379060574
-0.22370000000000012,-20.414284057052477
-0.2247,-20.456725396048434
-0.22570000000000012,-20.499166735044383
-0.2267,-20.584049413036283
-0.22770000000000012,-20.626490752032236
-0.22870000000000001,-20.683079204026836
-0.22970000000000013,-20.72552054302279
-0.23070000000000002,-20.810403221014692
-0.23170000000000013,-20.89528589900659
-0.23270000000000002,-20.980168576998494
-0.23370000000000013,-20.980168576998494
-0.23470000000000002,-21.022609915994444
-0.23570000000000013,-21.065051254990397
-0.23670000000000002,-21.149933932982297
-0.2376999999999999,-21.248963723972853
-0.23870000000000002,-21.333846401964752
-0.2396999999999999,-21.418729079956652
-0.24070000000000003,-21.461170418952605
-0.24169999999999991,-21.503611757948562
-0.24270000000000003,-21.58849443594046
-0.24369999999999992,-21.67337711393236
-0.24470000000000003,-21.814848243918867
-0.24569999999999992,-21.899730921910766
-0.24670000000000003,-21.94217226090672
-0.24769999999999992,-22.027054938898623
-0.24870000000000003,-22.111937616890522
-0.24969999999999992,-22.253408746877028
-0.25070000000000003,-22.33829142486893
-0.2516999999999999,-22.42317410286083
-0.25270000000000004,-22.508056780852733
-0.2536999999999999,-22.67782213683654
-0.25470000000000004,-22.776851927827092
-0.2556999999999999,-22.861734605818995
-0.25670000000000004,-22.946617283810895
-0.25769999999999993,-23.031499961802798
-0.25870000000000004,-23.2012653177866
-0.25969999999999993,-23.342736447773106
-0.26070000000000004,-23.47006046476096
-0.26169999999999993,-23.597384481748815
-0.26270000000000004,-23.682267159740714
-0.26369999999999993,-23.767149837732617
-0.26470000000000005,-23.86617962872317
-0.26569999999999994,-24.035944984706973
-0.26670000000000005,-24.120827662698876
-0.26769999999999994,-24.24815167968673
-0.26870000000000005,-24.389622809673234
-0.26969999999999994,-24.516946826661083
-0.27070000000000005,-24.64427084364894
-0.27169999999999994,-24.771594860636792
-0.27270000000000005,-24.95550732961925
-0.27369999999999994,-25.04039000761115
-0.27470000000000006,-25.210155363594954
-0.27569999999999995,-25.337479380582806
-0.27670000000000006,-25.478950510569312
-0.27769999999999995,-25.648715866553115
-0.27870000000000006,-25.81848122253692
-0.27969999999999995,-26.002393691519377
-0.28070000000000006,-26.17215904750318
-0.28169999999999995,-26.29948306449103
-0.28270000000000006,-26.483395533473487
-0.28369999999999995,-26.61071955046134
-0.28470000000000006,-26.822926245441096
-0.28569999999999995,-27.00683871442355
-0.28670000000000007,-27.176604070407354
-0.28769999999999996,-27.34636942639116
-0.28870000000000007,-27.530281895373616
-0.28969999999999996,-27.742488590353368
-0.29070000000000007,-27.954695285333123
-0.29169999999999996,-28.13860775431558
-0.29270000000000007,-28.350814449295335
-0.29369999999999996,-28.53472691827779
-0.2947000000000001,-28.746933613257543
-0.29569999999999996,-28.91669896924135
-0.2967000000000001,-29.14305277721976
-0.29769999999999996,-29.35525947219951
-0.2987000000000001,-29.581613280177915
-0.29969999999999997,-29.793819975157668
-0.3007000000000001,-30.00602667013743
-0.30169999999999997,-30.274821817111786
-0.3027000000000001,-30.487028512091538
-0.30369999999999997,-30.71338232006995
-0.3047000000000001,-30.925589015049702
-0.30569999999999997,-31.137795710029454
-0.3067000000000001,-31.40659085700382
-0.3077,-31.717827342974125
-0.3087000000000001,-31.930034037953877
-0.3097,-32.184682071929586
-0.3107000000000001,-32.45347721890394
-0.3117,-32.70812525287965
-0.3127000000000001,-32.97692039985401
-0.3137,-33.288156885824314
-0.3147000000000001,-33.50036358080407
-0.3157,-33.755011614779775
-0.3167000000000001,-34.02380676175414
-0.3177,-34.33504324772444
-0.3187000000000001,-34.632132620696105
-0.3197,-34.98581044566235
-0.3207000000000001,-35.32534115762997
-0.3217,-35.636577643600276
-0.3227000000000001,-35.94781412957058
-0.3237,-36.20246216354629
-0.3247000000000001,-36.5136986495166
-0.3257,-36.81078802248826
-0.3267000000000001,-37.206907186450465
-0.3277,-37.56058501141672
-0.3287000000000001,-37.90011572338433
-0.3297,-38.211352209354644
-0.3307000000000001,-38.5650300343209
-0.3317,-38.86211940729255
-0.3327000000000001,-39.21579723225882
-0.3337,-39.56947505722508
-0.3347000000000001,-39.95144710818864
-0.3357,-40.30512493315489
-0.3367000000000001,-40.616361419125205
-0.3377,-40.99833347008877
-0.3387000000000001,-41.43689397304693
-0.3397,-41.79057179801318
-0.3407000000000001,-42.186690961975394
-0.3417,-42.526221673943
-0.3427000000000001,-42.837458159913304
-0.3437,-43.23357732387552
-0.3447000000000001,-43.657990713835034
-0.3457,-44.138992555789144
-0.3467000000000001,-44.577553058747306
-0.3477,-44.97367222270952
-0.3487000000000001,-45.32735004767578
-0.3497,-45.666880759643384
-0.3507000000000001,-46.062999923605595
-0.3517,-46.544001765559706
-0.3527000000000001,-47.02500360751382
-0.3537,-47.46356411047198
-0.3547000000000001,-47.80309482243959
-0.3557,-48.156772647405845
-0.35670000000000013,-48.59533315036401
-0.3577,-49.118776331314066
-0.35870000000000013,-49.642219512264134
-0.3597,-50.0807800152223
-0.36070000000000013,-50.50519340518181
-0.3617,-50.90131256914402
-0.3626999999999999,-51.29743173310623
-0.3637,-51.82087491405629
-0.3646999999999999,-52.34431809500636
-0.3657,-52.82531993696047
-0.3666999999999999,-53.22143910092268
-0.3677,-53.64585249088219
-0.3686999999999999,-54.08441299384035
-0.36970000000000003,-54.65029751378637
-0.3706999999999999,-55.21618203373238
-0.37170000000000003,-55.7820665536784
-0.3726999999999999,-56.26306839563251
-0.37370000000000003,-56.65918755959472
-0.3746999999999999,-57.05530672355693
-0.37570000000000003,-57.57874990450699
-0.3766999999999999,-58.14463442445301
-0.37770000000000004,-58.71051894439902
-0.3786999999999999,-59.23396212534908
-0.37970000000000004,-59.6300812893113
-0.3806999999999999,-60.06864179226946
-0.38170000000000004,-60.59208497321952
-0.38269999999999993,-61.20041083216149
-0.38370000000000004,-61.7662953521075
-0.38469999999999993,-62.24729719406162
-0.38570000000000004,-62.68585769701977
-0.38669999999999993,-62.37462121104946
-0.38570000000000004,-60.67696765121143
-0.38469999999999993,-59.10663810836124
-0.38370000000000004,-57.66363258249889
-0.38269999999999993,-56.26306839563251
-0.38170000000000004,-55.046416677748574
-0.3806999999999999,-53.872206298860604
-0.37970000000000004,-52.74043725896857
-0.3786999999999999,-51.65110955807249
-0.37770000000000004,-50.60422319617236
-0.3766999999999999,-49.59977817326819
-0.37570000000000003,-48.63777448935996
-0.3746999999999999,-47.76065348344364
-0.37370000000000003,-46.94012092952192
-0.3726999999999999,-46.10544126260155
-0.37170000000000003,-45.27076159568118
-0.3706999999999999,-44.45022904175945
-0.36970000000000003,-43.657990713835034
-0.3686999999999999,-42.87989949890926
-0.3677,-42.130102509980794
-0.3666999999999999,-41.39445263405098
-0.3657,-40.701244097117105
-0.3646999999999999,-39.99388844718459
-0.3637,-39.34312124924667
-0.3626999999999999,-38.692354051308754
-0.3617,-37.99914551437489
-0.36070000000000013,-37.334231203438314
-0.3597,-36.6834640055004
-0.35870000000000013,-36.03269680756248
-0.3577,-35.38192960962457
-0.35670000000000013,-34.717015298688004
-0.3557,-34.10868943974604
-0.3547000000000001,-33.45792224180811
-0.3537,-32.892037721862096
-0.3527000000000001,-32.283711862920136
-0.3517,-31.661238890979522
-0.3507000000000001,-31.052913032037555
-0.3497,-30.444587173095588
-0.3487000000000001,-29.878702653149578
-0.3477,-29.27037679420761
-0.3467000000000001,-28.704492274261593
-0.3457,-28.13860775431558
-0.3447000000000001,-27.572723234369565
-0.3437,-27.049280053419505
-0.3427000000000001,-26.483395533473487
-0.3417,-25.91751101352747
-0.3407000000000001,-25.337479380582806
-0.3397,-24.771594860636792
-0.3387000000000001,-24.24815167968673
-0.3377,-23.724708498736668
-0.3367000000000001,-23.2012653177866
-0.3357,-22.67782213683654
-0.3347000000000001,-22.111937616890522
-0.3337,-21.63093577493641
-0.3327000000000001,-21.149933932982297
-0.3317,-20.626490752032236
-0.3307000000000001,-20.10304757108217
-0.3297,-19.579604390132108
-0.3287000000000001,-19.056161209182044
-0.3277,-18.589306480226583
-0.3267000000000001,-18.06586329927652
-0.3257,-17.584861457322408
-0.3247000000000001,-17.146300954364243
-0.3237,-16.665299112410132
-0.3227000000000001,-16.184297270456018
-0.3217,-15.70329542850191
-0.3207000000000001,-15.222293586547794
-0.3197,-14.783733083589633
-0.3187000000000001,-14.30273124163552
-0.3177,-13.872659006476551
-0.3167000000000001,-13.436927926118118
-0.3157,-12.955926084164007
-0.3147000000000001,-12.520195003805576
-0.3137,-12.084463923447142
-0.3127000000000001,-11.647318131788847
-0.3117,-11.211587051430415
-0.3107000000000001,-10.775855971071984
-0.3097,-10.340124890713554
-0.3087000000000001,-9.85912304875944
-0.3077,-9.467248018696827
-0.3067000000000001,-9.031516938338395
-0.30569999999999997,-8.594371146680096
-0.3047000000000001,-8.202496116617484
-0.30369999999999997,-7.809206375255003
-0.3027000000000001,-7.37347529489657
-0.30169999999999997,-6.981600264833956
-0.3007000000000001,-6.588310523471475
-0.29969999999999997,-6.152579443113044
-0.2987000000000001,-5.759289701750564
-0.29769999999999996,-5.367414671687949
-0.2967000000000001,-4.974124930325469
-0.29569999999999996,-4.582249900262854
-0.2947000000000001,-4.1889601589003735
-0.29369999999999996,-3.840941179133574
-0.29270000000000007,-3.4915074880669104
-0.29169999999999996,-3.0996324580042955
-0.29070000000000007,-2.706342716641815
-0.28969999999999996,-2.3569090255751513
-0.28870000000000007,-2.008890045808352
-0.28769999999999996,-1.6156003044458718
-0.28670000000000007,-1.2671569112891135
-0.28569999999999995,-0.9181476336124089
-0.28470000000000006,-0.5692798270656908
-0.28369999999999995,-0.2202705493889862
-0.28270000000000006,0.12863969849672777
-0.28169999999999995,0.43403342679859325
-0.28070000000000006,0.7829012333453113
-0.27969999999999995,1.1317690398920295
-0.27870000000000006,1.4812027309586933
-0.27769999999999995,1.7867803717295414
-0.27670000000000006,2.0909433012005243
-0.27569999999999995,2.4403769922671885
-0.27470000000000006,2.70209858274222
-0.27369999999999994,3.0515322738088844
-0.27270000000000005,3.355695203279867
-0.27169999999999994,3.6174167937548987
-0.27070000000000005,3.922994434525747
-0.26969999999999994,4.2285720752965945
-0.26870000000000005,4.534149716067443
