Potential V vs RHE, Current mA cm-2
0.013299999999999867,-0.22691969249835187
0.012299999999999978,-1.2056169697449843
0.011299999999999866,-1.9749369746115912
0.010299999999999976,-2.6073129256512626
0.009299999999999864,-3.1420737970002466
0.008299999999999974,-3.580634299958408
0.007299999999999862,-3.9286532797252063
0.006299999999999972,-4.237060343095785
0.00529999999999986,-4.507270201370006
0.0042999999999999705,-4.716647473750032
0.0032999999999998586,-4.901974654032353
0.0022999999999999687,-5.070325298716291
0.0012999999999998568,-5.214625851302525
0.00029999999999996696,-5.315070353592943
-0.000700000000000145,-5.4296619688820105
-0.0017000000000000348,-5.518788780773508
-0.0027000000000001467,-5.5838655005673
-0.0037000000000000366,-5.651771642960822
-0.0047000000000001485,-5.723921919253939
-0.005700000000000038,-5.759289701750564
-0.00670000000000015,-5.80031632944665
-0.00770000000000004,-5.847001802342197
-0.008700000000000152,-5.888028430038283
-0.009700000000000042,-5.905004965636663
-0.010700000000000154,-5.957349283731669
-0.011700000000000044,-5.9729111080301855
-0.012700000000000156,-5.98564350972897
-0.013700000000000045,-5.9997906227276205
-0.014700000000000157,-6.042231961723571
-0.015700000000000047,-6.022426003525461
-0.01670000000000016,-6.042231961723571
-0.01770000000000005,-6.054964363422357
-0.01870000000000016,-6.066282053821277
-0.01970000000000005,-6.064867342521412
-0.020700000000000163,-6.083258589419658
-0.021700000000000053,-6.1058939702174975
-0.022700000000000164,-6.101649836317904
-0.023700000000000054,-6.132773484914934
-0.024700000000000166,-6.15965299961237
-0.025700000000000056,-6.161067710912235
-0.026700000000000168,-6.15682357701264
-0.027700000000000058,-6.183703091710075
-0.02870000000000017,-6.17380011261102
-0.02970000000000006,-6.169555978711425
-0.03070000000000017,-6.18511780300994
-0.03170000000000006,-6.195020782108996
-0.03270000000000017,-6.189361936909536
-0.03370000000000006,-6.197850204708726
-0.034700000000000175,-6.206338472507916
-0.035700000000000065,-6.204923761208051
-0.03670000000000018,-6.199264916008591
-0.03770000000000007,-6.217656162906836
-0.03870000000000018,-6.219070874206701
-0.03970000000000007,-6.204923761208051
-0.04070000000000018,-6.217656162906836
-0.04170000000000007,-6.245950388904137
-0.04270000000000018,-6.228973853305757
-0.04370000000000007,-6.254438656703328
-0.044700000000000184,-6.264341635802381
-0.045700000000000074,-6.262926924502518
-0.046700000000000186,-6.262926924502518
-0.047700000000000076,-6.281318171400763
-0.04870000000000019,-6.267171058402113
-0.04970000000000008,-6.281318171400763
-0.05070000000000019,-6.267171058402113
-0.05170000000000008,-6.292635861799683
-0.05270000000000019,-6.262926924502518
-0.05370000000000008,-6.279903460100898
-0.05470000000000019,-6.291221150499819
-0.05570000000000008,-6.282732882700628
-0.056700000000000195,-6.281318171400763
-0.057700000000000085,-6.296879995699278
-0.058700000000000196,-6.278488748801033
-0.059700000000000086,-6.271415192301707
-0.0607000000000002,-6.270000481001842
-0.06170000000000009,-6.292635861799683
-0.0627000000000002,-6.272829903601573
-0.06370000000000009,-6.274244614901438
-0.0647000000000002,-6.291221150499819
-0.06570000000000009,-6.284147594000493
-0.0667000000000002,-6.262926924502518
-0.0677000000000001,-6.284147594000493
-0.0687000000000002,-6.278488748801033
-0.0697000000000001,-6.271415192301707
-0.07070000000000021,-6.286977016600223
-0.0717000000000001,-6.278488748801033
-0.07270000000000021,-6.268585769701978
-0.0737000000000001,-6.274244614901438
-0.07470000000000021,-6.285562305300359
-0.0757000000000001,-6.285562305300359
-0.07670000000000021,-6.278488748801033
-0.0777000000000001,-6.296879995699278
-0.07870000000000021,-6.291221150499819
-0.0797000000000001,-6.284147594000493
-0.08070000000000022,-6.298294706999143
-0.0817000000000001,-6.305368263498468
-0.08270000000000022,-6.294050573099549
-0.08370000000000011,-6.301124129598874
-0.08470000000000022,-6.31951537649712
-0.08570000000000011,-6.3081976860981985
-0.08670000000000022,-6.312441819997794
-0.08770000000000011,-6.332247778195904
-0.08870000000000022,-6.330833066896039
-0.08970000000000011,-6.336491912095499
-0.09070000000000022,-6.342150757294959
-0.09170000000000011,-6.346394891194555
-0.09270000000000023,-6.339321334695229
-0.09370000000000012,-6.342150757294959
-0.09470000000000023,-6.3548831589937445
-0.09570000000000012,-6.342150757294959
-0.09670000000000023,-6.34498017989469
-0.09770000000000012,-6.360542004193205
-0.09870000000000023,-6.35063902509415
-0.09970000000000012,-6.3534684476938805
-0.10070000000000023,-6.3676155606925295
-0.10170000000000012,-6.378933251091451
-0.10270000000000024,-6.35629787029361
-0.10370000000000013,-6.35629787029361
-0.10470000000000024,-6.371859694592125
-0.10570000000000013,-6.37044498329226
-0.10670000000000024,-6.352053736394015
-0.10770000000000013,-6.388836230190505
-0.10870000000000024,-6.387421518890641
-0.10970000000000013,-6.37044498329226
-0.11070000000000024,-6.394495075389965
-0.11170000000000013,-6.376103828491721
-0.11270000000000002,-6.378933251091451
-0.11370000000000013,-6.394495075389965
-0.11470000000000002,-6.386006807590776
-0.11570000000000014,-6.391665652790236
-0.11670000000000003,-6.388836230190505
-0.11770000000000014,-6.411471610988346
-0.11870000000000003,-6.4128863222882115
-0.11970000000000014,-6.397324497989696
-0.12070000000000003,-6.421374590087401
-0.12170000000000014,-6.429862857886591
-0.12270000000000003,-6.411471610988346
-0.12370000000000014,-6.431277569186457
-0.12470000000000003,-6.451083527384568
-0.12570000000000014,-6.452498238684432
-0.12670000000000003,-6.469474774282813
-0.12770000000000015,-6.477963042082004
-0.12870000000000004,-6.489280732480923
-0.12970000000000015,-6.480792464681733
-0.13070000000000004,-6.494939577680383
-0.13170000000000015,-6.513330824578629
-0.13270000000000004,-6.506257268079304
-0.13370000000000015,-6.510501401978899
-0.13470000000000004,-6.557186874874445
-0.13570000000000015,-6.526063226277413
-0.13670000000000004,-6.54162505057593
-0.13770000000000016,-6.557186874874445
-0.13870000000000005,-6.571333987873095
-0.13970000000000016,-6.56143100877404
-0.14070000000000005,-6.589725234771341
-0.14170000000000016,-6.592554657371071
-0.14270000000000005,-6.601042925170261
-0.14370000000000016,-6.5967987912706665
-0.14470000000000005,-6.626507728567832
-0.14570000000000016,-6.6095311929694525
-0.14670000000000005,-6.627922439867697
-0.14770000000000016,-6.642069552866347
-0.14870000000000005,-6.6505578206655365
-0.14970000000000017,-6.647728398065807
-0.15070000000000006,-6.666119644964053
-0.15170000000000017,-6.674607912763243
-0.15270000000000006,-6.678852046662837
-0.15370000000000017,-6.687340314462029
-0.15470000000000006,-6.701487427460679
-0.15570000000000017,-6.698658004860949
-0.15670000000000006,-6.698658004860949
-0.15770000000000017,-6.73261107605771
-0.15870000000000006,-6.739684632557035
-0.15970000000000018,-6.742514055156764
-0.16070000000000007,-6.765149435954606
-0.16170000000000018,-6.783540682852851
-0.16270000000000007,-6.782125971552985
-0.16370000000000018,-6.813249620150017
-0.16470000000000007,-6.848617402646643
-0.16570000000000018,-6.851446825246373
-0.16670000000000007,-6.865593938245023
-0.16770000000000018,-6.895302875542188
-0.16870000000000007,-6.9052058546412445
-0.16970000000000018,-6.917938256340029
-0.17070000000000007,-6.940573637137869
-0.17170000000000019,-6.974526708334631
-0.17270000000000008,-6.980185553534091
-0.1737000000000002,-7.001406223032068
-0.17470000000000008,-7.042432850728153
-0.1757000000000002,-7.046676984627748
-0.17670000000000008,-7.063653520226129
-0.1777000000000002,-7.115997838321134
-0.17870000000000008,-7.120241972220731
-0.1797000000000002,-7.131559662619649
-0.18070000000000008,-7.164098022516545
-0.1817000000000002,-7.188148114614252
-0.18270000000000008,-7.212198206711958
-0.1837000000000002,-7.232004164910067
-0.1847000000000001,-7.271616081306289
-0.1857000000000002,-7.280104349105479
-0.1867000000000001,-7.301325018603455
-0.1877000000000002,-7.32820453330089
-0.1887000000000001,-7.352254625398595
-0.1897000000000002,-7.3649870270973805
-0.1907000000000001,-7.420160767792117
-0.1917000000000001,-7.448454993789417
-0.19269999999999998,-7.471090374587258
-0.1937000000000001,-7.523434692682265
-0.19469999999999998,-7.560217186478756
-0.1957000000000001,-7.588511412476056
-0.19669999999999999,-7.611146793273897
-0.1977000000000001,-7.6592469774693095
-0.1987,-7.683297069567015
-0.1997000000000001,-7.69885889386553
-0.2007,-7.742714944161346
-0.2017000000000001,-7.792229839656622
-0.2027,-7.807791663955138
-0.2037000000000001,-7.854477136850684
-0.2047,-7.909650877545419
-0.2057000000000001,-7.93228625834326
-0.2067,-7.9747275973392115
-0.2077000000000001,-8.039804317133003
-0.2087,-8.0723426770299
-0.2097000000000001,-8.10629574822666
-0.2107,-8.168543045420723
-0.2117000000000001,-8.216643229616132
-0.2127,-8.261913991211815
-0.2137000000000001,-8.317087731906552
-0.2147,-8.396311564698992
-0.2157000000000001,-8.445826460194269
-0.2167,-8.51373260258779
-0.21770000000000012,-8.578809322381582
-0.2187,-8.63398306307632
-0.21970000000000012,-8.689156803771056
-0.2207,-8.758477657464443
-0.22170000000000012,-8.826383799857965
-0.2227,-8.885801674452297
-0.22370000000000012,-8.942390126446897
-0.2247,-9.030102227038528
-0.22570000000000012,-9.082446545133534
-0.2267,-9.140449708428003
-0.22770000000000012,-9.233820654219095
-0.22870000000000001,-9.298897374012885
-0.22970000000000013,-9.368218227706274
-0.23070000000000002,-9.450271483098444
-0.23170000000000013,-9.533739449790483
-0.23270000000000002,-9.590327901785084
-0.23370000000000013,-9.68794298147577
-0.23470000000000002,-9.761507969068754
-0.23570000000000013,-9.84780535836052
-0.23670000000000002,-9.894490831256066
-0.2376999999999999,-10.014741291744594
-0.23870000000000002,-10.062841475940006
-0.2396999999999999,-10.157627133030964
-0.24070000000000003,-10.255242212721651
-0.24169999999999991,-10.368419116710854
-0.24270000000000003,-10.46037535120208
-0.24369999999999992,-10.570722832591555
-0.24470000000000003,-10.719267519077382
-0.24569999999999992,-10.795661929270095
-0.24670000000000003,-10.901765276759972
-0.24769999999999992,-11.010698046849582
-0.24870000000000003,-11.109727837840133
-0.24969999999999992,-11.200269361031495
-0.25070000000000003,-11.340325779718134
-0.2516999999999999,-11.474723353205313
-0.25270000000000004,-11.577997278095461
-0.2536999999999999,-11.701077161183719
-0.25470000000000004,-11.841133579870357
-0.2556999999999999,-11.944407504760505
-0.25670000000000004,-12.095781613846063
-0.25769999999999993,-12.235838032532703
-0.25870000000000004,-12.365991472120287
-0.25969999999999993,-12.525853849005037
-0.26070000000000004,-12.668739690291403
-0.26169999999999993,-12.842749180174803
-0.26270000000000004,-12.978561464961846
-0.26369999999999993,-13.137009130546732
-0.26470000000000005,-13.299700930031209
-0.26569999999999994,-13.470880997314879
-0.26670000000000005,-13.608107993401788
-0.26769999999999994,-13.816070554481948
-0.26870000000000005,-13.949053416669262
-0.26969999999999994,-14.132965885651718
-0.27070000000000005,-14.288584128636872
-0.27169999999999994,-14.486643710617974
-0.27270000000000005,-14.61396772760583
-0.27369999999999994,-14.854468648582884
-0.27470000000000006,-15.02423400456669
-0.27569999999999995,-15.236440699546446
-0.27670000000000006,-15.406206055530248
-0.27769999999999995,-15.660854089505953
-0.27870000000000006,-15.830619445489761
-0.27969999999999995,-16.04282614046952
-0.28070000000000006,-16.24088572245062
-0.28169999999999995,-16.46723953042903
-0.28270000000000006,-16.60871066041553
-0.28369999999999995,-16.849211581392588
-0.28470000000000006,-17.018976937376394
-0.28569999999999995,-17.217036519357496
-0.28670000000000007,-17.429243214337255
-0.28769999999999996,-17.683891248312957
-0.28870000000000007,-17.910245056291366
-0.28969999999999996,-18.15074597726842
-0.29070000000000007,-18.40539401124413
-0.29169999999999996,-18.660042045219836
-0.29270000000000007,-18.88639585319824
-0.29369999999999996,-19.141043887173947
-0.2947000000000001,-19.409839034148305
-0.29569999999999996,-19.65033995512536
-0.2967000000000001,-19.919135102099716
-0.29769999999999996,-20.202077362072725
-0.2987000000000001,-20.47087250904708
-0.29969999999999997,-20.72552054302279
-0.3007000000000001,-21.036757028993097
-0.30169999999999997,-21.319699288966106
-0.3027000000000001,-21.63093577493641
-0.30369999999999997,-21.91387803490942
-0.3047000000000001,-22.253408746877028
-0.30569999999999997,-22.564645232847337
-0.3067000000000001,-22.87588171881764
-0.3077,-23.229559543783903
-0.3087000000000001,-23.54079602975421
-0.3097,-23.823738289727217
-0.3107000000000001,-24.20571034069078
-0.3117,-24.502799713662437
-0.3127000000000001,-24.828183312631392
-0.3137,-25.18186113759765
-0.3147000000000001,-25.521391849565262
-0.3157,-25.875069674531517
-0.3167000000000001,-26.20045327350048
-0.3177,-26.55413109846674
-0.3187000000000001,-26.907808923433
-0.3197,-27.275633861397907
-0.3207000000000001,-27.58687034736821
-0.3217,-28.011283737327723
-0.3227000000000001,-28.280078884302082
-0.3237,-28.676198048264297
-0.3247000000000001,-29.086464325225155
-0.3257,-29.468436376188716
-0.3267000000000001,-29.864555540150924
-0.3277,-30.232380478115836
-0.3287000000000001,-30.642646755076694
-0.3297,-30.982177467044306
-0.3307000000000001,-31.40659085700382
-0.3317,-31.816857133964678
-0.3327000000000001,-32.21297629792688
-0.3337,-32.6090954618891
-0.3347000000000001,-33.0335088518486
-0.3357,-33.41548090281216
-0.3367000000000001,-33.85404140577033
-0.3377,-34.26430768273119
-0.3387000000000001,-34.6887210726907
-0.3397,-35.098987349651566
-0.3407000000000001,-35.55169496560837
-0.3417,-35.99025546856653
-0.3427000000000001,-36.41466885852605
-0.3437,-36.83908224848555
-0.3447000000000001,-37.34837831643697
-0.3457,-37.78693881939513
-0.3467000000000001,-38.33867622634249
-0.3477,-38.81967806829661
-0.3487000000000001,-39.328974136248014
-0.3497,-39.78168175220483
-0.3507000000000001,-40.26268359415894
-0.3517,-40.800273888107654
-0.3527000000000001,-41.267128617063115
-0.3537,-41.79057179801318
-0.3547000000000001,-42.28572075296594
-0.3557,-42.766722594920054
-0.35670000000000013,-43.27601866287147
-0.3577,-43.77116761782423
-0.35870000000000013,-44.2946107987743
-0.3597,-44.78975975372706
-0.36070000000000013,-45.36979138667173
-0.3617,-45.85079322862584
-0.3626999999999999,-46.3459421835786
-0.3637,-46.78450268653676
-0.3646999999999999,-47.32209298048547
-0.3657,-47.73235925744634
-0.3666999999999999,-48.2840966643937
-0.3677,-48.86412829733837
-0.3686999999999999,-49.40171859128708
-0.36970000000000003,-49.95345599823444
-0.3706999999999999,-50.53348763117911
-0.37170000000000003,-51.14181349012107
-0.3726999999999999,-51.594521106077885
-0.37370000000000003,-52.17455273902255
-0.3746999999999999,-52.74043725896857
-0.37570000000000003,-53.27802755291728
-0.3766999999999999,-53.85805918586195
-0.37770000000000004,-54.45223793180526
-0.3786999999999999,-55.046416677748574
-0.37970000000000004,-55.612301197694585
-0.3806999999999999,-56.19233283063926
-0.38170000000000004,-56.70162889859067
-0.38269999999999993,-57.23921919253939
-0.38370000000000004,-57.7768094864881
-0.38469999999999993,-58.38513534543006
-0.38570000000000004,-58.894431413381476
-0.38669999999999993,-58.498312249419264
-0.38570000000000004,-57.111895175551524
-0.38469999999999993,-55.881096344668954
-0.38370000000000004,-54.989828225753975
-0.38269999999999993,-54.08441299384035
-0.38170000000000004,-53.33461600491189
-0.3806999999999999,-52.55652478998611
-0.37970000000000004,-51.90575759204819
-0.3786999999999999,-51.21254905511432
-0.37770000000000004,-50.63251742216966
-0.3766999999999999,-49.86857332024254
-0.37570000000000003,-49.40171859128708
-0.3746999999999999,-48.62362737636131
-0.37370000000000003,-48.057742856415295
-0.3726999999999999,-47.40697565847737
-0.37170000000000003,-46.86938536452866
-0.3706999999999999,-46.204471053592094
-0.36970000000000003,-45.624439420647434
-0.3686999999999999,-44.93123088371356
-0.3677,-44.39364058976485
-0.3666999999999999,-43.71457916582963
-0.3657,-43.148694645883616
-0.3646999999999999,-42.483780334947056
-0.3637,-41.94619004099834
-0.3626999999999999,-41.352011295055014
-0.3617,-40.84271522710361
-0.36070000000000013,-40.26268359415894
-0.3597,-39.739240413208876
-0.35870000000000013,-39.21579723225882
-0.3577,-38.6499127123128
-0.35670000000000013,-38.06988107936814
-0.3557,-37.46155522042617
-0.3547000000000001,-36.90981781347881
-0.3537,-36.315639067535486
-0.3527000000000001,-35.79219588658543
-0.3517,-35.240458479638065
-0.3507000000000001,-34.702868185689354
-0.3497,-34.16527789174064
-0.3487000000000001,-33.64183471079057
-0.3477,-33.09009730384321
-0.3467000000000001,-32.56665412289314
-0.3457,-32.02906382894443
-0.3447000000000001,-31.505620647994366
-0.3437,-30.968030354045652
-0.3427000000000001,-30.47288139909289
-0.3417,-29.977732444140123
-0.3407000000000001,-29.454289263190066
-0.3397,-28.97328742123595
-0.3387000000000001,-28.49228557928184
-0.3377,-27.98298951133043
-0.3367000000000001,-27.572723234369565
-0.3357,-27.091721392415455
-0.3347000000000001,-26.65316088945729
-0.3337,-26.17215904750318
-0.3327000000000001,-25.719451431546364
-0.3317,-25.252596702590903
-0.3307000000000001,-24.799889086634096
-0.3297,-24.304740131681328
-0.3287000000000001,-23.88032674172182
-0.3277,-23.371030673770406
-0.3267000000000001,-22.946617283810895
-0.3257,-22.479762554855434
-0.3247000000000001,-22.069496277894572
-0.3237,-21.58849443594046
-0.3227000000000001,-21.19237527197825
-0.3217,-20.711373430024135
-0.3207000000000001,-20.286960040064624
-0.3197,-19.805958198110513
-0.3187000000000001,-19.395691921149652
-0.3177,-18.91469007919554
-0.3167000000000001,-18.504423802234676
-0.3157,-18.08001041227517
-0.3147000000000001,-17.655597022315657
-0.3137,-17.259477858353446
-0.3127000000000001,-16.891652920388537
-0.3117,-16.53797509542228
-0.3107000000000001,-16.11356170546277
-0.3097,-15.731589654499205
-0.3087000000000001,-15.335470490536997
-0.3077,-14.925204213576137
-0.3067000000000001,-14.543232162612577
-0.30569999999999997,-14.175407224647667
-0.3047000000000001,-13.793435173684106
-0.30369999999999997,-13.398730721021762
-0.3027000000000001,-13.037979339556179
-0.30169999999999997,-12.663080845091942
-0.3007000000000001,-12.278279371528653
-0.29969999999999997,-11.972701730757805
-0.2987000000000001,-11.652976976988306
-0.29769999999999996,-11.269590214724882
-0.2967000000000001,-10.896106431560511
-0.29569999999999996,-10.57779638909088
-0.2947000000000001,-10.228362698024217
-0.29369999999999996,-9.902979099055257
-0.29270000000000007,-9.60306030348387
-0.29169999999999996,-9.27201785931545
-0.29070000000000007,-8.942390126446897
-0.28969999999999996,-8.64813017607497
-0.28870000000000007,-8.3312348449052
-0.28769999999999996,-8.024242492834487
-0.28670000000000007,-7.700273605165394
-0.28569999999999995,-7.403184232193737
-0.28470000000000006,-7.094777168823159
-0.28369999999999995,-6.779296548953256
-0.28270000000000006,-6.503427845479574
-0.28169999999999995,-6.213412029007241
-0.28070000000000006,-5.917737367335448
-0.27969999999999995,-5.650356931660957
-0.27870000000000006,-5.382976495986464
-0.27769999999999995,-5.083057700415077
-0.27670000000000006,-4.82558024383964
-0.27569999999999995,-4.546882117766228
-0.27470000000000006,-4.289404661190791
-0.27369999999999994,-4.006462401217783
-0.27270000000000005,-3.7744497480399173
-0.27169999999999994,-3.509898734965156
-0.27070000000000005,-3.2510065670898545
-0.26969999999999994,-3.021823336511718
-0.26870000000000005,-2.794054817233447
-0.26769999999999994,-2.5379920719578757
-0.26670000000000005,-2.3003205735805494
-0.26569999999999994,-2.079625610801604
-0.26470000000000005,-1.8405394011244125
