Potential V vs RHE, Current mA cm-2
0.013299999999999867,-0.26384365742482935
0.012299999999999978,-1.0925815368857679
0.011299999999999866,-1.7910245056291363
0.010299999999999976,-2.3144676865791998
0.009299999999999864,-2.794054817233447
0.008299999999999974,-3.1420737970002466
0.007299999999999862,-3.447651437771094
0.006299999999999972,-3.7093730282461257
0.00529999999999986,-3.884797229429391
0.0042999999999999705,-4.0588067193127895
0.0032999999999998586,-4.1889601589003735
0.0022999999999999687,-4.3205283097878215
0.0012999999999998568,-4.406825699079589
0.00029999999999996696,-4.450681749375406
-0.000700000000000145,-4.538393849967037
-0.0017000000000000348,-4.582249900262854
-0.0027000000000001467,-4.582249900262854
-0.0037000000000000366,-4.712403339850438
-0.0047000000000001485,-4.756259390146253
-0.005700000000000038,-4.800115440442069
-0.00670000000000015,-4.800115440442069
-0.00770000000000004,-4.887827541033701
-0.008700000000000152,-4.9302688800296535
-0.009700000000000042,-4.9302688800296535
-0.010700000000000154,-4.9302688800296535
-0.011700000000000044,-4.9302688800296535
-0.012700000000000156,-4.974124930325469
-0.013700000000000045,-4.9302688800296535
-0.014700000000000157,-4.9302688800296535
-0.015700000000000047,-4.9302688800296535
-0.01670000000000016,-4.9302688800296535
-0.01770000000000005,-4.9302688800296535
-0.01870000000000016,-4.974124930325469
-0.01970000000000005,-4.974124930325469
-0.020700000000000163,-5.017980980621284
-0.021700000000000053,-5.017980980621284
-0.022700000000000164,-5.017980980621284
-0.023700000000000054,-5.105693081212917
-0.024700000000000166,-5.0618370309171015
-0.025700000000000056,-5.0618370309171015
-0.026700000000000168,-5.0618370309171015
-0.027700000000000058,-5.105693081212917
-0.02870000000000017,-5.0618370309171015
-0.02970000000000006,-5.017980980621284
-0.03070000000000017,-5.0618370309171015
-0.03170000000000006,-5.017980980621284
-0.03270000000000017,-5.017980980621284
-0.03370000000000006,-5.0618370309171015
-0.034700000000000175,-5.105693081212917
-0.035700000000000065,-5.105693081212917
-0.03670000000000018,-5.149549131508733
-0.03770000000000007,-5.149549131508733
-0.03870000000000018,-5.149549131508733
-0.03970000000000007,-5.149549131508733
-0.04070000000000018,-5.149549131508733
-0.04170000000000007,-5.149549131508733
-0.04270000000000018,-5.149549131508733
-0.04370000000000007,-5.105693081212917
-0.044700000000000184,-5.105693081212917
-0.045700000000000074,-5.105693081212917
-0.046700000000000186,-5.105693081212917
-0.047700000000000076,-5.105693081212917
-0.04870000000000019,-5.149549131508733
-0.04970000000000008,-5.149549131508733
-0.05070000000000019,-5.191990470504685
-0.05170000000000008,-5.191990470504685
-0.05270000000000019,-5.191990470504685
-0.05370000000000008,-5.235846520800501
-0.05470000000000019,-5.235846520800501
-0.05570000000000008,-5.191990470504685
-0.056700000000000195,-5.235846520800501
-0.057700000000000085,-5.235846520800501
-0.058700000000000196,-5.191990470504685
-0.059700000000000086,-5.149549131508733
-0.0607000000000002,-5.191990470504685
-0.06170000000000009,-5.191990470504685
-0.0627000000000002,-5.149549131508733
-0.06370000000000009,-5.235846520800501
-0.0647000000000002,-5.235846520800501
-0.06570000000000009,-5.235846520800501
-0.0667000000000002,-5.235846520800501
-0.0677000000000001,-5.279702571096316
-0.0687000000000002,-5.279702571096316
-0.0697000000000001,-5.279702571096316
-0.07070000000000021,-5.279702571096316
-0.0717000000000001,-5.279702571096316
-0.07270000000000021,-5.279702571096316
-0.0737000000000001,-5.235846520800501
-0.07470000000000021,-5.235846520800501
-0.0757000000000001,-5.235846520800501
-0.07670000000000021,-5.235846520800501
-0.0777000000000001,-5.191990470504685
-0.07870000000000021,-5.279702571096316
-0.0797000000000001,-5.279702571096316
-0.08070000000000022,-5.323558621392133
-0.0817000000000001,-5.323558621392133
-0.08270000000000022,-5.323558621392133
-0.08370000000000011,-5.367414671687949
-0.08470000000000022,-5.367414671687949
-0.08570000000000011,-5.367414671687949
-0.08670000000000022,-5.367414671687949
-0.08770000000000011,-5.367414671687949
-0.08870000000000022,-5.323558621392133
-0.08970000000000011,-5.279702571096316
-0.09070000000000022,-5.323558621392133
-0.09170000000000011,-5.323558621392133
-0.09270000000000023,-5.323558621392133
-0.09370000000000012,-5.323558621392133
-0.09470000000000023,-5.367414671687949
-0.09570000000000012,-5.411270721983764
-0.09670000000000023,-5.411270721983764
-0.09770000000000012,-5.411270721983764
-0.09870000000000023,-5.453712060979717
-0.09970000000000012,-5.453712060979717
-0.10070000000000023,-5.411270721983764
-0.10170000000000012,-5.411270721983764
-0.10270000000000024,-5.453712060979717
-0.10370000000000013,-5.411270721983764
-0.10470000000000024,-5.367414671687949
-0.10570000000000013,-5.367414671687949
-0.10670000000000024,-5.411270721983764
-0.10770000000000013,-5.411270721983764
-0.10870000000000024,-5.453712060979717
-0.10970000000000013,-5.453712060979717
-0.11070000000000024,-5.497568111275533
-0.11170000000000013,-5.5414241615713475
-0.11270000000000002,-5.497568111275533
-0.11370000000000013,-5.5414241615713475
-0.11470000000000002,-5.5414241615713475
-0.11570000000000014,-5.5414241615713475
-0.11670000000000003,-5.5414241615713475
-0.11770000000000014,-5.5414241615713475
-0.11870000000000003,-5.497568111275533
-0.11970000000000014,-5.497568111275533
-0.12070000000000003,-5.497568111275533
-0.12170000000000014,-5.497568111275533
-0.12270000000000003,-5.497568111275533
-0.12370000000000014,-5.585280211867165
-0.12470000000000003,-5.585280211867165
-0.12570000000000014,-5.629136262162981
-0.12670000000000003,-5.629136262162981
-0.12770000000000015,-5.629136262162981
-0.12870000000000004,-5.672992312458796
-0.12970000000000015,-5.672992312458796
-0.13070000000000004,-5.629136262162981
-0.13170000000000015,-5.672992312458796
-0.13270000000000004,-5.715433651454749
-0.13370000000000015,-5.672992312458796
-0.13470000000000004,-5.629136262162981
-0.13570000000000015,-5.672992312458796
-0.13670000000000004,-5.672992312458796
-0.13770000000000016,-5.629136262162981
-0.13870000000000005,-5.715433651454749
-0.13970000000000016,-5.715433651454749
-0.14070000000000005,-5.759289701750564
-0.14170000000000016,-5.759289701750564
-0.14270000000000005,-5.80314575204638
-0.14370000000000016,-5.80314575204638
-0.14470000000000005,-5.847001802342197
-0.14570000000000016,-5.847001802342197
-0.14670000000000005,-5.80314575204638
-0.14770000000000016,-5.890857852638012
-0.14870000000000005,-5.80314575204638
-0.14970000000000017,-5.80314575204638
-0.15070000000000006,-5.80314575204638
-0.15170000000000017,-5.80314575204638
-0.15270000000000006,-5.759289701750564
-0.15370000000000017,-5.847001802342197
-0.15470000000000006,-5.890857852638012
-0.15570000000000017,-5.9347139029338285
-0.15670000000000006,-5.9347139029338285
-0.15770000000000017,-5.977155241929781
-0.15870000000000006,-6.021011292225596
-0.15970000000000018,-6.021011292225596
-0.16070000000000007,-6.021011292225596
-0.16170000000000018,-6.064867342521412
-0.16270000000000007,-6.021011292225596
-0.16370000000000018,-6.021011292225596
-0.16470000000000007,-6.021011292225596
-0.16570000000000018,-6.021011292225596
-0.16670000000000007,-6.064867342521412
-0.16770000000000018,-6.064867342521412
-0.16870000000000007,-6.108723392817228
-0.16970000000000018,-6.152579443113044
-0.17070000000000007,-6.196435493408861
-0.17170000000000019,-6.196435493408861
-0.17270000000000008,-6.238876832404812
-0.1737000000000002,-6.282732882700628
-0.17470000000000008,-6.282732882700628
-0.1757000000000002,-6.282732882700628
-0.17670000000000008,-6.282732882700628
-0.1777000000000002,-6.326588932996443
-0.17870000000000008,-6.282732882700628
-0.1797000000000002,-6.326588932996443
-0.18070000000000008,-6.326588932996443
-0.1817000000000002,-6.37044498329226
-0.18270000000000008,-6.37044498329226
-0.1837000000000002,-6.414301033588076
-0.1847000000000001,-6.458157083883892
-0.1857000000000002,-6.500598422879844
-0.1867000000000001,-6.54445447317566
-0.1877000000000002,-6.54445447317566
-0.1887000000000001,-6.632166573767292
-0.1897000000000002,-6.632166573767292
-0.1907000000000001,-6.6760226240631075
-0.1917000000000001,-6.6760226240631075
-0.19269999999999998,-6.719878674358924
-0.1937000000000001,-6.719878674358924
-0.19469999999999998,-6.719878674358924
-0.1957000000000001,-6.762320013354876
-0.19669999999999999,-6.806176063650692
-0.1977000000000001,-6.806176063650692
-0.1987,-6.893888164242324
-0.1997000000000001,-6.893888164242324
-0.2007,-6.93774421453814
-0.2017000000000001,-6.981600264833956
-0.2027,-7.024041603829907
-0.2037000000000001,-7.111753704421539
-0.2047,-7.111753704421539
-0.2057000000000001,-7.155609754717355
-0.2067,-7.199465805013171
-0.2077000000000001,-7.243321855308987
-0.2087,-7.243321855308987
-0.2097000000000001,-7.243321855308987
-0.2107,-7.28576319430494
-0.2117000000000001,-7.329619244600755
-0.2127,-7.329619244600755
-0.2137000000000001,-7.4173313451923875
-0.2147,-7.50504344578402
-0.2157000000000001,-7.591340835075788
-0.2167,-7.635196885371603
-0.21770000000000012,-7.679052935667419
-0.2187,-7.722908985963235
-0.21970000000000012,-7.7653503249591855
-0.2207,-7.809206375255003
-0.22170000000000012,-7.853062425550818
-0.2227,-7.940774526142452
-0.22370000000000012,-7.853062425550818
-0.2247,-7.896918475846635
-0.22570000000000012,-7.984630576438266
-0.2267,-8.027071915434218
-0.22770000000000012,-8.070927965730034
-0.22870000000000001,-8.158640066321666
-0.22970000000000013,-8.246352166913299
-0.23070000000000002,-8.332649556205066
-0.23170000000000013,-8.376505606500881
-0.23270000000000002,-8.464217707092514
-0.23370000000000013,-8.55051509638428
-0.23470000000000002,-8.594371146680096
-0.23570000000000013,-8.638227196975913
-0.23670000000000002,-8.725939297567548
-0.2376999999999999,-8.769795347863363
-0.23870000000000002,-8.769795347863363
-0.2396999999999999,-8.812236686859313
-0.24070000000000003,-8.899948787450944
-0.24169999999999991,-8.987660888042578
-0.24270000000000003,-9.031516938338395
-0.24369999999999992,-9.11781432763016
-0.24470000000000003,-9.205526428221793
-0.24569999999999992,-9.335679867809377
-0.24670000000000003,-9.379535918105192
-0.24769999999999992,-9.467248018696827
-0.24870000000000003,-9.55496011928846
-0.24969999999999992,-9.641257508580225
-0.25070000000000003,-9.685113558876042
-0.2516999999999999,-9.772825659467674
-0.25270000000000004,-9.85912304875944
-0.2536999999999999,-9.902979099055257
-0.25470000000000004,-9.946835149351072
-0.2556999999999999,-10.078403300238522
-0.25670000000000004,-10.164700689530287
-0.25769999999999993,-10.25241279012192
-0.25870000000000004,-10.340124890713554
-0.25969999999999993,-10.42642228000532
-0.26070000000000004,-10.557990430892769
-0.26169999999999993,-10.644287820184536
-0.26270000000000004,-10.775855971071984
-0.26369999999999993,-10.863568071663616
-0.26470000000000005,-10.993721511251199
-0.26569999999999994,-11.037577561547016
-0.26670000000000005,-11.1677310011346
-0.26769999999999994,-11.299299152022046
-0.26870000000000005,-11.343155202317865
-0.26969999999999994,-11.42945259160963
-0.27070000000000005,-11.517164692201263
-0.27169999999999994,-11.647318131788847
-0.27270000000000005,-11.73503023238048
-0.27369999999999994,-11.909039722263879
-0.27470000000000006,-11.996751822855511
-0.27569999999999995,-12.12831997374296
-0.27670000000000006,-12.258473413330542
-0.27769999999999995,-12.390041564217992
-0.27870000000000006,-12.520195003805576
-0.27969999999999995,-12.651763154693022
-0.28070000000000006,-12.781916594280606
-0.28169999999999995,-12.869628694872238
-0.28270000000000006,-12.99978213445982
-0.28369999999999995,-13.043638184755638
-0.28470000000000006,-13.175206335643086
-0.28569999999999995,-13.261503724934855
-0.28670000000000007,-13.436927926118118
-0.28769999999999996,-13.523225315409885
-0.28870000000000007,-13.698649516593148
-0.28969999999999996,-13.828802956180734
-0.29070000000000007,-14.002812446064135
-0.29169999999999996,-14.13438059695158
-0.29270000000000007,-14.30273124163552
-0.29369999999999996,-14.444202371622024
-0.2947000000000001,-14.61396772760583
-0.29569999999999996,-14.69885040559773
-0.2967000000000001,-14.868615761581536
-0.29769999999999996,-15.01008689156804
-0.2987000000000001,-15.137410908555893
-0.29969999999999997,-15.222293586547794
-0.3007000000000001,-15.3920589425316
-0.30169999999999997,-15.533530072518102
-0.3027000000000001,-15.660854089505953
-0.30369999999999997,-15.830619445489761
-0.3047000000000001,-16.014531914472215
-0.30569999999999997,-16.184297270456018
-0.3067000000000001,-16.354062626439823
-0.3077,-16.53797509542228
-0.3087000000000001,-16.70774045140608
-0.3097,-16.877505807389888
-0.3107000000000001,-17.018976937376394
-0.3117,-17.188742293360193
-0.3127000000000001,-17.358507649344002
-0.3137,-17.48583166633185
-0.3147000000000001,-17.584861457322408
-0.3157,-17.75462681330621
-0.3167000000000001,-17.924392169290012
-0.3177,-18.06586329927652
-0.3187000000000001,-18.320511333252224
-0.3197,-18.49027668923603
-0.3207000000000001,-18.716630497214435
-0.3217,-18.88639585319824
-0.3227000000000001,-19.112749661176647
-0.3237,-19.367397695152352
-0.3247000000000001,-19.537163051136158
-0.3257,-19.721075520118614
-0.3267000000000001,-19.890840876102416
-0.3277,-20.06060623208622
-0.3287000000000001,-20.202077362072725
-0.3297,-20.329401379060574
-0.3307000000000001,-20.541608074040333
-0.3317,-20.72552054302279
-0.3327000000000001,-20.89528589900659
-0.3337,-21.149933932982297
-0.3347000000000001,-21.418729079956652
-0.3357,-21.67337711393236
-0.3367000000000001,-21.899730921910766
-0.3377,-22.111937616890522
-0.3387000000000001,-22.33829142486893
-0.3397,-22.550498119848687
-0.3407000000000001,-22.72026347583249
-0.3417,-22.904175944814945
-0.3427000000000001,-23.1163826397947
-0.3437,-23.300295108777156
-0.3447000000000001,-23.47006046476096
-0.3457,-23.724708498736668
-0.3467000000000001,-23.951062306715073
-0.3477,-24.16326900169483
-0.3487000000000001,-24.474505487665134
-0.3497,-24.729153521640843
-0.3507000000000001,-24.997948668615198
-0.3517,-25.210155363594954
-0.3527000000000001,-25.478950510569312
-0.3537,-25.691157205549064
-0.3547000000000001,-25.91751101352747
-0.3557,-26.129717708507226
-0.35670000000000013,-26.34192440348698
-0.3577,-26.61071955046134
-0.35870000000000013,-26.822926245441096
-0.3597,-27.049280053419505
-0.36070000000000013,-27.303928087395207
-0.3617,-27.615164573365515
-0.3626999999999999,-27.869812607341224
-0.3637,-28.18104909331153
-0.3646999999999999,-28.435697127287238
-0.3657,-28.746933613257543
-0.3666999999999999,-28.959140308237306
-0.3677,-29.22793545521166
-0.3686999999999999,-29.482583489187363
-0.36970000000000003,-29.751378636161718
-0.3706999999999999,-29.96358533114148
-0.37170000000000003,-30.232380478115836
-0.3726999999999999,-30.529469851087494
-0.37370000000000003,-30.79826499806185
-0.3746999999999999,-31.052913032037555
-0.37570000000000003,-31.36414951800786
-0.3766999999999999,-31.661238890979522
-0.37770000000000004,-31.887592698957924
-0.3786999999999999,-32.24127052392419
-0.37970000000000004,-32.53835989689585
-0.3806999999999999,-32.84959638286615
-0.38170000000000004,-33.14668575583781
-0.38269999999999993,-33.41548090281216
-0.38370000000000004,-33.755011614779775
-0.38469999999999993,-34.06624810075008
-0.38570000000000004,-34.33504324772444
-0.38669999999999993,-34.632132620696105
-0.38770000000000004,-34.98581044566235
-0.38869999999999993,-35.198017140642115
-0.38970000000000005,-35.46681228761647
-0.39069999999999994,-35.806342999584075
-0.39170000000000005,-36.07513814655844
-0.39269999999999994,-36.37222751953009
-0.39370000000000005,-36.725905344496354
-0.39469999999999994,-37.07958316946261
-0.39570000000000005,-37.47570233342482
-0.39669999999999994,-37.77279170639648
-0.39770000000000005,-38.12646953136274
-0.39869999999999994,-38.46600024333035
-0.39970000000000006,-38.777236729300654
-0.40069999999999995,-39.08847321527096
-0.40170000000000006,-39.38556258824262
-0.40269999999999995,-39.696799074212926
-0.40370000000000006,-39.99388844718459
-0.40469999999999995,-40.30512493315489
-0.40570000000000006,-40.65880275812115
-0.40669999999999995,-40.99833347008877
-0.40770000000000006,-41.352011295055014
-0.40869999999999995,-41.74813045901723
-0.40970000000000006,-42.130102509980794
-0.41069999999999995,-42.483780334947056
-0.41170000000000007,-42.837458159913304
-0.41269999999999996,-43.17698887188092
-0.41370000000000007,-43.53066669684718
-0.41469999999999996,-43.88434452181344
-0.41570000000000007,-44.181433894785094
-0.41669999999999996,-44.535111719751356
-0.41770000000000007,-44.93123088371356
-0.41869999999999996,-45.27076159568118
-0.4197000000000001,-45.624439420647434
-0.42069999999999996,-46.02055858460964
-0.4217000000000001,-46.37423640957591
-0.42269999999999996,-46.75620846053947
-0.4237000000000001,-47.19476896349763
-0.42469999999999997,-47.54844678846388
-0.4257000000000001,-47.987007291422046
-0.42669999999999997,-48.32653800338966
-0.4277000000000001,-48.72265716735186
-0.42869999999999997,-49.16121767031002
-0.4297000000000001,-49.557336834272235
-0.43069999999999997,-49.939308885235796
-0.4317000000000001,-50.335428049198
-0.4327,-50.77398855215617
-0.4337000000000001,-51.17010771611838
-0.4347,-51.55207976708194
-0.4357000000000001,-51.948198931044146
-0.4367,-52.34431809500636
-0.4377000000000001,-52.74043725896857
-0.4387,-53.22143910092268
-0.4397000000000001,-53.603411151886235
-0.4407,-54.08441299384035
-0.4417000000000001,-54.480532157802564
-0.4427,-54.919092660760725
-0.4437000000000001,-55.400094502714836
-0.4447,-55.7820665536784
-0.4457000000000001,-56.1781857176406
-0.4467,-56.61674622059877
-0.4477000000000001,-57.05530672355693
-0.4487,-57.45142588751914
-0.4497000000000001,-57.87583927747865
-0.4507,-58.31439978043681
-0.4517000000000001,-58.75296028339497
-0.4527,-59.19152078635314
-0.4537000000000001,-59.6300812893113
-0.4547,-60.11108313126541
-0.4557000000000001,-60.59208497321952
-0.4567,-61.07308681517363
-0.4577000000000001,-61.53994154412909
-0.4587,-61.97850204708726
-0.4597000000000001,-62.459503889041365
-0.4607,-62.855623053003576
-0.4617000000000001,-63.3366248949577
-0.4627,-63.81762673691181
-0.4637000000000001,-64.19959878787537
-0.4647,-64.68060062982947
-0.4657000000000001,-65.11916113278764
-0.4667,-65.5577216357458
-0.4677000000000001,-66.03872347769992
-0.4687,-66.51972531965401
-0.4697000000000001,-67.04316850060408
-0.4707,-67.56661168155415
-0.4717000000000001,-68.04761352350828
-0.4727,-68.57105670445833
-0.4737000000000001,-69.0944998854084
-0.4747,-69.57550172736251
-0.4757000000000001,-70.05650356931662
-0.4767,-70.57994675026669
-0.4777000000000001,-71.06094859222078
-0.4787,-71.52780332117625
-0.4797000000000001,-71.96636382413442
-0.4807,-72.48980700508447
-0.48170000000000013,-72.97080884703858
-0.4827,-73.49425202798865
-0.48370000000000013,-74.06013654793468
-0.4847,-74.66846240687663
-0.48570000000000013,-75.29093537881725
-0.4867,-75.14946424883075
-0.48570000000000013,-73.97525386994278
-0.4847,-72.97080884703858
-0.48370000000000013,-72.05124650212633
-0.4827,-71.1458312702127
-0.48170000000000013,-70.35359294228827
-0.4807,-69.61794306635846
-0.4797000000000001,-68.91058741642594
-0.4787,-68.25982021848802
-0.4777000000000001,-67.65149435954605
-0.4767,-67.04316850060408
-0.4757000000000001,-66.29337151167562
-0.4747,-65.7274869917296
-0.4737000000000001,-65.0767197937917
-0.4727,-64.51083527384567
-0.4717000000000001,-63.81762673691181
-0.4707,-63.11027108697928
-0.4697000000000001,-62.459503889041365
-0.4687,-61.80873669110345
-0.4677000000000001,-61.15796949316553
-0.4667,-60.59208497321952
-0.4657000000000001,-60.02620045327351
-0.4647,-59.403727481332886
-0.4637000000000001,-58.83784296138688
-0.4627,-58.27195844144086
-0.4617000000000001,-57.66363258249889
