Aug. 27, 2024   02:46:01
Cyclic Voltammetry
File: c:/users/guazh/data/20240813_batch_181_500/2024-08-25-exp193\exp193-2024-08-27t02_27_03-h2koh\exp193_cv_sr_200mvs_efin_-1800mv.bin
Data Source:  Experiment
Instrument Model:  CHI760E
Header: CV ran at 200 mVs
Note: 

Init E (V) = -1
High E (V) = -1
Low E (V) = -1.8
Final E (V) = -1
Init P/N = N
Scan Rate (V/s) = 0.2
Segment = 3
Sample Interval (V) = 0.001
Quiet Time (sec) = 2
Sensitivity (A/V) = 0.01
Comp R (ohm) = 1.8

Results:

Channel 1:
Segment 1:

Segment 2:

Segment 3:

Potential/V, Current/A

-1.000, 2.415e-6
-1.001, 2.751e-6
-1.002, 3.175e-6
-1.003, 3.362e-6
-1.004, 3.175e-6
-1.005, 3.481e-6
-1.006, 3.254e-6
-1.007, 3.974e-6
-1.008, 3.875e-6
-1.009, 3.658e-6
-1.010, 3.856e-6
-1.011, 3.767e-6
-1.012, 3.856e-6
-1.013, 3.994e-6
-1.014, 3.935e-6
-1.015, 4.161e-6
-1.016, 4.033e-6
-1.017, 4.142e-6
-1.018, 4.388e-6
-1.019, 3.964e-6
-1.020, 4.300e-6
-1.021, 4.300e-6
-1.022, 4.457e-6
-1.023, 4.398e-6
-1.024, 4.339e-6
-1.025, 4.596e-6
-1.026, 4.349e-6
-1.027, 4.793e-6
-1.028, 4.803e-6
-1.029, 4.428e-6
-1.030, 4.862e-6
-1.031, 4.586e-6
-1.032, 4.645e-6
-1.033, 4.625e-6
-1.034, 4.744e-6
-1.035, 4.734e-6
-1.036, 4.556e-6
-1.037, 4.980e-6
-1.038, 4.911e-6
-1.039, 4.842e-6
-1.040, 5.079e-6
-1.041, 4.852e-6
-1.042, 4.803e-6
-1.043, 5.079e-6
-1.044, 4.773e-6
-1.045, 5.207e-6
-1.046, 4.911e-6
-1.047, 5.079e-6
-1.048, 5.207e-6
-1.049, 4.882e-6
-1.050, 5.375e-6
-1.051, 5.020e-6
-1.052, 5.089e-6
-1.053, 5.434e-6
-1.054, 5.079e-6
-1.055, 5.405e-6
-1.056, 5.138e-6
-1.057, 5.266e-6
-1.058, 5.414e-6
-1.059, 5.247e-6
-1.060, 5.375e-6
-1.061, 5.375e-6
-1.062, 5.276e-6
-1.063, 5.385e-6
-1.064, 5.336e-6
-1.065, 5.612e-6
-1.066, 5.434e-6
-1.067, 5.385e-6
-1.068, 5.641e-6
-1.069, 5.296e-6
-1.070, 5.592e-6
-1.071, 5.612e-6
-1.072, 5.483e-6
-1.073, 5.651e-6
-1.074, 5.493e-6
-1.075, 5.651e-6
-1.076, 5.434e-6
-1.077, 5.868e-6
-1.078, 5.898e-6
-1.079, 5.622e-6
-1.080, 5.602e-6
-1.081, 5.710e-6
-1.082, 5.503e-6
-1.083, 5.720e-6
-1.084, 5.602e-6
-1.085, 5.888e-6
-1.086, 5.770e-6
-1.087, 5.750e-6
-1.088, 5.947e-6
-1.089, 5.770e-6
-1.090, 6.046e-6
-1.091, 5.760e-6
-1.092, 5.829e-6
-1.093, 5.829e-6
-1.094, 5.730e-6
-1.095, 5.878e-6
-1.096, 6.016e-6
-1.097, 6.016e-6
-1.098, 6.066e-6
-1.099, 5.888e-6
-1.100, 6.194e-6
-1.101, 6.026e-6
-1.102, 6.115e-6
-1.103, 6.115e-6
-1.104, 6.154e-6
-1.105, 6.036e-6
-1.106, 6.164e-6
-1.107, 6.105e-6
-1.108, 6.243e-6
-1.109, 6.095e-6
-1.110, 6.490e-6
-1.111, 6.273e-6
-1.112, 6.056e-6
-1.113, 6.223e-6
-1.114, 6.105e-6
-1.115, 6.352e-6
-1.116, 6.440e-6
-1.117, 6.480e-6
-1.118, 6.658e-6
-1.119, 6.322e-6
-1.120, 6.362e-6
-1.121, 6.322e-6
-1.122, 6.460e-6
-1.123, 6.470e-6
-1.124, 6.480e-6
-1.125, 6.342e-6
-1.126, 6.519e-6
-1.127, 6.667e-6
-1.128, 6.717e-6
-1.129, 6.381e-6
-1.130, 6.806e-6
-1.131, 6.707e-6
-1.132, 6.460e-6
-1.133, 6.736e-6
-1.134, 6.717e-6
-1.135, 6.736e-6
-1.136, 6.500e-6
-1.137, 6.727e-6
-1.138, 6.687e-6
-1.139, 6.440e-6
-1.140, 6.628e-6
-1.141, 6.825e-6
-1.142, 6.746e-6
-1.143, 6.786e-6
-1.144, 6.776e-6
-1.145, 6.855e-6
-1.146, 6.598e-6
-1.147, 6.796e-6
-1.148, 6.746e-6
-1.149, 6.825e-6
-1.150, 6.825e-6
-1.151, 6.717e-6
-1.152, 7.042e-6
-1.153, 7.111e-6
-1.154, 6.746e-6
-1.155, 7.171e-6
-1.156, 7.072e-6
-1.157, 7.003e-6
-1.158, 7.210e-6
-1.159, 7.121e-6
-1.160, 7.121e-6
-1.161, 7.220e-6
-1.162, 7.121e-6
-1.163, 7.180e-6
-1.164, 6.983e-6
-1.165, 7.319e-6
-1.166, 7.151e-6
-1.167, 7.338e-6
-1.168, 7.299e-6
-1.169, 7.220e-6
-1.170, 7.447e-6
-1.171, 7.279e-6
-1.172, 7.368e-6
-1.173, 7.269e-6
-1.174, 7.180e-6
-1.175, 7.427e-6
-1.176, 7.279e-6
-1.177, 7.624e-6
-1.178, 7.447e-6
-1.179, 7.506e-6
-1.180, 7.654e-6
-1.181, 7.674e-6
-1.182, 7.624e-6
-1.183, 7.605e-6
-1.184, 7.526e-6
-1.185, 7.595e-6
-1.186, 7.437e-6
-1.187, 7.644e-6
-1.188, 7.555e-6
-1.189, 7.358e-6
-1.190, 7.753e-6
-1.191, 7.782e-6
-1.192, 7.832e-6
-1.193, 7.733e-6
-1.194, 7.861e-6
-1.195, 7.970e-6
-1.196, 7.723e-6
-1.197, 7.841e-6
-1.198, 7.980e-6
-1.199, 7.822e-6
-1.200, 7.960e-6
-1.201, 7.930e-6
-1.202, 7.723e-6
-1.203, 8.029e-6
-1.204, 8.068e-6
-1.205, 8.305e-6
-1.206, 7.950e-6
-1.207, 8.078e-6
-1.208, 8.266e-6
-1.209, 7.605e-6
-1.210, 8.088e-6
-1.211, 7.940e-6
-1.212, 8.147e-6
-1.213, 8.177e-6
-1.214, 8.009e-6
-1.215, 8.295e-6
-1.216, 8.029e-6
-1.217, 8.236e-6
-1.218, 8.581e-6
-1.219, 7.940e-6
-1.220, 8.354e-6
-1.221, 8.325e-6
-1.222, 8.147e-6
-1.223, 8.295e-6
-1.224, 8.266e-6
-1.225, 8.493e-6
-1.226, 8.315e-6
-1.227, 8.374e-6
-1.228, 8.650e-6
-1.229, 8.414e-6
-1.230, 8.424e-6
-1.231, 8.690e-6
-1.232, 8.236e-6
-1.233, 8.552e-6
-1.234, 8.532e-6
-1.235, 8.670e-6
-1.236, 8.473e-6
-1.237, 8.868e-6
-1.238, 8.848e-6
-1.239, 8.512e-6
-1.240, 8.572e-6
-1.241, 8.838e-6
-1.242, 8.858e-6
-1.243, 8.927e-6
-1.244, 8.769e-6
-1.245, 9.094e-6
-1.246, 8.838e-6
-1.247, 8.887e-6
-1.248, 9.016e-6
-1.249, 8.759e-6
-1.250, 9.213e-6
-1.251, 8.917e-6
-1.252, 8.858e-6
-1.253, 8.956e-6
-1.254, 9.006e-6
-1.255, 9.163e-6
-1.256, 9.134e-6
-1.257, 9.085e-6
-1.258, 9.430e-6
-1.259, 8.818e-6
-1.260, 9.233e-6
-1.261, 9.262e-6
-1.262, 9.272e-6
-1.263, 9.223e-6
-1.264, 9.124e-6
-1.265, 9.252e-6
-1.266, 9.094e-6
-1.267, 9.400e-6
-1.268, 9.598e-6
-1.269, 9.252e-6
-1.270, 9.519e-6
-1.271, 9.529e-6
-1.272, 9.321e-6
-1.273, 9.519e-6
-1.274, 9.627e-6
-1.275, 9.755e-6
-1.276, 9.558e-6
-1.277, 9.617e-6
-1.278, 9.459e-6
-1.279, 9.440e-6
-1.280, 9.677e-6
-1.281, 9.854e-6
-1.282, 9.825e-6
-1.283, 9.834e-6
-1.284, 9.558e-6
-1.285, 1.007e-5
-1.286, 9.598e-6
-1.287, 1.009e-5
-1.288, 9.943e-6
-1.289, 9.637e-6
-1.290, 9.973e-6
-1.291, 1.004e-5
-1.292, 9.982e-6
-1.293, 1.018e-5
-1.294, 9.982e-6
-1.295, 1.043e-5
-1.296, 1.004e-5
-1.297, 1.026e-5
-1.298, 1.033e-5
-1.299, 1.005e-5
-1.300, 1.043e-5
-1.301, 1.038e-5
-1.302, 1.039e-5
-1.303, 1.040e-5
-1.304, 1.037e-5
-1.305, 1.066e-5
-1.306, 1.042e-5
-1.307, 1.073e-5
-1.308, 1.054e-5
-1.309, 1.024e-5
-1.310, 1.082e-5
-1.311, 1.093e-5
-1.312, 1.080e-5
-1.313, 1.087e-5
-1.314, 1.081e-5
-1.315, 1.096e-5
-1.316, 1.082e-5
-1.317, 1.112e-5
-1.318, 1.125e-5
-1.319, 1.100e-5
-1.320, 1.133e-5
-1.321, 1.121e-5
-1.322, 1.117e-5
-1.323, 1.129e-5
-1.324, 1.141e-5
-1.325, 1.155e-5
-1.326, 1.138e-5
-1.327, 1.166e-5
-1.328, 1.155e-5
-1.329, 1.130e-5
-1.330, 1.174e-5
-1.331, 1.172e-5
-1.332, 1.176e-5
-1.333, 1.197e-5
-1.334, 1.178e-5
-1.335, 1.207e-5
-1.336, 1.197e-5
-1.337, 1.224e-5
-1.338, 1.226e-5
-1.339, 1.206e-5
-1.340, 1.230e-5
-1.341, 1.233e-5
-1.342, 1.209e-5
-1.343, 1.255e-5
-1.344, 1.257e-5
-1.345, 1.271e-5
-1.346, 1.261e-5
-1.347, 1.273e-5
-1.348, 1.317e-5
-1.349, 1.264e-5
-1.350, 1.321e-5
-1.351, 1.338e-5
-1.352, 1.313e-5
-1.353, 1.319e-5
-1.354, 1.334e-5
-1.355, 1.347e-5
-1.356, 1.350e-5
-1.357, 1.347e-5
-1.358, 1.382e-5
-1.359, 1.390e-5
-1.360, 1.411e-5
-1.361, 1.406e-5
-1.362, 1.401e-5
-1.363, 1.420e-5
-1.364, 1.423e-5
-1.365, 1.429e-5
-1.366, 1.443e-5
-1.367, 1.456e-5
-1.368, 1.494e-5
-1.369, 1.476e-5
-1.370, 1.487e-5
-1.371, 1.502e-5
-1.372, 1.500e-5
-1.373, 1.514e-5
-1.374, 1.522e-5
-1.375, 1.566e-5
-1.376, 1.545e-5
-1.377, 1.580e-5
-1.378, 1.582e-5
-1.379, 1.579e-5
-1.380, 1.605e-5
-1.381, 1.617e-5
-1.382, 1.638e-5
-1.383, 1.645e-5
-1.384, 1.663e-5
-1.385, 1.696e-5
-1.386, 1.688e-5
-1.387, 1.705e-5
-1.388, 1.715e-5
-1.389, 1.726e-5
-1.390, 1.744e-5
-1.391, 1.788e-5
-1.392, 1.749e-5
-1.393, 1.801e-5
-1.394, 1.831e-5
-1.395, 1.839e-5
-1.396, 1.853e-5
-1.397, 1.862e-5
-1.398, 1.899e-5
-1.399, 1.881e-5
-1.400, 1.906e-5
-1.401, 1.932e-5
-1.402, 1.975e-5
-1.403, 1.966e-5
-1.404, 1.968e-5
-1.405, 2.013e-5
-1.406, 2.018e-5
-1.407, 2.052e-5
-1.408, 2.088e-5
-1.409, 2.098e-5
-1.410, 2.107e-5
-1.411, 2.133e-5
-1.412, 2.143e-5
-1.413, 2.170e-5
-1.414, 2.201e-5
-1.415, 2.241e-5
-1.416, 2.234e-5
-1.417, 2.274e-5
-1.418, 2.315e-5
-1.419, 2.309e-5
-1.420, 2.358e-5
-1.421, 2.413e-5
-1.422, 2.404e-5
-1.423, 2.455e-5
-1.424, 2.464e-5
-1.425, 2.504e-5
-1.426, 2.512e-5
-1.427, 2.577e-5
-1.428, 2.612e-5
-1.429, 2.612e-5
-1.430, 2.644e-5
-1.431, 2.711e-5
-1.432, 2.710e-5
-1.433, 2.773e-5
-1.434, 2.808e-5
-1.435, 2.856e-5
-1.436, 2.859e-5
-1.437, 2.907e-5
-1.438, 2.953e-5
-1.439, 2.974e-5
-1.440, 3.010e-5
-1.441, 3.080e-5
-1.442, 3.102e-5
-1.443, 3.148e-5
-1.444, 3.190e-5
-1.445, 3.224e-5
-1.446, 3.258e-5
-1.447, 3.310e-5
-1.448, 3.377e-5
-1.449, 3.393e-5
-1.450, 3.473e-5
-1.451, 3.530e-5
-1.452, 3.557e-5
-1.453, 3.625e-5
-1.454, 3.659e-5
-1.455, 3.729e-5
-1.456, 3.750e-5
-1.457, 3.841e-5
-1.458, 3.906e-5
-1.459, 3.942e-5
-1.460, 4.015e-5
-1.461, 4.081e-5
-1.462, 4.136e-5
-1.463, 4.200e-5
-1.464, 4.240e-5
-1.465, 4.325e-5
-1.466, 4.387e-5
-1.467, 4.457e-5
-1.468, 4.523e-5
-1.469, 4.583e-5
-1.470, 4.652e-5
-1.471, 4.732e-5
-1.472, 4.806e-5
-1.473, 4.891e-5
-1.474, 4.939e-5
-1.475, 5.054e-5
-1.476, 5.108e-5
-1.477, 5.196e-5
-1.478, 5.289e-5
-1.479, 5.346e-5
-1.480, 5.447e-5
-1.481, 5.532e-5
-1.482, 5.620e-5
-1.483, 5.727e-5
-1.484, 5.794e-5
-1.485, 5.902e-5
-1.486, 5.997e-5
-1.487, 6.099e-5
-1.488, 6.222e-5
-1.489, 6.293e-5
-1.490, 6.436e-5
-1.491, 6.542e-5
-1.492, 6.600e-5
-1.493, 6.761e-5
-1.494, 6.834e-5
-1.495, 6.980e-5
-1.496, 7.059e-5
-1.497, 7.182e-5
-1.498, 7.335e-5
-1.499, 7.438e-5
-1.500, 7.584e-5
-1.501, 7.717e-5
-1.502, 7.841e-5
-1.503, 7.979e-5
-1.504, 8.123e-5
-1.505, 8.265e-5
-1.506, 8.425e-5
-1.507, 8.580e-5
-1.508, 8.725e-5
-1.509, 8.860e-5
-1.510, 9.028e-5
-1.511, 9.205e-5
-1.512, 9.349e-5
-1.513, 9.537e-5
-1.514, 9.707e-5
-1.515, 9.879e-5
-1.516, 1.006e-4
-1.517, 1.024e-4
-1.518, 1.044e-4
-1.519, 1.061e-4
-1.520, 1.084e-4
-1.521, 1.104e-4
-1.522, 1.123e-4
-1.523, 1.145e-4
-1.524, 1.165e-4
-1.525, 1.189e-4
-1.526, 1.211e-4
-1.527, 1.234e-4
-1.528, 1.259e-4
-1.529, 1.276e-4
-1.530, 1.303e-4
-1.531, 1.329e-4
-1.532, 1.353e-4
-1.533, 1.382e-4
-1.534, 1.408e-4
-1.535, 1.436e-4
-1.536, 1.461e-4
-1.537, 1.489e-4
-1.538, 1.522e-4
-1.539, 1.546e-4
-1.540, 1.580e-4
-1.541, 1.611e-4
-1.542, 1.639e-4
-1.543, 1.673e-4
-1.544, 1.707e-4
-1.545, 1.740e-4
-1.546, 1.773e-4
-1.547, 1.808e-4
-1.548, 1.843e-4
-1.549, 1.878e-4
-1.550, 1.919e-4
-1.551, 1.955e-4
-1.552, 1.993e-4
-1.553, 2.034e-4
-1.554, 2.074e-4
-1.555, 2.115e-4
-1.556, 2.156e-4
-1.557, 2.198e-4
-1.558, 2.245e-4
-1.559, 2.284e-4
-1.560, 2.330e-4
-1.561, 2.379e-4
-1.562, 2.427e-4
-1.563, 2.476e-4
-1.564, 2.525e-4
-1.565, 2.576e-4
-1.566, 2.628e-4
-1.567, 2.678e-4
-1.568, 2.733e-4
-1.569, 2.786e-4
-1.570, 2.844e-4
-1.571, 2.904e-4
-1.572, 2.960e-4
-1.573, 3.020e-4
-1.574, 3.079e-4
-1.575, 3.145e-4
-1.576, 3.206e-4
-1.577, 3.272e-4
-1.578, 3.338e-4
-1.579, 3.400e-4
-1.580, 3.472e-4
-1.581, 3.546e-4
-1.582, 3.619e-4
-1.583, 3.691e-4
-1.584, 3.761e-4
-1.585, 3.838e-4
-1.586, 3.913e-4
-1.587, 3.992e-4
-1.588, 4.075e-4
-1.589, 4.154e-4
-1.590, 4.241e-4
-1.591, 4.328e-4
-1.592, 4.410e-4
-1.593, 4.499e-4
-1.594, 4.586e-4
-1.595, 4.679e-4
-1.596, 4.773e-4
-1.597, 4.866e-4
-1.598, 4.966e-4
-1.599, 5.066e-4
-1.600, 5.172e-4
-1.601, 5.276e-4
-1.602, 5.379e-4
-1.603, 5.481e-4
-1.604, 5.588e-4
-1.605, 5.702e-4
-1.606, 5.812e-4
-1.607, 5.927e-4
-1.608, 6.048e-4
-1.609, 6.166e-4
-1.610, 6.291e-4
-1.611, 6.412e-4
-1.612, 6.530e-4
-1.613, 6.657e-4
-1.614, 6.788e-4
-1.615, 6.922e-4
-1.616, 7.054e-4
-1.617, 7.193e-4
-1.618, 7.341e-4
-1.619, 7.484e-4
-1.620, 7.629e-4
-1.621, 7.773e-4
-1.622, 7.915e-4
-1.623, 8.067e-4
-1.624, 8.221e-4
-1.625, 8.384e-4
-1.626, 8.547e-4
-1.627, 8.715e-4
-1.628, 8.887e-4
-1.629, 9.054e-4
-1.630, 9.218e-4
-1.631, 9.385e-4
-1.632, 9.558e-4
-1.633, 9.734e-4
-1.634, 9.917e-4
-1.635, 1.010e-3
-1.636, 1.030e-3
-1.637, 1.049e-3
-1.638, 1.070e-3
-1.639, 1.089e-3
-1.640, 1.108e-3
-1.641, 1.127e-3
-1.642, 1.147e-3
-1.643, 1.168e-3
-1.644, 1.189e-3
-1.645, 1.212e-3
-1.646, 1.234e-3
-1.647, 1.257e-3
-1.648, 1.279e-3
-1.649, 1.300e-3
-1.650, 1.322e-3
-1.651, 1.345e-3
-1.652, 1.369e-3
-1.653, 1.393e-3
-1.654, 1.418e-3
-1.655, 1.445e-3
-1.656, 1.470e-3
-1.657, 1.496e-3
-1.658, 1.520e-3
-1.659, 1.544e-3
-1.660, 1.570e-3
-1.661, 1.597e-3
-1.662, 1.624e-3
-1.663, 1.652e-3
-1.664, 1.682e-3
-1.665, 1.712e-3
-1.666, 1.741e-3
-1.667, 1.768e-3
-1.668, 1.795e-3
-1.669, 1.822e-3
-1.670, 1.852e-3
-1.671, 1.882e-3
-1.672, 1.913e-3
-1.673, 1.947e-3
-1.674, 1.980e-3
-1.675, 2.013e-3
-1.676, 2.044e-3
-1.677, 2.073e-3
-1.678, 2.103e-3
-1.679, 2.136e-3
-1.680, 2.168e-3
-1.681, 2.203e-3
-1.682, 2.240e-3
-1.683, 2.277e-3
-1.684, 2.313e-3
-1.685, 2.348e-3
-1.686, 2.380e-3
-1.687, 2.413e-3
-1.688, 2.449e-3
-1.689, 2.485e-3
-1.690, 2.522e-3
-1.691, 2.563e-3
-1.692, 2.604e-3
-1.693, 2.644e-3
-1.694, 2.683e-3
-1.695, 2.718e-3
-1.696, 2.752e-3
-1.697, 2.789e-3
-1.698, 2.828e-3
-1.699, 2.868e-3
-1.700, 2.911e-3
-1.701, 2.957e-3
-1.702, 3.002e-3
-1.703, 3.044e-3
-1.704, 3.082e-3
-1.705, 3.119e-3
-1.706, 3.158e-3
-1.707, 3.200e-3
-1.708, 3.244e-3
-1.709, 3.289e-3
-1.710, 3.338e-3
-1.711, 3.389e-3
-1.712, 3.435e-3
-1.713, 3.478e-3
-1.714, 3.516e-3
-1.715, 3.557e-3
-1.716, 3.602e-3
-1.717, 3.647e-3
-1.718, 3.696e-3
-1.719, 3.748e-3
-1.720, 3.803e-3
-1.721, 3.854e-3
-1.722, 3.900e-3
-1.723, 3.940e-3
-1.724, 3.982e-3
-1.725, 4.030e-3
-1.726, 4.077e-3
-1.727, 4.128e-3
-1.728, 4.184e-3
-1.729, 4.243e-3
-1.730, 4.299e-3
-1.731, 4.350e-3
-1.732, 4.392e-3
-1.733, 4.433e-3
-1.734, 4.482e-3
-1.735, 4.533e-3
-1.736, 4.584e-3
-1.737, 4.642e-3
-1.738, 4.705e-3
-1.739, 4.766e-3
-1.740, 4.822e-3
-1.741, 4.870e-3
-1.742, 4.912e-3
-1.743, 4.961e-3
-1.744, 5.014e-3
-1.745, 5.069e-3
-1.746, 5.128e-3
-1.747, 5.194e-3
-1.748, 5.262e-3
-1.749, 5.322e-3
-1.750, 5.374e-3
-1.751, 5.415e-3
-1.752, 5.464e-3
-1.753, 5.519e-3
-1.754, 5.576e-3
-1.755, 5.639e-3
-1.756, 5.707e-3
-1.757, 5.780e-3
-1.758, 5.844e-3
-1.759, 5.900e-3
-1.760, 5.942e-3
-1.761, 5.990e-3
-1.762, 6.047e-3
-1.763, 6.103e-3
-1.764, 6.165e-3
-1.765, 6.236e-3
-1.766, 6.313e-3
-1.767, 6.384e-3
-1.768, 6.446e-3
-1.769, 6.491e-3
-1.770, 6.541e-3
-1.771, 6.600e-3
-1.772, 6.659e-3
-1.773, 6.721e-3
-1.774, 6.794e-3
-1.775, 6.877e-3
-1.776, 6.952e-3
-1.777, 7.019e-3
-1.778, 7.071e-3
-1.779, 7.112e-3
-1.780, 7.169e-3
-1.781, 7.231e-3
-1.782, 7.293e-3
-1.783, 7.363e-3
-1.784, 7.445e-3
-1.785, 7.529e-3
-1.786, 7.600e-3
-1.787, 7.658e-3
-1.788, 7.698e-3
-1.789, 7.753e-3
-1.790, 7.826e-3
-1.791, 7.889e-3
-1.792, 7.960e-3
-1.793, 8.042e-3
-1.794, 8.131e-3
-1.795, 8.208e-3
-1.796, 8.269e-3
-1.797, 8.310e-3
-1.798, 8.359e-3
-1.799, 8.423e-3
-1.800, 8.442e-3
-1.799, 8.412e-3
-1.798, 8.390e-3
-1.797, 8.373e-3
-1.796, 8.346e-3
-1.795, 8.305e-3
-1.794, 8.238e-3
-1.793, 8.171e-3
-1.792, 8.121e-3
-1.791, 8.071e-3
-1.790, 8.025e-3
-1.789, 7.990e-3
-1.788, 7.964e-3
-1.787, 7.934e-3
-1.786, 7.890e-3
-1.785, 7.827e-3
-1.784, 7.753e-3
-1.783, 7.698e-3
-1.782, 7.647e-3
-1.781, 7.603e-3
-1.780, 7.571e-3
-1.779, 7.541e-3
-1.778, 7.508e-3
-1.777, 7.464e-3
-1.776, 7.408e-3
-1.775, 7.338e-3
-1.774, 7.276e-3
-1.773, 7.226e-3
-1.772, 7.174e-3
-1.771, 7.128e-3
-1.770, 7.093e-3
-1.769, 7.062e-3
-1.768, 7.020e-3
-1.767, 6.967e-3
-1.766, 6.899e-3
-1.765, 6.835e-3
-1.764, 6.783e-3
-1.763, 6.733e-3
-1.762, 6.686e-3
-1.761, 6.647e-3
-1.760, 6.614e-3
-1.759, 6.576e-3
-1.758, 6.527e-3
-1.757, 6.463e-3
-1.756, 6.398e-3
-1.755, 6.346e-3
-1.754, 6.295e-3
-1.753, 6.246e-3
-1.752, 6.206e-3
-1.751, 6.172e-3
-1.750, 6.135e-3
-1.749, 6.089e-3
-1.748, 6.030e-3
-1.747, 5.964e-3
-1.746, 5.913e-3
-1.745, 5.865e-3
-1.744, 5.815e-3
-1.743, 5.773e-3
-1.742, 5.739e-3
-1.741, 5.705e-3
-1.740, 5.662e-3
-1.739, 5.610e-3
-1.738, 5.547e-3
-1.737, 5.491e-3
-1.736, 5.445e-3
-1.735, 5.398e-3
-1.734, 5.353e-3
-1.733, 5.316e-3
-1.732, 5.282e-3
-1.731, 5.241e-3
-1.730, 5.192e-3
-1.729, 5.136e-3
-1.728, 5.081e-3
-1.727, 5.037e-3
-1.726, 4.992e-3
-1.725, 4.950e-3
-1.724, 4.913e-3
-1.723, 4.879e-3
-1.722, 4.840e-3
-1.721, 4.794e-3
-1.720, 4.739e-3
-1.719, 4.686e-3
-1.718, 4.640e-3
-1.717, 4.596e-3
-1.716, 4.553e-3
-1.715, 4.515e-3
-1.714, 4.481e-3
-1.713, 4.446e-3
-1.712, 4.406e-3
-1.711, 4.357e-3
-1.710, 4.305e-3
-1.709, 4.263e-3
-1.708, 4.219e-3
-1.707, 4.177e-3
-1.706, 4.141e-3
-1.705, 4.107e-3
-1.704, 4.073e-3
-1.703, 4.034e-3
-1.702, 3.989e-3
-1.701, 3.939e-3
-1.700, 3.895e-3
-1.699, 3.857e-3
-1.698, 3.816e-3
-1.697, 3.778e-3
-1.696, 3.745e-3
-1.695, 3.713e-3
-1.694, 3.677e-3
-1.693, 3.637e-3
-1.692, 3.592e-3
-1.691, 3.548e-3
-1.690, 3.509e-3
-1.689, 3.471e-3
-1.688, 3.434e-3
-1.687, 3.401e-3
-1.686, 3.370e-3
-1.685, 3.337e-3
-1.684, 3.300e-3
-1.683, 3.258e-3
-1.682, 3.216e-3
-1.681, 3.179e-3
-1.680, 3.142e-3
-1.679, 3.113e-3
-1.678, 3.080e-3
-1.677, 3.049e-3
-1.676, 3.018e-3
-1.675, 2.985e-3
-1.674, 2.947e-3
-1.673, 2.907e-3
-1.672, 2.872e-3
-1.671, 2.838e-3
-1.670, 2.805e-3
-1.669, 2.775e-3
-1.668, 2.746e-3
-1.667, 2.717e-3
-1.666, 2.689e-3
-1.665, 2.656e-3
-1.664, 2.618e-3
-1.663, 2.585e-3
-1.662, 2.555e-3
-1.661, 2.524e-3
-1.660, 2.494e-3
-1.659, 2.467e-3
-1.658, 2.439e-3
-1.657, 2.411e-3
-1.656, 2.379e-3
-1.655, 2.346e-3
-1.654, 2.314e-3
-1.653, 2.284e-3
-1.652, 2.256e-3
-1.651, 2.229e-3
-1.650, 2.202e-3
-1.649, 2.180e-3
-1.648, 2.154e-3
-1.647, 2.126e-3
-1.646, 2.096e-3
-1.645, 2.066e-3
-1.644, 2.038e-3
-1.643, 2.013e-3
-1.642, 1.987e-3
-1.641, 1.962e-3
-1.640, 1.938e-3
-1.639, 1.914e-3
-1.638, 1.888e-3
-1.637, 1.861e-3
-1.636, 1.834e-3
-1.635, 1.808e-3
-1.634, 1.783e-3
-1.633, 1.759e-3
-1.632, 1.736e-3
-1.631, 1.714e-3
-1.630, 1.692e-3
-1.629, 1.669e-3
-1.628, 1.645e-3
-1.627, 1.620e-3
-1.626, 1.596e-3
-1.625, 1.573e-3
-1.624, 1.550e-3
-1.623, 1.529e-3
-1.622, 1.509e-3
-1.621, 1.489e-3
-1.620, 1.468e-3
-1.619, 1.447e-3
-1.618, 1.425e-3
-1.617, 1.403e-3
-1.616, 1.383e-3
-1.615, 1.363e-3
-1.614, 1.343e-3
-1.613, 1.324e-3
-1.612, 1.306e-3
-1.611, 1.287e-3
-1.610, 1.268e-3
-1.609, 1.248e-3
-1.608, 1.228e-3
-1.607, 1.210e-3
-1.606, 1.193e-3
-1.605, 1.175e-3
-1.604, 1.158e-3
-1.603, 1.141e-3
-1.602, 1.125e-3
-1.601, 1.107e-3
-1.600, 1.090e-3
-1.599, 1.072e-3
-1.598, 1.055e-3
-1.597, 1.038e-3
-1.596, 1.022e-3
-1.595, 1.007e-3
-1.594, 9.922e-4
-1.593, 9.772e-4
-1.592, 9.621e-4
-1.591, 9.464e-4
-1.590, 9.301e-4
-1.589, 9.155e-4
-1.588, 9.003e-4
-1.587, 8.858e-4
-1.586, 8.719e-4
-1.585, 8.587e-4
-1.584, 8.450e-4
-1.583, 8.312e-4
-1.582, 8.177e-4
-1.581, 8.034e-4
-1.580, 7.898e-4
-1.579, 7.769e-4
-1.578, 7.638e-4
-1.577, 7.512e-4
-1.576, 7.391e-4
-1.575, 7.274e-4
-1.574, 7.152e-4
-1.573, 7.035e-4
-1.572, 6.916e-4
-1.571, 6.791e-4
-1.570, 6.678e-4
-1.569, 6.566e-4
-1.568, 6.453e-4
-1.567, 6.346e-4
-1.566, 6.242e-4
-1.565, 6.140e-4
-1.564, 6.033e-4
-1.563, 5.929e-4
-1.562, 5.824e-4
-1.561, 5.721e-4
-1.560, 5.626e-4
-1.559, 5.527e-4
-1.558, 5.426e-4
-1.557, 5.340e-4
-1.556, 5.247e-4
-1.555, 5.161e-4
-1.554, 5.062e-4
-1.553, 4.970e-4
-1.552, 4.882e-4
-1.551, 4.794e-4
-1.550, 4.709e-4
-1.549, 4.629e-4
-1.548, 4.543e-4
-1.547, 4.465e-4
-1.546, 4.382e-4
-1.545, 4.305e-4
-1.544, 4.227e-4
-1.543, 4.149e-4
-1.542, 4.076e-4
-1.541, 4.001e-4
-1.540, 3.928e-4
-1.539, 3.858e-4
-1.538, 3.786e-4
-1.537, 3.719e-4
-1.536, 3.650e-4
-1.535, 3.581e-4
-1.534, 3.510e-4
-1.533, 3.446e-4
-1.532, 3.383e-4
-1.531, 3.319e-4
-1.530, 3.256e-4
-1.529, 3.198e-4
-1.528, 3.136e-4
-1.527, 3.078e-4
-1.526, 3.018e-4
-1.525, 2.961e-4
-1.524, 2.904e-4
-1.523, 2.849e-4
-1.522, 2.795e-4
-1.521, 2.738e-4
-1.520, 2.688e-4
-1.519, 2.639e-4
-1.518, 2.583e-4
-1.517, 2.537e-4
-1.516, 2.486e-4
-1.515, 2.436e-4
-1.514, 2.390e-4
-1.513, 2.345e-4
-1.512, 2.301e-4
-1.511, 2.254e-4
-1.510, 2.211e-4
-1.509, 2.169e-4
-1.508, 2.122e-4
-1.507, 2.081e-4
-1.506, 2.039e-4
-1.505, 2.001e-4
-1.504, 1.959e-4
-1.503, 1.921e-4
-1.502, 1.886e-4
-1.501, 1.845e-4
-1.500, 1.809e-4
-1.499, 1.775e-4
-1.498, 1.733e-4
-1.497, 1.700e-4
-1.496, 1.662e-4
-1.495, 1.631e-4
-1.494, 1.595e-4
-1.493, 1.563e-4
-1.492, 1.534e-4
-1.491, 1.500e-4
-1.490, 1.470e-4
-1.489, 1.440e-4
-1.488, 1.404e-4
-1.487, 1.379e-4
-1.486, 1.349e-4
-1.485, 1.322e-4
-1.484, 1.293e-4
-1.483, 1.266e-4
-1.482, 1.241e-4
-1.481, 1.213e-4
-1.480, 1.188e-4
-1.479, 1.163e-4
-1.478, 1.135e-4
-1.477, 1.113e-4
-1.476, 1.089e-4
-1.475, 1.066e-4
-1.474, 1.045e-4
-1.473, 1.020e-4
-1.472, 9.974e-5
-1.471, 9.758e-5
-1.470, 9.539e-5
-1.469, 9.349e-5
-1.468, 9.116e-5
-1.467, 8.932e-5
-1.466, 8.731e-5
-1.465, 8.549e-5
-1.464, 8.358e-5
-1.463, 8.170e-5
-1.462, 7.990e-5
-1.461, 7.779e-5
-1.460, 7.641e-5
-1.459, 7.462e-5
-1.458, 7.250e-5
-1.457, 7.116e-5
-1.456, 6.929e-5
-1.455, 6.814e-5
-1.454, 6.626e-5
-1.453, 6.475e-5
-1.452, 6.333e-5
-1.451, 6.177e-5
-1.450, 6.034e-5
-1.449, 5.910e-5
-1.448, 5.746e-5
-1.447, 5.632e-5
-1.446, 5.484e-5
-1.445, 5.324e-5
-1.444, 5.224e-5
-1.443, 5.073e-5
-1.442, 4.984e-5
-1.441, 4.858e-5
-1.440, 4.700e-5
-1.439, 4.615e-5
-1.438, 4.464e-5
-1.437, 4.408e-5
-1.436, 4.266e-5
-1.435, 4.157e-5
-1.434, 4.031e-5
-1.433, 3.920e-5
-1.432, 3.834e-5
-1.431, 3.694e-5
-1.430, 3.642e-5
-1.429, 3.548e-5
-1.428, 3.423e-5
-1.427, 3.342e-5
-1.426, 3.250e-5
-1.425, 3.145e-5
-1.424, 3.078e-5
-1.423, 2.984e-5
-1.422, 2.903e-5
-1.421, 2.802e-5
-1.420, 2.737e-5
-1.419, 2.665e-5
-1.418, 2.575e-5
-1.417, 2.504e-5
-1.416, 2.427e-5
-1.415, 2.345e-5
-1.414, 2.284e-5
-1.413, 2.209e-5
-1.412, 2.157e-5
-1.411, 2.069e-5
-1.410, 2.029e-5
-1.409, 1.970e-5
-1.408, 1.876e-5
-1.407, 1.826e-5
-1.406, 1.743e-5
-1.405, 1.699e-5
-1.404, 1.652e-5
-1.403, 1.590e-5
-1.402, 1.551e-5
-1.401, 1.472e-5
-1.400, 1.441e-5
-1.399, 1.386e-5
-1.398, 1.316e-5
-1.397, 1.295e-5
-1.396, 1.206e-5
-1.395, 1.177e-5
-1.394, 1.113e-5
-1.393, 1.070e-5
-1.392, 1.045e-5
-1.391, 9.894e-6
-1.390, 9.529e-6
-1.389, 9.124e-6
-1.388, 8.522e-6
-1.387, 8.502e-6
-1.386, 8.118e-6
-1.385, 7.447e-6
-1.384, 7.111e-6
-1.383, 6.470e-6
-1.382, 6.263e-6
-1.381, 5.947e-6
-1.380, 5.651e-6
-1.379, 5.414e-6
-1.378, 4.970e-6
-1.377, 4.684e-6
-1.376, 4.398e-6
-1.375, 4.122e-6
-1.374, 3.629e-6
-1.373, 3.352e-6
-1.372, 3.461e-6
-1.371, 2.820e-6
-1.370, 2.395e-6
-1.369, 2.129e-6
-1.368, 2.040e-6
-1.367, 1.813e-6
-1.366, 1.527e-6
-1.365, 1.271e-6
-1.364, 9.156e-7
-1.363, 6.294e-7
-1.362, 8.070e-7
-1.361, 5.209e-7
-1.360, 3.927e-7
-1.359, 1.164e-7
-1.358, -4.755e-7
-1.357, -3.769e-7
-1.356, -6.334e-7
-1.355, -7.912e-7
-1.354, -1.117e-6
-1.353, -1.127e-6
-1.352, -1.442e-6
-1.351, -1.886e-6
-1.350, -1.946e-6
-1.349, -1.995e-6
-1.348, -1.975e-6
-1.347, -2.222e-6
-1.346, -2.597e-6
-1.345, -2.695e-6
-1.344, -2.597e-6
-1.343, -2.972e-6
-1.342, -2.972e-6
-1.341, -3.139e-6
-1.340, -3.080e-6
-1.339, -3.179e-6
-1.338, -3.643e-6
-1.337, -3.702e-6
-1.336, -3.840e-6
-1.335, -3.988e-6
-1.334, -4.008e-6
-1.333, -4.096e-6
-1.332, -4.136e-6
-1.331, -4.609e-6
-1.330, -4.284e-6
-1.329, -4.619e-6
-1.328, -4.905e-6
-1.327, -4.767e-6
-1.326, -4.974e-6
-1.325, -5.132e-6
-1.324, -5.122e-6
-1.323, -5.241e-6
-1.322, -5.182e-6
-1.321, -5.349e-6
-1.320, -5.399e-6
-1.319, -5.389e-6
-1.318, -5.685e-6
-1.317, -5.557e-6
-1.316, -5.714e-6
-1.315, -6.168e-6
-1.314, -5.783e-6
-1.313, -6.148e-6
-1.312, -6.030e-6
-1.311, -6.198e-6
-1.310, -6.079e-6
-1.309, -6.119e-6
-1.308, -6.415e-6
-1.307, -6.237e-6
-1.306, -6.592e-6
-1.305, -6.395e-6
-1.304, -6.652e-6
-1.303, -6.494e-6
-1.302, -6.523e-6
-1.301, -6.681e-6
-1.300, -6.573e-6
-1.299, -6.602e-6
-1.298, -6.780e-6
-1.297, -6.760e-6
-1.296, -6.770e-6
-1.295, -7.027e-6
-1.294, -6.780e-6
-1.293, -7.145e-6
-1.292, -7.027e-6
-1.291, -7.244e-6
-1.290, -7.263e-6
-1.289, -7.155e-6
-1.288, -7.342e-6
-1.287, -7.056e-6
-1.286, -7.283e-6
-1.285, -7.323e-6
-1.284, -7.293e-6
-1.283, -7.500e-6
-1.282, -7.549e-6
-1.281, -7.559e-6
-1.280, -7.549e-6
-1.279, -7.549e-6
-1.278, -7.658e-6
-1.277, -7.431e-6
-1.276, -7.697e-6
-1.275, -7.757e-6
-1.274, -7.914e-6
-1.273, -7.707e-6
-1.272, -7.757e-6
-1.271, -7.806e-6
-1.270, -7.806e-6
-1.269, -7.747e-6
-1.268, -7.964e-6
-1.267, -7.786e-6
-1.266, -7.836e-6
-1.265, -8.082e-6
-1.264, -7.855e-6
-1.263, -7.944e-6
-1.262, -7.845e-6
-1.261, -8.003e-6
-1.260, -7.944e-6
-1.259, -7.993e-6
-1.258, -8.240e-6
-1.257, -7.747e-6
-1.256, -8.122e-6
-1.255, -8.230e-6
-1.254, -8.289e-6
-1.253, -8.082e-6
-1.252, -7.954e-6
-1.251, -8.299e-6
-1.250, -8.201e-6
-1.249, -8.062e-6
-1.248, -8.201e-6
-1.247, -8.141e-6
-1.246, -8.062e-6
-1.245, -8.388e-6
-1.244, -8.191e-6
-1.243, -8.457e-6
-1.242, -8.171e-6
-1.241, -8.339e-6
-1.240, -8.250e-6
-1.239, -8.201e-6
-1.238, -8.615e-6
-1.237, -8.270e-6
-1.236, -8.418e-6
-1.235, -8.497e-6
-1.234, -8.477e-6
-1.233, -8.625e-6
-1.232, -8.477e-6
-1.231, -8.418e-6
-1.230, -8.418e-6
-1.229, -8.546e-6
-1.228, -8.743e-6
-1.227, -8.556e-6
-1.226, -8.871e-6
-1.225, -8.595e-6
-1.224, -8.674e-6
-1.223, -8.447e-6
-1.222, -8.595e-6
-1.221, -8.753e-6
-1.220, -8.536e-6
-1.219, -8.418e-6
-1.218, -8.714e-6
-1.217, -8.585e-6
-1.216, -8.506e-6
-1.215, -8.526e-6
-1.214, -8.566e-6
-1.213, -8.783e-6
-1.212, -8.674e-6
-1.211, -8.723e-6
-1.210, -8.477e-6
-1.209, -8.714e-6
-1.208, -8.970e-6
-1.207, -8.645e-6
-1.206, -9.039e-6
-1.205, -8.862e-6
-1.204, -8.556e-6
-1.203, -8.802e-6
-1.202, -8.793e-6
-1.201, -8.862e-6
-1.200, -8.950e-6
-1.199, -8.871e-6
-1.198, -8.921e-6
-1.197, -8.694e-6
-1.196, -8.862e-6
-1.195, -8.921e-6
-1.194, -8.852e-6
-1.193, -8.950e-6
-1.192, -8.901e-6
-1.191, -8.822e-6
-1.190, -8.911e-6
-1.189, -8.921e-6
-1.188, -9.059e-6
-1.187, -9.000e-6
-1.186, -8.970e-6
-1.185, -8.950e-6
-1.184, -8.733e-6
-1.183, -8.862e-6
-1.182, -8.980e-6
-1.181, -9.059e-6
-1.180, -8.881e-6
-1.179, -8.901e-6
-1.178, -8.970e-6
-1.177, -8.960e-6
-1.176, -9.010e-6
-1.175, -9.197e-6
-1.174, -9.098e-6
-1.173, -9.019e-6
-1.172, -8.812e-6
-1.171, -9.158e-6
-1.170, -9.039e-6
-1.169, -8.980e-6
-1.168, -9.079e-6
-1.167, -8.960e-6
-1.166, -9.207e-6
-1.165, -9.207e-6
-1.164, -9.098e-6
-1.163, -9.296e-6
-1.162, -9.049e-6
-1.161, -9.158e-6
-1.160, -8.921e-6
-1.159, -8.931e-6
-1.158, -9.404e-6
-1.157, -9.108e-6
-1.156, -8.990e-6
-1.155, -9.365e-6
-1.154, -8.862e-6
-1.153, -9.306e-6
-1.152, -9.276e-6
-1.151, -9.315e-6
-1.150, -9.227e-6
-1.149, -9.108e-6
-1.148, -9.384e-6
-1.147, -9.187e-6
-1.146, -9.167e-6
-1.145, -9.246e-6
-1.144, -9.197e-6
-1.143, -9.128e-6
-1.142, -9.098e-6
-1.141, -9.266e-6
-1.140, -9.266e-6
-1.139, -9.246e-6
-1.138, -9.532e-6
-1.137, -9.296e-6
-1.136, -9.394e-6
-1.135, -9.217e-6
-1.134, -9.306e-6
-1.133, -9.454e-6
-1.132, -9.197e-6
-1.131, -9.661e-6
-1.130, -9.335e-6
-1.129, -9.276e-6
-1.128, -9.434e-6
-1.127, -9.128e-6
-1.126, -9.424e-6
-1.125, -9.532e-6
-1.124, -9.108e-6
-1.123, -9.513e-6
-1.122, -9.246e-6
-1.121, -9.434e-6
-1.120, -9.523e-6
-1.119, -9.384e-6
-1.118, -9.868e-6
-1.117, -9.237e-6
-1.116, -9.523e-6
-1.115, -9.315e-6
-1.114, -9.345e-6
-1.113, -9.631e-6
-1.112, -9.335e-6
-1.111, -9.513e-6
-1.110, -9.384e-6
-1.109, -9.562e-6
-1.108, -9.700e-6
-1.107, -9.661e-6
-1.106, -9.582e-6
-1.105, -9.572e-6
-1.104, -9.463e-6
-1.103, -9.710e-6
-1.102, -9.414e-6
-1.101, -9.572e-6
-1.100, -9.651e-6
-1.099, -9.562e-6
-1.098, -9.680e-6
-1.097, -9.878e-6
-1.096, -9.513e-6
-1.095, -9.661e-6
-1.094, -9.700e-6
-1.093, -9.750e-6
-1.092, -9.542e-6
-1.091, -9.710e-6
-1.090, -9.671e-6
-1.089, -9.602e-6
-1.088, -1.003e-5
-1.087, -9.463e-6
-1.086, -9.690e-6
-1.085, -9.907e-6
-1.084, -9.809e-6
-1.083, -9.917e-6
-1.082, -9.641e-6
-1.081, -9.917e-6
-1.080, -9.661e-6
-1.079, -9.523e-6
-1.078, -9.957e-6
-1.077, -9.779e-6
-1.076, -9.651e-6
-1.075, -9.996e-6
-1.074, -9.947e-6
-1.073, -9.927e-6
-1.072, -9.878e-6
-1.071, -9.957e-6
-1.070, -1.003e-5
-1.069, -9.878e-6
-1.068, -1.018e-5
-1.067, -9.927e-6
-1.066, -9.888e-6
-1.065, -1.009e-5
-1.064, -1.001e-5
-1.063, -1.010e-5
-1.062, -1.012e-5
-1.061, -1.017e-5
-1.060, -9.986e-6
-1.059, -1.004e-5
-1.058, -1.046e-5
-1.057, -1.019e-5
-1.056, -1.019e-5
-1.055, -1.027e-5
-1.054, -1.026e-5
-1.053, -1.018e-5
-1.052, -1.015e-5
-1.051, -1.039e-5
-1.050, -1.014e-5
-1.049, -1.015e-5
-1.048, -1.045e-5
-1.047, -1.032e-5
-1.046, -1.058e-5
-1.045, -1.042e-5
-1.044, -1.041e-5
-1.043, -1.064e-5
-1.042, -1.046e-5
-1.041, -1.048e-5
-1.040, -1.046e-5
-1.039, -1.031e-5
-1.038, -1.088e-5
-1.037, -1.044e-5
-1.036, -1.067e-5
-1.035, -1.060e-5
-1.034, -1.067e-5
-1.033, -1.081e-5
-1.032, -1.062e-5
-1.031, -1.090e-5
-1.030, -1.080e-5
-1.029, -1.067e-5
-1.028, -1.077e-5
-1.027, -1.082e-5
-1.026, -1.067e-5
-1.025, -1.087e-5
-1.024, -1.103e-5
-1.023, -1.106e-5
-1.022, -1.090e-5
-1.021, -1.107e-5
-1.020, -1.106e-5
-1.019, -1.113e-5
-1.018, -1.131e-5
-1.017, -1.122e-5
-1.016, -1.116e-5
-1.015, -1.124e-5
-1.014, -1.124e-5
-1.013, -1.126e-5
-1.012, -1.102e-5
-1.011, -1.148e-5
-1.010, -1.135e-5
-1.009, -1.119e-5
-1.008, -1.144e-5
-1.007, -1.123e-5
-1.006, -1.146e-5
-1.005, -1.144e-5
-1.004, -1.128e-5
-1.003, -1.161e-5
-1.002, -1.146e-5
-1.001, -1.161e-5
