Aug. 27, 2024   02:46:51
Cyclic Voltammetry
File: c:/users/guazh/data/20240813_batch_181_500/2024-08-25-exp193\exp193-2024-08-27t02_27_03-h2koh\exp193_cv_sr_400mvs_efin_-1800mv.bin
Data Source:  Experiment
Instrument Model:  CHI760E
Header: CV ran at 400 mVs
Note: 

Init E (V) = -1
High E (V) = -1
Low E (V) = -1.8
Final E (V) = -1
Init P/N = N
Scan Rate (V/s) = 0.4
Segment = 3
Sample Interval (V) = 0.001
Quiet Time (sec) = 2
Sensitivity (A/V) = 0.01
Comp R (ohm) = 1.8

Results:

Channel 1:
Segment 1:
Ep = -1.219V
ip = 5.087e-6A
Ah = 3.049e-7C

Segment 2:

Segment 3:

Potential/V, Current/A

-1.000, 6.322e-6
-1.001, 6.322e-6
-1.002, 6.322e-6
-1.003, 6.322e-6
-1.004, 6.322e-6
-1.005, 9.405e-6
-1.006, 9.405e-6
-1.007, 6.322e-6
-1.008, 9.405e-6
-1.009, 9.405e-6
-1.010, 9.405e-6
-1.011, 9.405e-6
-1.012, 9.405e-6
-1.013, 9.405e-6
-1.014, 9.405e-6
-1.015, 9.405e-6
-1.016, 9.405e-6
-1.017, 9.405e-6
-1.018, 9.405e-6
-1.019, 9.405e-6
-1.020, 9.405e-6
-1.021, 9.405e-6
-1.022, 9.405e-6
-1.023, 9.405e-6
-1.024, 9.405e-6
-1.025, 9.405e-6
-1.026, 9.405e-6
-1.027, 9.405e-6
-1.028, 9.405e-6
-1.029, 9.405e-6
-1.030, 9.405e-6
-1.031, 9.405e-6
-1.032, 9.405e-6
-1.033, 9.405e-6
-1.034, 9.405e-6
-1.035, 9.405e-6
-1.036, 9.405e-6
-1.037, 9.405e-6
-1.038, 9.405e-6
-1.039, 9.405e-6
-1.040, 9.405e-6
-1.041, 9.405e-6
-1.042, 9.405e-6
-1.043, 9.405e-6
-1.044, 9.405e-6
-1.045, 9.405e-6
-1.046, 9.405e-6
-1.047, 9.405e-6
-1.048, 9.405e-6
-1.049, 1.249e-5
-1.050, 9.405e-6
-1.051, 9.405e-6
-1.052, 1.249e-5
-1.053, 9.405e-6
-1.054, 1.249e-5
-1.055, 1.249e-5
-1.056, 9.405e-6
-1.057, 9.405e-6
-1.058, 9.405e-6
-1.059, 1.249e-5
-1.060, 9.405e-6
-1.061, 9.405e-6
-1.062, 9.405e-6
-1.063, 1.249e-5
-1.064, 1.249e-5
-1.065, 9.405e-6
-1.066, 9.405e-6
-1.067, 9.405e-6
-1.068, 9.405e-6
-1.069, 9.405e-6
-1.070, 1.249e-5
-1.071, 1.249e-5
-1.072, 9.405e-6
-1.073, 1.249e-5
-1.074, 1.249e-5
-1.075, 1.249e-5
-1.076, 1.249e-5
-1.077, 9.405e-6
-1.078, 1.249e-5
-1.079, 1.249e-5
-1.080, 1.249e-5
-1.081, 1.249e-5
-1.082, 1.249e-5
-1.083, 1.249e-5
-1.084, 1.249e-5
-1.085, 1.249e-5
-1.086, 1.249e-5
-1.087, 1.249e-5
-1.088, 1.249e-5
-1.089, 1.249e-5
-1.090, 1.249e-5
-1.091, 1.249e-5
-1.092, 1.249e-5
-1.093, 1.249e-5
-1.094, 1.249e-5
-1.095, 1.249e-5
-1.096, 1.249e-5
-1.097, 1.249e-5
-1.098, 1.249e-5
-1.099, 1.249e-5
-1.100, 1.249e-5
-1.101, 1.249e-5
-1.102, 1.249e-5
-1.103, 1.249e-5
-1.104, 1.249e-5
-1.105, 1.249e-5
-1.106, 1.249e-5
-1.107, 1.249e-5
-1.108, 1.249e-5
-1.109, 1.249e-5
-1.110, 1.249e-5
-1.111, 1.249e-5
-1.112, 1.249e-5
-1.113, 1.249e-5
-1.114, 1.249e-5
-1.115, 1.249e-5
-1.116, 1.249e-5
-1.117, 1.249e-5
-1.118, 1.249e-5
-1.119, 1.249e-5
-1.120, 1.249e-5
-1.121, 1.249e-5
-1.122, 1.249e-5
-1.123, 1.249e-5
-1.124, 1.249e-5
-1.125, 1.249e-5
-1.126, 1.249e-5
-1.127, 1.249e-5
-1.128, 1.249e-5
-1.129, 1.249e-5
-1.130, 1.249e-5
-1.131, 1.249e-5
-1.132, 1.249e-5
-1.133, 1.249e-5
-1.134, 1.249e-5
-1.135, 1.249e-5
-1.136, 1.249e-5
-1.137, 1.249e-5
-1.138, 1.249e-5
-1.139, 1.249e-5
-1.140, 1.249e-5
-1.141, 1.249e-5
-1.142, 1.249e-5
-1.143, 1.249e-5
-1.144, 1.249e-5
-1.145, 1.249e-5
-1.146, 1.249e-5
-1.147, 1.557e-5
-1.148, 1.249e-5
-1.149, 1.249e-5
-1.150, 1.249e-5
-1.151, 1.249e-5
-1.152, 1.249e-5
-1.153, 1.249e-5
-1.154, 1.557e-5
-1.155, 1.249e-5
-1.156, 1.557e-5
-1.157, 1.249e-5
-1.158, 1.249e-5
-1.159, 1.557e-5
-1.160, 1.249e-5
-1.161, 1.249e-5
-1.162, 1.557e-5
-1.163, 1.249e-5
-1.164, 1.249e-5
-1.165, 1.249e-5
-1.166, 1.249e-5
-1.167, 1.557e-5
-1.168, 1.249e-5
-1.169, 1.249e-5
-1.170, 1.557e-5
-1.171, 1.557e-5
-1.172, 1.557e-5
-1.173, 1.249e-5
-1.174, 1.557e-5
-1.175, 1.557e-5
-1.176, 1.557e-5
-1.177, 1.249e-5
-1.178, 1.557e-5
-1.179, 1.557e-5
-1.180, 1.557e-5
-1.181, 1.249e-5
-1.182, 1.557e-5
-1.183, 1.557e-5
-1.184, 1.557e-5
-1.185, 1.249e-5
-1.186, 1.557e-5
-1.187, 1.557e-5
-1.188, 1.557e-5
-1.189, 1.557e-5
-1.190, 1.249e-5
-1.191, 1.557e-5
-1.192, 1.557e-5
-1.193, 1.557e-5
-1.194, 1.557e-5
-1.195, 1.557e-5
-1.196, 1.557e-5
-1.197, 1.557e-5
-1.198, 1.557e-5
-1.199, 1.557e-5
-1.200, 1.557e-5
-1.201, 1.557e-5
-1.202, 1.557e-5
-1.203, 1.557e-5
-1.204, 1.557e-5
-1.205, 1.557e-5
-1.206, 1.557e-5
-1.207, 1.557e-5
-1.208, 1.557e-5
-1.209, 1.557e-5
-1.210, 1.557e-5
-1.211, 1.557e-5
-1.212, 1.557e-5
-1.213, 1.557e-5
-1.214, 1.557e-5
-1.215, 1.557e-5
-1.216, 1.557e-5
-1.217, 1.557e-5
-1.218, 1.557e-5
-1.219, 1.865e-5
-1.220, 1.557e-5
-1.221, 1.557e-5
-1.222, 1.557e-5
-1.223, 1.557e-5
-1.224, 1.557e-5
-1.225, 1.557e-5
-1.226, 1.557e-5
-1.227, 1.557e-5
-1.228, 1.557e-5
-1.229, 1.557e-5
-1.230, 1.557e-5
-1.231, 1.557e-5
-1.232, 1.557e-5
-1.233, 1.557e-5
-1.234, 1.557e-5
-1.235, 1.557e-5
-1.236, 1.557e-5
-1.237, 1.557e-5
-1.238, 1.557e-5
-1.239, 1.557e-5
-1.240, 1.557e-5
-1.241, 1.557e-5
-1.242, 1.557e-5
-1.243, 1.557e-5
-1.244, 1.557e-5
-1.245, 1.557e-5
-1.246, 1.557e-5
-1.247, 1.557e-5
-1.248, 1.557e-5
-1.249, 1.557e-5
-1.250, 1.557e-5
-1.251, 1.557e-5
-1.252, 1.557e-5
-1.253, 1.557e-5
-1.254, 1.557e-5
-1.255, 1.557e-5
-1.256, 1.557e-5
-1.257, 1.557e-5
-1.258, 1.557e-5
-1.259, 1.865e-5
-1.260, 1.557e-5
-1.261, 1.557e-5
-1.262, 1.557e-5
-1.263, 1.557e-5
-1.264, 1.557e-5
-1.265, 1.865e-5
-1.266, 1.557e-5
-1.267, 1.557e-5
-1.268, 1.557e-5
-1.269, 1.557e-5
-1.270, 1.557e-5
-1.271, 1.865e-5
-1.272, 1.557e-5
-1.273, 1.865e-5
-1.274, 1.865e-5
-1.275, 1.865e-5
-1.276, 1.865e-5
-1.277, 1.865e-5
-1.278, 1.865e-5
-1.279, 1.865e-5
-1.280, 1.557e-5
-1.281, 1.865e-5
-1.282, 1.865e-5
-1.283, 1.865e-5
-1.284, 1.865e-5
-1.285, 1.865e-5
-1.286, 1.865e-5
-1.287, 1.865e-5
-1.288, 1.865e-5
-1.289, 1.865e-5
-1.290, 1.865e-5
-1.291, 1.865e-5
-1.292, 1.865e-5
-1.293, 1.865e-5
-1.294, 1.865e-5
-1.295, 1.865e-5
-1.296, 1.865e-5
-1.297, 1.865e-5
-1.298, 1.865e-5
-1.299, 1.865e-5
-1.300, 1.865e-5
-1.301, 1.865e-5
-1.302, 1.865e-5
-1.303, 1.865e-5
-1.304, 1.865e-5
-1.305, 1.865e-5
-1.306, 1.865e-5
-1.307, 1.865e-5
-1.308, 1.865e-5
-1.309, 1.865e-5
-1.310, 1.865e-5
-1.311, 1.865e-5
-1.312, 1.865e-5
-1.313, 1.865e-5
-1.314, 1.865e-5
-1.315, 1.865e-5
-1.316, 2.174e-5
-1.317, 1.865e-5
-1.318, 1.865e-5
-1.319, 2.174e-5
-1.320, 1.865e-5
-1.321, 1.865e-5
-1.322, 1.865e-5
-1.323, 1.865e-5
-1.324, 1.865e-5
-1.325, 1.865e-5
-1.326, 1.865e-5
-1.327, 1.865e-5
-1.328, 1.865e-5
-1.329, 2.174e-5
-1.330, 1.865e-5
-1.331, 1.865e-5
-1.332, 2.174e-5
-1.333, 2.174e-5
-1.334, 1.865e-5
-1.335, 2.174e-5
-1.336, 2.174e-5
-1.337, 2.174e-5
-1.338, 2.174e-5
-1.339, 2.174e-5
-1.340, 2.174e-5
-1.341, 1.865e-5
-1.342, 2.174e-5
-1.343, 2.174e-5
-1.344, 2.174e-5
-1.345, 2.174e-5
-1.346, 2.174e-5
-1.347, 2.174e-5
-1.348, 2.174e-5
-1.349, 2.174e-5
-1.350, 2.174e-5
-1.351, 2.174e-5
-1.352, 2.174e-5
-1.353, 2.174e-5
-1.354, 2.174e-5
-1.355, 2.174e-5
-1.356, 2.174e-5
-1.357, 2.174e-5
-1.358, 2.174e-5
-1.359, 2.482e-5
-1.360, 2.174e-5
-1.361, 2.174e-5
-1.362, 2.174e-5
-1.363, 2.482e-5
-1.364, 2.174e-5
-1.365, 2.482e-5
-1.366, 2.482e-5
-1.367, 2.174e-5
-1.368, 2.482e-5
-1.369, 2.482e-5
-1.370, 2.482e-5
-1.371, 2.482e-5
-1.372, 2.482e-5
-1.373, 2.482e-5
-1.374, 2.482e-5
-1.375, 2.482e-5
-1.376, 2.482e-5
-1.377, 2.482e-5
-1.378, 2.482e-5
-1.379, 2.482e-5
-1.380, 2.482e-5
-1.381, 2.482e-5
-1.382, 2.790e-5
-1.383, 2.482e-5
-1.384, 2.482e-5
-1.385, 2.790e-5
-1.386, 2.482e-5
-1.387, 2.790e-5
-1.388, 2.790e-5
-1.389, 2.790e-5
-1.390, 2.790e-5
-1.391, 2.790e-5
-1.392, 2.790e-5
-1.393, 2.790e-5
-1.394, 2.790e-5
-1.395, 2.790e-5
-1.396, 2.790e-5
-1.397, 2.790e-5
-1.398, 2.790e-5
-1.399, 3.099e-5
-1.400, 2.790e-5
-1.401, 3.099e-5
-1.402, 2.790e-5
-1.403, 3.099e-5
-1.404, 3.099e-5
-1.405, 3.099e-5
-1.406, 3.099e-5
-1.407, 3.099e-5
-1.408, 3.099e-5
-1.409, 3.099e-5
-1.410, 3.099e-5
-1.411, 3.099e-5
-1.412, 3.407e-5
-1.413, 3.099e-5
-1.414, 3.099e-5
-1.415, 3.407e-5
-1.416, 3.407e-5
-1.417, 3.407e-5
-1.418, 3.407e-5
-1.419, 3.407e-5
-1.420, 3.407e-5
-1.421, 3.407e-5
-1.422, 3.407e-5
-1.423, 3.407e-5
-1.424, 3.407e-5
-1.425, 3.715e-5
-1.426, 3.715e-5
-1.427, 3.715e-5
-1.428, 3.715e-5
-1.429, 3.715e-5
-1.430, 3.715e-5
-1.431, 3.715e-5
-1.432, 4.024e-5
-1.433, 3.715e-5
-1.434, 4.024e-5
-1.435, 4.024e-5
-1.436, 4.024e-5
-1.437, 4.024e-5
-1.438, 4.024e-5
-1.439, 4.024e-5
-1.440, 4.024e-5
-1.441, 4.024e-5
-1.442, 4.024e-5
-1.443, 4.332e-5
-1.444, 4.332e-5
-1.445, 4.332e-5
-1.446, 4.332e-5
-1.447, 4.332e-5
-1.448, 4.332e-5
-1.449, 4.640e-5
-1.450, 4.640e-5
-1.451, 4.640e-5
-1.452, 4.640e-5
-1.453, 4.640e-5
-1.454, 4.640e-5
-1.455, 4.949e-5
-1.456, 4.949e-5
-1.457, 4.949e-5
-1.458, 4.949e-5
-1.459, 4.949e-5
-1.460, 5.257e-5
-1.461, 4.949e-5
-1.462, 5.257e-5
-1.463, 5.257e-5
-1.464, 5.257e-5
-1.465, 5.257e-5
-1.466, 5.565e-5
-1.467, 5.565e-5
-1.468, 5.565e-5
-1.469, 5.565e-5
-1.470, 5.565e-5
-1.471, 5.565e-5
-1.472, 5.873e-5
-1.473, 5.873e-5
-1.474, 5.873e-5
-1.475, 5.873e-5
-1.476, 6.182e-5
-1.477, 6.182e-5
-1.478, 6.182e-5
-1.479, 6.490e-5
-1.480, 6.182e-5
-1.481, 6.490e-5
-1.482, 6.490e-5
-1.483, 6.490e-5
-1.484, 6.798e-5
-1.485, 6.798e-5
-1.486, 6.798e-5
-1.487, 6.798e-5
-1.488, 7.107e-5
-1.489, 7.107e-5
-1.490, 7.107e-5
-1.491, 7.415e-5
-1.492, 7.415e-5
-1.493, 7.415e-5
-1.494, 7.415e-5
-1.495, 7.723e-5
-1.496, 7.723e-5
-1.497, 7.723e-5
-1.498, 8.032e-5
-1.499, 8.032e-5
-1.500, 8.032e-5
-1.501, 8.340e-5
-1.502, 8.340e-5
-1.503, 8.340e-5
-1.504, 8.340e-5
-1.505, 8.648e-5
-1.506, 8.648e-5
-1.507, 8.957e-5
-1.508, 8.957e-5
-1.509, 9.265e-5
-1.510, 9.265e-5
-1.511, 9.265e-5
-1.512, 9.573e-5
-1.513, 9.573e-5
-1.514, 9.882e-5
-1.515, 9.882e-5
-1.516, 1.019e-4
-1.517, 1.019e-4
-1.518, 1.019e-4
-1.519, 1.050e-4
-1.520, 1.050e-4
-1.521, 1.081e-4
-1.522, 1.111e-4
-1.523, 1.111e-4
-1.524, 1.142e-4
-1.525, 1.142e-4
-1.526, 1.173e-4
-1.527, 1.173e-4
-1.528, 1.204e-4
-1.529, 1.235e-4
-1.530, 1.235e-4
-1.531, 1.266e-4
-1.532, 1.296e-4
-1.533, 1.296e-4
-1.534, 1.327e-4
-1.535, 1.358e-4
-1.536, 1.389e-4
-1.537, 1.389e-4
-1.538, 1.420e-4
-1.539, 1.420e-4
-1.540, 1.451e-4
-1.541, 1.481e-4
-1.542, 1.512e-4
-1.543, 1.543e-4
-1.544, 1.574e-4
-1.545, 1.605e-4
-1.546, 1.605e-4
-1.547, 1.636e-4
-1.548, 1.666e-4
-1.549, 1.697e-4
-1.550, 1.728e-4
-1.551, 1.759e-4
-1.552, 1.790e-4
-1.553, 1.821e-4
-1.554, 1.851e-4
-1.555, 1.882e-4
-1.556, 1.913e-4
-1.557, 1.944e-4
-1.558, 1.975e-4
-1.559, 2.036e-4
-1.560, 2.036e-4
-1.561, 2.098e-4
-1.562, 2.129e-4
-1.563, 2.191e-4
-1.564, 2.221e-4
-1.565, 2.252e-4
-1.566, 2.314e-4
-1.567, 2.345e-4
-1.568, 2.376e-4
-1.569, 2.437e-4
-1.570, 2.468e-4
-1.571, 2.499e-4
-1.572, 2.561e-4
-1.573, 2.591e-4
-1.574, 2.653e-4
-1.575, 2.715e-4
-1.576, 2.746e-4
-1.577, 2.807e-4
-1.578, 2.869e-4
-1.579, 2.931e-4
-1.580, 2.961e-4
-1.581, 3.023e-4
-1.582, 3.085e-4
-1.583, 3.146e-4
-1.584, 3.208e-4
-1.585, 3.270e-4
-1.586, 3.331e-4
-1.587, 3.393e-4
-1.588, 3.455e-4
-1.589, 3.516e-4
-1.590, 3.609e-4
-1.591, 3.670e-4
-1.592, 3.732e-4
-1.593, 3.794e-4
-1.594, 3.886e-4
-1.595, 3.948e-4
-1.596, 4.040e-4
-1.597, 4.102e-4
-1.598, 4.195e-4
-1.599, 4.287e-4
-1.600, 4.349e-4
-1.601, 4.441e-4
-1.602, 4.534e-4
-1.603, 4.626e-4
-1.604, 4.719e-4
-1.605, 4.811e-4
-1.606, 4.904e-4
-1.607, 4.996e-4
-1.608, 5.089e-4
-1.609, 5.181e-4
-1.610, 5.274e-4
-1.611, 5.397e-4
-1.612, 5.489e-4
-1.613, 5.582e-4
-1.614, 5.705e-4
-1.615, 5.798e-4
-1.616, 5.921e-4
-1.617, 6.044e-4
-1.618, 6.168e-4
-1.619, 6.291e-4
-1.620, 6.414e-4
-1.621, 6.507e-4
-1.622, 6.661e-4
-1.623, 6.784e-4
-1.624, 6.908e-4
-1.625, 7.031e-4
-1.626, 7.185e-4
-1.627, 7.309e-4
-1.628, 7.432e-4
-1.629, 7.586e-4
-1.630, 7.709e-4
-1.631, 7.863e-4
-1.632, 8.018e-4
-1.633, 8.172e-4
-1.634, 8.326e-4
-1.635, 8.511e-4
-1.636, 8.665e-4
-1.637, 8.819e-4
-1.638, 9.004e-4
-1.639, 9.189e-4
-1.640, 9.343e-4
-1.641, 9.528e-4
-1.642, 9.713e-4
-1.643, 9.868e-4
-1.644, 1.005e-3
-1.645, 1.024e-3
-1.646, 1.042e-3
-1.647, 1.061e-3
-1.648, 1.079e-3
-1.649, 1.098e-3
-1.650, 1.119e-3
-1.651, 1.138e-3
-1.652, 1.159e-3
-1.653, 1.181e-3
-1.654, 1.203e-3
-1.655, 1.224e-3
-1.656, 1.246e-3
-1.657, 1.267e-3
-1.658, 1.292e-3
-1.659, 1.314e-3
-1.660, 1.338e-3
-1.661, 1.363e-3
-1.662, 1.384e-3
-1.663, 1.409e-3
-1.664, 1.431e-3
-1.665, 1.458e-3
-1.666, 1.480e-3
-1.667, 1.508e-3
-1.668, 1.532e-3
-1.669, 1.557e-3
-1.670, 1.585e-3
-1.671, 1.613e-3
-1.672, 1.640e-3
-1.673, 1.668e-3
-1.674, 1.699e-3
-1.675, 1.730e-3
-1.676, 1.758e-3
-1.677, 1.788e-3
-1.678, 1.819e-3
-1.679, 1.847e-3
-1.680, 1.878e-3
-1.681, 1.906e-3
-1.682, 1.933e-3
-1.683, 1.964e-3
-1.684, 1.998e-3
-1.685, 2.026e-3
-1.686, 2.060e-3
-1.687, 2.091e-3
-1.688, 2.121e-3
-1.689, 2.158e-3
-1.690, 2.192e-3
-1.691, 2.229e-3
-1.692, 2.266e-3
-1.693, 2.300e-3
-1.694, 2.337e-3
-1.695, 2.377e-3
-1.696, 2.417e-3
-1.697, 2.451e-3
-1.698, 2.488e-3
-1.699, 2.525e-3
-1.700, 2.562e-3
-1.701, 2.596e-3
-1.702, 2.636e-3
-1.703, 2.673e-3
-1.704, 2.710e-3
-1.705, 2.750e-3
-1.706, 2.787e-3
-1.707, 2.827e-3
-1.708, 2.867e-3
-1.709, 2.911e-3
-1.710, 2.957e-3
-1.711, 3.000e-3
-1.712, 3.046e-3
-1.713, 3.089e-3
-1.714, 3.133e-3
-1.715, 3.179e-3
-1.716, 3.222e-3
-1.717, 3.265e-3
-1.718, 3.305e-3
-1.719, 3.348e-3
-1.720, 3.392e-3
-1.721, 3.435e-3
-1.722, 3.478e-3
-1.723, 3.521e-3
-1.724, 3.564e-3
-1.725, 3.610e-3
-1.726, 3.660e-3
-1.727, 3.709e-3
-1.728, 3.758e-3
-1.729, 3.814e-3
-1.730, 3.863e-3
-1.731, 3.919e-3
-1.732, 3.971e-3
-1.733, 4.024e-3
-1.734, 4.073e-3
-1.735, 4.119e-3
-1.736, 4.169e-3
-1.737, 4.215e-3
-1.738, 4.261e-3
-1.739, 4.310e-3
-1.740, 4.360e-3
-1.741, 4.409e-3
-1.742, 4.458e-3
-1.743, 4.511e-3
-1.744, 4.563e-3
-1.745, 4.619e-3
-1.746, 4.677e-3
-1.747, 4.739e-3
-1.748, 4.801e-3
-1.749, 4.856e-3
-1.750, 4.918e-3
-1.751, 4.976e-3
-1.752, 5.035e-3
-1.753, 5.090e-3
-1.754, 5.143e-3
-1.755, 5.195e-3
-1.756, 5.245e-3
-1.757, 5.297e-3
-1.758, 5.352e-3
-1.759, 5.408e-3
-1.760, 5.463e-3
-1.761, 5.516e-3
-1.762, 5.574e-3
-1.763, 5.636e-3
-1.764, 5.701e-3
-1.765, 5.769e-3
-1.766, 5.836e-3
-1.767, 5.904e-3
-1.768, 5.969e-3
-1.769, 6.034e-3
-1.770, 6.099e-3
-1.771, 6.163e-3
-1.772, 6.222e-3
-1.773, 6.277e-3
-1.774, 6.330e-3
-1.775, 6.388e-3
-1.776, 6.447e-3
-1.777, 6.506e-3
-1.778, 6.564e-3
-1.779, 6.623e-3
-1.780, 6.684e-3
-1.781, 6.749e-3
-1.782, 6.817e-3
-1.783, 6.891e-3
-1.784, 6.965e-3
-1.785, 7.042e-3
-1.786, 7.116e-3
-1.787, 7.190e-3
-1.788, 7.264e-3
-1.789, 7.332e-3
-1.790, 7.400e-3
-1.791, 7.458e-3
-1.792, 7.517e-3
-1.793, 7.572e-3
-1.794, 7.634e-3
-1.795, 7.696e-3
-1.796, 7.760e-3
-1.797, 7.822e-3
-1.798, 7.884e-3
-1.799, 7.951e-3
-1.800, 7.992e-3
-1.799, 7.967e-3
-1.798, 7.945e-3
-1.797, 7.921e-3
-1.796, 7.896e-3
-1.795, 7.865e-3
-1.794, 7.831e-3
-1.793, 7.794e-3
-1.792, 7.751e-3
-1.791, 7.702e-3
-1.790, 7.649e-3
-1.789, 7.597e-3
-1.788, 7.541e-3
-1.787, 7.492e-3
-1.786, 7.443e-3
-1.785, 7.390e-3
-1.784, 7.338e-3
-1.783, 7.289e-3
-1.782, 7.242e-3
-1.781, 7.202e-3
-1.780, 7.165e-3
-1.779, 7.128e-3
-1.778, 7.091e-3
-1.777, 7.051e-3
-1.776, 7.011e-3
-1.775, 6.968e-3
-1.774, 6.925e-3
-1.773, 6.872e-3
-1.772, 6.817e-3
-1.771, 6.761e-3
-1.770, 6.706e-3
-1.769, 6.650e-3
-1.768, 6.598e-3
-1.767, 6.546e-3
-1.766, 6.490e-3
-1.765, 6.441e-3
-1.764, 6.391e-3
-1.763, 6.345e-3
-1.762, 6.305e-3
-1.761, 6.265e-3
-1.760, 6.228e-3
-1.759, 6.185e-3
-1.758, 6.142e-3
-1.757, 6.099e-3
-1.756, 6.055e-3
-1.755, 6.006e-3
-1.754, 5.957e-3
-1.753, 5.901e-3
-1.752, 5.849e-3
-1.751, 5.793e-3
-1.750, 5.744e-3
-1.749, 5.695e-3
-1.748, 5.645e-3
-1.747, 5.593e-3
-1.746, 5.544e-3
-1.745, 5.497e-3
-1.744, 5.457e-3
-1.743, 5.417e-3
-1.742, 5.380e-3
-1.741, 5.340e-3
-1.740, 5.300e-3
-1.739, 5.257e-3
-1.738, 5.214e-3
-1.737, 5.171e-3
-1.736, 5.124e-3
-1.735, 5.075e-3
-1.734, 5.026e-3
-1.733, 4.973e-3
-1.732, 4.927e-3
-1.731, 4.881e-3
-1.730, 4.834e-3
-1.729, 4.785e-3
-1.728, 4.739e-3
-1.727, 4.696e-3
-1.726, 4.653e-3
-1.725, 4.612e-3
-1.724, 4.575e-3
-1.723, 4.538e-3
-1.722, 4.501e-3
-1.721, 4.461e-3
-1.720, 4.421e-3
-1.719, 4.378e-3
-1.718, 4.341e-3
-1.717, 4.295e-3
-1.716, 4.249e-3
-1.715, 4.206e-3
-1.714, 4.162e-3
-1.713, 4.116e-3
-1.712, 4.073e-3
-1.711, 4.033e-3
-1.710, 3.990e-3
-1.709, 3.947e-3
-1.708, 3.910e-3
-1.707, 3.869e-3
-1.706, 3.836e-3
-1.705, 3.799e-3
-1.704, 3.765e-3
-1.703, 3.728e-3
-1.702, 3.691e-3
-1.701, 3.657e-3
-1.700, 3.617e-3
-1.699, 3.580e-3
-1.698, 3.536e-3
-1.697, 3.496e-3
-1.696, 3.456e-3
-1.695, 3.419e-3
-1.694, 3.382e-3
-1.693, 3.342e-3
-1.692, 3.302e-3
-1.691, 3.265e-3
-1.690, 3.231e-3
-1.689, 3.194e-3
-1.688, 3.160e-3
-1.687, 3.130e-3
-1.686, 3.096e-3
-1.685, 3.065e-3
-1.684, 3.031e-3
-1.683, 2.997e-3
-1.682, 2.966e-3
-1.681, 2.932e-3
-1.680, 2.898e-3
-1.679, 2.861e-3
-1.678, 2.827e-3
-1.677, 2.790e-3
-1.676, 2.760e-3
-1.675, 2.726e-3
-1.674, 2.692e-3
-1.673, 2.661e-3
-1.672, 2.627e-3
-1.671, 2.596e-3
-1.670, 2.565e-3
-1.669, 2.538e-3
-1.668, 2.513e-3
-1.667, 2.482e-3
-1.666, 2.457e-3
-1.665, 2.427e-3
-1.664, 2.399e-3
-1.663, 2.368e-3
-1.662, 2.340e-3
-1.661, 2.309e-3
-1.660, 2.279e-3
-1.659, 2.248e-3
-1.658, 2.217e-3
-1.657, 2.189e-3
-1.656, 2.161e-3
-1.655, 2.134e-3
-1.654, 2.106e-3
-1.653, 2.078e-3
-1.652, 2.054e-3
-1.651, 2.029e-3
-1.650, 2.004e-3
-1.649, 1.980e-3
-1.648, 1.955e-3
-1.647, 1.930e-3
-1.646, 1.906e-3
-1.645, 1.878e-3
-1.644, 1.853e-3
-1.643, 1.828e-3
-1.642, 1.804e-3
-1.641, 1.779e-3
-1.640, 1.754e-3
-1.639, 1.730e-3
-1.638, 1.705e-3
-1.637, 1.680e-3
-1.636, 1.659e-3
-1.635, 1.634e-3
-1.634, 1.613e-3
-1.633, 1.591e-3
-1.632, 1.569e-3
-1.631, 1.548e-3
-1.630, 1.529e-3
-1.629, 1.508e-3
-1.628, 1.486e-3
-1.627, 1.465e-3
-1.626, 1.446e-3
-1.625, 1.425e-3
-1.624, 1.403e-3
-1.623, 1.381e-3
-1.622, 1.363e-3
-1.621, 1.344e-3
-1.620, 1.323e-3
-1.619, 1.304e-3
-1.618, 1.283e-3
-1.617, 1.264e-3
-1.616, 1.246e-3
-1.615, 1.230e-3
-1.614, 1.212e-3
-1.613, 1.193e-3
-1.612, 1.178e-3
-1.611, 1.162e-3
-1.610, 1.144e-3
-1.609, 1.129e-3
-1.608, 1.110e-3
-1.607, 1.095e-3
-1.606, 1.076e-3
-1.605, 1.061e-3
-1.604, 1.042e-3
-1.603, 1.027e-3
-1.602, 1.014e-3
-1.601, 9.960e-4
-1.600, 9.806e-4
-1.599, 9.652e-4
-1.598, 9.498e-4
-1.597, 9.374e-4
-1.596, 9.220e-4
-1.595, 9.066e-4
-1.594, 8.943e-4
-1.593, 8.788e-4
-1.592, 8.665e-4
-1.591, 8.542e-4
-1.590, 8.388e-4
-1.589, 8.264e-4
-1.588, 8.141e-4
-1.587, 7.987e-4
-1.586, 7.863e-4
-1.585, 7.740e-4
-1.584, 7.617e-4
-1.583, 7.494e-4
-1.582, 7.370e-4
-1.581, 7.247e-4
-1.580, 7.124e-4
-1.579, 7.000e-4
-1.578, 6.908e-4
-1.577, 6.784e-4
-1.576, 6.661e-4
-1.575, 6.569e-4
-1.574, 6.476e-4
-1.573, 6.353e-4
-1.572, 6.260e-4
-1.571, 6.168e-4
-1.570, 6.044e-4
-1.569, 5.952e-4
-1.568, 5.859e-4
-1.567, 5.736e-4
-1.566, 5.644e-4
-1.565, 5.551e-4
-1.564, 5.459e-4
-1.563, 5.366e-4
-1.562, 5.274e-4
-1.561, 5.181e-4
-1.560, 5.089e-4
-1.559, 4.996e-4
-1.558, 4.935e-4
-1.557, 4.842e-4
-1.556, 4.750e-4
-1.555, 4.688e-4
-1.554, 4.595e-4
-1.553, 4.503e-4
-1.552, 4.441e-4
-1.551, 4.349e-4
-1.550, 4.287e-4
-1.549, 4.195e-4
-1.548, 4.133e-4
-1.547, 4.040e-4
-1.546, 3.979e-4
-1.545, 3.917e-4
-1.544, 3.825e-4
-1.543, 3.763e-4
-1.542, 3.701e-4
-1.541, 3.640e-4
-1.540, 3.578e-4
-1.539, 3.516e-4
-1.538, 3.455e-4
-1.537, 3.393e-4
-1.536, 3.331e-4
-1.535, 3.239e-4
-1.534, 3.208e-4
-1.533, 3.146e-4
-1.532, 3.085e-4
-1.531, 3.023e-4
-1.530, 2.961e-4
-1.529, 2.931e-4
-1.528, 2.869e-4
-1.527, 2.807e-4
-1.526, 2.746e-4
-1.525, 2.684e-4
-1.524, 2.653e-4
-1.523, 2.591e-4
-1.522, 2.561e-4
-1.521, 2.499e-4
-1.520, 2.468e-4
-1.519, 2.406e-4
-1.518, 2.376e-4
-1.517, 2.345e-4
-1.516, 2.283e-4
-1.515, 2.221e-4
-1.514, 2.191e-4
-1.513, 2.160e-4
-1.512, 2.098e-4
-1.511, 2.067e-4
-1.510, 2.036e-4
-1.509, 1.975e-4
-1.508, 1.944e-4
-1.507, 1.913e-4
-1.506, 1.882e-4
-1.505, 1.821e-4
-1.504, 1.790e-4
-1.503, 1.759e-4
-1.502, 1.728e-4
-1.501, 1.697e-4
-1.500, 1.666e-4
-1.499, 1.636e-4
-1.498, 1.605e-4
-1.497, 1.574e-4
-1.496, 1.512e-4
-1.495, 1.481e-4
-1.494, 1.481e-4
-1.493, 1.451e-4
-1.492, 1.389e-4
-1.491, 1.389e-4
-1.490, 1.358e-4
-1.489, 1.327e-4
-1.488, 1.296e-4
-1.487, 1.266e-4
-1.486, 1.235e-4
-1.485, 1.204e-4
-1.484, 1.204e-4
-1.483, 1.173e-4
-1.482, 1.142e-4
-1.481, 1.111e-4
-1.480, 1.081e-4
-1.479, 1.050e-4
-1.478, 1.050e-4
-1.477, 1.019e-4
-1.476, 9.882e-5
-1.475, 9.882e-5
-1.474, 9.573e-5
-1.473, 9.265e-5
-1.472, 9.265e-5
-1.471, 8.957e-5
-1.470, 8.648e-5
-1.469, 8.648e-5
-1.468, 8.340e-5
-1.467, 8.032e-5
-1.466, 8.032e-5
-1.465, 8.032e-5
-1.464, 7.723e-5
-1.463, 7.415e-5
-1.462, 7.415e-5
-1.461, 7.107e-5
-1.460, 7.107e-5
-1.459, 6.798e-5
-1.458, 6.798e-5
-1.457, 6.490e-5
-1.456, 6.490e-5
-1.455, 6.182e-5
-1.454, 6.182e-5
-1.453, 5.873e-5
-1.452, 5.873e-5
-1.451, 5.873e-5
-1.450, 5.257e-5
-1.449, 5.257e-5
-1.448, 5.257e-5
-1.447, 4.949e-5
-1.446, 4.949e-5
-1.445, 4.949e-5
-1.444, 4.949e-5
-1.443, 4.640e-5
-1.442, 4.640e-5
-1.441, 4.332e-5
-1.440, 4.024e-5
-1.439, 4.024e-5
-1.438, 4.024e-5
-1.437, 4.024e-5
-1.436, 3.715e-5
-1.435, 3.715e-5
-1.434, 3.715e-5
-1.433, 3.407e-5
-1.432, 3.407e-5
-1.431, 3.407e-5
-1.430, 3.099e-5
-1.429, 3.099e-5
-1.428, 2.790e-5
-1.427, 2.790e-5
-1.426, 2.790e-5
-1.425, 2.790e-5
-1.424, 2.482e-5
-1.423, 2.482e-5
-1.422, 2.482e-5
-1.421, 2.482e-5
-1.420, 2.174e-5
-1.419, 2.174e-5
-1.418, 2.174e-5
-1.417, 2.174e-5
-1.416, 2.174e-5
-1.415, 1.865e-5
-1.414, 1.865e-5
-1.413, 1.865e-5
-1.412, 1.557e-5
-1.411, 1.865e-5
-1.410, 1.557e-5
-1.409, 1.557e-5
-1.408, 1.557e-5
-1.407, 1.249e-5
-1.406, 1.249e-5
-1.405, 1.249e-5
-1.404, 1.249e-5
-1.403, 1.249e-5
-1.402, 1.249e-5
-1.401, 9.405e-6
-1.400, 9.405e-6
-1.399, 9.405e-6
-1.398, 9.405e-6
-1.397, 9.405e-6
-1.396, 6.322e-6
-1.395, 9.405e-6
-1.394, 6.322e-6
-1.393, 6.322e-6
-1.392, 6.322e-6
-1.391, 6.322e-6
-1.390, 6.322e-6
-1.389, 6.322e-6
-1.388, 6.322e-6
-1.387, 3.239e-6
-1.386, 3.239e-6
-1.385, 3.239e-6
-1.384, 3.239e-6
-1.383, 3.239e-6
-1.382, 3.239e-6
-1.381, 3.239e-6
-1.380, 3.239e-6
-1.379, 1.559e-7
-1.378, 1.559e-7
-1.377, 1.559e-7
-1.376, 1.559e-7
-1.375, 1.559e-7
-1.374, 1.559e-7
-1.373, 1.559e-7
-1.372, -2.927e-6
-1.371, -2.927e-6
-1.370, -2.927e-6
-1.369, -2.927e-6
-1.368, -2.927e-6
-1.367, -2.927e-6
-1.366, -2.927e-6
-1.365, -2.927e-6
-1.364, -2.927e-6
-1.363, -2.927e-6
-1.362, -2.927e-6
-1.361, -2.927e-6
-1.360, -6.010e-6
-1.359, -6.010e-6
-1.358, -6.010e-6
-1.357, -6.010e-6
-1.356, -6.010e-6
-1.355, -6.010e-6
-1.354, -6.010e-6
-1.353, -6.010e-6
-1.352, -6.010e-6
-1.351, -6.010e-6
-1.350, -6.010e-6
-1.349, -6.010e-6
-1.348, -6.010e-6
-1.347, -6.010e-6
-1.346, -9.093e-6
-1.345, -6.010e-6
-1.344, -9.093e-6
-1.343, -9.093e-6
-1.342, -9.093e-6
-1.341, -6.010e-6
-1.340, -6.010e-6
-1.339, -6.010e-6
-1.338, -6.010e-6
-1.337, -9.093e-6
-1.336, -9.093e-6
-1.335, -9.093e-6
-1.334, -9.093e-6
-1.333, -9.093e-6
-1.332, -9.093e-6
-1.331, -9.093e-6
-1.330, -9.093e-6
-1.329, -9.093e-6
-1.328, -9.093e-6
-1.327, -9.093e-6
-1.326, -9.093e-6
-1.325, -9.093e-6
-1.324, -9.093e-6
-1.323, -9.093e-6
-1.322, -9.093e-6
-1.321, -9.093e-6
-1.320, -1.218e-5
-1.319, -9.093e-6
-1.318, -9.093e-6
-1.317, -9.093e-6
-1.316, -1.218e-5
-1.315, -9.093e-6
-1.314, -9.093e-6
-1.313, -1.218e-5
-1.312, -1.218e-5
-1.311, -1.218e-5
-1.310, -1.218e-5
-1.309, -1.218e-5
-1.308, -1.218e-5
-1.307, -9.093e-6
-1.306, -1.218e-5
-1.305, -9.093e-6
-1.304, -1.218e-5
-1.303, -1.218e-5
-1.302, -1.218e-5
-1.301, -1.218e-5
-1.300, -9.093e-6
-1.299, -1.218e-5
-1.298, -1.218e-5
-1.297, -1.218e-5
-1.296, -1.218e-5
-1.295, -1.218e-5
-1.294, -1.218e-5
-1.293, -1.218e-5
-1.292, -1.218e-5
-1.291, -1.218e-5
-1.290, -1.218e-5
-1.289, -1.218e-5
-1.288, -1.218e-5
-1.287, -1.218e-5
-1.286, -1.218e-5
-1.285, -1.218e-5
-1.284, -1.218e-5
-1.283, -1.218e-5
-1.282, -1.218e-5
-1.281, -1.218e-5
-1.280, -1.218e-5
-1.279, -1.218e-5
-1.278, -1.218e-5
-1.277, -1.218e-5
-1.276, -1.218e-5
-1.275, -1.218e-5
-1.274, -1.218e-5
-1.273, -1.218e-5
-1.272, -1.218e-5
-1.271, -1.218e-5
-1.270, -1.218e-5
-1.269, -1.218e-5
-1.268, -1.218e-5
-1.267, -1.218e-5
-1.266, -1.218e-5
-1.265, -1.218e-5
-1.264, -1.218e-5
-1.263, -1.218e-5
-1.262, -1.218e-5
-1.261, -1.218e-5
-1.260, -1.218e-5
-1.259, -1.218e-5
-1.258, -1.218e-5
-1.257, -1.218e-5
-1.256, -1.218e-5
-1.255, -1.218e-5
-1.254, -1.218e-5
-1.253, -1.218e-5
-1.252, -1.218e-5
-1.251, -1.218e-5
-1.250, -1.218e-5
-1.249, -1.218e-5
-1.248, -1.218e-5
-1.247, -1.218e-5
-1.246, -1.218e-5
-1.245, -1.218e-5
-1.244, -1.218e-5
-1.243, -1.218e-5
-1.242, -1.218e-5
-1.241, -1.218e-5
-1.240, -1.218e-5
-1.239, -1.218e-5
-1.238, -1.218e-5
-1.237, -1.218e-5
-1.236, -1.218e-5
-1.235, -1.218e-5
-1.234, -1.218e-5
-1.233, -1.218e-5
-1.232, -1.218e-5
-1.231, -1.218e-5
-1.230, -1.218e-5
-1.229, -1.218e-5
-1.228, -1.218e-5
-1.227, -1.218e-5
-1.226, -1.218e-5
-1.225, -1.218e-5
-1.224, -1.218e-5
-1.223, -1.218e-5
-1.222, -1.218e-5
-1.221, -1.218e-5
-1.220, -1.218e-5
-1.219, -1.218e-5
-1.218, -1.218e-5
-1.217, -1.218e-5
-1.216, -1.218e-5
-1.215, -1.218e-5
-1.214, -1.218e-5
-1.213, -1.218e-5
-1.212, -1.218e-5
-1.211, -1.218e-5
-1.210, -1.218e-5
-1.209, -1.218e-5
-1.208, -1.218e-5
-1.207, -1.218e-5
-1.206, -1.218e-5
-1.205, -1.218e-5
-1.204, -1.218e-5
-1.203, -1.218e-5
-1.202, -1.218e-5
-1.201, -1.218e-5
-1.200, -1.218e-5
-1.199, -1.218e-5
-1.198, -1.218e-5
-1.197, -1.218e-5
-1.196, -1.526e-5
-1.195, -1.526e-5
-1.194, -1.218e-5
-1.193, -1.218e-5
-1.192, -1.218e-5
-1.191, -1.218e-5
-1.190, -1.218e-5
-1.189, -1.218e-5
-1.188, -1.218e-5
-1.187, -1.218e-5
-1.186, -1.218e-5
-1.185, -1.218e-5
-1.184, -1.218e-5
-1.183, -1.218e-5
-1.182, -1.218e-5
-1.181, -1.218e-5
-1.180, -1.218e-5
-1.179, -1.218e-5
-1.178, -1.218e-5
-1.177, -1.526e-5
-1.176, -1.526e-5
-1.175, -1.218e-5
-1.174, -1.218e-5
-1.173, -1.526e-5
-1.172, -1.526e-5
-1.171, -1.218e-5
-1.170, -1.218e-5
-1.169, -1.526e-5
-1.168, -1.218e-5
-1.167, -1.526e-5
-1.166, -1.218e-5
-1.165, -1.526e-5
-1.164, -1.218e-5
-1.163, -1.526e-5
-1.162, -1.526e-5
-1.161, -1.218e-5
-1.160, -1.526e-5
-1.159, -1.218e-5
-1.158, -1.218e-5
-1.157, -1.218e-5
-1.156, -1.218e-5
-1.155, -1.218e-5
-1.154, -1.218e-5
-1.153, -1.218e-5
-1.152, -1.218e-5
-1.151, -1.218e-5
-1.150, -1.218e-5
-1.149, -1.218e-5
-1.148, -1.218e-5
-1.147, -1.218e-5
-1.146, -1.526e-5
-1.145, -1.526e-5
-1.144, -1.218e-5
-1.143, -1.526e-5
-1.142, -1.526e-5
-1.141, -1.526e-5
-1.140, -1.218e-5
-1.139, -1.526e-5
-1.138, -1.218e-5
-1.137, -1.218e-5
-1.136, -1.526e-5
-1.135, -1.218e-5
-1.134, -1.526e-5
-1.133, -1.526e-5
-1.132, -1.526e-5
-1.131, -1.218e-5
-1.130, -1.218e-5
-1.129, -1.526e-5
-1.128, -1.218e-5
-1.127, -1.526e-5
-1.126, -1.526e-5
-1.125, -1.218e-5
-1.124, -1.526e-5
-1.123, -1.218e-5
-1.122, -1.218e-5
-1.121, -1.526e-5
-1.120, -1.526e-5
-1.119, -1.218e-5
-1.118, -1.218e-5
-1.117, -1.526e-5
-1.116, -1.526e-5
-1.115, -1.218e-5
-1.114, -1.218e-5
-1.113, -1.526e-5
-1.112, -1.526e-5
-1.111, -1.218e-5
-1.110, -1.218e-5
-1.109, -1.526e-5
-1.108, -1.218e-5
-1.107, -1.526e-5
-1.106, -1.526e-5
-1.105, -1.526e-5
-1.104, -1.526e-5
-1.103, -1.526e-5
-1.102, -1.218e-5
-1.101, -1.526e-5
-1.100, -1.526e-5
-1.099, -1.526e-5
-1.098, -1.526e-5
-1.097, -1.218e-5
-1.096, -1.526e-5
-1.095, -1.218e-5
-1.094, -1.526e-5
-1.093, -1.526e-5
-1.092, -1.526e-5
-1.091, -1.218e-5
-1.090, -1.218e-5
-1.089, -1.526e-5
-1.088, -1.218e-5
-1.087, -1.526e-5
-1.086, -1.526e-5
-1.085, -1.526e-5
-1.084, -1.218e-5
-1.083, -1.526e-5
-1.082, -1.218e-5
-1.081, -1.526e-5
-1.080, -1.526e-5
-1.079, -1.218e-5
-1.078, -1.526e-5
-1.077, -1.526e-5
-1.076, -1.526e-5
-1.075, -1.526e-5
-1.074, -1.526e-5
-1.073, -1.526e-5
-1.072, -1.526e-5
-1.071, -1.526e-5
-1.070, -1.526e-5
-1.069, -1.526e-5
-1.068, -1.526e-5
-1.067, -1.526e-5
-1.066, -1.526e-5
-1.065, -1.526e-5
-1.064, -1.218e-5
-1.063, -1.526e-5
-1.062, -1.218e-5
-1.061, -1.526e-5
-1.060, -1.526e-5
-1.059, -1.526e-5
-1.058, -1.526e-5
-1.057, -1.218e-5
-1.056, -1.526e-5
-1.055, -1.218e-5
-1.054, -1.526e-5
-1.053, -1.526e-5
-1.052, -1.526e-5
-1.051, -1.526e-5
-1.050, -1.526e-5
-1.049, -1.526e-5
-1.048, -1.526e-5
-1.047, -1.526e-5
-1.046, -1.526e-5
-1.045, -1.526e-5
-1.044, -1.526e-5
-1.043, -1.526e-5
-1.042, -1.526e-5
-1.041, -1.526e-5
-1.040, -1.526e-5
-1.039, -1.526e-5
-1.038, -1.526e-5
-1.037, -1.526e-5
-1.036, -1.526e-5
-1.035, -1.526e-5
-1.034, -1.526e-5
-1.033, -1.526e-5
-1.032, -1.526e-5
-1.031, -1.526e-5
-1.030, -1.526e-5
-1.029, -1.526e-5
-1.028, -1.526e-5
-1.027, -1.526e-5
-1.026, -1.526e-5
-1.025, -1.526e-5
-1.024, -1.526e-5
-1.023, -1.526e-5
-1.022, -1.526e-5
-1.021, -1.526e-5
-1.020, -1.526e-5
-1.019, -1.526e-5
-1.018, -1.526e-5
-1.017, -1.526e-5
-1.016, -1.526e-5
-1.015, -1.526e-5
-1.014, -1.526e-5
-1.013, -1.526e-5
-1.012, -1.526e-5
-1.011, -1.526e-5
-1.010, -1.526e-5
-1.009, -1.834e-5
-1.008, -1.526e-5
-1.007, -1.526e-5
-1.006, -1.526e-5
-1.005, -1.526e-5
-1.004, -1.526e-5
-1.003, -1.526e-5
-1.002, -1.526e-5
-1.001, -1.526e-5
