Potential V vs RHE, Current mA cm-2
0.013299999999999867,0.17231183632356148
0.012299999999999978,-1.4854468648582886
0.011299999999999866,-2.968064307116847
0.010299999999999976,-4.3205283097878215
0.009299999999999864,-5.585280211867165
0.008299999999999974,-6.762320013354876
0.007299999999999862,-7.853062425550818
0.006299999999999972,-8.899948787450944
0.00529999999999986,-9.85912304875944
0.0042999999999999705,-10.775855971071984
0.0032999999999998586,-11.647318131788847
0.0022999999999999687,-12.476338953509758
0.0012999999999998568,-13.261503724934855
0.00029999999999996696,-14.046668496359947
-0.000700000000000145,-14.783733083589633
-0.0017000000000000348,-15.491088733522153
-0.0027000000000001467,-16.099414592464115
-0.0037000000000000366,-16.70774045140608
-0.0047000000000001485,-17.231183632356142
-0.005700000000000038,-17.797068152302163
-0.00670000000000015,-18.362952672248177
-0.00770000000000004,-18.88639585319824
-0.008700000000000152,-19.452280373144255
-0.009700000000000042,-19.97572355409432
-0.010700000000000154,-20.414284057052477
-0.011700000000000044,-20.89528589900659
-0.012700000000000156,-21.291405062968803
-0.013700000000000045,-21.67337711393236
-0.014700000000000157,-22.027054938898623
-0.015700000000000047,-22.42317410286083
-0.01670000000000016,-22.861734605818995
-0.01770000000000005,-23.300295108777156
-0.01870000000000016,-23.682267159740714
-0.01970000000000005,-24.120827662698876
-0.020700000000000163,-24.559388165657033
-0.021700000000000053,-24.997948668615198
-0.022700000000000164,-25.295038041586857
-0.023700000000000054,-25.60627452755716
-0.024700000000000166,-25.86092256153287
-0.025700000000000056,-26.087276369511276
-0.026700000000000168,-26.34192440348698
-0.027700000000000058,-26.69560222845324
-0.02870000000000017,-27.049280053419505
-0.02970000000000006,-27.43125210438306
-0.03070000000000017,-27.827371268345274
-0.03170000000000006,-28.18104909331153
-0.03270000000000017,-28.53472691827779
-0.03370000000000006,-28.831816291249446
-0.034700000000000175,-29.14305277721976
-0.035700000000000065,-29.39770081119546
-0.03670000000000018,-29.66649595816982
-0.03770000000000007,-29.921143992145527
-0.03870000000000018,-30.232380478115836
-0.03970000000000007,-30.444587173095588
-0.04070000000000018,-30.71338232006995
-0.04170000000000007,-30.968030354045652
-0.04270000000000018,-31.19438416202406
-0.04370000000000007,-31.40659085700382
-0.044700000000000184,-31.533914873991666
-0.045700000000000074,-31.661238890979522
-0.046700000000000186,-31.76026868197007
-0.047700000000000076,-31.802710020966025
-0.04870000000000019,-31.887592698957924
-0.04970000000000008,-31.887592698957924
-0.05070000000000019,-31.84515135996197
-0.05170000000000008,-31.802710020966025
-0.05270000000000019,-31.661238890979522
-0.05370000000000008,-31.618797551983565
-0.05470000000000019,-31.618797551983565
-0.05570000000000008,-31.618797551983565
-0.056700000000000195,-31.717827342974125
-0.057700000000000085,-31.887592698957924
-0.058700000000000196,-32.09979939393769
-0.059700000000000086,-32.41103587990799
-0.0607000000000002,-32.764713704874254
-0.06170000000000009,-33.06180307784591
-0.0627000000000002,-33.330598224820264
-0.06370000000000009,-33.50036358080407
-0.0647000000000002,-33.627687597791926
-0.06570000000000009,-33.627687597791926
-0.0667000000000002,-33.54280491980002
-0.0677000000000001,-33.50036358080407
-0.0687000000000002,-33.41548090281216
-0.0697000000000001,-33.330598224820264
-0.07070000000000021,-33.330598224820264
-0.0717000000000001,-33.373039563816214
-0.07270000000000021,-33.50036358080407
-0.0737000000000001,-33.712570275783825
-0.07470000000000021,-33.98136542275818
-0.0757000000000001,-34.278454795729836
-0.07670000000000021,-34.5472499427042
-0.0777000000000001,-34.85848642867451
-0.07870000000000021,-35.07069312365426
-0.0797000000000001,-35.240458479638065
-0.08070000000000022,-35.282899818634014
-0.0817000000000001,-35.282899818634014
-0.08270000000000022,-35.15557580164616
-0.08370000000000011,-35.11313446265021
-0.08470000000000022,-34.98581044566235
-0.08570000000000011,-34.90092776767045
-0.08670000000000022,-34.85848642867451
-0.08770000000000011,-34.8018979766799
-0.08870000000000022,-34.75945663768395
-0.08970000000000011,-34.8018979766799
-0.09070000000000022,-34.85848642867451
-0.09170000000000011,-34.90092776767045
-0.09270000000000023,-34.90092776767045
-0.09370000000000012,-34.90092776767045
-0.09470000000000023,-34.8018979766799
-0.09570000000000012,-34.67457395969205
-0.09670000000000023,-34.58969128170015
-0.09770000000000012,-34.5472499427042
-0.09870000000000023,-34.462367264712285
-0.09970000000000012,-34.377484586720385
-0.10070000000000023,-34.278454795729836
-0.10170000000000012,-34.236013456733886
-0.10270000000000024,-34.10868943974604
-0.10370000000000013,-34.06624810075008
-0.10470000000000024,-34.02380676175414
-0.10570000000000013,-34.02380676175414
-0.10670000000000024,-34.02380676175414
-0.10770000000000013,-34.06624810075008
-0.10870000000000024,-34.10868943974604
-0.10970000000000013,-34.10868943974604
-0.11070000000000024,-34.06624810075008
-0.11170000000000013,-33.98136542275818
-0.11270000000000002,-33.85404140577033
-0.11370000000000013,-33.670128936787876
-0.11470000000000002,-33.50036358080407
-0.11570000000000014,-33.373039563816214
-0.11670000000000003,-33.288156885824314
-0.11770000000000014,-33.231568433829715
-0.11870000000000003,-33.231568433829715
-0.11970000000000014,-33.18912709483376
-0.12070000000000003,-33.231568433829715
-0.12170000000000014,-33.18912709483376
-0.12270000000000003,-33.14668575583781
-0.12370000000000014,-33.06180307784591
-0.12470000000000003,-32.93447906085806
-0.12570000000000014,-32.84959638286615
-0.12670000000000003,-32.70812525287965
-0.12770000000000015,-32.62324257488775
-0.12870000000000004,-32.53835989689585
-0.12970000000000015,-32.45347721890394
-0.13070000000000004,-32.32615320191609
-0.13170000000000015,-32.24127052392419
-0.13270000000000004,-32.14224073293363
-0.13370000000000015,-32.01491671594578
-0.13470000000000004,-31.930034037953877
-0.13570000000000015,-31.802710020966025
-0.13670000000000004,-31.717827342974125
-0.13770000000000016,-31.661238890979522
-0.13870000000000005,-31.57635621298762
-0.13970000000000016,-31.57635621298762
-0.14070000000000005,-31.49147353499572
-0.14170000000000016,-31.36414951800786
-0.14270000000000005,-31.27926684001596
-0.14370000000000016,-31.095354371033505
-0.14470000000000005,-30.968030354045652
-0.14570000000000016,-30.88314767605375
-0.14670000000000005,-30.8407063370578
-0.14770000000000016,-30.8407063370578
-0.14870000000000005,-30.88314767605375
-0.14970000000000017,-30.925589015049702
-0.15070000000000006,-30.968030354045652
-0.15170000000000017,-31.010471693041605
-0.15270000000000006,-31.010471693041605
-0.15370000000000017,-30.968030354045652
-0.15470000000000006,-30.925589015049702
-0.15570000000000017,-30.88314767605375
-0.15670000000000006,-30.88314767605375
-0.15770000000000017,-30.88314767605375
-0.15870000000000006,-30.88314767605375
-0.15970000000000018,-30.925589015049702
-0.16070000000000007,-30.925589015049702
-0.16170000000000018,-30.925589015049702
-0.16270000000000007,-30.88314767605375
-0.16370000000000018,-30.79826499806185
-0.16470000000000007,-30.71338232006995
-0.16570000000000018,-30.614352529079397
-0.16670000000000007,-30.529469851087494
-0.16770000000000018,-30.487028512091538
-0.16870000000000007,-30.444587173095588
-0.16970000000000018,-30.402145834099635
-0.17070000000000007,-30.359704495103685
-0.17170000000000019,-30.317263156107735
-0.17270000000000008,-30.232380478115836
-0.1737000000000002,-30.189939139119886
-0.17470000000000008,-30.10505646112798
-0.1757000000000002,-30.00602667013743
-0.17670000000000008,-29.96358533114148
-0.1777000000000002,-29.96358533114148
-0.17870000000000008,-29.921143992145527
-0.1797000000000002,-29.96358533114148
-0.18070000000000008,-29.921143992145527
-0.1817000000000002,-29.878702653149578
-0.18270000000000008,-29.836261314153624
-0.1837000000000002,-29.751378636161718
-0.1847000000000001,-29.66649595816982
-0.1857000000000002,-29.581613280177915
-0.1867000000000001,-29.525024828183312
-0.1877000000000002,-29.482583489187363
-0.1887000000000001,-29.482583489187363
-0.1897000000000002,-29.482583489187363
-0.1907000000000001,-29.482583489187363
-0.1917000000000001,-29.440142150191413
-0.19269999999999998,-29.39770081119546
-0.1937000000000001,-29.31281813320356
-0.19469999999999998,-29.22793545521166
-0.1957000000000001,-29.14305277721976
-0.19669999999999999,-29.100611438223805
-0.1977000000000001,-29.058170099227848
-0.1987,-29.058170099227848
-0.1997000000000001,-29.058170099227848
-0.2007,-29.058170099227848
-0.2017000000000001,-29.058170099227848
-0.2027,-29.001581647233255
-0.2037000000000001,-28.959140308237306
-0.2047,-28.8742576302454
-0.2057000000000001,-28.8742576302454
-0.2067,-28.831816291249446
-0.2077000000000001,-28.789374952253496
-0.2087,-28.789374952253496
-0.2097000000000001,-28.789374952253496
-0.2107,-28.789374952253496
-0.2117000000000001,-28.789374952253496
-0.2127,-28.746933613257543
-0.2137000000000001,-28.789374952253496
-0.2147,-28.746933613257543
-0.2157000000000001,-28.746933613257543
-0.2167,-28.746933613257543
-0.21770000000000012,-28.746933613257543
-0.2187,-28.746933613257543
-0.21970000000000012,-28.746933613257543
-0.2207,-28.704492274261593
-0.22170000000000012,-28.662050935265643
-0.2227,-28.662050935265643
-0.22370000000000012,-28.577168257273744
-0.2247,-28.577168257273744
-0.22570000000000012,-28.53472691827779
-0.2267,-28.53472691827779
-0.22770000000000012,-28.53472691827779
-0.22870000000000001,-28.53472691827779
-0.22970000000000013,-28.577168257273744
-0.23070000000000002,-28.53472691827779
-0.23170000000000013,-28.478138466283188
-0.23270000000000002,-28.435697127287238
-0.23370000000000013,-28.308373110299385
-0.23470000000000002,-28.18104909331153
-0.23570000000000013,-28.05372507632368
-0.23670000000000002,-27.912253946337174
-0.2376999999999999,-27.827371268345274
-0.23870000000000002,-27.742488590353368
-0.2396999999999999,-27.65760591236147
-0.24070000000000003,-27.572723234369565
-0.24169999999999991,-27.43125210438306
-0.24270000000000003,-27.303928087395207
-0.24369999999999992,-27.219045409403304
-0.24470000000000003,-27.049280053419505
-0.24569999999999992,-26.907808923433
-0.24670000000000003,-26.822926245441096
-0.24769999999999992,-26.738043567449193
-0.24870000000000003,-26.65316088945729
-0.24969999999999992,-26.568278211465387
-0.25070000000000003,-26.525836872469437
-0.2516999999999999,-26.440954194477534
-0.25270000000000004,-26.29948306449103
-0.2536999999999999,-26.17215904750318
-0.25470000000000004,-26.002393691519377
-0.2556999999999999,-25.86092256153287
-0.25670000000000004,-25.77603988354097
-0.25769999999999993,-25.648715866553115
-0.25870000000000004,-25.521391849565262
-0.25969999999999993,-25.43650917157336
-0.26070000000000004,-25.295038041586857
-0.26169999999999993,-25.210155363594954
-0.26270000000000004,-25.0828313466071
-0.26369999999999993,-24.95550732961925
-0.26470000000000005,-24.870624651627345
-0.26569999999999994,-24.771594860636792
-0.26670000000000005,-24.729153521640843
-0.26769999999999994,-24.686712182644893
-0.26870000000000005,-24.64427084364894
-0.26969999999999994,-24.601829504652986
-0.27070000000000005,-24.559388165657033
-0.27169999999999994,-24.432064148669184
-0.27270000000000005,-24.34718147067728
-0.27369999999999994,-24.20571034069078
-0.27470000000000006,-24.078386323702922
-0.27569999999999995,-23.993503645711023
-0.27670000000000006,-23.908620967719123
-0.27769999999999995,-23.823738289727217
-0.27870000000000006,-23.767149837732617
-0.27969999999999995,-23.724708498736668
-0.28070000000000006,-23.724708498736668
-0.28169999999999995,-23.682267159740714
-0.28270000000000006,-23.597384481748815
-0.28369999999999995,-23.51250180375691
-0.28470000000000006,-23.427619125765005
-0.28569999999999995,-23.342736447773106
-0.28670000000000007,-23.300295108777156
-0.28769999999999996,-23.24370665678255
-0.28870000000000007,-23.24370665678255
-0.28969999999999996,-23.24370665678255
-0.29070000000000007,-23.24370665678255
-0.29169999999999996,-23.300295108777156
-0.29270000000000007,-23.342736447773106
-0.29369999999999996,-23.342736447773106
-0.2947000000000001,-23.342736447773106
-0.29569999999999996,-23.342736447773106
-0.2967000000000001,-23.342736447773106
-0.29769999999999996,-23.385177786769056
-0.2987000000000001,-23.385177786769056
-0.29969999999999997,-23.427619125765005
-0.3007000000000001,-23.427619125765005
-0.30169999999999997,-23.427619125765005
-0.3027000000000001,-23.427619125765005
-0.30369999999999997,-23.385177786769056
-0.3047000000000001,-23.342736447773106
-0.30569999999999997,-23.300295108777156
-0.3067000000000001,-23.300295108777156
-0.3077,-23.300295108777156
-0.3087000000000001,-23.300295108777156
-0.3097,-23.342736447773106
-0.3107000000000001,-23.342736447773106
-0.3117,-23.300295108777156
-0.3127000000000001,-23.24370665678255
-0.3137,-23.2012653177866
-0.3147000000000001,-23.1163826397947
-0.3157,-23.031499961802798
-0.3167000000000001,-22.989058622806844
-0.3177,-22.989058622806844
-0.3187000000000001,-23.031499961802798
-0.3197,-23.073941300798747
-0.3207000000000001,-23.073941300798747
-0.3217,-23.073941300798747
-0.3227000000000001,-23.073941300798747
-0.3237,-23.073941300798747
-0.3247000000000001,-23.031499961802798
-0.3257,-23.031499961802798
-0.3267000000000001,-23.073941300798747
-0.3277,-23.073941300798747
-0.3287000000000001,-23.15882397879065
-0.3297,-23.2012653177866
-0.3307000000000001,-23.2012653177866
-0.3317,-23.24370665678255
-0.3327000000000001,-23.24370665678255
-0.3337,-23.24370665678255
-0.3347000000000001,-23.300295108777156
-0.3357,-23.300295108777156
-0.3367000000000001,-23.342736447773106
-0.3377,-23.385177786769056
-0.3387000000000001,-23.47006046476096
-0.3397,-23.55494314275286
-0.3407000000000001,-23.597384481748815
-0.3417,-23.639825820744765
-0.3427000000000001,-23.724708498736668
-0.3437,-23.724708498736668
-0.3447000000000001,-23.767149837732617
-0.3457,-23.767149837732617
-0.3467000000000001,-23.86617962872317
-0.3477,-23.908620967719123
-0.3487000000000001,-23.951062306715073
-0.3497,-24.035944984706973
-0.3507000000000001,-24.078386323702922
-0.3517,-24.120827662698876
-0.3527000000000001,-24.16326900169483
-0.3537,-24.16326900169483
-0.3547000000000001,-24.16326900169483
-0.3557,-24.20571034069078
-0.35670000000000013,-24.290593018682678
-0.3577,-24.34718147067728
-0.35870000000000013,-24.474505487665134
-0.3597,-24.601829504652986
-0.36070000000000013,-24.729153521640843
-0.3617,-24.814036199632742
-0.3626999999999999,-24.870624651627345
-0.3637,-24.9130659906233
-0.3646999999999999,-24.95550732961925
-0.3657,-24.997948668615198
-0.3666999999999999,-24.997948668615198
-0.3677,-25.12527268560305
-0.3686999999999999,-25.295038041586857
-0.36970000000000003,-25.478950510569312
-0.3706999999999999,-25.60627452755716
-0.37170000000000003,-25.73359854454502
-0.3726999999999999,-25.77603988354097
-0.37370000000000003,-25.73359854454502
-0.3746999999999999,-25.86092256153287
-0.37570000000000003,-26.087276369511276
-0.3766999999999999,-26.440954194477534
-0.37770000000000004,-26.780484906445146
-0.3786999999999999,-27.219045409403304
-0.37970000000000004,-27.530281895373616
-0.3806999999999999,-27.700047251357418
-0.38170000000000004,-27.700047251357418
-0.38269999999999993,-27.65760591236147
-0.38370000000000004,-27.487840556377662
-0.38469999999999993,-27.34636942639116
-0.38570000000000004,-27.303928087395207
-0.38669999999999993,-27.219045409403304
-0.38770000000000004,-27.303928087395207
-0.38869999999999993,-27.43125210438306
-0.38970000000000005,-27.742488590353368
-0.39069999999999994,-28.09616641531963
-0.39170000000000005,-28.308373110299385
-0.39269999999999994,-28.53472691827779
-0.39370000000000005,-28.662050935265643
-0.39469999999999994,-28.789374952253496
-0.39570000000000005,-28.8742576302454
-0.39669999999999994,-28.959140308237306
-0.39770000000000005,-29.14305277721976
-0.39869999999999994,-29.31281813320356
-0.39970000000000006,-29.525024828183312
-0.40069999999999995,-29.793819975157668
-0.40170000000000006,-30.10505646112798
-0.40269999999999995,-30.359704495103685
-0.40370000000000006,-30.670940981073993
-0.40469999999999995,-30.925589015049702
-0.40570000000000006,-31.27926684001596
-0.40669999999999995,-31.618797551983565
-0.40770000000000006,-32.01491671594578
-0.40869999999999995,-32.45347721890394
-0.40970000000000006,-32.84959638286615
-0.41069999999999995,-33.231568433829715
-0.41170000000000007,-33.50036358080407
-0.41269999999999996,-33.670128936787876
-0.41370000000000007,-33.85404140577033
-0.41469999999999996,-33.93892408376223
-0.41570000000000007,-34.02380676175414
-0.41669999999999996,-34.15113077874198
-0.41770000000000007,-34.33504324772444
-0.41869999999999996,-34.5472499427042
-0.4197000000000001,-34.85848642867451
-0.42069999999999996,-35.198017140642115
-0.4217000000000001,-35.594136304604326
-0.42269999999999996,-35.94781412957058
-0.4237000000000001,-36.244903502542236
-0.42469999999999997,-36.55613998851254
-0.4257000000000001,-36.768346683492304
-0.42669999999999997,-36.99470049147071
-0.4277000000000001,-37.249348525446415
-0.42869999999999997,-37.51814367242077
-0.4297000000000001,-37.85767438438838
-0.43069999999999997,-38.211352209354644
-0.4317000000000001,-38.5650300343209
-0.4327,-38.94700208528445
-0.4337000000000001,-39.34312124924667
-0.4347,-39.78168175220483
-0.4357000000000001,-40.177800916167044
-0.4367,-40.559772967130606
-0.4377000000000001,-40.95589213109281
-0.4387,-41.352011295055014
-0.4397000000000001,-41.79057179801318
-0.4407,-42.2715736399673
-0.4417000000000001,-42.79501682091736
-0.4427,-43.27601866287147
-0.4437000000000001,-43.88434452181344
-0.4447,-44.4926703807554
-0.4457000000000001,-45.10099623969737
-0.4467,-45.79420477663124
-0.4477000000000001,-46.45911908756781
-0.4487,-47.02500360751382
-0.4497000000000001,-47.590888127459834
-0.4507,-48.071889969413945
-0.4517000000000001,-48.55289181136806
-0.4527,-48.93486386233162
-0.4537000000000001,-49.373424365289786
-0.4547,-49.85442620724389
-0.4557000000000001,-50.37786938819396
-0.4567,-50.943753908139975
-0.4577000000000001,-51.55207976708194
-0.4587,-52.17455273902255
-0.4597000000000001,-52.78287859796452
-0.4607,-53.433645795902436
-0.4617000000000001,-54.16929567183226
-0.4627,-54.876651321764776
-0.4637000000000001,-55.612301197694585
-0.4647,-56.404539525619015
-0.4657000000000001,-57.26751341853669
-0.4667,-58.22951710244491
-0.4677000000000001,-59.31884480334099
-0.4687,-60.40817250423707
-0.4697000000000001,-61.49750020513315
-0.4707,-62.64341635802381
-0.4717000000000001,-63.77518539791585
-0.4727,-64.86451309881193
-0.4737000000000001,-65.91139946071206
-0.4747,-66.9582858226122
-0.4757000000000001,-68.0900548625042
-0.4767,-69.22182390239624
-0.4777000000000001,-70.48091695927613
-0.4787,-71.83903980714656
-0.4797000000000001,-73.2820453330089
-0.4807,-74.80993353686314
-0.48170000000000013,-76.38026307971333
-0.4827,-77.99303396155948
-0.48370000000000013,-79.60580484340561
-0.4847,-81.1761343862558
-0.48570000000000013,-82.8313466070979
-0.4867,-83.31234844905201
-0.48570000000000013,-81.95422560118158
-0.4847,-80.99222191727335
-0.48370000000000013,-80.21413070234757
-0.4827,-79.60580484340561
-0.48170000000000013,-78.9550376454677
-0.4807,-78.38915312552167
-0.4797000000000001,-77.80912149257702
-0.4787,-77.243236972631
-0.4777000000000001,-76.71979379168094
-0.4767,-76.23879194972683
-0.4757000000000001,-75.85681989876326
-0.4747,-75.46070073480107
-0.4737000000000001,-75.06458157083884
-0.4727,-74.62602106788069
-0.4717000000000001,-74.14501922592657
-0.4707,-73.57913470598055
-0.4697000000000001,-73.0556915250305
-0.4687,-72.40492432709259
-0.4677000000000001,-71.7965984681506
-0.4667,-71.18827260920865
-0.4657000000000001,-70.66482942825859
