Dec. 17, 2024   15:44:49
Cyclic Voltammetry
File: c:/users/guazh/data/banditlqround7_x0exp667_r5/2024-12-16-exp682\exp682-2024-12-17t15_36_22-h2koh\exp682_cv_sr_700mvs_efin_-1400mv.bin
Data Source:  Experiment
Instrument Model:  CHI760E
Header: CV ran at 700 mVs
Note: 

Init E (V) = -1
High E (V) = -1
Low E (V) = -1.4
Final E (V) = -1
Init P/N = N
Scan Rate (V/s) = 0.7
Segment = 3
Sample Interval (V) = 0.001
Quiet Time (sec) = 2
Sensitivity (A/V) = 0.01
Comp R (ohm) = 1.1

Results:

Channel 1:
Segment 1:

Segment 2:

Segment 3:

Potential/V, Current/A

-1.000, -1.101e-3
-1.001, -9.926e-4
-1.002, -8.878e-4
-1.003, -7.830e-4
-1.004, -6.781e-4
-1.005, -5.702e-4
-1.006, -4.654e-4
-1.007, -3.606e-4
-1.008, -2.588e-4
-1.009, -1.663e-4
-1.010, -7.384e-5
-1.011, 1.249e-5
-1.012, 9.882e-5
-1.013, 1.790e-4
-1.014, 2.622e-4
-1.015, 3.455e-4
-1.016, 4.349e-4
-1.017, 5.243e-4
-1.018, 6.137e-4
-1.019, 7.000e-4
-1.020, 7.833e-4
-1.021, 8.634e-4
-1.022, 9.405e-4
-1.023, 1.011e-3
-1.024, 1.082e-3
-1.025, 1.156e-3
-1.026, 1.227e-3
-1.027, 1.301e-3
-1.028, 1.378e-3
-1.029, 1.458e-3
-1.030, 1.539e-3
-1.031, 1.616e-3
-1.032, 1.690e-3
-1.033, 1.761e-3
-1.034, 1.825e-3
-1.035, 1.890e-3
-1.036, 1.952e-3
-1.037, 2.013e-3
-1.038, 2.078e-3
-1.039, 2.149e-3
-1.040, 2.220e-3
-1.041, 2.291e-3
-1.042, 2.362e-3
-1.043, 2.433e-3
-1.044, 2.497e-3
-1.045, 2.562e-3
-1.046, 2.621e-3
-1.047, 2.676e-3
-1.048, 2.735e-3
-1.049, 2.793e-3
-1.050, 2.852e-3
-1.051, 2.917e-3
-1.052, 2.985e-3
-1.053, 3.052e-3
-1.054, 3.117e-3
-1.055, 3.182e-3
-1.056, 3.244e-3
-1.057, 3.299e-3
-1.058, 3.355e-3
-1.059, 3.407e-3
-1.060, 3.459e-3
-1.061, 3.515e-3
-1.062, 3.573e-3
-1.063, 3.638e-3
-1.064, 3.700e-3
-1.065, 3.768e-3
-1.066, 3.826e-3
-1.067, 3.888e-3
-1.068, 3.943e-3
-1.069, 3.999e-3
-1.070, 4.048e-3
-1.071, 4.098e-3
-1.072, 4.150e-3
-1.073, 4.206e-3
-1.074, 4.264e-3
-1.075, 4.326e-3
-1.076, 4.384e-3
-1.077, 4.446e-3
-1.078, 4.505e-3
-1.079, 4.560e-3
-1.080, 4.612e-3
-1.081, 4.665e-3
-1.082, 4.711e-3
-1.083, 4.760e-3
-1.084, 4.810e-3
-1.085, 4.865e-3
-1.086, 4.924e-3
-1.087, 4.982e-3
-1.088, 5.041e-3
-1.089, 5.100e-3
-1.090, 5.155e-3
-1.091, 5.211e-3
-1.092, 5.260e-3
-1.093, 5.309e-3
-1.094, 5.352e-3
-1.095, 5.402e-3
-1.096, 5.451e-3
-1.097, 5.507e-3
-1.098, 5.562e-3
-1.099, 5.624e-3
-1.100, 5.685e-3
-1.101, 5.741e-3
-1.102, 5.799e-3
-1.103, 5.852e-3
-1.104, 5.901e-3
-1.105, 5.947e-3
-1.106, 5.994e-3
-1.107, 6.043e-3
-1.108, 6.099e-3
-1.109, 6.151e-3
-1.110, 6.210e-3
-1.111, 6.268e-3
-1.112, 6.327e-3
-1.113, 6.385e-3
-1.114, 6.441e-3
-1.115, 6.493e-3
-1.116, 6.543e-3
-1.117, 6.592e-3
-1.118, 6.635e-3
-1.119, 6.684e-3
-1.120, 6.740e-3
-1.121, 6.792e-3
-1.122, 6.851e-3
-1.123, 6.912e-3
-1.124, 6.971e-3
-1.125, 7.030e-3
-1.126, 7.085e-3
-1.127, 7.134e-3
-1.128, 7.184e-3
-1.129, 7.233e-3
-1.130, 7.279e-3
-1.131, 7.332e-3
-1.132, 7.384e-3
-1.133, 7.443e-3
-1.134, 7.501e-3
-1.135, 7.563e-3
-1.136, 7.622e-3
-1.137, 7.680e-3
-1.138, 7.733e-3
-1.139, 7.782e-3
-1.140, 7.831e-3
-1.141, 7.878e-3
-1.142, 7.930e-3
-1.143, 7.982e-3
-1.144, 8.038e-3
-1.145, 8.096e-3
-1.146, 8.155e-3
-1.147, 8.214e-3
-1.148, 8.275e-3
-1.149, 8.331e-3
-1.150, 8.383e-3
-1.151, 8.432e-3
-1.152, 8.482e-3
-1.153, 8.531e-3
-1.154, 8.580e-3
-1.155, 8.636e-3
-1.156, 8.695e-3
-1.157, 8.753e-3
-1.158, 8.815e-3
-1.159, 8.876e-3
-1.160, 8.932e-3
-1.161, 8.991e-3
-1.162, 9.043e-3
-1.163, 9.092e-3
-1.164, 9.142e-3
-1.165, 9.188e-3
-1.166, 9.240e-3
-1.167, 9.299e-3
-1.168, 9.354e-3
-1.169, 9.419e-3
-1.170, 9.484e-3
-1.171, 9.545e-3
-1.172, 9.607e-3
-1.173, 9.663e-3
-1.174, 9.715e-3
-1.175, 9.764e-3
-1.176, 9.811e-3
-1.177, 9.866e-3
-1.178, 9.919e-3
-1.179, 9.974e-3
-1.180, 1.003e-2
-1.181, 1.009e-2
-1.182, 1.016e-2
-1.183, 1.021e-2
-1.184, 1.027e-2
-1.185, 1.032e-2
-1.186, 1.037e-2
-1.187, 1.042e-2
-1.188, 1.047e-2
-1.189, 1.053e-2
-1.190, 1.058e-2
-1.191, 1.063e-2
-1.192, 1.070e-2
-1.193, 1.076e-2
-1.194, 1.082e-2
-1.195, 1.088e-2
-1.196, 1.093e-2
-1.197, 1.099e-2
-1.198, 1.104e-2
-1.199, 1.109e-2
-1.200, 1.114e-2
-1.201, 1.119e-2
-1.202, 1.125e-2
-1.203, 1.131e-2
-1.204, 1.138e-2
-1.205, 1.144e-2
-1.206, 1.150e-2
-1.207, 1.156e-2
-1.208, 1.162e-2
-1.209, 1.168e-2
-1.210, 1.173e-2
-1.211, 1.178e-2
-1.212, 1.184e-2
-1.213, 1.190e-2
-1.214, 1.196e-2
-1.215, 1.202e-2
-1.216, 1.209e-2
-1.217, 1.217e-2
-1.218, 1.223e-2
-1.219, 1.229e-2
-1.220, 1.234e-2
-1.221, 1.240e-2
-1.222, 1.245e-2
-1.223, 1.249e-2
-1.224, 1.253e-2
-1.225, 1.259e-2
-1.226, 1.265e-2
-1.227, 1.272e-2
-1.228, 1.278e-2
-1.229, 1.285e-2
-1.230, 1.291e-2
-1.231, 1.296e-2
-1.232, 1.302e-2
-1.233, 1.307e-2
-1.234, 1.312e-2
-1.235, 1.317e-2
-1.236, 1.322e-2
-1.237, 1.328e-2
-1.238, 1.334e-2
-1.239, 1.340e-2
-1.240, 1.347e-2
-1.241, 1.352e-2
-1.242, 1.358e-2
-1.243, 1.364e-2
-1.244, 1.369e-2
-1.245, 1.374e-2
-1.246, 1.379e-2
-1.247, 1.384e-2
-1.248, 1.390e-2
-1.249, 1.396e-2
-1.250, 1.402e-2
-1.251, 1.408e-2
-1.252, 1.415e-2
-1.253, 1.421e-2
-1.254, 1.427e-2
-1.255, 1.433e-2
-1.256, 1.438e-2
-1.257, 1.444e-2
-1.258, 1.448e-2
-1.259, 1.454e-2
-1.260, 1.459e-2
-1.261, 1.465e-2
-1.262, 1.471e-2
-1.263, 1.477e-2
-1.264, 1.484e-2
-1.265, 1.489e-2
-1.266, 1.495e-2
-1.267, 1.501e-2
-1.268, 1.507e-2
-1.269, 1.512e-2
-1.270, 1.517e-2
-1.271, 1.522e-2
-1.272, 1.528e-2
-1.273, 1.534e-2
-1.274, 1.540e-2
-1.275, 1.547e-2
-1.276, 1.553e-2
-1.277, 1.559e-2
-1.278, 1.565e-2
-1.279, 1.571e-2
-1.280, 1.576e-2
-1.281, 1.581e-2
-1.282, 1.587e-2
-1.283, 1.592e-2
-1.284, 1.599e-2
-1.285, 1.605e-2
-1.286, 1.612e-2
-1.287, 1.618e-2
-1.288, 1.625e-2
-1.289, 1.631e-2
-1.290, 1.637e-2
-1.291, 1.642e-2
-1.292, 1.647e-2
-1.293, 1.653e-2
-1.294, 1.659e-2
-1.295, 1.665e-2
-1.296, 1.671e-2
-1.297, 1.678e-2
-1.298, 1.686e-2
-1.299, 1.692e-2
-1.300, 1.698e-2
-1.301, 1.704e-2
-1.302, 1.710e-2
-1.303, 1.716e-2
-1.304, 1.722e-2
-1.305, 1.728e-2
-1.306, 1.733e-2
-1.307, 1.740e-2
-1.308, 1.747e-2
-1.309, 1.754e-2
-1.310, 1.761e-2
-1.311, 1.768e-2
-1.312, 1.775e-2
-1.313, 1.781e-2
-1.314, 1.787e-2
-1.315, 1.792e-2
-1.316, 1.797e-2
-1.317, 1.803e-2
-1.318, 1.809e-2
-1.319, 1.815e-2
-1.320, 1.822e-2
-1.321, 1.828e-2
-1.322, 1.835e-2
-1.323, 1.841e-2
-1.324, 1.847e-2
-1.325, 1.853e-2
-1.326, 1.859e-2
-1.327, 1.864e-2
-1.328, 1.870e-2
-1.329, 1.876e-2
-1.330, 1.882e-2
-1.331, 1.889e-2
-1.332, 1.896e-2
-1.333, 1.903e-2
-1.334, 1.910e-2
-1.335, 1.917e-2
-1.336, 1.924e-2
-1.337, 1.930e-2
-1.338, 1.936e-2
-1.339, 1.941e-2
-1.340, 1.947e-2
-1.341, 1.953e-2
-1.342, 1.960e-2
-1.343, 1.966e-2
-1.344, 1.973e-2
-1.345, 1.980e-2
-1.346, 1.986e-2
-1.347, 1.993e-2
-1.348, 2.000e-2
-1.349, 2.006e-2
-1.350, 2.012e-2
-1.351, 2.017e-2
-1.352, 2.023e-2
-1.353, 2.029e-2
-1.354, 2.036e-2
-1.355, 2.043e-2
-1.356, 2.050e-2
-1.357, 2.056e-2
-1.358, 2.063e-2
-1.359, 2.069e-2
-1.360, 2.076e-2
-1.361, 2.081e-2
-1.362, 2.087e-2
-1.363, 2.093e-2
-1.364, 2.098e-2
-1.365, 2.104e-2
-1.366, 2.111e-2
-1.367, 2.118e-2
-1.368, 2.125e-2
-1.369, 2.132e-2
-1.370, 2.139e-2
-1.371, 2.146e-2
-1.372, 2.152e-2
-1.373, 2.158e-2
-1.374, 2.163e-2
-1.375, 2.169e-2
-1.376, 2.175e-2
-1.377, 2.181e-2
-1.378, 2.188e-2
-1.379, 2.195e-2
-1.380, 2.203e-2
-1.381, 2.209e-2
-1.382, 2.217e-2
-1.383, 2.224e-2
-1.384, 2.230e-2
-1.385, 2.236e-2
-1.386, 2.241e-2
-1.387, 2.247e-2
-1.388, 2.254e-2
-1.389, 2.261e-2
-1.390, 2.267e-2
-1.391, 2.274e-2
-1.392, 2.281e-2
-1.393, 2.288e-2
-1.394, 2.295e-2
-1.395, 2.301e-2
-1.396, 2.307e-2
-1.397, 2.314e-2
-1.398, 2.319e-2
-1.399, 2.326e-2
-1.400, 2.323e-2
-1.399, 2.306e-2
-1.398, 2.290e-2
-1.397, 2.274e-2
-1.396, 2.257e-2
-1.395, 2.242e-2
-1.394, 2.226e-2
-1.393, 2.209e-2
-1.392, 2.193e-2
-1.391, 2.176e-2
-1.390, 2.160e-2
-1.389, 2.144e-2
-1.388, 2.129e-2
-1.387, 2.114e-2
-1.386, 2.100e-2
-1.385, 2.085e-2
-1.384, 2.071e-2
-1.383, 2.057e-2
-1.382, 2.042e-2
-1.381, 2.027e-2
-1.380, 2.011e-2
-1.379, 1.996e-2
-1.378, 1.981e-2
-1.377, 1.966e-2
-1.376, 1.952e-2
-1.375, 1.937e-2
-1.374, 1.924e-2
-1.373, 1.910e-2
-1.372, 1.896e-2
-1.371, 1.882e-2
-1.370, 1.868e-2
-1.369, 1.854e-2
-1.368, 1.840e-2
-1.367, 1.825e-2
-1.366, 1.811e-2
-1.365, 1.796e-2
-1.364, 1.782e-2
-1.363, 1.769e-2
-1.362, 1.756e-2
-1.361, 1.743e-2
-1.360, 1.730e-2
-1.359, 1.716e-2
-1.358, 1.702e-2
-1.357, 1.687e-2
-1.356, 1.673e-2
-1.355, 1.659e-2
-1.354, 1.645e-2
-1.353, 1.632e-2
-1.352, 1.619e-2
-1.351, 1.606e-2
-1.350, 1.594e-2
-1.349, 1.581e-2
-1.348, 1.568e-2
-1.347, 1.555e-2
-1.346, 1.542e-2
-1.345, 1.528e-2
-1.344, 1.514e-2
-1.343, 1.501e-2
-1.342, 1.487e-2
-1.341, 1.475e-2
-1.340, 1.462e-2
-1.339, 1.450e-2
-1.338, 1.438e-2
-1.337, 1.425e-2
-1.336, 1.412e-2
-1.335, 1.399e-2
-1.334, 1.386e-2
-1.333, 1.372e-2
-1.332, 1.359e-2
-1.331, 1.346e-2
-1.330, 1.333e-2
-1.329, 1.321e-2
-1.328, 1.309e-2
-1.327, 1.297e-2
-1.326, 1.285e-2
-1.325, 1.273e-2
-1.324, 1.260e-2
-1.323, 1.247e-2
-1.322, 1.234e-2
-1.321, 1.222e-2
-1.320, 1.209e-2
-1.319, 1.195e-2
-1.318, 1.183e-2
-1.317, 1.171e-2
-1.316, 1.160e-2
-1.315, 1.148e-2
-1.314, 1.137e-2
-1.313, 1.125e-2
-1.312, 1.113e-2
-1.311, 1.101e-2
-1.310, 1.088e-2
-1.309, 1.075e-2
-1.308, 1.063e-2
-1.307, 1.050e-2
-1.306, 1.039e-2
-1.305, 1.028e-2
-1.304, 1.017e-2
-1.303, 1.006e-2
-1.302, 9.946e-3
-1.301, 9.832e-3
-1.300, 9.715e-3
-1.299, 9.595e-3
-1.298, 9.475e-3
-1.297, 9.348e-3
-1.296, 9.231e-3
-1.295, 9.114e-3
-1.294, 9.000e-3
-1.293, 8.892e-3
-1.292, 8.784e-3
-1.291, 8.673e-3
-1.290, 8.562e-3
-1.289, 8.448e-3
-1.288, 8.331e-3
-1.287, 8.214e-3
-1.286, 8.096e-3
-1.285, 7.985e-3
-1.284, 7.868e-3
-1.283, 7.760e-3
-1.282, 7.656e-3
-1.281, 7.551e-3
-1.280, 7.449e-3
-1.279, 7.341e-3
-1.278, 7.236e-3
-1.277, 7.128e-3
-1.276, 7.014e-3
-1.275, 6.900e-3
-1.274, 6.786e-3
-1.273, 6.675e-3
-1.272, 6.564e-3
-1.271, 6.456e-3
-1.270, 6.354e-3
-1.269, 6.253e-3
-1.268, 6.151e-3
-1.267, 6.049e-3
-1.266, 5.941e-3
-1.265, 5.833e-3
-1.264, 5.722e-3
-1.263, 5.611e-3
-1.262, 5.497e-3
-1.261, 5.386e-3
-1.260, 5.282e-3
-1.259, 5.177e-3
-1.258, 5.078e-3
-1.257, 4.982e-3
-1.256, 4.884e-3
-1.255, 4.785e-3
-1.254, 4.680e-3
-1.253, 4.575e-3
-1.252, 4.468e-3
-1.251, 4.360e-3
-1.250, 4.255e-3
-1.249, 4.147e-3
-1.248, 4.048e-3
-1.247, 3.950e-3
-1.246, 3.854e-3
-1.245, 3.762e-3
-1.244, 3.666e-3
-1.243, 3.573e-3
-1.242, 3.472e-3
-1.241, 3.367e-3
-1.240, 3.262e-3
-1.239, 3.154e-3
-1.238, 3.052e-3
-1.237, 2.954e-3
-1.236, 2.855e-3
-1.235, 2.766e-3
-1.234, 2.673e-3
-1.233, 2.584e-3
-1.232, 2.491e-3
-1.231, 2.399e-3
-1.230, 2.300e-3
-1.229, 2.198e-3
-1.228, 2.094e-3
-1.227, 1.992e-3
-1.226, 1.893e-3
-1.225, 1.798e-3
-1.224, 1.708e-3
-1.223, 1.616e-3
-1.222, 1.529e-3
-1.221, 1.443e-3
-1.220, 1.354e-3
-1.219, 1.261e-3
-1.218, 1.169e-3
-1.217, 1.070e-3
-1.216, 9.713e-4
-1.215, 8.727e-4
-1.214, 7.802e-4
-1.213, 6.908e-4
-1.212, 6.014e-4
-1.211, 5.181e-4
-1.210, 4.349e-4
-1.209, 3.485e-4
-1.208, 2.653e-4
-1.207, 1.759e-4
-1.206, 8.340e-5
-1.205, -1.218e-5
-1.204, -1.108e-4
-1.203, -2.002e-4
-1.202, -2.927e-4
-1.201, -3.760e-4
-1.200, -4.592e-4
-1.199, -5.425e-4
-1.198, -6.195e-4
-1.197, -7.028e-4
-1.196, -7.891e-4
-1.195, -8.754e-4
-1.194, -9.649e-4
-1.193, -1.057e-3
-1.192, -1.150e-3
-1.191, -1.239e-3
-1.190, -1.326e-3
-1.189, -1.406e-3
-1.188, -1.486e-3
-1.187, -1.563e-3
-1.186, -1.640e-3
-1.185, -1.720e-3
-1.184, -1.800e-3
-1.183, -1.887e-3
-1.182, -1.973e-3
-1.181, -2.062e-3
-1.180, -2.149e-3
-1.179, -2.235e-3
-1.178, -2.315e-3
-1.177, -2.395e-3
-1.176, -2.469e-3
-1.175, -2.543e-3
-1.174, -2.617e-3
-1.173, -2.691e-3
-1.172, -2.775e-3
-1.171, -2.858e-3
-1.170, -2.944e-3
-1.169, -3.031e-3
-1.168, -3.111e-3
-1.167, -3.194e-3
-1.166, -3.271e-3
-1.165, -3.345e-3
-1.164, -3.419e-3
-1.163, -3.487e-3
-1.162, -3.561e-3
-1.161, -3.635e-3
-1.160, -3.715e-3
-1.159, -3.798e-3
-1.158, -3.878e-3
-1.157, -3.962e-3
-1.156, -4.045e-3
-1.155, -4.119e-3
-1.154, -4.196e-3
-1.153, -4.264e-3
-1.152, -4.335e-3
-1.151, -4.403e-3
-1.150, -4.473e-3
-1.149, -4.551e-3
-1.148, -4.628e-3
-1.147, -4.705e-3
-1.146, -4.788e-3
-1.145, -4.865e-3
-1.144, -4.945e-3
-1.143, -5.016e-3
-1.142, -5.087e-3
-1.141, -5.152e-3
-1.140, -5.216e-3
-1.139, -5.284e-3
-1.138, -5.352e-3
-1.137, -5.423e-3
-1.136, -5.500e-3
-1.135, -5.580e-3
-1.134, -5.657e-3
-1.133, -5.731e-3
-1.132, -5.808e-3
-1.131, -5.876e-3
-1.130, -5.947e-3
-1.129, -6.009e-3
-1.128, -6.070e-3
-1.127, -6.135e-3
-1.126, -6.203e-3
-1.125, -6.277e-3
-1.124, -6.351e-3
-1.123, -6.425e-3
-1.122, -6.502e-3
-1.121, -6.576e-3
-1.120, -6.647e-3
-1.119, -6.712e-3
-1.118, -6.773e-3
-1.117, -6.835e-3
-1.116, -6.897e-3
-1.115, -6.962e-3
-1.114, -7.029e-3
-1.113, -7.100e-3
-1.112, -7.174e-3
-1.111, -7.248e-3
-1.110, -7.322e-3
-1.109, -7.393e-3
-1.108, -7.461e-3
-1.107, -7.523e-3
-1.106, -7.584e-3
-1.105, -7.643e-3
-1.104, -7.705e-3
-1.103, -7.766e-3
-1.102, -7.834e-3
-1.101, -7.902e-3
-1.100, -7.973e-3
-1.099, -8.047e-3
-1.098, -8.115e-3
-1.097, -8.182e-3
-1.096, -8.247e-3
-1.095, -8.306e-3
-1.094, -8.364e-3
-1.093, -8.423e-3
-1.092, -8.485e-3
-1.091, -8.549e-3
-1.090, -8.614e-3
-1.089, -8.682e-3
-1.088, -8.750e-3
-1.087, -8.821e-3
-1.086, -8.888e-3
-1.085, -8.947e-3
-1.084, -9.012e-3
-1.083, -9.067e-3
-1.082, -9.123e-3
-1.081, -9.178e-3
-1.080, -9.234e-3
-1.079, -9.299e-3
-1.078, -9.360e-3
-1.077, -9.431e-3
-1.076, -9.499e-3
-1.075, -9.567e-3
-1.074, -9.635e-3
-1.073, -9.699e-3
-1.072, -9.755e-3
-1.071, -9.813e-3
-1.070, -9.866e-3
-1.069, -9.924e-3
-1.068, -9.983e-3
-1.067, -1.004e-2
-1.066, -1.011e-2
-1.065, -1.017e-2
-1.064, -1.024e-2
-1.063, -1.031e-2
-1.062, -1.037e-2
-1.061, -1.043e-2
-1.060, -1.049e-2
-1.059, -1.054e-2
-1.058, -1.059e-2
-1.057, -1.065e-2
-1.056, -1.070e-2
-1.055, -1.076e-2
-1.054, -1.082e-2
-1.053, -1.089e-2
-1.052, -1.095e-2
-1.051, -1.102e-2
-1.050, -1.108e-2
-1.049, -1.114e-2
-1.048, -1.119e-2
-1.047, -1.124e-2
-1.046, -1.129e-2
-1.045, -1.135e-2
-1.044, -1.140e-2
-1.043, -1.146e-2
-1.042, -1.152e-2
-1.041, -1.159e-2
-1.040, -1.165e-2
-1.039, -1.171e-2
-1.038, -1.177e-2
-1.037, -1.182e-2
-1.036, -1.188e-2
-1.035, -1.193e-2
-1.034, -1.197e-2
-1.033, -1.203e-2
-1.032, -1.208e-2
-1.031, -1.214e-2
-1.030, -1.220e-2
-1.029, -1.227e-2
-1.028, -1.233e-2
-1.027, -1.239e-2
-1.026, -1.244e-2
-1.025, -1.250e-2
-1.024, -1.255e-2
-1.023, -1.260e-2
-1.022, -1.265e-2
-1.021, -1.271e-2
-1.020, -1.276e-2
-1.019, -1.283e-2
-1.018, -1.289e-2
-1.017, -1.295e-2
-1.016, -1.301e-2
-1.015, -1.306e-2
-1.014, -1.312e-2
-1.013, -1.317e-2
-1.012, -1.321e-2
-1.011, -1.326e-2
-1.010, -1.331e-2
-1.009, -1.337e-2
-1.008, -1.342e-2
-1.007, -1.348e-2
-1.006, -1.354e-2
-1.005, -1.360e-2
-1.004, -1.366e-2
-1.003, -1.371e-2
-1.002, -1.376e-2
-1.001, -1.381e-2
