Apr. 16, 2025   17:17:51
Cyclic Voltammetry
File: c:/users/guazh/data/banditlqround7_x0exp590_r20/2025-04-16-exp1100\exp1100-2025-04-16t17_09_19-arkoh\exp1100_cv_50mvs_efin_-1500mv.bin
Data Source:  Experiment
Instrument Model:  CHI760E
Header: CV ran at 50 mVs
Note: 

Init E (V) = -1
High E (V) = -1
Low E (V) = -1.5
Final E (V) = -1
Init P/N = N
Scan Rate (V/s) = 0.05
Segment = 7
Sample Interval (V) = 0.001
Quiet Time (sec) = 60
Sensitivity (A/V) = 0.001
Comp R (ohm) = 1.8

Results:

Channel 1:
Segment 1:

Segment 2:

Segment 3:

Segment 4:

Segment 5:

Segment 6:

Segment 7:

Potential/V, Current/A

-1.000, 4.336e-5
-1.001, 8.822e-5
-1.002, 1.012e-4
-1.003, 1.064e-4
-1.004, 1.101e-4
-1.005, 1.115e-4
-1.006, 1.121e-4
-1.007, 1.133e-4
-1.008, 1.142e-4
-1.009, 1.158e-4
-1.010, 1.169e-4
-1.011, 1.165e-4
-1.012, 1.173e-4
-1.013, 1.174e-4
-1.014, 1.185e-4
-1.015, 1.193e-4
-1.016, 1.185e-4
-1.017, 1.191e-4
-1.018, 1.196e-4
-1.019, 1.203e-4
-1.020, 1.209e-4
-1.021, 1.199e-4
-1.022, 1.203e-4
-1.023, 1.210e-4
-1.024, 1.222e-4
-1.025, 1.219e-4
-1.026, 1.216e-4
-1.027, 1.211e-4
-1.028, 1.219e-4
-1.029, 1.220e-4
-1.030, 1.225e-4
-1.031, 1.226e-4
-1.032, 1.217e-4
-1.033, 1.226e-4
-1.034, 1.232e-4
-1.035, 1.233e-4
-1.036, 1.233e-4
-1.037, 1.226e-4
-1.038, 1.232e-4
-1.039, 1.244e-4
-1.040, 1.238e-4
-1.041, 1.239e-4
-1.042, 1.234e-4
-1.043, 1.236e-4
-1.044, 1.245e-4
-1.045, 1.243e-4
-1.046, 1.242e-4
-1.047, 1.243e-4
-1.048, 1.242e-4
-1.049, 1.252e-4
-1.050, 1.253e-4
-1.051, 1.250e-4
-1.052, 1.247e-4
-1.053, 1.247e-4
-1.054, 1.255e-4
-1.055, 1.261e-4
-1.056, 1.251e-4
-1.057, 1.254e-4
-1.058, 1.257e-4
-1.059, 1.259e-4
-1.060, 1.267e-4
-1.061, 1.255e-4
-1.062, 1.255e-4
-1.063, 1.264e-4
-1.064, 1.265e-4
-1.065, 1.272e-4
-1.066, 1.265e-4
-1.067, 1.259e-4
-1.068, 1.271e-4
-1.069, 1.275e-4
-1.070, 1.275e-4
-1.071, 1.272e-4
-1.072, 1.267e-4
-1.073, 1.273e-4
-1.074, 1.278e-4
-1.075, 1.288e-4
-1.076, 1.284e-4
-1.077, 1.277e-4
-1.078, 1.276e-4
-1.079, 1.291e-4
-1.080, 1.288e-4
-1.081, 1.284e-4
-1.082, 1.281e-4
-1.083, 1.282e-4
-1.084, 1.296e-4
-1.085, 1.294e-4
-1.086, 1.291e-4
-1.087, 1.291e-4
-1.088, 1.288e-4
-1.089, 1.299e-4
-1.090, 1.303e-4
-1.091, 1.295e-4
-1.092, 1.298e-4
-1.093, 1.299e-4
-1.094, 1.305e-4
-1.095, 1.309e-4
-1.096, 1.304e-4
-1.097, 1.306e-4
-1.098, 1.306e-4
-1.099, 1.315e-4
-1.100, 1.319e-4
-1.101, 1.313e-4
-1.102, 1.311e-4
-1.103, 1.317e-4
-1.104, 1.321e-4
-1.105, 1.324e-4
-1.106, 1.322e-4
-1.107, 1.317e-4
-1.108, 1.325e-4
-1.109, 1.329e-4
-1.110, 1.335e-4
-1.111, 1.331e-4
-1.112, 1.327e-4
-1.113, 1.333e-4
-1.114, 1.340e-4
-1.115, 1.343e-4
-1.116, 1.339e-4
-1.117, 1.335e-4
-1.118, 1.341e-4
-1.119, 1.349e-4
-1.120, 1.350e-4
-1.121, 1.351e-4
-1.122, 1.349e-4
-1.123, 1.348e-4
-1.124, 1.363e-4
-1.125, 1.361e-4
-1.126, 1.359e-4
-1.127, 1.362e-4
-1.128, 1.359e-4
-1.129, 1.369e-4
-1.130, 1.374e-4
-1.131, 1.367e-4
-1.132, 1.371e-4
-1.133, 1.372e-4
-1.134, 1.379e-4
-1.135, 1.390e-4
-1.136, 1.381e-4
-1.137, 1.378e-4
-1.138, 1.384e-4
-1.139, 1.393e-4
-1.140, 1.401e-4
-1.141, 1.394e-4
-1.142, 1.392e-4
-1.143, 1.401e-4
-1.144, 1.405e-4
-1.145, 1.411e-4
-1.146, 1.409e-4
-1.147, 1.405e-4
-1.148, 1.417e-4
-1.149, 1.418e-4
-1.150, 1.426e-4
-1.151, 1.432e-4
-1.152, 1.424e-4
-1.153, 1.428e-4
-1.154, 1.437e-4
-1.155, 1.440e-4
-1.156, 1.443e-4
-1.157, 1.440e-4
-1.158, 1.452e-4
-1.159, 1.460e-4
-1.160, 1.461e-4
-1.161, 1.464e-4
-1.162, 1.458e-4
-1.163, 1.466e-4
-1.164, 1.477e-4
-1.165, 1.480e-4
-1.166, 1.481e-4
-1.167, 1.484e-4
-1.168, 1.487e-4
-1.169, 1.501e-4
-1.170, 1.508e-4
-1.171, 1.501e-4
-1.172, 1.507e-4
-1.173, 1.509e-4
-1.174, 1.523e-4
-1.175, 1.533e-4
-1.176, 1.527e-4
-1.177, 1.539e-4
-1.178, 1.549e-4
-1.179, 1.554e-4
-1.180, 1.562e-4
-1.181, 1.558e-4
-1.182, 1.561e-4
-1.183, 1.572e-4
-1.184, 1.582e-4
-1.185, 1.595e-4
-1.186, 1.598e-4
-1.187, 1.599e-4
-1.188, 1.608e-4
-1.189, 1.619e-4
-1.190, 1.630e-4
-1.191, 1.638e-4
-1.192, 1.636e-4
-1.193, 1.652e-4
-1.194, 1.667e-4
-1.195, 1.677e-4
-1.196, 1.683e-4
-1.197, 1.680e-4
-1.198, 1.695e-4
-1.199, 1.715e-4
-1.200, 1.723e-4
-1.201, 1.732e-4
-1.202, 1.741e-4
-1.203, 1.753e-4
-1.204, 1.774e-4
-1.205, 1.783e-4
-1.206, 1.790e-4
-1.207, 1.799e-4
-1.208, 1.815e-4
-1.209, 1.834e-4
-1.210, 1.849e-4
-1.211, 1.859e-4
-1.212, 1.874e-4
-1.213, 1.885e-4
-1.214, 1.910e-4
-1.215, 1.931e-4
-1.216, 1.935e-4
-1.217, 1.950e-4
-1.218, 1.972e-4
-1.219, 1.991e-4
-1.220, 2.023e-4
-1.221, 2.028e-4
-1.222, 2.045e-4
-1.223, 2.071e-4
-1.224, 2.091e-4
-1.225, 2.119e-4
-1.226, 2.137e-4
-1.227, 2.154e-4
-1.228, 2.191e-4
-1.229, 2.228e-4
-1.230, 2.240e-4
-1.231, 2.262e-4
-1.232, 2.277e-4
-1.233, 2.314e-4
-1.234, 2.347e-4
-1.235, 2.374e-4
-1.236, 2.404e-4
-1.237, 2.423e-4
-1.238, 2.459e-4
-1.239, 2.495e-4
-1.240, 2.527e-4
-1.241, 2.565e-4
-1.242, 2.595e-4
-1.243, 2.631e-4
-1.244, 2.676e-4
-1.245, 2.709e-4
-1.246, 2.745e-4
-1.247, 2.788e-4
-1.248, 2.822e-4
-1.249, 2.875e-4
-1.250, 2.917e-4
-1.251, 2.955e-4
-1.252, 2.999e-4
-1.253, 3.044e-4
-1.254, 3.102e-4
-1.255, 3.159e-4
-1.256, 3.200e-4
-1.257, 3.252e-4
-1.258, 3.307e-4
-1.259, 3.366e-4
-1.260, 3.430e-4
-1.261, 3.477e-4
-1.262, 3.531e-4
-1.263, 3.601e-4
-1.264, 3.667e-4
-1.265, 3.733e-4
-1.266, 3.795e-4
-1.267, 3.858e-4
-1.268, 3.929e-4
-1.269, 4.008e-4
-1.270, 4.074e-4
-1.271, 4.156e-4
-1.272, 4.221e-4
-1.273, 4.307e-4
-1.274, 4.398e-4
-1.275, 4.481e-4
-1.276, 4.566e-4
-1.277, 4.638e-4
-1.278, 4.722e-4
-1.279, 4.828e-4
-1.280, 4.927e-4
-1.281, 5.016e-4
-1.282, 5.114e-4
-1.283, 5.218e-4
-1.284, 5.335e-4
-1.285, 5.437e-4
-1.286, 5.540e-4
-1.287, 5.645e-4
-1.288, 5.759e-4
-1.289, 5.885e-4
-1.290, 6.001e-4
-1.291, 6.120e-4
-1.292, 6.239e-4
-1.293, 6.356e-4
-1.294, 6.496e-4
-1.295, 6.648e-4
-1.296, 6.766e-4
-1.297, 6.908e-4
-1.298, 7.046e-4
-1.299, 7.197e-4
-1.300, 7.345e-4
-1.301, 7.492e-4
-1.302, 7.646e-4
-1.303, 7.809e-4
-1.304, 7.973e-4
-1.305, 8.140e-4
-1.306, 8.305e-4
-1.307, 8.476e-4
-1.308, 8.663e-4
-1.309, 8.835e-4
-1.310, 9.007e-4
-1.311, 9.201e-4
-1.312, 9.377e-4
-1.313, 9.573e-4
-1.314, 9.780e-4
-1.315, 9.992e-4
-1.316, 1.020e-3
-1.317, 1.038e-3
-1.318, 1.061e-3
-1.319, 1.083e-3
-1.320, 1.104e-3
-1.321, 1.128e-3
-1.322, 1.150e-3
-1.323, 1.172e-3
-1.324, 1.197e-3
-1.325, 1.221e-3
-1.326, 1.246e-3
-1.327, 1.272e-3
-1.328, 1.296e-3
-1.329, 1.323e-3
-1.330, 1.350e-3
-1.331, 1.375e-3
-1.332, 1.403e-3
-1.333, 1.430e-3
-1.334, 1.458e-3
-1.335, 1.487e-3
-1.336, 1.518e-3
-1.337, 1.545e-3
-1.338, 1.574e-3
-1.339, 1.606e-3
-1.340, 1.639e-3
-1.341, 1.670e-3
-1.342, 1.700e-3
-1.343, 1.733e-3
-1.344, 1.764e-3
-1.345, 1.798e-3
-1.346, 1.833e-3
-1.347, 1.868e-3
-1.348, 1.901e-3
-1.349, 1.936e-3
-1.350, 1.973e-3
-1.351, 2.009e-3
-1.352, 2.047e-3
-1.353, 2.081e-3
-1.354, 2.119e-3
-1.355, 2.159e-3
-1.356, 2.197e-3
-1.357, 2.236e-3
-1.358, 2.275e-3
-1.359, 2.315e-3
-1.360, 2.353e-3
-1.361, 2.393e-3
-1.362, 2.435e-3
-1.363, 2.478e-3
-1.364, 2.523e-3
-1.365, 2.567e-3
-1.366, 2.609e-3
-1.367, 2.651e-3
-1.368, 2.694e-3
-1.369, 2.740e-3
-1.370, 2.787e-3
-1.371, 2.835e-3
-1.372, 2.887e-3
-1.373, 2.931e-3
-1.374, 2.976e-3
-1.375, 3.020e-3
-1.376, 3.067e-3
-1.377, 3.113e-3
-1.378, 3.162e-3
-1.379, 3.213e-3
-1.380, 3.261e-3
-1.381, 3.315e-3
-1.382, 3.368e-3
-1.383, 3.421e-3
-1.384, 3.470e-3
-1.385, 3.520e-3
-1.386, 3.574e-3
-1.387, 3.626e-3
-1.388, 3.679e-3
-1.389, 3.740e-3
-1.390, 3.793e-3
-1.391, 3.842e-3
-1.392, 3.897e-3
-1.393, 3.953e-3
-1.394, 4.014e-3
-1.395, 4.072e-3
-1.396, 4.117e-3
-1.397, 4.175e-3
-1.398, 4.231e-3
-1.399, 4.293e-3
-1.400, 4.350e-3
-1.401, 4.410e-3
-1.402, 4.477e-3
-1.403, 4.533e-3
-1.404, 4.594e-3
-1.405, 4.652e-3
-1.406, 4.715e-3
-1.407, 4.772e-3
-1.408, 4.836e-3
-1.409, 4.903e-3
-1.410, 4.968e-3
-1.411, 5.024e-3
-1.412, 5.089e-3
-1.413, 5.150e-3
-1.414, 5.204e-3
-1.415, 5.279e-3
-1.416, 5.343e-3
-1.417, 5.409e-3
-1.418, 5.482e-3
-1.419, 5.555e-3
-1.420, 5.614e-3
-1.421, 5.683e-3
-1.422, 5.753e-3
-1.423, 5.824e-3
-1.424, 5.893e-3
-1.425, 5.960e-3
-1.426, 6.023e-3
-1.427, 6.079e-3
-1.428, 6.149e-3
-1.429, 6.221e-3
-1.430, 6.299e-3
-1.431, 6.382e-3
-1.432, 6.448e-3
-1.433, 6.519e-3
-1.434, 6.591e-3
-1.435, 6.652e-3
-1.436, 6.710e-3
-1.437, 6.778e-3
-1.438, 6.853e-3
-1.439, 6.926e-3
-1.440, 7.012e-3
-1.441, 7.080e-3
-1.442, 7.147e-3
-1.443, 7.216e-3
-1.444, 7.285e-3
-1.445, 7.355e-3
-1.446, 7.415e-3
-1.447, 7.477e-3
-1.448, 7.551e-3
-1.449, 7.621e-3
-1.450, 7.687e-3
-1.451, 7.759e-3
-1.452, 7.824e-3
-1.453, 7.885e-3
-1.454, 7.952e-3
-1.455, 8.018e-3
-1.456, 8.081e-3
-1.457, 8.155e-3
-1.458, 8.229e-3
-1.459, 8.293e-3
-1.460, 8.346e-3
-1.461, 8.403e-3
-1.462, 8.462e-3
-1.463, 8.540e-3
-1.464, 8.610e-3
-1.465, 8.679e-3
-1.466, 8.744e-3
-1.467, 8.795e-3
-1.468, 8.857e-3
-1.469, 8.918e-3
-1.470, 8.970e-3
-1.471, 9.013e-3
-1.472, 9.065e-3
-1.473, 9.118e-3
-1.474, 9.173e-3
-1.475, 9.239e-3
-1.476, 9.286e-3
-1.477, 9.343e-3
-1.478, 9.384e-3
-1.479, 9.445e-3
-1.480, 9.517e-3
-1.481, 9.576e-3
-1.482, 9.647e-3
-1.483, 9.690e-3
-1.484, 9.747e-3
-1.485, 9.821e-3
-1.486, 9.878e-3
-1.487, 9.918e-3
-1.488, 9.956e-3
-1.489, 9.990e-3
-1.490, 1.004e-2
-1.491, 1.008e-2
-1.492, 1.011e-2
-1.493, 1.011e-2
-1.494, 1.011e-2
-1.495, 1.011e-2
-1.496, 1.011e-2
-1.497, 1.011e-2
-1.498, 1.011e-2
-1.499, 1.011e-2
-1.500, 1.011e-2
-1.499, 1.011e-2
-1.498, 1.011e-2
-1.497, 1.009e-2
-1.496, 9.977e-3
-1.495, 9.859e-3
-1.494, 9.754e-3
-1.493, 9.681e-3
-1.492, 9.575e-3
-1.491, 9.485e-3
-1.490, 9.388e-3
-1.489, 9.273e-3
-1.488, 9.171e-3
-1.487, 9.099e-3
-1.486, 9.056e-3
-1.485, 8.967e-3
-1.484, 8.950e-3
-1.483, 8.869e-3
-1.482, 8.776e-3
-1.481, 8.681e-3
-1.480, 8.612e-3
-1.479, 8.542e-3
-1.478, 8.464e-3
-1.477, 8.380e-3
-1.476, 8.297e-3
-1.475, 8.227e-3
-1.474, 8.146e-3
-1.473, 8.071e-3
-1.472, 7.999e-3
-1.471, 7.941e-3
-1.470, 7.875e-3
-1.469, 7.811e-3
-1.468, 7.747e-3
-1.467, 7.666e-3
-1.466, 7.581e-3
-1.465, 7.509e-3
-1.464, 7.442e-3
-1.463, 7.361e-3
-1.462, 7.267e-3
-1.461, 7.169e-3
-1.460, 7.071e-3
-1.459, 6.985e-3
-1.458, 6.911e-3
-1.457, 6.855e-3
-1.456, 6.810e-3
-1.455, 6.738e-3
-1.454, 6.662e-3
-1.453, 6.577e-3
-1.452, 6.475e-3
-1.451, 6.407e-3
-1.450, 6.318e-3
-1.449, 6.251e-3
-1.448, 6.170e-3
-1.447, 6.091e-3
-1.446, 6.025e-3
-1.445, 5.982e-3
-1.444, 5.906e-3
-1.443, 5.830e-3
-1.442, 5.773e-3
-1.441, 5.702e-3
-1.440, 5.639e-3
-1.439, 5.565e-3
-1.438, 5.510e-3
-1.437, 5.447e-3
-1.436, 5.378e-3
-1.435, 5.303e-3
-1.434, 5.235e-3
-1.433, 5.170e-3
-1.432, 5.118e-3
-1.431, 5.043e-3
-1.430, 4.986e-3
-1.429, 4.924e-3
-1.428, 4.855e-3
-1.427, 4.786e-3
-1.426, 4.730e-3
-1.425, 4.682e-3
-1.424, 4.635e-3
-1.423, 4.569e-3
-1.422, 4.522e-3
-1.421, 4.461e-3
-1.420, 4.397e-3
-1.419, 4.336e-3
-1.418, 4.273e-3
-1.417, 4.211e-3
-1.416, 4.154e-3
-1.415, 4.103e-3
-1.414, 4.036e-3
-1.413, 3.977e-3
-1.412, 3.910e-3
-1.411, 3.856e-3
-1.410, 3.801e-3
-1.409, 3.745e-3
-1.408, 3.690e-3
-1.407, 3.630e-3
-1.406, 3.573e-3
-1.405, 3.522e-3
-1.404, 3.481e-3
-1.403, 3.435e-3
-1.402, 3.379e-3
-1.401, 3.327e-3
-1.400, 3.276e-3
-1.399, 3.221e-3
-1.398, 3.163e-3
-1.397, 3.117e-3
-1.396, 3.075e-3
-1.395, 3.032e-3
-1.394, 2.970e-3
-1.393, 2.925e-3
-1.392, 2.867e-3
-1.391, 2.822e-3
-1.390, 2.778e-3
-1.389, 2.734e-3
-1.388, 2.684e-3
-1.387, 2.632e-3
-1.386, 2.592e-3
-1.385, 2.558e-3
-1.384, 2.513e-3
-1.383, 2.473e-3
-1.382, 2.431e-3
-1.381, 2.411e-3
-1.380, 2.372e-3
-1.379, 2.325e-3
-1.378, 2.284e-3
-1.377, 2.253e-3
-1.376, 2.216e-3
-1.375, 2.174e-3
-1.374, 2.136e-3
-1.373, 2.099e-3
-1.372, 2.055e-3
-1.371, 2.015e-3
-1.370, 1.977e-3
-1.369, 1.937e-3
-1.368, 1.905e-3
-1.367, 1.871e-3
-1.366, 1.831e-3
-1.365, 1.793e-3
-1.364, 1.757e-3
-1.363, 1.718e-3
-1.362, 1.681e-3
-1.361, 1.647e-3
-1.360, 1.615e-3
-1.359, 1.581e-3
-1.358, 1.548e-3
-1.357, 1.516e-3
-1.356, 1.483e-3
-1.355, 1.452e-3
-1.354, 1.423e-3
-1.353, 1.392e-3
-1.352, 1.361e-3
-1.351, 1.330e-3
-1.350, 1.300e-3
-1.349, 1.273e-3
-1.348, 1.243e-3
-1.347, 1.215e-3
-1.346, 1.188e-3
-1.345, 1.162e-3
-1.344, 1.136e-3
-1.343, 1.109e-3
-1.342, 1.081e-3
-1.341, 1.056e-3
-1.340, 1.031e-3
-1.339, 1.006e-3
-1.338, 9.820e-4
-1.337, 9.589e-4
-1.336, 9.365e-4
-1.335, 9.124e-4
-1.334, 8.905e-4
-1.333, 8.666e-4
-1.332, 8.442e-4
-1.331, 8.240e-4
-1.330, 8.042e-4
-1.329, 7.853e-4
-1.328, 7.625e-4
-1.327, 7.413e-4
-1.326, 7.217e-4
-1.325, 7.056e-4
-1.324, 6.868e-4
-1.323, 6.670e-4
-1.322, 6.485e-4
-1.321, 6.298e-4
-1.320, 6.127e-4
-1.319, 5.951e-4
-1.318, 5.774e-4
-1.317, 5.609e-4
-1.316, 5.449e-4
-1.315, 5.291e-4
-1.314, 5.130e-4
-1.313, 4.966e-4
-1.312, 4.814e-4
-1.311, 4.660e-4
-1.310, 4.524e-4
-1.309, 4.392e-4
-1.308, 4.239e-4
-1.307, 4.100e-4
-1.306, 3.972e-4
-1.305, 3.833e-4
-1.304, 3.709e-4
-1.303, 3.575e-4
-1.302, 3.453e-4
-1.301, 3.335e-4
-1.300, 3.218e-4
-1.299, 3.106e-4
-1.298, 2.987e-4
-1.297, 2.869e-4
-1.296, 2.768e-4
-1.295, 2.664e-4
-1.294, 2.559e-4
-1.293, 2.451e-4
-1.292, 2.350e-4
-1.291, 2.254e-4
-1.290, 2.170e-4
-1.289, 2.074e-4
-1.288, 1.982e-4
-1.287, 1.885e-4
-1.286, 1.798e-4
-1.285, 1.722e-4
-1.284, 1.639e-4
-1.283, 1.554e-4
-1.282, 1.475e-4
-1.281, 1.393e-4
-1.280, 1.317e-4
-1.279, 1.254e-4
-1.278, 1.179e-4
-1.277, 1.112e-4
-1.276, 1.042e-4
-1.275, 9.750e-5
-1.274, 9.110e-5
-1.273, 8.410e-5
-1.272, 7.772e-5
-1.271, 7.190e-5
-1.270, 6.652e-5
-1.269, 6.161e-5
-1.268, 5.521e-5
-1.267, 4.922e-5
-1.266, 4.427e-5
-1.265, 3.980e-5
-1.264, 3.496e-5
-1.263, 2.974e-5
-1.262, 2.425e-5
-1.261, 2.023e-5
-1.260, 1.641e-5
-1.259, 1.179e-5
-1.258, 7.318e-6
-1.257, 2.494e-6
-1.256, -1.093e-6
-1.255, -4.722e-6
-1.254, -8.759e-6
-1.253, -1.269e-5
-1.252, -1.669e-5
-1.251, -2.001e-5
-1.250, -2.259e-5
-1.249, -2.642e-5
-1.248, -2.962e-5
-1.247, -3.303e-5
-1.246, -3.632e-5
-1.245, -3.836e-5
-1.244, -4.151e-5
-1.243, -4.435e-5
-1.242, -4.762e-5
-1.241, -5.065e-5
-1.240, -5.192e-5
-1.239, -5.474e-5
-1.238, -5.791e-5
-1.237, -6.013e-5
-1.236, -6.246e-5
-1.235, -6.411e-5
-1.234, -6.612e-5
-1.233, -6.923e-5
-1.232, -7.108e-5
-1.231, -7.325e-5
-1.230, -7.482e-5
-1.229, -7.831e-5
-1.228, -7.946e-5
-1.227, -8.134e-5
-1.226, -8.259e-5
-1.225, -8.435e-5
-1.224, -8.533e-5
-1.223, -8.714e-5
-1.222, -8.928e-5
-1.221, -9.033e-5
-1.220, -9.195e-5
-1.219, -9.347e-5
-1.218, -9.472e-5
-1.217, -9.681e-5
-1.216, -9.737e-5
-1.215, -9.829e-5
-1.214, -9.949e-5
-1.213, -1.009e-4
-1.212, -1.025e-4
-1.211, -1.036e-4
-1.210, -1.038e-4
-1.209, -1.052e-4
-1.208, -1.067e-4
-1.207, -1.081e-4
-1.206, -1.092e-4
-1.205, -1.097e-4
-1.204, -1.105e-4
-1.203, -1.119e-4
-1.202, -1.129e-4
-1.201, -1.139e-4
-1.200, -1.136e-4
-1.199, -1.145e-4
-1.198, -1.159e-4
-1.197, -1.168e-4
-1.196, -1.177e-4
-1.195, -1.180e-4
-1.194, -1.182e-4
-1.193, -1.197e-4
-1.192, -1.204e-4
-1.191, -1.210e-4
-1.190, -1.216e-4
-1.189, -1.215e-4
-1.188, -1.228e-4
-1.187, -1.240e-4
-1.186, -1.245e-4
-1.185, -1.246e-4
-1.184, -1.246e-4
-1.183, -1.257e-4
-1.182, -1.267e-4
-1.181, -1.268e-4
-1.180, -1.272e-4
-1.179, -1.276e-4
-1.178, -1.290e-4
-1.177, -1.302e-4
-1.176, -1.296e-4
-1.175, -1.296e-4
-1.174, -1.299e-4
-1.173, -1.307e-4
-1.172, -1.322e-4
-1.171, -1.322e-4
-1.170, -1.323e-4
-1.169, -1.329e-4
-1.168, -1.330e-4
-1.167, -1.338e-4
-1.166, -1.345e-4
-1.165, -1.339e-4
-1.164, -1.346e-4
-1.163, -1.352e-4
-1.162, -1.359e-4
-1.161, -1.369e-4
-1.160, -1.362e-4
-1.159, -1.362e-4
-1.158, -1.377e-4
-1.157, -1.379e-4
-1.156, -1.386e-4
-1.155, -1.383e-4
-1.154, -1.381e-4
-1.153, -1.397e-4
-1.152, -1.400e-4
-1.151, -1.405e-4
-1.150, -1.403e-4
-1.149, -1.398e-4
-1.148, -1.409e-4
-1.147, -1.416e-4
-1.146, -1.416e-4
-1.145, -1.419e-4
-1.144, -1.415e-4
-1.143, -1.425e-4
-1.142, -1.435e-4
-1.141, -1.433e-4
-1.140, -1.434e-4
-1.139, -1.434e-4
-1.138, -1.439e-4
-1.137, -1.452e-4
-1.136, -1.451e-4
-1.135, -1.449e-4
-1.134, -1.451e-4
-1.133, -1.455e-4
-1.132, -1.467e-4
-1.131, -1.468e-4
-1.130, -1.462e-4
-1.129, -1.469e-4
-1.128, -1.470e-4
-1.127, -1.480e-4
-1.126, -1.486e-4
-1.125, -1.478e-4
-1.124, -1.483e-4
-1.123, -1.488e-4
-1.122, -1.493e-4
-1.121, -1.499e-4
-1.120, -1.493e-4
-1.119, -1.495e-4
-1.118, -1.505e-4
-1.117, -1.507e-4
-1.116, -1.513e-4
-1.115, -1.509e-4
-1.114, -1.509e-4
-1.113, -1.520e-4
-1.112, -1.520e-4
-1.111, -1.526e-4
-1.110, -1.525e-4
-1.109, -1.519e-4
-1.108, -1.529e-4
-1.107, -1.537e-4
-1.106, -1.539e-4
-1.105, -1.544e-4
-1.104, -1.534e-4
-1.103, -1.543e-4
-1.102, -1.555e-4
-1.101, -1.553e-4
-1.100, -1.557e-4
-1.099, -1.553e-4
-1.098, -1.557e-4
-1.097, -1.565e-4
-1.096, -1.565e-4
-1.095, -1.567e-4
-1.094, -1.571e-4
-1.093, -1.570e-4
-1.092, -1.584e-4
-1.091, -1.580e-4
-1.090, -1.579e-4
-1.089, -1.584e-4
-1.088, -1.583e-4
-1.087, -1.595e-4
-1.086, -1.597e-4
-1.085, -1.598e-4
-1.084, -1.595e-4
-1.083, -1.600e-4
-1.082, -1.605e-4
-1.081, -1.613e-4
-1.080, -1.605e-4
-1.079, -1.607e-4
-1.078, -1.615e-4
-1.077, -1.618e-4
-1.076, -1.626e-4
-1.075, -1.626e-4
-1.074, -1.620e-4
-1.073, -1.630e-4
-1.072, -1.632e-4
-1.071, -1.635e-4
-1.070, -1.639e-4
-1.069, -1.633e-4
-1.068, -1.640e-4
-1.067, -1.647e-4
-1.066, -1.647e-4
-1.065, -1.654e-4
-1.064, -1.650e-4
-1.063, -1.654e-4
-1.062, -1.665e-4
-1.061, -1.664e-4
-1.060, -1.662e-4
-1.059, -1.664e-4
-1.058, -1.668e-4
-1.057, -1.683e-4
-1.056, -1.683e-4
-1.055, -1.683e-4
-1.054, -1.681e-4
-1.053, -1.688e-4
-1.052, -1.695e-4
-1.051, -1.695e-4
-1.050, -1.698e-4
-1.049, -1.702e-4
-1.048, -1.703e-4
-1.047, -1.716e-4
-1.046, -1.723e-4
-1.045, -1.717e-4
-1.044, -1.721e-4
-1.043, -1.728e-4
-1.042, -1.737e-4
-1.041, -1.748e-4
-1.040, -1.741e-4
-1.039, -1.746e-4
-1.038, -1.761e-4
-1.037, -1.764e-4
-1.036, -1.770e-4
-1.035, -1.779e-4
-1.034, -1.777e-4
-1.033, -1.786e-4
-1.032, -1.793e-4
-1.031, -1.802e-4
-1.030, -1.806e-4
-1.029, -1.804e-4
-1.028, -1.816e-4
-1.027, -1.828e-4
-1.026, -1.834e-4
-1.025, -1.841e-4
-1.024, -1.845e-4
-1.023, -1.853e-4
-1.022, -1.867e-4
-1.021, -1.873e-4
-1.020, -1.876e-4
-1.019, -1.884e-4
-1.018, -1.895e-4
-1.017, -1.912e-4
-1.016, -1.917e-4
-1.015, -1.922e-4
-1.014, -1.930e-4
-1.013, -1.943e-4
-1.012, -1.958e-4
-1.011, -1.974e-4
-1.010, -1.979e-4
-1.009, -1.997e-4
-1.008, -2.005e-4
-1.007, -2.027e-4
-1.006, -2.042e-4
-1.005, -2.046e-4
-1.004, -2.061e-4
-1.003, -2.081e-4
-1.002, -2.100e-4
-1.001, -2.122e-4
-1.000, -1.220e-4
-1.001, -2.684e-5
-1.002, 5.742e-6
-1.003, 2.122e-5
-1.004, 3.188e-5
-1.005, 3.972e-5
-1.006, 4.698e-5
-1.007, 5.211e-5
-1.008, 5.602e-5
-1.009, 6.046e-5
-1.010, 6.465e-5
-1.011, 6.830e-5
-1.012, 7.154e-5
-1.013, 7.352e-5
-1.014, 7.626e-5
-1.015, 7.921e-5
-1.016, 8.159e-5
-1.017, 8.320e-5
-1.018, 8.477e-5
-1.019, 8.634e-5
-1.020, 8.870e-5
-1.021, 9.027e-5
-1.022, 9.123e-5
-1.023, 9.240e-5
-1.024, 9.359e-5
-1.025, 9.511e-5
-1.026, 9.653e-5
-1.027, 9.707e-5
-1.028, 9.769e-5
-1.029, 9.827e-5
-1.030, 9.943e-5
-1.031, 1.009e-4
-1.032, 1.005e-4
-1.033, 1.010e-4
-1.034, 1.017e-4
-1.035, 1.028e-4
-1.036, 1.042e-4
-1.037, 1.038e-4
-1.038, 1.039e-4
-1.039, 1.049e-4
-1.040, 1.048e-4
-1.041, 1.059e-4
-1.042, 1.060e-4
-1.043, 1.057e-4
-1.044, 1.063e-4
-1.045, 1.064e-4
-1.046, 1.073e-4
-1.047, 1.078e-4
-1.048, 1.074e-4
-1.049, 1.080e-4
-1.050, 1.086e-4
-1.051, 1.088e-4
-1.052, 1.090e-4
-1.053, 1.084e-4
-1.054, 1.088e-4
-1.055, 1.099e-4
-1.056, 1.102e-4
-1.057, 1.102e-4
-1.058, 1.100e-4
-1.059, 1.099e-4
-1.060, 1.109e-4
-1.061, 1.111e-4
-1.062, 1.112e-4
-1.063, 1.113e-4
-1.064, 1.109e-4
-1.065, 1.117e-4
-1.066, 1.123e-4
-1.067, 1.120e-4
-1.068, 1.121e-4
-1.069, 1.118e-4
-1.070, 1.124e-4
-1.071, 1.134e-4
-1.072, 1.126e-4
-1.073, 1.126e-4
-1.074, 1.128e-4
-1.075, 1.141e-4
-1.076, 1.144e-4
-1.077, 1.134e-4
-1.078, 1.135e-4
-1.079, 1.135e-4
-1.080, 1.140e-4
-1.081, 1.145e-4
-1.082, 1.143e-4
-1.083, 1.138e-4
-1.084, 1.142e-4
-1.085, 1.142e-4
-1.086, 1.149e-4
-1.087, 1.154e-4
-1.088, 1.144e-4
-1.089, 1.145e-4
-1.090, 1.154e-4
-1.091, 1.154e-4
-1.092, 1.160e-4
-1.093, 1.149e-4
-1.094, 1.153e-4
-1.095, 1.162e-4
-1.096, 1.161e-4
-1.097, 1.162e-4
-1.098, 1.159e-4
-1.099, 1.156e-4
-1.100, 1.164e-4
-1.101, 1.169e-4
-1.102, 1.166e-4
-1.103, 1.166e-4
-1.104, 1.160e-4
-1.105, 1.169e-4
-1.106, 1.172e-4
-1.107, 1.169e-4
-1.108, 1.175e-4
-1.109, 1.173e-4
-1.110, 1.176e-4
-1.111, 1.183e-4
-1.112, 1.179e-4
-1.113, 1.175e-4
-1.114, 1.178e-4
-1.115, 1.183e-4
-1.116, 1.193e-4
-1.117, 1.181e-4
-1.118, 1.180e-4
-1.119, 1.184e-4
-1.120, 1.184e-4
-1.121, 1.196e-4
-1.122, 1.193e-4
-1.123, 1.188e-4
-1.124, 1.191e-4
-1.125, 1.195e-4
-1.126, 1.201e-4
-1.127, 1.202e-4
-1.128, 1.195e-4
-1.129, 1.196e-4
-1.130, 1.205e-4
-1.131, 1.209e-4
-1.132, 1.213e-4
-1.133, 1.202e-4
-1.134, 1.205e-4
-1.135, 1.215e-4
-1.136, 1.214e-4
-1.137, 1.215e-4
-1.138, 1.217e-4
-1.139, 1.213e-4
-1.140, 1.222e-4
-1.141, 1.224e-4
-1.142, 1.226e-4
-1.143, 1.223e-4
-1.144, 1.219e-4
-1.145, 1.231e-4
-1.146, 1.239e-4
-1.147, 1.233e-4
-1.148, 1.234e-4
-1.149, 1.230e-4
-1.150, 1.240e-4
-1.151, 1.249e-4
-1.152, 1.247e-4
-1.153, 1.243e-4
-1.154, 1.244e-4
-1.155, 1.248e-4
-1.156, 1.260e-4
-1.157, 1.254e-4
-1.158, 1.255e-4
-1.159, 1.258e-4
-1.160, 1.263e-4
-1.161, 1.271e-4
-1.162, 1.268e-4
-1.163, 1.263e-4
-1.164, 1.273e-4
-1.165, 1.276e-4
-1.166, 1.283e-4
-1.167, 1.287e-4
-1.168, 1.278e-4
-1.169, 1.285e-4
-1.170, 1.295e-4
-1.171, 1.297e-4
-1.172, 1.303e-4
-1.173, 1.293e-4
-1.174, 1.300e-4
-1.175, 1.313e-4
-1.176, 1.316e-4
-1.177, 1.321e-4
-1.178, 1.321e-4
-1.179, 1.323e-4
-1.180, 1.328e-4
-1.181, 1.334e-4
-1.182, 1.337e-4
-1.183, 1.339e-4
-1.184, 1.341e-4
-1.185, 1.347e-4
-1.186, 1.358e-4
-1.187, 1.360e-4
-1.188, 1.362e-4
-1.189, 1.364e-4
-1.190, 1.377e-4
-1.191, 1.389e-4
-1.192, 1.382e-4
-1.193, 1.385e-4
-1.194, 1.394e-4
-1.195, 1.402e-4
-1.196, 1.418e-4
-1.197, 1.417e-4
-1.198, 1.421e-4
-1.199, 1.427e-4
-1.200, 1.434e-4
-1.201, 1.447e-4
-1.202, 1.453e-4
-1.203, 1.453e-4
-1.204, 1.464e-4
-1.205, 1.473e-4
-1.206, 1.485e-4
-1.207, 1.493e-4
-1.208, 1.499e-4
-1.209, 1.506e-4
-1.210, 1.521e-4
-1.211, 1.533e-4
-1.212, 1.542e-4
-1.213, 1.545e-4
-1.214, 1.557e-4
-1.215, 1.574e-4
-1.216, 1.586e-4
-1.217, 1.597e-4
-1.218, 1.601e-4
-1.219, 1.614e-4
-1.220, 1.632e-4
-1.221, 1.647e-4
-1.222, 1.660e-4
-1.223, 1.669e-4
-1.224, 1.678e-4
-1.225, 1.703e-4
-1.226, 1.723e-4
-1.227, 1.734e-4
-1.228, 1.751e-4
-1.229, 1.780e-4
-1.230, 1.786e-4
-1.231, 1.809e-4
-1.232, 1.818e-4
-1.233, 1.836e-4
-1.234, 1.854e-4
-1.235, 1.877e-4
-1.236, 1.903e-4
-1.237, 1.916e-4
-1.238, 1.935e-4
-1.239, 1.959e-4
-1.240, 1.987e-4
-1.241, 2.016e-4
-1.242, 2.038e-4
-1.243, 2.053e-4
-1.244, 2.085e-4
-1.245, 2.112e-4
-1.246, 2.144e-4
-1.247, 2.175e-4
-1.248, 2.196e-4
-1.249, 2.224e-4
-1.250, 2.258e-4
-1.251, 2.291e-4
-1.252, 2.331e-4
-1.253, 2.353e-4
-1.254, 2.391e-4
-1.255, 2.436e-4
-1.256, 2.467e-4
-1.257, 2.507e-4
-1.258, 2.540e-4
-1.259, 2.578e-4
-1.260, 2.624e-4
-1.261, 2.670e-4
-1.262, 2.713e-4
-1.263, 2.754e-4
-1.264, 2.795e-4
-1.265, 2.848e-4
-1.266, 2.903e-4
-1.267, 2.947e-4
-1.268, 2.996e-4
-1.269, 3.049e-4
-1.270, 3.112e-4
-1.271, 3.178e-4
-1.272, 3.221e-4
-1.273, 3.277e-4
-1.274, 3.331e-4
-1.275, 3.400e-4
-1.276, 3.473e-4
-1.277, 3.530e-4
-1.278, 3.598e-4
-1.279, 3.669e-4
-1.280, 3.751e-4
-1.281, 3.824e-4
-1.282, 3.894e-4
-1.283, 3.962e-4
-1.284, 4.045e-4
-1.285, 4.125e-4
-1.286, 4.214e-4
-1.287, 4.295e-4
-1.288, 4.375e-4
-1.289, 4.469e-4
-1.290, 4.567e-4
-1.291, 4.662e-4
-1.292, 4.761e-4
-1.293, 4.853e-4
-1.294, 4.947e-4
-1.295, 5.058e-4
-1.296, 5.174e-4
-1.297, 5.289e-4
-1.298, 5.386e-4
-1.299, 5.494e-4
-1.300, 5.621e-4
-1.301, 5.745e-4
-1.302, 5.871e-4
-1.303, 5.995e-4
-1.304, 6.119e-4
-1.305, 6.252e-4
-1.306, 6.381e-4
-1.307, 6.519e-4
-1.308, 6.664e-4
-1.309, 6.812e-4
-1.310, 6.959e-4
-1.311, 7.115e-4
-1.312, 7.263e-4
-1.313, 7.423e-4
-1.314, 7.580e-4
-1.315, 7.749e-4
-1.316, 7.934e-4
-1.317, 8.093e-4
-1.318, 8.258e-4
-1.319, 8.440e-4
-1.320, 8.613e-4
-1.321, 8.808e-4
-1.322, 9.001e-4
-1.323, 9.190e-4
-1.324, 9.393e-4
-1.325, 9.598e-4
-1.326, 9.805e-4
-1.327, 1.000e-3
-1.328, 1.022e-3
-1.329, 1.044e-3
-1.330, 1.067e-3
-1.331, 1.088e-3
-1.332, 1.111e-3
-1.333, 1.134e-3
-1.334, 1.158e-3
-1.335, 1.183e-3
-1.336, 1.208e-3
-1.337, 1.232e-3
-1.338, 1.257e-3
-1.339, 1.282e-3
-1.340, 1.309e-3
-1.341, 1.336e-3
-1.342, 1.362e-3
-1.343, 1.389e-3
-1.344, 1.417e-3
-1.345, 1.446e-3
-1.346, 1.476e-3
-1.347, 1.505e-3
-1.348, 1.534e-3
-1.349, 1.565e-3
-1.350, 1.597e-3
-1.351, 1.628e-3
-1.352, 1.658e-3
-1.353, 1.689e-3
-1.354, 1.721e-3
-1.355, 1.756e-3
-1.356, 1.790e-3
-1.357, 1.823e-3
-1.358, 1.859e-3
-1.359, 1.892e-3
-1.360, 1.926e-3
-1.361, 1.961e-3
-1.362, 1.996e-3
-1.363, 2.032e-3
-1.364, 2.070e-3
-1.365, 2.110e-3
-1.366, 2.149e-3
-1.367, 2.186e-3
-1.368, 2.223e-3
-1.369, 2.261e-3
-1.370, 2.304e-3
-1.371, 2.341e-3
-1.372, 2.381e-3
-1.373, 2.421e-3
-1.374, 2.464e-3
-1.375, 2.508e-3
-1.376, 2.549e-3
-1.377, 2.591e-3
-1.378, 2.636e-3
-1.379, 2.677e-3
-1.380, 2.722e-3
-1.381, 2.767e-3
-1.382, 2.814e-3
-1.383, 2.858e-3
-1.384, 2.902e-3
-1.385, 2.949e-3
-1.386, 2.996e-3
-1.387, 3.042e-3
-1.388, 3.092e-3
-1.389, 3.137e-3
-1.390, 3.182e-3
-1.391, 3.230e-3
-1.392, 3.275e-3
-1.393, 3.325e-3
-1.394, 3.378e-3
-1.395, 3.430e-3
-1.396, 3.479e-3
-1.397, 3.529e-3
-1.398, 3.579e-3
-1.399, 3.631e-3
-1.400, 3.681e-3
-1.401, 3.732e-3
-1.402, 3.786e-3
-1.403, 3.839e-3
-1.404, 3.893e-3
-1.405, 3.950e-3
-1.406, 4.006e-3
-1.407, 4.063e-3
-1.408, 4.116e-3
-1.409, 4.173e-3
-1.410, 4.225e-3
-1.411, 4.281e-3
-1.412, 4.342e-3
-1.413, 4.398e-3
-1.414, 4.453e-3
-1.415, 4.514e-3
-1.416, 4.573e-3
-1.417, 4.629e-3
-1.418, 4.686e-3
-1.419, 4.745e-3
-1.420, 4.808e-3
-1.421, 4.866e-3
-1.422, 4.922e-3
-1.423, 4.990e-3
-1.424, 5.052e-3
-1.425, 5.114e-3
-1.426, 5.179e-3
-1.427, 5.243e-3
-1.428, 5.299e-3
-1.429, 5.363e-3
-1.430, 5.437e-3
-1.431, 5.505e-3
-1.432, 5.565e-3
-1.433, 5.622e-3
-1.434, 5.691e-3
-1.435, 5.756e-3
-1.436, 5.820e-3
-1.437, 5.880e-3
-1.438, 5.933e-3
-1.439, 6.000e-3
-1.440, 6.070e-3
-1.441, 6.135e-3
-1.442, 6.235e-3
-1.443, 6.294e-3
-1.444, 6.361e-3
-1.445, 6.435e-3
-1.446, 6.503e-3
-1.447, 6.567e-3
-1.448, 6.630e-3
-1.449, 6.703e-3
-1.450, 6.760e-3
-1.451, 6.826e-3
-1.452, 6.894e-3
-1.453, 6.963e-3
-1.454, 7.046e-3
-1.455, 7.113e-3
-1.456, 7.166e-3
-1.457, 7.231e-3
-1.458, 7.293e-3
-1.459, 7.360e-3
-1.460, 7.433e-3
-1.461, 7.498e-3
-1.462, 7.562e-3
-1.463, 7.632e-3
-1.464, 7.697e-3
-1.465, 7.768e-3
-1.466, 7.839e-3
-1.467, 7.903e-3
-1.468, 7.972e-3
-1.469, 8.029e-3
-1.470, 8.089e-3
-1.471, 8.152e-3
-1.472, 8.206e-3
-1.473, 8.279e-3
-1.474, 8.347e-3
-1.475, 8.424e-3
-1.476, 8.496e-3
-1.477, 8.558e-3
-1.478, 8.619e-3
-1.479, 8.688e-3
-1.480, 8.744e-3
-1.481, 8.808e-3
-1.482, 8.882e-3
-1.483, 8.944e-3
-1.484, 9.014e-3
-1.485, 9.087e-3
-1.486, 9.142e-3
-1.487, 9.197e-3
-1.488, 9.258e-3
-1.489, 9.307e-3
-1.490, 9.342e-3
-1.491, 9.409e-3
-1.492, 9.456e-3
-1.493, 9.516e-3
-1.494, 9.586e-3
-1.495, 9.689e-3
-1.496, 9.763e-3
-1.497, 9.833e-3
-1.498, 9.912e-3
-1.499, 9.977e-3
-1.500, 9.917e-3
-1.499, 9.799e-3
-1.498, 9.699e-3
-1.497, 9.601e-3
-1.496, 9.479e-3
-1.495, 9.342e-3
-1.494, 9.244e-3
-1.493, 9.136e-3
-1.492, 9.019e-3
-1.491, 8.911e-3
-1.490, 8.868e-3
-1.489, 8.870e-3
-1.488, 8.775e-3
-1.487, 8.693e-3
-1.486, 8.602e-3
-1.485, 8.469e-3
-1.484, 8.356e-3
-1.483, 8.261e-3
-1.482, 8.156e-3
-1.481, 8.060e-3
-1.480, 7.955e-3
-1.479, 7.900e-3
-1.478, 7.810e-3
-1.477, 7.719e-3
-1.476, 7.633e-3
-1.475, 7.555e-3
-1.474, 7.480e-3
-1.473, 7.395e-3
-1.472, 7.323e-3
-1.471, 7.223e-3
-1.470, 7.144e-3
-1.469, 7.080e-3
-1.468, 6.972e-3
-1.467, 6.895e-3
-1.466, 6.821e-3
-1.465, 6.731e-3
-1.464, 6.651e-3
-1.463, 6.578e-3
-1.462, 6.506e-3
-1.461, 6.435e-3
-1.460, 6.369e-3
-1.459, 6.343e-3
-1.458, 6.280e-3
-1.457, 6.206e-3
-1.456, 6.135e-3
-1.455, 6.072e-3
-1.454, 6.016e-3
-1.453, 5.951e-3
-1.452, 5.874e-3
-1.451, 5.804e-3
-1.450, 5.760e-3
-1.449, 5.676e-3
-1.448, 5.605e-3
-1.447, 5.529e-3
-1.446, 5.455e-3
-1.445, 5.391e-3
-1.444, 5.332e-3
-1.443, 5.271e-3
-1.442, 5.216e-3
-1.441, 5.168e-3
-1.440, 5.098e-3
-1.439, 5.035e-3
-1.438, 4.960e-3
-1.437, 4.901e-3
-1.436, 4.836e-3
-1.435, 4.772e-3
-1.434, 4.704e-3
-1.433, 4.636e-3
-1.432, 4.579e-3
-1.431, 4.541e-3
-1.430, 4.479e-3
-1.429, 4.413e-3
-1.428, 4.354e-3
-1.427, 4.304e-3
-1.426, 4.241e-3
-1.425, 4.183e-3
-1.424, 4.126e-3
-1.423, 4.068e-3
-1.422, 4.008e-3
-1.421, 3.958e-3
-1.420, 3.902e-3
-1.419, 3.846e-3
-1.418, 3.802e-3
-1.417, 3.752e-3
-1.416, 3.687e-3
-1.415, 3.619e-3
-1.414, 3.565e-3
-1.413, 3.515e-3
-1.412, 3.484e-3
-1.411, 3.446e-3
-1.410, 3.407e-3
-1.409, 3.374e-3
-1.408, 3.325e-3
-1.407, 3.277e-3
-1.406, 3.240e-3
-1.405, 3.201e-3
-1.404, 3.155e-3
-1.403, 3.100e-3
-1.402, 3.053e-3
-1.401, 3.006e-3
-1.400, 2.964e-3
-1.399, 2.918e-3
-1.398, 2.867e-3
-1.397, 2.826e-3
-1.396, 2.784e-3
-1.395, 2.744e-3
-1.394, 2.695e-3
-1.393, 2.648e-3
-1.392, 2.607e-3
-1.391, 2.563e-3
-1.390, 2.515e-3
-1.389, 2.468e-3
-1.388, 2.420e-3
-1.387, 2.378e-3
-1.386, 2.339e-3
-1.385, 2.298e-3
-1.384, 2.256e-3
-1.383, 2.217e-3
-1.382, 2.175e-3
-1.381, 2.132e-3
-1.380, 2.093e-3
-1.379, 2.054e-3
-1.378, 2.015e-3
-1.377, 1.975e-3
-1.376, 1.939e-3
-1.375, 1.901e-3
-1.374, 1.865e-3
-1.373, 1.829e-3
-1.372, 1.791e-3
-1.371, 1.757e-3
-1.370, 1.723e-3
-1.369, 1.690e-3
-1.368, 1.658e-3
-1.367, 1.624e-3
-1.366, 1.590e-3
-1.365, 1.558e-3
-1.364, 1.527e-3
-1.363, 1.496e-3
-1.362, 1.466e-3
-1.361, 1.433e-3
-1.360, 1.406e-3
-1.359, 1.379e-3
-1.358, 1.348e-3
-1.357, 1.317e-3
-1.356, 1.289e-3
-1.355, 1.262e-3
-1.354, 1.235e-3
-1.353, 1.207e-3
-1.352, 1.182e-3
-1.351, 1.155e-3
-1.350, 1.131e-3
-1.349, 1.105e-3
-1.348, 1.080e-3
-1.347, 1.054e-3
-1.346, 1.028e-3
-1.345, 1.005e-3
-1.344, 9.827e-4
-1.343, 9.597e-4
-1.342, 9.352e-4
-1.341, 9.128e-4
-1.340, 8.903e-4
-1.339, 8.695e-4
-1.338, 8.490e-4
-1.337, 8.266e-4
-1.336, 8.058e-4
-1.335, 7.876e-4
-1.334, 7.642e-4
-1.333, 7.451e-4
-1.332, 7.255e-4
-1.331, 7.059e-4
-1.330, 6.881e-4
-1.329, 6.702e-4
-1.328, 6.529e-4
-1.327, 6.344e-4
-1.326, 6.158e-4
-1.325, 5.997e-4
-1.324, 5.834e-4
-1.323, 5.675e-4
-1.322, 5.506e-4
-1.321, 5.342e-4
-1.320, 5.193e-4
-1.319, 5.046e-4
-1.318, 4.888e-4
-1.317, 4.742e-4
-1.316, 4.598e-4
-1.315, 4.464e-4
-1.314, 4.334e-4
-1.313, 4.190e-4
-1.312, 4.055e-4
-1.311, 3.920e-4
-1.310, 3.794e-4
-1.309, 3.679e-4
-1.308, 3.553e-4
-1.307, 3.428e-4
-1.306, 3.311e-4
-1.305, 3.196e-4
-1.304, 3.093e-4
-1.303, 2.985e-4
-1.302, 2.867e-4
-1.301, 2.762e-4
-1.300, 2.665e-4
-1.299, 2.566e-4
-1.298, 2.470e-4
-1.297, 2.366e-4
-1.296, 2.276e-4
-1.295, 2.182e-4
-1.294, 2.095e-4
-1.293, 2.007e-4
-1.292, 1.918e-4
-1.291, 1.829e-4
-1.290, 1.750e-4
-1.289, 1.668e-4
-1.288, 1.592e-4
-1.287, 1.509e-4
-1.286, 1.430e-4
-1.285, 1.365e-4
-1.284, 1.295e-4
-1.283, 1.225e-4
-1.282, 1.153e-4
-1.281, 1.079e-4
-1.280, 1.015e-4
-1.279, 9.586e-5
-1.278, 8.951e-5
-1.277, 8.346e-5
-1.276, 7.720e-5
-1.275, 7.172e-5
-1.274, 6.671e-5
-1.273, 6.087e-5
-1.272, 5.537e-5
-1.271, 4.940e-5
-1.270, 4.470e-5
-1.269, 4.068e-5
-1.268, 3.547e-5
-1.267, 3.011e-5
-1.266, 2.568e-5
-1.265, 2.086e-5
-1.264, 1.778e-5
-1.263, 1.344e-5
-1.262, 8.344e-6
-1.261, 4.483e-6
-1.260, 5.701e-7
-1.259, -2.999e-6
-1.258, -6.397e-6
-1.257, -1.116e-5
-1.256, -1.436e-5
-1.255, -1.773e-5
-1.254, -2.084e-5
-1.253, -2.369e-5
-1.252, -2.752e-5
-1.251, -3.087e-5
-1.250, -3.328e-5
-1.249, -3.582e-5
-1.248, -3.863e-5
-1.247, -4.183e-5
-1.246, -4.506e-5
-1.245, -4.707e-5
-1.244, -4.900e-5
-1.243, -5.161e-5
-1.242, -5.458e-5
-1.241, -5.766e-5
-1.240, -5.871e-5
-1.239, -6.052e-5
-1.238, -6.328e-5
-1.237, -6.569e-5
-1.236, -6.818e-5
-1.235, -7.007e-5
-1.234, -7.137e-5
-1.233, -7.353e-5
-1.232, -7.517e-5
-1.231, -7.709e-5
-1.230, -7.912e-5
-1.229, -8.196e-5
-1.228, -8.277e-5
-1.227, -8.449e-5
-1.226, -8.587e-5
-1.225, -8.749e-5
-1.224, -8.774e-5
-1.223, -8.932e-5
-1.222, -9.153e-5
-1.221, -9.257e-5
-1.220, -9.419e-5
-1.219, -9.452e-5
-1.218, -9.548e-5
-1.217, -9.766e-5
-1.216, -9.867e-5
-1.215, -1.000e-4
-1.214, -1.005e-4
-1.213, -1.015e-4
-1.212, -1.034e-4
-1.211, -1.045e-4
-1.210, -1.050e-4
-1.209, -1.060e-4
-1.208, -1.063e-4
-1.207, -1.078e-4
-1.206, -1.091e-4
-1.205, -1.094e-4
-1.204, -1.100e-4
-1.203, -1.110e-4
-1.202, -1.122e-4
-1.201, -1.138e-4
-1.200, -1.137e-4
-1.199, -1.138e-4
-1.198, -1.150e-4
-1.197, -1.159e-4
-1.196, -1.172e-4
-1.195, -1.174e-4
-1.194, -1.172e-4
-1.193, -1.183e-4
-1.192, -1.193e-4
-1.191, -1.202e-4
-1.190, -1.209e-4
-1.189, -1.207e-4
-1.188, -1.215e-4
-1.187, -1.224e-4
-1.186, -1.228e-4
-1.185, -1.239e-4
-1.184, -1.237e-4
-1.183, -1.236e-4
-1.182, -1.252e-4
-1.181, -1.259e-4
-1.180, -1.261e-4
-1.179, -1.260e-4
-1.178, -1.270e-4
-1.177, -1.282e-4
-1.176, -1.282e-4
-1.175, -1.284e-4
-1.174, -1.285e-4
-1.173, -1.287e-4
-1.172, -1.300e-4
-1.171, -1.307e-4
-1.170, -1.308e-4
-1.169, -1.310e-4
-1.168, -1.308e-4
-1.167, -1.314e-4
-1.166, -1.330e-4
-1.165, -1.325e-4
-1.164, -1.327e-4
-1.163, -1.332e-4
-1.162, -1.339e-4
-1.161, -1.351e-4
-1.160, -1.348e-4
-1.159, -1.349e-4
-1.158, -1.356e-4
-1.157, -1.360e-4
-1.156, -1.364e-4
-1.155, -1.363e-4
-1.154, -1.364e-4
-1.153, -1.373e-4
-1.152, -1.381e-4
-1.151, -1.385e-4
-1.150, -1.389e-4
-1.149, -1.383e-4
-1.148, -1.386e-4
-1.147, -1.396e-4
-1.146, -1.400e-4
-1.145, -1.405e-4
-1.144, -1.398e-4
-1.143, -1.405e-4
-1.142, -1.415e-4
-1.141, -1.417e-4
-1.140, -1.422e-4
-1.139, -1.418e-4
-1.138, -1.424e-4
-1.137, -1.433e-4
-1.136, -1.433e-4
-1.135, -1.438e-4
-1.134, -1.432e-4
-1.133, -1.435e-4
-1.132, -1.446e-4
-1.131, -1.450e-4
-1.130, -1.452e-4
-1.129, -1.451e-4
-1.128, -1.450e-4
-1.127, -1.463e-4
-1.126, -1.469e-4
-1.125, -1.469e-4
-1.124, -1.467e-4
-1.123, -1.468e-4
-1.122, -1.477e-4
-1.121, -1.495e-4
-1.120, -1.483e-4
-1.119, -1.485e-4
-1.118, -1.491e-4
-1.117, -1.489e-4
-1.116, -1.497e-4
-1.115, -1.497e-4
-1.114, -1.495e-4
-1.113, -1.499e-4
-1.112, -1.507e-4
-1.111, -1.513e-4
-1.110, -1.516e-4
-1.109, -1.510e-4
-1.108, -1.513e-4
-1.107, -1.520e-4
-1.106, -1.525e-4
-1.105, -1.531e-4
-1.104, -1.522e-4
-1.103, -1.527e-4
-1.102, -1.540e-4
-1.101, -1.541e-4
-1.100, -1.543e-4
-1.099, -1.538e-4
-1.098, -1.541e-4
-1.097, -1.553e-4
-1.096, -1.553e-4
-1.095, -1.556e-4
-1.094, -1.555e-4
-1.093, -1.552e-4
-1.092, -1.561e-4
-1.091, -1.568e-4
-1.090, -1.566e-4
-1.089, -1.569e-4
-1.088, -1.568e-4
-1.087, -1.578e-4
-1.086, -1.589e-4
-1.085, -1.583e-4
-1.084, -1.581e-4
-1.083, -1.587e-4
-1.082, -1.589e-4
-1.081, -1.599e-4
-1.080, -1.596e-4
-1.079, -1.591e-4
-1.078, -1.600e-4
-1.077, -1.605e-4
-1.076, -1.614e-4
-1.075, -1.620e-4
-1.074, -1.613e-4
-1.073, -1.616e-4
-1.072, -1.618e-4
-1.071, -1.624e-4
-1.070, -1.632e-4
-1.069, -1.624e-4
-1.068, -1.631e-4
-1.067, -1.641e-4
-1.066, -1.640e-4
-1.065, -1.647e-4
-1.064, -1.641e-4
-1.063, -1.643e-4
-1.062, -1.659e-4
-1.061, -1.661e-4
-1.060, -1.661e-4
-1.059, -1.659e-4
-1.058, -1.667e-4
-1.057, -1.677e-4
-1.056, -1.676e-4
-1.055, -1.682e-4
-1.054, -1.682e-4
-1.053, -1.684e-4
-1.052, -1.699e-4
-1.051, -1.705e-4
-1.050, -1.706e-4
-1.049, -1.709e-4
-1.048, -1.707e-4
-1.047, -1.714e-4
-1.046, -1.725e-4
-1.045, -1.724e-4
-1.044, -1.727e-4
-1.043, -1.731e-4
-1.042, -1.739e-4
-1.041, -1.751e-4
-1.040, -1.752e-4
-1.039, -1.752e-4
-1.038, -1.759e-4
-1.037, -1.767e-4
-1.036, -1.777e-4
-1.035, -1.783e-4
-1.034, -1.779e-4
-1.033, -1.792e-4
-1.032, -1.800e-4
-1.031, -1.807e-4
-1.030, -1.816e-4
-1.029, -1.818e-4
-1.028, -1.826e-4
-1.027, -1.840e-4
-1.026, -1.848e-4
-1.025, -1.857e-4
-1.024, -1.859e-4
-1.023, -1.867e-4
-1.022, -1.880e-4
-1.021, -1.889e-4
-1.020, -1.900e-4
-1.019, -1.906e-4
-1.018, -1.915e-4
-1.017, -1.931e-4
-1.016, -1.938e-4
-1.015, -1.951e-4
-1.014, -1.960e-4
-1.013, -1.965e-4
-1.012, -1.984e-4
-1.011, -2.001e-4
-1.010, -2.012e-4
-1.009, -2.025e-4
-1.008, -2.034e-4
-1.007, -2.054e-4
-1.006, -2.076e-4
-1.005, -2.084e-4
-1.004, -2.099e-4
-1.003, -2.116e-4
-1.002, -2.134e-4
-1.001, -2.161e-4
-1.000, -1.270e-4
-1.001, -3.207e-5
-1.002, 1.051e-6
-1.003, 1.697e-5
-1.004, 2.795e-5
-1.005, 3.592e-5
-1.006, 4.297e-5
-1.007, 4.887e-5
-1.008, 5.287e-5
-1.009, 5.739e-5
-1.010, 6.154e-5
-1.011, 6.532e-5
-1.012, 6.922e-5
-1.013, 7.106e-5
-1.014, 7.381e-5
-1.015, 7.670e-5
-1.016, 7.903e-5
-1.017, 8.169e-5
-1.018, 8.306e-5
-1.019, 8.410e-5
-1.020, 8.653e-5
-1.021, 8.839e-5
-1.022, 8.998e-5
-1.023, 9.092e-5
-1.024, 9.228e-5
-1.025, 9.324e-5
-1.026, 9.484e-5
-1.027, 9.555e-5
-1.028, 9.654e-5
-1.029, 9.668e-5
-1.030, 9.773e-5
-1.031, 9.958e-5
-1.032, 9.985e-5
-1.033, 1.002e-4
-1.034, 1.008e-4
-1.035, 1.013e-4
-1.036, 1.029e-4
-1.037, 1.032e-4
-1.038, 1.033e-4
-1.039, 1.034e-4
-1.040, 1.040e-4
-1.041, 1.056e-4
-1.042, 1.057e-4
-1.043, 1.053e-4
-1.044, 1.058e-4
-1.045, 1.060e-4
-1.046, 1.067e-4
-1.047, 1.076e-4
-1.048, 1.072e-4
-1.049, 1.076e-4
-1.050, 1.079e-4
-1.051, 1.086e-4
-1.052, 1.089e-4
-1.053, 1.085e-4
-1.054, 1.087e-4
-1.055, 1.094e-4
-1.056, 1.098e-4
-1.057, 1.103e-4
-1.058, 1.101e-4
-1.059, 1.098e-4
-1.060, 1.106e-4
-1.061, 1.110e-4
-1.062, 1.113e-4
-1.063, 1.113e-4
-1.064, 1.106e-4
-1.065, 1.114e-4
-1.066, 1.121e-4
-1.067, 1.120e-4
-1.068, 1.120e-4
-1.069, 1.118e-4
-1.070, 1.120e-4
-1.071, 1.130e-4
-1.072, 1.129e-4
-1.073, 1.130e-4
-1.074, 1.127e-4
-1.075, 1.132e-4
-1.076, 1.139e-4
-1.077, 1.137e-4
-1.078, 1.131e-4
-1.079, 1.130e-4
-1.080, 1.129e-4
-1.081, 1.138e-4
-1.082, 1.145e-4
-1.083, 1.135e-4
-1.084, 1.139e-4
-1.085, 1.138e-4
-1.086, 1.145e-4
-1.087, 1.151e-4
-1.088, 1.142e-4
-1.089, 1.141e-4
-1.090, 1.146e-4
-1.091, 1.149e-4
-1.092, 1.154e-4
-1.093, 1.149e-4
-1.094, 1.148e-4
-1.095, 1.154e-4
-1.096, 1.158e-4
-1.097, 1.161e-4
-1.098, 1.155e-4
-1.099, 1.152e-4
-1.100, 1.162e-4
-1.101, 1.163e-4
-1.102, 1.165e-4
-1.103, 1.164e-4
-1.104, 1.158e-4
-1.105, 1.164e-4
-1.106, 1.171e-4
-1.107, 1.170e-4
-1.108, 1.168e-4
-1.109, 1.165e-4
-1.110, 1.169e-4
-1.111, 1.178e-4
-1.112, 1.177e-4
-1.113, 1.173e-4
-1.114, 1.172e-4
-1.115, 1.175e-4
-1.116, 1.183e-4
-1.117, 1.180e-4
-1.118, 1.180e-4
-1.119, 1.178e-4
-1.120, 1.181e-4
-1.121, 1.187e-4
-1.122, 1.194e-4
-1.123, 1.185e-4
-1.124, 1.187e-4
-1.125, 1.184e-4
-1.126, 1.196e-4
-1.127, 1.202e-4
-1.128, 1.191e-4
-1.129, 1.191e-4
-1.130, 1.197e-4
-1.131, 1.199e-4
-1.132, 1.208e-4
-1.133, 1.198e-4
-1.134, 1.197e-4
-1.135, 1.204e-4
-1.136, 1.205e-4
-1.137, 1.212e-4
-1.138, 1.210e-4
-1.139, 1.208e-4
-1.140, 1.210e-4
-1.141, 1.216e-4
-1.142, 1.218e-4
-1.143, 1.219e-4
-1.144, 1.212e-4
-1.145, 1.220e-4
-1.146, 1.224e-4
-1.147, 1.224e-4
-1.148, 1.226e-4
-1.149, 1.221e-4
-1.150, 1.229e-4
-1.151, 1.240e-4
-1.152, 1.239e-4
-1.153, 1.231e-4
-1.154, 1.233e-4
-1.155, 1.235e-4
-1.156, 1.245e-4
-1.157, 1.244e-4
-1.158, 1.244e-4
-1.159, 1.246e-4
-1.160, 1.245e-4
-1.161, 1.254e-4
-1.162, 1.258e-4
-1.163, 1.256e-4
-1.164, 1.256e-4
-1.165, 1.260e-4
-1.166, 1.266e-4
-1.167, 1.272e-4
-1.168, 1.268e-4
-1.169, 1.269e-4
-1.170, 1.273e-4
-1.171, 1.282e-4
-1.172, 1.289e-4
-1.173, 1.281e-4
-1.174, 1.281e-4
-1.175, 1.292e-4
-1.176, 1.295e-4
-1.177, 1.308e-4
-1.178, 1.305e-4
-1.179, 1.300e-4
-1.180, 1.308e-4
-1.181, 1.315e-4
-1.182, 1.320e-4
-1.183, 1.323e-4
-1.184, 1.318e-4
-1.185, 1.328e-4
-1.186, 1.337e-4
-1.187, 1.340e-4
-1.188, 1.345e-4
-1.189, 1.340e-4
-1.190, 1.345e-4
-1.191, 1.362e-4
-1.192, 1.366e-4
-1.193, 1.369e-4
-1.194, 1.367e-4
-1.195, 1.374e-4
-1.196, 1.388e-4
-1.197, 1.393e-4
-1.198, 1.396e-4
-1.199, 1.399e-4
-1.200, 1.403e-4
-1.201, 1.419e-4
-1.202, 1.429e-4
-1.203, 1.427e-4
-1.204, 1.435e-4
-1.205, 1.442e-4
-1.206, 1.452e-4
-1.207, 1.466e-4
-1.208, 1.463e-4
-1.209, 1.471e-4
-1.210, 1.485e-4
-1.211, 1.496e-4
-1.212, 1.511e-4
-1.213, 1.507e-4
-1.214, 1.517e-4
-1.215, 1.529e-4
-1.216, 1.545e-4
-1.217, 1.557e-4
-1.218, 1.563e-4
-1.219, 1.568e-4
-1.220, 1.587e-4
-1.221, 1.601e-4
-1.222, 1.617e-4
-1.223, 1.626e-4
-1.224, 1.632e-4
-1.225, 1.649e-4
-1.226, 1.667e-4
-1.227, 1.682e-4
-1.228, 1.697e-4
-1.229, 1.719e-4
-1.230, 1.724e-4
-1.231, 1.752e-4
-1.232, 1.760e-4
-1.233, 1.775e-4
-1.234, 1.788e-4
-1.235, 1.810e-4
-1.236, 1.837e-4
-1.237, 1.853e-4
-1.238, 1.865e-4
-1.239, 1.886e-4
-1.240, 1.907e-4
-1.241, 1.936e-4
-1.242, 1.960e-4
-1.243, 1.974e-4
-1.244, 2.001e-4
-1.245, 2.016e-4
-1.246, 2.056e-4
-1.247, 2.081e-4
-1.248, 2.099e-4
-1.249, 2.123e-4
-1.250, 2.161e-4
-1.251, 2.188e-4
-1.252, 2.222e-4
-1.253, 2.247e-4
-1.254, 2.278e-4
-1.255, 2.313e-4
-1.256, 2.344e-4
-1.257, 2.389e-4
-1.258, 2.415e-4
-1.259, 2.441e-4
-1.260, 2.490e-4
-1.261, 2.530e-4
-1.262, 2.563e-4
-1.263, 2.619e-4
-1.264, 2.658e-4
-1.265, 2.696e-4
-1.266, 2.743e-4
-1.267, 2.787e-4
-1.268, 2.835e-4
-1.269, 2.878e-4
-1.270, 2.930e-4
-1.271, 2.983e-4
-1.272, 3.037e-4
-1.273, 3.084e-4
-1.274, 3.139e-4
-1.275, 3.195e-4
-1.276, 3.262e-4
-1.277, 3.322e-4
-1.278, 3.377e-4
-1.279, 3.435e-4
-1.280, 3.510e-4
-1.281, 3.581e-4
-1.282, 3.645e-4
-1.283, 3.705e-4
-1.284, 3.784e-4
-1.285, 3.854e-4
-1.286, 3.937e-4
-1.287, 4.027e-4
-1.288, 4.087e-4
-1.289, 4.168e-4
-1.290, 4.248e-4
-1.291, 4.336e-4
-1.292, 4.436e-4
-1.293, 4.518e-4
-1.294, 4.602e-4
-1.295, 4.701e-4
-1.296, 4.802e-4
-1.297, 4.907e-4
-1.298, 5.005e-4
-1.299, 5.111e-4
-1.300, 5.220e-4
-1.301, 5.324e-4
-1.302, 5.438e-4
-1.303, 5.562e-4
-1.304, 5.660e-4
-1.305, 5.788e-4
-1.306, 5.917e-4
-1.307, 6.045e-4
-1.308, 6.169e-4
-1.309, 6.296e-4
-1.310, 6.435e-4
-1.311, 6.583e-4
-1.312, 6.725e-4
-1.313, 6.858e-4
-1.314, 7.005e-4
-1.315, 7.166e-4
-1.316, 7.329e-4
-1.317, 7.480e-4
-1.318, 7.635e-4
-1.319, 7.797e-4
-1.320, 7.967e-4
-1.321, 8.144e-4
-1.322, 8.324e-4
-1.323, 8.495e-4
-1.324, 8.669e-4
-1.325, 8.854e-4
-1.326, 9.039e-4
-1.327, 9.248e-4
-1.328, 9.445e-4
-1.329, 9.644e-4
-1.330, 9.846e-4
-1.331, 1.006e-3
-1.332, 1.028e-3
-1.333, 1.049e-3
-1.334, 1.071e-3
-1.335, 1.093e-3
-1.336, 1.116e-3
-1.337, 1.140e-3
-1.338, 1.163e-3
-1.339, 1.186e-3
-1.340, 1.213e-3
-1.341, 1.237e-3
-1.342, 1.263e-3
-1.343, 1.288e-3
-1.344, 1.314e-3
-1.345, 1.341e-3
-1.346, 1.369e-3
-1.347, 1.396e-3
-1.348, 1.423e-3
-1.349, 1.452e-3
-1.350, 1.480e-3
-1.351, 1.510e-3
-1.352, 1.541e-3
-1.353, 1.573e-3
-1.354, 1.600e-3
-1.355, 1.631e-3
-1.356, 1.665e-3
-1.357, 1.695e-3
-1.358, 1.727e-3
-1.359, 1.760e-3
-1.360, 1.793e-3
-1.361, 1.829e-3
-1.362, 1.863e-3
-1.363, 1.895e-3
-1.364, 1.932e-3
-1.365, 1.964e-3
-1.366, 2.000e-3
-1.367, 2.039e-3
-1.368, 2.074e-3
-1.369, 2.112e-3
-1.370, 2.151e-3
-1.371, 2.186e-3
-1.372, 2.229e-3
-1.373, 2.268e-3
-1.374, 2.306e-3
-1.375, 2.349e-3
-1.376, 2.389e-3
-1.377, 2.428e-3
-1.378, 2.467e-3
-1.379, 2.507e-3
-1.380, 2.553e-3
-1.381, 2.595e-3
-1.382, 2.641e-3
-1.383, 2.684e-3
-1.384, 2.725e-3
-1.385, 2.769e-3
-1.386, 2.814e-3
-1.387, 2.859e-3
-1.388, 2.905e-3
-1.389, 2.952e-3
-1.390, 3.001e-3
-1.391, 3.047e-3
-1.392, 3.093e-3
-1.393, 3.140e-3
-1.394, 3.186e-3
-1.395, 3.233e-3
-1.396, 3.283e-3
-1.397, 3.330e-3
-1.398, 3.380e-3
-1.399, 3.430e-3
-1.400, 3.481e-3
-1.401, 3.533e-3
-1.402, 3.584e-3
-1.403, 3.638e-3
-1.404, 3.692e-3
-1.405, 3.742e-3
-1.406, 3.795e-3
-1.407, 3.851e-3
-1.408, 3.903e-3
-1.409, 3.958e-3
-1.410, 4.009e-3
-1.411, 4.063e-3
-1.412, 4.128e-3
-1.413, 4.189e-3
-1.414, 4.242e-3
-1.415, 4.301e-3
-1.416, 4.350e-3
-1.417, 4.406e-3
-1.418, 4.465e-3
-1.419, 4.519e-3
-1.420, 4.577e-3
-1.421, 4.637e-3
-1.422, 4.696e-3
-1.423, 4.760e-3
-1.424, 4.827e-3
-1.425, 4.884e-3
-1.426, 4.946e-3
-1.427, 5.000e-3
-1.428, 5.058e-3
-1.429, 5.114e-3
-1.430, 5.166e-3
-1.431, 5.228e-3
-1.432, 5.290e-3
-1.433, 5.351e-3
-1.434, 5.413e-3
-1.435, 5.476e-3
-1.436, 5.537e-3
-1.437, 5.601e-3
-1.438, 5.656e-3
-1.439, 5.722e-3
-1.440, 5.782e-3
-1.441, 5.849e-3
-1.442, 5.919e-3
-1.443, 5.982e-3
-1.444, 6.056e-3
-1.445, 6.130e-3
-1.446, 6.194e-3
-1.447, 6.260e-3
-1.448, 6.329e-3
-1.449, 6.394e-3
-1.450, 6.463e-3
-1.451, 6.530e-3
-1.452, 6.593e-3
-1.453, 6.666e-3
-1.454, 6.734e-3
-1.455, 6.797e-3
-1.456, 6.871e-3
-1.457, 6.941e-3
-1.458, 7.009e-3
-1.459, 7.066e-3
-1.460, 7.155e-3
-1.461, 7.216e-3
-1.462, 7.302e-3
-1.463, 7.369e-3
-1.464, 7.428e-3
-1.465, 7.504e-3
-1.466, 7.585e-3
-1.467, 7.648e-3
-1.468, 7.714e-3
-1.469, 7.775e-3
-1.470, 7.855e-3
-1.471, 7.922e-3
-1.472, 7.981e-3
-1.473, 8.045e-3
-1.474, 8.121e-3
-1.475, 8.185e-3
-1.476, 8.264e-3
-1.477, 8.334e-3
-1.478, 8.393e-3
-1.479, 8.466e-3
-1.480, 8.533e-3
-1.481, 8.601e-3
-1.482, 8.677e-3
-1.483, 8.752e-3
-1.484, 8.818e-3
-1.485, 8.889e-3
-1.486, 8.953e-3
-1.487, 9.022e-3
-1.488, 9.107e-3
-1.489, 9.176e-3
-1.490, 9.248e-3
-1.491, 9.298e-3
-1.492, 9.356e-3
-1.493, 9.413e-3
-1.494, 9.463e-3
-1.495, 9.529e-3
-1.496, 9.596e-3
-1.497, 9.671e-3
-1.498, 9.763e-3
-1.499, 9.858e-3
-1.500, 9.789e-3
-1.499, 9.656e-3
-1.498, 9.572e-3
-1.497, 9.434e-3
-1.496, 9.314e-3
-1.495, 9.207e-3
-1.494, 9.109e-3
-1.493, 8.997e-3
-1.492, 8.889e-3
-1.491, 8.786e-3
-1.490, 8.698e-3
-1.489, 8.593e-3
-1.488, 8.529e-3
-1.487, 8.422e-3
-1.486, 8.352e-3
-1.485, 8.270e-3
-1.484, 8.177e-3
-1.483, 8.103e-3
-1.482, 8.039e-3
-1.481, 7.969e-3
-1.480, 7.895e-3
-1.479, 7.817e-3
-1.478, 7.732e-3
-1.477, 7.655e-3
-1.476, 7.553e-3
-1.475, 7.475e-3
-1.474, 7.371e-3
-1.473, 7.273e-3
-1.472, 7.198e-3
-1.471, 7.141e-3
-1.470, 7.036e-3
-1.469, 6.940e-3
-1.468, 6.855e-3
-1.467, 6.782e-3
-1.466, 6.697e-3
-1.465, 6.625e-3
-1.464, 6.554e-3
-1.463, 6.484e-3
-1.462, 6.414e-3
-1.461, 6.325e-3
-1.460, 6.242e-3
-1.459, 6.167e-3
-1.458, 6.086e-3
-1.457, 6.007e-3
-1.456, 5.942e-3
-1.455, 5.893e-3
-1.454, 5.826e-3
-1.453, 5.757e-3
-1.452, 5.683e-3
-1.451, 5.612e-3
-1.450, 5.544e-3
-1.449, 5.488e-3
-1.448, 5.412e-3
-1.447, 5.345e-3
-1.446, 5.288e-3
-1.445, 5.224e-3
-1.444, 5.152e-3
-1.443, 5.101e-3
-1.442, 5.039e-3
-1.441, 4.986e-3
-1.440, 4.951e-3
-1.439, 4.890e-3
-1.438, 4.820e-3
-1.437, 4.754e-3
-1.436, 4.687e-3
-1.435, 4.625e-3
-1.434, 4.562e-3
-1.433, 4.500e-3
-1.432, 4.428e-3
-1.431, 4.388e-3
-1.430, 4.321e-3
-1.429, 4.252e-3
-1.428, 4.191e-3
-1.427, 4.124e-3
-1.426, 4.066e-3
-1.425, 4.005e-3
-1.424, 3.946e-3
-1.423, 3.890e-3
-1.422, 3.837e-3
-1.421, 3.786e-3
-1.420, 3.736e-3
-1.419, 3.678e-3
-1.418, 3.631e-3
-1.417, 3.578e-3
-1.416, 3.521e-3
-1.415, 3.473e-3
-1.414, 3.423e-3
-1.413, 3.404e-3
-1.412, 3.370e-3
-1.411, 3.319e-3
-1.410, 3.265e-3
-1.409, 3.211e-3
-1.408, 3.161e-3
-1.407, 3.111e-3
-1.406, 3.064e-3
-1.405, 3.017e-3
-1.404, 2.970e-3
-1.403, 2.925e-3
-1.402, 2.878e-3
-1.401, 2.828e-3
-1.400, 2.781e-3
-1.399, 2.729e-3
-1.398, 2.686e-3
-1.397, 2.643e-3
-1.396, 2.596e-3
-1.395, 2.549e-3
-1.394, 2.505e-3
-1.393, 2.464e-3
-1.392, 2.419e-3
-1.391, 2.378e-3
-1.390, 2.339e-3
-1.389, 2.301e-3
-1.388, 2.258e-3
-1.387, 2.216e-3
-1.386, 2.178e-3
-1.385, 2.136e-3
-1.384, 2.098e-3
-1.383, 2.061e-3
-1.382, 2.022e-3
-1.381, 1.982e-3
-1.380, 1.943e-3
-1.379, 1.908e-3
-1.378, 1.877e-3
-1.377, 1.841e-3
-1.376, 1.802e-3
-1.375, 1.768e-3
-1.374, 1.736e-3
-1.373, 1.702e-3
-1.372, 1.668e-3
-1.371, 1.634e-3
-1.370, 1.607e-3
-1.369, 1.572e-3
-1.368, 1.540e-3
-1.367, 1.510e-3
-1.366, 1.479e-3
-1.365, 1.448e-3
-1.364, 1.418e-3
-1.363, 1.390e-3
-1.362, 1.360e-3
-1.361, 1.330e-3
-1.360, 1.303e-3
-1.359, 1.276e-3
-1.358, 1.248e-3
-1.357, 1.221e-3
-1.356, 1.194e-3
-1.355, 1.167e-3
-1.354, 1.141e-3
-1.353, 1.116e-3
-1.352, 1.091e-3
-1.351, 1.068e-3
-1.350, 1.043e-3
-1.349, 1.024e-3
-1.348, 1.001e-3
-1.347, 9.766e-4
-1.346, 9.519e-4
-1.345, 9.290e-4
-1.344, 9.066e-4
-1.343, 8.853e-4
-1.342, 8.657e-4
-1.341, 8.461e-4
-1.340, 8.234e-4
-1.339, 8.036e-4
-1.338, 7.836e-4
-1.337, 7.633e-4
-1.336, 7.428e-4
-1.335, 7.240e-4
-1.334, 7.059e-4
-1.333, 6.882e-4
-1.332, 6.695e-4
-1.331, 6.505e-4
-1.330, 6.336e-4
-1.329, 6.166e-4
-1.328, 6.007e-4
-1.327, 5.840e-4
-1.326, 5.659e-4
-1.325, 5.499e-4
-1.324, 5.346e-4
-1.323, 5.196e-4
-1.322, 5.051e-4
-1.321, 4.900e-4
-1.320, 4.761e-4
-1.319, 4.608e-4
-1.318, 4.472e-4
-1.317, 4.343e-4
-1.316, 4.199e-4
-1.315, 4.067e-4
-1.314, 3.944e-4
-1.313, 3.817e-4
-1.312, 3.700e-4
-1.311, 3.571e-4
-1.310, 3.449e-4
-1.309, 3.349e-4
-1.308, 3.231e-4
-1.307, 3.115e-4
-1.306, 3.002e-4
-1.305, 2.892e-4
-1.304, 2.794e-4
-1.303, 2.690e-4
-1.302, 2.588e-4
-1.301, 2.492e-4
-1.300, 2.392e-4
-1.299, 2.301e-4
-1.298, 2.215e-4
-1.297, 2.119e-4
-1.296, 2.028e-4
-1.295, 1.942e-4
-1.294, 1.858e-4
-1.293, 1.783e-4
-1.292, 1.701e-4
-1.291, 1.616e-4
-1.290, 1.540e-4
-1.289, 1.465e-4
-1.288, 1.402e-4
-1.287, 1.326e-4
-1.286, 1.250e-4
-1.285, 1.187e-4
-1.284, 1.121e-4
-1.283, 1.058e-4
-1.282, 9.991e-5
-1.281, 9.248e-5
-1.280, 8.601e-5
-1.279, 8.057e-5
-1.278, 7.522e-5
-1.277, 7.002e-5
-1.276, 6.353e-5
-1.275, 5.814e-5
-1.274, 5.332e-5
-1.273, 4.865e-5
-1.272, 4.388e-5
-1.271, 3.859e-5
-1.270, 3.354e-5
-1.269, 2.952e-5
-1.268, 2.508e-5
-1.267, 2.082e-5
-1.266, 1.626e-5
-1.265, 1.157e-5
-1.264, 8.035e-6
-1.263, 4.614e-6
-1.262, 4.211e-7
-1.261, -3.266e-6
-1.260, -7.494e-6
-1.259, -1.070e-5
-1.258, -1.367e-5
-1.257, -1.733e-5
-1.256, -2.091e-5
-1.255, -2.437e-5
-1.254, -2.732e-5
-1.253, -2.951e-5
-1.252, -3.279e-5
-1.251, -3.598e-5
-1.250, -3.875e-5
-1.249, -4.165e-5
-1.248, -4.344e-5
-1.247, -4.619e-5
-1.246, -4.946e-5
-1.245, -5.168e-5
-1.244, -5.397e-5
-1.243, -5.566e-5
-1.242, -5.769e-5
-1.241, -6.118e-5
-1.240, -6.292e-5
-1.239, -6.477e-5
-1.238, -6.651e-5
-1.237, -6.830e-5
-1.236, -7.085e-5
-1.235, -7.269e-5
-1.234, -7.422e-5
-1.233, -7.571e-5
-1.232, -7.708e-5
-1.231, -7.930e-5
-1.230, -8.159e-5
-1.229, -8.449e-5
-1.228, -8.454e-5
-1.227, -8.577e-5
-1.226, -8.714e-5
-1.225, -8.949e-5
-1.224, -8.984e-5
-1.223, -9.073e-5
-1.222, -9.235e-5
-1.221, -9.394e-5
-1.220, -9.537e-5
-1.219, -9.638e-5
-1.218, -9.657e-5
-1.217, -9.840e-5
-1.216, -9.954e-5
-1.215, -1.010e-4
-1.214, -1.021e-4
-1.213, -1.023e-4
-1.212, -1.036e-4
-1.211, -1.054e-4
-1.210, -1.068e-4
-1.209, -1.077e-4
-1.208, -1.074e-4
-1.207, -1.085e-4
-1.206, -1.100e-4
-1.205, -1.107e-4
-1.204, -1.115e-4
-1.203, -1.119e-4
-1.202, -1.126e-4
-1.201, -1.142e-4
-1.200, -1.145e-4
-1.199, -1.150e-4
-1.198, -1.157e-4
-1.197, -1.158e-4
-1.196, -1.171e-4
-1.195, -1.181e-4
-1.194, -1.182e-4
-1.193, -1.186e-4
-1.192, -1.187e-4
-1.191, -1.202e-4
-1.190, -1.213e-4
-1.189, -1.214e-4
-1.188, -1.216e-4
-1.187, -1.221e-4
-1.186, -1.229e-4
-1.185, -1.243e-4
-1.184, -1.239e-4
-1.183, -1.240e-4
-1.182, -1.250e-4
-1.181, -1.256e-4
-1.180, -1.267e-4
-1.179, -1.269e-4
-1.178, -1.274e-4
-1.177, -1.280e-4
-1.176, -1.281e-4
-1.175, -1.290e-4
-1.174, -1.292e-4
-1.173, -1.287e-4
-1.172, -1.295e-4
-1.171, -1.305e-4
-1.170, -1.313e-4
-1.169, -1.314e-4
-1.168, -1.309e-4
-1.167, -1.315e-4
-1.166, -1.326e-4
-1.165, -1.327e-4
-1.164, -1.333e-4
-1.163, -1.331e-4
-1.162, -1.332e-4
-1.161, -1.342e-4
-1.160, -1.346e-4
-1.159, -1.350e-4
-1.158, -1.354e-4
-1.157, -1.347e-4
-1.156, -1.363e-4
-1.155, -1.367e-4
-1.154, -1.364e-4
-1.153, -1.370e-4
-1.152, -1.370e-4
-1.151, -1.378e-4
-1.150, -1.390e-4
-1.149, -1.387e-4
-1.148, -1.384e-4
-1.147, -1.387e-4
-1.146, -1.396e-4
-1.145, -1.406e-4
-1.144, -1.401e-4
-1.143, -1.402e-4
-1.142, -1.406e-4
-1.141, -1.409e-4
-1.140, -1.418e-4
-1.139, -1.423e-4
-1.138, -1.416e-4
-1.137, -1.420e-4
-1.136, -1.428e-4
-1.135, -1.436e-4
-1.134, -1.437e-4
-1.133, -1.434e-4
-1.132, -1.438e-4
-1.131, -1.446e-4
-1.130, -1.448e-4
-1.129, -1.453e-4
-1.128, -1.448e-4
-1.127, -1.455e-4
-1.126, -1.461e-4
-1.125, -1.466e-4
-1.124, -1.468e-4
-1.123, -1.465e-4
-1.122, -1.465e-4
-1.121, -1.478e-4
-1.120, -1.479e-4
-1.119, -1.484e-4
-1.118, -1.485e-4
-1.117, -1.480e-4
-1.116, -1.492e-4
-1.115, -1.497e-4
-1.114, -1.500e-4
-1.113, -1.502e-4
-1.112, -1.499e-4
-1.111, -1.505e-4
-1.110, -1.514e-4
-1.109, -1.510e-4
-1.108, -1.509e-4
-1.107, -1.513e-4
-1.106, -1.520e-4
-1.105, -1.529e-4
-1.104, -1.524e-4
-1.103, -1.526e-4
-1.102, -1.527e-4
-1.101, -1.534e-4
-1.100, -1.548e-4
-1.099, -1.544e-4
-1.098, -1.538e-4
-1.097, -1.544e-4
-1.096, -1.547e-4
-1.095, -1.554e-4
-1.094, -1.560e-4
-1.093, -1.558e-4
-1.092, -1.560e-4
-1.091, -1.568e-4
-1.090, -1.573e-4
-1.089, -1.575e-4
-1.088, -1.570e-4
-1.087, -1.569e-4
-1.086, -1.583e-4
-1.085, -1.581e-4
-1.084, -1.583e-4
-1.083, -1.581e-4
-1.082, -1.585e-4
-1.081, -1.594e-4
-1.080, -1.599e-4
-1.079, -1.601e-4
-1.078, -1.599e-4
-1.077, -1.597e-4
-1.076, -1.607e-4
-1.075, -1.618e-4
-1.074, -1.615e-4
-1.073, -1.616e-4
-1.072, -1.609e-4
-1.071, -1.619e-4
-1.070, -1.634e-4
-1.069, -1.629e-4
-1.068, -1.627e-4
-1.067, -1.630e-4
-1.066, -1.637e-4
-1.065, -1.648e-4
-1.064, -1.646e-4
-1.063, -1.645e-4
-1.062, -1.648e-4
-1.061, -1.650e-4
-1.060, -1.664e-4
-1.059, -1.665e-4
-1.058, -1.663e-4
-1.057, -1.667e-4
-1.056, -1.672e-4
-1.055, -1.685e-4
-1.054, -1.686e-4
-1.053, -1.680e-4
-1.052, -1.687e-4
-1.051, -1.695e-4
-1.050, -1.705e-4
-1.049, -1.716e-4
-1.048, -1.707e-4
-1.047, -1.711e-4
-1.046, -1.721e-4
-1.045, -1.725e-4
-1.044, -1.733e-4
-1.043, -1.733e-4
-1.042, -1.733e-4
-1.041, -1.753e-4
-1.040, -1.753e-4
-1.039, -1.761e-4
-1.038, -1.763e-4
-1.037, -1.765e-4
-1.036, -1.777e-4
-1.035, -1.787e-4
-1.034, -1.792e-4
-1.033, -1.797e-4
-1.032, -1.796e-4
-1.031, -1.809e-4
-1.030, -1.825e-4
-1.029, -1.825e-4
-1.028, -1.828e-4
-1.027, -1.837e-4
-1.026, -1.846e-4
-1.025, -1.862e-4
-1.024, -1.873e-4
-1.023, -1.874e-4
-1.022, -1.885e-4
-1.021, -1.894e-4
-1.020, -1.911e-4
-1.019, -1.919e-4
-1.018, -1.924e-4
-1.017, -1.934e-4
-1.016, -1.945e-4
-1.015, -1.965e-4
-1.014, -1.978e-4
-1.013, -1.987e-4
-1.012, -2.000e-4
-1.011, -2.016e-4
-1.010, -2.031e-4
-1.009, -2.047e-4
-1.008, -2.049e-4
-1.007, -2.068e-4
-1.006, -2.091e-4
-1.005, -2.108e-4
-1.004, -2.127e-4
-1.003, -2.139e-4
-1.002, -2.150e-4
-1.001, -2.181e-4
