Potential V vs RHE, Current mA cm-2
0.013299999999999867,6.1907766482094
0.012299999999999978,4.184716025000778
0.011299999999999866,2.178655401792157
0.010299999999999976,0.2594580523952477
0.009299999999999864,-1.6156003044458718
0.008299999999999974,-3.273641947887695
0.007299999999999862,-4.843971490737885
0.006299999999999972,-6.152579443113044
0.00529999999999986,-7.329619244600755
0.0042999999999999705,-8.376505606500881
0.0032999999999998586,-9.335679867809377
0.0022999999999999687,-10.470278330301136
0.0012999999999998568,-11.473308641905447
0.00029999999999996696,-12.694204493688973
-0.000700000000000145,-13.916515056772363
-0.0017000000000000348,-15.137410908555893
-0.0027000000000001467,-16.396503965435777
-0.0037000000000000366,-17.4433903273359
-0.0047000000000001485,-18.44783535024008
-0.005700000000000038,-19.2400736781645
-0.00670000000000015,-19.97572355409432
-0.00770000000000004,-20.626490752032236
-0.008700000000000152,-21.2065223849769
-0.009700000000000042,-21.98461359990267
-0.010700000000000154,-22.72026347583249
-0.011700000000000044,-23.682267159740714
-0.012700000000000156,-24.64427084364894
-0.013700000000000045,-25.60627452755716
-0.014700000000000157,-26.61071955046134
-0.015700000000000047,-27.34636942639116
-0.01670000000000016,-28.011283737327723
-0.01770000000000005,-28.478138466283188
-0.01870000000000016,-28.91669896924135
-0.01970000000000005,-29.27037679420761
-0.020700000000000163,-29.708937297165768
-0.021700000000000053,-30.274821817111786
-0.022700000000000164,-30.88314767605375
-0.023700000000000054,-31.661238890979522
-0.024700000000000166,-32.45347721890394
-0.025700000000000056,-33.288156885824314
-0.026700000000000168,-33.93892408376223
-0.027700000000000058,-34.58969128170015
-0.02870000000000017,-35.02825178465831
-0.02970000000000006,-35.38192960962457
-0.03070000000000017,-35.721460321592176
-0.03170000000000006,-35.94781412957058
-0.03270000000000017,-36.37222751953009
-0.03370000000000006,-36.81078802248826
-0.034700000000000175,-37.41911388143023
-0.035700000000000065,-38.08402819236679
-0.03670000000000018,-38.777236729300654
-0.03770000000000007,-39.51288660523048
-0.03870000000000018,-39.99388844718459
-0.03970000000000007,-40.4748902891387
-0.04070000000000018,-40.78612677510901
-0.04170000000000007,-40.99833347008877
-0.04270000000000018,-41.22468727806717
-0.04370000000000007,-41.43689397304693
-0.044700000000000184,-41.79057179801318
-0.045700000000000074,-42.130102509980794
-0.046700000000000186,-42.653545690930855
-0.047700000000000076,-43.23357732387552
-0.04870000000000019,-43.79946184382153
-0.04970000000000008,-44.36534636376755
-0.05070000000000019,-44.80390686672572
-0.05170000000000008,-45.143437578693316
-0.05270000000000019,-45.32735004767578
-0.05370000000000008,-45.497115403659585
-0.05470000000000019,-45.581998081651484
-0.05570000000000008,-45.79420477663124
-0.056700000000000195,-46.062999923605595
-0.057700000000000085,-46.45911908756781
-0.058700000000000196,-46.94012092952192
-0.059700000000000086,-47.40697565847737
-0.0607000000000002,-48.029448630417996
-0.06170000000000009,-48.45386202037751
-0.0627000000000002,-48.89242252333566
-0.06370000000000009,-49.118776331314066
-0.0647000000000002,-49.28854168729788
-0.06570000000000009,-49.41586570428573
-0.0667000000000002,-49.458307043281685
-0.0677000000000001,-49.72710219025603
-0.0687000000000002,-49.939308885235796
-0.0697000000000001,-50.37786938819396
-0.07070000000000021,-50.81642989115212
-0.0717000000000001,-51.33987307210218
-0.07270000000000021,-51.948198931044146
-0.0737000000000001,-52.30187675601041
-0.07470000000000021,-52.64140746797801
-0.0757000000000001,-52.82531993696047
-0.07670000000000021,-52.995085292944275
-0.0777000000000001,-53.12240930993213
-0.07870000000000021,-53.22143910092268
-0.0797000000000001,-53.433645795902436
-0.08070000000000022,-53.7873236208687
-0.0817000000000001,-54.31076680181876
-0.08270000000000022,-54.834209982768826
-0.08370000000000011,-55.400094502714836
-0.08470000000000022,-55.96597902266086
-0.08570000000000011,-56.404539525619015
-0.08670000000000022,-56.70162889859067
-0.08770000000000011,-56.927982706569075
-0.08870000000000022,-57.097748062552874
-0.08970000000000011,-57.182630740544774
-0.09070000000000022,-57.408984548523186
-0.09170000000000011,-57.66363258249889
-0.09270000000000023,-58.017310407465146
-0.09370000000000012,-58.54075358841522
-0.09470000000000023,-59.02175543036933
-0.09570000000000012,-59.6300812893113
-0.09670000000000023,-60.06864179226946
-0.09770000000000012,-60.49305518222897
-0.09870000000000023,-60.71940899020737
-0.09970000000000012,-60.84673300719523
-0.10070000000000023,-60.974057024183075
-0.10170000000000012,-61.01649836317903
-0.10270000000000024,-61.242852171157445
-0.10370000000000013,-61.412617527141244
-0.10470000000000024,-61.851178030099405
-0.10570000000000013,-62.28973853305756
-0.10670000000000024,-62.855623053003576
-0.10770000000000013,-63.59127292893339
-0.10870000000000024,-64.0722747708875
-0.10970000000000013,-64.51083527384567
-0.11070000000000024,-64.72304196882543
-0.11170000000000013,-64.90695443780788
-0.11270000000000002,-65.03427845479574
-0.11370000000000013,-65.11916113278764
-0.11470000000000002,-65.34551494076604
-0.11570000000000014,-65.64260431373769
-0.11670000000000003,-66.12360615569182
-0.11770000000000014,-66.64704933664189
-0.11870000000000003,-67.21293385658788
-0.11970000000000014,-67.693935698542
-0.12070000000000003,-68.13249620150016
-0.12170000000000014,-68.44373268747047
-0.12270000000000003,-68.65593938245023
-0.12370000000000014,-68.86814607742998
-0.12470000000000003,-69.05205854641244
-0.12570000000000014,-69.26426524139221
-0.12670000000000003,-69.6603844053544
-0.12770000000000015,-70.05650356931662
-0.12870000000000004,-70.66482942825859
-0.12970000000000015,-71.18827260920865
-0.13070000000000004,-71.83903980714656
-0.13170000000000015,-72.40492432709259
-0.13270000000000004,-72.8859261690467
-0.13370000000000015,-73.15472131602105
-0.13470000000000004,-73.2820453330089
-0.13570000000000015,-73.49425202798865
-0.13670000000000004,-73.57913470598055
-0.13770000000000016,-73.89037119195086
-0.13870000000000005,-74.14501922592657
-0.13970000000000016,-74.66846240687663
-0.14070000000000005,-75.19190558782671
-0.14170000000000016,-75.77193722077136
-0.14270000000000005,-76.42270441870929
-0.14370000000000016,-76.86126492166746
-0.14470000000000005,-77.34226676362155
-0.14570000000000016,-77.59691479759726
-0.14670000000000005,-77.90815128356756
-0.14770000000000016,-78.16279931754329
-0.14870000000000005,-78.43159446451764
-0.14970000000000017,-78.8135665154812
-0.15070000000000006,-79.20968567944341
-0.15170000000000017,-79.73312886039348
-0.15270000000000006,-80.34145471933543
-0.15370000000000017,-80.99222191727335
-0.15470000000000006,-81.57225355021802
-0.15570000000000017,-82.03910827917348
-0.15670000000000006,-82.43522744313569
-0.15770000000000017,-82.70402259011003
-0.15870000000000006,-82.95867062408576
-0.15970000000000018,-83.14258309306821
-0.16070000000000007,-83.43967246603985
-0.16170000000000018,-83.75090895201016
-0.16270000000000007,-84.23191079396429
-0.16370000000000018,-84.84023665290624
-0.16470000000000007,-85.44856251184822
-0.16570000000000018,-86.14177104878208
-0.16670000000000007,-86.80668535971866
-0.16770000000000018,-87.41501121866061
-0.16870000000000007,-87.85357172161878
-0.16970000000000018,-88.19310243358639
-0.17070000000000007,-88.46189758056073
-0.17170000000000019,-88.63166293654454
-0.17270000000000008,-88.9853407615108
-0.1737000000000002,-89.23998879548651
-0.17470000000000008,-89.80587331543254
-0.1757000000000002,-90.37175783537855
-0.17670000000000008,-91.07911348531105
-0.1777000000000002,-91.85720470023682
-0.17870000000000008,-92.3806478811869
-0.1797000000000002,-92.94653240113291
-0.18070000000000008,-93.30021022609918
-0.1817000000000002,-93.61144671206948
-0.18270000000000008,-93.90853608504113
-0.1837000000000002,-94.07830144102493
-0.1847000000000001,-94.5168619439831
-0.1857000000000002,-94.95542244694126
-0.1867000000000001,-95.64863098387512
-0.1877000000000002,-96.3984279728036
-0.1887000000000001,-97.21896052672531
-0.1897000000000002,-98.05364019364569
-0.1907000000000001,-98.74684873057957
-0.1917000000000001,-99.22785057253368
-0.19269999999999998,-99.58152839749994
-0.1937000000000001,-99.87861777047159
-0.19469999999999998,-100.06253023945405
-0.1957000000000001,-100.31717827342976
-0.19669999999999999,-100.670856098396
-0.1977000000000001,-101.19429927934607
-0.1987,-101.88750781627995
-0.1997000000000001,-102.5524221272165
-0.2007,-103.33051334214227
-0.2017000000000001,-103.93883920108425
-0.2027,-104.50472372103027
-0.2037000000000001,-104.94328422398843
-0.2047,-105.29696204895468
-0.2057000000000001,-105.59405142192634
-0.2067,-105.82040522990474
-0.2077000000000001,-106.2589657328629
-0.2087,-106.68337912282242
-0.2097000000000001,-107.30585209476303
-0.2107,-108.04150197069285
-0.2117000000000001,-108.83374029861727
-0.2127,-109.69671419153494
-0.2137000000000001,-110.3050400504769
-0.2147,-110.92751302241753
-0.2157000000000001,-111.35192641237703
-0.2167,-111.7056042373433
-0.21770000000000012,-112.05928206230955
-0.2187,-112.31393009628526
-0.21970000000000012,-112.79493193823936
-0.2207,-113.40325779718134
-0.22170000000000012,-114.1530547861098
-0.2227,-115.05847001802343
-0.22370000000000012,-115.97803236293572
-0.2247,-116.81271202985609
-0.22570000000000012,-117.46347922779398
-0.2267,-117.90203973075215
-0.22770000000000012,-118.24157044271978
-0.22870000000000001,-118.51036558969413
-0.22970000000000013,-118.68013094567793
-0.23070000000000002,-119.07625010964013
-0.23170000000000013,-119.51481061259831
-0.23270000000000002,-120.16557781053622
-0.23370000000000013,-120.95781613846064
-0.23470000000000002,-121.69346601439047
-0.23570000000000013,-122.48570434231489
-0.23670000000000002,-123.1364715402528
-0.2376999999999999,-123.74479739919475
-0.23870000000000002,-124.22579924114888
-0.2396999999999999,-124.57947706611512
-0.24070000000000003,-125.00389045607463
-0.24169999999999991,-125.35756828104091
-0.24270000000000003,-125.92345280098691
-0.24369999999999992,-126.44689598193698
-0.24470000000000003,-127.19669297086547
-0.24569999999999992,-127.97478418579122
-0.24670000000000003,-128.8094638527116
-0.24769999999999992,-129.67243774562928
-0.24870000000000003,-130.32320494356716
-0.24969999999999992,-131.03056059349967
-0.25070000000000003,-131.55400377444977
-0.2516999999999999,-132.03500561640385
-0.25270000000000004,-132.37453632837148
-0.2536999999999999,-132.8555381703256
-0.25470000000000004,-133.5628938202581
-0.2556999999999999,-134.34098503518388
-0.25670000000000004,-135.387871397084
-0.25769999999999993,-136.26499240300032
-0.25870000000000004,-137.08552495692206
-0.25969999999999993,-137.75043926785864
-0.26070000000000004,-138.27388244880868
-0.26169999999999993,-138.61341316077628
-0.26270000000000004,-138.88220830775063
-0.26369999999999993,-139.27832747171286
-0.26470000000000005,-139.6602995226764
-0.26569999999999994,-140.22618404262244
-0.26670000000000005,-140.84865701456303
-0.26769999999999994,-141.47112998650366
-0.26870000000000005,-142.31995676642268
-0.26969999999999994,-143.0273124163552
-0.27070000000000005,-143.87613919627424
-0.27169999999999994,-144.58349484620675
-0.27270000000000005,-145.29085049613926
-0.27369999999999994,-145.7152638860988
-0.27470000000000006,-146.1396772760583
-0.27569999999999995,-146.7055617960043
-0.27670000000000006,-147.1299751859638
-0.27769999999999995,-147.6958597059098
-0.27870000000000006,-148.12027309586935
-0.27969999999999995,-148.96909987578834
-0.28070000000000006,-149.6764555257209
-0.28169999999999995,-150.24234004566688
-0.28270000000000006,-150.94969569559944
-0.28369999999999995,-151.5155802155454
-0.28470000000000006,-152.0814647354914
-0.28569999999999995,-152.50587812545095
-0.28670000000000007,-153.07176264539694
-0.28769999999999996,-153.35470490536997
-0.28870000000000007,-153.63764716534297
-0.28969999999999996,-153.920589425316
-0.29070000000000007,-154.3450028152755
-0.29169999999999996,-154.9108873352215
-0.29270000000000007,-155.47677185516753
-0.29369999999999996,-156.04265637511355
-0.2947000000000001,-156.60854089505958
-0.29569999999999996,-157.03295428501906
-0.2967000000000001,-157.45736767497857
-0.29769999999999996,-157.59883880496508
-0.2987000000000001,-157.88178106493808
-0.29969999999999997,-157.88178106493808
-0.3007000000000001,-158.1647233249111
-0.30169999999999997,-158.3061944548976
-0.3027000000000001,-158.73060784485713
-0.30369999999999997,-159.15502123481662
-0.3047000000000001,-159.57943462477613
-0.30569999999999997,-160.14531914472215
-0.3067000000000001,-160.5697325346817
-0.3077,-160.99414592464117
-0.3087000000000001,-161.2770881846142
-0.3097,-161.41855931460069
-0.3107000000000001,-161.5600304445872
-0.3117,-161.41855931460069
-0.3127000000000001,-161.70150157457368
-0.3137,-161.70150157457368
-0.3147000000000001,-161.9844438345467
-0.3157,-162.2673860945197
-0.3167000000000001,-162.5503283544927
-0.3177,-162.97474174445222
-0.3187000000000001,-163.25768400442522
-0.3197,-163.54062626439824
-0.3207000000000001,-163.68209739438475
-0.3217,-163.96503965435775
-0.3227000000000001,-163.96503965435775
-0.3237,-164.10651078434424
-0.3247000000000001,-164.10651078434424
-0.3257,-164.38945304431726
-0.3267000000000001,-164.67239530429026
-0.3277,-164.9553375642633
-0.3287000000000001,-165.2382798242363
-0.3297,-165.5212220842093
-0.3307000000000001,-165.8041643441823
-0.3317,-165.8041643441823
-0.3327000000000001,-165.6626932141958
-0.3337,-165.5212220842093
-0.3347000000000001,-165.3797509542228
-0.3357,-165.09680869424977
-0.3367000000000001,-164.9553375642633
-0.3377,-164.9553375642633
-0.3387000000000001,-164.9553375642633
-0.3397,-164.9553375642633
-0.3407000000000001,-165.09680869424977
-0.3417,-165.2382798242363
-0.3427000000000001,-165.3797509542228
-0.3437,-165.3797509542228
-0.3447000000000001,-165.3797509542228
-0.3457,-165.09680869424977
-0.3467000000000001,-164.81386643427678
-0.3477,-164.67239530429026
-0.3487000000000001,-164.38945304431726
-0.3497,-164.24798191433075
-0.3507000000000001,-164.24798191433075
-0.3517,-164.24798191433075
-0.3527000000000001,-164.24798191433075
-0.3537,-164.10651078434424
-0.3547000000000001,-164.10651078434424
-0.3557,-163.82356852437124
-0.35670000000000013,-163.39915513441173
-0.3577,-163.11621287443873
-0.35870000000000013,-162.8332706144657
-0.3597,-162.6917994844792
-0.36070000000000013,-162.5503283544927
-0.3617,-162.6917994844792
-0.3626999999999999,-162.6917994844792
-0.3637,-162.8332706144657
-0.3646999999999999,-162.6917994844792
-0.3657,-162.6917994844792
-0.3666999999999999,-162.6917994844792
-0.3677,-162.40885722450622
-0.3686999999999999,-162.12591496453322
-0.36970000000000003,-161.84297270456022
-0.3706999999999999,-161.5600304445872
-0.37170000000000003,-161.41855931460069
-0.3726999999999999,-161.2770881846142
-0.37370000000000003,-161.2770881846142
-0.3746999999999999,-161.2770881846142
-0.37570000000000003,-161.41855931460069
-0.3766999999999999,-161.41855931460069
-0.37770000000000004,-161.5600304445872
-0.3786999999999999,-161.41855931460069
-0.37970000000000004,-161.2770881846142
-0.3806999999999999,-161.1356170546277
-0.38170000000000004,-160.8526747946547
-0.38269999999999993,-160.99414592464117
-0.38370000000000004,-161.1356170546277
-0.38469999999999993,-161.41855931460069
-0.38570000000000004,-161.70150157457368
-0.38669999999999993,-160.5697325346817
-0.38570000000000004,-156.75001202504606
-0.38469999999999993,-153.07176264539694
-0.38370000000000004,-149.6764555257209
-0.38269999999999993,-146.4226195360313
-0.38170000000000004,-143.16878354634173
-0.3806999999999999,-139.9290946696508
-0.37970000000000004,-136.74599424495443
-0.3786999999999999,-133.8599831932298
-0.37770000000000004,-131.15788461048754
-0.3766999999999999,-128.752875400717
-0.37570000000000003,-126.40445464294103
-0.3746999999999999,-124.14091656315696
-0.37370000000000003,-121.96226116136481
-0.3726999999999999,-119.81189998556997
-0.37170000000000003,-117.67568592277377
-0.3706999999999999,-115.45458918198564
-0.36970000000000003,-113.19105110220158
-0.3686999999999999,-110.82848323142699
-0.3677,-108.69226916863077
-0.3666999999999999,-106.55605510583456
-0.3657,-104.64619485101677
-0.3646999999999999,-102.84951150018817
-0.3637,-101.06697526235823
-0.3626999999999999,-99.45420438051207
-0.3617,-97.74240370767538
-0.36070000000000013,-96.04475014783733
-0.3597,-94.21977257101145
-0.35870000000000013,-92.29576520319499
-0.3577,-90.37175783537855
-0.35670000000000013,-88.32042645057423
-0.3557,-86.6227728907362
-0.3547000000000001,-84.96756066989411
-0.3537,-83.56699648302772
-0.3527000000000001,-82.18057940915998
-0.3517,-80.82245656128954
-0.3507000000000001,-79.56336350440966
-0.3497,-78.07791663955136
-0.3487000000000001,-76.5924697746931
-0.3477,-74.93725755385098
-0.3467000000000001,-73.23960399401295
-0.3457,-71.58439177317086
-0.3447000000000001,-69.87259110033416
-0.3437,-68.34470289647993
-0.3427000000000001,-66.9582858226122
-0.3417,-65.7274869917296
-0.3407000000000001,-64.51083527384567
-0.3397,-63.421507572949594
-0.3387000000000001,-62.24729719406162
-0.3377,-61.01649836317903
-0.3367000000000001,-59.67252262830725
-0.3357,-58.27195844144086
-0.3347000000000001,-56.82895291557852
-0.3337,-55.357653163718886
-0.3327000000000001,-54.0419716548444
-0.3317,-52.78287859796452
-0.3307000000000001,-51.69355089706845
-0.3297,-50.68910587416426
-0.3287000000000001,-49.68466085126009
-0.3277,-48.72265716735186
-0.3267000000000001,-47.633329466455784
-0.3257,-46.544001765559706
-0.3247000000000001,-45.27076159568118
-0.3237,-43.92678586080939
-0.3227000000000001,-42.6111043519349
-0.3217,-41.182245939071215
-0.3207000000000001,-40.03632978618054
-0.3197,-38.90456074628851
-0.3187000000000001,-37.94255706238028
-0.3177,-37.037141830466666
-0.3167000000000001,-36.16002082455034
-0.3157,-35.38192960962457
-0.3147000000000001,-34.41992592571634
-0.3137,-33.41548090281216
-0.3127000000000001,-32.283711862920136
-0.3117,-31.137795710029454
-0.3107000000000001,-29.921143992145527
-0.3097,-28.746933613257543
-0.3087000000000001,-27.700047251357418
-0.3077,-26.780484906445146
-0.3067000000000001,-25.959952352523427
-0.30569999999999997,-25.210155363594954
-0.3047000000000001,-24.516946826661083
-0.30369999999999997,-23.767149837732617
-0.3027000000000001,-22.946617283810895
-0.30169999999999997,-21.98461359990267
-0.3007000000000001,-20.93772723800254
-0.29969999999999997,-19.93328221509837
-0.2987000000000001,-18.843954514202288
-0.29769999999999996,-17.839509491298113
-0.2967000000000001,-16.919947146385837
-0.29569999999999996,-16.22673860945197
-0.2947000000000001,-15.533530072518102
-0.29369999999999996,-14.868615761581536
-0.29270000000000007,-14.30273124163552
-0.29169999999999996,-13.610937416001518
-0.29070000000000007,-12.913484745168056
-0.28969999999999996,-11.996751822855511
-0.28870000000000007,-11.037577561547016
-0.28769999999999996,-10.034547249942705
-0.28670000000000007,-9.031516938338395
-0.28569999999999995,-8.202496116617484
-0.28470000000000006,-7.37347529489657
-0.28369999999999995,-6.762320013354876
-0.28270000000000006,-6.196435493408861
-0.28169999999999995,-5.672992312458796
-0.28070000000000006,-5.235846520800501
-0.27969999999999995,-4.582249900262854
-0.27870000000000006,-3.927238568425342
-0.27769999999999995,-3.0996324580042955
-0.27670000000000006,-2.2706116362833835
-0.27569999999999995,-1.3980177065266295
-0.27470000000000006,-0.5692798270656908
-0.27369999999999994,0.21588494435940458
-0.27270000000000005,0.870188920546984
-0.27169999999999994,1.349917522331218
-0.27070000000000005,1.8292217107254924
-0.26969999999999994,2.2225114520879723
-0.26870000000000005,2.658242532446404
-0.26769999999999994,3.225541763692284
-0.26670000000000005,3.8791383842299307
