Potential V vs RHE, Current mA cm-2
0.013299999999999867,6.1907766482094
0.012299999999999978,4.490293665771627
0.011299999999999866,2.745954633038036
0.010299999999999976,0.870188920546984
0.009299999999999864,-0.8745745255765657
0.008299999999999974,-2.2706116362833835
0.007299999999999862,-3.2297858975918787
0.006299999999999972,-3.971094618721158
0.00529999999999986,-4.9302688800296535
0.0042999999999999705,-6.152579443113044
0.0032999999999998586,-7.461187395488204
0.0022999999999999687,-8.638227196975913
0.0012999999999998568,-9.467248018696827
0.00029999999999996696,-9.99069119964689
-0.000700000000000145,-10.470278330301136
-0.0017000000000000348,-11.1677310011346
-0.0027000000000001467,-12.214617363034726
-0.0037000000000000366,-13.30535977523067
-0.0047000000000001485,-14.13438059695158
-0.005700000000000038,-14.65640906660178
-0.00670000000000015,-14.967645552572087
-0.00770000000000004,-15.349617603535648
-0.008700000000000152,-16.056973253468165
-0.009700000000000042,-16.919947146385837
-0.010700000000000154,-17.797068152302163
-0.011700000000000044,-18.40539401124413
-0.012700000000000156,-18.674189158218486
-0.013700000000000045,-18.80151317520634
-0.014700000000000157,-19.155191000172596
-0.015700000000000047,-19.848399537106463
-0.01670000000000016,-20.72552054302279
-0.01770000000000005,-21.418729079956652
-0.01870000000000016,-21.814848243918867
-0.01970000000000005,-21.98461359990267
-0.020700000000000163,-22.069496277894572
-0.021700000000000053,-22.38073276386488
-0.022700000000000164,-23.073941300798747
-0.023700000000000054,-23.86617962872317
-0.024700000000000166,-24.389622809673234
-0.025700000000000056,-24.516946826661083
-0.026700000000000168,-24.516946826661083
-0.027700000000000058,-24.686712182644893
-0.02870000000000017,-25.12527268560305
-0.02970000000000006,-25.77603988354097
-0.03070000000000017,-26.483395533473487
-0.03170000000000006,-26.907808923433
-0.03270000000000017,-26.9643973754276
-0.03370000000000006,-26.907808923433
-0.034700000000000175,-27.049280053419505
-0.035700000000000065,-27.572723234369565
-0.03670000000000018,-28.22349043230748
-0.03770000000000007,-28.746933613257543
-0.03870000000000018,-28.959140308237306
-0.03970000000000007,-28.959140308237306
-0.04070000000000018,-28.91669896924135
-0.04170000000000007,-29.18549411621571
-0.04270000000000018,-29.751378636161718
-0.04370000000000007,-30.444587173095588
-0.044700000000000184,-30.88314767605375
-0.045700000000000074,-30.925589015049702
-0.046700000000000186,-30.8407063370578
-0.047700000000000076,-30.8407063370578
-0.04870000000000019,-31.137795710029454
-0.04970000000000008,-31.717827342974125
-0.05070000000000019,-32.283711862920136
-0.05170000000000008,-32.58080123589179
-0.05270000000000019,-32.58080123589179
-0.05370000000000008,-32.41103587990799
-0.05470000000000019,-32.53835989689585
-0.05570000000000008,-32.93447906085806
-0.056700000000000195,-33.58524625879597
-0.057700000000000085,-34.06624810075008
-0.058700000000000196,-34.193572117737936
-0.059700000000000086,-34.15113077874198
-0.0607000000000002,-34.10868943974604
-0.06170000000000009,-34.377484586720385
-0.0627000000000002,-34.90092776767045
-0.06370000000000009,-35.50925362661242
-0.0647000000000002,-35.806342999584075
-0.06570000000000009,-35.806342999584075
-0.0667000000000002,-35.679018982596226
-0.0677000000000001,-35.636577643600276
-0.0687000000000002,-35.94781412957058
-0.0697000000000001,-36.47125731052064
-0.07070000000000021,-37.037141830466666
-0.0717000000000001,-37.334231203438314
-0.07270000000000021,-37.334231203438314
-0.0737000000000001,-37.164465847454515
-0.07470000000000021,-37.291789864442364
-0.0757000000000001,-37.77279170639648
-0.07670000000000021,-38.38111756533845
-0.0777000000000001,-38.86211940729255
-0.07870000000000021,-39.046031876275016
-0.0797000000000001,-39.046031876275016
-0.08070000000000022,-39.08847321527096
-0.0817000000000001,-39.34312124924667
-0.08270000000000022,-39.82412309120078
-0.08370000000000011,-40.34756627215084
-0.08470000000000022,-40.616361419125205
-0.08570000000000011,-40.65880275812115
-0.08670000000000022,-40.616361419125205
-0.08770000000000011,-40.65880275812115
-0.08870000000000022,-41.04077480908471
-0.08970000000000011,-41.52177665103883
-0.09070000000000022,-42.087661170984845
-0.09170000000000011,-42.4413389959511
-0.09270000000000023,-42.526221673943
-0.09370000000000012,-42.4413389959511
-0.09470000000000023,-42.6111043519349
-0.09570000000000012,-43.007223515897124
-0.09670000000000023,-43.61554937483908
-0.09770000000000012,-44.138992555789144
-0.09870000000000023,-44.3229050247716
-0.09970000000000012,-44.3229050247716
-0.10070000000000023,-44.223875233781044
-0.10170000000000012,-44.4077877027635
-0.10270000000000024,-44.88878954471762
-0.10370000000000013,-45.53955674265553
-0.10470000000000024,-45.93567590661774
-0.10570000000000013,-46.02055858460964
-0.10670000000000024,-45.89323456762179
-0.10770000000000013,-45.93567590661774
-0.10870000000000024,-46.27520661858535
-0.10970000000000013,-46.84109113853137
-0.11070000000000024,-47.46356411047198
-0.11170000000000013,-47.80309482243959
-0.11270000000000002,-47.84553616143554
-0.11370000000000013,-47.67577080545174
-0.11470000000000002,-47.80309482243959
-0.11570000000000014,-48.1992139864018
-0.11670000000000003,-48.84998118433972
-0.11770000000000014,-49.41586570428573
-0.11870000000000003,-49.72710219025603
-0.11970000000000014,-49.76954352925199
-0.12070000000000003,-49.85442620724389
-0.12170000000000014,-50.0807800152223
-0.12270000000000003,-50.64666453516831
-0.12370000000000014,-51.38231441109813
-0.12470000000000003,-51.82087491405629
-0.12570000000000014,-51.990640270040096
-0.12670000000000003,-51.948198931044146
-0.12770000000000015,-51.990640270040096
-0.12870000000000004,-52.42920077299826
-0.12970000000000015,-52.95264395394832
-0.13070000000000004,-53.56096981289029
-0.13170000000000015,-53.872206298860604
-0.13270000000000004,-53.91464763785655
-0.13370000000000015,-53.91464763785655
-0.13470000000000004,-54.26832546282281
-0.13570000000000015,-54.791768643772876
-0.13670000000000004,-55.527418519702685
-0.13770000000000016,-56.008420361656796
-0.13870000000000005,-56.22062705663656
-0.13970000000000016,-56.26306839563251
-0.14070000000000005,-56.1781857176406
-0.14170000000000016,-56.404539525619015
-0.14270000000000005,-56.97042404556503
-0.14370000000000016,-57.70607392149485
-0.14470000000000005,-58.27195844144086
-0.14570000000000016,-58.54075358841522
-0.14670000000000005,-58.498312249419264
-0.14770000000000016,-58.66807760540307
-0.14870000000000005,-59.10663810836124
-0.14970000000000017,-59.7149639673032
-0.15070000000000006,-60.40817250423707
-0.15170000000000017,-60.761850329203334
-0.15270000000000006,-60.80429166819927
-0.15370000000000017,-60.67696765121143
-0.15470000000000006,-60.889174346191176
-0.15570000000000017,-61.412617527141244
-0.15670000000000006,-62.06338472507916
-0.15770000000000017,-62.77074037501168
-0.15870000000000006,-63.15271242597524
-0.15970000000000018,-63.3366248949577
-0.16070000000000007,-63.421507572949594
-0.16170000000000018,-63.732744058919906
-0.16270000000000007,-64.29862857886593
-0.16370000000000018,-65.03427845479574
-0.16470000000000007,-65.5577216357458
-0.16570000000000018,-65.7274869917296
-0.16670000000000007,-65.7274869917296
-0.16770000000000018,-65.86895812171612
-0.16870000000000007,-66.51972531965401
-0.16970000000000018,-67.21293385658788
-0.17070000000000007,-67.9202895065204
-0.17170000000000019,-68.34470289647993
-0.17270000000000008,-68.48617402646643
-0.1737000000000002,-68.48617402646643
-0.17470000000000008,-68.74082206044213
-0.1757000000000002,-69.30670658038814
-0.17670000000000008,-70.14138624730852
-0.1777000000000002,-70.87703612323833
-0.17870000000000008,-71.18827260920865
-0.1797000000000002,-71.27315528720055
-0.18070000000000008,-71.31559662619651
-0.1817000000000002,-71.66927445116276
-0.18270000000000008,-72.32004164910067
-0.1837000000000002,-73.0556915250305
-0.1847000000000001,-73.53669336698461
-0.1857000000000002,-73.72060583596706
-0.1867000000000001,-73.76304717496302
-0.1877000000000002,-74.06013654793468
-0.1887000000000001,-74.72505085887124
-0.1897000000000002,-75.4182593958051
-0.1907000000000001,-76.11146793273898
-0.1917000000000001,-76.5924697746931
-0.19269999999999998,-76.71979379168094
-0.1937000000000001,-76.7622351306769
-0.19469999999999998,-77.03103027765125
-0.1957000000000001,-77.68179747558916
-0.19669999999999999,-78.43159446451764
-0.1977000000000001,-79.08236166245555
-0.1987,-79.60580484340561
-0.1997000000000001,-79.81801153838538
-0.2007,-79.90289421637728
-0.2017000000000001,-80.29901338033947
-0.2027,-80.99222191727335
-0.2037000000000001,-81.82690158419373
-0.2047,-82.30790342614785
-0.2057000000000001,-82.52011012112759
-0.2067,-82.61913991211814
-0.2077000000000001,-82.78890526810196
-0.2087,-83.43967246603985
-0.2097000000000001,-84.35923481095215
-0.2107,-85.27879715586442
-0.2117000000000001,-85.75979899781852
-0.2127,-85.84468167581042
-0.2137000000000001,-85.88712301480638
-0.2147,-86.18421238777805
-0.2157000000000001,-86.89156803771054
-0.2167,-87.71210059163228
-0.21770000000000012,-88.4194562415648
-0.2187,-88.6741042755405
-0.21970000000000012,-88.8438696315243
-0.2207,-89.11266477849867
-0.22170000000000012,-89.76343197643658
-0.2227,-90.76787699934074
-0.22370000000000012,-91.81476336124088
-0.2247,-92.3806478811869
-0.22570000000000012,-92.50797189817473
-0.2267,-92.4655305591788
-0.22770000000000012,-92.64944302816124
-0.22870000000000001,-93.30021022609918
-0.22970000000000013,-94.07830144102493
-0.23070000000000002,-94.8280984299534
-0.23170000000000013,-95.26665893291157
-0.23270000000000002,-95.52130696688728
-0.23370000000000013,-95.69107232287108
-0.23470000000000002,-96.0871914868333
-0.23570000000000013,-96.79454713676581
-0.23670000000000002,-97.61507969068752
-0.2376999999999999,-98.26584688862545
-0.23870000000000002,-98.5346420355998
-0.2396999999999999,-98.66196605258766
-0.24070000000000003,-98.83173140857146
-0.24169999999999991,-99.18540923353773
-0.24270000000000003,-99.83617643147564
-0.24369999999999992,-100.58597342040412
-0.24470000000000003,-101.06697526235823
-0.24569999999999992,-101.23674061834203
-0.24670000000000003,-101.23674061834203
-0.24769999999999992,-101.3640646353299
-0.24870000000000003,-101.84506647728399
-0.24969999999999992,-102.45339233622596
-0.25070000000000003,-103.07586530816658
-0.2516999999999999,-103.41539602013418
-0.25270000000000004,-103.37295468113824
-0.2536999999999999,-103.24563066415038
-0.25470000000000004,-103.33051334214227
-0.2556999999999999,-103.85395652309235
-0.25670000000000004,-104.58960639902216
-0.25769999999999993,-105.33940338795064
-0.25870000000000004,-105.69308121291688
-0.25969999999999993,-105.86284656890071
-0.26070000000000004,-105.94772924689259
-0.26169999999999993,-106.21652439386696
-0.26270000000000004,-106.82485025280893
-0.26369999999999993,-107.51805878974278
-0.26470000000000005,-107.87173661470905
-0.26569999999999994,-107.914177953705
-0.26670000000000005,-107.78685393671715
-0.26769999999999994,-107.78685393671715
-0.26870000000000005,-108.3102971176672
-0.26969999999999994,-109.04594699359701
-0.27070000000000005,-109.654272852539
-0.27169999999999994,-109.9655093385093
-0.27270000000000005,-109.8240382085228
-0.27369999999999994,-109.61183151354304
-0.27470000000000006,-109.56939017454708
-0.27569999999999995,-109.8806266605174
-0.27670000000000006,-110.3050400504769
-0.27769999999999995,-110.65871787544317
-0.27870000000000006,-110.74360055343507
-0.27969999999999995,-110.74360055343507
-0.28070000000000006,-110.6162765364472
-0.28169999999999995,-110.6162765364472
-0.28270000000000006,-111.05483703940537
-0.28369999999999995,-111.5358388813595
-0.28470000000000006,-111.66316289834735
-0.28569999999999995,-111.35192641237703
-0.28670000000000007,-110.82848323142699
-0.28769999999999996,-110.53139385845533
-0.28870000000000007,-110.57383519745127
-0.28969999999999996,-110.82848323142699
-0.29070000000000007,-111.3094850733811
-0.29169999999999996,-111.49339754236355
-0.29270000000000007,-111.22460239538917
-0.29369999999999996,-110.74360055343507
-0.2947000000000001,-110.48895251945936
-0.29569999999999996,-110.74360055343507
-0.2967000000000001,-111.01239570040943
-0.29769999999999996,-111.09727837840134
-0.2987000000000001,-110.74360055343507
-0.29969999999999997,-110.26259871148096
-0.3007000000000001,-109.73915553053091
-0.30169999999999997,-109.4845074965552
-0.3027000000000001,-109.654272852539
-0.30369999999999997,-110.09283335549715
-0.3047000000000001,-110.22015737248502
-0.30569999999999997,-109.8240382085228
-0.3067000000000001,-109.17327101058488
-0.3077,-108.73471050762672
-0.3087000000000001,-108.64982782963483
-0.3097,-108.77715184662266
-0.3107000000000001,-108.91862297660917
-0.3117,-108.77715184662266
-0.3127000000000001,-108.21126732667666
-0.3137,-107.6029414677347
-0.3147000000000001,-107.30585209476303
-0.3157,-107.34829343375898
-0.3167000000000001,-107.51805878974278
-0.3177,-107.56050012873874
-0.3187000000000001,-107.20682230377247
-0.3197,-106.68337912282242
-0.3207000000000001,-106.15993594187235
-0.3217,-105.90528790789664
-0.3227000000000001,-106.11749460287639
-0.3237,-106.51361376683862
-0.3247000000000001,-106.51361376683862
-0.3257,-106.07505326388046
-0.3267000000000001,-105.46672740493848
-0.3277,-104.90084288499246
-0.3287000000000001,-104.73107752900866
-0.3297,-104.81596020700057
-0.3307000000000001,-104.90084288499246
-0.3317,-104.77351886800463
-0.3327000000000001,-104.33495836504645
-0.3337,-103.76907384510045
-0.3347000000000001,-103.54272003712204
-0.3357,-103.68419116710854
-0.3367000000000001,-103.98128054008019
-0.3377,-104.25007568705455
-0.3387000000000001,-104.06616321807209
-0.3397,-103.7266325061045
-0.3407000000000001,-103.33051334214227
-0.3417,-103.33051334214227
-0.3427000000000001,-103.85395652309235
-0.3437,-104.3773997040424
-0.3447000000000001,-104.58960639902216
-0.3457,-104.33495836504645
-0.3467000000000001,-103.81151518409638
-0.3477,-103.54272003712204
-0.3487000000000001,-103.7266325061045
-0.3497,-104.12275167006669
-0.3507000000000001,-104.50472372103027
-0.3517,-104.77351886800463
-0.3527000000000001,-104.68863619001272
-0.3537,-104.50472372103027
-0.3547000000000001,-104.73107752900866
-0.3557,-105.42428606594254
-0.35670000000000013,-106.11749460287639
-0.3577,-106.55605510583456
-0.35870000000000013,-106.68337912282242
-0.3597,-106.78240891381296
-0.36070000000000013,-107.03705694778867
-0.3617,-107.51805878974278
-0.3626999999999999,-108.21126732667666
-0.3637,-108.87618163761321
-0.3646999999999999,-109.25815368857677
-0.3657,-109.35718347956733
-0.3666999999999999,-109.35718347956733
-0.3677,-109.69671419153494
-0.3686999999999999,-110.4465111804634
-0.36970000000000003,-111.394367751373
-0.3706999999999999,-112.27148875728932
-0.37170000000000003,-112.87981461623129
-0.3726999999999999,-113.19105110220158
-0.37370000000000003,-113.40325779718134
-0.3746999999999999,-113.88425963913545
-0.37570000000000003,-114.57746817606933
-0.3766999999999999,-115.36970650399375
-0.37770000000000004,-116.02047370193165
-0.3786999999999999,-116.41659286589388
-0.37970000000000004,-116.67124089986959
-0.3806999999999999,-117.02491872483584
-0.38170000000000004,-117.81715705276027
-0.38269999999999993,-118.99136743164823
-0.38370000000000004,-120.16557781053622
-0.38469999999999993,-121.00025747745659
-0.38570000000000004,-121.52370065840667
-0.38669999999999993,-120.29290182752408
-0.38570000000000004,-116.81271202985609
-0.38469999999999993,-114.05402499511925
-0.38370000000000004,-111.8753695933271
-0.38269999999999993,-110.00795067750525
-0.38170000000000004,-108.1688259876807
-0.3806999999999999,-106.0326119248845
-0.37970000000000004,-103.76907384510045
-0.3786999999999999,-101.84506647728399
-0.37770000000000004,-100.2747369344338
-0.3766999999999999,-99.01564387755391
-0.37570000000000003,-97.69996236867944
-0.3746999999999999,-96.00230880884139
-0.37370000000000003,-94.07830144102493
-0.3726999999999999,-92.29576520319499
-0.37170000000000003,-90.93764235532454
-0.3706999999999999,-89.94734444541903
-0.36970000000000003,-88.94289942251486
-0.3686999999999999,-87.58477657464444
-0.3677,-86.09932970978613
-0.3666999999999999,-84.48655882793999
-0.3657,-82.95867062408576
-0.3646999999999999,-81.69957756720586
-0.3637,-80.65269120530574
-0.3626999999999999,-79.56336350440966
-0.3617,-78.29012333453113
-0.36070000000000013,-76.71979379168094
-0.3597,-75.19190558782671
-0.35870000000000013,-73.97525386994278
-0.3577,-72.97080884703858
-0.35670000000000013,-72.10783495412092
-0.3557,-71.10338993121674
-0.3547000000000001,-69.8301497613382
-0.3537,-68.34470289647993
-0.3527000000000001,-66.81681469262568
-0.3517,-65.60016297474175
-0.3507000000000001,-64.72304196882543
-0.3497,-64.02983343189156
-0.3487000000000001,-63.11027108697928
-0.3477,-61.936060708091304
-0.3467000000000001,-60.54964363422357
-0.3457,-59.19152078635314
-0.3447000000000001,-58.18707576344896
-0.3437,-57.45142588751914
-0.3427000000000001,-56.70162889859067
-0.3417,-55.73962521468245
-0.3407000000000001,-54.43809081880661
-0.3397,-53.03752663194023
-0.3387000000000001,-52.033081609036046
-0.3377,-51.25499039411028
-0.3367000000000001,-50.64666453516831
-0.3357,-49.81198486824794
-0.3347000000000001,-48.72265716735186
-0.3337,-47.40697565847737
-0.3327000000000001,-46.147882601597495
-0.3317,-45.18587891768927
-0.3307000000000001,-44.535111719751356
-0.3297,-44.011668538801295
-0.3287000000000001,-43.17698887188092
-0.3277,-42.186690961975394
-0.3267000000000001,-40.95589213109281
-0.3257,-39.86656443019674
-0.3247000000000001,-39.08847321527096
-0.3237,-38.522588695324956
-0.3227000000000001,-37.90011572338433
-0.3217,-37.07958316946261
-0.3207000000000001,-35.94781412957058
-0.3197,-34.67457395969205
-0.3187000000000001,-33.670128936787876
-0.3177,-33.06180307784591
-0.3167000000000001,-32.62324257488775
-0.3157,-31.972475376949827
-0.3147000000000001,-31.137795710029454
-0.3137,-30.00602667013743
-0.3127000000000001,-28.8742576302454
-0.3117,-28.09616641531963
-0.3107000000000001,-27.530281895373616
-0.3097,-27.219045409403304
-0.3087000000000001,-26.568278211465387
-0.3077,-25.648715866553115
-0.3067000000000001,-24.559388165657033
-0.30569999999999997,-23.597384481748815
-0.3047000000000001,-22.904175944814945
-0.30369999999999997,-22.46561544185678
-0.3027000000000001,-22.027054938898623
-0.30169999999999997,-21.376287740960702
-0.3007000000000001,-20.371842718056527
-0.29969999999999997,-19.28251501716045
-0.2987000000000001,-18.53271802823198
-0.29769999999999996,-18.06586329927652
-0.2967000000000001,-17.797068152302163
-0.29569999999999996,-17.316066310348052
-0.2947000000000001,-16.580416434418233
-0.29369999999999996,-15.618412750510005
-0.29270000000000007,-14.69885040559773
-0.29169999999999996,-14.002812446064135
-0.29070000000000007,-13.698649516593148
-0.28969999999999996,-13.47936926511407
-0.28870000000000007,-12.955926084164007
-0.28769999999999996,-12.12831997374296
-0.28670000000000007,-11.1677310011346
-0.28569999999999995,-10.340124890713554
-0.28470000000000006,-9.85912304875944
-0.28369999999999995,-9.59740145828441
-0.28270000000000006,-9.335679867809377
-0.28169999999999995,-8.812236686859313
-0.28070000000000006,-7.940774526142452
-0.27969999999999995,-6.981600264833956
-0.27870000000000006,-6.37044498329226
-0.27769999999999995,-6.021011292225596
-0.27670000000000006,-5.890857852638012
-0.27569999999999995,-5.5414241615713475
-0.27470000000000006,-4.9302688800296535
-0.27369999999999994,-4.0588067193127895
-0.27270000000000005,-3.2297858975918787
-0.27169999999999994,-2.706342716641815
-0.27070000000000005,-2.532333226758415
-0.26969999999999994,-2.4446211261667834
-0.26870000000000005,-2.008890045808352
-0.26769999999999994,-1.3107300193249565
-0.26670000000000005,-0.48199213986401795
