Jan. 14, 2025   05:28:35
Cyclic Voltammetry
File: c:/users/guazh/data/banditlqround7_x0exp772_r5/2025-01-10-exp840\exp840-2025-01-14t05_23_40-arkoh\exp840_cv_50mvs_efin_-1400mv.bin
Data Source:  Experiment
Instrument Model:  CHI760E
Header: CV ran at 50 mVs
Note: 

Init E (V) = -1
High E (V) = -1
Low E (V) = -1.4
Final E (V) = -1
Init P/N = N
Scan Rate (V/s) = 0.05
Segment = 7
Sample Interval (V) = 0.001
Quiet Time (sec) = 60
Sensitivity (A/V) = 0.001
Comp R (ohm) = 1.5

Results:

Channel 1:
Segment 1:

Segment 2:

Segment 3:

Segment 4:

Segment 5:

Segment 6:

Segment 7:

Potential/V, Current/A

-1.000, -8.130e-6
-1.001, 4.612e-6
-1.002, 1.429e-5
-1.003, 2.192e-5
-1.004, 2.799e-5
-1.005, 3.303e-5
-1.006, 3.781e-5
-1.007, 4.241e-5
-1.008, 4.636e-5
-1.009, 4.963e-5
-1.010, 5.251e-5
-1.011, 5.555e-5
-1.012, 5.883e-5
-1.013, 6.174e-5
-1.014, 6.405e-5
-1.015, 6.619e-5
-1.016, 6.858e-5
-1.017, 7.132e-5
-1.018, 7.382e-5
-1.019, 7.582e-5
-1.020, 7.778e-5
-1.021, 7.996e-5
-1.022, 8.254e-5
-1.023, 8.492e-5
-1.024, 8.686e-5
-1.025, 8.868e-5
-1.026, 9.084e-5
-1.027, 9.332e-5
-1.028, 9.568e-5
-1.029, 9.750e-5
-1.030, 9.922e-5
-1.031, 1.015e-4
-1.032, 1.039e-4
-1.033, 1.064e-4
-1.034, 1.084e-4
-1.035, 1.101e-4
-1.036, 1.124e-4
-1.037, 1.150e-4
-1.038, 1.176e-4
-1.039, 1.196e-4
-1.040, 1.214e-4
-1.041, 1.238e-4
-1.042, 1.266e-4
-1.043, 1.292e-4
-1.044, 1.313e-4
-1.045, 1.333e-4
-1.046, 1.358e-4
-1.047, 1.388e-4
-1.048, 1.415e-4
-1.049, 1.438e-4
-1.050, 1.460e-4
-1.051, 1.486e-4
-1.052, 1.518e-4
-1.053, 1.547e-4
-1.054, 1.572e-4
-1.055, 1.596e-4
-1.056, 1.624e-4
-1.057, 1.656e-4
-1.058, 1.687e-4
-1.059, 1.712e-4
-1.060, 1.737e-4
-1.061, 1.768e-4
-1.062, 1.802e-4
-1.063, 1.834e-4
-1.064, 1.861e-4
-1.065, 1.888e-4
-1.066, 1.920e-4
-1.067, 1.955e-4
-1.068, 1.989e-4
-1.069, 2.019e-4
-1.070, 2.046e-4
-1.071, 2.080e-4
-1.072, 2.116e-4
-1.073, 2.151e-4
-1.074, 2.182e-4
-1.075, 2.213e-4
-1.076, 2.248e-4
-1.077, 2.286e-4
-1.078, 2.323e-4
-1.079, 2.355e-4
-1.080, 2.385e-4
-1.081, 2.423e-4
-1.082, 2.462e-4
-1.083, 2.501e-4
-1.084, 2.532e-4
-1.085, 2.565e-4
-1.086, 2.603e-4
-1.087, 2.645e-4
-1.088, 2.683e-4
-1.089, 2.718e-4
-1.090, 2.752e-4
-1.091, 2.790e-4
-1.092, 2.832e-4
-1.093, 2.872e-4
-1.094, 2.907e-4
-1.095, 2.942e-4
-1.096, 2.982e-4
-1.097, 3.026e-4
-1.098, 3.068e-4
-1.099, 3.105e-4
-1.100, 3.142e-4
-1.101, 3.182e-4
-1.102, 3.226e-4
-1.103, 3.268e-4
-1.104, 3.306e-4
-1.105, 3.343e-4
-1.106, 3.383e-4
-1.107, 3.429e-4
-1.108, 3.472e-4
-1.109, 3.509e-4
-1.110, 3.547e-4
-1.111, 3.589e-4
-1.112, 3.635e-4
-1.113, 3.680e-4
-1.114, 3.718e-4
-1.115, 3.755e-4
-1.116, 3.799e-4
-1.117, 3.846e-4
-1.118, 3.890e-4
-1.119, 3.930e-4
-1.120, 3.969e-4
-1.121, 4.014e-4
-1.122, 4.062e-4
-1.123, 4.109e-4
-1.124, 4.148e-4
-1.125, 4.186e-4
-1.126, 4.231e-4
-1.127, 4.280e-4
-1.128, 4.324e-4
-1.129, 4.363e-4
-1.130, 4.402e-4
-1.131, 4.447e-4
-1.132, 4.498e-4
-1.133, 4.547e-4
-1.134, 4.587e-4
-1.135, 4.627e-4
-1.136, 4.670e-4
-1.137, 4.717e-4
-1.138, 4.764e-4
-1.139, 4.805e-4
-1.140, 4.847e-4
-1.141, 4.894e-4
-1.142, 4.945e-4
-1.143, 4.994e-4
-1.144, 5.035e-4
-1.145, 5.077e-4
-1.146, 5.123e-4
-1.147, 5.169e-4
-1.148, 5.219e-4
-1.149, 5.263e-4
-1.150, 5.306e-4
-1.151, 5.352e-4
-1.152, 5.402e-4
-1.153, 5.450e-4
-1.154, 5.495e-4
-1.155, 5.535e-4
-1.156, 5.580e-4
-1.157, 5.632e-4
-1.158, 5.678e-4
-1.159, 5.720e-4
-1.160, 5.762e-4
-1.161, 5.809e-4
-1.162, 5.860e-4
-1.163, 5.906e-4
-1.164, 5.952e-4
-1.165, 5.990e-4
-1.166, 6.037e-4
-1.167, 6.088e-4
-1.168, 6.136e-4
-1.169, 6.181e-4
-1.170, 6.224e-4
-1.171, 6.271e-4
-1.172, 6.321e-4
-1.173, 6.366e-4
-1.174, 6.413e-4
-1.175, 6.456e-4
-1.176, 6.502e-4
-1.177, 6.553e-4
-1.178, 6.605e-4
-1.179, 6.649e-4
-1.180, 6.692e-4
-1.181, 6.734e-4
-1.182, 6.780e-4
-1.183, 6.829e-4
-1.184, 6.869e-4
-1.185, 6.913e-4
-1.186, 6.958e-4
-1.187, 7.009e-4
-1.188, 7.058e-4
-1.189, 7.099e-4
-1.190, 7.142e-4
-1.191, 7.188e-4
-1.192, 7.235e-4
-1.193, 7.283e-4
-1.194, 7.323e-4
-1.195, 7.363e-4
-1.196, 7.411e-4
-1.197, 7.460e-4
-1.198, 7.510e-4
-1.199, 7.549e-4
-1.200, 7.589e-4
-1.201, 7.633e-4
-1.202, 7.679e-4
-1.203, 7.727e-4
-1.204, 7.764e-4
-1.205, 7.800e-4
-1.206, 7.850e-4
-1.207, 7.898e-4
-1.208, 7.941e-4
-1.209, 7.979e-4
-1.210, 8.016e-4
-1.211, 8.058e-4
-1.212, 8.111e-4
-1.213, 8.152e-4
-1.214, 8.193e-4
-1.215, 8.228e-4
-1.216, 8.265e-4
-1.217, 8.310e-4
-1.218, 8.354e-4
-1.219, 8.397e-4
-1.220, 8.440e-4
-1.221, 8.482e-4
-1.222, 8.524e-4
-1.223, 8.566e-4
-1.224, 8.608e-4
-1.225, 8.648e-4
-1.226, 8.689e-4
-1.227, 8.732e-4
-1.228, 8.775e-4
-1.229, 8.820e-4
-1.230, 8.856e-4
-1.231, 8.891e-4
-1.232, 8.939e-4
-1.233, 8.977e-4
-1.234, 9.001e-4
-1.235, 9.029e-4
-1.236, 9.068e-4
-1.237, 9.111e-4
-1.238, 9.153e-4
-1.239, 9.191e-4
-1.240, 9.226e-4
-1.241, 9.263e-4
-1.242, 9.298e-4
-1.243, 9.342e-4
-1.244, 9.378e-4
-1.245, 9.407e-4
-1.246, 9.445e-4
-1.247, 9.489e-4
-1.248, 9.532e-4
-1.249, 9.569e-4
-1.250, 9.591e-4
-1.251, 9.621e-4
-1.252, 9.660e-4
-1.253, 9.698e-4
-1.254, 9.725e-4
-1.255, 9.760e-4
-1.256, 9.795e-4
-1.257, 9.833e-4
-1.258, 9.862e-4
-1.259, 9.897e-4
-1.260, 9.927e-4
-1.261, 9.959e-4
-1.262, 9.989e-4
-1.263, 1.003e-3
-1.264, 1.006e-3
-1.265, 1.009e-3
-1.266, 1.012e-3
-1.267, 1.017e-3
-1.268, 1.019e-3
-1.269, 1.022e-3
-1.270, 1.025e-3
-1.271, 1.029e-3
-1.272, 1.032e-3
-1.273, 1.035e-3
-1.274, 1.038e-3
-1.275, 1.041e-3
-1.276, 1.043e-3
-1.277, 1.046e-3
-1.278, 1.050e-3
-1.279, 1.052e-3
-1.280, 1.055e-3
-1.281, 1.058e-3
-1.282, 1.062e-3
-1.283, 1.065e-3
-1.284, 1.068e-3
-1.285, 1.071e-3
-1.286, 1.074e-3
-1.287, 1.077e-3
-1.288, 1.080e-3
-1.289, 1.084e-3
-1.290, 1.086e-3
-1.291, 1.088e-3
-1.292, 1.091e-3
-1.293, 1.095e-3
-1.294, 1.097e-3
-1.295, 1.099e-3
-1.296, 1.103e-3
-1.297, 1.106e-3
-1.298, 1.108e-3
-1.299, 1.110e-3
-1.300, 1.112e-3
-1.301, 1.116e-3
-1.302, 1.119e-3
-1.303, 1.124e-3
-1.304, 1.126e-3
-1.305, 1.129e-3
-1.306, 1.132e-3
-1.307, 1.136e-3
-1.308, 1.141e-3
-1.309, 1.144e-3
-1.310, 1.149e-3
-1.311, 1.152e-3
-1.312, 1.156e-3
-1.313, 1.160e-3
-1.314, 1.163e-3
-1.315, 1.165e-3
-1.316, 1.166e-3
-1.317, 1.169e-3
-1.318, 1.171e-3
-1.319, 1.172e-3
-1.320, 1.174e-3
-1.321, 1.177e-3
-1.322, 1.180e-3
-1.323, 1.183e-3
-1.324, 1.188e-3
-1.325, 1.191e-3
-1.326, 1.196e-3
-1.327, 1.201e-3
-1.328, 1.205e-3
-1.329, 1.207e-3
-1.330, 1.208e-3
-1.331, 1.213e-3
-1.332, 1.216e-3
-1.333, 1.220e-3
-1.334, 1.220e-3
-1.335, 1.223e-3
-1.336, 1.227e-3
-1.337, 1.229e-3
-1.338, 1.230e-3
-1.339, 1.233e-3
-1.340, 1.236e-3
-1.341, 1.239e-3
-1.342, 1.244e-3
-1.343, 1.249e-3
-1.344, 1.252e-3
-1.345, 1.255e-3
-1.346, 1.259e-3
-1.347, 1.263e-3
-1.348, 1.267e-3
-1.349, 1.270e-3
-1.350, 1.273e-3
-1.351, 1.276e-3
-1.352, 1.278e-3
-1.353, 1.281e-3
-1.354, 1.285e-3
-1.355, 1.289e-3
-1.356, 1.292e-3
-1.357, 1.295e-3
-1.358, 1.300e-3
-1.359, 1.303e-3
-1.360, 1.309e-3
-1.361, 1.312e-3
-1.362, 1.316e-3
-1.363, 1.320e-3
-1.364, 1.325e-3
-1.365, 1.329e-3
-1.366, 1.332e-3
-1.367, 1.337e-3
-1.368, 1.343e-3
-1.369, 1.348e-3
-1.370, 1.352e-3
-1.371, 1.354e-3
-1.372, 1.359e-3
-1.373, 1.365e-3
-1.374, 1.371e-3
-1.375, 1.373e-3
-1.376, 1.383e-3
-1.377, 1.390e-3
-1.378, 1.398e-3
-1.379, 1.402e-3
-1.380, 1.409e-3
-1.381, 1.418e-3
-1.382, 1.429e-3
-1.383, 1.437e-3
-1.384, 1.447e-3
-1.385, 1.453e-3
-1.386, 1.459e-3
-1.387, 1.467e-3
-1.388, 1.476e-3
-1.389, 1.483e-3
-1.390, 1.493e-3
-1.391, 1.504e-3
-1.392, 1.511e-3
-1.393, 1.520e-3
-1.394, 1.533e-3
-1.395, 1.544e-3
-1.396, 1.555e-3
-1.397, 1.568e-3
-1.398, 1.580e-3
-1.399, 1.594e-3
-1.400, 1.585e-3
-1.399, 1.557e-3
-1.398, 1.531e-3
-1.397, 1.508e-3
-1.396, 1.485e-3
-1.395, 1.459e-3
-1.394, 1.435e-3
-1.393, 1.415e-3
-1.392, 1.397e-3
-1.391, 1.378e-3
-1.390, 1.359e-3
-1.389, 1.340e-3
-1.388, 1.323e-3
-1.387, 1.304e-3
-1.386, 1.290e-3
-1.385, 1.272e-3
-1.384, 1.254e-3
-1.383, 1.238e-3
-1.382, 1.223e-3
-1.381, 1.206e-3
-1.380, 1.190e-3
-1.379, 1.175e-3
-1.378, 1.160e-3
-1.377, 1.149e-3
-1.376, 1.136e-3
-1.375, 1.117e-3
-1.374, 1.102e-3
-1.373, 1.088e-3
-1.372, 1.074e-3
-1.371, 1.060e-3
-1.370, 1.046e-3
-1.369, 1.034e-3
-1.368, 1.022e-3
-1.367, 1.009e-3
-1.366, 9.934e-4
-1.365, 9.813e-4
-1.364, 9.682e-4
-1.363, 9.552e-4
-1.362, 9.424e-4
-1.361, 9.303e-4
-1.360, 9.175e-4
-1.359, 9.041e-4
-1.358, 8.900e-4
-1.357, 8.776e-4
-1.356, 8.642e-4
-1.355, 8.521e-4
-1.354, 8.403e-4
-1.353, 8.284e-4
-1.352, 8.175e-4
-1.351, 8.067e-4
-1.350, 7.951e-4
-1.349, 7.841e-4
-1.348, 7.716e-4
-1.347, 7.605e-4
-1.346, 7.491e-4
-1.345, 7.386e-4
-1.344, 7.286e-4
-1.343, 7.185e-4
-1.342, 7.095e-4
-1.341, 6.996e-4
-1.340, 6.888e-4
-1.339, 6.792e-4
-1.338, 6.698e-4
-1.337, 6.592e-4
-1.336, 6.477e-4
-1.335, 6.374e-4
-1.334, 6.277e-4
-1.333, 6.193e-4
-1.332, 6.100e-4
-1.331, 6.009e-4
-1.330, 5.907e-4
-1.329, 5.806e-4
-1.328, 5.725e-4
-1.327, 5.627e-4
-1.326, 5.539e-4
-1.325, 5.448e-4
-1.324, 5.347e-4
-1.323, 5.264e-4
-1.322, 5.169e-4
-1.321, 5.076e-4
-1.320, 4.982e-4
-1.319, 4.897e-4
-1.318, 4.813e-4
-1.317, 4.739e-4
-1.316, 4.656e-4
-1.315, 4.564e-4
-1.314, 4.474e-4
-1.313, 4.390e-4
-1.312, 4.308e-4
-1.311, 4.236e-4
-1.310, 4.143e-4
-1.309, 4.069e-4
-1.308, 4.001e-4
-1.307, 3.924e-4
-1.306, 3.846e-4
-1.305, 3.763e-4
-1.304, 3.679e-4
-1.303, 3.612e-4
-1.302, 3.543e-4
-1.301, 3.472e-4
-1.300, 3.386e-4
-1.299, 3.306e-4
-1.298, 3.236e-4
-1.297, 3.162e-4
-1.296, 3.081e-4
-1.295, 3.000e-4
-1.294, 2.928e-4
-1.293, 2.862e-4
-1.292, 2.798e-4
-1.291, 2.723e-4
-1.290, 2.652e-4
-1.289, 2.583e-4
-1.288, 2.518e-4
-1.287, 2.456e-4
-1.286, 2.385e-4
-1.285, 2.314e-4
-1.284, 2.249e-4
-1.283, 2.184e-4
-1.282, 2.123e-4
-1.281, 2.055e-4
-1.280, 1.984e-4
-1.279, 1.920e-4
-1.278, 1.863e-4
-1.277, 1.806e-4
-1.276, 1.744e-4
-1.275, 1.682e-4
-1.274, 1.620e-4
-1.273, 1.566e-4
-1.272, 1.510e-4
-1.271, 1.446e-4
-1.270, 1.381e-4
-1.269, 1.323e-4
-1.268, 1.270e-4
-1.267, 1.219e-4
-1.266, 1.160e-4
-1.265, 1.098e-4
-1.264, 1.043e-4
-1.263, 9.926e-5
-1.262, 9.387e-5
-1.261, 8.819e-5
-1.260, 8.210e-5
-1.259, 7.651e-5
-1.258, 7.161e-5
-1.257, 6.658e-5
-1.256, 6.139e-5
-1.255, 5.601e-5
-1.254, 5.087e-5
-1.253, 4.613e-5
-1.252, 4.119e-5
-1.251, 3.618e-5
-1.250, 3.097e-5
-1.249, 2.586e-5
-1.248, 2.153e-5
-1.247, 1.689e-5
-1.246, 1.190e-5
-1.245, 6.664e-6
-1.244, 1.911e-6
-1.243, -2.465e-6
-1.242, -7.002e-6
-1.241, -1.200e-5
-1.240, -1.695e-5
-1.239, -2.164e-5
-1.238, -2.578e-5
-1.237, -2.988e-5
-1.236, -3.438e-5
-1.235, -3.908e-5
-1.234, -4.358e-5
-1.233, -4.761e-5
-1.232, -5.172e-5
-1.231, -5.638e-5
-1.230, -6.117e-5
-1.229, -6.596e-5
-1.228, -6.984e-5
-1.227, -7.374e-5
-1.226, -7.780e-5
-1.225, -8.239e-5
-1.224, -8.641e-5
-1.223, -9.007e-5
-1.222, -9.406e-5
-1.221, -9.850e-5
-1.220, -1.031e-4
-1.219, -1.072e-4
-1.218, -1.106e-4
-1.217, -1.144e-4
-1.216, -1.183e-4
-1.215, -1.228e-4
-1.214, -1.266e-4
-1.213, -1.299e-4
-1.212, -1.336e-4
-1.211, -1.378e-4
-1.210, -1.421e-4
-1.209, -1.463e-4
-1.208, -1.495e-4
-1.207, -1.528e-4
-1.206, -1.568e-4
-1.205, -1.608e-4
-1.204, -1.644e-4
-1.203, -1.677e-4
-1.202, -1.712e-4
-1.201, -1.754e-4
-1.200, -1.795e-4
-1.199, -1.833e-4
-1.198, -1.867e-4
-1.197, -1.900e-4
-1.196, -1.942e-4
-1.195, -1.981e-4
-1.194, -2.014e-4
-1.193, -2.044e-4
-1.192, -2.077e-4
-1.191, -2.113e-4
-1.190, -2.154e-4
-1.189, -2.189e-4
-1.188, -2.219e-4
-1.187, -2.252e-4
-1.186, -2.285e-4
-1.185, -2.322e-4
-1.184, -2.358e-4
-1.183, -2.387e-4
-1.182, -2.418e-4
-1.181, -2.453e-4
-1.180, -2.489e-4
-1.179, -2.524e-4
-1.178, -2.555e-4
-1.177, -2.583e-4
-1.176, -2.621e-4
-1.175, -2.656e-4
-1.174, -2.688e-4
-1.173, -2.717e-4
-1.172, -2.750e-4
-1.171, -2.784e-4
-1.170, -2.819e-4
-1.169, -2.851e-4
-1.168, -2.879e-4
-1.167, -2.912e-4
-1.166, -2.945e-4
-1.165, -2.978e-4
-1.164, -3.006e-4
-1.163, -3.033e-4
-1.162, -3.061e-4
-1.161, -3.100e-4
-1.160, -3.137e-4
-1.159, -3.167e-4
-1.158, -3.190e-4
-1.157, -3.223e-4
-1.156, -3.254e-4
-1.155, -3.289e-4
-1.154, -3.319e-4
-1.153, -3.347e-4
-1.152, -3.372e-4
-1.151, -3.403e-4
-1.150, -3.440e-4
-1.149, -3.470e-4
-1.148, -3.495e-4
-1.147, -3.517e-4
-1.146, -3.550e-4
-1.145, -3.584e-4
-1.144, -3.612e-4
-1.143, -3.638e-4
-1.142, -3.665e-4
-1.141, -3.698e-4
-1.140, -3.730e-4
-1.139, -3.758e-4
-1.138, -3.782e-4
-1.137, -3.806e-4
-1.136, -3.838e-4
-1.135, -3.873e-4
-1.134, -3.903e-4
-1.133, -3.928e-4
-1.132, -3.949e-4
-1.131, -3.983e-4
-1.130, -4.017e-4
-1.129, -4.046e-4
-1.128, -4.069e-4
-1.127, -4.091e-4
-1.126, -4.123e-4
-1.125, -4.159e-4
-1.124, -4.187e-4
-1.123, -4.203e-4
-1.122, -4.222e-4
-1.121, -4.254e-4
-1.120, -4.288e-4
-1.119, -4.316e-4
-1.118, -4.339e-4
-1.117, -4.359e-4
-1.116, -4.390e-4
-1.115, -4.420e-4
-1.114, -4.446e-4
-1.113, -4.471e-4
-1.112, -4.492e-4
-1.111, -4.523e-4
-1.110, -4.556e-4
-1.109, -4.583e-4
-1.108, -4.612e-4
-1.107, -4.637e-4
-1.106, -4.668e-4
-1.105, -4.694e-4
-1.104, -4.713e-4
-1.103, -4.732e-4
-1.102, -4.748e-4
-1.101, -4.775e-4
-1.100, -4.805e-4
-1.099, -4.835e-4
-1.098, -4.860e-4
-1.097, -4.879e-4
-1.096, -4.906e-4
-1.095, -4.932e-4
-1.094, -4.957e-4
-1.093, -4.977e-4
-1.092, -4.996e-4
-1.091, -5.021e-4
-1.090, -5.044e-4
-1.089, -5.069e-4
-1.088, -5.092e-4
-1.087, -5.114e-4
-1.086, -5.138e-4
-1.085, -5.161e-4
-1.084, -5.184e-4
-1.083, -5.206e-4
-1.082, -5.222e-4
-1.081, -5.249e-4
-1.080, -5.272e-4
-1.079, -5.294e-4
-1.078, -5.312e-4
-1.077, -5.326e-4
-1.076, -5.350e-4
-1.075, -5.380e-4
-1.074, -5.404e-4
-1.073, -5.412e-4
-1.072, -5.431e-4
-1.071, -5.450e-4
-1.070, -5.474e-4
-1.069, -5.492e-4
-1.068, -5.508e-4
-1.067, -5.521e-4
-1.066, -5.539e-4
-1.065, -5.561e-4
-1.064, -5.586e-4
-1.063, -5.603e-4
-1.062, -5.614e-4
-1.061, -5.629e-4
-1.060, -5.650e-4
-1.059, -5.672e-4
-1.058, -5.686e-4
-1.057, -5.702e-4
-1.056, -5.725e-4
-1.055, -5.745e-4
-1.054, -5.757e-4
-1.053, -5.771e-4
-1.052, -5.793e-4
-1.051, -5.808e-4
-1.050, -5.831e-4
-1.049, -5.851e-4
-1.048, -5.864e-4
-1.047, -5.872e-4
-1.046, -5.898e-4
-1.045, -5.922e-4
-1.044, -5.949e-4
-1.043, -5.958e-4
-1.042, -5.960e-4
-1.041, -5.972e-4
-1.040, -5.992e-4
-1.039, -6.008e-4
-1.038, -6.017e-4
-1.037, -6.023e-4
-1.036, -6.045e-4
-1.035, -6.057e-4
-1.034, -6.070e-4
-1.033, -6.087e-4
-1.032, -6.096e-4
-1.031, -6.113e-4
-1.030, -6.127e-4
-1.029, -6.140e-4
-1.028, -6.148e-4
-1.027, -6.161e-4
-1.026, -6.169e-4
-1.025, -6.187e-4
-1.024, -6.206e-4
-1.023, -6.208e-4
-1.022, -6.216e-4
-1.021, -6.224e-4
-1.020, -6.228e-4
-1.019, -6.247e-4
-1.018, -6.255e-4
-1.017, -6.269e-4
-1.016, -6.280e-4
-1.015, -6.295e-4
-1.014, -6.301e-4
-1.013, -6.321e-4
-1.012, -6.326e-4
-1.011, -6.336e-4
-1.010, -6.350e-4
-1.009, -6.362e-4
-1.008, -6.370e-4
-1.007, -6.374e-4
-1.006, -6.380e-4
-1.005, -6.397e-4
-1.004, -6.406e-4
-1.003, -6.413e-4
-1.002, -6.417e-4
-1.001, -6.422e-4
-1.000, -6.243e-4
-1.001, -5.927e-4
-1.002, -5.663e-4
-1.003, -5.427e-4
-1.004, -5.216e-4
-1.005, -5.023e-4
-1.006, -4.843e-4
-1.007, -4.672e-4
-1.008, -4.506e-4
-1.009, -4.353e-4
-1.010, -4.214e-4
-1.011, -4.078e-4
-1.012, -3.941e-4
-1.013, -3.810e-4
-1.014, -3.692e-4
-1.015, -3.578e-4
-1.016, -3.468e-4
-1.017, -3.359e-4
-1.018, -3.255e-4
-1.019, -3.158e-4
-1.020, -3.065e-4
-1.021, -2.974e-4
-1.022, -2.880e-4
-1.023, -2.789e-4
-1.024, -2.706e-4
-1.025, -2.630e-4
-1.026, -2.554e-4
-1.027, -2.476e-4
-1.028, -2.399e-4
-1.029, -2.327e-4
-1.030, -2.260e-4
-1.031, -2.192e-4
-1.032, -2.124e-4
-1.033, -2.055e-4
-1.034, -1.992e-4
-1.035, -1.934e-4
-1.036, -1.873e-4
-1.037, -1.813e-4
-1.038, -1.750e-4
-1.039, -1.695e-4
-1.040, -1.644e-4
-1.041, -1.591e-4
-1.042, -1.534e-4
-1.043, -1.478e-4
-1.044, -1.427e-4
-1.045, -1.380e-4
-1.046, -1.334e-4
-1.047, -1.282e-4
-1.048, -1.231e-4
-1.049, -1.183e-4
-1.050, -1.140e-4
-1.051, -1.098e-4
-1.052, -1.049e-4
-1.053, -1.001e-4
-1.054, -9.562e-5
-1.055, -9.162e-5
-1.056, -8.759e-5
-1.057, -8.303e-5
-1.058, -7.839e-5
-1.059, -7.417e-5
-1.060, -7.036e-5
-1.061, -6.648e-5
-1.062, -6.222e-5
-1.063, -5.769e-5
-1.064, -5.373e-5
-1.065, -5.013e-5
-1.066, -4.643e-5
-1.067, -4.235e-5
-1.068, -3.799e-5
-1.069, -3.412e-5
-1.070, -3.073e-5
-1.071, -2.702e-5
-1.072, -2.315e-5
-1.073, -1.888e-5
-1.074, -1.511e-5
-1.075, -1.163e-5
-1.076, -8.040e-6
-1.077, -4.151e-6
-1.078, -4.262e-8
-1.079, 3.717e-6
-1.080, 6.961e-6
-1.081, 1.037e-5
-1.082, 1.431e-5
-1.083, 1.834e-5
-1.084, 2.203e-5
-1.085, 2.517e-5
-1.086, 2.858e-5
-1.087, 3.246e-5
-1.088, 3.653e-5
-1.089, 4.014e-5
-1.090, 4.336e-5
-1.091, 4.662e-5
-1.092, 5.047e-5
-1.093, 5.444e-5
-1.094, 5.805e-5
-1.095, 6.137e-5
-1.096, 6.465e-5
-1.097, 6.849e-5
-1.098, 7.243e-5
-1.099, 7.603e-5
-1.100, 7.928e-5
-1.101, 8.256e-5
-1.102, 8.636e-5
-1.103, 9.042e-5
-1.104, 9.395e-5
-1.105, 9.711e-5
-1.106, 1.004e-4
-1.107, 1.041e-4
-1.108, 1.082e-4
-1.109, 1.117e-4
-1.110, 1.148e-4
-1.111, 1.182e-4
-1.112, 1.219e-4
-1.113, 1.259e-4
-1.114, 1.296e-4
-1.115, 1.326e-4
-1.116, 1.361e-4
-1.117, 1.397e-4
-1.118, 1.437e-4
-1.119, 1.473e-4
-1.120, 1.503e-4
-1.121, 1.537e-4
-1.122, 1.574e-4
-1.123, 1.615e-4
-1.124, 1.653e-4
-1.125, 1.684e-4
-1.126, 1.716e-4
-1.127, 1.754e-4
-1.128, 1.795e-4
-1.129, 1.834e-4
-1.130, 1.867e-4
-1.131, 1.900e-4
-1.132, 1.939e-4
-1.133, 1.977e-4
-1.134, 2.012e-4
-1.135, 2.044e-4
-1.136, 2.076e-4
-1.137, 2.116e-4
-1.138, 2.155e-4
-1.139, 2.191e-4
-1.140, 2.223e-4
-1.141, 2.254e-4
-1.142, 2.291e-4
-1.143, 2.333e-4
-1.144, 2.369e-4
-1.145, 2.399e-4
-1.146, 2.430e-4
-1.147, 2.467e-4
-1.148, 2.508e-4
-1.149, 2.544e-4
-1.150, 2.575e-4
-1.151, 2.608e-4
-1.152, 2.646e-4
-1.153, 2.686e-4
-1.154, 2.721e-4
-1.155, 2.749e-4
-1.156, 2.779e-4
-1.157, 2.815e-4
-1.158, 2.857e-4
-1.159, 2.892e-4
-1.160, 2.922e-4
-1.161, 2.953e-4
-1.162, 2.988e-4
-1.163, 3.029e-4
-1.164, 3.064e-4
-1.165, 3.094e-4
-1.166, 3.123e-4
-1.167, 3.160e-4
-1.168, 3.200e-4
-1.169, 3.235e-4
-1.170, 3.265e-4
-1.171, 3.295e-4
-1.172, 3.329e-4
-1.173, 3.368e-4
-1.174, 3.403e-4
-1.175, 3.434e-4
-1.176, 3.466e-4
-1.177, 3.503e-4
-1.178, 3.540e-4
-1.179, 3.571e-4
-1.180, 3.600e-4
-1.181, 3.627e-4
-1.182, 3.665e-4
-1.183, 3.702e-4
-1.184, 3.732e-4
-1.185, 3.763e-4
-1.186, 3.791e-4
-1.187, 3.826e-4
-1.188, 3.863e-4
-1.189, 3.892e-4
-1.190, 3.921e-4
-1.191, 3.950e-4
-1.192, 3.985e-4
-1.193, 4.023e-4
-1.194, 4.055e-4
-1.195, 4.075e-4
-1.196, 4.102e-4
-1.197, 4.137e-4
-1.198, 4.168e-4
-1.199, 4.233e-4
-1.200, 4.258e-4
-1.201, 4.284e-4
-1.202, 4.319e-4
-1.203, 4.349e-4
-1.204, 4.380e-4
-1.205, 4.406e-4
-1.206, 4.428e-4
-1.207, 4.456e-4
-1.208, 4.488e-4
-1.209, 4.516e-4
-1.210, 4.545e-4
-1.211, 4.570e-4
-1.212, 4.602e-4
-1.213, 4.635e-4
-1.214, 4.664e-4
-1.215, 4.690e-4
-1.216, 4.714e-4
-1.217, 4.744e-4
-1.218, 4.778e-4
-1.219, 4.809e-4
-1.220, 4.833e-4
-1.221, 4.855e-4
-1.222, 4.884e-4
-1.223, 4.918e-4
-1.224, 4.944e-4
-1.225, 4.971e-4
-1.226, 4.994e-4
-1.227, 5.023e-4
-1.228, 5.061e-4
-1.229, 5.094e-4
-1.230, 5.115e-4
-1.231, 5.138e-4
-1.232, 5.171e-4
-1.233, 5.200e-4
-1.234, 5.222e-4
-1.235, 5.242e-4
-1.236, 5.260e-4
-1.237, 5.286e-4
-1.238, 5.317e-4
-1.239, 5.352e-4
-1.240, 5.377e-4
-1.241, 5.397e-4
-1.242, 5.419e-4
-1.243, 5.448e-4
-1.244, 5.479e-4
-1.245, 5.502e-4
-1.246, 5.521e-4
-1.247, 5.546e-4
-1.248, 5.576e-4
-1.249, 5.606e-4
-1.250, 5.627e-4
-1.251, 5.645e-4
-1.252, 5.674e-4
-1.253, 5.705e-4
-1.254, 5.733e-4
-1.255, 5.752e-4
-1.256, 5.775e-4
-1.257, 5.801e-4
-1.258, 5.828e-4
-1.259, 5.857e-4
-1.260, 5.877e-4
-1.261, 5.902e-4
-1.262, 5.934e-4
-1.263, 5.962e-4
-1.264, 5.989e-4
-1.265, 6.019e-4
-1.266, 6.044e-4
-1.267, 6.071e-4
-1.268, 6.099e-4
-1.269, 6.134e-4
-1.270, 6.155e-4
-1.271, 6.178e-4
-1.272, 6.206e-4
-1.273, 6.243e-4
-1.274, 6.281e-4
-1.275, 6.301e-4
-1.276, 6.318e-4
-1.277, 6.352e-4
-1.278, 6.387e-4
-1.279, 6.418e-4
-1.280, 6.448e-4
-1.281, 6.468e-4
-1.282, 6.495e-4
-1.283, 6.533e-4
-1.284, 6.572e-4
-1.285, 6.597e-4
-1.286, 6.620e-4
-1.287, 6.653e-4
-1.288, 6.693e-4
-1.289, 6.717e-4
-1.290, 6.737e-4
-1.291, 6.765e-4
-1.292, 6.799e-4
-1.293, 6.849e-4
-1.294, 6.886e-4
-1.295, 6.910e-4
-1.296, 6.940e-4
-1.297, 6.980e-4
-1.298, 7.018e-4
-1.299, 7.062e-4
-1.300, 7.091e-4
-1.301, 7.119e-4
-1.302, 7.162e-4
-1.303, 7.200e-4
-1.304, 7.232e-4
-1.305, 7.263e-4
-1.306, 7.297e-4
-1.307, 7.336e-4
-1.308, 7.375e-4
-1.309, 7.425e-4
-1.310, 7.468e-4
-1.311, 7.500e-4
-1.312, 7.541e-4
-1.313, 7.591e-4
-1.314, 7.633e-4
-1.315, 7.676e-4
-1.316, 7.718e-4
-1.317, 7.751e-4
-1.318, 7.801e-4
-1.319, 7.856e-4
-1.320, 7.909e-4
-1.321, 7.940e-4
-1.322, 7.983e-4
-1.323, 8.041e-4
-1.324, 8.085e-4
-1.325, 8.133e-4
-1.326, 8.181e-4
-1.327, 8.226e-4
-1.328, 8.272e-4
-1.329, 8.327e-4
-1.330, 8.379e-4
-1.331, 8.426e-4
-1.332, 8.481e-4
-1.333, 8.542e-4
-1.334, 8.586e-4
-1.335, 8.647e-4
-1.336, 8.699e-4
-1.337, 8.758e-4
-1.338, 8.821e-4
-1.339, 8.880e-4
-1.340, 8.934e-4
-1.341, 8.988e-4
-1.342, 9.048e-4
-1.343, 9.102e-4
-1.344, 9.177e-4
-1.345, 9.248e-4
-1.346, 9.317e-4
-1.347, 9.381e-4
-1.348, 9.439e-4
-1.349, 9.495e-4
-1.350, 9.551e-4
-1.351, 9.619e-4
-1.352, 9.700e-4
-1.353, 9.773e-4
-1.354, 9.854e-4
-1.355, 9.918e-4
-1.356, 9.984e-4
-1.357, 1.006e-3
-1.358, 1.013e-3
-1.359, 1.022e-3
-1.360, 1.030e-3
-1.361, 1.037e-3
-1.362, 1.047e-3
-1.363, 1.056e-3
-1.364, 1.066e-3
-1.365, 1.074e-3
-1.366, 1.083e-3
-1.367, 1.092e-3
-1.368, 1.103e-3
-1.369, 1.114e-3
-1.370, 1.125e-3
-1.371, 1.137e-3
-1.372, 1.149e-3
-1.373, 1.160e-3
-1.374, 1.173e-3
-1.375, 1.185e-3
-1.376, 1.198e-3
-1.377, 1.212e-3
-1.378, 1.225e-3
-1.379, 1.238e-3
-1.380, 1.253e-3
-1.381, 1.268e-3
-1.382, 1.284e-3
-1.383, 1.300e-3
-1.384, 1.315e-3
-1.385, 1.333e-3
-1.386, 1.349e-3
-1.387, 1.367e-3
-1.388, 1.387e-3
-1.389, 1.408e-3
-1.390, 1.428e-3
-1.391, 1.448e-3
-1.392, 1.467e-3
-1.393, 1.490e-3
-1.394, 1.510e-3
-1.395, 1.531e-3
-1.396, 1.553e-3
-1.397, 1.575e-3
-1.398, 1.597e-3
-1.399, 1.621e-3
-1.400, 1.619e-3
-1.399, 1.599e-3
-1.398, 1.581e-3
-1.397, 1.567e-3
-1.396, 1.553e-3
-1.395, 1.536e-3
-1.394, 1.522e-3
-1.393, 1.503e-3
-1.392, 1.489e-3
-1.391, 1.474e-3
-1.390, 1.456e-3
-1.389, 1.434e-3
-1.388, 1.421e-3
-1.387, 1.408e-3
-1.386, 1.390e-3
-1.385, 1.374e-3
-1.384, 1.358e-3
-1.383, 1.341e-3
-1.382, 1.327e-3
-1.381, 1.312e-3
-1.380, 1.293e-3
-1.379, 1.276e-3
-1.378, 1.262e-3
-1.377, 1.247e-3
-1.376, 1.233e-3
-1.375, 1.216e-3
-1.374, 1.199e-3
-1.373, 1.184e-3
-1.372, 1.167e-3
-1.371, 1.153e-3
-1.370, 1.139e-3
-1.369, 1.125e-3
-1.368, 1.113e-3
-1.367, 1.098e-3
-1.366, 1.084e-3
-1.365, 1.069e-3
-1.364, 1.052e-3
-1.363, 1.043e-3
-1.362, 1.029e-3
-1.361, 1.016e-3
-1.360, 1.003e-3
-1.359, 9.892e-4
-1.358, 9.761e-4
-1.357, 9.650e-4
-1.356, 9.524e-4
-1.355, 9.405e-4
-1.354, 9.264e-4
-1.353, 9.148e-4
-1.352, 9.076e-4
-1.351, 8.988e-4
-1.350, 8.854e-4
-1.349, 8.725e-4
-1.348, 8.595e-4
-1.347, 8.491e-4
-1.346, 8.368e-4
-1.345, 8.242e-4
-1.344, 8.119e-4
-1.343, 8.004e-4
-1.342, 7.882e-4
-1.341, 7.770e-4
-1.340, 7.646e-4
-1.339, 7.510e-4
-1.338, 7.420e-4
-1.337, 7.299e-4
-1.336, 7.200e-4
-1.335, 7.084e-4
-1.334, 6.967e-4
-1.333, 6.854e-4
-1.332, 6.729e-4
-1.331, 6.629e-4
-1.330, 6.526e-4
-1.329, 6.400e-4
-1.328, 6.282e-4
-1.327, 6.196e-4
-1.326, 6.093e-4
-1.325, 5.984e-4
-1.324, 5.883e-4
-1.323, 5.779e-4
-1.322, 5.682e-4
-1.321, 5.585e-4
-1.320, 5.474e-4
-1.319, 5.367e-4
-1.318, 5.269e-4
-1.317, 5.165e-4
-1.316, 5.057e-4
-1.315, 4.946e-4
-1.314, 4.824e-4
-1.313, 4.732e-4
-1.312, 4.654e-4
-1.311, 4.568e-4
-1.310, 4.472e-4
-1.309, 4.377e-4
-1.308, 4.303e-4
-1.307, 4.208e-4
-1.306, 4.101e-4
-1.305, 4.008e-4
-1.304, 3.865e-4
-1.303, 3.759e-4
-1.302, 3.673e-4
-1.301, 3.591e-4
-1.300, 3.500e-4
-1.299, 3.409e-4
-1.298, 3.324e-4
-1.297, 3.249e-4
-1.296, 3.146e-4
-1.295, 3.090e-4
-1.294, 3.029e-4
-1.293, 2.965e-4
-1.292, 2.882e-4
-1.291, 2.800e-4
-1.290, 2.679e-4
-1.289, 2.610e-4
-1.288, 2.523e-4
-1.287, 2.475e-4
-1.286, 2.626e-4
-1.285, 2.551e-4
-1.284, 2.444e-4
-1.283, 2.346e-4
-1.282, 2.258e-4
-1.281, 2.176e-4
-1.280, 2.087e-4
-1.279, 2.008e-4
-1.278, 1.944e-4
-1.277, 1.873e-4
-1.276, 1.801e-4
-1.275, 1.722e-4
-1.274, 1.647e-4
-1.273, 1.571e-4
-1.272, 1.505e-4
-1.271, 1.438e-4
-1.270, 1.366e-4
-1.269, 1.298e-4
-1.268, 1.230e-4
-1.267, 1.168e-4
-1.266, 1.106e-4
-1.265, 1.037e-4
-1.264, 9.703e-5
-1.263, 9.049e-5
-1.262, 8.463e-5
-1.261, 7.895e-5
-1.260, 7.268e-5
-1.259, 6.639e-5
-1.258, 6.027e-5
-1.257, 5.481e-5
-1.256, 4.938e-5
-1.255, 4.301e-5
-1.254, 3.665e-5
-1.253, 3.081e-5
-1.252, 2.516e-5
-1.251, 2.013e-5
-1.250, 1.442e-5
-1.249, 8.371e-6
-1.248, 2.821e-6
-1.247, -2.145e-6
-1.246, -7.027e-6
-1.245, -1.239e-5
-1.244, -1.795e-5
-1.243, -2.318e-5
-1.242, -2.786e-5
-1.241, -3.250e-5
-1.240, -3.765e-5
-1.239, -4.319e-5
-1.238, -4.829e-5
-1.237, -5.272e-5
-1.236, -5.712e-5
-1.235, -6.200e-5
-1.234, -6.705e-5
-1.233, -7.117e-5
-1.232, -7.519e-5
-1.231, -7.944e-5
-1.230, -8.427e-5
-1.229, -8.966e-5
-1.228, -9.434e-5
-1.227, -9.813e-5
-1.226, -1.020e-4
-1.225, -1.064e-4
-1.224, -1.105e-4
-1.223, -1.149e-4
-1.222, -1.183e-4
-1.221, -1.216e-4
-1.220, -1.264e-4
-1.219, -1.317e-4
-1.218, -1.358e-4
-1.217, -1.394e-4
-1.216, -1.426e-4
-1.215, -1.467e-4
-1.214, -1.509e-4
-1.213, -1.548e-4
-1.212, -1.582e-4
-1.211, -1.612e-4
-1.210, -1.651e-4
-1.209, -1.698e-4
-1.208, -1.737e-4
-1.207, -1.775e-4
-1.206, -1.901e-4
-1.205, -1.990e-4
-1.204, -2.014e-4
-1.203, -2.044e-4
-1.202, -2.070e-4
-1.201, -2.097e-4
-1.200, -2.130e-4
-1.199, -2.169e-4
-1.198, -2.208e-4
-1.197, -2.236e-4
-1.196, -2.267e-4
-1.195, -2.302e-4
-1.194, -2.342e-4
-1.193, -2.378e-4
-1.192, -2.405e-4
-1.191, -2.437e-4
-1.190, -2.475e-4
-1.189, -2.512e-4
-1.188, -2.547e-4
-1.187, -2.578e-4
-1.186, -2.608e-4
-1.185, -2.643e-4
-1.184, -2.681e-4
-1.183, -2.718e-4
-1.182, -2.751e-4
-1.181, -2.785e-4
-1.180, -2.822e-4
-1.179, -2.859e-4
-1.178, -2.896e-4
-1.177, -2.924e-4
-1.176, -2.949e-4
-1.175, -2.928e-4
-1.174, -2.964e-4
-1.173, -3.075e-4
-1.172, -3.096e-4
-1.171, -3.117e-4
-1.170, -3.152e-4
-1.169, -3.186e-4
-1.168, -3.218e-4
-1.167, -3.247e-4
-1.166, -3.272e-4
-1.165, -3.302e-4
-1.164, -3.346e-4
-1.163, -3.376e-4
-1.162, -3.398e-4
-1.161, -3.445e-4
-1.160, -3.482e-4
-1.159, -3.512e-4
-1.158, -3.539e-4
-1.157, -3.560e-4
-1.156, -3.583e-4
-1.155, -3.611e-4
-1.154, -3.641e-4
-1.153, -3.672e-4
-1.152, -3.696e-4
-1.151, -3.719e-4
-1.150, -3.752e-4
-1.149, -3.775e-4
-1.148, -3.806e-4
-1.147, -3.831e-4
-1.146, -3.851e-4
-1.145, -3.876e-4
-1.144, -3.907e-4
-1.143, -3.940e-4
-1.142, -3.964e-4
-1.141, -3.986e-4
-1.140, -4.018e-4
-1.139, -4.043e-4
-1.138, -4.072e-4
-1.137, -4.097e-4
-1.136, -4.111e-4
-1.135, -4.138e-4
-1.134, -4.169e-4
-1.133, -4.198e-4
-1.132, -4.220e-4
-1.131, -4.238e-4
-1.130, -4.263e-4
-1.129, -4.288e-4
-1.128, -4.320e-4
-1.127, -4.334e-4
-1.126, -4.343e-4
-1.125, -4.374e-4
-1.124, -4.410e-4
-1.123, -4.437e-4
-1.122, -4.460e-4
-1.121, -4.442e-4
-1.120, -4.469e-4
-1.119, -4.498e-4
-1.118, -4.524e-4
-1.117, -4.537e-4
-1.116, -4.546e-4
-1.115, -4.571e-4
-1.114, -4.602e-4
-1.113, -4.625e-4
-1.112, -4.647e-4
-1.111, -4.673e-4
-1.110, -4.703e-4
-1.109, -4.733e-4
-1.108, -4.932e-4
-1.107, -5.095e-4
-1.106, -5.083e-4
-1.105, -5.090e-4
-1.104, -5.103e-4
-1.103, -5.123e-4
-1.102, -5.135e-4
-1.101, -5.145e-4
-1.100, -5.161e-4
-1.099, -5.183e-4
-1.098, -5.202e-4
-1.097, -5.217e-4
-1.096, -5.240e-4
-1.095, -5.269e-4
-1.094, -5.295e-4
-1.093, -5.317e-4
-1.092, -5.331e-4
-1.091, -5.345e-4
-1.090, -5.366e-4
-1.089, -5.390e-4
-1.088, -5.411e-4
-1.087, -5.427e-4
-1.086, -5.442e-4
-1.085, -5.458e-4
-1.084, -5.480e-4
-1.083, -5.502e-4
-1.082, -5.518e-4
-1.081, -5.533e-4
-1.080, -5.554e-4
-1.079, -5.577e-4
-1.078, -5.602e-4
-1.077, -5.618e-4
-1.076, -5.634e-4
-1.075, -5.657e-4
-1.074, -5.677e-4
-1.073, -5.691e-4
-1.072, -5.705e-4
-1.071, -5.722e-4
-1.070, -5.743e-4
-1.069, -5.766e-4
-1.068, -5.783e-4
-1.067, -5.797e-4
-1.066, -5.809e-4
-1.065, -5.822e-4
-1.064, -5.841e-4
-1.063, -5.861e-4
-1.062, -5.874e-4
-1.061, -5.885e-4
-1.060, -5.902e-4
-1.059, -5.918e-4
-1.058, -5.937e-4
-1.057, -5.954e-4
-1.056, -5.958e-4
-1.055, -5.975e-4
-1.054, -5.995e-4
-1.053, -6.009e-4
-1.052, -6.022e-4
-1.051, -6.034e-4
-1.050, -6.050e-4
-1.049, -6.072e-4
-1.048, -6.084e-4
-1.047, -6.096e-4
-1.046, -6.100e-4
-1.045, -6.113e-4
-1.044, -6.135e-4
-1.043, -6.154e-4
-1.042, -6.165e-4
-1.041, -6.172e-4
-1.040, -6.179e-4
-1.039, -6.195e-4
-1.038, -6.221e-4
-1.037, -6.228e-4
-1.036, -6.235e-4
-1.035, -6.244e-4
-1.034, -6.261e-4
-1.033, -6.274e-4
-1.032, -6.293e-4
-1.031, -6.303e-4
-1.030, -6.311e-4
-1.029, -6.323e-4
-1.028, -6.338e-4
-1.027, -6.344e-4
-1.026, -6.348e-4
-1.025, -6.358e-4
-1.024, -6.372e-4
-1.023, -6.381e-4
-1.022, -6.379e-4
-1.021, -6.386e-4
-1.020, -6.404e-4
-1.019, -6.414e-4
-1.018, -6.427e-4
-1.017, -6.431e-4
-1.016, -6.431e-4
-1.015, -6.439e-4
-1.014, -6.436e-4
-1.013, -6.414e-4
-1.012, -6.429e-4
-1.011, -6.428e-4
-1.010, -6.436e-4
-1.009, -6.455e-4
-1.008, -6.480e-4
-1.007, -6.503e-4
-1.006, -6.508e-4
-1.005, -6.516e-4
-1.004, -6.526e-4
-1.003, -6.532e-4
-1.002, -6.536e-4
-1.001, -6.539e-4
-1.000, -6.344e-4
-1.001, -6.015e-4
-1.002, -5.746e-4
-1.003, -5.508e-4
-1.004, -5.288e-4
-1.005, -5.081e-4
-1.006, -4.894e-4
-1.007, -4.721e-4
-1.008, -4.552e-4
-1.009, -4.392e-4
-1.010, -4.242e-4
-1.011, -4.112e-4
-1.012, -3.957e-4
-1.013, -3.823e-4
-1.014, -3.709e-4
-1.015, -3.600e-4
-1.016, -3.497e-4
-1.017, -3.393e-4
-1.018, -3.294e-4
-1.019, -3.194e-4
-1.020, -3.103e-4
-1.021, -3.018e-4
-1.022, -2.933e-4
-1.023, -2.847e-4
-1.024, -2.758e-4
-1.025, -2.676e-4
-1.026, -2.603e-4
-1.027, -2.534e-4
-1.028, -2.460e-4
-1.029, -2.387e-4
-1.030, -2.319e-4
-1.031, -2.258e-4
-1.032, -2.193e-4
-1.033, -2.129e-4
-1.034, -2.063e-4
-1.035, -2.002e-4
-1.036, -1.950e-4
-1.037, -1.894e-4
-1.038, -1.838e-4
-1.039, -1.779e-4
-1.040, -1.727e-4
-1.041, -1.678e-4
-1.042, -1.628e-4
-1.043, -1.576e-4
-1.044, -1.522e-4
-1.045, -1.472e-4
-1.046, -1.425e-4
-1.047, -1.377e-4
-1.048, -1.366e-4
-1.049, -1.329e-4
-1.050, -1.278e-4
-1.051, -1.233e-4
-1.052, -1.186e-4
-1.053, -1.139e-4
-1.054, -1.088e-4
-1.055, -1.040e-4
-1.056, -1.001e-4
-1.057, -9.606e-5
-1.058, -9.161e-5
-1.059, -8.698e-5
-1.060, -8.279e-5
-1.061, -7.952e-5
-1.062, -7.664e-5
-1.063, -7.256e-5
-1.064, -6.839e-5
-1.065, -6.401e-5
-1.066, -6.026e-5
-1.067, -5.653e-5
-1.068, -5.227e-5
-1.069, -4.793e-5
-1.070, -4.392e-5
-1.071, -4.043e-5
-1.072, -3.690e-5
-1.073, -3.279e-5
-1.074, -2.852e-5
-1.075, -2.454e-5
-1.076, -2.098e-5
-1.077, -1.764e-5
-1.078, -1.372e-5
-1.079, -9.512e-6
-1.080, -5.797e-6
-1.081, -2.408e-6
-1.082, 9.923e-7
-1.083, 4.840e-6
-1.084, 9.052e-6
-1.085, 1.281e-5
-1.086, 1.609e-5
-1.087, 1.946e-5
-1.088, 2.321e-5
-1.089, 2.735e-5
-1.090, 3.109e-5
-1.091, 3.425e-5
-1.092, 3.770e-5
-1.093, 4.140e-5
-1.094, 4.555e-5
-1.095, 4.934e-5
-1.096, 5.251e-5
-1.097, 5.584e-5
-1.098, 5.971e-5
-1.099, 6.364e-5
-1.100, 6.739e-5
-1.101, 7.053e-5
-1.102, 7.444e-5
-1.103, 7.840e-5
-1.104, 8.226e-5
-1.105, 8.607e-5
-1.106, 8.928e-5
-1.107, 9.250e-5
-1.108, 9.631e-5
-1.109, 1.003e-4
-1.110, 1.041e-4
-1.111, 1.072e-4
-1.112, 1.104e-4
-1.113, 1.142e-4
-1.114, 1.183e-4
-1.115, 1.221e-4
-1.116, 1.253e-4
-1.117, 1.284e-4
-1.118, 1.322e-4
-1.119, 1.364e-4
-1.120, 1.400e-4
-1.121, 1.432e-4
-1.122, 1.463e-4
-1.123, 1.498e-4
-1.124, 1.541e-4
-1.125, 1.579e-4
-1.126, 1.611e-4
-1.127, 1.643e-4
-1.128, 1.679e-4
-1.129, 1.722e-4
-1.130, 1.759e-4
-1.131, 1.791e-4
-1.132, 1.823e-4
-1.133, 1.859e-4
-1.134, 1.900e-4
-1.135, 1.938e-4
-1.136, 1.968e-4
-1.137, 2.001e-4
-1.138, 2.037e-4
-1.139, 2.076e-4
-1.140, 2.114e-4
-1.141, 2.144e-4
-1.142, 2.175e-4
-1.143, 2.214e-4
-1.144, 2.254e-4
-1.145, 2.292e-4
-1.146, 2.325e-4
-1.147, 2.354e-4
-1.148, 2.392e-4
-1.149, 2.429e-4
-1.150, 2.468e-4
-1.151, 2.499e-4
-1.152, 2.528e-4
-1.153, 2.564e-4
-1.154, 2.604e-4
-1.155, 2.643e-4
-1.156, 2.672e-4
-1.157, 2.701e-4
-1.158, 2.738e-4
-1.159, 2.776e-4
-1.160, 2.811e-4
-1.161, 2.841e-4
-1.162, 2.873e-4
-1.163, 2.909e-4
-1.164, 2.948e-4
-1.165, 2.983e-4
-1.166, 3.013e-4
-1.167, 3.042e-4
-1.168, 3.075e-4
-1.169, 3.114e-4
-1.170, 3.151e-4
-1.171, 3.178e-4
-1.172, 3.207e-4
-1.173, 3.240e-4
-1.174, 3.277e-4
-1.175, 3.311e-4
-1.176, 3.342e-4
-1.177, 3.372e-4
-1.178, 3.406e-4
-1.179, 3.439e-4
-1.180, 3.475e-4
-1.181, 3.503e-4
-1.182, 3.532e-4
-1.183, 3.565e-4
-1.184, 3.600e-4
-1.185, 3.635e-4
-1.186, 3.662e-4
-1.187, 3.688e-4
-1.188, 3.721e-4
-1.189, 3.755e-4
-1.190, 3.788e-4
-1.191, 3.817e-4
-1.192, 3.840e-4
-1.193, 3.873e-4
-1.194, 3.909e-4
-1.195, 3.940e-4
-1.196, 3.965e-4
-1.197, 3.991e-4
-1.198, 4.023e-4
-1.199, 4.056e-4
-1.200, 4.087e-4
-1.201, 4.113e-4
-1.202, 4.138e-4
-1.203, 4.169e-4
-1.204, 4.200e-4
-1.205, 4.226e-4
-1.206, 4.248e-4
-1.207, 4.273e-4
-1.208, 4.303e-4
-1.209, 4.337e-4
-1.210, 4.364e-4
-1.211, 4.386e-4
-1.212, 4.413e-4
-1.213, 4.443e-4
-1.214, 4.474e-4
-1.215, 4.501e-4
-1.216, 4.523e-4
-1.217, 4.549e-4
-1.218, 4.574e-4
-1.219, 4.603e-4
-1.220, 4.635e-4
-1.221, 4.656e-4
-1.222, 4.677e-4
-1.223, 4.705e-4
-1.224, 4.736e-4
-1.225, 4.762e-4
-1.226, 4.787e-4
-1.227, 4.807e-4
-1.228, 4.834e-4
-1.229, 4.869e-4
-1.230, 4.895e-4
-1.231, 4.916e-4
-1.232, 4.938e-4
-1.233, 4.962e-4
-1.234, 4.993e-4
-1.235, 5.018e-4
-1.236, 5.042e-4
-1.237, 5.061e-4
-1.238, 5.089e-4
-1.239, 5.117e-4
-1.240, 5.142e-4
-1.241, 5.164e-4
-1.242, 5.184e-4
-1.243, 5.211e-4
-1.244, 5.243e-4
-1.245, 5.266e-4
-1.246, 5.287e-4
-1.247, 5.309e-4
-1.248, 5.334e-4
-1.249, 5.366e-4
-1.250, 5.388e-4
-1.251, 5.408e-4
-1.252, 5.433e-4
-1.253, 5.458e-4
-1.254, 5.486e-4
-1.255, 5.510e-4
-1.256, 5.528e-4
-1.257, 5.550e-4
-1.258, 5.577e-4
-1.259, 5.606e-4
-1.260, 5.639e-4
-1.261, 5.659e-4
-1.262, 5.679e-4
-1.263, 5.707e-4
-1.264, 5.737e-4
-1.265, 5.770e-4
-1.266, 5.792e-4
-1.267, 5.815e-4
-1.268, 5.842e-4
-1.269, 5.873e-4
-1.270, 5.901e-4
-1.271, 5.920e-4
-1.272, 5.940e-4
-1.273, 5.963e-4
-1.274, 5.996e-4
-1.275, 6.026e-4
-1.276, 6.054e-4
-1.277, 6.073e-4
-1.278, 6.104e-4
-1.279, 6.134e-4
-1.280, 6.170e-4
-1.281, 6.196e-4
-1.282, 6.221e-4
-1.283, 6.246e-4
-1.284, 6.283e-4
-1.285, 6.314e-4
-1.286, 6.340e-4
-1.287, 6.364e-4
-1.288, 6.398e-4
-1.289, 6.436e-4
-1.290, 6.474e-4
-1.291, 6.501e-4
-1.292, 6.527e-4
-1.293, 6.558e-4
-1.294, 6.593e-4
-1.295, 6.626e-4
-1.296, 6.660e-4
-1.297, 6.694e-4
-1.298, 6.727e-4
-1.299, 6.770e-4
-1.300, 6.806e-4
-1.301, 6.855e-4
-1.302, 6.886e-4
-1.303, 6.925e-4
-1.304, 6.966e-4
-1.305, 7.003e-4
-1.306, 7.033e-4
-1.307, 7.070e-4
-1.308, 7.108e-4
-1.309, 7.150e-4
-1.310, 7.188e-4
-1.311, 7.225e-4
-1.312, 7.260e-4
-1.313, 7.301e-4
-1.314, 7.344e-4
-1.315, 7.389e-4
-1.316, 7.434e-4
-1.317, 7.468e-4
-1.318, 7.512e-4
-1.319, 7.565e-4
-1.320, 7.609e-4
-1.321, 7.656e-4
-1.322, 7.696e-4
-1.323, 7.743e-4
-1.324, 7.792e-4
-1.325, 7.840e-4
-1.326, 7.887e-4
-1.327, 7.934e-4
-1.328, 7.987e-4
-1.329, 8.041e-4
-1.330, 8.096e-4
-1.331, 8.149e-4
-1.332, 8.199e-4
-1.333, 8.260e-4
-1.334, 8.320e-4
-1.335, 8.379e-4
-1.336, 8.421e-4
-1.337, 8.470e-4
-1.338, 8.531e-4
-1.339, 8.590e-4
-1.340, 8.657e-4
-1.341, 8.718e-4
-1.342, 8.776e-4
-1.343, 8.844e-4
-1.344, 8.915e-4
-1.345, 8.985e-4
-1.346, 9.051e-4
-1.347, 9.111e-4
-1.348, 9.182e-4
-1.349, 9.260e-4
-1.350, 9.332e-4
-1.351, 9.401e-4
-1.352, 9.474e-4
-1.353, 9.554e-4
-1.354, 9.636e-4
-1.355, 9.723e-4
-1.356, 9.809e-4
-1.357, 9.891e-4
-1.358, 9.979e-4
-1.359, 1.008e-3
-1.360, 1.017e-3
-1.361, 1.025e-3
-1.362, 1.035e-3
-1.363, 1.046e-3
-1.364, 1.057e-3
-1.365, 1.067e-3
-1.366, 1.078e-3
-1.367, 1.089e-3
-1.368, 1.100e-3
-1.369, 1.113e-3
-1.370, 1.126e-3
-1.371, 1.139e-3
-1.372, 1.151e-3
-1.373, 1.164e-3
-1.374, 1.178e-3
-1.375, 1.193e-3
-1.376, 1.207e-3
-1.377, 1.221e-3
-1.378, 1.238e-3
-1.379, 1.254e-3
-1.380, 1.270e-3
-1.381, 1.287e-3
-1.382, 1.304e-3
-1.383, 1.322e-3
-1.384, 1.342e-3
-1.385, 1.361e-3
-1.386, 1.380e-3
-1.387, 1.399e-3
-1.388, 1.420e-3
-1.389, 1.441e-3
-1.390, 1.463e-3
-1.391, 1.485e-3
-1.392, 1.506e-3
-1.393, 1.528e-3
-1.394, 1.551e-3
-1.395, 1.574e-3
-1.396, 1.597e-3
-1.397, 1.620e-3
-1.398, 1.643e-3
-1.399, 1.667e-3
-1.400, 1.670e-3
-1.399, 1.651e-3
-1.398, 1.632e-3
-1.397, 1.616e-3
-1.396, 1.603e-3
-1.395, 1.590e-3
-1.394, 1.574e-3
-1.393, 1.560e-3
-1.392, 1.545e-3
-1.391, 1.530e-3
-1.390, 1.515e-3
-1.389, 1.500e-3
-1.388, 1.484e-3
-1.387, 1.469e-3
-1.386, 1.454e-3
-1.385, 1.440e-3
-1.384, 1.425e-3
-1.383, 1.409e-3
-1.382, 1.394e-3
-1.381, 1.379e-3
-1.380, 1.366e-3
-1.379, 1.350e-3
-1.378, 1.333e-3
-1.377, 1.317e-3
-1.376, 1.303e-3
-1.375, 1.288e-3
-1.374, 1.272e-3
-1.373, 1.257e-3
-1.372, 1.241e-3
-1.371, 1.227e-3
-1.370, 1.213e-3
-1.369, 1.198e-3
-1.368, 1.182e-3
-1.367, 1.167e-3
-1.366, 1.154e-3
-1.365, 1.140e-3
-1.364, 1.125e-3
-1.363, 1.110e-3
-1.362, 1.095e-3
-1.361, 1.080e-3
-1.360, 1.066e-3
-1.359, 1.052e-3
-1.358, 1.038e-3
-1.357, 1.023e-3
-1.356, 1.009e-3
-1.355, 9.954e-4
-1.354, 9.804e-4
-1.353, 9.651e-4
-1.352, 9.517e-4
-1.351, 9.380e-4
-1.350, 9.235e-4
-1.349, 9.088e-4
-1.348, 8.982e-4
-1.347, 8.861e-4
-1.346, 8.723e-4
-1.345, 8.591e-4
-1.344, 8.458e-4
-1.343, 8.336e-4
-1.342, 8.222e-4
-1.341, 8.098e-4
-1.340, 7.981e-4
-1.339, 7.846e-4
-1.338, 7.720e-4
-1.337, 7.611e-4
-1.336, 7.510e-4
-1.335, 7.390e-4
-1.334, 7.274e-4
-1.333, 7.149e-4
-1.332, 7.023e-4
-1.331, 6.901e-4
-1.330, 6.775e-4
-1.329, 6.642e-4
-1.328, 6.509e-4
-1.327, 6.362e-4
-1.326, 6.248e-4
-1.325, 6.090e-4
-1.324, 5.937e-4
-1.323, 5.847e-4
-1.322, 5.723e-4
-1.321, 5.602e-4
-1.320, 5.488e-4
-1.319, 5.388e-4
-1.318, 5.279e-4
-1.317, 5.165e-4
-1.316, 5.058e-4
-1.315, 4.946e-4
-1.314, 4.817e-4
-1.313, 4.817e-4
-1.312, 4.967e-4
-1.311, 4.823e-4
-1.310, 4.699e-4
-1.309, 4.581e-4
-1.308, 4.490e-4
-1.307, 4.380e-4
-1.306, 4.280e-4
-1.305, 4.183e-4
-1.304, 4.087e-4
-1.303, 3.981e-4
-1.302, 3.900e-4
-1.301, 3.812e-4
-1.300, 3.716e-4
-1.299, 3.620e-4
-1.298, 3.522e-4
-1.297, 3.433e-4
-1.296, 3.345e-4
-1.295, 3.256e-4
-1.294, 3.167e-4
-1.293, 3.077e-4
-1.292, 2.984e-4
-1.291, 2.827e-4
-1.290, 2.830e-4
-1.289, 2.760e-4
-1.288, 2.675e-4
-1.287, 2.592e-4
-1.286, 2.515e-4
-1.285, 2.439e-4
-1.284, 2.354e-4
-1.283, 2.273e-4
-1.282, 2.197e-4
-1.281, 2.128e-4
-1.280, 2.055e-4
-1.279, 1.975e-4
-1.278, 1.973e-4
-1.277, 1.901e-4
-1.276, 1.820e-4
-1.275, 1.743e-4
-1.274, 1.713e-4
-1.273, 1.638e-4
-1.272, 1.552e-4
-1.271, 1.475e-4
-1.270, 1.402e-4
-1.269, 1.328e-4
-1.268, 1.248e-4
-1.267, 1.175e-4
-1.266, 1.110e-4
-1.265, 1.042e-4
-1.264, 9.744e-5
-1.263, 9.033e-5
-1.262, 8.380e-5
-1.261, 7.795e-5
-1.260, 7.199e-5
-1.259, 6.655e-5
-1.258, 5.992e-5
-1.257, 5.257e-5
-1.256, 4.669e-5
-1.255, 4.061e-5
-1.254, 3.427e-5
-1.253, 2.787e-5
-1.252, 2.188e-5
-1.251, 1.664e-5
-1.250, 1.131e-5
-1.249, 5.658e-6
-1.248, -9.984e-8
-1.247, -5.769e-6
-1.246, -1.099e-5
-1.245, -1.615e-5
-1.244, -2.189e-5
-1.243, -2.775e-5
-1.242, -3.318e-5
-1.241, -3.792e-5
-1.240, -4.270e-5
-1.239, -4.797e-5
-1.238, -5.330e-5
-1.237, -5.818e-5
-1.236, -6.241e-5
-1.235, -6.683e-5
-1.234, -7.148e-5
-1.233, -7.675e-5
-1.232, -8.145e-5
-1.231, -8.562e-5
-1.230, -9.009e-5
-1.229, -9.519e-5
-1.228, -9.983e-5
-1.227, -1.060e-4
-1.226, -1.132e-4
-1.225, -1.169e-4
-1.224, -1.211e-4
-1.223, -1.260e-4
-1.222, -1.304e-4
-1.221, -1.341e-4
-1.220, -1.382e-4
-1.219, -1.426e-4
-1.218, -1.470e-4
-1.217, -1.513e-4
-1.216, -1.551e-4
-1.215, -1.591e-4
-1.214, -1.637e-4
-1.213, -1.683e-4
-1.212, -1.727e-4
-1.211, -1.763e-4
-1.210, -1.799e-4
-1.209, -1.840e-4
-1.208, -1.884e-4
-1.207, -1.926e-4
-1.206, -1.959e-4
-1.205, -1.995e-4
-1.204, -2.035e-4
-1.203, -2.076e-4
-1.202, -2.115e-4
-1.201, -2.148e-4
-1.200, -2.179e-4
-1.199, -2.218e-4
-1.198, -2.258e-4
-1.197, -2.295e-4
-1.196, -2.326e-4
-1.195, -2.358e-4
-1.194, -2.392e-4
-1.193, -2.434e-4
-1.192, -2.470e-4
-1.191, -2.502e-4
-1.190, -2.533e-4
-1.189, -2.570e-4
-1.188, -2.608e-4
-1.187, -2.643e-4
-1.186, -2.672e-4
-1.185, -2.702e-4
-1.184, -2.738e-4
-1.183, -2.779e-4
-1.182, -2.810e-4
-1.181, -2.837e-4
-1.180, -2.870e-4
-1.179, -2.901e-4
-1.178, -2.938e-4
-1.177, -2.971e-4
-1.176, -2.998e-4
-1.175, -3.025e-4
-1.174, -2.951e-4
-1.173, -3.095e-4
-1.172, -3.129e-4
-1.171, -3.155e-4
-1.170, -3.187e-4
-1.169, -3.220e-4
-1.168, -3.266e-4
-1.167, -3.291e-4
-1.166, -3.316e-4
-1.165, -3.341e-4
-1.164, -3.371e-4
-1.163, -3.402e-4
-1.162, -3.423e-4
-1.161, -3.434e-4
-1.160, -3.461e-4
-1.159, -3.491e-4
-1.158, -3.525e-4
-1.157, -3.554e-4
-1.156, -3.575e-4
-1.155, -3.597e-4
-1.154, -3.628e-4
-1.153, -3.660e-4
-1.152, -3.680e-4
-1.151, -3.701e-4
-1.150, -3.728e-4
-1.149, -3.755e-4
-1.148, -3.788e-4
-1.147, -3.816e-4
-1.146, -3.833e-4
-1.145, -3.855e-4
-1.144, -3.885e-4
-1.143, -3.911e-4
-1.142, -3.937e-4
-1.141, -3.963e-4
-1.140, -3.988e-4
-1.139, -4.095e-4
-1.138, -4.227e-4
-1.137, -4.236e-4
-1.136, -4.243e-4
-1.135, -4.252e-4
-1.134, -4.273e-4
-1.133, -4.297e-4
-1.132, -4.322e-4
-1.131, -4.344e-4
-1.130, -4.360e-4
-1.129, -4.388e-4
-1.128, -4.418e-4
-1.127, -4.443e-4
-1.126, -4.470e-4
-1.125, -4.491e-4
-1.124, -4.541e-4
-1.123, -4.600e-4
-1.122, -4.615e-4
-1.121, -4.633e-4
-1.120, -4.650e-4
-1.119, -4.674e-4
-1.118, -4.702e-4
-1.117, -4.723e-4
-1.116, -4.741e-4
-1.115, -4.760e-4
-1.114, -4.788e-4
-1.113, -4.817e-4
-1.112, -4.839e-4
-1.111, -4.868e-4
-1.110, -4.885e-4
-1.109, -4.913e-4
-1.108, -4.941e-4
-1.107, -4.962e-4
-1.106, -4.981e-4
-1.105, -4.998e-4
-1.104, -5.023e-4
-1.103, -5.053e-4
-1.102, -5.078e-4
-1.101, -5.094e-4
-1.100, -5.108e-4
-1.099, -5.140e-4
-1.098, -5.192e-4
-1.097, -5.209e-4
-1.096, -5.224e-4
-1.095, -5.238e-4
-1.094, -5.264e-4
-1.093, -5.289e-4
-1.092, -5.306e-4
-1.091, -5.318e-4
-1.090, -5.341e-4
-1.089, -5.371e-4
-1.088, -5.392e-4
-1.087, -5.407e-4
-1.086, -5.416e-4
-1.085, -5.418e-4
-1.084, -5.401e-4
-1.083, -5.439e-4
-1.082, -5.466e-4
-1.081, -5.518e-4
-1.080, -5.512e-4
-1.079, -5.523e-4
-1.078, -5.540e-4
-1.077, -5.564e-4
-1.076, -5.577e-4
-1.075, -5.595e-4
-1.074, -5.616e-4
-1.073, -5.641e-4
-1.072, -5.659e-4
-1.071, -5.673e-4
-1.070, -5.683e-4
-1.069, -5.699e-4
-1.068, -5.720e-4
-1.067, -5.738e-4
-1.066, -5.753e-4
-1.065, -5.761e-4
-1.064, -5.773e-4
-1.063, -5.796e-4
-1.062, -5.856e-4
-1.061, -5.885e-4
-1.060, -5.897e-4
-1.059, -5.913e-4
-1.058, -5.929e-4
-1.057, -5.943e-4
-1.056, -5.955e-4
-1.055, -5.791e-4
-1.054, -5.879e-4
-1.053, -6.098e-4
-1.052, -6.095e-4
-1.051, -6.094e-4
-1.050, -6.103e-4
-1.049, -6.119e-4
-1.048, -6.123e-4
-1.047, -6.132e-4
-1.046, -6.138e-4
-1.045, -6.154e-4
-1.044, -6.171e-4
-1.043, -6.182e-4
-1.042, -6.198e-4
-1.041, -6.215e-4
-1.040, -6.259e-4
-1.039, -6.292e-4
-1.038, -6.293e-4
-1.037, -6.285e-4
-1.036, -6.285e-4
-1.035, -6.290e-4
-1.034, -6.306e-4
-1.033, -6.330e-4
-1.032, -6.336e-4
-1.031, -6.352e-4
-1.030, -6.356e-4
-1.029, -6.364e-4
-1.028, -6.376e-4
-1.027, -6.389e-4
-1.026, -6.398e-4
-1.025, -6.394e-4
-1.024, -6.419e-4
-1.023, -6.438e-4
-1.022, -6.453e-4
-1.021, -6.451e-4
-1.020, -6.457e-4
-1.019, -6.465e-4
-1.018, -6.450e-4
-1.017, -6.476e-4
-1.016, -6.485e-4
-1.015, -6.488e-4
-1.014, -6.494e-4
-1.013, -6.503e-4
-1.012, -6.509e-4
-1.011, -6.506e-4
-1.010, -6.500e-4
-1.009, -6.489e-4
-1.008, -6.516e-4
-1.007, -6.523e-4
-1.006, -6.532e-4
-1.005, -6.532e-4
-1.004, -6.537e-4
-1.003, -6.542e-4
-1.002, -6.554e-4
-1.001, -6.558e-4
