Jan. 14, 2025   05:38:54
Cyclic Voltammetry
File: c:/users/guazh/data/banditlqround7_x0exp772_r5/2025-01-10-exp840\exp840-2025-01-14t05_23_40-arkoh\exp840_cv_sr_500mvs_efin_-1600mv.bin
Data Source:  Experiment
Instrument Model:  CHI760E
Header: CV ran at 500 mVs
Note: 

Init E (V) = -1
High E (V) = -1
Low E (V) = -1.6
Final E (V) = -1
Init P/N = N
Scan Rate (V/s) = 0.5
Segment = 3
Sample Interval (V) = 0.001
Quiet Time (sec) = 2
Sensitivity (A/V) = 0.01
Comp R (ohm) = 1.5

Results:

Channel 1:
Segment 1:

Segment 2:

Segment 3:

Potential/V, Current/A

-1.000, -3.082e-4
-1.001, -2.804e-4
-1.002, -2.588e-4
-1.003, -2.403e-4
-1.004, -2.249e-4
-1.005, -2.064e-4
-1.006, -1.910e-4
-1.007, -1.725e-4
-1.008, -1.571e-4
-1.009, -1.386e-4
-1.010, -1.232e-4
-1.011, -1.078e-4
-1.012, -9.542e-5
-1.013, -8.000e-5
-1.014, -7.076e-5
-1.015, -5.534e-5
-1.016, -3.992e-5
-1.017, -2.451e-5
-1.018, -9.093e-6
-1.019, 1.559e-7
-1.020, 1.249e-5
-1.021, 2.482e-5
-1.022, 3.407e-5
-1.023, 4.949e-5
-1.024, 6.182e-5
-1.025, 7.415e-5
-1.026, 8.648e-5
-1.027, 9.573e-5
-1.028, 1.081e-4
-1.029, 1.173e-4
-1.030, 1.266e-4
-1.031, 1.358e-4
-1.032, 1.481e-4
-1.033, 1.605e-4
-1.034, 1.697e-4
-1.035, 1.821e-4
-1.036, 1.913e-4
-1.037, 2.006e-4
-1.038, 2.098e-4
-1.039, 2.191e-4
-1.040, 2.252e-4
-1.041, 2.376e-4
-1.042, 2.468e-4
-1.043, 2.561e-4
-1.044, 2.653e-4
-1.045, 2.746e-4
-1.046, 2.807e-4
-1.047, 2.900e-4
-1.048, 2.961e-4
-1.049, 3.085e-4
-1.050, 3.177e-4
-1.051, 3.300e-4
-1.052, 3.362e-4
-1.053, 3.455e-4
-1.054, 3.547e-4
-1.055, 3.609e-4
-1.056, 3.670e-4
-1.057, 3.763e-4
-1.058, 3.886e-4
-1.059, 3.979e-4
-1.060, 4.071e-4
-1.061, 4.133e-4
-1.062, 4.225e-4
-1.063, 4.287e-4
-1.064, 4.349e-4
-1.065, 4.441e-4
-1.066, 4.534e-4
-1.067, 4.626e-4
-1.068, 4.719e-4
-1.069, 4.811e-4
-1.070, 4.873e-4
-1.071, 4.935e-4
-1.072, 5.027e-4
-1.073, 5.089e-4
-1.074, 5.212e-4
-1.075, 5.305e-4
-1.076, 5.397e-4
-1.077, 5.489e-4
-1.078, 5.551e-4
-1.079, 5.613e-4
-1.080, 5.705e-4
-1.081, 5.767e-4
-1.082, 5.859e-4
-1.083, 5.952e-4
-1.084, 6.044e-4
-1.085, 6.137e-4
-1.086, 6.199e-4
-1.087, 6.260e-4
-1.088, 6.353e-4
-1.089, 6.414e-4
-1.090, 6.507e-4
-1.091, 6.599e-4
-1.092, 6.723e-4
-1.093, 6.815e-4
-1.094, 6.877e-4
-1.095, 6.969e-4
-1.096, 7.031e-4
-1.097, 7.093e-4
-1.098, 7.185e-4
-1.099, 7.278e-4
-1.100, 7.370e-4
-1.101, 7.463e-4
-1.102, 7.555e-4
-1.103, 7.648e-4
-1.104, 7.709e-4
-1.105, 7.771e-4
-1.106, 7.833e-4
-1.107, 7.925e-4
-1.108, 8.048e-4
-1.109, 8.141e-4
-1.110, 8.233e-4
-1.111, 8.326e-4
-1.112, 8.388e-4
-1.113, 8.449e-4
-1.114, 8.511e-4
-1.115, 8.603e-4
-1.116, 8.696e-4
-1.117, 8.819e-4
-1.118, 8.881e-4
-1.119, 8.973e-4
-1.120, 9.035e-4
-1.121, 9.097e-4
-1.122, 9.189e-4
-1.123, 9.251e-4
-1.124, 9.374e-4
-1.125, 9.467e-4
-1.126, 9.559e-4
-1.127, 9.652e-4
-1.128, 9.744e-4
-1.129, 9.837e-4
-1.130, 9.898e-4
-1.131, 1.002e-3
-1.132, 1.011e-3
-1.133, 1.021e-3
-1.134, 1.030e-3
-1.135, 1.039e-3
-1.136, 1.045e-3
-1.137, 1.055e-3
-1.138, 1.061e-3
-1.139, 1.067e-3
-1.140, 1.076e-3
-1.141, 1.085e-3
-1.142, 1.095e-3
-1.143, 1.101e-3
-1.144, 1.107e-3
-1.145, 1.116e-3
-1.146, 1.122e-3
-1.147, 1.129e-3
-1.148, 1.138e-3
-1.149, 1.147e-3
-1.150, 1.156e-3
-1.151, 1.166e-3
-1.152, 1.175e-3
-1.153, 1.184e-3
-1.154, 1.193e-3
-1.155, 1.203e-3
-1.156, 1.212e-3
-1.157, 1.221e-3
-1.158, 1.230e-3
-1.159, 1.243e-3
-1.160, 1.255e-3
-1.161, 1.264e-3
-1.162, 1.270e-3
-1.163, 1.277e-3
-1.164, 1.283e-3
-1.165, 1.292e-3
-1.166, 1.301e-3
-1.167, 1.310e-3
-1.168, 1.320e-3
-1.169, 1.326e-3
-1.170, 1.329e-3
-1.171, 1.332e-3
-1.172, 1.338e-3
-1.173, 1.347e-3
-1.174, 1.357e-3
-1.175, 1.369e-3
-1.176, 1.381e-3
-1.177, 1.394e-3
-1.178, 1.403e-3
-1.179, 1.412e-3
-1.180, 1.425e-3
-1.181, 1.431e-3
-1.182, 1.443e-3
-1.183, 1.452e-3
-1.184, 1.462e-3
-1.185, 1.471e-3
-1.186, 1.477e-3
-1.187, 1.483e-3
-1.188, 1.489e-3
-1.189, 1.495e-3
-1.190, 1.502e-3
-1.191, 1.511e-3
-1.192, 1.520e-3
-1.193, 1.529e-3
-1.194, 1.536e-3
-1.195, 1.545e-3
-1.196, 1.551e-3
-1.197, 1.560e-3
-1.198, 1.569e-3
-1.199, 1.582e-3
-1.200, 1.591e-3
-1.201, 1.600e-3
-1.202, 1.606e-3
-1.203, 1.613e-3
-1.204, 1.622e-3
-1.205, 1.628e-3
-1.206, 1.634e-3
-1.207, 1.643e-3
-1.208, 1.653e-3
-1.209, 1.662e-3
-1.210, 1.674e-3
-1.211, 1.687e-3
-1.212, 1.696e-3
-1.213, 1.705e-3
-1.214, 1.711e-3
-1.215, 1.721e-3
-1.216, 1.733e-3
-1.217, 1.745e-3
-1.218, 1.754e-3
-1.219, 1.764e-3
-1.220, 1.770e-3
-1.221, 1.776e-3
-1.222, 1.782e-3
-1.223, 1.785e-3
-1.224, 1.795e-3
-1.225, 1.804e-3
-1.226, 1.813e-3
-1.227, 1.819e-3
-1.228, 1.822e-3
-1.229, 1.832e-3
-1.230, 1.838e-3
-1.231, 1.847e-3
-1.232, 1.859e-3
-1.233, 1.872e-3
-1.234, 1.881e-3
-1.235, 1.887e-3
-1.236, 1.896e-3
-1.237, 1.902e-3
-1.238, 1.909e-3
-1.239, 1.918e-3
-1.240, 1.927e-3
-1.241, 1.936e-3
-1.242, 1.946e-3
-1.243, 1.955e-3
-1.244, 1.961e-3
-1.245, 1.967e-3
-1.246, 1.970e-3
-1.247, 1.976e-3
-1.248, 1.986e-3
-1.249, 1.992e-3
-1.250, 2.004e-3
-1.251, 2.013e-3
-1.252, 2.023e-3
-1.253, 2.032e-3
-1.254, 2.038e-3
-1.255, 2.044e-3
-1.256, 2.050e-3
-1.257, 2.060e-3
-1.258, 2.069e-3
-1.259, 2.075e-3
-1.260, 2.081e-3
-1.261, 2.087e-3
-1.262, 2.091e-3
-1.263, 2.097e-3
-1.264, 2.103e-3
-1.265, 2.112e-3
-1.266, 2.121e-3
-1.267, 2.137e-3
-1.268, 2.146e-3
-1.269, 2.158e-3
-1.270, 2.168e-3
-1.271, 2.177e-3
-1.272, 2.186e-3
-1.273, 2.198e-3
-1.274, 2.208e-3
-1.275, 2.220e-3
-1.276, 2.226e-3
-1.277, 2.232e-3
-1.278, 2.235e-3
-1.279, 2.238e-3
-1.280, 2.242e-3
-1.281, 2.248e-3
-1.282, 2.251e-3
-1.283, 2.257e-3
-1.284, 2.263e-3
-1.285, 2.263e-3
-1.286, 2.266e-3
-1.287, 2.272e-3
-1.288, 2.279e-3
-1.289, 2.288e-3
-1.290, 2.300e-3
-1.291, 2.312e-3
-1.292, 2.325e-3
-1.293, 2.337e-3
-1.294, 2.349e-3
-1.295, 2.359e-3
-1.296, 2.365e-3
-1.297, 2.374e-3
-1.298, 2.380e-3
-1.299, 2.386e-3
-1.300, 2.396e-3
-1.301, 2.402e-3
-1.302, 2.408e-3
-1.303, 2.414e-3
-1.304, 2.417e-3
-1.305, 2.420e-3
-1.306, 2.423e-3
-1.307, 2.433e-3
-1.308, 2.442e-3
-1.309, 2.451e-3
-1.310, 2.460e-3
-1.311, 2.467e-3
-1.312, 2.476e-3
-1.313, 2.485e-3
-1.314, 2.494e-3
-1.315, 2.507e-3
-1.316, 2.516e-3
-1.317, 2.522e-3
-1.318, 2.528e-3
-1.319, 2.531e-3
-1.320, 2.538e-3
-1.321, 2.541e-3
-1.322, 2.544e-3
-1.323, 2.547e-3
-1.324, 2.547e-3
-1.325, 2.550e-3
-1.326, 2.553e-3
-1.327, 2.559e-3
-1.328, 2.562e-3
-1.329, 2.568e-3
-1.330, 2.575e-3
-1.331, 2.581e-3
-1.332, 2.587e-3
-1.333, 2.599e-3
-1.334, 2.612e-3
-1.335, 2.624e-3
-1.336, 2.636e-3
-1.337, 2.645e-3
-1.338, 2.645e-3
-1.339, 2.655e-3
-1.340, 2.658e-3
-1.341, 2.664e-3
-1.342, 2.670e-3
-1.343, 2.676e-3
-1.344, 2.679e-3
-1.345, 2.679e-3
-1.346, 2.682e-3
-1.347, 2.686e-3
-1.348, 2.689e-3
-1.349, 2.695e-3
-1.350, 2.704e-3
-1.351, 2.710e-3
-1.352, 2.716e-3
-1.353, 2.723e-3
-1.354, 2.729e-3
-1.355, 2.735e-3
-1.356, 2.744e-3
-1.357, 2.753e-3
-1.358, 2.763e-3
-1.359, 2.769e-3
-1.360, 2.775e-3
-1.361, 2.778e-3
-1.362, 2.781e-3
-1.363, 2.781e-3
-1.364, 2.784e-3
-1.365, 2.787e-3
-1.366, 2.790e-3
-1.367, 2.797e-3
-1.368, 2.800e-3
-1.369, 2.806e-3
-1.370, 2.812e-3
-1.371, 2.815e-3
-1.372, 2.821e-3
-1.373, 2.830e-3
-1.374, 2.840e-3
-1.375, 2.849e-3
-1.376, 2.861e-3
-1.377, 2.867e-3
-1.378, 2.877e-3
-1.379, 2.877e-3
-1.380, 2.886e-3
-1.381, 2.892e-3
-1.382, 2.901e-3
-1.383, 2.914e-3
-1.384, 2.923e-3
-1.385, 2.932e-3
-1.386, 2.938e-3
-1.387, 2.941e-3
-1.388, 2.945e-3
-1.389, 2.948e-3
-1.390, 2.954e-3
-1.391, 2.960e-3
-1.392, 2.966e-3
-1.393, 2.972e-3
-1.394, 2.975e-3
-1.395, 2.975e-3
-1.396, 2.978e-3
-1.397, 2.982e-3
-1.398, 2.988e-3
-1.399, 2.991e-3
-1.400, 3.000e-3
-1.401, 3.003e-3
-1.402, 3.009e-3
-1.403, 3.009e-3
-1.404, 3.015e-3
-1.405, 3.022e-3
-1.406, 3.028e-3
-1.407, 3.034e-3
-1.408, 3.043e-3
-1.409, 3.049e-3
-1.410, 3.056e-3
-1.411, 3.062e-3
-1.412, 3.068e-3
-1.413, 3.074e-3
-1.414, 3.077e-3
-1.415, 3.083e-3
-1.416, 3.089e-3
-1.417, 3.096e-3
-1.418, 3.102e-3
-1.419, 3.108e-3
-1.420, 3.114e-3
-1.421, 3.120e-3
-1.422, 3.123e-3
-1.423, 3.130e-3
-1.424, 3.136e-3
-1.425, 3.148e-3
-1.426, 3.154e-3
-1.427, 3.163e-3
-1.428, 3.170e-3
-1.429, 3.173e-3
-1.430, 3.179e-3
-1.431, 3.185e-3
-1.432, 3.191e-3
-1.433, 3.200e-3
-1.434, 3.210e-3
-1.435, 3.216e-3
-1.436, 3.219e-3
-1.437, 3.222e-3
-1.438, 3.225e-3
-1.439, 3.231e-3
-1.440, 3.237e-3
-1.441, 3.244e-3
-1.442, 3.253e-3
-1.443, 3.262e-3
-1.444, 3.268e-3
-1.445, 3.278e-3
-1.446, 3.284e-3
-1.447, 3.290e-3
-1.448, 3.296e-3
-1.449, 3.305e-3
-1.450, 3.314e-3
-1.451, 3.327e-3
-1.452, 3.336e-3
-1.453, 3.342e-3
-1.454, 3.348e-3
-1.455, 3.348e-3
-1.456, 3.355e-3
-1.457, 3.361e-3
-1.458, 3.370e-3
-1.459, 3.382e-3
-1.460, 3.392e-3
-1.461, 3.398e-3
-1.462, 3.401e-3
-1.463, 3.407e-3
-1.464, 3.416e-3
-1.465, 3.429e-3
-1.466, 3.444e-3
-1.467, 3.459e-3
-1.468, 3.469e-3
-1.469, 3.481e-3
-1.470, 3.490e-3
-1.471, 3.503e-3
-1.472, 3.515e-3
-1.473, 3.527e-3
-1.474, 3.540e-3
-1.475, 3.552e-3
-1.476, 3.561e-3
-1.477, 3.573e-3
-1.478, 3.586e-3
-1.479, 3.598e-3
-1.480, 3.610e-3
-1.481, 3.626e-3
-1.482, 3.638e-3
-1.483, 3.657e-3
-1.484, 3.675e-3
-1.485, 3.697e-3
-1.486, 3.718e-3
-1.487, 3.737e-3
-1.488, 3.755e-3
-1.489, 3.774e-3
-1.490, 3.795e-3
-1.491, 3.817e-3
-1.492, 3.842e-3
-1.493, 3.866e-3
-1.494, 3.888e-3
-1.495, 3.910e-3
-1.496, 3.928e-3
-1.497, 3.947e-3
-1.498, 3.971e-3
-1.499, 3.996e-3
-1.500, 4.024e-3
-1.501, 4.048e-3
-1.502, 4.070e-3
-1.503, 4.101e-3
-1.504, 4.128e-3
-1.505, 4.156e-3
-1.506, 4.187e-3
-1.507, 4.218e-3
-1.508, 4.252e-3
-1.509, 4.283e-3
-1.510, 4.317e-3
-1.511, 4.347e-3
-1.512, 4.372e-3
-1.513, 4.397e-3
-1.514, 4.424e-3
-1.515, 4.449e-3
-1.516, 4.480e-3
-1.517, 4.508e-3
-1.518, 4.538e-3
-1.519, 4.560e-3
-1.520, 4.579e-3
-1.521, 4.600e-3
-1.522, 4.619e-3
-1.523, 4.643e-3
-1.524, 4.674e-3
-1.525, 4.702e-3
-1.526, 4.730e-3
-1.527, 4.757e-3
-1.528, 4.782e-3
-1.529, 4.825e-3
-1.530, 4.862e-3
-1.531, 4.893e-3
-1.532, 4.927e-3
-1.533, 4.967e-3
-1.534, 5.004e-3
-1.535, 5.041e-3
-1.536, 5.078e-3
-1.537, 5.112e-3
-1.538, 5.146e-3
-1.539, 5.177e-3
-1.540, 5.208e-3
-1.541, 5.238e-3
-1.542, 5.272e-3
-1.543, 5.303e-3
-1.544, 5.334e-3
-1.545, 5.365e-3
-1.546, 5.396e-3
-1.547, 5.423e-3
-1.548, 5.451e-3
-1.549, 5.488e-3
-1.550, 5.528e-3
-1.551, 5.571e-3
-1.552, 5.618e-3
-1.553, 5.655e-3
-1.554, 5.695e-3
-1.555, 5.729e-3
-1.556, 5.769e-3
-1.557, 5.809e-3
-1.558, 5.855e-3
-1.559, 5.898e-3
-1.560, 5.941e-3
-1.561, 5.978e-3
-1.562, 6.015e-3
-1.563, 6.052e-3
-1.564, 6.092e-3
-1.565, 6.132e-3
-1.566, 6.173e-3
-1.567, 6.219e-3
-1.568, 6.259e-3
-1.569, 6.302e-3
-1.570, 6.336e-3
-1.571, 6.373e-3
-1.572, 6.413e-3
-1.573, 6.456e-3
-1.574, 6.506e-3
-1.575, 6.552e-3
-1.576, 6.595e-3
-1.577, 6.635e-3
-1.578, 6.669e-3
-1.579, 6.703e-3
-1.580, 6.737e-3
-1.581, 6.777e-3
-1.582, 6.817e-3
-1.583, 6.860e-3
-1.584, 6.900e-3
-1.585, 6.937e-3
-1.586, 6.971e-3
-1.587, 7.011e-3
-1.588, 7.054e-3
-1.589, 7.101e-3
-1.590, 7.153e-3
-1.591, 7.199e-3
-1.592, 7.245e-3
-1.593, 7.298e-3
-1.594, 7.350e-3
-1.595, 7.412e-3
-1.596, 7.480e-3
-1.597, 7.545e-3
-1.598, 7.606e-3
-1.599, 7.662e-3
-1.600, 7.686e-3
-1.599, 7.640e-3
-1.598, 7.600e-3
-1.597, 7.560e-3
-1.596, 7.511e-3
-1.595, 7.455e-3
-1.594, 7.397e-3
-1.593, 7.341e-3
-1.592, 7.279e-3
-1.591, 7.221e-3
-1.590, 7.156e-3
-1.589, 7.094e-3
-1.588, 7.023e-3
-1.587, 6.953e-3
-1.586, 6.882e-3
-1.585, 6.823e-3
-1.584, 6.768e-3
-1.583, 6.718e-3
-1.582, 6.669e-3
-1.581, 6.626e-3
-1.580, 6.583e-3
-1.579, 6.536e-3
-1.578, 6.496e-3
-1.577, 6.453e-3
-1.576, 6.413e-3
-1.575, 6.379e-3
-1.574, 6.354e-3
-1.573, 6.330e-3
-1.572, 6.308e-3
-1.571, 6.277e-3
-1.570, 6.247e-3
-1.569, 6.213e-3
-1.568, 6.179e-3
-1.567, 6.148e-3
-1.566, 6.114e-3
-1.565, 6.074e-3
-1.564, 6.028e-3
-1.563, 5.972e-3
-1.562, 5.917e-3
-1.561, 5.858e-3
-1.560, 5.806e-3
-1.559, 5.753e-3
-1.558, 5.710e-3
-1.557, 5.670e-3
-1.556, 5.630e-3
-1.555, 5.593e-3
-1.554, 5.553e-3
-1.553, 5.522e-3
-1.552, 5.491e-3
-1.551, 5.467e-3
-1.550, 5.442e-3
-1.549, 5.414e-3
-1.548, 5.383e-3
-1.547, 5.346e-3
-1.546, 5.309e-3
-1.545, 5.272e-3
-1.544, 5.232e-3
-1.543, 5.192e-3
-1.542, 5.149e-3
-1.541, 5.103e-3
-1.540, 5.056e-3
-1.539, 5.013e-3
-1.538, 4.970e-3
-1.537, 4.927e-3
-1.536, 4.881e-3
-1.535, 4.838e-3
-1.534, 4.801e-3
-1.533, 4.767e-3
-1.532, 4.736e-3
-1.531, 4.711e-3
-1.530, 4.680e-3
-1.529, 4.649e-3
-1.528, 4.619e-3
-1.527, 4.588e-3
-1.526, 4.560e-3
-1.525, 4.532e-3
-1.524, 4.501e-3
-1.523, 4.468e-3
-1.522, 4.428e-3
-1.521, 4.391e-3
-1.520, 4.357e-3
-1.519, 4.320e-3
-1.518, 4.283e-3
-1.517, 4.249e-3
-1.516, 4.212e-3
-1.515, 4.178e-3
-1.514, 4.138e-3
-1.513, 4.104e-3
-1.512, 4.070e-3
-1.511, 4.039e-3
-1.510, 4.008e-3
-1.509, 3.980e-3
-1.508, 3.950e-3
-1.507, 3.919e-3
-1.506, 3.888e-3
-1.505, 3.857e-3
-1.504, 3.826e-3
-1.503, 3.792e-3
-1.502, 3.762e-3
-1.501, 3.737e-3
-1.500, 3.709e-3
-1.499, 3.678e-3
-1.498, 3.647e-3
-1.497, 3.617e-3
-1.496, 3.586e-3
-1.495, 3.558e-3
-1.494, 3.527e-3
-1.493, 3.499e-3
-1.492, 3.472e-3
-1.491, 3.438e-3
-1.490, 3.404e-3
-1.489, 3.373e-3
-1.488, 3.342e-3
-1.487, 3.311e-3
-1.486, 3.281e-3
-1.485, 3.250e-3
-1.484, 3.222e-3
-1.483, 3.197e-3
-1.482, 3.173e-3
-1.481, 3.151e-3
-1.480, 3.126e-3
-1.479, 3.102e-3
-1.478, 3.077e-3
-1.477, 3.052e-3
-1.476, 3.028e-3
-1.475, 3.006e-3
-1.474, 2.978e-3
-1.473, 2.954e-3
-1.472, 2.926e-3
-1.471, 2.892e-3
-1.470, 2.861e-3
-1.469, 2.830e-3
-1.468, 2.803e-3
-1.467, 2.778e-3
-1.466, 2.753e-3
-1.465, 2.729e-3
-1.464, 2.704e-3
-1.463, 2.676e-3
-1.462, 2.652e-3
-1.461, 2.627e-3
-1.460, 2.605e-3
-1.459, 2.584e-3
-1.458, 2.562e-3
-1.457, 2.538e-3
-1.456, 2.513e-3
-1.455, 2.488e-3
-1.454, 2.464e-3
-1.453, 2.439e-3
-1.452, 2.414e-3
-1.451, 2.393e-3
-1.450, 2.371e-3
-1.449, 2.349e-3
-1.448, 2.325e-3
-1.447, 2.306e-3
-1.446, 2.285e-3
-1.445, 2.266e-3
-1.444, 2.248e-3
-1.443, 2.229e-3
-1.442, 2.211e-3
-1.441, 2.189e-3
-1.440, 2.168e-3
-1.439, 2.146e-3
-1.438, 2.128e-3
-1.437, 2.103e-3
-1.436, 2.081e-3
-1.435, 2.057e-3
-1.434, 2.035e-3
-1.433, 2.013e-3
-1.432, 1.995e-3
-1.431, 1.973e-3
-1.430, 1.952e-3
-1.429, 1.933e-3
-1.428, 1.912e-3
-1.427, 1.893e-3
-1.426, 1.875e-3
-1.425, 1.856e-3
-1.424, 1.838e-3
-1.423, 1.819e-3
-1.422, 1.801e-3
-1.421, 1.782e-3
-1.420, 1.761e-3
-1.419, 1.742e-3
-1.418, 1.724e-3
-1.417, 1.705e-3
-1.416, 1.687e-3
-1.415, 1.671e-3
-1.414, 1.653e-3
-1.413, 1.631e-3
-1.412, 1.613e-3
-1.411, 1.594e-3
-1.410, 1.579e-3
-1.409, 1.563e-3
-1.408, 1.545e-3
-1.407, 1.529e-3
-1.406, 1.511e-3
-1.405, 1.492e-3
-1.404, 1.474e-3
-1.403, 1.455e-3
-1.402, 1.437e-3
-1.401, 1.425e-3
-1.400, 1.409e-3
-1.399, 1.397e-3
-1.398, 1.381e-3
-1.397, 1.363e-3
-1.396, 1.344e-3
-1.395, 1.326e-3
-1.394, 1.310e-3
-1.393, 1.292e-3
-1.392, 1.277e-3
-1.391, 1.261e-3
-1.390, 1.246e-3
-1.389, 1.227e-3
-1.388, 1.209e-3
-1.387, 1.190e-3
-1.386, 1.175e-3
-1.385, 1.156e-3
-1.384, 1.141e-3
-1.383, 1.129e-3
-1.382, 1.113e-3
-1.381, 1.098e-3
-1.380, 1.082e-3
-1.379, 1.067e-3
-1.378, 1.051e-3
-1.377, 1.039e-3
-1.376, 1.027e-3
-1.375, 1.014e-3
-1.374, 1.002e-3
-1.373, 9.898e-4
-1.372, 9.744e-4
-1.371, 9.559e-4
-1.370, 9.405e-4
-1.369, 9.251e-4
-1.368, 9.097e-4
-1.367, 8.973e-4
-1.366, 8.850e-4
-1.365, 8.696e-4
-1.364, 8.542e-4
-1.363, 8.357e-4
-1.362, 8.203e-4
-1.361, 8.048e-4
-1.360, 7.894e-4
-1.359, 7.771e-4
-1.358, 7.648e-4
-1.357, 7.524e-4
-1.356, 7.370e-4
-1.355, 7.216e-4
-1.354, 7.062e-4
-1.353, 6.939e-4
-1.352, 6.815e-4
-1.351, 6.692e-4
-1.350, 6.569e-4
-1.349, 6.445e-4
-1.348, 6.322e-4
-1.347, 6.168e-4
-1.346, 6.044e-4
-1.345, 5.890e-4
-1.344, 5.736e-4
-1.343, 5.613e-4
-1.342, 5.520e-4
-1.341, 5.366e-4
-1.340, 5.274e-4
-1.339, 5.120e-4
-1.338, 4.996e-4
-1.337, 4.842e-4
-1.336, 4.719e-4
-1.335, 4.595e-4
-1.334, 4.472e-4
-1.333, 4.349e-4
-1.332, 4.225e-4
-1.331, 4.133e-4
-1.330, 3.979e-4
-1.329, 3.855e-4
-1.328, 3.701e-4
-1.327, 3.578e-4
-1.326, 3.485e-4
-1.325, 3.362e-4
-1.324, 3.239e-4
-1.323, 3.146e-4
-1.322, 3.023e-4
-1.321, 2.869e-4
-1.320, 2.746e-4
-1.319, 2.622e-4
-1.318, 2.499e-4
-1.317, 2.406e-4
-1.316, 2.283e-4
-1.315, 2.191e-4
-1.314, 2.067e-4
-1.313, 1.944e-4
-1.312, 1.790e-4
-1.311, 1.666e-4
-1.310, 1.543e-4
-1.309, 1.481e-4
-1.308, 1.358e-4
-1.307, 1.266e-4
-1.306, 1.142e-4
-1.305, 1.019e-4
-1.304, 8.957e-5
-1.303, 7.723e-5
-1.302, 6.798e-5
-1.301, 5.873e-5
-1.300, 4.640e-5
-1.299, 3.715e-5
-1.298, 2.482e-5
-1.297, 1.557e-5
-1.296, 3.239e-6
-1.295, -9.093e-6
-1.294, -2.143e-5
-1.293, -3.068e-5
-1.292, -3.992e-5
-1.291, -4.917e-5
-1.290, -5.842e-5
-1.289, -7.076e-5
-1.288, -8.000e-5
-1.287, -9.542e-5
-1.286, -1.047e-4
-1.285, -1.170e-4
-1.284, -1.232e-4
-1.283, -1.324e-4
-1.282, -1.417e-4
-1.281, -1.540e-4
-1.280, -1.632e-4
-1.279, -1.787e-4
-1.278, -1.879e-4
-1.277, -1.972e-4
-1.276, -2.064e-4
-1.275, -2.157e-4
-1.274, -2.218e-4
-1.273, -2.342e-4
-1.272, -2.434e-4
-1.271, -2.557e-4
-1.270, -2.650e-4
-1.269, -2.742e-4
-1.268, -2.835e-4
-1.267, -2.927e-4
-1.266, -3.020e-4
-1.265, -3.112e-4
-1.264, -3.205e-4
-1.263, -3.328e-4
-1.262, -3.421e-4
-1.261, -3.544e-4
-1.260, -3.606e-4
-1.259, -3.698e-4
-1.258, -3.760e-4
-1.257, -3.852e-4
-1.256, -3.945e-4
-1.255, -4.037e-4
-1.254, -4.161e-4
-1.253, -4.253e-4
-1.252, -4.346e-4
-1.251, -4.407e-4
-1.250, -4.500e-4
-1.249, -4.561e-4
-1.248, -4.654e-4
-1.247, -4.746e-4
-1.246, -4.870e-4
-1.245, -4.962e-4
-1.244, -5.024e-4
-1.243, -5.116e-4
-1.242, -5.178e-4
-1.241, -5.271e-4
-1.240, -5.332e-4
-1.239, -5.425e-4
-1.238, -5.517e-4
-1.237, -5.641e-4
-1.236, -5.733e-4
-1.235, -5.826e-4
-1.234, -5.887e-4
-1.233, -5.980e-4
-1.232, -6.041e-4
-1.231, -6.134e-4
-1.230, -6.226e-4
-1.229, -6.319e-4
-1.228, -6.442e-4
-1.227, -6.504e-4
-1.226, -6.565e-4
-1.225, -6.627e-4
-1.224, -6.720e-4
-1.223, -6.781e-4
-1.222, -6.874e-4
-1.221, -6.966e-4
-1.220, -7.059e-4
-1.219, -7.120e-4
-1.218, -7.213e-4
-1.217, -7.244e-4
-1.216, -7.305e-4
-1.215, -7.367e-4
-1.214, -7.460e-4
-1.213, -7.552e-4
-1.212, -7.675e-4
-1.211, -7.737e-4
-1.210, -7.830e-4
-1.209, -7.891e-4
-1.208, -7.953e-4
-1.207, -8.045e-4
-1.206, -8.138e-4
-1.205, -8.230e-4
-1.204, -8.323e-4
-1.203, -8.415e-4
-1.202, -8.477e-4
-1.201, -8.539e-4
-1.200, -8.600e-4
-1.199, -8.662e-4
-1.198, -8.754e-4
-1.197, -8.847e-4
-1.196, -8.909e-4
-1.195, -9.001e-4
-1.194, -9.094e-4
-1.193, -9.186e-4
-1.192, -9.248e-4
-1.191, -9.309e-4
-1.190, -9.402e-4
-1.189, -9.494e-4
-1.188, -9.587e-4
-1.187, -9.679e-4
-1.186, -9.772e-4
-1.185, -9.834e-4
-1.184, -9.895e-4
-1.183, -9.957e-4
-1.182, -1.002e-3
-1.181, -1.008e-3
-1.180, -1.011e-3
-1.179, -1.020e-3
-1.178, -1.027e-3
-1.177, -1.033e-3
-1.176, -1.039e-3
-1.175, -1.042e-3
-1.174, -1.048e-3
-1.173, -1.057e-3
-1.172, -1.067e-3
-1.171, -1.076e-3
-1.170, -1.085e-3
-1.169, -1.094e-3
-1.168, -1.101e-3
-1.167, -1.107e-3
-1.166, -1.113e-3
-1.165, -1.122e-3
-1.164, -1.128e-3
-1.163, -1.138e-3
-1.162, -1.147e-3
-1.161, -1.153e-3
-1.160, -1.159e-3
-1.159, -1.162e-3
-1.158, -1.165e-3
-1.157, -1.171e-3
-1.156, -1.178e-3
-1.155, -1.184e-3
-1.154, -1.193e-3
-1.153, -1.199e-3
-1.152, -1.205e-3
-1.151, -1.212e-3
-1.150, -1.218e-3
-1.149, -1.221e-3
-1.148, -1.230e-3
-1.147, -1.236e-3
-1.146, -1.245e-3
-1.145, -1.252e-3
-1.144, -1.258e-3
-1.143, -1.264e-3
-1.142, -1.267e-3
-1.141, -1.273e-3
-1.140, -1.282e-3
-1.139, -1.292e-3
-1.138, -1.298e-3
-1.137, -1.307e-3
-1.136, -1.316e-3
-1.135, -1.322e-3
-1.134, -1.329e-3
-1.133, -1.335e-3
-1.132, -1.341e-3
-1.131, -1.350e-3
-1.130, -1.353e-3
-1.129, -1.359e-3
-1.128, -1.366e-3
-1.127, -1.372e-3
-1.126, -1.378e-3
-1.125, -1.384e-3
-1.124, -1.390e-3
-1.123, -1.396e-3
-1.122, -1.400e-3
-1.121, -1.406e-3
-1.120, -1.412e-3
-1.119, -1.418e-3
-1.118, -1.427e-3
-1.117, -1.430e-3
-1.116, -1.437e-3
-1.115, -1.443e-3
-1.114, -1.449e-3
-1.113, -1.455e-3
-1.112, -1.464e-3
-1.111, -1.477e-3
-1.110, -1.483e-3
-1.109, -1.486e-3
-1.108, -1.489e-3
-1.107, -1.489e-3
-1.106, -1.492e-3
-1.105, -1.501e-3
-1.104, -1.511e-3
-1.103, -1.520e-3
-1.102, -1.526e-3
-1.101, -1.532e-3
-1.100, -1.535e-3
-1.099, -1.544e-3
-1.098, -1.554e-3
-1.097, -1.566e-3
-1.096, -1.578e-3
-1.095, -1.588e-3
-1.094, -1.594e-3
-1.093, -1.600e-3
-1.092, -1.606e-3
-1.091, -1.612e-3
-1.090, -1.622e-3
-1.089, -1.634e-3
-1.088, -1.640e-3
-1.087, -1.646e-3
-1.086, -1.652e-3
-1.085, -1.655e-3
-1.084, -1.659e-3
-1.083, -1.665e-3
-1.082, -1.671e-3
-1.081, -1.674e-3
-1.080, -1.680e-3
-1.079, -1.686e-3
-1.078, -1.689e-3
-1.077, -1.692e-3
-1.076, -1.699e-3
-1.075, -1.702e-3
-1.074, -1.702e-3
-1.073, -1.708e-3
-1.072, -1.711e-3
-1.071, -1.717e-3
-1.070, -1.726e-3
-1.069, -1.729e-3
-1.068, -1.733e-3
-1.067, -1.739e-3
-1.066, -1.745e-3
-1.065, -1.754e-3
-1.064, -1.760e-3
-1.063, -1.770e-3
-1.062, -1.779e-3
-1.061, -1.788e-3
-1.060, -1.797e-3
-1.059, -1.800e-3
-1.058, -1.803e-3
-1.057, -1.810e-3
-1.056, -1.813e-3
-1.055, -1.822e-3
-1.054, -1.828e-3
-1.053, -1.840e-3
-1.052, -1.844e-3
-1.051, -1.847e-3
-1.050, -1.847e-3
-1.049, -1.850e-3
-1.048, -1.853e-3
-1.047, -1.859e-3
-1.046, -1.868e-3
-1.045, -1.874e-3
-1.044, -1.877e-3
-1.043, -1.884e-3
-1.042, -1.887e-3
-1.041, -1.890e-3
-1.040, -1.896e-3
-1.039, -1.902e-3
-1.038, -1.911e-3
-1.037, -1.921e-3
-1.036, -1.930e-3
-1.035, -1.939e-3
-1.034, -1.942e-3
-1.033, -1.945e-3
-1.032, -1.951e-3
-1.031, -1.961e-3
-1.030, -1.967e-3
-1.029, -1.970e-3
-1.028, -1.973e-3
-1.027, -1.979e-3
-1.026, -1.982e-3
-1.025, -1.985e-3
-1.024, -1.988e-3
-1.023, -1.995e-3
-1.022, -2.001e-3
-1.021, -2.007e-3
-1.020, -2.013e-3
-1.019, -2.019e-3
-1.018, -2.022e-3
-1.017, -2.022e-3
-1.016, -2.025e-3
-1.015, -2.029e-3
-1.014, -2.032e-3
-1.013, -2.038e-3
-1.012, -2.044e-3
-1.011, -2.050e-3
-1.010, -2.053e-3
-1.009, -2.056e-3
-1.008, -2.062e-3
-1.007, -2.066e-3
-1.006, -2.075e-3
-1.005, -2.084e-3
-1.004, -2.093e-3
-1.003, -2.103e-3
-1.002, -2.109e-3
-1.001, -2.118e-3
