Potential V vs RHE, Current mA cm-2
0.05339999999999995,-0.029779672862159025
0.05239999999999995,-0.03099632458004295
0.051399999999999946,-0.03149147353499571
0.050399999999999945,-0.03190173981195658
0.049399999999999944,-0.03226956474992148
0.04839999999999994,-0.0326090954618891
0.04739999999999994,-0.03290618483486075
0.04639999999999994,-0.03321742132083106
0.04539999999999994,-0.03359939337179463
0.04439999999999994,-0.033967218309759524
0.04339999999999994,-0.034264307682731185
0.04239999999999994,-0.034561397055702846
0.04139999999999994,-0.03487263354167316
0.040399999999999936,-0.03524045847963807
0.039399999999999935,-0.03560828341760297
0.038399999999999934,-0.03591951990357328
0.03739999999999993,-0.03624490350254224
0.03639999999999993,-0.03655613998851255
0.03539999999999993,-0.036923964926477454
0.03439999999999993,-0.03727764275144372
0.03339999999999993,-0.037603026350412676
0.03239999999999993,-0.03790011572338433
0.03139999999999993,-0.038239646435351944
0.030399999999999927,-0.0385933242603182
0.029399999999999926,-0.03897529631128176
0.028399999999999925,-0.039314827023249364
0.027399999999999924,-0.039626063509219676
0.026399999999999924,-0.039979741334185935
0.025399999999999923,-0.040347566272150845
0.024399999999999922,-0.040729538323114406
0.02339999999999992,-0.04106906903508201
0.02239999999999992,-0.041380305521052325
0.02139999999999992,-0.041748130459017235
0.020399999999999918,-0.04214424962297945
0.019399999999999917,-0.04251207456094436
0.018399999999999916,-0.042851605272911965
0.017399999999999916,-0.043191135984879565
0.016399999999999915,-0.04355896092284448
0.015399999999999914,-0.04396922719980534
0.014399999999999913,-0.0443511992507689
0.013399999999999912,-0.044733171301732454
0.012399999999999911,-0.045072702013700075
0.01139999999999991,-0.04544052695166498
0.01039999999999991,-0.04585079322862584
0.009399999999999908,-0.04624691239258805
0.008399999999999908,-0.046586443104555654
0.007399999999999907,-0.046954268042520564
0.006399999999999906,-0.047336240093484125
0.005399999999999905,-0.04777480059644229
0.004399999999999904,-0.04821336109940045
0.003399999999999903,-0.04856703892436671
0.002399999999999902,-0.04893486386233162
0.0013999999999999013,-0.04933098302629382
0.00039999999999990044,-0.04976954352925199
-0.0006000000000001005,-0.05017980980621285
-0.0016000000000001013,-0.05054763474417776
-0.0026000000000001022,-0.05094375390813997
-0.003600000000000103,-0.05135402018510083
-0.004600000000000104,-0.051778433575060345
-0.005600000000000105,-0.052231141191017155
-0.006600000000000106,-0.05262726035497937
-0.007600000000000107,-0.052980938179945626
-0.008600000000000108,-0.05339120445690649
-0.009600000000000108,-0.053858059185861944
-0.01060000000000011,-0.05431076680181876
-0.01160000000000011,-0.05470688596578097
-0.012600000000000111,-0.05513129935574049
-0.013600000000000112,-0.055527418519702686
-0.014600000000000113,-0.05596597902266085
-0.015600000000000114,-0.05641868663861766
-0.016600000000000115,-0.056843100028577176
-0.017600000000000116,-0.05721092496654208
-0.018600000000000116,-0.057649485469500245
-0.019600000000000117,-0.05811634019845571
-0.020600000000000118,-0.058554900701413864
-0.02160000000000012,-0.05895101986537608
-0.02260000000000012,-0.05934713902933829
-0.02360000000000012,-0.0597432581933005
-0.024600000000000122,-0.06021011292225596
-0.025600000000000123,-0.06069111476421007
-0.026600000000000124,-0.06110138104117093
-0.027600000000000124,-0.061511647318131794
-0.028600000000000125,-0.06192191359509265
-0.029600000000000126,-0.06240291543704677
-0.030600000000000127,-0.06289806439199953
-0.03160000000000013,-0.06333662489495769
-0.03260000000000013,-0.06374689117191855
-0.03360000000000013,-0.06419959878787536
-0.03460000000000002,-0.06468060062982947
-0.03560000000000002,-0.06517574958478224
-0.03660000000000002,-0.0655577216357458
-0.03760000000000002,-0.06599628213870397
-0.03860000000000002,-0.06644898975466076
-0.039600000000000024,-0.06692999159661489
-0.040600000000000025,-0.06739684632557033
-0.041600000000000026,-0.06780711260253121
-0.04260000000000003,-0.06823152599249073
-0.04360000000000003,-0.06867008649544887
-0.04460000000000003,-0.06913694122440435
-0.04560000000000003,-0.0696320901793571
-0.04660000000000003,-0.07005650356931663
-0.04760000000000003,-0.07048091695927614
-0.04860000000000003,-0.07093362457523293
-0.04960000000000003,-0.07141462641718704
-0.050600000000000034,-0.07190977537213981
-0.051600000000000035,-0.07233418876209932
-0.052600000000000036,-0.07274445503906019
-0.053600000000000037,-0.07318301554201835
-0.05460000000000004,-0.07366401738397246
-0.05560000000000004,-0.07413087211292792
-0.05660000000000004,-0.07456943261588608
-0.05760000000000004,-0.07497969889284695
-0.05860000000000004,-0.07540411228280645
-0.05960000000000004,-0.07589926123775922
-0.06060000000000004,-0.07635196885371603
-0.061600000000000044,-0.0767622351306769
-0.06260000000000004,-0.07717250140763775
-0.06360000000000005,-0.07759691479759726
-0.06460000000000005,-0.07809206375255001
-0.06560000000000005,-0.07854477136850684
-0.06660000000000005,-0.0789550376454677
-0.06760000000000005,-0.07936530392242855
-0.06860000000000005,-0.07976142308639078
-0.06960000000000005,-0.08019998358934893
-0.07060000000000005,-0.08066683831830439
-0.07160000000000005,-0.08106295748226659
-0.07260000000000005,-0.08144492953323015
-0.07360000000000005,-0.08186934292318966
-0.07460000000000006,-0.08233619765214513
-0.07560000000000006,-0.08278890526810194
-0.07660000000000006,-0.08315673020606687
-0.07760000000000006,-0.08349626091803447
-0.07860000000000006,-0.08386408585599937
-0.07960000000000006,-0.0842884992459589
-0.08060000000000006,-0.08469876552291973
-0.08160000000000006,-0.085052443347886
-0.08260000000000006,-0.08543441539884956
-0.08360000000000006,-0.08581638744981313
-0.08460000000000006,-0.08624080083977263
-0.08560000000000006,-0.0866510671167335
-0.08660000000000007,-0.0869905978287011
-0.08760000000000007,-0.08730183431467141
-0.08860000000000007,-0.08765551213963767
-0.08960000000000007,-0.08800918996460394
-0.09060000000000007,-0.08840530912856613
-0.09160000000000007,-0.08873069272753512
-0.09260000000000007,-0.0890419292135054
-0.09360000000000007,-0.08938145992547303
-0.09460000000000007,-0.08977757908943522
-0.09560000000000007,-0.09014540402740015
-0.09660000000000007,-0.09042834628737315
-0.09760000000000008,-0.09075372988634212
-0.09860000000000008,-0.09103667214631511
-0.09960000000000008,-0.09141864419727867
-0.10060000000000008,-0.09172988068324898
-0.10160000000000008,-0.09202697005622064
-0.10260000000000008,-0.09229576520319499
-0.10360000000000008,-0.09257870746316801
-0.10460000000000008,-0.0929182381751356
-0.10560000000000008,-0.09324362177410456
-0.10660000000000008,-0.09349826980808028
-0.10760000000000008,-0.09375291784205599
-0.10860000000000009,-0.09400756587603168
-0.10960000000000009,-0.09433294947500065
-0.11060000000000009,-0.09461589173497365
-0.11160000000000009,-0.0948280984299534
-0.11260000000000009,-0.09505445223793182
-0.11360000000000009,-0.09528080604591022
-0.11460000000000009,-0.09557789541888188
-0.11560000000000009,-0.09584669056585624
-0.11660000000000009,-0.09603060303483868
-0.1176000000000001,-0.0962286626168198
-0.1186000000000001,-0.09645501642479819
-0.1196000000000001,-0.09669551734577525
-0.1206000000000001,-0.09692187115375367
-0.1216000000000001,-0.09709163650973747
-0.1226000000000001,-0.09726140186572127
-0.1236000000000001,-0.09744531433470371
-0.1246000000000001,-0.09762922680368619
-0.1256000000000001,-0.09782728638566728
-0.1266000000000001,-0.09796875751565379
-0.1276000000000001,-0.09809608153264164
-0.1286000000000001,-0.09826584688862545
-0.1296000000000001,-0.09846390647060656
-0.1306000000000001,-0.09863367182659036
-0.1316000000000001,-0.09873270161758091
-0.1326000000000001,-0.09883173140857146
-0.1336000000000001,-0.09897320253855796
-0.1346000000000001,-0.09914296789454177
-0.1356000000000001,-0.09927029191152963
-0.1366000000000001,-0.09934102747652288
-0.1376000000000001,-0.09941176304151612
-0.1386000000000001,-0.09952493994550533
-0.1396000000000001,-0.09966641107549183
-0.1406000000000001,-0.09979373509247969
-0.14160000000000011,-0.09983617643147565
-0.14260000000000012,-0.09987861777047159
-0.14360000000000012,-0.09994935333546484
-0.14460000000000012,-0.10006253023945405
-0.14560000000000012,-0.10014741291744596
-0.14660000000000012,-0.10018985425644189
-0.14760000000000012,-0.1002181484824392
-0.14860000000000012,-0.1002464427084365
-0.14960000000000012,-0.10034547249942705
-0.15060000000000012,-0.100387913838423
-0.15160000000000012,-0.100387913838423
-0.15260000000000012,-0.10040206095142165
-0.15360000000000013,-0.10043035517741895
-0.15460000000000013,-0.10048694362941356
-0.15560000000000013,-0.10054353208140815
-0.15660000000000013,-0.10048694362941356
-0.15760000000000013,-0.10048694362941356
-0.15860000000000013,-0.10045864940341626
-0.15960000000000002,-0.1005010907424122
-0.16060000000000002,-0.10051523785541085
-0.16160000000000002,-0.10045864940341626
-0.16260000000000002,-0.10041620806442031
-0.16360000000000002,-0.100387913838423
-0.16460000000000002,-0.10041620806442031
-0.16560000000000002,-0.1004727965164149
-0.16660000000000003,-0.10041620806442031
-0.16760000000000003,-0.10031717827342976
-0.16860000000000003,-0.10028888404743246
-0.16960000000000003,-0.10026058982143515
-0.17060000000000003,-0.1002181484824392
-0.17160000000000003,-0.10014741291744596
-0.17260000000000003,-0.10006253023945405
-0.17360000000000003,-0.0999917946744608
-0.17460000000000003,-0.09996350044846349
-0.17560000000000003,-0.09992105910946754
-0.17660000000000003,-0.09983617643147565
-0.17760000000000004,-0.09972299952748644
-0.17860000000000004,-0.09963811684949454
-0.17960000000000004,-0.09962396973649587
-0.18060000000000004,-0.09953908705850398
-0.18160000000000004,-0.09944005726751343
-0.18260000000000004,-0.09934102747652288
-0.18360000000000004,-0.09922785057253368
-0.18460000000000004,-0.09919955634653636
-0.18560000000000004,-0.09911467366854448
-0.18660000000000004,-0.09900149676455527
-0.18760000000000004,-0.09887417274756742
-0.18860000000000005,-0.09876099584357821
-0.18960000000000005,-0.0987044073915836
-0.19060000000000005,-0.09861952471359171
-0.19160000000000005,-0.0984780535836052
-0.19260000000000005,-0.098364876679616
-0.19360000000000005,-0.09823755266262815
-0.19460000000000005,-0.09818096421063353
-0.19560000000000005,-0.09809608153264164
-0.19660000000000005,-0.09792631617665784
-0.19760000000000005,-0.09778484504667133
-0.19860000000000005,-0.09767166814268213
-0.19960000000000006,-0.09761507969068753
-0.20060000000000006,-0.09751604989969698
-0.20160000000000006,-0.09733213743071452
-0.20260000000000006,-0.09720481341372668
-0.20360000000000006,-0.09707748939673881
-0.20460000000000006,-0.09700675383174556
-0.20560000000000006,-0.096907724040755
-0.20660000000000006,-0.09675210579776986
-0.20760000000000006,-0.0965964875547847
-0.20860000000000006,-0.09646916353779686
-0.20960000000000006,-0.09639842797280361
-0.21060000000000006,-0.0962569568428171
-0.21160000000000007,-0.0960871914868333
-0.21260000000000007,-0.09593157324384814
-0.21360000000000007,-0.09579010211386164
-0.21460000000000007,-0.09570521943586972
-0.21560000000000007,-0.09559204253188053
-0.21660000000000007,-0.09543642428889539
-0.21760000000000007,-0.09529495315890889
-0.21860000000000007,-0.09516762914192102
-0.21960000000000007,-0.09508274646392911
-0.22060000000000007,-0.09495542244694127
-0.22160000000000007,-0.0947715099779588
-0.22260000000000008,-0.0946300388479723
-0.22360000000000008,-0.0944885677179858
-0.22460000000000008,-0.0944036850399939
-0.22560000000000008,-0.0942622139100074
-0.22660000000000008,-0.09413488989301955
-0.22760000000000008,-0.09395097742403709
-0.22860000000000008,-0.09382365340704923
-0.22960000000000008,-0.09373877072905733
-0.23060000000000008,-0.09361144671206949
-0.23160000000000008,-0.09342753424308703
-0.23260000000000008,-0.09330021022609918
-0.23360000000000009,-0.09315873909611266
-0.2346000000000001,-0.09307385641812077
-0.2356000000000001,-0.0929465324011329
-0.2366000000000001,-0.09276261993215046
-0.2376000000000001,-0.09262114880216396
-0.2386000000000001,-0.0924938247851761
-0.2396000000000001,-0.09239479499418554
-0.2406000000000001,-0.0922674709771977
-0.2416000000000001,-0.09209770562121389
-0.2426000000000001,-0.09197038160422603
-0.2436000000000001,-0.09185720470023684
-0.2446000000000001,-0.09175817490924627
-0.2456000000000001,-0.09164499800525706
-0.2466000000000001,-0.09148937976227192
-0.2476000000000001,-0.09133376151928675
-0.2486000000000001,-0.09120643750229893
-0.2496000000000001,-0.09113570193730568
-0.2506000000000001,-0.09102252503331647
-0.2516000000000001,-0.09086690679033131
-0.2526000000000001,-0.09071128854734616
-0.2536000000000001,-0.0905839645303583
-0.2546000000000001,-0.09052737607836371
-0.2556000000000001,-0.0904141991743745
-0.2566000000000001,-0.09025858093138935
-0.2576000000000001,-0.09010296268840419
-0.2586000000000001,-0.09000393289741364
-0.2596000000000001,-0.08994734444541903
-0.2606000000000001,-0.08982002042843118
-0.2616000000000001,-0.08966440218544602
-0.2626000000000001,-0.08953707816845817
-0.2636000000000001,-0.08940975415147032
-0.2646000000000001,-0.08933901858647707
-0.2656000000000001,-0.08922584168248787
-0.2666000000000001,-0.08908437055250136
-0.2676000000000001,-0.0889570465355135
-0.2686000000000001,-0.08882972251852565
-0.2696000000000001,-0.08877313406653106
-0.2706000000000001,-0.0886741042755405
-0.2716000000000001,-0.088532633145554
-0.2726000000000001,-0.08840530912856613
-0.2736000000000001,-0.08829213222457694
-0.2746000000000001,-0.08824969088558099
-0.2756000000000001,-0.08816480820758908
-0.2766000000000001,-0.08800918996460394
-0.2776000000000001,-0.08788186594761609
-0.2786000000000001,-0.08781113038262284
-0.2796000000000001,-0.08772624770463092
-0.2806000000000001,-0.08765551213963767
-0.28160000000000013,-0.08749989389665253
-0.28260000000000013,-0.08740086410566196
-0.28360000000000013,-0.08731598142767007
-0.2846,-0.08725939297567546
-0.2856,-0.08717451029768356
-0.2866,-0.08703303916769706
-0.2876,-0.0869340093767065
-0.2886,-0.0868491266987146
-0.2896,-0.08679253824672
-0.2906,-0.0867076555687281
-0.2916,-0.08658033155174025
-0.2926,-0.08646715464775104
-0.2936,-0.08638227196975913
-0.29460000000000003,-0.08633983063076318
-0.29560000000000003,-0.08625494795277128
-0.29660000000000003,-0.08612762393578344
-0.29760000000000003,-0.08601444703179424
-0.29860000000000003,-0.08595785857979962
-0.29960000000000003,-0.08590127012780503
-0.30060000000000003,-0.08581638744981313
-0.30160000000000003,-0.08568906343282526
-0.30260000000000004,-0.08556173941583743
-0.30360000000000004,-0.08547685673784551
-0.30460000000000004,-0.08544856251184822
-0.30560000000000004,-0.08537782694685496
-0.30660000000000004,-0.08526465004286575
-0.30760000000000004,-0.08517976736487386
-0.30860000000000004,-0.08509488468688196
-0.30960000000000004,-0.085052443347886
-0.31060000000000004,-0.08495341355689547
-0.31160000000000004,-0.0848260895399076
-0.31260000000000004,-0.0847412068619157
-0.31360000000000005,-0.0846846184099211
-0.31460000000000005,-0.08467047129692246
-0.31560000000000005,-0.08459973573192921
-0.31660000000000005,-0.08447241171494134
-0.31760000000000005,-0.08438752903694943
-0.31860000000000005,-0.08431679347195618
-0.31960000000000005,-0.08430264635895754
-0.32060000000000005,-0.08423191079396428
-0.32160000000000005,-0.08411873388997508
-0.32260000000000005,-0.08403385121198319
-0.32360000000000005,-0.08399140987298723
-0.32460000000000006,-0.08394896853399128
-0.32560000000000006,-0.08387823296899803
-0.32660000000000006,-0.08379335029100612
-0.32760000000000006,-0.08372261472601288
-0.32860000000000006,-0.08366602627401826
-0.32960000000000006,-0.08362358493502231
-0.33060000000000006,-0.08358114359602638
-0.33160000000000006,-0.08349626091803447
-0.33260000000000006,-0.08341137824004256
-0.33360000000000006,-0.08336893690104662
-0.33460000000000006,-0.08335478978804794
-0.33560000000000006,-0.0832840542230547
-0.33660000000000007,-0.08319917154506282
-0.33760000000000007,-0.08311428886707091
-0.33860000000000007,-0.08308599464107361
-0.33960000000000007,-0.08307184752807495
-0.34060000000000007,-0.08298696485008306
-0.34160000000000007,-0.08290208217209115
-0.34260000000000007,-0.0828313466070979
-0.34360000000000007,-0.08277475815510331
-0.3446000000000001,-0.08277475815510331
-0.3456000000000001,-0.08271816970310869
-0.3466000000000001,-0.08263328702511678
-0.34759999999999996,-0.08256255146012353
-0.3486000000000001,-0.08252011012112759
-0.34959999999999997,-0.08250596300812894
-0.3506000000000001,-0.08244937455613434
-0.35159999999999997,-0.08233619765214513
-0.3526000000000001,-0.08227960920015054
-0.35359999999999997,-0.08223716786115459
-0.3546000000000001,-0.08223716786115459
-0.35559999999999997,-0.08218057940915997
-0.3566000000000001,-0.08208154961816942
-0.3576,-0.08202496116617483
-0.3586000000000001,-0.08199666694017753
-0.3596,-0.08198251982717887
-0.3606000000000001,-0.08192593137518428
-0.3616,-0.08182690158419371
-0.3626000000000001,-0.08174201890620184
-0.3636,-0.08174201890620184
-0.3646000000000001,-0.08172787179320316
-0.3656,-0.08168543045420722
-0.3666000000000001,-0.08158640066321667
-0.3676,-0.08152981221122206
-0.3686000000000001,-0.0814873708722261
-0.3696,-0.0814873708722261
-0.3706000000000001,-0.08145907664622881
-0.3716,-0.08138834108123556
-0.3726000000000001,-0.08130345840324366
-0.3736,-0.08128931129024501
-0.3746000000000001,-0.08130345840324366
-0.3756,-0.0812327228382504
-0.3766000000000001,-0.08116198727325716
-0.3776,-0.08110539882126255
-0.3786000000000001,-0.08107710459526525
-0.3796,-0.08107710459526525
-0.3806000000000001,-0.08102051614327066
-0.3816,-0.08094978057827738
-0.3826000000000001,-0.08087904501328413
-0.3836,-0.08087904501328413
-0.3846000000000001,-0.0808931921262828
-0.3856,-0.08083660367428819
-0.3866000000000001,-0.08076586810929494
-0.3876,-0.08069513254430169
-0.3886000000000001,-0.08068098543130305
-0.3896,-0.08069513254430169
-0.3906000000000001,-0.08065269120530574
-0.3916,-0.08056780852731382
-0.3926000000000001,-0.08053951430131655
-0.3936,-0.08052536718831789
-0.3946000000000001,-0.08052536718831789
-0.3956,-0.08048292584932194
-0.3966000000000001,-0.0804121902843287
-0.3976,-0.08036974894533275
-0.3986000000000001,-0.08034145471933543
-0.3996,-0.08035560183233408
-0.4006000000000001,-0.08032730760633679
-0.4016,-0.08025657204134354
-0.4026000000000001,-0.08019998358934893
-0.4036,-0.08019998358934893
-0.4046000000000001,-0.08018583647635028
-0.4056,-0.08017168936335163
-0.40660000000000013,-0.08011510091135703
-0.4076,-0.08005851245936244
-0.40860000000000013,-0.08005851245936244
-0.4096,-0.08005851245936244
-0.41060000000000013,-0.08003021823336513
-0.4116,-0.07998777689436919
-0.41260000000000013,-0.07990289421637728
-0.4136,-0.07991704132937592
-0.41460000000000014,-0.07994533555537323
-0.4156,-0.07988874710337862
-0.41660000000000014,-0.07984630576438266
-0.4176,-0.07978971731238807
-0.41860000000000014,-0.07980386442538671
-0.41960000000000003,-0.07981801153838537
-0.42060000000000014,-0.07976142308639078
-0.42160000000000003,-0.07974727597339212
-0.42260000000000014,-0.07970483463439616
-0.42360000000000003,-0.07967654040839886
-0.42460000000000014,-0.07970483463439616
-0.42560000000000003,-0.07966239329540022
-0.42660000000000015,-0.07963409906940291
-0.42760000000000004,-0.07957751061740831
-0.42860000000000015,-0.07957751061740831
-0.42960000000000004,-0.07960580484340561
-0.43060000000000015,-0.07957751061740831
-0.43160000000000004,-0.07952092216541372
-0.43260000000000015,-0.07949262793941642
-0.43360000000000004,-0.07947848082641776
-0.43460000000000015,-0.07950677505241506
-0.43560000000000004,-0.07949262793941642
-0.43660000000000015,-0.07942189237442315
