Apr. 10, 2025   05:25:11
Linear Sweep Voltammetry
File: c:/users/guazh/data/banditlqround7_x0exp994_r5/2025-03-28-exp1035\pre-regen-2025-04-10t05_22_07-lsvinphos\pre-regen_lsv_50mvs_efin_-1900mv.bin
Data Source:  Experiment
Instrument Model:  CHI760E
Header: LSV ran at 50 mVs with Efin at -1900mV
Note: 

Init E (V) = -0.6
Final E (V) = -1.9
Scan Rate (V/s) = 0.05
Sample Interval (V) = 0.001
Quiet Time (sec) = 2
Sensitivity (A/V) = 1e-4
Comp R (ohm) = 7.6

Results:

Channel 1:

Potential/V, Current/A

-0.600, -8.599e-5
-0.601, -7.990e-5
-0.602, -7.382e-5
-0.603, -6.921e-5
-0.604, -6.544e-5
-0.605, -6.209e-5
-0.606, -5.904e-5
-0.607, -5.622e-5
-0.608, -5.354e-5
-0.609, -5.102e-5
-0.610, -4.862e-5
-0.611, -4.627e-5
-0.612, -4.401e-5
-0.613, -4.182e-5
-0.614, -3.967e-5
-0.615, -3.758e-5
-0.616, -3.554e-5
-0.617, -3.360e-5
-0.618, -3.167e-5
-0.619, -2.979e-5
-0.620, -2.796e-5
-0.621, -2.616e-5
-0.622, -2.438e-5
-0.623, -2.267e-5
-0.624, -2.097e-5
-0.625, -1.932e-5
-0.626, -1.771e-5
-0.627, -1.608e-5
-0.628, -1.453e-5
-0.629, -1.298e-5
-0.630, -1.147e-5
-0.631, -1.001e-5
-0.632, -8.530e-6
-0.633, -7.109e-6
-0.634, -5.706e-6
-0.635, -4.311e-6
-0.636, -2.978e-6
-0.637, -1.641e-6
-0.638, -3.310e-7
-0.639, 9.351e-7
-0.640, 2.217e-6
-0.641, 3.486e-6
-0.642, 4.688e-6
-0.643, 5.900e-6
-0.644, 7.067e-6
-0.645, 8.241e-6
-0.646, 9.401e-6
-0.647, 1.052e-5
-0.648, 1.163e-5
-0.649, 1.271e-5
-0.650, 1.378e-5
-0.651, 1.485e-5
-0.652, 1.590e-5
-0.653, 1.694e-5
-0.654, 1.797e-5
-0.655, 1.895e-5
-0.656, 1.997e-5
-0.657, 2.094e-5
-0.658, 2.190e-5
-0.659, 2.285e-5
-0.660, 2.377e-5
-0.661, 2.472e-5
-0.662, 2.565e-5
-0.663, 2.653e-5
-0.664, 2.743e-5
-0.665, 2.829e-5
-0.666, 2.923e-5
-0.667, 3.013e-5
-0.668, 3.095e-5
-0.669, 3.178e-5
-0.670, 3.261e-5
-0.671, 3.342e-5
-0.672, 3.425e-5
-0.673, 3.505e-5
-0.674, 3.584e-5
-0.675, 3.664e-5
-0.676, 3.742e-5
-0.677, 3.821e-5
-0.678, 3.899e-5
-0.679, 3.975e-5
-0.680, 4.051e-5
-0.681, 4.127e-5
-0.682, 4.202e-5
-0.683, 4.277e-5
-0.684, 4.348e-5
-0.685, 4.421e-5
-0.686, 4.495e-5
-0.687, 4.565e-5
-0.688, 4.639e-5
-0.689, 4.709e-5
-0.690, 4.779e-5
-0.691, 4.852e-5
-0.692, 4.922e-5
-0.693, 4.993e-5
-0.694, 5.063e-5
-0.695, 5.128e-5
-0.696, 5.197e-5
-0.697, 5.266e-5
-0.698, 5.334e-5
-0.699, 5.403e-5
-0.700, 5.468e-5
-0.701, 5.537e-5
-0.702, 5.607e-5
-0.703, 5.670e-5
-0.704, 5.736e-5
-0.705, 5.804e-5
-0.706, 5.869e-5
-0.707, 5.937e-5
-0.708, 6.000e-5
-0.709, 6.065e-5
-0.710, 6.131e-5
-0.711, 6.196e-5
-0.712, 6.264e-5
-0.713, 6.327e-5
-0.714, 6.390e-5
-0.715, 6.456e-5
-0.716, 6.522e-5
-0.717, 6.589e-5
-0.718, 6.654e-5
-0.719, 6.715e-5
-0.720, 6.780e-5
-0.721, 6.842e-5
-0.722, 6.905e-5
-0.723, 6.969e-5
-0.724, 7.032e-5
-0.725, 7.096e-5
-0.726, 7.162e-5
-0.727, 7.223e-5
-0.728, 7.288e-5
-0.729, 7.349e-5
-0.730, 7.411e-5
-0.731, 7.476e-5
-0.732, 7.537e-5
-0.733, 7.598e-5
-0.734, 7.660e-5
-0.735, 7.722e-5
-0.736, 7.786e-5
-0.737, 7.848e-5
-0.738, 7.911e-5
-0.739, 7.973e-5
-0.740, 8.033e-5
-0.741, 8.094e-5
-0.742, 8.159e-5
-0.743, 8.220e-5
-0.744, 8.281e-5
-0.745, 8.341e-5
-0.746, 8.401e-5
-0.747, 8.463e-5
-0.748, 8.522e-5
-0.749, 8.582e-5
-0.750, 8.642e-5
-0.751, 8.703e-5
-0.752, 8.764e-5
-0.753, 8.822e-5
-0.754, 8.878e-5
-0.755, 8.939e-5
-0.756, 8.996e-5
-0.757, 9.056e-5
-0.758, 9.113e-5
-0.759, 9.167e-5
-0.760, 9.227e-5
-0.761, 9.284e-5
-0.762, 9.341e-5
-0.763, 9.397e-5
-0.764, 9.449e-5
-0.765, 9.507e-5
-0.766, 9.564e-5
-0.767, 9.619e-5
-0.768, 9.677e-5
-0.769, 9.737e-5
-0.770, 9.786e-5
-0.771, 9.840e-5
-0.772, 9.892e-5
-0.773, 9.944e-5
-0.774, 9.996e-5
-0.775, 1.004e-4
-0.776, 1.010e-4
-0.777, 1.015e-4
-0.778, 1.020e-4
-0.779, 1.025e-4
-0.780, 1.030e-4
-0.781, 1.035e-4
-0.782, 1.040e-4
-0.783, 1.045e-4
-0.784, 1.049e-4
-0.785, 1.054e-4
-0.786, 1.059e-4
-0.787, 1.063e-4
-0.788, 1.068e-4
-0.789, 1.072e-4
-0.790, 1.077e-4
-0.791, 1.081e-4
-0.792, 1.086e-4
-0.793, 1.091e-4
-0.794, 1.095e-4
-0.795, 1.099e-4
-0.796, 1.104e-4
-0.797, 1.108e-4
-0.798, 1.113e-4
-0.799, 1.117e-4
-0.800, 1.121e-4
-0.801, 1.125e-4
-0.802, 1.130e-4
-0.803, 1.134e-4
-0.804, 1.138e-4
-0.805, 1.142e-4
-0.806, 1.146e-4
-0.807, 1.150e-4
-0.808, 1.154e-4
-0.809, 1.158e-4
-0.810, 1.162e-4
-0.811, 1.166e-4
-0.812, 1.170e-4
-0.813, 1.174e-4
-0.814, 1.178e-4
-0.815, 1.182e-4
-0.816, 1.186e-4
-0.817, 1.190e-4
-0.818, 1.194e-4
-0.819, 1.199e-4
-0.820, 1.205e-4
-0.821, 1.208e-4
-0.822, 1.212e-4
-0.823, 1.216e-4
-0.824, 1.219e-4
-0.825, 1.223e-4
-0.826, 1.227e-4
-0.827, 1.231e-4
-0.828, 1.234e-4
-0.829, 1.238e-4
-0.830, 1.242e-4
-0.831, 1.246e-4
-0.832, 1.250e-4
-0.833, 1.254e-4
-0.834, 1.257e-4
-0.835, 1.261e-4
-0.836, 1.265e-4
-0.837, 1.269e-4
-0.838, 1.273e-4
-0.839, 1.277e-4
-0.840, 1.281e-4
-0.841, 1.285e-4
-0.842, 1.288e-4
-0.843, 1.292e-4
-0.844, 1.296e-4
-0.845, 1.300e-4
-0.846, 1.304e-4
-0.847, 1.308e-4
-0.848, 1.311e-4
-0.849, 1.315e-4
-0.850, 1.319e-4
-0.851, 1.323e-4
-0.852, 1.326e-4
-0.853, 1.330e-4
-0.854, 1.334e-4
-0.855, 1.337e-4
-0.856, 1.342e-4
-0.857, 1.345e-4
-0.858, 1.349e-4
-0.859, 1.352e-4
-0.860, 1.356e-4
-0.861, 1.360e-4
-0.862, 1.364e-4
-0.863, 1.367e-4
-0.864, 1.370e-4
-0.865, 1.374e-4
-0.866, 1.378e-4
-0.867, 1.381e-4
-0.868, 1.384e-4
-0.869, 1.388e-4
-0.870, 1.391e-4
-0.871, 1.396e-4
-0.872, 1.399e-4
-0.873, 1.402e-4
-0.874, 1.405e-4
-0.875, 1.409e-4
-0.876, 1.412e-4
-0.877, 1.415e-4
-0.878, 1.419e-4
-0.879, 1.422e-4
-0.880, 1.425e-4
-0.881, 1.428e-4
-0.882, 1.431e-4
-0.883, 1.435e-4
-0.884, 1.438e-4
-0.885, 1.441e-4
-0.886, 1.444e-4
-0.887, 1.447e-4
-0.888, 1.451e-4
-0.889, 1.454e-4
-0.890, 1.457e-4
-0.891, 1.460e-4
-0.892, 1.463e-4
-0.893, 1.466e-4
-0.894, 1.469e-4
-0.895, 1.472e-4
-0.896, 1.476e-4
-0.897, 1.479e-4
-0.898, 1.482e-4
-0.899, 1.485e-4
-0.900, 1.488e-4
-0.901, 1.491e-4
-0.902, 1.495e-4
-0.903, 1.498e-4
-0.904, 1.501e-4
-0.905, 1.504e-4
-0.906, 1.507e-4
-0.907, 1.511e-4
-0.908, 1.514e-4
-0.909, 1.517e-4
-0.910, 1.521e-4
-0.911, 1.524e-4
-0.912, 1.527e-4
-0.913, 1.531e-4
-0.914, 1.534e-4
-0.915, 1.538e-4
-0.916, 1.541e-4
-0.917, 1.545e-4
-0.918, 1.549e-4
-0.919, 1.552e-4
-0.920, 1.556e-4
-0.921, 1.560e-4
-0.922, 1.564e-4
-0.923, 1.567e-4
-0.924, 1.571e-4
-0.925, 1.575e-4
-0.926, 1.579e-4
-0.927, 1.583e-4
-0.928, 1.588e-4
-0.929, 1.592e-4
-0.930, 1.596e-4
-0.931, 1.600e-4
-0.932, 1.605e-4
-0.933, 1.609e-4
-0.934, 1.613e-4
-0.935, 1.618e-4
-0.936, 1.623e-4
-0.937, 1.627e-4
-0.938, 1.632e-4
-0.939, 1.637e-4
-0.940, 1.641e-4
-0.941, 1.647e-4
-0.942, 1.652e-4
-0.943, 1.657e-4
-0.944, 1.662e-4
-0.945, 1.667e-4
-0.946, 1.672e-4
-0.947, 1.678e-4
-0.948, 1.683e-4
-0.949, 1.689e-4
-0.950, 1.694e-4
-0.951, 1.699e-4
-0.952, 1.705e-4
-0.953, 1.711e-4
-0.954, 1.717e-4
-0.955, 1.722e-4
-0.956, 1.728e-4
-0.957, 1.735e-4
-0.958, 1.740e-4
-0.959, 1.746e-4
-0.960, 1.753e-4
-0.961, 1.759e-4
-0.962, 1.765e-4
-0.963, 1.772e-4
-0.964, 1.778e-4
-0.965, 1.784e-4
-0.966, 1.791e-4
-0.967, 1.798e-4
-0.968, 1.804e-4
-0.969, 1.811e-4
-0.970, 1.818e-4
-0.971, 1.825e-4
-0.972, 1.832e-4
-0.973, 1.840e-4
-0.974, 1.847e-4
-0.975, 1.854e-4
-0.976, 1.861e-4
-0.977, 1.868e-4
-0.978, 1.875e-4
-0.979, 1.882e-4
-0.980, 1.889e-4
-0.981, 1.897e-4
-0.982, 1.904e-4
-0.983, 1.912e-4
-0.984, 1.920e-4
-0.985, 1.927e-4
-0.986, 1.935e-4
-0.987, 1.943e-4
-0.988, 1.951e-4
-0.989, 1.958e-4
-0.990, 1.966e-4
-0.991, 1.974e-4
-0.992, 1.982e-4
-0.993, 1.990e-4
-0.994, 1.998e-4
-0.995, 2.006e-4
-0.996, 2.014e-4
-0.997, 2.022e-4
-0.998, 2.031e-4
-0.999, 2.039e-4
-1.000, 2.047e-4
-1.001, 2.055e-4
-1.002, 2.064e-4
-1.003, 2.072e-4
-1.004, 2.080e-4
-1.005, 2.088e-4
-1.006, 2.097e-4
-1.007, 2.105e-4
-1.008, 2.114e-4
-1.009, 2.122e-4
-1.010, 2.131e-4
-1.011, 2.139e-4
-1.012, 2.148e-4
-1.013, 2.156e-4
-1.014, 2.165e-4
-1.015, 2.173e-4
-1.016, 2.182e-4
-1.017, 2.191e-4
-1.018, 2.199e-4
-1.019, 2.207e-4
-1.020, 2.216e-4
-1.021, 2.225e-4
-1.022, 2.233e-4
-1.023, 2.241e-4
-1.024, 2.250e-4
-1.025, 2.259e-4
-1.026, 2.268e-4
-1.027, 2.276e-4
-1.028, 2.285e-4
-1.029, 2.293e-4
-1.030, 2.301e-4
-1.031, 2.310e-4
-1.032, 2.319e-4
-1.033, 2.327e-4
-1.034, 2.335e-4
-1.035, 2.343e-4
-1.036, 2.352e-4
-1.037, 2.360e-4
-1.038, 2.369e-4
-1.039, 2.376e-4
-1.040, 2.385e-4
-1.041, 2.393e-4
-1.042, 2.402e-4
-1.043, 2.410e-4
-1.044, 2.418e-4
-1.045, 2.426e-4
-1.046, 2.434e-4
-1.047, 2.442e-4
-1.048, 2.451e-4
-1.049, 2.459e-4
-1.050, 2.467e-4
-1.051, 2.475e-4
-1.052, 2.483e-4
-1.053, 2.491e-4
-1.054, 2.499e-4
-1.055, 2.506e-4
-1.056, 2.515e-4
-1.057, 2.522e-4
-1.058, 2.530e-4
-1.059, 2.538e-4
-1.060, 2.546e-4
-1.061, 2.554e-4
-1.062, 2.562e-4
-1.063, 2.569e-4
-1.064, 2.576e-4
-1.065, 2.584e-4
-1.066, 2.591e-4
-1.067, 2.599e-4
-1.068, 2.607e-4
-1.069, 2.614e-4
-1.070, 2.622e-4
-1.071, 2.629e-4
-1.072, 2.637e-4
-1.073, 2.644e-4
-1.074, 2.651e-4
-1.075, 2.659e-4
-1.076, 2.667e-4
-1.077, 2.674e-4
-1.078, 2.681e-4
-1.079, 2.688e-4
-1.080, 2.696e-4
-1.081, 2.703e-4
-1.082, 2.710e-4
-1.083, 2.718e-4
-1.084, 2.725e-4
-1.085, 2.732e-4
-1.086, 2.740e-4
-1.087, 2.747e-4
-1.088, 2.754e-4
-1.089, 2.761e-4
-1.090, 2.768e-4
-1.091, 2.776e-4
-1.092, 2.783e-4
-1.093, 2.790e-4
-1.094, 2.798e-4
-1.095, 2.805e-4
-1.096, 2.812e-4
-1.097, 2.819e-4
-1.098, 2.826e-4
-1.099, 2.834e-4
-1.100, 2.841e-4
-1.101, 2.849e-4
-1.102, 2.856e-4
-1.103, 2.864e-4
-1.104, 2.871e-4
-1.105, 2.878e-4
-1.106, 2.886e-4
-1.107, 2.893e-4
-1.108, 2.901e-4
-1.109, 2.908e-4
-1.110, 2.916e-4
-1.111, 2.924e-4
-1.112, 2.932e-4
-1.113, 2.939e-4
-1.114, 2.947e-4
-1.115, 2.955e-4
-1.116, 2.963e-4
-1.117, 2.971e-4
-1.118, 2.979e-4
-1.119, 2.987e-4
-1.120, 2.995e-4
-1.121, 3.003e-4
-1.122, 3.011e-4
-1.123, 3.019e-4
-1.124, 3.027e-4
-1.125, 3.036e-4
-1.126, 3.045e-4
-1.127, 3.053e-4
-1.128, 3.062e-4
-1.129, 3.070e-4
-1.130, 3.079e-4
-1.131, 3.088e-4
-1.132, 3.096e-4
-1.133, 3.106e-4
-1.134, 3.115e-4
-1.135, 3.123e-4
-1.136, 3.133e-4
-1.137, 3.142e-4
-1.138, 3.151e-4
-1.139, 3.161e-4
-1.140, 3.170e-4
-1.141, 3.180e-4
-1.142, 3.190e-4
-1.143, 3.200e-4
-1.144, 3.209e-4
-1.145, 3.219e-4
-1.146, 3.229e-4
-1.147, 3.240e-4
-1.148, 3.250e-4
-1.149, 3.261e-4
-1.150, 3.271e-4
-1.151, 3.282e-4
-1.152, 3.293e-4
-1.153, 3.304e-4
-1.154, 3.315e-4
-1.155, 3.326e-4
-1.156, 3.337e-4
-1.157, 3.348e-4
-1.158, 3.360e-4
-1.159, 3.371e-4
-1.160, 3.383e-4
-1.161, 3.395e-4
-1.162, 3.407e-4
-1.163, 3.419e-4
-1.164, 3.431e-4
-1.165, 3.444e-4
-1.166, 3.457e-4
-1.167, 3.469e-4
-1.168, 3.483e-4
-1.169, 3.495e-4
-1.170, 3.509e-4
-1.171, 3.522e-4
-1.172, 3.536e-4
-1.173, 3.549e-4
-1.174, 3.563e-4
-1.175, 3.577e-4
-1.176, 3.591e-4
-1.177, 3.606e-4
-1.178, 3.621e-4
-1.179, 3.636e-4
-1.180, 3.650e-4
-1.181, 3.665e-4
-1.182, 3.680e-4
-1.183, 3.696e-4
-1.184, 3.712e-4
-1.185, 3.728e-4
-1.186, 3.744e-4
-1.187, 3.760e-4
-1.188, 3.776e-4
-1.189, 3.793e-4
-1.190, 3.809e-4
-1.191, 3.826e-4
-1.192, 3.844e-4
-1.193, 3.861e-4
-1.194, 3.878e-4
-1.195, 3.896e-4
-1.196, 3.914e-4
-1.197, 3.933e-4
-1.198, 3.951e-4
-1.199, 3.970e-4
-1.200, 3.989e-4
-1.201, 4.008e-4
-1.202, 4.028e-4
-1.203, 4.047e-4
-1.204, 4.067e-4
-1.205, 4.087e-4
-1.206, 4.108e-4
-1.207, 4.128e-4
-1.208, 4.149e-4
-1.209, 4.170e-4
-1.210, 4.192e-4
-1.211, 4.214e-4
-1.212, 4.235e-4
-1.213, 4.257e-4
-1.214, 4.280e-4
-1.215, 4.302e-4
-1.216, 4.325e-4
-1.217, 4.349e-4
-1.218, 4.372e-4
-1.219, 4.396e-4
-1.220, 4.420e-4
-1.221, 4.444e-4
-1.222, 4.469e-4
-1.223, 4.494e-4
-1.224, 4.519e-4
-1.225, 4.544e-4
-1.226, 4.569e-4
-1.227, 4.596e-4
-1.228, 4.622e-4
-1.229, 4.650e-4
-1.230, 4.678e-4
-1.231, 4.704e-4
-1.232, 4.732e-4
-1.233, 4.759e-4
-1.234, 4.787e-4
-1.235, 4.815e-4
-1.236, 4.844e-4
-1.237, 4.873e-4
-1.238, 4.902e-4
-1.239, 4.931e-4
-1.240, 4.962e-4
-1.241, 4.994e-4
-1.242, 5.024e-4
-1.243, 5.055e-4
-1.244, 5.086e-4
-1.245, 5.117e-4
-1.246, 5.149e-4
-1.247, 5.181e-4
-1.248, 5.213e-4
-1.249, 5.246e-4
-1.250, 5.278e-4
-1.251, 5.312e-4
-1.252, 5.345e-4
-1.253, 5.379e-4
-1.254, 5.413e-4
-1.255, 5.447e-4
-1.256, 5.482e-4
-1.257, 5.517e-4
-1.258, 5.552e-4
-1.259, 5.587e-4
-1.260, 5.623e-4
-1.261, 5.659e-4
-1.262, 5.696e-4
-1.263, 5.732e-4
-1.264, 5.769e-4
-1.265, 5.806e-4
-1.266, 5.844e-4
-1.267, 5.881e-4
-1.268, 5.919e-4
-1.269, 5.957e-4
-1.270, 5.996e-4
-1.271, 6.034e-4
-1.272, 6.073e-4
-1.273, 6.112e-4
-1.274, 6.151e-4
-1.275, 6.191e-4
-1.276, 6.230e-4
-1.277, 6.270e-4
-1.278, 6.310e-4
-1.279, 6.350e-4
-1.280, 6.391e-4
-1.281, 6.433e-4
-1.282, 6.473e-4
-1.283, 6.513e-4
-1.284, 6.554e-4
-1.285, 6.595e-4
-1.286, 6.636e-4
-1.287, 6.677e-4
-1.288, 6.718e-4
-1.289, 6.759e-4
-1.290, 6.801e-4
-1.291, 6.842e-4
-1.292, 6.884e-4
-1.293, 6.925e-4
-1.294, 6.966e-4
-1.295, 7.007e-4
-1.296, 7.048e-4
-1.297, 7.089e-4
-1.298, 7.131e-4
-1.299, 7.172e-4
-1.300, 7.213e-4
-1.301, 7.254e-4
-1.302, 7.295e-4
-1.303, 7.336e-4
-1.304, 7.376e-4
-1.305, 7.417e-4
-1.306, 7.457e-4
-1.307, 7.497e-4
-1.308, 7.537e-4
-1.309, 7.577e-4
-1.310, 7.616e-4
-1.311, 7.655e-4
-1.312, 7.695e-4
-1.313, 7.733e-4
-1.314, 7.771e-4
-1.315, 7.809e-4
-1.316, 7.847e-4
-1.317, 7.885e-4
-1.318, 7.922e-4
-1.319, 7.958e-4
-1.320, 7.995e-4
-1.321, 8.031e-4
-1.322, 8.067e-4
-1.323, 8.102e-4
-1.324, 8.137e-4
-1.325, 8.171e-4
-1.326, 8.205e-4
-1.327, 8.239e-4
-1.328, 8.272e-4
-1.329, 8.305e-4
-1.330, 8.337e-4
-1.331, 8.369e-4
-1.332, 8.400e-4
-1.333, 8.431e-4
-1.334, 8.462e-4
-1.335, 8.491e-4
-1.336, 8.521e-4
-1.337, 8.550e-4
-1.338, 8.578e-4
-1.339, 8.606e-4
-1.340, 8.634e-4
-1.341, 8.661e-4
-1.342, 8.688e-4
-1.343, 8.714e-4
-1.344, 8.739e-4
-1.345, 8.763e-4
-1.346, 8.787e-4
-1.347, 8.812e-4
-1.348, 8.836e-4
-1.349, 8.860e-4
-1.350, 8.881e-4
-1.351, 8.903e-4
-1.352, 8.925e-4
-1.353, 8.946e-4
-1.354, 8.966e-4
-1.355, 8.986e-4
-1.356, 9.006e-4
-1.357, 9.026e-4
-1.358, 9.045e-4
-1.359, 9.062e-4
-1.360, 9.080e-4
-1.361, 9.098e-4
-1.362, 9.115e-4
-1.363, 9.132e-4
-1.364, 9.148e-4
-1.365, 9.164e-4
-1.366, 9.180e-4
-1.367, 9.195e-4
-1.368, 9.210e-4
-1.369, 9.224e-4
-1.370, 9.238e-4
-1.371, 9.252e-4
-1.372, 9.266e-4
-1.373, 9.279e-4
-1.374, 9.292e-4
-1.375, 9.305e-4
-1.376, 9.318e-4
-1.377, 9.330e-4
-1.378, 9.342e-4
-1.379, 9.355e-4
-1.380, 9.366e-4
-1.381, 9.378e-4
-1.382, 9.390e-4
-1.383, 9.403e-4
-1.384, 9.415e-4
-1.385, 9.426e-4
-1.386, 9.437e-4
-1.387, 9.449e-4
-1.388, 9.461e-4
-1.389, 9.473e-4
-1.390, 9.485e-4
-1.391, 9.497e-4
-1.392, 9.511e-4
-1.393, 9.523e-4
-1.394, 9.536e-4
-1.395, 9.550e-4
-1.396, 9.556e-4
-1.397, 9.568e-4
-1.398, 9.583e-4
-1.399, 9.598e-4
-1.400, 9.614e-4
-1.401, 9.631e-4
-1.402, 9.648e-4
-1.403, 9.665e-4
-1.404, 9.683e-4
-1.405, 9.701e-4
-1.406, 9.720e-4
-1.407, 9.740e-4
-1.408, 9.760e-4
-1.409, 9.780e-4
-1.410, 9.802e-4
-1.411, 9.825e-4
-1.412, 9.847e-4
-1.413, 9.871e-4
-1.414, 9.895e-4
-1.415, 9.919e-4
-1.416, 9.944e-4
-1.417, 9.970e-4
-1.418, 9.997e-4
-1.419, 1.002e-3
-1.420, 1.005e-3
-1.421, 1.008e-3
-1.422, 1.011e-3
-1.423, 1.011e-3
-1.424, 1.011e-3
-1.425, 1.011e-3
-1.426, 1.011e-3
-1.427, 1.011e-3
-1.428, 1.011e-3
-1.429, 1.011e-3
-1.430, 1.011e-3
-1.431, 1.011e-3
-1.432, 1.011e-3
-1.433, 1.011e-3
-1.434, 1.011e-3
-1.435, 1.011e-3
-1.436, 1.011e-3
-1.437, 1.011e-3
-1.438, 1.011e-3
-1.439, 1.011e-3
-1.440, 1.011e-3
-1.441, 1.011e-3
-1.442, 1.011e-3
-1.443, 1.011e-3
-1.444, 1.011e-3
-1.445, 1.011e-3
-1.446, 1.011e-3
-1.447, 1.011e-3
-1.448, 1.011e-3
-1.449, 1.011e-3
-1.450, 1.011e-3
-1.451, 1.011e-3
-1.452, 1.011e-3
-1.453, 1.011e-3
-1.454, 1.011e-3
-1.455, 1.011e-3
-1.456, 1.011e-3
-1.457, 1.011e-3
-1.458, 1.011e-3
-1.459, 1.011e-3
-1.460, 1.011e-3
-1.461, 1.011e-3
-1.462, 1.011e-3
-1.463, 1.011e-3
-1.464, 1.011e-3
-1.465, 1.011e-3
-1.466, 1.011e-3
-1.467, 1.011e-3
-1.468, 1.011e-3
-1.469, 1.011e-3
-1.470, 1.011e-3
-1.471, 1.011e-3
-1.472, 1.011e-3
-1.473, 1.011e-3
-1.474, 1.011e-3
-1.475, 1.011e-3
-1.476, 1.011e-3
-1.477, 1.011e-3
-1.478, 1.011e-3
-1.479, 1.011e-3
-1.480, 1.011e-3
-1.481, 1.011e-3
-1.482, 1.011e-3
-1.483, 1.011e-3
-1.484, 1.011e-3
-1.485, 1.011e-3
-1.486, 1.011e-3
-1.487, 1.011e-3
-1.488, 1.011e-3
-1.489, 1.011e-3
-1.490, 1.011e-3
-1.491, 1.011e-3
-1.492, 1.011e-3
-1.493, 1.011e-3
-1.494, 1.011e-3
-1.495, 1.011e-3
-1.496, 1.011e-3
-1.497, 1.011e-3
-1.498, 1.011e-3
-1.499, 1.011e-3
-1.500, 1.011e-3
-1.501, 1.011e-3
-1.502, 1.011e-3
-1.503, 1.011e-3
-1.504, 1.011e-3
-1.505, 1.011e-3
-1.506, 1.011e-3
-1.507, 1.011e-3
-1.508, 1.011e-3
-1.509, 1.011e-3
-1.510, 1.011e-3
-1.511, 1.011e-3
-1.512, 1.011e-3
-1.513, 1.011e-3
-1.514, 1.011e-3
-1.515, 1.011e-3
-1.516, 1.011e-3
-1.517, 1.011e-3
-1.518, 1.011e-3
-1.519, 1.011e-3
-1.520, 1.011e-3
-1.521, 1.011e-3
-1.522, 1.011e-3
-1.523, 1.011e-3
-1.524, 1.011e-3
-1.525, 1.011e-3
-1.526, 1.011e-3
-1.527, 1.011e-3
-1.528, 1.011e-3
-1.529, 1.011e-3
-1.530, 1.011e-3
-1.531, 1.011e-3
-1.532, 1.011e-3
-1.533, 1.011e-3
-1.534, 1.011e-3
-1.535, 1.011e-3
-1.536, 1.011e-3
-1.537, 1.011e-3
-1.538, 1.011e-3
-1.539, 1.011e-3
-1.540, 1.011e-3
-1.541, 1.011e-3
-1.542, 1.011e-3
-1.543, 1.011e-3
-1.544, 1.011e-3
-1.545, 1.011e-3
-1.546, 1.011e-3
-1.547, 1.011e-3
-1.548, 1.011e-3
-1.549, 1.011e-3
-1.550, 1.011e-3
-1.551, 1.011e-3
-1.552, 1.011e-3
-1.553, 1.011e-3
-1.554, 1.011e-3
-1.555, 1.011e-3
-1.556, 1.011e-3
-1.557, 1.011e-3
-1.558, 1.011e-3
-1.559, 1.011e-3
-1.560, 1.011e-3
-1.561, 1.011e-3
-1.562, 1.011e-3
-1.563, 1.011e-3
-1.564, 1.011e-3
-1.565, 1.011e-3
-1.566, 1.011e-3
-1.567, 1.011e-3
-1.568, 1.011e-3
-1.569, 1.011e-3
-1.570, 1.011e-3
-1.571, 1.011e-3
-1.572, 1.011e-3
-1.573, 1.011e-3
-1.574, 1.011e-3
-1.575, 1.011e-3
-1.576, 1.011e-3
-1.577, 1.011e-3
-1.578, 1.011e-3
-1.579, 1.011e-3
-1.580, 1.011e-3
-1.581, 1.011e-3
-1.582, 1.011e-3
-1.583, 1.011e-3
-1.584, 1.011e-3
-1.585, 1.011e-3
-1.586, 1.011e-3
-1.587, 1.011e-3
-1.588, 1.011e-3
-1.589, 1.011e-3
-1.590, 1.011e-3
-1.591, 1.011e-3
-1.592, 1.011e-3
-1.593, 1.011e-3
-1.594, 1.011e-3
-1.595, 1.011e-3
-1.596, 1.011e-3
-1.597, 1.011e-3
-1.598, 1.011e-3
-1.599, 1.011e-3
-1.600, 1.011e-3
-1.601, 1.011e-3
-1.602, 1.011e-3
-1.603, 1.011e-3
-1.604, 1.011e-3
-1.605, 1.011e-3
-1.606, 1.011e-3
-1.607, 1.011e-3
-1.608, 1.011e-3
-1.609, 1.011e-3
-1.610, 1.011e-3
-1.611, 1.011e-3
-1.612, 1.011e-3
-1.613, 1.011e-3
-1.614, 1.011e-3
-1.615, 1.011e-3
-1.616, 1.011e-3
-1.617, 1.011e-3
-1.618, 1.011e-3
-1.619, 1.011e-3
-1.620, 1.011e-3
-1.621, 1.011e-3
-1.622, 1.011e-3
-1.623, 1.011e-3
-1.624, 1.011e-3
-1.625, 1.011e-3
-1.626, 1.011e-3
-1.627, 1.011e-3
-1.628, 1.011e-3
-1.629, 1.011e-3
-1.630, 1.011e-3
-1.631, 1.011e-3
-1.632, 1.011e-3
-1.633, 1.011e-3
-1.634, 1.011e-3
-1.635, 1.011e-3
-1.636, 1.011e-3
-1.637, 1.011e-3
-1.638, 1.011e-3
-1.639, 1.011e-3
-1.640, 1.011e-3
-1.641, 1.011e-3
-1.642, 1.011e-3
-1.643, 1.011e-3
-1.644, 1.011e-3
-1.645, 1.011e-3
-1.646, 1.011e-3
-1.647, 1.011e-3
-1.648, 1.011e-3
-1.649, 1.011e-3
-1.650, 1.011e-3
-1.651, 1.011e-3
-1.652, 1.011e-3
-1.653, 1.011e-3
-1.654, 1.011e-3
-1.655, 1.011e-3
-1.656, 1.011e-3
-1.657, 1.011e-3
-1.658, 1.011e-3
-1.659, 1.011e-3
-1.660, 1.011e-3
-1.661, 1.011e-3
-1.662, 1.011e-3
-1.663, 1.011e-3
-1.664, 1.011e-3
-1.665, 1.011e-3
-1.666, 1.011e-3
-1.667, 1.011e-3
-1.668, 1.011e-3
-1.669, 1.011e-3
-1.670, 1.011e-3
-1.671, 1.011e-3
-1.672, 1.011e-3
-1.673, 1.011e-3
-1.674, 1.011e-3
-1.675, 1.011e-3
-1.676, 1.011e-3
-1.677, 1.011e-3
-1.678, 1.011e-3
-1.679, 1.011e-3
-1.680, 1.011e-3
-1.681, 1.011e-3
-1.682, 1.011e-3
-1.683, 1.011e-3
-1.684, 1.011e-3
-1.685, 1.011e-3
-1.686, 1.011e-3
-1.687, 1.011e-3
-1.688, 1.011e-3
-1.689, 1.011e-3
-1.690, 1.011e-3
-1.691, 1.011e-3
-1.692, 1.011e-3
-1.693, 1.011e-3
-1.694, 1.011e-3
-1.695, 1.011e-3
-1.696, 1.011e-3
-1.697, 1.011e-3
-1.698, 1.011e-3
-1.699, 1.011e-3
-1.700, 1.011e-3
-1.701, 1.011e-3
-1.702, 1.011e-3
-1.703, 1.011e-3
-1.704, 1.011e-3
-1.705, 1.011e-3
-1.706, 1.011e-3
-1.707, 1.011e-3
-1.708, 1.011e-3
-1.709, 1.011e-3
-1.710, 1.011e-3
-1.711, 1.011e-3
-1.712, 1.011e-3
-1.713, 1.011e-3
-1.714, 1.011e-3
-1.715, 1.011e-3
-1.716, 1.011e-3
-1.717, 1.011e-3
-1.718, 1.011e-3
-1.719, 1.011e-3
-1.720, 1.011e-3
-1.721, 1.011e-3
-1.722, 1.011e-3
-1.723, 1.011e-3
-1.724, 1.011e-3
-1.725, 1.011e-3
-1.726, 1.011e-3
-1.727, 1.011e-3
-1.728, 1.011e-3
-1.729, 1.011e-3
-1.730, 1.011e-3
-1.731, 1.011e-3
-1.732, 1.011e-3
-1.733, 1.011e-3
-1.734, 1.011e-3
-1.735, 1.011e-3
-1.736, 1.011e-3
-1.737, 1.011e-3
-1.738, 1.011e-3
-1.739, 1.011e-3
-1.740, 1.011e-3
-1.741, 1.011e-3
-1.742, 1.011e-3
-1.743, 1.011e-3
-1.744, 1.011e-3
-1.745, 1.011e-3
-1.746, 1.011e-3
-1.747, 1.011e-3
-1.748, 1.011e-3
-1.749, 1.011e-3
-1.750, 1.011e-3
-1.751, 1.011e-3
-1.752, 1.011e-3
-1.753, 1.011e-3
-1.754, 1.011e-3
-1.755, 1.011e-3
-1.756, 1.011e-3
-1.757, 1.011e-3
-1.758, 1.011e-3
-1.759, 1.011e-3
-1.760, 1.011e-3
-1.761, 1.011e-3
-1.762, 1.011e-3
-1.763, 1.011e-3
-1.764, 1.011e-3
-1.765, 1.011e-3
-1.766, 1.011e-3
-1.767, 1.011e-3
-1.768, 1.011e-3
-1.769, 1.011e-3
-1.770, 1.011e-3
-1.771, 1.011e-3
-1.772, 1.011e-3
-1.773, 1.011e-3
-1.774, 1.011e-3
-1.775, 1.011e-3
-1.776, 1.011e-3
-1.777, 1.011e-3
-1.778, 1.011e-3
-1.779, 1.011e-3
-1.780, 1.011e-3
-1.781, 1.011e-3
-1.782, 1.011e-3
-1.783, 1.011e-3
-1.784, 1.011e-3
-1.785, 1.011e-3
-1.786, 1.011e-3
-1.787, 1.011e-3
-1.788, 1.011e-3
-1.789, 1.011e-3
-1.790, 1.011e-3
-1.791, 1.011e-3
-1.792, 1.011e-3
-1.793, 1.011e-3
-1.794, 1.011e-3
-1.795, 1.011e-3
-1.796, 1.011e-3
-1.797, 1.011e-3
-1.798, 1.011e-3
-1.799, 1.011e-3
-1.800, 1.011e-3
-1.801, 1.011e-3
-1.802, 1.011e-3
-1.803, 1.011e-3
-1.804, 1.011e-3
-1.805, 1.011e-3
-1.806, 1.011e-3
-1.807, 1.011e-3
-1.808, 1.011e-3
-1.809, 1.011e-3
-1.810, 1.011e-3
-1.811, 1.011e-3
-1.812, 1.011e-3
-1.813, 1.011e-3
-1.814, 1.011e-3
-1.815, 1.011e-3
-1.816, 1.011e-3
-1.817, 1.011e-3
-1.818, 1.011e-3
-1.819, 1.011e-3
-1.820, 1.011e-3
-1.821, 1.011e-3
-1.822, 1.011e-3
-1.823, 1.011e-3
-1.824, 1.011e-3
-1.825, 1.011e-3
-1.826, 1.011e-3
-1.827, 1.011e-3
-1.828, 1.011e-3
-1.829, 1.011e-3
-1.830, 1.011e-3
-1.831, 1.011e-3
-1.832, 1.011e-3
-1.833, 1.011e-3
-1.834, 1.011e-3
-1.835, 1.011e-3
-1.836, 1.011e-3
-1.837, 1.011e-3
-1.838, 1.011e-3
-1.839, 1.011e-3
-1.840, 1.011e-3
-1.841, 1.011e-3
-1.842, 1.011e-3
-1.843, 1.011e-3
-1.844, 1.011e-3
-1.845, 1.011e-3
-1.846, 1.011e-3
-1.847, 1.011e-3
-1.848, 1.011e-3
-1.849, 1.011e-3
-1.850, 1.011e-3
-1.851, 1.011e-3
-1.852, 1.011e-3
-1.853, 1.011e-3
-1.854, 1.011e-3
-1.855, 1.011e-3
-1.856, 1.011e-3
-1.857, 1.011e-3
-1.858, 1.011e-3
-1.859, 1.011e-3
-1.860, 1.011e-3
-1.861, 1.011e-3
-1.862, 1.011e-3
-1.863, 1.011e-3
-1.864, 1.011e-3
-1.865, 1.011e-3
-1.866, 1.011e-3
-1.867, 1.011e-3
-1.868, 1.011e-3
-1.869, 1.011e-3
-1.870, 1.011e-3
-1.871, 1.011e-3
-1.872, 1.011e-3
-1.873, 1.011e-3
-1.874, 1.011e-3
-1.875, 1.011e-3
-1.876, 1.011e-3
-1.877, 1.011e-3
-1.878, 1.011e-3
-1.879, 1.011e-3
-1.880, 1.011e-3
-1.881, 1.011e-3
-1.882, 1.011e-3
-1.883, 1.011e-3
-1.884, 1.011e-3
-1.885, 1.011e-3
-1.886, 1.011e-3
-1.887, 1.011e-3
-1.888, 1.011e-3
-1.889, 1.011e-3
-1.890, 1.011e-3
-1.891, 1.011e-3
-1.892, 1.011e-3
-1.893, 1.011e-3
-1.894, 1.011e-3
-1.895, 1.011e-3
-1.896, 1.011e-3
-1.897, 1.011e-3
-1.898, 1.011e-3
-1.899, 1.011e-3
