Potential V vs RHE, Current mA cm-2
0.013299999999999867,-0.2202705493889862
0.012299999999999978,-1.0925815368857679
0.011299999999999866,-1.8773218949209036
0.010299999999999976,-2.4884771764625997
0.009299999999999864,-3.055776407708479
0.008299999999999974,-3.5353635383627267
0.007299999999999862,-3.927238568425342
0.006299999999999972,-4.3205283097878215
0.00529999999999986,-4.582249900262854
0.0042999999999999705,-4.9302688800296535
0.0032999999999998586,-5.149549131508733
0.0022999999999999687,-5.367414671687949
0.0012999999999998568,-5.629136262162981
0.00029999999999996696,-5.80314575204638
-0.000700000000000145,-5.977155241929781
-0.0017000000000000348,-6.108723392817228
-0.0027000000000001467,-6.282732882700628
-0.0037000000000000366,-6.37044498329226
-0.0047000000000001485,-6.500598422879844
-0.005700000000000038,-6.54445447317566
-0.00670000000000015,-6.632166573767292
-0.00770000000000004,-6.719878674358924
-0.008700000000000152,-6.806176063650692
-0.009700000000000042,-6.893888164242324
-0.010700000000000154,-6.93774421453814
-0.011700000000000044,-7.024041603829907
-0.012700000000000156,-7.111753704421539
-0.013700000000000045,-7.155609754717355
-0.014700000000000157,-7.243321855308987
-0.015700000000000047,-7.199465805013171
-0.01670000000000016,-7.28576319430494
-0.01770000000000005,-7.243321855308987
-0.01870000000000016,-7.28576319430494
-0.01970000000000005,-7.329619244600755
-0.020700000000000163,-7.329619244600755
-0.021700000000000053,-7.37347529489657
-0.022700000000000164,-7.37347529489657
-0.023700000000000054,-7.4173313451923875
-0.024700000000000166,-7.461187395488204
-0.025700000000000056,-7.50504344578402
-0.026700000000000168,-7.50504344578402
-0.027700000000000058,-7.50504344578402
-0.02870000000000017,-7.50504344578402
-0.02970000000000006,-7.461187395488204
-0.03070000000000017,-7.461187395488204
-0.03170000000000006,-7.461187395488204
-0.03270000000000017,-7.50504344578402
-0.03370000000000006,-7.50504344578402
-0.034700000000000175,-7.5474847847799715
-0.035700000000000065,-7.5474847847799715
-0.03670000000000018,-7.5474847847799715
-0.03770000000000007,-7.591340835075788
-0.03870000000000018,-7.5474847847799715
-0.03970000000000007,-7.591340835075788
-0.04070000000000018,-7.5474847847799715
-0.04170000000000007,-7.50504344578402
-0.04270000000000018,-7.50504344578402
-0.04370000000000007,-7.50504344578402
-0.044700000000000184,-7.5474847847799715
-0.045700000000000074,-7.5474847847799715
-0.046700000000000186,-7.5474847847799715
-0.047700000000000076,-7.5474847847799715
-0.04870000000000019,-7.591340835075788
-0.04970000000000008,-7.591340835075788
-0.05070000000000019,-7.5474847847799715
-0.05170000000000008,-7.5474847847799715
-0.05270000000000019,-7.5474847847799715
-0.05370000000000008,-7.50504344578402
-0.05470000000000019,-7.50504344578402
-0.05570000000000008,-7.50504344578402
-0.056700000000000195,-7.50504344578402
-0.057700000000000085,-7.50504344578402
-0.058700000000000196,-7.5474847847799715
-0.059700000000000086,-7.5474847847799715
-0.0607000000000002,-7.5474847847799715
-0.06170000000000009,-7.591340835075788
-0.0627000000000002,-7.591340835075788
-0.06370000000000009,-7.5474847847799715
-0.0647000000000002,-7.50504344578402
-0.06570000000000009,-7.5474847847799715
-0.0667000000000002,-7.50504344578402
-0.0677000000000001,-7.461187395488204
-0.0687000000000002,-7.50504344578402
-0.0697000000000001,-7.50504344578402
-0.07070000000000021,-7.5474847847799715
-0.0717000000000001,-7.5474847847799715
-0.07270000000000021,-7.5474847847799715
-0.0737000000000001,-7.5474847847799715
-0.07470000000000021,-7.5474847847799715
-0.0757000000000001,-7.50504344578402
-0.07670000000000021,-7.461187395488204
-0.0777000000000001,-7.461187395488204
-0.07870000000000021,-7.461187395488204
-0.0797000000000001,-7.50504344578402
-0.08070000000000022,-7.50504344578402
-0.0817000000000001,-7.50504344578402
-0.08270000000000022,-7.50504344578402
-0.08370000000000011,-7.5474847847799715
-0.08470000000000022,-7.5474847847799715
-0.08570000000000011,-7.50504344578402
-0.08670000000000022,-7.50504344578402
-0.08770000000000011,-7.461187395488204
-0.08870000000000022,-7.461187395488204
-0.08970000000000011,-7.461187395488204
-0.09070000000000022,-7.461187395488204
-0.09170000000000011,-7.461187395488204
-0.09270000000000023,-7.461187395488204
-0.09370000000000012,-7.50504344578402
-0.09470000000000023,-7.50504344578402
-0.09570000000000012,-7.50504344578402
-0.09670000000000023,-7.5474847847799715
-0.09770000000000012,-7.50504344578402
-0.09870000000000023,-7.50504344578402
-0.09970000000000012,-7.461187395488204
-0.10070000000000023,-7.461187395488204
-0.10170000000000012,-7.4173313451923875
-0.10270000000000024,-7.4173313451923875
-0.10370000000000013,-7.461187395488204
-0.10470000000000024,-7.461187395488204
-0.10570000000000013,-7.50504344578402
-0.10670000000000024,-7.50504344578402
-0.10770000000000013,-7.50504344578402
-0.10870000000000024,-7.461187395488204
-0.10970000000000013,-7.50504344578402
-0.11070000000000024,-7.461187395488204
-0.11170000000000013,-7.4173313451923875
-0.11270000000000002,-7.461187395488204
-0.11370000000000013,-7.461187395488204
-0.11470000000000002,-7.461187395488204
-0.11570000000000014,-7.461187395488204
-0.11670000000000003,-7.50504344578402
-0.11770000000000014,-7.50504344578402
-0.11870000000000003,-7.50504344578402
-0.11970000000000014,-7.5474847847799715
-0.12070000000000003,-7.50504344578402
-0.12170000000000014,-7.50504344578402
-0.12270000000000003,-7.50504344578402
-0.12370000000000014,-7.50504344578402
-0.12470000000000003,-7.461187395488204
-0.12570000000000014,-7.461187395488204
-0.12670000000000003,-7.50504344578402
-0.12770000000000015,-7.50504344578402
-0.12870000000000004,-7.5474847847799715
-0.12970000000000015,-7.5474847847799715
-0.13070000000000004,-7.5474847847799715
-0.13170000000000015,-7.591340835075788
-0.13270000000000004,-7.591340835075788
-0.13370000000000015,-7.591340835075788
-0.13470000000000004,-7.5474847847799715
-0.13570000000000015,-7.5474847847799715
-0.13670000000000004,-7.5474847847799715
-0.13770000000000016,-7.5474847847799715
-0.13870000000000005,-7.5474847847799715
-0.13970000000000016,-7.591340835075788
-0.14070000000000005,-7.635196885371603
-0.14170000000000016,-7.635196885371603
-0.14270000000000005,-7.635196885371603
-0.14370000000000016,-7.635196885371603
-0.14470000000000005,-7.635196885371603
-0.14570000000000016,-7.635196885371603
-0.14670000000000005,-7.591340835075788
-0.14770000000000016,-7.635196885371603
-0.14870000000000005,-7.591340835075788
-0.14970000000000017,-7.635196885371603
-0.15070000000000006,-7.635196885371603
-0.15170000000000017,-7.679052935667419
-0.15270000000000006,-7.722908985963235
-0.15370000000000017,-7.722908985963235
-0.15470000000000006,-7.7653503249591855
-0.15570000000000017,-7.722908985963235
-0.15670000000000006,-7.722908985963235
-0.15770000000000017,-7.679052935667419
-0.15870000000000006,-7.679052935667419
-0.15970000000000018,-7.679052935667419
-0.16070000000000007,-7.679052935667419
-0.16170000000000018,-7.722908985963235
-0.16270000000000007,-7.722908985963235
-0.16370000000000018,-7.7653503249591855
-0.16470000000000007,-7.7653503249591855
-0.16570000000000018,-7.809206375255003
-0.16670000000000007,-7.809206375255003
-0.16770000000000018,-7.809206375255003
-0.16870000000000007,-7.809206375255003
-0.16970000000000018,-7.809206375255003
-0.17070000000000007,-7.809206375255003
-0.17170000000000019,-7.809206375255003
-0.17270000000000008,-7.809206375255003
-0.1737000000000002,-7.853062425550818
-0.17470000000000008,-7.896918475846635
-0.1757000000000002,-7.896918475846635
-0.17670000000000008,-7.896918475846635
-0.1777000000000002,-7.940774526142452
-0.17870000000000008,-7.940774526142452
-0.1797000000000002,-7.940774526142452
-0.18070000000000008,-7.940774526142452
-0.1817000000000002,-7.940774526142452
-0.18270000000000008,-7.940774526142452
-0.1837000000000002,-7.940774526142452
-0.1847000000000001,-7.984630576438266
-0.1857000000000002,-7.984630576438266
-0.1867000000000001,-8.027071915434218
-0.1877000000000002,-8.070927965730034
-0.1887000000000001,-8.070927965730034
-0.1897000000000002,-8.11478401602585
-0.1907000000000001,-8.11478401602585
-0.1917000000000001,-8.11478401602585
-0.19269999999999998,-8.11478401602585
-0.1937000000000001,-8.11478401602585
-0.19469999999999998,-8.11478401602585
-0.1957000000000001,-8.11478401602585
-0.19669999999999999,-8.158640066321666
-0.1977000000000001,-8.158640066321666
-0.1987,-8.246352166913299
-0.1997000000000001,-8.246352166913299
-0.2007,-8.288793505909249
-0.2017000000000001,-8.332649556205066
-0.2027,-8.288793505909249
-0.2037000000000001,-8.332649556205066
-0.2047,-8.332649556205066
-0.2057000000000001,-8.376505606500881
-0.2067,-8.376505606500881
-0.2077000000000001,-8.376505606500881
-0.2087,-8.4203616567967
-0.2097000000000001,-8.464217707092514
-0.2107,-8.508073757388331
-0.2117000000000001,-8.508073757388331
-0.2127,-8.55051509638428
-0.2137000000000001,-8.55051509638428
-0.2147,-8.594371146680096
-0.2157000000000001,-8.594371146680096
-0.2167,-8.594371146680096
-0.21770000000000012,-8.638227196975913
-0.2187,-8.638227196975913
-0.21970000000000012,-8.68208324727173
-0.2207,-8.725939297567548
-0.22170000000000012,-8.769795347863363
-0.2227,-8.812236686859313
-0.22370000000000012,-8.85609273715513
-0.2247,-8.899948787450944
-0.22570000000000012,-8.85609273715513
-0.2267,-8.899948787450944
-0.22770000000000012,-8.899948787450944
-0.22870000000000001,-8.899948787450944
-0.22970000000000013,-8.943804837746763
-0.23070000000000002,-8.943804837746763
-0.23170000000000013,-9.031516938338395
-0.23270000000000002,-9.031516938338395
-0.23370000000000013,-9.11781432763016
-0.23470000000000002,-9.161670377925978
-0.23570000000000013,-9.205526428221793
-0.23670000000000002,-9.24938247851761
-0.2376999999999999,-9.24938247851761
-0.23870000000000002,-9.293238528813426
-0.2396999999999999,-9.293238528813426
-0.24070000000000003,-9.335679867809377
-0.24169999999999991,-9.379535918105192
-0.24270000000000003,-9.423391968401008
-0.24369999999999992,-9.511104068992642
-0.24470000000000003,-9.55496011928846
-0.24569999999999992,-9.59740145828441
-0.24670000000000003,-9.641257508580225
-0.24769999999999992,-9.685113558876042
-0.24870000000000003,-9.728969609171857
-0.24969999999999992,-9.772825659467674
-0.25070000000000003,-9.772825659467674
-0.2516999999999999,-9.81668170976349
-0.25270000000000004,-9.85912304875944
-0.2536999999999999,-9.902979099055257
-0.25470000000000004,-9.99069119964689
-0.2556999999999999,-10.034547249942705
-0.25670000000000004,-10.120844639234473
-0.25769999999999993,-10.164700689530287
-0.25870000000000004,-10.25241279012192
-0.25969999999999993,-10.340124890713554
-0.26070000000000004,-10.382566229709504
-0.26169999999999993,-10.42642228000532
-0.26270000000000004,-10.470278330301136
-0.26369999999999993,-10.514134380596953
-0.26470000000000005,-10.557990430892769
-0.26569999999999994,-10.601846481188586
-0.26670000000000005,-10.688143870480351
-0.26769999999999994,-10.775855971071984
-0.26870000000000005,-10.863568071663616
-0.26969999999999994,-10.949865460955383
-0.27070000000000005,-11.037577561547016
-0.27169999999999994,-11.123874950838783
-0.27270000000000005,-11.211587051430415
-0.27369999999999994,-11.255443101726232
-0.27470000000000006,-11.299299152022046
-0.27569999999999995,-11.385596541313816
-0.27670000000000006,-11.42945259160963
-0.27769999999999995,-11.517164692201263
-0.27870000000000006,-11.647318131788847
-0.27969999999999995,-11.73503023238048
-0.28070000000000006,-11.86659838326793
-0.28169999999999995,-11.909039722263879
-0.28270000000000006,-11.996751822855511
-0.28369999999999995,-12.12831997374296
-0.28470000000000006,-12.170761312738911
-0.28569999999999995,-12.258473413330542
-0.28670000000000007,-12.302329463626359
-0.28769999999999996,-12.390041564217992
-0.28870000000000007,-12.476338953509758
-0.28969999999999996,-12.607907104397206
-0.29070000000000007,-12.694204493688973
-0.29169999999999996,-12.825772644576423
-0.29270000000000007,-12.955926084164007
-0.29369999999999996,-13.043638184755638
-0.2947000000000001,-13.217647674639037
-0.29569999999999996,-13.261503724934855
-0.2967000000000001,-13.3930718758223
-0.29769999999999996,-13.47936926511407
-0.2987000000000001,-13.567081365705702
-0.29969999999999997,-13.698649516593148
-0.3007000000000001,-13.784946905884919
-0.30169999999999997,-13.916515056772363
-0.3027000000000001,-14.046668496359947
-0.30369999999999997,-14.175407224647667
-0.3047000000000001,-14.345172580631472
-0.30569999999999997,-14.486643710617974
-0.3067000000000001,-14.61396772760583
-0.3077,-14.741291744593681
-0.3087000000000001,-14.868615761581536
-0.3097,-14.967645552572087
-0.3107000000000001,-15.094969569559943
-0.3117,-15.264734925543747
-0.3127000000000001,-15.3920589425316
-0.3137,-15.575971411514052
-0.3147000000000001,-15.70329542850191
-0.3157,-15.87306078448571
-0.3167000000000001,-16.014531914472215
-0.3177,-16.184297270456018
-0.3187000000000001,-16.354062626439823
-0.3197,-16.53797509542228
-0.3207000000000001,-16.665299112410132
-0.3217,-16.792623129397985
-0.3227000000000001,-16.962388485381787
-0.3237,-17.146300954364243
-0.3247000000000001,-17.316066310348052
-0.3257,-17.48583166633185
-0.3267000000000001,-17.669744135314307
-0.3277,-17.839509491298113
-0.3287000000000001,-18.06586329927652
-0.3297,-18.27806999425627
-0.3307000000000001,-18.44783535024008
-0.3317,-18.631747819222536
-0.3327000000000001,-18.80151317520634
-0.3337,-18.97127853119014
-0.3347000000000001,-19.197632339168546
-0.3357,-19.367397695152352
-0.3367000000000001,-19.579604390132108
-0.3377,-19.805958198110513
-0.3387000000000001,-20.01816489309027
-0.3397,-20.286960040064624
-0.3407000000000001,-20.456725396048434
-0.3417,-20.683079204026836
-0.3427000000000001,-20.85284456001064
-0.3437,-21.065051254990397
-0.3447000000000001,-21.291405062968803
-0.3457,-21.503611757948562
-0.3467000000000001,-21.729965565926964
-0.3477,-21.94217226090672
-0.3487000000000001,-22.196820294882425
-0.3497,-22.42317410286083
-0.3507000000000001,-22.67782213683654
-0.3517,-22.946617283810895
-0.3527000000000001,-23.15882397879065
-0.3537,-23.427619125765005
-0.3547000000000001,-23.639825820744765
-0.3557,-23.908620967719123
-0.35670000000000013,-24.120827662698876
-0.3577,-24.389622809673234
-0.35870000000000013,-24.64427084364894
-0.3597,-24.9130659906233
-0.36070000000000013,-25.167714024599
-0.3617,-25.43650917157336
-0.3626999999999999,-25.73359854454502
-0.3637,-26.044835030515326
-0.3646999999999999,-26.34192440348698
-0.3657,-26.568278211465387
-0.3666999999999999,-26.822926245441096
-0.3677,-27.091721392415455
-0.3686999999999999,-27.34636942639116
-0.36970000000000003,-27.700047251357418
-0.3706999999999999,-27.954695285333123
-0.37170000000000003,-28.265931771303435
-0.3726999999999999,-28.53472691827779
-0.37370000000000003,-28.8742576302454
-0.3746999999999999,-29.18549411621571
-0.37570000000000003,-29.482583489187363
-0.3766999999999999,-29.836261314153624
-0.37770000000000004,-30.10505646112798
-0.3786999999999999,-30.402145834099635
-0.37970000000000004,-30.71338232006995
-0.3806999999999999,-31.010471693041605
-0.38170000000000004,-31.36414951800786
-0.38269999999999993,-31.717827342974125
-0.38370000000000004,-32.09979939393769
-0.38469999999999993,-32.41103587990799
-0.38570000000000004,-32.764713704874254
-0.38669999999999993,-33.10424441684186
-0.38770000000000004,-33.45792224180811
-0.38869999999999993,-33.81160006677438
-0.38970000000000005,-34.15113077874198
-0.39069999999999994,-34.462367264712285
-0.39170000000000005,-34.75945663768395
-0.39269999999999994,-35.11313446265021
-0.39370000000000005,-35.46681228761647
-0.39469999999999994,-35.848784338580025
-0.39570000000000005,-36.244903502542236
-0.39669999999999994,-36.64102266650445
-0.39770000000000005,-36.99470049147071
-0.39869999999999994,-37.376672542434264
-0.39970000000000006,-37.77279170639648
-0.40069999999999995,-38.12646953136274
-0.40170000000000006,-38.46600024333035
-0.40269999999999995,-38.81967806829661
-0.40370000000000006,-39.21579723225882
-0.40469999999999995,-39.56947505722508
-0.40570000000000006,-39.90900576919269
-0.40669999999999995,-40.34756627215084
-0.40770000000000006,-40.743685436113054
-0.40869999999999995,-41.139804600075266
-0.40970000000000006,-41.56421799003478
-0.41069999999999995,-41.96033715399699
-0.41170000000000007,-42.39889765695515
-0.41269999999999996,-42.752575481921404
-0.41370000000000007,-43.134547532884966
-0.41469999999999996,-43.48822535785123
-0.41570000000000007,-43.88434452181344
-0.41669999999999996,-44.28046368577565
-0.41770000000000007,-44.66243573673921
-0.41869999999999996,-45.143437578693316
-0.4197000000000001,-45.581998081651484
-0.42069999999999996,-46.02055858460964
-0.4217000000000001,-46.45911908756781
-0.42269999999999996,-46.88353247752732
-0.4237000000000001,-47.27965164148953
-0.42469999999999997,-47.71821214444768
-0.4257000000000001,-48.071889969413945
-0.42669999999999997,-48.45386202037751
-0.4277000000000001,-48.93486386233162
-0.42869999999999997,-49.41586570428573
-0.4297000000000001,-49.85442620724389
-0.43069999999999997,-50.335428049198
-0.4317000000000001,-50.81642989115212
-0.4327,-51.29743173310623
-0.4337000000000001,-51.73599223606439
-0.4347,-52.2169940780185
-0.4357000000000001,-52.64140746797801
-0.4367,-53.12240930993213
-0.4377000000000001,-53.518528473894335
-0.4387,-53.999530315848446
-0.4397000000000001,-54.480532157802564
-0.4407,-54.961533999756675
-0.4417000000000001,-55.484977180706736
-0.4427,-55.96597902266086
-0.4437000000000001,-56.489422203610914
-0.4447,-56.97042404556503
-0.4457000000000001,-57.53630856551105
-0.4467,-58.05975174646111
-0.4477000000000001,-58.498312249419264
-0.4487,-58.97931409137338
-0.4497000000000001,-59.403727481332886
-0.4507,-59.884729323287
-0.4517000000000001,-60.36573116524111
-0.4527,-60.889174346191176
-0.4537000000000001,-61.412617527141244
-0.4547,-61.936060708091304
-0.4557000000000001,-62.459503889041365
-0.4567,-62.98294706999144
-0.4577000000000001,-63.5063902509415
-0.4587,-63.98739209289561
-0.4597000000000001,-64.51083527384567
-0.4607,-64.94939577680383
-0.4617000000000001,-65.43039761875795
-0.4627,-65.95384079970802
-0.4637000000000001,-66.47728398065809
-0.4647,-67.04316850060408
-0.4657000000000001,-67.52417034255821
-0.4667,-68.0900548625042
-0.4677000000000001,-68.65593938245023
-0.4687,-69.22182390239624
-0.4697000000000001,-69.78770842234226
-0.4707,-70.26871026429637
-0.4717000000000001,-70.79215344524643
-0.4727,-71.27315528720055
-0.4737000000000001,-71.7965984681506
-0.4747,-72.32004164910067
-0.4757000000000001,-72.84348483005074
-0.4767,-73.40936934999675
-0.4777000000000001,-73.93281253094682
-0.4787,-74.49869705089283
-0.4797000000000001,-75.1070229098348
-0.4807,-75.71534876877676
-0.48170000000000013,-76.29538040172143
-0.4827,-76.7622351306769
-0.48370000000000013,-77.34226676362155
-0.4847,-77.86570994457162
-0.48570000000000013,-78.43159446451764
-0.4867,-78.29012333453113
-0.48570000000000013,-77.11591295564315
-0.4847,-76.11146793273898
-0.48370000000000013,-75.14946424883075
-0.4827,-74.32893169490903
-0.48170000000000013,-73.53669336698461
-0.4807,-72.80104349105478
-0.4797000000000001,-72.10783495412092
-0.4787,-71.31559662619651
-0.4777000000000001,-70.57994675026669
-0.4767,-69.87259110033416
-0.4757000000000001,-69.1793825634003
-0.4747,-68.52861536546239
-0.4737000000000001,-67.82125971552985
-0.4727,-67.128051178596
-0.4717000000000001,-66.47728398065809
-0.4707,-65.82651678272015
-0.4697000000000001,-65.16160247178358
-0.4687,-64.55327661284163
-0.4677000000000001,-63.902509414903705
-0.4667,-63.251742216965795
-0.4657000000000001,-62.544386567033264
-0.4647,-61.89361936909536
-0.4637000000000001,-61.242852171157445
-0.4627,-60.63452631221547
-0.4617000000000001,-60.02620045327351
-0.4607,-59.36128614233694
