Potential V vs RHE, Current mA cm-2
0.013299999999999867,20.272812927065978
0.012299999999999978,18.40539401124413
0.011299999999999866,16.665299112410132
0.010299999999999976,14.868615761581536
0.009299999999999864,13.127106151447675
0.008299999999999974,11.295055018122452
0.007299999999999862,9.506859935093045
0.006299999999999972,7.804962241355407
0.00529999999999986,6.278488748801033
0.0042999999999999705,4.839727356838291
0.0032999999999998586,3.4434073038714996
0.0022999999999999687,2.004645911908757
0.0012999999999998568,0.5211796428702795
0.00029999999999996696,-1.0054353208140816
-0.000700000000000145,-2.532333226758415
-0.0017000000000000348,-4.014950669016974
-0.0027000000000001467,-5.367414671687949
-0.0037000000000000366,-6.632166573767292
-0.0047000000000001485,-7.853062425550818
-0.005700000000000038,-9.073958277334345
-0.00670000000000015,-10.340124890713554
-0.00770000000000004,-11.691174182084664
-0.008700000000000152,-13.087494235051453
-0.009700000000000042,-14.401761032626075
-0.010700000000000154,-15.70329542850191
-0.011700000000000044,-16.835064468393938
-0.012700000000000156,-17.924392169290012
-0.013700000000000045,-19.01371987018609
-0.014700000000000157,-20.10304757108217
-0.015700000000000047,-21.291405062968803
-0.01670000000000016,-22.550498119848687
-0.01770000000000005,-23.823738289727217
-0.01870000000000016,-24.997948668615198
-0.01970000000000005,-26.044835030515326
-0.020700000000000163,-27.091721392415455
-0.021700000000000053,-28.011283737327723
-0.022700000000000164,-29.001581647233255
-0.023700000000000054,-30.10505646112798
-0.024700000000000166,-31.23682550102001
-0.025700000000000056,-32.41103587990799
-0.026700000000000168,-33.50036358080407
-0.027700000000000058,-34.5472499427042
-0.02870000000000017,-35.46681228761647
-0.02970000000000006,-36.329786180534136
-0.03070000000000017,-37.291789864442364
-0.03170000000000006,-38.253793548350586
-0.03270000000000017,-39.258238571254765
-0.03370000000000006,-40.34756627215084
-0.034700000000000175,-41.43689397304693
-0.035700000000000065,-42.39889765695515
-0.03670000000000018,-43.31846000186743
-0.03770000000000007,-44.181433894785094
-0.03870000000000018,-45.01611356170547
-0.03970000000000007,-45.89323456762179
-0.04070000000000018,-46.84109113853137
-0.04170000000000007,-47.8879775004315
-0.04270000000000018,-48.89242252333566
-0.04370000000000007,-49.89686754623985
-0.044700000000000184,-50.77398855215617
-0.045700000000000074,-51.594521106077885
-0.046700000000000186,-52.34431809500636
-0.047700000000000076,-53.12240930993213
-0.04870000000000019,-54.0419716548444
-0.04970000000000008,-55.003975338752625
-0.05070000000000019,-56.008420361656796
-0.05170000000000008,-56.97042404556503
-0.05270000000000019,-57.87583927747865
-0.05370000000000008,-58.66807760540307
-0.05470000000000019,-59.403727481332886
-0.05570000000000008,-60.19596580925731
-0.056700000000000195,-60.974057024183075
-0.057700000000000085,-61.89361936909536
-0.058700000000000196,-62.855623053003576
-0.059700000000000086,-63.81762673691181
-0.0607000000000002,-64.72304196882543
-0.06170000000000009,-65.51528029674984
-0.0627000000000002,-66.29337151167562
-0.06370000000000009,-67.04316850060408
-0.0647000000000002,-67.86370105452582
-0.06570000000000009,-68.74082206044213
-0.0667000000000002,-69.6603844053544
-0.0677000000000001,-70.62238808926263
-0.0687000000000002,-71.52780332117625
-0.0697000000000001,-72.32004164910067
-0.07070000000000021,-73.09813286402644
-0.0717000000000001,-73.80548851395896
-0.07270000000000021,-74.58357972888473
-0.0737000000000001,-75.4182593958051
-0.07470000000000021,-76.33782174071737
-0.0757000000000001,-77.28567831162695
-0.07670000000000021,-78.16279931754329
-0.0777000000000001,-79.0399203234596
-0.07870000000000021,-79.7755701993894
-0.0797000000000001,-80.46877873632329
-0.08070000000000022,-81.21857572525175
-0.0817000000000001,-81.99666694017753
-0.08270000000000022,-82.87378794609386
-0.08370000000000011,-83.83579163000208
-0.08470000000000022,-84.7129126359184
-0.08570000000000011,-85.57588652883607
-0.08670000000000022,-86.36812485676049
-0.08770000000000011,-87.10377473269031
-0.08870000000000022,-87.79698326962418
-0.08970000000000011,-88.5892215975486
-0.09070000000000022,-89.42390126446898
-0.09170000000000011,-90.37175783537855
-0.09270000000000023,-91.33376151928677
-0.09370000000000012,-92.25332386419905
-0.09470000000000023,-93.03141507912481
-0.09570000000000012,-93.82365340704924
-0.09670000000000023,-94.55930328297906
-0.09770000000000012,-95.30910027190752
-0.09870000000000023,-96.17207416482519
-0.09970000000000012,-97.09163650973747
-0.10070000000000023,-98.01119885464975
-0.10170000000000012,-98.93076119956201
-0.10270000000000024,-99.75129375348374
-0.10370000000000013,-100.45864940341626
-0.10470000000000024,-101.19429927934607
-0.10570000000000013,-101.88750781627995
-0.10670000000000024,-102.67974614420436
-0.10770000000000013,-103.54272003712204
-0.10870000000000024,-104.46228238203432
-0.10970000000000013,-105.42428606594254
-0.11070000000000024,-106.2589657328629
-0.11170000000000013,-106.99461560879273
-0.11270000000000002,-107.73026548472255
-0.11370000000000013,-108.39517979565912
-0.11470000000000002,-109.17327101058488
-0.11570000000000014,-110.05039201650122
-0.11670000000000003,-110.92751302241753
-0.11770000000000014,-111.83292825433115
-0.11870000000000003,-112.71004926024747
-0.11970000000000014,-113.48814047517324
-0.12070000000000003,-114.19549612510575
-0.12170000000000014,-114.84626332304367
-0.12270000000000003,-115.5819131989735
-0.12370000000000014,-116.37415152689792
-0.12470000000000003,-117.25127253281424
-0.12570000000000014,-118.15668776472786
-0.12670000000000003,-119.03380877064419
-0.12770000000000015,-119.81189998556997
-0.12870000000000004,-120.56169697449842
-0.12970000000000015,-121.17002283344038
-0.13070000000000004,-121.86323137037427
-0.13170000000000015,-122.65546969829869
-0.13270000000000004,-123.4760022522204
-0.13370000000000015,-124.39556459713268
-0.13470000000000004,-125.272685603049
-0.13570000000000015,-126.05077681797478
-0.13670000000000004,-126.75813246790726
-0.13770000000000016,-127.36645832684925
-0.13870000000000005,-128.01722552478716
-0.13970000000000016,-128.752875400717
-0.14070000000000005,-129.58755506763737
-0.14170000000000016,-130.42223473455772
-0.14270000000000005,-131.32764996647134
-0.14370000000000016,-132.16232963339172
-0.14470000000000005,-132.89797950932152
-0.14570000000000016,-133.60533515925405
-0.14670000000000005,-134.256102357192
-0.14770000000000016,-134.94931089412586
-0.14870000000000005,-135.74154922205025
-0.14970000000000017,-136.562081775972
-0.15070000000000006,-137.48164412088425
-0.15170000000000017,-138.3587651268006
-0.15270000000000006,-139.1792976807223
-0.15370000000000017,-139.8866533306548
-0.15470000000000006,-140.53742052859275
-0.15570000000000017,-141.27307040452254
-0.15670000000000006,-142.03701450644968
-0.15770000000000017,-142.8858412863687
-0.15870000000000006,-143.87613919627424
-0.15970000000000018,-144.58349484620675
-0.16070000000000007,-145.43232162612577
-0.16170000000000018,-146.1396772760583
-0.16270000000000007,-146.8470329259908
-0.16370000000000018,-147.4129174459368
-0.16470000000000007,-148.26174422585584
-0.16570000000000018,-149.1105710057749
-0.16670000000000007,-149.8179266557074
-0.16770000000000018,-150.66675343562642
-0.16870000000000007,-151.65705134553193
-0.16970000000000018,-152.50587812545095
-0.17070000000000007,-153.07176264539694
-0.17170000000000019,-153.77911829532948
-0.17270000000000008,-154.203531685289
-0.1737000000000002,-154.9108873352215
-0.17470000000000008,-155.47677185516753
-0.1757000000000002,-156.18412750510007
-0.17670000000000008,-156.89148315503257
-0.1777000000000002,-157.45736767497857
-0.17870000000000008,-157.88178106493808
-0.1797000000000002,-158.5891367148706
-0.18070000000000008,-159.29649236480313
-0.1817000000000002,-160.00384801473567
-0.18270000000000008,-160.71120366466818
-0.1837000000000002,-161.41855931460069
-0.1847000000000001,-162.12591496453322
-0.1857000000000002,-162.97474174445222
-0.1867000000000001,-163.54062626439824
-0.1877000000000002,-164.24798191433075
-0.1887000000000001,-164.81386643427678
-0.1897000000000002,-165.3797509542228
-0.1907000000000001,-166.22857773414182
-0.1917000000000001,-166.93593338407433
-0.19269999999999998,-167.78476016399335
-0.1937000000000001,-168.63358694391238
-0.19469999999999998,-169.3409425938449
-0.1957000000000001,-170.0482982437774
-0.19669999999999999,-170.61418276372342
-0.1977000000000001,-171.18006728366944
-0.1987,-172.0288940635885
-0.1997000000000001,-172.87772084350746
-0.2007,-173.72654762342648
-0.2017000000000001,-174.57537440334553
-0.2027,-175.28273005327804
-0.2037000000000001,-175.99008570321055
-0.2047,-176.55597022315658
-0.2057000000000001,-177.2633258730891
-0.2067,-177.9706815230216
-0.2077000000000001,-178.67803717295413
-0.2087,-179.52686395287316
-0.2097000000000001,-180.23421960280567
-0.2107,-181.08304638272472
-0.2117000000000001,-181.64893090267074
-0.2127,-182.21481542261674
-0.2137000000000001,-182.78069994256273
-0.2147,-183.48805559249527
-0.2157000000000001,-184.33688237241427
-0.2167,-185.1857091523333
-0.21770000000000012,-186.03453593225234
-0.2187,-186.74189158218485
-0.21970000000000012,-187.44924723211736
-0.2207,-188.01513175206335
-0.22170000000000012,-188.58101627200938
-0.2227,-189.2883719219419
-0.22370000000000012,-189.99572757187443
-0.2247,-190.84455435179345
-0.22570000000000012,-191.69338113171247
-0.2267,-192.54220791163152
-0.22770000000000012,-193.3910346915505
-0.22870000000000001,-194.09839034148303
-0.22970000000000013,-194.80574599141553
-0.23070000000000002,-195.51310164134807
-0.23170000000000013,-196.2204572912806
-0.23270000000000002,-197.0692840711996
-0.23370000000000013,-197.91811085111863
-0.23470000000000002,-198.76693763103765
-0.23570000000000013,-199.47429328097016
-0.23670000000000002,-200.04017780091618
-0.2376999999999999,-200.7475334508487
-0.23870000000000002,-201.31341797079472
-0.2396999999999999,-201.87930249074074
-0.24070000000000003,-202.58665814067325
-0.24169999999999991,-203.43548492059227
-0.24270000000000003,-204.14284057052478
-0.24369999999999992,-204.9916673504438
-0.24470000000000003,-205.69902300037634
-0.24569999999999992,-206.26490752032234
-0.24670000000000003,-206.97226317025488
-0.24769999999999992,-207.5381476902009
-0.24870000000000003,-208.3869744701199
-0.24969999999999992,-209.0943301200524
-0.25070000000000003,-209.94315689997146
-0.2516999999999999,-210.79198367989048
-0.25270000000000004,-211.35786819983647
-0.2536999999999999,-212.065223849769
-0.25470000000000004,-212.77257949970152
-0.2556999999999999,-213.33846401964755
-0.25670000000000004,-214.04581966958003
-0.25769999999999993,-214.89464644949908
-0.25870000000000004,-215.7434732294181
-0.25969999999999993,-216.59230000933712
-0.26070000000000004,-217.44112678925615
-0.26169999999999993,-218.00701130920217
-0.26270000000000004,-218.71436695913465
-0.26369999999999993,-219.28025147908068
-0.26470000000000005,-219.98760712901318
-0.26569999999999994,-220.83643390893224
-0.26670000000000005,-221.68526068885126
-0.26769999999999994,-222.53408746877028
-0.26870000000000005,-223.38291424868927
-0.26969999999999994,-224.09026989862178
-0.27070000000000005,-224.79762554855435
-0.27169999999999994,-225.50498119848683
-0.27270000000000005,-226.21233684841937
-0.27369999999999994,-227.06116362833836
-0.27470000000000006,-227.9099904082574
-0.27569999999999995,-228.90028831816295
-0.27670000000000006,-229.74911509808197
-0.27769999999999995,-230.45647074801445
-0.27870000000000006,-231.163826397947
-0.27969999999999995,-231.729710917893
-0.28070000000000006,-232.43706656782552
-0.28169999999999995,-233.1444222177581
-0.28270000000000006,-233.85177786769057
-0.28369999999999995,-234.84207577759608
-0.28470000000000006,-235.69090255751513
-0.28569999999999995,-236.53972933743412
-0.28670000000000007,-237.38855611735315
-0.28769999999999996,-237.9544406372992
-0.28870000000000007,-238.66179628723168
-0.28969999999999996,-239.36915193716422
-0.29070000000000007,-240.21797871708318
-0.29169999999999996,-240.92533436701575
-0.29270000000000007,-241.9156322769213
-0.29369999999999996,-242.62298792685377
-0.2947000000000001,-243.3303435767863
-0.29569999999999996,-244.03769922671884
-0.2967000000000001,-244.74505487665132
-0.29769999999999996,-245.59388165657037
-0.2987000000000001,-246.4427084364894
-0.29969999999999997,-247.2915352164084
-0.3007000000000001,-248.28183312631393
-0.30169999999999997,-249.2721310362195
-0.3027000000000001,-250.1209578161385
-0.30369999999999997,-250.9697845960575
-0.3047000000000001,-251.67714024599002
-0.30569999999999997,-252.38449589592256
-0.3067000000000001,-253.23332267584152
-0.3077,-254.2236205857471
-0.3087000000000001,-255.21391849565262
-0.3097,-256.0627452755717
-0.3107000000000001,-257.0530431854772
-0.3117,-257.90186996539614
-0.3127000000000001,-258.60922561532874
-0.3137,-259.4580523952477
-0.3147000000000001,-260.16540804518024
-0.3157,-261.1557059550858
-0.3167000000000001,-262.0045327350048
-0.3177,-262.9948306449103
-0.3187000000000001,-263.98512855481584
-0.3197,-264.83395533473487
-0.3207000000000001,-265.5413109846674
-0.3217,-266.3901377645864
-0.3227000000000001,-267.09749341451896
-0.3237,-268.0877913244245
-0.3247000000000001,-269.07808923433
-0.3257,-270.0683871442355
-0.3267000000000001,-271.05868505414105
-0.3277,-271.9075118340601
-0.3287000000000001,-272.7563386139791
-0.3297,-273.4636942639116
-0.3307000000000001,-274.31252104383066
-0.3317,-275.1613478237496
-0.3327000000000001,-276.15164573365513
-0.3337,-277.1419436435607
-0.3347000000000001,-278.2737126834527
-0.3357,-279.26401059335825
-0.3367000000000001,-280.11283737327733
-0.3377,-280.9616641531963
-0.3387000000000001,-281.9519620631018
-0.3397,-282.65931771303434
-0.3407000000000001,-283.64961562293985
-0.3417,-284.7813846628319
-0.3427000000000001,-285.7716825727374
-0.3437,-286.76198048264297
-0.3447000000000001,-287.610807262562
-0.3457,-288.45963404248096
-0.3467000000000001,-289.1669896924135
-0.3477,-290.0158164723325
-0.3487000000000001,-290.86464325225154
-0.3497,-291.9964122921436
-0.3507000000000001,-292.9867102020491
-0.3517,-293.9770081119546
-0.3527000000000001,-294.96730602186017
-0.3537,-295.8161328017792
-0.3547000000000001,-296.6649595816982
-0.3557,-297.51378636161724
-0.35670000000000013,-298.50408427152274
-0.3577,-299.49438218142825
-0.35870000000000013,-300.6261512213203
-0.3597,-301.6164491312258
-0.36070000000000013,-302.6067470411313
-0.3617,-303.4555738210504
-0.3626999999999999,-304.3044006009694
-0.3637,-305.1532273808884
-0.3646999999999999,-306.1435252907939
-0.3657,-307.1338232006995
-0.3666999999999999,-308.407063370578
-0.3677,-309.53883241047004
-0.3686999999999999,-310.6706014503621
-0.36970000000000003,-311.80237049025413
-0.3706999999999999,-312.79266840015964
-0.37170000000000003,-313.78296631006515
-0.3726999999999999,-314.91473534995714
-0.37370000000000003,-316.04650438984913
-0.3746999999999999,-317.1782734297412
-0.37570000000000003,-318.4515135996198
-0.3766999999999999,-319.58328263951176
-0.37770000000000004,-320.71505167940376
-0.3786999999999999,-321.7053495893094
-0.37970000000000004,-322.5541763692284
-0.3806999999999999,-323.5444742791339
-0.38170000000000004,-324.5347721890394
-0.38269999999999993,-325.80801235891795
-0.38370000000000004,-327.0812525287965
-0.38469999999999993,-328.2130215686885
-0.38570000000000004,-329.3447906085805
-0.38669999999999993,-329.0618483486075
-0.38570000000000004,-325.94948348890443
-0.38469999999999993,-322.83711862920137
-0.38370000000000004,-320.00769602947133
-0.38269999999999993,-317.46121568971427
-0.38170000000000004,-314.91473534995714
-0.3806999999999999,-312.36825501020013
-0.37970000000000004,-309.6803035404565
-0.3786999999999999,-307.1338232006995
-0.37770000000000004,-304.4458717309559
-0.3766999999999999,-301.8993913911989
-0.37570000000000003,-299.2114399214552
-0.3746999999999999,-296.6649595816982
-0.37370000000000003,-294.11847924194115
-0.3726999999999999,-291.4305277721976
-0.37170000000000003,-288.8840474324405
-0.3706999999999999,-286.196095962697
-0.36970000000000003,-283.64961562293985
-0.3686999999999999,-280.9616641531963
-0.3677,-278.4151838134392
-0.3666999999999999,-275.86870347368216
-0.3657,-273.4636942639116
-0.3646999999999999,-271.05868505414105
-0.3637,-268.79514697435695
-0.3626999999999999,-266.3901377645864
-0.3617,-263.84365742482936
-0.36070000000000013,-261.4386482150588
-0.3597,-258.8921678753017
-0.35870000000000013,-256.4871586655312
-0.3577,-254.08214945576057
-0.35670000000000013,-251.67714024599002
-0.3557,-249.41360216620598
-0.3547000000000001,-247.1500640864219
-0.3537,-244.74505487665132
-0.3527000000000001,-242.34004566688077
-0.3517,-239.93503645711021
-0.3507000000000001,-237.38855611735315
-0.3497,-235.12501803756908
-0.3487000000000001,-232.86147995778504
-0.3477,-230.7394130079875
-0.3467000000000001,-228.61734605818995
-0.3457,-226.35380797840588
-0.3447000000000001,-224.09026989862178
-0.3437,-221.68526068885126
-0.3427000000000001,-219.28025147908068
-0.3417,-216.73377113932364
-0.3407000000000001,-214.61170418952605
-0.3397,-212.34816610974204
-0.3387000000000001,-210.22609915994445
-0.3377,-208.1040322101469
-0.3367000000000001,-205.84049413036286
-0.3357,-203.43548492059227
-0.3347000000000001,-201.03047571082172
-0.3337,-198.76693763103765
-0.3327000000000001,-196.6448706812401
-0.3317,-194.66427486142905
-0.3307000000000001,-192.683679041618
-0.3297,-190.56161209182042
-0.3287000000000001,-188.4395451420229
-0.3277,-186.17600706223882
-0.3267000000000001,-183.91246898245475
-0.3257,-181.64893090267074
-0.3247000000000001,-179.52686395287316
-0.3237,-177.54626813306209
-0.3227000000000001,-175.56567231325104
-0.3217,-173.58507649344
-0.3207000000000001,-171.60448067362896
-0.3197,-169.48241372383137
-0.3187000000000001,-167.21887564404733
-0.3177,-165.09680869424977
-0.3167000000000001,-162.97474174445222
-0.3157,-160.99414592464117
-0.3147000000000001,-159.15502123481662
-0.3137,-157.17442541500557
-0.3127000000000001,-155.05235846520802
-0.3117,-153.07176264539694
-0.3107000000000001,-150.8082245656129
-0.3097,-148.68615761581535
-0.3087000000000001,-146.7055617960043
-0.3077,-144.72496597619326
-0.3067000000000001,-142.7443701563822
-0.30569999999999997,-140.84865701456303
-0.3047000000000001,-138.92464964674662
-0.30369999999999997,-136.91575960093826
-0.3027000000000001,-134.86442821613394
-0.30169999999999997,-132.7706554923337
-0.3007000000000001,-130.7193241075294
-0.29969999999999997,-128.8094638527116
-0.2987000000000001,-126.97033916288706
-0.29769999999999996,-125.18780292505707
-0.2967000000000001,-123.39111957422851
-0.29569999999999996,-121.48125931941068
-0.2947000000000001,-119.51481061259831
-0.29369999999999996,-117.46347922779398
-0.29270000000000007,-115.45458918198564
-0.29169999999999996,-113.53058181416918
-0.29070000000000007,-111.74804557633925
-0.28969999999999996,-109.9655093385093
-0.28870000000000007,-108.1688259876807
-0.28769999999999996,-106.38628974985076
-0.28670000000000007,-104.46228238203432
-0.28569999999999995,-102.5524221272165
-0.28470000000000006,-100.58597342040412
-0.28369999999999995,-98.7044073915836
-0.28270000000000006,-96.92187115375367
-0.28169999999999995,-95.22421759391563
-0.28070000000000006,-93.55485826007487
-0.27969999999999995,-91.81476336124088
-0.27870000000000006,-89.98978578441499
-0.27769999999999995,-88.10821975559449
-0.27670000000000006,-86.22665372677399
-0.27569999999999995,-84.35923481095215
-0.27470000000000006,-82.6615812511141
-0.27369999999999994,-80.9497805782774
-0.27270000000000005,-79.2945683574353
-0.27169999999999994,-77.63935613659322
-0.27070000000000005,-75.94170257675518
-0.26969999999999994,-74.20160767792116
-0.26870000000000005,-72.40492432709259
-0.26769999999999994,-70.62238808926263
