Potential V vs RHE, Current mA cm-2
0.013299999999999867,18.617600706223882
0.012299999999999978,16.56626932141958
0.011299999999999866,14.61396772760583
0.010299999999999976,12.77767246038101
0.009299999999999864,11.033333427647422
0.008299999999999974,9.419147834501414
0.007299999999999862,7.804962241355407
0.006299999999999972,6.1907766482094
0.00529999999999986,4.534149716067443
0.0042999999999999705,2.8761080726256196
0.0032999999999998586,1.2626298351295453
0.0022999999999999687,-0.3947044526623452
0.0012999999999998568,-1.9650339955125358
0.00029999999999996696,-3.447651437771094
-0.000700000000000145,-4.843971490737885
-0.0017000000000000348,-6.196435493408861
-0.0027000000000001467,-7.5474847847799715
-0.0037000000000000366,-8.85609273715513
-0.0047000000000001485,-10.25241279012192
-0.005700000000000038,-11.691174182084664
-0.00670000000000015,-13.13135028534727
-0.00770000000000004,-14.529085049613924
-0.008700000000000152,-15.91550212348166
-0.009700000000000042,-17.188742293360193
-0.010700000000000154,-18.40539401124413
-0.011700000000000044,-19.579604390132108
-0.012700000000000156,-20.72552054302279
-0.013700000000000045,-21.899730921910766
-0.014700000000000157,-23.15882397879065
-0.015700000000000047,-24.432064148669184
-0.01670000000000016,-25.73359854454502
-0.01770000000000005,-27.00683871442355
-0.01870000000000016,-28.22349043230748
-0.01970000000000005,-29.39770081119546
-0.020700000000000163,-30.444587173095588
-0.021700000000000053,-31.49147353499572
-0.022700000000000164,-32.53835989689585
-0.023700000000000054,-33.627687597791926
-0.024700000000000166,-34.75945663768395
-0.025700000000000056,-35.90537279057463
-0.026700000000000168,-37.122024508458566
-0.027700000000000058,-38.29623488734655
-0.02870000000000017,-39.38556258824262
-0.02970000000000006,-40.43244895014274
-0.03070000000000017,-41.43689397304693
-0.03170000000000006,-42.39889765695515
-0.03270000000000017,-43.36090134086337
-0.03370000000000006,-44.3229050247716
-0.034700000000000175,-45.36979138667173
-0.035700000000000065,-46.45911908756781
-0.03670000000000018,-47.54844678846388
-0.03770000000000007,-48.63777448935996
-0.03870000000000018,-49.72710219025603
-0.03970000000000007,-50.68910587416426
-0.04070000000000018,-51.65110955807249
-0.04170000000000007,-52.514083450990164
-0.04270000000000018,-53.433645795902436
-0.04370000000000007,-54.31076680181876
-0.044700000000000184,-55.31521182472294
-0.045700000000000074,-56.36209818662306
-0.046700000000000186,-57.408984548523186
-0.047700000000000076,-58.45587091042332
-0.04870000000000019,-59.502757272323436
-0.04970000000000008,-60.45061384323302
-0.05070000000000019,-61.327734849149344
-0.05170000000000008,-62.11997317707376
-0.05270000000000019,-62.98294706999144
-0.05370000000000008,-63.860068075907755
-0.05470000000000019,-64.82207175981598
-0.05570000000000008,-65.76992833072556
-0.056700000000000195,-66.81681469262568
-0.057700000000000085,-67.82125971552985
-0.058700000000000196,-68.78326339943808
-0.059700000000000086,-69.70282574435035
-0.0607000000000002,-70.48091695927613
-0.06170000000000009,-71.31559662619651
-0.0627000000000002,-72.15027629311687
-0.06370000000000009,-72.97080884703858
-0.0647000000000002,-73.93281253094682
-0.06570000000000009,-74.89481621485504
-0.0667000000000002,-75.85681989876326
-0.0677000000000001,-76.86126492166746
-0.0687000000000002,-77.80912149257702
-0.0697000000000001,-78.68624249849334
-0.07070000000000021,-79.56336350440966
-0.0717000000000001,-80.29901338033947
-0.07270000000000021,-81.1761343862558
-0.0737000000000001,-81.99666694017753
-0.07470000000000021,-82.87378794609386
-0.0757000000000001,-83.83579163000208
-0.07670000000000021,-84.7977953139103
-0.0777000000000001,-85.80224033681448
-0.07870000000000021,-86.75009690772404
-0.0797000000000001,-87.62721791364037
-0.08070000000000022,-88.46189758056073
-0.0817000000000001,-89.19754745649055
-0.08270000000000022,-90.03222712341093
-0.08370000000000011,-90.85275967733266
-0.08470000000000022,-91.77232202224494
-0.08570000000000011,-92.6918843671572
-0.08670000000000022,-93.65388805106544
-0.08770000000000011,-94.601744621975
-0.08870000000000022,-95.52130696688728
-0.08970000000000011,-96.3984279728036
-0.09070000000000022,-97.21896052672531
-0.09170000000000011,-97.96875751565379
-0.09270000000000023,-98.7892900695755
-0.09370000000000012,-99.53908705850398
-0.09470000000000023,-100.45864940341626
-0.09570000000000012,-101.40650597432582
-0.09670000000000023,-102.36850965823406
-0.09770000000000012,-103.33051334214227
-0.09870000000000023,-104.25007568705455
-0.09970000000000012,-105.11304957997223
-0.10070000000000023,-105.94772924689259
-0.10170000000000012,-106.68337912282242
-0.10270000000000024,-107.47561745074682
-0.10370000000000013,-108.2537086656726
-0.10470000000000024,-109.13082967158894
-0.10570000000000013,-110.05039201650122
-0.10670000000000024,-111.01239570040943
-0.10770000000000013,-111.96025227131899
-0.10870000000000024,-112.92225595522721
-0.10970000000000013,-113.75693562214758
-0.11070000000000024,-114.53502683707337
-0.11170000000000013,-115.28482382600184
-0.11270000000000002,-116.02047370193165
-0.11370000000000013,-116.81271202985609
-0.11470000000000002,-117.71812726176971
-0.11570000000000014,-118.63768960668197
-0.11670000000000003,-119.5996932905902
-0.11770000000000014,-120.51925563550247
-0.11870000000000003,-121.48125931941068
-0.11970000000000014,-122.25935053433648
-0.12070000000000003,-123.09403020125686
-0.12170000000000014,-123.82968007718667
-0.12270000000000003,-124.57947706611512
-0.12370000000000014,-125.35756828104091
-0.12470000000000003,-126.23468928695722
-0.12570000000000014,-127.14010451887084
-0.12670000000000003,-128.144549541775
-0.12770000000000015,-129.02167054769134
-0.12870000000000004,-129.9412328926036
-0.12970000000000015,-130.76176544652535
-0.13070000000000004,-131.5115624354538
-0.13170000000000015,-132.24721231138363
-0.13270000000000004,-132.99700930031207
-0.13370000000000015,-133.73265917624192
-0.13470000000000004,-134.6097801821582
-0.13570000000000015,-135.47275407507593
-0.13670000000000004,-136.43475775898415
-0.13770000000000016,-137.31187876490046
-0.13870000000000005,-138.17485265781812
-0.13970000000000016,-138.96709098574257
-0.14070000000000005,-139.70274086167237
-0.14170000000000016,-140.45253785060083
-0.14270000000000005,-141.2306290655266
-0.14370000000000016,-142.03701450644968
-0.14470000000000005,-142.7443701563822
-0.14570000000000016,-143.73466806628772
-0.14670000000000005,-144.58349484620675
-0.14770000000000016,-145.57379275611228
-0.14870000000000005,-146.4226195360313
-0.14970000000000017,-147.1299751859638
-0.15070000000000006,-147.83733083589632
-0.15170000000000017,-148.54468648582886
-0.15270000000000006,-149.25204213576137
-0.15370000000000017,-150.1008689156804
-0.15470000000000006,-150.94969569559944
-0.15570000000000017,-151.7985224755184
-0.15670000000000006,-152.64734925543743
-0.15770000000000017,-153.63764716534297
-0.15870000000000006,-154.486473945262
-0.15970000000000018,-155.19382959519453
-0.16070000000000007,-156.04265637511355
-0.16170000000000018,-156.75001202504606
-0.16270000000000007,-157.45736767497857
-0.16370000000000018,-158.3061944548976
-0.16470000000000007,-159.15502123481662
-0.16570000000000018,-160.00384801473567
-0.16670000000000007,-160.99414592464117
-0.16770000000000018,-161.9844438345467
-0.16870000000000007,-162.8332706144657
-0.16970000000000018,-163.68209739438475
-0.17070000000000007,-164.38945304431726
-0.17170000000000019,-165.09680869424977
-0.17270000000000008,-165.8041643441823
-0.1737000000000002,-166.51151999411482
-0.17470000000000008,-167.36034677403384
-0.1757000000000002,-168.20917355395284
-0.17670000000000008,-169.0580003338719
-0.1777000000000002,-170.0482982437774
-0.17870000000000008,-170.75565389370993
-0.1797000000000002,-171.60448067362896
-0.18070000000000008,-172.31183632356147
-0.1817000000000002,-173.01919197349397
-0.18270000000000008,-173.72654762342648
-0.1837000000000002,-174.43390327335902
-0.1847000000000001,-175.28273005327804
-0.1857000000000002,-176.13155683319707
-0.1867000000000001,-176.98038361311612
-0.1877000000000002,-177.82921039303508
-0.1887000000000001,-178.67803717295413
-0.1897000000000002,-179.52686395287316
-0.1907000000000001,-180.23421960280567
-0.1917000000000001,-180.94157525273818
-0.19269999999999998,-181.64893090267074
-0.1937000000000001,-182.35628655260325
-0.19469999999999998,-183.20511333252225
-0.1957000000000001,-184.05394011244127
-0.19669999999999999,-184.9027668923603
-0.1977000000000001,-185.89306480226583
-0.1987,-186.74189158218485
-0.1997000000000001,-187.44924723211736
-0.2007,-188.15660288204987
-0.2017000000000001,-188.8639585319824
-0.2027,-189.57131418191491
-0.2037000000000001,-190.27866983184742
-0.2047,-191.12749661176645
-0.2057000000000001,-192.11779452167198
-0.2067,-192.966621301591
-0.2077000000000001,-193.81544808151003
-0.2087,-194.52280373144254
-0.2097000000000001,-195.37163051136156
-0.2107,-196.0789861612941
-0.2117000000000001,-196.6448706812401
-0.2127,-197.35222633117263
-0.2137000000000001,-198.05958198110514
-0.2147,-198.76693763103765
-0.2157000000000001,-199.61576441095667
-0.2167,-200.4645911908757
-0.21770000000000012,-201.31341797079472
-0.2187,-202.16224475071377
-0.21970000000000012,-203.01107153063276
-0.2207,-203.71842718056527
-0.22170000000000012,-204.2843117005113
-0.2227,-204.9916673504438
-0.22370000000000012,-205.69902300037634
-0.2247,-206.54784978029537
-0.22570000000000012,-207.25520543022787
-0.2267,-208.1040322101469
-0.22770000000000012,-208.95285899006592
-0.22870000000000001,-209.8016857699849
-0.22970000000000013,-210.50904141991748
-0.23070000000000002,-211.21639706985
-0.23170000000000013,-211.782281589796
-0.23270000000000002,-212.48963723972852
-0.23370000000000013,-213.05552175967455
-0.23470000000000002,-213.90434853959354
-0.23570000000000013,-214.75317531951256
-0.23670000000000002,-215.4605309694451
-0.2376999999999999,-216.3093577493641
-0.23870000000000002,-217.15818452928315
-0.2396999999999999,-217.86554017921566
-0.24070000000000003,-218.57289582914817
-0.24169999999999991,-219.13878034909416
-0.24270000000000003,-219.8461359990267
-0.24369999999999992,-220.41202051897272
-0.24470000000000003,-221.11937616890526
-0.24569999999999992,-221.96820294882426
-0.24670000000000003,-222.81702972874328
-0.24769999999999992,-223.52438537867582
-0.24870000000000003,-224.37321215859478
-0.24969999999999992,-225.22203893851383
-0.25070000000000003,-225.78792345845983
-0.2516999999999999,-226.49527910839237
-0.25270000000000004,-227.06116362833836
-0.2536999999999999,-227.9099904082574
-0.25470000000000004,-228.61734605818995
-0.2556999999999999,-229.46617283810895
-0.25670000000000004,-230.31499961802797
-0.25769999999999993,-231.163826397947
-0.25870000000000004,-232.01265317786604
-0.25969999999999993,-232.72000882779852
-0.26070000000000004,-233.4273644777311
-0.26169999999999993,-234.13472012766357
-0.26270000000000004,-234.84207577759608
-0.26369999999999993,-235.54943142752862
-0.26470000000000005,-236.3982582074476
-0.26569999999999994,-237.24708498736666
-0.26670000000000005,-238.0959117672857
-0.26769999999999994,-238.94473854720468
-0.26870000000000005,-239.65209419713722
-0.26969999999999994,-240.50092097705624
-0.27070000000000005,-241.20827662698875
-0.27169999999999994,-241.9156322769213
-0.27270000000000005,-242.62298792685377
-0.27369999999999994,-243.18887244679982
-0.27470000000000006,-244.03769922671884
-0.27569999999999995,-244.8865260066378
-0.27670000000000006,-245.73535278655686
-0.27769999999999995,-246.5841795664759
-0.27870000000000006,-247.4330063463949
-0.27969999999999995,-248.28183312631393
-0.28070000000000006,-249.13065990623298
-0.28169999999999995,-249.83801555616546
-0.28270000000000006,-250.545371206098
-0.28369999999999995,-251.25272685603056
-0.28470000000000006,-251.96008250596302
-0.28569999999999995,-252.66743815589555
-0.28670000000000007,-253.51626493581452
-0.28769999999999996,-254.2236205857471
-0.28870000000000007,-255.07244736566614
-0.28969999999999996,-255.77980301559862
-0.29070000000000007,-256.4871586655312
-0.29169999999999996,-257.1945143154637
-0.29270000000000007,-257.76039883540966
-0.29369999999999996,-258.32628335535566
-0.2947000000000001,-259.0336390052882
-0.29569999999999996,-259.7409946552208
-0.2967000000000001,-260.58982143513975
-0.29769999999999996,-261.2971770850723
-0.2987000000000001,-262.1460038649913
-0.29969999999999997,-262.8533595149238
-0.3007000000000001,-263.56071516485633
-0.30169999999999997,-264.12659968480233
-0.3027000000000001,-264.83395533473487
-0.30369999999999997,-265.5413109846674
-0.3047000000000001,-266.3901377645864
-0.30569999999999997,-267.09749341451896
-0.3067000000000001,-267.94632019443793
-0.3077,-268.65367584437047
-0.3087000000000001,-269.5025026242895
-0.3097,-270.20985827422203
-0.3107000000000001,-270.9172139241545
-0.3117,-271.62456957408705
-0.3127000000000001,-272.1904540940331
-0.3137,-272.8978097439656
-0.3147000000000001,-273.60516539389806
-0.3157,-274.5954633038036
-0.3167000000000001,-275.44429008372265
-0.3177,-276.43458799362816
-0.3187000000000001,-277.2834147735472
-0.3197,-278.1322415534662
-0.3207000000000001,-278.8395972033987
-0.3217,-279.6884239833177
-0.3227000000000001,-280.3957796332503
-0.3237,-281.1031352831828
-0.3247000000000001,-281.9519620631018
-0.3257,-282.9422599730073
-0.3267000000000001,-283.9325578829129
-0.3277,-284.9228557928184
-0.3287000000000001,-285.7716825727374
-0.3297,-286.76198048264297
-0.3307000000000001,-287.610807262562
-0.3317,-288.45963404248096
-0.3327000000000001,-289.3084608224
-0.3337,-290.157287602319
-0.3347000000000001,-291.14758551222457
-0.3357,-292.1378834221301
-0.3367000000000001,-293.1281813320356
-0.3377,-294.11847924194115
-0.3387000000000001,-295.10877715184665
-0.3397,-296.0990750617522
-0.3407000000000001,-296.94790184167124
-0.3417,-297.79672862159026
-0.3427000000000001,-298.6455554015092
-0.3437,-299.49438218142825
-0.3447000000000001,-300.3432089613473
-0.3457,-301.47497800123926
-0.3467000000000001,-302.4652759111449
-0.3477,-303.4555738210504
-0.3487000000000001,-304.4458717309559
-0.3497,-305.43616964086146
-0.3507000000000001,-306.4264675507669
-0.3517,-307.27529433068594
-0.3527000000000001,-308.124121110605
-0.3537,-309.1144190205105
-0.3547000000000001,-310.10471693041603
-0.3557,-311.2364859703081
-0.35670000000000013,-312.36825501020013
-0.3577,-313.5000240500921
-0.35870000000000013,-314.6317930899841
-0.3597,-315.6220909998897
-0.36070000000000013,-316.6123889097952
-0.3617,-317.60268681970075
-0.3626999999999999,-318.4515135996198
-0.3637,-319.4418115095253
-0.3646999999999999,-320.4321094194308
-0.3657,-321.56387845932284
-0.3666999999999999,-322.5541763692284
-0.3677,-323.5444742791339
-0.3686999999999999,-324.67624331902596
-0.36970000000000003,-325.5250700989449
-0.3706999999999999,-326.51536800885043
-0.37170000000000003,-327.3641947887695
-0.3726999999999999,-328.3544926986751
-0.37370000000000003,-329.20331947859404
-0.3746999999999999,-330.19361738849955
-0.37570000000000003,-331.3253864283916
-0.3766999999999999,-332.45715546828364
-0.37770000000000004,-333.44745337818915
-0.3786999999999999,-334.43775128809466
-0.37970000000000004,-335.42804919800017
-0.3806999999999999,-336.4183471079057
-0.38170000000000004,-337.40864501781124
-0.38269999999999993,-338.39894292771675
-0.38370000000000004,-339.2477697076358
-0.38469999999999993,-340.3795387475279
-0.38570000000000004,-341.51130778741987
-0.38669999999999993,-341.0868943974603
-0.38570000000000004,-338.1160006677438
-0.38469999999999993,-335.2865780680136
-0.38370000000000004,-332.3156843382971
-0.38269999999999993,-329.48626173856707
-0.38170000000000004,-326.656839138837
-0.3806999999999999,-323.8274165391069
-0.37970000000000004,-320.9979939393768
-0.3786999999999999,-318.4515135996198
-0.37770000000000004,-315.76356212987616
-0.3766999999999999,-313.21708179011915
-0.37570000000000003,-310.52913032037554
-0.3746999999999999,-307.98264998061853
-0.37370000000000003,-305.43616964086146
-0.3726999999999999,-302.74821817111786
-0.37170000000000003,-300.06026670137425
-0.3706999999999999,-297.3723152316307
-0.36970000000000003,-294.96730602186017
-0.3686999999999999,-292.2793545521166
-0.3677,-289.73287421235955
-0.3666999999999999,-287.327865002589
-0.3657,-284.9228557928184
-0.3646999999999999,-282.51784658304786
-0.3637,-279.97136624329073
-0.3626999999999999,-277.4248859035337
-0.3617,-275.0198766937631
-0.36070000000000013,-272.47339635400607
-0.3597,-269.926916014249
-0.35870000000000013,-267.38043567449193
-0.3577,-264.9754264647214
-0.35670000000000013,-262.7118883849373
-0.3557,-260.4483503051532
-0.3547000000000001,-258.18481222536917
-0.3537,-255.63833188561213
-0.3527000000000001,-253.23332267584152
-0.3517,-250.828313466071
-0.3507000000000001,-248.42330425630044
-0.3497,-245.87682391654337
-0.3487000000000001,-243.6132858367593
-0.3477,-241.34974775697523
-0.3467000000000001,-239.0862096771912
-0.3457,-236.82267159740715
-0.3447000000000001,-234.55913351762308
-0.3437,-232.29559543783904
-0.3427000000000001,-230.03205735805497
-0.3417,-227.62704814828442
-0.3407000000000001,-225.36351006850035
-0.3397,-222.9585008587298
-0.3387000000000001,-220.83643390893224
-0.3377,-218.71436695913465
-0.3367000000000001,-216.59230000933712
-0.3357,-214.47023305953954
-0.3347000000000001,-212.34816610974204
-0.3337,-210.22609915994445
-0.3327000000000001,-207.96256108016038
-0.3317,-205.69902300037634
-0.3307000000000001,-203.43548492059227
-0.3297,-201.31341797079472
-0.3287000000000001,-199.19135102099716
-0.3277,-197.0692840711996
-0.3267000000000001,-195.08868825138856
-0.3257,-193.10809243157752
-0.3247000000000001,-190.98602548177996
-0.3237,-188.72248740199586
-0.3227000000000001,-186.60042045219836
-0.3217,-184.47835350240078
-0.3207000000000001,-182.21481542261674
-0.3197,-180.09274847281918
-0.3187000000000001,-177.9706815230216
-0.3177,-175.99008570321055
-0.3167000000000001,-174.0094898833995
-0.3157,-172.0288940635885
-0.3147000000000001,-170.0482982437774
-0.3137,-168.06770242396635
-0.3127000000000001,-165.94563547416882
-0.3117,-163.82356852437124
-0.3107000000000001,-161.70150157457368
-0.3097,-159.72090575476264
-0.3087000000000001,-157.7403099349516
-0.3077,-155.75971411514055
-0.3067000000000001,-153.77911829532948
-0.30569999999999997,-151.93999360550492
-0.3047000000000001,-150.1008689156804
-0.30369999999999997,-147.97880196588284
-0.3027000000000001,-145.9982061460718
-0.30169999999999997,-144.01761032626072
-0.3007000000000001,-141.89554337646317
-0.29969999999999997,-139.84421199165885
-0.2987000000000001,-137.92020462384244
-0.29769999999999996,-135.99619725602597
-0.2967000000000001,-134.12877834020412
-0.29569999999999996,-132.2896536503796
-0.2947000000000001,-130.42223473455772
-0.29369999999999996,-128.4982273667413
-0.29270000000000007,-126.5317786599289
-0.29169999999999996,-124.52288861412055
-0.29070000000000007,-122.52814568131083
-0.28969999999999996,-120.56169697449842
-0.28870000000000007,-118.72257228467387
-0.28769999999999996,-116.89759470784797
-0.28670000000000007,-115.10091135701937
-0.28569999999999995,-113.36081645818538
-0.28470000000000006,-111.57828022035544
-0.28369999999999995,-109.69671419153494
-0.28270000000000006,-107.78685393671715
-0.28169999999999995,-105.90528790789664
-0.28070000000000006,-103.93883920108425
-0.27969999999999995,-102.07142028526239
-0.27870000000000006,-100.23229559543785
-0.27769999999999995,-98.49220069660386
-0.27670000000000006,-96.79454713676581
-0.27569999999999995,-95.08274646392913
-0.27470000000000006,-93.34265156509512
-0.27369999999999994,-91.51767398826922
-0.27270000000000005,-89.67854929844468
-0.27169999999999994,-87.79698326962418
-0.27070000000000005,-85.92956435380233
-0.26969999999999994,-84.13288100297372
-0.26870000000000005,-82.39278610413973
-0.26769999999999994,-80.69513254430169
