Potential V vs RHE, Current mA cm-2
0.013299999999999867,-0.002048501962204573
0.012299999999999978,-0.008427435213296022
0.011299999999999866,-0.01095410959485498
0.010299999999999976,-0.013228965365037957
0.009299999999999864,-0.015377911829532949
0.008299999999999974,-0.01703312405037504
0.007299999999999862,-0.01766974413531431
0.006299999999999972,-0.018405394011244126
0.00529999999999986,-0.019353250582153703
0.0042999999999999705,-0.020442578283049778
0.0032999999999998586,-0.021871436695913467
0.0022999999999999687,-0.022154378955886473
0.0012999999999998568,-0.022607086571843286
0.00029999999999996696,-0.023300295108777156
-0.000700000000000145,-0.024460358374666487
-0.0017000000000000348,-0.025365773606580107
-0.0027000000000001467,-0.025648715866553113
-0.0037000000000000366,-0.025959952352523425
-0.0047000000000001485,-0.026667308002455942
-0.005700000000000038,-0.027784929929349323
-0.00670000000000015,-0.028732786500258897
-0.00770000000000004,-0.028987434534234607
-0.008700000000000152,-0.028916698969241348
-0.009700000000000042,-0.02969479018416712
-0.010700000000000154,-0.030897294789052406
-0.011700000000000044,-0.03195832826395118
-0.012700000000000156,-0.03222712341092554
-0.013700000000000045,-0.032156387845932284
-0.014700000000000157,-0.03284959638286615
-0.015700000000000047,-0.03367012893678788
-0.01670000000000016,-0.0347736037506826
-0.01770000000000005,-0.03511313446265021
-0.01870000000000016,-0.034999957558661005
-0.01970000000000005,-0.03576390166058813
-0.020700000000000163,-0.0368249351354869
-0.021700000000000053,-0.03790011572338433
-0.022700000000000164,-0.03801329262737353
-0.023700000000000054,-0.03838111756533845
-0.024700000000000166,-0.03880553095529796
-0.025700000000000056,-0.03992315288219133
-0.026700000000000168,-0.04098418635709011
-0.027700000000000058,-0.041366158408053674
-0.02870000000000017,-0.04159251221603208
-0.02970000000000006,-0.042200838074974045
-0.03070000000000017,-0.04330431288886877
-0.03170000000000006,-0.04447852326775675
-0.03270000000000017,-0.044775612640728414
-0.03370000000000006,-0.04490293665771626
-0.034700000000000175,-0.045511262516658234
-0.035700000000000065,-0.046444971974569156
-0.03670000000000018,-0.04794456595242609
-0.03770000000000007,-0.04824165532539775
-0.03870000000000018,-0.04832653800338965
-0.03970000000000007,-0.04913292344431273
-0.04070000000000018,-0.05033542804919801
-0.04170000000000007,-0.051396461524096784
-0.04270000000000018,-0.05183502202705494
-0.04370000000000007,-0.0521038171740293
-0.044700000000000184,-0.05291020261495238
-0.045700000000000074,-0.05409856010683901
-0.046700000000000186,-0.05515959358173778
-0.047700000000000076,-0.05599427324865815
-0.04870000000000019,-0.056291362621629815
-0.04970000000000008,-0.056744070237586625
-0.05070000000000019,-0.057946574842471905
-0.05170000000000008,-0.05936128614233694
-0.05270000000000019,-0.05998375911427755
-0.05370000000000008,-0.06015352447026136
-0.05470000000000019,-0.06049305518222897
-0.05570000000000008,-0.06207753183807782
-0.056700000000000195,-0.0633083306689604
-0.057700000000000085,-0.06435521703086051
-0.058700000000000196,-0.06424204012687132
-0.059700000000000086,-0.06473718908182408
-0.0607000000000002,-0.06606701770369722
-0.06170000000000009,-0.06787784816752446
-0.0627000000000002,-0.06837299712247723
-0.06370000000000009,-0.06828811444448532
-0.0647000000000002,-0.06893888164242323
-0.06570000000000009,-0.07033944582928962
-0.0667000000000002,-0.0717117157901587
-0.0677000000000001,-0.07229174742310338
-0.0687000000000002,-0.07292836750804264
-0.0697000000000001,-0.07318301554201835
-0.07070000000000021,-0.07466846240687663
-0.0717000000000001,-0.07594170257675517
-0.07270000000000021,-0.07705932450364854
-0.0737000000000001,-0.07694614759965934
-0.07470000000000021,-0.07756862057159995
-0.0757000000000001,-0.07870038961149198
-0.07670000000000021,-0.08035560183233408
-0.0777000000000001,-0.08121857572525175
-0.07870000000000021,-0.08109125170826391
-0.0797000000000001,-0.08162884200221261
-0.08070000000000022,-0.08301525907608036
-0.0817000000000001,-0.08467047129692246
-0.08270000000000022,-0.08539197405985362
-0.08370000000000011,-0.08570321054582393
-0.08470000000000022,-0.08592956435380232
-0.08570000000000011,-0.08714621607168627
-0.08670000000000022,-0.08877313406653106
-0.08770000000000011,-0.08967854929844467
-0.08870000000000022,-0.08986246176742714
-0.08970000000000011,-0.09024443381839069
-0.09070000000000022,-0.09120643750229893
-0.09170000000000011,-0.09266359014115991
-0.09270000000000023,-0.09354071114707624
-0.09370000000000012,-0.09373877072905733
-0.09470000000000023,-0.09419147834501414
-0.09570000000000012,-0.09512518780292507
-0.09670000000000023,-0.09666722311977795
-0.09770000000000012,-0.09757263835169158
-0.09870000000000023,-0.09750190278669833
-0.09970000000000012,-0.09801119885464975
-0.10070000000000023,-0.09921370345953502
-0.10170000000000012,-0.10031717827342976
-0.10270000000000024,-0.10130747618333527
-0.10370000000000013,-0.10127918195733798
-0.10470000000000024,-0.10168944823429883
-0.10570000000000013,-0.10249583367522191
-0.10670000000000024,-0.10388225074908965
-0.10770000000000013,-0.10466034196401541
-0.10870000000000024,-0.10504231401497897
-0.10970000000000013,-0.10491498999799112
-0.11070000000000024,-0.1060043176988872
-0.11170000000000013,-0.10727755786876574
-0.11270000000000002,-0.10790003084070635
-0.11370000000000013,-0.10812638464868475
-0.11470000000000002,-0.10826785577867125
-0.11570000000000014,-0.10897521142860378
-0.11670000000000003,-0.11057383519745125
-0.11770000000000014,-0.11096995436141348
-0.11870000000000003,-0.11123874950838784
-0.11970000000000014,-0.11116801394339458
-0.12070000000000003,-0.11217245896629877
-0.12170000000000014,-0.11331837511918944
-0.12270000000000003,-0.1136720529441557
-0.12370000000000014,-0.1140964663341152
-0.12470000000000003,-0.11385596541313814
-0.12570000000000014,-0.11461990951506526
-0.12670000000000003,-0.11580826700695189
-0.12770000000000015,-0.11633171018790198
-0.12870000000000004,-0.11631756307490332
-0.12970000000000015,-0.11650147554388576
-0.13070000000000004,-0.11727956675881154
-0.13170000000000015,-0.11826986466871706
-0.13270000000000004,-0.11872257228467388
-0.13370000000000015,-0.11872257228467388
-0.13470000000000004,-0.11890648475365632
-0.13570000000000015,-0.1193450452566145
-0.13670000000000004,-0.12066072676548899
-0.13770000000000016,-0.12105684592945118
-0.13870000000000005,-0.120943669025462
-0.13970000000000016,-0.12105684592945118
-0.14070000000000005,-0.12177834869238235
-0.14170000000000016,-0.12272620526329193
-0.14270000000000005,-0.12340526668722714
-0.14370000000000016,-0.12350429647821769
-0.14470000000000005,-0.12349014936521906
-0.14570000000000016,-0.12408432811116238
-0.14670000000000005,-0.12510292024706518
-0.14770000000000016,-0.125555627863022
-0.14870000000000005,-0.12579612878399907
-0.14970000000000017,-0.126121512382968
-0.15070000000000006,-0.12665910267691674
-0.15170000000000017,-0.12791819573379665
-0.15270000000000006,-0.12846993314074398
-0.15370000000000017,-0.12866799272272508
-0.15470000000000006,-0.12855481581873587
-0.15570000000000017,-0.12944608393765086
-0.15670000000000006,-0.13076176544652532
-0.15770000000000017,-0.13138423841846594
-0.15870000000000006,-0.13118617883648487
-0.15970000000000018,-0.1315115624354538
-0.16070000000000007,-0.1322896536503796
-0.16170000000000018,-0.13360533515925405
-0.16270000000000007,-0.13442586771317577
-0.16370000000000018,-0.13455319173016364
-0.16470000000000007,-0.13487857532913258
-0.16570000000000018,-0.13547275407507592
-0.16670000000000007,-0.1369016124879396
-0.16770000000000018,-0.13787776328484647
-0.16870000000000007,-0.1381324113188222
-0.16970000000000018,-0.13879732562975874
-0.17070000000000007,-0.1393773572627034
-0.17170000000000019,-0.14073548011057385
-0.17270000000000008,-0.14189554337646318
-0.1737000000000002,-0.1421784856364362
-0.17470000000000008,-0.1427443701563822
-0.1757000000000002,-0.1433102546763282
-0.17670000000000008,-0.14486643710617977
-0.1777000000000002,-0.14642261953603128
-0.17870000000000008,-0.1467055617960043
-0.1797000000000002,-0.14712997518596382
-0.18070000000000008,-0.14840321535584233
-0.1817000000000002,-0.1496764555257209
-0.18270000000000008,-0.1512326379555724
-0.1837000000000002,-0.15151558021554543
-0.1847000000000001,-0.15236440699546444
-0.1857000000000002,-0.15377911829532948
-0.1867000000000001,-0.1551938295951945
-0.1877000000000002,-0.15675001202504607
-0.1887000000000001,-0.15774030993495158
-0.1897000000000002,-0.1583061944548976
-0.1907000000000001,-0.15957943462477614
-0.1917000000000001,-0.16141855931460067
-0.19269999999999998,-0.1629747417444522
-0.1937000000000001,-0.16424798191433077
-0.19469999999999998,-0.16509680869424978
-0.1957000000000001,-0.16637004886412832
-0.19669999999999999,-0.16849211581392587
-0.1977000000000001,-0.17018976937376393
-0.1987,-0.17160448067362896
-0.1997000000000001,-0.1728777208435075
-0.2007,-0.17443390327335903
-0.2017000000000001,-0.17655597022315658
-0.2027,-0.17853656604296764
-0.2037000000000001,-0.18037569073279217
-0.2047,-0.18179040203265723
-0.2057000000000001,-0.18334658446250876
-0.2067,-0.1860345359322523
-0.2077000000000001,-0.18801513175206336
-0.2087,-0.19027866983184744
-0.2097000000000001,-0.19183485226169897
-0.2107,-0.1936739769515235
-0.2117000000000001,-0.19678634181122662
-0.2127,-0.19933282215098366
-0.2137000000000001,-0.20131341797079472
-0.2147,-0.2037184271805653
-0.2157000000000001,-0.2066893209102819
-0.2167,-0.20923580125003893
-0.21770000000000012,-0.21234816610974203
-0.2187,-0.21461170418952608
-0.21970000000000012,-0.21701671339929662
-0.2207,-0.21970466486904017
-0.22170000000000012,-0.22338291424868928
-0.2227,-0.22691969249835187
-0.22370000000000012,-0.22960764396809544
-0.2247,-0.23229559543783898
-0.22570000000000012,-0.2356909025575151
-0.2267,-0.2393691519371642
-0.22770000000000012,-0.24361328583675934
-0.22870000000000001,-0.2468671218264489
-0.22970000000000013,-0.25026242894612494
-0.23070000000000002,-0.25394067832577405
-0.23170000000000013,-0.2581848122253692
-0.23270000000000002,-0.26299483064491036
-0.23370000000000013,-0.26681455115454594
-0.23470000000000002,-0.27035132940420853
-0.23570000000000013,-0.27473693443379016
-0.23670000000000002,-0.27940548172334473
-0.2376999999999999,-0.2846399135328454
-0.23870000000000002,-0.2894499319523865
-0.2396999999999999,-0.29355259472199513
-0.24070000000000003,-0.2986455554015092
-0.24169999999999991,-0.30430440060096936
-0.24270000000000003,-0.3096803035404565
-0.24369999999999992,-0.3149147353499572
-0.24470000000000003,-0.32000769602947127
-0.24569999999999992,-0.3249591855789989
-0.24670000000000003,-0.3313253864283916
-0.24769999999999992,-0.3378330584077708
-0.24870000000000003,-0.3434919036072309
-0.24969999999999992,-0.34900927767670453
-0.25070000000000003,-0.35509253626612425
-0.2516999999999999,-0.36188315050547637
-0.25270000000000004,-0.3688152358748151
-0.2536999999999999,-0.3757473212441537
-0.25470000000000004,-0.38168910870358685
-0.2556999999999999,-0.38833825181295256
-0.25670000000000004,-0.39583622170223726
-0.25769999999999993,-0.4031927204615355
-0.25870000000000004,-0.41054921922083365
-0.25969999999999993,-0.41719836233019936
-0.26070000000000004,-0.4242719188295245
-0.26169999999999993,-0.43247724436874174
-0.26270000000000004,-0.4405410987779724
-0.26369999999999993,-0.44761465527729766
-0.26470000000000005,-0.45511262516658224
-0.26569999999999994,-0.4627520661858534
-0.26670000000000005,-0.47124033398504367
-0.26769999999999994,-0.4798700729142204
-0.26870000000000005,-0.4875095139334916
-0.26969999999999994,-0.4950074838227763
-0.27070000000000005,-0.502222511452088
-0.27169999999999994,-0.5107107792512783
-0.27270000000000005,-0.5194819893104415
-0.27369999999999994,-0.5275458437196722
-0.27470000000000006,-0.5349023424789704
-0.27569999999999995,-0.5421173701082821
-0.27670000000000006,-0.5507471090374588
-0.27769999999999995,-0.559518319096622
-0.27870000000000006,-0.5674407023758662
-0.27969999999999995,-0.5745142588751914
-0.28070000000000006,-0.5814463442445301
-0.28169999999999995,-0.5900760831737067
-0.28270000000000006,-0.5975740530629915
-0.28369999999999995,-0.6056379074722221
-0.28470000000000006,-0.6120041083216149
-0.28569999999999995,-0.6178044246510616
-0.28670000000000007,-0.6254438656703327
-0.28769999999999996,-0.6330833066896038
-0.28870000000000007,-0.6397324497989695
-0.28969999999999996,-0.6460986506483622
-0.29070000000000007,-0.6514745535878493
-0.29169999999999996,-0.658123696697215
-0.29270000000000007,-0.6650557820665538
-0.29369999999999996,-0.6709975695259869
-0.2947000000000001,-0.6756661168155416
-0.29569999999999996,-0.6804761352350827
-0.2967000000000001,-0.6859935093045563
-0.29769999999999996,-0.692642652413922
-0.2987000000000001,-0.6978770842234225
-0.29969999999999997,-0.7021212181230176
-0.3007000000000001,-0.7062238808926263
-0.30169999999999997,-0.710892428182181
-0.3027000000000001,-0.7157024466017221
-0.30369999999999997,-0.7193806959813712
-0.3047000000000001,-0.7223515897110878
-0.30569999999999997,-0.7256054257007774
-0.3067000000000001,-0.7292836750804264
-0.3077,-0.733103395590062
-0.3087000000000001,-0.7360742893197786
-0.3097,-0.7366401738397246
-0.3107000000000001,-0.7383378273995627
-0.3117,-0.7404598943493601
-0.3127000000000001,-0.7424404901691712
-0.3137,-0.7445625571189688
-0.3147000000000001,-0.7439966725990228
-0.3157,-0.7438552014690363
-0.3167000000000001,-0.7451284416389149
-0.3177,-0.7455528550288744
-0.3187000000000001,-0.7458357972888473
-0.3197,-0.7442796148589957
-0.3207000000000001,-0.7421575479091983
-0.3217,-0.7415916633892523
-0.3227000000000001,-0.7411672499992927
-0.3237,-0.7401769520893872
-0.3247000000000001,-0.7369231160996975
-0.3257,-0.733952222369981
-0.3267000000000001,-0.7328204533300889
-0.3277,-0.7315472131602104
-0.3287000000000001,-0.7291422039504398
-0.3297,-0.7256054257007774
-0.3307000000000001,-0.7216442340611552
-0.3317,-0.7193806959813712
-0.3327000000000001,-0.7174001001615601
-0.3337,-0.714004793041884
-0.3347000000000001,-0.710326543662235
-0.3357,-0.7056579963726802
-0.3367000000000001,-0.7029700449029368
-0.3377,-0.7012723913430987
-0.3387000000000001,-0.6977356130934361
-0.3397,-0.6939158925838005
-0.3407000000000001,-0.6900961720741648
-0.3417,-0.6865593938245023
-0.3427000000000001,-0.6851446825246373
-0.3437,-0.6818908465349477
-0.3447000000000001,-0.6790614239352176
-0.3457,-0.675524645685555
-0.3467000000000001,-0.672978165345798
-0.3477,-0.6709975695259869
-0.3487000000000001,-0.6677437335362972
-0.3497,-0.6646313686765942
-0.3507000000000001,-0.6615190038168911
-0.3517,-0.6601042925170262
-0.3527000000000001,-0.6601042925170262
-0.3537,-0.6585481100871745
-0.3547000000000001,-0.6557186874874444
-0.3557,-0.6530307360177009
-0.35670000000000013,-0.6513330824578628
-0.3577,-0.6497769000280114
-0.35870000000000013,-0.6492110155080654
-0.3597,-0.6465230640383217
-0.36070000000000013,-0.6438351125685782
-0.3617,-0.6424204012687131
-0.3626999999999999,-0.6419959878787537
-0.3637,-0.6421374590087401
-0.3646999999999999,-0.6388836230190506
-0.3657,-0.6354883158993744
-0.3666999999999999,-0.63364919120955
-0.3677,-0.6323759510396714
-0.3686999999999999,-0.6311027108697929
-0.36970000000000003,-0.6278488748801032
-0.3706999999999999,-0.6238876832404812
-0.37170000000000003,-0.6220485585506567
-0.3726999999999999,-0.6197850204708726
-0.37370000000000003,-0.6176629535210749
-0.3746999999999999,-0.6141261752714124
-0.37570000000000003,-0.6104479258917633
-0.3766999999999999,-0.6083258589419658
-0.37770000000000004,-0.6050720229522761
-0.3786999999999999,-0.6026670137425056
-0.37970000000000004,-0.597998466452951
-0.3806999999999999,-0.5943202170733018
-0.38170000000000004,-0.5897931409137338
-0.38269999999999993,-0.5872466605739768
-0.38370000000000004,-0.5841342957142737
-0.38469999999999993,-0.5791828061647459
-0.38570000000000004,-0.5747972011351644
-0.38669999999999993,-0.5719677785354343
-0.38770000000000004,-0.5701286538456097
-0.38869999999999993,-0.5654601065560552
-0.38970000000000005,-0.5607915592665006
-0.39069999999999994,-0.5562644831069326
-0.39170000000000005,-0.5530106471172429
-0.39269999999999994,-0.5506056379074723
-0.39370000000000005,-0.5482006286977017
-0.39469999999999994,-0.5435320814081471
-0.39570000000000005,-0.5391464763785655
-0.39669999999999994,-0.536458524908822
-0.39770000000000005,-0.5334876311791055
-0.39869999999999994,-0.5303752663194023
-0.39970000000000006,-0.5261311324198072
-0.40069999999999995,-0.5224528830401581
-0.40170000000000006,-0.519057575920482
-0.40269999999999995,-0.5165110955807248
-0.40370000000000006,-0.5142475575009409
-0.40469999999999995,-0.5112766637712243
-0.40570000000000006,-0.5077398855215616
-0.40669999999999995,-0.5054763474417775
-0.40770000000000006,-0.5037786938819395
-0.40869999999999995,-0.501656626932142
-0.40970000000000006,-0.49882720433241184
-0.41069999999999995,-0.4957148394727089
-0.41170000000000007,-0.4935927725229112
-0.41269999999999996,-0.49458307043281674
-0.41370000000000007,-0.49260247461300577
-0.41469999999999996,-0.49090482105316774
-0.41570000000000007,-0.4877924561934647
-0.41669999999999996,-0.4873680428035051
-0.41770000000000007,-0.48397273568382904
-0.41869999999999996,-0.482558024383964
-0.4197000000000001,-0.48142625534407196
-0.42069999999999996,-0.48029448630418
-0.4217000000000001,-0.4790212461343014
-0.42269999999999996,-0.4793041883942744
-0.4237000000000001,-0.47944565952426094
-0.42469999999999997,-0.4784553616143554
-0.4257000000000001,-0.47803094822439585
-0.42669999999999997,-0.47817241935438237
-0.4277000000000001,-0.4793041883942744
-0.42869999999999997,-0.48015301517419345
-0.4297000000000001,-0.4807188996941395
-0.43069999999999997,-0.4818506687340315
-0.4317000000000001,-0.4829824377739235
-0.4327,-0.4851045047237211
-0.4337000000000001,-0.4875095139334916
-0.4347,-0.48892422523335666
-0.4357000000000001,-0.49104629218315415
-0.4367,-0.49387571478288433
-0.4377000000000001,-0.4979783775524929
-0.4387,-0.5020810403221014
-0.4397000000000001,-0.505051934051818
-0.4407,-0.5080228277815346
-0.4417000000000001,-0.5119840194211568
-0.4427,-0.5156622688008059
-0.4437000000000001,-0.521038171740293
-0.4447,-0.5254237767698746
-0.4457000000000001,-0.5299508529294428
-0.4467,-0.5361755826488489
-0.4477000000000001,-0.5425417834982416
-0.4487,-0.5496153399975668
-0.4497000000000001,-0.5565474253669055
-0.4507,-0.5631965684762711
-0.4517000000000001,-0.5712604228855018
-0.4527,-0.7841744735151899
-0.4537000000000001,-1.1517164692201263
-0.4547,-1.0043035517741894
-0.4557000000000001,-0.847129126359184
-0.4567,-0.7870038961149198
-0.4577000000000001,-0.7711591295564314
-0.4587,-0.7346595780199136
-0.4597000000000001,-0.7438552014690363
-0.4607,-0.7748373789360805
-0.4617000000000001,-0.8035560183233408
-0.4627,-0.8178446024519777
-0.4637000000000001,-0.8410458677697643
-0.4647,-0.8488267799190221
-0.4657000000000001,-0.8833457356357289
-0.4667,-0.90555670304361
-0.4677000000000001,-0.9199867583022334
-0.4687,-0.8991905021942173
-0.4697000000000001,-0.942622139100074
-0.4707,-0.9214014696020982
-0.4717000000000001,-0.8253425723412624
-0.4727,-0.8363773204802097
-0.4737000000000001,-0.8520806159087115
-0.4747,-0.8696230360270382
-0.4757000000000001,-0.8868825138853914
-0.4767,-0.9054152319136234
-0.4777000000000001,-0.924089421071842
-0.4787,-0.9451686194398311
-0.4797000000000001,-0.966530760067793
-0.4807,-0.9886002563456876
-0.48170000000000013,-1.0093965124537037
-0.4827,-1.0320318932515442
-0.48370000000000013,-1.059477292468926
-0.4847,-1.0806979619669015
-0.48570000000000013,-1.1024845159848229
-0.4867,-1.1249784256526771
-0.4876999999999999,-1.151857940350113
-0.4887,-1.1778886282676295
-0.4896999999999999,-1.204202258445119
-0.4907,-1.229950004102663
-0.4916999999999999,-1.2576783455800176
-0.4927,-1.2879531673971292
