Apr. 23, 2025   18:05:44
Cyclic Voltammetry
File: c:/users/guazh/data/banditlqround7_x0exp590_r20/2025-04-16-exp1168\exp1168-2025-04-23t17_49_26-arkoh\exp1168_cv_50mvs_efin_-1700mv.bin
Data Source:  Experiment
Instrument Model:  CHI760E
Header: CV ran at 50 mVs
Note: 

Init E (V) = -1
High E (V) = -1
Low E (V) = -1.7
Final E (V) = -1
Init P/N = N
Scan Rate (V/s) = 0.05
Segment = 7
Sample Interval (V) = 0.001
Quiet Time (sec) = 60
Sensitivity (A/V) = 0.001
Comp R (ohm) = 2.2

Results:

Channel 1:
Segment 1:

Segment 2:

Segment 3:

Segment 4:

Segment 5:

Segment 6:

Segment 7:

Potential/V, Current/A

-1.000, 8.036e-6
-1.001, 9.771e-6
-1.002, 1.041e-5
-1.003, 1.096e-5
-1.004, 1.167e-5
-1.005, 1.195e-5
-1.006, 1.173e-5
-1.007, 1.195e-5
-1.008, 1.222e-5
-1.009, 1.280e-5
-1.010, 1.299e-5
-1.011, 1.273e-5
-1.012, 1.271e-5
-1.013, 1.318e-5
-1.014, 1.358e-5
-1.015, 1.379e-5
-1.016, 1.340e-5
-1.017, 1.333e-5
-1.018, 1.385e-5
-1.019, 1.410e-5
-1.020, 1.427e-5
-1.021, 1.405e-5
-1.022, 1.392e-5
-1.023, 1.432e-5
-1.024, 1.471e-5
-1.025, 1.468e-5
-1.026, 1.452e-5
-1.027, 1.427e-5
-1.028, 1.464e-5
-1.029, 1.508e-5
-1.030, 1.511e-5
-1.031, 1.495e-5
-1.032, 1.469e-5
-1.033, 1.497e-5
-1.034, 1.550e-5
-1.035, 1.543e-5
-1.036, 1.513e-5
-1.037, 1.510e-5
-1.038, 1.528e-5
-1.039, 1.579e-5
-1.040, 1.570e-5
-1.041, 1.539e-5
-1.042, 1.539e-5
-1.043, 1.550e-5
-1.044, 1.595e-5
-1.045, 1.607e-5
-1.046, 1.569e-5
-1.047, 1.566e-5
-1.048, 1.568e-5
-1.049, 1.612e-5
-1.050, 1.638e-5
-1.051, 1.598e-5
-1.052, 1.578e-5
-1.053, 1.601e-5
-1.054, 1.635e-5
-1.055, 1.648e-5
-1.056, 1.616e-5
-1.057, 1.595e-5
-1.058, 1.625e-5
-1.059, 1.653e-5
-1.060, 1.662e-5
-1.061, 1.638e-5
-1.062, 1.608e-5
-1.063, 1.642e-5
-1.064, 1.663e-5
-1.065, 1.682e-5
-1.066, 1.657e-5
-1.067, 1.626e-5
-1.068, 1.642e-5
-1.069, 1.688e-5
-1.070, 1.695e-5
-1.071, 1.670e-5
-1.072, 1.636e-5
-1.073, 1.660e-5
-1.074, 1.706e-5
-1.075, 1.725e-5
-1.076, 1.680e-5
-1.077, 1.658e-5
-1.078, 1.673e-5
-1.079, 1.710e-5
-1.080, 1.734e-5
-1.081, 1.688e-5
-1.082, 1.680e-5
-1.083, 1.682e-5
-1.084, 1.720e-5
-1.085, 1.749e-5
-1.086, 1.710e-5
-1.087, 1.690e-5
-1.088, 1.695e-5
-1.089, 1.734e-5
-1.090, 1.757e-5
-1.091, 1.717e-5
-1.092, 1.697e-5
-1.093, 1.719e-5
-1.094, 1.746e-5
-1.095, 1.768e-5
-1.096, 1.729e-5
-1.097, 1.702e-5
-1.098, 1.730e-5
-1.099, 1.749e-5
-1.100, 1.777e-5
-1.101, 1.747e-5
-1.102, 1.718e-5
-1.103, 1.740e-5
-1.104, 1.759e-5
-1.105, 1.780e-5
-1.106, 1.759e-5
-1.107, 1.721e-5
-1.108, 1.743e-5
-1.109, 1.775e-5
-1.110, 1.791e-5
-1.111, 1.773e-5
-1.112, 1.732e-5
-1.113, 1.743e-5
-1.114, 1.785e-5
-1.115, 1.800e-5
-1.116, 1.781e-5
-1.117, 1.758e-5
-1.118, 1.750e-5
-1.119, 1.795e-5
-1.120, 1.810e-5
-1.121, 1.787e-5
-1.122, 1.760e-5
-1.123, 1.769e-5
-1.124, 1.806e-5
-1.125, 1.825e-5
-1.126, 1.799e-5
-1.127, 1.781e-5
-1.128, 1.774e-5
-1.129, 1.812e-5
-1.130, 1.842e-5
-1.131, 1.805e-5
-1.132, 1.778e-5
-1.133, 1.791e-5
-1.134, 1.821e-5
-1.135, 1.852e-5
-1.136, 1.821e-5
-1.137, 1.787e-5
-1.138, 1.808e-5
-1.139, 1.828e-5
-1.140, 1.859e-5
-1.141, 1.836e-5
-1.142, 1.800e-5
-1.143, 1.818e-5
-1.144, 1.837e-5
-1.145, 1.862e-5
-1.146, 1.852e-5
-1.147, 1.805e-5
-1.148, 1.813e-5
-1.149, 1.853e-5
-1.150, 1.881e-5
-1.151, 1.861e-5
-1.152, 1.816e-5
-1.153, 1.823e-5
-1.154, 1.871e-5
-1.155, 1.885e-5
-1.156, 1.865e-5
-1.157, 1.839e-5
-1.158, 1.836e-5
-1.159, 1.880e-5
-1.160, 1.895e-5
-1.161, 1.881e-5
-1.162, 1.852e-5
-1.163, 1.850e-5
-1.164, 1.883e-5
-1.165, 1.913e-5
-1.166, 1.898e-5
-1.167, 1.867e-5
-1.168, 1.858e-5
-1.169, 1.902e-5
-1.170, 1.935e-5
-1.171, 1.908e-5
-1.172, 1.878e-5
-1.173, 1.879e-5
-1.174, 1.908e-5
-1.175, 1.946e-5
-1.176, 1.923e-5
-1.177, 1.903e-5
-1.178, 1.890e-5
-1.179, 1.932e-5
-1.180, 1.957e-5
-1.181, 1.946e-5
-1.182, 1.912e-5
-1.183, 1.911e-5
-1.184, 1.937e-5
-1.185, 1.967e-5
-1.186, 1.971e-5
-1.187, 1.927e-5
-1.188, 1.923e-5
-1.189, 1.960e-5
-1.190, 1.988e-5
-1.191, 1.989e-5
-1.192, 1.945e-5
-1.193, 1.936e-5
-1.194, 1.983e-5
-1.195, 2.009e-5
-1.196, 2.001e-5
-1.197, 1.980e-5
-1.198, 1.963e-5
-1.199, 2.008e-5
-1.200, 2.034e-5
-1.201, 2.027e-5
-1.202, 1.998e-5
-1.203, 1.995e-5
-1.204, 2.026e-5
-1.205, 2.060e-5
-1.206, 2.058e-5
-1.207, 2.028e-5
-1.208, 2.010e-5
-1.209, 2.053e-5
-1.210, 2.089e-5
-1.211, 2.092e-5
-1.212, 2.051e-5
-1.213, 2.047e-5
-1.214, 2.088e-5
-1.215, 2.131e-5
-1.216, 2.121e-5
-1.217, 2.091e-5
-1.218, 2.093e-5
-1.219, 2.114e-5
-1.220, 2.157e-5
-1.221, 2.170e-5
-1.222, 2.130e-5
-1.223, 2.137e-5
-1.224, 2.167e-5
-1.225, 2.202e-5
-1.226, 2.216e-5
-1.227, 2.182e-5
-1.228, 2.200e-5
-1.229, 2.226e-5
-1.230, 2.263e-5
-1.231, 2.272e-5
-1.232, 2.236e-5
-1.233, 2.241e-5
-1.234, 2.277e-5
-1.235, 2.316e-5
-1.236, 2.331e-5
-1.237, 2.310e-5
-1.238, 2.304e-5
-1.239, 2.344e-5
-1.240, 2.386e-5
-1.241, 2.397e-5
-1.242, 2.388e-5
-1.243, 2.373e-5
-1.244, 2.417e-5
-1.245, 2.463e-5
-1.246, 2.484e-5
-1.247, 2.472e-5
-1.248, 2.464e-5
-1.249, 2.506e-5
-1.250, 2.564e-5
-1.251, 2.574e-5
-1.252, 2.563e-5
-1.253, 2.566e-5
-1.254, 2.612e-5
-1.255, 2.673e-5
-1.256, 2.683e-5
-1.257, 2.683e-5
-1.258, 2.684e-5
-1.259, 2.722e-5
-1.260, 2.786e-5
-1.261, 2.819e-5
-1.262, 2.804e-5
-1.263, 2.823e-5
-1.264, 2.860e-5
-1.265, 2.918e-5
-1.266, 2.967e-5
-1.267, 2.949e-5
-1.268, 2.968e-5
-1.269, 3.015e-5
-1.270, 3.081e-5
-1.271, 3.137e-5
-1.272, 3.120e-5
-1.273, 3.132e-5
-1.274, 3.200e-5
-1.275, 3.260e-5
-1.276, 3.313e-5
-1.277, 3.319e-5
-1.278, 3.330e-5
-1.279, 3.402e-5
-1.280, 3.473e-5
-1.281, 3.526e-5
-1.282, 3.540e-5
-1.283, 3.557e-5
-1.284, 3.619e-5
-1.285, 3.706e-5
-1.286, 3.770e-5
-1.287, 3.792e-5
-1.288, 3.806e-5
-1.289, 3.875e-5
-1.290, 3.979e-5
-1.291, 4.044e-5
-1.292, 4.071e-5
-1.293, 4.099e-5
-1.294, 4.177e-5
-1.295, 4.283e-5
-1.296, 4.357e-5
-1.297, 4.384e-5
-1.298, 4.431e-5
-1.299, 4.510e-5
-1.300, 4.618e-5
-1.301, 4.721e-5
-1.302, 4.747e-5
-1.303, 4.810e-5
-1.304, 4.886e-5
-1.305, 5.000e-5
-1.306, 5.117e-5
-1.307, 5.156e-5
-1.308, 5.219e-5
-1.309, 5.319e-5
-1.310, 5.439e-5
-1.311, 5.564e-5
-1.312, 5.616e-5
-1.313, 5.681e-5
-1.314, 5.798e-5
-1.315, 5.925e-5
-1.316, 6.059e-5
-1.317, 6.134e-5
-1.318, 6.207e-5
-1.319, 6.339e-5
-1.320, 6.480e-5
-1.321, 6.610e-5
-1.322, 6.721e-5
-1.323, 6.796e-5
-1.324, 6.933e-5
-1.325, 7.095e-5
-1.326, 7.246e-5
-1.327, 7.357e-5
-1.328, 7.456e-5
-1.329, 7.602e-5
-1.330, 7.785e-5
-1.331, 7.942e-5
-1.332, 8.072e-5
-1.333, 8.194e-5
-1.334, 8.338e-5
-1.335, 8.546e-5
-1.336, 8.720e-5
-1.337, 8.859e-5
-1.338, 8.998e-5
-1.339, 9.161e-5
-1.340, 9.370e-5
-1.341, 9.573e-5
-1.342, 9.729e-5
-1.343, 9.880e-5
-1.344, 1.006e-4
-1.345, 1.029e-4
-1.346, 1.051e-4
-1.347, 1.068e-4
-1.348, 1.084e-4
-1.349, 1.105e-4
-1.350, 1.129e-4
-1.351, 1.153e-4
-1.352, 1.171e-4
-1.353, 1.189e-4
-1.354, 1.213e-4
-1.355, 1.236e-4
-1.356, 1.262e-4
-1.357, 1.283e-4
-1.358, 1.303e-4
-1.359, 1.329e-4
-1.360, 1.354e-4
-1.361, 1.382e-4
-1.362, 1.406e-4
-1.363, 1.427e-4
-1.364, 1.452e-4
-1.365, 1.482e-4
-1.366, 1.512e-4
-1.367, 1.537e-4
-1.368, 1.560e-4
-1.369, 1.588e-4
-1.370, 1.621e-4
-1.371, 1.652e-4
-1.372, 1.678e-4
-1.373, 1.704e-4
-1.374, 1.734e-4
-1.375, 1.768e-4
-1.376, 1.801e-4
-1.377, 1.829e-4
-1.378, 1.858e-4
-1.379, 1.889e-4
-1.380, 1.925e-4
-1.381, 1.960e-4
-1.382, 1.993e-4
-1.383, 2.021e-4
-1.384, 2.053e-4
-1.385, 2.092e-4
-1.386, 2.130e-4
-1.387, 2.161e-4
-1.388, 2.195e-4
-1.389, 2.230e-4
-1.390, 2.269e-4
-1.391, 2.309e-4
-1.392, 2.343e-4
-1.393, 2.378e-4
-1.394, 2.415e-4
-1.395, 2.457e-4
-1.396, 2.498e-4
-1.397, 2.536e-4
-1.398, 2.571e-4
-1.399, 2.610e-4
-1.400, 2.653e-4
-1.401, 2.698e-4
-1.402, 2.739e-4
-1.403, 2.775e-4
-1.404, 2.815e-4
-1.405, 2.861e-4
-1.406, 2.908e-4
-1.407, 2.949e-4
-1.408, 2.988e-4
-1.409, 3.032e-4
-1.410, 3.080e-4
-1.411, 3.128e-4
-1.412, 3.173e-4
-1.413, 3.215e-4
-1.414, 3.255e-4
-1.415, 3.309e-4
-1.416, 3.359e-4
-1.417, 3.402e-4
-1.418, 3.448e-4
-1.419, 3.495e-4
-1.420, 3.549e-4
-1.421, 3.598e-4
-1.422, 3.648e-4
-1.423, 3.695e-4
-1.424, 3.743e-4
-1.425, 3.796e-4
-1.426, 3.850e-4
-1.427, 3.904e-4
-1.428, 3.952e-4
-1.429, 4.001e-4
-1.430, 4.056e-4
-1.431, 4.115e-4
-1.432, 4.168e-4
-1.433, 4.218e-4
-1.434, 4.270e-4
-1.435, 4.328e-4
-1.436, 4.388e-4
-1.437, 4.441e-4
-1.438, 4.494e-4
-1.439, 4.550e-4
-1.440, 4.607e-4
-1.441, 4.670e-4
-1.442, 4.728e-4
-1.443, 4.781e-4
-1.444, 4.841e-4
-1.445, 4.903e-4
-1.446, 4.962e-4
-1.447, 5.027e-4
-1.448, 5.083e-4
-1.449, 5.142e-4
-1.450, 5.208e-4
-1.451, 5.273e-4
-1.452, 5.335e-4
-1.453, 5.396e-4
-1.454, 5.455e-4
-1.455, 5.525e-4
-1.456, 5.591e-4
-1.457, 5.658e-4
-1.458, 5.722e-4
-1.459, 5.783e-4
-1.460, 5.854e-4
-1.461, 5.925e-4
-1.462, 5.991e-4
-1.463, 6.061e-4
-1.464, 6.127e-4
-1.465, 6.194e-4
-1.466, 6.268e-4
-1.467, 6.340e-4
-1.468, 6.410e-4
-1.469, 6.480e-4
-1.470, 6.552e-4
-1.471, 6.632e-4
-1.472, 6.703e-4
-1.473, 6.777e-4
-1.474, 6.846e-4
-1.475, 6.928e-4
-1.476, 7.012e-4
-1.477, 7.083e-4
-1.478, 7.157e-4
-1.479, 7.231e-4
-1.480, 7.310e-4
-1.481, 7.393e-4
-1.482, 7.478e-4
-1.483, 7.553e-4
-1.484, 7.633e-4
-1.485, 7.716e-4
-1.486, 7.803e-4
-1.487, 7.889e-4
-1.488, 7.974e-4
-1.489, 8.054e-4
-1.490, 8.142e-4
-1.491, 8.234e-4
-1.492, 8.318e-4
-1.493, 8.403e-4
-1.494, 8.488e-4
-1.495, 8.584e-4
-1.496, 8.672e-4
-1.497, 8.770e-4
-1.498, 8.860e-4
-1.499, 8.950e-4
-1.500, 9.047e-4
-1.501, 9.142e-4
-1.502, 9.240e-4
-1.503, 9.339e-4
-1.504, 9.429e-4
-1.505, 9.529e-4
-1.506, 9.635e-4
-1.507, 9.737e-4
-1.508, 9.835e-4
-1.509, 9.942e-4
-1.510, 1.004e-3
-1.511, 1.015e-3
-1.512, 1.027e-3
-1.513, 1.037e-3
-1.514, 1.048e-3
-1.515, 1.059e-3
-1.516, 1.069e-3
-1.517, 1.081e-3
-1.518, 1.092e-3
-1.519, 1.104e-3
-1.520, 1.115e-3
-1.521, 1.127e-3
-1.522, 1.140e-3
-1.523, 1.151e-3
-1.524, 1.162e-3
-1.525, 1.175e-3
-1.526, 1.188e-3
-1.527, 1.200e-3
-1.528, 1.212e-3
-1.529, 1.225e-3
-1.530, 1.238e-3
-1.531, 1.251e-3
-1.532, 1.265e-3
-1.533, 1.278e-3
-1.534, 1.291e-3
-1.535, 1.305e-3
-1.536, 1.319e-3
-1.537, 1.334e-3
-1.538, 1.348e-3
-1.539, 1.362e-3
-1.540, 1.376e-3
-1.541, 1.391e-3
-1.542, 1.406e-3
-1.543, 1.421e-3
-1.544, 1.435e-3
-1.545, 1.452e-3
-1.546, 1.467e-3
-1.547, 1.483e-3
-1.548, 1.500e-3
-1.549, 1.516e-3
-1.550, 1.533e-3
-1.551, 1.551e-3
-1.552, 1.568e-3
-1.553, 1.586e-3
-1.554, 1.603e-3
-1.555, 1.619e-3
-1.556, 1.637e-3
-1.557, 1.655e-3
-1.558, 1.674e-3
-1.559, 1.693e-3
-1.560, 1.710e-3
-1.561, 1.731e-3
-1.562, 1.750e-3
-1.563, 1.771e-3
-1.564, 1.790e-3
-1.565, 1.809e-3
-1.566, 1.832e-3
-1.567, 1.852e-3
-1.568, 1.873e-3
-1.569, 1.895e-3
-1.570, 1.916e-3
-1.571, 1.938e-3
-1.572, 1.962e-3
-1.573, 1.984e-3
-1.574, 2.006e-3
-1.575, 2.032e-3
-1.576, 2.056e-3
-1.577, 2.082e-3
-1.578, 2.106e-3
-1.579, 2.130e-3
-1.580, 2.157e-3
-1.581, 2.180e-3
-1.582, 2.203e-3
-1.583, 2.233e-3
-1.584, 2.259e-3
-1.585, 2.285e-3
-1.586, 2.315e-3
-1.587, 2.343e-3
-1.588, 2.373e-3
-1.589, 2.400e-3
-1.590, 2.426e-3
-1.591, 2.456e-3
-1.592, 2.485e-3
-1.593, 2.518e-3
-1.594, 2.549e-3
-1.595, 2.580e-3
-1.596, 2.611e-3
-1.597, 2.644e-3
-1.598, 2.677e-3
-1.599, 2.710e-3
-1.600, 2.744e-3
-1.601, 2.778e-3
-1.602, 2.813e-3
-1.603, 2.848e-3
-1.604, 2.885e-3
-1.605, 2.919e-3
-1.606, 2.960e-3
-1.607, 2.997e-3
-1.608, 3.033e-3
-1.609, 3.076e-3
-1.610, 3.112e-3
-1.611, 3.155e-3
-1.612, 3.193e-3
-1.613, 3.236e-3
-1.614, 3.276e-3
-1.615, 3.319e-3
-1.616, 3.369e-3
-1.617, 3.413e-3
-1.618, 3.460e-3
-1.619, 3.503e-3
-1.620, 3.547e-3
-1.621, 3.594e-3
-1.622, 3.640e-3
-1.623, 3.694e-3
-1.624, 3.742e-3
-1.625, 3.787e-3
-1.626, 3.839e-3
-1.627, 3.892e-3
-1.628, 3.942e-3
-1.629, 3.994e-3
-1.630, 4.043e-3
-1.631, 4.098e-3
-1.632, 4.156e-3
-1.633, 4.208e-3
-1.634, 4.266e-3
-1.635, 4.321e-3
-1.636, 4.380e-3
-1.637, 4.439e-3
-1.638, 4.493e-3
-1.639, 4.550e-3
-1.640, 4.610e-3
-1.641, 4.665e-3
-1.642, 4.727e-3
-1.643, 4.798e-3
-1.644, 4.861e-3
-1.645, 4.921e-3
-1.646, 4.978e-3
-1.647, 5.039e-3
-1.648, 5.096e-3
-1.649, 5.165e-3
-1.650, 5.228e-3
-1.651, 5.293e-3
-1.652, 5.360e-3
-1.653, 5.432e-3
-1.654, 5.499e-3
-1.655, 5.566e-3
-1.656, 5.626e-3
-1.657, 5.692e-3
-1.658, 5.767e-3
-1.659, 5.831e-3
-1.660, 5.904e-3
-1.661, 5.971e-3
-1.662, 6.042e-3
-1.663, 6.109e-3
-1.664, 6.183e-3
-1.665, 6.256e-3
-1.666, 6.315e-3
-1.667, 6.390e-3
-1.668, 6.462e-3
-1.669, 6.526e-3
-1.670, 6.632e-3
-1.671, 6.702e-3
-1.672, 6.784e-3
-1.673, 6.852e-3
-1.674, 6.905e-3
-1.675, 6.971e-3
-1.676, 7.030e-3
-1.677, 7.090e-3
-1.678, 7.166e-3
-1.679, 7.242e-3
-1.680, 7.320e-3
-1.681, 7.415e-3
-1.682, 7.488e-3
-1.683, 7.561e-3
-1.684, 7.618e-3
-1.685, 7.685e-3
-1.686, 7.769e-3
-1.687, 7.847e-3
-1.688, 7.929e-3
-1.689, 8.040e-3
-1.690, 8.107e-3
-1.691, 8.184e-3
-1.692, 8.281e-3
-1.693, 8.355e-3
-1.694, 8.435e-3
-1.695, 8.519e-3
-1.696, 8.589e-3
-1.697, 8.662e-3
-1.698, 8.733e-3
-1.699, 8.803e-3
-1.700, 8.822e-3
-1.699, 8.755e-3
-1.698, 8.694e-3
-1.697, 8.613e-3
-1.696, 8.577e-3
-1.695, 8.503e-3
-1.694, 8.442e-3
-1.693, 8.341e-3
-1.692, 8.278e-3
-1.691, 8.198e-3
-1.690, 8.105e-3
-1.689, 8.027e-3
-1.688, 7.940e-3
-1.687, 7.849e-3
-1.686, 7.775e-3
-1.685, 7.713e-3
-1.684, 7.648e-3
-1.683, 7.556e-3
-1.682, 7.477e-3
-1.681, 7.402e-3
-1.680, 7.328e-3
-1.679, 7.244e-3
-1.678, 7.166e-3
-1.677, 7.098e-3
-1.676, 7.004e-3
-1.675, 6.928e-3
-1.674, 6.856e-3
-1.673, 6.775e-3
-1.672, 6.710e-3
-1.671, 6.619e-3
-1.670, 6.569e-3
-1.669, 6.484e-3
-1.668, 6.402e-3
-1.667, 6.320e-3
-1.666, 6.231e-3
-1.665, 6.150e-3
-1.664, 6.084e-3
-1.663, 6.004e-3
-1.662, 5.943e-3
-1.661, 5.907e-3
-1.660, 5.821e-3
-1.659, 5.758e-3
-1.658, 5.678e-3
-1.657, 5.601e-3
-1.656, 5.532e-3
-1.655, 5.478e-3
-1.654, 5.399e-3
-1.653, 5.334e-3
-1.652, 5.280e-3
-1.651, 5.233e-3
-1.650, 5.172e-3
-1.649, 5.106e-3
-1.648, 5.050e-3
-1.647, 4.980e-3
-1.646, 4.924e-3
-1.645, 4.879e-3
-1.644, 4.819e-3
-1.643, 4.761e-3
-1.642, 4.707e-3
-1.641, 4.658e-3
-1.640, 4.594e-3
-1.639, 4.534e-3
-1.638, 4.474e-3
-1.637, 4.414e-3
-1.636, 4.362e-3
-1.635, 4.307e-3
-1.634, 4.252e-3
-1.633, 4.201e-3
-1.632, 4.146e-3
-1.631, 4.092e-3
-1.630, 4.030e-3
-1.629, 3.973e-3
-1.628, 3.913e-3
-1.627, 3.861e-3
-1.626, 3.811e-3
-1.625, 3.762e-3
-1.624, 3.716e-3
-1.623, 3.667e-3
-1.622, 3.620e-3
-1.621, 3.577e-3
-1.620, 3.528e-3
-1.619, 3.480e-3
-1.618, 3.434e-3
-1.617, 3.396e-3
-1.616, 3.350e-3
-1.615, 3.302e-3
-1.614, 3.264e-3
-1.613, 3.221e-3
-1.612, 3.182e-3
-1.611, 3.146e-3
-1.610, 3.111e-3
-1.609, 3.076e-3
-1.608, 3.035e-3
-1.607, 2.999e-3
-1.606, 2.957e-3
-1.605, 2.914e-3
-1.604, 2.875e-3
-1.603, 2.839e-3
-1.602, 2.803e-3
-1.601, 2.763e-3
-1.600, 2.723e-3
-1.599, 2.686e-3
-1.598, 2.650e-3
-1.597, 2.613e-3
-1.596, 2.578e-3
-1.595, 2.542e-3
-1.594, 2.505e-3
-1.593, 2.472e-3
-1.592, 2.437e-3
-1.591, 2.402e-3
-1.590, 2.368e-3
-1.589, 2.334e-3
-1.588, 2.302e-3
-1.587, 2.270e-3
-1.586, 2.241e-3
-1.585, 2.206e-3
-1.584, 2.174e-3
-1.583, 2.145e-3
-1.582, 2.119e-3
-1.581, 2.088e-3
-1.580, 2.058e-3
-1.579, 2.030e-3
-1.578, 2.003e-3
-1.577, 1.974e-3
-1.576, 1.947e-3
-1.575, 1.920e-3
-1.574, 1.890e-3
-1.573, 1.864e-3
-1.572, 1.837e-3
-1.571, 1.807e-3
-1.570, 1.783e-3
-1.569, 1.757e-3
-1.568, 1.730e-3
-1.567, 1.706e-3
-1.566, 1.681e-3
-1.565, 1.656e-3
-1.564, 1.631e-3
-1.563, 1.608e-3
-1.562, 1.584e-3
-1.561, 1.561e-3
-1.560, 1.539e-3
-1.559, 1.515e-3
-1.558, 1.493e-3
-1.557, 1.471e-3
-1.556, 1.449e-3
-1.555, 1.428e-3
-1.554, 1.406e-3
-1.553, 1.384e-3
-1.552, 1.365e-3
-1.551, 1.344e-3
-1.550, 1.323e-3
-1.549, 1.304e-3
-1.548, 1.284e-3
-1.547, 1.265e-3
-1.546, 1.247e-3
-1.545, 1.228e-3
-1.544, 1.210e-3
-1.543, 1.192e-3
-1.542, 1.175e-3
-1.541, 1.157e-3
-1.540, 1.140e-3
-1.539, 1.122e-3
-1.538, 1.105e-3
-1.537, 1.090e-3
-1.536, 1.073e-3
-1.535, 1.056e-3
-1.534, 1.040e-3
-1.533, 1.024e-3
-1.532, 1.009e-3
-1.531, 9.940e-4
-1.530, 9.776e-4
-1.529, 9.616e-4
-1.528, 9.471e-4
-1.527, 9.324e-4
-1.526, 9.176e-4
-1.525, 9.032e-4
-1.524, 8.888e-4
-1.523, 8.743e-4
-1.522, 8.616e-4
-1.521, 8.473e-4
-1.520, 8.339e-4
-1.519, 8.213e-4
-1.518, 8.076e-4
-1.517, 7.950e-4
-1.516, 7.831e-4
-1.515, 7.696e-4
-1.514, 7.576e-4
-1.513, 7.468e-4
-1.512, 7.350e-4
-1.511, 7.233e-4
-1.510, 7.113e-4
-1.509, 6.996e-4
-1.508, 6.886e-4
-1.507, 6.772e-4
-1.506, 6.661e-4
-1.505, 6.551e-4
-1.504, 6.444e-4
-1.503, 6.334e-4
-1.502, 6.232e-4
-1.501, 6.134e-4
-1.500, 6.029e-4
-1.499, 5.926e-4
-1.498, 5.827e-4
-1.497, 5.735e-4
-1.496, 5.642e-4
-1.495, 5.544e-4
-1.494, 5.448e-4
-1.493, 5.356e-4
-1.492, 5.268e-4
-1.491, 5.182e-4
-1.490, 5.093e-4
-1.489, 5.001e-4
-1.488, 4.916e-4
-1.487, 4.835e-4
-1.486, 4.754e-4
-1.485, 4.669e-4
-1.484, 4.584e-4
-1.483, 4.506e-4
-1.482, 4.432e-4
-1.481, 4.357e-4
-1.480, 4.283e-4
-1.479, 4.204e-4
-1.478, 4.131e-4
-1.477, 4.063e-4
-1.476, 3.994e-4
-1.475, 3.921e-4
-1.474, 3.849e-4
-1.473, 3.782e-4
-1.472, 3.719e-4
-1.471, 3.656e-4
-1.470, 3.590e-4
-1.469, 3.525e-4
-1.468, 3.463e-4
-1.467, 3.403e-4
-1.466, 3.346e-4
-1.465, 3.286e-4
-1.464, 3.222e-4
-1.463, 3.164e-4
-1.462, 3.111e-4
-1.461, 3.054e-4
-1.460, 3.001e-4
-1.459, 2.940e-4
-1.458, 2.889e-4
-1.457, 2.837e-4
-1.456, 2.790e-4
-1.455, 2.738e-4
-1.454, 2.683e-4
-1.453, 2.634e-4
-1.452, 2.589e-4
-1.451, 2.542e-4
-1.450, 2.494e-4
-1.449, 2.442e-4
-1.448, 2.398e-4
-1.447, 2.356e-4
-1.446, 2.312e-4
-1.445, 2.267e-4
-1.444, 2.221e-4
-1.443, 2.177e-4
-1.442, 2.138e-4
-1.441, 2.100e-4
-1.440, 2.059e-4
-1.439, 2.015e-4
-1.438, 1.977e-4
-1.437, 1.943e-4
-1.436, 1.906e-4
-1.435, 1.866e-4
-1.434, 1.826e-4
-1.433, 1.789e-4
-1.432, 1.758e-4
-1.431, 1.726e-4
-1.430, 1.690e-4
-1.429, 1.653e-4
-1.428, 1.619e-4
-1.427, 1.588e-4
-1.426, 1.559e-4
-1.425, 1.525e-4
-1.424, 1.491e-4
-1.423, 1.460e-4
-1.422, 1.432e-4
-1.421, 1.406e-4
-1.420, 1.375e-4
-1.419, 1.342e-4
-1.418, 1.314e-4
-1.417, 1.289e-4
-1.416, 1.265e-4
-1.415, 1.237e-4
-1.414, 1.206e-4
-1.413, 1.180e-4
-1.412, 1.159e-4
-1.411, 1.135e-4
-1.410, 1.110e-4
-1.409, 1.081e-4
-1.408, 1.058e-4
-1.407, 1.037e-4
-1.406, 1.015e-4
-1.405, 9.923e-5
-1.404, 9.675e-5
-1.403, 9.418e-5
-1.402, 9.246e-5
-1.401, 9.049e-5
-1.400, 8.841e-5
-1.399, 8.586e-5
-1.398, 8.375e-5
-1.397, 8.203e-5
-1.396, 8.035e-5
-1.395, 7.820e-5
-1.394, 7.595e-5
-1.393, 7.397e-5
-1.392, 7.246e-5
-1.391, 7.092e-5
-1.390, 6.904e-5
-1.389, 6.701e-5
-1.388, 6.515e-5
-1.387, 6.360e-5
-1.386, 6.222e-5
-1.385, 6.049e-5
-1.384, 5.861e-5
-1.383, 5.677e-5
-1.382, 5.545e-5
-1.381, 5.429e-5
-1.380, 5.267e-5
-1.379, 5.086e-5
-1.378, 4.935e-5
-1.377, 4.806e-5
-1.376, 4.704e-5
-1.375, 4.562e-5
-1.374, 4.375e-5
-1.373, 4.247e-5
-1.372, 4.132e-5
-1.371, 4.032e-5
-1.370, 3.894e-5
-1.369, 3.740e-5
-1.368, 3.598e-5
-1.367, 3.497e-5
-1.366, 3.406e-5
-1.365, 3.297e-5
-1.364, 3.133e-5
-1.363, 3.020e-5
-1.362, 2.919e-5
-1.361, 2.853e-5
-1.360, 2.752e-5
-1.359, 2.600e-5
-1.358, 2.458e-5
-1.357, 2.390e-5
-1.356, 2.333e-5
-1.355, 2.214e-5
-1.354, 2.085e-5
-1.353, 1.971e-5
-1.352, 1.914e-5
-1.351, 1.854e-5
-1.350, 1.735e-5
-1.349, 1.638e-5
-1.348, 1.558e-5
-1.347, 1.451e-5
-1.346, 1.425e-5
-1.345, 1.326e-5
-1.344, 1.215e-5
-1.343, 1.120e-5
-1.342, 1.051e-5
-1.341, 1.031e-5
-1.340, 9.557e-6
-1.339, 8.356e-6
-1.338, 7.498e-6
-1.337, 6.831e-6
-1.336, 6.826e-6
-1.335, 6.026e-6
-1.334, 5.150e-6
-1.333, 4.210e-6
-1.332, 3.599e-6
-1.331, 3.301e-6
-1.330, 2.723e-6
-1.329, 1.708e-6
-1.328, 9.252e-7
-1.327, 5.592e-7
-1.326, 2.119e-7
-1.325, -1.176e-7
-1.324, -1.140e-6
-1.323, -1.838e-6
-1.322, -2.276e-6
-1.321, -2.548e-6
-1.320, -2.835e-6
-1.319, -3.762e-6
-1.318, -4.632e-6
-1.317, -4.735e-6
-1.316, -4.923e-6
-1.315, -5.393e-6
-1.314, -6.120e-6
-1.313, -6.872e-6
-1.312, -7.157e-6
-1.311, -7.221e-6
-1.310, -7.655e-6
-1.309, -8.397e-6
-1.308, -8.912e-6
-1.307, -9.317e-6
-1.306, -9.304e-6
-1.305, -9.591e-6
-1.304, -1.027e-5
-1.303, -1.093e-5
-1.302, -1.123e-5
-1.301, -1.111e-5
-1.300, -1.129e-5
-1.299, -1.209e-5
-1.298, -1.262e-5
-1.297, -1.289e-5
-1.296, -1.279e-5
-1.295, -1.296e-5
-1.294, -1.371e-5
-1.293, -1.428e-5
-1.292, -1.437e-5
-1.291, -1.440e-5
-1.290, -1.441e-5
-1.289, -1.507e-5
-1.288, -1.556e-5
-1.287, -1.573e-5
-1.286, -1.583e-5
-1.285, -1.570e-5
-1.284, -1.628e-5
-1.283, -1.700e-5
-1.282, -1.692e-5
-1.281, -1.695e-5
-1.280, -1.699e-5
-1.279, -1.744e-5
-1.278, -1.809e-5
-1.277, -1.805e-5
-1.276, -1.808e-5
-1.275, -1.805e-5
-1.274, -1.855e-5
-1.273, -1.913e-5
-1.272, -1.912e-5
-1.271, -1.905e-5
-1.270, -1.909e-5
-1.269, -1.951e-5
-1.268, -1.999e-5
-1.267, -2.018e-5
-1.266, -1.999e-5
-1.265, -1.994e-5
-1.264, -2.033e-5
-1.263, -2.091e-5
-1.262, -2.109e-5
-1.261, -2.076e-5
-1.260, -2.079e-5
-1.259, -2.126e-5
-1.258, -2.161e-5
-1.257, -2.181e-5
-1.256, -2.159e-5
-1.255, -2.152e-5
-1.254, -2.200e-5
-1.253, -2.245e-5
-1.252, -2.249e-5
-1.251, -2.236e-5
-1.250, -2.225e-5
-1.249, -2.267e-5
-1.248, -2.313e-5
-1.247, -2.315e-5
-1.246, -2.304e-5
-1.245, -2.280e-5
-1.244, -2.317e-5
-1.243, -2.382e-5
-1.242, -2.380e-5
-1.241, -2.364e-5
-1.240, -2.347e-5
-1.239, -2.379e-5
-1.238, -2.438e-5
-1.237, -2.433e-5
-1.236, -2.416e-5
-1.235, -2.414e-5
-1.234, -2.434e-5
-1.233, -2.494e-5
-1.232, -2.498e-5
-1.231, -2.485e-5
-1.230, -2.491e-5
-1.229, -2.537e-5
-1.228, -2.550e-5
-1.227, -2.568e-5
-1.226, -2.548e-5
-1.225, -2.526e-5
-1.224, -2.556e-5
-1.223, -2.600e-5
-1.222, -2.622e-5
-1.221, -2.592e-5
-1.220, -2.572e-5
-1.219, -2.610e-5
-1.218, -2.648e-5
-1.217, -2.666e-5
-1.216, -2.635e-5
-1.215, -2.621e-5
-1.214, -2.659e-5
-1.213, -2.690e-5
-1.212, -2.708e-5
-1.211, -2.689e-5
-1.210, -2.670e-5
-1.209, -2.699e-5
-1.208, -2.742e-5
-1.207, -2.760e-5
-1.206, -2.738e-5
-1.205, -2.715e-5
-1.204, -2.745e-5
-1.203, -2.792e-5
-1.202, -2.804e-5
-1.201, -2.791e-5
-1.200, -2.765e-5
-1.199, -2.789e-5
-1.198, -2.845e-5
-1.197, -2.861e-5
-1.196, -2.832e-5
-1.195, -2.827e-5
-1.194, -2.842e-5
-1.193, -2.890e-5
-1.192, -2.899e-5
-1.191, -2.884e-5
-1.190, -2.872e-5
-1.189, -2.884e-5
-1.188, -2.927e-5
-1.187, -2.964e-5
-1.186, -2.932e-5
-1.185, -2.926e-5
-1.184, -2.936e-5
-1.183, -2.979e-5
-1.182, -3.017e-5
-1.181, -2.978e-5
-1.180, -2.965e-5
-1.179, -2.988e-5
-1.178, -3.043e-5
-1.177, -3.066e-5
-1.176, -3.037e-5
-1.175, -3.018e-5
-1.174, -3.040e-5
-1.173, -3.084e-5
-1.172, -3.111e-5
-1.171, -3.096e-5
-1.170, -3.077e-5
-1.169, -3.090e-5
-1.168, -3.134e-5
-1.167, -3.159e-5
-1.166, -3.154e-5
-1.165, -3.128e-5
-1.164, -3.141e-5
-1.163, -3.201e-5
-1.162, -3.219e-5
-1.161, -3.218e-5
-1.160, -3.185e-5
-1.159, -3.198e-5
-1.158, -3.258e-5
-1.157, -3.271e-5
-1.156, -3.267e-5
-1.155, -3.248e-5
-1.154, -3.253e-5
-1.153, -3.308e-5
-1.152, -3.332e-5
-1.151, -3.325e-5
-1.150, -3.309e-5
-1.149, -3.308e-5
-1.148, -3.362e-5
-1.147, -3.393e-5
-1.146, -3.384e-5
-1.145, -3.365e-5
-1.144, -3.374e-5
-1.143, -3.421e-5
-1.142, -3.461e-5
-1.141, -3.439e-5
-1.140, -3.418e-5
-1.139, -3.446e-5
-1.138, -3.476e-5
-1.137, -3.511e-5
-1.136, -3.502e-5
-1.135, -3.480e-5
-1.134, -3.505e-5
-1.133, -3.533e-5
-1.132, -3.574e-5
-1.131, -3.578e-5
-1.130, -3.544e-5
-1.129, -3.561e-5
-1.128, -3.591e-5
-1.127, -3.624e-5
-1.126, -3.640e-5
-1.125, -3.599e-5
-1.124, -3.605e-5
-1.123, -3.663e-5
-1.122, -3.685e-5
-1.121, -3.691e-5
-1.120, -3.651e-5
-1.119, -3.656e-5
-1.118, -3.721e-5
-1.117, -3.742e-5
-1.116, -3.733e-5
-1.115, -3.720e-5
-1.114, -3.706e-5
-1.113, -3.765e-5
-1.112, -3.789e-5
-1.111, -3.781e-5
-1.110, -3.769e-5
-1.109, -3.749e-5
-1.108, -3.807e-5
-1.107, -3.848e-5
-1.106, -3.823e-5
-1.105, -3.818e-5
-1.104, -3.805e-5
-1.103, -3.839e-5
-1.102, -3.891e-5
-1.101, -3.874e-5
-1.100, -3.861e-5
-1.099, -3.859e-5
-1.098, -3.892e-5
-1.097, -3.934e-5
-1.096, -3.933e-5
-1.095, -3.903e-5
-1.094, -3.904e-5
-1.093, -3.941e-5
-1.092, -3.977e-5
-1.091, -3.986e-5
-1.090, -3.955e-5
-1.089, -3.946e-5
-1.088, -3.990e-5
-1.087, -4.019e-5
-1.086, -4.030e-5
-1.085, -4.002e-5
-1.084, -3.971e-5
-1.083, -4.042e-5
-1.082, -4.070e-5
-1.081, -4.067e-5
-1.080, -4.040e-5
-1.079, -4.033e-5
-1.078, -4.077e-5
-1.077, -4.105e-5
-1.076, -4.113e-5
-1.075, -4.090e-5
-1.074, -4.080e-5
-1.073, -4.113e-5
-1.072, -4.147e-5
-1.071, -4.152e-5
-1.070, -4.138e-5
-1.069, -4.116e-5
-1.068, -4.151e-5
-1.067, -4.200e-5
-1.066, -4.195e-5
-1.065, -4.181e-5
-1.064, -4.154e-5
-1.063, -4.195e-5
-1.062, -4.247e-5
-1.061, -4.243e-5
-1.060, -4.219e-5
-1.059, -4.220e-5
-1.058, -4.240e-5
-1.057, -4.300e-5
-1.056, -4.292e-5
-1.055, -4.272e-5
-1.054, -4.265e-5
-1.053, -4.289e-5
-1.052, -4.343e-5
-1.051, -4.353e-5
-1.050, -4.312e-5
-1.049, -4.317e-5
-1.048, -4.353e-5
-1.047, -4.395e-5
-1.046, -4.410e-5
-1.045, -4.380e-5
-1.044, -4.374e-5
-1.043, -4.418e-5
-1.042, -4.458e-5
-1.041, -4.472e-5
-1.040, -4.447e-5
-1.039, -4.439e-5
-1.038, -4.481e-5
-1.037, -4.524e-5
-1.036, -4.538e-5
-1.035, -4.526e-5
-1.034, -4.505e-5
-1.033, -4.539e-5
-1.032, -4.592e-5
-1.031, -4.604e-5
-1.030, -4.597e-5
-1.029, -4.573e-5
-1.028, -4.607e-5
-1.027, -4.667e-5
-1.026, -4.678e-5
-1.025, -4.661e-5
-1.024, -4.653e-5
-1.023, -4.673e-5
-1.022, -4.745e-5
-1.021, -4.751e-5
-1.020, -4.750e-5
-1.019, -4.741e-5
-1.018, -4.760e-5
-1.017, -4.823e-5
-1.016, -4.834e-5
-1.015, -4.812e-5
-1.014, -4.807e-5
-1.013, -4.830e-5
-1.012, -4.888e-5
-1.011, -4.923e-5
-1.010, -4.903e-5
-1.009, -4.897e-5
-1.008, -4.917e-5
-1.007, -4.968e-5
-1.006, -4.995e-5
-1.005, -4.965e-5
-1.004, -4.967e-5
-1.003, -4.999e-5
-1.002, -5.051e-5
-1.001, -5.079e-5
-1.000, -3.387e-5
-1.001, -2.750e-5
-1.002, -2.489e-5
-1.003, -2.309e-5
-1.004, -2.124e-5
-1.005, -1.914e-5
-1.006, -1.739e-5
-1.007, -1.597e-5
-1.008, -1.514e-5
-1.009, -1.409e-5
-1.010, -1.248e-5
-1.011, -1.120e-5
-1.012, -1.033e-5
-1.013, -9.701e-6
-1.014, -9.014e-6
-1.015, -7.725e-6
-1.016, -6.722e-6
-1.017, -6.029e-6
-1.018, -5.566e-6
-1.019, -5.152e-6
-1.020, -4.213e-6
-1.021, -3.154e-6
-1.022, -2.663e-6
-1.023, -2.372e-6
-1.024, -2.048e-6
-1.025, -1.241e-6
-1.026, -2.705e-7
-1.027, 9.669e-9
-1.028, 2.386e-7
-1.029, 5.227e-7
-1.030, 1.222e-6
-1.031, 2.034e-6
-1.032, 2.329e-6
-1.033, 2.403e-6
-1.034, 2.698e-6
-1.035, 3.181e-6
-1.036, 3.960e-6
-1.037, 4.298e-6
-1.038, 4.141e-6
-1.039, 4.512e-6
-1.040, 4.965e-6
-1.041, 5.656e-6
-1.042, 5.926e-6
-1.043, 5.780e-6
-1.044, 5.918e-6
-1.045, 6.480e-6
-1.046, 7.033e-6
-1.047, 7.334e-6
-1.048, 7.087e-6
-1.049, 7.277e-6
-1.050, 7.762e-6
-1.051, 8.251e-6
-1.052, 8.546e-6
-1.053, 8.367e-6
-1.054, 8.445e-6
-1.055, 8.844e-6
-1.056, 9.350e-6
-1.057, 9.506e-6
-1.058, 9.415e-6
-1.059, 9.373e-6
-1.060, 9.763e-6
-1.061, 1.039e-5
-1.062, 1.047e-5
-1.063, 1.041e-5
-1.064, 1.029e-5
-1.065, 1.066e-5
-1.066, 1.122e-5
-1.067, 1.130e-5
-1.068, 1.107e-5
-1.069, 1.115e-5
-1.070, 1.137e-5
-1.071, 1.202e-5
-1.072, 1.211e-5
-1.073, 1.194e-5
-1.074, 1.183e-5
-1.075, 1.223e-5
-1.076, 1.260e-5
-1.077, 1.284e-5
-1.078, 1.257e-5
-1.079, 1.251e-5
-1.080, 1.273e-5
-1.081, 1.310e-5
-1.082, 1.344e-5
-1.083, 1.303e-5
-1.084, 1.297e-5
-1.085, 1.327e-5
-1.086, 1.378e-5
-1.087, 1.392e-5
-1.088, 1.357e-5
-1.089, 1.343e-5
-1.090, 1.381e-5
-1.091, 1.414e-5
-1.092, 1.454e-5
-1.093, 1.407e-5
-1.094, 1.404e-5
-1.095, 1.429e-5
-1.096, 1.471e-5
-1.097, 1.480e-5
-1.098, 1.473e-5
-1.099, 1.456e-5
-1.100, 1.480e-5
-1.101, 1.531e-5
-1.102, 1.545e-5
-1.103, 1.505e-5
-1.104, 1.480e-5
-1.105, 1.508e-5
-1.106, 1.550e-5
-1.107, 1.567e-5
-1.108, 1.539e-5
-1.109, 1.525e-5
-1.110, 1.544e-5
-1.111, 1.582e-5
-1.112, 1.604e-5
-1.113, 1.578e-5
-1.114, 1.571e-5
-1.115, 1.569e-5
-1.116, 1.618e-5
-1.117, 1.648e-5
-1.118, 1.613e-5
-1.119, 1.601e-5
-1.120, 1.605e-5
-1.121, 1.644e-5
-1.122, 1.680e-5
-1.123, 1.647e-5
-1.124, 1.630e-5
-1.125, 1.642e-5
-1.126, 1.676e-5
-1.127, 1.708e-5
-1.128, 1.677e-5
-1.129, 1.652e-5
-1.130, 1.675e-5
-1.131, 1.704e-5
-1.132, 1.729e-5
-1.133, 1.712e-5
-1.134, 1.679e-5
-1.135, 1.705e-5
-1.136, 1.730e-5
-1.137, 1.753e-5
-1.138, 1.739e-5
-1.139, 1.704e-5
-1.140, 1.729e-5
-1.141, 1.757e-5
-1.142, 1.780e-5
-1.143, 1.767e-5
-1.144, 1.727e-5
-1.145, 1.744e-5
-1.146, 1.786e-5
-1.147, 1.802e-5
-1.148, 1.791e-5
-1.149, 1.757e-5
-1.150, 1.764e-5
-1.151, 1.816e-5
-1.152, 1.831e-5
-1.153, 1.813e-5
-1.154, 1.786e-5
-1.155, 1.792e-5
-1.156, 1.834e-5
-1.157, 1.861e-5
-1.158, 1.832e-5
-1.159, 1.815e-5
-1.160, 1.811e-5
-1.161, 1.847e-5
-1.162, 1.882e-5
-1.163, 1.867e-5
-1.164, 1.833e-5
-1.165, 1.836e-5
-1.166, 1.878e-5
-1.167, 1.908e-5
-1.168, 1.886e-5
-1.169, 1.848e-5
-1.170, 1.862e-5
-1.171, 1.890e-5
-1.172, 1.926e-5
-1.173, 1.911e-5
-1.174, 1.863e-5
-1.175, 1.890e-5
-1.176, 1.905e-5
-1.177, 1.955e-5
-1.178, 1.935e-5
-1.179, 1.885e-5
-1.180, 1.905e-5
-1.181, 1.932e-5
-1.182, 1.967e-5
-1.183, 1.959e-5
-1.184, 1.917e-5
-1.185, 1.911e-5
-1.186, 1.968e-5
-1.187, 1.985e-5
-1.188, 1.975e-5
-1.189, 1.941e-5
-1.190, 1.932e-5
-1.191, 1.994e-5
-1.192, 2.006e-5
-1.193, 1.991e-5
-1.194, 1.972e-5
-1.195, 1.954e-5
-1.196, 2.003e-5
-1.197, 2.036e-5
-1.198, 2.021e-5
-1.199, 1.994e-5
-1.200, 1.979e-5
-1.201, 2.023e-5
-1.202, 2.058e-5
-1.203, 2.045e-5
-1.204, 2.015e-5
-1.205, 2.011e-5
-1.206, 2.041e-5
-1.207, 2.090e-5
-1.208, 2.069e-5
-1.209, 2.035e-5
-1.210, 2.038e-5
-1.211, 2.068e-5
-1.212, 2.106e-5
-1.213, 2.098e-5
-1.214, 2.066e-5
-1.215, 2.068e-5
-1.216, 2.090e-5
-1.217, 2.130e-5
-1.218, 2.139e-5
-1.219, 2.090e-5
-1.220, 2.095e-5
-1.221, 2.126e-5
-1.222, 2.159e-5
-1.223, 2.169e-5
-1.224, 2.130e-5
-1.225, 2.123e-5
-1.226, 2.167e-5
-1.227, 2.190e-5
-1.228, 2.220e-5
-1.229, 2.178e-5
-1.230, 2.161e-5
-1.231, 2.205e-5
-1.232, 2.230e-5
-1.233, 2.230e-5
-1.234, 2.216e-5
-1.235, 2.204e-5
-1.236, 2.233e-5
-1.237, 2.280e-5
-1.238, 2.283e-5
-1.239, 2.260e-5
-1.240, 2.245e-5
-1.241, 2.281e-5
-1.242, 2.333e-5
-1.243, 2.332e-5
-1.244, 2.310e-5
-1.245, 2.303e-5
-1.246, 2.335e-5
-1.247, 2.391e-5
-1.248, 2.388e-5
-1.249, 2.357e-5
-1.250, 2.363e-5
-1.251, 2.391e-5
-1.252, 2.443e-5
-1.253, 2.453e-5
-1.254, 2.428e-5
-1.255, 2.433e-5
-1.256, 2.458e-5
-1.257, 2.508e-5
-1.258, 2.529e-5
-1.259, 2.497e-5
-1.260, 2.502e-5
-1.261, 2.538e-5
-1.262, 2.594e-5
-1.263, 2.610e-5
-1.264, 2.590e-5
-1.265, 2.579e-5
-1.266, 2.627e-5
-1.267, 2.682e-5
-1.268, 2.700e-5
-1.269, 2.692e-5
-1.270, 2.686e-5
-1.271, 2.728e-5
-1.272, 2.778e-5
-1.273, 2.800e-5
-1.274, 2.797e-5
-1.275, 2.790e-5
-1.276, 2.838e-5
-1.277, 2.901e-5
-1.278, 2.924e-5
-1.279, 2.924e-5
-1.280, 2.926e-5
-1.281, 2.970e-5
-1.282, 3.039e-5
-1.283, 3.063e-5
-1.284, 3.060e-5
-1.285, 3.070e-5
-1.286, 3.120e-5
-1.287, 3.189e-5
-1.288, 3.219e-5
-1.289, 3.215e-5
-1.290, 3.240e-5
-1.291, 3.277e-5
-1.292, 3.344e-5
-1.293, 3.403e-5
-1.294, 3.392e-5
-1.295, 3.421e-5
-1.296, 3.461e-5
-1.297, 3.538e-5
-1.298, 3.608e-5
-1.299, 3.605e-5
-1.300, 3.624e-5
-1.301, 3.684e-5
-1.302, 3.757e-5
-1.303, 3.835e-5
-1.304, 3.834e-5
-1.305, 3.857e-5
-1.306, 3.929e-5
-1.307, 4.007e-5
-1.308, 4.086e-5
-1.309, 4.102e-5
-1.310, 4.125e-5
-1.311, 4.206e-5
-1.312, 4.290e-5
-1.313, 4.364e-5
-1.314, 4.399e-5
-1.315, 4.432e-5
-1.316, 4.504e-5
-1.317, 4.615e-5
-1.318, 4.687e-5
-1.319, 4.741e-5
-1.320, 4.759e-5
-1.321, 4.848e-5
-1.322, 4.968e-5
-1.323, 5.052e-5
-1.324, 5.101e-5
-1.325, 5.152e-5
-1.326, 5.238e-5
-1.327, 5.362e-5
-1.328, 5.452e-5
-1.329, 5.515e-5
-1.330, 5.577e-5
-1.331, 5.664e-5
-1.332, 5.800e-5
-1.333, 5.917e-5
-1.334, 5.978e-5
-1.335, 6.044e-5
-1.336, 6.149e-5
-1.337, 6.287e-5
-1.338, 6.419e-5
-1.339, 6.488e-5
-1.340, 6.567e-5
-1.341, 6.690e-5
-1.342, 6.829e-5
-1.343, 6.986e-5
-1.344, 7.060e-5
-1.345, 7.147e-5
-1.346, 7.288e-5
-1.347, 7.442e-5
-1.348, 7.587e-5
-1.349, 7.701e-5
-1.350, 7.796e-5
-1.351, 7.939e-5
-1.352, 8.113e-5
-1.353, 8.285e-5
-1.354, 8.411e-5
-1.355, 8.511e-5
-1.356, 8.671e-5
-1.357, 8.861e-5
-1.358, 9.044e-5
-1.359, 9.180e-5
-1.360, 9.305e-5
-1.361, 9.477e-5
-1.362, 9.692e-5
-1.363, 9.879e-5
-1.364, 1.003e-4
-1.365, 1.016e-4
-1.366, 1.037e-4
-1.367, 1.059e-4
-1.368, 1.079e-4
-1.369, 1.096e-4
-1.370, 1.113e-4
-1.371, 1.134e-4
-1.372, 1.157e-4
-1.373, 1.181e-4
-1.374, 1.200e-4
-1.375, 1.218e-4
-1.376, 1.239e-4
-1.377, 1.265e-4
-1.378, 1.293e-4
-1.379, 1.312e-4
-1.380, 1.332e-4
-1.381, 1.357e-4
-1.382, 1.386e-4
-1.383, 1.414e-4
-1.384, 1.436e-4
-1.385, 1.458e-4
-1.386, 1.487e-4
-1.387, 1.515e-4
-1.388, 1.547e-4
-1.389, 1.573e-4
-1.390, 1.598e-4
-1.391, 1.628e-4
-1.392, 1.659e-4
-1.393, 1.693e-4
-1.394, 1.722e-4
-1.395, 1.749e-4
-1.396, 1.781e-4
-1.397, 1.815e-4
-1.398, 1.851e-4
-1.399, 1.883e-4
-1.400, 1.913e-4
-1.401, 1.946e-4
-1.402, 1.986e-4
-1.403, 2.022e-4
-1.404, 2.057e-4
-1.405, 2.090e-4
-1.406, 2.126e-4
-1.407, 2.168e-4
-1.408, 2.208e-4
-1.409, 2.245e-4
-1.410, 2.281e-4
-1.411, 2.319e-4
-1.412, 2.363e-4
-1.413, 2.408e-4
-1.414, 2.448e-4
-1.415, 2.486e-4
-1.416, 2.527e-4
-1.417, 2.572e-4
-1.418, 2.621e-4
-1.419, 2.662e-4
-1.420, 2.704e-4
-1.421, 2.747e-4
-1.422, 2.796e-4
-1.423, 2.846e-4
-1.424, 2.891e-4
-1.425, 2.934e-4
-1.426, 2.982e-4
-1.427, 3.032e-4
-1.428, 3.087e-4
-1.429, 3.134e-4
-1.430, 3.180e-4
-1.431, 3.232e-4
-1.432, 3.284e-4
-1.433, 3.339e-4
-1.434, 3.391e-4
-1.435, 3.440e-4
-1.436, 3.493e-4
-1.437, 3.549e-4
-1.438, 3.605e-4
-1.439, 3.661e-4
-1.440, 3.712e-4
-1.441, 3.766e-4
-1.442, 3.826e-4
-1.443, 3.885e-4
-1.444, 3.943e-4
-1.445, 3.997e-4
-1.446, 4.054e-4
-1.447, 4.117e-4
-1.448, 4.179e-4
-1.449, 4.239e-4
-1.450, 4.298e-4
-1.451, 4.354e-4
-1.452, 4.418e-4
-1.453, 4.483e-4
-1.454, 4.544e-4
-1.455, 4.606e-4
-1.456, 4.668e-4
-1.457, 4.732e-4
-1.458, 4.804e-4
-1.459, 4.869e-4
-1.460, 4.930e-4
-1.461, 4.996e-4
-1.462, 5.065e-4
-1.463, 5.134e-4
-1.464, 5.203e-4
-1.465, 5.270e-4
-1.466, 5.336e-4
-1.467, 5.409e-4
-1.468, 5.487e-4
-1.469, 5.555e-4
-1.470, 5.623e-4
-1.471, 5.700e-4
-1.472, 5.770e-4
-1.473, 5.845e-4
-1.474, 5.916e-4
-1.475, 5.989e-4
-1.476, 6.060e-4
-1.477, 6.138e-4
-1.478, 6.217e-4
-1.479, 6.297e-4
-1.480, 6.375e-4
-1.481, 6.447e-4
-1.482, 6.527e-4
-1.483, 6.614e-4
-1.484, 6.693e-4
-1.485, 6.776e-4
-1.486, 6.854e-4
-1.487, 6.936e-4
-1.488, 7.023e-4
-1.489, 7.105e-4
-1.490, 7.189e-4
-1.491, 7.271e-4
-1.492, 7.361e-4
-1.493, 7.446e-4
-1.494, 7.531e-4
-1.495, 7.619e-4
-1.496, 7.700e-4
-1.497, 7.794e-4
-1.498, 7.884e-4
-1.499, 7.978e-4
-1.500, 8.068e-4
-1.501, 8.165e-4
-1.502, 8.261e-4
-1.503, 8.354e-4
-1.504, 8.457e-4
-1.505, 8.550e-4
-1.506, 8.635e-4
-1.507, 8.737e-4
-1.508, 8.840e-4
-1.509, 8.938e-4
-1.510, 9.034e-4
-1.511, 9.140e-4
-1.512, 9.245e-4
-1.513, 9.346e-4
-1.514, 9.456e-4
-1.515, 9.573e-4
-1.516, 9.665e-4
-1.517, 9.766e-4
-1.518, 9.890e-4
-1.519, 1.002e-3
-1.520, 1.012e-3
-1.521, 1.023e-3
-1.522, 1.033e-3
-1.523, 1.045e-3
-1.524, 1.058e-3
-1.525, 1.069e-3
-1.526, 1.080e-3
-1.527, 1.093e-3
-1.528, 1.105e-3
-1.529, 1.118e-3
-1.530, 1.130e-3
-1.531, 1.143e-3
-1.532, 1.155e-3
-1.533, 1.169e-3
-1.534, 1.183e-3
-1.535, 1.195e-3
-1.536, 1.208e-3
-1.537, 1.221e-3
-1.538, 1.236e-3
-1.539, 1.250e-3
-1.540, 1.264e-3
-1.541, 1.277e-3
-1.542, 1.292e-3
-1.543, 1.307e-3
-1.544, 1.322e-3
-1.545, 1.338e-3
-1.546, 1.352e-3
-1.547, 1.368e-3
-1.548, 1.384e-3
-1.549, 1.399e-3
-1.550, 1.416e-3
-1.551, 1.430e-3
-1.552, 1.445e-3
-1.553, 1.463e-3
-1.554, 1.479e-3
-1.555, 1.497e-3
-1.556, 1.514e-3
-1.557, 1.531e-3
-1.558, 1.549e-3
-1.559, 1.568e-3
-1.560, 1.585e-3
-1.561, 1.605e-3
-1.562, 1.622e-3
-1.563, 1.640e-3
-1.564, 1.661e-3
-1.565, 1.680e-3
-1.566, 1.699e-3
-1.567, 1.719e-3
-1.568, 1.740e-3
-1.569, 1.760e-3
-1.570, 1.781e-3
-1.571, 1.801e-3
-1.572, 1.823e-3
-1.573, 1.846e-3
-1.574, 1.870e-3
-1.575, 1.891e-3
-1.576, 1.912e-3
-1.577, 1.934e-3
-1.578, 1.958e-3
-1.579, 1.982e-3
-1.580, 2.007e-3
-1.581, 2.033e-3
-1.582, 2.053e-3
-1.583, 2.082e-3
-1.584, 2.106e-3
-1.585, 2.133e-3
-1.586, 2.158e-3
-1.587, 2.183e-3
-1.588, 2.208e-3
-1.589, 2.235e-3
-1.590, 2.264e-3
-1.591, 2.295e-3
-1.592, 2.321e-3
-1.593, 2.352e-3
-1.594, 2.379e-3
-1.595, 2.408e-3
-1.596, 2.438e-3
-1.597, 2.468e-3
-1.598, 2.499e-3
-1.599, 2.532e-3
-1.600, 2.564e-3
-1.601, 2.597e-3
-1.602, 2.630e-3
-1.603, 2.663e-3
-1.604, 2.697e-3
-1.605, 2.732e-3
-1.606, 2.771e-3
-1.607, 2.807e-3
-1.608, 2.840e-3
-1.609, 2.880e-3
-1.610, 2.923e-3
-1.611, 2.962e-3
-1.612, 3.005e-3
-1.613, 3.042e-3
-1.614, 3.085e-3
-1.615, 3.125e-3
-1.616, 3.165e-3
-1.617, 3.211e-3
-1.618, 3.251e-3
-1.619, 3.296e-3
-1.620, 3.348e-3
-1.621, 3.387e-3
-1.622, 3.428e-3
-1.623, 3.480e-3
-1.624, 3.533e-3
-1.625, 3.574e-3
-1.626, 3.617e-3
-1.627, 3.662e-3
-1.628, 3.715e-3
-1.629, 3.767e-3
-1.630, 3.817e-3
-1.631, 3.861e-3
-1.632, 3.915e-3
-1.633, 3.962e-3
-1.634, 4.021e-3
-1.635, 4.061e-3
-1.636, 4.113e-3
-1.637, 4.167e-3
-1.638, 4.222e-3
-1.639, 4.270e-3
-1.640, 4.322e-3
-1.641, 4.377e-3
-1.642, 4.437e-3
-1.643, 4.498e-3
-1.644, 4.556e-3
-1.645, 4.615e-3
-1.646, 4.671e-3
-1.647, 4.736e-3
-1.648, 4.794e-3
-1.649, 4.852e-3
-1.650, 4.918e-3
-1.651, 4.979e-3
-1.652, 5.042e-3
-1.653, 5.109e-3
-1.654, 5.169e-3
-1.655, 5.238e-3
-1.656, 5.302e-3
-1.657, 5.367e-3
-1.658, 5.437e-3
-1.659, 5.506e-3
-1.660, 5.574e-3
-1.661, 5.640e-3
-1.662, 5.714e-3
-1.663, 5.773e-3
-1.664, 5.841e-3
-1.665, 5.914e-3
-1.666, 5.986e-3
-1.667, 6.063e-3
-1.668, 6.128e-3
-1.669, 6.192e-3
-1.670, 6.262e-3
-1.671, 6.332e-3
-1.672, 6.386e-3
-1.673, 6.456e-3
-1.674, 6.526e-3
-1.675, 6.587e-3
-1.676, 6.648e-3
-1.677, 6.709e-3
-1.678, 6.792e-3
-1.679, 6.858e-3
-1.680, 6.921e-3
-1.681, 7.037e-3
-1.682, 7.084e-3
-1.683, 7.175e-3
-1.684, 7.231e-3
-1.685, 7.299e-3
-1.686, 7.393e-3
-1.687, 7.499e-3
-1.688, 7.597e-3
-1.689, 7.711e-3
-1.690, 7.790e-3
-1.691, 7.874e-3
-1.692, 7.976e-3
-1.693, 8.074e-3
-1.694, 8.174e-3
-1.695, 8.276e-3
-1.696, 8.354e-3
-1.697, 8.462e-3
-1.698, 8.545e-3
-1.699, 8.596e-3
-1.700, 8.609e-3
-1.699, 8.536e-3
-1.698, 8.455e-3
-1.697, 8.361e-3
-1.696, 8.269e-3
-1.695, 8.211e-3
-1.694, 8.162e-3
-1.693, 8.073e-3
-1.692, 8.007e-3
-1.691, 7.910e-3
-1.690, 7.823e-3
-1.689, 7.750e-3
-1.688, 7.657e-3
-1.687, 7.605e-3
-1.686, 7.560e-3
-1.685, 7.480e-3
-1.684, 7.424e-3
-1.683, 7.378e-3
-1.682, 7.311e-3
-1.681, 7.212e-3
-1.680, 7.178e-3
-1.679, 7.099e-3
-1.678, 7.013e-3
-1.677, 6.940e-3
-1.676, 6.851e-3
-1.675, 6.760e-3
-1.674, 6.684e-3
-1.673, 6.617e-3
-1.672, 6.545e-3
-1.671, 6.485e-3
-1.670, 6.417e-3
-1.669, 6.328e-3
-1.668, 6.261e-3
-1.667, 6.181e-3
-1.666, 6.103e-3
-1.665, 6.025e-3
-1.664, 5.948e-3
-1.663, 5.897e-3
-1.662, 5.821e-3
-1.661, 5.747e-3
-1.660, 5.675e-3
-1.659, 5.595e-3
-1.658, 5.527e-3
-1.657, 5.456e-3
-1.656, 5.383e-3
-1.655, 5.310e-3
-1.654, 5.230e-3
-1.653, 5.178e-3
-1.652, 5.119e-3
-1.651, 5.046e-3
-1.650, 4.988e-3
-1.649, 4.924e-3
-1.648, 4.852e-3
-1.647, 4.798e-3
-1.646, 4.750e-3
-1.645, 4.692e-3
-1.644, 4.648e-3
-1.643, 4.600e-3
-1.642, 4.543e-3
-1.641, 4.489e-3
-1.640, 4.432e-3
-1.639, 4.376e-3
-1.638, 4.326e-3
-1.637, 4.267e-3
-1.636, 4.211e-3
-1.635, 4.159e-3
-1.634, 4.108e-3
-1.633, 4.049e-3
-1.632, 3.999e-3
-1.631, 3.947e-3
-1.630, 3.889e-3
-1.629, 3.829e-3
-1.628, 3.776e-3
-1.627, 3.728e-3
-1.626, 3.675e-3
-1.625, 3.628e-3
-1.624, 3.582e-3
-1.623, 3.529e-3
-1.622, 3.482e-3
-1.621, 3.433e-3
-1.620, 3.387e-3
-1.619, 3.336e-3
-1.618, 3.293e-3
-1.617, 3.247e-3
-1.616, 3.204e-3
-1.615, 3.156e-3
-1.614, 3.116e-3
-1.613, 3.079e-3
-1.612, 3.034e-3
-1.611, 2.994e-3
-1.610, 2.957e-3
-1.609, 2.913e-3
-1.608, 2.872e-3
-1.607, 2.835e-3
-1.606, 2.797e-3
-1.605, 2.762e-3
-1.604, 2.721e-3
-1.603, 2.683e-3
-1.602, 2.645e-3
-1.601, 2.612e-3
-1.600, 2.577e-3
-1.599, 2.547e-3
-1.598, 2.514e-3
-1.597, 2.480e-3
-1.596, 2.447e-3
-1.595, 2.416e-3
-1.594, 2.383e-3
-1.593, 2.349e-3
-1.592, 2.317e-3
-1.591, 2.285e-3
-1.590, 2.251e-3
-1.589, 2.220e-3
-1.588, 2.189e-3
-1.587, 2.159e-3
-1.586, 2.129e-3
-1.585, 2.101e-3
-1.584, 2.070e-3
-1.583, 2.039e-3
-1.582, 2.013e-3
-1.581, 1.983e-3
-1.580, 1.953e-3
-1.579, 1.931e-3
-1.578, 1.903e-3
-1.577, 1.876e-3
-1.576, 1.857e-3
-1.575, 1.830e-3
-1.574, 1.803e-3
-1.573, 1.779e-3
-1.572, 1.752e-3
-1.571, 1.724e-3
-1.570, 1.700e-3
-1.569, 1.676e-3
-1.568, 1.653e-3
-1.567, 1.631e-3
-1.566, 1.605e-3
-1.565, 1.583e-3
-1.564, 1.560e-3
-1.563, 1.540e-3
-1.562, 1.517e-3
-1.561, 1.494e-3
-1.560, 1.474e-3
-1.559, 1.453e-3
-1.558, 1.430e-3
-1.557, 1.410e-3
-1.556, 1.389e-3
-1.555, 1.370e-3
-1.554, 1.352e-3
-1.553, 1.330e-3
-1.552, 1.313e-3
-1.551, 1.294e-3
-1.550, 1.274e-3
-1.549, 1.256e-3
-1.548, 1.236e-3
-1.547, 1.217e-3
-1.546, 1.199e-3
-1.545, 1.182e-3
-1.544, 1.164e-3
-1.543, 1.146e-3
-1.542, 1.128e-3
-1.541, 1.113e-3
-1.540, 1.097e-3
-1.539, 1.081e-3
-1.538, 1.064e-3
-1.537, 1.048e-3
-1.536, 1.033e-3
-1.535, 1.018e-3
-1.534, 1.002e-3
-1.533, 9.859e-4
-1.532, 9.711e-4
-1.531, 9.565e-4
-1.530, 9.416e-4
-1.529, 9.281e-4
-1.528, 9.145e-4
-1.527, 8.990e-4
-1.526, 8.857e-4
-1.525, 8.727e-4
-1.524, 8.583e-4
-1.523, 8.447e-4
-1.522, 8.326e-4
-1.521, 8.191e-4
-1.520, 8.071e-4
-1.519, 7.947e-4
-1.518, 7.818e-4
-1.517, 7.695e-4
-1.516, 7.578e-4
-1.515, 7.464e-4
-1.514, 7.345e-4
-1.513, 7.223e-4
-1.512, 7.107e-4
-1.511, 6.996e-4
-1.510, 6.884e-4
-1.509, 6.775e-4
-1.508, 6.664e-4
-1.507, 6.553e-4
-1.506, 6.451e-4
-1.505, 6.350e-4
-1.504, 6.246e-4
-1.503, 6.145e-4
-1.502, 6.037e-4
-1.501, 5.943e-4
-1.500, 5.851e-4
-1.499, 5.752e-4
-1.498, 5.655e-4
-1.497, 5.559e-4
-1.496, 5.470e-4
-1.495, 5.381e-4
-1.494, 5.291e-4
-1.493, 5.202e-4
-1.492, 5.111e-4
-1.491, 5.025e-4
-1.490, 4.946e-4
-1.489, 4.863e-4
-1.488, 4.780e-4
-1.487, 4.695e-4
-1.486, 4.615e-4
-1.485, 4.540e-4
-1.484, 4.463e-4
-1.483, 4.384e-4
-1.482, 4.307e-4
-1.481, 4.235e-4
-1.480, 4.168e-4
-1.479, 4.096e-4
-1.478, 4.019e-4
-1.477, 3.950e-4
-1.476, 3.884e-4
-1.475, 3.819e-4
-1.474, 3.753e-4
-1.473, 3.684e-4
-1.472, 3.618e-4
-1.471, 3.557e-4
-1.470, 3.497e-4
-1.469, 3.438e-4
-1.468, 3.374e-4
-1.467, 3.309e-4
-1.466, 3.254e-4
-1.465, 3.199e-4
-1.464, 3.143e-4
-1.463, 3.088e-4
-1.462, 3.026e-4
-1.461, 2.975e-4
-1.460, 2.924e-4
-1.459, 2.872e-4
-1.458, 2.817e-4
-1.457, 2.764e-4
-1.456, 2.716e-4
-1.455, 2.669e-4
-1.454, 2.621e-4
-1.453, 2.571e-4
-1.452, 2.521e-4
-1.451, 2.474e-4
-1.450, 2.432e-4
-1.449, 2.389e-4
-1.448, 2.343e-4
-1.447, 2.296e-4
-1.446, 2.253e-4
-1.445, 2.216e-4
-1.444, 2.175e-4
-1.443, 2.129e-4
-1.442, 2.087e-4
-1.441, 2.048e-4
-1.440, 2.013e-4
-1.439, 1.976e-4
-1.438, 1.934e-4
-1.437, 1.895e-4
-1.436, 1.859e-4
-1.435, 1.825e-4
-1.434, 1.791e-4
-1.433, 1.753e-4
-1.432, 1.716e-4
-1.431, 1.683e-4
-1.430, 1.652e-4
-1.429, 1.623e-4
-1.428, 1.586e-4
-1.427, 1.550e-4
-1.426, 1.521e-4
-1.425, 1.492e-4
-1.424, 1.465e-4
-1.423, 1.432e-4
-1.422, 1.399e-4
-1.421, 1.372e-4
-1.420, 1.347e-4
-1.419, 1.320e-4
-1.418, 1.291e-4
-1.417, 1.260e-4
-1.416, 1.235e-4
-1.415, 1.213e-4
-1.414, 1.188e-4
-1.413, 1.161e-4
-1.412, 1.133e-4
-1.411, 1.108e-4
-1.410, 1.088e-4
-1.409, 1.066e-4
-1.408, 1.040e-4
-1.407, 1.015e-4
-1.406, 9.924e-5
-1.405, 9.736e-5
-1.404, 9.543e-5
-1.403, 9.294e-5
-1.402, 9.060e-5
-1.401, 8.842e-5
-1.400, 8.681e-5
-1.399, 8.502e-5
-1.398, 8.270e-5
-1.397, 8.059e-5
-1.396, 7.865e-5
-1.395, 7.695e-5
-1.394, 7.547e-5
-1.393, 7.334e-5
-1.392, 7.125e-5
-1.391, 6.955e-5
-1.390, 6.797e-5
-1.389, 6.666e-5
-1.388, 6.474e-5
-1.387, 6.267e-5
-1.386, 6.120e-5
-1.385, 5.981e-5
-1.384, 5.853e-5
-1.383, 5.667e-5
-1.382, 5.476e-5
-1.381, 5.333e-5
-1.380, 5.224e-5
-1.379, 5.098e-5
-1.378, 4.946e-5
-1.377, 4.751e-5
-1.376, 4.626e-5
-1.375, 4.524e-5
-1.374, 4.407e-5
-1.373, 4.259e-5
-1.372, 4.090e-5
-1.371, 3.954e-5
-1.370, 3.878e-5
-1.369, 3.771e-5
-1.368, 3.630e-5
-1.367, 3.478e-5
-1.366, 3.349e-5
-1.365, 3.287e-5
-1.364, 3.190e-5
-1.363, 3.053e-5
-1.362, 2.912e-5
-1.361, 2.797e-5
-1.360, 2.729e-5
-1.359, 2.656e-5
-1.358, 2.528e-5
-1.357, 2.397e-5
-1.356, 2.295e-5
-1.355, 2.229e-5
-1.354, 2.162e-5
-1.353, 2.047e-5
-1.352, 1.926e-5
-1.351, 1.837e-5
-1.350, 1.760e-5
-1.349, 1.713e-5
-1.348, 1.606e-5
-1.347, 1.485e-5
-1.346, 1.403e-5
-1.345, 1.345e-5
-1.344, 1.302e-5
-1.343, 1.200e-5
-1.342, 1.080e-5
-1.341, 1.015e-5
-1.340, 9.643e-6
-1.339, 9.096e-6
-1.338, 8.382e-6
-1.337, 7.223e-6
-1.336, 6.461e-6
-1.335, 6.125e-6
-1.334, 5.677e-6
-1.333, 4.991e-6
-1.332, 3.981e-6
-1.331, 3.135e-6
-1.330, 2.902e-6
-1.329, 2.456e-6
-1.328, 1.852e-6
-1.327, 8.532e-7
-1.326, 4.223e-8
-1.325, -6.729e-8
-1.324, -3.751e-7
-1.323, -1.079e-6
-1.322, -1.899e-6
-1.321, -2.605e-6
-1.320, -2.841e-6
-1.319, -3.009e-6
-1.318, -3.597e-6
-1.317, -4.434e-6
-1.316, -5.031e-6
-1.315, -5.271e-6
-1.314, -5.283e-6
-1.313, -5.917e-6
-1.312, -6.701e-6
-1.311, -7.157e-6
-1.310, -7.571e-6
-1.309, -7.407e-6
-1.308, -8.022e-6
-1.307, -8.840e-6
-1.306, -9.298e-6
-1.305, -9.578e-6
-1.304, -9.509e-6
-1.303, -9.845e-6
-1.302, -1.075e-5
-1.301, -1.106e-5
-1.300, -1.132e-5
-1.299, -1.142e-5
-1.298, -1.167e-5
-1.297, -1.244e-5
-1.296, -1.283e-5
-1.295, -1.289e-5
-1.294, -1.297e-5
-1.293, -1.327e-5
-1.292, -1.396e-5
-1.291, -1.446e-5
-1.290, -1.446e-5
-1.289, -1.445e-5
-1.288, -1.473e-5
-1.287, -1.525e-5
-1.286, -1.591e-5
-1.285, -1.581e-5
-1.284, -1.577e-5
-1.283, -1.607e-5
-1.282, -1.657e-5
-1.281, -1.711e-5
-1.280, -1.725e-5
-1.279, -1.692e-5
-1.278, -1.725e-5
-1.277, -1.771e-5
-1.276, -1.812e-5
-1.275, -1.826e-5
-1.274, -1.805e-5
-1.273, -1.825e-5
-1.272, -1.875e-5
-1.271, -1.916e-5
-1.270, -1.929e-5
-1.269, -1.905e-5
-1.268, -1.914e-5
-1.267, -1.988e-5
-1.266, -2.018e-5
-1.265, -2.019e-5
-1.264, -1.997e-5
-1.263, -2.003e-5
-1.262, -2.069e-5
-1.261, -2.108e-5
-1.260, -2.104e-5
-1.259, -2.101e-5
-1.258, -2.095e-5
-1.257, -2.153e-5
-1.256, -2.182e-5
-1.255, -2.188e-5
-1.254, -2.170e-5
-1.253, -2.166e-5
-1.252, -2.221e-5
-1.251, -2.271e-5
-1.250, -2.267e-5
-1.249, -2.245e-5
-1.248, -2.244e-5
-1.247, -2.285e-5
-1.246, -2.340e-5
-1.245, -2.334e-5
-1.244, -2.309e-5
-1.243, -2.305e-5
-1.242, -2.352e-5
-1.241, -2.399e-5
-1.240, -2.389e-5
-1.239, -2.371e-5
-1.238, -2.374e-5
-1.237, -2.410e-5
-1.236, -2.450e-5
-1.235, -2.470e-5
-1.234, -2.433e-5
-1.233, -2.425e-5
-1.232, -2.477e-5
-1.231, -2.512e-5
-1.230, -2.533e-5
-1.229, -2.520e-5
-1.228, -2.482e-5
-1.227, -2.533e-5
-1.226, -2.571e-5
-1.225, -2.578e-5
-1.224, -2.549e-5
-1.223, -2.532e-5
-1.222, -2.597e-5
-1.221, -2.622e-5
-1.220, -2.618e-5
-1.219, -2.613e-5
-1.218, -2.591e-5
-1.217, -2.638e-5
-1.216, -2.674e-5
-1.215, -2.679e-5
-1.214, -2.657e-5
-1.213, -2.633e-5
-1.212, -2.680e-5
-1.211, -2.734e-5
-1.210, -2.729e-5
-1.209, -2.714e-5
-1.208, -2.696e-5
-1.207, -2.729e-5
-1.206, -2.779e-5
-1.205, -2.771e-5
-1.204, -2.749e-5
-1.203, -2.746e-5
-1.202, -2.769e-5
-1.201, -2.832e-5
-1.200, -2.826e-5
-1.199, -2.795e-5
-1.198, -2.800e-5
-1.197, -2.819e-5
-1.196, -2.865e-5
-1.195, -2.876e-5
-1.194, -2.846e-5
-1.193, -2.842e-5
-1.192, -2.865e-5
-1.191, -2.912e-5
-1.190, -2.929e-5
-1.189, -2.904e-5
-1.188, -2.886e-5
-1.187, -2.931e-5
-1.186, -2.977e-5
-1.185, -2.984e-5
-1.184, -2.958e-5
-1.183, -2.945e-5
-1.182, -2.980e-5
-1.181, -3.021e-5
-1.180, -3.028e-5
-1.179, -3.019e-5
-1.178, -3.009e-5
-1.177, -3.036e-5
-1.176, -3.090e-5
-1.175, -3.091e-5
-1.174, -3.087e-5
-1.173, -3.049e-5
-1.172, -3.086e-5
-1.171, -3.142e-5
-1.170, -3.148e-5
-1.169, -3.135e-5
-1.168, -3.107e-5
-1.167, -3.141e-5
-1.166, -3.208e-5
-1.165, -3.222e-5
-1.164, -3.200e-5
-1.163, -3.197e-5
-1.162, -3.214e-5
-1.161, -3.291e-5
-1.160, -3.321e-5
-1.159, -3.288e-5
-1.158, -3.286e-5
-1.157, -3.303e-5
-1.156, -3.353e-5
-1.155, -3.377e-5
-1.154, -3.351e-5
-1.153, -3.346e-5
-1.152, -3.358e-5
-1.151, -3.413e-5
-1.150, -3.446e-5
-1.149, -3.405e-5
-1.148, -3.394e-5
-1.147, -3.430e-5
-1.146, -3.459e-5
-1.145, -3.500e-5
-1.144, -3.478e-5
-1.143, -3.462e-5
-1.142, -3.494e-5
-1.141, -3.524e-5
-1.140, -3.551e-5
-1.139, -3.555e-5
-1.138, -3.522e-5
-1.137, -3.550e-5
-1.136, -3.585e-5
-1.135, -3.621e-5
-1.134, -3.611e-5
-1.133, -3.582e-5
-1.132, -3.605e-5
-1.131, -3.662e-5
-1.130, -3.679e-5
-1.129, -3.674e-5
-1.128, -3.638e-5
-1.127, -3.661e-5
-1.126, -3.721e-5
-1.125, -3.733e-5
-1.124, -3.718e-5
-1.123, -3.708e-5
-1.122, -3.721e-5
-1.121, -3.777e-5
-1.120, -3.798e-5
-1.119, -3.780e-5
-1.118, -3.765e-5
-1.117, -3.776e-5
-1.116, -3.814e-5
-1.115, -3.857e-5
-1.114, -3.841e-5
-1.113, -3.824e-5
-1.112, -3.828e-5
-1.111, -3.873e-5
-1.110, -3.913e-5
-1.109, -3.888e-5
-1.108, -3.865e-5
-1.107, -3.892e-5
-1.106, -3.942e-5
-1.105, -3.966e-5
-1.104, -3.941e-5
-1.103, -3.925e-5
-1.102, -3.945e-5
-1.101, -3.983e-5
-1.100, -4.016e-5
-1.099, -4.011e-5
-1.098, -3.973e-5
-1.097, -4.001e-5
-1.096, -4.041e-5
-1.095, -4.065e-5
-1.094, -4.071e-5
-1.093, -4.033e-5
-1.092, -4.045e-5
-1.091, -4.099e-5
-1.090, -4.120e-5
-1.089, -4.119e-5
-1.088, -4.087e-5
-1.087, -4.095e-5
-1.086, -4.149e-5
-1.085, -4.172e-5
-1.084, -4.161e-5
-1.083, -4.146e-5
-1.082, -4.137e-5
-1.081, -4.192e-5
-1.080, -4.223e-5
-1.079, -4.213e-5
-1.078, -4.194e-5
-1.077, -4.187e-5
-1.076, -4.240e-5
-1.075, -4.279e-5
-1.074, -4.269e-5
-1.073, -4.246e-5
-1.072, -4.245e-5
-1.071, -4.285e-5
-1.070, -4.329e-5
-1.069, -4.314e-5
-1.068, -4.294e-5
-1.067, -4.300e-5
-1.066, -4.329e-5
-1.065, -4.374e-5
-1.064, -4.367e-5
-1.063, -4.335e-5
-1.062, -4.345e-5
-1.061, -4.377e-5
-1.060, -4.416e-5
-1.059, -4.419e-5
-1.058, -4.390e-5
-1.057, -4.391e-5
-1.056, -4.429e-5
-1.055, -4.467e-5
-1.054, -4.469e-5
-1.053, -4.441e-5
-1.052, -4.432e-5
-1.051, -4.496e-5
-1.050, -4.518e-5
-1.049, -4.529e-5
-1.048, -4.502e-5
-1.047, -4.486e-5
-1.046, -4.545e-5
-1.045, -4.567e-5
-1.044, -4.580e-5
-1.043, -4.561e-5
-1.042, -4.556e-5
-1.041, -4.602e-5
-1.040, -4.639e-5
-1.039, -4.634e-5
-1.038, -4.632e-5
-1.037, -4.614e-5
-1.036, -4.659e-5
-1.035, -4.717e-5
-1.034, -4.708e-5
-1.033, -4.704e-5
-1.032, -4.690e-5
-1.031, -4.734e-5
-1.030, -4.794e-5
-1.029, -4.782e-5
-1.028, -4.768e-5
-1.027, -4.775e-5
-1.026, -4.804e-5
-1.025, -4.858e-5
-1.024, -4.873e-5
-1.023, -4.857e-5
-1.022, -4.859e-5
-1.021, -4.884e-5
-1.020, -4.939e-5
-1.019, -4.952e-5
-1.018, -4.928e-5
-1.017, -4.927e-5
-1.016, -4.968e-5
-1.015, -5.014e-5
-1.014, -5.041e-5
-1.013, -5.020e-5
-1.012, -5.001e-5
-1.011, -5.062e-5
-1.010, -5.105e-5
-1.009, -5.117e-5
-1.008, -5.102e-5
-1.007, -5.094e-5
-1.006, -5.140e-5
-1.005, -5.190e-5
-1.004, -5.207e-5
-1.003, -5.202e-5
-1.002, -5.194e-5
-1.001, -5.233e-5
-1.000, -3.632e-5
-1.001, -3.017e-5
-1.002, -2.699e-5
-1.003, -2.458e-5
-1.004, -2.276e-5
-1.005, -2.122e-5
-1.006, -1.969e-5
-1.007, -1.793e-5
-1.008, -1.643e-5
-1.009, -1.537e-5
-1.010, -1.447e-5
-1.011, -1.344e-5
-1.012, -1.199e-5
-1.013, -1.077e-5
-1.014, -1.013e-5
-1.015, -9.496e-6
-1.016, -8.862e-6
-1.017, -7.661e-6
-1.018, -6.540e-6
-1.019, -6.118e-6
-1.020, -5.780e-6
-1.021, -5.161e-6
-1.022, -4.140e-6
-1.023, -3.211e-6
-1.024, -2.940e-6
-1.025, -2.698e-6
-1.026, -2.153e-6
-1.027, -1.426e-6
-1.028, -5.557e-7
-1.029, -3.268e-7
-1.030, -2.044e-7
-1.031, 3.027e-7
-1.032, 9.430e-7
-1.033, 1.573e-6
-1.034, 1.952e-6
-1.035, 1.802e-6
-1.036, 2.171e-6
-1.037, 2.914e-6
-1.038, 3.510e-6
-1.039, 3.821e-6
-1.040, 3.672e-6
-1.041, 3.954e-6
-1.042, 4.621e-6
-1.043, 5.193e-6
-1.044, 5.400e-6
-1.045, 5.319e-6
-1.046, 5.465e-6
-1.047, 6.180e-6
-1.048, 6.581e-6
-1.049, 6.781e-6
-1.050, 6.798e-6
-1.051, 6.775e-6
-1.052, 7.411e-6
-1.053, 7.957e-6
-1.054, 8.045e-6
-1.055, 8.050e-6
-1.056, 7.932e-6
-1.057, 8.490e-6
-1.058, 9.109e-6
-1.059, 9.113e-6
-1.060, 9.028e-6
-1.061, 9.047e-6
-1.062, 9.488e-6
-1.063, 1.008e-5
-1.064, 1.007e-5
-1.065, 9.946e-6
-1.066, 1.003e-5
-1.067, 1.038e-5
-1.068, 1.088e-5
-1.069, 1.098e-5
-1.070, 1.078e-5
-1.071, 1.082e-5
-1.072, 1.113e-5
-1.073, 1.163e-5
-1.074, 1.181e-5
-1.075, 1.158e-5
-1.076, 1.150e-5
-1.077, 1.190e-5
-1.078, 1.232e-5
-1.079, 1.257e-5
-1.080, 1.218e-5
-1.081, 1.207e-5
-1.082, 1.256e-5
-1.083, 1.288e-5
-1.084, 1.309e-5
-1.085, 1.280e-5
-1.086, 1.268e-5
-1.087, 1.315e-5
-1.088, 1.343e-5
-1.089, 1.360e-5
-1.090, 1.344e-5
-1.091, 1.329e-5
-1.092, 1.359e-5
-1.093, 1.400e-5
-1.094, 1.412e-5
-1.095, 1.392e-5
-1.096, 1.379e-5
-1.097, 1.399e-5
-1.098, 1.462e-5
-1.099, 1.454e-5
-1.100, 1.434e-5
-1.101, 1.435e-5
-1.102, 1.448e-5
-1.103, 1.502e-5
-1.104, 1.503e-5
-1.105, 1.475e-5
-1.106, 1.476e-5
-1.107, 1.493e-5
-1.108, 1.539e-5
-1.109, 1.550e-5
-1.110, 1.521e-5
-1.111, 1.512e-5
-1.112, 1.529e-5
-1.113, 1.573e-5
-1.114, 1.598e-5
-1.115, 1.556e-5
-1.116, 1.548e-5
-1.117, 1.568e-5
-1.118, 1.609e-5
-1.119, 1.630e-5
-1.120, 1.600e-5
-1.121, 1.573e-5
-1.122, 1.607e-5
-1.123, 1.634e-5
-1.124, 1.670e-5
-1.125, 1.629e-5
-1.126, 1.606e-5
-1.127, 1.642e-5
-1.128, 1.671e-5
-1.129, 1.700e-5
-1.130, 1.670e-5
-1.131, 1.644e-5
-1.132, 1.661e-5
-1.133, 1.703e-5
-1.134, 1.724e-5
-1.135, 1.701e-5
-1.136, 1.674e-5
-1.137, 1.699e-5
-1.138, 1.733e-5
-1.139, 1.759e-5
-1.140, 1.720e-5
-1.141, 1.710e-5
-1.142, 1.720e-5
-1.143, 1.770e-5
-1.144, 1.782e-5
-1.145, 1.750e-5
-1.146, 1.736e-5
-1.147, 1.745e-5
-1.148, 1.792e-5
-1.149, 1.808e-5
-1.150, 1.796e-5
-1.151, 1.766e-5
-1.152, 1.772e-5
-1.153, 1.812e-5
-1.154, 1.845e-5
-1.155, 1.810e-5
-1.156, 1.791e-5
-1.157, 1.805e-5
-1.158, 1.830e-5
-1.159, 1.874e-5
-1.160, 1.833e-5
-1.161, 1.805e-5
-1.162, 1.837e-5
-1.163, 1.862e-5
-1.164, 1.886e-5
-1.165, 1.872e-5
-1.166, 1.830e-5
-1.167, 1.857e-5
-1.168, 1.881e-5
-1.169, 1.914e-5
-1.170, 1.900e-5
-1.171, 1.852e-5
-1.172, 1.872e-5
-1.173, 1.912e-5
-1.174, 1.939e-5
-1.175, 1.922e-5
-1.176, 1.886e-5
-1.177, 1.899e-5
-1.178, 1.938e-5
-1.179, 1.958e-5
-1.180, 1.946e-5
-1.181, 1.913e-5
-1.182, 1.919e-5
-1.183, 1.958e-5
-1.184, 1.985e-5
-1.185, 1.972e-5
-1.186, 1.930e-5
-1.187, 1.945e-5
-1.188, 1.980e-5
-1.189, 2.012e-5
-1.190, 1.992e-5
-1.191, 1.959e-5
-1.192, 1.960e-5
-1.193, 1.996e-5
-1.194, 2.038e-5
-1.195, 2.011e-5
-1.196, 1.981e-5
-1.197, 1.983e-5
-1.198, 2.029e-5
-1.199, 2.055e-5
-1.200, 2.031e-5
-1.201, 2.004e-5
-1.202, 2.022e-5
-1.203, 2.045e-5
-1.204, 2.074e-5
-1.205, 2.071e-5
-1.206, 2.032e-5
-1.207, 2.043e-5
-1.208, 2.067e-5
-1.209, 2.103e-5
-1.210, 2.102e-5
-1.211, 2.061e-5
-1.212, 2.057e-5
-1.213, 2.109e-5
-1.214, 2.131e-5
-1.215, 2.132e-5
-1.216, 2.091e-5
-1.217, 2.092e-5
-1.218, 2.141e-5
-1.219, 2.160e-5
-1.220, 2.155e-5
-1.221, 2.129e-5
-1.222, 2.123e-5
-1.223, 2.173e-5
-1.224, 2.195e-5
-1.225, 2.190e-5
-1.226, 2.171e-5
-1.227, 2.157e-5
-1.228, 2.224e-5
-1.229, 2.240e-5
-1.230, 2.227e-5
-1.231, 2.212e-5
-1.232, 2.203e-5
-1.233, 2.235e-5
-1.234, 2.286e-5
-1.235, 2.272e-5
-1.236, 2.245e-5
-1.237, 2.252e-5
-1.238, 2.285e-5
-1.239, 2.329e-5
-1.240, 2.320e-5
-1.241, 2.298e-5
-1.242, 2.302e-5
-1.243, 2.328e-5
-1.244, 2.376e-5
-1.245, 2.380e-5
-1.246, 2.354e-5
-1.247, 2.358e-5
-1.248, 2.385e-5
-1.249, 2.428e-5
-1.250, 2.452e-5
-1.251, 2.408e-5
-1.252, 2.416e-5
-1.253, 2.457e-5
-1.254, 2.497e-5
-1.255, 2.521e-5
-1.256, 2.480e-5
-1.257, 2.483e-5
-1.258, 2.532e-5
-1.259, 2.575e-5
-1.260, 2.591e-5
-1.261, 2.572e-5
-1.262, 2.566e-5
-1.263, 2.618e-5
-1.264, 2.656e-5
-1.265, 2.668e-5
-1.266, 2.671e-5
-1.267, 2.665e-5
-1.268, 2.703e-5
-1.269, 2.768e-5
-1.270, 2.783e-5
-1.271, 2.769e-5
-1.272, 2.767e-5
-1.273, 2.809e-5
-1.274, 2.879e-5
-1.275, 2.888e-5
-1.276, 2.884e-5
-1.277, 2.892e-5
-1.278, 2.937e-5
-1.279, 3.005e-5
-1.280, 3.029e-5
-1.281, 3.019e-5
-1.282, 3.034e-5
-1.283, 3.078e-5
-1.284, 3.144e-5
-1.285, 3.176e-5
-1.286, 3.168e-5
-1.287, 3.192e-5
-1.288, 3.230e-5
-1.289, 3.305e-5
-1.290, 3.352e-5
-1.291, 3.337e-5
-1.292, 3.360e-5
-1.293, 3.421e-5
-1.294, 3.489e-5
-1.295, 3.548e-5
-1.296, 3.540e-5
-1.297, 3.551e-5
-1.298, 3.630e-5
-1.299, 3.697e-5
-1.300, 3.753e-5
-1.301, 3.764e-5
-1.302, 3.785e-5
-1.303, 3.855e-5
-1.304, 3.930e-5
-1.305, 3.993e-5
-1.306, 4.023e-5
-1.307, 4.032e-5
-1.308, 4.103e-5
-1.309, 4.196e-5
-1.310, 4.275e-5
-1.311, 4.297e-5
-1.312, 4.313e-5
-1.313, 4.402e-5
-1.314, 4.505e-5
-1.315, 4.572e-5
-1.316, 4.605e-5
-1.317, 4.650e-5
-1.318, 4.733e-5
-1.319, 4.833e-5
-1.320, 4.924e-5
-1.321, 4.952e-5
-1.322, 5.016e-5
-1.323, 5.095e-5
-1.324, 5.206e-5
-1.325, 5.317e-5
-1.326, 5.346e-5
-1.327, 5.418e-5
-1.328, 5.504e-5
-1.329, 5.622e-5
-1.330, 5.741e-5
-1.331, 5.785e-5
-1.332, 5.870e-5
-1.333, 5.962e-5
-1.334, 6.091e-5
-1.335, 6.217e-5
-1.336, 6.281e-5
-1.337, 6.354e-5
-1.338, 6.485e-5
-1.339, 6.600e-5
-1.340, 6.738e-5
-1.341, 6.830e-5
-1.342, 6.911e-5
-1.343, 7.040e-5
-1.344, 7.185e-5
-1.345, 7.335e-5
-1.346, 7.433e-5
-1.347, 7.513e-5
-1.348, 7.667e-5
-1.349, 7.826e-5
-1.350, 7.983e-5
-1.351, 8.095e-5
-1.352, 8.208e-5
-1.353, 8.350e-5
-1.354, 8.535e-5
-1.355, 8.698e-5
-1.356, 8.832e-5
-1.357, 8.951e-5
-1.358, 9.115e-5
-1.359, 9.316e-5
-1.360, 9.498e-5
-1.361, 9.640e-5
-1.362, 9.787e-5
-1.363, 9.952e-5
-1.364, 1.017e-4
-1.365, 1.038e-4
-1.366, 1.053e-4
-1.367, 1.068e-4
-1.368, 1.089e-4
-1.369, 1.111e-4
-1.370, 1.134e-4
-1.371, 1.151e-4
-1.372, 1.169e-4
-1.373, 1.190e-4
-1.374, 1.213e-4
-1.375, 1.239e-4
-1.376, 1.258e-4
-1.377, 1.277e-4
-1.378, 1.302e-4
-1.379, 1.326e-4
-1.380, 1.353e-4
-1.381, 1.377e-4
-1.382, 1.398e-4
-1.383, 1.424e-4
-1.384, 1.452e-4
-1.385, 1.481e-4
-1.386, 1.506e-4
-1.387, 1.529e-4
-1.388, 1.557e-4
-1.389, 1.588e-4
-1.390, 1.619e-4
-1.391, 1.649e-4
-1.392, 1.673e-4
-1.393, 1.703e-4
-1.394, 1.738e-4
-1.395, 1.772e-4
-1.396, 1.802e-4
-1.397, 1.831e-4
-1.398, 1.863e-4
-1.399, 1.900e-4
-1.400, 1.936e-4
-1.401, 1.968e-4
-1.402, 2.001e-4
-1.403, 2.035e-4
-1.404, 2.075e-4
-1.405, 2.114e-4
-1.406, 2.150e-4
-1.407, 2.184e-4
-1.408, 2.221e-4
-1.409, 2.264e-4
-1.410, 2.307e-4
-1.411, 2.343e-4
-1.412, 2.383e-4
-1.413, 2.421e-4
-1.414, 2.468e-4
-1.415, 2.514e-4
-1.416, 2.554e-4
-1.417, 2.594e-4
-1.418, 2.639e-4
-1.419, 2.684e-4
-1.420, 2.732e-4
-1.421, 2.776e-4
-1.422, 2.820e-4
-1.423, 2.864e-4
-1.424, 2.914e-4
-1.425, 2.966e-4
-1.426, 3.013e-4
-1.427, 3.057e-4
-1.428, 3.107e-4
-1.429, 3.159e-4
-1.430, 3.213e-4
-1.431, 3.264e-4
-1.432, 3.310e-4
-1.433, 3.362e-4
-1.434, 3.418e-4
-1.435, 3.474e-4
-1.436, 3.527e-4
-1.437, 3.577e-4
-1.438, 3.629e-4
-1.439, 3.687e-4
-1.440, 3.746e-4
-1.441, 3.801e-4
-1.442, 3.856e-4
-1.443, 3.911e-4
-1.444, 3.972e-4
-1.445, 4.034e-4
-1.446, 4.091e-4
-1.447, 4.149e-4
-1.448, 4.207e-4
-1.449, 4.269e-4
-1.450, 4.333e-4
-1.451, 4.394e-4
-1.452, 4.453e-4
-1.453, 4.512e-4
-1.454, 4.577e-4
-1.455, 4.645e-4
-1.456, 4.707e-4
-1.457, 4.772e-4
-1.458, 4.834e-4
-1.459, 4.899e-4
-1.460, 4.973e-4
-1.461, 5.037e-4
-1.462, 5.099e-4
-1.463, 5.167e-4
-1.464, 5.236e-4
-1.465, 5.307e-4
-1.466, 5.379e-4
-1.467, 5.444e-4
-1.468, 5.516e-4
-1.469, 5.588e-4
-1.470, 5.663e-4
-1.471, 5.735e-4
-1.472, 5.806e-4
-1.473, 5.879e-4
-1.474, 5.952e-4
-1.475, 6.029e-4
-1.476, 6.107e-4
-1.477, 6.177e-4
-1.478, 6.254e-4
-1.479, 6.329e-4
-1.480, 6.410e-4
-1.481, 6.492e-4
-1.482, 6.566e-4
-1.483, 6.642e-4
-1.484, 6.726e-4
-1.485, 6.812e-4
-1.486, 6.891e-4
-1.487, 6.973e-4
-1.488, 7.052e-4
-1.489, 7.137e-4
-1.490, 7.228e-4
-1.491, 7.312e-4
-1.492, 7.396e-4
-1.493, 7.479e-4
-1.494, 7.569e-4
-1.495, 7.657e-4
-1.496, 7.746e-4
-1.497, 7.839e-4
-1.498, 7.927e-4
-1.499, 8.016e-4
-1.500, 8.114e-4
-1.501, 8.207e-4
-1.502, 8.297e-4
-1.503, 8.393e-4
-1.504, 8.485e-4
-1.505, 8.584e-4
-1.506, 8.686e-4
-1.507, 8.782e-4
-1.508, 8.881e-4
-1.509, 8.981e-4
-1.510, 9.082e-4
-1.511, 9.183e-4
-1.512, 9.285e-4
-1.513, 9.389e-4
-1.514, 9.493e-4
-1.515, 9.604e-4
-1.516, 9.716e-4
-1.517, 9.816e-4
-1.518, 9.923e-4
-1.519, 1.004e-3
-1.520, 1.015e-3
-1.521, 1.027e-3
-1.522, 1.038e-3
-1.523, 1.049e-3
-1.524, 1.061e-3
-1.525, 1.072e-3
-1.526, 1.085e-3
-1.527, 1.097e-3
-1.528, 1.108e-3
-1.529, 1.120e-3
-1.530, 1.134e-3
-1.531, 1.146e-3
-1.532, 1.159e-3
-1.533, 1.171e-3
-1.534, 1.183e-3
-1.535, 1.196e-3
-1.536, 1.210e-3
-1.537, 1.223e-3
-1.538, 1.236e-3
-1.539, 1.250e-3
-1.540, 1.264e-3
-1.541, 1.278e-3
-1.542, 1.292e-3
-1.543, 1.306e-3
-1.544, 1.321e-3
-1.545, 1.336e-3
-1.546, 1.351e-3
-1.547, 1.366e-3
-1.548, 1.381e-3
-1.549, 1.396e-3
-1.550, 1.412e-3
-1.551, 1.430e-3
-1.552, 1.445e-3
-1.553, 1.461e-3
-1.554, 1.478e-3
-1.555, 1.494e-3
-1.556, 1.512e-3
-1.557, 1.529e-3
-1.558, 1.546e-3
-1.559, 1.564e-3
-1.560, 1.583e-3
-1.561, 1.601e-3
-1.562, 1.620e-3
-1.563, 1.638e-3
-1.564, 1.657e-3
-1.565, 1.676e-3
-1.566, 1.696e-3
-1.567, 1.716e-3
-1.568, 1.736e-3
-1.569, 1.756e-3
-1.570, 1.777e-3
-1.571, 1.798e-3
-1.572, 1.820e-3
-1.573, 1.840e-3
-1.574, 1.861e-3
-1.575, 1.885e-3
-1.576, 1.907e-3
-1.577, 1.929e-3
-1.578, 1.952e-3
-1.579, 1.975e-3
-1.580, 2.000e-3
-1.581, 2.024e-3
-1.582, 2.047e-3
-1.583, 2.073e-3
-1.584, 2.097e-3
-1.585, 2.123e-3
-1.586, 2.149e-3
-1.587, 2.176e-3
-1.588, 2.201e-3
-1.589, 2.228e-3
-1.590, 2.257e-3
-1.591, 2.284e-3
-1.592, 2.313e-3
-1.593, 2.343e-3
-1.594, 2.370e-3
-1.595, 2.400e-3
-1.596, 2.430e-3
-1.597, 2.459e-3
-1.598, 2.492e-3
-1.599, 2.524e-3
-1.600, 2.555e-3
-1.601, 2.592e-3
-1.602, 2.622e-3
-1.603, 2.652e-3
-1.604, 2.686e-3
-1.605, 2.721e-3
-1.606, 2.756e-3
-1.607, 2.796e-3
-1.608, 2.827e-3
-1.609, 2.864e-3
-1.610, 2.904e-3
-1.611, 2.940e-3
-1.612, 2.975e-3
-1.613, 3.014e-3
-1.614, 3.052e-3
-1.615, 3.089e-3
-1.616, 3.129e-3
-1.617, 3.173e-3
-1.618, 3.214e-3
-1.619, 3.254e-3
-1.620, 3.295e-3
-1.621, 3.340e-3
-1.622, 3.381e-3
-1.623, 3.427e-3
-1.624, 3.472e-3
-1.625, 3.515e-3
-1.626, 3.561e-3
-1.627, 3.611e-3
-1.628, 3.657e-3
-1.629, 3.699e-3
-1.630, 3.745e-3
-1.631, 3.796e-3
-1.632, 3.846e-3
-1.633, 3.894e-3
-1.634, 3.942e-3
-1.635, 3.994e-3
-1.636, 4.049e-3
-1.637, 4.103e-3
-1.638, 4.158e-3
-1.639, 4.213e-3
-1.640, 4.266e-3
-1.641, 4.319e-3
-1.642, 4.373e-3
-1.643, 4.428e-3
-1.644, 4.484e-3
-1.645, 4.548e-3
-1.646, 4.607e-3
-1.647, 4.672e-3
-1.648, 4.740e-3
-1.649, 4.794e-3
-1.650, 4.854e-3
-1.651, 4.913e-3
-1.652, 4.972e-3
-1.653, 5.044e-3
-1.654, 5.127e-3
-1.655, 5.187e-3
-1.656, 5.241e-3
-1.657, 5.309e-3
-1.658, 5.370e-3
-1.659, 5.434e-3
-1.660, 5.498e-3
-1.661, 5.572e-3
-1.662, 5.647e-3
-1.663, 5.705e-3
-1.664, 5.765e-3
-1.665, 5.837e-3
-1.666, 5.893e-3
-1.667, 5.971e-3
-1.668, 6.034e-3
-1.669, 6.116e-3
-1.670, 6.183e-3
-1.671, 6.255e-3
-1.672, 6.336e-3
-1.673, 6.411e-3
-1.674, 6.492e-3
-1.675, 6.575e-3
-1.676, 6.637e-3
-1.677, 6.705e-3
-1.678, 6.778e-3
-1.679, 6.845e-3
-1.680, 6.925e-3
-1.681, 6.978e-3
-1.682, 7.038e-3
-1.683, 7.116e-3
-1.684, 7.180e-3
-1.685, 7.241e-3
-1.686, 7.309e-3
-1.687, 7.397e-3
-1.688, 7.453e-3
-1.689, 7.513e-3
-1.690, 7.596e-3
-1.691, 7.659e-3
-1.692, 7.727e-3
-1.693, 7.805e-3
-1.694, 7.865e-3
-1.695, 7.954e-3
-1.696, 8.024e-3
-1.697, 8.085e-3
-1.698, 8.184e-3
-1.699, 8.260e-3
-1.700, 8.273e-3
-1.699, 8.205e-3
-1.698, 8.112e-3
-1.697, 8.047e-3
-1.696, 7.988e-3
-1.695, 7.892e-3
-1.694, 7.832e-3
-1.693, 7.779e-3
-1.692, 7.731e-3
-1.691, 7.695e-3
-1.690, 7.680e-3
-1.689, 7.596e-3
-1.688, 7.529e-3
-1.687, 7.440e-3
-1.686, 7.363e-3
-1.685, 7.304e-3
-1.684, 7.238e-3
-1.683, 7.154e-3
-1.682, 7.070e-3
-1.681, 6.987e-3
-1.680, 6.904e-3
-1.679, 6.816e-3
-1.678, 6.732e-3
-1.677, 6.640e-3
-1.676, 6.575e-3
-1.675, 6.499e-3
-1.674, 6.424e-3
-1.673, 6.343e-3
-1.672, 6.274e-3
-1.671, 6.197e-3
-1.670, 6.111e-3
-1.669, 6.056e-3
-1.668, 5.979e-3
-1.667, 5.907e-3
-1.666, 5.836e-3
-1.665, 5.764e-3
-1.664, 5.713e-3
-1.663, 5.657e-3
-1.662, 5.602e-3
-1.661, 5.538e-3
-1.660, 5.465e-3
-1.659, 5.396e-3
-1.658, 5.333e-3
-1.657, 5.258e-3
-1.656, 5.186e-3
-1.655, 5.127e-3
-1.654, 5.063e-3
-1.653, 5.012e-3
-1.652, 4.949e-3
-1.651, 4.903e-3
-1.650, 4.862e-3
-1.649, 4.810e-3
-1.648, 4.754e-3
-1.647, 4.691e-3
-1.646, 4.639e-3
-1.645, 4.591e-3
-1.644, 4.527e-3
-1.643, 4.469e-3
-1.642, 4.419e-3
-1.641, 4.367e-3
-1.640, 4.319e-3
-1.639, 4.260e-3
-1.638, 4.197e-3
-1.637, 4.140e-3
-1.636, 4.092e-3
-1.635, 4.041e-3
-1.634, 4.003e-3
-1.633, 3.949e-3
-1.632, 3.895e-3
-1.631, 3.843e-3
-1.630, 3.794e-3
-1.629, 3.754e-3
-1.628, 3.714e-3
-1.627, 3.667e-3
-1.626, 3.614e-3
-1.625, 3.569e-3
-1.624, 3.531e-3
-1.623, 3.492e-3
-1.622, 3.439e-3
-1.621, 3.395e-3
-1.620, 3.348e-3
-1.619, 3.294e-3
-1.618, 3.255e-3
-1.617, 3.214e-3
-1.616, 3.167e-3
-1.615, 3.121e-3
-1.614, 3.079e-3
-1.613, 3.036e-3
-1.612, 2.994e-3
-1.611, 2.948e-3
-1.610, 2.906e-3
-1.609, 2.867e-3
-1.608, 2.828e-3
-1.607, 2.796e-3
-1.606, 2.756e-3
-1.605, 2.719e-3
-1.604, 2.682e-3
-1.603, 2.644e-3
-1.602, 2.614e-3
-1.601, 2.574e-3
-1.600, 2.536e-3
-1.599, 2.498e-3
-1.598, 2.463e-3
-1.597, 2.429e-3
-1.596, 2.394e-3
-1.595, 2.360e-3
-1.594, 2.325e-3
-1.593, 2.292e-3
-1.592, 2.259e-3
-1.591, 2.226e-3
-1.590, 2.197e-3
-1.589, 2.166e-3
-1.588, 2.135e-3
-1.587, 2.104e-3
-1.586, 2.077e-3
-1.585, 2.050e-3
-1.584, 2.020e-3
-1.583, 1.994e-3
-1.582, 1.968e-3
-1.581, 1.937e-3
-1.580, 1.908e-3
-1.579, 1.883e-3
-1.578, 1.855e-3
-1.577, 1.828e-3
-1.576, 1.803e-3
-1.575, 1.777e-3
-1.574, 1.751e-3
-1.573, 1.727e-3
-1.572, 1.703e-3
-1.571, 1.678e-3
-1.570, 1.655e-3
-1.569, 1.631e-3
-1.568, 1.607e-3
-1.567, 1.585e-3
-1.566, 1.563e-3
-1.565, 1.540e-3
-1.564, 1.519e-3
-1.563, 1.499e-3
-1.562, 1.477e-3
-1.561, 1.456e-3
-1.560, 1.436e-3
-1.559, 1.416e-3
-1.558, 1.394e-3
-1.557, 1.373e-3
-1.556, 1.353e-3
-1.555, 1.335e-3
-1.554, 1.319e-3
-1.553, 1.299e-3
-1.552, 1.280e-3
-1.551, 1.262e-3
-1.550, 1.244e-3
-1.549, 1.226e-3
-1.548, 1.209e-3
-1.547, 1.193e-3
-1.546, 1.176e-3
-1.545, 1.158e-3
-1.544, 1.141e-3
-1.543, 1.125e-3
-1.542, 1.107e-3
-1.541, 1.091e-3
-1.540, 1.074e-3
-1.539, 1.058e-3
-1.538, 1.043e-3
-1.537, 1.027e-3
-1.536, 1.011e-3
-1.535, 9.964e-4
-1.534, 9.807e-4
-1.533, 9.665e-4
-1.532, 9.510e-4
-1.531, 9.360e-4
-1.530, 9.215e-4
-1.529, 9.071e-4
-1.528, 8.932e-4
-1.527, 8.798e-4
-1.526, 8.658e-4
-1.525, 8.525e-4
-1.524, 8.391e-4
-1.523, 8.262e-4
-1.522, 8.141e-4
-1.521, 8.010e-4
-1.520, 7.883e-4
-1.519, 7.757e-4
-1.518, 7.640e-4
-1.517, 7.521e-4
-1.516, 7.398e-4
-1.515, 7.278e-4
-1.514, 7.165e-4
-1.513, 7.050e-4
-1.512, 6.945e-4
-1.511, 6.831e-4
-1.510, 6.714e-4
-1.509, 6.610e-4
-1.508, 6.503e-4
-1.507, 6.406e-4
-1.506, 6.300e-4
-1.505, 6.193e-4
-1.504, 6.092e-4
-1.503, 6.000e-4
-1.502, 5.900e-4
-1.501, 5.801e-4
-1.500, 5.706e-4
-1.499, 5.614e-4
-1.498, 5.524e-4
-1.497, 5.433e-4
-1.496, 5.344e-4
-1.495, 5.253e-4
-1.494, 5.164e-4
-1.493, 5.083e-4
-1.492, 5.001e-4
-1.491, 4.914e-4
-1.490, 4.828e-4
-1.489, 4.748e-4
-1.488, 4.674e-4
-1.487, 4.596e-4
-1.486, 4.516e-4
-1.485, 4.434e-4
-1.484, 4.365e-4
-1.483, 4.291e-4
-1.482, 4.220e-4
-1.481, 4.146e-4
-1.480, 4.073e-4
-1.479, 4.005e-4
-1.478, 3.939e-4
-1.477, 3.871e-4
-1.476, 3.805e-4
-1.475, 3.735e-4
-1.474, 3.668e-4
-1.473, 3.610e-4
-1.472, 3.550e-4
-1.471, 3.485e-4
-1.470, 3.420e-4
-1.469, 3.360e-4
-1.468, 3.312e-4
-1.467, 3.251e-4
-1.466, 3.195e-4
-1.465, 3.133e-4
-1.464, 3.079e-4
-1.463, 3.026e-4
-1.462, 2.972e-4
-1.461, 2.917e-4
-1.460, 2.860e-4
-1.459, 2.807e-4
-1.458, 2.760e-4
-1.457, 2.710e-4
-1.456, 2.657e-4
-1.455, 2.607e-4
-1.454, 2.561e-4
-1.453, 2.518e-4
-1.452, 2.480e-4
-1.451, 2.433e-4
-1.450, 2.383e-4
-1.449, 2.340e-4
-1.448, 2.298e-4
-1.447, 2.259e-4
-1.446, 2.213e-4
-1.445, 2.169e-4
-1.444, 2.128e-4
-1.443, 2.091e-4
-1.442, 2.054e-4
-1.441, 2.012e-4
-1.440, 1.972e-4
-1.439, 1.933e-4
-1.438, 1.899e-4
-1.437, 1.866e-4
-1.436, 1.828e-4
-1.435, 1.787e-4
-1.434, 1.753e-4
-1.433, 1.722e-4
-1.432, 1.690e-4
-1.431, 1.655e-4
-1.430, 1.618e-4
-1.429, 1.587e-4
-1.428, 1.558e-4
-1.427, 1.528e-4
-1.426, 1.496e-4
-1.425, 1.462e-4
-1.424, 1.433e-4
-1.423, 1.407e-4
-1.422, 1.381e-4
-1.421, 1.351e-4
-1.420, 1.320e-4
-1.419, 1.291e-4
-1.418, 1.268e-4
-1.417, 1.244e-4
-1.416, 1.218e-4
-1.415, 1.189e-4
-1.414, 1.162e-4
-1.413, 1.142e-4
-1.412, 1.120e-4
-1.411, 1.094e-4
-1.410, 1.068e-4
-1.409, 1.043e-4
-1.408, 1.024e-4
-1.407, 1.004e-4
-1.406, 9.802e-5
-1.405, 9.560e-5
-1.404, 9.335e-5
-1.403, 9.148e-5
-1.402, 8.980e-5
-1.401, 8.746e-5
-1.400, 8.519e-5
-1.399, 8.318e-5
-1.398, 8.151e-5
-1.397, 7.980e-5
-1.396, 7.789e-5
-1.395, 7.551e-5
-1.394, 7.370e-5
-1.393, 7.217e-5
-1.392, 7.077e-5
-1.391, 6.892e-5
-1.390, 6.672e-5
-1.389, 6.509e-5
-1.388, 6.371e-5
-1.387, 6.228e-5
-1.386, 6.070e-5
-1.385, 5.868e-5
-1.384, 5.711e-5
-1.383, 5.581e-5
-1.382, 5.453e-5
-1.381, 5.310e-5
-1.380, 5.121e-5
-1.379, 4.968e-5
-1.378, 4.859e-5
-1.377, 4.745e-5
-1.376, 4.607e-5
-1.375, 4.443e-5
-1.374, 4.282e-5
-1.373, 4.204e-5
-1.372, 4.103e-5
-1.371, 3.966e-5
-1.370, 3.806e-5
-1.369, 3.664e-5
-1.368, 3.587e-5
-1.367, 3.499e-5
-1.366, 3.368e-5
-1.365, 3.229e-5
-1.364, 3.099e-5
-1.363, 3.015e-5
-1.362, 2.946e-5
-1.361, 2.834e-5
-1.360, 2.693e-5
-1.359, 2.575e-5
-1.358, 2.495e-5
-1.357, 2.437e-5
-1.356, 2.326e-5
-1.355, 2.196e-5
-1.354, 2.101e-5
-1.353, 2.014e-5
-1.352, 1.972e-5
-1.351, 1.870e-5
-1.350, 1.738e-5
-1.349, 1.647e-5
-1.348, 1.585e-5
-1.347, 1.529e-5
-1.346, 1.446e-5
-1.345, 1.330e-5
-1.344, 1.242e-5
-1.343, 1.181e-5
-1.342, 1.128e-5
-1.341, 1.060e-5
-1.340, 9.585e-6
-1.339, 8.561e-6
-1.338, 8.119e-6
-1.337, 7.707e-6
-1.336, 7.071e-6
-1.335, 6.099e-6
-1.334, 5.090e-6
-1.333, 4.719e-6
-1.332, 4.463e-6
-1.331, 3.698e-6
-1.330, 2.894e-6
-1.329, 2.007e-6
-1.328, 1.655e-6
-1.327, 1.479e-6
-1.326, 7.506e-7
-1.325, -6.038e-8
-1.324, -8.240e-7
-1.323, -1.252e-6
-1.322, -1.335e-6
-1.321, -1.936e-6
-1.320, -2.650e-6
-1.319, -3.464e-6
-1.318, -3.863e-6
-1.317, -3.822e-6
-1.316, -4.356e-6
-1.315, -5.214e-6
-1.314, -5.826e-6
-1.313, -6.135e-6
-1.312, -6.197e-6
-1.311, -6.534e-6
-1.310, -7.391e-6
-1.309, -7.926e-6
-1.308, -8.188e-6
-1.307, -8.373e-6
-1.306, -8.524e-6
-1.305, -9.409e-6
-1.304, -9.914e-6
-1.303, -1.018e-5
-1.302, -1.018e-5
-1.301, -1.044e-5
-1.300, -1.110e-5
-1.299, -1.183e-5
-1.298, -1.194e-5
-1.297, -1.194e-5
-1.296, -1.213e-5
-1.295, -1.290e-5
-1.294, -1.346e-5
-1.293, -1.354e-5
-1.292, -1.353e-5
-1.291, -1.372e-5
-1.290, -1.433e-5
-1.289, -1.493e-5
-1.288, -1.495e-5
-1.287, -1.503e-5
-1.286, -1.506e-5
-1.285, -1.571e-5
-1.284, -1.615e-5
-1.283, -1.634e-5
-1.282, -1.619e-5
-1.281, -1.635e-5
-1.280, -1.699e-5
-1.279, -1.734e-5
-1.278, -1.762e-5
-1.277, -1.738e-5
-1.276, -1.741e-5
-1.275, -1.806e-5
-1.274, -1.850e-5
-1.273, -1.864e-5
-1.272, -1.846e-5
-1.271, -1.848e-5
-1.270, -1.908e-5
-1.269, -1.947e-5
-1.268, -1.958e-5
-1.267, -1.952e-5
-1.266, -1.937e-5
-1.265, -2.001e-5
-1.264, -2.046e-5
-1.263, -2.044e-5
-1.262, -2.046e-5
-1.261, -2.030e-5
-1.260, -2.081e-5
-1.259, -2.135e-5
-1.258, -2.129e-5
-1.257, -2.122e-5
-1.256, -2.113e-5
-1.255, -2.157e-5
-1.254, -2.211e-5
-1.253, -2.217e-5
-1.252, -2.202e-5
-1.251, -2.190e-5
-1.250, -2.238e-5
-1.249, -2.281e-5
-1.248, -2.291e-5
-1.247, -2.258e-5
-1.246, -2.266e-5
-1.245, -2.298e-5
-1.244, -2.347e-5
-1.243, -2.362e-5
-1.242, -2.340e-5
-1.241, -2.325e-5
-1.240, -2.357e-5
-1.239, -2.411e-5
-1.238, -2.429e-5
-1.237, -2.393e-5
-1.236, -2.386e-5
-1.235, -2.429e-5
-1.234, -2.471e-5
-1.233, -2.486e-5
-1.232, -2.451e-5
-1.231, -2.442e-5
-1.230, -2.490e-5
-1.229, -2.555e-5
-1.228, -2.543e-5
-1.227, -2.534e-5
-1.226, -2.505e-5
-1.225, -2.541e-5
-1.224, -2.597e-5
-1.223, -2.587e-5
-1.222, -2.583e-5
-1.221, -2.555e-5
-1.220, -2.583e-5
-1.219, -2.649e-5
-1.218, -2.649e-5
-1.217, -2.639e-5
-1.216, -2.614e-5
-1.215, -2.644e-5
-1.214, -2.712e-5
-1.213, -2.695e-5
-1.212, -2.684e-5
-1.211, -2.667e-5
-1.210, -2.696e-5
-1.209, -2.753e-5
-1.208, -2.753e-5
-1.207, -2.739e-5
-1.206, -2.722e-5
-1.205, -2.751e-5
-1.204, -2.800e-5
-1.203, -2.813e-5
-1.202, -2.783e-5
-1.201, -2.774e-5
-1.200, -2.799e-5
-1.199, -2.847e-5
-1.198, -2.866e-5
-1.197, -2.833e-5
-1.196, -2.817e-5
-1.195, -2.858e-5
-1.194, -2.894e-5
-1.193, -2.914e-5
-1.192, -2.886e-5
-1.191, -2.867e-5
-1.190, -2.904e-5
-1.189, -2.945e-5
-1.188, -2.966e-5
-1.187, -2.947e-5
-1.186, -2.917e-5
-1.185, -2.968e-5
-1.184, -3.010e-5
-1.183, -3.021e-5
-1.182, -2.999e-5
-1.181, -2.978e-5
-1.180, -3.003e-5
-1.179, -3.064e-5
-1.178, -3.084e-5
-1.177, -3.066e-5
-1.176, -3.042e-5
-1.175, -3.062e-5
-1.174, -3.119e-5
-1.173, -3.131e-5
-1.172, -3.108e-5
-1.171, -3.095e-5
-1.170, -3.115e-5
-1.169, -3.174e-5
-1.168, -3.187e-5
-1.167, -3.165e-5
-1.166, -3.160e-5
-1.165, -3.174e-5
-1.164, -3.219e-5
-1.163, -3.253e-5
-1.162, -3.227e-5
-1.161, -3.219e-5
-1.160, -3.227e-5
-1.159, -3.282e-5
-1.158, -3.312e-5
-1.157, -3.289e-5
-1.156, -3.271e-5
-1.155, -3.303e-5
-1.154, -3.338e-5
-1.153, -3.381e-5
-1.152, -3.356e-5
-1.151, -3.340e-5
-1.150, -3.364e-5
-1.149, -3.408e-5
-1.148, -3.433e-5
-1.147, -3.424e-5
-1.146, -3.398e-5
-1.145, -3.425e-5
-1.144, -3.473e-5
-1.143, -3.485e-5
-1.142, -3.490e-5
-1.141, -3.466e-5
-1.140, -3.481e-5
-1.139, -3.539e-5
-1.138, -3.566e-5
-1.137, -3.553e-5
-1.136, -3.529e-5
-1.135, -3.544e-5
-1.134, -3.604e-5
-1.133, -3.634e-5
-1.132, -3.619e-5
-1.131, -3.605e-5
-1.130, -3.605e-5
-1.129, -3.670e-5
-1.128, -3.688e-5
-1.127, -3.675e-5
-1.126, -3.673e-5
-1.125, -3.672e-5
-1.124, -3.724e-5
-1.123, -3.762e-5
-1.122, -3.740e-5
-1.121, -3.729e-5
-1.120, -3.735e-5
-1.119, -3.779e-5
-1.118, -3.828e-5
-1.117, -3.798e-5
-1.116, -3.776e-5
-1.115, -3.794e-5
-1.114, -3.845e-5
-1.113, -3.876e-5
-1.112, -3.859e-5
-1.111, -3.835e-5
-1.110, -3.858e-5
-1.109, -3.892e-5
-1.108, -3.931e-5
-1.107, -3.935e-5
-1.106, -3.887e-5
-1.105, -3.922e-5
-1.104, -3.948e-5
-1.103, -3.982e-5
-1.102, -3.983e-5
-1.101, -3.949e-5
-1.100, -3.965e-5
-1.099, -4.018e-5
-1.098, -4.035e-5
-1.097, -4.040e-5
-1.096, -4.008e-5
-1.095, -4.016e-5
-1.094, -4.063e-5
-1.093, -4.094e-5
-1.092, -4.077e-5
-1.091, -4.063e-5
-1.090, -4.059e-5
-1.089, -4.118e-5
-1.088, -4.140e-5
-1.087, -4.132e-5
-1.086, -4.110e-5
-1.085, -4.108e-5
-1.084, -4.158e-5
-1.083, -4.206e-5
-1.082, -4.185e-5
-1.081, -4.165e-5
-1.080, -4.166e-5
-1.079, -4.207e-5
-1.078, -4.251e-5
-1.077, -4.238e-5
-1.076, -4.217e-5
-1.075, -4.218e-5
-1.074, -4.263e-5
-1.073, -4.297e-5
-1.072, -4.290e-5
-1.071, -4.259e-5
-1.070, -4.266e-5
-1.069, -4.304e-5
-1.068, -4.346e-5
-1.067, -4.339e-5
-1.066, -4.319e-5
-1.065, -4.315e-5
-1.064, -4.352e-5
-1.063, -4.392e-5
-1.062, -4.395e-5
-1.061, -4.367e-5
-1.060, -4.349e-5
-1.059, -4.413e-5
-1.058, -4.443e-5
-1.057, -4.451e-5
-1.056, -4.414e-5
-1.055, -4.410e-5
-1.054, -4.460e-5
-1.053, -4.491e-5
-1.052, -4.490e-5
-1.051, -4.484e-5
-1.050, -4.464e-5
-1.049, -4.513e-5
-1.048, -4.556e-5
-1.047, -4.547e-5
-1.046, -4.547e-5
-1.045, -4.517e-5
-1.044, -4.567e-5
-1.043, -4.617e-5
-1.042, -4.612e-5
-1.041, -4.600e-5
-1.040, -4.582e-5
-1.039, -4.632e-5
-1.038, -4.680e-5
-1.037, -4.682e-5
-1.036, -4.667e-5
-1.035, -4.670e-5
-1.034, -4.701e-5
-1.033, -4.755e-5
-1.032, -4.748e-5
-1.031, -4.736e-5
-1.030, -4.741e-5
-1.029, -4.767e-5
-1.028, -4.816e-5
-1.027, -4.836e-5
-1.026, -4.809e-5
-1.025, -4.809e-5
-1.024, -4.852e-5
-1.023, -4.904e-5
-1.022, -4.908e-5
-1.021, -4.883e-5
-1.020, -4.878e-5
-1.019, -4.937e-5
-1.018, -4.977e-5
-1.017, -4.991e-5
-1.016, -4.970e-5
-1.015, -4.966e-5
-1.014, -5.015e-5
-1.013, -5.047e-5
-1.012, -5.069e-5
-1.011, -5.064e-5
-1.010, -5.053e-5
-1.009, -5.101e-5
-1.008, -5.136e-5
-1.007, -5.157e-5
-1.006, -5.152e-5
-1.005, -5.139e-5
-1.004, -5.180e-5
-1.003, -5.252e-5
-1.002, -5.245e-5
-1.001, -5.248e-5
