Apr. 23, 2025   18:07:57
Cyclic Voltammetry
File: c:/users/guazh/data/banditlqround7_x0exp590_r20/2025-04-16-exp1168\exp1168-2025-04-23t17_49_26-arkoh\exp1168_cv_sr_300mvs_efin_-1700mv.bin
Data Source:  Experiment
Instrument Model:  CHI760E
Header: CV ran at 300 mVs
Note: 

Init E (V) = -1
High E (V) = -1
Low E (V) = -1.7
Final E (V) = -1
Init P/N = N
Scan Rate (V/s) = 0.3
Segment = 3
Sample Interval (V) = 0.001
Quiet Time (sec) = 2
Sensitivity (A/V) = 0.01
Comp R (ohm) = 2.2

Results:

Channel 1:
Segment 1:

Segment 2:

Segment 3:

Potential/V, Current/A

-1.000, 2.174e-5
-1.001, 4.332e-5
-1.002, 4.332e-5
-1.003, 4.640e-5
-1.004, 5.257e-5
-1.005, 5.565e-5
-1.006, 5.257e-5
-1.007, 5.257e-5
-1.008, 5.565e-5
-1.009, 5.873e-5
-1.010, 5.873e-5
-1.011, 5.565e-5
-1.012, 5.873e-5
-1.013, 5.873e-5
-1.014, 6.182e-5
-1.015, 6.182e-5
-1.016, 6.182e-5
-1.017, 6.182e-5
-1.018, 6.182e-5
-1.019, 6.490e-5
-1.020, 6.490e-5
-1.021, 6.490e-5
-1.022, 6.490e-5
-1.023, 6.490e-5
-1.024, 6.798e-5
-1.025, 6.798e-5
-1.026, 6.490e-5
-1.027, 6.490e-5
-1.028, 6.798e-5
-1.029, 6.798e-5
-1.030, 7.107e-5
-1.031, 6.798e-5
-1.032, 6.798e-5
-1.033, 6.798e-5
-1.034, 7.107e-5
-1.035, 7.107e-5
-1.036, 7.107e-5
-1.037, 6.798e-5
-1.038, 7.107e-5
-1.039, 7.415e-5
-1.040, 7.415e-5
-1.041, 7.107e-5
-1.042, 7.107e-5
-1.043, 7.107e-5
-1.044, 7.415e-5
-1.045, 7.415e-5
-1.046, 7.415e-5
-1.047, 7.107e-5
-1.048, 7.107e-5
-1.049, 7.415e-5
-1.050, 7.723e-5
-1.051, 7.415e-5
-1.052, 7.415e-5
-1.053, 7.415e-5
-1.054, 7.723e-5
-1.055, 7.723e-5
-1.056, 7.415e-5
-1.057, 7.415e-5
-1.058, 7.415e-5
-1.059, 7.723e-5
-1.060, 8.032e-5
-1.061, 7.723e-5
-1.062, 7.415e-5
-1.063, 7.723e-5
-1.064, 7.723e-5
-1.065, 8.032e-5
-1.066, 7.723e-5
-1.067, 7.723e-5
-1.068, 7.723e-5
-1.069, 7.723e-5
-1.070, 8.032e-5
-1.071, 8.032e-5
-1.072, 7.415e-5
-1.073, 7.723e-5
-1.074, 8.032e-5
-1.075, 8.032e-5
-1.076, 8.032e-5
-1.077, 7.723e-5
-1.078, 8.032e-5
-1.079, 8.032e-5
-1.080, 8.032e-5
-1.081, 8.032e-5
-1.082, 8.032e-5
-1.083, 8.032e-5
-1.084, 8.032e-5
-1.085, 8.032e-5
-1.086, 8.032e-5
-1.087, 8.032e-5
-1.088, 8.032e-5
-1.089, 8.340e-5
-1.090, 8.340e-5
-1.091, 8.032e-5
-1.092, 8.032e-5
-1.093, 8.032e-5
-1.094, 8.340e-5
-1.095, 8.340e-5
-1.096, 8.340e-5
-1.097, 8.032e-5
-1.098, 8.032e-5
-1.099, 8.340e-5
-1.100, 8.340e-5
-1.101, 8.340e-5
-1.102, 8.032e-5
-1.103, 8.032e-5
-1.104, 8.340e-5
-1.105, 8.340e-5
-1.106, 8.340e-5
-1.107, 8.032e-5
-1.108, 8.340e-5
-1.109, 8.648e-5
-1.110, 8.648e-5
-1.111, 8.340e-5
-1.112, 8.032e-5
-1.113, 8.032e-5
-1.114, 8.648e-5
-1.115, 8.648e-5
-1.116, 8.340e-5
-1.117, 8.340e-5
-1.118, 8.340e-5
-1.119, 8.648e-5
-1.120, 8.648e-5
-1.121, 8.648e-5
-1.122, 8.340e-5
-1.123, 8.340e-5
-1.124, 8.648e-5
-1.125, 8.648e-5
-1.126, 8.340e-5
-1.127, 8.340e-5
-1.128, 8.340e-5
-1.129, 8.648e-5
-1.130, 8.648e-5
-1.131, 8.340e-5
-1.132, 8.340e-5
-1.133, 8.648e-5
-1.134, 8.648e-5
-1.135, 8.957e-5
-1.136, 8.648e-5
-1.137, 8.340e-5
-1.138, 8.648e-5
-1.139, 8.648e-5
-1.140, 8.648e-5
-1.141, 8.648e-5
-1.142, 8.648e-5
-1.143, 8.340e-5
-1.144, 8.648e-5
-1.145, 8.957e-5
-1.146, 8.648e-5
-1.147, 8.648e-5
-1.148, 8.648e-5
-1.149, 8.957e-5
-1.150, 8.957e-5
-1.151, 8.648e-5
-1.152, 8.340e-5
-1.153, 8.648e-5
-1.154, 8.957e-5
-1.155, 8.957e-5
-1.156, 8.648e-5
-1.157, 8.648e-5
-1.158, 8.648e-5
-1.159, 8.957e-5
-1.160, 8.957e-5
-1.161, 8.957e-5
-1.162, 8.648e-5
-1.163, 8.648e-5
-1.164, 8.957e-5
-1.165, 8.957e-5
-1.166, 8.957e-5
-1.167, 8.648e-5
-1.168, 8.648e-5
-1.169, 8.957e-5
-1.170, 8.957e-5
-1.171, 8.957e-5
-1.172, 8.957e-5
-1.173, 8.957e-5
-1.174, 8.957e-5
-1.175, 9.265e-5
-1.176, 8.648e-5
-1.177, 8.957e-5
-1.178, 8.957e-5
-1.179, 9.265e-5
-1.180, 9.265e-5
-1.181, 8.957e-5
-1.182, 8.957e-5
-1.183, 8.957e-5
-1.184, 8.957e-5
-1.185, 9.265e-5
-1.186, 9.265e-5
-1.187, 8.957e-5
-1.188, 8.957e-5
-1.189, 9.265e-5
-1.190, 9.265e-5
-1.191, 9.265e-5
-1.192, 8.957e-5
-1.193, 8.957e-5
-1.194, 9.265e-5
-1.195, 9.265e-5
-1.196, 9.265e-5
-1.197, 9.265e-5
-1.198, 8.957e-5
-1.199, 9.265e-5
-1.200, 9.265e-5
-1.201, 9.265e-5
-1.202, 9.265e-5
-1.203, 9.265e-5
-1.204, 9.573e-5
-1.205, 9.573e-5
-1.206, 9.265e-5
-1.207, 9.265e-5
-1.208, 9.265e-5
-1.209, 9.573e-5
-1.210, 9.573e-5
-1.211, 9.265e-5
-1.212, 9.265e-5
-1.213, 9.265e-5
-1.214, 9.573e-5
-1.215, 9.573e-5
-1.216, 9.265e-5
-1.217, 9.265e-5
-1.218, 9.265e-5
-1.219, 9.573e-5
-1.220, 9.882e-5
-1.221, 9.573e-5
-1.222, 9.573e-5
-1.223, 9.573e-5
-1.224, 9.573e-5
-1.225, 9.573e-5
-1.226, 9.882e-5
-1.227, 9.573e-5
-1.228, 9.573e-5
-1.229, 9.882e-5
-1.230, 9.882e-5
-1.231, 9.882e-5
-1.232, 9.573e-5
-1.233, 9.573e-5
-1.234, 9.882e-5
-1.235, 1.019e-4
-1.236, 9.882e-5
-1.237, 9.573e-5
-1.238, 9.882e-5
-1.239, 1.019e-4
-1.240, 1.019e-4
-1.241, 1.019e-4
-1.242, 9.882e-5
-1.243, 9.882e-5
-1.244, 1.019e-4
-1.245, 1.019e-4
-1.246, 1.019e-4
-1.247, 1.019e-4
-1.248, 1.019e-4
-1.249, 1.019e-4
-1.250, 1.050e-4
-1.251, 1.019e-4
-1.252, 1.019e-4
-1.253, 1.019e-4
-1.254, 1.050e-4
-1.255, 1.050e-4
-1.256, 1.019e-4
-1.257, 1.050e-4
-1.258, 1.050e-4
-1.259, 1.050e-4
-1.260, 1.081e-4
-1.261, 1.050e-4
-1.262, 1.050e-4
-1.263, 1.050e-4
-1.264, 1.081e-4
-1.265, 1.081e-4
-1.266, 1.081e-4
-1.267, 1.050e-4
-1.268, 1.081e-4
-1.269, 1.111e-4
-1.270, 1.111e-4
-1.271, 1.111e-4
-1.272, 1.081e-4
-1.273, 1.111e-4
-1.274, 1.111e-4
-1.275, 1.111e-4
-1.276, 1.111e-4
-1.277, 1.111e-4
-1.278, 1.111e-4
-1.279, 1.142e-4
-1.280, 1.173e-4
-1.281, 1.142e-4
-1.282, 1.142e-4
-1.283, 1.142e-4
-1.284, 1.173e-4
-1.285, 1.173e-4
-1.286, 1.173e-4
-1.287, 1.173e-4
-1.288, 1.173e-4
-1.289, 1.204e-4
-1.290, 1.204e-4
-1.291, 1.204e-4
-1.292, 1.173e-4
-1.293, 1.204e-4
-1.294, 1.235e-4
-1.295, 1.235e-4
-1.296, 1.235e-4
-1.297, 1.235e-4
-1.298, 1.235e-4
-1.299, 1.266e-4
-1.300, 1.296e-4
-1.301, 1.266e-4
-1.302, 1.266e-4
-1.303, 1.266e-4
-1.304, 1.296e-4
-1.305, 1.327e-4
-1.306, 1.296e-4
-1.307, 1.296e-4
-1.308, 1.296e-4
-1.309, 1.358e-4
-1.310, 1.358e-4
-1.311, 1.358e-4
-1.312, 1.358e-4
-1.313, 1.358e-4
-1.314, 1.389e-4
-1.315, 1.420e-4
-1.316, 1.420e-4
-1.317, 1.389e-4
-1.318, 1.420e-4
-1.319, 1.451e-4
-1.320, 1.481e-4
-1.321, 1.481e-4
-1.322, 1.481e-4
-1.323, 1.481e-4
-1.324, 1.512e-4
-1.325, 1.543e-4
-1.326, 1.543e-4
-1.327, 1.512e-4
-1.328, 1.543e-4
-1.329, 1.574e-4
-1.330, 1.605e-4
-1.331, 1.605e-4
-1.332, 1.605e-4
-1.333, 1.605e-4
-1.334, 1.666e-4
-1.335, 1.666e-4
-1.336, 1.666e-4
-1.337, 1.666e-4
-1.338, 1.697e-4
-1.339, 1.728e-4
-1.340, 1.759e-4
-1.341, 1.759e-4
-1.342, 1.759e-4
-1.343, 1.790e-4
-1.344, 1.821e-4
-1.345, 1.851e-4
-1.346, 1.851e-4
-1.347, 1.851e-4
-1.348, 1.882e-4
-1.349, 1.944e-4
-1.350, 1.975e-4
-1.351, 1.975e-4
-1.352, 1.975e-4
-1.353, 1.975e-4
-1.354, 2.036e-4
-1.355, 2.098e-4
-1.356, 2.098e-4
-1.357, 2.098e-4
-1.358, 2.098e-4
-1.359, 2.160e-4
-1.360, 2.221e-4
-1.361, 2.221e-4
-1.362, 2.221e-4
-1.363, 2.252e-4
-1.364, 2.314e-4
-1.365, 2.345e-4
-1.366, 2.345e-4
-1.367, 2.345e-4
-1.368, 2.376e-4
-1.369, 2.437e-4
-1.370, 2.468e-4
-1.371, 2.499e-4
-1.372, 2.530e-4
-1.373, 2.530e-4
-1.374, 2.591e-4
-1.375, 2.653e-4
-1.376, 2.653e-4
-1.377, 2.684e-4
-1.378, 2.715e-4
-1.379, 2.776e-4
-1.380, 2.838e-4
-1.381, 2.838e-4
-1.382, 2.869e-4
-1.383, 2.900e-4
-1.384, 2.961e-4
-1.385, 3.023e-4
-1.386, 3.054e-4
-1.387, 3.085e-4
-1.388, 3.115e-4
-1.389, 3.177e-4
-1.390, 3.239e-4
-1.391, 3.270e-4
-1.392, 3.270e-4
-1.393, 3.331e-4
-1.394, 3.393e-4
-1.395, 3.455e-4
-1.396, 3.485e-4
-1.397, 3.516e-4
-1.398, 3.578e-4
-1.399, 3.640e-4
-1.400, 3.701e-4
-1.401, 3.732e-4
-1.402, 3.763e-4
-1.403, 3.825e-4
-1.404, 3.886e-4
-1.405, 3.979e-4
-1.406, 4.010e-4
-1.407, 4.040e-4
-1.408, 4.102e-4
-1.409, 4.195e-4
-1.410, 4.256e-4
-1.411, 4.287e-4
-1.412, 4.349e-4
-1.413, 4.410e-4
-1.414, 4.472e-4
-1.415, 4.565e-4
-1.416, 4.595e-4
-1.417, 4.657e-4
-1.418, 4.719e-4
-1.419, 4.780e-4
-1.420, 4.873e-4
-1.421, 4.935e-4
-1.422, 4.996e-4
-1.423, 5.058e-4
-1.424, 5.150e-4
-1.425, 5.212e-4
-1.426, 5.274e-4
-1.427, 5.335e-4
-1.428, 5.428e-4
-1.429, 5.520e-4
-1.430, 5.582e-4
-1.431, 5.674e-4
-1.432, 5.736e-4
-1.433, 5.798e-4
-1.434, 5.890e-4
-1.435, 6.014e-4
-1.436, 6.075e-4
-1.437, 6.137e-4
-1.438, 6.199e-4
-1.439, 6.291e-4
-1.440, 6.414e-4
-1.441, 6.476e-4
-1.442, 6.538e-4
-1.443, 6.630e-4
-1.444, 6.754e-4
-1.445, 6.846e-4
-1.446, 6.939e-4
-1.447, 7.000e-4
-1.448, 7.124e-4
-1.449, 7.216e-4
-1.450, 7.309e-4
-1.451, 7.401e-4
-1.452, 7.494e-4
-1.453, 7.586e-4
-1.454, 7.679e-4
-1.455, 7.802e-4
-1.456, 7.894e-4
-1.457, 7.987e-4
-1.458, 8.079e-4
-1.459, 8.203e-4
-1.460, 8.326e-4
-1.461, 8.418e-4
-1.462, 8.511e-4
-1.463, 8.603e-4
-1.464, 8.727e-4
-1.465, 8.850e-4
-1.466, 8.943e-4
-1.467, 9.035e-4
-1.468, 9.158e-4
-1.469, 9.282e-4
-1.470, 9.405e-4
-1.471, 9.528e-4
-1.472, 9.621e-4
-1.473, 9.744e-4
-1.474, 9.868e-4
-1.475, 9.991e-4
-1.476, 1.011e-3
-1.477, 1.021e-3
-1.478, 1.033e-3
-1.479, 1.048e-3
-1.480, 1.061e-3
-1.481, 1.073e-3
-1.482, 1.082e-3
-1.483, 1.095e-3
-1.484, 1.110e-3
-1.485, 1.125e-3
-1.486, 1.135e-3
-1.487, 1.147e-3
-1.488, 1.159e-3
-1.489, 1.175e-3
-1.490, 1.190e-3
-1.491, 1.203e-3
-1.492, 1.212e-3
-1.493, 1.224e-3
-1.494, 1.240e-3
-1.495, 1.255e-3
-1.496, 1.267e-3
-1.497, 1.280e-3
-1.498, 1.295e-3
-1.499, 1.310e-3
-1.500, 1.326e-3
-1.501, 1.338e-3
-1.502, 1.351e-3
-1.503, 1.366e-3
-1.504, 1.381e-3
-1.505, 1.400e-3
-1.506, 1.412e-3
-1.507, 1.425e-3
-1.508, 1.437e-3
-1.509, 1.455e-3
-1.510, 1.474e-3
-1.511, 1.489e-3
-1.512, 1.502e-3
-1.513, 1.517e-3
-1.514, 1.536e-3
-1.515, 1.551e-3
-1.516, 1.566e-3
-1.517, 1.579e-3
-1.518, 1.594e-3
-1.519, 1.613e-3
-1.520, 1.631e-3
-1.521, 1.647e-3
-1.522, 1.662e-3
-1.523, 1.677e-3
-1.524, 1.696e-3
-1.525, 1.714e-3
-1.526, 1.733e-3
-1.527, 1.748e-3
-1.528, 1.764e-3
-1.529, 1.782e-3
-1.530, 1.801e-3
-1.531, 1.819e-3
-1.532, 1.832e-3
-1.533, 1.850e-3
-1.534, 1.872e-3
-1.535, 1.890e-3
-1.536, 1.909e-3
-1.537, 1.924e-3
-1.538, 1.939e-3
-1.539, 1.961e-3
-1.540, 1.983e-3
-1.541, 1.998e-3
-1.542, 2.013e-3
-1.543, 2.035e-3
-1.544, 2.054e-3
-1.545, 2.075e-3
-1.546, 2.094e-3
-1.547, 2.112e-3
-1.548, 2.131e-3
-1.549, 2.152e-3
-1.550, 2.174e-3
-1.551, 2.192e-3
-1.552, 2.211e-3
-1.553, 2.232e-3
-1.554, 2.251e-3
-1.555, 2.275e-3
-1.556, 2.297e-3
-1.557, 2.316e-3
-1.558, 2.334e-3
-1.559, 2.359e-3
-1.560, 2.383e-3
-1.561, 2.405e-3
-1.562, 2.427e-3
-1.563, 2.445e-3
-1.564, 2.470e-3
-1.565, 2.491e-3
-1.566, 2.516e-3
-1.567, 2.538e-3
-1.568, 2.559e-3
-1.569, 2.587e-3
-1.570, 2.612e-3
-1.571, 2.633e-3
-1.572, 2.658e-3
-1.573, 2.682e-3
-1.574, 2.707e-3
-1.575, 2.735e-3
-1.576, 2.756e-3
-1.577, 2.778e-3
-1.578, 2.803e-3
-1.579, 2.827e-3
-1.580, 2.852e-3
-1.581, 2.880e-3
-1.582, 2.901e-3
-1.583, 2.926e-3
-1.584, 2.954e-3
-1.585, 2.985e-3
-1.586, 3.012e-3
-1.587, 3.040e-3
-1.588, 3.068e-3
-1.589, 3.099e-3
-1.590, 3.133e-3
-1.591, 3.160e-3
-1.592, 3.185e-3
-1.593, 3.213e-3
-1.594, 3.244e-3
-1.595, 3.271e-3
-1.596, 3.302e-3
-1.597, 3.330e-3
-1.598, 3.361e-3
-1.599, 3.388e-3
-1.600, 3.413e-3
-1.601, 3.444e-3
-1.602, 3.469e-3
-1.603, 3.503e-3
-1.604, 3.540e-3
-1.605, 3.577e-3
-1.606, 3.610e-3
-1.607, 3.641e-3
-1.608, 3.675e-3
-1.609, 3.712e-3
-1.610, 3.749e-3
-1.611, 3.786e-3
-1.612, 3.817e-3
-1.613, 3.848e-3
-1.614, 3.885e-3
-1.615, 3.922e-3
-1.616, 3.956e-3
-1.617, 3.990e-3
-1.618, 4.027e-3
-1.619, 4.067e-3
-1.620, 4.107e-3
-1.621, 4.147e-3
-1.622, 4.184e-3
-1.623, 4.221e-3
-1.624, 4.261e-3
-1.625, 4.307e-3
-1.626, 4.350e-3
-1.627, 4.387e-3
-1.628, 4.424e-3
-1.629, 4.471e-3
-1.630, 4.517e-3
-1.631, 4.566e-3
-1.632, 4.609e-3
-1.633, 4.653e-3
-1.634, 4.699e-3
-1.635, 4.751e-3
-1.636, 4.801e-3
-1.637, 4.847e-3
-1.638, 4.893e-3
-1.639, 4.942e-3
-1.640, 4.992e-3
-1.641, 5.041e-3
-1.642, 5.084e-3
-1.643, 5.134e-3
-1.644, 5.183e-3
-1.645, 5.235e-3
-1.646, 5.291e-3
-1.647, 5.337e-3
-1.648, 5.386e-3
-1.649, 5.439e-3
-1.650, 5.494e-3
-1.651, 5.553e-3
-1.652, 5.608e-3
-1.653, 5.664e-3
-1.654, 5.722e-3
-1.655, 5.793e-3
-1.656, 5.858e-3
-1.657, 5.917e-3
-1.658, 5.969e-3
-1.659, 6.031e-3
-1.660, 6.092e-3
-1.661, 6.151e-3
-1.662, 6.206e-3
-1.663, 6.265e-3
-1.664, 6.333e-3
-1.665, 6.401e-3
-1.666, 6.469e-3
-1.667, 6.536e-3
-1.668, 6.601e-3
-1.669, 6.675e-3
-1.670, 6.749e-3
-1.671, 6.823e-3
-1.672, 6.894e-3
-1.673, 6.962e-3
-1.674, 7.036e-3
-1.675, 7.110e-3
-1.676, 7.181e-3
-1.677, 7.252e-3
-1.678, 7.319e-3
-1.679, 7.400e-3
-1.680, 7.477e-3
-1.681, 7.554e-3
-1.682, 7.631e-3
-1.683, 7.711e-3
-1.684, 7.794e-3
-1.685, 7.878e-3
-1.686, 7.958e-3
-1.687, 8.041e-3
-1.688, 8.121e-3
-1.689, 8.214e-3
-1.690, 8.309e-3
-1.691, 8.399e-3
-1.692, 8.488e-3
-1.693, 8.571e-3
-1.694, 8.658e-3
-1.695, 8.750e-3
-1.696, 8.839e-3
-1.697, 8.926e-3
-1.698, 9.009e-3
-1.699, 9.098e-3
-1.700, 9.120e-3
-1.699, 9.043e-3
-1.698, 8.972e-3
-1.697, 8.895e-3
-1.696, 8.818e-3
-1.695, 8.741e-3
-1.694, 8.667e-3
-1.693, 8.590e-3
-1.692, 8.503e-3
-1.691, 8.426e-3
-1.690, 8.352e-3
-1.689, 8.272e-3
-1.688, 8.180e-3
-1.687, 8.103e-3
-1.686, 8.029e-3
-1.685, 7.951e-3
-1.684, 7.871e-3
-1.683, 7.794e-3
-1.682, 7.714e-3
-1.681, 7.643e-3
-1.680, 7.575e-3
-1.679, 7.514e-3
-1.678, 7.440e-3
-1.677, 7.360e-3
-1.676, 7.279e-3
-1.675, 7.208e-3
-1.674, 7.134e-3
-1.673, 7.057e-3
-1.672, 6.983e-3
-1.671, 6.909e-3
-1.670, 6.838e-3
-1.669, 6.768e-3
-1.668, 6.700e-3
-1.667, 6.635e-3
-1.666, 6.567e-3
-1.665, 6.499e-3
-1.664, 6.428e-3
-1.663, 6.354e-3
-1.662, 6.284e-3
-1.661, 6.213e-3
-1.660, 6.148e-3
-1.659, 6.080e-3
-1.658, 6.009e-3
-1.657, 5.935e-3
-1.656, 5.867e-3
-1.655, 5.803e-3
-1.654, 5.738e-3
-1.653, 5.670e-3
-1.652, 5.602e-3
-1.651, 5.537e-3
-1.650, 5.476e-3
-1.649, 5.417e-3
-1.648, 5.352e-3
-1.647, 5.288e-3
-1.646, 5.226e-3
-1.645, 5.171e-3
-1.644, 5.115e-3
-1.643, 5.053e-3
-1.642, 4.989e-3
-1.641, 4.930e-3
-1.640, 4.868e-3
-1.639, 4.810e-3
-1.638, 4.748e-3
-1.637, 4.693e-3
-1.636, 4.634e-3
-1.635, 4.579e-3
-1.634, 4.520e-3
-1.633, 4.461e-3
-1.632, 4.406e-3
-1.631, 4.357e-3
-1.630, 4.307e-3
-1.629, 4.255e-3
-1.628, 4.199e-3
-1.627, 4.144e-3
-1.626, 4.091e-3
-1.625, 4.045e-3
-1.624, 3.999e-3
-1.623, 3.947e-3
-1.622, 3.891e-3
-1.621, 3.845e-3
-1.620, 3.802e-3
-1.619, 3.755e-3
-1.618, 3.706e-3
-1.617, 3.657e-3
-1.616, 3.607e-3
-1.615, 3.567e-3
-1.614, 3.524e-3
-1.613, 3.478e-3
-1.612, 3.429e-3
-1.611, 3.385e-3
-1.610, 3.342e-3
-1.609, 3.299e-3
-1.608, 3.256e-3
-1.607, 3.213e-3
-1.606, 3.173e-3
-1.605, 3.136e-3
-1.604, 3.096e-3
-1.603, 3.056e-3
-1.602, 3.012e-3
-1.601, 2.975e-3
-1.600, 2.938e-3
-1.599, 2.901e-3
-1.598, 2.861e-3
-1.597, 2.818e-3
-1.596, 2.784e-3
-1.595, 2.753e-3
-1.594, 2.716e-3
-1.593, 2.676e-3
-1.592, 2.639e-3
-1.591, 2.605e-3
-1.590, 2.575e-3
-1.589, 2.544e-3
-1.588, 2.504e-3
-1.587, 2.470e-3
-1.586, 2.439e-3
-1.585, 2.408e-3
-1.584, 2.374e-3
-1.583, 2.340e-3
-1.582, 2.309e-3
-1.581, 2.275e-3
-1.580, 2.245e-3
-1.579, 2.214e-3
-1.578, 2.183e-3
-1.577, 2.152e-3
-1.576, 2.128e-3
-1.575, 2.100e-3
-1.574, 2.072e-3
-1.573, 2.044e-3
-1.572, 2.013e-3
-1.571, 1.989e-3
-1.570, 1.964e-3
-1.569, 1.936e-3
-1.568, 1.912e-3
-1.567, 1.881e-3
-1.566, 1.856e-3
-1.565, 1.835e-3
-1.564, 1.807e-3
-1.563, 1.782e-3
-1.562, 1.754e-3
-1.561, 1.730e-3
-1.560, 1.711e-3
-1.559, 1.687e-3
-1.558, 1.662e-3
-1.557, 1.637e-3
-1.556, 1.616e-3
-1.555, 1.594e-3
-1.554, 1.573e-3
-1.553, 1.548e-3
-1.552, 1.526e-3
-1.551, 1.505e-3
-1.550, 1.486e-3
-1.549, 1.465e-3
-1.548, 1.443e-3
-1.547, 1.421e-3
-1.546, 1.403e-3
-1.545, 1.384e-3
-1.544, 1.366e-3
-1.543, 1.344e-3
-1.542, 1.320e-3
-1.541, 1.304e-3
-1.540, 1.289e-3
-1.539, 1.270e-3
-1.538, 1.249e-3
-1.537, 1.227e-3
-1.536, 1.212e-3
-1.535, 1.196e-3
-1.534, 1.181e-3
-1.533, 1.159e-3
-1.532, 1.141e-3
-1.531, 1.125e-3
-1.530, 1.113e-3
-1.529, 1.095e-3
-1.528, 1.076e-3
-1.527, 1.061e-3
-1.526, 1.045e-3
-1.525, 1.030e-3
-1.524, 1.014e-3
-1.523, 9.991e-4
-1.522, 9.806e-4
-1.521, 9.683e-4
-1.520, 9.559e-4
-1.519, 9.405e-4
-1.518, 9.251e-4
-1.517, 9.097e-4
-1.516, 8.943e-4
-1.515, 8.819e-4
-1.514, 8.696e-4
-1.513, 8.542e-4
-1.512, 8.418e-4
-1.511, 8.295e-4
-1.510, 8.141e-4
-1.509, 8.048e-4
-1.508, 7.894e-4
-1.507, 7.740e-4
-1.506, 7.617e-4
-1.505, 7.524e-4
-1.504, 7.401e-4
-1.503, 7.247e-4
-1.502, 7.124e-4
-1.501, 7.031e-4
-1.500, 6.939e-4
-1.499, 6.815e-4
-1.498, 6.661e-4
-1.497, 6.538e-4
-1.496, 6.445e-4
-1.495, 6.353e-4
-1.494, 6.260e-4
-1.493, 6.137e-4
-1.492, 6.014e-4
-1.491, 5.921e-4
-1.490, 5.859e-4
-1.489, 5.736e-4
-1.488, 5.613e-4
-1.487, 5.489e-4
-1.486, 5.428e-4
-1.485, 5.335e-4
-1.484, 5.243e-4
-1.483, 5.120e-4
-1.482, 5.027e-4
-1.481, 4.965e-4
-1.480, 4.873e-4
-1.479, 4.780e-4
-1.478, 4.688e-4
-1.477, 4.565e-4
-1.476, 4.503e-4
-1.475, 4.441e-4
-1.474, 4.349e-4
-1.473, 4.256e-4
-1.472, 4.164e-4
-1.471, 4.071e-4
-1.470, 4.040e-4
-1.469, 3.948e-4
-1.468, 3.855e-4
-1.467, 3.763e-4
-1.466, 3.701e-4
-1.465, 3.640e-4
-1.464, 3.578e-4
-1.463, 3.485e-4
-1.462, 3.393e-4
-1.461, 3.331e-4
-1.460, 3.270e-4
-1.459, 3.208e-4
-1.458, 3.115e-4
-1.457, 3.023e-4
-1.456, 2.992e-4
-1.455, 2.931e-4
-1.454, 2.869e-4
-1.453, 2.776e-4
-1.452, 2.715e-4
-1.451, 2.653e-4
-1.450, 2.622e-4
-1.449, 2.561e-4
-1.448, 2.468e-4
-1.447, 2.406e-4
-1.446, 2.345e-4
-1.445, 2.314e-4
-1.444, 2.252e-4
-1.443, 2.191e-4
-1.442, 2.129e-4
-1.441, 2.067e-4
-1.440, 2.036e-4
-1.439, 1.975e-4
-1.438, 1.913e-4
-1.437, 1.851e-4
-1.436, 1.821e-4
-1.435, 1.790e-4
-1.434, 1.728e-4
-1.433, 1.666e-4
-1.432, 1.605e-4
-1.431, 1.574e-4
-1.430, 1.543e-4
-1.429, 1.481e-4
-1.428, 1.420e-4
-1.427, 1.358e-4
-1.426, 1.327e-4
-1.425, 1.296e-4
-1.424, 1.266e-4
-1.423, 1.204e-4
-1.422, 1.142e-4
-1.421, 1.111e-4
-1.420, 1.111e-4
-1.419, 1.050e-4
-1.418, 9.882e-5
-1.417, 9.265e-5
-1.416, 9.265e-5
-1.415, 8.957e-5
-1.414, 8.648e-5
-1.413, 8.032e-5
-1.412, 7.415e-5
-1.411, 7.415e-5
-1.410, 7.107e-5
-1.409, 6.798e-5
-1.408, 6.182e-5
-1.407, 5.873e-5
-1.406, 5.565e-5
-1.405, 5.565e-5
-1.404, 4.949e-5
-1.403, 4.640e-5
-1.402, 4.332e-5
-1.401, 4.024e-5
-1.400, 4.024e-5
-1.399, 3.407e-5
-1.398, 2.790e-5
-1.397, 2.482e-5
-1.396, 2.482e-5
-1.395, 2.174e-5
-1.394, 1.865e-5
-1.393, 1.557e-5
-1.392, 1.249e-5
-1.391, 9.405e-6
-1.390, 9.405e-6
-1.389, 6.322e-6
-1.388, 3.239e-6
-1.387, 1.559e-7
-1.386, -2.927e-6
-1.385, -2.927e-6
-1.384, -2.927e-6
-1.383, -9.093e-6
-1.382, -1.526e-5
-1.381, -1.526e-5
-1.380, -1.218e-5
-1.379, -1.834e-5
-1.378, -2.143e-5
-1.377, -2.451e-5
-1.376, -2.451e-5
-1.375, -2.451e-5
-1.374, -2.759e-5
-1.373, -3.068e-5
-1.372, -3.376e-5
-1.371, -3.684e-5
-1.370, -3.376e-5
-1.369, -3.684e-5
-1.368, -3.992e-5
-1.367, -4.301e-5
-1.366, -4.301e-5
-1.365, -4.301e-5
-1.364, -4.609e-5
-1.363, -4.917e-5
-1.362, -5.226e-5
-1.361, -5.226e-5
-1.360, -5.226e-5
-1.359, -5.226e-5
-1.358, -5.842e-5
-1.357, -5.842e-5
-1.356, -6.151e-5
-1.355, -5.842e-5
-1.354, -6.151e-5
-1.353, -6.459e-5
-1.352, -6.767e-5
-1.351, -6.767e-5
-1.350, -6.767e-5
-1.349, -6.767e-5
-1.348, -7.076e-5
-1.347, -7.384e-5
-1.346, -7.384e-5
-1.345, -7.384e-5
-1.344, -7.384e-5
-1.343, -7.692e-5
-1.342, -8.000e-5
-1.341, -8.000e-5
-1.340, -8.000e-5
-1.339, -8.000e-5
-1.338, -8.309e-5
-1.337, -8.617e-5
-1.336, -8.617e-5
-1.335, -8.617e-5
-1.334, -8.617e-5
-1.333, -8.925e-5
-1.332, -9.234e-5
-1.331, -9.234e-5
-1.330, -8.925e-5
-1.329, -9.234e-5
-1.328, -9.234e-5
-1.327, -9.542e-5
-1.326, -9.542e-5
-1.325, -9.542e-5
-1.324, -9.542e-5
-1.323, -9.850e-5
-1.322, -9.850e-5
-1.321, -9.850e-5
-1.320, -9.850e-5
-1.319, -9.850e-5
-1.318, -1.016e-4
-1.317, -1.047e-4
-1.316, -1.016e-4
-1.315, -1.016e-4
-1.314, -1.016e-4
-1.313, -1.047e-4
-1.312, -1.047e-4
-1.311, -1.047e-4
-1.310, -1.047e-4
-1.309, -1.047e-4
-1.308, -1.078e-4
-1.307, -1.108e-4
-1.306, -1.078e-4
-1.305, -1.078e-4
-1.304, -1.078e-4
-1.303, -1.108e-4
-1.302, -1.139e-4
-1.301, -1.108e-4
-1.300, -1.078e-4
-1.299, -1.108e-4
-1.298, -1.139e-4
-1.297, -1.139e-4
-1.296, -1.139e-4
-1.295, -1.108e-4
-1.294, -1.139e-4
-1.293, -1.139e-4
-1.292, -1.170e-4
-1.291, -1.170e-4
-1.290, -1.139e-4
-1.289, -1.139e-4
-1.288, -1.170e-4
-1.287, -1.170e-4
-1.286, -1.170e-4
-1.285, -1.139e-4
-1.284, -1.170e-4
-1.283, -1.201e-4
-1.282, -1.201e-4
-1.281, -1.201e-4
-1.280, -1.170e-4
-1.279, -1.170e-4
-1.278, -1.201e-4
-1.277, -1.201e-4
-1.276, -1.201e-4
-1.275, -1.170e-4
-1.274, -1.201e-4
-1.273, -1.232e-4
-1.272, -1.232e-4
-1.271, -1.232e-4
-1.270, -1.201e-4
-1.269, -1.201e-4
-1.268, -1.232e-4
-1.267, -1.263e-4
-1.266, -1.232e-4
-1.265, -1.232e-4
-1.264, -1.232e-4
-1.263, -1.232e-4
-1.262, -1.263e-4
-1.261, -1.232e-4
-1.260, -1.232e-4
-1.259, -1.232e-4
-1.258, -1.263e-4
-1.257, -1.263e-4
-1.256, -1.263e-4
-1.255, -1.232e-4
-1.254, -1.232e-4
-1.253, -1.263e-4
-1.252, -1.263e-4
-1.251, -1.263e-4
-1.250, -1.232e-4
-1.249, -1.263e-4
-1.248, -1.263e-4
-1.247, -1.263e-4
-1.246, -1.263e-4
-1.245, -1.263e-4
-1.244, -1.263e-4
-1.243, -1.263e-4
-1.242, -1.293e-4
-1.241, -1.293e-4
-1.240, -1.263e-4
-1.239, -1.263e-4
-1.238, -1.293e-4
-1.237, -1.293e-4
-1.236, -1.293e-4
-1.235, -1.263e-4
-1.234, -1.263e-4
-1.233, -1.293e-4
-1.232, -1.293e-4
-1.231, -1.293e-4
-1.230, -1.263e-4
-1.229, -1.293e-4
-1.228, -1.293e-4
-1.227, -1.324e-4
-1.226, -1.293e-4
-1.225, -1.293e-4
-1.224, -1.293e-4
-1.223, -1.324e-4
-1.222, -1.324e-4
-1.221, -1.293e-4
-1.220, -1.293e-4
-1.219, -1.293e-4
-1.218, -1.324e-4
-1.217, -1.324e-4
-1.216, -1.324e-4
-1.215, -1.293e-4
-1.214, -1.293e-4
-1.213, -1.324e-4
-1.212, -1.324e-4
-1.211, -1.324e-4
-1.210, -1.324e-4
-1.209, -1.324e-4
-1.208, -1.324e-4
-1.207, -1.355e-4
-1.206, -1.324e-4
-1.205, -1.324e-4
-1.204, -1.324e-4
-1.203, -1.355e-4
-1.202, -1.355e-4
-1.201, -1.355e-4
-1.200, -1.324e-4
-1.199, -1.324e-4
-1.198, -1.355e-4
-1.197, -1.355e-4
-1.196, -1.355e-4
-1.195, -1.324e-4
-1.194, -1.324e-4
-1.193, -1.355e-4
-1.192, -1.355e-4
-1.191, -1.355e-4
-1.190, -1.324e-4
-1.189, -1.355e-4
-1.188, -1.355e-4
-1.187, -1.386e-4
-1.186, -1.386e-4
-1.185, -1.355e-4
-1.184, -1.355e-4
-1.183, -1.386e-4
-1.182, -1.386e-4
-1.181, -1.386e-4
-1.180, -1.355e-4
-1.179, -1.355e-4
-1.178, -1.386e-4
-1.177, -1.386e-4
-1.176, -1.386e-4
-1.175, -1.355e-4
-1.174, -1.386e-4
-1.173, -1.386e-4
-1.172, -1.417e-4
-1.171, -1.417e-4
-1.170, -1.386e-4
-1.169, -1.386e-4
-1.168, -1.386e-4
-1.167, -1.417e-4
-1.166, -1.417e-4
-1.165, -1.386e-4
-1.164, -1.386e-4
-1.163, -1.417e-4
-1.162, -1.448e-4
-1.161, -1.417e-4
-1.160, -1.386e-4
-1.159, -1.417e-4
-1.158, -1.448e-4
-1.157, -1.448e-4
-1.156, -1.448e-4
-1.155, -1.417e-4
-1.154, -1.417e-4
-1.153, -1.448e-4
-1.152, -1.448e-4
-1.151, -1.448e-4
-1.150, -1.417e-4
-1.149, -1.417e-4
-1.148, -1.448e-4
-1.147, -1.478e-4
-1.146, -1.478e-4
-1.145, -1.448e-4
-1.144, -1.448e-4
-1.143, -1.448e-4
-1.142, -1.478e-4
-1.141, -1.478e-4
-1.140, -1.448e-4
-1.139, -1.448e-4
-1.138, -1.478e-4
-1.137, -1.509e-4
-1.136, -1.509e-4
-1.135, -1.478e-4
-1.134, -1.478e-4
-1.133, -1.509e-4
-1.132, -1.509e-4
-1.131, -1.509e-4
-1.130, -1.509e-4
-1.129, -1.509e-4
-1.128, -1.540e-4
-1.127, -1.540e-4
-1.126, -1.540e-4
-1.125, -1.509e-4
-1.124, -1.540e-4
-1.123, -1.540e-4
-1.122, -1.571e-4
-1.121, -1.571e-4
-1.120, -1.540e-4
-1.119, -1.540e-4
-1.118, -1.571e-4
-1.117, -1.571e-4
-1.116, -1.571e-4
-1.115, -1.571e-4
-1.114, -1.571e-4
-1.113, -1.571e-4
-1.112, -1.602e-4
-1.111, -1.602e-4
-1.110, -1.571e-4
-1.109, -1.571e-4
-1.108, -1.602e-4
-1.107, -1.602e-4
-1.106, -1.602e-4
-1.105, -1.571e-4
-1.104, -1.602e-4
-1.103, -1.602e-4
-1.102, -1.632e-4
-1.101, -1.602e-4
-1.100, -1.632e-4
-1.099, -1.602e-4
-1.098, -1.632e-4
-1.097, -1.663e-4
-1.096, -1.632e-4
-1.095, -1.632e-4
-1.094, -1.632e-4
-1.093, -1.632e-4
-1.092, -1.663e-4
-1.091, -1.663e-4
-1.090, -1.632e-4
-1.089, -1.632e-4
-1.088, -1.663e-4
-1.087, -1.694e-4
-1.086, -1.694e-4
-1.085, -1.663e-4
-1.084, -1.663e-4
-1.083, -1.663e-4
-1.082, -1.694e-4
-1.081, -1.694e-4
-1.080, -1.663e-4
-1.079, -1.663e-4
-1.078, -1.694e-4
-1.077, -1.725e-4
-1.076, -1.725e-4
-1.075, -1.694e-4
-1.074, -1.694e-4
-1.073, -1.725e-4
-1.072, -1.725e-4
-1.071, -1.725e-4
-1.070, -1.694e-4
-1.069, -1.694e-4
-1.068, -1.725e-4
-1.067, -1.756e-4
-1.066, -1.725e-4
-1.065, -1.725e-4
-1.064, -1.725e-4
-1.063, -1.725e-4
-1.062, -1.756e-4
-1.061, -1.756e-4
-1.060, -1.725e-4
-1.059, -1.725e-4
-1.058, -1.756e-4
-1.057, -1.787e-4
-1.056, -1.756e-4
-1.055, -1.756e-4
-1.054, -1.756e-4
-1.053, -1.756e-4
-1.052, -1.787e-4
-1.051, -1.787e-4
-1.050, -1.756e-4
-1.049, -1.756e-4
-1.048, -1.787e-4
-1.047, -1.787e-4
-1.046, -1.787e-4
-1.045, -1.787e-4
-1.044, -1.787e-4
-1.043, -1.817e-4
-1.042, -1.817e-4
-1.041, -1.817e-4
-1.040, -1.787e-4
-1.039, -1.787e-4
-1.038, -1.817e-4
-1.037, -1.817e-4
-1.036, -1.817e-4
-1.035, -1.817e-4
-1.034, -1.817e-4
-1.033, -1.817e-4
-1.032, -1.848e-4
-1.031, -1.848e-4
-1.030, -1.817e-4
-1.029, -1.817e-4
-1.028, -1.848e-4
-1.027, -1.879e-4
-1.026, -1.848e-4
-1.025, -1.848e-4
-1.024, -1.848e-4
-1.023, -1.879e-4
-1.022, -1.879e-4
-1.021, -1.879e-4
-1.020, -1.879e-4
-1.019, -1.879e-4
-1.018, -1.879e-4
-1.017, -1.910e-4
-1.016, -1.910e-4
-1.015, -1.879e-4
-1.014, -1.879e-4
-1.013, -1.910e-4
-1.012, -1.941e-4
-1.011, -1.941e-4
-1.010, -1.910e-4
-1.009, -1.910e-4
-1.008, -1.941e-4
-1.007, -1.972e-4
-1.006, -1.972e-4
-1.005, -1.941e-4
-1.004, -1.941e-4
-1.003, -1.972e-4
-1.002, -1.972e-4
-1.001, -1.972e-4
