Potential V vs RHE, Current mA cm-2
0.013299999999999867,-0.20937727238002546
0.012299999999999978,-0.31350002405009214
0.011299999999999866,-0.3473116241168665
0.010299999999999976,-0.36839082248485555
0.009299999999999864,-0.38366970452339794
0.008299999999999974,-0.39838270204199433
0.007299999999999862,-0.4106906903508202
0.006299999999999972,-0.4290819372490656
0.00529999999999986,-0.43672137826833685
0.0042999999999999705,-0.44619994397743257
0.0032999999999998586,-0.4558199808165148
0.0022999999999999687,-0.46473266200566454
0.0012999999999998568,-0.47520152562466583
0.00029999999999996696,-0.4810018419541125
-0.000700000000000145,-0.4853874469836941
-0.0017000000000000348,-0.4906218787931947
-0.0027000000000001467,-0.49599778173268183
-0.0037000000000000366,-0.504486049531872
-0.0047000000000001485,-0.5084472411714941
-0.005700000000000038,-0.5100034236013458
-0.00670000000000015,-0.5145304997609139
-0.00770000000000004,-0.5206137583503335
-0.008700000000000152,-0.5259896612898207
-0.009700000000000042,-0.5317899776192673
-0.010700000000000154,-0.5353267558689299
-0.011700000000000044,-0.5354682269989164
-0.012700000000000156,-0.539853832028498
-0.013700000000000045,-0.5453712060979717
-0.014700000000000157,-0.5514544646873913
-0.015700000000000047,-0.553293589377216
-0.01670000000000016,-0.553859473897162
-0.01770000000000005,-0.5622062705663656
-0.01870000000000016,-0.5672992312458797
-0.01970000000000005,-0.5705530672355693
-0.020700000000000163,-0.57578749904507
-0.021700000000000053,-0.5739483743552454
-0.022700000000000164,-0.5827195844144085
-0.023700000000000054,-0.5902175543036933
-0.024700000000000166,-0.5927640346434504
-0.025700000000000056,-0.599130235492843
-0.026700000000000168,-0.5970081685430455
-0.027700000000000058,-0.6054964363422356
-0.02870000000000017,-0.6134188196214798
-0.02970000000000006,-0.6170970690011289
-0.03070000000000017,-0.6236047409805081
-0.03170000000000006,-0.6231803275905486
-0.03270000000000017,-0.6306782974798333
-0.03370000000000006,-0.640439805448902
-0.034700000000000175,-0.6435521703086051
-0.035700000000000065,-0.6480792464681732
-0.03670000000000018,-0.6538795627976199
-0.03770000000000007,-0.6579822255672285
-0.03870000000000018,-0.6676022624063108
-0.03970000000000007,-0.6722708096958655
-0.04070000000000018,-0.6759490590755146
-0.04170000000000007,-0.6813249620150017
-0.04270000000000018,-0.6878326339943809
-0.04370000000000007,-0.6977356130934361
-0.044700000000000184,-0.7055165252426938
-0.045700000000000074,-0.7083459478424239
-0.046700000000000186,-0.7148536198218031
-0.047700000000000076,-0.7220686474511148
-0.04870000000000019,-0.7292836750804264
-0.04970000000000008,-0.7389037119195087
-0.05070000000000019,-0.7431478458191038
-0.05170000000000008,-0.7486652198885775
-0.05270000000000019,-0.7570120165577812
-0.05370000000000008,-0.7662076400069039
-0.05470000000000019,-0.773564138766202
-0.05570000000000008,-0.7780912149257702
-0.056700000000000195,-0.7843159446451763
-0.057700000000000085,-0.7945018660042045
-0.058700000000000196,-0.8015754225035298
-0.059700000000000086,-0.8110539882126255
-0.0607000000000002,-0.8155810643721937
-0.06170000000000009,-0.8256255146012355
-0.0627000000000002,-0.8319917154506281
-0.06370000000000009,-0.8403385121198318
-0.0647000000000002,-0.847129126359184
-0.06570000000000009,-0.8559003364183472
-0.0667000000000002,-0.8604274125779153
-0.0677000000000001,-0.8666521422973216
-0.0687000000000002,-0.8798089573860663
-0.0697000000000001,-0.885609273715513
-0.07070000000000021,-0.8922584168248787
-0.0717000000000001,-0.8984831465442846
-0.07270000000000021,-0.9085275967733266
-0.0737000000000001,-0.9206941139521657
-0.07470000000000021,-0.9267773725415855
-0.0757000000000001,-0.9313044487011536
-0.07670000000000021,-0.9388024185904382
-0.0777000000000001,-0.9458759750897635
-0.07870000000000021,-0.96058897260836
-0.0797000000000001,-0.9672381157177256
-0.08070000000000022,-0.9738872588270913
-0.0817000000000001,-0.983931709056133
-0.08270000000000022,-0.9897320253855796
-0.08370000000000011,-1.0016156003044459
-0.08470000000000022,-1.0132162329633392
-0.08570000000000011,-1.0166115400830154
-0.08670000000000022,-1.0289195283918413
-0.08770000000000011,-1.0362760271511395
-0.08870000000000022,-1.0471693041601002
-0.08970000000000011,-1.0607505326388047
-0.09070000000000022,-1.0641458397584806
-0.09170000000000011,-1.0740488188575361
-0.09270000000000023,-1.0822541443967533
-0.09370000000000012,-1.0964012573954034
-0.09470000000000023,-1.1102654281340807
-0.09570000000000012,-1.115358388813595
-0.09670000000000023,-1.1237051854827986
-0.09770000000000012,-1.1362961160515976
-0.09870000000000023,-1.148038219840477
-0.09970000000000012,-1.1603462081493032
-0.10070000000000023,-1.1696833027284124
-0.10170000000000012,-1.1771812726176971
-0.10270000000000024,-1.1916113278763205
-0.10370000000000013,-1.2034949027951867
-0.10470000000000024,-1.2173590735338642
-0.10570000000000013,-1.2272620526329192
-0.10670000000000024,-1.2365991472120288
-0.10770000000000013,-1.2517365581205846
-0.10870000000000024,-1.2648933732093293
-0.10970000000000013,-1.2784746016880337
-0.11070000000000024,-1.292055830166738
-0.11170000000000013,-1.3022417515257663
-0.11270000000000002,-1.3152570954845246
-0.11370000000000013,-1.333365400122797
-0.11470000000000002,-1.347088099731488
-0.11570000000000014,-1.3588302035203679
-0.11670000000000003,-1.3735432010389639
-0.11770000000000014,-1.384153535787952
-0.11870000000000003,-1.4036765517260894
-0.11970000000000014,-1.420370145064497
-0.12070000000000003,-1.433102546763282
-0.12170000000000014,-1.4486643710617975
-0.12270000000000003,-1.461396772760583
-0.12370000000000014,-1.4840321535584236
-0.12470000000000003,-1.501008689156804
-0.12570000000000014,-1.510911668255859
-0.12670000000000003,-1.5293029151541047
-0.12770000000000015,-1.5491088733522151
-0.12870000000000004,-1.5660854089505953
-0.12970000000000015,-1.5901355010483011
-0.13070000000000004,-1.6014531914472214
-0.13170000000000015,-1.6212591496453321
-0.13270000000000004,-1.6382356852437125
-0.13370000000000015,-1.6594563547416883
-0.13470000000000004,-1.6835064468393939
-0.13570000000000015,-1.6990682711379093
-0.13670000000000004,-1.7174595180361545
-0.13770000000000016,-1.7429243214337253
-0.13870000000000005,-1.7641449909317006
-0.13970000000000016,-1.7867803717295414
-0.14070000000000005,-1.8051716186277869
-0.14170000000000016,-1.8249775768258971
-0.14270000000000005,-1.849027668923603
-0.14370000000000016,-1.8759071836210386
-0.14470000000000005,-1.8999572757187444
-0.14570000000000016,-1.925422079116315
-0.14670000000000005,-1.9423986147146954
-0.14770000000000016,-1.967863418112266
-0.14870000000000005,-1.9989870667092968
-0.14970000000000017,-2.023037158807002
-0.15070000000000006,-2.049916673504438
-0.15170000000000017,-2.072552054302279
-0.15270000000000006,-2.102260991599445
-0.15370000000000017,-2.136214062796206
-0.15470000000000006,-2.158849443594046
-0.15570000000000017,-2.1885583808912115
-0.15670000000000006,-2.2140231842887825
-0.15770000000000017,-2.2423174102860832
-0.15870000000000006,-2.2776851927827093
-0.15970000000000018,-2.307394130079875
-0.16070000000000007,-2.3385177786769056
-0.16170000000000018,-2.3668120046742067
-0.16270000000000007,-2.3936915193716417
-0.16370000000000018,-2.436132858367593
-0.16470000000000007,-2.4700859295643536
-0.16570000000000018,-2.4983801555616547
-0.16670000000000007,-2.532333226758415
-0.16770000000000018,-2.5606274527557162
-0.16870000000000007,-2.5988246578520724
-0.16970000000000018,-2.6384365742482934
-0.17070000000000007,-2.670974934145189
-0.17170000000000019,-2.7049280053419507
-0.17270000000000008,-2.741710499138441
-0.1737000000000002,-2.7799077042347973
-0.17470000000000008,-2.819519620631018
-0.1757000000000002,-2.8605462483271045
-0.17670000000000008,-2.8944993195238653
-0.1777000000000002,-2.938355369819681
-0.17870000000000008,-2.975137863616172
-0.1797000000000002,-3.0147497800123935
-0.18070000000000008,-3.0586058303082093
-0.1817000000000002,-3.09255890150497
-0.18270000000000008,-3.1364149518007864
-0.1837000000000002,-3.178856290796737
-0.1847000000000001,-3.2227123410925533
-0.1857000000000002,-3.267983102688235
-0.1867000000000001,-3.3061803077845906
-0.1877000000000002,-3.3500363580804073
-0.1887000000000001,-3.400965964875548
-0.1897000000000002,-3.4448220151713644
-0.1907000000000001,-3.492922199366775
-0.1917000000000001,-3.5353635383627267
-0.19269999999999998,-3.5820490112582726
-0.1937000000000001,-3.6372227519530096
-0.19469999999999998,-3.6853229361484203
-0.1957000000000001,-3.7362525429435625
-0.19669999999999999,-3.782938015839108
-0.1977000000000001,-3.832452911334385
-0.1987,-3.887626652029121
-0.1997000000000001,-3.9385562588242617
-0.2007,-3.995144710818863
-0.2017000000000001,-4.048903740213735
-0.2027,-4.097003924409146
-0.2037000000000001,-4.1564217990034775
-0.2047,-4.217254384897673
-0.2057000000000001,-4.269598702992681
-0.2067,-4.327601866287147
-0.2077000000000001,-4.382775606981883
-0.2087,-4.443608192876081
-0.2097000000000001,-4.508684912669872
-0.2107,-4.565273364664473
-0.2117000000000001,-4.624691239258805
-0.2127,-4.685523825153001
-0.2137000000000001,-4.753429967546523
-0.2147,-4.82275082123991
-0.2157000000000001,-4.893486386233161
-0.2167,-4.950074838227763
-0.21770000000000012,-5.020810403221016
-0.2187,-5.088716545614537
-0.21970000000000012,-5.159452110607789
-0.2207,-5.23018767560104
-0.22170000000000012,-5.293849684094967
-0.2227,-5.367414671687949
-0.22370000000000012,-5.445223793180525
-0.2247,-5.518788780773508
-0.22570000000000012,-5.596597902266086
-0.2267,-5.665918755959472
-0.22770000000000012,-5.739483743552454
-0.22870000000000001,-5.827195844144086
-0.22970000000000013,-5.909249099536258
-0.23070000000000002,-5.99413177752816
-0.23170000000000013,-6.067696765121143
-0.23270000000000002,-6.14833530921345
-0.23370000000000013,-6.240291543704677
-0.23470000000000002,-6.322344799096849
-0.23570000000000013,-6.414301033588076
-0.23670000000000002,-6.497769000280114
-0.2376999999999999,-6.5840663895718805
-0.23870000000000002,-6.684510891862298
-0.2396999999999999,-6.786370105452581
-0.24070000000000003,-6.882570473843404
-0.24169999999999991,-6.981600264833956
-0.24270000000000003,-7.073556499325184
-0.24369999999999992,-7.175415712915465
-0.24470000000000003,-7.280104349105479
-0.24569999999999992,-7.3777194287961665
-0.24670000000000003,-7.48523748758591
-0.24769999999999992,-7.584267278576461
-0.24870000000000003,-7.694614759965935
-0.24969999999999992,-7.809206375255003
-0.25070000000000003,-7.92379799054407
-0.2516999999999999,-8.039804317133003
-0.25270000000000004,-8.154395932422071
-0.2536999999999999,-8.27181697031087
-0.25470000000000004,-8.387823296899802
-0.2556999999999999,-8.515147313887656
-0.25670000000000004,-8.632568351776454
-0.25769999999999993,-8.761307080064174
-0.25870000000000004,-8.89004580835189
-0.25969999999999993,-9.025858093138934
-0.26070000000000004,-9.163085089225842
-0.26169999999999993,-9.298897374012885
-0.26270000000000004,-9.434709658799928
-0.26369999999999993,-9.576180788786434
-0.26470000000000005,-9.717651918772937
-0.26569999999999994,-9.86761131655863
-0.26670000000000005,-10.02181484824392
-0.26769999999999994,-10.171774246029615
-0.26870000000000005,-10.334466045514093
-0.26969999999999994,-10.488669577199383
-0.27070000000000005,-10.657020221883322
-0.27169999999999994,-10.819712021367803
-0.27270000000000005,-10.997965645150796
-0.27369999999999994,-11.174804557633923
-0.27470000000000006,-11.343155202317865
-0.27569999999999995,-11.52423824870059
-0.27670000000000006,-11.709565428982907
-0.27769999999999995,-11.900551454464688
-0.27870000000000006,-12.10285517034539
-0.27969999999999995,-12.292426484527304
-0.28070000000000006,-12.481997798709218
-0.28169999999999995,-12.678642669390458
-0.28270000000000006,-12.883775807870888
-0.28369999999999995,-13.101641348050105
-0.28470000000000006,-13.316677465629589
-0.28569999999999995,-13.520395892810155
-0.28670000000000007,-13.736846721689506
-0.28769999999999996,-13.954712261868721
-0.28870000000000007,-14.175407224647667
-0.28969999999999996,-14.415908145624723
-0.29070000000000007,-14.642261953603128
-0.29169999999999996,-14.882762874580186
-0.29270000000000007,-15.123263795557243
-0.29369999999999996,-15.363764716534297
-0.2947000000000001,-15.618412750510005
-0.29569999999999996,-15.858913671487063
-0.2967000000000001,-16.11356170546277
-0.29769999999999996,-16.368209739438473
-0.2987000000000001,-16.637004886412832
-0.29969999999999997,-16.90580003338719
-0.3007000000000001,-17.188742293360193
-0.30169999999999997,-17.45753744033455
-0.3027000000000001,-17.74047970030756
-0.30369999999999997,-18.02342196028057
-0.3047000000000001,-18.320511333252224
-0.30569999999999997,-18.617600706223882
-0.3067000000000001,-18.900542966196888
-0.3077,-19.197632339168546
-0.3087000000000001,-19.49472171214021
-0.3097,-19.791811085111863
-0.3107000000000001,-20.117194684080822
-0.3117,-20.42843117005113
-0.3127000000000001,-20.73966765602144
-0.3137,-21.065051254990397
-0.3147000000000001,-21.390434853959356
-0.3157,-21.744112678925614
-0.3167000000000001,-22.083643390893226
-0.3177,-22.42317410286083
-0.3187000000000001,-22.776851927827092
-0.3197,-23.13052975279335
-0.3207000000000001,-23.48420757775961
-0.3217,-23.83788540272587
-0.3227000000000001,-24.20571034069078
-0.3237,-24.587682391654337
-0.3247000000000001,-24.969654442617898
-0.3257,-25.337479380582806
-0.3267000000000001,-25.719451431546364
-0.3277,-26.11557059550858
-0.3287000000000001,-26.511689759470787
-0.3297,-26.921956036431645
-0.3307000000000001,-27.31807520039386
-0.3317,-27.742488590353368
-0.3327000000000001,-28.18104909331153
-0.3337,-28.591315370272387
-0.3347000000000001,-29.029875873230555
-0.3357,-29.42599503719276
-0.3367000000000001,-29.878702653149578
-0.3377,-30.317263156107735
-0.3387000000000001,-30.7558236590659
-0.3397,-31.19438416202406
-0.3407000000000001,-31.632944664982226
-0.3417,-32.07150516794038
-0.3427000000000001,-32.53835989689585
-0.3437,-33.0335088518486
-0.3447000000000001,-33.51451069380272
-0.3457,-33.99551253575683
-0.3467000000000001,-34.462367264712285
-0.3477,-34.92922199366775
-0.3487000000000001,-35.41022383562187
-0.3497,-35.90537279057463
-0.3507000000000001,-36.41466885852605
-0.3517,-36.95225915247476
-0.3527000000000001,-37.54643789841808
-0.3537,-38.05573396636949
-0.3547000000000001,-38.593324260318205
-0.3557,-39.074326102272316
-0.35670000000000013,-39.61191639622103
-0.3577,-40.163653803168394
-0.35870000000000013,-40.729538323114404
-0.3597,-41.25298150406447
-0.36070000000000013,-41.79057179801318
-0.3617,-42.34230920496055
-0.3626999999999999,-42.92234083790521
-0.3637,-43.544813809845834
-0.3646999999999999,-44.138992555789144
-0.3657,-44.71902418873381
-0.3666999999999999,-45.28490870867982
-0.3677,-45.85079322862584
-0.3686999999999999,-46.47326620056646
-0.36970000000000003,-47.095739172507066
-0.3706999999999999,-47.71821214444768
-0.37170000000000003,-48.3406851163883
-0.3726999999999999,-48.991452314326224
-0.37370000000000003,-49.628072399265484
-0.3746999999999999,-50.29298671020206
-0.37570000000000003,-50.943753908139975
-0.3766999999999999,-51.60866821907654
-0.37770000000000004,-52.35846520800501
-0.3786999999999999,-53.065820857937524
-0.37970000000000004,-53.71658805587545
-0.3806999999999999,-54.33906102781606
-0.38170000000000004,-55.046416677748574
-0.38269999999999993,-55.7537723276811
-0.38370000000000004,-56.489422203610914
-0.38469999999999993,-57.19677785354343
-0.38570000000000004,-57.84754505148135
-0.38669999999999993,-57.6353383565016
-0.38570000000000004,-56.871394254574476
-0.38469999999999993,-56.13574437864466
-0.38370000000000004,-55.34350605072023
-0.38269999999999993,-54.537120609797164
-0.38170000000000004,-53.71658805587545
-0.3806999999999999,-52.95264395394832
-0.37970000000000004,-52.1886998520212
-0.3786999999999999,-51.396461524096786
-0.37770000000000004,-50.60422319617236
-0.3766999999999999,-49.79783775524929
-0.37570000000000003,-49.062187879319474
-0.3746999999999999,-48.35483222938696
-0.37370000000000003,-47.633329466455784
-0.3726999999999999,-46.91182670352462
-0.37170000000000003,-46.176176827594794
-0.3706999999999999,-45.412232725667685
-0.36970000000000003,-44.648288623740555
-0.3686999999999999,-43.96922719980534
-0.3677,-43.30431288886877
-0.3666999999999999,-42.6111043519349
-0.3657,-41.93204292799969
-0.3646999999999999,-41.22468727806717
-0.3637,-40.559772967130606
-0.3626999999999999,-39.96559422118728
-0.3617,-39.314827023249364
-0.36070000000000013,-38.6499127123128
-0.3597,-38.01329262737354
-0.35870000000000013,-37.36252542943562
-0.3577,-36.78249379649095
-0.35670000000000013,-36.17416793754898
-0.3557,-35.56584207860703
-0.3547000000000001,-34.95751621966506
-0.3537,-34.377484586720385
-0.3527000000000001,-33.825747179773025
-0.3517,-33.274009772825664
-0.3507000000000001,-32.70812525287965
-0.3497,-32.14224073293363
-0.3487000000000001,-31.590503325986273
-0.3477,-31.052913032037555
-0.3467000000000001,-30.529469851087494
-0.3457,-30.02017378313608
-0.3447000000000001,-29.510877715184666
-0.3437,-29.015728760231898
-0.3427000000000001,-28.53472691827779
-0.3417,-28.082019302320973
-0.3407000000000001,-27.601017460366865
-0.3397,-27.1058685054141
-0.3387000000000001,-26.62486666345999
-0.3377,-26.18630616050183
-0.3367000000000001,-25.73359854454502
-0.3357,-25.309185154585506
-0.3347000000000001,-24.856477538628695
-0.3337,-24.417917035670534
-0.3327000000000001,-23.993503645711023
-0.3317,-23.58323736875016
-0.3307000000000001,-23.187118204787954
-0.3297,-22.776851927827092
-0.3287000000000001,-22.36658565086623
-0.3277,-21.97046648690402
-0.3267000000000001,-21.58849443594046
-0.3257,-21.2065223849769
-0.3247000000000001,-20.824550334013338
-0.3237,-20.456725396048434
-0.3227000000000001,-20.088900458083522
-0.3217,-19.73522263311726
-0.3207000000000001,-19.381544808151002
-0.3197,-19.042014096183394
-0.3187000000000001,-18.688336271217132
-0.3177,-18.377099785246827
-0.3167000000000001,-18.03756907327922
-0.3157,-17.71218547431026
-0.3147000000000001,-17.386801875341302
-0.3137,-17.07556538937099
-0.3127000000000001,-16.764328903400685
-0.3117,-16.46723953042903
-0.3107000000000001,-16.15600304445872
-0.3097,-15.858913671487063
-0.3087000000000001,-15.561824298515406
-0.3077,-15.264734925543747
-0.3067000000000001,-14.995939778569388
-0.30569999999999997,-14.71299751859638
-0.3047000000000001,-14.458349484620674
-0.30369999999999997,-14.189554337646317
-0.3027000000000001,-13.906612077673309
-0.30169999999999997,-13.642061064598547
-0.3007000000000001,-13.383168896723246
-0.29969999999999997,-13.129935574047403
-0.2987000000000001,-12.890849364370213
-0.29769999999999996,-12.636201330394508
-0.2967000000000001,-12.388626852918126
-0.29569999999999996,-12.146711220641206
-0.2947000000000001,-11.926016257862258
-0.29369999999999996,-11.694003604684394
-0.29270000000000007,-11.464820374106257
-0.29169999999999996,-11.231393009628526
-0.29070000000000007,-11.012112758149446
-0.28969999999999996,-10.79990606316969
-0.28870000000000007,-10.5891140794898
-0.28769999999999996,-10.37549267321018
-0.28670000000000007,-10.164700689530287
-0.28569999999999995,-9.959567551049858
-0.28470000000000006,-9.762922680368618
-0.28369999999999995,-9.563448387087647
-0.28270000000000006,-9.376706495505463
-0.28169999999999995,-9.174402779624762
-0.28070000000000006,-8.982002042843117
-0.27969999999999995,-8.799504285160529
-0.27870000000000006,-8.619835950077668
-0.27769999999999995,-8.455729439293325
-0.27670000000000006,-8.276061104210465
-0.27569999999999995,-8.090733923928145
-0.27470000000000006,-7.92096856794434
-0.27369999999999994,-7.752617923260401
-0.27270000000000005,-7.584267278576461
-0.27169999999999994,-7.4229901903918485
-0.27070000000000005,-7.256054257007774
-0.26969999999999994,-7.096191880123024
-0.26870000000000005,-6.939158925838006
