Potential V vs RHE, Current mA cm-2
0.013299999999999867,-0.3947044526623452
0.012299999999999978,-1.6594563547416883
0.011299999999999866,-2.576189277054232
0.010299999999999976,-3.273641947887695
0.009299999999999864,-3.840941179133574
0.008299999999999974,-4.3205283097878215
0.007299999999999862,-4.756259390146253
0.006299999999999972,-5.0618370309171015
0.00529999999999986,-5.323558621392133
0.0042999999999999705,-5.585280211867165
0.0032999999999998586,-5.80314575204638
0.0022999999999999687,-5.977155241929781
0.0012999999999998568,-6.152579443113044
0.00029999999999996696,-6.282732882700628
-0.000700000000000145,-6.458157083883892
-0.0017000000000000348,-6.588310523471475
-0.0027000000000001467,-6.719878674358924
-0.0037000000000000366,-6.806176063650692
-0.0047000000000001485,-6.93774421453814
-0.005700000000000038,-7.024041603829907
-0.00670000000000015,-7.067897654125724
-0.00770000000000004,-7.111753704421539
-0.008700000000000152,-7.199465805013171
-0.009700000000000042,-7.28576319430494
-0.010700000000000154,-7.329619244600755
-0.011700000000000044,-7.37347529489657
-0.012700000000000156,-7.4173313451923875
-0.013700000000000045,-7.461187395488204
-0.014700000000000157,-7.50504344578402
-0.015700000000000047,-7.5474847847799715
-0.01670000000000016,-7.591340835075788
-0.01770000000000005,-7.679052935667419
-0.01870000000000016,-7.722908985963235
-0.01970000000000005,-7.7653503249591855
-0.020700000000000163,-7.7653503249591855
-0.021700000000000053,-7.809206375255003
-0.022700000000000164,-7.853062425550818
-0.023700000000000054,-7.853062425550818
-0.024700000000000166,-7.853062425550818
-0.025700000000000056,-7.896918475846635
-0.026700000000000168,-7.896918475846635
-0.027700000000000058,-7.984630576438266
-0.02870000000000017,-7.984630576438266
-0.02970000000000006,-8.027071915434218
-0.03070000000000017,-8.11478401602585
-0.03170000000000006,-8.11478401602585
-0.03270000000000017,-8.158640066321666
-0.03370000000000006,-8.158640066321666
-0.034700000000000175,-8.158640066321666
-0.035700000000000065,-8.202496116617484
-0.03670000000000018,-8.158640066321666
-0.03770000000000007,-8.202496116617484
-0.03870000000000018,-8.246352166913299
-0.03970000000000007,-8.246352166913299
-0.04070000000000018,-8.288793505909249
-0.04170000000000007,-8.332649556205066
-0.04270000000000018,-8.376505606500881
-0.04370000000000007,-8.376505606500881
-0.044700000000000184,-8.4203616567967
-0.045700000000000074,-8.4203616567967
-0.046700000000000186,-8.464217707092514
-0.047700000000000076,-8.464217707092514
-0.04870000000000019,-8.464217707092514
-0.04970000000000008,-8.464217707092514
-0.05070000000000019,-8.464217707092514
-0.05170000000000008,-8.508073757388331
-0.05270000000000019,-8.508073757388331
-0.05370000000000008,-8.55051509638428
-0.05470000000000019,-8.594371146680096
-0.05570000000000008,-8.594371146680096
-0.056700000000000195,-8.638227196975913
-0.057700000000000085,-8.638227196975913
-0.058700000000000196,-8.68208324727173
-0.059700000000000086,-8.68208324727173
-0.0607000000000002,-8.68208324727173
-0.06170000000000009,-8.725939297567548
-0.0627000000000002,-8.769795347863363
-0.06370000000000009,-8.725939297567548
-0.0647000000000002,-8.769795347863363
-0.06570000000000009,-8.769795347863363
-0.0667000000000002,-8.769795347863363
-0.0677000000000001,-8.812236686859313
-0.0687000000000002,-8.812236686859313
-0.0697000000000001,-8.85609273715513
-0.07070000000000021,-8.899948787450944
-0.0717000000000001,-8.899948787450944
-0.07270000000000021,-8.943804837746763
-0.0737000000000001,-8.943804837746763
-0.07470000000000021,-8.943804837746763
-0.0757000000000001,-8.987660888042578
-0.07670000000000021,-8.987660888042578
-0.0777000000000001,-8.943804837746763
-0.07870000000000021,-8.987660888042578
-0.0797000000000001,-9.031516938338395
-0.08070000000000022,-9.073958277334345
-0.0817000000000001,-9.11781432763016
-0.08270000000000022,-9.11781432763016
-0.08370000000000011,-9.205526428221793
-0.08470000000000022,-9.205526428221793
-0.08570000000000011,-9.24938247851761
-0.08670000000000022,-9.24938247851761
-0.08770000000000011,-9.24938247851761
-0.08870000000000022,-9.293238528813426
-0.08970000000000011,-9.24938247851761
-0.09070000000000022,-9.24938247851761
-0.09170000000000011,-9.293238528813426
-0.09270000000000023,-9.293238528813426
-0.09370000000000012,-9.335679867809377
-0.09470000000000023,-9.335679867809377
-0.09570000000000012,-9.335679867809377
-0.09670000000000023,-9.423391968401008
-0.09770000000000012,-9.423391968401008
-0.09870000000000023,-9.467248018696827
-0.09970000000000012,-9.511104068992642
-0.10070000000000023,-9.511104068992642
-0.10170000000000012,-9.511104068992642
-0.10270000000000024,-9.511104068992642
-0.10370000000000013,-9.55496011928846
-0.10470000000000024,-9.55496011928846
-0.10570000000000013,-9.55496011928846
-0.10670000000000024,-9.55496011928846
-0.10770000000000013,-9.59740145828441
-0.10870000000000024,-9.641257508580225
-0.10970000000000013,-9.685113558876042
-0.11070000000000024,-9.685113558876042
-0.11170000000000013,-9.728969609171857
-0.11270000000000002,-9.772825659467674
-0.11370000000000013,-9.772825659467674
-0.11470000000000002,-9.772825659467674
-0.11570000000000014,-9.772825659467674
-0.11670000000000003,-9.81668170976349
-0.11770000000000014,-9.81668170976349
-0.11870000000000003,-9.81668170976349
-0.11970000000000014,-9.85912304875944
-0.12070000000000003,-9.902979099055257
-0.12170000000000014,-9.902979099055257
-0.12270000000000003,-9.946835149351072
-0.12370000000000014,-9.99069119964689
-0.12470000000000003,-10.034547249942705
-0.12570000000000014,-10.078403300238522
-0.12670000000000003,-10.078403300238522
-0.12770000000000015,-10.078403300238522
-0.12870000000000004,-10.120844639234473
-0.12970000000000015,-10.120844639234473
-0.13070000000000004,-10.120844639234473
-0.13170000000000015,-10.164700689530287
-0.13270000000000004,-10.164700689530287
-0.13370000000000015,-10.208556739826104
-0.13470000000000004,-10.25241279012192
-0.13570000000000015,-10.25241279012192
-0.13670000000000004,-10.340124890713554
-0.13770000000000016,-10.340124890713554
-0.13870000000000005,-10.382566229709504
-0.13970000000000016,-10.42642228000532
-0.14070000000000005,-10.42642228000532
-0.14170000000000016,-10.42642228000532
-0.14270000000000005,-10.470278330301136
-0.14370000000000016,-10.470278330301136
-0.14470000000000005,-10.470278330301136
-0.14570000000000016,-10.514134380596953
-0.14670000000000005,-10.514134380596953
-0.14770000000000016,-10.557990430892769
-0.14870000000000005,-10.601846481188586
-0.14970000000000017,-10.644287820184536
-0.15070000000000006,-10.688143870480351
-0.15170000000000017,-10.731999920776168
-0.15270000000000006,-10.775855971071984
-0.15370000000000017,-10.775855971071984
-0.15470000000000006,-10.775855971071984
-0.15570000000000017,-10.819712021367803
-0.15670000000000006,-10.863568071663616
-0.15770000000000017,-10.863568071663616
-0.15870000000000006,-10.863568071663616
-0.15970000000000018,-10.906009410659568
-0.16070000000000007,-10.949865460955383
-0.16170000000000018,-10.993721511251199
-0.16270000000000007,-10.993721511251199
-0.16370000000000018,-11.081433611842833
-0.16470000000000007,-11.123874950838783
-0.16570000000000018,-11.123874950838783
-0.16670000000000007,-11.1677310011346
-0.16770000000000018,-11.211587051430415
-0.16870000000000007,-11.211587051430415
-0.16970000000000018,-11.211587051430415
-0.17070000000000007,-11.255443101726232
-0.17170000000000019,-11.255443101726232
-0.17270000000000008,-11.299299152022046
-0.1737000000000002,-11.343155202317865
-0.17470000000000008,-11.385596541313816
-0.1757000000000002,-11.42945259160963
-0.17670000000000008,-11.473308641905447
-0.1777000000000002,-11.517164692201263
-0.17870000000000008,-11.517164692201263
-0.1797000000000002,-11.56102074249708
-0.18070000000000008,-11.604876792792895
-0.1817000000000002,-11.604876792792895
-0.18270000000000008,-11.647318131788847
-0.1837000000000002,-11.647318131788847
-0.1847000000000001,-11.691174182084664
-0.1857000000000002,-11.691174182084664
-0.1867000000000001,-11.73503023238048
-0.1877000000000002,-11.778886282676295
-0.1887000000000001,-11.82274233297211
-0.1897000000000002,-11.86659838326793
-0.1907000000000001,-11.909039722263879
-0.1917000000000001,-11.909039722263879
-0.19269999999999998,-11.996751822855511
-0.1937000000000001,-11.996751822855511
-0.19469999999999998,-11.996751822855511
-0.1957000000000001,-12.040607873151327
-0.19669999999999999,-12.084463923447142
-0.1977000000000001,-12.084463923447142
-0.1987,-12.12831997374296
-0.1997000000000001,-12.12831997374296
-0.2007,-12.170761312738911
-0.2017000000000001,-12.214617363034726
-0.2027,-12.258473413330542
-0.2037000000000001,-12.302329463626359
-0.2047,-12.346185513922174
-0.2057000000000001,-12.390041564217992
-0.2067,-12.432482903213943
-0.2077000000000001,-12.476338953509758
-0.2087,-12.476338953509758
-0.2097000000000001,-12.520195003805576
-0.2107,-12.520195003805576
-0.2117000000000001,-12.56405105410139
-0.2127,-12.56405105410139
-0.2137000000000001,-12.607907104397206
-0.2147,-12.651763154693022
-0.2157000000000001,-12.73806054398479
-0.2167,-12.781916594280606
-0.21770000000000012,-12.825772644576423
-0.2187,-12.825772644576423
-0.21970000000000012,-12.869628694872238
-0.2207,-12.913484745168056
-0.22170000000000012,-12.913484745168056
-0.2227,-12.955926084164007
-0.22370000000000012,-12.99978213445982
-0.2247,-12.99978213445982
-0.22570000000000012,-13.043638184755638
-0.2267,-13.087494235051453
-0.22770000000000012,-13.13135028534727
-0.22870000000000001,-13.13135028534727
-0.22970000000000013,-13.217647674639037
-0.23070000000000002,-13.261503724934855
-0.23170000000000013,-13.30535977523067
-0.23270000000000002,-13.349215825526485
-0.23370000000000013,-13.3930718758223
-0.23470000000000002,-13.3930718758223
-0.23570000000000013,-13.436927926118118
-0.23670000000000002,-13.436927926118118
-0.2376999999999999,-13.47936926511407
-0.23870000000000002,-13.47936926511407
-0.2396999999999999,-13.523225315409885
-0.24070000000000003,-13.610937416001518
-0.24169999999999991,-13.654793466297335
-0.24270000000000003,-13.698649516593148
-0.24369999999999992,-13.741090855589102
-0.24470000000000003,-13.784946905884919
-0.24569999999999992,-13.828802956180734
-0.24670000000000003,-13.872659006476551
-0.24769999999999992,-13.872659006476551
-0.24870000000000003,-13.960371107068182
-0.24969999999999992,-13.960371107068182
-0.25070000000000003,-14.002812446064135
-0.2516999999999999,-14.046668496359947
-0.25270000000000004,-14.090524546655764
-0.2536999999999999,-14.13438059695158
-0.25470000000000004,-14.175407224647667
-0.2556999999999999,-14.217848563643619
-0.25670000000000004,-14.30273124163552
-0.25769999999999993,-14.345172580631472
-0.25870000000000004,-14.401761032626075
-0.25969999999999993,-14.444202371622024
-0.26070000000000004,-14.486643710617974
-0.26169999999999993,-14.486643710617974
-0.26270000000000004,-14.57152638860988
-0.26369999999999993,-14.57152638860988
-0.26470000000000005,-14.61396772760583
-0.26569999999999994,-14.65640906660178
-0.26670000000000005,-14.741291744593681
-0.26769999999999994,-14.783733083589633
-0.26870000000000005,-14.868615761581536
-0.26969999999999994,-14.967645552572087
-0.27070000000000005,-15.05252823056399
-0.27169999999999994,-15.094969569559943
-0.27270000000000005,-15.179852247551842
-0.27369999999999994,-15.222293586547794
-0.27470000000000006,-15.264734925543747
-0.27569999999999995,-15.349617603535648
-0.27670000000000006,-15.349617603535648
-0.27769999999999995,-15.448647394526201
-0.27870000000000006,-15.491088733522153
-0.27969999999999995,-15.533530072518102
-0.28070000000000006,-15.618412750510005
-0.28169999999999995,-15.70329542850191
-0.28270000000000006,-15.78817810649381
-0.28369999999999995,-15.87306078448571
-0.28470000000000006,-15.972090575476265
-0.28569999999999995,-16.056973253468165
-0.28670000000000007,-16.141855931460068
-0.28769999999999996,-16.22673860945197
-0.28870000000000007,-16.311621287443874
-0.28969999999999996,-16.354062626439823
-0.29070000000000007,-16.438945304431726
-0.29169999999999996,-16.53797509542228
-0.29270000000000007,-16.622857773414182
-0.29369999999999996,-16.750181790402035
-0.2947000000000001,-16.835064468393938
-0.29569999999999996,-16.962388485381787
-0.2967000000000001,-17.103859615368293
-0.29769999999999996,-17.188742293360193
-0.2987000000000001,-17.316066310348052
-0.29969999999999997,-17.4433903273359
-0.3007000000000001,-17.542420118326454
-0.30169999999999997,-17.669744135314307
-0.3027000000000001,-17.797068152302163
-0.30369999999999997,-17.924392169290012
-0.3047000000000001,-18.009274847281915
-0.30569999999999997,-18.19318731626437
-0.3067000000000001,-18.320511333252224
-0.3077,-18.49027668923603
-0.3087000000000001,-18.674189158218486
-0.3097,-18.843954514202288
-0.3107000000000001,-19.01371987018609
-0.3117,-19.197632339168546
-0.3127000000000001,-19.409839034148305
-0.3137,-19.579604390132108
-0.3147000000000001,-19.721075520118614
-0.3157,-19.93328221509837
-0.3167000000000001,-20.10304757108217
-0.3177,-20.329401379060574
-0.3187000000000001,-20.541608074040333
-0.3197,-20.72552054302279
-0.3207000000000001,-20.980168576998494
-0.3217,-21.2065223849769
-0.3227000000000001,-21.418729079956652
-0.3237,-21.67337711393236
-0.3247000000000001,-21.94217226090672
-0.3257,-22.196820294882425
-0.3267000000000001,-22.46561544185678
-0.3277,-22.776851927827092
-0.3287000000000001,-23.073941300798747
-0.3297,-23.342736447773106
-0.3307000000000001,-23.597384481748815
-0.3317,-23.908620967719123
-0.3327000000000001,-24.20571034069078
-0.3337,-24.559388165657033
-0.3347000000000001,-24.9130659906233
-0.3357,-25.252596702590903
-0.3367000000000001,-25.648715866553115
-0.3377,-26.087276369511276
-0.3387000000000001,-26.440954194477534
-0.3397,-26.86536758443705
-0.3407000000000001,-27.261486748399253
-0.3417,-27.65760591236147
-0.3427000000000001,-28.09616641531963
-0.3437,-28.478138466283188
-0.3447000000000001,-28.959140308237306
-0.3457,-29.440142150191413
-0.3467000000000001,-29.921143992145527
-0.3477,-30.487028512091538
-0.3487000000000001,-31.052913032037555
-0.3497,-31.661238890979522
-0.3507000000000001,-32.24127052392419
-0.3517,-32.807155043870196
-0.3527000000000001,-33.41548090281216
-0.3537,-34.06624810075008
-0.3547000000000001,-34.717015298688004
-0.3557,-35.42437094862052
-0.35670000000000013,-36.11757948555439
-0.3577,-36.81078802248826
-0.35870000000000013,-37.60302635041268
-0.3597,-38.42355890433439
-0.36070000000000013,-39.258238571254765
-0.3617,-40.135359577171094
-0.3626999999999999,-40.99833347008877
-0.3637,-41.91789581500104
-0.3646999999999999,-42.87989949890926
-0.3657,-43.84190318281749
-0.3666999999999999,-44.88878954471762
-0.3677,-45.93567590661774
-0.3686999999999999,-47.02500360751382
-0.36970000000000003,-48.156772647405845
-0.3706999999999999,-49.28854168729788
-0.37170000000000003,-50.46275206618586
-0.3726999999999999,-51.73599223606439
-0.37370000000000003,-52.995085292944275
-0.3746999999999999,-54.31076680181876
-0.37570000000000003,-55.612301197694585
-0.3766999999999999,-57.05530672355693
-0.37770000000000004,-58.498312249419264
-0.3786999999999999,-59.9696120012789
-0.37970000000000004,-61.49750020513315
-0.3806999999999999,-63.02538840898739
-0.38170000000000004,-64.63815929083353
-0.38269999999999993,-66.25093017267966
-0.38370000000000004,-67.96273084551636
-0.38469999999999993,-69.6603844053544
-0.38570000000000004,-71.4004793041884
-0.38669999999999993,-72.00880516313036
-0.38570000000000004,-71.31559662619651
-0.38469999999999993,-71.06094859222078
-0.38370000000000004,-71.0043601402262
-0.38269999999999993,-70.96191880123024
-0.38170000000000004,-70.91947746223428
-0.3806999999999999,-70.8345947842424
-0.37970000000000004,-70.70727076725453
-0.3786999999999999,-70.53750541127073
-0.37770000000000004,-70.39603428128423
-0.3766999999999999,-70.18382758630447
-0.37570000000000003,-69.95747377832606
-0.3746999999999999,-69.78770842234226
-0.37370000000000003,-69.57550172736251
-0.3726999999999999,-69.3491479193841
-0.37170000000000003,-69.13694122440434
-0.3706999999999999,-68.86814607742998
-0.36970000000000003,-68.61349804345427
-0.3686999999999999,-68.34470289647993
-0.3677,-68.04761352350828
-0.3666999999999999,-67.73637703753796
-0.3657,-67.34025787357575
-0.3646999999999999,-66.9582858226122
-0.3637,-66.51972531965401
-0.3626999999999999,-66.03872347769992
-0.3617,-65.5577216357458
-0.36070000000000013,-64.99183711579978
-0.3597,-64.46839393484973
-0.35870000000000013,-63.902509414903705
-0.3577,-63.3366248949577
-0.35670000000000013,-62.72829903601572
-0.3557,-62.20485585506566
-0.3547000000000001,-61.63897133511965
-0.3537,-61.11552815416958
-0.3527000000000001,-60.59208497321952
-0.3517,-60.06864179226946
-0.3507000000000001,-59.54519861131939
-0.3497,-58.97931409137338
-0.3487000000000001,-58.35684111943277
-0.3477,-57.7485152604908
-0.3467000000000001,-57.097748062552874
-0.3457,-56.404539525619015
-0.3447000000000001,-55.73962521468245
-0.3437,-55.088858016744524
-0.3427000000000001,-54.43809081880661
-0.3417,-53.82976495986464
-0.3407000000000001,-53.16485064892808
-0.3397,-52.514083450990164
-0.3387000000000001,-51.86331625305225
-0.3377,-51.21254905511432
-0.3367000000000001,-50.46275206618586
-0.3357,-49.81198486824794
-0.3347000000000001,-49.118776331314066
-0.3337,-48.45386202037751
-0.3327000000000001,-47.8879775004315
-0.3317,-47.27965164148953
-0.3307000000000001,-46.628884443551605
-0.3297,-46.02055858460964
-0.3287000000000001,-45.412232725667685
-0.3277,-44.74731841473111
-0.3267000000000001,-44.054109877797245
-0.3257,-43.40334267985933
-0.3247000000000001,-42.653545690930855
-0.3237,-42.00277849299294
-0.3227000000000001,-41.352011295055014
-0.3217,-40.701244097117105
-0.3207000000000001,-40.03632978618054
-0.3197,-39.47044526623452
-0.3187000000000001,-38.86211940729255
-0.3177,-38.29623488734655
-0.3167000000000001,-37.687909028404576
-0.3157,-37.037141830466666
-0.3147000000000001,-36.4288159715247
-0.3137,-35.763901660588125
-0.3127000000000001,-35.15557580164616
-0.3117,-34.5472499427042
-0.3107000000000001,-33.89648274476628
-0.3097,-33.330598224820264
-0.3087000000000001,-32.70812525287965
-0.3077,-32.09979939393769
-0.3067000000000001,-31.49147353499572
-0.30569999999999997,-30.925589015049702
-0.3047000000000001,-30.317263156107735
-0.30369999999999997,-29.708937297165768
-0.3027000000000001,-29.100611438223805
-0.30169999999999997,-28.53472691827779
-0.3007000000000001,-27.954695285333123
-0.29969999999999997,-27.38881076538711
-0.2987000000000001,-26.822926245441096
-0.29769999999999996,-26.29948306449103
-0.2967000000000001,-25.73359854454502
-0.29569999999999996,-25.167714024599
-0.2947000000000001,-24.601829504652986
-0.29369999999999996,-24.035944984706973
-0.29270000000000007,-23.51250180375691
-0.29169999999999996,-22.989058622806844
-0.29070000000000007,-22.46561544185678
-0.28969999999999996,-21.94217226090672
-0.28870000000000007,-21.418729079956652
-0.28769999999999996,-20.89528589900659
-0.28670000000000007,-20.414284057052477
-0.28569999999999995,-19.890840876102416
-0.28470000000000006,-19.409839034148305
-0.28369999999999995,-18.88639585319824
-0.28270000000000006,-18.362952672248177
-0.28169999999999995,-17.881950830294063
-0.28070000000000006,-17.40094898833995
-0.27969999999999995,-16.962388485381787
-0.27870000000000006,-16.495533756426326
-0.27769999999999995,-16.056973253468165
-0.27670000000000006,-15.618412750510005
-0.27569999999999995,-15.222293586547794
-0.27470000000000006,-14.783733083589633
-0.27369999999999994,-14.30273124163552
-0.27270000000000005,-13.872659006476551
-0.27169999999999994,-13.47936926511407
-0.27070000000000005,-12.99978213445982
-0.26969999999999994,-12.56405105410139
-0.26870000000000005,-12.170761312738911
-0.26769999999999994,-11.73503023238048
-0.26670000000000005,-11.343155202317865
