Aug. 4, 2024   11:32:18
Linear Sweep Voltammetry
File: c:/users/guazh/data/20240802_batch_500/2024-08-02-exp15\regeneratedgce-2024-08-04t11_27_42-lsvinkoh\regeneratedgce_lsv_50mvs_efin_-1900mv.bin
Data Source:  Experiment
Instrument Model:  CHI760E
Header: LSV ran at 50 mVs with Efin at -1900mV
Note: 

Init E (V) = -0.6
Final E (V) = -1.9
Scan Rate (V/s) = 0.05
Sample Interval (V) = 0.001
Quiet Time (sec) = 2
Sensitivity (A/V) = 1e-4
Comp R (ohm) = 2.2

Results:

Channel 1:

Potential/V, Current/A

-0.600, -2.417e-7
-0.601, -1.018e-7
-0.602, -5.182e-8
-0.603, -2.271e-8
-0.604, 1.776e-10
-0.605, 1.606e-8
-0.606, 2.997e-8
-0.607, 4.122e-8
-0.608, 5.464e-8
-0.609, 6.835e-8
-0.610, 7.802e-8
-0.611, 8.779e-8
-0.612, 9.647e-8
-0.613, 1.058e-7
-0.614, 1.199e-7
-0.615, 1.281e-7
-0.616, 1.329e-7
-0.617, 1.409e-7
-0.618, 1.472e-7
-0.619, 1.565e-7
-0.620, 1.637e-7
-0.621, 1.698e-7
-0.622, 1.759e-7
-0.623, 1.809e-7
-0.624, 1.895e-7
-0.625, 1.961e-7
-0.626, 1.990e-7
-0.627, 2.047e-7
-0.628, 2.111e-7
-0.629, 2.185e-7
-0.630, 2.245e-7
-0.631, 2.279e-7
-0.632, 2.323e-7
-0.633, 2.385e-7
-0.634, 2.448e-7
-0.635, 2.508e-7
-0.636, 2.532e-7
-0.637, 2.576e-7
-0.638, 2.622e-7
-0.639, 2.695e-7
-0.640, 2.747e-7
-0.641, 2.781e-7
-0.642, 2.810e-7
-0.643, 2.862e-7
-0.644, 2.927e-7
-0.645, 2.955e-7
-0.646, 2.984e-7
-0.647, 3.013e-7
-0.648, 3.050e-7
-0.649, 3.134e-7
-0.650, 3.144e-7
-0.651, 3.168e-7
-0.652, 3.208e-7
-0.653, 3.246e-7
-0.654, 3.307e-7
-0.655, 3.335e-7
-0.656, 3.360e-7
-0.657, 3.399e-7
-0.658, 3.423e-7
-0.659, 3.485e-7
-0.660, 3.527e-7
-0.661, 3.545e-7
-0.662, 3.578e-7
-0.663, 3.608e-7
-0.664, 3.655e-7
-0.665, 3.678e-7
-0.666, 3.710e-7
-0.667, 3.724e-7
-0.668, 3.762e-7
-0.669, 3.811e-7
-0.670, 3.840e-7
-0.671, 3.844e-7
-0.672, 3.866e-7
-0.673, 3.904e-7
-0.674, 3.943e-7
-0.675, 3.973e-7
-0.676, 3.990e-7
-0.677, 4.000e-7
-0.678, 4.046e-7
-0.679, 4.094e-7
-0.680, 4.119e-7
-0.681, 4.131e-7
-0.682, 4.141e-7
-0.683, 4.175e-7
-0.684, 4.230e-7
-0.685, 4.263e-7
-0.686, 4.278e-7
-0.687, 4.309e-7
-0.688, 4.335e-7
-0.689, 4.390e-7
-0.690, 4.398e-7
-0.691, 4.410e-7
-0.692, 4.423e-7
-0.693, 4.441e-7
-0.694, 4.500e-7
-0.695, 4.511e-7
-0.696, 4.531e-7
-0.697, 4.554e-7
-0.698, 4.558e-7
-0.699, 4.615e-7
-0.700, 4.629e-7
-0.701, 4.632e-7
-0.702, 4.653e-7
-0.703, 4.670e-7
-0.704, 4.725e-7
-0.705, 4.754e-7
-0.706, 4.742e-7
-0.707, 4.766e-7
-0.708, 4.782e-7
-0.709, 4.827e-7
-0.710, 4.853e-7
-0.711, 4.858e-7
-0.712, 4.872e-7
-0.713, 4.909e-7
-0.714, 4.950e-7
-0.715, 4.967e-7
-0.716, 4.965e-7
-0.717, 4.976e-7
-0.718, 5.005e-7
-0.719, 5.043e-7
-0.720, 5.062e-7
-0.721, 5.073e-7
-0.722, 5.080e-7
-0.723, 5.103e-7
-0.724, 5.151e-7
-0.725, 5.167e-7
-0.726, 5.185e-7
-0.727, 5.186e-7
-0.728, 5.216e-7
-0.729, 5.284e-7
-0.730, 5.291e-7
-0.731, 5.310e-7
-0.732, 5.309e-7
-0.733, 5.314e-7
-0.734, 5.370e-7
-0.735, 5.381e-7
-0.736, 5.380e-7
-0.737, 5.411e-7
-0.738, 5.423e-7
-0.739, 5.474e-7
-0.740, 5.485e-7
-0.741, 5.480e-7
-0.742, 5.507e-7
-0.743, 5.512e-7
-0.744, 5.558e-7
-0.745, 5.578e-7
-0.746, 5.577e-7
-0.747, 5.588e-7
-0.748, 5.613e-7
-0.749, 5.655e-7
-0.750, 5.673e-7
-0.751, 5.671e-7
-0.752, 5.685e-7
-0.753, 5.710e-7
-0.754, 5.749e-7
-0.755, 5.769e-7
-0.756, 5.779e-7
-0.757, 5.785e-7
-0.758, 5.801e-7
-0.759, 5.834e-7
-0.760, 5.860e-7
-0.761, 5.867e-7
-0.762, 5.870e-7
-0.763, 5.899e-7
-0.764, 5.928e-7
-0.765, 5.947e-7
-0.766, 5.944e-7
-0.767, 5.960e-7
-0.768, 6.003e-7
-0.769, 6.047e-7
-0.770, 6.056e-7
-0.771, 6.059e-7
-0.772, 6.068e-7
-0.773, 6.072e-7
-0.774, 6.134e-7
-0.775, 6.144e-7
-0.776, 6.129e-7
-0.777, 6.152e-7
-0.778, 6.157e-7
-0.779, 6.208e-7
-0.780, 6.231e-7
-0.781, 6.233e-7
-0.782, 6.245e-7
-0.783, 6.258e-7
-0.784, 6.296e-7
-0.785, 6.320e-7
-0.786, 6.319e-7
-0.787, 6.322e-7
-0.788, 6.360e-7
-0.789, 6.388e-7
-0.790, 6.419e-7
-0.791, 6.417e-7
-0.792, 6.423e-7
-0.793, 6.454e-7
-0.794, 6.480e-7
-0.795, 6.511e-7
-0.796, 6.510e-7
-0.797, 6.520e-7
-0.798, 6.565e-7
-0.799, 6.606e-7
-0.800, 6.634e-7
-0.801, 6.645e-7
-0.802, 6.643e-7
-0.803, 6.648e-7
-0.804, 6.689e-7
-0.805, 6.694e-7
-0.806, 6.716e-7
-0.807, 6.721e-7
-0.808, 6.731e-7
-0.809, 6.781e-7
-0.810, 6.788e-7
-0.811, 6.788e-7
-0.812, 6.796e-7
-0.813, 6.823e-7
-0.814, 6.870e-7
-0.815, 6.889e-7
-0.816, 6.885e-7
-0.817, 6.895e-7
-0.818, 6.901e-7
-0.819, 6.989e-7
-0.820, 7.012e-7
-0.821, 6.990e-7
-0.822, 7.000e-7
-0.823, 7.016e-7
-0.824, 7.052e-7
-0.825, 7.082e-7
-0.826, 7.078e-7
-0.827, 7.083e-7
-0.828, 7.100e-7
-0.829, 7.143e-7
-0.830, 7.171e-7
-0.831, 7.167e-7
-0.832, 7.183e-7
-0.833, 7.206e-7
-0.834, 7.235e-7
-0.835, 7.277e-7
-0.836, 7.263e-7
-0.837, 7.276e-7
-0.838, 7.306e-7
-0.839, 7.325e-7
-0.840, 7.343e-7
-0.841, 7.351e-7
-0.842, 7.359e-7
-0.843, 7.384e-7
-0.844, 7.428e-7
-0.845, 7.450e-7
-0.846, 7.460e-7
-0.847, 7.469e-7
-0.848, 7.475e-7
-0.849, 7.538e-7
-0.850, 7.547e-7
-0.851, 7.559e-7
-0.852, 7.555e-7
-0.853, 7.564e-7
-0.854, 7.624e-7
-0.855, 7.636e-7
-0.856, 7.633e-7
-0.857, 7.659e-7
-0.858, 7.685e-7
-0.859, 7.716e-7
-0.860, 7.737e-7
-0.861, 7.738e-7
-0.862, 7.762e-7
-0.863, 7.778e-7
-0.864, 7.830e-7
-0.865, 7.857e-7
-0.866, 7.844e-7
-0.867, 7.864e-7
-0.868, 7.881e-7
-0.869, 7.916e-7
-0.870, 7.962e-7
-0.871, 7.982e-7
-0.872, 7.973e-7
-0.873, 8.007e-7
-0.874, 8.034e-7
-0.875, 8.058e-7
-0.876, 8.060e-7
-0.877, 8.065e-7
-0.878, 8.093e-7
-0.879, 8.131e-7
-0.880, 8.170e-7
-0.881, 8.165e-7
-0.882, 8.164e-7
-0.883, 8.203e-7
-0.884, 8.252e-7
-0.885, 8.268e-7
-0.886, 8.286e-7
-0.887, 8.300e-7
-0.888, 8.316e-7
-0.889, 8.373e-7
-0.890, 8.388e-7
-0.891, 8.390e-7
-0.892, 8.407e-7
-0.893, 8.416e-7
-0.894, 8.468e-7
-0.895, 8.500e-7
-0.896, 8.507e-7
-0.897, 8.531e-7
-0.898, 8.523e-7
-0.899, 8.578e-7
-0.900, 8.598e-7
-0.901, 8.597e-7
-0.902, 8.622e-7
-0.903, 8.628e-7
-0.904, 8.672e-7
-0.905, 8.704e-7
-0.906, 8.698e-7
-0.907, 8.714e-7
-0.908, 8.737e-7
-0.909, 8.775e-7
-0.910, 8.812e-7
-0.911, 8.814e-7
-0.912, 8.832e-7
-0.913, 8.839e-7
-0.914, 8.885e-7
-0.915, 8.926e-7
-0.916, 8.934e-7
-0.917, 8.928e-7
-0.918, 8.965e-7
-0.919, 9.006e-7
-0.920, 9.049e-7
-0.921, 9.056e-7
-0.922, 9.075e-7
-0.923, 9.097e-7
-0.924, 9.139e-7
-0.925, 9.168e-7
-0.926, 9.179e-7
-0.927, 9.175e-7
-0.928, 9.199e-7
-0.929, 9.254e-7
-0.930, 9.277e-7
-0.931, 9.292e-7
-0.932, 9.308e-7
-0.933, 9.326e-7
-0.934, 9.383e-7
-0.935, 9.411e-7
-0.936, 9.423e-7
-0.937, 9.438e-7
-0.938, 9.447e-7
-0.939, 9.490e-7
-0.940, 9.520e-7
-0.941, 9.533e-7
-0.942, 9.551e-7
-0.943, 9.569e-7
-0.944, 9.618e-7
-0.945, 9.656e-7
-0.946, 9.660e-7
-0.947, 9.690e-7
-0.948, 9.721e-7
-0.949, 9.739e-7
-0.950, 9.782e-7
-0.951, 9.781e-7
-0.952, 9.802e-7
-0.953, 9.832e-7
-0.954, 9.860e-7
-0.955, 9.915e-7
-0.956, 9.898e-7
-0.957, 9.929e-7
-0.958, 9.948e-7
-0.959, 9.989e-7
-0.960, 1.004e-6
-0.961, 1.006e-6
-0.962, 1.006e-6
-0.963, 1.009e-6
-0.964, 1.013e-6
-0.965, 1.016e-6
-0.966, 1.019e-6
-0.967, 1.019e-6
-0.968, 1.022e-6
-0.969, 1.028e-6
-0.970, 1.031e-6
-0.971, 1.032e-6
-0.972, 1.035e-6
-0.973, 1.038e-6
-0.974, 1.042e-6
-0.975, 1.046e-6
-0.976, 1.047e-6
-0.977, 1.048e-6
-0.978, 1.049e-6
-0.979, 1.055e-6
-0.980, 1.061e-6
-0.981, 1.060e-6
-0.982, 1.063e-6
-0.983, 1.064e-6
-0.984, 1.069e-6
-0.985, 1.074e-6
-0.986, 1.075e-6
-0.987, 1.076e-6
-0.988, 1.079e-6
-0.989, 1.083e-6
-0.990, 1.088e-6
-0.991, 1.089e-6
-0.992, 1.091e-6
-0.993, 1.094e-6
-0.994, 1.098e-6
-0.995, 1.103e-6
-0.996, 1.103e-6
-0.997, 1.104e-6
-0.998, 1.107e-6
-0.999, 1.113e-6
-1.000, 1.116e-6
-1.001, 1.118e-6
-1.002, 1.119e-6
-1.003, 1.120e-6
-1.004, 1.125e-6
-1.005, 1.130e-6
-1.006, 1.132e-6
-1.007, 1.131e-6
-1.008, 1.135e-6
-1.009, 1.142e-6
-1.010, 1.144e-6
-1.011, 1.147e-6
-1.012, 1.149e-6
-1.013, 1.150e-6
-1.014, 1.156e-6
-1.015, 1.160e-6
-1.016, 1.162e-6
-1.017, 1.165e-6
-1.018, 1.167e-6
-1.019, 1.174e-6
-1.020, 1.176e-6
-1.021, 1.177e-6
-1.022, 1.180e-6
-1.023, 1.181e-6
-1.024, 1.189e-6
-1.025, 1.192e-6
-1.026, 1.193e-6
-1.027, 1.196e-6
-1.028, 1.198e-6
-1.029, 1.203e-6
-1.030, 1.208e-6
-1.031, 1.209e-6
-1.032, 1.209e-6
-1.033, 1.212e-6
-1.034, 1.216e-6
-1.035, 1.222e-6
-1.036, 1.224e-6
-1.037, 1.226e-6
-1.038, 1.229e-6
-1.039, 1.234e-6
-1.040, 1.240e-6
-1.041, 1.241e-6
-1.042, 1.241e-6
-1.043, 1.244e-6
-1.044, 1.249e-6
-1.045, 1.253e-6
-1.046, 1.256e-6
-1.047, 1.256e-6
-1.048, 1.260e-6
-1.049, 1.264e-6
-1.050, 1.269e-6
-1.051, 1.272e-6
-1.052, 1.272e-6
-1.053, 1.274e-6
-1.054, 1.279e-6
-1.055, 1.283e-6
-1.056, 1.286e-6
-1.057, 1.288e-6
-1.058, 1.289e-6
-1.059, 1.296e-6
-1.060, 1.301e-6
-1.061, 1.301e-6
-1.062, 1.303e-6
-1.063, 1.305e-6
-1.064, 1.310e-6
-1.065, 1.315e-6
-1.066, 1.316e-6
-1.067, 1.318e-6
-1.068, 1.320e-6
-1.069, 1.324e-6
-1.070, 1.330e-6
-1.071, 1.332e-6
-1.072, 1.334e-6
-1.073, 1.337e-6
-1.074, 1.341e-6
-1.075, 1.347e-6
-1.076, 1.350e-6
-1.077, 1.349e-6
-1.078, 1.352e-6
-1.079, 1.356e-6
-1.080, 1.361e-6
-1.081, 1.363e-6
-1.082, 1.366e-6
-1.083, 1.369e-6
-1.084, 1.373e-6
-1.085, 1.377e-6
-1.086, 1.379e-6
-1.087, 1.380e-6
-1.088, 1.383e-6
-1.089, 1.389e-6
-1.090, 1.392e-6
-1.091, 1.394e-6
-1.092, 1.396e-6
-1.093, 1.397e-6
-1.094, 1.403e-6
-1.095, 1.408e-6
-1.096, 1.409e-6
-1.097, 1.413e-6
-1.098, 1.414e-6
-1.099, 1.419e-6
-1.100, 1.425e-6
-1.101, 1.427e-6
-1.102, 1.429e-6
-1.103, 1.431e-6
-1.104, 1.435e-6
-1.105, 1.441e-6
-1.106, 1.441e-6
-1.107, 1.443e-6
-1.108, 1.446e-6
-1.109, 1.451e-6
-1.110, 1.457e-6
-1.111, 1.459e-6
-1.112, 1.460e-6
-1.113, 1.463e-6
-1.114, 1.469e-6
-1.115, 1.474e-6
-1.116, 1.475e-6
-1.117, 1.477e-6
-1.118, 1.480e-6
-1.119, 1.485e-6
-1.120, 1.494e-6
-1.121, 1.498e-6
-1.122, 1.499e-6
-1.123, 1.501e-6
-1.124, 1.505e-6
-1.125, 1.508e-6
-1.126, 1.510e-6
-1.127, 1.512e-6
-1.128, 1.514e-6
-1.129, 1.521e-6
-1.130, 1.526e-6
-1.131, 1.529e-6
-1.132, 1.530e-6
-1.133, 1.533e-6
-1.134, 1.539e-6
-1.135, 1.543e-6
-1.136, 1.546e-6
-1.137, 1.548e-6
-1.138, 1.548e-6
-1.139, 1.554e-6
-1.140, 1.560e-6
-1.141, 1.560e-6
-1.142, 1.565e-6
-1.143, 1.566e-6
-1.144, 1.573e-6
-1.145, 1.577e-6
-1.146, 1.580e-6
-1.147, 1.583e-6
-1.148, 1.584e-6
-1.149, 1.589e-6
-1.150, 1.596e-6
-1.151, 1.597e-6
-1.152, 1.600e-6
-1.153, 1.603e-6
-1.154, 1.608e-6
-1.155, 1.614e-6
-1.156, 1.616e-6
-1.157, 1.616e-6
-1.158, 1.619e-6
-1.159, 1.625e-6
-1.160, 1.632e-6
-1.161, 1.637e-6
-1.162, 1.639e-6
-1.163, 1.642e-6
-1.164, 1.647e-6
-1.165, 1.650e-6
-1.166, 1.654e-6
-1.167, 1.653e-6
-1.168, 1.656e-6
-1.169, 1.662e-6
-1.170, 1.667e-6
-1.171, 1.671e-6
-1.172, 1.674e-6
-1.173, 1.675e-6
-1.174, 1.680e-6
-1.175, 1.686e-6
-1.176, 1.688e-6
-1.177, 1.691e-6
-1.178, 1.695e-6
-1.179, 1.701e-6
-1.180, 1.705e-6
-1.181, 1.707e-6
-1.182, 1.710e-6
-1.183, 1.712e-6
-1.184, 1.717e-6
-1.185, 1.725e-6
-1.186, 1.725e-6
-1.187, 1.726e-6
-1.188, 1.731e-6
-1.189, 1.735e-6
-1.190, 1.743e-6
-1.191, 1.744e-6
-1.192, 1.746e-6
-1.193, 1.750e-6
-1.194, 1.754e-6
-1.195, 1.761e-6
-1.196, 1.764e-6
-1.197, 1.768e-6
-1.198, 1.769e-6
-1.199, 1.775e-6
-1.200, 1.782e-6
-1.201, 1.784e-6
-1.202, 1.786e-6
-1.203, 1.790e-6
-1.204, 1.796e-6
-1.205, 1.803e-6
-1.206, 1.807e-6
-1.207, 1.807e-6
-1.208, 1.811e-6
-1.209, 1.816e-6
-1.210, 1.821e-6
-1.211, 1.825e-6
-1.212, 1.826e-6
-1.213, 1.829e-6
-1.214, 1.835e-6
-1.215, 1.841e-6
-1.216, 1.845e-6
-1.217, 1.846e-6
-1.218, 1.849e-6
-1.219, 1.855e-6
-1.220, 1.861e-6
-1.221, 1.862e-6
-1.222, 1.865e-6
-1.223, 1.867e-6
-1.224, 1.873e-6
-1.225, 1.880e-6
-1.226, 1.882e-6
-1.227, 1.885e-6
-1.228, 1.887e-6
-1.229, 1.898e-6
-1.230, 1.905e-6
-1.231, 1.904e-6
-1.232, 1.908e-6
-1.233, 1.910e-6
-1.234, 1.916e-6
-1.235, 1.922e-6
-1.236, 1.925e-6
-1.237, 1.927e-6
-1.238, 1.930e-6
-1.239, 1.935e-6
-1.240, 1.941e-6
-1.241, 1.945e-6
-1.242, 1.948e-6
-1.243, 1.953e-6
-1.244, 1.959e-6
-1.245, 1.964e-6
-1.246, 1.968e-6
-1.247, 1.970e-6
-1.248, 1.972e-6
-1.249, 1.978e-6
-1.250, 1.984e-6
-1.251, 1.988e-6
-1.252, 1.990e-6
-1.253, 1.993e-6
-1.254, 1.999e-6
-1.255, 2.007e-6
-1.256, 2.010e-6
-1.257, 2.012e-6
-1.258, 2.014e-6
-1.259, 2.022e-6
-1.260, 2.029e-6
-1.261, 2.031e-6
-1.262, 2.035e-6
-1.263, 2.037e-6
-1.264, 2.043e-6
-1.265, 2.051e-6
-1.266, 2.054e-6
-1.267, 2.060e-6
-1.268, 2.064e-6
-1.269, 2.068e-6
-1.270, 2.076e-6
-1.271, 2.077e-6
-1.272, 2.081e-6
-1.273, 2.084e-6
-1.274, 2.090e-6
-1.275, 2.098e-6
-1.276, 2.101e-6
-1.277, 2.102e-6
-1.278, 2.105e-6
-1.279, 2.112e-6
-1.280, 2.123e-6
-1.281, 2.128e-6
-1.282, 2.129e-6
-1.283, 2.132e-6
-1.284, 2.138e-6
-1.285, 2.145e-6
-1.286, 2.148e-6
-1.287, 2.149e-6
-1.288, 2.152e-6
-1.289, 2.159e-6
-1.290, 2.164e-6
-1.291, 2.169e-6
-1.292, 2.172e-6
-1.293, 2.175e-6
-1.294, 2.182e-6
-1.295, 2.188e-6
-1.296, 2.193e-6
-1.297, 2.195e-6
-1.298, 2.197e-6
-1.299, 2.205e-6
-1.300, 2.212e-6
-1.301, 2.214e-6
-1.302, 2.219e-6
-1.303, 2.221e-6
-1.304, 2.227e-6
-1.305, 2.237e-6
-1.306, 2.240e-6
-1.307, 2.244e-6
-1.308, 2.249e-6
-1.309, 2.255e-6
-1.310, 2.263e-6
-1.311, 2.265e-6
-1.312, 2.267e-6
-1.313, 2.270e-6
-1.314, 2.275e-6
-1.315, 2.284e-6
-1.316, 2.290e-6
-1.317, 2.293e-6
-1.318, 2.298e-6
-1.319, 2.305e-6
-1.320, 2.310e-6
-1.321, 2.315e-6
-1.322, 2.316e-6
-1.323, 2.320e-6
-1.324, 2.326e-6
-1.325, 2.335e-6
-1.326, 2.340e-6
-1.327, 2.342e-6
-1.328, 2.345e-6
-1.329, 2.352e-6
-1.330, 2.359e-6
-1.331, 2.366e-6
-1.332, 2.369e-6
-1.333, 2.371e-6
-1.334, 2.380e-6
-1.335, 2.387e-6
-1.336, 2.392e-6
-1.337, 2.395e-6
-1.338, 2.399e-6
-1.339, 2.406e-6
-1.340, 2.414e-6
-1.341, 2.419e-6
-1.342, 2.421e-6
-1.343, 2.426e-6
-1.344, 2.433e-6
-1.345, 2.445e-6
-1.346, 2.449e-6
-1.347, 2.454e-6
-1.348, 2.456e-6
-1.349, 2.460e-6
-1.350, 2.470e-6
-1.351, 2.474e-6
-1.352, 2.478e-6
-1.353, 2.483e-6
-1.354, 2.489e-6
-1.355, 2.501e-6
-1.356, 2.506e-6
-1.357, 2.509e-6
-1.358, 2.513e-6
-1.359, 2.518e-6
-1.360, 2.530e-6
-1.361, 2.538e-6
-1.362, 2.543e-6
-1.363, 2.550e-6
-1.364, 2.557e-6
-1.365, 2.566e-6
-1.366, 2.571e-6
-1.367, 2.576e-6
-1.368, 2.581e-6
-1.369, 2.589e-6
-1.370, 2.600e-6
-1.371, 2.606e-6
-1.372, 2.610e-6
-1.373, 2.614e-6
-1.374, 2.624e-6
-1.375, 2.634e-6
-1.376, 2.641e-6
-1.377, 2.648e-6
-1.378, 2.653e-6
-1.379, 2.663e-6
-1.380, 2.672e-6
-1.381, 2.679e-6
-1.382, 2.688e-6
-1.383, 2.694e-6
-1.384, 2.702e-6
-1.385, 2.713e-6
-1.386, 2.720e-6
-1.387, 2.725e-6
-1.388, 2.733e-6
-1.389, 2.743e-6
-1.390, 2.755e-6
-1.391, 2.764e-6
-1.392, 2.770e-6
-1.393, 2.778e-6
-1.394, 2.787e-6
-1.395, 2.801e-6
-1.396, 2.809e-6
-1.397, 2.815e-6
-1.398, 2.824e-6
-1.399, 2.835e-6
-1.400, 2.846e-6
-1.401, 2.855e-6
-1.402, 2.862e-6
-1.403, 2.872e-6
-1.404, 2.882e-6
-1.405, 2.896e-6
-1.406, 2.907e-6
-1.407, 2.915e-6
-1.408, 2.927e-6
-1.409, 2.940e-6
-1.410, 2.951e-6
-1.411, 2.963e-6
-1.412, 2.974e-6
-1.413, 2.986e-6
-1.414, 3.000e-6
-1.415, 3.014e-6
-1.416, 3.024e-6
-1.417, 3.031e-6
-1.418, 3.040e-6
-1.419, 3.054e-6
-1.420, 3.071e-6
-1.421, 3.085e-6
-1.422, 3.096e-6
-1.423, 3.105e-6
-1.424, 3.118e-6
-1.425, 3.138e-6
-1.426, 3.148e-6
-1.427, 3.158e-6
-1.428, 3.170e-6
-1.429, 3.186e-6
-1.430, 3.204e-6
-1.431, 3.216e-6
-1.432, 3.229e-6
-1.433, 3.242e-6
-1.434, 3.260e-6
-1.435, 3.278e-6
-1.436, 3.290e-6
-1.437, 3.301e-6
-1.438, 3.316e-6
-1.439, 3.331e-6
-1.440, 3.352e-6
-1.441, 3.373e-6
-1.442, 3.384e-6
-1.443, 3.404e-6
-1.444, 3.422e-6
-1.445, 3.440e-6
-1.446, 3.457e-6
-1.447, 3.468e-6
-1.448, 3.482e-6
-1.449, 3.502e-6
-1.450, 3.521e-6
-1.451, 3.540e-6
-1.452, 3.553e-6
-1.453, 3.568e-6
-1.454, 3.590e-6
-1.455, 3.612e-6
-1.456, 3.630e-6
-1.457, 3.649e-6
-1.458, 3.665e-6
-1.459, 3.688e-6
-1.460, 3.710e-6
-1.461, 3.726e-6
-1.462, 3.745e-6
-1.463, 3.760e-6
-1.464, 3.784e-6
-1.465, 3.810e-6
-1.466, 3.831e-6
-1.467, 3.851e-6
-1.468, 3.868e-6
-1.469, 3.891e-6
-1.470, 3.915e-6
-1.471, 3.935e-6
-1.472, 3.954e-6
-1.473, 3.975e-6
-1.474, 3.999e-6
-1.475, 4.027e-6
-1.476, 4.050e-6
-1.477, 4.067e-6
-1.478, 4.090e-6
-1.479, 4.115e-6
-1.480, 4.144e-6
-1.481, 4.168e-6
-1.482, 4.187e-6
-1.483, 4.209e-6
-1.484, 4.235e-6
-1.485, 4.268e-6
-1.486, 4.292e-6
-1.487, 4.312e-6
-1.488, 4.340e-6
-1.489, 4.372e-6
-1.490, 4.405e-6
-1.491, 4.434e-6
-1.492, 4.456e-6
-1.493, 4.478e-6
-1.494, 4.511e-6
-1.495, 4.542e-6
-1.496, 4.570e-6
-1.497, 4.597e-6
-1.498, 4.623e-6
-1.499, 4.657e-6
-1.500, 4.691e-6
-1.501, 4.720e-6
-1.502, 4.749e-6
-1.503, 4.776e-6
-1.504, 4.812e-6
-1.505, 4.850e-6
-1.506, 4.880e-6
-1.507, 4.910e-6
-1.508, 4.940e-6
-1.509, 4.973e-6
-1.510, 5.016e-6
-1.511, 5.051e-6
-1.512, 5.085e-6
-1.513, 5.119e-6
-1.514, 5.155e-6
-1.515, 5.196e-6
-1.516, 5.233e-6
-1.517, 5.264e-6
-1.518, 5.302e-6
-1.519, 5.339e-6
-1.520, 5.383e-6
-1.521, 5.422e-6
-1.522, 5.454e-6
-1.523, 5.494e-6
-1.524, 5.535e-6
-1.525, 5.581e-6
-1.526, 5.623e-6
-1.527, 5.659e-6
-1.528, 5.697e-6
-1.529, 5.745e-6
-1.530, 5.791e-6
-1.531, 5.838e-6
-1.532, 5.878e-6
-1.533, 5.916e-6
-1.534, 5.961e-6
-1.535, 6.011e-6
-1.536, 6.060e-6
-1.537, 6.105e-6
-1.538, 6.148e-6
-1.539, 6.197e-6
-1.540, 6.248e-6
-1.541, 6.299e-6
-1.542, 6.348e-6
-1.543, 6.394e-6
-1.544, 6.447e-6
-1.545, 6.503e-6
-1.546, 6.553e-6
-1.547, 6.603e-6
-1.548, 6.653e-6
-1.549, 6.709e-6
-1.550, 6.772e-6
-1.551, 6.828e-6
-1.552, 6.883e-6
-1.553, 6.942e-6
-1.554, 6.998e-6
-1.555, 7.061e-6
-1.556, 7.119e-6
-1.557, 7.172e-6
-1.558, 7.232e-6
-1.559, 7.294e-6
-1.560, 7.359e-6
-1.561, 7.423e-6
-1.562, 7.479e-6
-1.563, 7.543e-6
-1.564, 7.614e-6
-1.565, 7.688e-6
-1.566, 7.761e-6
-1.567, 7.824e-6
-1.568, 7.885e-6
-1.569, 7.953e-6
-1.570, 8.022e-6
-1.571, 8.092e-6
-1.572, 8.161e-6
-1.573, 8.230e-6
-1.574, 8.308e-6
-1.575, 8.386e-6
-1.576, 8.463e-6
-1.577, 8.534e-6
-1.578, 8.600e-6
-1.579, 8.680e-6
-1.580, 8.763e-6
-1.581, 8.842e-6
-1.582, 8.917e-6
-1.583, 8.994e-6
-1.584, 9.075e-6
-1.585, 9.165e-6
-1.586, 9.249e-6
-1.587, 9.332e-6
-1.588, 9.415e-6
-1.589, 9.498e-6
-1.590, 9.592e-6
-1.591, 9.678e-6
-1.592, 9.762e-6
-1.593, 9.849e-6
-1.594, 9.940e-6
-1.595, 1.004e-5
-1.596, 1.013e-5
-1.597, 1.022e-5
-1.598, 1.031e-5
-1.599, 1.040e-5
-1.600, 1.051e-5
-1.601, 1.061e-5
-1.602, 1.070e-5
-1.603, 1.080e-5
-1.604, 1.091e-5
-1.605, 1.101e-5
-1.606, 1.111e-5
-1.607, 1.121e-5
-1.608, 1.132e-5
-1.609, 1.142e-5
-1.610, 1.153e-5
-1.611, 1.164e-5
-1.612, 1.175e-5
-1.613, 1.185e-5
-1.614, 1.197e-5
-1.615, 1.207e-5
-1.616, 1.218e-5
-1.617, 1.230e-5
-1.618, 1.240e-5
-1.619, 1.253e-5
-1.620, 1.265e-5
-1.621, 1.277e-5
-1.622, 1.289e-5
-1.623, 1.301e-5
-1.624, 1.313e-5
-1.625, 1.326e-5
-1.626, 1.339e-5
-1.627, 1.351e-5
-1.628, 1.363e-5
-1.629, 1.376e-5
-1.630, 1.390e-5
-1.631, 1.403e-5
-1.632, 1.415e-5
-1.633, 1.428e-5
-1.634, 1.441e-5
-1.635, 1.455e-5
-1.636, 1.469e-5
-1.637, 1.482e-5
-1.638, 1.496e-5
-1.639, 1.512e-5
-1.640, 1.526e-5
-1.641, 1.540e-5
-1.642, 1.553e-5
-1.643, 1.567e-5
-1.644, 1.582e-5
-1.645, 1.597e-5
-1.646, 1.612e-5
-1.647, 1.627e-5
-1.648, 1.641e-5
-1.649, 1.657e-5
-1.650, 1.673e-5
-1.651, 1.688e-5
-1.652, 1.703e-5
-1.653, 1.718e-5
-1.654, 1.733e-5
-1.655, 1.749e-5
-1.656, 1.765e-5
-1.657, 1.780e-5
-1.658, 1.795e-5
-1.659, 1.812e-5
-1.660, 1.828e-5
-1.661, 1.844e-5
-1.662, 1.860e-5
-1.663, 1.877e-5
-1.664, 1.894e-5
-1.665, 1.911e-5
-1.666, 1.927e-5
-1.667, 1.942e-5
-1.668, 1.957e-5
-1.669, 1.973e-5
-1.670, 1.989e-5
-1.671, 2.005e-5
-1.672, 2.021e-5
-1.673, 2.037e-5
-1.674, 2.053e-5
-1.675, 2.066e-5
-1.676, 2.079e-5
-1.677, 2.094e-5
-1.678, 2.110e-5
-1.679, 2.127e-5
-1.680, 2.143e-5
-1.681, 2.159e-5
-1.682, 2.173e-5
-1.683, 2.175e-5
-1.684, 2.159e-5
-1.685, 2.103e-5
-1.686, 2.095e-5
-1.687, 2.104e-5
-1.688, 2.117e-5
-1.689, 2.131e-5
-1.690, 2.146e-5
-1.691, 2.161e-5
-1.692, 2.175e-5
-1.693, 2.188e-5
-1.694, 2.203e-5
-1.695, 2.217e-5
-1.696, 2.222e-5
-1.697, 2.217e-5
-1.698, 2.230e-5
-1.699, 2.245e-5
-1.700, 2.259e-5
-1.701, 2.274e-5
-1.702, 2.289e-5
-1.703, 2.304e-5
-1.704, 2.321e-5
-1.705, 2.339e-5
-1.706, 2.356e-5
-1.707, 2.374e-5
-1.708, 2.391e-5
-1.709, 2.409e-5
-1.710, 2.428e-5
-1.711, 2.446e-5
-1.712, 2.464e-5
-1.713, 2.481e-5
-1.714, 2.499e-5
-1.715, 2.518e-5
-1.716, 2.529e-5
-1.717, 2.544e-5
-1.718, 2.562e-5
-1.719, 2.582e-5
-1.720, 2.602e-5
-1.721, 2.623e-5
-1.722, 2.643e-5
-1.723, 2.664e-5
-1.724, 2.686e-5
-1.725, 2.708e-5
-1.726, 2.729e-5
-1.727, 2.750e-5
-1.728, 2.773e-5
-1.729, 2.797e-5
-1.730, 2.823e-5
-1.731, 2.845e-5
-1.732, 2.864e-5
-1.733, 2.884e-5
-1.734, 2.906e-5
-1.735, 2.929e-5
-1.736, 2.953e-5
-1.737, 2.981e-5
-1.738, 3.009e-5
-1.739, 3.035e-5
-1.740, 3.062e-5
-1.741, 3.090e-5
-1.742, 3.118e-5
-1.743, 3.142e-5
-1.744, 3.171e-5
-1.745, 3.202e-5
-1.746, 3.229e-5
-1.747, 3.254e-5
-1.748, 3.278e-5
-1.749, 3.302e-5
-1.750, 3.331e-5
-1.751, 3.353e-5
-1.752, 3.380e-5
-1.753, 3.410e-5
-1.754, 3.442e-5
-1.755, 3.477e-5
-1.756, 3.510e-5
-1.757, 3.522e-5
-1.758, 3.512e-5
-1.759, 3.542e-5
-1.760, 3.579e-5
-1.761, 3.616e-5
-1.762, 3.651e-5
-1.763, 3.687e-5
-1.764, 3.726e-5
-1.765, 3.765e-5
-1.766, 3.801e-5
-1.767, 3.835e-5
-1.768, 3.873e-5
-1.769, 3.913e-5
-1.770, 3.954e-5
-1.771, 4.001e-5
-1.772, 4.044e-5
-1.773, 4.086e-5
-1.774, 4.130e-5
-1.775, 4.175e-5
-1.776, 4.219e-5
-1.777, 4.265e-5
-1.778, 4.313e-5
-1.779, 4.362e-5
-1.780, 4.410e-5
-1.781, 4.459e-5
-1.782, 4.508e-5
-1.783, 4.554e-5
-1.784, 4.576e-5
-1.785, 4.598e-5
-1.786, 4.644e-5
-1.787, 4.694e-5
-1.788, 4.744e-5
-1.789, 4.793e-5
-1.790, 4.848e-5
-1.791, 4.903e-5
-1.792, 4.962e-5
-1.793, 5.021e-5
-1.794, 5.079e-5
-1.795, 5.139e-5
-1.796, 5.199e-5
-1.797, 5.259e-5
-1.798, 5.317e-5
-1.799, 5.376e-5
-1.800, 5.440e-5
-1.801, 5.501e-5
-1.802, 5.560e-5
-1.803, 5.623e-5
-1.804, 5.688e-5
-1.805, 5.753e-5
-1.806, 5.819e-5
-1.807, 5.888e-5
-1.808, 5.941e-5
-1.809, 5.970e-5
-1.810, 6.021e-5
-1.811, 6.060e-5
-1.812, 6.107e-5
-1.813, 6.171e-5
-1.814, 6.248e-5
-1.815, 6.324e-5
-1.816, 6.401e-5
-1.817, 6.471e-5
-1.818, 6.542e-5
-1.819, 6.615e-5
-1.820, 6.674e-5
-1.821, 6.741e-5
-1.822, 6.818e-5
-1.823, 6.876e-5
-1.824, 6.938e-5
-1.825, 7.018e-5
-1.826, 7.101e-5
-1.827, 7.194e-5
-1.828, 7.288e-5
-1.829, 7.381e-5
-1.830, 7.460e-5
-1.831, 7.555e-5
-1.832, 7.662e-5
-1.833, 7.758e-5
-1.834, 7.845e-5
-1.835, 7.933e-5
-1.836, 8.036e-5
-1.837, 8.144e-5
-1.838, 8.259e-5
-1.839, 8.380e-5
-1.840, 8.505e-5
-1.841, 8.629e-5
-1.842, 8.755e-5
-1.843, 8.878e-5
-1.844, 9.002e-5
-1.845, 9.124e-5
-1.846, 9.252e-5
-1.847, 9.393e-5
-1.848, 9.533e-5
-1.849, 9.676e-5
-1.850, 9.821e-5
-1.851, 9.982e-5
-1.852, 1.013e-4
-1.853, 1.028e-4
-1.854, 1.044e-4
-1.855, 1.061e-4
-1.856, 1.079e-4
-1.857, 1.095e-4
-1.858, 1.112e-4
-1.859, 1.129e-4
-1.860, 1.147e-4
-1.861, 1.164e-4
-1.862, 1.182e-4
-1.863, 1.201e-4
-1.864, 1.216e-4
-1.865, 1.227e-4
-1.866, 1.245e-4
-1.867, 1.265e-4
-1.868, 1.285e-4
-1.869, 1.305e-4
-1.870, 1.328e-4
-1.871, 1.350e-4
-1.872, 1.372e-4
-1.873, 1.395e-4
-1.874, 1.419e-4
-1.875, 1.442e-4
-1.876, 1.462e-4
-1.877, 1.483e-4
-1.878, 1.505e-4
-1.879, 1.530e-4
-1.880, 1.557e-4
-1.881, 1.583e-4
-1.882, 1.610e-4
-1.883, 1.635e-4
-1.884, 1.660e-4
-1.885, 1.685e-4
-1.886, 1.713e-4
-1.887, 1.742e-4
-1.888, 1.772e-4
-1.889, 1.802e-4
-1.890, 1.836e-4
-1.891, 1.871e-4
-1.892, 1.904e-4
-1.893, 1.938e-4
-1.894, 1.972e-4
-1.895, 2.008e-4
-1.896, 2.044e-4
-1.897, 2.080e-4
-1.898, 2.119e-4
-1.899, 2.159e-4
