Dec. 27, 2024   07:53:24
Linear Sweep Voltammetry
File: c:/users/guazh/data/banditlqround7_x0exp136_r20/2024-12-24-exp755\regeneratedgce-2024-12-27t07_48_49-lsvinkoh\regeneratedgce_lsv_50mvs_efin_-1900mv.bin
Data Source:  Experiment
Instrument Model:  CHI760E
Header: LSV ran at 50 mVs with Efin at -1900mV
Note: 

Init E (V) = -0.6
Final E (V) = -1.9
Scan Rate (V/s) = 0.05
Sample Interval (V) = 0.001
Quiet Time (sec) = 2
Sensitivity (A/V) = 1e-4
Comp R (ohm) = 1.4

Results:

Channel 1:
Ep = -1.786V
ip = 9.951e-4A
Ah = 1.091e-3C

Potential/V, Current/A

-0.600, 9.353e-9
-0.601, 1.983e-7
-0.602, 2.330e-7
-0.603, 2.467e-7
-0.604, 2.661e-7
-0.605, 2.820e-7
-0.606, 2.940e-7
-0.607, 2.991e-7
-0.608, 3.054e-7
-0.609, 3.163e-7
-0.610, 3.280e-7
-0.611, 3.359e-7
-0.612, 3.399e-7
-0.613, 3.423e-7
-0.614, 3.538e-7
-0.615, 3.664e-7
-0.616, 3.718e-7
-0.617, 3.726e-7
-0.618, 3.752e-7
-0.619, 3.839e-7
-0.620, 3.943e-7
-0.621, 3.999e-7
-0.622, 4.004e-7
-0.623, 4.012e-7
-0.624, 4.088e-7
-0.625, 4.192e-7
-0.626, 4.234e-7
-0.627, 4.251e-7
-0.628, 4.258e-7
-0.629, 4.331e-7
-0.630, 4.429e-7
-0.631, 4.459e-7
-0.632, 4.466e-7
-0.633, 4.497e-7
-0.634, 4.554e-7
-0.635, 4.649e-7
-0.636, 4.692e-7
-0.637, 4.661e-7
-0.638, 4.707e-7
-0.639, 4.755e-7
-0.640, 4.853e-7
-0.641, 4.898e-7
-0.642, 4.868e-7
-0.643, 4.886e-7
-0.644, 4.947e-7
-0.645, 5.041e-7
-0.646, 5.066e-7
-0.647, 5.067e-7
-0.648, 5.069e-7
-0.649, 5.132e-7
-0.650, 5.209e-7
-0.651, 5.244e-7
-0.652, 5.247e-7
-0.653, 5.237e-7
-0.654, 5.313e-7
-0.655, 5.380e-7
-0.656, 5.403e-7
-0.657, 5.399e-7
-0.658, 5.399e-7
-0.659, 5.461e-7
-0.660, 5.557e-7
-0.661, 5.577e-7
-0.662, 5.575e-7
-0.663, 5.563e-7
-0.664, 5.619e-7
-0.665, 5.719e-7
-0.666, 5.756e-7
-0.667, 5.725e-7
-0.668, 5.715e-7
-0.669, 5.776e-7
-0.670, 5.866e-7
-0.671, 5.881e-7
-0.672, 5.875e-7
-0.673, 5.893e-7
-0.674, 5.906e-7
-0.675, 6.002e-7
-0.676, 6.037e-7
-0.677, 6.004e-7
-0.678, 6.018e-7
-0.679, 6.078e-7
-0.680, 6.152e-7
-0.681, 6.182e-7
-0.682, 6.154e-7
-0.683, 6.171e-7
-0.684, 6.231e-7
-0.685, 6.283e-7
-0.686, 6.324e-7
-0.687, 6.285e-7
-0.688, 6.290e-7
-0.689, 6.354e-7
-0.690, 6.421e-7
-0.691, 6.457e-7
-0.692, 6.442e-7
-0.693, 6.432e-7
-0.694, 6.495e-7
-0.695, 6.563e-7
-0.696, 6.584e-7
-0.697, 6.591e-7
-0.698, 6.579e-7
-0.699, 6.627e-7
-0.700, 6.707e-7
-0.701, 6.719e-7
-0.702, 6.720e-7
-0.703, 6.709e-7
-0.704, 6.759e-7
-0.705, 6.843e-7
-0.706, 6.854e-7
-0.707, 6.848e-7
-0.708, 6.837e-7
-0.709, 6.891e-7
-0.710, 6.965e-7
-0.711, 6.996e-7
-0.712, 6.985e-7
-0.713, 6.981e-7
-0.714, 7.007e-7
-0.715, 7.106e-7
-0.716, 7.126e-7
-0.717, 7.110e-7
-0.718, 7.119e-7
-0.719, 7.146e-7
-0.720, 7.229e-7
-0.721, 7.263e-7
-0.722, 7.241e-7
-0.723, 7.251e-7
-0.724, 7.291e-7
-0.725, 7.357e-7
-0.726, 7.390e-7
-0.727, 7.359e-7
-0.728, 7.354e-7
-0.729, 7.419e-7
-0.730, 7.485e-7
-0.731, 7.511e-7
-0.732, 7.504e-7
-0.733, 7.489e-7
-0.734, 7.541e-7
-0.735, 7.605e-7
-0.736, 7.628e-7
-0.737, 7.628e-7
-0.738, 7.611e-7
-0.739, 7.658e-7
-0.740, 7.740e-7
-0.741, 7.769e-7
-0.742, 7.752e-7
-0.743, 7.747e-7
-0.744, 7.786e-7
-0.745, 7.877e-7
-0.746, 7.903e-7
-0.747, 7.885e-7
-0.748, 7.876e-7
-0.749, 7.918e-7
-0.750, 7.992e-7
-0.751, 8.014e-7
-0.752, 7.982e-7
-0.753, 7.999e-7
-0.754, 8.031e-7
-0.755, 8.119e-7
-0.756, 8.152e-7
-0.757, 8.121e-7
-0.758, 8.136e-7
-0.759, 8.159e-7
-0.760, 8.238e-7
-0.761, 8.276e-7
-0.762, 8.237e-7
-0.763, 8.251e-7
-0.764, 8.287e-7
-0.765, 8.358e-7
-0.766, 8.399e-7
-0.767, 8.369e-7
-0.768, 8.389e-7
-0.769, 8.435e-7
-0.770, 8.484e-7
-0.771, 8.501e-7
-0.772, 8.495e-7
-0.773, 8.503e-7
-0.774, 8.542e-7
-0.775, 8.621e-7
-0.776, 8.631e-7
-0.777, 8.624e-7
-0.778, 8.621e-7
-0.779, 8.667e-7
-0.780, 8.756e-7
-0.781, 8.768e-7
-0.782, 8.762e-7
-0.783, 8.746e-7
-0.784, 8.785e-7
-0.785, 8.868e-7
-0.786, 8.888e-7
-0.787, 8.872e-7
-0.788, 8.865e-7
-0.789, 8.923e-7
-0.790, 8.993e-7
-0.791, 9.016e-7
-0.792, 8.995e-7
-0.793, 8.996e-7
-0.794, 9.043e-7
-0.795, 9.120e-7
-0.796, 9.131e-7
-0.797, 9.098e-7
-0.798, 9.115e-7
-0.799, 9.149e-7
-0.800, 9.235e-7
-0.801, 9.257e-7
-0.802, 9.211e-7
-0.803, 9.233e-7
-0.804, 9.274e-7
-0.805, 9.333e-7
-0.806, 9.372e-7
-0.807, 9.342e-7
-0.808, 9.339e-7
-0.809, 9.393e-7
-0.810, 9.456e-7
-0.811, 9.474e-7
-0.812, 9.471e-7
-0.813, 9.455e-7
-0.814, 9.519e-7
-0.815, 9.590e-7
-0.816, 9.601e-7
-0.817, 9.598e-7
-0.818, 9.566e-7
-0.819, 9.697e-7
-0.820, 9.763e-7
-0.821, 9.745e-7
-0.822, 9.730e-7
-0.823, 9.712e-7
-0.824, 9.765e-7
-0.825, 9.856e-7
-0.826, 9.856e-7
-0.827, 9.844e-7
-0.828, 9.836e-7
-0.829, 9.874e-7
-0.830, 9.970e-7
-0.831, 9.972e-7
-0.832, 9.959e-7
-0.833, 9.962e-7
-0.834, 9.985e-7
-0.835, 1.009e-6
-0.836, 1.012e-6
-0.837, 1.007e-6
-0.838, 1.008e-6
-0.839, 1.013e-6
-0.840, 1.020e-6
-0.841, 1.024e-6
-0.842, 1.021e-6
-0.843, 1.022e-6
-0.844, 1.024e-6
-0.845, 1.032e-6
-0.846, 1.036e-6
-0.847, 1.033e-6
-0.848, 1.035e-6
-0.849, 1.040e-6
-0.850, 1.045e-6
-0.851, 1.048e-6
-0.852, 1.047e-6
-0.853, 1.045e-6
-0.854, 1.050e-6
-0.855, 1.058e-6
-0.856, 1.059e-6
-0.857, 1.060e-6
-0.858, 1.059e-6
-0.859, 1.063e-6
-0.860, 1.073e-6
-0.861, 1.072e-6
-0.862, 1.071e-6
-0.863, 1.070e-6
-0.864, 1.075e-6
-0.865, 1.083e-6
-0.866, 1.086e-6
-0.867, 1.083e-6
-0.868, 1.085e-6
-0.869, 1.088e-6
-0.870, 1.098e-6
-0.871, 1.103e-6
-0.872, 1.097e-6
-0.873, 1.097e-6
-0.874, 1.101e-6
-0.875, 1.108e-6
-0.876, 1.112e-6
-0.877, 1.110e-6
-0.878, 1.111e-6
-0.879, 1.113e-6
-0.880, 1.122e-6
-0.881, 1.125e-6
-0.882, 1.121e-6
-0.883, 1.123e-6
-0.884, 1.127e-6
-0.885, 1.133e-6
-0.886, 1.137e-6
-0.887, 1.135e-6
-0.888, 1.134e-6
-0.889, 1.141e-6
-0.890, 1.148e-6
-0.891, 1.152e-6
-0.892, 1.149e-6
-0.893, 1.148e-6
-0.894, 1.152e-6
-0.895, 1.160e-6
-0.896, 1.164e-6
-0.897, 1.162e-6
-0.898, 1.161e-6
-0.899, 1.166e-6
-0.900, 1.174e-6
-0.901, 1.176e-6
-0.902, 1.175e-6
-0.903, 1.173e-6
-0.904, 1.179e-6
-0.905, 1.188e-6
-0.906, 1.189e-6
-0.907, 1.188e-6
-0.908, 1.189e-6
-0.909, 1.193e-6
-0.910, 1.201e-6
-0.911, 1.203e-6
-0.912, 1.201e-6
-0.913, 1.203e-6
-0.914, 1.207e-6
-0.915, 1.215e-6
-0.916, 1.217e-6
-0.917, 1.215e-6
-0.918, 1.218e-6
-0.919, 1.220e-6
-0.920, 1.228e-6
-0.921, 1.233e-6
-0.922, 1.229e-6
-0.923, 1.231e-6
-0.924, 1.236e-6
-0.925, 1.242e-6
-0.926, 1.246e-6
-0.927, 1.242e-6
-0.928, 1.243e-6
-0.929, 1.250e-6
-0.930, 1.256e-6
-0.931, 1.260e-6
-0.932, 1.257e-6
-0.933, 1.256e-6
-0.934, 1.262e-6
-0.935, 1.272e-6
-0.936, 1.273e-6
-0.937, 1.272e-6
-0.938, 1.271e-6
-0.939, 1.277e-6
-0.940, 1.285e-6
-0.941, 1.287e-6
-0.942, 1.288e-6
-0.943, 1.286e-6
-0.944, 1.291e-6
-0.945, 1.301e-6
-0.946, 1.300e-6
-0.947, 1.302e-6
-0.948, 1.302e-6
-0.949, 1.305e-6
-0.950, 1.315e-6
-0.951, 1.317e-6
-0.952, 1.315e-6
-0.953, 1.317e-6
-0.954, 1.322e-6
-0.955, 1.331e-6
-0.956, 1.335e-6
-0.957, 1.333e-6
-0.958, 1.333e-6
-0.959, 1.338e-6
-0.960, 1.347e-6
-0.961, 1.350e-6
-0.962, 1.347e-6
-0.963, 1.349e-6
-0.964, 1.354e-6
-0.965, 1.362e-6
-0.966, 1.364e-6
-0.967, 1.362e-6
-0.968, 1.363e-6
-0.969, 1.370e-6
-0.970, 1.376e-6
-0.971, 1.380e-6
-0.972, 1.379e-6
-0.973, 1.384e-6
-0.974, 1.387e-6
-0.975, 1.393e-6
-0.976, 1.396e-6
-0.977, 1.396e-6
-0.978, 1.395e-6
-0.979, 1.402e-6
-0.980, 1.412e-6
-0.981, 1.412e-6
-0.982, 1.412e-6
-0.983, 1.413e-6
-0.984, 1.419e-6
-0.985, 1.428e-6
-0.986, 1.430e-6
-0.987, 1.430e-6
-0.988, 1.432e-6
-0.989, 1.436e-6
-0.990, 1.445e-6
-0.991, 1.447e-6
-0.992, 1.447e-6
-0.993, 1.449e-6
-0.994, 1.452e-6
-0.995, 1.463e-6
-0.996, 1.465e-6
-0.997, 1.463e-6
-0.998, 1.466e-6
-0.999, 1.472e-6
-1.000, 1.481e-6
-1.001, 1.486e-6
-1.002, 1.483e-6
-1.003, 1.486e-6
-1.004, 1.492e-6
-1.005, 1.501e-6
-1.006, 1.504e-6
-1.007, 1.501e-6
-1.008, 1.504e-6
-1.009, 1.512e-6
-1.010, 1.519e-6
-1.011, 1.524e-6
-1.012, 1.522e-6
-1.013, 1.523e-6
-1.014, 1.532e-6
-1.015, 1.539e-6
-1.016, 1.542e-6
-1.017, 1.543e-6
-1.018, 1.543e-6
-1.019, 1.551e-6
-1.020, 1.558e-6
-1.021, 1.562e-6
-1.022, 1.562e-6
-1.023, 1.564e-6
-1.024, 1.572e-6
-1.025, 1.580e-6
-1.026, 1.582e-6
-1.027, 1.581e-6
-1.028, 1.584e-6
-1.029, 1.590e-6
-1.030, 1.600e-6
-1.031, 1.603e-6
-1.032, 1.601e-6
-1.033, 1.605e-6
-1.034, 1.610e-6
-1.035, 1.619e-6
-1.036, 1.623e-6
-1.037, 1.623e-6
-1.038, 1.625e-6
-1.039, 1.630e-6
-1.040, 1.639e-6
-1.041, 1.642e-6
-1.042, 1.640e-6
-1.043, 1.643e-6
-1.044, 1.650e-6
-1.045, 1.657e-6
-1.046, 1.661e-6
-1.047, 1.660e-6
-1.048, 1.661e-6
-1.049, 1.669e-6
-1.050, 1.677e-6
-1.051, 1.680e-6
-1.052, 1.679e-6
-1.053, 1.678e-6
-1.054, 1.687e-6
-1.055, 1.696e-6
-1.056, 1.699e-6
-1.057, 1.699e-6
-1.058, 1.698e-6
-1.059, 1.705e-6
-1.060, 1.715e-6
-1.061, 1.716e-6
-1.062, 1.716e-6
-1.063, 1.716e-6
-1.064, 1.725e-6
-1.065, 1.734e-6
-1.066, 1.736e-6
-1.067, 1.735e-6
-1.068, 1.737e-6
-1.069, 1.742e-6
-1.070, 1.751e-6
-1.071, 1.754e-6
-1.072, 1.752e-6
-1.073, 1.754e-6
-1.074, 1.759e-6
-1.075, 1.770e-6
-1.076, 1.773e-6
-1.077, 1.770e-6
-1.078, 1.772e-6
-1.079, 1.778e-6
-1.080, 1.786e-6
-1.081, 1.789e-6
-1.082, 1.786e-6
-1.083, 1.788e-6
-1.084, 1.794e-6
-1.085, 1.803e-6
-1.086, 1.807e-6
-1.087, 1.806e-6
-1.088, 1.806e-6
-1.089, 1.812e-6
-1.090, 1.820e-6
-1.091, 1.823e-6
-1.092, 1.822e-6
-1.093, 1.821e-6
-1.094, 1.829e-6
-1.095, 1.837e-6
-1.096, 1.840e-6
-1.097, 1.839e-6
-1.098, 1.838e-6
-1.099, 1.844e-6
-1.100, 1.853e-6
-1.101, 1.858e-6
-1.102, 1.855e-6
-1.103, 1.855e-6
-1.104, 1.861e-6
-1.105, 1.871e-6
-1.106, 1.872e-6
-1.107, 1.872e-6
-1.108, 1.873e-6
-1.109, 1.877e-6
-1.110, 1.886e-6
-1.111, 1.888e-6
-1.112, 1.885e-6
-1.113, 1.889e-6
-1.114, 1.894e-6
-1.115, 1.903e-6
-1.116, 1.906e-6
-1.117, 1.905e-6
-1.118, 1.906e-6
-1.119, 1.911e-6
-1.120, 1.919e-6
-1.121, 1.922e-6
-1.122, 1.918e-6
-1.123, 1.920e-6
-1.124, 1.927e-6
-1.125, 1.935e-6
-1.126, 1.938e-6
-1.127, 1.936e-6
-1.128, 1.936e-6
-1.129, 1.943e-6
-1.130, 1.951e-6
-1.131, 1.954e-6
-1.132, 1.953e-6
-1.133, 1.953e-6
-1.134, 1.958e-6
-1.135, 1.966e-6
-1.136, 1.970e-6
-1.137, 1.970e-6
-1.138, 1.968e-6
-1.139, 1.976e-6
-1.140, 1.986e-6
-1.141, 1.986e-6
-1.142, 1.986e-6
-1.143, 1.987e-6
-1.144, 1.992e-6
-1.145, 2.002e-6
-1.146, 2.002e-6
-1.147, 2.001e-6
-1.148, 2.001e-6
-1.149, 2.007e-6
-1.150, 2.018e-6
-1.151, 2.020e-6
-1.152, 2.016e-6
-1.153, 2.020e-6
-1.154, 2.024e-6
-1.155, 2.033e-6
-1.156, 2.036e-6
-1.157, 2.033e-6
-1.158, 2.034e-6
-1.159, 2.040e-6
-1.160, 2.047e-6
-1.161, 2.052e-6
-1.162, 2.048e-6
-1.163, 2.050e-6
-1.164, 2.057e-6
-1.165, 2.065e-6
-1.166, 2.067e-6
-1.167, 2.065e-6
-1.168, 2.066e-6
-1.169, 2.073e-6
-1.170, 2.080e-6
-1.171, 2.083e-6
-1.172, 2.083e-6
-1.173, 2.082e-6
-1.174, 2.089e-6
-1.175, 2.096e-6
-1.176, 2.099e-6
-1.177, 2.099e-6
-1.178, 2.100e-6
-1.179, 2.105e-6
-1.180, 2.113e-6
-1.181, 2.113e-6
-1.182, 2.114e-6
-1.183, 2.114e-6
-1.184, 2.120e-6
-1.185, 2.129e-6
-1.186, 2.129e-6
-1.187, 2.130e-6
-1.188, 2.130e-6
-1.189, 2.135e-6
-1.190, 2.146e-6
-1.191, 2.148e-6
-1.192, 2.146e-6
-1.193, 2.147e-6
-1.194, 2.151e-6
-1.195, 2.161e-6
-1.196, 2.163e-6
-1.197, 2.160e-6
-1.198, 2.163e-6
-1.199, 2.167e-6
-1.200, 2.176e-6
-1.201, 2.181e-6
-1.202, 2.177e-6
-1.203, 2.178e-6
-1.204, 2.186e-6
-1.205, 2.193e-6
-1.206, 2.195e-6
-1.207, 2.192e-6
-1.208, 2.192e-6
-1.209, 2.200e-6
-1.210, 2.206e-6
-1.211, 2.208e-6
-1.212, 2.206e-6
-1.213, 2.207e-6
-1.214, 2.215e-6
-1.215, 2.223e-6
-1.216, 2.224e-6
-1.217, 2.225e-6
-1.218, 2.223e-6
-1.219, 2.230e-6
-1.220, 2.237e-6
-1.221, 2.238e-6
-1.222, 2.237e-6
-1.223, 2.236e-6
-1.224, 2.242e-6
-1.225, 2.251e-6
-1.226, 2.251e-6
-1.227, 2.251e-6
-1.228, 2.250e-6
-1.229, 2.265e-6
-1.230, 2.268e-6
-1.231, 2.268e-6
-1.232, 2.266e-6
-1.233, 2.268e-6
-1.234, 2.272e-6
-1.235, 2.282e-6
-1.236, 2.283e-6
-1.237, 2.280e-6
-1.238, 2.281e-6
-1.239, 2.287e-6
-1.240, 2.293e-6
-1.241, 2.296e-6
-1.242, 2.293e-6
-1.243, 2.293e-6
-1.244, 2.301e-6
-1.245, 2.307e-6
-1.246, 2.312e-6
-1.247, 2.308e-6
-1.248, 2.308e-6
-1.249, 2.316e-6
-1.250, 2.320e-6
-1.251, 2.323e-6
-1.252, 2.321e-6
-1.253, 2.320e-6
-1.254, 2.328e-6
-1.255, 2.336e-6
-1.256, 2.336e-6
-1.257, 2.336e-6
-1.258, 2.334e-6
-1.259, 2.340e-6
-1.260, 2.349e-6
-1.261, 2.351e-6
-1.262, 2.349e-6
-1.263, 2.348e-6
-1.264, 2.354e-6
-1.265, 2.362e-6
-1.266, 2.362e-6
-1.267, 2.361e-6
-1.268, 2.363e-6
-1.269, 2.368e-6
-1.270, 2.377e-6
-1.271, 2.377e-6
-1.272, 2.374e-6
-1.273, 2.377e-6
-1.274, 2.382e-6
-1.275, 2.391e-6
-1.276, 2.393e-6
-1.277, 2.389e-6
-1.278, 2.391e-6
-1.279, 2.396e-6
-1.280, 2.409e-6
-1.281, 2.410e-6
-1.282, 2.404e-6
-1.283, 2.406e-6
-1.284, 2.412e-6
-1.285, 2.420e-6
-1.286, 2.421e-6
-1.287, 2.418e-6
-1.288, 2.418e-6
-1.289, 2.427e-6
-1.290, 2.432e-6
-1.291, 2.435e-6
-1.292, 2.433e-6
-1.293, 2.433e-6
-1.294, 2.440e-6
-1.295, 2.447e-6
-1.296, 2.450e-6
-1.297, 2.448e-6
-1.298, 2.446e-6
-1.299, 2.455e-6
-1.300, 2.464e-6
-1.301, 2.463e-6
-1.302, 2.462e-6
-1.303, 2.462e-6
-1.304, 2.468e-6
-1.305, 2.478e-6
-1.306, 2.478e-6
-1.307, 2.476e-6
-1.308, 2.476e-6
-1.309, 2.484e-6
-1.310, 2.491e-6
-1.311, 2.491e-6
-1.312, 2.489e-6
-1.313, 2.490e-6
-1.314, 2.494e-6
-1.315, 2.505e-6
-1.316, 2.507e-6
-1.317, 2.504e-6
-1.318, 2.504e-6
-1.319, 2.511e-6
-1.320, 2.519e-6
-1.321, 2.523e-6
-1.322, 2.518e-6
-1.323, 2.520e-6
-1.324, 2.527e-6
-1.325, 2.535e-6
-1.326, 2.538e-6
-1.327, 2.534e-6
-1.328, 2.537e-6
-1.329, 2.543e-6
-1.330, 2.551e-6
-1.331, 2.554e-6
-1.332, 2.552e-6
-1.333, 2.549e-6
-1.334, 2.558e-6
-1.335, 2.566e-6
-1.336, 2.566e-6
-1.337, 2.565e-6
-1.338, 2.564e-6
-1.339, 2.572e-6
-1.340, 2.581e-6
-1.341, 2.580e-6
-1.342, 2.581e-6
-1.343, 2.580e-6
-1.344, 2.587e-6
-1.345, 2.595e-6
-1.346, 2.593e-6
-1.347, 2.594e-6
-1.348, 2.593e-6
-1.349, 2.599e-6
-1.350, 2.611e-6
-1.351, 2.609e-6
-1.352, 2.608e-6
-1.353, 2.609e-6
-1.354, 2.615e-6
-1.355, 2.626e-6
-1.356, 2.626e-6
-1.357, 2.624e-6
-1.358, 2.625e-6
-1.359, 2.629e-6
-1.360, 2.639e-6
-1.361, 2.641e-6
-1.362, 2.637e-6
-1.363, 2.639e-6
-1.364, 2.648e-6
-1.365, 2.653e-6
-1.366, 2.656e-6
-1.367, 2.654e-6
-1.368, 2.654e-6
-1.369, 2.664e-6
-1.370, 2.670e-6
-1.371, 2.672e-6
-1.372, 2.672e-6
-1.373, 2.674e-6
-1.374, 2.679e-6
-1.375, 2.687e-6
-1.376, 2.690e-6
-1.377, 2.690e-6
-1.378, 2.689e-6
-1.379, 2.698e-6
-1.380, 2.707e-6
-1.381, 2.707e-6
-1.382, 2.708e-6
-1.383, 2.712e-6
-1.384, 2.717e-6
-1.385, 2.725e-6
-1.386, 2.726e-6
-1.387, 2.724e-6
-1.388, 2.727e-6
-1.389, 2.734e-6
-1.390, 2.745e-6
-1.391, 2.745e-6
-1.392, 2.744e-6
-1.393, 2.747e-6
-1.394, 2.755e-6
-1.395, 2.763e-6
-1.396, 2.766e-6
-1.397, 2.765e-6
-1.398, 2.768e-6
-1.399, 2.773e-6
-1.400, 2.784e-6
-1.401, 2.788e-6
-1.402, 2.785e-6
-1.403, 2.788e-6
-1.404, 2.797e-6
-1.405, 2.805e-6
-1.406, 2.809e-6
-1.407, 2.807e-6
-1.408, 2.811e-6
-1.409, 2.821e-6
-1.410, 2.829e-6
-1.411, 2.832e-6
-1.412, 2.830e-6
-1.413, 2.832e-6
-1.414, 2.841e-6
-1.415, 2.850e-6
-1.416, 2.852e-6
-1.417, 2.853e-6
-1.418, 2.855e-6
-1.419, 2.865e-6
-1.420, 2.875e-6
-1.421, 2.876e-6
-1.422, 2.876e-6
-1.423, 2.877e-6
-1.424, 2.887e-6
-1.425, 2.899e-6
-1.426, 2.900e-6
-1.427, 2.898e-6
-1.428, 2.904e-6
-1.429, 2.911e-6
-1.430, 2.923e-6
-1.431, 2.923e-6
-1.432, 2.923e-6
-1.433, 2.929e-6
-1.434, 2.940e-6
-1.435, 2.949e-6
-1.436, 2.949e-6
-1.437, 2.949e-6
-1.438, 2.953e-6
-1.439, 2.965e-6
-1.440, 2.975e-6
-1.441, 2.978e-6
-1.442, 2.976e-6
-1.443, 2.979e-6
-1.444, 2.988e-6
-1.445, 2.998e-6
-1.446, 3.004e-6
-1.447, 3.003e-6
-1.448, 3.006e-6
-1.449, 3.018e-6
-1.450, 3.026e-6
-1.451, 3.029e-6
-1.452, 3.030e-6
-1.453, 3.035e-6
-1.454, 3.046e-6
-1.455, 3.057e-6
-1.456, 3.061e-6
-1.457, 3.062e-6
-1.458, 3.063e-6
-1.459, 3.076e-6
-1.460, 3.088e-6
-1.461, 3.090e-6
-1.462, 3.093e-6
-1.463, 3.093e-6
-1.464, 3.105e-6
-1.465, 3.119e-6
-1.466, 3.120e-6
-1.467, 3.122e-6
-1.468, 3.127e-6
-1.469, 3.137e-6
-1.470, 3.153e-6
-1.471, 3.152e-6
-1.472, 3.154e-6
-1.473, 3.159e-6
-1.474, 3.169e-6
-1.475, 3.183e-6
-1.476, 3.188e-6
-1.477, 3.188e-6
-1.478, 3.194e-6
-1.479, 3.207e-6
-1.480, 3.220e-6
-1.481, 3.225e-6
-1.482, 3.225e-6
-1.483, 3.232e-6
-1.484, 3.244e-6
-1.485, 3.262e-6
-1.486, 3.266e-6
-1.487, 3.268e-6
-1.488, 3.276e-6
-1.489, 3.292e-6
-1.490, 3.304e-6
-1.491, 3.311e-6
-1.492, 3.312e-6
-1.493, 3.318e-6
-1.494, 3.333e-6
-1.495, 3.348e-6
-1.496, 3.352e-6
-1.497, 3.358e-6
-1.498, 3.363e-6
-1.499, 3.380e-6
-1.500, 3.396e-6
-1.501, 3.401e-6
-1.502, 3.406e-6
-1.503, 3.418e-6
-1.504, 3.445e-6
-1.505, 3.461e-6
-1.506, 3.472e-6
-1.507, 3.470e-6
-1.508, 3.477e-6
-1.509, 3.495e-6
-1.510, 3.517e-6
-1.511, 3.525e-6
-1.512, 3.535e-6
-1.513, 3.548e-6
-1.514, 3.559e-6
-1.515, 3.581e-6
-1.516, 3.593e-6
-1.517, 3.600e-6
-1.518, 3.615e-6
-1.519, 3.631e-6
-1.520, 3.649e-6
-1.521, 3.663e-6
-1.522, 3.674e-6
-1.523, 3.690e-6
-1.524, 3.713e-6
-1.525, 3.734e-6
-1.526, 3.752e-6
-1.527, 3.763e-6
-1.528, 3.783e-6
-1.529, 3.812e-6
-1.530, 3.835e-6
-1.531, 3.850e-6
-1.532, 3.862e-6
-1.533, 3.884e-6
-1.534, 3.914e-6
-1.535, 3.941e-6
-1.536, 3.961e-6
-1.537, 3.980e-6
-1.538, 4.001e-6
-1.539, 4.034e-6
-1.540, 4.070e-6
-1.541, 4.096e-6
-1.542, 4.121e-6
-1.543, 4.149e-6
-1.544, 4.184e-6
-1.545, 4.224e-6
-1.546, 4.250e-6
-1.547, 4.281e-6
-1.548, 4.313e-6
-1.549, 4.352e-6
-1.550, 4.398e-6
-1.551, 4.434e-6
-1.552, 4.469e-6
-1.553, 4.508e-6
-1.554, 4.559e-6
-1.555, 4.615e-6
-1.556, 4.660e-6
-1.557, 4.699e-6
-1.558, 4.744e-6
-1.559, 4.804e-6
-1.560, 4.860e-6
-1.561, 4.913e-6
-1.562, 4.963e-6
-1.563, 5.021e-6
-1.564, 5.093e-6
-1.565, 5.159e-6
-1.566, 5.220e-6
-1.567, 5.280e-6
-1.568, 5.349e-6
-1.569, 5.433e-6
-1.570, 5.515e-6
-1.571, 5.592e-6
-1.572, 5.665e-6
-1.573, 5.744e-6
-1.574, 5.835e-6
-1.575, 5.925e-6
-1.576, 6.011e-6
-1.577, 6.102e-6
-1.578, 6.196e-6
-1.579, 6.306e-6
-1.580, 6.423e-6
-1.581, 6.524e-6
-1.582, 6.632e-6
-1.583, 6.746e-6
-1.584, 6.873e-6
-1.585, 7.006e-6
-1.586, 7.133e-6
-1.587, 7.265e-6
-1.588, 7.405e-6
-1.589, 7.560e-6
-1.590, 7.717e-6
-1.591, 7.868e-6
-1.592, 8.023e-6
-1.593, 8.193e-6
-1.594, 8.376e-6
-1.595, 8.576e-6
-1.596, 8.758e-6
-1.597, 8.948e-6
-1.598, 9.153e-6
-1.599, 9.370e-6
-1.600, 9.592e-6
-1.601, 9.821e-6
-1.602, 1.005e-5
-1.603, 1.030e-5
-1.604, 1.056e-5
-1.605, 1.083e-5
-1.606, 1.111e-5
-1.607, 1.139e-5
-1.608, 1.169e-5
-1.609, 1.201e-5
-1.610, 1.234e-5
-1.611, 1.268e-5
-1.612, 1.302e-5
-1.613, 1.339e-5
-1.614, 1.378e-5
-1.615, 1.419e-5
-1.616, 1.461e-5
-1.617, 1.504e-5
-1.618, 1.549e-5
-1.619, 1.598e-5
-1.620, 1.648e-5
-1.621, 1.699e-5
-1.622, 1.751e-5
-1.623, 1.804e-5
-1.624, 1.862e-5
-1.625, 1.923e-5
-1.626, 1.985e-5
-1.627, 2.051e-5
-1.628, 2.118e-5
-1.629, 2.192e-5
-1.630, 2.265e-5
-1.631, 2.340e-5
-1.632, 2.417e-5
-1.633, 2.498e-5
-1.634, 2.584e-5
-1.635, 2.674e-5
-1.636, 2.769e-5
-1.637, 2.865e-5
-1.638, 2.966e-5
-1.639, 3.073e-5
-1.640, 3.182e-5
-1.641, 3.296e-5
-1.642, 3.414e-5
-1.643, 3.539e-5
-1.644, 3.665e-5
-1.645, 3.798e-5
-1.646, 3.933e-5
-1.647, 4.072e-5
-1.648, 4.219e-5
-1.649, 4.371e-5
-1.650, 4.531e-5
-1.651, 4.699e-5
-1.652, 4.872e-5
-1.653, 5.052e-5
-1.654, 5.238e-5
-1.655, 5.431e-5
-1.656, 5.631e-5
-1.657, 5.835e-5
-1.658, 6.046e-5
-1.659, 6.264e-5
-1.660, 6.491e-5
-1.661, 6.727e-5
-1.662, 6.969e-5
-1.663, 7.223e-5
-1.664, 7.482e-5
-1.665, 7.743e-5
-1.666, 8.009e-5
-1.667, 8.285e-5
-1.668, 8.570e-5
-1.669, 8.865e-5
-1.670, 9.169e-5
-1.671, 9.484e-5
-1.672, 9.811e-5
-1.673, 1.015e-4
-1.674, 1.049e-4
-1.675, 1.085e-4
-1.676, 1.120e-4
-1.677, 1.155e-4
-1.678, 1.192e-4
-1.679, 1.229e-4
-1.680, 1.268e-4
-1.681, 1.308e-4
-1.682, 1.349e-4
-1.683, 1.389e-4
-1.684, 1.431e-4
-1.685, 1.475e-4
-1.686, 1.519e-4
-1.687, 1.562e-4
-1.688, 1.607e-4
-1.689, 1.648e-4
-1.690, 1.691e-4
-1.691, 1.736e-4
-1.692, 1.779e-4
-1.693, 1.824e-4
-1.694, 1.872e-4
-1.695, 1.922e-4
-1.696, 1.980e-4
-1.697, 2.042e-4
-1.698, 2.101e-4
-1.699, 2.160e-4
-1.700, 2.217e-4
-1.701, 2.274e-4
-1.702, 2.335e-4
-1.703, 2.396e-4
-1.704, 2.460e-4
-1.705, 2.526e-4
-1.706, 2.591e-4
-1.707, 2.659e-4
-1.708, 2.728e-4
-1.709, 2.794e-4
-1.710, 2.862e-4
-1.711, 2.930e-4
-1.712, 3.000e-4
-1.713, 3.072e-4
-1.714, 3.141e-4
-1.715, 3.215e-4
-1.716, 3.286e-4
-1.717, 3.352e-4
-1.718, 3.416e-4
-1.719, 3.481e-4
-1.720, 3.546e-4
-1.721, 3.617e-4
-1.722, 3.691e-4
-1.723, 3.764e-4
-1.724, 3.840e-4
-1.725, 3.912e-4
-1.726, 3.988e-4
-1.727, 4.069e-4
-1.728, 4.157e-4
-1.729, 4.247e-4
-1.730, 4.339e-4
-1.731, 4.434e-4
-1.732, 4.525e-4
-1.733, 4.614e-4
-1.734, 4.699e-4
-1.735, 4.783e-4
-1.736, 4.869e-4
-1.737, 4.972e-4
-1.738, 5.065e-4
-1.739, 5.159e-4
-1.740, 5.266e-4
-1.741, 5.364e-4
-1.742, 5.447e-4
-1.743, 5.523e-4
-1.744, 5.599e-4
-1.745, 5.670e-4
-1.746, 5.742e-4
-1.747, 5.813e-4
-1.748, 5.899e-4
-1.749, 5.992e-4
-1.750, 6.072e-4
-1.751, 6.184e-4
-1.752, 6.297e-4
-1.753, 6.383e-4
-1.754, 6.474e-4
-1.755, 6.567e-4
-1.756, 6.683e-4
-1.757, 6.792e-4
-1.758, 6.900e-4
-1.759, 7.004e-4
-1.760, 7.120e-4
-1.761, 7.246e-4
-1.762, 7.369e-4
-1.763, 7.463e-4
-1.764, 7.561e-4
-1.765, 7.650e-4
-1.766, 7.762e-4
-1.767, 7.893e-4
-1.768, 8.040e-4
-1.769, 8.177e-4
-1.770, 8.280e-4
-1.771, 8.386e-4
-1.772, 8.533e-4
-1.773, 8.663e-4
-1.774, 8.770e-4
-1.775, 8.876e-4
-1.776, 8.991e-4
-1.777, 9.113e-4
-1.778, 9.249e-4
-1.779, 9.395e-4
-1.780, 9.525e-4
-1.781, 9.648e-4
-1.782, 9.756e-4
-1.783, 9.864e-4
-1.784, 9.957e-4
-1.785, 1.006e-3
-1.786, 1.011e-3
-1.787, 1.011e-3
-1.788, 1.011e-3
-1.789, 1.011e-3
-1.790, 1.011e-3
-1.791, 1.011e-3
-1.792, 1.011e-3
-1.793, 1.011e-3
-1.794, 1.011e-3
-1.795, 1.011e-3
-1.796, 1.011e-3
-1.797, 1.011e-3
-1.798, 1.011e-3
-1.799, 1.011e-3
-1.800, 1.011e-3
-1.801, 1.011e-3
-1.802, 1.011e-3
-1.803, 1.011e-3
-1.804, 1.011e-3
-1.805, 1.011e-3
-1.806, 1.011e-3
-1.807, 1.011e-3
-1.808, 1.011e-3
-1.809, 1.011e-3
-1.810, 1.011e-3
-1.811, 1.011e-3
-1.812, 1.011e-3
-1.813, 1.011e-3
-1.814, 1.011e-3
-1.815, 1.011e-3
-1.816, 1.011e-3
-1.817, 1.011e-3
-1.818, 1.011e-3
-1.819, 1.011e-3
-1.820, 1.011e-3
-1.821, 1.011e-3
-1.822, 1.011e-3
-1.823, 1.011e-3
-1.824, 1.011e-3
-1.825, 1.011e-3
-1.826, 1.011e-3
-1.827, 1.011e-3
-1.828, 1.011e-3
-1.829, 1.011e-3
-1.830, 1.011e-3
-1.831, 1.011e-3
-1.832, 1.011e-3
-1.833, 1.011e-3
-1.834, 1.011e-3
-1.835, 1.011e-3
-1.836, 1.011e-3
-1.837, 1.011e-3
-1.838, 1.011e-3
-1.839, 1.011e-3
-1.840, 1.011e-3
-1.841, 1.011e-3
-1.842, 1.011e-3
-1.843, 1.011e-3
-1.844, 1.011e-3
-1.845, 1.011e-3
-1.846, 1.011e-3
-1.847, 1.011e-3
-1.848, 1.011e-3
-1.849, 1.011e-3
-1.850, 1.011e-3
-1.851, 1.011e-3
-1.852, 1.011e-3
-1.853, 1.011e-3
-1.854, 1.011e-3
-1.855, 1.011e-3
-1.856, 1.011e-3
-1.857, 1.011e-3
-1.858, 1.011e-3
-1.859, 1.011e-3
-1.860, 1.011e-3
-1.861, 1.011e-3
-1.862, 1.011e-3
-1.863, 1.011e-3
-1.864, 1.011e-3
-1.865, 1.011e-3
-1.866, 1.011e-3
-1.867, 1.011e-3
-1.868, 1.011e-3
-1.869, 1.011e-3
-1.870, 1.011e-3
-1.871, 1.011e-3
-1.872, 1.011e-3
-1.873, 1.011e-3
-1.874, 1.011e-3
-1.875, 1.011e-3
-1.876, 1.011e-3
-1.877, 1.011e-3
-1.878, 1.011e-3
-1.879, 1.011e-3
-1.880, 1.011e-3
-1.881, 1.011e-3
-1.882, 1.011e-3
-1.883, 1.011e-3
-1.884, 1.011e-3
-1.885, 1.011e-3
-1.886, 1.011e-3
-1.887, 1.011e-3
-1.888, 1.011e-3
-1.889, 1.011e-3
-1.890, 1.011e-3
-1.891, 1.011e-3
-1.892, 1.011e-3
-1.893, 1.011e-3
-1.894, 1.011e-3
-1.895, 1.011e-3
-1.896, 1.011e-3
-1.897, 1.011e-3
-1.898, 1.011e-3
-1.899, 1.011e-3
