Potential V vs RHE, Current mA cm-2
0.013299999999999867,1.219056727093702
0.012299999999999978,-0.9181476336124089
0.011299999999999866,-2.7501987669376318
0.010299999999999976,-4.450681749375406
0.009299999999999864,-5.977155241929781
0.008299999999999974,-7.329619244600755
0.007299999999999862,-8.638227196975913
0.006299999999999972,-9.772825659467674
0.00529999999999986,-10.863568071663616
0.0042999999999999705,-11.86659838326793
0.0032999999999998586,-12.781916594280606
0.0022999999999999687,-13.654793466297335
0.0012999999999998568,-14.444202371622024
0.00029999999999996696,-15.179852247551842
-0.000700000000000145,-15.91550212348166
-0.0017000000000000348,-16.622857773414182
-0.0027000000000001467,-17.231183632356142
-0.0037000000000000366,-17.881950830294063
-0.0047000000000001485,-18.53271802823198
-0.005700000000000038,-19.155191000172596
-0.00670000000000015,-19.763516859114564
-0.00770000000000004,-20.371842718056527
-0.008700000000000152,-20.93772723800254
-0.009700000000000042,-21.503611757948562
-0.010700000000000154,-21.98461359990267
-0.011700000000000044,-22.550498119848687
-0.012700000000000156,-23.031499961802798
-0.013700000000000045,-23.47006046476096
-0.014700000000000157,-23.908620967719123
-0.015700000000000047,-24.389622809673234
-0.01670000000000016,-24.870624651627345
-0.01770000000000005,-25.295038041586857
-0.01870000000000016,-25.77603988354097
-0.01970000000000005,-26.29948306449103
-0.020700000000000163,-26.738043567449193
-0.021700000000000053,-27.261486748399253
-0.022700000000000164,-27.78492992934932
-0.023700000000000054,-28.265931771303435
-0.024700000000000166,-28.746933613257543
-0.025700000000000056,-29.18549411621571
-0.026700000000000168,-29.66649595816982
-0.027700000000000058,-30.10505646112798
-0.02870000000000017,-30.571911190083444
-0.02970000000000006,-30.968030354045652
-0.03070000000000017,-31.449032195999767
-0.03170000000000006,-31.930034037953877
-0.03270000000000017,-32.41103587990799
-0.03370000000000006,-32.892037721862096
-0.034700000000000175,-33.41548090281216
-0.035700000000000065,-33.98136542275818
-0.03670000000000018,-34.5472499427042
-0.03770000000000007,-35.07069312365426
-0.03870000000000018,-35.636577643600276
-0.03970000000000007,-36.16002082455034
-0.04070000000000018,-36.725905344496354
-0.04170000000000007,-37.249348525446415
-0.04270000000000018,-37.77279170639648
-0.04370000000000007,-38.29623488734655
-0.044700000000000184,-38.81967806829661
-0.045700000000000074,-39.38556258824262
-0.046700000000000186,-39.90900576919269
-0.047700000000000076,-40.4748902891387
-0.04870000000000019,-41.04077480908471
-0.04970000000000008,-41.66324778102533
-0.05070000000000019,-42.2715736399673
-0.05170000000000008,-42.87989949890926
-0.05270000000000019,-43.53066669684718
-0.05370000000000008,-44.138992555789144
-0.05470000000000019,-44.80390686672572
-0.05570000000000008,-45.412232725667685
-0.056700000000000195,-46.02055858460964
-0.057700000000000085,-46.586443104555656
-0.058700000000000196,-47.19476896349763
-0.059700000000000086,-47.80309482243959
-0.0607000000000002,-48.41142068138156
-0.06170000000000009,-49.076334992318124
-0.0627000000000002,-49.68466085126009
-0.06370000000000009,-50.335428049198
-0.0647000000000002,-50.98619524713592
-0.06570000000000009,-51.65110955807249
-0.0667000000000002,-52.34431809500636
-0.0677000000000001,-53.03752663194023
-0.0687000000000002,-53.74488228187274
-0.0697000000000001,-54.39564947981066
-0.07070000000000021,-55.088858016744524
-0.0717000000000001,-55.73962521468245
-0.07270000000000021,-56.44698086461496
-0.0737000000000001,-57.097748062552874
-0.07470000000000021,-57.7485152604908
-0.0757000000000001,-58.39928245842871
-0.07670000000000021,-59.06419676936528
-0.0777000000000001,-59.757405306299155
-0.07870000000000021,-60.45061384323302
-0.0797000000000001,-61.15796949316553
-0.08070000000000022,-61.851178030099405
-0.0817000000000001,-62.544386567033264
-0.08270000000000022,-63.29418355596174
-0.08370000000000011,-64.02983343189156
-0.08470000000000022,-64.72304196882543
-0.08570000000000011,-65.43039761875795
-0.08670000000000022,-66.16604749468777
-0.08770000000000011,-66.87340314462028
-0.08870000000000022,-67.6090530205501
-0.08970000000000011,-68.25982021848802
-0.09070000000000022,-68.91058741642594
-0.09170000000000011,-69.6603844053544
-0.09270000000000023,-70.35359294228827
-0.09370000000000012,-71.10338993121674
-0.09470000000000023,-71.8814811461425
-0.09570000000000012,-72.67371947406694
-0.09670000000000023,-73.40936934999675
-0.09770000000000012,-74.20160767792116
-0.09870000000000023,-74.93725755385098
-0.09970000000000012,-75.71534876877676
-0.10070000000000023,-76.50758709670117
-0.10170000000000012,-77.243236972631
-0.10270000000000024,-77.99303396155948
-0.10370000000000013,-78.68624249849334
-0.10470000000000024,-79.42189237442317
-0.10570000000000013,-80.17168936335163
-0.10670000000000024,-80.90733923928146
-0.10770000000000013,-81.69957756720586
-0.10870000000000024,-82.43522744313569
-0.10970000000000013,-83.22746577106011
-0.11070000000000024,-84.00555698598588
-0.11170000000000013,-84.75535397491434
-0.11270000000000002,-85.57588652883607
-0.11370000000000013,-86.36812485676049
-0.11470000000000002,-87.14621607168625
-0.11570000000000014,-87.89601306061473
-0.11670000000000003,-88.5892215975486
-0.11770000000000014,-89.32487147347842
-0.11870000000000003,-90.11710980140283
-0.11970000000000014,-90.81031833833671
-0.12070000000000003,-91.56011532726518
-0.12170000000000014,-92.29576520319499
-0.12270000000000003,-92.98897374012887
-0.12370000000000014,-93.82365340704924
-0.12470000000000003,-94.55930328297906
-0.12570000000000014,-95.35154161090348
-0.12670000000000003,-96.12963282582925
-0.12770000000000015,-96.92187115375367
-0.12870000000000004,-97.69996236867944
-0.12970000000000015,-98.4497593576079
-0.13070000000000004,-99.22785057253368
-0.13170000000000015,-99.87861777047159
-0.13270000000000004,-100.58597342040412
-0.13370000000000015,-101.32162329633393
-0.13470000000000004,-102.02897894626645
-0.13570000000000015,-102.67974614420436
-0.13670000000000004,-103.45783735913014
-0.13770000000000016,-104.2076343480586
-0.13870000000000005,-104.94328422398843
-0.13970000000000016,-105.73552255191284
-0.14070000000000005,-106.4287310888467
-0.14170000000000016,-107.16438096477653
-0.14270000000000005,-107.95661929270095
-0.14370000000000016,-108.69226916863077
-0.14470000000000005,-109.4845074965552
-0.14570000000000016,-110.22015737248502
-0.14670000000000005,-110.96995436141347
-0.14770000000000016,-111.74804557633925
-0.14870000000000005,-112.48369545226906
-0.14970000000000017,-113.19105110220158
-0.15070000000000006,-113.92670097813141
-0.15170000000000017,-114.71893930605583
-0.15270000000000006,-115.4970305209816
-0.15370000000000017,-116.28926884890602
-0.15470000000000006,-117.06736006383179
-0.15570000000000017,-117.90203973075215
-0.15670000000000006,-118.68013094567793
-0.15770000000000017,-119.55725195159425
-0.15870000000000006,-120.33534316652002
-0.15970000000000018,-121.12758149444444
-0.16070000000000007,-121.90567270937021
-0.16170000000000018,-122.65546969829869
-0.16270000000000007,-123.34867823523254
-0.16370000000000018,-124.09847522416102
-0.16470000000000007,-124.7916837610949
-0.16570000000000018,-125.48489229802875
-0.16670000000000007,-126.19224794796128
-0.16770000000000018,-126.84301514589919
-0.16870000000000007,-127.4937823438371
-0.16970000000000018,-128.2294322197669
-0.17070000000000007,-128.93678786969946
-0.17170000000000019,-129.67243774562928
-0.17270000000000008,-130.46467607355368
-0.1737000000000002,-131.15788461048754
-0.17470000000000008,-131.95012293841197
-0.1757000000000002,-132.6857728143418
-0.17670000000000008,-133.4214226902716
-0.1777000000000002,-134.17121967920008
-0.17870000000000008,-134.9068695551299
-0.1797000000000002,-135.6142252050624
-0.18070000000000008,-136.34987508099226
-0.1817000000000002,-137.08552495692206
-0.18270000000000008,-137.79288060685457
-0.1837000000000002,-138.52853048278442
-0.1847000000000001,-139.22173901971826
-0.1857000000000002,-139.9290946696508
-0.1867000000000001,-140.66474454558062
-0.1877000000000002,-141.41454153450906
-0.1887000000000001,-142.03701450644968
-0.1897000000000002,-142.7443701563822
-0.1907000000000001,-143.5931969363012
-0.1917000000000001,-144.15908145624724
-0.19269999999999998,-144.86643710617977
-0.1937000000000001,-145.57379275611228
-0.19469999999999998,-146.28114840604482
-0.1957000000000001,-146.9885040559773
-0.19669999999999999,-147.83733083589632
-0.1977000000000001,-148.54468648582886
-0.1987,-149.25204213576137
-0.1997000000000001,-150.1008689156804
-0.2007,-150.8082245656129
-0.2017000000000001,-151.65705134553193
-0.2027,-152.50587812545095
-0.2037000000000001,-153.21323377538346
-0.2047,-153.920589425316
-0.2057000000000001,-154.76941620523502
-0.2067,-155.61824298515404
-0.2077000000000001,-156.46706976507306
-0.2087,-157.31589654499206
-0.2097000000000001,-158.02325219492457
-0.2107,-158.87207897484362
-0.2117000000000001,-159.57943462477613
-0.2127,-160.42826140469515
-0.2137000000000001,-161.1356170546277
-0.2147,-161.84297270456022
-0.2157000000000001,-162.6917994844792
-0.2167,-163.39915513441173
-0.21770000000000012,-164.10651078434424
-0.2187,-164.67239530429026
-0.21970000000000012,-165.3797509542228
-0.2207,-165.94563547416882
-0.22170000000000012,-166.51151999411482
-0.2227,-167.21887564404733
-0.22370000000000012,-167.78476016399335
-0.2247,-168.35064468393938
-0.22570000000000012,-169.0580003338719
-0.2267,-169.6238848538179
-0.22770000000000012,-170.33124050375042
-0.22870000000000001,-170.89712502369645
-0.22970000000000013,-171.60448067362896
-0.23070000000000002,-172.31183632356147
-0.23170000000000013,-172.87772084350746
-0.23270000000000002,-173.58507649344
-0.23370000000000013,-174.2924321433725
-0.23470000000000002,-174.99978779330505
-0.23570000000000013,-175.56567231325104
-0.23670000000000002,-176.13155683319707
-0.2376999999999999,-176.8389124831296
-0.23870000000000002,-177.4047970030756
-0.2396999999999999,-177.82921039303508
-0.24070000000000003,-178.3950949129811
-0.24169999999999991,-178.81950830294062
-0.24270000000000003,-179.38539282288664
-0.24369999999999992,-179.95127734283267
-0.24470000000000003,-180.5171618627787
-0.24569999999999992,-181.08304638272472
-0.24670000000000003,-181.64893090267074
-0.24769999999999992,-182.35628655260325
-0.24870000000000003,-182.92217107254925
-0.24969999999999992,-183.48805559249527
-0.25070000000000003,-184.05394011244127
-0.2516999999999999,-184.6198246323873
-0.25270000000000004,-185.1857091523333
-0.2536999999999999,-185.7515936722793
-0.25470000000000004,-186.31747819222534
-0.2556999999999999,-186.88336271217133
-0.25670000000000004,-187.44924723211736
-0.25769999999999993,-187.87366062207687
-0.25870000000000004,-188.4395451420229
-0.25969999999999993,-189.0054296619689
-0.26070000000000004,-189.42984305192843
-0.26169999999999993,-189.99572757187443
-0.26270000000000004,-190.56161209182042
-0.26369999999999993,-190.98602548177996
-0.26470000000000005,-191.551910001726
-0.26569999999999994,-191.9763233916855
-0.26670000000000005,-192.40073678164498
-0.26769999999999994,-192.683679041618
-0.26870000000000005,-193.10809243157752
-0.26969999999999994,-193.3910346915505
-0.27070000000000005,-193.81544808151003
-0.27169999999999994,-194.09839034148303
-0.27270000000000005,-194.38133260145605
-0.27369999999999994,-194.80574599141553
-0.27470000000000006,-195.08868825138856
-0.27569999999999995,-195.37163051136156
-0.27670000000000006,-195.65457277133459
-0.27769999999999995,-195.93751503130758
-0.27870000000000006,-196.0789861612941
-0.27969999999999995,-196.3619284212671
-0.28070000000000006,-196.6448706812401
-0.28169999999999995,-196.7863418112266
-0.28270000000000006,-196.92781294121312
-0.28369999999999995,-197.0692840711996
-0.28470000000000006,-197.0692840711996
-0.28569999999999995,-197.21075520118612
-0.28670000000000007,-197.21075520118612
-0.28769999999999996,-197.21075520118612
-0.28870000000000007,-197.35222633117263
-0.28969999999999996,-197.35222633117263
-0.29070000000000007,-197.35222633117263
-0.29169999999999996,-197.35222633117263
-0.29270000000000007,-197.35222633117263
-0.29369999999999996,-197.35222633117263
-0.2947000000000001,-197.35222633117263
-0.29569999999999996,-197.35222633117263
-0.2967000000000001,-197.35222633117263
-0.29769999999999996,-197.21075520118612
-0.2987000000000001,-197.0692840711996
-0.29969999999999997,-196.92781294121312
-0.3007000000000001,-196.7863418112266
-0.30169999999999997,-196.6448706812401
-0.3027000000000001,-196.3619284212671
-0.30369999999999997,-196.2204572912806
-0.3047000000000001,-195.93751503130758
-0.30569999999999997,-195.65457277133459
-0.3067000000000001,-195.37163051136156
-0.3077,-195.08868825138856
-0.3087000000000001,-194.80574599141553
-0.3097,-194.38133260145605
-0.3107000000000001,-193.9569192114965
-0.3117,-193.532505821537
-0.3127000000000001,-193.10809243157752
-0.3137,-192.683679041618
-0.3147000000000001,-192.11779452167198
-0.3157,-191.551910001726
-0.3167000000000001,-190.98602548177996
-0.3177,-190.27866983184742
-0.3187000000000001,-189.71278531190143
-0.3197,-189.1469007919554
-0.3207000000000001,-188.4395451420229
-0.3217,-187.87366062207687
-0.3227000000000001,-187.16630497214436
-0.3237,-186.31747819222534
-0.3247000000000001,-185.6101225422928
-0.3257,-184.9027668923603
-0.3267000000000001,-184.05394011244127
-0.3277,-183.34658446250873
-0.3287000000000001,-182.49775768258974
-0.3297,-181.64893090267074
-0.3307000000000001,-180.8001041227517
-0.3317,-179.80980621284618
-0.3327000000000001,-178.96097943292713
-0.3337,-178.1121526530081
-0.3347000000000001,-177.1218547431026
-0.3357,-176.27302796318358
-0.3367000000000001,-175.28273005327804
-0.3377,-174.43390327335902
-0.3387000000000001,-173.44360536345349
-0.3397,-172.59477858353446
-0.3407000000000001,-171.46300954364247
-0.3417,-170.47271163373694
-0.3427000000000001,-169.48241372383137
-0.3437,-168.35064468393938
-0.3447000000000001,-167.21887564404733
-0.3457,-166.22857773414182
-0.3467000000000001,-165.09680869424977
-0.3477,-163.96503965435775
-0.3487000000000001,-162.97474174445222
-0.3497,-161.84297270456022
-0.3507000000000001,-160.71120366466818
-0.3517,-159.72090575476264
-0.3527000000000001,-158.5891367148706
-0.3537,-157.59883880496508
-0.3547000000000001,-156.46706976507306
-0.3557,-155.47677185516753
-0.35670000000000013,-154.3450028152755
-0.3577,-153.21323377538346
-0.35870000000000013,-152.22293586547795
-0.3597,-151.09116682558593
-0.36070000000000013,-150.1008689156804
-0.3617,-149.1105710057749
-0.3626999999999999,-147.97880196588284
-0.3637,-147.1299751859638
-0.3646999999999999,-146.1396772760583
-0.3657,-145.14937936615277
-0.3666999999999999,-144.30055258623375
-0.3677,-143.4517258063147
-0.3686999999999999,-142.6028990263957
-0.36970000000000003,-141.75407224647665
-0.3706999999999999,-140.9759810315509
-0.37170000000000003,-140.14130136463055
-0.3726999999999999,-139.27832747171286
-0.37370000000000003,-138.44364780479248
-0.3746999999999999,-137.6089681378721
-0.37570000000000003,-136.83087692294635
-0.3766999999999999,-136.08107993401788
-0.37770000000000004,-135.34543005808808
-0.3786999999999999,-134.69466286015015
-0.37970000000000004,-134.04389566221224
-0.3806999999999999,-133.37898135127566
-0.38170000000000004,-132.7706554923337
-0.38269999999999993,-132.20477097238768
-0.38370000000000004,-131.5964451134457
-0.38469999999999993,-131.07300193249566
-0.38570000000000004,-130.5495587515456
-0.38669999999999993,-128.28602067176152
-0.38570000000000004,-123.09403020125686
-0.38469999999999993,-118.1991291037238
-0.38370000000000004,-113.58717026616378
-0.38269999999999993,-109.17327101058488
-0.38170000000000004,-105.02816690198033
-0.3806999999999999,-101.02453392336226
-0.37970000000000004,-97.21896052672531
-0.3786999999999999,-93.61144671206948
-0.37770000000000004,-90.11710980140283
-0.3766999999999999,-86.75009690772404
-0.37570000000000003,-83.52455514403178
-0.3746999999999999,-80.38389605833139
-0.37370000000000003,-77.38470810261751
-0.3726999999999999,-74.45625571189689
-0.37170000000000003,-71.58439177317086
-0.3706999999999999,-68.82570473843404
-0.36970000000000003,-66.16604749468777
-0.3686999999999999,-63.5063902509415
-0.3677,-61.07308681517363
-0.3666999999999999,-58.62563626640712
-0.3657,-56.26306839563251
-0.3646999999999999,-53.9570889768525
-0.3637,-51.77843357506035
-0.3626999999999999,-49.642219512264134
-0.3617,-47.54844678846388
-0.36070000000000013,-45.581998081651484
-0.3597,-43.61554937483908
-0.35870000000000013,-41.70568912002128
-0.3577,-39.82412309120078
-0.35670000000000013,-38.04158685337084
-0.3557,-36.20246216354629
-0.3547000000000001,-34.462367264712285
-0.3537,-32.70812525287965
-0.3527000000000001,-31.052913032037555
-0.3517,-29.440142150191413
-0.3507000000000001,-27.827371268345274
-0.3497,-26.34192440348698
-0.3487000000000001,-24.814036199632742
-0.3477,-23.427619125765005
-0.3467000000000001,-21.98461359990267
-0.3457,-20.683079204026836
-0.3447000000000001,-19.3249563561564
-0.3437,-18.009274847281915
-0.3427000000000001,-16.70774045140608
-0.3417,-15.448647394526201
-0.3407000000000001,-14.175407224647667
-0.3397,-12.913484745168056
-0.3387000000000001,-11.73503023238048
-0.3377,-10.514134380596953
-0.3367000000000001,-9.379535918105192
-0.3357,-8.202496116617484
-0.3347000000000001,-7.111753704421539
-0.3337,-6.064867342521412
-0.3327000000000001,-5.0618370309171015
-0.3317,-4.0588067193127895
-0.3307000000000001,-3.0996324580042955
-0.3297,-2.1390434853959355
-0.3287000000000001,-1.1798692240874404
-0.3277,-0.2202705493889862
-0.3267000000000001,0.6956135461436386
-0.3257,1.6113561705462767
-0.3247000000000001,2.5280890928588207
-0.3237,3.4434073038714996
-0.3227000000000001,4.316284175888227
-0.3217,5.18774633660509
-0.3207000000000001,6.016767158326001
-0.3197,6.801931929751096
-0.3187000000000001,7.587096701176192
-0.3177,8.372261472601286
-0.3167000000000001,9.113570193730567
-0.3157,9.854878914859846
-0.3147000000000001,10.553746296993173
-0.3137,11.295055018122452
-0.3127000000000001,11.992507688955916
-0.3117,12.733816410085195
-0.3107000000000001,13.431269080918659
-0.3097,14.130136463051985
-0.3087000000000001,14.826174422585586
-0.3077,15.519382959519453
-0.3067000000000001,16.184297270456018
-0.30569999999999997,16.835064468393938
-0.3047000000000001,17.4433903273359
-0.30369999999999997,18.009274847281915
-0.3027000000000001,18.617600706223882
-0.30169999999999997,19.141043887173947
-0.3007000000000001,19.70692840711996
-0.29969999999999997,20.230371588070028
-0.2987000000000001,20.75381476902009
-0.29769999999999996,21.319699288966106
-0.2967000000000001,21.899730921910766
-0.29569999999999996,22.42317410286083
-0.2947000000000001,23.031499961802798
-0.29369999999999996,23.55494314275286
-0.29270000000000007,24.078386323702922
-0.29169999999999996,24.601829504652986
-0.29070000000000007,25.0828313466071
-0.28969999999999996,25.563833188561212
-0.28870000000000007,26.030687917516673
-0.28769999999999996,26.511689759470787
-0.28670000000000007,26.95025026242895
-0.28569999999999995,27.34636942639116
-0.28470000000000006,27.742488590353368
-0.28369999999999995,28.22349043230748
-0.28270000000000006,28.60546248327104
-0.28169999999999995,29.086464325225155
-0.28070000000000006,29.525024828183312
-0.27969999999999995,30.00602667013743
-0.27870000000000006,30.444587173095588
-0.27769999999999995,30.88314767605375
-0.27670000000000006,31.321708179011907
-0.27569999999999995,31.703680229975475
-0.27470000000000006,32.09979939393769
-0.27369999999999994,32.49591855789989
-0.27270000000000005,32.892037721862096
-0.27169999999999994,33.274009772825664
-0.27070000000000005,33.58524625879597
-0.26969999999999994,33.93892408376223
-0.26870000000000005,34.236013456733886
-0.26769999999999994,34.632132620696105
-0.26670000000000005,34.9716633326637
