Aug. 4, 2024   07:49:56
Cyclic Voltammetry
File: c:/users/guazh/data/20240802_batch_500/2024-08-02-exp14\exp14-2024-08-04t07_33_11-arkoh\exp14_cv_sr_700mvs_efin_-1800mv.bin
Data Source:  Experiment
Instrument Model:  CHI760E
Header: CV ran at 700 mVs
Note: 

Init E (V) = -1
High E (V) = -1
Low E (V) = -1.8
Final E (V) = -1
Init P/N = N
Scan Rate (V/s) = 0.7
Segment = 3
Sample Interval (V) = 0.001
Quiet Time (sec) = 2
Sensitivity (A/V) = 0.01
Comp R (ohm) = 1.9

Results:

Channel 1:
Segment 1:

Segment 2:
Segment 3:

Potential/V, Current/A

-1.000, 3.239e-6
-1.001, 1.559e-7
-1.002, 3.239e-6
-1.003, 3.239e-6
-1.004, 3.239e-6
-1.005, 3.239e-6
-1.006, 3.239e-6
-1.007, 3.239e-6
-1.008, 3.239e-6
-1.009, 3.239e-6
-1.010, 3.239e-6
-1.011, 3.239e-6
-1.012, 3.239e-6
-1.013, 3.239e-6
-1.014, 3.239e-6
-1.015, 3.239e-6
-1.016, 3.239e-6
-1.017, 3.239e-6
-1.018, 3.239e-6
-1.019, 3.239e-6
-1.020, 3.239e-6
-1.021, 3.239e-6
-1.022, 3.239e-6
-1.023, 3.239e-6
-1.024, 3.239e-6
-1.025, 3.239e-6
-1.026, 3.239e-6
-1.027, 3.239e-6
-1.028, 3.239e-6
-1.029, 3.239e-6
-1.030, 3.239e-6
-1.031, 3.239e-6
-1.032, 3.239e-6
-1.033, 3.239e-6
-1.034, 3.239e-6
-1.035, 3.239e-6
-1.036, 6.322e-6
-1.037, 3.239e-6
-1.038, 3.239e-6
-1.039, 3.239e-6
-1.040, 3.239e-6
-1.041, 3.239e-6
-1.042, 3.239e-6
-1.043, 3.239e-6
-1.044, 6.322e-6
-1.045, 6.322e-6
-1.046, 6.322e-6
-1.047, 3.239e-6
-1.048, 3.239e-6
-1.049, 3.239e-6
-1.050, 6.322e-6
-1.051, 6.322e-6
-1.052, 6.322e-6
-1.053, 3.239e-6
-1.054, 6.322e-6
-1.055, 6.322e-6
-1.056, 3.239e-6
-1.057, 6.322e-6
-1.058, 3.239e-6
-1.059, 3.239e-6
-1.060, 3.239e-6
-1.061, 6.322e-6
-1.062, 3.239e-6
-1.063, 6.322e-6
-1.064, 6.322e-6
-1.065, 3.239e-6
-1.066, 6.322e-6
-1.067, 6.322e-6
-1.068, 6.322e-6
-1.069, 6.322e-6
-1.070, 6.322e-6
-1.071, 6.322e-6
-1.072, 6.322e-6
-1.073, 6.322e-6
-1.074, 3.239e-6
-1.075, 6.322e-6
-1.076, 6.322e-6
-1.077, 6.322e-6
-1.078, 6.322e-6
-1.079, 6.322e-6
-1.080, 6.322e-6
-1.081, 6.322e-6
-1.082, 6.322e-6
-1.083, 6.322e-6
-1.084, 6.322e-6
-1.085, 6.322e-6
-1.086, 6.322e-6
-1.087, 6.322e-6
-1.088, 6.322e-6
-1.089, 6.322e-6
-1.090, 6.322e-6
-1.091, 6.322e-6
-1.092, 6.322e-6
-1.093, 6.322e-6
-1.094, 6.322e-6
-1.095, 6.322e-6
-1.096, 6.322e-6
-1.097, 6.322e-6
-1.098, 6.322e-6
-1.099, 6.322e-6
-1.100, 6.322e-6
-1.101, 6.322e-6
-1.102, 6.322e-6
-1.103, 6.322e-6
-1.104, 6.322e-6
-1.105, 6.322e-6
-1.106, 6.322e-6
-1.107, 6.322e-6
-1.108, 6.322e-6
-1.109, 6.322e-6
-1.110, 6.322e-6
-1.111, 6.322e-6
-1.112, 6.322e-6
-1.113, 6.322e-6
-1.114, 6.322e-6
-1.115, 6.322e-6
-1.116, 6.322e-6
-1.117, 6.322e-6
-1.118, 6.322e-6
-1.119, 6.322e-6
-1.120, 6.322e-6
-1.121, 6.322e-6
-1.122, 6.322e-6
-1.123, 6.322e-6
-1.124, 6.322e-6
-1.125, 6.322e-6
-1.126, 6.322e-6
-1.127, 6.322e-6
-1.128, 6.322e-6
-1.129, 6.322e-6
-1.130, 6.322e-6
-1.131, 6.322e-6
-1.132, 6.322e-6
-1.133, 6.322e-6
-1.134, 6.322e-6
-1.135, 6.322e-6
-1.136, 6.322e-6
-1.137, 6.322e-6
-1.138, 6.322e-6
-1.139, 6.322e-6
-1.140, 6.322e-6
-1.141, 6.322e-6
-1.142, 6.322e-6
-1.143, 6.322e-6
-1.144, 6.322e-6
-1.145, 6.322e-6
-1.146, 6.322e-6
-1.147, 6.322e-6
-1.148, 6.322e-6
-1.149, 6.322e-6
-1.150, 6.322e-6
-1.151, 6.322e-6
-1.152, 6.322e-6
-1.153, 6.322e-6
-1.154, 6.322e-6
-1.155, 6.322e-6
-1.156, 6.322e-6
-1.157, 6.322e-6
-1.158, 6.322e-6
-1.159, 6.322e-6
-1.160, 6.322e-6
-1.161, 6.322e-6
-1.162, 6.322e-6
-1.163, 6.322e-6
-1.164, 6.322e-6
-1.165, 9.405e-6
-1.166, 6.322e-6
-1.167, 9.405e-6
-1.168, 9.405e-6
-1.169, 6.322e-6
-1.170, 9.405e-6
-1.171, 6.322e-6
-1.172, 6.322e-6
-1.173, 6.322e-6
-1.174, 6.322e-6
-1.175, 9.405e-6
-1.176, 6.322e-6
-1.177, 6.322e-6
-1.178, 6.322e-6
-1.179, 9.405e-6
-1.180, 9.405e-6
-1.181, 9.405e-6
-1.182, 6.322e-6
-1.183, 9.405e-6
-1.184, 9.405e-6
-1.185, 9.405e-6
-1.186, 9.405e-6
-1.187, 9.405e-6
-1.188, 9.405e-6
-1.189, 6.322e-6
-1.190, 6.322e-6
-1.191, 9.405e-6
-1.192, 9.405e-6
-1.193, 6.322e-6
-1.194, 9.405e-6
-1.195, 9.405e-6
-1.196, 9.405e-6
-1.197, 9.405e-6
-1.198, 9.405e-6
-1.199, 9.405e-6
-1.200, 9.405e-6
-1.201, 9.405e-6
-1.202, 9.405e-6
-1.203, 9.405e-6
-1.204, 9.405e-6
-1.205, 9.405e-6
-1.206, 9.405e-6
-1.207, 9.405e-6
-1.208, 9.405e-6
-1.209, 9.405e-6
-1.210, 9.405e-6
-1.211, 9.405e-6
-1.212, 9.405e-6
-1.213, 9.405e-6
-1.214, 9.405e-6
-1.215, 9.405e-6
-1.216, 9.405e-6
-1.217, 9.405e-6
-1.218, 9.405e-6
-1.219, 9.405e-6
-1.220, 9.405e-6
-1.221, 9.405e-6
-1.222, 9.405e-6
-1.223, 9.405e-6
-1.224, 9.405e-6
-1.225, 9.405e-6
-1.226, 9.405e-6
-1.227, 9.405e-6
-1.228, 9.405e-6
-1.229, 9.405e-6
-1.230, 9.405e-6
-1.231, 9.405e-6
-1.232, 9.405e-6
-1.233, 9.405e-6
-1.234, 9.405e-6
-1.235, 9.405e-6
-1.236, 9.405e-6
-1.237, 9.405e-6
-1.238, 9.405e-6
-1.239, 9.405e-6
-1.240, 9.405e-6
-1.241, 9.405e-6
-1.242, 9.405e-6
-1.243, 9.405e-6
-1.244, 9.405e-6
-1.245, 9.405e-6
-1.246, 9.405e-6
-1.247, 9.405e-6
-1.248, 9.405e-6
-1.249, 9.405e-6
-1.250, 9.405e-6
-1.251, 9.405e-6
-1.252, 9.405e-6
-1.253, 9.405e-6
-1.254, 9.405e-6
-1.255, 1.249e-5
-1.256, 9.405e-6
-1.257, 9.405e-6
-1.258, 9.405e-6
-1.259, 9.405e-6
-1.260, 9.405e-6
-1.261, 9.405e-6
-1.262, 9.405e-6
-1.263, 1.249e-5
-1.264, 9.405e-6
-1.265, 1.249e-5
-1.266, 1.249e-5
-1.267, 1.249e-5
-1.268, 9.405e-6
-1.269, 1.249e-5
-1.270, 9.405e-6
-1.271, 9.405e-6
-1.272, 1.249e-5
-1.273, 9.405e-6
-1.274, 1.249e-5
-1.275, 9.405e-6
-1.276, 1.249e-5
-1.277, 9.405e-6
-1.278, 1.249e-5
-1.279, 1.249e-5
-1.280, 1.249e-5
-1.281, 1.249e-5
-1.282, 9.405e-6
-1.283, 1.249e-5
-1.284, 1.249e-5
-1.285, 1.249e-5
-1.286, 1.249e-5
-1.287, 1.249e-5
-1.288, 1.249e-5
-1.289, 1.249e-5
-1.290, 1.249e-5
-1.291, 9.405e-6
-1.292, 1.249e-5
-1.293, 1.249e-5
-1.294, 1.249e-5
-1.295, 1.249e-5
-1.296, 1.249e-5
-1.297, 1.249e-5
-1.298, 1.249e-5
-1.299, 1.249e-5
-1.300, 1.249e-5
-1.301, 1.249e-5
-1.302, 1.249e-5
-1.303, 1.249e-5
-1.304, 1.249e-5
-1.305, 1.249e-5
-1.306, 1.249e-5
-1.307, 1.249e-5
-1.308, 1.249e-5
-1.309, 1.249e-5
-1.310, 1.249e-5
-1.311, 1.249e-5
-1.312, 1.249e-5
-1.313, 1.249e-5
-1.314, 1.249e-5
-1.315, 1.249e-5
-1.316, 1.249e-5
-1.317, 1.249e-5
-1.318, 1.249e-5
-1.319, 1.249e-5
-1.320, 1.249e-5
-1.321, 1.249e-5
-1.322, 1.249e-5
-1.323, 1.249e-5
-1.324, 1.249e-5
-1.325, 1.249e-5
-1.326, 1.249e-5
-1.327, 1.249e-5
-1.328, 1.249e-5
-1.329, 1.249e-5
-1.330, 1.249e-5
-1.331, 1.249e-5
-1.332, 1.249e-5
-1.333, 1.249e-5
-1.334, 1.249e-5
-1.335, 1.249e-5
-1.336, 1.249e-5
-1.337, 1.249e-5
-1.338, 1.249e-5
-1.339, 1.249e-5
-1.340, 1.249e-5
-1.341, 1.249e-5
-1.342, 1.557e-5
-1.343, 1.249e-5
-1.344, 1.249e-5
-1.345, 1.249e-5
-1.346, 1.557e-5
-1.347, 1.249e-5
-1.348, 1.249e-5
-1.349, 1.557e-5
-1.350, 1.557e-5
-1.351, 1.557e-5
-1.352, 1.557e-5
-1.353, 1.557e-5
-1.354, 1.249e-5
-1.355, 1.557e-5
-1.356, 1.557e-5
-1.357, 1.557e-5
-1.358, 1.557e-5
-1.359, 1.557e-5
-1.360, 1.557e-5
-1.361, 1.249e-5
-1.362, 1.557e-5
-1.363, 1.557e-5
-1.364, 1.557e-5
-1.365, 1.557e-5
-1.366, 1.557e-5
-1.367, 1.557e-5
-1.368, 1.557e-5
-1.369, 1.557e-5
-1.370, 1.557e-5
-1.371, 1.557e-5
-1.372, 1.557e-5
-1.373, 1.557e-5
-1.374, 1.557e-5
-1.375, 1.557e-5
-1.376, 1.557e-5
-1.377, 1.557e-5
-1.378, 1.557e-5
-1.379, 1.557e-5
-1.380, 1.557e-5
-1.381, 1.557e-5
-1.382, 1.557e-5
-1.383, 1.557e-5
-1.384, 1.557e-5
-1.385, 1.557e-5
-1.386, 1.557e-5
-1.387, 1.557e-5
-1.388, 1.557e-5
-1.389, 1.557e-5
-1.390, 1.557e-5
-1.391, 1.557e-5
-1.392, 1.557e-5
-1.393, 1.557e-5
-1.394, 1.557e-5
-1.395, 1.557e-5
-1.396, 1.557e-5
-1.397, 1.557e-5
-1.398, 1.557e-5
-1.399, 1.557e-5
-1.400, 1.557e-5
-1.401, 1.557e-5
-1.402, 1.557e-5
-1.403, 1.865e-5
-1.404, 1.557e-5
-1.405, 1.557e-5
-1.406, 1.865e-5
-1.407, 1.557e-5
-1.408, 1.557e-5
-1.409, 1.557e-5
-1.410, 1.865e-5
-1.411, 1.557e-5
-1.412, 1.865e-5
-1.413, 1.557e-5
-1.414, 1.865e-5
-1.415, 1.557e-5
-1.416, 1.865e-5
-1.417, 1.865e-5
-1.418, 1.557e-5
-1.419, 1.557e-5
-1.420, 1.557e-5
-1.421, 1.865e-5
-1.422, 1.865e-5
-1.423, 1.865e-5
-1.424, 1.865e-5
-1.425, 1.865e-5
-1.426, 1.865e-5
-1.427, 1.557e-5
-1.428, 1.865e-5
-1.429, 1.865e-5
-1.430, 1.865e-5
-1.431, 1.865e-5
-1.432, 1.865e-5
-1.433, 1.865e-5
-1.434, 1.865e-5
-1.435, 1.865e-5
-1.436, 1.865e-5
-1.437, 1.865e-5
-1.438, 1.865e-5
-1.439, 1.865e-5
-1.440, 1.865e-5
-1.441, 1.865e-5
-1.442, 1.865e-5
-1.443, 1.865e-5
-1.444, 1.865e-5
-1.445, 1.865e-5
-1.446, 1.865e-5
-1.447, 1.865e-5
-1.448, 1.865e-5
-1.449, 1.865e-5
-1.450, 1.865e-5
-1.451, 1.865e-5
-1.452, 1.865e-5
-1.453, 2.174e-5
-1.454, 1.865e-5
-1.455, 1.865e-5
-1.456, 1.865e-5
-1.457, 1.865e-5
-1.458, 1.865e-5
-1.459, 2.174e-5
-1.460, 1.865e-5
-1.461, 1.865e-5
-1.462, 1.865e-5
-1.463, 1.865e-5
-1.464, 2.174e-5
-1.465, 2.174e-5
-1.466, 1.865e-5
-1.467, 1.865e-5
-1.468, 1.865e-5
-1.469, 2.174e-5
-1.470, 1.865e-5
-1.471, 1.865e-5
-1.472, 1.865e-5
-1.473, 2.174e-5
-1.474, 1.865e-5
-1.475, 2.174e-5
-1.476, 2.174e-5
-1.477, 2.174e-5
-1.478, 2.174e-5
-1.479, 2.174e-5
-1.480, 2.174e-5
-1.481, 2.174e-5
-1.482, 2.174e-5
-1.483, 2.174e-5
-1.484, 2.174e-5
-1.485, 1.865e-5
-1.486, 2.174e-5
-1.487, 2.174e-5
-1.488, 2.174e-5
-1.489, 2.174e-5
-1.490, 2.174e-5
-1.491, 2.174e-5
-1.492, 2.174e-5
-1.493, 2.174e-5
-1.494, 2.174e-5
-1.495, 1.865e-5
-1.496, 2.174e-5
-1.497, 1.865e-5
-1.498, 2.174e-5
-1.499, 2.174e-5
-1.500, 2.174e-5
-1.501, 2.174e-5
-1.502, 2.174e-5
-1.503, 2.174e-5
-1.504, 2.174e-5
-1.505, 2.174e-5
-1.506, 2.174e-5
-1.507, 2.174e-5
-1.508, 2.174e-5
-1.509, 2.174e-5
-1.510, 2.174e-5
-1.511, 2.174e-5
-1.512, 2.174e-5
-1.513, 2.174e-5
-1.514, 2.174e-5
-1.515, 2.174e-5
-1.516, 2.174e-5
-1.517, 2.174e-5
-1.518, 2.174e-5
-1.519, 2.174e-5
-1.520, 2.174e-5
-1.521, 2.174e-5
-1.522, 2.174e-5
-1.523, 2.482e-5
-1.524, 2.174e-5
-1.525, 2.174e-5
-1.526, 2.174e-5
-1.527, 2.174e-5
-1.528, 2.482e-5
-1.529, 2.174e-5
-1.530, 2.482e-5
-1.531, 2.174e-5
-1.532, 2.482e-5
-1.533, 2.482e-5
-1.534, 2.482e-5
-1.535, 2.482e-5
-1.536, 2.174e-5
-1.537, 2.482e-5
-1.538, 2.482e-5
-1.539, 2.482e-5
-1.540, 2.482e-5
-1.541, 2.482e-5
-1.542, 2.482e-5
-1.543, 2.482e-5
-1.544, 2.482e-5
-1.545, 2.482e-5
-1.546, 2.482e-5
-1.547, 2.482e-5
-1.548, 2.482e-5
-1.549, 2.482e-5
-1.550, 2.482e-5
-1.551, 2.482e-5
-1.552, 2.482e-5
-1.553, 2.482e-5
-1.554, 2.482e-5
-1.555, 2.482e-5
-1.556, 2.482e-5
-1.557, 2.482e-5
-1.558, 2.482e-5
-1.559, 2.482e-5
-1.560, 2.482e-5
-1.561, 2.482e-5
-1.562, 2.482e-5
-1.563, 2.482e-5
-1.564, 2.482e-5
-1.565, 2.482e-5
-1.566, 2.482e-5
-1.567, 2.482e-5
-1.568, 2.790e-5
-1.569, 2.790e-5
-1.570, 2.790e-5
-1.571, 2.482e-5
-1.572, 2.482e-5
-1.573, 2.790e-5
-1.574, 2.482e-5
-1.575, 2.790e-5
-1.576, 2.482e-5
-1.577, 2.790e-5
-1.578, 2.482e-5
-1.579, 2.482e-5
-1.580, 2.790e-5
-1.581, 2.790e-5
-1.582, 2.790e-5
-1.583, 2.790e-5
-1.584, 2.790e-5
-1.585, 2.790e-5
-1.586, 2.790e-5
-1.587, 2.790e-5
-1.588, 2.790e-5
-1.589, 2.790e-5
-1.590, 2.790e-5
-1.591, 2.790e-5
-1.592, 2.790e-5
-1.593, 2.790e-5
-1.594, 2.790e-5
-1.595, 2.790e-5
-1.596, 2.790e-5
-1.597, 2.790e-5
-1.598, 2.790e-5
-1.599, 2.790e-5
-1.600, 2.790e-5
-1.601, 2.790e-5
-1.602, 3.099e-5
-1.603, 2.790e-5
-1.604, 2.790e-5
-1.605, 3.099e-5
-1.606, 3.099e-5
-1.607, 3.099e-5
-1.608, 2.790e-5
-1.609, 3.099e-5
-1.610, 3.099e-5
-1.611, 3.099e-5
-1.612, 3.099e-5
-1.613, 3.099e-5
-1.614, 3.099e-5
-1.615, 3.099e-5
-1.616, 3.099e-5
-1.617, 3.099e-5
-1.618, 3.099e-5
-1.619, 3.099e-5
-1.620, 3.099e-5
-1.621, 3.099e-5
-1.622, 3.099e-5
-1.623, 3.407e-5
-1.624, 3.099e-5
-1.625, 3.407e-5
-1.626, 3.099e-5
-1.627, 3.407e-5
-1.628, 3.407e-5
-1.629, 3.407e-5
-1.630, 3.407e-5
-1.631, 3.407e-5
-1.632, 3.407e-5
-1.633, 3.407e-5
-1.634, 3.407e-5
-1.635, 3.407e-5
-1.636, 3.407e-5
-1.637, 3.407e-5
-1.638, 3.715e-5
-1.639, 3.715e-5
-1.640, 3.715e-5
-1.641, 3.715e-5
-1.642, 3.715e-5
-1.643, 3.715e-5
-1.644, 3.715e-5
-1.645, 3.715e-5
-1.646, 3.715e-5
-1.647, 3.715e-5
-1.648, 4.024e-5
-1.649, 4.024e-5
-1.650, 4.024e-5
-1.651, 4.024e-5
-1.652, 4.332e-5
-1.653, 4.024e-5
-1.654, 4.332e-5
-1.655, 4.332e-5
-1.656, 4.332e-5
-1.657, 4.332e-5
-1.658, 4.332e-5
-1.659, 4.332e-5
-1.660, 4.332e-5
-1.661, 4.332e-5
-1.662, 4.332e-5
-1.663, 4.640e-5
-1.664, 4.640e-5
-1.665, 4.640e-5
-1.666, 4.640e-5
-1.667, 4.640e-5
-1.668, 4.949e-5
-1.669, 4.949e-5
-1.670, 5.257e-5
-1.671, 4.949e-5
-1.672, 5.257e-5
-1.673, 5.257e-5
-1.674, 5.565e-5
-1.675, 5.565e-5
-1.676, 5.565e-5
-1.677, 5.873e-5
-1.678, 5.873e-5
-1.679, 5.873e-5
-1.680, 5.873e-5
-1.681, 6.182e-5
-1.682, 6.182e-5
-1.683, 6.182e-5
-1.684, 6.490e-5
-1.685, 6.490e-5
-1.686, 6.798e-5
-1.687, 6.798e-5
-1.688, 7.107e-5
-1.689, 7.107e-5
-1.690, 7.415e-5
-1.691, 7.415e-5
-1.692, 7.723e-5
-1.693, 7.723e-5
-1.694, 7.723e-5
-1.695, 8.032e-5
-1.696, 8.032e-5
-1.697, 8.648e-5
-1.698, 8.648e-5
-1.699, 8.957e-5
-1.700, 9.265e-5
-1.701, 9.265e-5
-1.702, 9.573e-5
-1.703, 9.882e-5
-1.704, 1.019e-4
-1.705, 1.019e-4
-1.706, 1.050e-4
-1.707, 1.081e-4
-1.708, 1.111e-4
-1.709, 1.142e-4
-1.710, 1.173e-4
-1.711, 1.235e-4
-1.712, 1.266e-4
-1.713, 1.296e-4
-1.714, 1.327e-4
-1.715, 1.358e-4
-1.716, 1.420e-4
-1.717, 1.451e-4
-1.718, 1.481e-4
-1.719, 1.543e-4
-1.720, 1.574e-4
-1.721, 1.636e-4
-1.722, 1.697e-4
-1.723, 1.759e-4
-1.724, 1.821e-4
-1.725, 1.882e-4
-1.726, 1.944e-4
-1.727, 2.006e-4
-1.728, 2.067e-4
-1.729, 2.129e-4
-1.730, 2.191e-4
-1.731, 2.283e-4
-1.732, 2.376e-4
-1.733, 2.437e-4
-1.734, 2.530e-4
-1.735, 2.622e-4
-1.736, 2.715e-4
-1.737, 2.807e-4
-1.738, 2.931e-4
-1.739, 3.023e-4
-1.740, 3.146e-4
-1.741, 3.239e-4
-1.742, 3.362e-4
-1.743, 3.485e-4
-1.744, 3.640e-4
-1.745, 3.794e-4
-1.746, 3.917e-4
-1.747, 4.071e-4
-1.748, 4.225e-4
-1.749, 4.380e-4
-1.750, 4.534e-4
-1.751, 4.719e-4
-1.752, 4.904e-4
-1.753, 5.089e-4
-1.754, 5.274e-4
-1.755, 5.489e-4
-1.756, 5.736e-4
-1.757, 5.952e-4
-1.758, 6.199e-4
-1.759, 6.414e-4
-1.760, 6.661e-4
-1.761, 6.939e-4
-1.762, 7.185e-4
-1.763, 7.463e-4
-1.764, 7.740e-4
-1.765, 8.048e-4
-1.766, 8.357e-4
-1.767, 8.696e-4
-1.768, 9.035e-4
-1.769, 9.405e-4
-1.770, 9.744e-4
-1.771, 1.011e-3
-1.772, 1.051e-3
-1.773, 1.092e-3
-1.774, 1.132e-3
-1.775, 1.175e-3
-1.776, 1.215e-3
-1.777, 1.258e-3
-1.778, 1.304e-3
-1.779, 1.354e-3
-1.780, 1.406e-3
-1.781, 1.455e-3
-1.782, 1.508e-3
-1.783, 1.563e-3
-1.784, 1.619e-3
-1.785, 1.674e-3
-1.786, 1.733e-3
-1.787, 1.788e-3
-1.788, 1.850e-3
-1.789, 1.912e-3
-1.790, 1.976e-3
-1.791, 2.041e-3
-1.792, 2.112e-3
-1.793, 2.180e-3
-1.794, 2.251e-3
-1.795, 2.322e-3
-1.796, 2.396e-3
-1.797, 2.470e-3
-1.798, 2.544e-3
-1.799, 2.621e-3
-1.800, 2.673e-3
-1.799, 2.686e-3
-1.798, 2.698e-3
-1.797, 2.707e-3
-1.796, 2.710e-3
-1.795, 2.713e-3
-1.794, 2.710e-3
-1.793, 2.704e-3
-1.792, 2.695e-3
-1.791, 2.686e-3
-1.790, 2.673e-3
-1.789, 2.658e-3
-1.788, 2.642e-3
-1.787, 2.630e-3
-1.786, 2.615e-3
-1.785, 2.599e-3
-1.784, 2.581e-3
-1.783, 2.562e-3
-1.782, 2.541e-3
-1.781, 2.519e-3
-1.780, 2.497e-3
-1.779, 2.473e-3
-1.778, 2.448e-3
-1.777, 2.423e-3
-1.776, 2.399e-3
-1.775, 2.374e-3
-1.774, 2.353e-3
-1.773, 2.328e-3
-1.772, 2.303e-3
-1.771, 2.279e-3
-1.770, 2.251e-3
-1.769, 2.226e-3
-1.768, 2.198e-3
-1.767, 2.171e-3
-1.766, 2.143e-3
-1.765, 2.115e-3
-1.764, 2.087e-3
-1.763, 2.063e-3
-1.762, 2.038e-3
-1.761, 2.010e-3
-1.760, 1.986e-3
-1.759, 1.958e-3
-1.758, 1.930e-3
-1.757, 1.902e-3
-1.756, 1.875e-3
-1.755, 1.847e-3
-1.754, 1.819e-3
-1.753, 1.791e-3
-1.752, 1.764e-3
-1.751, 1.739e-3
-1.750, 1.714e-3
-1.749, 1.690e-3
-1.748, 1.662e-3
-1.747, 1.637e-3
-1.746, 1.610e-3
-1.745, 1.585e-3
-1.744, 1.557e-3
-1.743, 1.529e-3
-1.742, 1.505e-3
-1.741, 1.480e-3
-1.740, 1.455e-3
-1.739, 1.431e-3
-1.738, 1.409e-3
-1.737, 1.384e-3
-1.736, 1.360e-3
-1.735, 1.338e-3
-1.734, 1.314e-3
-1.733, 1.289e-3
-1.732, 1.264e-3
-1.731, 1.243e-3
-1.730, 1.218e-3
-1.729, 1.196e-3
-1.728, 1.175e-3
-1.727, 1.153e-3
-1.726, 1.135e-3
-1.725, 1.113e-3
-1.724, 1.092e-3
-1.723, 1.070e-3
-1.722, 1.051e-3
-1.721, 1.027e-3
-1.720, 1.008e-3
-1.719, 9.898e-4
-1.718, 9.683e-4
-1.717, 9.498e-4
-1.716, 9.313e-4
-1.715, 9.128e-4
-1.714, 8.943e-4
-1.713, 8.758e-4
-1.712, 8.573e-4
-1.711, 8.388e-4
-1.710, 8.233e-4
-1.709, 8.048e-4
-1.708, 7.863e-4
-1.707, 7.679e-4
-1.706, 7.524e-4
-1.705, 7.370e-4
-1.704, 7.216e-4
-1.703, 7.062e-4
-1.702, 6.908e-4
-1.701, 6.754e-4
-1.700, 6.599e-4
-1.699, 6.476e-4
-1.698, 6.322e-4
-1.697, 6.168e-4
-1.696, 6.014e-4
-1.695, 5.890e-4
-1.694, 5.767e-4
-1.693, 5.613e-4
-1.692, 5.520e-4
-1.691, 5.366e-4
-1.690, 5.274e-4
-1.689, 5.120e-4
-1.688, 5.027e-4
-1.687, 4.873e-4
-1.686, 4.780e-4
-1.685, 4.657e-4
-1.684, 4.534e-4
-1.683, 4.441e-4
-1.682, 4.318e-4
-1.681, 4.225e-4
-1.680, 4.133e-4
-1.679, 4.040e-4
-1.678, 3.948e-4
-1.677, 3.825e-4
-1.676, 3.732e-4
-1.675, 3.640e-4
-1.674, 3.547e-4
-1.673, 3.455e-4
-1.672, 3.393e-4
-1.671, 3.270e-4
-1.670, 3.208e-4
-1.669, 3.115e-4
-1.668, 3.054e-4
-1.667, 2.961e-4
-1.666, 2.900e-4
-1.665, 2.807e-4
-1.664, 2.746e-4
-1.663, 2.684e-4
-1.662, 2.591e-4
-1.661, 2.530e-4
-1.660, 2.468e-4
-1.659, 2.376e-4
-1.658, 2.345e-4
-1.657, 2.283e-4
-1.656, 2.221e-4
-1.655, 2.160e-4
-1.654, 2.098e-4
-1.653, 2.036e-4
-1.652, 1.975e-4
-1.651, 1.944e-4
-1.650, 1.882e-4
-1.649, 1.821e-4
-1.648, 1.759e-4
-1.647, 1.728e-4
-1.646, 1.666e-4
-1.645, 1.636e-4
-1.644, 1.605e-4
-1.643, 1.543e-4
-1.642, 1.512e-4
-1.641, 1.451e-4
-1.640, 1.420e-4
-1.639, 1.358e-4
-1.638, 1.327e-4
-1.637, 1.296e-4
-1.636, 1.266e-4
-1.635, 1.204e-4
-1.634, 1.173e-4
-1.633, 1.173e-4
-1.632, 1.111e-4
-1.631, 1.081e-4
-1.630, 1.050e-4
-1.629, 1.019e-4
-1.628, 9.882e-5
-1.627, 9.573e-5
-1.626, 9.265e-5
-1.625, 8.957e-5
-1.624, 8.648e-5
-1.623, 8.340e-5
-1.622, 8.340e-5
-1.621, 8.032e-5
-1.620, 8.032e-5
-1.619, 7.415e-5
-1.618, 7.415e-5
-1.617, 7.107e-5
-1.616, 6.798e-5
-1.615, 6.490e-5
-1.614, 6.490e-5
-1.613, 6.182e-5
-1.612, 5.873e-5
-1.611, 5.873e-5
-1.610, 5.873e-5
-1.609, 5.565e-5
-1.608, 5.257e-5
-1.607, 5.257e-5
-1.606, 4.949e-5
-1.605, 4.640e-5
-1.604, 4.640e-5
-1.603, 4.640e-5
-1.602, 4.332e-5
-1.601, 4.332e-5
-1.600, 4.024e-5
-1.599, 4.024e-5
-1.598, 3.715e-5
-1.597, 3.715e-5
-1.596, 3.715e-5
-1.595, 3.407e-5
-1.594, 3.099e-5
-1.593, 3.407e-5
-1.592, 3.099e-5
-1.591, 3.099e-5
-1.590, 2.790e-5
-1.589, 2.790e-5
-1.588, 2.790e-5
-1.587, 2.482e-5
-1.586, 2.482e-5
-1.585, 2.482e-5
-1.584, 2.174e-5
-1.583, 2.174e-5
-1.582, 2.174e-5
-1.581, 2.174e-5
-1.580, 1.865e-5
-1.579, 1.865e-5
-1.578, 1.865e-5
-1.577, 1.865e-5
-1.576, 1.557e-5
-1.575, 1.557e-5
-1.574, 1.557e-5
-1.573, 1.557e-5
-1.572, 1.557e-5
-1.571, 1.249e-5
-1.570, 1.249e-5
-1.569, 1.249e-5
-1.568, 1.249e-5
-1.567, 1.249e-5
-1.566, 9.405e-6
-1.565, 9.405e-6
-1.564, 9.405e-6
-1.563, 9.405e-6
-1.562, 9.405e-6
-1.561, 9.405e-6
-1.560, 9.405e-6
-1.559, 6.322e-6
-1.558, 6.322e-6
-1.557, 6.322e-6
-1.556, 6.322e-6
-1.555, 6.322e-6
-1.554, 6.322e-6
-1.553, 3.239e-6
-1.552, 3.239e-6
-1.551, 3.239e-6
-1.550, 3.239e-6
-1.549, 3.239e-6
-1.548, 3.239e-6
-1.547, 3.239e-6
-1.546, 3.239e-6
-1.545, 3.239e-6
-1.544, 1.559e-7
-1.543, 3.239e-6
-1.542, 1.559e-7
-1.541, 1.559e-7
-1.540, 1.559e-7
-1.539, 1.559e-7
-1.538, 1.559e-7
-1.537, 1.559e-7
-1.536, 1.559e-7
-1.535, 1.559e-7
-1.534, 1.559e-7
-1.533, 1.559e-7
-1.532, -2.927e-6
-1.531, 1.559e-7
-1.530, 1.559e-7
-1.529, 1.559e-7
-1.528, 1.559e-7
-1.527, -2.927e-6
-1.526, -2.927e-6
-1.525, -2.927e-6
-1.524, -2.927e-6
-1.523, -2.927e-6
-1.522, -2.927e-6
-1.521, -2.927e-6
-1.520, -2.927e-6
-1.519, -2.927e-6
-1.518, -2.927e-6
-1.517, -2.927e-6
-1.516, -2.927e-6
-1.515, -2.927e-6
-1.514, -2.927e-6
-1.513, -2.927e-6
-1.512, -2.927e-6
-1.511, -2.927e-6
-1.510, -2.927e-6
-1.509, -2.927e-6
-1.508, -2.927e-6
-1.507, -2.927e-6
-1.506, -2.927e-6
-1.505, -2.927e-6
-1.504, -2.927e-6
-1.503, -6.010e-6
-1.502, -2.927e-6
-1.501, -6.010e-6
-1.500, -6.010e-6
-1.499, -6.010e-6
-1.498, -6.010e-6
-1.497, -6.010e-6
-1.496, -6.010e-6
-1.495, -2.927e-6
-1.494, -6.010e-6
-1.493, -6.010e-6
-1.492, -6.010e-6
-1.491, -6.010e-6
-1.490, -6.010e-6
-1.489, -6.010e-6
-1.488, -6.010e-6
-1.487, -6.010e-6
-1.486, -6.010e-6
-1.485, -6.010e-6
-1.484, -6.010e-6
-1.483, -6.010e-6
-1.482, -6.010e-6
-1.481, -6.010e-6
-1.480, -6.010e-6
-1.479, -6.010e-6
-1.478, -6.010e-6
-1.477, -6.010e-6
-1.476, -6.010e-6
-1.475, -6.010e-6
-1.474, -6.010e-6
-1.473, -6.010e-6
-1.472, -6.010e-6
-1.471, -6.010e-6
-1.470, -6.010e-6
-1.469, -6.010e-6
-1.468, -6.010e-6
-1.467, -6.010e-6
-1.466, -6.010e-6
-1.465, -9.093e-6
-1.464, -6.010e-6
-1.463, -6.010e-6
-1.462, -6.010e-6
-1.461, -6.010e-6
-1.460, -6.010e-6
-1.459, -6.010e-6
-1.458, -6.010e-6
-1.457, -6.010e-6
-1.456, -6.010e-6
-1.455, -6.010e-6
-1.454, -6.010e-6
-1.453, -6.010e-6
-1.452, -6.010e-6
-1.451, -6.010e-6
-1.450, -6.010e-6
-1.449, -6.010e-6
-1.448, -6.010e-6
-1.447, -6.010e-6
-1.446, -9.093e-6
-1.445, -6.010e-6
-1.444, -9.093e-6
-1.443, -6.010e-6
-1.442, -6.010e-6
-1.441, -6.010e-6
-1.440, -9.093e-6
-1.439, -6.010e-6
-1.438, -9.093e-6
-1.437, -9.093e-6
-1.436, -6.010e-6
-1.435, -6.010e-6
-1.434, -6.010e-6
-1.433, -6.010e-6
-1.432, -6.010e-6
-1.431, -6.010e-6
-1.430, -6.010e-6
-1.429, -9.093e-6
-1.428, -9.093e-6
-1.427, -6.010e-6
-1.426, -6.010e-6
-1.425, -6.010e-6
-1.424, -9.093e-6
-1.423, -9.093e-6
-1.422, -9.093e-6
-1.421, -9.093e-6
-1.420, -6.010e-6
-1.419, -9.093e-6
-1.418, -9.093e-6
-1.417, -9.093e-6
-1.416, -6.010e-6
-1.415, -9.093e-6
-1.414, -6.010e-6
-1.413, -9.093e-6
-1.412, -6.010e-6
-1.411, -6.010e-6
-1.410, -9.093e-6
-1.409, -6.010e-6
-1.408, -9.093e-6
-1.407, -6.010e-6
-1.406, -9.093e-6
-1.405, -9.093e-6
-1.404, -9.093e-6
-1.403, -9.093e-6
-1.402, -9.093e-6
-1.401, -9.093e-6
-1.400, -6.010e-6
-1.399, -9.093e-6
-1.398, -9.093e-6
-1.397, -9.093e-6
-1.396, -6.010e-6
-1.395, -6.010e-6
-1.394, -9.093e-6
-1.393, -9.093e-6
-1.392, -9.093e-6
-1.391, -9.093e-6
-1.390, -9.093e-6
-1.389, -9.093e-6
-1.388, -9.093e-6
-1.387, -9.093e-6
-1.386, -9.093e-6
-1.385, -9.093e-6
-1.384, -9.093e-6
-1.383, -9.093e-6
-1.382, -6.010e-6
-1.381, -9.093e-6
-1.380, -9.093e-6
-1.379, -9.093e-6
-1.378, -9.093e-6
-1.377, -6.010e-6
-1.376, -9.093e-6
-1.375, -6.010e-6
-1.374, -9.093e-6
-1.373, -9.093e-6
-1.372, -9.093e-6
-1.371, -9.093e-6
-1.370, -9.093e-6
-1.369, -9.093e-6
-1.368, -6.010e-6
-1.367, -9.093e-6
-1.366, -9.093e-6
-1.365, -9.093e-6
-1.364, -9.093e-6
-1.363, -9.093e-6
-1.362, -9.093e-6
-1.361, -9.093e-6
-1.360, -9.093e-6
-1.359, -6.010e-6
-1.358, -9.093e-6
-1.357, -9.093e-6
-1.356, -9.093e-6
-1.355, -6.010e-6
-1.354, -6.010e-6
-1.353, -9.093e-6
-1.352, -9.093e-6
-1.351, -6.010e-6
-1.350, -6.010e-6
-1.349, -9.093e-6
-1.348, -9.093e-6
-1.347, -9.093e-6
-1.346, -9.093e-6
-1.345, -9.093e-6
-1.344, -9.093e-6
-1.343, -9.093e-6
-1.342, -9.093e-6
-1.341, -9.093e-6
-1.340, -9.093e-6
-1.339, -6.010e-6
-1.338, -9.093e-6
-1.337, -9.093e-6
-1.336, -9.093e-6
-1.335, -6.010e-6
-1.334, -6.010e-6
-1.333, -9.093e-6
-1.332, -9.093e-6
-1.331, -9.093e-6
-1.330, -6.010e-6
-1.329, -9.093e-6
-1.328, -9.093e-6
-1.327, -6.010e-6
-1.326, -9.093e-6
-1.325, -9.093e-6
-1.324, -9.093e-6
-1.323, -9.093e-6
-1.322, -9.093e-6
-1.321, -9.093e-6
-1.320, -9.093e-6
-1.319, -6.010e-6
-1.318, -6.010e-6
-1.317, -9.093e-6
-1.316, -6.010e-6
-1.315, -9.093e-6
-1.314, -9.093e-6
-1.313, -9.093e-6
-1.312, -9.093e-6
-1.311, -9.093e-6
-1.310, -9.093e-6
-1.309, -9.093e-6
-1.308, -9.093e-6
-1.307, -9.093e-6
-1.306, -9.093e-6
-1.305, -9.093e-6
-1.304, -9.093e-6
-1.303, -9.093e-6
-1.302, -9.093e-6
-1.301, -9.093e-6
-1.300, -9.093e-6
-1.299, -9.093e-6
-1.298, -9.093e-6
-1.297, -9.093e-6
-1.296, -9.093e-6
-1.295, -9.093e-6
-1.294, -9.093e-6
-1.293, -9.093e-6
-1.292, -9.093e-6
-1.291, -9.093e-6
-1.290, -9.093e-6
-1.289, -9.093e-6
-1.288, -9.093e-6
-1.287, -9.093e-6
-1.286, -9.093e-6
-1.285, -9.093e-6
-1.284, -6.010e-6
-1.283, -9.093e-6
-1.282, -9.093e-6
-1.281, -9.093e-6
-1.280, -9.093e-6
-1.279, -9.093e-6
-1.278, -6.010e-6
-1.277, -9.093e-6
-1.276, -9.093e-6
-1.275, -9.093e-6
-1.274, -9.093e-6
-1.273, -9.093e-6
-1.272, -9.093e-6
-1.271, -9.093e-6
-1.270, -9.093e-6
-1.269, -9.093e-6
-1.268, -9.093e-6
-1.267, -9.093e-6
-1.266, -6.010e-6
-1.265, -9.093e-6
-1.264, -9.093e-6
-1.263, -9.093e-6
-1.262, -6.010e-6
-1.261, -9.093e-6
-1.260, -6.010e-6
-1.259, -9.093e-6
-1.258, -9.093e-6
-1.257, -9.093e-6
-1.256, -6.010e-6
-1.255, -9.093e-6
-1.254, -9.093e-6
-1.253, -9.093e-6
-1.252, -9.093e-6
-1.251, -9.093e-6
-1.250, -9.093e-6
-1.249, -9.093e-6
-1.248, -6.010e-6
-1.247, -9.093e-6
-1.246, -9.093e-6
-1.245, -9.093e-6
-1.244, -9.093e-6
-1.243, -6.010e-6
-1.242, -9.093e-6
-1.241, -9.093e-6
-1.240, -9.093e-6
-1.239, -6.010e-6
-1.238, -9.093e-6
-1.237, -6.010e-6
-1.236, -9.093e-6
-1.235, -9.093e-6
-1.234, -9.093e-6
-1.233, -9.093e-6
-1.232, -6.010e-6
-1.231, -9.093e-6
-1.230, -9.093e-6
-1.229, -9.093e-6
-1.228, -9.093e-6
-1.227, -9.093e-6
-1.226, -9.093e-6
-1.225, -9.093e-6
-1.224, -9.093e-6
-1.223, -9.093e-6
-1.222, -9.093e-6
-1.221, -9.093e-6
-1.220, -9.093e-6
-1.219, -9.093e-6
-1.218, -9.093e-6
-1.217, -9.093e-6
-1.216, -9.093e-6
-1.215, -9.093e-6
-1.214, -9.093e-6
-1.213, -9.093e-6
-1.212, -9.093e-6
-1.211, -9.093e-6
-1.210, -6.010e-6
-1.209, -9.093e-6
-1.208, -6.010e-6
-1.207, -9.093e-6
-1.206, -9.093e-6
-1.205, -6.010e-6
-1.204, -9.093e-6
-1.203, -9.093e-6
-1.202, -9.093e-6
-1.201, -9.093e-6
-1.200, -9.093e-6
-1.199, -9.093e-6
-1.198, -9.093e-6
-1.197, -9.093e-6
-1.196, -6.010e-6
-1.195, -9.093e-6
-1.194, -9.093e-6
-1.193, -9.093e-6
-1.192, -6.010e-6
-1.191, -9.093e-6
-1.190, -9.093e-6
-1.189, -9.093e-6
-1.188, -9.093e-6
-1.187, -6.010e-6
-1.186, -9.093e-6
-1.185, -6.010e-6
-1.184, -9.093e-6
-1.183, -9.093e-6
-1.182, -9.093e-6
-1.181, -9.093e-6
-1.180, -9.093e-6
-1.179, -9.093e-6
-1.178, -9.093e-6
-1.177, -9.093e-6
-1.176, -9.093e-6
-1.175, -9.093e-6
-1.174, -9.093e-6
-1.173, -9.093e-6
-1.172, -9.093e-6
-1.171, -9.093e-6
-1.170, -9.093e-6
-1.169, -9.093e-6
-1.168, -9.093e-6
-1.167, -6.010e-6
-1.166, -9.093e-6
-1.165, -9.093e-6
-1.164, -9.093e-6
-1.163, -9.093e-6
-1.162, -9.093e-6
-1.161, -9.093e-6
-1.160, -9.093e-6
-1.159, -9.093e-6
-1.158, -9.093e-6
-1.157, -9.093e-6
-1.156, -9.093e-6
-1.155, -9.093e-6
-1.154, -9.093e-6
-1.153, -9.093e-6
-1.152, -9.093e-6
-1.151, -9.093e-6
-1.150, -9.093e-6
-1.149, -9.093e-6
-1.148, -9.093e-6
-1.147, -9.093e-6
-1.146, -9.093e-6
-1.145, -9.093e-6
-1.144, -6.010e-6
-1.143, -9.093e-6
-1.142, -6.010e-6
-1.141, -9.093e-6
-1.140, -9.093e-6
-1.139, -9.093e-6
-1.138, -9.093e-6
-1.137, -9.093e-6
-1.136, -9.093e-6
-1.135, -9.093e-6
-1.134, -9.093e-6
-1.133, -9.093e-6
-1.132, -6.010e-6
-1.131, -9.093e-6
-1.130, -9.093e-6
-1.129, -9.093e-6
-1.128, -9.093e-6
-1.127, -9.093e-6
-1.126, -9.093e-6
-1.125, -9.093e-6
-1.124, -9.093e-6
-1.123, -9.093e-6
-1.122, -9.093e-6
-1.121, -9.093e-6
-1.120, -9.093e-6
-1.119, -9.093e-6
-1.118, -9.093e-6
-1.117, -9.093e-6
-1.116, -9.093e-6
-1.115, -9.093e-6
-1.114, -9.093e-6
-1.113, -9.093e-6
-1.112, -9.093e-6
-1.111, -9.093e-6
-1.110, -9.093e-6
-1.109, -9.093e-6
-1.108, -9.093e-6
-1.107, -9.093e-6
-1.106, -9.093e-6
-1.105, -9.093e-6
-1.104, -9.093e-6
-1.103, -9.093e-6
-1.102, -9.093e-6
-1.101, -9.093e-6
-1.100, -9.093e-6
-1.099, -9.093e-6
-1.098, -9.093e-6
-1.097, -9.093e-6
-1.096, -9.093e-6
-1.095, -9.093e-6
-1.094, -9.093e-6
-1.093, -9.093e-6
-1.092, -9.093e-6
-1.091, -9.093e-6
-1.090, -9.093e-6
-1.089, -9.093e-6
-1.088, -9.093e-6
-1.087, -9.093e-6
-1.086, -9.093e-6
-1.085, -9.093e-6
-1.084, -9.093e-6
-1.083, -9.093e-6
-1.082, -9.093e-6
-1.081, -9.093e-6
-1.080, -9.093e-6
-1.079, -9.093e-6
-1.078, -9.093e-6
-1.077, -9.093e-6
-1.076, -9.093e-6
-1.075, -9.093e-6
-1.074, -9.093e-6
-1.073, -9.093e-6
-1.072, -9.093e-6
-1.071, -9.093e-6
-1.070, -9.093e-6
-1.069, -9.093e-6
-1.068, -9.093e-6
-1.067, -9.093e-6
-1.066, -9.093e-6
-1.065, -9.093e-6
-1.064, -9.093e-6
-1.063, -9.093e-6
-1.062, -9.093e-6
-1.061, -9.093e-6
-1.060, -9.093e-6
-1.059, -9.093e-6
-1.058, -9.093e-6
-1.057, -9.093e-6
-1.056, -9.093e-6
-1.055, -9.093e-6
-1.054, -9.093e-6
-1.053, -9.093e-6
-1.052, -9.093e-6
-1.051, -9.093e-6
-1.050, -9.093e-6
-1.049, -9.093e-6
-1.048, -9.093e-6
-1.047, -9.093e-6
-1.046, -9.093e-6
-1.045, -9.093e-6
-1.044, -9.093e-6
-1.043, -9.093e-6
-1.042, -9.093e-6
-1.041, -9.093e-6
-1.040, -9.093e-6
-1.039, -9.093e-6
-1.038, -9.093e-6
-1.037, -9.093e-6
-1.036, -9.093e-6
-1.035, -9.093e-6
-1.034, -9.093e-6
-1.033, -9.093e-6
-1.032, -9.093e-6
-1.031, -9.093e-6
-1.030, -9.093e-6
-1.029, -9.093e-6
-1.028, -9.093e-6
-1.027, -9.093e-6
-1.026, -9.093e-6
-1.025, -9.093e-6
-1.024, -9.093e-6
-1.023, -9.093e-6
-1.022, -9.093e-6
-1.021, -9.093e-6
-1.020, -9.093e-6
-1.019, -1.218e-5
-1.018, -9.093e-6
-1.017, -9.093e-6
-1.016, -1.218e-5
-1.015, -9.093e-6
-1.014, -9.093e-6
-1.013, -9.093e-6
-1.012, -1.218e-5
-1.011, -9.093e-6
-1.010, -9.093e-6
-1.009, -9.093e-6
-1.008, -1.218e-5
-1.007, -9.093e-6
-1.006, -9.093e-6
-1.005, -9.093e-6
-1.004, -9.093e-6
-1.003, -1.218e-5
-1.002, -9.093e-6
-1.001, -9.093e-6
