Potential V vs RHE, Current mA cm-2
0.4132999999999999,0.005554156563270134
0.4122999999999999,0.0037758644593397827
0.4112999999999999,0.0032113946506936333
0.4102999999999999,0.002931281813320356
0.4092999999999999,0.0027346369426391156
0.4082999999999999,0.0025535538962563912
0.4072999999999999,0.0023272000882779854
0.4062999999999999,0.00210933454809877
0.4052999999999999,0.0019395691921149654
0.4042999999999999,0.0018419541124242776
0.4032999999999999,0.0017089712502369643
0.4022999999999999,0.0015264734925543744
0.4012999999999999,0.001363923164199882
0.4002999999999999,0.0012466435974410703
0.3992999999999999,0.0011295055018122455
0.3982999999999999,0.0010345783735913013
0.3972999999999999,0.0008796674862560799
0.3962999999999999,0.0006995747377832607
0.3952999999999999,0.0006018181869625866
0.3942999999999999,0.0005264140746797802
0.39329999999999987,0.0004231401497896325
0.39229999999999987,0.0002989284976614823
0.39129999999999987,0.00014543232162612577
0.39029999999999987,6.029499560024787e-05
0.38929999999999987,4.466243573673921e-06
0.38829999999999987,-8.346796669203716e-05
0.38729999999999987,-0.0001965033995512536
0.38629999999999987,-0.00034165277891740634
0.38529999999999986,-0.000443511992507689
0.38429999999999986,-0.000500807800152223
0.38329999999999986,-0.0005873881317039632
0.38229999999999986,-0.0006906620565941109
0.38129999999999986,-0.0008301525907608035
0.38029999999999986,-0.0009139034997128136
0.37929999999999986,-0.0009557789541888188
0.37829999999999986,-0.0010144894731332179
0.37729999999999986,-0.001131627568762043
0.37629999999999986,-0.001257253932190058
0.37529999999999986,-0.001353595771710867
0.37429999999999986,-0.001399715360086467
0.37329999999999985,-0.0014741291744593684
0.37229999999999985,-0.0015731589654499208
0.37129999999999985,-0.0016693593338407433
0.37029999999999985,-0.0017613155683319707
0.36929999999999985,-0.0018009274847281917
0.36829999999999985,-0.0018561012254229281
0.36729999999999985,-0.001970692840711996
0.36629999999999985,-0.002075381476902009
0.36529999999999985,-0.0021489464644949908
0.36429999999999985,-0.002188558380891212
0.36329999999999985,-0.0022578792345845987
0.36229999999999984,-0.0023455913351762307
0.36129999999999984,-0.0024615976617651638
0.36029999999999984,-0.002539406783257741
0.35929999999999984,-0.002569115720554907
0.35829999999999984,-0.002617215904750318
0.35729999999999984,-0.0027035132940420857
0.35629999999999984,-0.0028280078884302087
0.35529999999999984,-0.0029086464325225156
0.35429999999999984,-0.0029411847924194112
0.35329999999999984,-0.0029807967088156325
0.35229999999999984,-0.003055776407708479
0.35129999999999983,-0.0031930034037953876
0.35029999999999983,-0.0032453477218903942
0.34929999999999983,-0.0032594948348890446
0.34829999999999983,-0.0033316451111821614
0.34729999999999983,-0.0034349190360723086
0.34629999999999983,-0.0035367782496625914
0.34529999999999983,-0.0036259050615540887
0.34429999999999983,-0.0036329786180534147
0.3432999999999998,-0.0036867376474482853
0.3422999999999998,-0.003754643789841807
0.3412999999999998,-0.003872064827730606
0.3402999999999998,-0.003956947505722507
0.3392999999999998,-0.003973924041320888
0.3382999999999998,-0.004019194802916569
0.3372999999999998,-0.004099833347008876
0.3362999999999998,-0.004207351405798619
0.3352999999999998,-0.004275257548192141
0.3342999999999998,-0.004296478217690116
0.3332999999999998,-0.004337504845386202
0.3322999999999998,-0.00441814338947851
0.3312999999999998,-0.0044987819335708164
0.3302999999999998,-0.004579420477663123
0.3292999999999998,-0.004611958837560019
0.3282999999999998,-0.00464025306355732
0.3272999999999998,-0.004726550452849088
0.3262999999999998,-0.00481992139864018
0.3252999999999999,-0.004884998118433972
0.3242999999999999,-0.004913292344431272
0.3232999999999999,-0.004930268880029653
0.3222999999999999,-0.005023639825820745
0.3212999999999999,-0.005121254905511433
0.3202999999999999,-0.005194819893104414
0.3192999999999999,-0.0052018934496037405
0.3182999999999999,-0.005234431809500636
0.3172999999999999,-0.005305167374493888
0.3162999999999999,-0.0054112707219837654
0.3152999999999999,-0.005487665132176478
0.3142999999999999,-0.005484835709576748
0.3132999999999999,-0.0055272770485726985
0.3122999999999999,-0.00558103607796757
0.3112999999999999,-0.005691383559357043
0.3102999999999999,-0.005759289701750564
0.3092999999999999,-0.005773436814749215
0.3082999999999999,-0.005807389885945975
0.3072999999999999,-0.005872466605739767
0.3062999999999999,-0.005964422840230995
0.3052999999999999,-0.006063452631221548
0.3042999999999999,-0.006046476095623166
0.3032999999999999,-0.006083258589419657
0.3022999999999999,-0.006142676464013989
0.3012999999999999,-0.006248779811503867
0.3002999999999999,-0.006305368263498468
0.2992999999999999,-0.006318100665197253
0.2982999999999999,-0.00635063902509415
0.2972999999999999,-0.006402983343189157
0.2962999999999999,-0.0064991837115799785
0.2952999999999999,-0.006582651678272016
0.2942999999999999,-0.006582651678272016
0.2932999999999999,-0.006589725234771341
0.2922999999999999,-0.006663290222364323
0.2912999999999999,-0.00675524645685555
0.2902999999999999,-0.006842958557447183
0.2892999999999999,-0.006844373268747047
0.2882999999999999,-0.006844373268747047
0.2872999999999999,-0.00692642652413922
0.2862999999999999,-0.007018382758630448
0.2852999999999999,-0.007055165252426938
0.2842999999999999,-0.00710609485922208
0.2832999999999999,-0.007111753704421539
0.2822999999999999,-0.00716834215641614
0.2812999999999999,-0.007267371947406693
0.2802999999999999,-0.007318301554201835
0.2792999999999999,-0.007340936934999676
0.2782999999999999,-0.007342351646299541
0.2772999999999999,-0.007397525386994277
0.2762999999999999,-0.00751070229098348
0.2752999999999999,-0.007554558341279296
0.2742999999999999,-0.007575779010777272
0.2732999999999999,-0.0075998291028749766
0.2722999999999999,-0.007645099864470658
0.2712999999999999,-0.007758276768459861
0.2702999999999999,-0.007824768199553517
0.2692999999999999,-0.007827597622153248
0.26829999999999987,-0.007860135982050145
0.26729999999999987,-0.007902577321046095
0.26629999999999987,-0.008008680668535972
0.26529999999999987,-0.0080723426770299
0.26429999999999987,-0.008082245656128955
0.26329999999999987,-0.008106295748226659
0.26229999999999987,-0.008140248819423422
0.26129999999999987,-0.008235034476514377
0.26029999999999986,-0.00830859946410736
0.25929999999999986,-0.008305770041507631
0.25829999999999986,-0.008346796669203717
0.25729999999999986,-0.008379335029100614
0.25629999999999986,-0.008452900016693595
0.25529999999999986,-0.008553344518984013
0.25429999999999986,-0.008537782694685497
0.25329999999999986,-0.008553344518984013
0.25229999999999986,-0.00859720056927983
0.25129999999999986,-0.008682083247271731
0.25029999999999986,-0.008762721791364036
0.24929999999999986,-0.008776868904362687
0.24829999999999985,-0.008789601306061474
0.24729999999999985,-0.008837701490256884
0.24629999999999985,-0.008922584168248787
0.24529999999999985,-0.009040005206137586
0.24429999999999985,-0.00904990818523664
0.24329999999999985,-0.009025858093138934
0.24229999999999985,-0.009066884720835021
0.24129999999999985,-0.009172988068324898
0.24029999999999985,-0.009219673541220445
0.23929999999999985,-0.00924938247851761
0.23829999999999985,-0.00926918843671572
0.23729999999999984,-0.009301726796612616
0.23629999999999984,-0.009393683031103843
0.23529999999999984,-0.009470077441296555
0.23429999999999984,-0.009481395131695474
0.23329999999999984,-0.009518177625491968
0.23229999999999984,-0.009554960119288457
0.23129999999999984,-0.0096341839520809
0.23029999999999984,-0.009697845960574828
0.22929999999999984,-0.009719066630072803
0.22829999999999984,-0.009740287299570776
0.22729999999999984,-0.009772825659467674
0.22629999999999983,-0.009849220069660386
0.22529999999999983,-0.009945420438051208
0.22429999999999983,-0.009935517458952152
0.22329999999999983,-0.009983617643147563
0.22229999999999983,-0.009992105910946755
0.22129999999999983,-0.010078403300238523
0.22029999999999983,-0.010156212421731097
0.21929999999999983,-0.01016470068953029
0.21829999999999983,-0.010184506647728398
0.21729999999999983,-0.010221289141524889
0.21629999999999983,-0.010307586530816657
0.21529999999999982,-0.01040095747660775
0.21429999999999982,-0.010393883920108425
0.21329999999999982,-0.010427836991305185
0.21229999999999982,-0.010439154681704105
0.21129999999999982,-0.010518378514496548
0.21029999999999982,-0.01060043176988872
0.20929999999999982,-0.010610334748987775
0.20829999999999982,-0.010635799552385347
0.20729999999999982,-0.010679655602681162
0.20629999999999982,-0.01076878241457266
0.20529999999999982,-0.010840932690865775
0.20429999999999982,-0.01085932393776402
0.20329999999999981,-0.010872056339462808
0.2022999999999998,-0.010904594699359702
0.2012999999999998,-0.011000795067750525
0.20029999999999992,-0.011068701210144046
0.19929999999999992,-0.011089921879642023
0.19829999999999992,-0.011116801394339458
0.19729999999999992,-0.011149339754236355
0.19629999999999992,-0.011246954833927042
0.19529999999999992,-0.011316275687620427
0.19429999999999992,-0.011382767118714086
0.19329999999999992,-0.01142096432381044
0.19229999999999992,-0.011406817210811791
0.19129999999999991,-0.011505847001802343
0.1902999999999999,-0.011570923721596136
0.1892999999999999,-0.011586485545894651
0.1882999999999999,-0.011621853328391276
0.1872999999999999,-0.011640244575289522
0.1862999999999999,-0.011736444943680344
0.1852999999999999,-0.011821327621672246
0.1842999999999999,-0.011819912910372382
0.1832999999999999,-0.011845377713769952
0.1822999999999999,-0.011883574918866309
0.1812999999999999,-0.011975531153357534
0.1802999999999999,-0.012040607873151327
0.1792999999999999,-0.012077390366947818
0.1782999999999999,-0.012083049212147279
0.1772999999999999,-0.012122661128543499
0.1762999999999999,-0.012208958517835267
0.1752999999999999,-0.012305158886226089
0.1742999999999999,-0.012293841195827169
0.1732999999999999,-0.012313647154025277
0.1722999999999999,-0.01235608849302123
0.1712999999999999,-0.012435312325813672
0.1702999999999999,-0.012518780292505709
0.1692999999999999,-0.012531512694204494
0.1682999999999999,-0.012556977497602066
0.1672999999999999,-0.012596589413998287
0.1662999999999999,-0.012668739690291404
0.1652999999999999,-0.012759281213482765
0.1642999999999999,-0.012773428326481416
0.1632999999999999,-0.012787575439480068
0.1622999999999999,-0.012837090334975343
0.1612999999999999,-0.012927631858166705
0.1602999999999999,-0.013001196845759686
0.1592999999999999,-0.013032320494356717
0.15829999999999989,-0.013035149916956448
0.15729999999999988,-0.01307193241075294
0.15629999999999988,-0.013158229800044706
0.15529999999999988,-0.013231794787637688
0.15429999999999988,-0.013267162570134314
0.15329999999999988,-0.01325725959103526
0.15229999999999988,-0.013311018620430128
0.15129999999999988,-0.013402974854921357
0.15029999999999988,-0.013492101666812856
0.14929999999999988,-0.013503419357211773
0.14829999999999988,-0.013526054738009618
0.14729999999999988,-0.013551519541407186
0.14629999999999987,-0.013644890487198278
0.14529999999999987,-0.0137127966295918
0.14429999999999987,-0.013736846721689507
0.14329999999999987,-0.013769385081586403
0.14229999999999987,-0.013840120646579654
0.14129999999999987,-0.0138868061194752
0.14029999999999987,-0.013974518220066835
0.13929999999999987,-0.014011300713863323
0.13829999999999987,-0.013998568312164537
0.13729999999999987,-0.014048083207659816
0.13629999999999987,-0.014125892329152392
0.13529999999999986,-0.014231995676642267
0.13429999999999986,-0.01424614278964092
0.13329999999999986,-0.01426028990263957
0.13229999999999986,-0.014316878354634173
0.13129999999999986,-0.014387613919627423
0.13029999999999986,-0.014486643710617976
0.12929999999999986,-0.014514937936615275
0.12829999999999986,-0.014514937936615275
0.12729999999999986,-0.014543232162612576
0.12629999999999986,-0.014642261953603129
0.12529999999999986,-0.014727144631595034
0.12429999999999986,-0.014755438857592333
0.12329999999999985,-0.014769585970590984
0.12229999999999985,-0.014812027309586936
0.12129999999999985,-0.014896909987578835
0.12029999999999985,-0.014981792665570736
0.11929999999999985,-0.01501008689156804
0.11829999999999985,-0.01503838111756534
0.11729999999999985,-0.01509496956955994
0.11629999999999985,-0.015165705134553195
0.11529999999999985,-0.015250587812545097
0.11429999999999985,-0.015293029151541045
0.11329999999999985,-0.015307176264539698
0.11229999999999984,-0.015335470490536997
0.11129999999999984,-0.01543450028152755
0.11029999999999984,-0.015491088733522153
0.10929999999999984,-0.015519382959519455
0.10829999999999984,-0.015547677185516754
0.10729999999999984,-0.015575971411514053
0.10629999999999984,-0.015660854089505957
0.10529999999999984,-0.01575988388049651
0.10429999999999984,-0.01578817810649381
0.10329999999999984,-0.01581647233249111
0.10229999999999984,-0.01583061944548976
0.10129999999999983,-0.01591550212348166
0.10029999999999983,-0.016042826140469518
0.09929999999999983,-0.016056973253468165
0.09829999999999983,-0.01608526747946547
0.09729999999999983,-0.016127708818461418
0.09629999999999983,-0.01615600304445872
0.09529999999999983,-0.01629747417444522
0.09429999999999983,-0.016325768400442524
0.09329999999999983,-0.016354062626439823
0.09229999999999983,-0.016396503965435776
0.09129999999999983,-0.01646723953042903
0.09029999999999982,-0.01658041643441823
0.08929999999999982,-0.01662285777341418
0.08829999999999982,-0.01662285777341418
0.08729999999999982,-0.016693593338407434
0.08629999999999982,-0.016750181790402035
0.08529999999999982,-0.016863358694391237
0.08429999999999982,-0.01690580003338719
0.08329999999999982,-0.016891652920388536
0.08229999999999982,-0.016962388485381792
0.08129999999999982,-0.01703312405037504
0.08029999999999982,-0.017146300954364244
0.07929999999999982,-0.017188742293360197
0.07829999999999981,-0.017217036519357496
0.07729999999999981,-0.0172453307453548
0.07629999999999981,-0.0173302134233467
0.07529999999999992,-0.017443390327335904
0.07429999999999992,-0.017471684553333203
0.07329999999999992,-0.01748583166633185
0.07229999999999992,-0.017542420118326456
0.07129999999999992,-0.017627302796318356
0.07029999999999992,-0.01772633258730891
0.06929999999999992,-0.01776877392630486
0.06829999999999992,-0.017782921039303512
0.06729999999999992,-0.017825362378299462
0.06629999999999991,-0.017910245056291362
0.06529999999999991,-0.018023421960280565
0.06429999999999991,-0.018080010412275173
0.06329999999999991,-0.018094157525273817
0.06229999999999991,-0.018150745977268422
0.06129999999999991,-0.018221481542261674
0.06029999999999991,-0.018348805559249524
0.05929999999999991,-0.018391246898245478
0.05829999999999991,-0.018391246898245478
0.05729999999999991,-0.018447835350240076
0.056299999999999906,-0.01851857091523333
0.055299999999999905,-0.018645894932221182
0.054299999999999904,-0.018702483384215783
0.0532999999999999,-0.018730777610213082
0.0522999999999999,-0.018787366062207687
0.0512999999999999,-0.018843954514202284
0.0502999999999999,-0.01897127853119014
0.0492999999999999,-0.019042014096183394
0.0482999999999999,-0.019042014096183394
0.0472999999999999,-0.019098602548177995
0.0462999999999999,-0.0191834852261699
0.045299999999999896,-0.0192966621301591
0.044299999999999895,-0.019353250582153703
0.043299999999999894,-0.01933910346915505
0.04229999999999989,-0.0194098390341483
0.04129999999999989,-0.019494721712140204
0.04029999999999989,-0.019622045729128058
0.03929999999999989,-0.01969278129412131
0.03829999999999989,-0.01967863418112266
0.03729999999999989,-0.01973522263311726
0.03629999999999989,-0.019834252424107815
0.03529999999999989,-0.019933282215098366
0.034299999999999886,-0.019989870667092968
0.033299999999999885,-0.02003231200608892
0.032299999999999884,-0.02007475334508487
0.031299999999999883,-0.02015963602307677
0.030299999999999883,-0.020272812927065977
0.02929999999999988,-0.020315254266061927
0.02829999999999988,-0.020371842718056525
0.02729999999999988,-0.02042843117005113
0.02629999999999988,-0.020499166735044382
0.025299999999999878,-0.020626490752032236
0.024299999999999877,-0.020683079204026837
0.023299999999999876,-0.020725520543022787
0.022299999999999875,-0.020767961882018737
0.021299999999999875,-0.020838697447011986
0.020299999999999874,-0.020994315689997142
0.019299999999999873,-0.021036757028993096
0.018299999999999872,-0.021065051254990398
0.01729999999999987,-0.021149933932982302
0.01629999999999987,-0.02119237527197825
0.01529999999999987,-0.021347993514963404
0.014299999999999868,-0.021418729079956657
0.013299999999999867,-0.021475317531951258
0.012299999999999978,-0.02150361175794856
0.011299999999999866,-0.02157434732294181
0.010299999999999976,-0.021701671339929663
0.009299999999999864,-0.021772406904922915
0.008299999999999974,-0.021814848243918866
0.007299999999999862,-0.021885583808912118
0.006299999999999972,-0.02194217226090672
0.00529999999999986,-0.02208364339089322
0.0042999999999999705,-0.022168526068885124
0.0032999999999998586,-0.022196820294882423
0.0022999999999999687,-0.022253408746877028
0.0012999999999998568,-0.02235243853786758
0.00029999999999996696,-0.022465615441856785
-0.000700000000000145,-0.022550498119848682
-0.0017000000000000348,-0.022578792345845984
-0.0027000000000001467,-0.022635380797840585
-0.0037000000000000366,-0.02273441058883114
-0.0047000000000001485,-0.022847587492820343
-0.005700000000000038,-0.022932470170812246
-0.00670000000000015,-0.022989058622806844
-0.00770000000000004,-0.023017352848804146
-0.008700000000000152,-0.023116382639794698
-0.009700000000000042,-0.023215412430785252
-0.010700000000000154,-0.023342736447773106
-0.011700000000000044,-0.023399324899767704
-0.012700000000000156,-0.02341347201276636
-0.013700000000000045,-0.023498354690758262
-0.014700000000000157,-0.023639825820744764
-0.015700000000000047,-0.023710561385738016
-0.01670000000000016,-0.023767149837732617
-0.01770000000000005,-0.023809591176728567
-0.01870000000000016,-0.02388032674172182
-0.01970000000000005,-0.024021797871708325
-0.020700000000000163,-0.024092533436701577
-0.021700000000000053,-0.024134974775697527
-0.022700000000000164,-0.024191563227692125
-0.023700000000000054,-0.02429059301868268
-0.024700000000000166,-0.024417917035670533
-0.025700000000000056,-0.024488652600663786
-0.026700000000000168,-0.024545241052658383
-0.027700000000000058,-0.02461597661765164
-0.02870000000000017,-0.02465841795664759
-0.02970000000000006,-0.024814036199632745
-0.03070000000000017,-0.024898918877624646
-0.03170000000000006,-0.024927213103621948
-0.03270000000000017,-0.0249979486686152
-0.03370000000000006,-0.0250828313466071
-0.034700000000000175,-0.025210155363594954
-0.035700000000000065,-0.025309185154585506
-0.03670000000000018,-0.025365773606580107
-0.03770000000000007,-0.02540821494557606
-0.03870000000000018,-0.025493097623567964
-0.03970000000000007,-0.02562042164055581
-0.04070000000000018,-0.025719451431546365
-0.04170000000000007,-0.02577603988354097
-0.04270000000000018,-0.025832628335535568
-0.04370000000000007,-0.02591751101352747
-0.044700000000000184,-0.026030687917516674
-0.045700000000000074,-0.02612971770850723
-0.046700000000000186,-0.026172159047503182
-0.047700000000000076,-0.02624289461249643
-0.04870000000000019,-0.02632777729048833
-0.04970000000000008,-0.02645510130747619
-0.05070000000000019,-0.026539983985468085
-0.05170000000000008,-0.02661071955046134
-0.05270000000000019,-0.02665316088945729
-0.05370000000000008,-0.02673804356744919
-0.05470000000000019,-0.026865367584437045
-0.05570000000000008,-0.02695025026242895
-0.056700000000000195,-0.0270209858274222
-0.057700000000000085,-0.0270775742794168
-0.058700000000000196,-0.027148309844410055
-0.059700000000000086,-0.02727563386139791
-0.0607000000000002,-0.02736051653938981
-0.06170000000000009,-0.02743125210438306
-0.0627000000000002,-0.02750198766937631
