Dec. 11, 2024   02:30:25
Linear Sweep Voltammetry
File: c:/users/guazh/data/banditlqround7_x0exp59_r20/2024-12-09-exp623\pre-regen-2024-12-11t02_27_17-lsvinphos\pre-regen_lsv_50mvs_efin_-1900mv.bin
Data Source:  Experiment
Instrument Model:  CHI760E
Header: LSV ran at 50 mVs with Efin at -1900mV
Note: 

Init E (V) = -0.6
Final E (V) = -1.9
Scan Rate (V/s) = 0.05
Sample Interval (V) = 0.001
Quiet Time (sec) = 2
Sensitivity (A/V) = 1e-4
Comp R (ohm) = 8.9

Results:

Channel 1:
Ep = -1.055V
ip = 9.775e-5A
Ah = 1.649e-4C

Ep = -1.428V
ip = 6.698e-4A
Ah = 9.980e-4C

Potential/V, Current/A

-0.600, 2.628e-6
-0.601, 3.553e-6
-0.602, 3.832e-6
-0.603, 3.952e-6
-0.604, 4.039e-6
-0.605, 4.120e-6
-0.606, 4.210e-6
-0.607, 4.275e-6
-0.608, 4.329e-6
-0.609, 4.385e-6
-0.610, 4.438e-6
-0.611, 4.507e-6
-0.612, 4.564e-6
-0.613, 4.606e-6
-0.614, 4.658e-6
-0.615, 4.713e-6
-0.616, 4.765e-6
-0.617, 4.817e-6
-0.618, 4.851e-6
-0.619, 4.891e-6
-0.620, 4.941e-6
-0.621, 5.000e-6
-0.622, 5.051e-6
-0.623, 5.079e-6
-0.624, 5.120e-6
-0.625, 5.170e-6
-0.626, 5.220e-6
-0.627, 5.267e-6
-0.628, 5.307e-6
-0.629, 5.338e-6
-0.630, 5.390e-6
-0.631, 5.437e-6
-0.632, 5.489e-6
-0.633, 5.529e-6
-0.634, 5.558e-6
-0.635, 5.605e-6
-0.636, 5.661e-6
-0.637, 5.703e-6
-0.638, 5.748e-6
-0.639, 5.779e-6
-0.640, 5.830e-6
-0.641, 5.884e-6
-0.642, 5.925e-6
-0.643, 5.967e-6
-0.644, 5.997e-6
-0.645, 6.041e-6
-0.646, 6.106e-6
-0.647, 6.146e-6
-0.648, 6.184e-6
-0.649, 6.221e-6
-0.650, 6.259e-6
-0.651, 6.328e-6
-0.652, 6.371e-6
-0.653, 6.408e-6
-0.654, 6.449e-6
-0.655, 6.494e-6
-0.656, 6.554e-6
-0.657, 6.605e-6
-0.658, 6.642e-6
-0.659, 6.679e-6
-0.660, 6.728e-6
-0.661, 6.785e-6
-0.662, 6.841e-6
-0.663, 6.878e-6
-0.664, 6.919e-6
-0.665, 6.975e-6
-0.666, 7.033e-6
-0.667, 7.083e-6
-0.668, 7.125e-6
-0.669, 7.157e-6
-0.670, 7.215e-6
-0.671, 7.272e-6
-0.672, 7.325e-6
-0.673, 7.369e-6
-0.674, 7.402e-6
-0.675, 7.463e-6
-0.676, 7.519e-6
-0.677, 7.573e-6
-0.678, 7.625e-6
-0.679, 7.663e-6
-0.680, 7.715e-6
-0.681, 7.784e-6
-0.682, 7.833e-6
-0.683, 7.885e-6
-0.684, 7.926e-6
-0.685, 7.981e-6
-0.686, 8.048e-6
-0.687, 8.097e-6
-0.688, 8.149e-6
-0.689, 8.196e-6
-0.690, 8.255e-6
-0.691, 8.325e-6
-0.692, 8.386e-6
-0.693, 8.428e-6
-0.694, 8.479e-6
-0.695, 8.531e-6
-0.696, 8.604e-6
-0.697, 8.667e-6
-0.698, 8.708e-6
-0.699, 8.762e-6
-0.700, 8.818e-6
-0.701, 8.890e-6
-0.702, 8.956e-6
-0.703, 9.001e-6
-0.704, 9.056e-6
-0.705, 9.118e-6
-0.706, 9.186e-6
-0.707, 9.257e-6
-0.708, 9.307e-6
-0.709, 9.358e-6
-0.710, 9.424e-6
-0.711, 9.492e-6
-0.712, 9.567e-6
-0.713, 9.623e-6
-0.714, 9.671e-6
-0.715, 9.740e-6
-0.716, 9.819e-6
-0.717, 9.884e-6
-0.718, 9.947e-6
-0.719, 9.998e-6
-0.720, 1.007e-5
-0.721, 1.015e-5
-0.722, 1.021e-5
-0.723, 1.027e-5
-0.724, 1.033e-5
-0.725, 1.040e-5
-0.726, 1.048e-5
-0.727, 1.055e-5
-0.728, 1.062e-5
-0.729, 1.068e-5
-0.730, 1.075e-5
-0.731, 1.084e-5
-0.732, 1.091e-5
-0.733, 1.098e-5
-0.734, 1.104e-5
-0.735, 1.111e-5
-0.736, 1.120e-5
-0.737, 1.129e-5
-0.738, 1.135e-5
-0.739, 1.142e-5
-0.740, 1.150e-5
-0.741, 1.158e-5
-0.742, 1.167e-5
-0.743, 1.174e-5
-0.744, 1.181e-5
-0.745, 1.190e-5
-0.746, 1.198e-5
-0.747, 1.206e-5
-0.748, 1.212e-5
-0.749, 1.219e-5
-0.750, 1.228e-5
-0.751, 1.237e-5
-0.752, 1.246e-5
-0.753, 1.254e-5
-0.754, 1.261e-5
-0.755, 1.270e-5
-0.756, 1.280e-5
-0.757, 1.289e-5
-0.758, 1.298e-5
-0.759, 1.305e-5
-0.760, 1.314e-5
-0.761, 1.324e-5
-0.762, 1.334e-5
-0.763, 1.343e-5
-0.764, 1.351e-5
-0.765, 1.359e-5
-0.766, 1.371e-5
-0.767, 1.381e-5
-0.768, 1.390e-5
-0.769, 1.399e-5
-0.770, 1.408e-5
-0.771, 1.419e-5
-0.772, 1.429e-5
-0.773, 1.438e-5
-0.774, 1.448e-5
-0.775, 1.457e-5
-0.776, 1.468e-5
-0.777, 1.479e-5
-0.778, 1.488e-5
-0.779, 1.498e-5
-0.780, 1.509e-5
-0.781, 1.520e-5
-0.782, 1.532e-5
-0.783, 1.541e-5
-0.784, 1.551e-5
-0.785, 1.563e-5
-0.786, 1.575e-5
-0.787, 1.587e-5
-0.788, 1.597e-5
-0.789, 1.608e-5
-0.790, 1.619e-5
-0.791, 1.632e-5
-0.792, 1.644e-5
-0.793, 1.656e-5
-0.794, 1.666e-5
-0.795, 1.679e-5
-0.796, 1.691e-5
-0.797, 1.704e-5
-0.798, 1.716e-5
-0.799, 1.726e-5
-0.800, 1.739e-5
-0.801, 1.753e-5
-0.802, 1.766e-5
-0.803, 1.779e-5
-0.804, 1.790e-5
-0.805, 1.803e-5
-0.806, 1.818e-5
-0.807, 1.830e-5
-0.808, 1.843e-5
-0.809, 1.856e-5
-0.810, 1.869e-5
-0.811, 1.884e-5
-0.812, 1.899e-5
-0.813, 1.912e-5
-0.814, 1.925e-5
-0.815, 1.939e-5
-0.816, 1.955e-5
-0.817, 1.970e-5
-0.818, 1.984e-5
-0.819, 2.000e-5
-0.820, 2.017e-5
-0.821, 2.031e-5
-0.822, 2.047e-5
-0.823, 2.061e-5
-0.824, 2.076e-5
-0.825, 2.091e-5
-0.826, 2.108e-5
-0.827, 2.125e-5
-0.828, 2.140e-5
-0.829, 2.155e-5
-0.830, 2.172e-5
-0.831, 2.189e-5
-0.832, 2.207e-5
-0.833, 2.224e-5
-0.834, 2.239e-5
-0.835, 2.257e-5
-0.836, 2.275e-5
-0.837, 2.294e-5
-0.838, 2.311e-5
-0.839, 2.327e-5
-0.840, 2.346e-5
-0.841, 2.366e-5
-0.842, 2.385e-5
-0.843, 2.404e-5
-0.844, 2.423e-5
-0.845, 2.441e-5
-0.846, 2.462e-5
-0.847, 2.482e-5
-0.848, 2.501e-5
-0.849, 2.521e-5
-0.850, 2.541e-5
-0.851, 2.563e-5
-0.852, 2.584e-5
-0.853, 2.604e-5
-0.854, 2.624e-5
-0.855, 2.646e-5
-0.856, 2.668e-5
-0.857, 2.692e-5
-0.858, 2.713e-5
-0.859, 2.735e-5
-0.860, 2.757e-5
-0.861, 2.780e-5
-0.862, 2.804e-5
-0.863, 2.826e-5
-0.864, 2.850e-5
-0.865, 2.874e-5
-0.866, 2.899e-5
-0.867, 2.925e-5
-0.868, 2.949e-5
-0.869, 2.973e-5
-0.870, 2.999e-5
-0.871, 3.027e-5
-0.872, 3.053e-5
-0.873, 3.079e-5
-0.874, 3.105e-5
-0.875, 3.132e-5
-0.876, 3.161e-5
-0.877, 3.189e-5
-0.878, 3.218e-5
-0.879, 3.245e-5
-0.880, 3.274e-5
-0.881, 3.304e-5
-0.882, 3.334e-5
-0.883, 3.364e-5
-0.884, 3.392e-5
-0.885, 3.423e-5
-0.886, 3.456e-5
-0.887, 3.487e-5
-0.888, 3.519e-5
-0.889, 3.550e-5
-0.890, 3.581e-5
-0.891, 3.616e-5
-0.892, 3.650e-5
-0.893, 3.683e-5
-0.894, 3.717e-5
-0.895, 3.751e-5
-0.896, 3.787e-5
-0.897, 3.824e-5
-0.898, 3.859e-5
-0.899, 3.894e-5
-0.900, 3.930e-5
-0.901, 3.969e-5
-0.902, 4.008e-5
-0.903, 4.045e-5
-0.904, 4.083e-5
-0.905, 4.123e-5
-0.906, 4.163e-5
-0.907, 4.203e-5
-0.908, 4.244e-5
-0.909, 4.284e-5
-0.910, 4.326e-5
-0.911, 4.368e-5
-0.912, 4.411e-5
-0.913, 4.453e-5
-0.914, 4.495e-5
-0.915, 4.540e-5
-0.916, 4.586e-5
-0.917, 4.632e-5
-0.918, 4.677e-5
-0.919, 4.722e-5
-0.920, 4.770e-5
-0.921, 4.819e-5
-0.922, 4.868e-5
-0.923, 4.917e-5
-0.924, 4.965e-5
-0.925, 5.015e-5
-0.926, 5.067e-5
-0.927, 5.119e-5
-0.928, 5.171e-5
-0.929, 5.223e-5
-0.930, 5.276e-5
-0.931, 5.332e-5
-0.932, 5.387e-5
-0.933, 5.442e-5
-0.934, 5.498e-5
-0.935, 5.555e-5
-0.936, 5.614e-5
-0.937, 5.674e-5
-0.938, 5.732e-5
-0.939, 5.792e-5
-0.940, 5.852e-5
-0.941, 5.915e-5
-0.942, 5.977e-5
-0.943, 6.040e-5
-0.944, 6.104e-5
-0.945, 6.169e-5
-0.946, 6.236e-5
-0.947, 6.304e-5
-0.948, 6.372e-5
-0.949, 6.440e-5
-0.950, 6.510e-5
-0.951, 6.581e-5
-0.952, 6.654e-5
-0.953, 6.725e-5
-0.954, 6.798e-5
-0.955, 6.872e-5
-0.956, 6.949e-5
-0.957, 7.025e-5
-0.958, 7.102e-5
-0.959, 7.180e-5
-0.960, 7.260e-5
-0.961, 7.341e-5
-0.962, 7.422e-5
-0.963, 7.504e-5
-0.964, 7.584e-5
-0.965, 7.668e-5
-0.966, 7.755e-5
-0.967, 7.842e-5
-0.968, 7.929e-5
-0.969, 8.016e-5
-0.970, 8.104e-5
-0.971, 8.195e-5
-0.972, 8.286e-5
-0.973, 8.379e-5
-0.974, 8.472e-5
-0.975, 8.565e-5
-0.976, 8.660e-5
-0.977, 8.757e-5
-0.978, 8.852e-5
-0.979, 8.948e-5
-0.980, 9.046e-5
-0.981, 9.144e-5
-0.982, 9.245e-5
-0.983, 9.344e-5
-0.984, 9.444e-5
-0.985, 9.546e-5
-0.986, 9.649e-5
-0.987, 9.753e-5
-0.988, 9.855e-5
-0.989, 9.958e-5
-0.990, 1.006e-4
-0.991, 1.017e-4
-0.992, 1.027e-4
-0.993, 1.038e-4
-0.994, 1.048e-4
-0.995, 1.059e-4
-0.996, 1.070e-4
-0.997, 1.081e-4
-0.998, 1.091e-4
-0.999, 1.102e-4
-1.000, 1.113e-4
-1.001, 1.123e-4
-1.002, 1.134e-4
-1.003, 1.145e-4
-1.004, 1.155e-4
-1.005, 1.166e-4
-1.006, 1.176e-4
-1.007, 1.187e-4
-1.008, 1.197e-4
-1.009, 1.208e-4
-1.010, 1.218e-4
-1.011, 1.228e-4
-1.012, 1.239e-4
-1.013, 1.249e-4
-1.014, 1.258e-4
-1.015, 1.268e-4
-1.016, 1.278e-4
-1.017, 1.288e-4
-1.018, 1.297e-4
-1.019, 1.307e-4
-1.020, 1.316e-4
-1.021, 1.325e-4
-1.022, 1.334e-4
-1.023, 1.342e-4
-1.024, 1.351e-4
-1.025, 1.360e-4
-1.026, 1.368e-4
-1.027, 1.376e-4
-1.028, 1.383e-4
-1.029, 1.391e-4
-1.030, 1.398e-4
-1.031, 1.405e-4
-1.032, 1.412e-4
-1.033, 1.418e-4
-1.034, 1.425e-4
-1.035, 1.431e-4
-1.036, 1.436e-4
-1.037, 1.442e-4
-1.038, 1.447e-4
-1.039, 1.452e-4
-1.040, 1.456e-4
-1.041, 1.461e-4
-1.042, 1.465e-4
-1.043, 1.469e-4
-1.044, 1.472e-4
-1.045, 1.475e-4
-1.046, 1.478e-4
-1.047, 1.481e-4
-1.048, 1.483e-4
-1.049, 1.485e-4
-1.050, 1.486e-4
-1.051, 1.488e-4
-1.052, 1.489e-4
-1.053, 1.490e-4
-1.054, 1.490e-4
-1.055, 1.490e-4
-1.056, 1.490e-4
-1.057, 1.490e-4
-1.058, 1.489e-4
-1.059, 1.488e-4
-1.060, 1.486e-4
-1.061, 1.485e-4
-1.062, 1.483e-4
-1.063, 1.481e-4
-1.064, 1.479e-4
-1.065, 1.476e-4
-1.066, 1.473e-4
-1.067, 1.470e-4
-1.068, 1.467e-4
-1.069, 1.463e-4
-1.070, 1.460e-4
-1.071, 1.456e-4
-1.072, 1.452e-4
-1.073, 1.448e-4
-1.074, 1.443e-4
-1.075, 1.439e-4
-1.076, 1.435e-4
-1.077, 1.430e-4
-1.078, 1.425e-4
-1.079, 1.420e-4
-1.080, 1.415e-4
-1.081, 1.410e-4
-1.082, 1.404e-4
-1.083, 1.399e-4
-1.084, 1.394e-4
-1.085, 1.388e-4
-1.086, 1.383e-4
-1.087, 1.378e-4
-1.088, 1.372e-4
-1.089, 1.366e-4
-1.090, 1.361e-4
-1.091, 1.355e-4
-1.092, 1.350e-4
-1.093, 1.344e-4
-1.094, 1.338e-4
-1.095, 1.333e-4
-1.096, 1.328e-4
-1.097, 1.322e-4
-1.098, 1.317e-4
-1.099, 1.311e-4
-1.100, 1.306e-4
-1.101, 1.301e-4
-1.102, 1.296e-4
-1.103, 1.291e-4
-1.104, 1.286e-4
-1.105, 1.281e-4
-1.106, 1.276e-4
-1.107, 1.272e-4
-1.108, 1.267e-4
-1.109, 1.262e-4
-1.110, 1.258e-4
-1.111, 1.254e-4
-1.112, 1.250e-4
-1.113, 1.246e-4
-1.114, 1.242e-4
-1.115, 1.238e-4
-1.116, 1.234e-4
-1.117, 1.231e-4
-1.118, 1.228e-4
-1.119, 1.224e-4
-1.120, 1.221e-4
-1.121, 1.218e-4
-1.122, 1.215e-4
-1.123, 1.213e-4
-1.124, 1.210e-4
-1.125, 1.207e-4
-1.126, 1.205e-4
-1.127, 1.203e-4
-1.128, 1.201e-4
-1.129, 1.199e-4
-1.130, 1.197e-4
-1.131, 1.196e-4
-1.132, 1.194e-4
-1.133, 1.193e-4
-1.134, 1.192e-4
-1.135, 1.191e-4
-1.136, 1.190e-4
-1.137, 1.189e-4
-1.138, 1.188e-4
-1.139, 1.188e-4
-1.140, 1.187e-4
-1.141, 1.187e-4
-1.142, 1.187e-4
-1.143, 1.187e-4
-1.144, 1.187e-4
-1.145, 1.188e-4
-1.146, 1.188e-4
-1.147, 1.189e-4
-1.148, 1.190e-4
-1.149, 1.190e-4
-1.150, 1.191e-4
-1.151, 1.193e-4
-1.152, 1.194e-4
-1.153, 1.195e-4
-1.154, 1.197e-4
-1.155, 1.199e-4
-1.156, 1.200e-4
-1.157, 1.202e-4
-1.158, 1.205e-4
-1.159, 1.207e-4
-1.160, 1.209e-4
-1.161, 1.212e-4
-1.162, 1.214e-4
-1.163, 1.217e-4
-1.164, 1.220e-4
-1.165, 1.223e-4
-1.166, 1.226e-4
-1.167, 1.230e-4
-1.168, 1.233e-4
-1.169, 1.237e-4
-1.170, 1.241e-4
-1.171, 1.245e-4
-1.172, 1.249e-4
-1.173, 1.253e-4
-1.174, 1.258e-4
-1.175, 1.263e-4
-1.176, 1.268e-4
-1.177, 1.273e-4
-1.178, 1.278e-4
-1.179, 1.283e-4
-1.180, 1.289e-4
-1.181, 1.295e-4
-1.182, 1.301e-4
-1.183, 1.306e-4
-1.184, 1.312e-4
-1.185, 1.319e-4
-1.186, 1.325e-4
-1.187, 1.332e-4
-1.188, 1.339e-4
-1.189, 1.346e-4
-1.190, 1.353e-4
-1.191, 1.361e-4
-1.192, 1.369e-4
-1.193, 1.376e-4
-1.194, 1.384e-4
-1.195, 1.392e-4
-1.196, 1.401e-4
-1.197, 1.409e-4
-1.198, 1.418e-4
-1.199, 1.427e-4
-1.200, 1.436e-4
-1.201, 1.445e-4
-1.202, 1.455e-4
-1.203, 1.464e-4
-1.204, 1.474e-4
-1.205, 1.484e-4
-1.206, 1.495e-4
-1.207, 1.505e-4
-1.208, 1.516e-4
-1.209, 1.527e-4
-1.210, 1.537e-4
-1.211, 1.549e-4
-1.212, 1.560e-4
-1.213, 1.572e-4
-1.214, 1.584e-4
-1.215, 1.596e-4
-1.216, 1.608e-4
-1.217, 1.621e-4
-1.218, 1.633e-4
-1.219, 1.646e-4
-1.220, 1.659e-4
-1.221, 1.673e-4
-1.222, 1.687e-4
-1.223, 1.700e-4
-1.224, 1.714e-4
-1.225, 1.728e-4
-1.226, 1.743e-4
-1.227, 1.758e-4
-1.228, 1.773e-4
-1.229, 1.788e-4
-1.230, 1.804e-4
-1.231, 1.820e-4
-1.232, 1.836e-4
-1.233, 1.852e-4
-1.234, 1.868e-4
-1.235, 1.884e-4
-1.236, 1.901e-4
-1.237, 1.918e-4
-1.238, 1.935e-4
-1.239, 1.952e-4
-1.240, 1.970e-4
-1.241, 1.988e-4
-1.242, 2.006e-4
-1.243, 2.025e-4
-1.244, 2.043e-4
-1.245, 2.062e-4
-1.246, 2.081e-4
-1.247, 2.101e-4
-1.248, 2.120e-4
-1.249, 2.140e-4
-1.250, 2.160e-4
-1.251, 2.180e-4
-1.252, 2.201e-4
-1.253, 2.222e-4
-1.254, 2.243e-4
-1.255, 2.264e-4
-1.256, 2.286e-4
-1.257, 2.308e-4
-1.258, 2.330e-4
-1.259, 2.352e-4
-1.260, 2.375e-4
-1.261, 2.398e-4
-1.262, 2.421e-4
-1.263, 2.444e-4
-1.264, 2.468e-4
-1.265, 2.491e-4
-1.266, 2.516e-4
-1.267, 2.540e-4
-1.268, 2.565e-4
-1.269, 2.590e-4
-1.270, 2.615e-4
-1.271, 2.640e-4
-1.272, 2.666e-4
-1.273, 2.692e-4
-1.274, 2.718e-4
-1.275, 2.744e-4
-1.276, 2.771e-4
-1.277, 2.798e-4
-1.278, 2.826e-4
-1.279, 2.853e-4
-1.280, 2.881e-4
-1.281, 2.910e-4
-1.282, 2.938e-4
-1.283, 2.967e-4
-1.284, 2.995e-4
-1.285, 3.024e-4
-1.286, 3.054e-4
-1.287, 3.084e-4
-1.288, 3.114e-4
-1.289, 3.144e-4
-1.290, 3.174e-4
-1.291, 3.205e-4
-1.292, 3.236e-4
-1.293, 3.268e-4
-1.294, 3.299e-4
-1.295, 3.331e-4
-1.296, 3.363e-4
-1.297, 3.395e-4
-1.298, 3.428e-4
-1.299, 3.461e-4
-1.300, 3.494e-4
-1.301, 3.528e-4
-1.302, 3.562e-4
-1.303, 3.596e-4
-1.304, 3.630e-4
-1.305, 3.665e-4
-1.306, 3.700e-4
-1.307, 3.735e-4
-1.308, 3.770e-4
-1.309, 3.806e-4
-1.310, 3.842e-4
-1.311, 3.878e-4
-1.312, 3.915e-4
-1.313, 3.952e-4
-1.314, 3.989e-4
-1.315, 4.026e-4
-1.316, 4.064e-4
-1.317, 4.102e-4
-1.318, 4.140e-4
-1.319, 4.179e-4
-1.320, 4.218e-4
-1.321, 4.257e-4
-1.322, 4.296e-4
-1.323, 4.336e-4
-1.324, 4.376e-4
-1.325, 4.416e-4
-1.326, 4.456e-4
-1.327, 4.497e-4
-1.328, 4.538e-4
-1.329, 4.580e-4
-1.330, 4.621e-4
-1.331, 4.663e-4
-1.332, 4.706e-4
-1.333, 4.748e-4
-1.334, 4.791e-4
-1.335, 4.834e-4
-1.336, 4.877e-4
-1.337, 4.921e-4
-1.338, 4.965e-4
-1.339, 5.009e-4
-1.340, 5.054e-4
-1.341, 5.099e-4
-1.342, 5.144e-4
-1.343, 5.189e-4
-1.344, 5.235e-4
-1.345, 5.281e-4
-1.346, 5.327e-4
-1.347, 5.374e-4
-1.348, 5.421e-4
-1.349, 5.468e-4
-1.350, 5.515e-4
-1.351, 5.563e-4
-1.352, 5.611e-4
-1.353, 5.659e-4
-1.354, 5.708e-4
-1.355, 5.757e-4
-1.356, 5.806e-4
-1.357, 5.856e-4
-1.358, 5.906e-4
-1.359, 5.956e-4
-1.360, 6.006e-4
-1.361, 6.057e-4
-1.362, 6.108e-4
-1.363, 6.159e-4
-1.364, 6.211e-4
-1.365, 6.263e-4
-1.366, 6.315e-4
-1.367, 6.367e-4
-1.368, 6.420e-4
-1.369, 6.473e-4
-1.370, 6.527e-4
-1.371, 6.581e-4
-1.372, 6.635e-4
-1.373, 6.689e-4
-1.374, 6.744e-4
-1.375, 6.799e-4
-1.376, 6.854e-4
-1.377, 6.910e-4
-1.378, 6.966e-4
-1.379, 7.022e-4
-1.380, 7.079e-4
-1.381, 7.136e-4
-1.382, 7.194e-4
-1.383, 7.252e-4
-1.384, 7.310e-4
-1.385, 7.368e-4
-1.386, 7.426e-4
-1.387, 7.485e-4
-1.388, 7.544e-4
-1.389, 7.604e-4
-1.390, 7.664e-4
-1.391, 7.724e-4
-1.392, 7.785e-4
-1.393, 7.846e-4
-1.394, 7.907e-4
-1.395, 7.969e-4
-1.396, 8.031e-4
-1.397, 8.093e-4
-1.398, 8.155e-4
-1.399, 8.218e-4
-1.400, 8.281e-4
-1.401, 8.345e-4
-1.402, 8.409e-4
-1.403, 8.473e-4
-1.404, 8.538e-4
-1.405, 8.603e-4
-1.406, 8.668e-4
-1.407, 8.734e-4
-1.408, 8.800e-4
-1.409, 8.866e-4
-1.410, 8.932e-4
-1.411, 9.000e-4
-1.412, 9.067e-4
-1.413, 9.135e-4
-1.414, 9.203e-4
-1.415, 9.271e-4
-1.416, 9.340e-4
-1.417, 9.409e-4
-1.418, 9.479e-4
-1.419, 9.549e-4
-1.420, 9.619e-4
-1.421, 9.689e-4
-1.422, 9.760e-4
-1.423, 9.831e-4
-1.424, 9.903e-4
-1.425, 9.975e-4
-1.426, 1.005e-3
-1.427, 1.010e-3
-1.428, 1.011e-3
-1.429, 1.011e-3
-1.430, 1.011e-3
-1.431, 1.011e-3
-1.432, 1.011e-3
-1.433, 1.011e-3
-1.434, 1.011e-3
-1.435, 1.011e-3
-1.436, 1.011e-3
-1.437, 1.011e-3
-1.438, 1.011e-3
-1.439, 1.011e-3
-1.440, 1.011e-3
-1.441, 1.011e-3
-1.442, 1.011e-3
-1.443, 1.011e-3
-1.444, 1.011e-3
-1.445, 1.011e-3
-1.446, 1.011e-3
-1.447, 1.011e-3
-1.448, 1.011e-3
-1.449, 1.011e-3
-1.450, 1.011e-3
-1.451, 1.011e-3
-1.452, 1.011e-3
-1.453, 1.011e-3
-1.454, 1.011e-3
-1.455, 1.011e-3
-1.456, 1.011e-3
-1.457, 1.011e-3
-1.458, 1.011e-3
-1.459, 1.011e-3
-1.460, 1.011e-3
-1.461, 1.011e-3
-1.462, 1.011e-3
-1.463, 1.011e-3
-1.464, 1.011e-3
-1.465, 1.011e-3
-1.466, 1.011e-3
-1.467, 1.011e-3
-1.468, 1.011e-3
-1.469, 1.011e-3
-1.470, 1.011e-3
-1.471, 1.011e-3
-1.472, 1.011e-3
-1.473, 1.011e-3
-1.474, 1.011e-3
-1.475, 1.011e-3
-1.476, 1.011e-3
-1.477, 1.011e-3
-1.478, 1.011e-3
-1.479, 1.011e-3
-1.480, 1.011e-3
-1.481, 1.011e-3
-1.482, 1.011e-3
-1.483, 1.011e-3
-1.484, 1.011e-3
-1.485, 1.011e-3
-1.486, 1.011e-3
-1.487, 1.011e-3
-1.488, 1.011e-3
-1.489, 1.011e-3
-1.490, 1.011e-3
-1.491, 1.011e-3
-1.492, 1.011e-3
-1.493, 1.011e-3
-1.494, 1.011e-3
-1.495, 1.011e-3
-1.496, 1.011e-3
-1.497, 1.011e-3
-1.498, 1.011e-3
-1.499, 1.011e-3
-1.500, 1.011e-3
-1.501, 1.011e-3
-1.502, 1.011e-3
-1.503, 1.011e-3
-1.504, 1.011e-3
-1.505, 1.011e-3
-1.506, 1.011e-3
-1.507, 1.011e-3
-1.508, 1.011e-3
-1.509, 1.011e-3
-1.510, 1.011e-3
-1.511, 1.011e-3
-1.512, 1.011e-3
-1.513, 1.011e-3
-1.514, 1.011e-3
-1.515, 1.011e-3
-1.516, 1.011e-3
-1.517, 1.011e-3
-1.518, 1.011e-3
-1.519, 1.011e-3
-1.520, 1.011e-3
-1.521, 1.011e-3
-1.522, 1.011e-3
-1.523, 1.011e-3
-1.524, 1.011e-3
-1.525, 1.011e-3
-1.526, 1.011e-3
-1.527, 1.011e-3
-1.528, 1.011e-3
-1.529, 1.011e-3
-1.530, 1.011e-3
-1.531, 1.011e-3
-1.532, 1.011e-3
-1.533, 1.011e-3
-1.534, 1.011e-3
-1.535, 1.011e-3
-1.536, 1.011e-3
-1.537, 1.011e-3
-1.538, 1.011e-3
-1.539, 1.011e-3
-1.540, 1.011e-3
-1.541, 1.011e-3
-1.542, 1.011e-3
-1.543, 1.011e-3
-1.544, 1.011e-3
-1.545, 1.011e-3
-1.546, 1.011e-3
-1.547, 1.011e-3
-1.548, 1.011e-3
-1.549, 1.011e-3
-1.550, 1.011e-3
-1.551, 1.011e-3
-1.552, 1.011e-3
-1.553, 1.011e-3
-1.554, 1.011e-3
-1.555, 1.011e-3
-1.556, 1.011e-3
-1.557, 1.011e-3
-1.558, 1.011e-3
-1.559, 1.011e-3
-1.560, 1.011e-3
-1.561, 1.011e-3
-1.562, 1.011e-3
-1.563, 1.011e-3
-1.564, 1.011e-3
-1.565, 1.011e-3
-1.566, 1.011e-3
-1.567, 1.011e-3
-1.568, 1.011e-3
-1.569, 1.011e-3
-1.570, 1.011e-3
-1.571, 1.011e-3
-1.572, 1.011e-3
-1.573, 1.011e-3
-1.574, 1.011e-3
-1.575, 1.011e-3
-1.576, 1.011e-3
-1.577, 1.011e-3
-1.578, 1.011e-3
-1.579, 1.011e-3
-1.580, 1.011e-3
-1.581, 1.011e-3
-1.582, 1.011e-3
-1.583, 1.011e-3
-1.584, 1.011e-3
-1.585, 1.011e-3
-1.586, 1.011e-3
-1.587, 1.011e-3
-1.588, 1.011e-3
-1.589, 1.011e-3
-1.590, 1.011e-3
-1.591, 1.011e-3
-1.592, 1.011e-3
-1.593, 1.011e-3
-1.594, 1.011e-3
-1.595, 1.011e-3
-1.596, 1.011e-3
-1.597, 1.011e-3
-1.598, 1.011e-3
-1.599, 1.011e-3
-1.600, 1.011e-3
-1.601, 1.011e-3
-1.602, 1.011e-3
-1.603, 1.011e-3
-1.604, 1.011e-3
-1.605, 1.011e-3
-1.606, 1.011e-3
-1.607, 1.011e-3
-1.608, 1.011e-3
-1.609, 1.011e-3
-1.610, 1.011e-3
-1.611, 1.011e-3
-1.612, 1.011e-3
-1.613, 1.011e-3
-1.614, 1.011e-3
-1.615, 1.011e-3
-1.616, 1.011e-3
-1.617, 1.011e-3
-1.618, 1.011e-3
-1.619, 1.011e-3
-1.620, 1.011e-3
-1.621, 1.011e-3
-1.622, 1.011e-3
-1.623, 1.011e-3
-1.624, 1.011e-3
-1.625, 1.011e-3
-1.626, 1.011e-3
-1.627, 1.011e-3
-1.628, 1.011e-3
-1.629, 1.011e-3
-1.630, 1.011e-3
-1.631, 1.011e-3
-1.632, 1.011e-3
-1.633, 1.011e-3
-1.634, 1.011e-3
-1.635, 1.011e-3
-1.636, 1.011e-3
-1.637, 1.011e-3
-1.638, 1.011e-3
-1.639, 1.011e-3
-1.640, 1.011e-3
-1.641, 1.011e-3
-1.642, 1.011e-3
-1.643, 1.011e-3
-1.644, 1.011e-3
-1.645, 1.011e-3
-1.646, 1.011e-3
-1.647, 1.011e-3
-1.648, 1.011e-3
-1.649, 1.011e-3
-1.650, 1.011e-3
-1.651, 1.011e-3
-1.652, 1.011e-3
-1.653, 1.011e-3
-1.654, 1.011e-3
-1.655, 1.011e-3
-1.656, 1.011e-3
-1.657, 1.011e-3
-1.658, 1.011e-3
-1.659, 1.011e-3
-1.660, 1.011e-3
-1.661, 1.011e-3
-1.662, 1.011e-3
-1.663, 1.011e-3
-1.664, 1.011e-3
-1.665, 1.011e-3
-1.666, 1.011e-3
-1.667, 1.011e-3
-1.668, 1.011e-3
-1.669, 1.011e-3
-1.670, 1.011e-3
-1.671, 1.011e-3
-1.672, 1.011e-3
-1.673, 1.011e-3
-1.674, 1.011e-3
-1.675, 1.011e-3
-1.676, 1.011e-3
-1.677, 1.011e-3
-1.678, 1.011e-3
-1.679, 1.011e-3
-1.680, 1.011e-3
-1.681, 1.011e-3
-1.682, 1.011e-3
-1.683, 1.011e-3
-1.684, 1.011e-3
-1.685, 1.011e-3
-1.686, 1.011e-3
-1.687, 1.011e-3
-1.688, 1.011e-3
-1.689, 1.011e-3
-1.690, 1.011e-3
-1.691, 1.011e-3
-1.692, 1.011e-3
-1.693, 1.011e-3
-1.694, 1.011e-3
-1.695, 1.011e-3
-1.696, 1.011e-3
-1.697, 1.011e-3
-1.698, 1.011e-3
-1.699, 1.011e-3
-1.700, 1.011e-3
-1.701, 1.011e-3
-1.702, 1.011e-3
-1.703, 1.011e-3
-1.704, 1.011e-3
-1.705, 1.011e-3
-1.706, 1.011e-3
-1.707, 1.011e-3
-1.708, 1.011e-3
-1.709, 1.011e-3
-1.710, 1.011e-3
-1.711, 1.011e-3
-1.712, 1.011e-3
-1.713, 1.011e-3
-1.714, 1.011e-3
-1.715, 1.011e-3
-1.716, 1.011e-3
-1.717, 1.011e-3
-1.718, 1.011e-3
-1.719, 1.011e-3
-1.720, 1.011e-3
-1.721, 1.011e-3
-1.722, 1.011e-3
-1.723, 1.011e-3
-1.724, 1.011e-3
-1.725, 1.011e-3
-1.726, 1.011e-3
-1.727, 1.011e-3
-1.728, 1.011e-3
-1.729, 1.011e-3
-1.730, 1.011e-3
-1.731, 1.011e-3
-1.732, 1.011e-3
-1.733, 1.011e-3
-1.734, 1.011e-3
-1.735, 1.011e-3
-1.736, 1.011e-3
-1.737, 1.011e-3
-1.738, 1.011e-3
-1.739, 1.011e-3
-1.740, 1.011e-3
-1.741, 1.011e-3
-1.742, 1.011e-3
-1.743, 1.011e-3
-1.744, 1.011e-3
-1.745, 1.011e-3
-1.746, 1.011e-3
-1.747, 1.011e-3
-1.748, 1.011e-3
-1.749, 1.011e-3
-1.750, 1.011e-3
-1.751, 1.011e-3
-1.752, 1.011e-3
-1.753, 1.011e-3
-1.754, 1.011e-3
-1.755, 1.011e-3
-1.756, 1.011e-3
-1.757, 1.011e-3
-1.758, 1.011e-3
-1.759, 1.011e-3
-1.760, 1.011e-3
-1.761, 1.011e-3
-1.762, 1.011e-3
-1.763, 1.011e-3
-1.764, 1.011e-3
-1.765, 1.011e-3
-1.766, 1.011e-3
-1.767, 1.011e-3
-1.768, 1.011e-3
-1.769, 1.011e-3
-1.770, 1.011e-3
-1.771, 1.011e-3
-1.772, 1.011e-3
-1.773, 1.011e-3
-1.774, 1.011e-3
-1.775, 1.011e-3
-1.776, 1.011e-3
-1.777, 1.011e-3
-1.778, 1.011e-3
-1.779, 1.011e-3
-1.780, 1.011e-3
-1.781, 1.011e-3
-1.782, 1.011e-3
-1.783, 1.011e-3
-1.784, 1.011e-3
-1.785, 1.011e-3
-1.786, 1.011e-3
-1.787, 1.011e-3
-1.788, 1.011e-3
-1.789, 1.011e-3
-1.790, 1.011e-3
-1.791, 1.011e-3
-1.792, 1.011e-3
-1.793, 1.011e-3
-1.794, 1.011e-3
-1.795, 1.011e-3
-1.796, 1.011e-3
-1.797, 1.011e-3
-1.798, 1.011e-3
-1.799, 1.011e-3
-1.800, 1.011e-3
-1.801, 1.011e-3
-1.802, 1.011e-3
-1.803, 1.011e-3
-1.804, 1.011e-3
-1.805, 1.011e-3
-1.806, 1.011e-3
-1.807, 1.011e-3
-1.808, 1.011e-3
-1.809, 1.011e-3
-1.810, 1.011e-3
-1.811, 1.011e-3
-1.812, 1.011e-3
-1.813, 1.011e-3
-1.814, 1.011e-3
-1.815, 1.011e-3
-1.816, 1.011e-3
-1.817, 1.011e-3
-1.818, 1.011e-3
-1.819, 1.011e-3
-1.820, 1.011e-3
-1.821, 1.011e-3
-1.822, 1.011e-3
-1.823, 1.011e-3
-1.824, 1.011e-3
-1.825, 1.011e-3
-1.826, 1.011e-3
-1.827, 1.011e-3
-1.828, 1.011e-3
-1.829, 1.011e-3
-1.830, 1.011e-3
-1.831, 1.011e-3
-1.832, 1.011e-3
-1.833, 1.011e-3
-1.834, 1.011e-3
-1.835, 1.011e-3
-1.836, 1.011e-3
-1.837, 1.011e-3
-1.838, 1.011e-3
-1.839, 1.011e-3
-1.840, 1.011e-3
-1.841, 1.011e-3
-1.842, 1.011e-3
-1.843, 1.011e-3
-1.844, 1.011e-3
-1.845, 1.011e-3
-1.846, 1.011e-3
-1.847, 1.011e-3
-1.848, 1.011e-3
-1.849, 1.011e-3
-1.850, 1.011e-3
-1.851, 1.011e-3
-1.852, 1.011e-3
-1.853, 1.011e-3
-1.854, 1.011e-3
-1.855, 1.011e-3
-1.856, 1.011e-3
-1.857, 1.011e-3
-1.858, 1.011e-3
-1.859, 1.011e-3
-1.860, 1.011e-3
-1.861, 1.011e-3
-1.862, 1.011e-3
-1.863, 1.011e-3
-1.864, 1.011e-3
-1.865, 1.011e-3
-1.866, 1.011e-3
-1.867, 1.011e-3
-1.868, 1.011e-3
-1.869, 1.011e-3
-1.870, 1.011e-3
-1.871, 1.011e-3
-1.872, 1.011e-3
-1.873, 1.011e-3
-1.874, 1.011e-3
-1.875, 1.011e-3
-1.876, 1.011e-3
-1.877, 1.011e-3
-1.878, 1.011e-3
-1.879, 1.011e-3
-1.880, 1.011e-3
-1.881, 1.011e-3
-1.882, 1.011e-3
-1.883, 1.011e-3
-1.884, 1.011e-3
-1.885, 1.011e-3
-1.886, 1.011e-3
-1.887, 1.011e-3
-1.888, 1.011e-3
-1.889, 1.011e-3
-1.890, 1.011e-3
-1.891, 1.011e-3
-1.892, 1.011e-3
-1.893, 1.011e-3
-1.894, 1.011e-3
-1.895, 1.011e-3
-1.896, 1.011e-3
-1.897, 1.011e-3
-1.898, 1.011e-3
-1.899, 1.011e-3
