Potential V vs RHE, Current mA cm-2
0.4132999999999999,-0.0051071077925127824
0.4122999999999999,-0.007070727076725453
0.4112999999999999,-0.007551728918679565
0.4102999999999999,-0.007829012333453112
0.4092999999999999,-0.008039804317133005
0.4082999999999999,-0.00820391082791735
0.4072999999999999,-0.008377920317800748
0.4062999999999999,-0.008517976736487387
0.4052999999999999,-0.008672180268172675
0.4042999999999999,-0.008826383799857963
0.4032999999999999,-0.00892682830214838
0.4022999999999999,-0.009042834628737314
0.4012999999999999,-0.00919845287172247
0.4002999999999999,-0.009304556219212345
0.3992999999999999,-0.009450271483098446
0.3982999999999999,-0.009573351366186703
0.3972999999999999,-0.009655404621578876
0.3962999999999999,-0.009788387483766188
0.3952999999999999,-0.009883173140857146
0.3942999999999999,-0.010003423601345674
0.39329999999999987,-0.010078403300238523
0.39229999999999987,-0.01017318895732948
0.39129999999999987,-0.010283536438718951
0.39029999999999987,-0.010378322095809907
0.38929999999999987,-0.010502816690198032
0.38829999999999987,-0.010597602347288989
0.38729999999999987,-0.010658434933183185
0.38629999999999987,-0.010788588372770769
0.38529999999999986,-0.010867812205563212
0.38429999999999986,-0.010968256707853629
0.38329999999999986,-0.011075774766643372
0.38229999999999986,-0.011138022063837433
0.38129999999999986,-0.01124129598872758
0.38029999999999986,-0.011336081645818539
0.37929999999999986,-0.011411061344711386
0.37829999999999986,-0.011535555939099508
0.37729999999999986,-0.011647318131788847
0.37629999999999986,-0.011729371387181019
0.37529999999999986,-0.011831230600771302
0.37429999999999986,-0.011899136743164824
0.37329999999999985,-0.011984019421156726
0.37229999999999985,-0.012068902099148628
0.37129999999999985,-0.012146711220641206
0.37029999999999985,-0.012237252743832566
0.36929999999999985,-0.01235891791562096
0.36829999999999985,-0.012432482903213941
0.36729999999999985,-0.012515950869905978
0.36629999999999985,-0.012569709899300853
0.36529999999999985,-0.012643274886893834
0.36429999999999985,-0.012735231121385061
0.36329999999999985,-0.012811625531577771
0.36229999999999984,-0.01288094638527116
0.36129999999999984,-0.012984220310161308
0.36029999999999984,-0.013067688276853345
0.35929999999999984,-0.013197841716440928
0.35829999999999984,-0.013243112478036608
0.35729999999999984,-0.013284139105732696
0.35629999999999984,-0.013388827741922706
0.35529999999999984,-0.013449660327816904
0.35429999999999984,-0.013545860696207725
0.35329999999999984,-0.01364206106459855
0.35229999999999984,-0.013714211340891666
0.35129999999999983,-0.013820314688381543
0.35029999999999983,-0.01388114727427574
0.34929999999999983,-0.013953297550568856
0.34829999999999983,-0.014014130136463054
0.34729999999999983,-0.014113159927453607
0.34629999999999983,-0.014175407224647668
0.34529999999999983,-0.01426028990263957
0.34429999999999983,-0.014331025467632824
0.3432999999999998,-0.014415908145624722
0.3422999999999998,-0.014472496597619325
0.3412999999999998,-0.014571526388609878
0.3402999999999998,-0.014628114840604478
0.3392999999999998,-0.01469885040559773
0.3382999999999998,-0.014769585970590984
0.3372999999999998,-0.014854468648582884
0.3362999999999998,-0.014911057100577486
0.3352999999999998,-0.01501008689156804
0.3342999999999998,-0.01509496956955994
0.3332999999999998,-0.015151558021554544
0.3322999999999998,-0.015222293586547794
0.3312999999999998,-0.015278882038542396
0.3302999999999998,-0.0153637647165343
0.3292999999999998,-0.01543450028152755
0.3282999999999998,-0.015491088733522153
0.3272999999999998,-0.015561824298515404
0.3262999999999998,-0.015632559863508654
0.3252999999999999,-0.015717442541500558
0.3242999999999999,-0.01578817810649381
0.3232999999999999,-0.01584476655848841
0.3222999999999999,-0.01591550212348166
0.3212999999999999,-0.01597209057547626
0.3202999999999999,-0.016028679027470863
0.3192999999999999,-0.01615600304445872
0.3182999999999999,-0.016212591496453318
0.3172999999999999,-0.01625503283544927
0.3162999999999999,-0.016339915513441175
0.3152999999999999,-0.016424798191433075
0.3142999999999999,-0.01646723953042903
0.3132999999999999,-0.01652382798242363
0.3122999999999999,-0.01658041643441823
0.3112999999999999,-0.016679446225408782
0.3102999999999999,-0.01673603467740338
0.3092999999999999,-0.016820917355395284
0.3082999999999999,-0.016891652920388536
0.3072999999999999,-0.01693409425938449
0.3062999999999999,-0.017018976937376393
0.3052999999999999,-0.017089712502369642
0.3042999999999999,-0.017146300954364244
0.3032999999999999,-0.017217036519357496
0.3022999999999999,-0.0172453307453548
0.3012999999999999,-0.0173302134233467
0.3002999999999999,-0.017429243214337253
0.2992999999999999,-0.017514125892329157
0.2982999999999999,-0.017570714344323755
0.2972999999999999,-0.017627302796318356
0.2962999999999999,-0.01766974413531431
0.2952999999999999,-0.01776877392630486
0.2942999999999999,-0.01781121526530081
0.2932999999999999,-0.017867803717295416
0.2922999999999999,-0.017938539282288665
0.2912999999999999,-0.018009274847281917
0.2902999999999999,-0.018094157525273817
0.2892999999999999,-0.018150745977268422
0.2882999999999999,-0.018193187316264375
0.2872999999999999,-0.018235628655260322
0.2862999999999999,-0.018306364220253574
0.2852999999999999,-0.018405394011244126
0.2842999999999999,-0.01849027668923603
0.2832999999999999,-0.01853271802823198
0.2822999999999999,-0.018575159367227933
0.2812999999999999,-0.018645894932221182
0.2802999999999999,-0.018730777610213082
0.2792999999999999,-0.018815660288204986
0.2782999999999999,-0.01885810162720094
0.2772999999999999,-0.01891469007919554
0.2762999999999999,-0.018985425644188793
0.2752999999999999,-0.019013719870186095
0.2742999999999999,-0.019112749661176646
0.2732999999999999,-0.019169338113171244
0.2722999999999999,-0.01922592656516585
0.2712999999999999,-0.0192966621301591
0.2702999999999999,-0.019367397695152354
0.2692999999999999,-0.019423986147146955
0.26829999999999987,-0.019494721712140204
0.26729999999999987,-0.019551310164134805
0.26629999999999987,-0.019607898616129407
0.26529999999999987,-0.01969278129412131
0.26429999999999987,-0.01973522263311726
0.26329999999999987,-0.019805958198110513
0.26229999999999987,-0.019848399537106463
0.26129999999999987,-0.019919135102099715
0.26029999999999986,-0.01997572355409432
0.25929999999999986,-0.02003231200608892
0.25829999999999986,-0.02008890045808352
0.25729999999999986,-0.02015963602307677
0.25629999999999986,-0.020216224475071376
0.25529999999999986,-0.020301107153063276
0.25429999999999986,-0.02038598983105518
0.25329999999999986,-0.02042843117005113
0.25229999999999986,-0.02048501962204573
0.25129999999999986,-0.020541608074040336
0.25029999999999986,-0.020612343639033585
0.24929999999999986,-0.020683079204026837
0.24829999999999985,-0.02071137343002414
0.24729999999999985,-0.020767961882018737
0.24629999999999985,-0.02085284456001064
0.24529999999999985,-0.020951874351001196
0.24429999999999985,-0.021022609915994445
0.24329999999999985,-0.021050904141991744
0.24229999999999985,-0.021093345480987697
0.24129999999999985,-0.021164081045980946
0.24029999999999985,-0.0212065223849769
0.23929999999999985,-0.021305552175967454
0.23829999999999985,-0.021347993514963404
0.23729999999999984,-0.021404581966958002
0.23629999999999984,-0.021517758870947205
0.23529999999999984,-0.021546053096944507
0.23429999999999984,-0.021602641548939108
0.23329999999999984,-0.02165923000093371
0.23229999999999984,-0.021701671339929663
0.23129999999999984,-0.021786554017921567
0.23029999999999984,-0.021843142469916164
0.22929999999999984,-0.02189973092191077
0.22829999999999984,-0.02197046648690402
0.22729999999999984,-0.022012907825899968
0.22629999999999983,-0.022097790503891875
0.22529999999999983,-0.022154378955886473
0.22429999999999983,-0.022196820294882423
0.22329999999999983,-0.022281702972874327
0.22229999999999983,-0.02232414431187028
0.22129999999999983,-0.02240902698986218
0.22029999999999983,-0.022508056780852735
0.21929999999999983,-0.022550498119848682
0.21829999999999983,-0.022578792345845984
0.21729999999999983,-0.022635380797840585
0.21629999999999983,-0.02270611636283384
0.21529999999999982,-0.02276270481482844
0.21429999999999982,-0.022833440379821688
0.21329999999999982,-0.022890028831816296
0.21229999999999982,-0.022960764396809545
0.21129999999999982,-0.023017352848804146
0.21029999999999982,-0.0230880884137974
0.20929999999999982,-0.023116382639794698
0.20829999999999982,-0.023172971091789302
0.20729999999999982,-0.0232295595437839
0.20629999999999982,-0.023300295108777156
0.20529999999999982,-0.023371030673770405
0.20429999999999982,-0.02345591335176231
0.20329999999999981,-0.023498354690758262
0.2022999999999998,-0.02355494314275286
0.2012999999999998,-0.023625678707746112
0.20029999999999992,-0.02365397293374341
0.19929999999999992,-0.02373885561173532
0.19829999999999992,-0.023795444063729916
0.19729999999999992,-0.023837885402725866
0.19629999999999992,-0.02393691519371642
0.19529999999999992,-0.02397935653271237
0.19429999999999992,-0.024106680549700225
0.19329999999999992,-0.024149121888696175
0.19229999999999992,-0.024191563227692125
0.19129999999999991,-0.02427644590568403
0.1902999999999999,-0.02436132858367593
0.1892999999999999,-0.024417917035670533
0.1882999999999999,-0.02447450548766513
0.1872999999999999,-0.024516946826661085
0.1862999999999999,-0.024587682391654337
0.1852999999999999,-0.02465841795664759
0.1842999999999999,-0.024700859295643543
0.1832999999999999,-0.02479988908663409
0.1822999999999999,-0.024870624651627343
0.1812999999999999,-0.0249413602166206
0.1802999999999999,-0.0250262428946125
0.1792999999999999,-0.02506868423360845
0.1782999999999999,-0.0251111255726044
0.1772999999999999,-0.025196008250596303
0.1762999999999999,-0.025252596702590904
0.1752999999999999,-0.02537992071957876
0.1742999999999999,-0.02543650917157336
0.1732999999999999,-0.025493097623567964
0.1722999999999999,-0.02554968607556256
0.1712999999999999,-0.025606274527557166
0.1702999999999999,-0.025691157205549067
0.1692999999999999,-0.02576189277054232
0.1682999999999999,-0.025846775448534223
0.1672999999999999,-0.025931658126526123
0.1662999999999999,-0.02600239369151937
0.1652999999999999,-0.026087276369511275
0.1642999999999999,-0.02621460038649913
0.1632999999999999,-0.02627118883849373
0.1622999999999999,-0.026356071516485634
0.1612999999999999,-0.026469248420474833
0.1602999999999999,-0.02652583687246944
0.1592999999999999,-0.026639013776458643
0.15829999999999989,-0.026752190680447843
0.15729999999999988,-0.026865367584437045
0.15629999999999988,-0.027006838714423546
0.15529999999999988,-0.027134162731411407
0.15429999999999988,-0.027261486748399254
0.15329999999999988,-0.027374663652388463
0.15229999999999988,-0.02750198766937631
0.15129999999999988,-0.02770004725135742
0.15029999999999988,-0.02788395972033987
0.14929999999999988,-0.02811031352831828
0.14829999999999988,-0.028265931771303435
0.14729999999999988,-0.028407402901289937
0.14629999999999987,-0.02861960959626969
0.14529999999999987,-0.028817669178250797
0.14429999999999987,-0.029001581647233248
0.14329999999999987,-0.02922793545521166
0.14229999999999987,-0.02945428926319007
0.14129999999999987,-0.029652348845171168
0.14029999999999987,-0.02986455554015093
0.13929999999999987,-0.030034320896134725
0.13829999999999987,-0.030204086252118532
0.13729999999999987,-0.030387998721100987
0.13629999999999987,-0.030614352529079396
0.13529999999999986,-0.03079826499806185
0.13429999999999986,-0.030939736128048352
0.13329999999999986,-0.031067060145036202
0.13229999999999986,-0.03123682550102001
0.13129999999999986,-0.03137829663100652
0.13029999999999986,-0.031533914873991674
0.12929999999999986,-0.03168953311697682
0.12829999999999986,-0.031802710020966025
0.12729999999999986,-0.03194418115095252
0.12629999999999986,-0.032071505167940384
0.12529999999999986,-0.03219882918492823
0.12429999999999986,-0.03229785897591879
0.12329999999999985,-0.03238274165391069
0.12229999999999985,-0.03249591855789989
0.12129999999999985,-0.0326090954618891
0.12029999999999985,-0.03267983102688235
0.11929999999999985,-0.03279300793087155
0.11829999999999985,-0.03287789060886345
0.11729999999999985,-0.03294862617385671
0.11629999999999985,-0.03304765596484726
0.11529999999999985,-0.033104244416841865
0.11429999999999985,-0.03321742132083106
0.11329999999999985,-0.033274009772825665
0.11229999999999984,-0.03333059822482026
0.11129999999999984,-0.03342962801581082
0.11029999999999984,-0.03350036358080407
0.10929999999999984,-0.03358524625879597
0.10829999999999984,-0.03364183471079057
0.10729999999999984,-0.03367012893678788
0.10629999999999984,-0.03376915872777843
0.10529999999999984,-0.033825747179773026
0.10429999999999984,-0.033910629857764926
0.10329999999999984,-0.03395307119676088
0.10229999999999984,-0.03398136542275818
0.10129999999999983,-0.03403795387475279
0.10029999999999983,-0.03413698366574334
0.09929999999999983,-0.034193572117737936
0.09829999999999983,-0.03425016056973254
0.09729999999999983,-0.034306749021727145
0.09629999999999983,-0.034349190360723085
0.09529999999999983,-0.034391631699719045
0.09429999999999983,-0.03443407303871499
0.09329999999999983,-0.03450480860370824
0.09229999999999983,-0.034561397055702846
0.09129999999999983,-0.0346321326206961
0.09029999999999982,-0.03467457395969205
0.08929999999999982,-0.034717015298688
0.08829999999999982,-0.034731162411686646
0.08729999999999982,-0.03478775086368125
0.08629999999999982,-0.03487263354167316
0.08529999999999982,-0.034929221993667756
0.08429999999999982,-0.03498581044566235
0.08329999999999982,-0.0349716633326637
0.08229999999999982,-0.035028251784658314
0.08129999999999982,-0.03509898734965156
0.08029999999999982,-0.03516972291464481
0.07929999999999982,-0.03525460559263671
0.07829999999999981,-0.03526875270563536
0.07729999999999981,-0.035297046931632665
0.07629999999999981,-0.03535363538362727
0.07529999999999992,-0.03539607672262322
0.07429999999999992,-0.035466812287616466
0.07329999999999992,-0.03553754785260972
0.07229999999999992,-0.03562243053060162
0.07129999999999992,-0.035679018982596226
0.07029999999999992,-0.03570731320859352
0.06929999999999992,-0.035749754547589475
0.06829999999999992,-0.03576390166058813
0.06729999999999992,-0.03579219588658543
0.06629999999999991,-0.03589122567757598
0.06529999999999991,-0.035961961242569236
0.06429999999999991,-0.036018549694563834
0.06329999999999991,-0.03606099103355979
0.06229999999999991,-0.036103432372555734
0.06129999999999991,-0.036131726598553036
0.06029999999999991,-0.036188315050547634
0.05929999999999991,-0.03624490350254224
0.05829999999999991,-0.036301491954536844
0.05729999999999991,-0.03637222751953009
0.056299999999999906,-0.03644296308452335
0.055299999999999905,-0.036485404423519295
0.054299999999999904,-0.0365419928755139
0.0532999999999999,-0.036570287101511195
0.0522999999999999,-0.03664102266650445
0.0512999999999999,-0.0366834640055004
0.0502999999999999,-0.03675419957049365
0.0492999999999999,-0.03681078802248825
0.0482999999999999,-0.0368249351354869
0.0472999999999999,-0.03689567070048015
0.0462999999999999,-0.0369664062654734
0.045299999999999896,-0.03702299471746801
0.044299999999999895,-0.03707958316946261
0.043299999999999894,-0.03709373028246127
0.04229999999999989,-0.037150318734455866
0.04129999999999989,-0.03724934852544641
0.04029999999999989,-0.03737667254243427
0.03929999999999989,-0.037433260994428876
0.03829999999999989,-0.03744740810742752
0.03729999999999989,-0.03747570233342482
0.03629999999999989,-0.03754643789841807
0.03529999999999989,-0.03757473212441537
0.034299999999999886,-0.03764546768940863
0.033299999999999885,-0.03771620325440188
0.032299999999999884,-0.037772791706396476
0.031299999999999883,-0.037843527271389725
0.030299999999999883,-0.037885968610385685
0.02929999999999988,-0.03794255706238028
0.02829999999999988,-0.037970851288377586
0.02729999999999988,-0.03801329262737353
0.02629999999999988,-0.03808402819236679
0.025299999999999878,-0.03814061664436139
0.024299999999999877,-0.038154763757360044
0.023299999999999876,-0.03822549932235329
0.022299999999999875,-0.03829623488734655
0.021299999999999875,-0.03839526467833709
0.020299999999999874,-0.03848014735632899
0.019299999999999873,-0.038522588695324954
0.018299999999999872,-0.0385650300343209
0.01729999999999987,-0.0385933242603182
0.01629999999999987,-0.038635765599314156
0.01529999999999987,-0.038706501164307405
0.014299999999999868,-0.038777236729300654
0.013299999999999867,-0.03879138384229931
0.012299999999999978,-0.03887626652029121
0.011299999999999866,-0.038961149198283106
0.010299999999999976,-0.039046031876275006
0.009299999999999864,-0.03913091455426691
0.008299999999999974,-0.039145061667265564
0.007299999999999862,-0.03918750300626152
0.006299999999999972,-0.03921579723225881
0.00529999999999986,-0.03927238568425342
0.0042999999999999705,-0.03935726836224532
0.0032999999999998586,-0.03941385681423992
0.0022999999999999687,-0.039527033718229125
0.0012999999999998568,-0.039611916396221025
0.00029999999999996696,-0.039626063509219676
-0.000700000000000145,-0.03966850484821563
-0.0017000000000000348,-0.039682651961214274
-0.0027000000000001467,-0.03973924041320888
-0.0037000000000000366,-0.03983827020419943
-0.0047000000000001485,-0.03995144710818864
-0.005700000000000038,-0.04005047689917919
-0.00670000000000015,-0.04005047689917919
-0.00770000000000004,-0.04005047689917919
-0.008700000000000152,-0.04010706535117379
-0.009700000000000042,-0.04014950669016974
-0.010700000000000154,-0.040220242255163
-0.011700000000000044,-0.040276830707157596
-0.012700000000000156,-0.04031927204615354
-0.013700000000000045,-0.04040415472414544
-0.014700000000000157,-0.04046074317614005
-0.015700000000000047,-0.04048903740213735
-0.01670000000000016,-0.040503184515136
-0.01770000000000005,-0.040531478741133296
-0.01870000000000016,-0.04060221430612655
-0.01970000000000005,-0.04070124409711711
-0.020700000000000163,-0.04077197966211036
-0.021700000000000053,-0.04085686234010226
-0.022700000000000164,-0.04097003924409146
-0.023700000000000054,-0.04108321614808067
-0.024700000000000166,-0.04115395171307392
-0.025700000000000056,-0.041182245939071216
-0.026700000000000168,-0.041182245939071216
-0.027700000000000058,-0.04121054016506852
-0.02870000000000017,-0.04122468727806717
-0.02970000000000006,-0.04133786418205637
-0.03070000000000017,-0.04143689397304692
-0.03170000000000006,-0.04156421799003478
-0.03270000000000017,-0.041649100668026684
-0.03370000000000006,-0.04163495355502803
-0.034700000000000175,-0.04167739489402397
-0.035700000000000065,-0.04169154200702263
-0.03670000000000018,-0.04170568912002128
-0.03770000000000007,-0.04177642468501453
-0.03870000000000018,-0.04190374870200239
-0.03970000000000007,-0.04203107271899024
-0.04070000000000018,-0.04208766117098484
-0.04170000000000007,-0.04208766117098484
-0.04270000000000018,-0.04207351405798619
-0.04370000000000007,-0.04210180828398349
-0.044700000000000184,-0.04211595539698214
-0.045700000000000074,-0.04224327941396999
-0.046700000000000186,-0.04234230920496055
-0.047700000000000076,-0.04242719188295245
-0.04870000000000019,-0.04248378033494705
-0.04970000000000008,-0.04251207456094436
-0.05070000000000019,-0.042526221673943
-0.05170000000000008,-0.042554515899940304
-0.05270000000000019,-0.042568663012938955
-0.05370000000000008,-0.04262525146493356
-0.05470000000000019,-0.04272428125592411
-0.05570000000000008,-0.04279501682091736
-0.056700000000000195,-0.042809163933916004
-0.057700000000000085,-0.042837458159913314
-0.058700000000000196,-0.04287989949890925
-0.059700000000000086,-0.042950635063902516
-0.0607000000000002,-0.04299307640289847
-0.06170000000000009,-0.04306381196789172
-0.0627000000000002,-0.04314869464588362
-0.06370000000000009,-0.043205283097878217
-0.0647000000000002,-0.04333260711486608
-0.06570000000000009,-0.04343163690585663
-0.0667000000000002,-0.04351651958384853
