Potential V vs RHE, Current mA cm-2
0.013299999999999867,-0.3947044526623452
0.012299999999999978,-1.4854468648582886
0.011299999999999866,-2.1828995356917518
0.010299999999999976,-2.618630616050183
0.009299999999999864,-3.0119203574126634
0.008299999999999974,-3.273641947887695
0.007299999999999862,-3.403795387475278
0.006299999999999972,-3.4915074880669104
0.00529999999999986,-3.4915074880669104
0.0042999999999999705,-3.4915074880669104
0.0032999999999998586,-3.447651437771094
0.0022999999999999687,-3.4915074880669104
0.0012999999999998568,-3.5353635383627267
0.00029999999999996696,-3.6655169779503103
-0.000700000000000145,-3.7532290785419424
-0.0017000000000000348,-3.840941179133574
-0.0027000000000001467,-3.840941179133574
-0.0037000000000000366,-3.7970851288377587
-0.0047000000000001485,-3.7532290785419424
-0.005700000000000038,-3.6655169779503103
-0.00670000000000015,-3.579219588658543
-0.00770000000000004,-3.623075638954359
-0.008700000000000152,-3.6655169779503103
-0.009700000000000042,-3.7532290785419424
-0.010700000000000154,-3.840941179133574
-0.011700000000000044,-3.884797229429391
-0.012700000000000156,-3.884797229429391
-0.013700000000000045,-3.884797229429391
-0.014700000000000157,-3.7970851288377587
-0.015700000000000047,-3.7532290785419424
-0.01670000000000016,-3.6655169779503103
-0.01770000000000005,-3.7093730282461257
-0.01870000000000016,-3.7093730282461257
-0.01970000000000005,-3.7970851288377587
-0.020700000000000163,-3.884797229429391
-0.021700000000000053,-3.927238568425342
-0.022700000000000164,-3.927238568425342
-0.023700000000000054,-3.927238568425342
-0.024700000000000166,-3.840941179133574
-0.025700000000000056,-3.7532290785419424
-0.026700000000000168,-3.7093730282461257
-0.027700000000000058,-3.7093730282461257
-0.02870000000000017,-3.7532290785419424
-0.02970000000000006,-3.7970851288377587
-0.03070000000000017,-3.884797229429391
-0.03170000000000006,-3.927238568425342
-0.03270000000000017,-3.927238568425342
-0.03370000000000006,-3.884797229429391
-0.034700000000000175,-3.7970851288377587
-0.035700000000000065,-3.7532290785419424
-0.03670000000000018,-3.7093730282461257
-0.03770000000000007,-3.7093730282461257
-0.03870000000000018,-3.7532290785419424
-0.03970000000000007,-3.840941179133574
-0.04070000000000018,-3.884797229429391
-0.04170000000000007,-3.971094618721158
-0.04270000000000018,-3.971094618721158
-0.04370000000000007,-3.971094618721158
-0.044700000000000184,-3.840941179133574
-0.045700000000000074,-3.7970851288377587
-0.046700000000000186,-3.7093730282461257
-0.047700000000000076,-3.7093730282461257
-0.04870000000000019,-3.7970851288377587
-0.04970000000000008,-3.884797229429391
-0.05070000000000019,-3.927238568425342
-0.05170000000000008,-4.014950669016974
-0.05270000000000019,-3.971094618721158
-0.05370000000000008,-3.971094618721158
-0.05470000000000019,-3.884797229429391
-0.05570000000000008,-3.840941179133574
-0.056700000000000195,-3.7532290785419424
-0.057700000000000085,-3.7532290785419424
-0.058700000000000196,-3.7532290785419424
-0.059700000000000086,-3.840941179133574
-0.0607000000000002,-3.927238568425342
-0.06170000000000009,-4.014950669016974
-0.0627000000000002,-4.014950669016974
-0.06370000000000009,-3.971094618721158
-0.0647000000000002,-3.884797229429391
-0.06570000000000009,-3.840941179133574
-0.0667000000000002,-3.7532290785419424
-0.0677000000000001,-3.7970851288377587
-0.0687000000000002,-3.840941179133574
-0.0697000000000001,-3.884797229429391
-0.07070000000000021,-3.971094618721158
-0.0717000000000001,-4.014950669016974
-0.07270000000000021,-4.014950669016974
-0.0737000000000001,-4.014950669016974
-0.07470000000000021,-3.927238568425342
-0.0757000000000001,-3.884797229429391
-0.07670000000000021,-3.7970851288377587
-0.0777000000000001,-3.840941179133574
-0.07870000000000021,-3.884797229429391
-0.0797000000000001,-3.927238568425342
-0.08070000000000022,-3.971094618721158
-0.0817000000000001,-4.0588067193127895
-0.08270000000000022,-4.0588067193127895
-0.08370000000000011,-4.014950669016974
-0.08470000000000022,-3.971094618721158
-0.08570000000000011,-3.884797229429391
-0.08670000000000022,-3.840941179133574
-0.08770000000000011,-3.840941179133574
-0.08870000000000022,-3.884797229429391
-0.08970000000000011,-3.927238568425342
-0.09070000000000022,-3.971094618721158
-0.09170000000000011,-4.0588067193127895
-0.09270000000000023,-4.0588067193127895
-0.09370000000000012,-4.014950669016974
-0.09470000000000023,-3.971094618721158
-0.09570000000000012,-3.927238568425342
-0.09670000000000023,-3.884797229429391
-0.09770000000000012,-3.884797229429391
-0.09870000000000023,-3.927238568425342
-0.09970000000000012,-3.971094618721158
-0.10070000000000023,-4.0588067193127895
-0.10170000000000012,-4.102662769608606
-0.10270000000000024,-4.102662769608606
-0.10370000000000013,-4.0588067193127895
-0.10470000000000024,-4.014950669016974
-0.10570000000000013,-3.971094618721158
-0.10670000000000024,-3.927238568425342
-0.10770000000000013,-3.927238568425342
-0.10870000000000024,-3.971094618721158
-0.10970000000000013,-4.014950669016974
-0.11070000000000024,-4.102662769608606
-0.11170000000000013,-4.146518819904423
-0.11270000000000002,-4.146518819904423
-0.11370000000000013,-4.102662769608606
-0.11470000000000002,-4.014950669016974
-0.11570000000000014,-3.971094618721158
-0.11670000000000003,-3.927238568425342
-0.11770000000000014,-3.927238568425342
-0.11870000000000003,-3.971094618721158
-0.11970000000000014,-4.0588067193127895
-0.12070000000000003,-4.102662769608606
-0.12170000000000014,-4.1889601589003735
-0.12270000000000003,-4.1889601589003735
-0.12370000000000014,-4.146518819904423
-0.12470000000000003,-4.102662769608606
-0.12570000000000014,-4.0588067193127895
-0.12670000000000003,-4.014950669016974
-0.12770000000000015,-4.014950669016974
-0.12870000000000004,-4.0588067193127895
-0.12970000000000015,-4.102662769608606
-0.13070000000000004,-4.146518819904423
-0.13170000000000015,-4.23281620919619
-0.13270000000000004,-4.23281620919619
-0.13370000000000015,-4.23281620919619
-0.13470000000000004,-4.1889601589003735
-0.13570000000000015,-4.102662769608606
-0.13670000000000004,-4.0588067193127895
-0.13770000000000016,-4.102662769608606
-0.13870000000000005,-4.102662769608606
-0.13970000000000016,-4.1889601589003735
-0.14070000000000005,-4.276672259492005
-0.14170000000000016,-4.3205283097878215
-0.14270000000000005,-4.3205283097878215
-0.14370000000000016,-4.23281620919619
-0.14470000000000005,-4.1889601589003735
-0.14570000000000016,-4.146518819904423
-0.14670000000000005,-4.0588067193127895
-0.14770000000000016,-4.102662769608606
-0.14870000000000005,-4.146518819904423
-0.14970000000000017,-4.1889601589003735
-0.15070000000000006,-4.276672259492005
-0.15170000000000017,-4.364384360083638
-0.15270000000000006,-4.364384360083638
-0.15370000000000017,-4.3205283097878215
-0.15470000000000006,-4.23281620919619
-0.15570000000000017,-4.23281620919619
-0.15670000000000006,-4.146518819904423
-0.15770000000000017,-4.146518819904423
-0.15870000000000006,-4.1889601589003735
-0.15970000000000018,-4.276672259492005
-0.16070000000000007,-4.364384360083638
-0.16170000000000018,-4.450681749375406
-0.16270000000000007,-4.450681749375406
-0.16370000000000018,-4.406825699079589
-0.16470000000000007,-4.364384360083638
-0.16570000000000018,-4.3205283097878215
-0.16670000000000007,-4.276672259492005
-0.16770000000000018,-4.276672259492005
-0.16870000000000007,-4.276672259492005
-0.16970000000000018,-4.364384360083638
-0.17070000000000007,-4.406825699079589
-0.17170000000000019,-4.494537799671222
-0.17270000000000008,-4.450681749375406
-0.1737000000000002,-4.450681749375406
-0.17470000000000008,-4.406825699079589
-0.1757000000000002,-4.3205283097878215
-0.17670000000000008,-4.276672259492005
-0.1777000000000002,-4.276672259492005
-0.17870000000000008,-4.364384360083638
-0.1797000000000002,-4.450681749375406
-0.18070000000000008,-4.494537799671222
-0.1817000000000002,-4.582249900262854
-0.18270000000000008,-4.582249900262854
-0.1837000000000002,-4.538393849967037
-0.1847000000000001,-4.494537799671222
-0.1857000000000002,-4.450681749375406
-0.1867000000000001,-4.364384360083638
-0.1877000000000002,-4.406825699079589
-0.1887000000000001,-4.450681749375406
-0.1897000000000002,-4.538393849967037
-0.1907000000000001,-4.626105950558669
-0.1917000000000001,-4.668547289554621
-0.19269999999999998,-4.668547289554621
-0.1937000000000001,-4.668547289554621
-0.19469999999999998,-4.582249900262854
-0.1957000000000001,-4.538393849967037
-0.19669999999999999,-4.494537799671222
-0.1977000000000001,-4.494537799671222
-0.1987,-4.538393849967037
-0.1997000000000001,-4.626105950558669
-0.2007,-4.668547289554621
-0.2017000000000001,-4.756259390146253
-0.2027,-4.756259390146253
-0.2037000000000001,-4.712403339850438
-0.2047,-4.626105950558669
-0.2057000000000001,-4.626105950558669
-0.2067,-4.538393849967037
-0.2077000000000001,-4.582249900262854
-0.2087,-4.668547289554621
-0.2097000000000001,-4.712403339850438
-0.2107,-4.800115440442069
-0.2117000000000001,-4.887827541033701
-0.2127,-4.843971490737885
-0.2137000000000001,-4.843971490737885
-0.2147,-4.756259390146253
-0.2157000000000001,-4.756259390146253
-0.2167,-4.712403339850438
-0.21770000000000012,-4.712403339850438
-0.2187,-4.756259390146253
-0.21970000000000012,-4.843971490737885
-0.2207,-4.9302688800296535
-0.22170000000000012,-5.017980980621284
-0.2227,-5.017980980621284
-0.22370000000000012,-4.974124930325469
-0.2247,-4.9302688800296535
-0.22570000000000012,-4.843971490737885
-0.2267,-4.800115440442069
-0.22770000000000012,-4.800115440442069
-0.22870000000000001,-4.843971490737885
-0.22970000000000013,-4.9302688800296535
-0.23070000000000002,-5.017980980621284
-0.23170000000000013,-5.0618370309171015
-0.23270000000000002,-5.0618370309171015
-0.23370000000000013,-5.017980980621284
-0.23470000000000002,-4.974124930325469
-0.23570000000000013,-4.974124930325469
-0.23670000000000002,-4.9302688800296535
-0.2376999999999999,-4.9302688800296535
-0.23870000000000002,-4.974124930325469
-0.2396999999999999,-5.0618370309171015
-0.24070000000000003,-5.149549131508733
-0.24169999999999991,-5.191990470504685
-0.24270000000000003,-5.191990470504685
-0.24369999999999992,-5.191990470504685
-0.24470000000000003,-5.149549131508733
-0.24569999999999992,-5.105693081212917
-0.24670000000000003,-5.0618370309171015
-0.24769999999999992,-5.105693081212917
-0.24870000000000003,-5.149549131508733
-0.24969999999999992,-5.235846520800501
-0.25070000000000003,-5.279702571096316
-0.2516999999999999,-5.367414671687949
-0.25270000000000004,-5.367414671687949
-0.2536999999999999,-5.323558621392133
-0.25470000000000004,-5.279702571096316
-0.2556999999999999,-5.235846520800501
-0.25670000000000004,-5.191990470504685
-0.25769999999999993,-5.191990470504685
-0.25870000000000004,-5.235846520800501
-0.25969999999999993,-5.323558621392133
-0.26070000000000004,-5.367414671687949
-0.26169999999999993,-5.453712060979717
-0.26270000000000004,-5.453712060979717
-0.26369999999999993,-5.453712060979717
-0.26470000000000005,-5.411270721983764
-0.26569999999999994,-5.367414671687949
-0.26670000000000005,-5.367414671687949
-0.26769999999999994,-5.411270721983764
-0.26870000000000005,-5.411270721983764
-0.26969999999999994,-5.497568111275533
-0.27070000000000005,-5.585280211867165
-0.27169999999999994,-5.629136262162981
-0.27270000000000005,-5.629136262162981
-0.27369999999999994,-5.629136262162981
-0.27470000000000006,-5.585280211867165
-0.27569999999999995,-5.585280211867165
-0.27670000000000006,-5.5414241615713475
-0.27769999999999995,-5.585280211867165
-0.27870000000000006,-5.585280211867165
-0.27969999999999995,-5.672992312458796
-0.28070000000000006,-5.759289701750564
-0.28169999999999995,-5.847001802342197
-0.28270000000000006,-5.80314575204638
-0.28369999999999995,-5.759289701750564
-0.28470000000000006,-5.715433651454749
-0.28569999999999995,-5.672992312458796
-0.28670000000000007,-5.629136262162981
-0.28769999999999996,-5.672992312458796
-0.28870000000000007,-5.715433651454749
-0.28969999999999996,-5.80314575204638
-0.29070000000000007,-5.890857852638012
-0.29169999999999996,-5.977155241929781
-0.29270000000000007,-5.977155241929781
-0.29369999999999996,-5.977155241929781
-0.2947000000000001,-5.9347139029338285
-0.29569999999999996,-5.890857852638012
-0.2967000000000001,-5.890857852638012
-0.29769999999999996,-5.890857852638012
-0.2987000000000001,-5.977155241929781
-0.29969999999999997,-6.064867342521412
-0.3007000000000001,-6.108723392817228
-0.30169999999999997,-6.196435493408861
-0.3027000000000001,-6.238876832404812
-0.30369999999999997,-6.238876832404812
-0.3047000000000001,-6.196435493408861
-0.30569999999999997,-6.152579443113044
-0.3067000000000001,-6.152579443113044
-0.3077,-6.196435493408861
-0.3087000000000001,-6.238876832404812
-0.3097,-6.326588932996443
-0.3107000000000001,-6.414301033588076
-0.3117,-6.500598422879844
-0.3127000000000001,-6.458157083883892
-0.3137,-6.458157083883892
-0.3147000000000001,-6.414301033588076
-0.3157,-6.37044498329226
-0.3167000000000001,-6.37044498329226
-0.3177,-6.414301033588076
-0.3187000000000001,-6.500598422879844
-0.3197,-6.588310523471475
-0.3207000000000001,-6.6760226240631075
-0.3217,-6.806176063650692
-0.3227000000000001,-6.806176063650692
-0.3237,-6.806176063650692
-0.3247000000000001,-6.806176063650692
-0.3257,-6.762320013354876
-0.3267000000000001,-6.762320013354876
-0.3277,-6.806176063650692
-0.3287000000000001,-6.893888164242324
-0.3297,-7.024041603829907
-0.3307000000000001,-7.111753704421539
-0.3317,-7.243321855308987
-0.3327000000000001,-7.329619244600755
-0.3337,-7.329619244600755
-0.3347000000000001,-7.28576319430494
-0.3357,-7.28576319430494
-0.3367000000000001,-7.28576319430494
-0.3377,-7.37347529489657
-0.3387000000000001,-7.461187395488204
-0.3397,-7.591340835075788
-0.3407000000000001,-7.679052935667419
-0.3417,-7.809206375255003
-0.3427000000000001,-7.853062425550818
-0.3437,-7.896918475846635
-0.3447000000000001,-7.853062425550818
-0.3457,-7.896918475846635
-0.3467000000000001,-7.896918475846635
-0.3477,-8.027071915434218
-0.3487000000000001,-8.11478401602585
-0.3497,-8.288793505909249
-0.3507000000000001,-8.464217707092514
-0.3517,-8.594371146680096
-0.3527000000000001,-8.68208324727173
-0.3537,-8.725939297567548
-0.3547000000000001,-8.769795347863363
-0.3557,-8.812236686859313
-0.35670000000000013,-8.85609273715513
-0.3577,-8.987660888042578
-0.35870000000000013,-9.161670377925978
-0.3597,-9.335679867809377
-0.36070000000000013,-9.55496011928846
-0.3617,-9.728969609171857
-0.3626999999999999,-9.85912304875944
-0.3637,-9.946835149351072
-0.3646999999999999,-10.034547249942705
-0.3657,-10.120844639234473
-0.3666999999999999,-10.25241279012192
-0.3677,-10.382566229709504
-0.3686999999999999,-10.557990430892769
-0.36970000000000003,-10.775855971071984
-0.3706999999999999,-10.993721511251199
-0.37170000000000003,-11.211587051430415
-0.3726999999999999,-11.343155202317865
-0.37370000000000003,-11.473308641905447
-0.3746999999999999,-11.647318131788847
-0.37570000000000003,-11.86659838326793
-0.3766999999999999,-11.996751822855511
-0.37770000000000004,-12.214617363034726
-0.3786999999999999,-12.520195003805576
-0.37970000000000004,-12.781916594280606
-0.3806999999999999,-13.13135028534727
-0.38170000000000004,-13.436927926118118
-0.38269999999999993,-13.654793466297335
-0.38370000000000004,-13.916515056772363
-0.38469999999999993,-14.13438059695158
-0.38570000000000004,-14.401761032626075
-0.38669999999999993,-14.65640906660178
-0.38770000000000004,-14.967645552572087
-0.38869999999999993,-15.307176264539699
-0.38970000000000005,-15.74573676749786
-0.39069999999999994,-16.141855931460068
-0.39170000000000005,-16.53797509542228
-0.39269999999999994,-16.877505807389888
-0.39370000000000005,-17.231183632356142
-0.39469999999999994,-17.584861457322408
-0.39570000000000005,-17.924392169290012
-0.39669999999999994,-18.23562865526032
-0.39770000000000005,-18.674189158218486
-0.39869999999999994,-19.155191000172596
-0.39970000000000006,-19.636192842126707
-0.40069999999999995,-20.159636023076775
-0.40170000000000006,-20.72552054302279
-0.40269999999999995,-21.248963723972853
-0.40370000000000006,-21.729965565926964
-0.40469999999999995,-22.196820294882425
-0.40570000000000006,-22.72026347583249
-0.40669999999999995,-23.300295108777156
-0.40770000000000006,-23.86617962872317
-0.40869999999999995,-24.516946826661083
-0.40970000000000006,-25.167714024599
-0.41069999999999995,-25.81848122253692
-0.41170000000000007,-26.568278211465387
-0.41269999999999996,-27.261486748399253
-0.41370000000000007,-28.011283737327723
-0.41469999999999996,-28.789374952253496
-0.41570000000000007,-29.525024828183312
-0.41669999999999996,-30.274821817111786
-0.41770000000000007,-31.052913032037555
-0.41869999999999996,-31.887592698957924
-0.4197000000000001,-32.84959638286615
-0.42069999999999996,-33.81160006677438
-0.4217000000000001,-34.8018979766799
-0.42269999999999996,-35.763901660588125
-0.4237000000000001,-36.6834640055004
-0.42469999999999997,-37.47570233342482
-0.4257000000000001,-38.29623488734655
-0.42669999999999997,-39.130914554266916
-0.4277000000000001,-39.99388844718459
-0.42869999999999997,-40.87100945310091
-0.4297000000000001,-41.83301313700913
-0.43069999999999997,-42.79501682091736
-0.4317000000000001,-43.92678586080939
-0.4327,-45.05855490070142
-0.4337000000000001,-46.19032394059345
-0.4347,-47.27965164148953
-0.4357000000000001,-48.41142068138156
-0.4367,-49.557336834272235
-0.4377000000000001,-50.68910587416426
-0.4387,-51.82087491405629
-0.4397000000000001,-52.995085292944275
-0.4407,-54.2117370108282
-0.4417000000000001,-55.484977180706736
-0.4427,-56.786511576582576
-0.4437000000000001,-58.18707576344896
-0.4447,-59.502757272323436
-0.4457000000000001,-60.71940899020737
-0.4467,-61.936060708091304
-0.4477000000000001,-63.15271242597524
-0.4487,-64.46839393484973
-0.4497000000000001,-65.82651678272015
-0.4507,-67.17049251759194
-0.4517000000000001,-68.48617402646643
-0.4527,-69.6603844053544
-0.4537000000000001,-70.79215344524643
-0.4547,-72.05124650212633
-0.4557000000000001,-73.2820453330089
-0.4567,-74.41381437290093
-0.4577000000000001,-75.5880247517889
-0.4587,-76.81882358267148
-0.4597000000000001,-78.20524065653922
-0.4607,-79.60580484340561
-0.4617000000000001,-81.04881036926795
-0.4627,-82.47766878213164
-0.4637000000000001,-83.92067430799398
-0.4647,-85.32123849486035
-0.4657000000000001,-86.58033155174023
-0.4667,-87.79698326962418
-0.4677000000000001,-89.07022343950271
-0.4687,-90.28687515738663
-0.4697000000000001,-91.72988068324898
-0.4707,-93.34265156509512
-0.4717000000000001,-95.08274646392913
-0.4727,-96.69551734577524
-0.4737000000000001,-98.26584688862545
-0.4747,-99.70885241448778
-0.4757000000000001,-101.10941660135417
-0.4767,-102.3260683192381
-0.4777000000000001,-103.64174982811258
-0.4787,-105.07060824097626
-0.4797000000000001,-106.47117242784265
-0.4807,-107.78685393671715
-0.48170000000000013,-108.87618163761321
-0.4827,-110.05039201650122
-0.48370000000000013,-111.22460239538917
-0.4847,-112.44125411327312
-0.48570000000000013,-113.62961160515974
-0.4867,-113.88425963913545
-0.48570000000000013,-112.71004926024747
-0.4847,-111.74804557633925
-0.48370000000000013,-110.78604189243102
-0.4827,-109.92306799951335
-0.48170000000000013,-109.21571234958083
-0.4807,-108.43762113465506
-0.4797000000000001,-107.6029414677347
-0.4787,-106.64093778382647
-0.4777000000000001,-105.5516100829304
-0.4767,-104.3773997040424
-0.4757000000000001,-103.20318932515443
-0.4747,-102.1563029632543
-0.4737000000000001,-101.32162329633393
-0.4727,-100.54353208140815
-0.4717000000000001,-99.75129375348374
-0.4707,-98.88831986056607
-0.4697000000000001,-97.88387483766188
-0.4687,-96.87942981475771
-0.4677000000000001,-95.87498479185354
-0.4667,-94.87053976894937
-0.4657000000000001,-93.86609474604518
-0.4647,-92.64944302816124
-0.4637000000000001,-91.33376151928677
-0.4627,-90.24443381839069
-0.4617000000000001,-89.19754745649055
