Aug. 3, 2024   12:25:27
Cyclic Voltammetry
File: c:/users/guazh/data/20240802_batch_500/2024-08-02-exp6\exp6-2024-08-03t12_11_53-h2koh\exp6_cv_sr_50mvs_efin_-1700mv.bin
Data Source:  Experiment
Instrument Model:  CHI760E
Header: CV ran at 50 mVs
Note: 

Init E (V) = -1
High E (V) = -1
Low E (V) = -1.7
Final E (V) = -1
Init P/N = N
Scan Rate (V/s) = 0.05
Segment = 3
Sample Interval (V) = 0.001
Quiet Time (sec) = 2
Sensitivity (A/V) = 0.01
Comp R (ohm) = 1.7

Results:

Channel 1:
Segment 1:

Segment 2:

Segment 3:

Potential/V, Current/A

-1.000, -5.742e-7
-1.001, -4.755e-7
-1.002, -3.769e-7
-1.003, -2.684e-7
-1.004, -2.881e-7
-1.005, -1.697e-7
-1.006, -1.993e-7
-1.007, -1.796e-7
-1.008, -1.500e-7
-1.009, -1.006e-7
-1.010, -1.302e-7
-1.011, -6.117e-8
-1.012, -7.103e-8
-1.013, -3.157e-8
-1.014, 4.736e-8
-1.015, -1.184e-8
-1.016, -4.144e-8
-1.017, -1.184e-8
-1.018, 3.749e-8
-1.019, 3.749e-8
-1.020, -1.973e-9
-1.021, 7.695e-8
-1.022, -2.171e-8
-1.023, 4.736e-8
-1.024, 1.953e-7
-1.025, 1.855e-7
-1.026, 1.953e-7
-1.027, 1.460e-7
-1.028, 2.841e-7
-1.029, 1.657e-7
-1.030, 1.855e-7
-1.031, 2.644e-7
-1.032, 1.559e-7
-1.033, 2.743e-7
-1.034, 2.644e-7
-1.035, 4.736e-8
-1.036, 1.953e-7
-1.037, 1.657e-7
-1.038, 2.447e-7
-1.039, 2.841e-7
-1.040, 2.644e-7
-1.041, 2.841e-7
-1.042, 2.249e-7
-1.043, 2.841e-7
-1.044, 3.433e-7
-1.045, 2.743e-7
-1.046, 3.335e-7
-1.047, 2.644e-7
-1.048, 2.348e-7
-1.049, 3.828e-7
-1.050, 3.927e-7
-1.051, 3.828e-7
-1.052, 2.940e-7
-1.053, 3.828e-7
-1.054, 4.617e-7
-1.055, 3.631e-7
-1.056, 3.828e-7
-1.057, 4.124e-7
-1.058, 4.519e-7
-1.059, 4.420e-7
-1.060, 3.335e-7
-1.061, 3.927e-7
-1.062, 3.729e-7
-1.063, 3.828e-7
-1.064, 5.111e-7
-1.065, 4.519e-7
-1.066, 3.828e-7
-1.067, 3.631e-7
-1.068, 3.927e-7
-1.069, 5.308e-7
-1.070, 3.828e-7
-1.071, 4.815e-7
-1.072, 4.420e-7
-1.073, 4.223e-7
-1.074, 5.505e-7
-1.075, 5.111e-7
-1.076, 4.321e-7
-1.077, 4.519e-7
-1.078, 6.196e-7
-1.079, 6.097e-7
-1.080, 5.801e-7
-1.081, 5.505e-7
-1.082, 5.703e-7
-1.083, 5.308e-7
-1.084, 6.294e-7
-1.085, 5.111e-7
-1.086, 5.308e-7
-1.087, 4.519e-7
-1.088, 6.492e-7
-1.089, 6.590e-7
-1.090, 6.492e-7
-1.091, 6.097e-7
-1.092, 6.294e-7
-1.093, 6.492e-7
-1.094, 6.886e-7
-1.095, 5.998e-7
-1.096, 6.590e-7
-1.097, 5.505e-7
-1.098, 6.985e-7
-1.099, 5.505e-7
-1.100, 6.788e-7
-1.101, 5.900e-7
-1.102, 6.985e-7
-1.103, 6.886e-7
-1.104, 6.492e-7
-1.105, 6.985e-7
-1.106, 6.590e-7
-1.107, 6.196e-7
-1.108, 7.084e-7
-1.109, 7.380e-7
-1.110, 6.393e-7
-1.111, 6.689e-7
-1.112, 6.985e-7
-1.113, 6.492e-7
-1.114, 7.676e-7
-1.115, 6.788e-7
-1.116, 6.393e-7
-1.117, 6.788e-7
-1.118, 7.972e-7
-1.119, 7.380e-7
-1.120, 8.070e-7
-1.121, 6.788e-7
-1.122, 6.393e-7
-1.123, 6.985e-7
-1.124, 7.774e-7
-1.125, 6.590e-7
-1.126, 7.972e-7
-1.127, 7.676e-7
-1.128, 8.169e-7
-1.129, 7.972e-7
-1.130, 7.676e-7
-1.131, 8.366e-7
-1.132, 7.182e-7
-1.133, 7.873e-7
-1.134, 8.958e-7
-1.135, 8.366e-7
-1.136, 7.873e-7
-1.137, 7.182e-7
-1.138, 7.972e-7
-1.139, 9.452e-7
-1.140, 8.958e-7
-1.141, 9.057e-7
-1.142, 7.873e-7
-1.143, 8.366e-7
-1.144, 7.774e-7
-1.145, 8.564e-7
-1.146, 8.366e-7
-1.147, 8.366e-7
-1.148, 8.366e-7
-1.149, 8.860e-7
-1.150, 9.057e-7
-1.151, 8.169e-7
-1.152, 8.761e-7
-1.153, 9.550e-7
-1.154, 8.958e-7
-1.155, 9.156e-7
-1.156, 8.958e-7
-1.157, 8.169e-7
-1.158, 9.649e-7
-1.159, 9.353e-7
-1.160, 8.958e-7
-1.161, 9.649e-7
-1.162, 8.070e-7
-1.163, 9.156e-7
-1.164, 9.057e-7
-1.165, 9.748e-7
-1.166, 9.452e-7
-1.167, 8.366e-7
-1.168, 8.268e-7
-1.169, 9.057e-7
-1.170, 8.860e-7
-1.171, 9.452e-7
-1.172, 9.254e-7
-1.173, 9.452e-7
-1.174, 9.945e-7
-1.175, 9.649e-7
-1.176, 9.057e-7
-1.177, 9.846e-7
-1.178, 9.846e-7
-1.179, 1.034e-6
-1.180, 9.254e-7
-1.181, 9.550e-7
-1.182, 9.846e-7
-1.183, 1.054e-6
-1.184, 1.024e-6
-1.185, 1.024e-6
-1.186, 1.044e-6
-1.187, 9.649e-7
-1.188, 9.550e-7
-1.189, 1.034e-6
-1.190, 1.004e-6
-1.191, 1.073e-6
-1.192, 8.958e-7
-1.193, 9.846e-7
-1.194, 1.034e-6
-1.195, 1.054e-6
-1.196, 1.083e-6
-1.197, 1.073e-6
-1.198, 1.064e-6
-1.199, 1.034e-6
-1.200, 1.064e-6
-1.201, 1.014e-6
-1.202, 1.014e-6
-1.203, 1.004e-6
-1.204, 1.123e-6
-1.205, 1.064e-6
-1.206, 1.182e-6
-1.207, 1.093e-6
-1.208, 1.044e-6
-1.209, 1.123e-6
-1.210, 1.133e-6
-1.211, 1.123e-6
-1.212, 1.113e-6
-1.213, 1.172e-6
-1.214, 1.192e-6
-1.215, 1.014e-6
-1.216, 1.113e-6
-1.217, 1.123e-6
-1.218, 1.162e-6
-1.219, 1.152e-6
-1.220, 1.172e-6
-1.221, 1.103e-6
-1.222, 1.133e-6
-1.223, 1.251e-6
-1.224, 1.241e-6
-1.225, 1.212e-6
-1.226, 1.133e-6
-1.227, 1.123e-6
-1.228, 1.182e-6
-1.229, 1.379e-6
-1.230, 1.340e-6
-1.231, 1.241e-6
-1.232, 1.369e-6
-1.233, 1.330e-6
-1.234, 1.389e-6
-1.235, 1.379e-6
-1.236, 1.290e-6
-1.237, 1.281e-6
-1.238, 1.379e-6
-1.239, 1.429e-6
-1.240, 1.300e-6
-1.241, 1.271e-6
-1.242, 1.379e-6
-1.243, 1.379e-6
-1.244, 1.419e-6
-1.245, 1.389e-6
-1.246, 1.389e-6
-1.247, 1.399e-6
-1.248, 1.438e-6
-1.249, 1.478e-6
-1.250, 1.458e-6
-1.251, 1.458e-6
-1.252, 1.429e-6
-1.253, 1.478e-6
-1.254, 1.438e-6
-1.255, 1.547e-6
-1.256, 1.547e-6
-1.257, 1.567e-6
-1.258, 1.586e-6
-1.259, 1.636e-6
-1.260, 1.537e-6
-1.261, 1.725e-6
-1.262, 1.567e-6
-1.263, 1.725e-6
-1.264, 1.754e-6
-1.265, 1.606e-6
-1.266, 1.626e-6
-1.267, 1.675e-6
-1.268, 1.675e-6
-1.269, 1.863e-6
-1.270, 1.725e-6
-1.271, 1.734e-6
-1.272, 1.744e-6
-1.273, 1.863e-6
-1.274, 1.853e-6
-1.275, 1.803e-6
-1.276, 1.882e-6
-1.277, 1.882e-6
-1.278, 1.932e-6
-1.279, 1.942e-6
-1.280, 2.021e-6
-1.281, 2.040e-6
-1.282, 2.021e-6
-1.283, 2.080e-6
-1.284, 2.139e-6
-1.285, 2.139e-6
-1.286, 2.169e-6
-1.287, 2.119e-6
-1.288, 2.178e-6
-1.289, 2.277e-6
-1.290, 2.228e-6
-1.291, 2.297e-6
-1.292, 2.218e-6
-1.293, 2.336e-6
-1.294, 2.435e-6
-1.295, 2.395e-6
-1.296, 2.474e-6
-1.297, 2.465e-6
-1.298, 2.455e-6
-1.299, 2.593e-6
-1.300, 2.563e-6
-1.301, 2.652e-6
-1.302, 2.622e-6
-1.303, 2.760e-6
-1.304, 2.790e-6
-1.305, 2.780e-6
-1.306, 2.958e-6
-1.307, 2.938e-6
-1.308, 2.968e-6
-1.309, 3.096e-6
-1.310, 3.126e-6
-1.311, 3.116e-6
-1.312, 3.165e-6
-1.313, 3.254e-6
-1.314, 3.313e-6
-1.315, 3.352e-6
-1.316, 3.461e-6
-1.317, 3.441e-6
-1.318, 3.520e-6
-1.319, 3.639e-6
-1.320, 3.698e-6
-1.321, 3.826e-6
-1.322, 3.806e-6
-1.323, 3.944e-6
-1.324, 3.915e-6
-1.325, 4.073e-6
-1.326, 4.083e-6
-1.327, 4.102e-6
-1.328, 4.290e-6
-1.329, 4.448e-6
-1.330, 4.388e-6
-1.331, 4.674e-6
-1.332, 4.674e-6
-1.333, 4.842e-6
-1.334, 4.921e-6
-1.335, 5.010e-6
-1.336, 5.128e-6
-1.337, 5.069e-6
-1.338, 5.375e-6
-1.339, 5.414e-6
-1.340, 5.424e-6
-1.341, 5.592e-6
-1.342, 5.720e-6
-1.343, 5.839e-6
-1.344, 6.095e-6
-1.345, 6.154e-6
-1.346, 6.302e-6
-1.347, 6.431e-6
-1.348, 6.460e-6
-1.349, 6.697e-6
-1.350, 6.756e-6
-1.351, 7.013e-6
-1.352, 7.042e-6
-1.353, 7.289e-6
-1.354, 7.437e-6
-1.355, 7.496e-6
-1.356, 7.624e-6
-1.357, 7.911e-6
-1.358, 8.049e-6
-1.359, 8.285e-6
-1.360, 8.394e-6
-1.361, 8.522e-6
-1.362, 8.720e-6
-1.363, 9.006e-6
-1.364, 9.183e-6
-1.365, 9.302e-6
-1.366, 9.568e-6
-1.367, 9.795e-6
-1.368, 9.913e-6
-1.369, 1.026e-5
-1.370, 1.047e-5
-1.371, 1.074e-5
-1.372, 1.080e-5
-1.373, 1.120e-5
-1.374, 1.139e-5
-1.375, 1.159e-5
-1.376, 1.184e-5
-1.377, 1.205e-5
-1.378, 1.238e-5
-1.379, 1.269e-5
-1.380, 1.287e-5
-1.381, 1.317e-5
-1.382, 1.348e-5
-1.383, 1.375e-5
-1.384, 1.411e-5
-1.385, 1.449e-5
-1.386, 1.475e-5
-1.387, 1.503e-5
-1.388, 1.539e-5
-1.389, 1.576e-5
-1.390, 1.605e-5
-1.391, 1.634e-5
-1.392, 1.663e-5
-1.393, 1.706e-5
-1.394, 1.750e-5
-1.395, 1.783e-5
-1.396, 1.834e-5
-1.397, 1.859e-5
-1.398, 1.898e-5
-1.399, 1.945e-5
-1.400, 1.979e-5
-1.401, 2.018e-5
-1.402, 2.071e-5
-1.403, 2.109e-5
-1.404, 2.155e-5
-1.405, 2.200e-5
-1.406, 2.239e-5
-1.407, 2.293e-5
-1.408, 2.347e-5
-1.409, 2.398e-5
-1.410, 2.438e-5
-1.411, 2.493e-5
-1.412, 2.542e-5
-1.413, 2.600e-5
-1.414, 2.653e-5
-1.415, 2.707e-5
-1.416, 2.767e-5
-1.417, 2.817e-5
-1.418, 2.878e-5
-1.419, 2.945e-5
-1.420, 3.000e-5
-1.421, 3.059e-5
-1.422, 3.120e-5
-1.423, 3.194e-5
-1.424, 3.259e-5
-1.425, 3.326e-5
-1.426, 3.388e-5
-1.427, 3.455e-5
-1.428, 3.533e-5
-1.429, 3.603e-5
-1.430, 3.670e-5
-1.431, 3.752e-5
-1.432, 3.813e-5
-1.433, 3.899e-5
-1.434, 3.995e-5
-1.435, 4.065e-5
-1.436, 4.143e-5
-1.437, 4.228e-5
-1.438, 4.312e-5
-1.439, 4.408e-5
-1.440, 4.497e-5
-1.441, 4.575e-5
-1.442, 4.666e-5
-1.443, 4.758e-5
-1.444, 4.858e-5
-1.445, 4.942e-5
-1.446, 5.056e-5
-1.447, 5.149e-5
-1.448, 5.252e-5
-1.449, 5.369e-5
-1.450, 5.459e-5
-1.451, 5.568e-5
-1.452, 5.669e-5
-1.453, 5.795e-5
-1.454, 5.913e-5
-1.455, 6.023e-5
-1.456, 6.149e-5
-1.457, 6.272e-5
-1.458, 6.381e-5
-1.459, 6.522e-5
-1.460, 6.651e-5
-1.461, 6.780e-5
-1.462, 6.911e-5
-1.463, 7.051e-5
-1.464, 7.200e-5
-1.465, 7.331e-5
-1.466, 7.488e-5
-1.467, 7.622e-5
-1.468, 7.786e-5
-1.469, 7.947e-5
-1.470, 8.103e-5
-1.471, 8.268e-5
-1.472, 8.437e-5
-1.473, 8.608e-5
-1.474, 8.782e-5
-1.475, 8.958e-5
-1.476, 9.134e-5
-1.477, 9.313e-5
-1.478, 9.520e-5
-1.479, 9.710e-5
-1.480, 9.902e-5
-1.481, 1.010e-4
-1.482, 1.031e-4
-1.483, 1.052e-4
-1.484, 1.075e-4
-1.485, 1.097e-4
-1.486, 1.120e-4
-1.487, 1.142e-4
-1.488, 1.165e-4
-1.489, 1.191e-4
-1.490, 1.215e-4
-1.491, 1.240e-4
-1.492, 1.264e-4
-1.493, 1.289e-4
-1.494, 1.318e-4
-1.495, 1.345e-4
-1.496, 1.374e-4
-1.497, 1.402e-4
-1.498, 1.432e-4
-1.499, 1.463e-4
-1.500, 1.495e-4
-1.501, 1.526e-4
-1.502, 1.558e-4
-1.503, 1.592e-4
-1.504, 1.627e-4
-1.505, 1.662e-4
-1.506, 1.698e-4
-1.507, 1.733e-4
-1.508, 1.770e-4
-1.509, 1.809e-4
-1.510, 1.849e-4
-1.511, 1.889e-4
-1.512, 1.927e-4
-1.513, 1.971e-4
-1.514, 2.015e-4
-1.515, 2.059e-4
-1.516, 2.104e-4
-1.517, 2.149e-4
-1.518, 2.197e-4
-1.519, 2.245e-4
-1.520, 2.293e-4
-1.521, 2.344e-4
-1.522, 2.393e-4
-1.523, 2.447e-4
-1.524, 2.502e-4
-1.525, 2.557e-4
-1.526, 2.613e-4
-1.527, 2.672e-4
-1.528, 2.732e-4
-1.529, 2.794e-4
-1.530, 2.857e-4
-1.531, 2.921e-4
-1.532, 2.986e-4
-1.533, 3.053e-4
-1.534, 3.123e-4
-1.535, 3.194e-4
-1.536, 3.268e-4
-1.537, 3.341e-4
-1.538, 3.415e-4
-1.539, 3.492e-4
-1.540, 3.573e-4
-1.541, 3.653e-4
-1.542, 3.736e-4
-1.543, 3.822e-4
-1.544, 3.911e-4
-1.545, 4.002e-4
-1.546, 4.092e-4
-1.547, 4.181e-4
-1.548, 4.276e-4
-1.549, 4.376e-4
-1.550, 4.476e-4
-1.551, 4.579e-4
-1.552, 4.681e-4
-1.553, 4.788e-4
-1.554, 4.900e-4
-1.555, 5.013e-4
-1.556, 5.126e-4
-1.557, 5.242e-4
-1.558, 5.365e-4
-1.559, 5.490e-4
-1.560, 5.614e-4
-1.561, 5.741e-4
-1.562, 5.873e-4
-1.563, 6.006e-4
-1.564, 6.143e-4
-1.565, 6.283e-4
-1.566, 6.428e-4
-1.567, 6.573e-4
-1.568, 6.720e-4
-1.569, 6.873e-4
-1.570, 7.032e-4
-1.571, 7.195e-4
-1.572, 7.353e-4
-1.573, 7.516e-4
-1.574, 7.690e-4
-1.575, 7.870e-4
-1.576, 8.048e-4
-1.577, 8.224e-4
-1.578, 8.403e-4
-1.579, 8.591e-4
-1.580, 8.785e-4
-1.581, 8.979e-4
-1.582, 9.172e-4
-1.583, 9.378e-4
-1.584, 9.592e-4
-1.585, 9.804e-4
-1.586, 1.001e-3
-1.587, 1.023e-3
-1.588, 1.046e-3
-1.589, 1.069e-3
-1.590, 1.093e-3
-1.591, 1.115e-3
-1.592, 1.140e-3
-1.593, 1.164e-3
-1.594, 1.189e-3
-1.595, 1.212e-3
-1.596, 1.238e-3
-1.597, 1.265e-3
-1.598, 1.292e-3
-1.599, 1.319e-3
-1.600, 1.346e-3
-1.601, 1.375e-3
-1.602, 1.403e-3
-1.603, 1.432e-3
-1.604, 1.461e-3
-1.605, 1.492e-3
-1.606, 1.523e-3
-1.607, 1.554e-3
-1.608, 1.584e-3
-1.609, 1.616e-3
-1.610, 1.651e-3
-1.611, 1.684e-3
-1.612, 1.716e-3
-1.613, 1.749e-3
-1.614, 1.786e-3
-1.615, 1.822e-3
-1.616, 1.856e-3
-1.617, 1.889e-3
-1.618, 1.926e-3
-1.619, 1.967e-3
-1.620, 2.004e-3
-1.621, 2.040e-3
-1.622, 2.077e-3
-1.623, 2.118e-3
-1.624, 2.157e-3
-1.625, 2.195e-3
-1.626, 2.235e-3
-1.627, 2.280e-3
-1.628, 2.323e-3
-1.629, 2.362e-3
-1.630, 2.405e-3
-1.631, 2.448e-3
-1.632, 2.493e-3
-1.633, 2.537e-3
-1.634, 2.581e-3
-1.635, 2.627e-3
-1.636, 2.675e-3
-1.637, 2.722e-3
-1.638, 2.766e-3
-1.639, 2.812e-3
-1.640, 2.865e-3
-1.641, 2.914e-3
-1.642, 2.959e-3
-1.643, 3.005e-3
-1.644, 3.059e-3
-1.645, 3.114e-3
-1.646, 3.163e-3
-1.647, 3.210e-3
-1.648, 3.264e-3
-1.649, 3.322e-3
-1.650, 3.377e-3
-1.651, 3.426e-3
-1.652, 3.477e-3
-1.653, 3.538e-3
-1.654, 3.596e-3
-1.655, 3.648e-3
-1.656, 3.698e-3
-1.657, 3.760e-3
-1.658, 3.821e-3
-1.659, 3.879e-3
-1.660, 3.932e-3
-1.661, 3.992e-3
-1.662, 4.058e-3
-1.663, 4.120e-3
-1.664, 4.173e-3
-1.665, 4.235e-3
-1.666, 4.300e-3
-1.667, 4.360e-3
-1.668, 4.417e-3
-1.669, 4.482e-3
-1.670, 4.554e-3
-1.671, 4.624e-3
-1.672, 4.678e-3
-1.673, 4.735e-3
-1.674, 4.804e-3
-1.675, 4.879e-3
-1.676, 4.946e-3
-1.677, 5.006e-3
-1.678, 5.071e-3
-1.679, 5.146e-3
-1.680, 5.215e-3
-1.681, 5.273e-3
-1.682, 5.336e-3
-1.683, 5.414e-3
-1.684, 5.492e-3
-1.685, 5.556e-3
-1.686, 5.617e-3
-1.687, 5.693e-3
-1.688, 5.774e-3
-1.689, 5.844e-3
-1.690, 5.903e-3
-1.691, 5.965e-3
-1.692, 6.051e-3
-1.693, 6.138e-3
-1.694, 6.203e-3
-1.695, 6.264e-3
-1.696, 6.344e-3
-1.697, 6.431e-3
-1.698, 6.508e-3
-1.699, 6.566e-3
-1.700, 6.571e-3
-1.699, 6.539e-3
-1.698, 6.504e-3
-1.697, 6.442e-3
-1.696, 6.371e-3
-1.695, 6.304e-3
-1.694, 6.267e-3
-1.693, 6.217e-3
-1.692, 6.156e-3
-1.691, 6.101e-3
-1.690, 6.042e-3
-1.689, 5.987e-3
-1.688, 5.915e-3
-1.687, 5.848e-3
-1.686, 5.798e-3
-1.685, 5.750e-3
-1.684, 5.686e-3
-1.683, 5.611e-3
-1.682, 5.551e-3
-1.681, 5.502e-3
-1.680, 5.450e-3
-1.679, 5.373e-3
-1.678, 5.315e-3
-1.677, 5.266e-3
-1.676, 5.209e-3
-1.675, 5.141e-3
-1.674, 5.079e-3
-1.673, 5.021e-3
-1.672, 4.974e-3
-1.671, 4.920e-3
-1.670, 4.854e-3
-1.669, 4.797e-3
-1.668, 4.748e-3
-1.667, 4.695e-3
-1.666, 4.634e-3
-1.665, 4.575e-3
-1.664, 4.530e-3
-1.663, 4.483e-3
-1.662, 4.432e-3
-1.661, 4.377e-3
-1.660, 4.327e-3
-1.659, 4.276e-3
-1.658, 4.226e-3
-1.657, 4.170e-3
-1.656, 4.120e-3
-1.655, 4.082e-3
-1.654, 4.034e-3
-1.653, 3.978e-3
-1.652, 3.917e-3
-1.651, 3.870e-3
-1.650, 3.835e-3
-1.649, 3.780e-3
-1.648, 3.725e-3
-1.647, 3.678e-3
-1.646, 3.640e-3
-1.645, 3.597e-3
-1.644, 3.544e-3
-1.643, 3.494e-3
-1.642, 3.455e-3
-1.641, 3.414e-3
-1.640, 3.363e-3
-1.639, 3.313e-3
-1.638, 3.271e-3
-1.637, 3.235e-3
-1.636, 3.192e-3
-1.635, 3.146e-3
-1.634, 3.102e-3
-1.633, 3.062e-3
-1.632, 3.020e-3
-1.631, 2.973e-3
-1.630, 2.927e-3
-1.629, 2.890e-3
-1.628, 2.850e-3
-1.627, 2.810e-3
-1.626, 2.767e-3
-1.625, 2.725e-3
-1.624, 2.687e-3
-1.623, 2.649e-3
-1.622, 2.608e-3
-1.621, 2.568e-3
-1.620, 2.533e-3
-1.619, 2.498e-3
-1.618, 2.461e-3
-1.617, 2.421e-3
-1.616, 2.385e-3
-1.615, 2.351e-3
-1.614, 2.316e-3
-1.613, 2.278e-3
-1.612, 2.241e-3
-1.611, 2.208e-3
-1.610, 2.177e-3
-1.609, 2.141e-3
-1.608, 2.106e-3
-1.607, 2.074e-3
-1.606, 2.045e-3
-1.605, 2.014e-3
-1.604, 1.980e-3
-1.603, 1.949e-3
-1.602, 1.918e-3
-1.601, 1.887e-3
-1.600, 1.855e-3
-1.599, 1.824e-3
-1.598, 1.795e-3
-1.597, 1.767e-3
-1.596, 1.736e-3
-1.595, 1.706e-3
-1.594, 1.678e-3
-1.593, 1.652e-3
-1.592, 1.626e-3
-1.591, 1.599e-3
-1.590, 1.572e-3
-1.589, 1.546e-3
-1.588, 1.520e-3
-1.587, 1.492e-3
-1.586, 1.466e-3
-1.585, 1.441e-3
-1.584, 1.417e-3
-1.583, 1.393e-3
-1.582, 1.366e-3
-1.581, 1.342e-3
-1.580, 1.318e-3
-1.579, 1.296e-3
-1.578, 1.272e-3
-1.577, 1.250e-3
-1.576, 1.228e-3
-1.575, 1.207e-3
-1.574, 1.186e-3
-1.573, 1.163e-3
-1.572, 1.140e-3
-1.571, 1.120e-3
-1.570, 1.099e-3
-1.569, 1.078e-3
-1.568, 1.058e-3
-1.567, 1.039e-3
-1.566, 1.020e-3
-1.565, 1.001e-3
-1.564, 9.816e-4
-1.563, 9.620e-4
-1.562, 9.438e-4
-1.561, 9.260e-4
-1.560, 9.078e-4
-1.559, 8.903e-4
-1.558, 8.735e-4
-1.557, 8.570e-4
-1.556, 8.396e-4
-1.555, 8.217e-4
-1.554, 8.033e-4
-1.553, 7.862e-4
-1.552, 7.705e-4
-1.551, 7.554e-4
-1.550, 7.410e-4
-1.549, 7.265e-4
-1.548, 7.116e-4
-1.547, 6.972e-4
-1.546, 6.833e-4
-1.545, 6.696e-4
-1.544, 6.554e-4
-1.543, 6.416e-4
-1.542, 6.286e-4
-1.541, 6.167e-4
-1.540, 6.045e-4
-1.539, 5.919e-4
-1.538, 5.792e-4
-1.537, 5.666e-4
-1.536, 5.548e-4
-1.535, 5.432e-4
-1.534, 5.317e-4
-1.533, 5.205e-4
-1.532, 5.099e-4
-1.531, 4.990e-4
-1.530, 4.880e-4
-1.529, 4.773e-4
-1.528, 4.671e-4
-1.527, 4.571e-4
-1.526, 4.473e-4
-1.525, 4.377e-4
-1.524, 4.287e-4
-1.523, 4.198e-4
-1.522, 4.111e-4
-1.521, 4.024e-4
-1.520, 3.938e-4
-1.519, 3.851e-4
-1.518, 3.764e-4
-1.517, 3.683e-4
-1.516, 3.605e-4
-1.515, 3.529e-4
-1.514, 3.453e-4
-1.513, 3.376e-4
-1.512, 3.304e-4
-1.511, 3.233e-4
-1.510, 3.164e-4
-1.509, 3.094e-4
-1.508, 3.024e-4
-1.507, 2.958e-4
-1.506, 2.889e-4
-1.505, 2.821e-4
-1.504, 2.756e-4
-1.503, 2.694e-4
-1.502, 2.637e-4
-1.501, 2.582e-4
-1.500, 2.526e-4
-1.499, 2.468e-4
-1.498, 2.410e-4
-1.497, 2.357e-4
-1.496, 2.306e-4
-1.495, 2.255e-4
-1.494, 2.207e-4
-1.493, 2.158e-4
-1.492, 2.111e-4
-1.491, 2.064e-4
-1.490, 2.018e-4
-1.489, 1.971e-4
-1.488, 1.927e-4
-1.487, 1.885e-4
-1.486, 1.844e-4
-1.485, 1.801e-4
-1.484, 1.761e-4
-1.483, 1.719e-4
-1.482, 1.680e-4
-1.481, 1.644e-4
-1.480, 1.608e-4
-1.479, 1.573e-4
-1.478, 1.537e-4
-1.477, 1.504e-4
-1.476, 1.471e-4
-1.475, 1.439e-4
-1.474, 1.406e-4
-1.473, 1.375e-4
-1.472, 1.344e-4
-1.471, 1.313e-4
-1.470, 1.284e-4
-1.469, 1.253e-4
-1.468, 1.223e-4
-1.467, 1.197e-4
-1.466, 1.172e-4
-1.465, 1.146e-4
-1.464, 1.121e-4
-1.463, 1.097e-4
-1.462, 1.074e-4
-1.461, 1.050e-4
-1.460, 1.028e-4
-1.459, 1.004e-4
-1.458, 9.810e-5
-1.457, 9.614e-5
-1.456, 9.389e-5
-1.455, 9.174e-5
-1.454, 8.982e-5
-1.453, 8.771e-5
-1.452, 8.590e-5
-1.451, 8.408e-5
-1.450, 8.222e-5
-1.449, 8.041e-5
-1.448, 7.868e-5
-1.447, 7.706e-5
-1.446, 7.526e-5
-1.445, 7.374e-5
-1.444, 7.213e-5
-1.443, 7.031e-5
-1.442, 6.899e-5
-1.441, 6.753e-5
-1.440, 6.599e-5
-1.439, 6.460e-5
-1.438, 6.317e-5
-1.437, 6.193e-5
-1.436, 6.054e-5
-1.435, 5.916e-5
-1.434, 5.785e-5
-1.433, 5.649e-5
-1.432, 5.544e-5
-1.431, 5.423e-5
-1.430, 5.303e-5
-1.429, 5.194e-5
-1.428, 5.078e-5
-1.427, 4.967e-5
-1.426, 4.863e-5
-1.425, 4.757e-5
-1.424, 4.655e-5
-1.423, 4.553e-5
-1.422, 4.461e-5
-1.421, 4.364e-5
-1.420, 4.268e-5
-1.419, 4.173e-5
-1.418, 4.079e-5
-1.417, 3.998e-5
-1.416, 3.917e-5
-1.415, 3.826e-5
-1.414, 3.742e-5
-1.413, 3.658e-5
-1.412, 3.595e-5
-1.411, 3.513e-5
-1.410, 3.438e-5
-1.409, 3.357e-5
-1.408, 3.287e-5
-1.407, 3.209e-5
-1.406, 3.140e-5
-1.405, 3.073e-5
-1.404, 3.012e-5
-1.403, 2.944e-5
-1.402, 2.880e-5
-1.401, 2.814e-5
-1.400, 2.758e-5
-1.399, 2.699e-5
-1.398, 2.624e-5
-1.397, 2.577e-5
-1.396, 2.524e-5
-1.395, 2.463e-5
-1.394, 2.408e-5
-1.393, 2.357e-5
-1.392, 2.304e-5
-1.391, 2.255e-5
-1.390, 2.204e-5
-1.389, 2.152e-5
-1.388, 2.111e-5
-1.387, 2.075e-5
-1.386, 2.025e-5
-1.385, 1.970e-5
-1.384, 1.936e-5
-1.383, 1.881e-5
-1.382, 1.851e-5
-1.381, 1.807e-5
-1.380, 1.763e-5
-1.379, 1.727e-5
-1.378, 1.685e-5
-1.377, 1.656e-5
-1.376, 1.620e-5
-1.375, 1.580e-5
-1.374, 1.545e-5
-1.373, 1.508e-5
-1.372, 1.481e-5
-1.371, 1.448e-5
-1.370, 1.407e-5
-1.369, 1.376e-5
-1.368, 1.325e-5
-1.367, 1.320e-5
-1.366, 1.281e-5
-1.365, 1.258e-5
-1.364, 1.226e-5
-1.363, 1.194e-5
-1.362, 1.175e-5
-1.361, 1.150e-5
-1.360, 1.115e-5
-1.359, 1.094e-5
-1.358, 1.063e-5
-1.357, 1.048e-5
-1.356, 1.026e-5
-1.355, 9.903e-6
-1.354, 9.627e-6
-1.353, 9.479e-6
-1.352, 9.272e-6
-1.351, 9.016e-6
-1.350, 8.848e-6
-1.349, 8.562e-6
-1.348, 8.374e-6
-1.347, 8.187e-6
-1.346, 8.039e-6
-1.345, 7.881e-6
-1.344, 7.575e-6
-1.343, 7.486e-6
-1.342, 7.358e-6
-1.341, 7.092e-6
-1.340, 6.904e-6
-1.339, 6.746e-6
-1.338, 6.519e-6
-1.337, 6.470e-6
-1.336, 6.332e-6
-1.335, 6.085e-6
-1.334, 5.908e-6
-1.333, 5.779e-6
-1.332, 5.631e-6
-1.331, 5.414e-6
-1.330, 5.217e-6
-1.329, 5.178e-6
-1.328, 4.990e-6
-1.327, 4.970e-6
-1.326, 4.763e-6
-1.325, 4.526e-6
-1.324, 4.477e-6
-1.323, 4.339e-6
-1.322, 4.319e-6
-1.321, 4.132e-6
-1.320, 4.043e-6
-1.319, 3.905e-6
-1.318, 3.767e-6
-1.317, 3.727e-6
-1.316, 3.560e-6
-1.315, 3.441e-6
-1.314, 3.343e-6
-1.313, 3.264e-6
-1.312, 3.185e-6
-1.311, 3.076e-6
-1.310, 2.948e-6
-1.309, 2.987e-6
-1.308, 2.800e-6
-1.307, 2.859e-6
-1.306, 2.731e-6
-1.305, 2.386e-6
-1.304, 2.524e-6
-1.303, 2.346e-6
-1.302, 2.317e-6
-1.301, 2.188e-6
-1.300, 2.080e-6
-1.299, 1.942e-6
-1.298, 1.912e-6
-1.297, 2.011e-6
-1.296, 1.882e-6
-1.295, 1.803e-6
-1.294, 1.734e-6
-1.293, 1.636e-6
-1.292, 1.567e-6
-1.291, 1.517e-6
-1.290, 1.429e-6
-1.289, 1.429e-6
-1.288, 1.290e-6
-1.287, 1.360e-6
-1.286, 1.192e-6
-1.285, 1.123e-6
-1.284, 1.083e-6
-1.283, 1.034e-6
-1.282, 1.123e-6
-1.281, 9.846e-7
-1.280, 8.366e-7
-1.279, 8.169e-7
-1.278, 6.886e-7
-1.277, 7.281e-7
-1.276, 7.281e-7
-1.275, 5.998e-7
-1.274, 6.590e-7
-1.273, 5.900e-7
-1.272, 5.703e-7
-1.271, 5.703e-7
-1.270, 4.420e-7
-1.269, 4.223e-7
-1.268, 4.124e-7
-1.267, 3.729e-7
-1.266, 2.249e-7
-1.265, 2.249e-7
-1.264, 1.657e-7
-1.263, 1.756e-7
-1.262, 1.756e-7
-1.261, 1.362e-7
-1.260, 7.695e-8
-1.259, 2.762e-8
-1.258, 2.762e-8
-1.257, 7.893e-9
-1.256, 4.736e-8
-1.255, -2.782e-7
-1.254, -1.302e-7
-1.253, -1.401e-7
-1.252, -9.077e-8
-1.251, -1.204e-7
-1.250, -2.486e-7
-1.249, -2.486e-7
-1.248, -3.473e-7
-1.247, -3.177e-7
-1.246, -3.374e-7
-1.245, -3.670e-7
-1.244, -3.078e-7
-1.243, -4.361e-7
-1.242, -3.177e-7
-1.241, -5.249e-7
-1.240, -4.262e-7
-1.239, -4.953e-7
-1.238, -4.854e-7
-1.237, -4.459e-7
-1.236, -4.854e-7
-1.235, -6.137e-7
-1.234, -5.446e-7
-1.233, -6.137e-7
-1.232, -5.249e-7
-1.231, -6.334e-7
-1.230, -4.755e-7
-1.229, -7.321e-7
-1.228, -8.011e-7
-1.227, -6.433e-7
-1.226, -6.926e-7
-1.225, -7.814e-7
-1.224, -7.715e-7
-1.223, -8.110e-7
-1.222, -7.912e-7
-1.221, -8.208e-7
-1.220, -9.195e-7
-1.219, -8.406e-7
-1.218, -8.011e-7
-1.217, -8.406e-7
-1.216, -8.406e-7
-1.215, -8.800e-7
-1.214, -9.491e-7
-1.213, -9.984e-7
-1.212, -9.294e-7
-1.211, -9.096e-7
-1.210, -9.491e-7
-1.209, -9.294e-7
-1.208, -9.787e-7
-1.207, -8.307e-7
-1.206, -9.195e-7
-1.205, -9.787e-7
-1.204, -1.008e-6
-1.203, -9.787e-7
-1.202, -9.886e-7
-1.201, -1.038e-6
-1.200, -1.058e-6
-1.199, -1.077e-6
-1.198, -1.018e-6
-1.197, -9.688e-7
-1.196, -9.984e-7
-1.195, -1.107e-6
-1.194, -1.127e-6
-1.193, -1.077e-6
-1.192, -9.491e-7
-1.191, -1.087e-6
-1.190, -1.146e-6
-1.189, -1.186e-6
-1.188, -1.097e-6
-1.187, -1.077e-6
-1.186, -1.117e-6
-1.185, -1.117e-6
-1.184, -1.117e-6
-1.183, -1.196e-6
-1.182, -1.028e-6
-1.181, -1.137e-6
-1.180, -1.127e-6
-1.179, -1.137e-6
-1.178, -1.196e-6
-1.177, -1.166e-6
-1.176, -1.196e-6
-1.175, -1.166e-6
-1.174, -1.156e-6
-1.173, -1.186e-6
-1.172, -1.067e-6
-1.171, -1.176e-6
-1.170, -1.206e-6
-1.169, -1.186e-6
-1.168, -1.206e-6
-1.167, -1.087e-6
-1.166, -1.196e-6
-1.165, -1.294e-6
-1.164, -1.186e-6
-1.163, -1.255e-6
-1.162, -1.255e-6
-1.161, -1.265e-6
-1.160, -1.275e-6
-1.159, -1.255e-6
-1.158, -1.285e-6
-1.157, -1.166e-6
-1.156, -1.275e-6
-1.155, -1.225e-6
-1.154, -1.127e-6
-1.153, -1.176e-6
-1.152, -1.255e-6
-1.151, -1.285e-6
-1.150, -1.285e-6
-1.149, -1.265e-6
-1.148, -1.304e-6
-1.147, -1.186e-6
-1.146, -1.215e-6
-1.145, -1.314e-6
-1.144, -1.334e-6
-1.143, -1.215e-6
-1.142, -1.196e-6
-1.141, -1.285e-6
-1.140, -1.275e-6
-1.139, -1.304e-6
-1.138, -1.393e-6
-1.137, -1.275e-6
-1.136, -1.265e-6
-1.135, -1.373e-6
-1.134, -1.294e-6
-1.133, -1.285e-6
-1.132, -1.275e-6
-1.131, -1.285e-6
-1.130, -1.314e-6
-1.129, -1.285e-6
-1.128, -1.383e-6
-1.127, -1.285e-6
-1.126, -1.511e-6
-1.125, -1.433e-6
-1.124, -1.423e-6
-1.123, -1.354e-6
-1.122, -1.363e-6
-1.121, -1.393e-6
-1.120, -1.383e-6
-1.119, -1.452e-6
-1.118, -1.433e-6
-1.117, -1.275e-6
-1.116, -1.383e-6
-1.115, -1.314e-6
-1.114, -1.452e-6
-1.113, -1.452e-6
-1.112, -1.354e-6
-1.111, -1.472e-6
-1.110, -1.442e-6
-1.109, -1.502e-6
-1.108, -1.502e-6
-1.107, -1.324e-6
-1.106, -1.423e-6
-1.105, -1.363e-6
-1.104, -1.433e-6
-1.103, -1.521e-6
-1.102, -1.403e-6
-1.101, -1.492e-6
-1.100, -1.423e-6
-1.099, -1.521e-6
-1.098, -1.413e-6
-1.097, -1.423e-6
-1.096, -1.462e-6
-1.095, -1.462e-6
-1.094, -1.472e-6
-1.093, -1.531e-6
-1.092, -1.403e-6
-1.091, -1.482e-6
-1.090, -1.511e-6
-1.089, -1.492e-6
-1.088, -1.571e-6
-1.087, -1.423e-6
-1.086, -1.679e-6
-1.085, -1.610e-6
-1.084, -1.581e-6
-1.083, -1.640e-6
-1.082, -1.423e-6
-1.081, -1.590e-6
-1.080, -1.590e-6
-1.079, -1.551e-6
-1.078, -1.699e-6
-1.077, -1.482e-6
-1.076, -1.521e-6
-1.075, -1.738e-6
-1.074, -1.699e-6
-1.073, -1.699e-6
-1.072, -1.620e-6
-1.071, -1.679e-6
-1.070, -1.669e-6
-1.069, -1.699e-6
-1.068, -1.689e-6
-1.067, -1.630e-6
-1.066, -1.748e-6
-1.065, -1.669e-6
-1.064, -1.679e-6
-1.063, -1.778e-6
-1.062, -1.689e-6
-1.061, -1.817e-6
-1.060, -1.748e-6
-1.059, -1.758e-6
-1.058, -1.778e-6
-1.057, -1.758e-6
-1.056, -1.817e-6
-1.055, -1.975e-6
-1.054, -1.807e-6
-1.053, -1.788e-6
-1.052, -1.758e-6
-1.051, -1.867e-6
-1.050, -1.847e-6
-1.049, -1.896e-6
-1.048, -1.867e-6
-1.047, -1.778e-6
-1.046, -1.906e-6
-1.045, -1.877e-6
-1.044, -1.965e-6
-1.043, -1.985e-6
-1.042, -1.867e-6
-1.041, -1.867e-6
-1.040, -1.916e-6
-1.039, -2.005e-6
-1.038, -1.946e-6
-1.037, -1.936e-6
-1.036, -1.985e-6
-1.035, -1.995e-6
-1.034, -2.044e-6
-1.033, -2.044e-6
-1.032, -1.965e-6
-1.031, -2.005e-6
-1.030, -1.995e-6
-1.029, -2.054e-6
-1.028, -2.054e-6
-1.027, -1.955e-6
-1.026, -2.153e-6
-1.025, -2.034e-6
-1.024, -2.222e-6
-1.023, -2.153e-6
-1.022, -2.113e-6
-1.021, -2.301e-6
-1.020, -2.113e-6
-1.019, -2.172e-6
-1.018, -2.261e-6
-1.017, -2.202e-6
-1.016, -2.212e-6
-1.015, -2.271e-6
-1.014, -2.251e-6
-1.013, -2.261e-6
-1.012, -2.172e-6
-1.011, -2.311e-6
-1.010, -2.271e-6
-1.009, -2.399e-6
-1.008, -2.281e-6
-1.007, -2.202e-6
-1.006, -2.291e-6
-1.005, -2.291e-6
-1.004, -2.390e-6
-1.003, -2.340e-6
-1.002, -2.202e-6
-1.001, -2.320e-6
