Apr. 5, 2025   18:38:21
Cyclic Voltammetry
File: c:/users/guazh/data/banditlqround7_x0exp994_r5/2025-03-28-exp992\exp992-2025-04-05t18_24_18-h2koh\exp992_cv_sr_200mvs_efin_-1600mv.bin
Data Source:  Experiment
Instrument Model:  CHI760E
Header: CV ran at 200 mVs
Note: 

Init E (V) = -1
High E (V) = -1
Low E (V) = -1.6
Final E (V) = -1
Init P/N = N
Scan Rate (V/s) = 0.2
Segment = 3
Sample Interval (V) = 0.001
Quiet Time (sec) = 2
Sensitivity (A/V) = 0.01
Comp R (ohm) = 1.9

Results:

Channel 1:
Segment 1:

Segment 2:

Segment 3:

Potential/V, Current/A

-1.000, -5.441e-5
-1.001, -4.965e-6
-1.002, 2.421e-5
-1.003, 4.891e-5
-1.004, 6.670e-5
-1.005, 7.687e-5
-1.006, 8.922e-5
-1.007, 1.012e-4
-1.008, 1.069e-4
-1.009, 1.142e-4
-1.010, 1.235e-4
-1.011, 1.276e-4
-1.012, 1.314e-4
-1.013, 1.391e-4
-1.014, 1.454e-4
-1.015, 1.471e-4
-1.016, 1.526e-4
-1.017, 1.599e-4
-1.018, 1.622e-4
-1.019, 1.656e-4
-1.020, 1.720e-4
-1.021, 1.737e-4
-1.022, 1.753e-4
-1.023, 1.820e-4
-1.024, 1.865e-4
-1.025, 1.858e-4
-1.026, 1.875e-4
-1.027, 1.917e-4
-1.028, 1.949e-4
-1.029, 1.979e-4
-1.030, 2.035e-4
-1.031, 2.035e-4
-1.032, 2.023e-4
-1.033, 2.074e-4
-1.034, 2.117e-4
-1.035, 2.119e-4
-1.036, 2.151e-4
-1.037, 2.185e-4
-1.038, 2.174e-4
-1.039, 2.189e-4
-1.040, 2.243e-4
-1.041, 2.262e-4
-1.042, 2.269e-4
-1.043, 2.319e-4
-1.044, 2.347e-4
-1.045, 2.335e-4
-1.046, 2.358e-4
-1.047, 2.402e-4
-1.048, 2.414e-4
-1.049, 2.436e-4
-1.050, 2.489e-4
-1.051, 2.499e-4
-1.052, 2.490e-4
-1.053, 2.522e-4
-1.054, 2.552e-4
-1.055, 2.554e-4
-1.056, 2.586e-4
-1.057, 2.614e-4
-1.058, 2.605e-4
-1.059, 2.621e-4
-1.060, 2.674e-4
-1.061, 2.670e-4
-1.062, 2.656e-4
-1.063, 2.706e-4
-1.064, 2.730e-4
-1.065, 2.726e-4
-1.066, 2.762e-4
-1.067, 2.808e-4
-1.068, 2.798e-4
-1.069, 2.790e-4
-1.070, 2.838e-4
-1.071, 2.854e-4
-1.072, 2.842e-4
-1.073, 2.876e-4
-1.074, 2.898e-4
-1.075, 2.892e-4
-1.076, 2.919e-4
-1.077, 2.943e-4
-1.078, 2.931e-4
-1.079, 2.938e-4
-1.080, 2.981e-4
-1.081, 2.994e-4
-1.082, 3.019e-4
-1.083, 3.080e-4
-1.084, 3.100e-4
-1.085, 3.060e-4
-1.086, 3.071e-4
-1.087, 3.111e-4
-1.088, 3.115e-4
-1.089, 3.136e-4
-1.090, 3.185e-4
-1.091, 3.188e-4
-1.092, 3.183e-4
-1.093, 3.216e-4
-1.094, 3.224e-4
-1.095, 3.226e-4
-1.096, 3.269e-4
-1.097, 3.328e-4
-1.098, 3.312e-4
-1.099, 3.304e-4
-1.100, 3.338e-4
-1.101, 3.362e-4
-1.102, 3.401e-4
-1.103, 3.450e-4
-1.104, 3.459e-4
-1.105, 3.432e-4
-1.106, 3.458e-4
-1.107, 3.512e-4
-1.108, 3.529e-4
-1.109, 3.541e-4
-1.110, 3.574e-4
-1.111, 3.552e-4
-1.112, 3.552e-4
-1.113, 3.648e-4
-1.114, 3.677e-4
-1.115, 3.625e-4
-1.116, 3.641e-4
-1.117, 3.686e-4
-1.118, 3.714e-4
-1.119, 3.733e-4
-1.120, 3.751e-4
-1.121, 3.715e-4
-1.122, 3.709e-4
-1.123, 3.781e-4
-1.124, 3.836e-4
-1.125, 3.837e-4
-1.126, 3.859e-4
-1.127, 3.876e-4
-1.128, 3.852e-4
-1.129, 3.866e-4
-1.130, 3.919e-4
-1.131, 3.933e-4
-1.132, 3.945e-4
-1.133, 3.997e-4
-1.134, 4.055e-4
-1.135, 4.065e-4
-1.136, 4.110e-4
-1.137, 4.153e-4
-1.138, 4.138e-4
-1.139, 4.118e-4
-1.140, 4.178e-4
-1.141, 4.170e-4
-1.142, 4.111e-4
-1.143, 4.178e-4
-1.144, 4.298e-4
-1.145, 4.347e-4
-1.146, 4.349e-4
-1.147, 4.319e-4
-1.148, 4.284e-4
-1.149, 4.298e-4
-1.150, 4.339e-4
-1.151, 4.345e-4
-1.152, 4.335e-4
-1.153, 4.397e-4
-1.154, 4.437e-4
-1.155, 4.442e-4
-1.156, 4.502e-4
-1.157, 4.550e-4
-1.158, 4.562e-4
-1.159, 4.566e-4
-1.160, 4.607e-4
-1.161, 4.625e-4
-1.162, 4.634e-4
-1.163, 4.703e-4
-1.164, 4.734e-4
-1.165, 4.711e-4
-1.166, 4.732e-4
-1.167, 4.777e-4
-1.168, 4.797e-4
-1.169, 4.841e-4
-1.170, 4.887e-4
-1.171, 4.869e-4
-1.172, 4.856e-4
-1.173, 4.915e-4
-1.174, 4.958e-4
-1.175, 4.967e-4
-1.176, 4.993e-4
-1.177, 5.030e-4
-1.178, 5.009e-4
-1.179, 4.999e-4
-1.180, 5.046e-4
-1.181, 5.062e-4
-1.182, 5.063e-4
-1.183, 5.109e-4
-1.184, 5.130e-4
-1.185, 5.119e-4
-1.186, 5.160e-4
-1.187, 5.222e-4
-1.188, 5.234e-4
-1.189, 5.261e-4
-1.190, 5.316e-4
-1.191, 5.327e-4
-1.192, 5.320e-4
-1.193, 5.360e-4
-1.194, 5.396e-4
-1.195, 5.403e-4
-1.196, 5.437e-4
-1.197, 5.478e-4
-1.198, 5.464e-4
-1.199, 5.477e-4
-1.200, 5.538e-4
-1.201, 5.548e-4
-1.202, 5.521e-4
-1.203, 5.554e-4
-1.204, 5.566e-4
-1.205, 5.557e-4
-1.206, 5.577e-4
-1.207, 5.649e-4
-1.208, 5.635e-4
-1.209, 5.580e-4
-1.210, 5.589e-4
-1.211, 5.595e-4
-1.212, 5.651e-4
-1.213, 5.781e-4
-1.214, 5.866e-4
-1.215, 5.860e-4
-1.216, 5.867e-4
-1.217, 5.895e-4
-1.218, 5.865e-4
-1.219, 5.841e-4
-1.220, 5.862e-4
-1.221, 5.853e-4
-1.222, 5.868e-4
-1.223, 5.930e-4
-1.224, 5.962e-4
-1.225, 5.956e-4
-1.226, 5.979e-4
-1.227, 6.021e-4
-1.228, 6.035e-4
-1.229, 6.050e-4
-1.230, 6.083e-4
-1.231, 6.082e-4
-1.232, 6.074e-4
-1.233, 6.124e-4
-1.234, 6.145e-4
-1.235, 6.110e-4
-1.236, 6.131e-4
-1.237, 6.164e-4
-1.238, 6.149e-4
-1.239, 6.130e-4
-1.240, 6.148e-4
-1.241, 6.145e-4
-1.242, 6.129e-4
-1.243, 6.163e-4
-1.244, 6.204e-4
-1.245, 6.238e-4
-1.246, 6.276e-4
-1.247, 6.261e-4
-1.248, 6.195e-4
-1.249, 6.161e-4
-1.250, 6.125e-4
-1.251, 6.060e-4
-1.252, 6.121e-4
-1.253, 6.262e-4
-1.254, 6.337e-4
-1.255, 6.303e-4
-1.256, 6.291e-4
-1.257, 6.332e-4
-1.258, 6.347e-4
-1.259, 6.387e-4
-1.260, 6.443e-4
-1.261, 6.419e-4
-1.262, 6.389e-4
-1.263, 6.466e-4
-1.264, 6.548e-4
-1.265, 6.549e-4
-1.266, 6.550e-4
-1.267, 6.576e-4
-1.268, 6.514e-4
-1.269, 6.461e-4
-1.270, 6.476e-4
-1.271, 6.504e-4
-1.272, 6.507e-4
-1.273, 6.535e-4
-1.274, 6.522e-4
-1.275, 6.484e-4
-1.276, 6.490e-4
-1.277, 6.535e-4
-1.278, 6.534e-4
-1.279, 6.533e-4
-1.280, 6.537e-4
-1.281, 6.461e-4
-1.282, 6.418e-4
-1.283, 6.456e-4
-1.284, 6.445e-4
-1.285, 6.423e-4
-1.286, 6.481e-4
-1.287, 6.540e-4
-1.288, 6.544e-4
-1.289, 6.530e-4
-1.290, 6.583e-4
-1.291, 6.574e-4
-1.292, 6.535e-4
-1.293, 6.574e-4
-1.294, 6.612e-4
-1.295, 6.620e-4
-1.296, 6.645e-4
-1.297, 6.682e-4
-1.298, 6.678e-4
-1.299, 6.678e-4
-1.300, 6.758e-4
-1.301, 6.804e-4
-1.302, 6.790e-4
-1.303, 6.783e-4
-1.304, 6.762e-4
-1.305, 6.760e-4
-1.306, 6.788e-4
-1.307, 6.791e-4
-1.308, 6.738e-4
-1.309, 6.717e-4
-1.310, 6.719e-4
-1.311, 6.705e-4
-1.312, 6.696e-4
-1.313, 6.760e-4
-1.314, 6.793e-4
-1.315, 6.776e-4
-1.316, 6.790e-4
-1.317, 6.826e-4
-1.318, 6.811e-4
-1.319, 6.824e-4
-1.320, 6.848e-4
-1.321, 6.862e-4
-1.322, 6.880e-4
-1.323, 6.900e-4
-1.324, 6.934e-4
-1.325, 6.950e-4
-1.326, 7.001e-4
-1.327, 7.048e-4
-1.328, 7.033e-4
-1.329, 7.030e-4
-1.330, 7.055e-4
-1.331, 7.073e-4
-1.332, 7.082e-4
-1.333, 7.138e-4
-1.334, 7.170e-4
-1.335, 7.172e-4
-1.336, 7.195e-4
-1.337, 7.243e-4
-1.338, 7.229e-4
-1.339, 7.229e-4
-1.340, 7.307e-4
-1.341, 7.338e-4
-1.342, 7.318e-4
-1.343, 7.346e-4
-1.344, 7.346e-4
-1.345, 7.340e-4
-1.346, 7.444e-4
-1.347, 7.517e-4
-1.348, 7.491e-4
-1.349, 7.450e-4
-1.350, 7.513e-4
-1.351, 7.559e-4
-1.352, 7.614e-4
-1.353, 7.713e-4
-1.354, 7.765e-4
-1.355, 7.798e-4
-1.356, 7.853e-4
-1.357, 7.916e-4
-1.358, 7.925e-4
-1.359, 7.957e-4
-1.360, 8.029e-4
-1.361, 8.092e-4
-1.362, 8.149e-4
-1.363, 8.261e-4
-1.364, 8.349e-4
-1.365, 8.374e-4
-1.366, 8.435e-4
-1.367, 8.534e-4
-1.368, 8.617e-4
-1.369, 8.673e-4
-1.370, 8.721e-4
-1.371, 8.781e-4
-1.372, 8.845e-4
-1.373, 8.958e-4
-1.374, 9.059e-4
-1.375, 9.134e-4
-1.376, 9.191e-4
-1.377, 9.255e-4
-1.378, 9.296e-4
-1.379, 9.399e-4
-1.380, 9.558e-4
-1.381, 9.626e-4
-1.382, 9.762e-4
-1.383, 9.942e-4
-1.384, 1.007e-3
-1.385, 1.014e-3
-1.386, 1.025e-3
-1.387, 1.037e-3
-1.388, 1.039e-3
-1.389, 1.042e-3
-1.390, 1.060e-3
-1.391, 1.076e-3
-1.392, 1.087e-3
-1.393, 1.103e-3
-1.394, 1.115e-3
-1.395, 1.126e-3
-1.396, 1.144e-3
-1.397, 1.163e-3
-1.398, 1.174e-3
-1.399, 1.188e-3
-1.400, 1.204e-3
-1.401, 1.215e-3
-1.402, 1.225e-3
-1.403, 1.241e-3
-1.404, 1.259e-3
-1.405, 1.274e-3
-1.406, 1.284e-3
-1.407, 1.295e-3
-1.408, 1.308e-3
-1.409, 1.329e-3
-1.410, 1.350e-3
-1.411, 1.370e-3
-1.412, 1.395e-3
-1.413, 1.414e-3
-1.414, 1.412e-3
-1.415, 1.417e-3
-1.416, 1.443e-3
-1.417, 1.473e-3
-1.418, 1.484e-3
-1.419, 1.488e-3
-1.420, 1.503e-3
-1.421, 1.529e-3
-1.422, 1.562e-3
-1.423, 1.587e-3
-1.424, 1.601e-3
-1.425, 1.602e-3
-1.426, 1.612e-3
-1.427, 1.643e-3
-1.428, 1.679e-3
-1.429, 1.699e-3
-1.430, 1.709e-3
-1.431, 1.715e-3
-1.432, 1.726e-3
-1.433, 1.746e-3
-1.434, 1.767e-3
-1.435, 1.782e-3
-1.436, 1.800e-3
-1.437, 1.822e-3
-1.438, 1.844e-3
-1.439, 1.879e-3
-1.440, 1.904e-3
-1.441, 1.918e-3
-1.442, 1.939e-3
-1.443, 1.979e-3
-1.444, 2.009e-3
-1.445, 2.017e-3
-1.446, 2.025e-3
-1.447, 2.048e-3
-1.448, 2.073e-3
-1.449, 2.099e-3
-1.450, 2.131e-3
-1.451, 2.154e-3
-1.452, 2.166e-3
-1.453, 2.182e-3
-1.454, 2.213e-3
-1.455, 2.240e-3
-1.456, 2.256e-3
-1.457, 2.272e-3
-1.458, 2.289e-3
-1.459, 2.329e-3
-1.460, 2.369e-3
-1.461, 2.373e-3
-1.462, 2.358e-3
-1.463, 2.363e-3
-1.464, 2.407e-3
-1.465, 2.464e-3
-1.466, 2.497e-3
-1.467, 2.510e-3
-1.468, 2.514e-3
-1.469, 2.538e-3
-1.470, 2.582e-3
-1.471, 2.616e-3
-1.472, 2.633e-3
-1.473, 2.636e-3
-1.474, 2.651e-3
-1.475, 2.690e-3
-1.476, 2.747e-3
-1.477, 2.781e-3
-1.478, 2.777e-3
-1.479, 2.781e-3
-1.480, 2.818e-3
-1.481, 2.866e-3
-1.482, 2.904e-3
-1.483, 2.939e-3
-1.484, 2.962e-3
-1.485, 2.979e-3
-1.486, 3.002e-3
-1.487, 3.036e-3
-1.488, 3.072e-3
-1.489, 3.106e-3
-1.490, 3.134e-3
-1.491, 3.143e-3
-1.492, 3.150e-3
-1.493, 3.187e-3
-1.494, 3.230e-3
-1.495, 3.261e-3
-1.496, 3.272e-3
-1.497, 3.277e-3
-1.498, 3.292e-3
-1.499, 3.319e-3
-1.500, 3.362e-3
-1.501, 3.386e-3
-1.502, 3.398e-3
-1.503, 3.408e-3
-1.504, 3.429e-3
-1.505, 3.459e-3
-1.506, 3.514e-3
-1.507, 3.585e-3
-1.508, 3.626e-3
-1.509, 3.638e-3
-1.510, 3.599e-3
-1.511, 3.590e-3
-1.512, 3.636e-3
-1.513, 3.663e-3
-1.514, 3.692e-3
-1.515, 3.737e-3
-1.516, 3.787e-3
-1.517, 3.831e-3
-1.518, 3.862e-3
-1.519, 3.887e-3
-1.520, 3.910e-3
-1.521, 3.934e-3
-1.522, 3.971e-3
-1.523, 3.998e-3
-1.524, 4.021e-3
-1.525, 4.024e-3
-1.526, 4.032e-3
-1.527, 4.066e-3
-1.528, 4.106e-3
-1.529, 4.130e-3
-1.530, 4.146e-3
-1.531, 4.169e-3
-1.532, 4.208e-3
-1.533, 4.257e-3
-1.534, 4.307e-3
-1.535, 4.331e-3
-1.536, 4.361e-3
-1.537, 4.396e-3
-1.538, 4.429e-3
-1.539, 4.455e-3
-1.540, 4.478e-3
-1.541, 4.505e-3
-1.542, 4.534e-3
-1.543, 4.560e-3
-1.544, 4.574e-3
-1.545, 4.575e-3
-1.546, 4.585e-3
-1.547, 4.603e-3
-1.548, 4.619e-3
-1.549, 4.639e-3
-1.550, 4.665e-3
-1.551, 4.700e-3
-1.552, 4.723e-3
-1.553, 4.744e-3
-1.554, 4.765e-3
-1.555, 4.793e-3
-1.556, 4.856e-3
-1.557, 4.916e-3
-1.558, 4.943e-3
-1.559, 4.954e-3
-1.560, 4.953e-3
-1.561, 4.965e-3
-1.562, 5.033e-3
-1.563, 5.138e-3
-1.564, 5.174e-3
-1.565, 5.170e-3
-1.566, 5.236e-3
-1.567, 5.263e-3
-1.568, 5.273e-3
-1.569, 5.292e-3
-1.570, 5.332e-3
-1.571, 5.381e-3
-1.572, 5.421e-3
-1.573, 5.443e-3
-1.574, 5.460e-3
-1.575, 5.466e-3
-1.576, 5.487e-3
-1.577, 5.498e-3
-1.578, 5.520e-3
-1.579, 5.556e-3
-1.580, 5.571e-3
-1.581, 5.586e-3
-1.582, 5.601e-3
-1.583, 5.631e-3
-1.584, 5.693e-3
-1.585, 5.770e-3
-1.586, 5.824e-3
-1.587, 5.842e-3
-1.588, 5.882e-3
-1.589, 5.914e-3
-1.590, 5.958e-3
-1.591, 5.994e-3
-1.592, 6.031e-3
-1.593, 6.053e-3
-1.594, 6.084e-3
-1.595, 6.098e-3
-1.596, 6.136e-3
-1.597, 6.202e-3
-1.598, 6.255e-3
-1.599, 6.268e-3
-1.600, 6.215e-3
-1.599, 6.128e-3
-1.598, 6.065e-3
-1.597, 5.991e-3
-1.596, 5.927e-3
-1.595, 5.881e-3
-1.594, 5.828e-3
-1.593, 5.757e-3
-1.592, 5.656e-3
-1.591, 5.544e-3
-1.590, 5.489e-3
-1.589, 5.469e-3
-1.588, 5.432e-3
-1.587, 5.403e-3
-1.586, 5.386e-3
-1.585, 5.339e-3
-1.584, 5.287e-3
-1.583, 5.251e-3
-1.582, 5.189e-3
-1.581, 5.102e-3
-1.580, 5.031e-3
-1.579, 5.004e-3
-1.578, 4.988e-3
-1.577, 4.954e-3
-1.576, 4.906e-3
-1.575, 4.830e-3
-1.574, 4.738e-3
-1.573, 4.697e-3
-1.572, 4.681e-3
-1.571, 4.653e-3
-1.570, 4.606e-3
-1.569, 4.514e-3
-1.568, 4.430e-3
-1.567, 4.375e-3
-1.566, 4.369e-3
-1.565, 4.370e-3
-1.564, 4.301e-3
-1.563, 4.261e-3
-1.562, 4.217e-3
-1.561, 4.197e-3
-1.560, 4.153e-3
-1.559, 4.094e-3
-1.558, 4.022e-3
-1.557, 3.968e-3
-1.556, 3.926e-3
-1.555, 3.908e-3
-1.554, 3.881e-3
-1.553, 3.849e-3
-1.552, 3.816e-3
-1.551, 3.797e-3
-1.550, 3.736e-3
-1.549, 3.690e-3
-1.548, 3.656e-3
-1.547, 3.631e-3
-1.546, 3.601e-3
-1.545, 3.572e-3
-1.544, 3.542e-3
-1.543, 3.504e-3
-1.542, 3.454e-3
-1.541, 3.401e-3
-1.540, 3.352e-3
-1.539, 3.309e-3
-1.538, 3.270e-3
-1.537, 3.240e-3
-1.536, 3.203e-3
-1.535, 3.158e-3
-1.534, 3.130e-3
-1.533, 3.097e-3
-1.532, 3.058e-3
-1.531, 3.020e-3
-1.530, 2.987e-3
-1.529, 2.956e-3
-1.528, 2.930e-3
-1.527, 2.900e-3
-1.526, 2.875e-3
-1.525, 2.854e-3
-1.524, 2.840e-3
-1.523, 2.818e-3
-1.522, 2.775e-3
-1.521, 2.730e-3
-1.520, 2.693e-3
-1.519, 2.663e-3
-1.518, 2.636e-3
-1.517, 2.603e-3
-1.516, 2.567e-3
-1.515, 2.529e-3
-1.514, 2.507e-3
-1.513, 2.486e-3
-1.512, 2.465e-3
-1.511, 2.439e-3
-1.510, 2.407e-3
-1.509, 2.371e-3
-1.508, 2.345e-3
-1.507, 2.325e-3
-1.506, 2.293e-3
-1.505, 2.262e-3
-1.504, 2.231e-3
-1.503, 2.203e-3
-1.502, 2.159e-3
-1.501, 2.124e-3
-1.500, 2.115e-3
-1.499, 2.109e-3
-1.498, 2.088e-3
-1.497, 2.058e-3
-1.496, 2.024e-3
-1.495, 1.993e-3
-1.494, 1.969e-3
-1.493, 1.948e-3
-1.492, 1.916e-3
-1.491, 1.876e-3
-1.490, 1.851e-3
-1.489, 1.828e-3
-1.488, 1.814e-3
-1.487, 1.817e-3
-1.486, 1.802e-3
-1.485, 1.766e-3
-1.484, 1.729e-3
-1.483, 1.703e-3
-1.482, 1.688e-3
-1.481, 1.675e-3
-1.480, 1.658e-3
-1.479, 1.633e-3
-1.478, 1.608e-3
-1.477, 1.592e-3
-1.476, 1.567e-3
-1.475, 1.524e-3
-1.474, 1.507e-3
-1.473, 1.512e-3
-1.472, 1.490e-3
-1.471, 1.466e-3
-1.470, 1.442e-3
-1.469, 1.419e-3
-1.468, 1.402e-3
-1.467, 1.386e-3
-1.466, 1.361e-3
-1.465, 1.337e-3
-1.464, 1.323e-3
-1.463, 1.319e-3
-1.462, 1.310e-3
-1.461, 1.292e-3
-1.460, 1.271e-3
-1.459, 1.252e-3
-1.458, 1.230e-3
-1.457, 1.216e-3
-1.456, 1.199e-3
-1.455, 1.175e-3
-1.454, 1.152e-3
-1.453, 1.133e-3
-1.452, 1.111e-3
-1.451, 1.092e-3
-1.450, 1.083e-3
-1.449, 1.069e-3
-1.448, 1.052e-3
-1.447, 1.039e-3
-1.446, 1.019e-3
-1.445, 9.989e-4
-1.444, 9.836e-4
-1.443, 9.730e-4
-1.442, 9.595e-4
-1.441, 9.432e-4
-1.440, 9.316e-4
-1.439, 9.210e-4
-1.438, 9.006e-4
-1.437, 8.825e-4
-1.436, 8.698e-4
-1.435, 8.558e-4
-1.434, 8.469e-4
-1.433, 8.396e-4
-1.432, 8.256e-4
-1.431, 8.060e-4
-1.430, 7.904e-4
-1.429, 7.743e-4
-1.428, 7.624e-4
-1.427, 7.527e-4
-1.426, 7.404e-4
-1.425, 7.295e-4
-1.424, 7.234e-4
-1.423, 7.138e-4
-1.422, 6.980e-4
-1.421, 6.798e-4
-1.420, 6.652e-4
-1.419, 6.512e-4
-1.418, 6.361e-4
-1.417, 6.286e-4
-1.416, 6.221e-4
-1.415, 6.126e-4
-1.414, 6.013e-4
-1.413, 5.907e-4
-1.412, 5.775e-4
-1.411, 5.681e-4
-1.410, 5.567e-4
-1.409, 5.425e-4
-1.408, 5.301e-4
-1.407, 5.256e-4
-1.406, 5.200e-4
-1.405, 5.070e-4
-1.404, 4.943e-4
-1.403, 4.878e-4
-1.402, 4.799e-4
-1.401, 4.706e-4
-1.400, 4.632e-4
-1.399, 4.517e-4
-1.398, 4.407e-4
-1.397, 4.341e-4
-1.396, 4.270e-4
-1.395, 4.168e-4
-1.394, 4.084e-4
-1.393, 4.008e-4
-1.392, 3.908e-4
-1.391, 3.816e-4
-1.390, 3.732e-4
-1.389, 3.629e-4
-1.388, 3.528e-4
-1.387, 3.501e-4
-1.386, 3.453e-4
-1.385, 3.316e-4
-1.384, 3.193e-4
-1.383, 3.116e-4
-1.382, 3.079e-4
-1.381, 3.063e-4
-1.380, 3.023e-4
-1.379, 2.916e-4
-1.378, 2.775e-4
-1.377, 2.725e-4
-1.376, 2.713e-4
-1.375, 2.653e-4
-1.374, 2.582e-4
-1.373, 2.522e-4
-1.372, 2.432e-4
-1.371, 2.351e-4
-1.370, 2.320e-4
-1.369, 2.245e-4
-1.368, 2.162e-4
-1.367, 2.119e-4
-1.366, 2.077e-4
-1.365, 1.986e-4
-1.364, 1.919e-4
-1.363, 1.874e-4
-1.362, 1.802e-4
-1.361, 1.739e-4
-1.360, 1.720e-4
-1.359, 1.662e-4
-1.358, 1.584e-4
-1.357, 1.551e-4
-1.356, 1.517e-4
-1.355, 1.455e-4
-1.354, 1.414e-4
-1.353, 1.392e-4
-1.352, 1.317e-4
-1.351, 1.242e-4
-1.350, 1.214e-4
-1.349, 1.172e-4
-1.348, 1.097e-4
-1.347, 1.071e-4
-1.346, 1.044e-4
-1.345, 9.814e-5
-1.344, 9.461e-5
-1.343, 9.272e-5
-1.342, 8.718e-5
-1.341, 8.170e-5
-1.340, 7.897e-5
-1.339, 7.481e-5
-1.338, 6.786e-5
-1.337, 6.547e-5
-1.336, 6.416e-5
-1.335, 5.854e-5
-1.334, 5.394e-5
-1.333, 5.306e-5
-1.332, 4.727e-5
-1.331, 4.183e-5
-1.330, 4.063e-5
-1.329, 3.745e-5
-1.328, 3.233e-5
-1.327, 3.071e-5
-1.326, 2.817e-5
-1.325, 2.288e-5
-1.324, 1.939e-5
-1.323, 1.909e-5
-1.322, 1.414e-5
-1.321, 9.351e-6
-1.320, 8.838e-6
-1.319, 6.135e-6
-1.318, 1.044e-6
-1.317, 1.855e-7
-1.316, -1.679e-6
-1.315, -7.214e-6
-1.314, -1.046e-5
-1.313, -1.052e-5
-1.312, -1.404e-5
-1.311, -1.824e-5
-1.310, -1.817e-5
-1.309, -2.087e-5
-1.308, -2.566e-5
-1.307, -2.625e-5
-1.306, -2.717e-5
-1.305, -3.213e-5
-1.304, -3.418e-5
-1.303, -3.431e-5
-1.302, -3.856e-5
-1.301, -4.199e-5
-1.300, -4.202e-5
-1.299, -4.399e-5
-1.298, -4.833e-5
-1.297, -4.904e-5
-1.296, -4.896e-5
-1.295, -5.350e-5
-1.294, -5.578e-5
-1.293, -5.510e-5
-1.292, -5.849e-5
-1.291, -6.197e-5
-1.290, -6.149e-5
-1.289, -6.373e-5
-1.288, -6.774e-5
-1.287, -6.773e-5
-1.286, -6.805e-5
-1.285, -7.145e-5
-1.284, -7.371e-5
-1.283, -7.344e-5
-1.282, -7.669e-5
-1.281, -8.012e-5
-1.280, -8.018e-5
-1.279, -8.147e-5
-1.278, -8.515e-5
-1.277, -8.509e-5
-1.276, -8.510e-5
-1.275, -8.957e-5
-1.274, -9.145e-5
-1.273, -9.028e-5
-1.272, -9.228e-5
-1.271, -9.450e-5
-1.270, -9.346e-5
-1.269, -9.474e-5
-1.268, -9.978e-5
-1.267, -9.953e-5
-1.266, -9.903e-5
-1.265, -1.027e-4
-1.264, -1.045e-4
-1.263, -1.037e-4
-1.262, -1.067e-4
-1.261, -1.097e-4
-1.260, -1.096e-4
-1.259, -1.114e-4
-1.258, -1.168e-4
-1.257, -1.175e-4
-1.256, -1.165e-4
-1.255, -1.178e-4
-1.254, -1.181e-4
-1.253, -1.167e-4
-1.252, -1.208e-4
-1.251, -1.243e-4
-1.250, -1.223e-4
-1.249, -1.224e-4
-1.248, -1.251e-4
-1.247, -1.246e-4
-1.246, -1.252e-4
-1.245, -1.281e-4
-1.244, -1.285e-4
-1.243, -1.271e-4
-1.242, -1.312e-4
-1.241, -1.361e-4
-1.240, -1.351e-4
-1.239, -1.334e-4
-1.238, -1.326e-4
-1.237, -1.304e-4
-1.236, -1.344e-4
-1.235, -1.420e-4
-1.234, -1.443e-4
-1.233, -1.422e-4
-1.232, -1.438e-4
-1.231, -1.475e-4
-1.230, -1.475e-4
-1.229, -1.512e-4
-1.228, -1.546e-4
-1.227, -1.529e-4
-1.226, -1.521e-4
-1.225, -1.557e-4
-1.224, -1.575e-4
-1.223, -1.571e-4
-1.222, -1.598e-4
-1.221, -1.621e-4
-1.220, -1.600e-4
-1.219, -1.609e-4
-1.218, -1.638e-4
-1.217, -1.633e-4
-1.216, -1.626e-4
-1.215, -1.657e-4
-1.214, -1.672e-4
-1.213, -1.658e-4
-1.212, -1.693e-4
-1.211, -1.720e-4
-1.210, -1.695e-4
-1.209, -1.698e-4
-1.208, -1.722e-4
-1.207, -1.718e-4
-1.206, -1.711e-4
-1.205, -1.739e-4
-1.204, -1.765e-4
-1.203, -1.757e-4
-1.202, -1.784e-4
-1.201, -1.816e-4
-1.200, -1.812e-4
-1.199, -1.836e-4
-1.198, -1.881e-4
-1.197, -1.879e-4
-1.196, -1.879e-4
-1.195, -1.915e-4
-1.194, -1.933e-4
-1.193, -1.933e-4
-1.192, -1.960e-4
-1.191, -2.001e-4
-1.190, -2.000e-4
-1.189, -2.023e-4
-1.188, -2.069e-4
-1.187, -2.067e-4
-1.186, -2.064e-4
-1.185, -2.108e-4
-1.184, -2.113e-4
-1.183, -2.097e-4
-1.182, -2.132e-4
-1.181, -2.164e-4
-1.180, -2.157e-4
-1.179, -2.165e-4
-1.178, -2.225e-4
-1.177, -2.223e-4
-1.176, -2.207e-4
-1.175, -2.260e-4
-1.174, -2.282e-4
-1.173, -2.273e-4
-1.172, -2.297e-4
-1.171, -2.327e-4
-1.170, -2.316e-4
-1.169, -2.341e-4
-1.168, -2.385e-4
-1.167, -2.392e-4
-1.166, -2.396e-4
-1.165, -2.437e-4
-1.164, -2.456e-4
-1.163, -2.452e-4
-1.162, -2.480e-4
-1.161, -2.530e-4
-1.160, -2.524e-4
-1.159, -2.549e-4
-1.158, -2.609e-4
-1.157, -2.614e-4
-1.156, -2.615e-4
-1.155, -2.679e-4
-1.154, -2.745e-4
-1.153, -2.754e-4
-1.152, -2.793e-4
-1.151, -2.834e-4
-1.150, -2.848e-4
-1.149, -2.856e-4
-1.148, -2.908e-4
-1.147, -2.930e-4
-1.146, -2.953e-4
-1.145, -3.021e-4
-1.144, -3.053e-4
-1.143, -3.037e-4
-1.142, -3.041e-4
-1.141, -3.077e-4
-1.140, -3.117e-4
-1.139, -3.164e-4
-1.138, -3.211e-4
-1.137, -3.204e-4
-1.136, -3.210e-4
-1.135, -3.287e-4
-1.134, -3.342e-4
-1.133, -3.322e-4
-1.132, -3.354e-4
-1.131, -3.418e-4
-1.130, -3.465e-4
-1.129, -3.523e-4
-1.128, -3.581e-4
-1.127, -3.597e-4
-1.126, -3.616e-4
-1.125, -3.687e-4
-1.124, -3.749e-4
-1.123, -3.754e-4
-1.122, -3.794e-4
-1.121, -3.852e-4
-1.120, -3.884e-4
-1.119, -3.940e-4
-1.118, -4.021e-4
-1.117, -4.052e-4
-1.116, -4.061e-4
-1.115, -4.081e-4
-1.114, -4.115e-4
-1.113, -4.143e-4
-1.112, -4.226e-4
-1.111, -4.317e-4
-1.110, -4.336e-4
-1.109, -4.365e-4
-1.108, -4.435e-4
-1.107, -4.492e-4
-1.106, -4.555e-4
-1.105, -4.621e-4
-1.104, -4.651e-4
-1.103, -4.694e-4
-1.102, -4.789e-4
-1.101, -4.895e-4
-1.100, -4.919e-4
-1.099, -4.908e-4
-1.098, -4.890e-4
-1.097, -4.915e-4
-1.096, -5.036e-4
-1.095, -5.198e-4
-1.094, -5.285e-4
-1.093, -5.268e-4
-1.092, -5.320e-4
-1.091, -5.382e-4
-1.090, -5.408e-4
-1.089, -5.438e-4
-1.088, -5.474e-4
-1.087, -5.457e-4
-1.086, -5.455e-4
-1.085, -5.546e-4
-1.084, -5.676e-4
-1.083, -5.768e-4
-1.082, -5.866e-4
-1.081, -5.936e-4
-1.080, -5.934e-4
-1.079, -5.980e-4
-1.078, -6.080e-4
-1.077, -6.141e-4
-1.076, -6.166e-4
-1.075, -6.211e-4
-1.074, -6.240e-4
-1.073, -6.268e-4
-1.072, -6.362e-4
-1.071, -6.483e-4
-1.070, -6.533e-4
-1.069, -6.554e-4
-1.068, -6.583e-4
-1.067, -6.582e-4
-1.066, -6.601e-4
-1.065, -6.708e-4
-1.064, -6.808e-4
-1.063, -6.850e-4
-1.062, -6.912e-4
-1.061, -6.963e-4
-1.060, -6.986e-4
-1.059, -7.049e-4
-1.058, -7.164e-4
-1.057, -7.210e-4
-1.056, -7.234e-4
-1.055, -7.316e-4
-1.054, -7.372e-4
-1.053, -7.400e-4
-1.052, -7.451e-4
-1.051, -7.496e-4
-1.050, -7.458e-4
-1.049, -7.439e-4
-1.048, -7.515e-4
-1.047, -7.584e-4
-1.046, -7.639e-4
-1.045, -7.715e-4
-1.044, -7.783e-4
-1.043, -7.851e-4
-1.042, -7.970e-4
-1.041, -8.047e-4
-1.040, -8.042e-4
-1.039, -8.093e-4
-1.038, -8.196e-4
-1.037, -8.260e-4
-1.036, -8.332e-4
-1.035, -8.392e-4
-1.034, -8.407e-4
-1.033, -8.425e-4
-1.032, -8.489e-4
-1.031, -8.528e-4
-1.030, -8.526e-4
-1.029, -8.577e-4
-1.028, -8.667e-4
-1.027, -8.719e-4
-1.026, -8.743e-4
-1.025, -8.800e-4
-1.024, -8.855e-4
-1.023, -8.881e-4
-1.022, -8.962e-4
-1.021, -9.066e-4
-1.020, -9.131e-4
-1.019, -9.194e-4
-1.018, -9.264e-4
-1.017, -9.274e-4
-1.016, -9.272e-4
-1.015, -9.308e-4
-1.014, -9.321e-4
-1.013, -9.317e-4
-1.012, -9.377e-4
-1.011, -9.496e-4
-1.010, -9.562e-4
-1.009, -9.596e-4
-1.008, -9.649e-4
-1.007, -9.688e-4
-1.006, -9.733e-4
-1.005, -9.841e-4
-1.004, -9.988e-4
-1.003, -1.010e-3
-1.002, -1.017e-3
-1.001, -1.023e-3
