Potential V vs RHE, Current mA cm-2
0.013299999999999867,0.5647527509061226
0.012299999999999978,-0.5255652478998613
0.011299999999999866,-1.3980177065266295
0.010299999999999976,-2.1390434853959355
0.009299999999999864,-2.794054817233447
0.008299999999999974,-3.361354048479327
0.007299999999999862,-3.884797229429391
0.006299999999999972,-4.364384360083638
0.00529999999999986,-4.756259390146253
0.0042999999999999705,-5.0618370309171015
0.0032999999999998586,-5.411270721983764
0.0022999999999999687,-5.672992312458796
0.0012999999999998568,-5.977155241929781
0.00029999999999996696,-6.196435493408861
-0.000700000000000145,-6.414301033588076
-0.0017000000000000348,-6.632166573767292
-0.0027000000000001467,-6.893888164242324
-0.0037000000000000366,-7.111753704421539
-0.0047000000000001485,-7.28576319430494
-0.005700000000000038,-7.461187395488204
-0.00670000000000015,-7.635196885371603
-0.00770000000000004,-7.7653503249591855
-0.008700000000000152,-7.896918475846635
-0.009700000000000042,-7.984630576438266
-0.010700000000000154,-8.158640066321666
-0.011700000000000044,-8.202496116617484
-0.012700000000000156,-8.332649556205066
-0.013700000000000045,-8.4203616567967
-0.014700000000000157,-8.508073757388331
-0.015700000000000047,-8.638227196975913
-0.01670000000000016,-8.725939297567548
-0.01770000000000005,-8.812236686859313
-0.01870000000000016,-8.943804837746763
-0.01970000000000005,-8.987660888042578
-0.020700000000000163,-9.11781432763016
-0.021700000000000053,-9.205526428221793
-0.022700000000000164,-9.293238528813426
-0.023700000000000054,-9.335679867809377
-0.024700000000000166,-9.423391968401008
-0.025700000000000056,-9.511104068992642
-0.026700000000000168,-9.59740145828441
-0.027700000000000058,-9.685113558876042
-0.02870000000000017,-9.772825659467674
-0.02970000000000006,-9.85912304875944
-0.03070000000000017,-9.946835149351072
-0.03170000000000006,-10.034547249942705
-0.03270000000000017,-10.120844639234473
-0.03370000000000006,-10.164700689530287
-0.034700000000000175,-10.25241279012192
-0.035700000000000065,-10.296268840417738
-0.03670000000000018,-10.340124890713554
-0.03770000000000007,-10.382566229709504
-0.03870000000000018,-10.42642228000532
-0.03970000000000007,-10.470278330301136
-0.04070000000000018,-10.514134380596953
-0.04170000000000007,-10.557990430892769
-0.04270000000000018,-10.601846481188586
-0.04370000000000007,-10.644287820184536
-0.044700000000000184,-10.688143870480351
-0.045700000000000074,-10.731999920776168
-0.046700000000000186,-10.775855971071984
-0.047700000000000076,-10.863568071663616
-0.04870000000000019,-10.906009410659568
-0.04970000000000008,-10.993721511251199
-0.05070000000000019,-11.081433611842833
-0.05170000000000008,-11.1677310011346
-0.05270000000000019,-11.211587051430415
-0.05370000000000008,-11.255443101726232
-0.05470000000000019,-11.343155202317865
-0.05570000000000008,-11.42945259160963
-0.056700000000000195,-11.517164692201263
-0.057700000000000085,-11.56102074249708
-0.058700000000000196,-11.647318131788847
-0.059700000000000086,-11.691174182084664
-0.0607000000000002,-11.73503023238048
-0.06170000000000009,-11.778886282676295
-0.0627000000000002,-11.82274233297211
-0.06370000000000009,-11.86659838326793
-0.0647000000000002,-11.909039722263879
-0.06570000000000009,-11.952895772559694
-0.0667000000000002,-12.040607873151327
-0.0677000000000001,-12.12831997374296
-0.0687000000000002,-12.258473413330542
-0.0697000000000001,-12.390041564217992
-0.07070000000000021,-12.520195003805576
-0.0717000000000001,-12.607907104397206
-0.07270000000000021,-12.694204493688973
-0.0737000000000001,-12.73806054398479
-0.07470000000000021,-12.781916594280606
-0.0757000000000001,-12.825772644576423
-0.07670000000000021,-12.869628694872238
-0.0777000000000001,-12.869628694872238
-0.07870000000000021,-12.913484745168056
-0.0797000000000001,-12.913484745168056
-0.08070000000000022,-12.913484745168056
-0.0817000000000001,-12.955926084164007
-0.08270000000000022,-12.955926084164007
-0.08370000000000011,-13.043638184755638
-0.08470000000000022,-13.087494235051453
-0.08570000000000011,-13.13135028534727
-0.08670000000000022,-13.217647674639037
-0.08770000000000011,-13.30535977523067
-0.08870000000000022,-13.349215825526485
-0.08970000000000011,-13.436927926118118
-0.09070000000000022,-13.523225315409885
-0.09170000000000011,-13.610937416001518
-0.09270000000000023,-13.654793466297335
-0.09370000000000012,-13.698649516593148
-0.09470000000000023,-13.784946905884919
-0.09570000000000012,-13.828802956180734
-0.09670000000000023,-13.916515056772363
-0.09770000000000012,-14.002812446064135
-0.09870000000000023,-14.046668496359947
-0.09970000000000012,-14.090524546655764
-0.10070000000000023,-14.175407224647667
-0.10170000000000012,-14.175407224647667
-0.10270000000000024,-14.217848563643619
-0.10370000000000013,-14.26028990263957
-0.10470000000000024,-14.217848563643619
-0.10570000000000013,-14.26028990263957
-0.10670000000000024,-14.26028990263957
-0.10770000000000013,-14.30273124163552
-0.10870000000000024,-14.401761032626075
-0.10970000000000013,-14.529085049613924
-0.11070000000000024,-14.65640906660178
-0.11170000000000013,-14.783733083589633
-0.11270000000000002,-14.868615761581536
-0.11370000000000013,-14.967645552572087
-0.11470000000000002,-15.05252823056399
-0.11570000000000014,-15.137410908555893
-0.11670000000000003,-15.222293586547794
-0.11770000000000014,-15.307176264539699
-0.11870000000000003,-15.349617603535648
-0.11970000000000014,-15.448647394526201
-0.12070000000000003,-15.491088733522153
-0.12170000000000014,-15.575971411514052
-0.12270000000000003,-15.618412750510005
-0.12370000000000014,-15.70329542850191
-0.12470000000000003,-15.74573676749786
-0.12570000000000014,-15.78817810649381
-0.12670000000000003,-15.830619445489761
-0.12770000000000015,-15.87306078448571
-0.12870000000000004,-15.91550212348166
-0.12970000000000015,-15.972090575476265
-0.13070000000000004,-15.972090575476265
-0.13170000000000015,-16.056973253468165
-0.13270000000000004,-16.056973253468165
-0.13370000000000015,-16.099414592464115
-0.13470000000000004,-16.141855931460068
-0.13570000000000015,-16.22673860945197
-0.13670000000000004,-16.311621287443874
-0.13770000000000016,-16.396503965435777
-0.13870000000000005,-16.495533756426326
-0.13970000000000016,-16.580416434418233
-0.14070000000000005,-16.665299112410132
-0.14170000000000016,-16.750181790402035
-0.14270000000000005,-16.792623129397985
-0.14370000000000016,-16.835064468393938
-0.14470000000000005,-16.877505807389888
-0.14570000000000016,-16.919947146385837
-0.14670000000000005,-16.962388485381787
-0.14770000000000016,-17.018976937376394
-0.14870000000000005,-17.103859615368293
-0.14970000000000017,-17.146300954364243
-0.15070000000000006,-17.231183632356142
-0.15170000000000017,-17.316066310348052
-0.15270000000000006,-17.40094898833995
-0.15370000000000017,-17.48583166633185
-0.15470000000000006,-17.542420118326454
-0.15570000000000017,-17.584861457322408
-0.15670000000000006,-17.669744135314307
-0.15770000000000017,-17.71218547431026
-0.15870000000000006,-17.75462681330621
-0.15970000000000018,-17.839509491298113
-0.16070000000000007,-17.881950830294063
-0.16170000000000018,-17.966833508285966
-0.16270000000000007,-18.06586329927652
-0.16370000000000018,-18.19318731626437
-0.16470000000000007,-18.27806999425627
-0.16570000000000018,-18.362952672248177
-0.16670000000000007,-18.44783535024008
-0.16770000000000018,-18.49027668923603
-0.16870000000000007,-18.589306480226583
-0.16970000000000018,-18.631747819222536
-0.17070000000000007,-18.674189158218486
-0.17170000000000019,-18.716630497214435
-0.17270000000000008,-18.716630497214435
-0.1737000000000002,-18.759071836210385
-0.17470000000000008,-18.843954514202288
-0.1757000000000002,-18.88639585319824
-0.17670000000000008,-18.97127853119014
-0.1777000000000002,-19.056161209182044
-0.17870000000000008,-19.112749661176647
-0.1797000000000002,-19.197632339168546
-0.18070000000000008,-19.2400736781645
-0.1817000000000002,-19.3249563561564
-0.18270000000000008,-19.367397695152352
-0.1837000000000002,-19.452280373144255
-0.1847000000000001,-19.49472171214021
-0.1857000000000002,-19.579604390132108
-0.1867000000000001,-19.636192842126707
-0.1877000000000002,-19.678634181122664
-0.1887000000000001,-19.763516859114564
-0.1897000000000002,-19.805958198110513
-0.1907000000000001,-19.93328221509837
-0.1917000000000001,-19.97572355409432
-0.19269999999999998,-20.06060623208622
-0.1937000000000001,-20.10304757108217
-0.19469999999999998,-20.159636023076775
-0.1957000000000001,-20.202077362072725
-0.19669999999999999,-20.244518701068674
-0.1977000000000001,-20.329401379060574
-0.1987,-20.371842718056527
-0.1997000000000001,-20.456725396048434
-0.2007,-20.499166735044383
-0.2017000000000001,-20.626490752032236
-0.2027,-20.683079204026836
-0.2037000000000001,-20.810403221014692
-0.2047,-20.89528589900659
-0.2057000000000001,-21.022609915994444
-0.2067,-21.022609915994444
-0.2077000000000001,-21.065051254990397
-0.2087,-21.065051254990397
-0.2097000000000001,-21.065051254990397
-0.2107,-21.107492593986347
-0.2117000000000001,-21.2065223849769
-0.2127,-21.248963723972853
-0.2137000000000001,-21.333846401964752
-0.2147,-21.418729079956652
-0.2157000000000001,-21.54605309694451
-0.2167,-21.67337711393236
-0.21770000000000012,-21.814848243918867
-0.2187,-21.94217226090672
-0.21970000000000012,-22.069496277894572
-0.2207,-22.15437895588647
-0.22170000000000012,-22.295850085872978
-0.2227,-22.33829142486893
-0.22370000000000012,-22.38073276386488
-0.2247,-22.46561544185678
-0.22570000000000012,-22.508056780852733
-0.2267,-22.550498119848687
-0.22770000000000012,-22.550498119848687
-0.22870000000000001,-22.550498119848687
-0.22970000000000013,-22.508056780852733
-0.23070000000000002,-22.508056780852733
-0.23170000000000013,-22.550498119848687
-0.23270000000000002,-22.550498119848687
-0.23370000000000013,-22.550498119848687
-0.23470000000000002,-22.550498119848687
-0.23570000000000013,-22.592939458844636
-0.23670000000000002,-22.63538079784059
-0.2376999999999999,-22.67782213683654
-0.23870000000000002,-22.72026347583249
-0.2396999999999999,-22.776851927827092
-0.24070000000000003,-22.861734605818995
-0.24169999999999991,-22.904175944814945
-0.24270000000000003,-22.989058622806844
-0.24369999999999992,-23.073941300798747
-0.24470000000000003,-23.15882397879065
-0.24569999999999992,-23.2012653177866
-0.24670000000000003,-23.300295108777156
-0.24769999999999992,-23.342736447773106
-0.24870000000000003,-23.385177786769056
-0.24969999999999992,-23.385177786769056
-0.25070000000000003,-23.385177786769056
-0.2516999999999999,-23.427619125765005
-0.25270000000000004,-23.427619125765005
-0.2536999999999999,-23.427619125765005
-0.25470000000000004,-23.427619125765005
-0.2556999999999999,-23.427619125765005
-0.25670000000000004,-23.51250180375691
-0.25769999999999993,-23.55494314275286
-0.25870000000000004,-23.639825820744765
-0.25969999999999993,-23.724708498736668
-0.26070000000000004,-23.86617962872317
-0.26169999999999993,-23.993503645711023
-0.26270000000000004,-24.078386323702922
-0.26369999999999993,-24.20571034069078
-0.26470000000000005,-24.290593018682678
-0.26569999999999994,-24.34718147067728
-0.26670000000000005,-24.34718147067728
-0.26769999999999994,-24.432064148669184
-0.26870000000000005,-24.389622809673234
-0.26969999999999994,-24.432064148669184
-0.27070000000000005,-24.432064148669184
-0.27169999999999994,-24.389622809673234
-0.27270000000000005,-24.389622809673234
-0.27369999999999994,-24.432064148669184
-0.27470000000000006,-24.389622809673234
-0.27569999999999995,-24.389622809673234
-0.27670000000000006,-24.389622809673234
-0.27769999999999995,-24.389622809673234
-0.27870000000000006,-24.432064148669184
-0.27969999999999995,-24.559388165657033
-0.28070000000000006,-24.686712182644893
-0.28169999999999995,-24.771594860636792
-0.28270000000000006,-24.9130659906233
-0.28369999999999995,-25.04039000761115
-0.28470000000000006,-25.12527268560305
-0.28569999999999995,-25.210155363594954
-0.28670000000000007,-25.295038041586857
-0.28769999999999996,-25.337479380582806
-0.28870000000000007,-25.39406783257741
-0.28969999999999996,-25.337479380582806
-0.29070000000000007,-25.295038041586857
-0.29169999999999996,-25.295038041586857
-0.29270000000000007,-25.252596702590903
-0.29369999999999996,-25.295038041586857
-0.2947000000000001,-25.295038041586857
-0.29569999999999996,-25.337479380582806
-0.2967000000000001,-25.39406783257741
-0.29769999999999996,-25.43650917157336
-0.2987000000000001,-25.478950510569312
-0.29969999999999997,-25.521391849565262
-0.3007000000000001,-25.563833188561212
-0.30169999999999997,-25.60627452755716
-0.3027000000000001,-25.60627452755716
-0.30369999999999997,-25.648715866553115
-0.3047000000000001,-25.691157205549064
-0.30569999999999997,-25.691157205549064
-0.3067000000000001,-25.73359854454502
-0.3077,-25.77603988354097
-0.3087000000000001,-25.77603988354097
-0.3097,-25.81848122253692
-0.3107000000000001,-25.86092256153287
-0.3117,-25.91751101352747
-0.3127000000000001,-25.959952352523427
-0.3137,-25.959952352523427
-0.3147000000000001,-26.002393691519377
-0.3157,-26.044835030515326
-0.3167000000000001,-26.044835030515326
-0.3177,-26.044835030515326
-0.3187000000000001,-26.044835030515326
-0.3197,-26.044835030515326
-0.3207000000000001,-26.044835030515326
-0.3217,-26.087276369511276
-0.3227000000000001,-26.129717708507226
-0.3237,-26.17215904750318
-0.3247000000000001,-26.21460038649913
-0.3257,-26.21460038649913
-0.3267000000000001,-26.257041725495082
-0.3277,-26.257041725495082
-0.3287000000000001,-26.257041725495082
-0.3297,-26.257041725495082
-0.3307000000000001,-26.257041725495082
-0.3317,-26.257041725495082
-0.3327000000000001,-26.34192440348698
-0.3337,-26.38436574248293
-0.3347000000000001,-26.483395533473487
-0.3357,-26.525836872469437
-0.3367000000000001,-26.61071955046134
-0.3377,-26.69560222845324
-0.3387000000000001,-26.738043567449193
-0.3397,-26.822926245441096
-0.3407000000000001,-26.907808923433
-0.3417,-27.00683871442355
-0.3427000000000001,-27.049280053419505
-0.3437,-27.091721392415455
-0.3447000000000001,-27.134162731411404
-0.3457,-27.176604070407354
-0.3467000000000001,-27.261486748399253
-0.3477,-27.34636942639116
-0.3487000000000001,-27.38881076538711
-0.3497,-27.487840556377662
-0.3507000000000001,-27.572723234369565
-0.3517,-27.615164573365515
-0.3527000000000001,-27.65760591236147
-0.3537,-27.700047251357418
-0.3547000000000001,-27.742488590353368
-0.3557,-27.827371268345274
-0.35670000000000013,-27.912253946337174
-0.3577,-28.011283737327723
-0.35870000000000013,-28.05372507632368
-0.3597,-28.13860775431558
-0.36070000000000013,-28.22349043230748
-0.3617,-28.350814449295335
-0.3626999999999999,-28.435697127287238
-0.3637,-28.53472691827779
-0.3646999999999999,-28.619609596269694
-0.3657,-28.704492274261593
-0.3666999999999999,-28.746933613257543
-0.3677,-28.831816291249446
-0.3686999999999999,-28.91669896924135
-0.36970000000000003,-28.959140308237306
-0.3706999999999999,-29.058170099227848
-0.37170000000000003,-29.100611438223805
-0.3726999999999999,-29.100611438223805
-0.37370000000000003,-29.18549411621571
-0.3746999999999999,-29.22793545521166
-0.37570000000000003,-29.31281813320356
-0.3766999999999999,-29.39770081119546
-0.37770000000000004,-29.440142150191413
-0.3786999999999999,-29.525024828183312
-0.37970000000000004,-29.581613280177915
-0.3806999999999999,-29.62405461917387
-0.38170000000000004,-29.66649595816982
-0.38269999999999993,-29.793819975157668
-0.38370000000000004,-29.878702653149578
-0.38469999999999993,-29.96358533114148
-0.38570000000000004,-30.00602667013743
-0.38669999999999993,-30.10505646112798
-0.38770000000000004,-30.232380478115836
-0.38869999999999993,-30.317263156107735
-0.38970000000000005,-30.444587173095588
-0.39069999999999994,-30.571911190083444
-0.39170000000000005,-30.71338232006995
-0.39269999999999994,-30.79826499806185
-0.39370000000000005,-30.925589015049702
-0.39469999999999994,-31.010471693041605
-0.39570000000000005,-31.095354371033505
-0.39669999999999994,-31.23682550102001
-0.39770000000000005,-31.36414951800786
-0.39869999999999994,-31.49147353499572
-0.39970000000000006,-31.57635621298762
-0.40069999999999995,-31.661238890979522
-0.40170000000000006,-31.802710020966025
-0.40269999999999995,-31.972475376949827
-0.40370000000000006,-32.184682071929586
-0.40469999999999995,-32.368594540912035
-0.40570000000000006,-32.53835989689585
-0.40669999999999995,-32.70812525287965
-0.40770000000000006,-32.892037721862096
-0.40869999999999995,-33.06180307784591
-0.40970000000000006,-33.231568433829715
-0.41069999999999995,-33.41548090281216
-0.41170000000000007,-33.54280491980002
-0.41269999999999996,-33.712570275783825
-0.41370000000000007,-33.93892408376223
-0.41469999999999996,-34.10868943974604
-0.41570000000000007,-34.278454795729836
-0.41669999999999996,-34.50480860370825
-0.41770000000000007,-34.67457395969205
-0.41869999999999996,-34.85848642867451
-0.4197000000000001,-35.07069312365426
-0.42069999999999996,-35.240458479638065
-0.4217000000000001,-35.46681228761647
-0.42269999999999996,-35.679018982596226
-0.4237000000000001,-35.848784338580025
-0.42469999999999997,-36.07513814655844
-0.4257000000000001,-36.28734484153819
-0.42669999999999997,-36.5136986495166
-0.4277000000000001,-36.6834640055004
-0.42869999999999997,-36.89567070048016
-0.4297000000000001,-37.164465847454515
-0.43069999999999997,-37.376672542434264
-0.4317000000000001,-37.60302635041268
-0.4327,-37.85767438438838
-0.4337000000000001,-38.04158685337084
-0.4347,-38.211352209354644
-0.4357000000000001,-38.33867622634249
-0.4367,-38.46600024333035
-0.4377000000000001,-38.6499127123128
-0.4387,-38.81967806829661
-0.4397000000000001,-39.08847321527096
-0.4407,-39.38556258824262
-0.4417000000000001,-39.739240413208876
-0.4427,-40.135359577171094
-0.4437000000000001,-40.616361419125205
-0.4447,-41.04077480908471
-0.4457000000000001,-41.43689397304693
-0.4467,-41.87545447600508
-0.4477000000000001,-42.229132300971344
-0.4487,-42.568663012938956
-0.4497000000000001,-42.92234083790521
-0.4507,-43.23357732387552
-0.4517000000000001,-43.48822535785123
-0.4527,-43.79946184382153
-0.4537000000000001,-44.054109877797245
-0.4547,-44.3229050247716
-0.4557000000000001,-44.619994397743255
-0.4567,-44.93123088371356
-0.4577000000000001,-45.22832025668522
-0.4587,-45.53955674265553
-0.4597000000000001,-45.89323456762179
-0.4607,-46.19032394059345
-0.4617000000000001,-46.544001765559706
-0.4627,-46.88353247752732
-0.4637000000000001,-47.23721030249357
-0.4647,-47.633329466455784
-0.4657000000000001,-48.071889969413945
-0.4667,-48.45386202037751
-0.4677000000000001,-48.84998118433972
-0.4687,-49.28854168729788
-0.4697000000000001,-49.68466085126009
-0.4707,-50.0807800152223
-0.4717000000000001,-50.46275206618586
-0.4727,-50.85887123014807
-0.4737000000000001,-51.21254905511432
-0.4747,-51.55207976708194
-0.4757000000000001,-51.86331625305225
-0.4767,-52.2169940780185
-0.4777000000000001,-52.55652478998611
-0.4787,-52.91020261495237
-0.4797000000000001,-53.26388043991864
-0.4807,-53.64585249088219
-0.48170000000000013,-54.0419716548444
-0.4827,-54.52297349679851
-0.48370000000000013,-54.961533999756675
-0.4847,-55.442535841710786
-0.48570000000000013,-55.881096344668954
-0.4867,-56.36209818662306
-0.4876999999999999,-56.786511576582576
-0.4887,-57.22507207954074
-0.4896999999999999,-57.70607392149485
-0.4907,-58.22951710244491
-0.4916999999999999,-58.75296028339497
-0.4927,-59.27640346434504
-0.4936999999999999,-59.757405306299155
-0.49470000000000003,-60.32328982624517
-0.4956999999999999,-60.80429166819927
-0.49670000000000003,-61.37017618814529
-0.4976999999999999,-61.89361936909536
-0.49870000000000003,-62.501945228037314
-0.4996999999999999,-63.11027108697928
-0.5007,-63.732744058919906
-0.5016999999999999,-64.29862857886593
-0.5027,-64.82207175981598
-0.5036999999999999,-65.34551494076604
-0.5047,-65.86895812171612
-0.5056999999999999,-66.39240130266617
