Potential V vs RHE, Current mA cm-2
0.013299999999999867,1.0582040522990475
0.012299999999999978,0.7500799311884424
0.011299999999999866,0.5885199007438553
0.010299999999999976,0.49033893653322164
0.009299999999999864,0.40573920080129255
0.008299999999999974,0.34094542326747385
0.007299999999999862,0.2738881076538711
0.006299999999999972,0.20301107153063278
0.00529999999999986,0.14486643710617977
0.0042999999999999705,0.09298897374012885
0.0032999999999998586,0.04650156042656376
0.0022999999999999687,-0.0010886203452461457
0.0012999999999998568,-0.05776266237348945
0.00029999999999996696,-0.1004727965164149
-0.000700000000000145,-0.1421784856364362
-0.0017000000000000348,-0.1772633258730891
-0.0027000000000001467,-0.21432876192955308
-0.0037000000000000366,-0.25903363900528825
-0.0047000000000001485,-0.29977732444140126
-0.005700000000000038,-0.329203319478594
-0.00670000000000015,-0.36075138146558433
-0.00770000000000004,-0.39229944345257467
-0.008700000000000152,-0.43261871549872827
-0.009700000000000042,-0.4664303155655025
-0.010700000000000154,-0.49260247461300577
-0.011700000000000044,-0.5156622688008059
-0.012700000000000156,-0.5394294186385385
-0.013700000000000045,-0.5726751341853669
-0.014700000000000157,-0.6028084848724922
-0.015700000000000047,-0.6257268079303058
-0.01670000000000016,-0.6432692280486321
-0.01770000000000005,-0.6620848883368372
-0.01870000000000016,-0.6850032113946508
-0.01970000000000005,-0.7121656683520595
-0.020700000000000163,-0.733952222369981
-0.021700000000000053,-0.751070229098348
-0.022700000000000164,-0.7691785337366205
-0.023700000000000054,-0.7905406743645824
-0.024700000000000166,-0.8175616601920047
-0.025700000000000056,-0.823786389911411
-0.026700000000000168,-0.8404799832498183
-0.027700000000000058,-0.8554759230283877
-0.02870000000000017,-0.8807992552959719
-0.02970000000000006,-0.9037175783537855
-0.03070000000000017,-0.9171573357025032
-0.03170000000000006,-0.9188549892623414
-0.03270000000000017,-0.9267773725415855
-0.03370000000000006,-0.9511104068992642
-0.034700000000000175,-0.9685113558876042
-0.035700000000000065,-0.9894490831256065
-0.03670000000000018,-0.9999179467446078
-0.03770000000000007,-1.010669752623582
-0.03870000000000018,-1.0309001242116522
-0.03970000000000007,-1.0399542765307885
-0.04070000000000018,-1.0484425443299785
-0.04170000000000007,-1.0519793225796414
-0.04270000000000018,-1.062306715068656
-0.04370000000000007,-1.0849420958664966
-0.044700000000000184,-1.0995136222551065
-0.045700000000000074,-1.110972783784013
-0.046700000000000186,-1.117621926893379
-0.047700000000000076,-1.1276663771224207
-0.04870000000000019,-1.1413890767311115
-0.04970000000000008,-1.1603462081493032
-0.05070000000000019,-1.1681271202985608
-0.05170000000000008,-1.1694003604684393
-0.05270000000000019,-1.1770398014877106
-0.05370000000000008,-1.1964213462958615
-0.05470000000000019,-1.2141052375441745
-0.05570000000000008,-1.2109928726844712
-0.056700000000000195,-1.2235838032532702
-0.057700000000000085,-1.237589445121934
-0.058700000000000196,-1.2429653480614211
-0.059700000000000086,-1.253858625070382
-0.0607000000000002,-1.2738060543984788
-0.06170000000000009,-1.2810210820277907
-0.0627000000000002,-1.2845578602774532
-0.06370000000000009,-1.3040808762155907
-0.0647000000000002,-1.3118617883648485
-0.06570000000000009,-1.310305605934997
-0.0667000000000002,-1.3086079523751588
-0.0677000000000001,-1.3369021783724597
-0.0687000000000002,-1.3444001482617445
-0.0697000000000001,-1.3595375591703005
-0.07070000000000021,-1.3643475775898415
-0.0717000000000001,-1.3610937416001518
-0.07270000000000021,-1.367884355839504
-0.0737000000000001,-1.388963554207493
-0.07470000000000021,-1.4161260111649017
-0.0757000000000001,-1.4189554337646317
-0.07670000000000021,-1.4189554337646317
-0.0777000000000001,-1.420370145064497
-0.07870000000000021,-1.4373466806628774
-0.0797000000000001,-1.4500790823616625
-0.08070000000000022,-1.4500790823616625
-0.0817000000000001,-1.462811484060448
-0.08270000000000022,-1.459982061460718
-0.08370000000000011,-1.4882762874580184
-0.08470000000000022,-1.5236440699546445
-0.08570000000000011,-1.5080822456561291
-0.08670000000000022,-1.506667534356264
-0.08770000000000011,-1.5264734925543744
-0.08870000000000022,-1.53920589425316
-0.08970000000000011,-1.540620605553025
-0.09070000000000022,-1.54486473945262
-0.09170000000000011,-1.5604265637511354
-0.09270000000000023,-1.5689148315503256
-0.09370000000000012,-1.5759883880496508
-0.09470000000000023,-1.6042826140469515
-0.09570000000000012,-1.614185593146007
-0.09670000000000023,-1.612770881846142
-0.09770000000000012,-1.6184297270456018
-0.09870000000000023,-1.6255032835449272
-0.09970000000000012,-1.6453092417430377
-0.10070000000000023,-1.658041643441823
-0.10170000000000012,-1.6523827982423631
-0.10270000000000024,-1.6707740451406083
-0.10370000000000013,-1.694824137238314
-0.10470000000000024,-1.6990682711379093
-0.10570000000000013,-1.7089712502369643
-0.10670000000000024,-1.7330213423346699
-0.10770000000000013,-1.7301919197349398
-0.10870000000000024,-1.7443390327335901
-0.10970000000000013,-1.7386801875341302
-0.11070000000000024,-1.7386801875341302
-0.11170000000000013,-1.7471684553333202
-0.11270000000000002,-1.779706815230216
-0.11370000000000013,-1.8094157525273817
-0.11470000000000002,-1.8263922881257622
-0.11570000000000014,-1.8292217107254924
-0.11670000000000003,-1.8320511333252225
-0.11770000000000014,-1.8334658446250875
-0.11870000000000003,-1.8377099785246829
-0.11970000000000014,-1.8518570915233332
-0.12070000000000003,-1.8759071836210386
-0.12170000000000014,-1.8872248740199586
-0.12270000000000003,-1.892883719219419
-0.12370000000000014,-1.9183485226169896
-0.12470000000000003,-1.9324956356156402
-0.12570000000000014,-1.9381544808151003
-0.12670000000000003,-1.9480574599141556
-0.12770000000000015,-1.9523015938137507
-0.12870000000000004,-1.959375150313076
-0.12970000000000015,-1.9763516859114565
-0.13070000000000004,-1.9975723554094316
-0.13170000000000015,-2.007475334508487
-0.13270000000000004,-2.0159636023076772
-0.13370000000000015,-2.044257828304978
-0.13470000000000004,-2.073966765602144
-0.13570000000000015,-2.0654784978029537
-0.13670000000000004,-2.0683079204026833
-0.13770000000000016,-2.085284456001064
-0.13870000000000005,-2.092358012500389
-0.13970000000000016,-2.11782281589796
-0.14070000000000005,-2.13762877409607
-0.14170000000000016,-2.1347993514963406
-0.14270000000000005,-2.151775887094721
-0.14370000000000016,-2.1729965565926963
-0.14470000000000005,-2.1956319373905373
-0.14570000000000016,-2.2126084729889177
-0.14670000000000005,-2.202705493889862
-0.14770000000000016,-2.2338291424868926
-0.14870000000000005,-2.2409026989862184
-0.14970000000000017,-2.2550498119848683
-0.15070000000000006,-2.2691969249835187
-0.15170000000000017,-2.284758749282034
-0.15270000000000006,-2.2974911509808194
-0.15370000000000017,-2.3272000882779853
-0.15470000000000006,-2.32861479957785
-0.15570000000000017,-2.361153159474746
-0.15670000000000006,-2.361153159474746
-0.15770000000000017,-2.3653972933743415
-0.15870000000000006,-2.382373828972722
-0.15970000000000018,-2.4106680549700226
-0.16070000000000007,-2.4403769922671885
-0.16170000000000018,-2.4191563227692128
-0.16270000000000007,-2.4446211261667834
-0.16370000000000018,-2.4771594860636794
-0.16470000000000007,-2.4870624651627344
-0.16570000000000018,-2.4870624651627344
-0.16670000000000007,-2.5012095781613843
-0.16770000000000018,-2.5224302476593605
-0.16870000000000007,-2.5280890928588207
-0.16970000000000018,-2.550724473656661
-0.17070000000000007,-2.543650917157336
-0.17170000000000019,-2.590336390052882
-0.17270000000000008,-2.6058982143513973
-0.1737000000000002,-2.6030687917516673
-0.17470000000000008,-2.6200453273500477
-0.1757000000000002,-2.627118883849373
-0.17670000000000008,-2.6440954194477535
-0.1777000000000002,-2.656827821146539
-0.17870000000000008,-2.6808779132442444
-0.1797000000000002,-2.6738043567449195
-0.18070000000000008,-2.6808779132442444
-0.1817000000000002,-2.6851220471438397
-0.18270000000000008,-2.7148309844410052
-0.1837000000000002,-2.730392808739521
-0.1847000000000001,-2.7558576121370915
-0.1857000000000002,-2.754442900837226
-0.1867000000000001,-2.7530281895373614
-0.1877000000000002,-2.754442900837226
-0.1887000000000001,-2.7714194364356066
-0.1897000000000002,-2.7869812607341222
-0.1907000000000001,-2.795469528533313
-0.1917000000000001,-2.7997136624329078
-0.19269999999999998,-2.8096166415319628
-0.1937000000000001,-2.8251784658304784
-0.19469999999999998,-2.8308373110299385
-0.1957000000000001,-2.836496156229398
-0.19669999999999999,-2.840740290128994
-0.1977000000000001,-2.852057980527914
-0.1987,-2.843569712728724
-0.1997000000000001,-2.8619609596269693
-0.2007,-2.852057980527914
-0.2017000000000001,-2.866205093526564
-0.2027,-2.864790382226699
-0.2037000000000001,-2.8845963404248094
-0.2047,-2.8959140308237297
-0.2057000000000001,-2.877522783925485
-0.2067,-2.8944993195238653
-0.2077000000000001,-2.888840474324405
-0.2087,-2.900158164723325
-0.2097000000000001,-2.9298671020204905
-0.2107,-2.9058170099227856
-0.2117000000000001,-2.9044022986229203
-0.2127,-2.8860110517246746
-0.2137000000000001,-2.9072317212226504
-0.2147,-2.9100611438223805
-0.2157000000000001,-2.925622968120896
-0.2167,-2.9058170099227856
-0.21770000000000012,-2.9213788342213007
-0.2187,-2.927037679420761
-0.21970000000000012,-2.919964122921436
-0.2207,-2.925622968120896
-0.22170000000000012,-2.925622968120896
-0.2227,-2.924208256821031
-0.22370000000000012,-2.922793545521166
-0.2247,-2.9171347003217054
-0.22570000000000012,-2.9284523907206257
-0.2267,-2.900158164723325
-0.22770000000000012,-2.90157287602319
-0.22870000000000001,-2.935525947219951
-0.22970000000000013,-2.9525024828183315
-0.23070000000000002,-2.942599503719276
-0.23170000000000013,-2.9284523907206257
-0.23270000000000002,-2.9284523907206257
-0.23370000000000013,-2.919964122921436
-0.23470000000000002,-2.922793545521166
-0.23570000000000013,-2.927037679420761
-0.23670000000000002,-2.9298671020204905
-0.2376999999999999,-2.9284523907206257
-0.23870000000000002,-2.938355369819681
-0.2396999999999999,-2.945428926319006
-0.24070000000000003,-2.9440142150191413
-0.24169999999999991,-2.9440142150191413
-0.24270000000000003,-2.9440142150191413
-0.24369999999999992,-2.941184792419411
-0.24470000000000003,-2.949673060218602
-0.24569999999999992,-2.9440142150191413
-0.24670000000000003,-2.9510877715184667
-0.24769999999999992,-2.9510877715184667
-0.24870000000000003,-2.9624054619173865
-0.24969999999999992,-3.009090934812933
-0.25070000000000003,-2.975137863616172
-0.2516999999999999,-2.9694790184167124
-0.25270000000000004,-2.976552574916037
-0.2536999999999999,-2.9921143992145525
-0.25470000000000004,-3.013335068712528
-0.2556999999999999,-2.977967286215902
-0.25670000000000004,-2.994943821814283
-0.25769999999999993,-3.0119203574126634
-0.25870000000000004,-3.047288139909289
-0.25969999999999993,-3.0487028512091543
-0.26070000000000004,-3.034555738210504
-0.26169999999999993,-3.0387998721100984
-0.26270000000000004,-3.0614352529079394
-0.26369999999999993,-3.0727529433068597
-0.26470000000000005,-3.0656793868075347
-0.26569999999999994,-3.079826499806185
-0.26670000000000005,-3.1095354371033506
-0.26769999999999994,-3.119438416202406
-0.26870000000000005,-3.1279266840015962
-0.26969999999999994,-3.1420737970002466
-0.27070000000000005,-3.156220909998897
-0.27169999999999994,-3.1519767760993016
-0.27270000000000005,-3.1632944664982214
-0.27369999999999994,-3.1873445585959277
-0.27470000000000006,-3.2184682071929585
-0.27569999999999995,-3.225541763692284
-0.27670000000000006,-3.243933010590529
-0.27769999999999995,-3.2524212783897193
-0.27870000000000006,-3.2594948348890447
-0.27969999999999995,-3.2962773286855356
-0.28070000000000006,-3.3047655964847262
-0.28169999999999995,-3.3118391529840507
-0.28270000000000006,-3.3302303998822964
-0.28369999999999995,-3.3726717388782474
-0.28470000000000006,-3.381160006677438
-0.28569999999999995,-3.430674902172714
-0.28670000000000007,-3.4066248100750083
-0.28769999999999996,-3.439163169971904
-0.28870000000000007,-3.4745309524685304
-0.28969999999999996,-3.507069312365426
-0.29070000000000007,-3.532534115762996
-0.29169999999999996,-3.5297046931632665
-0.29270000000000007,-3.5820490112582726
-0.29369999999999996,-3.623075638954359
-0.2947000000000001,-3.641466885852605
-0.29569999999999996,-3.6824935135486903
-0.2967000000000001,-3.710787739545991
-0.29769999999999996,-3.7376672542434273
-0.2987000000000001,-3.764546768940863
-0.29969999999999997,-3.8027439740372184
-0.3007000000000001,-3.852258869532495
-0.30169999999999997,-3.8480147356329
-0.3027000000000001,-3.9215797232258818
-0.30369999999999997,-4.024853648116029
-0.3047000000000001,-4.080027388810766
-0.30569999999999997,-4.101248058308742
-0.3067000000000001,-4.102662769608606
-0.3077,-4.171983623301993
-0.3087000000000001,-4.20735140579862
-0.3097,-4.265354569093086
-0.3107000000000001,-4.312040041988632
-0.3117,-4.360140226184043
-0.3127000000000001,-4.428046368577565
-0.3137,-4.541223272566767
-0.3147000000000001,-4.6020558584609645
-0.3157,-4.675620846053946
-0.3167000000000001,-4.729379875448817
-0.3177,-4.771821214444769
-0.3187000000000001,-4.80577428564153
-0.3197,-4.918951189630732
-0.3207000000000001,-5.003833867622634
-0.3217,-5.092960679514132
-0.3227000000000001,-5.0816429891152115
-0.3237,-5.237261232100366
-0.3247000000000001,-5.326388043991862
-0.3257,-5.408441299384036
-0.3267000000000001,-5.497568111275533
-0.3277,-5.568303676268785
-0.3287000000000001,-5.631965684762711
-0.3297,-5.726751341853668
-0.3307000000000001,-5.828610555443951
-0.3317,-5.937543325533559
-0.3327000000000001,-6.030914271324651
-0.3337,-6.135602907514665
-0.3347000000000001,-6.238876832404812
-0.3357,-6.303953552198603
-0.3367000000000001,-6.425618723986997
-0.3377,-6.533136782776739
-0.3387000000000001,-6.6689490675637835
-0.3397,-6.731196364757845
-0.3407000000000001,-6.927841235439085
-0.3417,-6.967453151835306
-0.3427000000000001,-7.080630055824508
-0.3437,-7.203709938912767
-0.3447000000000001,-7.311227997702509
-0.3457,-7.471090374587258
-0.3467000000000001,-7.66490582266877
-0.3477,-7.7059324503648545
-0.3487000000000001,-7.830427044752977
-0.3497,-7.93228625834326
-0.3507000000000001,-8.10912517082639
-0.3517,-8.267572836411274
-0.3527000000000001,-8.376505606500881
-0.3537,-8.41470281159724
-0.3547000000000001,-8.601444703179425
-0.3557,-8.809407264259583
-0.35670000000000013,-8.996149155841769
-0.3577,-9.10649663723124
-0.35870000000000013,-9.198452871722468
-0.3597,-9.371047650306002
-0.36070000000000013,-9.522421759391563
-0.3617,-9.670966445877392
-0.3626999999999999,-9.791216906365918
-0.3637,-9.936932170252017
-0.3646999999999999,-10.108112237535686
-0.3657,-10.250998078822057
-0.3666999999999999,-10.498572556298438
-0.3677,-10.62306715068656
-0.3686999999999999,-10.784344238871176
-0.36970000000000003,-10.938547770556465
-0.3706999999999999,-11.15924273333541
-0.37170000000000003,-11.32759337801935
-0.3726999999999999,-11.497358734003152
-0.37370000000000003,-11.719468408081962
-0.3746999999999999,-11.941578082160774
-0.37570000000000003,-12.029290182752407
-0.3766999999999999,-12.091537479946469
-0.37770000000000004,-12.315061865325143
-0.3786999999999999,-12.469265397010433
-0.37970000000000004,-12.661666133792078
-0.3806999999999999,-12.902167054769135
-0.38170000000000004,-13.17662104694295
-0.38269999999999993,-13.380339474123517
-0.38370000000000004,-13.533128294508941
-0.38469999999999993,-13.65903760019693
-0.38570000000000004,-13.840120646579654
-0.38669999999999993,-14.02969196076157
-0.38770000000000004,-14.189554337646317
-0.38869999999999993,-14.458349484620674
-0.38970000000000005,-14.71299751859638
-0.39069999999999994,-14.911057100577487
-0.39170000000000005,-15.10911668255859
-0.39269999999999994,-15.43450028152755
-0.39370000000000005,-15.406206055530248
-0.39469999999999994,-15.646706976507305
-0.39570000000000005,-16.056973253468165
-0.39669999999999994,-16.28332706144657
-0.39770000000000005,-16.21259149645332
-0.39869999999999994,-16.637004886412832
-0.39970000000000006,-16.835064468393938
-0.40069999999999995,-17.03312405037504
-0.40170000000000006,-17.20288940635885
-0.40269999999999995,-17.556567231325104
-0.40370000000000006,-17.669744135314307
-0.40469999999999995,-17.910245056291366
-0.40570000000000006,-18.13659886426977
-0.40669999999999995,-18.320511333252224
-0.40770000000000006,-18.561012254229283
-0.40869999999999995,-18.77321894920904
-0.40970000000000006,-19.027866983184744
-0.41069999999999995,-19.296662130159103
-0.41170000000000007,-19.565457277133458
-0.41269999999999996,-19.862546650105116
-0.41370000000000007,-20.10304757108217
-0.41469999999999996,-20.286960040064624
-0.41570000000000007,-20.499166735044383
-0.41669999999999996,-20.73966765602144
-0.41770000000000007,-20.966021463999844
-0.41869999999999996,-21.291405062968803
-0.4197000000000001,-21.47531753195126
-0.42069999999999996,-21.701671339929664
-0.4217000000000001,-22.069496277894572
-0.42269999999999996,-22.508056780852733
-0.4237000000000001,-22.621233684841933
-0.42469999999999997,-22.87588171881764
-0.4257000000000001,-23.187118204787954
-0.42669999999999997,-23.13052975279335
-0.4277000000000001,-23.44176623876366
-0.42869999999999997,-23.83788540272587
-0.4297000000000001,-24.27644590568403
-0.43069999999999997,-24.34718147067728
-0.4317000000000001,-24.74330063463949
-0.4327,-24.95550732961925
-0.4337000000000001,-25.196008250596304
-0.4347,-25.351626493581456
-0.4357000000000001,-25.846775448534224
-0.4367,-26.101423482509926
-0.4377000000000001,-26.17215904750318
-0.4387,-26.525836872469437
-0.4397000000000001,-26.851220471438396
-0.4407,-27.049280053419505
-0.4417000000000001,-27.544429008372262
-0.4427,-27.65760591236147
-0.4437000000000001,-27.968842398331773
-0.4447,-28.039577963325023
-0.4457000000000001,-28.44984424028589
-0.4467,-28.619609596269694
-0.4477000000000001,-28.944993195238652
-0.4487,-29.199641229214354
-0.4497000000000001,-29.609907506175215
-0.4507,-29.935291105144174
-0.4517000000000001,-30.04846800913338
-0.4527,-30.43044006009694
-0.4537000000000001,-30.699235207071297
-0.4547,-30.968030354045652
-0.4557000000000001,-31.27926684001596
-0.4567,-31.49147353499572
-0.4577000000000001,-31.632944664982226
-0.4587,-31.901739811956578
-0.4597000000000001,-32.38274165391069
-0.4607,-32.79300793087155
-0.4617000000000001,-33.17497998183511
-0.4627,-33.288156885824314
-0.4637000000000001,-33.50036358080407
-0.4647,-33.924776970763574
-0.4657000000000001,-34.00965964875548
-0.4667,-34.50480860370825
-0.4677000000000001,-34.8301922026772
-0.4687,-35.07069312365426
-0.4697000000000001,-35.353635383627264
-0.4707,-35.608283417602976
-0.4717000000000001,-36.00440258156518
-0.4727,-36.07513814655844
-0.4737000000000001,-36.44296308452335
-0.4747,-36.64102266650445
-0.4757000000000001,-36.86737647448285
-0.4767,-37.305936977441014
-0.4777000000000001,-37.81523304539243
-0.4787,-38.01329262737354
-0.4797000000000001,-38.33867622634249
-0.4807,-38.72064827730605
-0.48170000000000013,-39.074326102272316
-0.4827,-39.34312124924667
-0.48370000000000013,-39.47044526623452
-0.4847,-39.696799074212926
-0.48570000000000013,-40.616361419125205
-0.4867,-40.5880671931279
-0.4876999999999999,-40.8993036790982
-0.4887,-41.677394894023976
-0.4896999999999999,-42.186690961975394
-0.4907,-42.05936694498754
-0.4916999999999999,-42.04521983198889
-0.4927,-42.4413389959511
-0.4936999999999999,-42.31401497896325
-0.49470000000000003,-42.752575481921404
-0.4956999999999999,-43.45993113185393
-0.49670000000000003,-43.87019740881479
-0.4976999999999999,-44.28046368577565
-0.49870000000000003,-44.648288623740555
-0.4996999999999999,-44.76146552772976
-0.5007,-45.11514335269602
-0.5016999999999999,-45.44052695166498
-0.5027,-45.69517498564068
-0.5036999999999999,-45.93567590661774
-0.5047,-46.65717866954891
-0.5056999999999999,-47.13818051150302
