Dec. 27, 2024   02:34:57
Linear Sweep Voltammetry
File: c:/users/guazh/data/banditlqround7_x0exp136_r20/2024-12-24-exp753\1acid_1ac-2024-12-27t02_31_50-lsvinphos\1acid_1ac_lsv_50mvs_efin_-2100mv.bin
Data Source:  Experiment
Instrument Model:  CHI760E
Header: LSV ran at 50 mVs with Efin at -2100mV
Note: 

Init E (V) = -0.6
Final E (V) = -2.1
Scan Rate (V/s) = 0.05
Sample Interval (V) = 0.001
Quiet Time (sec) = 2
Sensitivity (A/V) = 1e-4
Comp R (ohm) = 9.2

Results:

Channel 1:
Ep = -1.779V
ip = 5.546e-4A
Ah = 7.566e-4C

Potential/V, Current/A

-0.600, 9.522e-6
-0.601, 9.721e-6
-0.602, 9.793e-6
-0.603, 9.847e-6
-0.604, 9.886e-6
-0.605, 9.922e-6
-0.606, 9.965e-6
-0.607, 1.001e-5
-0.608, 1.006e-5
-0.609, 1.026e-5
-0.610, 1.042e-5
-0.611, 1.047e-5
-0.612, 1.047e-5
-0.613, 1.051e-5
-0.614, 1.049e-5
-0.615, 1.048e-5
-0.616, 1.046e-5
-0.617, 1.047e-5
-0.618, 1.051e-5
-0.619, 1.054e-5
-0.620, 1.055e-5
-0.621, 1.056e-5
-0.622, 1.060e-5
-0.623, 1.063e-5
-0.624, 1.066e-5
-0.625, 1.068e-5
-0.626, 1.070e-5
-0.627, 1.073e-5
-0.628, 1.077e-5
-0.629, 1.079e-5
-0.630, 1.081e-5
-0.631, 1.084e-5
-0.632, 1.087e-5
-0.633, 1.091e-5
-0.634, 1.093e-5
-0.635, 1.096e-5
-0.636, 1.098e-5
-0.637, 1.101e-5
-0.638, 1.104e-5
-0.639, 1.107e-5
-0.640, 1.109e-5
-0.641, 1.111e-5
-0.642, 1.113e-5
-0.643, 1.116e-5
-0.644, 1.119e-5
-0.645, 1.121e-5
-0.646, 1.123e-5
-0.647, 1.126e-5
-0.648, 1.128e-5
-0.649, 1.131e-5
-0.650, 1.132e-5
-0.651, 1.135e-5
-0.652, 1.137e-5
-0.653, 1.140e-5
-0.654, 1.142e-5
-0.655, 1.144e-5
-0.656, 1.145e-5
-0.657, 1.147e-5
-0.658, 1.150e-5
-0.659, 1.152e-5
-0.660, 1.154e-5
-0.661, 1.155e-5
-0.662, 1.157e-5
-0.663, 1.159e-5
-0.664, 1.160e-5
-0.665, 1.162e-5
-0.666, 1.164e-5
-0.667, 1.165e-5
-0.668, 1.168e-5
-0.669, 1.171e-5
-0.670, 1.172e-5
-0.671, 1.173e-5
-0.672, 1.175e-5
-0.673, 1.176e-5
-0.674, 1.179e-5
-0.675, 1.181e-5
-0.676, 1.181e-5
-0.677, 1.183e-5
-0.678, 1.186e-5
-0.679, 1.187e-5
-0.680, 1.188e-5
-0.681, 1.189e-5
-0.682, 1.190e-5
-0.683, 1.192e-5
-0.684, 1.194e-5
-0.685, 1.195e-5
-0.686, 1.196e-5
-0.687, 1.197e-5
-0.688, 1.199e-5
-0.689, 1.200e-5
-0.690, 1.200e-5
-0.691, 1.202e-5
-0.692, 1.203e-5
-0.693, 1.205e-5
-0.694, 1.206e-5
-0.695, 1.207e-5
-0.696, 1.207e-5
-0.697, 1.207e-5
-0.698, 1.209e-5
-0.699, 1.210e-5
-0.700, 1.211e-5
-0.701, 1.211e-5
-0.702, 1.212e-5
-0.703, 1.213e-5
-0.704, 1.214e-5
-0.705, 1.214e-5
-0.706, 1.213e-5
-0.707, 1.214e-5
-0.708, 1.214e-5
-0.709, 1.215e-5
-0.710, 1.216e-5
-0.711, 1.216e-5
-0.712, 1.217e-5
-0.713, 1.218e-5
-0.714, 1.218e-5
-0.715, 1.218e-5
-0.716, 1.219e-5
-0.717, 1.219e-5
-0.718, 1.220e-5
-0.719, 1.220e-5
-0.720, 1.220e-5
-0.721, 1.220e-5
-0.722, 1.220e-5
-0.723, 1.221e-5
-0.724, 1.221e-5
-0.725, 1.221e-5
-0.726, 1.221e-5
-0.727, 1.221e-5
-0.728, 1.222e-5
-0.729, 1.222e-5
-0.730, 1.222e-5
-0.731, 1.222e-5
-0.732, 1.222e-5
-0.733, 1.223e-5
-0.734, 1.224e-5
-0.735, 1.224e-5
-0.736, 1.225e-5
-0.737, 1.225e-5
-0.738, 1.225e-5
-0.739, 1.224e-5
-0.740, 1.224e-5
-0.741, 1.223e-5
-0.742, 1.223e-5
-0.743, 1.223e-5
-0.744, 1.223e-5
-0.745, 1.222e-5
-0.746, 1.222e-5
-0.747, 1.223e-5
-0.748, 1.223e-5
-0.749, 1.223e-5
-0.750, 1.222e-5
-0.751, 1.221e-5
-0.752, 1.221e-5
-0.753, 1.222e-5
-0.754, 1.222e-5
-0.755, 1.221e-5
-0.756, 1.221e-5
-0.757, 1.222e-5
-0.758, 1.222e-5
-0.759, 1.222e-5
-0.760, 1.222e-5
-0.761, 1.221e-5
-0.762, 1.221e-5
-0.763, 1.221e-5
-0.764, 1.221e-5
-0.765, 1.221e-5
-0.766, 1.220e-5
-0.767, 1.220e-5
-0.768, 1.221e-5
-0.769, 1.221e-5
-0.770, 1.220e-5
-0.771, 1.220e-5
-0.772, 1.220e-5
-0.773, 1.221e-5
-0.774, 1.221e-5
-0.775, 1.220e-5
-0.776, 1.220e-5
-0.777, 1.221e-5
-0.778, 1.221e-5
-0.779, 1.219e-5
-0.780, 1.219e-5
-0.781, 1.218e-5
-0.782, 1.219e-5
-0.783, 1.220e-5
-0.784, 1.220e-5
-0.785, 1.220e-5
-0.786, 1.219e-5
-0.787, 1.219e-5
-0.788, 1.220e-5
-0.789, 1.219e-5
-0.790, 1.219e-5
-0.791, 1.219e-5
-0.792, 1.218e-5
-0.793, 1.219e-5
-0.794, 1.220e-5
-0.795, 1.220e-5
-0.796, 1.220e-5
-0.797, 1.220e-5
-0.798, 1.220e-5
-0.799, 1.221e-5
-0.800, 1.221e-5
-0.801, 1.220e-5
-0.802, 1.221e-5
-0.803, 1.221e-5
-0.804, 1.221e-5
-0.805, 1.221e-5
-0.806, 1.220e-5
-0.807, 1.220e-5
-0.808, 1.220e-5
-0.809, 1.220e-5
-0.810, 1.220e-5
-0.811, 1.220e-5
-0.812, 1.220e-5
-0.813, 1.221e-5
-0.814, 1.221e-5
-0.815, 1.222e-5
-0.816, 1.220e-5
-0.817, 1.219e-5
-0.818, 1.220e-5
-0.819, 1.221e-5
-0.820, 1.223e-5
-0.821, 1.222e-5
-0.822, 1.222e-5
-0.823, 1.223e-5
-0.824, 1.223e-5
-0.825, 1.223e-5
-0.826, 1.223e-5
-0.827, 1.224e-5
-0.828, 1.223e-5
-0.829, 1.223e-5
-0.830, 1.222e-5
-0.831, 1.223e-5
-0.832, 1.224e-5
-0.833, 1.224e-5
-0.834, 1.223e-5
-0.835, 1.223e-5
-0.836, 1.224e-5
-0.837, 1.224e-5
-0.838, 1.225e-5
-0.839, 1.225e-5
-0.840, 1.225e-5
-0.841, 1.226e-5
-0.842, 1.225e-5
-0.843, 1.226e-5
-0.844, 1.227e-5
-0.845, 1.227e-5
-0.846, 1.227e-5
-0.847, 1.228e-5
-0.848, 1.228e-5
-0.849, 1.228e-5
-0.850, 1.228e-5
-0.851, 1.228e-5
-0.852, 1.229e-5
-0.853, 1.230e-5
-0.854, 1.230e-5
-0.855, 1.230e-5
-0.856, 1.230e-5
-0.857, 1.230e-5
-0.858, 1.231e-5
-0.859, 1.232e-5
-0.860, 1.232e-5
-0.861, 1.232e-5
-0.862, 1.234e-5
-0.863, 1.234e-5
-0.864, 1.234e-5
-0.865, 1.233e-5
-0.866, 1.234e-5
-0.867, 1.234e-5
-0.868, 1.235e-5
-0.869, 1.236e-5
-0.870, 1.236e-5
-0.871, 1.236e-5
-0.872, 1.236e-5
-0.873, 1.238e-5
-0.874, 1.238e-5
-0.875, 1.238e-5
-0.876, 1.239e-5
-0.877, 1.240e-5
-0.878, 1.241e-5
-0.879, 1.242e-5
-0.880, 1.241e-5
-0.881, 1.242e-5
-0.882, 1.243e-5
-0.883, 1.244e-5
-0.884, 1.244e-5
-0.885, 1.244e-5
-0.886, 1.244e-5
-0.887, 1.245e-5
-0.888, 1.246e-5
-0.889, 1.248e-5
-0.890, 1.247e-5
-0.891, 1.247e-5
-0.892, 1.248e-5
-0.893, 1.249e-5
-0.894, 1.250e-5
-0.895, 1.250e-5
-0.896, 1.251e-5
-0.897, 1.252e-5
-0.898, 1.253e-5
-0.899, 1.254e-5
-0.900, 1.254e-5
-0.901, 1.254e-5
-0.902, 1.256e-5
-0.903, 1.257e-5
-0.904, 1.258e-5
-0.905, 1.260e-5
-0.906, 1.260e-5
-0.907, 1.261e-5
-0.908, 1.263e-5
-0.909, 1.264e-5
-0.910, 1.264e-5
-0.911, 1.266e-5
-0.912, 1.267e-5
-0.913, 1.268e-5
-0.914, 1.270e-5
-0.915, 1.270e-5
-0.916, 1.271e-5
-0.917, 1.273e-5
-0.918, 1.278e-5
-0.919, 1.277e-5
-0.920, 1.277e-5
-0.921, 1.280e-5
-0.922, 1.280e-5
-0.923, 1.281e-5
-0.924, 1.283e-5
-0.925, 1.283e-5
-0.926, 1.283e-5
-0.927, 1.284e-5
-0.928, 1.285e-5
-0.929, 1.286e-5
-0.930, 1.287e-5
-0.931, 1.289e-5
-0.932, 1.290e-5
-0.933, 1.290e-5
-0.934, 1.292e-5
-0.935, 1.292e-5
-0.936, 1.293e-5
-0.937, 1.296e-5
-0.938, 1.296e-5
-0.939, 1.297e-5
-0.940, 1.298e-5
-0.941, 1.300e-5
-0.942, 1.301e-5
-0.943, 1.303e-5
-0.944, 1.304e-5
-0.945, 1.304e-5
-0.946, 1.304e-5
-0.947, 1.306e-5
-0.948, 1.307e-5
-0.949, 1.308e-5
-0.950, 1.308e-5
-0.951, 1.309e-5
-0.952, 1.311e-5
-0.953, 1.312e-5
-0.954, 1.314e-5
-0.955, 1.315e-5
-0.956, 1.316e-5
-0.957, 1.318e-5
-0.958, 1.320e-5
-0.959, 1.322e-5
-0.960, 1.323e-5
-0.961, 1.324e-5
-0.962, 1.326e-5
-0.963, 1.328e-5
-0.964, 1.328e-5
-0.965, 1.328e-5
-0.966, 1.329e-5
-0.967, 1.330e-5
-0.968, 1.331e-5
-0.969, 1.332e-5
-0.970, 1.334e-5
-0.971, 1.335e-5
-0.972, 1.336e-5
-0.973, 1.337e-5
-0.974, 1.339e-5
-0.975, 1.339e-5
-0.976, 1.340e-5
-0.977, 1.342e-5
-0.978, 1.343e-5
-0.979, 1.345e-5
-0.980, 1.346e-5
-0.981, 1.346e-5
-0.982, 1.348e-5
-0.983, 1.349e-5
-0.984, 1.349e-5
-0.985, 1.351e-5
-0.986, 1.352e-5
-0.987, 1.356e-5
-0.988, 1.358e-5
-0.989, 1.358e-5
-0.990, 1.358e-5
-0.991, 1.358e-5
-0.992, 1.359e-5
-0.993, 1.363e-5
-0.994, 1.364e-5
-0.995, 1.364e-5
-0.996, 1.365e-5
-0.997, 1.366e-5
-0.998, 1.368e-5
-0.999, 1.370e-5
-1.000, 1.370e-5
-1.001, 1.371e-5
-1.002, 1.373e-5
-1.003, 1.375e-5
-1.004, 1.376e-5
-1.005, 1.376e-5
-1.006, 1.377e-5
-1.007, 1.380e-5
-1.008, 1.381e-5
-1.009, 1.382e-5
-1.010, 1.384e-5
-1.011, 1.385e-5
-1.012, 1.388e-5
-1.013, 1.390e-5
-1.014, 1.390e-5
-1.015, 1.392e-5
-1.016, 1.393e-5
-1.017, 1.394e-5
-1.018, 1.396e-5
-1.019, 1.396e-5
-1.020, 1.399e-5
-1.021, 1.401e-5
-1.022, 1.407e-5
-1.023, 1.411e-5
-1.024, 1.412e-5
-1.025, 1.412e-5
-1.026, 1.413e-5
-1.027, 1.414e-5
-1.028, 1.420e-5
-1.029, 1.422e-5
-1.030, 1.423e-5
-1.031, 1.424e-5
-1.032, 1.426e-5
-1.033, 1.428e-5
-1.034, 1.426e-5
-1.035, 1.424e-5
-1.036, 1.427e-5
-1.037, 1.429e-5
-1.038, 1.431e-5
-1.039, 1.433e-5
-1.040, 1.435e-5
-1.041, 1.436e-5
-1.042, 1.437e-5
-1.043, 1.439e-5
-1.044, 1.441e-5
-1.045, 1.442e-5
-1.046, 1.443e-5
-1.047, 1.445e-5
-1.048, 1.449e-5
-1.049, 1.451e-5
-1.050, 1.449e-5
-1.051, 1.451e-5
-1.052, 1.455e-5
-1.053, 1.459e-5
-1.054, 1.461e-5
-1.055, 1.463e-5
-1.056, 1.465e-5
-1.057, 1.467e-5
-1.058, 1.469e-5
-1.059, 1.471e-5
-1.060, 1.474e-5
-1.061, 1.477e-5
-1.062, 1.479e-5
-1.063, 1.486e-5
-1.064, 1.489e-5
-1.065, 1.493e-5
-1.066, 1.496e-5
-1.067, 1.499e-5
-1.068, 1.502e-5
-1.069, 1.505e-5
-1.070, 1.506e-5
-1.071, 1.510e-5
-1.072, 1.515e-5
-1.073, 1.520e-5
-1.074, 1.523e-5
-1.075, 1.526e-5
-1.076, 1.533e-5
-1.077, 1.537e-5
-1.078, 1.540e-5
-1.079, 1.546e-5
-1.080, 1.549e-5
-1.081, 1.553e-5
-1.082, 1.557e-5
-1.083, 1.561e-5
-1.084, 1.563e-5
-1.085, 1.567e-5
-1.086, 1.572e-5
-1.087, 1.578e-5
-1.088, 1.582e-5
-1.089, 1.585e-5
-1.090, 1.590e-5
-1.091, 1.595e-5
-1.092, 1.602e-5
-1.093, 1.608e-5
-1.094, 1.615e-5
-1.095, 1.619e-5
-1.096, 1.623e-5
-1.097, 1.628e-5
-1.098, 1.632e-5
-1.099, 1.637e-5
-1.100, 1.643e-5
-1.101, 1.649e-5
-1.102, 1.656e-5
-1.103, 1.662e-5
-1.104, 1.670e-5
-1.105, 1.677e-5
-1.106, 1.684e-5
-1.107, 1.693e-5
-1.108, 1.701e-5
-1.109, 1.708e-5
-1.110, 1.714e-5
-1.111, 1.720e-5
-1.112, 1.728e-5
-1.113, 1.736e-5
-1.114, 1.742e-5
-1.115, 1.751e-5
-1.116, 1.756e-5
-1.117, 1.765e-5
-1.118, 1.773e-5
-1.119, 1.780e-5
-1.120, 1.788e-5
-1.121, 1.796e-5
-1.122, 1.807e-5
-1.123, 1.818e-5
-1.124, 1.827e-5
-1.125, 1.838e-5
-1.126, 1.848e-5
-1.127, 1.855e-5
-1.128, 1.865e-5
-1.129, 1.908e-5
-1.130, 1.923e-5
-1.131, 1.925e-5
-1.132, 1.931e-5
-1.133, 1.937e-5
-1.134, 1.945e-5
-1.135, 1.954e-5
-1.136, 1.965e-5
-1.137, 1.976e-5
-1.138, 1.988e-5
-1.139, 2.000e-5
-1.140, 2.012e-5
-1.141, 2.022e-5
-1.142, 2.032e-5
-1.143, 2.043e-5
-1.144, 2.057e-5
-1.145, 2.069e-5
-1.146, 2.083e-5
-1.147, 2.103e-5
-1.148, 2.109e-5
-1.149, 2.117e-5
-1.150, 2.128e-5
-1.151, 2.133e-5
-1.152, 2.145e-5
-1.153, 2.156e-5
-1.154, 2.165e-5
-1.155, 2.174e-5
-1.156, 2.186e-5
-1.157, 2.196e-5
-1.158, 2.206e-5
-1.159, 2.217e-5
-1.160, 2.226e-5
-1.161, 2.236e-5
-1.162, 2.248e-5
-1.163, 2.258e-5
-1.164, 2.269e-5
-1.165, 2.282e-5
-1.166, 2.294e-5
-1.167, 2.304e-5
-1.168, 2.315e-5
-1.169, 2.325e-5
-1.170, 2.339e-5
-1.171, 2.352e-5
-1.172, 2.365e-5
-1.173, 2.379e-5
-1.174, 2.393e-5
-1.175, 2.406e-5
-1.176, 2.415e-5
-1.177, 2.427e-5
-1.178, 2.441e-5
-1.179, 2.456e-5
-1.180, 2.470e-5
-1.181, 2.483e-5
-1.182, 2.498e-5
-1.183, 2.512e-5
-1.184, 2.525e-5
-1.185, 2.536e-5
-1.186, 2.543e-5
-1.187, 2.555e-5
-1.188, 2.567e-5
-1.189, 2.580e-5
-1.190, 2.592e-5
-1.191, 2.604e-5
-1.192, 2.615e-5
-1.193, 2.626e-5
-1.194, 2.640e-5
-1.195, 2.656e-5
-1.196, 2.662e-5
-1.197, 2.677e-5
-1.198, 2.690e-5
-1.199, 2.702e-5
-1.200, 2.716e-5
-1.201, 2.729e-5
-1.202, 2.739e-5
-1.203, 2.751e-5
-1.204, 2.763e-5
-1.205, 2.774e-5
-1.206, 2.787e-5
-1.207, 2.798e-5
-1.208, 2.809e-5
-1.209, 2.820e-5
-1.210, 2.829e-5
-1.211, 2.841e-5
-1.212, 2.854e-5
-1.213, 2.863e-5
-1.214, 2.873e-5
-1.215, 2.882e-5
-1.216, 2.892e-5
-1.217, 2.903e-5
-1.218, 2.912e-5
-1.219, 2.922e-5
-1.220, 2.934e-5
-1.221, 2.943e-5
-1.222, 2.952e-5
-1.223, 2.965e-5
-1.224, 2.977e-5
-1.225, 2.987e-5
-1.226, 2.997e-5
-1.227, 3.007e-5
-1.228, 3.015e-5
-1.229, 3.024e-5
-1.230, 3.033e-5
-1.231, 3.042e-5
-1.232, 3.051e-5
-1.233, 3.061e-5
-1.234, 3.063e-5
-1.235, 3.072e-5
-1.236, 3.081e-5
-1.237, 3.090e-5
-1.238, 3.102e-5
-1.239, 3.106e-5
-1.240, 3.108e-5
-1.241, 3.121e-5
-1.242, 3.132e-5
-1.243, 3.142e-5
-1.244, 3.150e-5
-1.245, 3.156e-5
-1.246, 3.165e-5
-1.247, 3.175e-5
-1.248, 3.182e-5
-1.249, 3.194e-5
-1.250, 3.204e-5
-1.251, 3.212e-5
-1.252, 3.222e-5
-1.253, 3.230e-5
-1.254, 3.237e-5
-1.255, 3.246e-5
-1.256, 3.252e-5
-1.257, 3.257e-5
-1.258, 3.265e-5
-1.259, 3.280e-5
-1.260, 3.298e-5
-1.261, 3.307e-5
-1.262, 3.324e-5
-1.263, 3.344e-5
-1.264, 3.357e-5
-1.265, 3.360e-5
-1.266, 3.358e-5
-1.267, 3.359e-5
-1.268, 3.359e-5
-1.269, 3.362e-5
-1.270, 3.367e-5
-1.271, 3.374e-5
-1.272, 3.378e-5
-1.273, 3.383e-5
-1.274, 3.385e-5
-1.275, 3.389e-5
-1.276, 3.392e-5
-1.277, 3.389e-5
-1.278, 3.390e-5
-1.279, 3.392e-5
-1.280, 3.396e-5
-1.281, 3.397e-5
-1.282, 3.399e-5
-1.283, 3.404e-5
-1.284, 3.408e-5
-1.285, 3.411e-5
-1.286, 3.421e-5
-1.287, 3.425e-5
-1.288, 3.439e-5
-1.289, 3.450e-5
-1.290, 3.463e-5
-1.291, 3.489e-5
-1.292, 3.503e-5
-1.293, 3.523e-5
-1.294, 3.524e-5
-1.295, 3.523e-5
-1.296, 3.524e-5
-1.297, 3.536e-5
-1.298, 3.546e-5
-1.299, 3.544e-5
-1.300, 3.545e-5
-1.301, 3.544e-5
-1.302, 3.552e-5
-1.303, 3.574e-5
-1.304, 3.571e-5
-1.305, 3.572e-5
-1.306, 3.581e-5
-1.307, 3.587e-5
-1.308, 3.590e-5
-1.309, 3.593e-5
-1.310, 3.594e-5
-1.311, 3.595e-5
-1.312, 3.599e-5
-1.313, 3.607e-5
-1.314, 3.613e-5
-1.315, 3.626e-5
-1.316, 3.635e-5
-1.317, 3.652e-5
-1.318, 3.662e-5
-1.319, 3.664e-5
-1.320, 3.652e-5
-1.321, 3.645e-5
-1.322, 3.646e-5
-1.323, 3.660e-5
-1.324, 3.674e-5
-1.325, 3.688e-5
-1.326, 3.690e-5
-1.327, 3.695e-5
-1.328, 3.705e-5
-1.329, 3.709e-5
-1.330, 3.717e-5
-1.331, 3.728e-5
-1.332, 3.734e-5
-1.333, 3.740e-5
-1.334, 3.751e-5
-1.335, 3.759e-5
-1.336, 3.764e-5
-1.337, 3.768e-5
-1.338, 3.771e-5
-1.339, 3.770e-5
-1.340, 3.765e-5
-1.341, 3.773e-5
-1.342, 3.785e-5
-1.343, 3.794e-5
-1.344, 3.803e-5
-1.345, 3.809e-5
-1.346, 3.815e-5
-1.347, 3.825e-5
-1.348, 3.832e-5
-1.349, 3.841e-5
-1.350, 3.850e-5
-1.351, 3.852e-5
-1.352, 3.869e-5
-1.353, 3.886e-5
-1.354, 3.893e-5
-1.355, 3.902e-5
-1.356, 3.913e-5
-1.357, 3.946e-5
-1.358, 3.947e-5
-1.359, 3.954e-5
-1.360, 3.966e-5
-1.361, 3.980e-5
-1.362, 4.006e-5
-1.363, 4.036e-5
-1.364, 4.045e-5
-1.365, 4.060e-5
-1.366, 4.071e-5
-1.367, 4.106e-5
-1.368, 4.135e-5
-1.369, 4.157e-5
-1.370, 4.176e-5
-1.371, 4.196e-5
-1.372, 4.209e-5
-1.373, 4.221e-5
-1.374, 4.235e-5
-1.375, 4.250e-5
-1.376, 4.264e-5
-1.377, 4.288e-5
-1.378, 4.301e-5
-1.379, 4.304e-5
-1.380, 4.307e-5
-1.381, 4.325e-5
-1.382, 4.347e-5
-1.383, 4.355e-5
-1.384, 4.365e-5
-1.385, 4.415e-5
-1.386, 4.492e-5
-1.387, 4.468e-5
-1.388, 4.471e-5
-1.389, 4.485e-5
-1.390, 4.506e-5
-1.391, 4.520e-5
-1.392, 4.531e-5
-1.393, 4.548e-5
-1.394, 4.557e-5
-1.395, 4.568e-5
-1.396, 4.579e-5
-1.397, 4.589e-5
-1.398, 4.608e-5
-1.399, 4.625e-5
-1.400, 4.637e-5
-1.401, 4.655e-5
-1.402, 4.673e-5
-1.403, 4.692e-5
-1.404, 4.710e-5
-1.405, 4.726e-5
-1.406, 4.739e-5
-1.407, 4.753e-5
-1.408, 4.771e-5
-1.409, 4.790e-5
-1.410, 4.807e-5
-1.411, 4.832e-5
-1.412, 4.861e-5
-1.413, 4.887e-5
-1.414, 4.916e-5
-1.415, 4.942e-5
-1.416, 4.973e-5
-1.417, 5.000e-5
-1.418, 5.045e-5
-1.419, 5.111e-5
-1.420, 5.147e-5
-1.421, 5.175e-5
-1.422, 5.202e-5
-1.423, 5.223e-5
-1.424, 5.247e-5
-1.425, 5.272e-5
-1.426, 5.298e-5
-1.427, 5.304e-5
-1.428, 5.314e-5
-1.429, 5.336e-5
-1.430, 5.369e-5
-1.431, 5.402e-5
-1.432, 5.430e-5
-1.433, 5.462e-5
-1.434, 5.504e-5
-1.435, 5.515e-5
-1.436, 5.539e-5
-1.437, 5.568e-5
-1.438, 5.600e-5
-1.439, 5.634e-5
-1.440, 5.672e-5
-1.441, 5.708e-5
-1.442, 5.733e-5
-1.443, 5.768e-5
-1.444, 5.798e-5
-1.445, 5.827e-5
-1.446, 5.863e-5
-1.447, 5.908e-5
-1.448, 5.930e-5
-1.449, 5.974e-5
-1.450, 6.020e-5
-1.451, 6.058e-5
-1.452, 6.088e-5
-1.453, 6.129e-5
-1.454, 6.176e-5
-1.455, 6.227e-5
-1.456, 6.270e-5
-1.457, 6.316e-5
-1.458, 6.374e-5
-1.459, 6.435e-5
-1.460, 6.469e-5
-1.461, 6.518e-5
-1.462, 6.576e-5
-1.463, 6.624e-5
-1.464, 6.670e-5
-1.465, 6.718e-5
-1.466, 6.765e-5
-1.467, 6.817e-5
-1.468, 6.863e-5
-1.469, 6.896e-5
-1.470, 6.942e-5
-1.471, 6.990e-5
-1.472, 7.038e-5
-1.473, 7.095e-5
-1.474, 7.156e-5
-1.475, 7.242e-5
-1.476, 7.304e-5
-1.477, 7.365e-5
-1.478, 7.420e-5
-1.479, 7.477e-5
-1.480, 7.538e-5
-1.481, 7.595e-5
-1.482, 7.669e-5
-1.483, 7.764e-5
-1.484, 7.875e-5
-1.485, 7.932e-5
-1.486, 7.987e-5
-1.487, 8.062e-5
-1.488, 8.135e-5
-1.489, 8.207e-5
-1.490, 8.283e-5
-1.491, 8.353e-5
-1.492, 8.434e-5
-1.493, 8.510e-5
-1.494, 8.578e-5
-1.495, 8.672e-5
-1.496, 8.752e-5
-1.497, 8.823e-5
-1.498, 8.915e-5
-1.499, 8.997e-5
-1.500, 9.072e-5
-1.501, 9.140e-5
-1.502, 9.217e-5
-1.503, 9.296e-5
-1.504, 9.372e-5
-1.505, 9.457e-5
-1.506, 9.539e-5
-1.507, 9.627e-5
-1.508, 9.722e-5
-1.509, 9.827e-5
-1.510, 9.924e-5
-1.511, 1.001e-4
-1.512, 1.011e-4
-1.513, 1.021e-4
-1.514, 1.031e-4
-1.515, 1.042e-4
-1.516, 1.051e-4
-1.517, 1.063e-4
-1.518, 1.074e-4
-1.519, 1.084e-4
-1.520, 1.094e-4
-1.521, 1.105e-4
-1.522, 1.113e-4
-1.523, 1.124e-4
-1.524, 1.134e-4
-1.525, 1.145e-4
-1.526, 1.157e-4
-1.527, 1.167e-4
-1.528, 1.177e-4
-1.529, 1.187e-4
-1.530, 1.198e-4
-1.531, 1.209e-4
-1.532, 1.223e-4
-1.533, 1.236e-4
-1.534, 1.246e-4
-1.535, 1.255e-4
-1.536, 1.267e-4
-1.537, 1.280e-4
-1.538, 1.292e-4
-1.539, 1.304e-4
-1.540, 1.316e-4
-1.541, 1.329e-4
-1.542, 1.342e-4
-1.543, 1.358e-4
-1.544, 1.372e-4
-1.545, 1.385e-4
-1.546, 1.398e-4
-1.547, 1.411e-4
-1.548, 1.425e-4
-1.549, 1.439e-4
-1.550, 1.452e-4
-1.551, 1.466e-4
-1.552, 1.479e-4
-1.553, 1.494e-4
-1.554, 1.508e-4
-1.555, 1.521e-4
-1.556, 1.535e-4
-1.557, 1.550e-4
-1.558, 1.564e-4
-1.559, 1.578e-4
-1.560, 1.594e-4
-1.561, 1.609e-4
-1.562, 1.625e-4
-1.563, 1.640e-4
-1.564, 1.655e-4
-1.565, 1.671e-4
-1.566, 1.688e-4
-1.567, 1.704e-4
-1.568, 1.721e-4
-1.569, 1.738e-4
-1.570, 1.754e-4
-1.571, 1.771e-4
-1.572, 1.787e-4
-1.573, 1.804e-4
-1.574, 1.821e-4
-1.575, 1.839e-4
-1.576, 1.857e-4
-1.577, 1.874e-4
-1.578, 1.867e-4
-1.579, 1.875e-4
-1.580, 1.897e-4
-1.581, 1.919e-4
-1.582, 1.941e-4
-1.583, 1.959e-4
-1.584, 1.977e-4
-1.585, 1.995e-4
-1.586, 2.013e-4
-1.587, 2.033e-4
-1.588, 2.052e-4
-1.589, 2.071e-4
-1.590, 2.088e-4
-1.591, 2.106e-4
-1.592, 2.125e-4
-1.593, 2.144e-4
-1.594, 2.164e-4
-1.595, 2.183e-4
-1.596, 2.204e-4
-1.597, 2.224e-4
-1.598, 2.246e-4
-1.599, 2.268e-4
-1.600, 2.289e-4
-1.601, 2.310e-4
-1.602, 2.330e-4
-1.603, 2.352e-4
-1.604, 2.375e-4
-1.605, 2.398e-4
-1.606, 2.421e-4
-1.607, 2.443e-4
-1.608, 2.466e-4
-1.609, 2.490e-4
-1.610, 2.513e-4
-1.611, 2.538e-4
-1.612, 2.562e-4
-1.613, 2.585e-4
-1.614, 2.609e-4
-1.615, 2.633e-4
-1.616, 2.657e-4
-1.617, 2.683e-4
-1.618, 2.708e-4
-1.619, 2.735e-4
-1.620, 2.761e-4
-1.621, 2.788e-4
-1.622, 2.816e-4
-1.623, 2.842e-4
-1.624, 2.866e-4
-1.625, 2.892e-4
-1.626, 2.920e-4
-1.627, 2.947e-4
-1.628, 2.973e-4
-1.629, 3.000e-4
-1.630, 3.029e-4
-1.631, 3.057e-4
-1.632, 3.085e-4
-1.633, 3.113e-4
-1.634, 3.142e-4
-1.635, 3.172e-4
-1.636, 3.201e-4
-1.637, 3.231e-4
-1.638, 3.261e-4
-1.639, 3.293e-4
-1.640, 3.324e-4
-1.641, 3.355e-4
-1.642, 3.386e-4
-1.643, 3.417e-4
-1.644, 3.444e-4
-1.645, 3.449e-4
-1.646, 3.474e-4
-1.647, 3.507e-4
-1.648, 3.538e-4
-1.649, 3.570e-4
-1.650, 3.601e-4
-1.651, 3.632e-4
-1.652, 3.664e-4
-1.653, 3.696e-4
-1.654, 3.729e-4
-1.655, 3.762e-4
-1.656, 3.794e-4
-1.657, 3.827e-4
-1.658, 3.861e-4
-1.659, 3.895e-4
-1.660, 3.928e-4
-1.661, 3.964e-4
-1.662, 3.998e-4
-1.663, 4.032e-4
-1.664, 4.067e-4
-1.665, 4.102e-4
-1.666, 4.138e-4
-1.667, 4.174e-4
-1.668, 4.210e-4
-1.669, 4.247e-4
-1.670, 4.284e-4
-1.671, 4.319e-4
-1.672, 4.356e-4
-1.673, 4.393e-4
-1.674, 4.432e-4
-1.675, 4.470e-4
-1.676, 4.506e-4
-1.677, 4.541e-4
-1.678, 4.578e-4
-1.679, 4.618e-4
-1.680, 4.657e-4
-1.681, 4.697e-4
-1.682, 4.736e-4
-1.683, 4.771e-4
-1.684, 4.781e-4
-1.685, 4.812e-4
-1.686, 4.853e-4
-1.687, 4.896e-4
-1.688, 4.937e-4
-1.689, 4.978e-4
-1.690, 5.022e-4
-1.691, 5.066e-4
-1.692, 5.109e-4
-1.693, 5.154e-4
-1.694, 5.199e-4
-1.695, 5.241e-4
-1.696, 5.285e-4
-1.697, 5.329e-4
-1.698, 5.378e-4
-1.699, 5.423e-4
-1.700, 5.467e-4
-1.701, 5.511e-4
-1.702, 5.550e-4
-1.703, 5.599e-4
-1.704, 5.647e-4
-1.705, 5.693e-4
-1.706, 5.736e-4
-1.707, 5.781e-4
-1.708, 5.830e-4
-1.709, 5.880e-4
-1.710, 5.926e-4
-1.711, 5.978e-4
-1.712, 6.030e-4
-1.713, 6.080e-4
-1.714, 6.130e-4
-1.715, 6.181e-4
-1.716, 6.231e-4
-1.717, 6.281e-4
-1.718, 6.327e-4
-1.719, 6.380e-4
-1.720, 6.431e-4
-1.721, 6.482e-4
-1.722, 6.534e-4
-1.723, 6.582e-4
-1.724, 6.632e-4
-1.725, 6.685e-4
-1.726, 6.741e-4
-1.727, 6.803e-4
-1.728, 6.871e-4
-1.729, 6.930e-4
-1.730, 6.986e-4
-1.731, 7.040e-4
-1.732, 7.093e-4
-1.733, 7.149e-4
-1.734, 7.209e-4
-1.735, 7.267e-4
-1.736, 7.325e-4
-1.737, 7.380e-4
-1.738, 7.439e-4
-1.739, 7.501e-4
-1.740, 7.557e-4
-1.741, 7.617e-4
-1.742, 7.679e-4
-1.743, 7.741e-4
-1.744, 7.803e-4
-1.745, 7.865e-4
-1.746, 7.922e-4
-1.747, 7.980e-4
-1.748, 8.038e-4
-1.749, 8.100e-4
-1.750, 8.161e-4
-1.751, 8.229e-4
-1.752, 8.291e-4
-1.753, 8.334e-4
-1.754, 8.424e-4
-1.755, 8.506e-4
-1.756, 8.567e-4
-1.757, 8.633e-4
-1.758, 8.701e-4
-1.759, 8.771e-4
-1.760, 8.843e-4
-1.761, 8.909e-4
-1.762, 8.975e-4
-1.763, 9.039e-4
-1.764, 9.106e-4
-1.765, 9.174e-4
-1.766, 9.241e-4
-1.767, 9.313e-4
-1.768, 9.390e-4
-1.769, 9.463e-4
-1.770, 9.532e-4
-1.771, 9.598e-4
-1.772, 9.660e-4
-1.773, 9.723e-4
-1.774, 9.831e-4
-1.775, 9.915e-4
-1.776, 9.988e-4
-1.777, 1.006e-3
-1.778, 1.011e-3
-1.779, 1.011e-3
-1.780, 1.011e-3
-1.781, 1.011e-3
-1.782, 1.011e-3
-1.783, 1.011e-3
-1.784, 1.011e-3
-1.785, 1.011e-3
-1.786, 1.011e-3
-1.787, 1.011e-3
-1.788, 1.011e-3
-1.789, 1.011e-3
-1.790, 1.011e-3
-1.791, 1.011e-3
-1.792, 1.011e-3
-1.793, 1.011e-3
-1.794, 1.011e-3
-1.795, 1.011e-3
-1.796, 1.011e-3
-1.797, 1.011e-3
-1.798, 1.011e-3
-1.799, 1.011e-3
-1.800, 1.011e-3
-1.801, 1.011e-3
-1.802, 1.011e-3
-1.803, 1.011e-3
-1.804, 1.011e-3
-1.805, 1.011e-3
-1.806, 1.011e-3
-1.807, 1.011e-3
-1.808, 1.011e-3
-1.809, 1.011e-3
-1.810, 1.011e-3
-1.811, 1.011e-3
-1.812, 1.011e-3
-1.813, 1.011e-3
-1.814, 1.011e-3
-1.815, 1.011e-3
-1.816, 1.011e-3
-1.817, 1.011e-3
-1.818, 1.011e-3
-1.819, 1.011e-3
-1.820, 1.011e-3
-1.821, 1.011e-3
-1.822, 1.011e-3
-1.823, 1.011e-3
-1.824, 1.011e-3
-1.825, 1.011e-3
-1.826, 1.011e-3
-1.827, 1.011e-3
-1.828, 1.011e-3
-1.829, 1.011e-3
-1.830, 1.011e-3
-1.831, 1.011e-3
-1.832, 1.011e-3
-1.833, 1.011e-3
-1.834, 1.011e-3
-1.835, 1.011e-3
-1.836, 1.011e-3
-1.837, 1.011e-3
-1.838, 1.011e-3
-1.839, 1.011e-3
-1.840, 1.011e-3
-1.841, 1.011e-3
-1.842, 1.011e-3
-1.843, 1.011e-3
-1.844, 1.011e-3
-1.845, 1.011e-3
-1.846, 1.011e-3
-1.847, 1.011e-3
-1.848, 1.011e-3
-1.849, 1.011e-3
-1.850, 1.011e-3
-1.851, 1.011e-3
-1.852, 1.011e-3
-1.853, 1.011e-3
-1.854, 1.011e-3
-1.855, 1.011e-3
-1.856, 1.011e-3
-1.857, 1.011e-3
-1.858, 1.011e-3
-1.859, 1.011e-3
-1.860, 1.011e-3
-1.861, 1.011e-3
-1.862, 1.011e-3
-1.863, 1.011e-3
-1.864, 1.011e-3
-1.865, 1.011e-3
-1.866, 1.011e-3
-1.867, 1.011e-3
-1.868, 1.011e-3
-1.869, 1.011e-3
-1.870, 1.011e-3
-1.871, 1.011e-3
-1.872, 1.011e-3
-1.873, 1.011e-3
-1.874, 1.011e-3
-1.875, 1.011e-3
-1.876, 1.011e-3
-1.877, 1.011e-3
-1.878, 1.011e-3
-1.879, 1.011e-3
-1.880, 1.011e-3
-1.881, 1.011e-3
-1.882, 1.011e-3
-1.883, 1.011e-3
-1.884, 1.011e-3
-1.885, 1.011e-3
-1.886, 1.011e-3
-1.887, 1.011e-3
-1.888, 1.011e-3
-1.889, 1.011e-3
-1.890, 1.011e-3
-1.891, 1.011e-3
-1.892, 1.011e-3
-1.893, 1.011e-3
-1.894, 1.011e-3
-1.895, 1.011e-3
-1.896, 1.011e-3
-1.897, 1.011e-3
-1.898, 1.011e-3
-1.899, 1.011e-3
-1.900, 1.011e-3
-1.901, 1.011e-3
-1.902, 1.011e-3
-1.903, 1.011e-3
-1.904, 1.011e-3
-1.905, 1.011e-3
-1.906, 1.011e-3
-1.907, 1.011e-3
-1.908, 1.011e-3
-1.909, 1.011e-3
-1.910, 1.011e-3
-1.911, 1.011e-3
-1.912, 1.011e-3
-1.913, 1.011e-3
-1.914, 1.011e-3
-1.915, 1.011e-3
-1.916, 1.011e-3
-1.917, 1.011e-3
-1.918, 1.011e-3
-1.919, 1.011e-3
-1.920, 1.011e-3
-1.921, 1.011e-3
-1.922, 1.011e-3
-1.923, 1.011e-3
-1.924, 1.011e-3
-1.925, 1.011e-3
-1.926, 1.011e-3
-1.927, 1.011e-3
-1.928, 1.011e-3
-1.929, 1.011e-3
-1.930, 1.011e-3
-1.931, 1.011e-3
-1.932, 1.011e-3
-1.933, 1.011e-3
-1.934, 1.011e-3
-1.935, 1.011e-3
-1.936, 1.011e-3
-1.937, 1.011e-3
-1.938, 1.011e-3
-1.939, 1.011e-3
-1.940, 1.011e-3
-1.941, 1.011e-3
-1.942, 1.011e-3
-1.943, 1.011e-3
-1.944, 1.011e-3
-1.945, 1.011e-3
-1.946, 1.011e-3
-1.947, 1.011e-3
-1.948, 1.011e-3
-1.949, 1.011e-3
-1.950, 1.011e-3
-1.951, 1.011e-3
-1.952, 1.011e-3
-1.953, 1.011e-3
-1.954, 1.011e-3
-1.955, 1.011e-3
-1.956, 1.011e-3
-1.957, 1.011e-3
-1.958, 1.011e-3
-1.959, 1.011e-3
-1.960, 1.011e-3
-1.961, 1.011e-3
-1.962, 1.011e-3
-1.963, 1.011e-3
-1.964, 1.011e-3
-1.965, 1.011e-3
-1.966, 1.011e-3
-1.967, 1.011e-3
-1.968, 1.011e-3
-1.969, 1.011e-3
-1.970, 1.011e-3
-1.971, 1.011e-3
-1.972, 1.011e-3
-1.973, 1.011e-3
-1.974, 1.011e-3
-1.975, 1.011e-3
-1.976, 1.011e-3
-1.977, 1.011e-3
-1.978, 1.011e-3
-1.979, 1.011e-3
-1.980, 1.011e-3
-1.981, 1.011e-3
-1.982, 1.011e-3
-1.983, 1.011e-3
-1.984, 1.011e-3
-1.985, 1.011e-3
-1.986, 1.011e-3
-1.987, 1.011e-3
-1.988, 1.011e-3
-1.989, 1.011e-3
-1.990, 1.011e-3
-1.991, 1.011e-3
-1.992, 1.011e-3
-1.993, 1.011e-3
-1.994, 1.011e-3
-1.995, 1.011e-3
-1.996, 1.011e-3
-1.997, 1.011e-3
-1.998, 1.011e-3
-1.999, 1.011e-3
-2.000, 1.011e-3
-2.001, 1.011e-3
-2.002, 1.011e-3
-2.003, 1.011e-3
-2.004, 1.011e-3
-2.005, 1.011e-3
-2.006, 1.011e-3
-2.007, 1.011e-3
-2.008, 1.011e-3
-2.009, 1.011e-3
-2.010, 1.011e-3
-2.011, 1.011e-3
-2.012, 1.011e-3
-2.013, 1.011e-3
-2.014, 1.011e-3
-2.015, 1.011e-3
-2.016, 1.011e-3
-2.017, 1.011e-3
-2.018, 1.011e-3
-2.019, 1.011e-3
-2.020, 1.011e-3
-2.021, 1.011e-3
-2.022, 1.011e-3
-2.023, 1.011e-3
-2.024, 1.011e-3
-2.025, 1.011e-3
-2.026, 1.011e-3
-2.027, 1.011e-3
-2.028, 1.011e-3
-2.029, 1.011e-3
-2.030, 1.011e-3
-2.031, 1.011e-3
-2.032, 1.011e-3
-2.033, 1.011e-3
-2.034, 1.011e-3
-2.035, 1.011e-3
-2.036, 1.011e-3
-2.037, 1.011e-3
-2.038, 1.011e-3
-2.039, 1.011e-3
-2.040, 1.011e-3
-2.041, 1.011e-3
-2.042, 1.011e-3
-2.043, 1.011e-3
-2.044, 1.011e-3
-2.045, 1.011e-3
-2.046, 1.011e-3
-2.047, 1.011e-3
-2.048, 1.011e-3
-2.049, 1.011e-3
-2.050, 1.011e-3
-2.051, 1.011e-3
-2.052, 1.011e-3
-2.053, 1.011e-3
-2.054, 1.011e-3
-2.055, 1.011e-3
-2.056, 1.011e-3
-2.057, 1.011e-3
-2.058, 1.011e-3
-2.059, 1.011e-3
-2.060, 1.011e-3
-2.061, 1.011e-3
-2.062, 1.011e-3
-2.063, 1.011e-3
-2.064, 1.011e-3
-2.065, 1.011e-3
-2.066, 1.011e-3
-2.067, 1.011e-3
-2.068, 1.011e-3
-2.069, 1.011e-3
-2.070, 1.011e-3
-2.071, 1.011e-3
-2.072, 1.011e-3
-2.073, 1.011e-3
-2.074, 1.011e-3
-2.075, 1.011e-3
-2.076, 1.011e-3
-2.077, 1.011e-3
-2.078, 1.011e-3
-2.079, 1.011e-3
-2.080, 1.011e-3
-2.081, 1.011e-3
-2.082, 1.011e-3
-2.083, 1.011e-3
-2.084, 1.011e-3
-2.085, 1.011e-3
-2.086, 1.011e-3
-2.087, 1.011e-3
-2.088, 1.011e-3
-2.089, 1.011e-3
-2.090, 1.011e-3
-2.091, 1.011e-3
-2.092, 1.011e-3
-2.093, 1.011e-3
-2.094, 1.011e-3
-2.095, 1.011e-3
-2.096, 1.011e-3
-2.097, 1.011e-3
-2.098, 1.011e-3
-2.099, 1.011e-3
