Potential V vs RHE, Current mA cm-2
0.013299999999999867,2.70209858274222
0.012299999999999978,1.7867803717295414
0.011299999999999866,0.9573351366186703
0.010299999999999976,0.17231183632356148
0.009299999999999864,-0.4384190318281749
0.008299999999999974,-0.8308599464107361
0.007299999999999862,-1.0925815368857679
0.006299999999999972,-1.5717442541500557
0.00529999999999986,-2.095187435100119
0.0042999999999999705,-2.4884771764625997
0.0032999999999998586,-2.7501987669376318
0.0022999999999999687,-2.8803522065252145
0.0012999999999998568,-3.2297858975918787
0.00029999999999996696,-3.6655169779503103
-0.000700000000000145,-3.971094618721158
-0.0017000000000000348,-4.146518819904423
-0.0027000000000001467,-4.276672259492005
-0.0037000000000000366,-4.582249900262854
-0.0047000000000001485,-4.974124930325469
-0.005700000000000038,-5.235846520800501
-0.00670000000000015,-5.411270721983764
-0.00770000000000004,-5.453712060979717
-0.008700000000000152,-5.715433651454749
-0.009700000000000042,-6.064867342521412
-0.010700000000000154,-6.326588932996443
-0.011700000000000044,-6.458157083883892
-0.012700000000000156,-6.500598422879844
-0.013700000000000045,-6.719878674358924
-0.014700000000000157,-7.067897654125724
-0.015700000000000047,-7.37347529489657
-0.01670000000000016,-7.461187395488204
-0.01770000000000005,-7.5474847847799715
-0.01870000000000016,-7.809206375255003
-0.01970000000000005,-8.158640066321666
-0.020700000000000163,-8.464217707092514
-0.021700000000000053,-8.55051509638428
-0.022700000000000164,-8.594371146680096
-0.023700000000000054,-8.85609273715513
-0.024700000000000166,-9.205526428221793
-0.025700000000000056,-9.511104068992642
-0.026700000000000168,-9.59740145828441
-0.027700000000000058,-9.641257508580225
-0.02870000000000017,-9.85912304875944
-0.02970000000000006,-10.208556739826104
-0.03070000000000017,-10.514134380596953
-0.03170000000000006,-10.601846481188586
-0.03270000000000017,-10.644287820184536
-0.03370000000000006,-10.906009410659568
-0.034700000000000175,-11.343155202317865
-0.035700000000000065,-11.647318131788847
-0.03670000000000018,-11.73503023238048
-0.03770000000000007,-11.82274233297211
-0.03870000000000018,-12.084463923447142
-0.03970000000000007,-12.520195003805576
-0.04070000000000018,-12.781916594280606
-0.04170000000000007,-12.913484745168056
-0.04270000000000018,-12.955926084164007
-0.04370000000000007,-13.217647674639037
-0.044700000000000184,-13.610937416001518
-0.045700000000000074,-13.916515056772363
-0.046700000000000186,-14.046668496359947
-0.047700000000000076,-14.13438059695158
-0.04870000000000019,-14.444202371622024
-0.04970000000000008,-14.826174422585586
-0.05070000000000019,-15.137410908555893
-0.05170000000000008,-15.264734925543747
-0.05270000000000019,-15.349617603535648
-0.05370000000000008,-15.660854089505953
-0.05470000000000019,-16.056973253468165
-0.05570000000000008,-16.396503965435777
-0.056700000000000195,-16.580416434418233
-0.057700000000000085,-16.665299112410132
-0.058700000000000196,-16.919947146385837
-0.059700000000000086,-17.316066310348052
-0.0607000000000002,-17.669744135314307
-0.06170000000000009,-17.797068152302163
-0.0627000000000002,-17.924392169290012
-0.06370000000000009,-18.19318731626437
-0.0647000000000002,-18.631747819222536
-0.06570000000000009,-18.92883719219419
-0.0667000000000002,-19.056161209182044
-0.0677000000000001,-19.112749661176647
-0.0687000000000002,-19.367397695152352
-0.0697000000000001,-19.805958198110513
-0.07070000000000021,-20.202077362072725
-0.0717000000000001,-20.371842718056527
-0.07270000000000021,-20.499166735044383
-0.0737000000000001,-20.85284456001064
-0.07470000000000021,-21.291405062968803
-0.0757000000000001,-21.63093577493641
-0.07670000000000021,-21.857289582914817
-0.0777000000000001,-21.98461359990267
-0.07870000000000021,-22.253408746877028
-0.0797000000000001,-22.592939458844636
-0.08070000000000022,-22.904175944814945
-0.0817000000000001,-23.031499961802798
-0.08270000000000022,-23.15882397879065
-0.08370000000000011,-23.51250180375691
-0.08470000000000022,-24.035944984706973
-0.08570000000000011,-24.474505487665134
-0.08670000000000022,-24.729153521640843
-0.08770000000000011,-24.95550732961925
-0.08870000000000022,-25.337479380582806
-0.08970000000000011,-25.86092256153287
-0.09070000000000022,-26.17215904750318
-0.09170000000000011,-26.29948306449103
-0.09270000000000023,-26.38436574248293
-0.09370000000000012,-26.61071955046134
-0.09470000000000023,-26.9643973754276
-0.09570000000000012,-27.261486748399253
-0.09670000000000023,-27.38881076538711
-0.09770000000000012,-27.487840556377662
-0.09870000000000023,-27.78492992934932
-0.09970000000000012,-28.308373110299385
-0.10070000000000023,-28.746933613257543
-0.10170000000000012,-28.959140308237306
-0.10270000000000024,-29.14305277721976
-0.10370000000000013,-29.581613280177915
-0.10470000000000024,-30.232380478115836
-0.10570000000000013,-30.7558236590659
-0.10670000000000024,-30.968030354045652
-0.10770000000000013,-31.052913032037555
-0.10870000000000024,-31.321708179011907
-0.10970000000000013,-31.533914873991666
-0.11070000000000024,-31.57635621298762
-0.11170000000000013,-31.49147353499572
-0.11270000000000002,-31.449032195999767
-0.11370000000000013,-31.76026868197007
-0.11470000000000002,-32.41103587990799
-0.11570000000000014,-32.97692039985401
-0.11670000000000003,-33.288156885824314
-0.11770000000000014,-33.45792224180811
-0.11870000000000003,-33.81160006677438
-0.11970000000000014,-34.193572117737936
-0.12070000000000003,-34.41992592571634
-0.12170000000000014,-34.236013456733886
-0.12270000000000003,-33.89648274476628
-0.12370000000000014,-33.89648274476628
-0.12470000000000003,-34.10868943974604
-0.12570000000000014,-34.33504324772444
-0.12670000000000003,-34.462367264712285
-0.12770000000000015,-34.85848642867451
-0.12870000000000004,-35.55169496560837
-0.12970000000000015,-36.329786180534136
-0.13070000000000004,-36.81078802248826
-0.13170000000000015,-37.122024508458566
-0.13270000000000004,-37.56058501141672
-0.13370000000000015,-38.12646953136274
-0.13470000000000004,-38.692354051308754
-0.13570000000000015,-38.94700208528445
-0.13670000000000004,-39.046031876275016
-0.13770000000000016,-39.046031876275016
-0.13870000000000005,-39.30067991025072
-0.13970000000000016,-39.696799074212926
-0.14070000000000005,-39.95144710818864
-0.14170000000000016,-40.135359577171094
-0.14270000000000005,-40.26268359415894
-0.14370000000000016,-40.51733162813464
-0.14470000000000005,-40.95589213109281
-0.14570000000000016,-41.39445263405098
-0.14670000000000005,-41.70568912002128
-0.14770000000000016,-41.87545447600508
-0.14870000000000005,-42.087661170984845
-0.14970000000000017,-42.483780334947056
-0.15070000000000006,-42.79501682091736
-0.15170000000000017,-42.92234083790521
-0.15270000000000006,-42.96478217690117
-0.15370000000000017,-43.09210619388902
-0.15470000000000006,-43.44578401885527
-0.15570000000000017,-43.75702050482558
-0.15670000000000006,-43.88434452181344
-0.15770000000000017,-43.92678586080939
-0.15870000000000006,-44.181433894785094
-0.15970000000000018,-44.704877075735155
-0.16070000000000007,-45.18587891768927
-0.16170000000000018,-45.36979138667173
-0.16270000000000007,-45.412232725667685
-0.16370000000000018,-45.624439420647434
-0.16470000000000007,-46.02055858460964
-0.16570000000000018,-46.3176479575813
-0.16670000000000007,-46.27520661858535
-0.16770000000000018,-46.147882601597495
-0.16870000000000007,-46.41667774857186
-0.16970000000000018,-46.79864979953541
-0.17070000000000007,-47.067444946509774
-0.17170000000000019,-47.15232762450167
-0.17270000000000008,-47.32209298048547
-0.1737000000000002,-47.71821214444768
-0.17470000000000008,-48.156772647405845
-0.1757000000000002,-48.51045047237211
-0.17670000000000008,-48.72265716735186
-0.1777000000000002,-48.80753984534376
-0.17870000000000008,-49.03389365332217
-0.1797000000000002,-49.373424365289786
-0.18070000000000008,-49.642219512264134
-0.1817000000000002,-49.642219512264134
-0.18270000000000008,-49.557336834272235
-0.1837000000000002,-49.68466085126009
-0.1847000000000001,-50.12322135421825
-0.1857000000000002,-50.60422319617236
-0.1867000000000001,-50.81642989115212
-0.1877000000000002,-50.90131256914402
-0.1887000000000001,-51.071077925127824
-0.1897000000000002,-51.46719708909004
-0.1907000000000001,-51.82087491405629
-0.1917000000000001,-51.948198931044146
-0.19269999999999998,-51.90575759204819
-0.1937000000000001,-51.990640270040096
-0.19469999999999998,-52.30187675601041
-0.1957000000000001,-52.514083450990164
-0.19669999999999999,-52.514083450990164
-0.1977000000000001,-52.59896612898206
-0.1987,-52.95264395394832
-0.1997000000000001,-53.39120445690648
-0.2007,-53.7873236208687
-0.2017000000000001,-53.872206298860604
-0.2027,-53.872206298860604
-0.2037000000000001,-53.9570889768525
-0.2047,-54.31076680181876
-0.2057000000000001,-54.65029751378637
-0.2067,-54.69273885278232
-0.2077000000000001,-54.69273885278232
-0.2087,-55.003975338752625
-0.2097000000000001,-55.442535841710786
-0.2107,-55.6971838756865
-0.2117000000000001,-55.6971838756865
-0.2127,-55.65474253669055
-0.2137000000000001,-55.9235376836649
-0.2147,-56.404539525619015
-0.2157000000000001,-56.70162889859067
-0.2167,-56.65918755959472
-0.21770000000000012,-56.53186354260687
-0.2187,-56.65918755959472
-0.21970000000000012,-57.012865384560975
-0.2207,-57.182630740544774
-0.22170000000000012,-57.05530672355693
-0.2227,-57.05530672355693
-0.22370000000000012,-57.22507207954074
-0.2247,-57.53630856551105
-0.22570000000000012,-57.66363258249889
-0.2267,-57.70607392149485
-0.22770000000000012,-57.87583927747865
-0.22870000000000001,-58.10219308545706
-0.22970000000000013,-58.31439978043681
-0.23070000000000002,-58.45587091042332
-0.23170000000000013,-58.62563626640712
-0.23270000000000002,-58.880284300382826
-0.23370000000000013,-59.06419676936528
-0.23470000000000002,-59.23396212534908
-0.23570000000000013,-59.403727481332886
-0.23670000000000002,-59.44616882032884
-0.2376999999999999,-59.36128614233694
-0.23870000000000002,-59.27640346434504
-0.2396999999999999,-59.403727481332886
-0.24070000000000003,-59.757405306299155
-0.24169999999999991,-59.92717066228296
-0.24270000000000003,-59.7998466452951
-0.24369999999999992,-59.7998466452951
-0.24470000000000003,-60.02620045327351
-0.24569999999999992,-60.32328982624517
-0.24670000000000003,-60.15352447026136
-0.24769999999999992,-59.67252262830725
-0.24870000000000003,-59.54519861131939
-0.24969999999999992,-59.9696120012789
-0.25070000000000003,-60.40817250423707
-0.2516999999999999,-60.36573116524111
-0.25270000000000004,-60.19596580925731
-0.2536999999999999,-60.45061384323302
-0.25470000000000004,-61.242852171157445
-0.2556999999999999,-61.53994154412909
-0.25670000000000004,-61.28529351015339
-0.25769999999999993,-60.974057024183075
-0.25870000000000004,-61.20041083216149
-0.25969999999999993,-61.49750020513315
-0.26070000000000004,-61.242852171157445
-0.26169999999999993,-60.71940899020737
-0.26270000000000004,-60.36573116524111
-0.26369999999999993,-60.32328982624517
-0.26470000000000005,-60.40817250423707
-0.26569999999999994,-60.54964363422357
-0.26670000000000005,-60.63452631221547
-0.26769999999999994,-60.80429166819927
-0.26870000000000005,-60.84673300719523
-0.26969999999999994,-60.974057024183075
-0.27070000000000005,-61.242852171157445
-0.27169999999999994,-61.327734849149344
-0.27270000000000005,-61.15796949316553
-0.27369999999999994,-61.01649836317903
-0.27470000000000006,-61.07308681517363
-0.27569999999999995,-61.15796949316553
-0.27670000000000006,-61.01649836317903
-0.27769999999999995,-60.67696765121143
-0.27870000000000006,-60.63452631221547
-0.27969999999999995,-60.80429166819927
-0.28070000000000006,-60.93161568518713
-0.28169999999999995,-60.761850329203334
-0.28270000000000006,-60.59208497321952
-0.28369999999999995,-60.761850329203334
-0.28470000000000006,-61.07308681517363
-0.28569999999999995,-61.07308681517363
-0.28670000000000007,-60.84673300719523
-0.28769999999999996,-60.761850329203334
-0.28870000000000007,-60.93161568518713
-0.28969999999999996,-61.11552815416958
-0.29070000000000007,-60.974057024183075
-0.29169999999999996,-60.889174346191176
-0.29270000000000007,-60.761850329203334
-0.29369999999999996,-60.63452631221547
-0.2947000000000001,-60.63452631221547
-0.29569999999999996,-60.71940899020737
-0.2967000000000001,-60.761850329203334
-0.29769999999999996,-60.54964363422357
-0.2987000000000001,-60.28084848724921
-0.29969999999999997,-60.11108313126541
-0.3007000000000001,-60.11108313126541
-0.30169999999999997,-60.06864179226946
-0.3027000000000001,-59.884729323287
-0.30369999999999997,-59.757405306299155
-0.3047000000000001,-59.884729323287
-0.30569999999999997,-59.92717066228296
-0.3067000000000001,-59.67252262830725
-0.3077,-59.36128614233694
-0.3087000000000001,-59.44616882032884
-0.3097,-59.842287984291055
-0.3107000000000001,-59.884729323287
-0.3117,-59.587639950315335
-0.3127000000000001,-59.27640346434504
-0.3137,-59.27640346434504
-0.3147000000000001,-59.31884480334099
-0.3157,-59.31884480334099
-0.3167000000000001,-59.14907944735718
-0.3177,-59.10663810836124
-0.3187000000000001,-59.10663810836124
-0.3197,-59.23396212534908
-0.3207000000000001,-59.36128614233694
-0.3217,-59.23396212534908
-0.3227000000000001,-59.06419676936528
-0.3237,-59.10663810836124
-0.3247000000000001,-59.27640346434504
-0.3257,-59.36128614233694
-0.3267000000000001,-59.02175543036933
-0.3277,-58.498312249419264
-0.3287000000000001,-58.22951710244491
-0.3297,-58.45587091042332
-0.3307000000000001,-58.498312249419264
-0.3317,-58.31439978043681
-0.3327000000000001,-58.14463442445301
-0.3337,-58.18707576344896
-0.3347000000000001,-58.45587091042332
-0.3357,-58.62563626640712
-0.3367000000000001,-58.62563626640712
-0.3377,-58.498312249419264
-0.3387000000000001,-58.39928245842871
-0.3397,-58.54075358841522
-0.3407000000000001,-58.498312249419264
-0.3417,-58.18707576344896
-0.3427000000000001,-57.974869068469204
-0.3437,-58.05975174646111
-0.3447000000000001,-58.27195844144086
-0.3457,-58.35684111943277
-0.3467000000000001,-58.22951710244491
-0.3477,-58.017310407465146
-0.3487000000000001,-57.974869068469204
-0.3497,-58.14463442445301
-0.3507000000000001,-58.27195844144086
-0.3517,-58.22951710244491
-0.3527000000000001,-58.18707576344896
-0.3537,-58.35684111943277
-0.3547000000000001,-58.583194927411164
-0.3557,-58.62563626640712
-0.35670000000000013,-58.45587091042332
-0.3577,-58.35684111943277
-0.35870000000000013,-58.498312249419264
-0.3597,-58.62563626640712
-0.36070000000000013,-58.66807760540307
-0.3617,-58.583194927411164
-0.3626999999999999,-58.498312249419264
-0.3637,-58.62563626640712
-0.3646999999999999,-58.75296028339497
-0.3657,-58.92272563937878
-0.3666999999999999,-59.02175543036933
-0.3677,-59.10663810836124
-0.3686999999999999,-59.23396212534908
-0.36970000000000003,-59.502757272323436
-0.3706999999999999,-59.757405306299155
-0.37170000000000003,-59.842287984291055
-0.3726999999999999,-59.757405306299155
-0.37370000000000003,-59.67252262830725
-0.3746999999999999,-59.842287984291055
-0.37570000000000003,-60.06864179226946
-0.3766999999999999,-60.15352447026136
-0.37770000000000004,-59.9696120012789
-0.3786999999999999,-60.02620045327351
-0.37970000000000004,-60.28084848724921
-0.3806999999999999,-60.54964363422357
-0.38170000000000004,-60.45061384323302
-0.38269999999999993,-60.23840714825326
-0.38370000000000004,-60.28084848724921
-0.38469999999999993,-60.59208497321952
-0.38570000000000004,-60.761850329203334
-0.38669999999999993,-60.71940899020737
-0.38770000000000004,-60.761850329203334
-0.38869999999999993,-60.93161568518713
-0.38970000000000005,-61.28529351015339
-0.39069999999999994,-61.63897133511965
-0.39170000000000005,-61.7662953521075
-0.39269999999999994,-61.7662953521075
-0.39370000000000005,-61.72385401311155
-0.39469999999999994,-61.89361936909536
-0.39570000000000005,-62.16241451606972
-0.39669999999999994,-62.20485585506566
-0.39770000000000005,-62.11997317707376
-0.39869999999999994,-62.16241451606972
-0.39970000000000006,-62.501945228037314
-0.40069999999999995,-62.855623053003576
-0.40170000000000006,-62.94050573099548
-0.40269999999999995,-63.06782974798333
-0.40370000000000006,-63.46394891194555
-0.40469999999999995,-64.0722747708875
-0.40570000000000006,-64.34106991786187
-0.40669999999999995,-64.29862857886593
-0.40770000000000006,-64.25618723986996
-0.40869999999999995,-64.42595259585376
-0.40970000000000006,-64.72304196882543
-0.41069999999999995,-64.82207175981598
-0.41170000000000007,-64.77963042082003
-0.41269999999999996,-64.90695443780788
-0.41370000000000007,-65.11916113278764
-0.41469999999999996,-65.38795627976201
-0.41570000000000007,-65.68504565273366
-0.41669999999999996,-65.99628213870396
-0.41770000000000007,-66.25093017267966
-0.41869999999999996,-66.51972531965401
-0.4197000000000001,-66.81681469262568
-0.42069999999999996,-67.128051178596
-0.4217000000000001,-67.25537519558385
-0.42269999999999996,-67.2978165345798
-0.4237000000000001,-67.43928766456631
-0.42469999999999997,-67.82125971552985
-0.4257000000000001,-68.25982021848802
-0.42669999999999997,-68.44373268747047
-0.4277000000000001,-68.61349804345427
-0.42869999999999997,-69.22182390239624
-0.4297000000000001,-70.26871026429637
-0.43069999999999997,-71.1458312702127
-0.4317000000000001,-71.6268331121668
-0.4327,-71.96636382413442
-0.4337000000000001,-72.48980700508447
-0.4347,-72.75860215205884
-0.4357000000000001,-72.44736566608852
-0.4367,-72.19271763211282
-0.4377000000000001,-72.53224834408043
-0.4387,-73.45181068899271
-0.4397000000000001,-74.45625571189689
-0.4407,-75.2484940398213
-0.4417000000000001,-76.02658525474708
-0.4427,-77.03103027765125
-0.4437000000000001,-78.24768199553519
-0.4447,-79.33700969643127
-0.4457000000000001,-80.00192400736783
-0.4467,-80.56780852731384
-0.4477000000000001,-81.13369304725985
-0.4487,-81.74201890620182
-0.4497000000000001,-82.47766878213164
-0.4507,-83.48211380503581
-0.4517000000000001,-84.61388284492786
-0.4527,-86.01444703179425
-0.4537000000000001,-87.49989389665252
-0.4547,-89.32487147347842
-0.4557000000000001,-91.29132018029082
-0.4567,-93.13044487011537
-0.4577000000000001,-94.47442060498715
-0.4587,-95.64863098387512
-0.4597000000000001,-97.09163650973747
-0.4607,-98.6195247135917
-0.4617000000000001,-99.93520622246619
-0.4627,-101.23674061834203
-0.4637000000000001,-102.72218748320032
-0.4647,-104.5471650600262
-0.4657000000000001,-106.38628974985076
-0.4667,-107.99906063169689
-0.4677000000000001,-109.56939017454708
-0.4687,-111.5358388813595
-0.4697000000000001,-113.79937696114357
-0.4707,-115.76582566795594
-0.4717000000000001,-117.25127253281424
-0.4727,-118.63768960668197
-0.4737000000000001,-120.43437295751058
-0.4747,-122.34423321232836
-0.4757000000000001,-124.09847522416102
-0.4767,-125.6688047670112
-0.4777000000000001,-127.45134100484115
-0.4787,-129.6299964066333
-0.4797000000000001,-131.80865180842545
-0.4807,-133.81754185423384
-0.48170000000000013,-135.74154922205025
-0.4827,-137.70799792886265
-0.48370000000000013,-139.80177065266292
-0.4847,-141.75407224647665
-0.48570000000000013,-143.4517258063147
-0.4867,-143.3102546763282
-0.48570000000000013,-141.61260111649017
-0.4847,-140.36765517260895
-0.48370000000000013,-139.6602995226764
-0.4827,-139.22173901971826
-0.48170000000000013,-138.92464964674662
-0.4807,-139.13685634172634
-0.4797000000000001,-139.44809282769666
-0.4787,-138.92464964674662
-0.4777000000000001,-137.75043926785864
-0.4767,-136.66111156696255
-0.4757000000000001,-135.86887323903812
-0.4747,-135.17566470210423
-0.4737000000000001,-134.17121967920008
-0.4727,-132.9404208483175
-0.4717000000000001,-131.46912109645783
-0.4707,-129.8563502146117
-0.4697000000000001,-128.144549541775
-0.4687,-126.40445464294103
-0.4677000000000001,-124.83412510009084
-0.4667,-123.43356091322445
-0.4657000000000001,-122.21690919534053
-0.4647,-121.43881798041474
-0.4637000000000001,-121.00025747745659
-0.4627,-120.56169697449842
