Potential V vs RHE, Current mA cm-2
0.013299999999999867,-0.38508441582326297
0.012299999999999978,-0.9481395131695476
0.011299999999999866,-1.23249648444242
0.010299999999999976,-1.4359319693630124
0.009299999999999864,-1.5887207897484361
0.008299999999999974,-1.656626932141958
0.007299999999999862,-1.7174595180361545
0.006299999999999972,-1.8249775768258971
0.00529999999999986,-1.9423986147146954
0.0042999999999999705,-2.0329401379060577
0.0032999999999998586,-2.0626490752032236
0.0022999999999999687,-2.0881138786007942
0.0012999999999998568,-2.1758259791924264
0.00029999999999996696,-2.2748557701829792
-0.000700000000000145,-2.347006046476096
-0.0017000000000000348,-2.3767149837732613
-0.0027000000000001467,-2.4035944984706976
-0.0037000000000000366,-2.4814036199632743
-0.0047000000000001485,-2.5804334109538267
-0.005700000000000038,-2.648339553347349
-0.00670000000000015,-2.6794632019443796
-0.00770000000000004,-2.7077574279416803
-0.008700000000000152,-2.791225394633717
-0.009700000000000042,-2.8944993195238653
-0.010700000000000154,-2.972308441016442
-0.011700000000000044,-3.006261512213203
-0.012700000000000156,-3.041629294709829
-0.013700000000000045,-3.119438416202406
-0.014700000000000157,-3.232615320191609
-0.015700000000000047,-3.3189127094833766
-0.01670000000000016,-3.355695203279867
-0.01770000000000005,-3.403795387475278
-0.01870000000000016,-3.4915074880669104
-0.01970000000000005,-3.6075138146558436
-0.020700000000000163,-3.702299471746801
-0.021700000000000053,-3.733423120343832
-0.022700000000000164,-3.8140616644361387
-0.023700000000000054,-3.927238568425342
-0.024700000000000166,-4.05597729671306
-0.025700000000000056,-4.155007087703612
-0.026700000000000168,-4.191789581500104
-0.027700000000000058,-4.273842836892276
-0.02870000000000017,-4.382775606981883
-0.02970000000000006,-4.518587891768927
-0.03070000000000017,-4.652985465256107
-0.03170000000000006,-4.7010856494515165
-0.03270000000000017,-4.77748005964423
-0.03370000000000006,-4.921780612230462
-0.034700000000000175,-5.060422319617237
-0.035700000000000065,-5.19906402700401
-0.03670000000000018,-5.283946704995913
-0.03770000000000007,-5.3631705377883545
-0.03870000000000018,-5.510300512974317
-0.03970000000000007,-5.668748178559202
-0.04070000000000018,-5.80314575204638
-0.04170000000000007,-5.909249099536258
-0.04270000000000018,-5.995546488828026
-0.04370000000000007,-6.15965299961237
-0.044700000000000184,-6.332247778195904
-0.045700000000000074,-6.476548330782138
-0.046700000000000186,-6.593969368670936
-0.047700000000000076,-6.680266757962703
-0.04870000000000019,-6.855690959145968
-0.04970000000000008,-7.063653520226129
-0.05070000000000019,-7.216442340611552
-0.05170000000000008,-7.329619244600755
-0.05270000000000019,-7.464016818087933
-0.05370000000000008,-7.639441019271198
-0.05470000000000019,-7.831841756052842
-0.05570000000000008,-8.012924802435567
-0.056700000000000195,-8.144492953323017
-0.057700000000000085,-8.267572836411274
-0.058700000000000196,-8.448655882793998
-0.059700000000000086,-8.666521422973215
-0.0607000000000002,-8.85609273715513
-0.06170000000000009,-9.000393289741364
-0.0627000000000002,-9.141864419727867
-0.06370000000000009,-9.330021022609918
-0.0647000000000002,-9.55496011928846
-0.06570000000000009,-9.769996236867943
-0.0667000000000002,-9.910052655554582
-0.0677000000000001,-10.064256187239872
-0.0687000000000002,-10.255242212721651
-0.0697000000000001,-10.483010731999922
-0.07070000000000021,-10.683899736580756
-0.0717000000000001,-10.804150197069285
-0.07270000000000021,-11.005039201650119
-0.0737000000000001,-11.271004926024748
-0.07470000000000021,-11.473308641905447
-0.0757000000000001,-11.640244575289522
-0.07670000000000021,-11.801521663474135
-0.0777000000000001,-11.986848843756457
-0.07870000000000021,-12.224520342133783
-0.0797000000000001,-12.470680108310297
-0.08070000000000022,-12.667324978991537
-0.0817000000000001,-12.810210820277907
-0.08270000000000022,-12.975732042362116
-0.08370000000000011,-13.216232963339174
-0.08470000000000022,-13.472295708614745
-0.08570000000000011,-13.671770001895714
-0.08670000000000022,-13.867000161277092
-0.08770000000000011,-14.016959559062784
-0.08870000000000022,-14.274437015638219
-0.08970000000000011,-14.529085049613924
-0.09070000000000022,-14.769585970590983
-0.09170000000000011,-14.939351326574789
-0.09270000000000023,-15.10911668255859
-0.09370000000000012,-15.37791182953295
-0.09470000000000023,-15.604265637511356
-0.09570000000000012,-15.816472332491113
-0.09670000000000023,-16.014531914472215
-0.09770000000000012,-16.184297270456018
-0.09870000000000023,-16.368209739438473
-0.09970000000000012,-16.70774045140608
-0.10070000000000023,-16.93409425938449
-0.10170000000000012,-17.103859615368293
-0.10270000000000024,-17.316066310348052
-0.10370000000000013,-17.542420118326454
-0.10470000000000024,-17.71218547431026
-0.10570000000000013,-17.995127734283265
-0.10670000000000024,-18.207334429263025
-0.10770000000000013,-18.362952672248177
-0.10870000000000024,-18.617600706223882
-0.10970000000000013,-18.900542966196888
-0.11070000000000024,-19.070308322180697
-0.11170000000000013,-19.3249563561564
-0.11270000000000002,-19.65033995512536
-0.11370000000000013,-19.848399537106463
-0.11470000000000002,-20.03231200608892
-0.11570000000000014,-20.244518701068674
-0.11670000000000003,-20.456725396048434
-0.11770000000000014,-20.626490752032236
-0.11870000000000003,-20.86699167300929
-0.11970000000000014,-21.16408104598095
-0.12070000000000003,-21.404581966958006
-0.12170000000000014,-21.63093577493641
-0.12270000000000003,-21.828995356917517
-0.12370000000000014,-22.055349164895922
-0.12470000000000003,-22.324144311870278
-0.12570000000000014,-22.536351006850033
-0.12670000000000003,-22.80514615382439
-0.12770000000000015,-22.960764396809545
-0.12870000000000004,-23.1729710917893
-0.12970000000000015,-23.48420757775961
-0.13070000000000004,-23.738855611735314
-0.13170000000000015,-23.951062306715073
-0.13270000000000004,-24.149121888696175
-0.13370000000000015,-24.389622809673234
-0.13470000000000004,-24.65841795664759
-0.13570000000000015,-24.884771764625995
-0.13670000000000004,-25.1394197986017
-0.13770000000000016,-25.280890928588207
-0.13870000000000005,-25.535538962563912
-0.13970000000000016,-25.81848122253692
-0.14070000000000005,-26.073129256512626
-0.14170000000000016,-26.34192440348698
-0.14270000000000005,-26.469248420474838
-0.14370000000000016,-26.709749341451893
-0.14470000000000005,-26.9643973754276
-0.14570000000000016,-27.38881076538711
-0.14670000000000005,-27.558576121370916
-0.14770000000000016,-27.615164573365515
-0.14870000000000005,-27.742488590353368
-0.14970000000000017,-28.12446064131693
-0.15070000000000006,-28.56302114427509
-0.15170000000000017,-28.718639387260247
-0.15270000000000006,-28.732786500258893
-0.15370000000000017,-28.91669896924135
-0.15470000000000006,-29.242082568210304
-0.15570000000000017,-29.440142150191413
-0.15670000000000006,-29.751378636161718
-0.15770000000000017,-29.935291105144174
-0.15870000000000006,-30.21823336511718
-0.15970000000000018,-30.47288139909289
-0.16070000000000007,-30.769970772064546
-0.16170000000000018,-30.99632458004295
-0.16270000000000007,-31.052913032037555
-0.16370000000000018,-31.27926684001596
-0.16470000000000007,-31.64709177798087
-0.16570000000000018,-31.717827342974125
-0.16670000000000007,-32.07150516794038
-0.16770000000000018,-32.32615320191609
-0.16870000000000007,-32.52421278389719
-0.16970000000000018,-32.62324257488775
-0.17070000000000007,-32.892037721862096
-0.17170000000000019,-33.10424441684186
-0.17270000000000008,-33.274009772825664
-0.1737000000000002,-33.59939337179462
-0.17470000000000008,-33.825747179773025
-0.1757000000000002,-34.00965964875548
-0.17670000000000008,-34.16527789174064
-0.1777000000000002,-34.377484586720385
-0.17870000000000008,-34.61798550769744
-0.1797000000000002,-34.731162411686654
-0.18070000000000008,-34.99995755866101
-0.1817000000000002,-35.240458479638065
-0.18270000000000008,-35.396076722623214
-0.1837000000000002,-35.43851806161916
-0.1847000000000001,-35.62243053060162
-0.1857000000000002,-36.11757948555439
-0.1867000000000001,-36.329786180534136
-0.1877000000000002,-36.28734484153819
-0.1887000000000001,-36.30149195453684
-0.1897000000000002,-36.669316892501755
-0.1907000000000001,-36.9381120394761
-0.1917000000000001,-37.093730282461266
-0.19269999999999998,-37.178612960453165
-0.1937000000000001,-37.291789864442364
-0.19469999999999998,-37.48984944642347
-0.1957000000000001,-37.617173463411326
-0.19669999999999999,-37.687909028404576
-0.1977000000000001,-37.78693881939513
-0.1987,-37.92840994938163
-0.1997000000000001,-38.08402819236679
-0.2007,-38.32452911334384
-0.2017000000000001,-38.49429446932764
-0.2027,-38.55088292132225
-0.2037000000000001,-38.74894250330336
-0.2047,-38.805530955297954
-0.2057000000000001,-38.84797229429391
-0.2067,-38.93285497228581
-0.2077000000000001,-38.98944342428042
-0.2087,-39.187503006261515
-0.2097000000000001,-39.229944345257465
-0.2107,-39.244091458256115
-0.2117000000000001,-39.44215104023723
-0.2127,-39.44215104023723
-0.2137000000000001,-39.61191639622103
-0.2147,-39.82412309120078
-0.2157000000000001,-39.92315288219133
-0.2167,-40.05047689917919
-0.21770000000000012,-40.092918238175145
-0.2187,-40.03632978618054
-0.21970000000000012,-39.89485865619403
-0.2207,-40.03632978618054
-0.22170000000000012,-40.092918238175145
-0.2227,-40.06462401217784
-0.22370000000000012,-39.99388844718459
-0.2247,-40.135359577171094
-0.22570000000000012,-40.3900076111468
-0.2267,-40.20609514216434
-0.22770000000000012,-40.12121246417244
-0.22870000000000001,-40.14950669016974
-0.22970000000000013,-40.234389368161644
-0.23070000000000002,-40.27683070715759
-0.23170000000000013,-39.99388844718459
-0.23270000000000002,-39.95144710818864
-0.23370000000000013,-39.95144710818864
-0.23470000000000002,-40.03632978618054
-0.23570000000000013,-40.163653803168394
-0.23670000000000002,-40.220242255162994
-0.2376999999999999,-40.03632978618054
-0.23870000000000002,-40.135359577171094
-0.2396999999999999,-40.092918238175145
-0.24070000000000003,-39.89485865619403
-0.24169999999999991,-39.93729999518999
-0.24270000000000003,-40.163653803168394
-0.24369999999999992,-40.10706535117379
-0.24470000000000003,-39.95144710818864
-0.24569999999999992,-39.93729999518999
-0.24670000000000003,-39.90900576919269
-0.24769999999999992,-39.79582886520348
-0.24870000000000003,-39.71094618721158
-0.24969999999999992,-39.76753463920618
-0.25070000000000003,-39.78168175220483
-0.2516999999999999,-39.696799074212926
-0.25270000000000004,-39.71094618721158
-0.2536999999999999,-39.68265196121428
-0.25470000000000004,-39.66850484821563
-0.2556999999999999,-39.71094618721158
-0.25670000000000004,-39.66850484821563
-0.25769999999999993,-39.654357735216976
-0.25870000000000004,-39.71094618721158
-0.25969999999999993,-39.75338752620753
-0.26070000000000004,-39.71094618721158
-0.26169999999999993,-39.76753463920618
-0.26270000000000004,-39.739240413208876
-0.26369999999999993,-39.68265196121428
-0.26470000000000005,-39.82412309120078
-0.26569999999999994,-39.82412309120078
-0.26670000000000005,-39.90900576919269
-0.26769999999999994,-39.95144710818864
-0.26870000000000005,-39.96559422118728
-0.26969999999999994,-40.05047689917919
-0.27070000000000005,-40.177800916167044
-0.27169999999999994,-40.26268359415894
-0.27270000000000005,-40.29097782015624
-0.27369999999999994,-40.36171338514949
-0.27470000000000006,-40.37586049814815
-0.27569999999999995,-40.4748902891387
-0.27670000000000006,-40.602214306126555
-0.27769999999999995,-40.503184515136
-0.27870000000000006,-40.57392008012925
-0.27969999999999995,-40.8993036790982
-0.28070000000000006,-40.800273888107654
-0.28169999999999995,-40.92759790509552
-0.28270000000000006,-41.196393052069865
-0.28369999999999995,-41.196393052069865
-0.28470000000000006,-41.23883439106582
-0.28569999999999995,-41.42274686004827
-0.28670000000000007,-41.50762953804018
-0.28769999999999996,-41.63495355502803
-0.28870000000000007,-41.79057179801318
-0.28969999999999996,-41.93204292799969
-0.29070000000000007,-42.229132300971344
-0.29169999999999996,-42.37060343095784
-0.29270000000000007,-42.4696332219484
-0.29369999999999996,-42.554515899940306
-0.2947000000000001,-42.90819372490656
-0.29569999999999996,-43.19113598487957
-0.2967000000000001,-43.148694645883616
-0.29769999999999996,-43.106253306887666
-0.2987000000000001,-43.474078244852585
-0.29969999999999997,-43.558960922844484
-0.3007000000000001,-43.77116761782423
-0.30169999999999997,-43.95508008680669
-0.3027000000000001,-44.025815651799945
-0.30369999999999997,-44.30875791177294
-0.3047000000000001,-44.577553058747306
-0.30569999999999997,-44.704877075735155
-0.3067000000000001,-44.80390686672572
-0.3077,-44.98781933570817
-0.3087000000000001,-45.086849126698716
-0.3097,-45.27076159568118
-0.3107000000000001,-45.53955674265553
-0.3117,-45.666880759643384
-0.3127000000000001,-45.80835188962989
-0.3137,-45.93567590661774
-0.3147000000000001,-46.19032394059345
-0.3157,-46.41667774857186
-0.3167000000000001,-46.515707539562406
-0.3177,-46.586443104555656
-0.3187000000000001,-46.713767121543505
-0.3197,-46.68547289554621
-0.3207000000000001,-46.78450268653676
-0.3217,-47.03915072051247
-0.3227000000000001,-47.08159205950842
-0.3237,-47.20891607649628
-0.3247000000000001,-47.33624009348412
-0.3257,-47.57674101446119
-0.3267000000000001,-47.590888127459834
-0.3277,-47.54844678846388
-0.3287000000000001,-47.647476579454434
-0.3297,-47.689917918450384
-0.3307000000000001,-48.114331308409895
-0.3317,-48.32653800338966
-0.3327000000000001,-48.24165532539775
-0.3337,-48.114331308409895
-0.3347000000000001,-47.95871306542474
-0.3357,-47.91627172642879
-0.3367000000000001,-48.24165532539775
-0.3377,-48.1709197604045
-0.3387000000000001,-48.1992139864018
-0.3397,-48.2840966643937
-0.3407000000000001,-48.21336109940045
-0.3417,-48.1992139864018
-0.3427000000000001,-48.26994955139505
-0.3437,-48.26994955139505
-0.3447000000000001,-48.48215624637481
-0.3457,-48.538744698369406
-0.3467000000000001,-48.21336109940045
-0.3477,-48.071889969413945
-0.3487000000000001,-48.18506687340315
-0.3497,-48.24165532539775
-0.3507000000000001,-48.26994955139505
-0.3517,-48.2275082123991
-0.3527000000000001,-48.12847842140855
-0.3537,-48.18506687340315
-0.3547000000000001,-48.2558024383964
-0.3557,-48.21336109940045
-0.35670000000000013,-48.312390890391
-0.3577,-48.35483222938696
-0.35870000000000013,-48.312390890391
-0.3597,-48.1426255344072
-0.36070000000000013,-48.26994955139505
-0.3617,-48.84998118433972
-0.3626999999999999,-48.93486386233162
-0.3637,-48.82168695834242
-0.3646999999999999,-48.82168695834242
-0.3657,-49.41586570428573
-0.3666999999999999,-49.88272043324119
-0.3677,-50.1939569192115
-0.3686999999999999,-50.63251742216966
-0.36970000000000003,-51.21254905511432
-0.3706999999999999,-51.919904705046854
-0.37170000000000003,-52.72629014596991
-0.3726999999999999,-53.872206298860604
-0.37370000000000003,-55.28691759872564
-0.3746999999999999,-56.956276932566375
-0.37570000000000003,-58.76710739639362
-0.3766999999999999,-61.01649836317903
-0.37770000000000004,-63.60542004193205
-0.3786999999999999,-66.50557820665539
-0.37970000000000004,-69.71697285734902
-0.3806999999999999,-73.15472131602105
-0.38170000000000004,-76.88955914766474
-0.38269999999999993,-80.79416233529224
-0.38370000000000004,-84.74120686191569
-0.38469999999999993,-88.77313406653104
-0.38570000000000004,-92.90409106213696
-0.38669999999999993,-95.39398294989942
-0.38570000000000004,-96.65307600677932
-0.38469999999999993,-97.84143349866595
-0.38370000000000004,-98.7044073915836
-0.38269999999999993,-99.42591015451478
-0.38170000000000004,-99.6805581884905
-0.3806999999999999,-99.58152839749994
-0.37970000000000004,-99.31273325052557
-0.3786999999999999,-98.84587852157011
-0.37770000000000004,-98.35072956661735
-0.3766999999999999,-97.81313927266864
-0.37570000000000003,-96.78040002376716
-0.3746999999999999,-95.80424922686029
-0.37370000000000003,-94.85639265595071
-0.3726999999999999,-93.83780052004788
-0.37170000000000003,-92.76261993215046
-0.3706999999999999,-91.56011532726518
-0.36970000000000003,-90.21613959239339
-0.3686999999999999,-88.97119364851217
-0.3677,-87.68380636563498
-0.3666999999999999,-86.39641908275779
-0.3657,-85.08073757388331
-0.3646999999999999,-83.72261472601286
-0.3637,-82.47766878213164
-0.3626999999999999,-81.10539882126255
-0.3617,-79.56336350440966
-0.36070000000000013,-78.16279931754329
-0.3597,-76.97444182565664
-0.35870000000000013,-75.61631897778622
-0.3577,-74.39966725990229
-0.35670000000000013,-73.0556915250305
-0.3557,-71.6268331121668
-0.3547000000000001,-69.9433266653274
-0.3537,-68.44373268747047
-0.3527000000000001,-67.2695223085825
-0.3517,-65.93969368670936
-0.3507000000000001,-64.68060062982947
-0.3497,-63.30833066896038
-0.3487000000000001,-61.9926491600859
-0.3477,-60.53549652122492
-0.3467000000000001,-59.16322656035583
-0.3457,-57.974869068469204
-0.3447000000000001,-56.81480580257987
-0.3437,-55.6688896496892
-0.3427000000000001,-54.409796592809315
-0.3417,-53.10826219693348
-0.3407000000000001,-51.90575759204819
-0.3397,-50.70325298716291
-0.3387000000000001,-49.31683591329518
-0.3377,-48.312390890391
-0.3367000000000001,-47.12403339850438
-0.3357,-45.97811724561369
-0.3347000000000001,-45.10099623969737
-0.3337,-44.138992555789144
-0.3327000000000001,-42.97892928989981
-0.3317,-41.76227757201589
-0.3307000000000001,-40.644655645122505
-0.3297,-39.66850484821563
-0.3287000000000001,-38.84797229429391
-0.3277,-37.94255706238028
-0.3267000000000001,-36.725905344496354
-0.3257,-35.763901660588125
-0.3247000000000001,-34.9716633326637
-0.3237,-33.95307119676088
-0.3227000000000001,-33.00521462585131
-0.3217,-32.07150516794038
-0.3207000000000001,-31.180237049025404
-0.3197,-30.317263156107735
-0.3187000000000001,-29.539171941181966
-0.3177,-28.704492274261593
-0.3167000000000001,-27.459546330380363
-0.3157,-26.61071955046134
-0.3147000000000001,-25.91751101352747
-0.3137,-25.18186113759765
-0.3127000000000001,-24.460358374666487
-0.3117,-23.682267159740714
-0.3107000000000001,-22.890028831816295
-0.3097,-22.210967407881075
-0.3087000000000001,-21.602641548939108
-0.3077,-20.923580125003895
-0.3067000000000001,-20.230371588070028
-0.30569999999999997,-19.551310164134804
-0.3047000000000001,-18.829807401203638
-0.30369999999999997,-18.27806999425627
-0.3027000000000001,-17.71218547431026
-0.30169999999999997,-17.089712502369647
-0.3007000000000001,-16.438945304431726
-0.29969999999999997,-15.87306078448571
-0.2987000000000001,-15.349617603535648
-0.29769999999999996,-14.783733083589633
-0.2967000000000001,-14.147112998650368
-0.29569999999999996,-13.533128294508941
-0.2947000000000001,-13.066273565553479
-0.29369999999999996,-12.586686434899232
-0.29270000000000007,-12.078805078247685
-0.29169999999999996,-11.55536189729762
-0.29070000000000007,-11.068701210144049
-0.28969999999999996,-10.60326119248845
-0.28870000000000007,-10.18167722512867
-0.28769999999999996,-9.757263835169159
-0.28670000000000007,-9.352656403407758
-0.28569999999999995,-8.899948787450944
-0.28470000000000006,-8.452900016693595
-0.28369999999999995,-8.019998358934892
-0.28270000000000006,-7.618220349773223
-0.28169999999999995,-7.199465805013171
-0.28070000000000006,-6.779296548953256
-0.27969999999999995,-6.318100665197254
-0.27870000000000006,-6.022426003525461
-0.27769999999999995,-5.706945383655557
-0.27670000000000006,-5.3702440942876795
-0.27569999999999995,-5.0052485789225
-0.27470000000000006,-4.699670938151652
-0.27369999999999994,-4.430875791177296
-0.27270000000000005,-4.125298150406447
-0.27169999999999994,-3.794255706238028
-0.27070000000000005,-3.473116241168665
-0.26969999999999994,-3.217053495893093
-0.26870000000000005,-2.968064307116847
-0.26769999999999994,-2.6950250262428948
-0.26670000000000005,-2.3781296950731265
-0.26569999999999994,-2.0782108995017388
