Mar. 10, 2025   19:07:25
Cyclic Voltammetry
File: c:/users/guazh/data/banditlqround7_x0exp891_r5/2025-03-03-exp869\exp869-2025-03-10t19_02_33-h2koh\exp869_cv_50mvs_efin_-1400mv.bin
Data Source:  Experiment
Instrument Model:  CHI760E
Header: CV ran at 50 mVs
Note: 

Init E (V) = -1
High E (V) = -1
Low E (V) = -1.4
Final E (V) = -1
Init P/N = N
Scan Rate (V/s) = 0.05
Segment = 7
Sample Interval (V) = 0.001
Quiet Time (sec) = 60
Sensitivity (A/V) = 0.001
Comp R (ohm) = 1.8

Results:

Channel 1:
Segment 1:

Segment 2:

Segment 3:

Segment 4:

Segment 5:

Segment 6:

Segment 7:

Potential/V, Current/A

-1.000, 1.953e-5
-1.001, 3.419e-5
-1.002, 3.886e-5
-1.003, 4.156e-5
-1.004, 4.428e-5
-1.005, 4.648e-5
-1.006, 4.836e-5
-1.007, 4.973e-5
-1.008, 5.063e-5
-1.009, 5.206e-5
-1.010, 5.354e-5
-1.011, 5.470e-5
-1.012, 5.561e-5
-1.013, 5.613e-5
-1.014, 5.718e-5
-1.015, 5.847e-5
-1.016, 5.938e-5
-1.017, 6.006e-5
-1.018, 6.057e-5
-1.019, 6.134e-5
-1.020, 6.256e-5
-1.021, 6.347e-5
-1.022, 6.398e-5
-1.023, 6.459e-5
-1.024, 6.534e-5
-1.025, 6.638e-5
-1.026, 6.741e-5
-1.027, 6.753e-5
-1.028, 6.831e-5
-1.029, 6.888e-5
-1.030, 7.010e-5
-1.031, 7.103e-5
-1.032, 7.145e-5
-1.033, 7.174e-5
-1.034, 7.272e-5
-1.035, 7.370e-5
-1.036, 7.494e-5
-1.037, 7.517e-5
-1.038, 7.569e-5
-1.039, 7.673e-5
-1.040, 7.759e-5
-1.041, 7.867e-5
-1.042, 7.928e-5
-1.043, 7.973e-5
-1.044, 8.084e-5
-1.045, 8.200e-5
-1.046, 8.307e-5
-1.047, 8.368e-5
-1.048, 8.409e-5
-1.049, 8.525e-5
-1.050, 8.660e-5
-1.051, 8.752e-5
-1.052, 8.841e-5
-1.053, 8.889e-5
-1.054, 8.993e-5
-1.055, 9.160e-5
-1.056, 9.263e-5
-1.057, 9.341e-5
-1.058, 9.416e-5
-1.059, 9.517e-5
-1.060, 9.695e-5
-1.061, 9.792e-5
-1.062, 9.879e-5
-1.063, 9.980e-5
-1.064, 1.008e-4
-1.065, 1.024e-4
-1.066, 1.038e-4
-1.067, 1.047e-4
-1.068, 1.057e-4
-1.069, 1.069e-4
-1.070, 1.086e-4
-1.071, 1.103e-4
-1.072, 1.110e-4
-1.073, 1.118e-4
-1.074, 1.135e-4
-1.075, 1.154e-4
-1.076, 1.169e-4
-1.077, 1.177e-4
-1.078, 1.187e-4
-1.079, 1.205e-4
-1.080, 1.221e-4
-1.081, 1.239e-4
-1.082, 1.248e-4
-1.083, 1.257e-4
-1.084, 1.276e-4
-1.085, 1.294e-4
-1.086, 1.309e-4
-1.087, 1.324e-4
-1.088, 1.336e-4
-1.089, 1.354e-4
-1.090, 1.373e-4
-1.091, 1.390e-4
-1.092, 1.403e-4
-1.093, 1.415e-4
-1.094, 1.431e-4
-1.095, 1.454e-4
-1.096, 1.469e-4
-1.097, 1.483e-4
-1.098, 1.500e-4
-1.099, 1.515e-4
-1.100, 1.537e-4
-1.101, 1.554e-4
-1.102, 1.568e-4
-1.103, 1.581e-4
-1.104, 1.598e-4
-1.105, 1.622e-4
-1.106, 1.641e-4
-1.107, 1.654e-4
-1.108, 1.668e-4
-1.109, 1.685e-4
-1.110, 1.706e-4
-1.111, 1.726e-4
-1.112, 1.739e-4
-1.113, 1.753e-4
-1.114, 1.770e-4
-1.115, 1.792e-4
-1.116, 1.811e-4
-1.117, 1.824e-4
-1.118, 1.839e-4
-1.119, 1.856e-4
-1.120, 1.874e-4
-1.121, 1.893e-4
-1.122, 1.907e-4
-1.123, 1.918e-4
-1.124, 1.938e-4
-1.125, 1.956e-4
-1.126, 1.974e-4
-1.127, 1.988e-4
-1.128, 1.998e-4
-1.129, 2.015e-4
-1.130, 2.035e-4
-1.131, 2.050e-4
-1.132, 2.065e-4
-1.133, 2.074e-4
-1.134, 2.090e-4
-1.135, 2.111e-4
-1.136, 2.124e-4
-1.137, 2.135e-4
-1.138, 2.147e-4
-1.139, 2.161e-4
-1.140, 2.181e-4
-1.141, 2.194e-4
-1.142, 2.202e-4
-1.143, 2.215e-4
-1.144, 2.227e-4
-1.145, 2.242e-4
-1.146, 2.259e-4
-1.147, 2.266e-4
-1.148, 2.276e-4
-1.149, 2.288e-4
-1.150, 2.304e-4
-1.151, 2.318e-4
-1.152, 2.321e-4
-1.153, 2.331e-4
-1.154, 2.343e-4
-1.155, 2.356e-4
-1.156, 2.371e-4
-1.157, 2.375e-4
-1.158, 2.383e-4
-1.159, 2.395e-4
-1.160, 2.405e-4
-1.161, 2.416e-4
-1.162, 2.421e-4
-1.163, 2.424e-4
-1.164, 2.439e-4
-1.165, 2.452e-4
-1.166, 2.462e-4
-1.167, 2.468e-4
-1.168, 2.468e-4
-1.169, 2.478e-4
-1.170, 2.492e-4
-1.171, 2.498e-4
-1.172, 2.504e-4
-1.173, 2.504e-4
-1.174, 2.513e-4
-1.175, 2.525e-4
-1.176, 2.534e-4
-1.177, 2.540e-4
-1.178, 2.541e-4
-1.179, 2.547e-4
-1.180, 2.558e-4
-1.181, 2.564e-4
-1.182, 2.566e-4
-1.183, 2.570e-4
-1.184, 2.575e-4
-1.185, 2.586e-4
-1.186, 2.595e-4
-1.187, 2.595e-4
-1.188, 2.599e-4
-1.189, 2.605e-4
-1.190, 2.613e-4
-1.191, 2.621e-4
-1.192, 2.619e-4
-1.193, 2.623e-4
-1.194, 2.630e-4
-1.195, 2.638e-4
-1.196, 2.644e-4
-1.197, 2.644e-4
-1.198, 2.649e-4
-1.199, 2.658e-4
-1.200, 2.665e-4
-1.201, 2.672e-4
-1.202, 2.674e-4
-1.203, 2.675e-4
-1.204, 2.681e-4
-1.205, 2.690e-4
-1.206, 2.698e-4
-1.207, 2.697e-4
-1.208, 2.700e-4
-1.209, 2.711e-4
-1.210, 2.720e-4
-1.211, 2.725e-4
-1.212, 2.727e-4
-1.213, 2.728e-4
-1.214, 2.737e-4
-1.215, 2.748e-4
-1.216, 2.753e-4
-1.217, 2.757e-4
-1.218, 2.761e-4
-1.219, 2.768e-4
-1.220, 2.783e-4
-1.221, 2.787e-4
-1.222, 2.791e-4
-1.223, 2.796e-4
-1.224, 2.803e-4
-1.225, 2.815e-4
-1.226, 2.824e-4
-1.227, 2.827e-4
-1.228, 2.838e-4
-1.229, 2.851e-4
-1.230, 2.858e-4
-1.231, 2.865e-4
-1.232, 2.867e-4
-1.233, 2.875e-4
-1.234, 2.887e-4
-1.235, 2.897e-4
-1.236, 2.908e-4
-1.237, 2.913e-4
-1.238, 2.919e-4
-1.239, 2.932e-4
-1.240, 2.944e-4
-1.241, 2.954e-4
-1.242, 2.962e-4
-1.243, 2.968e-4
-1.244, 2.982e-4
-1.245, 2.998e-4
-1.246, 3.008e-4
-1.247, 3.017e-4
-1.248, 3.023e-4
-1.249, 3.037e-4
-1.250, 3.057e-4
-1.251, 3.064e-4
-1.252, 3.074e-4
-1.253, 3.083e-4
-1.254, 3.098e-4
-1.255, 3.116e-4
-1.256, 3.126e-4
-1.257, 3.138e-4
-1.258, 3.149e-4
-1.259, 3.163e-4
-1.260, 3.183e-4
-1.261, 3.196e-4
-1.262, 3.207e-4
-1.263, 3.220e-4
-1.264, 3.234e-4
-1.265, 3.251e-4
-1.266, 3.271e-4
-1.267, 3.282e-4
-1.268, 3.298e-4
-1.269, 3.319e-4
-1.270, 3.337e-4
-1.271, 3.354e-4
-1.272, 3.363e-4
-1.273, 3.379e-4
-1.274, 3.404e-4
-1.275, 3.422e-4
-1.276, 3.443e-4
-1.277, 3.455e-4
-1.278, 3.476e-4
-1.279, 3.499e-4
-1.280, 3.526e-4
-1.281, 3.546e-4
-1.282, 3.566e-4
-1.283, 3.582e-4
-1.284, 3.614e-4
-1.285, 3.638e-4
-1.286, 3.665e-4
-1.287, 3.688e-4
-1.288, 3.711e-4
-1.289, 3.741e-4
-1.290, 3.776e-4
-1.291, 3.804e-4
-1.292, 3.833e-4
-1.293, 3.865e-4
-1.294, 3.905e-4
-1.295, 3.944e-4
-1.296, 3.983e-4
-1.297, 4.025e-4
-1.298, 4.073e-4
-1.299, 4.128e-4
-1.300, 4.190e-4
-1.301, 4.252e-4
-1.302, 4.320e-4
-1.303, 4.403e-4
-1.304, 4.498e-4
-1.305, 4.610e-4
-1.306, 4.739e-4
-1.307, 4.880e-4
-1.308, 5.046e-4
-1.309, 5.240e-4
-1.310, 5.473e-4
-1.311, 5.747e-4
-1.312, 6.066e-4
-1.313, 6.445e-4
-1.314, 6.892e-4
-1.315, 7.429e-4
-1.316, 8.072e-4
-1.317, 8.818e-4
-1.318, 9.675e-4
-1.319, 1.062e-3
-1.320, 1.167e-3
-1.321, 1.282e-3
-1.322, 1.405e-3
-1.323, 1.532e-3
-1.324, 1.662e-3
-1.325, 1.794e-3
-1.326, 1.924e-3
-1.327, 2.047e-3
-1.328, 2.170e-3
-1.329, 2.290e-3
-1.330, 2.400e-3
-1.331, 2.504e-3
-1.332, 2.607e-3
-1.333, 2.701e-3
-1.334, 2.792e-3
-1.335, 2.881e-3
-1.336, 2.968e-3
-1.337, 3.051e-3
-1.338, 3.129e-3
-1.339, 3.209e-3
-1.340, 3.288e-3
-1.341, 3.361e-3
-1.342, 3.433e-3
-1.343, 3.508e-3
-1.344, 3.573e-3
-1.345, 3.633e-3
-1.346, 3.692e-3
-1.347, 3.745e-3
-1.348, 3.795e-3
-1.349, 3.850e-3
-1.350, 3.915e-3
-1.351, 3.963e-3
-1.352, 4.005e-3
-1.353, 4.060e-3
-1.354, 4.117e-3
-1.355, 4.188e-3
-1.356, 4.240e-3
-1.357, 4.275e-3
-1.358, 4.313e-3
-1.359, 4.368e-3
-1.360, 4.418e-3
-1.361, 4.481e-3
-1.362, 4.562e-3
-1.363, 4.622e-3
-1.364, 4.705e-3
-1.365, 4.764e-3
-1.366, 4.812e-3
-1.367, 4.855e-3
-1.368, 4.896e-3
-1.369, 4.950e-3
-1.370, 5.032e-3
-1.371, 5.082e-3
-1.372, 5.159e-3
-1.373, 5.198e-3
-1.374, 5.244e-3
-1.375, 5.297e-3
-1.376, 5.380e-3
-1.377, 5.443e-3
-1.378, 5.548e-3
-1.379, 5.620e-3
-1.380, 5.673e-3
-1.381, 5.731e-3
-1.382, 5.800e-3
-1.383, 5.896e-3
-1.384, 6.063e-3
-1.385, 6.129e-3
-1.386, 6.227e-3
-1.387, 6.330e-3
-1.388, 6.394e-3
-1.389, 6.477e-3
-1.390, 6.567e-3
-1.391, 6.648e-3
-1.392, 6.724e-3
-1.393, 6.800e-3
-1.394, 6.862e-3
-1.395, 6.918e-3
-1.396, 6.997e-3
-1.397, 7.074e-3
-1.398, 7.110e-3
-1.399, 7.177e-3
-1.400, 7.183e-3
-1.399, 7.104e-3
-1.398, 7.040e-3
-1.397, 6.929e-3
-1.396, 6.817e-3
-1.395, 6.733e-3
-1.394, 6.676e-3
-1.393, 6.598e-3
-1.392, 6.519e-3
-1.391, 6.425e-3
-1.390, 6.351e-3
-1.389, 6.281e-3
-1.388, 6.210e-3
-1.387, 6.123e-3
-1.386, 6.090e-3
-1.385, 5.998e-3
-1.384, 5.951e-3
-1.383, 5.884e-3
-1.382, 5.773e-3
-1.381, 5.705e-3
-1.380, 5.648e-3
-1.379, 5.580e-3
-1.378, 5.530e-3
-1.377, 5.498e-3
-1.376, 5.538e-3
-1.375, 5.511e-3
-1.374, 5.452e-3
-1.373, 5.392e-3
-1.372, 5.309e-3
-1.371, 5.237e-3
-1.370, 5.184e-3
-1.369, 5.084e-3
-1.368, 4.984e-3
-1.367, 4.910e-3
-1.366, 4.830e-3
-1.365, 4.779e-3
-1.364, 4.702e-3
-1.363, 4.626e-3
-1.362, 4.563e-3
-1.361, 4.492e-3
-1.360, 4.426e-3
-1.359, 4.354e-3
-1.358, 4.291e-3
-1.357, 4.232e-3
-1.356, 4.169e-3
-1.355, 4.098e-3
-1.354, 4.031e-3
-1.353, 3.968e-3
-1.352, 3.916e-3
-1.351, 3.879e-3
-1.350, 3.853e-3
-1.349, 3.807e-3
-1.348, 3.738e-3
-1.347, 3.661e-3
-1.346, 3.608e-3
-1.345, 3.563e-3
-1.344, 3.524e-3
-1.343, 3.479e-3
-1.342, 3.428e-3
-1.341, 3.375e-3
-1.340, 3.323e-3
-1.339, 3.270e-3
-1.338, 3.212e-3
-1.337, 3.156e-3
-1.336, 3.116e-3
-1.335, 3.071e-3
-1.334, 3.015e-3
-1.333, 2.964e-3
-1.332, 2.911e-3
-1.331, 2.857e-3
-1.330, 2.800e-3
-1.329, 2.751e-3
-1.328, 2.699e-3
-1.327, 2.663e-3
-1.326, 2.621e-3
-1.325, 2.581e-3
-1.324, 2.534e-3
-1.323, 2.485e-3
-1.322, 2.435e-3
-1.321, 2.397e-3
-1.320, 2.356e-3
-1.319, 2.328e-3
-1.318, 2.291e-3
-1.317, 2.255e-3
-1.316, 2.215e-3
-1.315, 2.163e-3
-1.314, 2.122e-3
-1.313, 2.075e-3
-1.312, 2.039e-3
-1.311, 2.003e-3
-1.310, 1.960e-3
-1.309, 1.918e-3
-1.308, 1.874e-3
-1.307, 1.831e-3
-1.306, 1.800e-3
-1.305, 1.755e-3
-1.304, 1.715e-3
-1.303, 1.677e-3
-1.302, 1.643e-3
-1.301, 1.608e-3
-1.300, 1.568e-3
-1.299, 1.533e-3
-1.298, 1.491e-3
-1.297, 1.457e-3
-1.296, 1.424e-3
-1.295, 1.395e-3
-1.294, 1.364e-3
-1.293, 1.329e-3
-1.292, 1.303e-3
-1.291, 1.275e-3
-1.290, 1.242e-3
-1.289, 1.212e-3
-1.288, 1.180e-3
-1.287, 1.151e-3
-1.286, 1.118e-3
-1.285, 1.090e-3
-1.284, 1.061e-3
-1.283, 1.033e-3
-1.282, 1.008e-3
-1.281, 9.835e-4
-1.280, 9.554e-4
-1.279, 9.311e-4
-1.278, 9.045e-4
-1.277, 8.812e-4
-1.276, 8.575e-4
-1.275, 8.320e-4
-1.274, 8.088e-4
-1.273, 7.850e-4
-1.272, 7.630e-4
-1.271, 7.407e-4
-1.270, 7.203e-4
-1.269, 6.984e-4
-1.268, 6.777e-4
-1.267, 6.577e-4
-1.266, 6.379e-4
-1.265, 6.183e-4
-1.264, 6.000e-4
-1.263, 5.822e-4
-1.262, 5.635e-4
-1.261, 5.465e-4
-1.260, 5.288e-4
-1.259, 5.117e-4
-1.258, 4.950e-4
-1.257, 4.785e-4
-1.256, 4.629e-4
-1.255, 4.483e-4
-1.254, 4.333e-4
-1.253, 4.183e-4
-1.252, 4.037e-4
-1.251, 3.898e-4
-1.250, 3.777e-4
-1.249, 3.688e-4
-1.248, 3.539e-4
-1.247, 3.404e-4
-1.246, 3.276e-4
-1.245, 3.175e-4
-1.244, 3.061e-4
-1.243, 2.938e-4
-1.242, 2.826e-4
-1.241, 2.717e-4
-1.240, 2.621e-4
-1.239, 2.516e-4
-1.238, 2.426e-4
-1.237, 2.329e-4
-1.236, 2.244e-4
-1.235, 2.154e-4
-1.234, 2.069e-4
-1.233, 1.975e-4
-1.232, 1.889e-4
-1.231, 1.812e-4
-1.230, 1.741e-4
-1.229, 1.657e-4
-1.228, 1.584e-4
-1.227, 1.510e-4
-1.226, 1.444e-4
-1.225, 1.379e-4
-1.224, 1.314e-4
-1.223, 1.247e-4
-1.222, 1.188e-4
-1.221, 1.130e-4
-1.220, 1.070e-4
-1.219, 1.010e-4
-1.218, 9.478e-5
-1.217, 8.975e-5
-1.216, 8.525e-5
-1.215, 7.936e-5
-1.214, 7.443e-5
-1.213, 6.987e-5
-1.212, 6.519e-5
-1.211, 6.070e-5
-1.210, 5.671e-5
-1.209, 5.218e-5
-1.208, 4.789e-5
-1.207, 4.310e-5
-1.206, 3.948e-5
-1.205, 3.651e-5
-1.204, 3.242e-5
-1.203, 2.856e-5
-1.202, 2.475e-5
-1.201, 2.142e-5
-1.200, 1.859e-5
-1.199, 1.536e-5
-1.198, 1.153e-5
-1.197, 8.567e-6
-1.196, 5.731e-6
-1.195, 3.095e-6
-1.194, 4.418e-7
-1.193, -3.205e-6
-1.192, -6.067e-6
-1.191, -8.327e-6
-1.190, -1.074e-5
-1.189, -1.277e-5
-1.188, -1.579e-5
-1.187, -1.853e-5
-1.186, -2.051e-5
-1.185, -2.235e-5
-1.184, -2.460e-5
-1.183, -2.716e-5
-1.182, -2.964e-5
-1.181, -3.112e-5
-1.180, -3.274e-5
-1.179, -3.507e-5
-1.178, -3.677e-5
-1.177, -3.902e-5
-1.176, -4.020e-5
-1.175, -4.157e-5
-1.174, -4.360e-5
-1.173, -4.555e-5
-1.172, -4.729e-5
-1.171, -4.853e-5
-1.170, -4.959e-5
-1.169, -5.142e-5
-1.168, -5.314e-5
-1.167, -5.482e-5
-1.166, -5.604e-5
-1.165, -5.697e-5
-1.164, -5.842e-5
-1.163, -6.018e-5
-1.162, -6.174e-5
-1.161, -6.303e-5
-1.160, -6.327e-5
-1.159, -6.452e-5
-1.158, -6.616e-5
-1.157, -6.736e-5
-1.156, -6.829e-5
-1.155, -6.896e-5
-1.154, -7.006e-5
-1.153, -7.193e-5
-1.152, -7.296e-5
-1.151, -7.372e-5
-1.150, -7.463e-5
-1.149, -7.547e-5
-1.148, -7.655e-5
-1.147, -7.770e-5
-1.146, -7.808e-5
-1.145, -7.898e-5
-1.144, -7.989e-5
-1.143, -8.143e-5
-1.142, -8.259e-5
-1.141, -8.290e-5
-1.140, -8.336e-5
-1.139, -8.444e-5
-1.138, -8.710e-5
-1.137, -8.936e-5
-1.136, -8.857e-5
-1.135, -8.824e-5
-1.134, -8.897e-5
-1.133, -9.025e-5
-1.132, -9.094e-5
-1.131, -9.132e-5
-1.130, -9.181e-5
-1.129, -9.270e-5
-1.128, -9.363e-5
-1.127, -9.439e-5
-1.126, -9.497e-5
-1.125, -9.506e-5
-1.124, -9.591e-5
-1.123, -9.724e-5
-1.122, -9.811e-5
-1.121, -9.912e-5
-1.120, -9.852e-5
-1.119, -9.888e-5
-1.118, -1.002e-4
-1.117, -1.006e-4
-1.116, -1.011e-4
-1.115, -1.016e-4
-1.114, -1.021e-4
-1.113, -1.035e-4
-1.112, -1.038e-4
-1.111, -1.041e-4
-1.110, -1.044e-4
-1.109, -1.048e-4
-1.108, -1.060e-4
-1.107, -1.065e-4
-1.106, -1.073e-4
-1.105, -1.075e-4
-1.104, -1.081e-4
-1.103, -1.094e-4
-1.102, -1.104e-4
-1.101, -1.101e-4
-1.100, -1.098e-4
-1.099, -1.106e-4
-1.098, -1.117e-4
-1.097, -1.127e-4
-1.096, -1.127e-4
-1.095, -1.126e-4
-1.094, -1.137e-4
-1.093, -1.148e-4
-1.092, -1.156e-4
-1.091, -1.157e-4
-1.090, -1.157e-4
-1.089, -1.169e-4
-1.088, -1.174e-4
-1.087, -1.178e-4
-1.086, -1.185e-4
-1.085, -1.181e-4
-1.084, -1.189e-4
-1.083, -1.201e-4
-1.082, -1.208e-4
-1.081, -1.212e-4
-1.080, -1.209e-4
-1.079, -1.219e-4
-1.078, -1.230e-4
-1.077, -1.233e-4
-1.076, -1.239e-4
-1.075, -1.242e-4
-1.074, -1.245e-4
-1.073, -1.259e-4
-1.072, -1.266e-4
-1.071, -1.271e-4
-1.070, -1.274e-4
-1.069, -1.278e-4
-1.068, -1.290e-4
-1.067, -1.296e-4
-1.066, -1.299e-4
-1.065, -1.304e-4
-1.064, -1.310e-4
-1.063, -1.321e-4
-1.062, -1.330e-4
-1.061, -1.331e-4
-1.060, -1.328e-4
-1.059, -1.337e-4
-1.058, -1.347e-4
-1.057, -1.359e-4
-1.056, -1.360e-4
-1.055, -1.365e-4
-1.054, -1.374e-4
-1.053, -1.382e-4
-1.052, -1.390e-4
-1.051, -1.394e-4
-1.050, -1.395e-4
-1.049, -1.407e-4
-1.048, -1.416e-4
-1.047, -1.423e-4
-1.046, -1.429e-4
-1.045, -1.429e-4
-1.044, -1.441e-4
-1.043, -1.454e-4
-1.042, -1.460e-4
-1.041, -1.465e-4
-1.040, -1.467e-4
-1.039, -1.477e-4
-1.038, -1.493e-4
-1.037, -1.498e-4
-1.036, -1.504e-4
-1.035, -1.505e-4
-1.034, -1.513e-4
-1.033, -1.531e-4
-1.032, -1.533e-4
-1.031, -1.543e-4
-1.030, -1.543e-4
-1.029, -1.551e-4
-1.028, -1.573e-4
-1.027, -1.575e-4
-1.026, -1.580e-4
-1.025, -1.581e-4
-1.024, -1.595e-4
-1.023, -1.603e-4
-1.022, -1.620e-4
-1.021, -1.622e-4
-1.020, -1.630e-4
-1.019, -1.635e-4
-1.018, -1.648e-4
-1.017, -1.660e-4
-1.016, -1.664e-4
-1.015, -1.668e-4
-1.014, -1.674e-4
-1.013, -1.680e-4
-1.012, -1.695e-4
-1.011, -1.698e-4
-1.010, -1.700e-4
-1.009, -1.720e-4
-1.008, -1.729e-4
-1.007, -1.744e-4
-1.006, -1.748e-4
-1.005, -1.745e-4
-1.004, -1.757e-4
-1.003, -1.774e-4
-1.002, -1.780e-4
-1.001, -1.789e-4
-1.000, -1.228e-4
-1.001, -7.274e-5
-1.002, -5.317e-5
-1.003, -4.072e-5
-1.004, -3.031e-5
-1.005, -2.173e-5
-1.006, -1.460e-5
-1.007, -9.131e-6
-1.008, -4.145e-6
-1.009, 1.415e-6
-1.010, 6.614e-6
-1.011, 1.059e-5
-1.012, 1.390e-5
-1.013, 1.706e-5
-1.014, 2.066e-5
-1.015, 2.440e-5
-1.016, 2.673e-5
-1.017, 2.894e-5
-1.018, 3.147e-5
-1.019, 3.378e-5
-1.020, 3.676e-5
-1.021, 3.841e-5
-1.022, 4.003e-5
-1.023, 4.200e-5
-1.024, 4.375e-5
-1.025, 4.580e-5
-1.026, 4.735e-5
-1.027, 4.831e-5
-1.028, 4.995e-5
-1.029, 5.132e-5
-1.030, 5.304e-5
-1.031, 5.446e-5
-1.032, 5.474e-5
-1.033, 5.598e-5
-1.034, 5.747e-5
-1.035, 5.897e-5
-1.036, 6.008e-5
-1.037, 6.041e-5
-1.038, 6.124e-5
-1.039, 6.260e-5
-1.040, 6.380e-5
-1.041, 6.439e-5
-1.042, 6.496e-5
-1.043, 6.525e-5
-1.044, 6.647e-5
-1.045, 6.756e-5
-1.046, 6.846e-5
-1.047, 6.868e-5
-1.048, 6.891e-5
-1.049, 7.000e-5
-1.050, 7.114e-5
-1.051, 7.139e-5
-1.052, 7.168e-5
-1.053, 7.175e-5
-1.054, 7.272e-5
-1.055, 7.380e-5
-1.056, 7.404e-5
-1.057, 7.396e-5
-1.058, 7.426e-5
-1.059, 7.513e-5
-1.060, 7.587e-5
-1.061, 7.606e-5
-1.062, 7.610e-5
-1.063, 7.652e-5
-1.064, 7.699e-5
-1.065, 7.781e-5
-1.066, 7.819e-5
-1.067, 7.771e-5
-1.068, 7.828e-5
-1.069, 7.873e-5
-1.070, 7.941e-5
-1.071, 7.993e-5
-1.072, 7.920e-5
-1.073, 7.949e-5
-1.074, 8.045e-5
-1.075, 8.120e-5
-1.076, 8.144e-5
-1.077, 8.081e-5
-1.078, 8.098e-5
-1.079, 8.162e-5
-1.080, 8.222e-5
-1.081, 8.243e-5
-1.082, 8.215e-5
-1.083, 8.208e-5
-1.084, 8.276e-5
-1.085, 8.328e-5
-1.086, 8.327e-5
-1.087, 8.314e-5
-1.088, 8.299e-5
-1.089, 8.376e-5
-1.090, 8.451e-5
-1.091, 8.449e-5
-1.092, 8.413e-5
-1.093, 8.392e-5
-1.094, 8.445e-5
-1.095, 8.546e-5
-1.096, 8.525e-5
-1.097, 8.510e-5
-1.098, 8.506e-5
-1.099, 8.550e-5
-1.100, 8.642e-5
-1.101, 8.629e-5
-1.102, 8.580e-5
-1.103, 8.624e-5
-1.104, 8.642e-5
-1.105, 8.731e-5
-1.106, 8.723e-5
-1.107, 8.674e-5
-1.108, 8.714e-5
-1.109, 8.744e-5
-1.110, 8.819e-5
-1.111, 8.836e-5
-1.112, 8.793e-5
-1.113, 8.830e-5
-1.114, 8.871e-5
-1.115, 8.945e-5
-1.116, 8.945e-5
-1.117, 8.911e-5
-1.118, 8.889e-5
-1.119, 8.970e-5
-1.120, 9.023e-5
-1.121, 9.047e-5
-1.122, 9.027e-5
-1.123, 9.004e-5
-1.124, 9.100e-5
-1.125, 9.159e-5
-1.126, 9.153e-5
-1.127, 9.138e-5
-1.128, 9.115e-5
-1.129, 9.207e-5
-1.130, 9.301e-5
-1.131, 9.317e-5
-1.132, 9.316e-5
-1.133, 9.278e-5
-1.134, 9.343e-5
-1.135, 9.458e-5
-1.136, 9.451e-5
-1.137, 9.407e-5
-1.138, 9.446e-5
-1.139, 9.510e-5
-1.140, 9.619e-5
-1.141, 9.601e-5
-1.142, 9.595e-5
-1.143, 9.637e-5
-1.144, 9.710e-5
-1.145, 9.780e-5
-1.146, 9.781e-5
-1.147, 9.775e-5
-1.148, 9.825e-5
-1.149, 9.898e-5
-1.150, 9.986e-5
-1.151, 1.003e-4
-1.152, 9.991e-5
-1.153, 1.004e-4
-1.154, 1.011e-4
-1.155, 1.021e-4
-1.156, 1.024e-4
-1.157, 1.023e-4
-1.158, 1.028e-4
-1.159, 1.039e-4
-1.160, 1.045e-4
-1.161, 1.049e-4
-1.162, 1.051e-4
-1.163, 1.055e-4
-1.164, 1.066e-4
-1.165, 1.076e-4
-1.166, 1.079e-4
-1.167, 1.083e-4
-1.168, 1.083e-4
-1.169, 1.098e-4
-1.170, 1.110e-4
-1.171, 1.113e-4
-1.172, 1.118e-4
-1.173, 1.125e-4
-1.174, 1.135e-4
-1.175, 1.149e-4
-1.176, 1.153e-4
-1.177, 1.161e-4
-1.178, 1.167e-4
-1.179, 1.177e-4
-1.180, 1.192e-4
-1.181, 1.199e-4
-1.182, 1.202e-4
-1.183, 1.214e-4
-1.184, 1.227e-4
-1.185, 1.244e-4
-1.186, 1.254e-4
-1.187, 1.257e-4
-1.188, 1.271e-4
-1.189, 1.284e-4
-1.190, 1.302e-4
-1.191, 1.316e-4
-1.192, 1.321e-4
-1.193, 1.335e-4
-1.194, 1.353e-4
-1.195, 1.370e-4
-1.196, 1.386e-4
-1.197, 1.395e-4
-1.198, 1.411e-4
-1.199, 1.433e-4
-1.200, 1.453e-4
-1.201, 1.471e-4
-1.202, 1.484e-4
-1.203, 1.502e-4
-1.204, 1.527e-4
-1.205, 1.551e-4
-1.206, 1.566e-4
-1.207, 1.590e-4
-1.208, 1.608e-4
-1.209, 1.640e-4
-1.210, 1.668e-4
-1.211, 1.689e-4
-1.212, 1.716e-4
-1.213, 1.741e-4
-1.214, 1.773e-4
-1.215, 1.812e-4
-1.216, 1.841e-4
-1.217, 1.869e-4
-1.218, 1.902e-4
-1.219, 1.937e-4
-1.220, 1.982e-4
-1.221, 2.017e-4
-1.222, 2.054e-4
-1.223, 2.098e-4
-1.224, 2.144e-4
-1.225, 2.192e-4
-1.226, 2.243e-4
-1.227, 2.286e-4
-1.228, 2.341e-4
-1.229, 2.406e-4
-1.230, 2.461e-4
-1.231, 2.524e-4
-1.232, 2.581e-4
-1.233, 2.649e-4
-1.234, 2.726e-4
-1.235, 2.802e-4
-1.236, 2.880e-4
-1.237, 2.960e-4
-1.238, 3.048e-4
-1.239, 3.143e-4
-1.240, 3.245e-4
-1.241, 3.350e-4
-1.242, 3.454e-4
-1.243, 3.567e-4
-1.244, 3.696e-4
-1.245, 3.823e-4
-1.246, 3.958e-4
-1.247, 4.096e-4
-1.248, 4.244e-4
-1.249, 4.402e-4
-1.250, 4.576e-4
-1.251, 4.749e-4
-1.252, 4.927e-4
-1.253, 5.111e-4
-1.254, 5.313e-4
-1.255, 5.525e-4
-1.256, 5.731e-4
-1.257, 5.954e-4
-1.258, 6.191e-4
-1.259, 6.436e-4
-1.260, 6.696e-4
-1.261, 6.957e-4
-1.262, 7.222e-4
-1.263, 7.500e-4
-1.264, 7.796e-4
-1.265, 8.093e-4
-1.266, 8.400e-4
-1.267, 8.704e-4
-1.268, 9.022e-4
-1.269, 9.357e-4
-1.270, 9.688e-4
-1.271, 1.003e-3
-1.272, 1.037e-3
-1.273, 1.074e-3
-1.274, 1.110e-3
-1.275, 1.148e-3
-1.276, 1.187e-3
-1.277, 1.228e-3
-1.278, 1.270e-3
-1.279, 1.308e-3
-1.280, 1.354e-3
-1.281, 1.391e-3
-1.282, 1.433e-3
-1.283, 1.474e-3
-1.284, 1.516e-3
-1.285, 1.559e-3
-1.286, 1.604e-3
-1.287, 1.649e-3
-1.288, 1.696e-3
-1.289, 1.742e-3
-1.290, 1.789e-3
-1.291, 1.837e-3
-1.292, 1.884e-3
-1.293, 1.932e-3
-1.294, 1.980e-3
-1.295, 2.030e-3
-1.296, 2.077e-3
-1.297, 2.124e-3
-1.298, 2.171e-3
-1.299, 2.217e-3
-1.300, 2.264e-3
-1.301, 2.307e-3
-1.302, 2.352e-3
-1.303, 2.401e-3
-1.304, 2.448e-3
-1.305, 2.499e-3
-1.306, 2.546e-3
-1.307, 2.596e-3
-1.308, 2.649e-3
-1.309, 2.699e-3
-1.310, 2.747e-3
-1.311, 2.798e-3
-1.312, 2.855e-3
-1.313, 2.909e-3
-1.314, 2.962e-3
-1.315, 3.011e-3
-1.316, 3.063e-3
-1.317, 3.113e-3
-1.318, 3.163e-3
-1.319, 3.216e-3
-1.320, 3.266e-3
-1.321, 3.319e-3
-1.322, 3.367e-3
-1.323, 3.424e-3
-1.324, 3.494e-3
-1.325, 3.549e-3
-1.326, 3.608e-3
-1.327, 3.674e-3
-1.328, 3.728e-3
-1.329, 3.775e-3
-1.330, 3.831e-3
-1.331, 3.884e-3
-1.332, 3.950e-3
-1.333, 4.012e-3
-1.334, 4.062e-3
-1.335, 4.125e-3
-1.336, 4.184e-3
-1.337, 4.244e-3
-1.338, 4.302e-3
-1.339, 4.358e-3
-1.340, 4.407e-3
-1.341, 4.447e-3
-1.342, 4.489e-3
-1.343, 4.546e-3
-1.344, 4.619e-3
-1.345, 4.700e-3
-1.346, 4.760e-3
-1.347, 4.837e-3
-1.348, 4.929e-3
-1.349, 5.003e-3
-1.350, 5.051e-3
-1.351, 5.093e-3
-1.352, 5.168e-3
-1.353, 5.212e-3
-1.354, 5.264e-3
-1.355, 5.315e-3
-1.356, 5.388e-3
-1.357, 5.497e-3
-1.358, 5.540e-3
-1.359, 5.606e-3
-1.360, 5.611e-3
-1.361, 5.667e-3
-1.362, 5.699e-3
-1.363, 5.773e-3
-1.364, 5.859e-3
-1.365, 5.915e-3
-1.366, 5.980e-3
-1.367, 6.029e-3
-1.368, 6.067e-3
-1.369, 6.130e-3
-1.370, 6.173e-3
-1.371, 6.255e-3
-1.372, 6.331e-3
-1.373, 6.416e-3
-1.374, 6.495e-3
-1.375, 6.633e-3
-1.376, 6.683e-3
-1.377, 6.742e-3
-1.378, 6.788e-3
-1.379, 6.811e-3
-1.380, 6.889e-3
-1.381, 6.950e-3
-1.382, 6.990e-3
-1.383, 7.097e-3
-1.384, 7.166e-3
-1.385, 7.211e-3
-1.386, 7.265e-3
-1.387, 7.295e-3
-1.388, 7.323e-3
-1.389, 7.418e-3
-1.390, 7.485e-3
-1.391, 7.566e-3
-1.392, 7.648e-3
-1.393, 7.738e-3
-1.394, 7.860e-3
-1.395, 7.956e-3
-1.396, 8.000e-3
-1.397, 8.030e-3
-1.398, 8.161e-3
-1.399, 8.187e-3
-1.400, 8.209e-3
-1.399, 8.119e-3
-1.398, 7.998e-3
-1.397, 7.901e-3
-1.396, 7.835e-3
-1.395, 7.773e-3
-1.394, 7.665e-3
-1.393, 7.551e-3
-1.392, 7.466e-3
-1.391, 7.562e-3
-1.390, 7.499e-3
-1.389, 7.417e-3
-1.388, 7.352e-3
-1.387, 7.265e-3
-1.386, 7.168e-3
-1.385, 7.128e-3
-1.384, 7.068e-3
-1.383, 6.961e-3
-1.382, 6.826e-3
-1.381, 6.755e-3
-1.380, 6.652e-3
-1.379, 6.633e-3
-1.378, 6.539e-3
-1.377, 6.465e-3
-1.376, 6.380e-3
-1.375, 6.375e-3
-1.374, 6.309e-3
-1.373, 6.207e-3
-1.372, 6.107e-3
-1.371, 6.008e-3
-1.370, 5.956e-3
-1.369, 5.907e-3
-1.368, 5.958e-3
-1.367, 5.946e-3
-1.366, 5.852e-3
-1.365, 5.794e-3
-1.364, 5.756e-3
-1.363, 5.704e-3
-1.362, 5.636e-3
-1.361, 5.576e-3
-1.360, 5.498e-3
-1.359, 5.390e-3
-1.358, 5.289e-3
-1.357, 5.201e-3
-1.356, 5.138e-3
-1.355, 5.105e-3
-1.354, 5.047e-3
-1.353, 4.985e-3
-1.352, 4.925e-3
-1.351, 4.846e-3
-1.350, 4.780e-3
-1.349, 4.700e-3
-1.348, 4.699e-3
-1.347, 4.637e-3
-1.346, 4.587e-3
-1.345, 4.521e-3
-1.344, 4.454e-3
-1.343, 4.362e-3
-1.342, 4.285e-3
-1.341, 4.223e-3
-1.340, 4.164e-3
-1.339, 4.102e-3
-1.338, 4.021e-3
-1.337, 3.961e-3
-1.336, 3.891e-3
-1.335, 3.827e-3
-1.334, 3.787e-3
-1.333, 3.697e-3
-1.332, 3.627e-3
-1.331, 3.561e-3
-1.330, 3.495e-3
-1.329, 3.432e-3
-1.328, 3.365e-3
-1.327, 3.306e-3
-1.326, 3.250e-3
-1.325, 3.193e-3
-1.324, 3.130e-3
-1.323, 3.080e-3
-1.322, 3.017e-3
-1.321, 2.953e-3
-1.320, 2.895e-3
-1.319, 2.833e-3
-1.318, 2.771e-3
-1.317, 2.718e-3
-1.316, 2.661e-3
-1.315, 2.614e-3
-1.314, 2.564e-3
-1.313, 2.501e-3
-1.312, 2.453e-3
-1.311, 2.397e-3
-1.310, 2.346e-3
-1.309, 2.292e-3
-1.308, 2.242e-3
-1.307, 2.195e-3
-1.306, 2.146e-3
-1.305, 2.096e-3
-1.304, 2.048e-3
-1.303, 2.006e-3
-1.302, 1.965e-3
-1.301, 1.915e-3
-1.300, 1.873e-3
-1.299, 1.831e-3
-1.298, 1.785e-3
-1.297, 1.741e-3
-1.296, 1.701e-3
-1.295, 1.661e-3
-1.294, 1.620e-3
-1.293, 1.578e-3
-1.292, 1.542e-3
-1.291, 1.506e-3
-1.290, 1.463e-3
-1.289, 1.432e-3
-1.288, 1.391e-3
-1.287, 1.355e-3
-1.286, 1.321e-3
-1.285, 1.288e-3
-1.284, 1.254e-3
-1.283, 1.220e-3
-1.282, 1.185e-3
-1.281, 1.152e-3
-1.280, 1.121e-3
-1.279, 1.090e-3
-1.278, 1.060e-3
-1.277, 1.031e-3
-1.276, 1.001e-3
-1.275, 9.727e-4
-1.274, 9.452e-4
-1.273, 9.164e-4
-1.272, 8.893e-4
-1.271, 8.634e-4
-1.270, 8.381e-4
-1.269, 8.140e-4
-1.268, 7.891e-4
-1.267, 7.654e-4
-1.266, 7.431e-4
-1.265, 7.190e-4
-1.264, 6.960e-4
-1.263, 6.730e-4
-1.262, 6.510e-4
-1.261, 6.321e-4
-1.260, 6.158e-4
-1.259, 5.958e-4
-1.258, 5.752e-4
-1.257, 5.533e-4
-1.256, 5.358e-4
-1.255, 5.179e-4
-1.254, 4.994e-4
-1.253, 4.826e-4
-1.252, 4.650e-4
-1.251, 4.488e-4
-1.250, 4.348e-4
-1.249, 4.189e-4
-1.248, 4.040e-4
-1.247, 3.896e-4
-1.246, 3.741e-4
-1.245, 3.613e-4
-1.244, 3.472e-4
-1.243, 3.332e-4
-1.242, 3.208e-4
-1.241, 3.086e-4
-1.240, 2.977e-4
-1.239, 2.863e-4
-1.238, 2.743e-4
-1.237, 2.631e-4
-1.236, 2.524e-4
-1.235, 2.430e-4
-1.234, 2.330e-4
-1.233, 2.226e-4
-1.232, 2.130e-4
-1.231, 2.045e-4
-1.230, 1.958e-4
-1.229, 1.863e-4
-1.228, 1.776e-4
-1.227, 1.696e-4
-1.226, 1.622e-4
-1.225, 1.547e-4
-1.224, 1.474e-4
-1.223, 1.396e-4
-1.222, 1.327e-4
-1.221, 1.263e-4
-1.220, 1.206e-4
-1.219, 1.139e-4
-1.218, 1.073e-4
-1.217, 1.010e-4
-1.216, 9.585e-5
-1.215, 9.056e-5
-1.214, 8.491e-5
-1.213, 7.927e-5
-1.212, 7.391e-5
-1.211, 6.931e-5
-1.210, 6.501e-5
-1.209, 6.016e-5
-1.208, 5.550e-5
-1.207, 5.082e-5
-1.206, 4.660e-5
-1.205, 4.355e-5
-1.204, 3.932e-5
-1.203, 3.463e-5
-1.202, 3.102e-5
-1.201, 2.734e-5
-1.200, 2.486e-5
-1.199, 2.130e-5
-1.198, 1.718e-5
-1.197, 1.401e-5
-1.196, 1.125e-5
-1.195, 8.523e-6
-1.194, 5.827e-6
-1.193, 2.238e-6
-1.192, -5.655e-7
-1.191, -3.097e-6
-1.190, -5.511e-6
-1.189, -7.809e-6
-1.188, -1.081e-5
-1.187, -1.363e-5
-1.186, -1.560e-5
-1.185, -1.772e-5
-1.184, -1.960e-5
-1.183, -2.220e-5
-1.182, -2.449e-5
-1.181, -2.610e-5
-1.180, -2.775e-5
-1.179, -2.962e-5
-1.178, -3.218e-5
-1.177, -3.433e-5
-1.176, -3.551e-5
-1.175, -3.656e-5
-1.174, -3.844e-5
-1.173, -4.035e-5
-1.172, -4.234e-5
-1.171, -4.354e-5
-1.170, -4.472e-5
-1.169, -4.618e-5
-1.168, -4.785e-5
-1.167, -4.967e-5
-1.166, -5.088e-5
-1.165, -5.152e-5
-1.164, -5.275e-5
-1.163, -5.459e-5
-1.162, -5.596e-5
-1.161, -5.717e-5
-1.160, -5.751e-5
-1.159, -5.896e-5
-1.158, -6.067e-5
-1.157, -6.171e-5
-1.156, -6.276e-5
-1.155, -6.342e-5
-1.154, -6.422e-5
-1.153, -6.609e-5
-1.152, -6.715e-5
-1.151, -6.796e-5
-1.150, -6.943e-5
-1.149, -6.955e-5
-1.148, -7.083e-5
-1.147, -7.200e-5
-1.146, -7.235e-5
-1.145, -7.284e-5
-1.144, -7.336e-5
-1.143, -7.500e-5
-1.142, -7.643e-5
-1.141, -7.667e-5
-1.140, -7.716e-5
-1.139, -7.851e-5
-1.138, -7.934e-5
-1.137, -8.067e-5
-1.136, -8.072e-5
-1.135, -8.106e-5
-1.134, -8.197e-5
-1.133, -8.279e-5
-1.132, -8.361e-5
-1.131, -8.452e-5
-1.130, -8.435e-5
-1.129, -8.506e-5
-1.128, -8.615e-5
-1.127, -8.742e-5
-1.126, -8.788e-5
-1.125, -8.776e-5
-1.124, -8.836e-5
-1.123, -8.974e-5
-1.122, -9.053e-5
-1.121, -9.095e-5
-1.120, -9.071e-5
-1.119, -9.163e-5
-1.118, -9.288e-5
-1.117, -9.330e-5
-1.116, -9.549e-5
-1.115, -9.411e-5
-1.114, -9.443e-5
-1.113, -9.615e-5
-1.112, -9.646e-5
-1.111, -9.677e-5
-1.110, -9.718e-5
-1.109, -9.724e-5
-1.108, -9.876e-5
-1.107, -9.948e-5
-1.106, -9.946e-5
-1.105, -1.000e-4
-1.104, -1.003e-4
-1.103, -1.015e-4
-1.102, -1.025e-4
-1.101, -1.027e-4
-1.100, -1.027e-4
-1.099, -1.031e-4
-1.098, -1.044e-4
-1.097, -1.054e-4
-1.096, -1.056e-4
-1.095, -1.059e-4
-1.094, -1.065e-4
-1.093, -1.074e-4
-1.092, -1.081e-4
-1.091, -1.084e-4
-1.090, -1.082e-4
-1.089, -1.089e-4
-1.088, -1.101e-4
-1.087, -1.107e-4
-1.086, -1.111e-4
-1.085, -1.108e-4
-1.084, -1.117e-4
-1.083, -1.128e-4
-1.082, -1.139e-4
-1.081, -1.141e-4
-1.080, -1.142e-4
-1.079, -1.147e-4
-1.078, -1.157e-4
-1.077, -1.166e-4
-1.076, -1.171e-4
-1.075, -1.175e-4
-1.074, -1.179e-4
-1.073, -1.191e-4
-1.072, -1.197e-4
-1.071, -1.202e-4
-1.070, -1.206e-4
-1.069, -1.208e-4
-1.068, -1.227e-4
-1.067, -1.232e-4
-1.066, -1.232e-4
-1.065, -1.237e-4
-1.064, -1.237e-4
-1.063, -1.251e-4
-1.062, -1.265e-4
-1.061, -1.261e-4
-1.060, -1.268e-4
-1.059, -1.274e-4
-1.058, -1.282e-4
-1.057, -1.296e-4
-1.056, -1.296e-4
-1.055, -1.298e-4
-1.054, -1.306e-4
-1.053, -1.318e-4
-1.052, -1.331e-4
-1.051, -1.336e-4
-1.050, -1.331e-4
-1.049, -1.343e-4
-1.048, -1.353e-4
-1.047, -1.365e-4
-1.046, -1.374e-4
-1.045, -1.374e-4
-1.044, -1.382e-4
-1.043, -1.390e-4
-1.042, -1.401e-4
-1.041, -1.411e-4
-1.040, -1.409e-4
-1.039, -1.419e-4
-1.038, -1.438e-4
-1.037, -1.445e-4
-1.036, -1.453e-4
-1.035, -1.450e-4
-1.034, -1.454e-4
-1.033, -1.467e-4
-1.032, -1.478e-4
-1.031, -1.494e-4
-1.030, -1.499e-4
-1.029, -1.497e-4
-1.028, -1.510e-4
-1.027, -1.527e-4
-1.026, -1.533e-4
-1.025, -1.539e-4
-1.024, -1.548e-4
-1.023, -1.559e-4
-1.022, -1.575e-4
-1.021, -1.578e-4
-1.020, -1.585e-4
-1.019, -1.594e-4
-1.018, -1.602e-4
-1.017, -1.615e-4
-1.016, -1.619e-4
-1.015, -1.627e-4
-1.014, -1.640e-4
-1.013, -1.650e-4
-1.012, -1.665e-4
-1.011, -1.675e-4
-1.010, -1.677e-4
-1.009, -1.688e-4
-1.008, -1.699e-4
-1.007, -1.712e-4
-1.006, -1.724e-4
-1.005, -1.727e-4
-1.004, -1.739e-4
-1.003, -1.755e-4
-1.002, -1.769e-4
-1.001, -1.778e-4
-1.000, -1.175e-4
-1.001, -6.203e-5
-1.002, -4.141e-5
-1.003, -2.888e-5
-1.004, -1.897e-5
-1.005, -1.067e-5
-1.006, -4.004e-6
-1.007, 1.271e-6
-1.008, 5.666e-6
-1.009, 1.050e-5
-1.010, 1.518e-5
-1.011, 1.867e-5
-1.012, 2.170e-5
-1.013, 2.410e-5
-1.014, 2.732e-5
-1.015, 3.061e-5
-1.016, 3.267e-5
-1.017, 3.472e-5
-1.018, 3.673e-5
-1.019, 3.874e-5
-1.020, 4.139e-5
-1.021, 4.330e-5
-1.022, 4.457e-5
-1.023, 4.618e-5
-1.024, 4.767e-5
-1.025, 4.958e-5
-1.026, 5.101e-5
-1.027, 5.165e-5
-1.028, 5.293e-5
-1.029, 5.396e-5
-1.030, 5.577e-5
-1.031, 5.721e-5
-1.032, 5.714e-5
-1.033, 5.812e-5
-1.034, 5.943e-5
-1.035, 6.066e-5
-1.036, 6.193e-5
-1.037, 6.191e-5
-1.038, 6.267e-5
-1.039, 6.377e-5
-1.040, 6.472e-5
-1.041, 6.563e-5
-1.042, 6.583e-5
-1.043, 6.587e-5
-1.044, 6.701e-5
-1.045, 6.799e-5
-1.046, 6.870e-5
-1.047, 6.887e-5
-1.048, 6.898e-5
-1.049, 6.978e-5
-1.050, 7.069e-5
-1.051, 7.103e-5
-1.052, 7.155e-5
-1.053, 7.132e-5
-1.054, 7.178e-5
-1.055, 7.303e-5
-1.056, 7.343e-5
-1.057, 7.322e-5
-1.058, 7.316e-5
-1.059, 7.367e-5
-1.060, 7.486e-5
-1.061, 7.487e-5
-1.062, 7.487e-5
-1.063, 7.492e-5
-1.064, 7.512e-5
-1.065, 7.612e-5
-1.066, 7.649e-5
-1.067, 7.600e-5
-1.068, 7.623e-5
-1.069, 7.654e-5
-1.070, 7.749e-5
-1.071, 7.812e-5
-1.072, 7.720e-5
-1.073, 7.713e-5
-1.074, 7.769e-5
-1.075, 7.843e-5
-1.076, 7.892e-5
-1.077, 7.824e-5
-1.078, 7.818e-5
-1.079, 7.856e-5
-1.080, 7.917e-5
-1.081, 7.961e-5
-1.082, 7.908e-5
-1.083, 7.869e-5
-1.084, 7.953e-5
-1.085, 7.977e-5
-1.086, 7.991e-5
-1.087, 8.012e-5
-1.088, 7.925e-5
-1.089, 8.029e-5
-1.090, 8.081e-5
-1.091, 8.071e-5
-1.092, 8.040e-5
-1.093, 8.010e-5
-1.094, 8.046e-5
-1.095, 8.143e-5
-1.096, 8.126e-5
-1.097, 8.112e-5
-1.098, 8.098e-5
-1.099, 8.142e-5
-1.100, 8.232e-5
-1.101, 8.202e-5
-1.102, 8.160e-5
-1.103, 8.168e-5
-1.104, 8.177e-5
-1.105, 8.259e-5
-1.106, 8.287e-5
-1.107, 8.222e-5
-1.108, 8.220e-5
-1.109, 8.261e-5
-1.110, 8.325e-5
-1.111, 8.374e-5
-1.112, 8.312e-5
-1.113, 8.285e-5
-1.114, 8.360e-5
-1.115, 8.407e-5
-1.116, 8.461e-5
-1.117, 8.399e-5
-1.118, 8.370e-5
-1.119, 8.421e-5
-1.120, 8.492e-5
-1.121, 8.467e-5
-1.122, 8.447e-5
-1.123, 8.453e-5
-1.124, 8.515e-5
-1.125, 8.608e-5
-1.126, 8.590e-5
-1.127, 8.588e-5
-1.128, 8.574e-5
-1.129, 8.605e-5
-1.130, 8.693e-5
-1.131, 8.668e-5
-1.132, 8.705e-5
-1.133, 8.673e-5
-1.134, 8.706e-5
-1.135, 8.815e-5
-1.136, 8.815e-5
-1.137, 8.807e-5
-1.138, 8.830e-5
-1.139, 8.852e-5
-1.140, 8.924e-5
-1.141, 8.957e-5
-1.142, 8.913e-5
-1.143, 8.944e-5
-1.144, 8.985e-5
-1.145, 9.087e-5
-1.146, 9.140e-5
-1.147, 9.093e-5
-1.148, 9.142e-5
-1.149, 9.158e-5
-1.150, 9.245e-5
-1.151, 9.304e-5
-1.152, 9.265e-5
-1.153, 9.288e-5
-1.154, 9.357e-5
-1.155, 9.437e-5
-1.156, 9.518e-5
-1.157, 9.499e-5
-1.158, 9.507e-5
-1.159, 9.583e-5
-1.160, 9.651e-5
-1.161, 9.729e-5
-1.162, 9.724e-5
-1.163, 9.729e-5
-1.164, 9.850e-5
-1.165, 9.919e-5
-1.166, 9.994e-5
-1.167, 1.001e-4
-1.168, 1.001e-4
-1.169, 1.011e-4
-1.170, 1.024e-4
-1.171, 1.027e-4
-1.172, 1.033e-4
-1.173, 1.035e-4
-1.174, 1.044e-4
-1.175, 1.059e-4
-1.176, 1.064e-4
-1.177, 1.071e-4
-1.178, 1.080e-4
-1.179, 1.082e-4
-1.180, 1.100e-4
-1.181, 1.109e-4
-1.182, 1.111e-4
-1.183, 1.120e-4
-1.184, 1.133e-4
-1.185, 1.149e-4
-1.186, 1.158e-4
-1.187, 1.161e-4
-1.188, 1.170e-4
-1.189, 1.183e-4
-1.190, 1.201e-4
-1.191, 1.217e-4
-1.192, 1.219e-4
-1.193, 1.230e-4
-1.194, 1.250e-4
-1.195, 1.264e-4
-1.196, 1.282e-4
-1.197, 1.290e-4
-1.198, 1.303e-4
-1.199, 1.323e-4
-1.200, 1.342e-4
-1.201, 1.361e-4
-1.202, 1.376e-4
-1.203, 1.395e-4
-1.204, 1.414e-4
-1.205, 1.431e-4
-1.206, 1.456e-4
-1.207, 1.472e-4
-1.208, 1.488e-4
-1.209, 1.517e-4
-1.210, 1.547e-4
-1.211, 1.573e-4
-1.212, 1.594e-4
-1.213, 1.619e-4
-1.214, 1.646e-4
-1.215, 1.681e-4
-1.216, 1.711e-4
-1.217, 1.738e-4
-1.218, 1.767e-4
-1.219, 1.804e-4
-1.220, 1.846e-4
-1.221, 1.884e-4
-1.222, 1.917e-4
-1.223, 1.952e-4
-1.224, 1.993e-4
-1.225, 2.048e-4
-1.226, 2.094e-4
-1.227, 2.132e-4
-1.228, 2.186e-4
-1.229, 2.246e-4
-1.230, 2.300e-4
-1.231, 2.357e-4
-1.232, 2.411e-4
-1.233, 2.473e-4
-1.234, 2.546e-4
-1.235, 2.621e-4
-1.236, 2.692e-4
-1.237, 2.763e-4
-1.238, 2.844e-4
-1.239, 2.932e-4
-1.240, 3.029e-4
-1.241, 3.126e-4
-1.242, 3.227e-4
-1.243, 3.326e-4
-1.244, 3.442e-4
-1.245, 3.567e-4
-1.246, 3.691e-4
-1.247, 3.814e-4
-1.248, 3.944e-4
-1.249, 4.091e-4
-1.250, 4.249e-4
-1.251, 4.407e-4
-1.252, 4.586e-4
-1.253, 4.760e-4
-1.254, 4.922e-4
-1.255, 5.122e-4
-1.256, 5.325e-4
-1.257, 5.520e-4
-1.258, 5.733e-4
-1.259, 5.948e-4
-1.260, 6.189e-4
-1.261, 6.471e-4
-1.262, 6.711e-4
-1.263, 6.953e-4
-1.264, 7.213e-4
-1.265, 7.493e-4
-1.266, 7.796e-4
-1.267, 8.075e-4
-1.268, 8.384e-4
-1.269, 8.688e-4
-1.270, 9.062e-4
-1.271, 9.344e-4
-1.272, 9.664e-4
-1.273, 9.997e-4
-1.274, 1.035e-3
-1.275, 1.072e-3
-1.276, 1.109e-3
-1.277, 1.145e-3
-1.278, 1.183e-3
-1.279, 1.221e-3
-1.280, 1.262e-3
-1.281, 1.298e-3
-1.282, 1.339e-3
-1.283, 1.378e-3
-1.284, 1.420e-3
-1.285, 1.464e-3
-1.286, 1.507e-3
-1.287, 1.549e-3
-1.288, 1.592e-3
-1.289, 1.637e-3
-1.290, 1.682e-3
-1.291, 1.729e-3
-1.292, 1.777e-3
-1.293, 1.821e-3
-1.294, 1.863e-3
-1.295, 1.908e-3
-1.296, 1.962e-3
-1.297, 2.011e-3
-1.298, 2.065e-3
-1.299, 2.112e-3
-1.300, 2.168e-3
-1.301, 2.218e-3
-1.302, 2.266e-3
-1.303, 2.314e-3
-1.304, 2.361e-3
-1.305, 2.413e-3
-1.306, 2.460e-3
-1.307, 2.514e-3
-1.308, 2.567e-3
-1.309, 2.620e-3
-1.310, 2.673e-3
-1.311, 2.722e-3
-1.312, 2.770e-3
-1.313, 2.824e-3
-1.314, 2.879e-3
-1.315, 2.935e-3
-1.316, 2.992e-3
-1.317, 3.046e-3
-1.318, 3.100e-3
-1.319, 3.156e-3
-1.320, 3.219e-3
-1.321, 3.269e-3
-1.322, 3.345e-3
-1.323, 3.393e-3
-1.324, 3.438e-3
-1.325, 3.486e-3
-1.326, 3.537e-3
-1.327, 3.590e-3
-1.328, 3.666e-3
-1.329, 3.731e-3
-1.330, 3.797e-3
-1.331, 3.873e-3
-1.332, 3.945e-3
-1.333, 3.984e-3
-1.334, 4.021e-3
-1.335, 4.080e-3
-1.336, 4.134e-3
-1.337, 4.184e-3
-1.338, 4.247e-3
-1.339, 4.294e-3
-1.340, 4.358e-3
-1.341, 4.409e-3
-1.342, 4.469e-3
-1.343, 4.528e-3
-1.344, 4.579e-3
-1.345, 4.636e-3
-1.346, 4.692e-3
-1.347, 4.744e-3
-1.348, 4.802e-3
-1.349, 4.874e-3
-1.350, 4.964e-3
-1.351, 5.012e-3
-1.352, 5.069e-3
-1.353, 5.123e-3
-1.354, 5.180e-3
-1.355, 5.232e-3
-1.356, 5.293e-3
-1.357, 5.369e-3
-1.358, 5.442e-3
-1.359, 5.493e-3
-1.360, 5.550e-3
-1.361, 5.598e-3
-1.362, 5.660e-3
-1.363, 5.765e-3
-1.364, 5.890e-3
-1.365, 5.933e-3
-1.366, 6.041e-3
-1.367, 6.079e-3
-1.368, 6.201e-3
-1.369, 6.235e-3
-1.370, 6.308e-3
-1.371, 6.345e-3
-1.372, 6.409e-3
-1.373, 6.428e-3
-1.374, 6.486e-3
-1.375, 6.567e-3
-1.376, 6.638e-3
-1.377, 6.695e-3
-1.378, 6.760e-3
-1.379, 6.803e-3
-1.380, 6.863e-3
-1.381, 6.881e-3
-1.382, 6.918e-3
-1.383, 6.978e-3
-1.384, 7.029e-3
-1.385, 7.078e-3
-1.386, 7.198e-3
-1.387, 7.290e-3
-1.388, 7.345e-3
-1.389, 7.413e-3
-1.390, 7.576e-3
-1.391, 7.650e-3
-1.392, 7.734e-3
-1.393, 7.806e-3
-1.394, 7.856e-3
-1.395, 7.951e-3
-1.396, 7.976e-3
-1.397, 8.019e-3
-1.398, 8.066e-3
-1.399, 8.158e-3
-1.400, 8.167e-3
-1.399, 8.087e-3
-1.398, 8.023e-3
-1.397, 7.924e-3
-1.396, 7.845e-3
-1.395, 7.744e-3
-1.394, 7.610e-3
-1.393, 7.509e-3
-1.392, 7.440e-3
-1.391, 7.412e-3
-1.390, 7.344e-3
-1.389, 7.206e-3
-1.388, 7.079e-3
-1.387, 7.006e-3
-1.386, 6.890e-3
-1.385, 6.879e-3
-1.384, 6.770e-3
-1.383, 6.786e-3
-1.382, 6.776e-3
-1.381, 6.642e-3
-1.380, 6.567e-3
-1.379, 6.477e-3
-1.378, 6.416e-3
-1.377, 6.309e-3
-1.376, 6.186e-3
-1.375, 6.102e-3
-1.374, 6.032e-3
-1.373, 5.960e-3
-1.372, 5.877e-3
-1.371, 5.803e-3
-1.370, 5.725e-3
-1.369, 5.671e-3
-1.368, 5.615e-3
-1.367, 5.524e-3
-1.366, 5.474e-3
-1.365, 5.419e-3
-1.364, 5.368e-3
-1.363, 5.268e-3
-1.362, 5.182e-3
-1.361, 5.116e-3
-1.360, 5.044e-3
-1.359, 4.997e-3
-1.358, 4.950e-3
-1.357, 4.882e-3
-1.356, 4.834e-3
-1.355, 4.736e-3
-1.354, 4.639e-3
-1.353, 4.602e-3
-1.352, 4.540e-3
-1.351, 4.456e-3
-1.350, 4.398e-3
-1.349, 4.353e-3
-1.348, 4.250e-3
-1.347, 4.194e-3
-1.346, 4.189e-3
-1.345, 4.245e-3
-1.344, 4.152e-3
-1.343, 4.091e-3
-1.342, 4.041e-3
-1.341, 4.023e-3
-1.340, 3.899e-3
-1.339, 3.828e-3
-1.338, 3.729e-3
-1.337, 3.644e-3
-1.336, 3.610e-3
-1.335, 3.584e-3
-1.334, 3.533e-3
-1.333, 3.449e-3
-1.332, 3.371e-3
-1.331, 3.305e-3
-1.330, 3.239e-3
-1.329, 3.179e-3
-1.328, 3.134e-3
-1.327, 3.070e-3
-1.326, 3.017e-3
-1.325, 2.962e-3
-1.324, 2.911e-3
-1.323, 2.858e-3
-1.322, 2.799e-3
-1.321, 2.746e-3
-1.320, 2.704e-3
-1.319, 2.639e-3
-1.318, 2.587e-3
-1.317, 2.539e-3
-1.316, 2.493e-3
-1.315, 2.438e-3
-1.314, 2.385e-3
-1.313, 2.333e-3
-1.312, 2.281e-3
-1.311, 2.236e-3
-1.310, 2.185e-3
-1.309, 2.155e-3
-1.308, 2.125e-3
-1.307, 2.075e-3
-1.306, 2.011e-3
-1.305, 1.961e-3
-1.304, 1.912e-3
-1.303, 1.864e-3
-1.302, 1.823e-3
-1.301, 1.785e-3
-1.300, 1.745e-3
-1.299, 1.724e-3
-1.298, 1.662e-3
-1.297, 1.624e-3
-1.296, 1.587e-3
-1.295, 1.551e-3
-1.294, 1.507e-3
-1.293, 1.474e-3
-1.292, 1.440e-3
-1.291, 1.401e-3
-1.290, 1.365e-3
-1.289, 1.336e-3
-1.288, 1.301e-3
-1.287, 1.266e-3
-1.286, 1.230e-3
-1.285, 1.195e-3
-1.284, 1.163e-3
-1.283, 1.130e-3
-1.282, 1.104e-3
-1.281, 1.071e-3
-1.280, 1.042e-3
-1.279, 1.026e-3
-1.278, 9.940e-4
-1.277, 9.651e-4
-1.276, 9.359e-4
-1.275, 9.086e-4
-1.274, 8.835e-4
-1.273, 8.586e-4
-1.272, 8.341e-4
-1.271, 8.053e-4
-1.270, 7.799e-4
-1.269, 7.571e-4
-1.268, 7.347e-4
-1.267, 7.136e-4
-1.266, 6.910e-4
-1.265, 6.682e-4
-1.264, 6.479e-4
-1.263, 6.281e-4
-1.262, 6.091e-4
-1.261, 5.943e-4
-1.260, 5.707e-4
-1.259, 5.521e-4
-1.258, 5.351e-4
-1.257, 5.167e-4
-1.256, 4.974e-4
-1.255, 4.826e-4
-1.254, 4.665e-4
-1.253, 4.485e-4
-1.252, 4.323e-4
-1.251, 4.185e-4
-1.250, 4.040e-4
-1.249, 3.888e-4
-1.248, 3.750e-4
-1.247, 3.617e-4
-1.246, 3.469e-4
-1.245, 3.360e-4
-1.244, 3.230e-4
-1.243, 3.098e-4
-1.242, 2.982e-4
-1.241, 2.855e-4
-1.240, 2.762e-4
-1.239, 2.646e-4
-1.238, 2.531e-4
-1.237, 2.430e-4
-1.236, 2.331e-4
-1.235, 2.240e-4
-1.234, 2.149e-4
-1.233, 2.050e-4
-1.232, 1.963e-4
-1.231, 1.882e-4
-1.230, 1.800e-4
-1.229, 1.712e-4
-1.228, 1.636e-4
-1.227, 1.564e-4
-1.226, 1.491e-4
-1.225, 1.419e-4
-1.224, 1.349e-4
-1.223, 1.303e-4
-1.222, 1.202e-4
-1.221, 1.152e-4
-1.220, 1.098e-4
-1.219, 1.038e-4
-1.218, 9.824e-5
-1.217, 9.182e-5
-1.216, 8.729e-5
-1.215, 8.223e-5
-1.214, 7.718e-5
-1.213, 7.208e-5
-1.212, 6.681e-5
-1.211, 6.284e-5
-1.210, 5.885e-5
-1.209, 5.460e-5
-1.208, 5.033e-5
-1.207, 4.606e-5
-1.206, 4.208e-5
-1.205, 3.914e-5
-1.204, 3.541e-5
-1.203, 3.146e-5
-1.202, 2.774e-5
-1.201, 2.456e-5
-1.200, 2.217e-5
-1.199, 1.890e-5
-1.198, 1.538e-5
-1.197, 1.231e-5
-1.196, 9.653e-6
-1.195, 7.188e-6
-1.194, 4.801e-6
-1.193, 1.644e-6
-1.192, -1.043e-6
-1.191, -3.092e-6
-1.190, -5.212e-6
-1.189, -7.075e-6
-1.188, -9.916e-6
-1.187, -1.239e-5
-1.186, -1.418e-5
-1.185, -1.581e-5
-1.184, -1.745e-5
-1.183, -1.994e-5
-1.182, -2.243e-5
-1.181, -2.373e-5
-1.180, -2.506e-5
-1.179, -2.681e-5
-1.178, -2.913e-5
-1.177, -3.117e-5
-1.176, -3.245e-5
-1.175, -3.294e-5
-1.174, -3.462e-5
-1.173, -3.623e-5
-1.172, -3.808e-5
-1.171, -3.947e-5
-1.170, -4.019e-5
-1.169, -4.169e-5
-1.168, -4.307e-5
-1.167, -4.458e-5
-1.166, -4.598e-5
-1.165, -4.637e-5
-1.164, -4.752e-5
-1.163, -4.934e-5
-1.162, -5.054e-5
-1.161, -5.164e-5
-1.160, -5.192e-5
-1.159, -5.265e-5
-1.158, -5.476e-5
-1.157, -5.562e-5
-1.156, -5.630e-5
-1.155, -5.712e-5
-1.154, -5.778e-5
-1.153, -5.935e-5
-1.152, -6.050e-5
-1.151, -6.115e-5
-1.150, -6.187e-5
-1.149, -6.208e-5
-1.148, -6.354e-5
-1.147, -6.488e-5
-1.146, -6.495e-5
-1.145, -6.681e-5
-1.144, -6.571e-5
-1.143, -6.768e-5
-1.142, -6.836e-5
-1.141, -6.878e-5
-1.140, -6.936e-5
-1.139, -6.962e-5
-1.138, -7.073e-5
-1.137, -7.202e-5
-1.136, -7.196e-5
-1.135, -7.241e-5
-1.134, -7.335e-5
-1.133, -7.409e-5
-1.132, -7.536e-5
-1.131, -7.578e-5
-1.130, -7.543e-5
-1.129, -7.606e-5
-1.128, -7.695e-5
-1.127, -7.799e-5
-1.126, -7.845e-5
-1.125, -7.873e-5
-1.124, -7.927e-5
-1.123, -8.011e-5
-1.122, -8.069e-5
-1.121, -8.189e-5
-1.120, -8.119e-5
-1.119, -8.205e-5
-1.118, -8.323e-5
-1.117, -8.384e-5
-1.116, -8.409e-5
-1.115, -8.457e-5
-1.114, -8.461e-5
-1.113, -8.584e-5
-1.112, -8.649e-5
-1.111, -8.668e-5
-1.110, -8.688e-5
-1.109, -8.714e-5
-1.108, -8.842e-5
-1.107, -8.923e-5
-1.106, -8.914e-5
-1.105, -8.977e-5
-1.104, -8.940e-5
-1.103, -9.064e-5
-1.102, -9.178e-5
-1.101, -9.252e-5
-1.100, -9.250e-5
-1.099, -9.227e-5
-1.098, -9.329e-5
-1.097, -9.432e-5
-1.096, -9.429e-5
-1.095, -9.454e-5
-1.094, -9.490e-5
-1.093, -9.594e-5
-1.092, -9.666e-5
-1.091, -9.727e-5
-1.090, -9.689e-5
-1.089, -9.764e-5
-1.088, -9.808e-5
-1.087, -9.905e-5
-1.086, -9.984e-5
-1.085, -9.929e-5
-1.084, -1.000e-4
-1.083, -1.011e-4
-1.082, -1.019e-4
-1.081, -1.026e-4
-1.080, -1.021e-4
-1.079, -1.025e-4
-1.078, -1.036e-4
-1.077, -1.044e-4
-1.076, -1.052e-4
-1.075, -1.048e-4
-1.074, -1.049e-4
-1.073, -1.067e-4
-1.072, -1.070e-4
-1.071, -1.084e-4
-1.070, -1.077e-4
-1.069, -1.077e-4
-1.068, -1.087e-4
-1.067, -1.100e-4
-1.066, -1.107e-4
-1.065, -1.118e-4
-1.064, -1.094e-4
-1.063, -1.115e-4
-1.062, -1.129e-4
-1.061, -1.130e-4
-1.060, -1.134e-4
-1.059, -1.137e-4
-1.058, -1.145e-4
-1.057, -1.159e-4
-1.056, -1.164e-4
-1.055, -1.165e-4
-1.054, -1.172e-4
-1.053, -1.177e-4
-1.052, -1.190e-4
-1.051, -1.202e-4
-1.050, -1.197e-4
-1.049, -1.202e-4
-1.048, -1.212e-4
-1.047, -1.222e-4
-1.046, -1.228e-4
-1.045, -1.222e-4
-1.044, -1.237e-4
-1.043, -1.249e-4
-1.042, -1.254e-4
-1.041, -1.266e-4
-1.040, -1.259e-4
-1.039, -1.266e-4
-1.038, -1.285e-4
-1.037, -1.296e-4
-1.036, -1.302e-4
-1.035, -1.303e-4
-1.034, -1.296e-4
-1.033, -1.312e-4
-1.032, -1.322e-4
-1.031, -1.335e-4
-1.030, -1.341e-4
-1.029, -1.343e-4
-1.028, -1.361e-4
-1.027, -1.370e-4
-1.026, -1.367e-4
-1.025, -1.372e-4
-1.024, -1.387e-4
-1.023, -1.394e-4
-1.022, -1.415e-4
-1.021, -1.415e-4
-1.020, -1.413e-4
-1.019, -1.423e-4
-1.018, -1.436e-4
-1.017, -1.452e-4
-1.016, -1.451e-4
-1.015, -1.460e-4
-1.014, -1.471e-4
-1.013, -1.486e-4
-1.012, -1.495e-4
-1.011, -1.496e-4
-1.010, -1.501e-4
-1.009, -1.508e-4
-1.008, -1.521e-4
-1.007, -1.539e-4
-1.006, -1.556e-4
-1.005, -1.552e-4
-1.004, -1.557e-4
-1.003, -1.573e-4
-1.002, -1.587e-4
-1.001, -1.595e-4
