Oct. 18, 2024   23:06:28
Cyclic Voltammetry
File: c:/users/guazh/data/banditlqround2/2024-10-18-exp571\exp571-2024-10-18t23_01_36-h2koh\exp571_cv_50mvs_efin_-1400mv.bin
Data Source:  Experiment
Instrument Model:  CHI760E
Header: CV ran at 50 mVs
Note: 

Init E (V) = -1
High E (V) = -1
Low E (V) = -1.4
Final E (V) = -1
Init P/N = N
Scan Rate (V/s) = 0.05
Segment = 7
Sample Interval (V) = 0.001
Quiet Time (sec) = 60
Sensitivity (A/V) = 0.001
Comp R (ohm) = 0.8

Results:

Channel 1:
Segment 1:

Segment 2:

Segment 3:

Segment 4:

Segment 5:

Segment 6:

Segment 7:

Potential/V, Current/A

-1.000, 2.052e-5
-1.001, 4.385e-5
-1.002, 5.468e-5
-1.003, 6.197e-5
-1.004, 6.775e-5
-1.005, 7.004e-5
-1.006, 7.157e-5
-1.007, 7.470e-5
-1.008, 7.700e-5
-1.009, 8.011e-5
-1.010, 8.070e-5
-1.011, 8.134e-5
-1.012, 8.319e-5
-1.013, 8.558e-5
-1.014, 8.761e-5
-1.015, 8.783e-5
-1.016, 8.828e-5
-1.017, 8.940e-5
-1.018, 9.225e-5
-1.019, 9.382e-5
-1.020, 9.428e-5
-1.021, 9.435e-5
-1.022, 9.549e-5
-1.023, 9.882e-5
-1.024, 1.001e-4
-1.025, 1.006e-4
-1.026, 1.009e-4
-1.027, 1.019e-4
-1.028, 1.057e-4
-1.029, 1.068e-4
-1.030, 1.078e-4
-1.031, 1.078e-4
-1.032, 1.090e-4
-1.033, 1.114e-4
-1.034, 1.126e-4
-1.035, 1.142e-4
-1.036, 1.138e-4
-1.037, 1.162e-4
-1.038, 1.189e-4
-1.039, 1.207e-4
-1.040, 1.213e-4
-1.041, 1.212e-4
-1.042, 1.236e-4
-1.043, 1.259e-4
-1.044, 1.281e-4
-1.045, 1.291e-4
-1.046, 1.290e-4
-1.047, 1.320e-4
-1.048, 1.338e-4
-1.049, 1.367e-4
-1.050, 1.371e-4
-1.051, 1.376e-4
-1.052, 1.404e-4
-1.053, 1.424e-4
-1.054, 1.455e-4
-1.055, 1.456e-4
-1.056, 1.466e-4
-1.057, 1.491e-4
-1.058, 1.513e-4
-1.059, 1.546e-4
-1.060, 1.547e-4
-1.061, 1.560e-4
-1.062, 1.581e-4
-1.063, 1.616e-4
-1.064, 1.634e-4
-1.065, 1.635e-4
-1.066, 1.658e-4
-1.067, 1.669e-4
-1.068, 1.716e-4
-1.069, 1.735e-4
-1.070, 1.741e-4
-1.071, 1.759e-4
-1.072, 1.763e-4
-1.073, 1.806e-4
-1.074, 1.826e-4
-1.075, 1.848e-4
-1.076, 1.859e-4
-1.077, 1.874e-4
-1.078, 1.914e-4
-1.079, 1.927e-4
-1.080, 1.943e-4
-1.081, 1.947e-4
-1.082, 1.976e-4
-1.083, 2.009e-4
-1.084, 2.025e-4
-1.085, 2.041e-4
-1.086, 2.039e-4
-1.087, 2.081e-4
-1.088, 2.098e-4
-1.089, 2.124e-4
-1.090, 2.141e-4
-1.091, 2.137e-4
-1.092, 2.197e-4
-1.093, 2.207e-4
-1.094, 2.234e-4
-1.095, 2.250e-4
-1.096, 2.254e-4
-1.097, 2.265e-4
-1.098, 2.272e-4
-1.099, 2.316e-4
-1.100, 2.329e-4
-1.101, 2.333e-4
-1.102, 2.359e-4
-1.103, 2.375e-4
-1.104, 2.404e-4
-1.105, 2.393e-4
-1.106, 2.411e-4
-1.107, 2.429e-4
-1.108, 2.449e-4
-1.109, 2.478e-4
-1.110, 2.464e-4
-1.111, 2.487e-4
-1.112, 2.488e-4
-1.113, 2.518e-4
-1.114, 2.540e-4
-1.115, 2.520e-4
-1.116, 2.543e-4
-1.117, 2.559e-4
-1.118, 2.587e-4
-1.119, 2.583e-4
-1.120, 2.583e-4
-1.121, 2.590e-4
-1.122, 2.575e-4
-1.123, 2.627e-4
-1.124, 2.629e-4
-1.125, 2.630e-4
-1.126, 2.614e-4
-1.127, 2.631e-4
-1.128, 2.666e-4
-1.129, 2.638e-4
-1.130, 2.669e-4
-1.131, 2.636e-4
-1.132, 2.650e-4
-1.133, 2.680e-4
-1.134, 2.670e-4
-1.135, 2.685e-4
-1.136, 2.652e-4
-1.137, 2.675e-4
-1.138, 2.681e-4
-1.139, 2.688e-4
-1.140, 2.694e-4
-1.141, 2.663e-4
-1.142, 2.687e-4
-1.143, 2.690e-4
-1.144, 2.698e-4
-1.145, 2.687e-4
-1.146, 2.678e-4
-1.147, 2.701e-4
-1.148, 2.696e-4
-1.149, 2.708e-4
-1.150, 2.689e-4
-1.151, 2.686e-4
-1.152, 2.703e-4
-1.153, 2.705e-4
-1.154, 2.726e-4
-1.155, 2.694e-4
-1.156, 2.700e-4
-1.157, 2.703e-4
-1.158, 2.712e-4
-1.159, 2.733e-4
-1.160, 2.708e-4
-1.161, 2.719e-4
-1.162, 2.713e-4
-1.163, 2.731e-4
-1.164, 2.711e-4
-1.165, 2.705e-4
-1.166, 2.739e-4
-1.167, 2.690e-4
-1.168, 2.733e-4
-1.169, 2.714e-4
-1.170, 2.689e-4
-1.171, 2.706e-4
-1.172, 2.726e-4
-1.173, 2.750e-4
-1.174, 2.722e-4
-1.175, 2.738e-4
-1.176, 2.723e-4
-1.177, 2.727e-4
-1.178, 2.748e-4
-1.179, 2.741e-4
-1.180, 2.749e-4
-1.181, 2.710e-4
-1.182, 2.740e-4
-1.183, 2.768e-4
-1.184, 2.742e-4
-1.185, 2.739e-4
-1.186, 2.722e-4
-1.187, 2.747e-4
-1.188, 2.749e-4
-1.189, 2.750e-4
-1.190, 2.748e-4
-1.191, 2.725e-4
-1.192, 2.748e-4
-1.193, 2.756e-4
-1.194, 2.771e-4
-1.195, 2.748e-4
-1.196, 2.741e-4
-1.197, 2.764e-4
-1.198, 2.759e-4
-1.199, 2.786e-4
-1.200, 2.756e-4
-1.201, 2.764e-4
-1.202, 2.776e-4
-1.203, 2.775e-4
-1.204, 2.793e-4
-1.205, 2.771e-4
-1.206, 2.796e-4
-1.207, 2.792e-4
-1.208, 2.822e-4
-1.209, 2.827e-4
-1.210, 2.798e-4
-1.211, 2.818e-4
-1.212, 2.827e-4
-1.213, 2.861e-4
-1.214, 2.862e-4
-1.215, 2.862e-4
-1.216, 2.867e-4
-1.217, 2.869e-4
-1.218, 2.907e-4
-1.219, 2.895e-4
-1.220, 2.909e-4
-1.221, 2.907e-4
-1.222, 2.917e-4
-1.223, 2.951e-4
-1.224, 2.945e-4
-1.225, 2.965e-4
-1.226, 2.947e-4
-1.227, 2.979e-4
-1.228, 3.023e-4
-1.229, 3.032e-4
-1.230, 3.030e-4
-1.231, 3.025e-4
-1.232, 3.088e-4
-1.233, 3.057e-4
-1.234, 3.060e-4
-1.235, 3.079e-4
-1.236, 3.103e-4
-1.237, 3.136e-4
-1.238, 3.127e-4
-1.239, 3.157e-4
-1.240, 3.136e-4
-1.241, 3.162e-4
-1.242, 3.201e-4
-1.243, 3.210e-4
-1.244, 3.243e-4
-1.245, 3.225e-4
-1.246, 3.253e-4
-1.247, 3.272e-4
-1.248, 3.300e-4
-1.249, 3.324e-4
-1.250, 3.313e-4
-1.251, 3.347e-4
-1.252, 3.360e-4
-1.253, 3.393e-4
-1.254, 3.410e-4
-1.255, 3.407e-4
-1.256, 3.443e-4
-1.257, 3.451e-4
-1.258, 3.495e-4
-1.259, 3.501e-4
-1.260, 3.502e-4
-1.261, 3.539e-4
-1.262, 3.553e-4
-1.263, 3.601e-4
-1.264, 3.559e-4
-1.265, 3.591e-4
-1.266, 3.609e-4
-1.267, 3.647e-4
-1.268, 3.734e-4
-1.269, 3.676e-4
-1.270, 3.707e-4
-1.271, 3.717e-4
-1.272, 3.761e-4
-1.273, 3.798e-4
-1.274, 3.792e-4
-1.275, 3.824e-4
-1.276, 3.829e-4
-1.277, 3.892e-4
-1.278, 3.895e-4
-1.279, 3.913e-4
-1.280, 3.936e-4
-1.281, 3.935e-4
-1.282, 3.995e-4
-1.283, 4.002e-4
-1.284, 4.039e-4
-1.285, 4.041e-4
-1.286, 4.059e-4
-1.287, 4.114e-4
-1.288, 4.121e-4
-1.289, 4.156e-4
-1.290, 4.154e-4
-1.291, 4.186e-4
-1.292, 4.224e-4
-1.293, 4.244e-4
-1.294, 4.287e-4
-1.295, 4.275e-4
-1.296, 4.313e-4
-1.297, 4.342e-4
-1.298, 4.376e-4
-1.299, 4.406e-4
-1.300, 4.403e-4
-1.301, 4.457e-4
-1.302, 4.469e-4
-1.303, 4.515e-4
-1.304, 4.521e-4
-1.305, 4.543e-4
-1.306, 4.589e-4
-1.307, 4.602e-4
-1.308, 4.674e-4
-1.309, 4.670e-4
-1.310, 4.687e-4
-1.311, 4.728e-4
-1.312, 4.753e-4
-1.313, 4.819e-4
-1.314, 4.826e-4
-1.315, 4.864e-4
-1.316, 4.900e-4
-1.317, 4.957e-4
-1.318, 4.991e-4
-1.319, 5.013e-4
-1.320, 5.063e-4
-1.321, 5.066e-4
-1.322, 5.150e-4
-1.323, 5.203e-4
-1.324, 5.254e-4
-1.325, 5.307e-4
-1.326, 5.345e-4
-1.327, 5.441e-4
-1.328, 5.480e-4
-1.329, 5.565e-4
-1.330, 5.630e-4
-1.331, 5.707e-4
-1.332, 5.859e-4
-1.333, 5.950e-4
-1.334, 6.098e-4
-1.335, 6.190e-4
-1.336, 6.351e-4
-1.337, 6.568e-4
-1.338, 6.778e-4
-1.339, 7.014e-4
-1.340, 7.213e-4
-1.341, 7.534e-4
-1.342, 7.809e-4
-1.343, 8.109e-4
-1.344, 8.512e-4
-1.345, 8.804e-4
-1.346, 9.215e-4
-1.347, 9.618e-4
-1.348, 1.012e-3
-1.349, 1.056e-3
-1.350, 1.095e-3
-1.351, 1.151e-3
-1.352, 1.204e-3
-1.353, 1.271e-3
-1.354, 1.323e-3
-1.355, 1.383e-3
-1.356, 1.458e-3
-1.357, 1.534e-3
-1.358, 1.629e-3
-1.359, 1.707e-3
-1.360, 1.808e-3
-1.361, 1.914e-3
-1.362, 2.014e-3
-1.363, 2.139e-3
-1.364, 2.250e-3
-1.365, 2.381e-3
-1.366, 2.500e-3
-1.367, 2.632e-3
-1.368, 2.771e-3
-1.369, 2.878e-3
-1.370, 3.013e-3
-1.371, 3.113e-3
-1.372, 3.237e-3
-1.373, 3.340e-3
-1.374, 3.422e-3
-1.375, 3.541e-3
-1.376, 3.602e-3
-1.377, 3.711e-3
-1.378, 3.783e-3
-1.379, 3.842e-3
-1.380, 3.892e-3
-1.381, 3.945e-3
-1.382, 4.040e-3
-1.383, 4.076e-3
-1.384, 4.170e-3
-1.385, 4.246e-3
-1.386, 4.292e-3
-1.387, 4.351e-3
-1.388, 4.386e-3
-1.389, 4.457e-3
-1.390, 4.488e-3
-1.391, 4.563e-3
-1.392, 4.618e-3
-1.393, 4.663e-3
-1.394, 4.725e-3
-1.395, 4.749e-3
-1.396, 4.823e-3
-1.397, 4.854e-3
-1.398, 4.912e-3
-1.399, 4.956e-3
-1.400, 4.920e-3
-1.399, 4.869e-3
-1.398, 4.757e-3
-1.397, 4.739e-3
-1.396, 4.702e-3
-1.395, 4.662e-3
-1.394, 4.588e-3
-1.393, 4.486e-3
-1.392, 4.466e-3
-1.391, 4.368e-3
-1.390, 4.296e-3
-1.389, 4.213e-3
-1.388, 4.142e-3
-1.387, 4.102e-3
-1.386, 4.084e-3
-1.385, 4.044e-3
-1.384, 3.911e-3
-1.383, 3.824e-3
-1.382, 3.585e-3
-1.381, 3.342e-3
-1.380, 3.304e-3
-1.379, 3.226e-3
-1.378, 3.192e-3
-1.377, 3.128e-3
-1.376, 3.073e-3
-1.375, 3.019e-3
-1.374, 2.952e-3
-1.373, 2.911e-3
-1.372, 2.833e-3
-1.371, 2.795e-3
-1.370, 2.741e-3
-1.369, 2.690e-3
-1.368, 2.650e-3
-1.367, 2.586e-3
-1.366, 2.542e-3
-1.365, 2.482e-3
-1.364, 2.437e-3
-1.363, 2.388e-3
-1.362, 2.335e-3
-1.361, 2.297e-3
-1.360, 2.239e-3
-1.359, 2.204e-3
-1.358, 2.155e-3
-1.357, 2.106e-3
-1.356, 2.068e-3
-1.355, 2.019e-3
-1.354, 1.990e-3
-1.353, 1.944e-3
-1.352, 1.912e-3
-1.351, 1.867e-3
-1.350, 1.820e-3
-1.349, 1.786e-3
-1.348, 1.738e-3
-1.347, 1.710e-3
-1.346, 1.664e-3
-1.345, 1.627e-3
-1.344, 1.585e-3
-1.343, 1.540e-3
-1.342, 1.509e-3
-1.341, 1.469e-3
-1.340, 1.439e-3
-1.339, 1.401e-3
-1.338, 1.370e-3
-1.337, 1.339e-3
-1.336, 1.301e-3
-1.335, 1.274e-3
-1.334, 1.237e-3
-1.333, 1.215e-3
-1.332, 1.184e-3
-1.331, 1.157e-3
-1.330, 1.117e-3
-1.329, 1.084e-3
-1.328, 1.062e-3
-1.327, 1.036e-3
-1.326, 1.011e-3
-1.325, 9.816e-4
-1.324, 9.563e-4
-1.323, 9.355e-4
-1.322, 9.043e-4
-1.321, 8.809e-4
-1.320, 8.519e-4
-1.319, 8.285e-4
-1.318, 8.081e-4
-1.317, 7.822e-4
-1.316, 7.601e-4
-1.315, 7.319e-4
-1.314, 7.132e-4
-1.313, 6.906e-4
-1.312, 6.703e-4
-1.311, 6.501e-4
-1.310, 6.265e-4
-1.309, 6.097e-4
-1.308, 5.899e-4
-1.307, 5.727e-4
-1.306, 5.528e-4
-1.305, 5.336e-4
-1.304, 5.190e-4
-1.303, 4.995e-4
-1.302, 4.854e-4
-1.301, 4.660e-4
-1.300, 4.511e-4
-1.299, 4.364e-4
-1.298, 4.211e-4
-1.297, 4.066e-4
-1.296, 3.894e-4
-1.295, 3.780e-4
-1.294, 3.636e-4
-1.293, 3.521e-4
-1.292, 3.400e-4
-1.291, 3.253e-4
-1.290, 3.136e-4
-1.289, 3.008e-4
-1.288, 2.921e-4
-1.287, 2.802e-4
-1.286, 2.686e-4
-1.285, 2.583e-4
-1.284, 2.478e-4
-1.283, 2.403e-4
-1.282, 2.294e-4
-1.281, 2.198e-4
-1.280, 2.101e-4
-1.279, 2.022e-4
-1.278, 1.952e-4
-1.277, 1.867e-4
-1.276, 1.788e-4
-1.275, 1.696e-4
-1.274, 1.641e-4
-1.273, 1.575e-4
-1.272, 1.500e-4
-1.271, 1.426e-4
-1.270, 1.344e-4
-1.269, 1.296e-4
-1.268, 1.241e-4
-1.267, 1.191e-4
-1.266, 1.124e-4
-1.265, 1.061e-4
-1.264, 1.025e-4
-1.263, 9.722e-5
-1.262, 9.224e-5
-1.261, 8.647e-5
-1.260, 8.168e-5
-1.259, 7.857e-5
-1.258, 7.480e-5
-1.257, 7.066e-5
-1.256, 6.504e-5
-1.255, 6.070e-5
-1.254, 5.775e-5
-1.253, 5.500e-5
-1.252, 5.166e-5
-1.251, 4.674e-5
-1.250, 4.349e-5
-1.249, 4.077e-5
-1.248, 3.885e-5
-1.247, 3.578e-5
-1.246, 3.140e-5
-1.245, 2.877e-5
-1.244, 2.650e-5
-1.243, 2.495e-5
-1.242, 2.229e-5
-1.241, 1.851e-5
-1.240, 1.595e-5
-1.239, 1.440e-5
-1.238, 1.300e-5
-1.237, 1.056e-5
-1.236, 7.454e-6
-1.235, 5.410e-6
-1.234, 4.222e-6
-1.233, 3.341e-6
-1.232, 1.242e-6
-1.231, -1.520e-6
-1.230, -3.776e-6
-1.229, -5.403e-6
-1.228, -5.197e-6
-1.227, -7.044e-6
-1.226, -9.493e-6
-1.225, -1.144e-5
-1.224, -1.192e-5
-1.223, -1.215e-5
-1.222, -1.387e-5
-1.221, -1.597e-5
-1.220, -1.756e-5
-1.219, -1.804e-5
-1.218, -1.793e-5
-1.217, -1.947e-5
-1.216, -2.146e-5
-1.215, -2.288e-5
-1.214, -2.325e-5
-1.213, -2.303e-5
-1.212, -2.431e-5
-1.211, -2.617e-5
-1.210, -2.726e-5
-1.209, -2.751e-5
-1.208, -2.719e-5
-1.207, -2.792e-5
-1.206, -3.025e-5
-1.205, -3.117e-5
-1.204, -3.107e-5
-1.203, -3.108e-5
-1.202, -3.197e-5
-1.201, -3.378e-5
-1.200, -3.459e-5
-1.199, -3.434e-5
-1.198, -3.419e-5
-1.197, -3.503e-5
-1.196, -3.698e-5
-1.195, -3.822e-5
-1.194, -3.751e-5
-1.193, -3.733e-5
-1.192, -3.759e-5
-1.191, -3.933e-5
-1.190, -4.036e-5
-1.189, -4.001e-5
-1.188, -3.980e-5
-1.187, -4.055e-5
-1.186, -4.218e-5
-1.185, -4.291e-5
-1.184, -4.238e-5
-1.183, -4.201e-5
-1.182, -4.302e-5
-1.181, -4.456e-5
-1.180, -4.509e-5
-1.179, -4.466e-5
-1.178, -4.431e-5
-1.177, -4.539e-5
-1.176, -4.684e-5
-1.175, -4.727e-5
-1.174, -4.737e-5
-1.173, -4.654e-5
-1.172, -4.717e-5
-1.171, -4.871e-5
-1.170, -4.924e-5
-1.169, -4.924e-5
-1.168, -4.822e-5
-1.167, -4.917e-5
-1.166, -5.058e-5
-1.165, -5.073e-5
-1.164, -5.025e-5
-1.163, -4.950e-5
-1.162, -5.041e-5
-1.161, -5.199e-5
-1.160, -5.227e-5
-1.159, -5.176e-5
-1.158, -5.124e-5
-1.157, -5.201e-5
-1.156, -5.351e-5
-1.155, -5.418e-5
-1.154, -5.332e-5
-1.153, -5.309e-5
-1.152, -5.369e-5
-1.151, -5.522e-5
-1.150, -5.602e-5
-1.149, -5.510e-5
-1.148, -5.488e-5
-1.147, -5.559e-5
-1.146, -5.670e-5
-1.145, -5.742e-5
-1.144, -5.624e-5
-1.143, -5.608e-5
-1.142, -5.676e-5
-1.141, -5.846e-5
-1.140, -5.878e-5
-1.139, -5.825e-5
-1.138, -5.759e-5
-1.137, -5.841e-5
-1.136, -5.979e-5
-1.135, -6.020e-5
-1.134, -5.997e-5
-1.133, -5.912e-5
-1.132, -5.991e-5
-1.131, -6.135e-5
-1.130, -6.166e-5
-1.129, -6.151e-5
-1.128, -6.074e-5
-1.127, -6.180e-5
-1.126, -6.374e-5
-1.125, -6.375e-5
-1.124, -6.334e-5
-1.123, -6.243e-5
-1.122, -6.348e-5
-1.121, -6.518e-5
-1.120, -6.555e-5
-1.119, -6.514e-5
-1.118, -6.449e-5
-1.117, -6.522e-5
-1.116, -6.623e-5
-1.115, -6.702e-5
-1.114, -6.646e-5
-1.113, -6.619e-5
-1.112, -6.705e-5
-1.111, -6.827e-5
-1.110, -6.933e-5
-1.109, -6.826e-5
-1.108, -6.783e-5
-1.107, -6.881e-5
-1.106, -7.006e-5
-1.105, -7.141e-5
-1.104, -7.029e-5
-1.103, -7.011e-5
-1.102, -7.138e-5
-1.101, -7.255e-5
-1.100, -7.329e-5
-1.099, -7.253e-5
-1.098, -7.223e-5
-1.097, -7.331e-5
-1.096, -7.486e-5
-1.095, -7.570e-5
-1.094, -7.510e-5
-1.093, -7.447e-5
-1.092, -7.515e-5
-1.091, -7.696e-5
-1.090, -7.727e-5
-1.089, -7.718e-5
-1.088, -7.672e-5
-1.087, -7.779e-5
-1.086, -7.979e-5
-1.085, -7.983e-5
-1.084, -7.996e-5
-1.083, -7.938e-5
-1.082, -8.035e-5
-1.081, -8.244e-5
-1.080, -8.274e-5
-1.079, -8.296e-5
-1.078, -8.264e-5
-1.077, -8.369e-5
-1.076, -8.587e-5
-1.075, -8.655e-5
-1.074, -8.635e-5
-1.073, -8.595e-5
-1.072, -8.753e-5
-1.071, -8.899e-5
-1.070, -9.013e-5
-1.069, -8.997e-5
-1.068, -8.975e-5
-1.067, -9.124e-5
-1.066, -9.268e-5
-1.065, -9.423e-5
-1.064, -9.351e-5
-1.063, -9.330e-5
-1.062, -9.515e-5
-1.061, -9.674e-5
-1.060, -9.833e-5
-1.059, -9.776e-5
-1.058, -9.780e-5
-1.057, -9.950e-5
-1.056, -1.009e-4
-1.055, -1.023e-4
-1.054, -1.020e-4
-1.053, -1.023e-4
-1.052, -1.036e-4
-1.051, -1.056e-4
-1.050, -1.066e-4
-1.049, -1.065e-4
-1.048, -1.071e-4
-1.047, -1.080e-4
-1.046, -1.111e-4
-1.045, -1.120e-4
-1.044, -1.122e-4
-1.043, -1.130e-4
-1.042, -1.148e-4
-1.041, -1.178e-4
-1.040, -1.190e-4
-1.039, -1.193e-4
-1.038, -1.210e-4
-1.037, -1.202e-4
-1.036, -1.238e-4
-1.035, -1.248e-4
-1.034, -1.254e-4
-1.033, -1.256e-4
-1.032, -1.277e-4
-1.031, -1.309e-4
-1.030, -1.324e-4
-1.029, -1.332e-4
-1.028, -1.331e-4
-1.027, -1.356e-4
-1.026, -1.378e-4
-1.025, -1.393e-4
-1.024, -1.407e-4
-1.023, -1.408e-4
-1.022, -1.443e-4
-1.021, -1.462e-4
-1.020, -1.487e-4
-1.019, -1.497e-4
-1.018, -1.499e-4
-1.017, -1.532e-4
-1.016, -1.554e-4
-1.015, -1.582e-4
-1.014, -1.592e-4
-1.013, -1.602e-4
-1.012, -1.637e-4
-1.011, -1.654e-4
-1.010, -1.693e-4
-1.009, -1.705e-4
-1.008, -1.717e-4
-1.007, -1.744e-4
-1.006, -1.777e-4
-1.005, -1.805e-4
-1.004, -1.804e-4
-1.003, -1.835e-4
-1.002, -1.855e-4
-1.001, -1.890e-4
-1.000, -1.446e-4
-1.001, -9.204e-5
-1.002, -6.625e-5
-1.003, -4.919e-5
-1.004, -3.716e-5
-1.005, -2.662e-5
-1.006, -1.672e-5
-1.007, -7.869e-6
-1.008, -2.107e-6
-1.009, 2.776e-6
-1.010, 7.707e-6
-1.011, 1.337e-5
-1.012, 1.842e-5
-1.013, 2.147e-5
-1.014, 2.383e-5
-1.015, 2.716e-5
-1.016, 3.107e-5
-1.017, 3.441e-5
-1.018, 3.622e-5
-1.019, 3.719e-5
-1.020, 3.929e-5
-1.021, 4.251e-5
-1.022, 4.483e-5
-1.023, 4.601e-5
-1.024, 4.636e-5
-1.025, 4.748e-5
-1.026, 4.993e-5
-1.027, 5.151e-5
-1.028, 5.289e-5
-1.029, 5.231e-5
-1.030, 5.343e-5
-1.031, 5.555e-5
-1.032, 5.667e-5
-1.033, 5.721e-5
-1.034, 5.678e-5
-1.035, 5.756e-5
-1.036, 5.918e-5
-1.037, 6.045e-5
-1.038, 6.025e-5
-1.039, 5.963e-5
-1.040, 6.036e-5
-1.041, 6.134e-5
-1.042, 6.299e-5
-1.043, 6.241e-5
-1.044, 6.182e-5
-1.045, 6.223e-5
-1.046, 6.333e-5
-1.047, 6.465e-5
-1.048, 6.382e-5
-1.049, 6.328e-5
-1.050, 6.332e-5
-1.051, 6.451e-5
-1.052, 6.582e-5
-1.053, 6.473e-5
-1.054, 6.404e-5
-1.055, 6.407e-5
-1.056, 6.513e-5
-1.057, 6.589e-5
-1.058, 6.535e-5
-1.059, 6.479e-5
-1.060, 6.443e-5
-1.061, 6.571e-5
-1.062, 6.614e-5
-1.063, 6.563e-5
-1.064, 6.474e-5
-1.065, 6.495e-5
-1.066, 6.635e-5
-1.067, 6.604e-5
-1.068, 6.587e-5
-1.069, 6.433e-5
-1.070, 6.398e-5
-1.071, 6.543e-5
-1.072, 6.572e-5
-1.073, 6.544e-5
-1.074, 6.411e-5
-1.075, 6.409e-5
-1.076, 6.511e-5
-1.077, 6.527e-5
-1.078, 6.461e-5
-1.079, 6.314e-5
-1.080, 6.341e-5
-1.081, 6.460e-5
-1.082, 6.470e-5
-1.083, 6.402e-5
-1.084, 6.265e-5
-1.085, 6.284e-5
-1.086, 6.355e-5
-1.087, 6.432e-5
-1.088, 6.327e-5
-1.089, 6.205e-5
-1.090, 6.236e-5
-1.091, 6.286e-5
-1.092, 6.375e-5
-1.093, 6.259e-5
-1.094, 6.140e-5
-1.095, 6.193e-5
-1.096, 6.230e-5
-1.097, 6.317e-5
-1.098, 6.211e-5
-1.099, 6.115e-5
-1.100, 6.092e-5
-1.101, 6.152e-5
-1.102, 6.290e-5
-1.103, 6.176e-5
-1.104, 6.057e-5
-1.105, 6.034e-5
-1.106, 6.162e-5
-1.107, 6.186e-5
-1.108, 6.114e-5
-1.109, 6.033e-5
-1.110, 6.014e-5
-1.111, 6.207e-5
-1.112, 6.167e-5
-1.113, 6.098e-5
-1.114, 6.010e-5
-1.115, 5.960e-5
-1.116, 6.109e-5
-1.117, 6.137e-5
-1.118, 6.094e-5
-1.119, 5.988e-5
-1.120, 5.970e-5
-1.121, 6.087e-5
-1.122, 6.116e-5
-1.123, 6.043e-5
-1.124, 5.929e-5
-1.125, 5.985e-5
-1.126, 6.084e-5
-1.127, 6.120e-5
-1.128, 6.022e-5
-1.129, 5.898e-5
-1.130, 5.962e-5
-1.131, 6.035e-5
-1.132, 6.136e-5
-1.133, 6.023e-5
-1.134, 5.909e-5
-1.135, 5.972e-5
-1.136, 6.045e-5
-1.137, 6.120e-5
-1.138, 6.030e-5
-1.139, 5.912e-5
-1.140, 5.990e-5
-1.141, 6.051e-5
-1.142, 6.151e-5
-1.143, 6.023e-5
-1.144, 5.953e-5
-1.145, 5.988e-5
-1.146, 6.103e-5
-1.147, 6.139e-5
-1.148, 6.072e-5
-1.149, 6.008e-5
-1.150, 6.028e-5
-1.151, 6.177e-5
-1.152, 6.207e-5
-1.153, 6.093e-5
-1.154, 6.041e-5
-1.155, 6.044e-5
-1.156, 6.199e-5
-1.157, 6.217e-5
-1.158, 6.163e-5
-1.159, 6.100e-5
-1.160, 6.100e-5
-1.161, 6.257e-5
-1.162, 6.275e-5
-1.163, 6.206e-5
-1.164, 6.132e-5
-1.165, 6.166e-5
-1.166, 6.303e-5
-1.167, 6.341e-5
-1.168, 6.268e-5
-1.169, 6.189e-5
-1.170, 6.266e-5
-1.171, 6.372e-5
-1.172, 6.418e-5
-1.173, 6.369e-5
-1.174, 6.295e-5
-1.175, 6.392e-5
-1.176, 6.482e-5
-1.177, 6.580e-5
-1.178, 6.527e-5
-1.179, 6.348e-5
-1.180, 6.451e-5
-1.181, 6.562e-5
-1.182, 6.635e-5
-1.183, 6.581e-5
-1.184, 6.507e-5
-1.185, 6.588e-5
-1.186, 6.687e-5
-1.187, 6.782e-5
-1.188, 6.662e-5
-1.189, 6.590e-5
-1.190, 6.677e-5
-1.191, 6.806e-5
-1.192, 6.872e-5
-1.193, 6.751e-5
-1.194, 6.732e-5
-1.195, 6.766e-5
-1.196, 6.923e-5
-1.197, 6.983e-5
-1.198, 6.892e-5
-1.199, 6.906e-5
-1.200, 6.930e-5
-1.201, 7.089e-5
-1.202, 7.151e-5
-1.203, 7.037e-5
-1.204, 7.018e-5
-1.205, 7.041e-5
-1.206, 7.266e-5
-1.207, 7.289e-5
-1.208, 7.204e-5
-1.209, 7.184e-5
-1.210, 7.229e-5
-1.211, 7.405e-5
-1.212, 7.443e-5
-1.213, 7.408e-5
-1.214, 7.339e-5
-1.215, 7.428e-5
-1.216, 7.586e-5
-1.217, 7.621e-5
-1.218, 7.617e-5
-1.219, 7.532e-5
-1.220, 7.633e-5
-1.221, 7.809e-5
-1.222, 7.866e-5
-1.223, 7.857e-5
-1.224, 7.750e-5
-1.225, 7.880e-5
-1.226, 8.050e-5
-1.227, 8.185e-5
-1.228, 8.204e-5
-1.229, 8.099e-5
-1.230, 8.233e-5
-1.231, 8.372e-5
-1.232, 8.447e-5
-1.233, 8.444e-5
-1.234, 8.433e-5
-1.235, 8.580e-5
-1.236, 8.696e-5
-1.237, 8.832e-5
-1.238, 8.756e-5
-1.239, 8.792e-5
-1.240, 8.912e-5
-1.241, 9.081e-5
-1.242, 9.234e-5
-1.243, 9.146e-5
-1.244, 9.208e-5
-1.245, 9.306e-5
-1.246, 9.518e-5
-1.247, 9.672e-5
-1.248, 9.617e-5
-1.249, 9.679e-5
-1.250, 9.799e-5
-1.251, 1.002e-4
-1.252, 1.016e-4
-1.253, 1.015e-4
-1.254, 1.024e-4
-1.255, 1.038e-4
-1.256, 1.063e-4
-1.257, 1.072e-4
-1.258, 1.081e-4
-1.259, 1.086e-4
-1.260, 1.105e-4
-1.261, 1.132e-4
-1.262, 1.143e-4
-1.263, 1.157e-4
-1.264, 1.158e-4
-1.265, 1.185e-4
-1.266, 1.217e-4
-1.267, 1.231e-4
-1.268, 1.247e-4
-1.269, 1.249e-4
-1.270, 1.278e-4
-1.271, 1.313e-4
-1.272, 1.336e-4
-1.273, 1.353e-4
-1.274, 1.364e-4
-1.275, 1.399e-4
-1.276, 1.431e-4
-1.277, 1.463e-4
-1.278, 1.483e-4
-1.279, 1.503e-4
-1.280, 1.546e-4
-1.281, 1.583e-4
-1.282, 1.623e-4
-1.283, 1.649e-4
-1.284, 1.682e-4
-1.285, 1.733e-4
-1.286, 1.779e-4
-1.287, 1.838e-4
-1.288, 1.866e-4
-1.289, 1.928e-4
-1.290, 1.989e-4
-1.291, 2.057e-4
-1.292, 2.131e-4
-1.293, 2.178e-4
-1.294, 2.241e-4
-1.295, 2.321e-4
-1.296, 2.417e-4
-1.297, 2.509e-4
-1.298, 2.592e-4
-1.299, 2.701e-4
-1.300, 2.792e-4
-1.301, 2.929e-4
-1.302, 3.047e-4
-1.303, 3.171e-4
-1.304, 3.311e-4
-1.305, 3.459e-4
-1.306, 3.652e-4
-1.307, 3.813e-4
-1.308, 4.010e-4
-1.309, 4.212e-4
-1.310, 4.438e-4
-1.311, 4.716e-4
-1.312, 4.967e-4
-1.313, 5.263e-4
-1.314, 5.561e-4
-1.315, 5.902e-4
-1.316, 6.285e-4
-1.317, 6.648e-4
-1.318, 7.077e-4
-1.319, 7.452e-4
-1.320, 7.919e-4
-1.321, 8.401e-4
-1.322, 8.879e-4
-1.323, 9.414e-4
-1.324, 9.879e-4
-1.325, 1.044e-3
-1.326, 1.094e-3
-1.327, 1.150e-3
-1.328, 1.205e-3
-1.329, 1.256e-3
-1.330, 1.318e-3
-1.331, 1.364e-3
-1.332, 1.416e-3
-1.333, 1.469e-3
-1.334, 1.512e-3
-1.335, 1.574e-3
-1.336, 1.618e-3
-1.337, 1.678e-3
-1.338, 1.716e-3
-1.339, 1.770e-3
-1.340, 1.823e-3
-1.341, 1.865e-3
-1.342, 1.919e-3
-1.343, 1.956e-3
-1.344, 2.004e-3
-1.345, 2.043e-3
-1.346, 2.085e-3
-1.347, 2.135e-3
-1.348, 2.162e-3
-1.349, 2.214e-3
-1.350, 2.269e-3
-1.351, 2.313e-3
-1.352, 2.367e-3
-1.353, 2.391e-3
-1.354, 2.465e-3
-1.355, 2.481e-3
-1.356, 2.529e-3
-1.357, 2.565e-3
-1.358, 2.606e-3
-1.359, 2.657e-3
-1.360, 2.688e-3
-1.361, 2.760e-3
-1.362, 2.784e-3
-1.363, 2.831e-3
-1.364, 2.879e-3
-1.365, 2.913e-3
-1.366, 2.963e-3
-1.367, 2.996e-3
-1.368, 3.054e-3
-1.369, 3.087e-3
-1.370, 3.140e-3
-1.371, 3.190e-3
-1.372, 3.225e-3
-1.373, 3.287e-3
-1.374, 3.318e-3
-1.375, 3.373e-3
-1.376, 3.403e-3
-1.377, 3.446e-3
-1.378, 3.544e-3
-1.379, 3.580e-3
-1.380, 3.630e-3
-1.381, 3.677e-3
-1.382, 3.727e-3
-1.383, 3.752e-3
-1.384, 3.791e-3
-1.385, 3.874e-3
-1.386, 3.905e-3
-1.387, 3.983e-3
-1.388, 4.020e-3
-1.389, 4.062e-3
-1.390, 4.106e-3
-1.391, 4.139e-3
-1.392, 4.216e-3
-1.393, 4.241e-3
-1.394, 4.303e-3
-1.395, 4.339e-3
-1.396, 4.386e-3
-1.397, 4.445e-3
-1.398, 4.476e-3
-1.399, 4.549e-3
-1.400, 4.532e-3
-1.399, 4.468e-3
-1.398, 4.404e-3
-1.397, 4.335e-3
-1.396, 4.286e-3
-1.395, 4.204e-3
-1.394, 4.155e-3
-1.393, 4.072e-3
-1.392, 4.005e-3
-1.391, 3.966e-3
-1.390, 3.898e-3
-1.389, 3.870e-3
-1.388, 3.813e-3
-1.387, 3.757e-3
-1.386, 3.694e-3
-1.385, 3.628e-3
-1.384, 3.580e-3
-1.383, 3.506e-3
-1.382, 3.470e-3
-1.381, 3.401e-3
-1.380, 3.335e-3
-1.379, 3.280e-3
-1.378, 3.210e-3
-1.377, 3.162e-3
-1.376, 3.104e-3
-1.375, 3.080e-3
-1.374, 3.026e-3
-1.373, 2.962e-3
-1.372, 2.910e-3
-1.371, 2.861e-3
-1.370, 2.823e-3
-1.369, 2.758e-3
-1.368, 2.713e-3
-1.367, 2.668e-3
-1.366, 2.622e-3
-1.365, 2.583e-3
-1.364, 2.521e-3
-1.363, 2.486e-3
-1.362, 2.428e-3
-1.361, 2.382e-3
-1.360, 2.339e-3
-1.359, 2.290e-3
-1.358, 2.262e-3
-1.357, 2.210e-3
-1.356, 2.171e-3
-1.355, 2.116e-3
-1.354, 2.076e-3
-1.353, 2.035e-3
-1.352, 1.985e-3
-1.351, 1.956e-3
-1.350, 1.907e-3
-1.349, 1.872e-3
-1.348, 1.826e-3
-1.347, 1.781e-3
-1.346, 1.717e-3
-1.345, 1.635e-3
-1.344, 1.603e-3
-1.343, 1.564e-3
-1.342, 1.536e-3
-1.341, 1.497e-3
-1.340, 1.452e-3
-1.339, 1.430e-3
-1.338, 1.396e-3
-1.337, 1.366e-3
-1.336, 1.323e-3
-1.335, 1.293e-3
-1.334, 1.262e-3
-1.333, 1.230e-3
-1.332, 1.202e-3
-1.331, 1.164e-3
-1.330, 1.140e-3
-1.329, 1.106e-3
-1.328, 1.079e-3
-1.327, 1.050e-3
-1.326, 1.023e-3
-1.325, 9.991e-4
-1.324, 9.668e-4
-1.323, 9.369e-4
-1.322, 9.088e-4
-1.321, 8.838e-4
-1.320, 8.628e-4
-1.319, 8.355e-4
-1.318, 8.149e-4
-1.317, 7.901e-4
-1.316, 7.658e-4
-1.315, 7.405e-4
-1.314, 7.162e-4
-1.313, 7.025e-4
-1.312, 6.765e-4
-1.311, 6.573e-4
-1.310, 6.321e-4
-1.309, 6.139e-4
-1.308, 5.955e-4
-1.307, 5.755e-4
-1.306, 5.584e-4
-1.305, 5.365e-4
-1.304, 5.221e-4
-1.303, 5.036e-4
-1.302, 4.860e-4
-1.301, 4.699e-4
-1.300, 4.535e-4
-1.299, 4.410e-4
-1.298, 4.228e-4
-1.297, 4.090e-4
-1.296, 3.936e-4
-1.295, 3.794e-4
-1.294, 3.682e-4
-1.293, 3.531e-4
-1.292, 3.388e-4
-1.291, 3.241e-4
-1.290, 3.141e-4
-1.289, 3.037e-4
-1.288, 2.917e-4
-1.287, 2.812e-4
-1.286, 2.674e-4
-1.285, 2.583e-4
-1.284, 2.482e-4
-1.283, 2.386e-4
-1.282, 2.291e-4
-1.281, 2.183e-4
-1.280, 2.109e-4
-1.279, 2.018e-4
-1.278, 1.941e-4
-1.277, 1.848e-4
-1.276, 1.762e-4
-1.275, 1.695e-4
-1.274, 1.625e-4
-1.273, 1.564e-4
-1.272, 1.487e-4
-1.271, 1.412e-4
-1.270, 1.344e-4
-1.269, 1.294e-4
-1.268, 1.238e-4
-1.267, 1.149e-4
-1.266, 1.095e-4
-1.265, 1.058e-4
-1.264, 1.018e-4
-1.263, 9.657e-5
-1.262, 8.899e-5
-1.261, 8.413e-5
-1.260, 7.954e-5
-1.259, 7.631e-5
-1.258, 7.301e-5
-1.257, 6.743e-5
-1.256, 6.341e-5
-1.255, 5.935e-5
-1.254, 5.693e-5
-1.253, 5.313e-5
-1.252, 4.875e-5
-1.251, 4.523e-5
-1.250, 4.232e-5
-1.249, 4.046e-5
-1.248, 3.719e-5
-1.247, 3.342e-5
-1.246, 2.977e-5
-1.245, 2.781e-5
-1.244, 2.628e-5
-1.243, 2.340e-5
-1.242, 2.057e-5
-1.241, 1.751e-5
-1.240, 1.605e-5
-1.239, 1.428e-5
-1.238, 1.144e-5
-1.237, 9.158e-6
-1.236, 6.418e-6
-1.235, 5.401e-6
-1.234, 5.209e-6
-1.233, 3.199e-6
-1.232, 3.244e-7
-1.231, -2.552e-6
-1.230, -3.604e-6
-1.229, -4.547e-6
-1.228, -5.413e-6
-1.227, -7.812e-6
-1.226, -9.952e-6
-1.225, -1.076e-5
-1.224, -1.076e-5
-1.223, -1.201e-5
-1.222, -1.447e-5
-1.221, -1.587e-5
-1.220, -1.647e-5
-1.219, -1.664e-5
-1.218, -1.729e-5
-1.217, -1.935e-5
-1.216, -2.097e-5
-1.215, -2.136e-5
-1.214, -2.151e-5
-1.213, -2.215e-5
-1.212, -2.440e-5
-1.211, -2.555e-5
-1.210, -2.557e-5
-1.209, -2.543e-5
-1.208, -2.604e-5
-1.207, -2.810e-5
-1.206, -2.950e-5
-1.205, -2.941e-5
-1.204, -2.897e-5
-1.203, -2.953e-5
-1.202, -3.113e-5
-1.201, -3.246e-5
-1.200, -3.237e-5
-1.199, -3.220e-5
-1.198, -3.286e-5
-1.197, -3.434e-5
-1.196, -3.519e-5
-1.195, -3.532e-5
-1.194, -3.466e-5
-1.193, -3.529e-5
-1.192, -3.664e-5
-1.191, -3.764e-5
-1.190, -3.771e-5
-1.189, -3.680e-5
-1.188, -3.744e-5
-1.187, -3.871e-5
-1.186, -3.966e-5
-1.185, -3.962e-5
-1.184, -3.886e-5
-1.183, -3.954e-5
-1.182, -4.094e-5
-1.181, -4.204e-5
-1.180, -4.193e-5
-1.179, -4.113e-5
-1.178, -4.116e-5
-1.177, -4.204e-5
-1.176, -4.325e-5
-1.175, -4.298e-5
-1.174, -4.264e-5
-1.173, -4.269e-5
-1.172, -4.395e-5
-1.171, -4.481e-5
-1.170, -4.411e-5
-1.169, -4.386e-5
-1.168, -4.395e-5
-1.167, -4.533e-5
-1.166, -4.632e-5
-1.165, -4.569e-5
-1.164, -4.522e-5
-1.163, -4.534e-5
-1.162, -4.632e-5
-1.161, -4.742e-5
-1.160, -4.680e-5
-1.159, -4.630e-5
-1.158, -4.676e-5
-1.157, -4.830e-5
-1.156, -4.900e-5
-1.155, -4.873e-5
-1.154, -4.750e-5
-1.153, -4.769e-5
-1.152, -4.914e-5
-1.151, -4.977e-5
-1.150, -4.993e-5
-1.149, -4.917e-5
-1.148, -4.972e-5
-1.147, -5.093e-5
-1.146, -5.127e-5
-1.145, -5.112e-5
-1.144, -5.020e-5
-1.143, -5.071e-5
-1.142, -5.214e-5
-1.141, -5.275e-5
-1.140, -5.254e-5
-1.139, -5.131e-5
-1.138, -5.164e-5
-1.137, -5.315e-5
-1.136, -5.391e-5
-1.135, -5.387e-5
-1.134, -5.286e-5
-1.133, -5.331e-5
-1.132, -5.412e-5
-1.131, -5.524e-5
-1.130, -5.465e-5
-1.129, -5.407e-5
-1.128, -5.451e-5
-1.127, -5.588e-5
-1.126, -5.708e-5
-1.125, -5.604e-5
-1.124, -5.545e-5
-1.123, -5.587e-5
-1.122, -5.720e-5
-1.121, -5.833e-5
-1.120, -5.750e-5
-1.119, -5.712e-5
-1.118, -5.721e-5
-1.117, -5.830e-5
-1.116, -5.975e-5
-1.115, -5.904e-5
-1.114, -5.889e-5
-1.113, -5.966e-5
-1.112, -6.056e-5
-1.111, -6.112e-5
-1.110, -6.098e-5
-1.109, -6.053e-5
-1.108, -6.029e-5
-1.107, -6.228e-5
-1.106, -6.288e-5
-1.105, -6.289e-5
-1.104, -6.186e-5
-1.103, -6.201e-5
-1.102, -6.382e-5
-1.101, -6.419e-5
-1.100, -6.449e-5
-1.099, -6.382e-5
-1.098, -6.418e-5
-1.097, -6.600e-5
-1.096, -6.645e-5
-1.095, -6.659e-5
-1.094, -6.574e-5
-1.093, -6.613e-5
-1.092, -6.748e-5
-1.091, -6.857e-5
-1.090, -6.837e-5
-1.089, -6.775e-5
-1.088, -6.838e-5
-1.087, -6.961e-5
-1.086, -7.103e-5
-1.085, -7.063e-5
-1.084, -6.998e-5
-1.083, -7.074e-5
-1.082, -7.197e-5
-1.081, -7.338e-5
-1.080, -7.310e-5
-1.079, -7.257e-5
-1.078, -7.347e-5
-1.077, -7.449e-5
-1.076, -7.618e-5
-1.075, -7.590e-5
-1.074, -7.549e-5
-1.073, -7.604e-5
-1.072, -7.756e-5
-1.071, -7.913e-5
-1.070, -7.924e-5
-1.069, -7.888e-5
-1.068, -7.895e-5
-1.067, -8.113e-5
-1.066, -8.204e-5
-1.065, -8.223e-5
-1.064, -8.192e-5
-1.063, -8.217e-5
-1.062, -8.459e-5
-1.061, -8.534e-5
-1.060, -8.573e-5
-1.059, -8.523e-5
-1.058, -8.567e-5
-1.057, -8.792e-5
-1.056, -8.870e-5
-1.055, -8.936e-5
-1.054, -8.895e-5
-1.053, -8.950e-5
-1.052, -9.171e-5
-1.051, -9.303e-5
-1.050, -9.398e-5
-1.049, -9.352e-5
-1.048, -9.447e-5
-1.047, -9.720e-5
-1.046, -9.865e-5
-1.045, -9.887e-5
-1.044, -9.805e-5
-1.043, -9.900e-5
-1.042, -1.010e-4
-1.041, -1.031e-4
-1.040, -1.036e-4
-1.039, -1.034e-4
-1.038, -1.048e-4
-1.037, -1.061e-4
-1.036, -1.083e-4
-1.035, -1.085e-4
-1.034, -1.081e-4
-1.033, -1.100e-4
-1.032, -1.117e-4
-1.031, -1.142e-4
-1.030, -1.143e-4
-1.029, -1.146e-4
-1.028, -1.160e-4
-1.027, -1.180e-4
-1.026, -1.203e-4
-1.025, -1.209e-4
-1.024, -1.217e-4
-1.023, -1.227e-4
-1.022, -1.256e-4
-1.021, -1.277e-4
-1.020, -1.279e-4
-1.019, -1.292e-4
-1.018, -1.303e-4
-1.017, -1.343e-4
-1.016, -1.357e-4
-1.015, -1.364e-4
-1.014, -1.376e-4
-1.013, -1.389e-4
-1.012, -1.423e-4
-1.011, -1.435e-4
-1.010, -1.459e-4
-1.009, -1.467e-4
-1.008, -1.482e-4
-1.007, -1.516e-4
-1.006, -1.536e-4
-1.005, -1.558e-4
-1.004, -1.558e-4
-1.003, -1.586e-4
-1.002, -1.616e-4
-1.001, -1.645e-4
-1.000, -1.220e-4
-1.001, -7.422e-5
-1.002, -5.249e-5
-1.003, -3.885e-5
-1.004, -2.854e-5
-1.005, -1.920e-5
-1.006, -1.079e-5
-1.007, -4.275e-6
-1.008, -1.571e-7
-1.009, 4.160e-6
-1.010, 9.118e-6
-1.011, 1.386e-5
-1.012, 1.768e-5
-1.013, 1.926e-5
-1.014, 2.160e-5
-1.015, 2.481e-5
-1.016, 2.800e-5
-1.017, 3.001e-5
-1.018, 3.095e-5
-1.019, 3.241e-5
-1.020, 3.462e-5
-1.021, 3.753e-5
-1.022, 3.874e-5
-1.023, 3.923e-5
-1.024, 3.984e-5
-1.025, 4.137e-5
-1.026, 4.380e-5
-1.027, 4.515e-5
-1.028, 4.467e-5
-1.029, 4.417e-5
-1.030, 4.559e-5
-1.031, 4.818e-5
-1.032, 4.824e-5
-1.033, 4.783e-5
-1.034, 4.783e-5
-1.035, 4.928e-5
-1.036, 5.089e-5
-1.037, 5.108e-5
-1.038, 5.043e-5
-1.039, 5.010e-5
-1.040, 5.131e-5
-1.041, 5.276e-5
-1.042, 5.326e-5
-1.043, 5.253e-5
-1.044, 5.216e-5
-1.045, 5.319e-5
-1.046, 5.427e-5
-1.047, 5.473e-5
-1.048, 5.356e-5
-1.049, 5.376e-5
-1.050, 5.495e-5
-1.051, 5.480e-5
-1.052, 5.551e-5
-1.053, 5.433e-5
-1.054, 5.368e-5
-1.055, 5.447e-5
-1.056, 5.561e-5
-1.057, 5.597e-5
-1.058, 5.441e-5
-1.059, 5.396e-5
-1.060, 5.446e-5
-1.061, 5.569e-5
-1.062, 5.562e-5
-1.063, 5.459e-5
-1.064, 5.408e-5
-1.065, 5.440e-5
-1.066, 5.584e-5
-1.067, 5.531e-5
-1.068, 5.442e-5
-1.069, 5.379e-5
-1.070, 5.434e-5
-1.071, 5.566e-5
-1.072, 5.511e-5
-1.073, 5.449e-5
-1.074, 5.379e-5
-1.075, 5.462e-5
-1.076, 5.555e-5
-1.077, 5.481e-5
-1.078, 5.403e-5
-1.079, 5.346e-5
-1.080, 5.424e-5
-1.081, 5.515e-5
-1.082, 5.485e-5
-1.083, 5.366e-5
-1.084, 5.314e-5
-1.085, 5.397e-5
-1.086, 5.463e-5
-1.087, 5.475e-5
-1.088, 5.329e-5
-1.089, 5.269e-5
-1.090, 5.368e-5
-1.091, 5.434e-5
-1.092, 5.433e-5
-1.093, 5.304e-5
-1.094, 5.242e-5
-1.095, 5.354e-5
-1.096, 5.407e-5
-1.097, 5.399e-5
-1.098, 5.250e-5
-1.099, 5.228e-5
-1.100, 5.295e-5
-1.101, 5.391e-5
-1.102, 5.395e-5
-1.103, 5.283e-5
-1.104, 5.202e-5
-1.105, 5.267e-5
-1.106, 5.412e-5
-1.107, 5.350e-5
-1.108, 5.231e-5
-1.109, 5.210e-5
-1.110, 5.272e-5
-1.111, 5.420e-5
-1.112, 5.337e-5
-1.113, 5.234e-5
-1.114, 5.209e-5
-1.115, 5.247e-5
-1.116, 5.383e-5
-1.117, 5.336e-5
-1.118, 5.247e-5
-1.119, 5.212e-5
-1.120, 5.270e-5
-1.121, 5.383e-5
-1.122, 5.353e-5
-1.123, 5.257e-5
-1.124, 5.196e-5
-1.125, 5.292e-5
-1.126, 5.425e-5
-1.127, 5.388e-5
-1.128, 5.269e-5
-1.129, 5.225e-5
-1.130, 5.326e-5
-1.131, 5.387e-5
-1.132, 5.414e-5
-1.133, 5.307e-5
-1.134, 5.231e-5
-1.135, 5.377e-5
-1.136, 5.421e-5
-1.137, 5.408e-5
-1.138, 5.292e-5
-1.139, 5.286e-5
-1.140, 5.389e-5
-1.141, 5.437e-5
-1.142, 5.480e-5
-1.143, 5.362e-5
-1.144, 5.311e-5
-1.145, 5.400e-5
-1.146, 5.488e-5
-1.147, 5.466e-5
-1.148, 5.339e-5
-1.149, 5.368e-5
-1.150, 5.450e-5
-1.151, 5.554e-5
-1.152, 5.512e-5
-1.153, 5.387e-5
-1.154, 5.389e-5
-1.155, 5.456e-5
-1.156, 5.612e-5
-1.157, 5.562e-5
-1.158, 5.439e-5
-1.159, 5.458e-5
-1.160, 5.516e-5
-1.161, 5.655e-5
-1.162, 5.592e-5
-1.163, 5.510e-5
-1.164, 5.492e-5
-1.165, 5.576e-5
-1.166, 5.698e-5
-1.167, 5.659e-5
-1.168, 5.568e-5
-1.169, 5.524e-5
-1.170, 5.660e-5
-1.171, 5.767e-5
-1.172, 5.745e-5
-1.173, 5.641e-5
-1.174, 5.602e-5
-1.175, 5.745e-5
-1.176, 5.820e-5
-1.177, 5.817e-5
-1.178, 5.755e-5
-1.179, 5.697e-5
-1.180, 5.838e-5
-1.181, 5.888e-5
-1.182, 5.883e-5
-1.183, 5.806e-5
-1.184, 5.776e-5
-1.185, 5.905e-5
-1.186, 5.990e-5
-1.187, 5.989e-5
-1.188, 5.886e-5
-1.189, 5.889e-5
-1.190, 5.991e-5
-1.191, 6.103e-5
-1.192, 6.085e-5
-1.193, 5.984e-5
-1.194, 6.022e-5
-1.195, 6.095e-5
-1.196, 6.234e-5
-1.197, 6.198e-5
-1.198, 6.095e-5
-1.199, 6.137e-5
-1.200, 6.202e-5
-1.201, 6.345e-5
-1.202, 6.326e-5
-1.203, 6.230e-5
-1.204, 6.272e-5
-1.205, 6.351e-5
-1.206, 6.483e-5
-1.207, 6.472e-5
-1.208, 6.370e-5
-1.209, 6.407e-5
-1.210, 6.511e-5
-1.211, 6.676e-5
-1.212, 6.648e-5
-1.213, 6.583e-5
-1.214, 6.600e-5
-1.215, 6.723e-5
-1.216, 6.848e-5
-1.217, 6.800e-5
-1.218, 6.773e-5
-1.219, 6.764e-5
-1.220, 6.913e-5
-1.221, 7.046e-5
-1.222, 6.998e-5
-1.223, 6.993e-5
-1.224, 6.976e-5
-1.225, 7.112e-5
-1.226, 7.240e-5
-1.227, 7.278e-5
-1.228, 7.258e-5
-1.229, 7.268e-5
-1.230, 7.414e-5
-1.231, 7.509e-5
-1.232, 7.525e-5
-1.233, 7.477e-5
-1.234, 7.522e-5
-1.235, 7.695e-5
-1.236, 7.802e-5
-1.237, 7.822e-5
-1.238, 7.776e-5
-1.239, 7.839e-5
-1.240, 7.984e-5
-1.241, 8.133e-5
-1.242, 8.184e-5
-1.243, 8.108e-5
-1.244, 8.198e-5
-1.245, 8.379e-5
-1.246, 8.530e-5
-1.247, 8.582e-5
-1.248, 8.522e-5
-1.249, 8.621e-5
-1.250, 8.805e-5
-1.251, 8.974e-5
-1.252, 9.057e-5
-1.253, 9.011e-5
-1.254, 9.166e-5
-1.255, 9.325e-5
-1.256, 9.562e-5
-1.257, 9.644e-5
-1.258, 9.655e-5
-1.259, 9.799e-5
-1.260, 1.002e-4
-1.261, 1.021e-4
-1.262, 1.025e-4
-1.263, 1.032e-4
-1.264, 1.047e-4
-1.265, 1.070e-4
-1.266, 1.100e-4
-1.267, 1.105e-4
-1.268, 1.118e-4
-1.269, 1.130e-4
-1.270, 1.160e-4
-1.271, 1.192e-4
-1.272, 1.196e-4
-1.273, 1.215e-4
-1.274, 1.235e-4
-1.275, 1.270e-4
-1.276, 1.303e-4
-1.277, 1.316e-4
-1.278, 1.340e-4
-1.279, 1.365e-4
-1.280, 1.409e-4
-1.281, 1.443e-4
-1.282, 1.470e-4
-1.283, 1.497e-4
-1.284, 1.531e-4
-1.285, 1.586e-4
-1.286, 1.628e-4
-1.287, 1.673e-4
-1.288, 1.705e-4
-1.289, 1.754e-4
-1.290, 1.822e-4
-1.291, 1.874e-4
-1.292, 1.937e-4
-1.293, 1.986e-4
-1.294, 2.065e-4
-1.295, 2.152e-4
-1.296, 2.229e-4
-1.297, 2.324e-4
-1.298, 2.406e-4
-1.299, 2.523e-4
-1.300, 2.632e-4
-1.301, 2.759e-4
-1.302, 2.900e-4
-1.303, 3.012e-4
-1.304, 3.163e-4
-1.305, 3.327e-4
-1.306, 3.521e-4
-1.307, 3.698e-4
-1.308, 3.888e-4
-1.309, 4.118e-4
-1.310, 4.338e-4
-1.311, 4.609e-4
-1.312, 4.845e-4
-1.313, 5.150e-4
-1.314, 5.460e-4
-1.315, 5.763e-4
-1.316, 6.163e-4
-1.317, 6.480e-4
-1.318, 6.875e-4
-1.319, 7.259e-4
-1.320, 7.700e-4
-1.321, 8.175e-4
-1.322, 8.560e-4
-1.323, 9.036e-4
-1.324, 9.476e-4
-1.325, 9.983e-4
-1.326, 1.047e-3
-1.327, 1.093e-3
-1.328, 1.145e-3
-1.329, 1.189e-3
-1.330, 1.243e-3
-1.331, 1.290e-3
-1.332, 1.337e-3
-1.333, 1.386e-3
-1.334, 1.429e-3
-1.335, 1.483e-3
-1.336, 1.526e-3
-1.337, 1.576e-3
-1.338, 1.620e-3
-1.339, 1.665e-3
-1.340, 1.716e-3
-1.341, 1.754e-3
-1.342, 1.805e-3
-1.343, 1.839e-3
-1.344, 1.888e-3
-1.345, 1.935e-3
-1.346, 1.980e-3
-1.347, 2.025e-3
-1.348, 2.039e-3
-1.349, 2.089e-3
-1.350, 2.140e-3
-1.351, 2.183e-3
-1.352, 2.230e-3
-1.353, 2.253e-3
-1.354, 2.294e-3
-1.355, 2.325e-3
-1.356, 2.380e-3
-1.357, 2.423e-3
-1.358, 2.455e-3
-1.359, 2.505e-3
-1.360, 2.540e-3
-1.361, 2.588e-3
-1.362, 2.623e-3
-1.363, 2.667e-3
-1.364, 2.714e-3
-1.365, 2.748e-3
-1.366, 2.806e-3
-1.367, 2.841e-3
-1.368, 2.890e-3
-1.369, 2.926e-3
-1.370, 2.971e-3
-1.371, 3.024e-3
-1.372, 3.052e-3
-1.373, 3.116e-3
-1.374, 3.149e-3
-1.375, 3.206e-3
-1.376, 3.275e-3
-1.377, 3.344e-3
-1.378, 3.400e-3
-1.379, 3.410e-3
-1.380, 3.445e-3
-1.381, 3.480e-3
-1.382, 3.555e-3
-1.383, 3.624e-3
-1.384, 3.664e-3
-1.385, 3.709e-3
-1.386, 3.731e-3
-1.387, 3.784e-3
-1.388, 3.811e-3
-1.389, 3.876e-3
-1.390, 3.940e-3
-1.391, 3.968e-3
-1.392, 4.028e-3
-1.393, 4.055e-3
-1.394, 4.099e-3
-1.395, 4.145e-3
-1.396, 4.221e-3
-1.397, 4.289e-3
-1.398, 4.339e-3
-1.399, 4.407e-3
-1.400, 4.357e-3
-1.399, 4.288e-3
-1.398, 4.215e-3
-1.397, 4.158e-3
-1.396, 4.120e-3
-1.395, 4.043e-3
-1.394, 4.003e-3
-1.393, 3.925e-3
-1.392, 3.865e-3
-1.391, 3.787e-3
-1.390, 3.728e-3
-1.389, 3.678e-3
-1.388, 3.612e-3
-1.387, 3.575e-3
-1.386, 3.517e-3
-1.385, 3.461e-3
-1.384, 3.411e-3
-1.383, 3.349e-3
-1.382, 3.306e-3
-1.381, 3.246e-3
-1.380, 3.199e-3
-1.379, 3.140e-3
-1.378, 3.088e-3
-1.377, 3.043e-3
-1.376, 2.983e-3
-1.375, 2.941e-3
-1.374, 2.878e-3
-1.373, 2.834e-3
-1.372, 2.786e-3
-1.371, 2.746e-3
-1.370, 2.710e-3
-1.369, 2.652e-3
-1.368, 2.608e-3
-1.367, 2.547e-3
-1.366, 2.506e-3
-1.365, 2.462e-3
-1.364, 2.409e-3
-1.363, 2.371e-3
-1.362, 2.320e-3
-1.361, 2.277e-3
-1.360, 2.222e-3
-1.359, 2.192e-3
-1.358, 2.152e-3
-1.357, 2.098e-3
-1.356, 2.059e-3
-1.355, 2.015e-3
-1.354, 1.984e-3
-1.353, 1.939e-3
-1.352, 1.890e-3
-1.351, 1.851e-3
-1.350, 1.809e-3
-1.349, 1.788e-3
-1.348, 1.732e-3
-1.347, 1.702e-3
-1.346, 1.671e-3
-1.345, 1.628e-3
-1.344, 1.586e-3
-1.343, 1.546e-3
-1.342, 1.521e-3
-1.341, 1.485e-3
-1.340, 1.451e-3
-1.339, 1.419e-3
-1.338, 1.383e-3
-1.337, 1.353e-3
-1.336, 1.314e-3
-1.335, 1.285e-3
-1.334, 1.251e-3
-1.333, 1.217e-3
-1.332, 1.188e-3
-1.331, 1.160e-3
-1.330, 1.136e-3
-1.329, 1.100e-3
-1.328, 1.072e-3
-1.327, 1.036e-3
-1.326, 1.008e-3
-1.325, 9.847e-4
-1.324, 9.531e-4
-1.323, 9.286e-4
-1.322, 8.994e-4
-1.321, 8.768e-4
-1.320, 8.531e-4
-1.319, 8.278e-4
-1.318, 8.053e-4
-1.317, 7.779e-4
-1.316, 7.582e-4
-1.315, 7.343e-4
-1.314, 7.132e-4
-1.313, 6.917e-4
-1.312, 6.678e-4
-1.311, 6.505e-4
-1.310, 6.280e-4
-1.309, 6.110e-4
-1.308, 5.874e-4
-1.307, 5.670e-4
-1.306, 5.508e-4
-1.305, 5.308e-4
-1.304, 5.164e-4
-1.303, 4.949e-4
-1.302, 4.788e-4
-1.301, 4.633e-4
-1.300, 4.469e-4
-1.299, 4.321e-4
-1.298, 4.166e-4
-1.297, 4.004e-4
-1.296, 3.874e-4
-1.295, 3.769e-4
-1.294, 3.627e-4
-1.293, 3.452e-4
-1.292, 3.320e-4
-1.291, 3.191e-4
-1.290, 3.101e-4
-1.289, 2.985e-4
-1.288, 2.859e-4
-1.287, 2.747e-4
-1.286, 2.632e-4
-1.285, 2.553e-4
-1.284, 2.445e-4
-1.283, 2.342e-4
-1.282, 2.243e-4
-1.281, 2.156e-4
-1.280, 2.082e-4
-1.279, 1.988e-4
-1.278, 1.915e-4
-1.277, 1.819e-4
-1.276, 1.747e-4
-1.275, 1.684e-4
-1.274, 1.605e-4
-1.273, 1.528e-4
-1.272, 1.446e-4
-1.271, 1.398e-4
-1.270, 1.335e-4
-1.269, 1.278e-4
-1.268, 1.206e-4
-1.267, 1.140e-4
-1.266, 1.094e-4
-1.265, 1.049e-4
-1.264, 1.005e-4
-1.263, 9.400e-5
-1.262, 8.828e-5
-1.261, 8.455e-5
-1.260, 8.027e-5
-1.259, 7.604e-5
-1.258, 7.083e-5
-1.257, 6.656e-5
-1.256, 6.342e-5
-1.255, 5.934e-5
-1.254, 5.540e-5
-1.253, 5.140e-5
-1.252, 4.802e-5
-1.251, 4.501e-5
-1.250, 4.300e-5
-1.249, 3.989e-5
-1.248, 3.622e-5
-1.247, 3.327e-5
-1.246, 3.034e-5
-1.245, 2.867e-5
-1.244, 2.566e-5
-1.243, 2.187e-5
-1.242, 2.009e-5
-1.241, 1.845e-5
-1.240, 1.738e-5
-1.239, 1.470e-5
-1.238, 1.126e-5
-1.237, 9.047e-6
-1.236, 7.817e-6
-1.235, 6.899e-6
-1.234, 4.871e-6
-1.233, 2.069e-6
-1.232, 1.803e-7
-1.231, -7.826e-7
-1.230, -1.636e-6
-1.229, -4.047e-6
-1.228, -6.052e-6
-1.227, -7.829e-6
-1.226, -8.391e-6
-1.225, -8.872e-6
-1.224, -1.056e-5
-1.223, -1.272e-5
-1.222, -1.451e-5
-1.221, -1.472e-5
-1.220, -1.492e-5
-1.219, -1.641e-5
-1.218, -1.849e-5
-1.217, -1.982e-5
-1.216, -1.921e-5
-1.215, -1.920e-5
-1.214, -2.083e-5
-1.213, -2.271e-5
-1.212, -2.402e-5
-1.211, -2.405e-5
-1.210, -2.385e-5
-1.209, -2.499e-5
-1.208, -2.643e-5
-1.207, -2.769e-5
-1.206, -2.772e-5
-1.205, -2.744e-5
-1.204, -2.850e-5
-1.203, -3.019e-5
-1.202, -3.066e-5
-1.201, -3.116e-5
-1.200, -3.110e-5
-1.199, -3.184e-5
-1.198, -3.327e-5
-1.197, -3.387e-5
-1.196, -3.338e-5
-1.195, -3.270e-5
-1.194, -3.320e-5
-1.193, -3.527e-5
-1.192, -3.591e-5
-1.191, -3.554e-5
-1.190, -3.529e-5
-1.189, -3.607e-5
-1.188, -3.764e-5
-1.187, -3.821e-5
-1.186, -3.769e-5
-1.185, -3.734e-5
-1.184, -3.812e-5
-1.183, -3.945e-5
-1.182, -4.002e-5
-1.181, -3.941e-5
-1.180, -3.899e-5
-1.179, -3.992e-5
-1.178, -4.137e-5
-1.177, -4.190e-5
-1.176, -4.120e-5
-1.175, -4.052e-5
-1.174, -4.167e-5
-1.173, -4.273e-5
-1.172, -4.341e-5
-1.171, -4.285e-5
-1.170, -4.221e-5
-1.169, -4.331e-5
-1.168, -4.429e-5
-1.167, -4.578e-5
-1.166, -4.520e-5
-1.165, -4.370e-5
-1.164, -4.459e-5
-1.163, -4.549e-5
-1.162, -4.583e-5
-1.161, -4.484e-5
-1.160, -4.439e-5
-1.159, -4.568e-5
-1.158, -4.709e-5
-1.157, -4.758e-5
-1.156, -4.681e-5
-1.155, -4.611e-5
-1.154, -4.646e-5
-1.153, -4.762e-5
-1.152, -4.803e-5
-1.151, -4.726e-5
-1.150, -4.724e-5
-1.149, -4.798e-5
-1.148, -4.920e-5
-1.147, -4.969e-5
-1.146, -4.841e-5
-1.145, -4.828e-5
-1.144, -4.885e-5
-1.143, -5.037e-5
-1.142, -5.070e-5
-1.141, -4.992e-5
-1.140, -4.974e-5
-1.139, -5.031e-5
-1.138, -5.161e-5
-1.137, -5.195e-5
-1.136, -5.084e-5
-1.135, -5.059e-5
-1.134, -5.164e-5
-1.133, -5.290e-5
-1.132, -5.278e-5
-1.131, -5.214e-5
-1.130, -5.168e-5
-1.129, -5.255e-5
-1.128, -5.369e-5
-1.127, -5.383e-5
-1.126, -5.377e-5
-1.125, -5.302e-5
-1.124, -5.370e-5
-1.123, -5.521e-5
-1.122, -5.500e-5
-1.121, -5.459e-5
-1.120, -5.403e-5
-1.119, -5.523e-5
-1.118, -5.657e-5
-1.117, -5.636e-5
-1.116, -5.594e-5
-1.115, -5.538e-5
-1.114, -5.635e-5
-1.113, -5.760e-5
-1.112, -5.779e-5
-1.111, -5.728e-5
-1.110, -5.705e-5
-1.109, -5.818e-5
-1.108, -5.913e-5
-1.107, -5.971e-5
-1.106, -5.848e-5
-1.105, -5.864e-5
-1.104, -5.951e-5
-1.103, -6.073e-5
-1.102, -6.155e-5
-1.101, -6.019e-5
-1.100, -6.041e-5
-1.099, -6.141e-5
-1.098, -6.249e-5
-1.097, -6.328e-5
-1.096, -6.207e-5
-1.095, -6.258e-5
-1.094, -6.347e-5
-1.093, -6.465e-5
-1.092, -6.479e-5
-1.091, -6.420e-5
-1.090, -6.435e-5
-1.089, -6.538e-5
-1.088, -6.700e-5
-1.087, -6.708e-5
-1.086, -6.677e-5
-1.085, -6.632e-5
-1.084, -6.705e-5
-1.083, -6.924e-5
-1.082, -6.919e-5
-1.081, -6.930e-5
-1.080, -6.887e-5
-1.079, -6.996e-5
-1.078, -7.179e-5
-1.077, -7.152e-5
-1.076, -7.118e-5
-1.075, -7.132e-5
-1.074, -7.336e-5
-1.073, -7.512e-5
-1.072, -7.512e-5
-1.071, -7.477e-5
-1.070, -7.419e-5
-1.069, -7.564e-5
-1.068, -7.708e-5
-1.067, -7.743e-5
-1.066, -7.695e-5
-1.065, -7.686e-5
-1.064, -7.882e-5
-1.063, -7.997e-5
-1.062, -8.099e-5
-1.061, -7.989e-5
-1.060, -7.985e-5
-1.059, -8.166e-5
-1.058, -8.299e-5
-1.057, -8.375e-5
-1.056, -8.270e-5
-1.055, -8.375e-5
-1.054, -8.568e-5
-1.053, -8.666e-5
-1.052, -8.807e-5
-1.051, -8.691e-5
-1.050, -8.713e-5
-1.049, -8.879e-5
-1.048, -9.064e-5
-1.047, -9.132e-5
-1.046, -9.074e-5
-1.045, -9.159e-5
-1.044, -9.296e-5
-1.043, -9.536e-5
-1.042, -9.580e-5
-1.041, -9.551e-5
-1.040, -9.588e-5
-1.039, -9.741e-5
-1.038, -1.000e-4
-1.037, -1.001e-4
-1.036, -1.003e-4
-1.035, -1.012e-4
-1.034, -1.025e-4
-1.033, -1.053e-4
-1.032, -1.050e-4
-1.031, -1.062e-4
-1.030, -1.075e-4
-1.029, -1.093e-4
-1.028, -1.122e-4
-1.027, -1.123e-4
-1.026, -1.122e-4
-1.025, -1.130e-4
-1.024, -1.158e-4
-1.023, -1.184e-4
-1.022, -1.188e-4
-1.021, -1.197e-4
-1.020, -1.203e-4
-1.019, -1.233e-4
-1.018, -1.249e-4
-1.017, -1.266e-4
-1.016, -1.266e-4
-1.015, -1.273e-4
-1.014, -1.307e-4
-1.013, -1.326e-4
-1.012, -1.348e-4
-1.011, -1.347e-4
-1.010, -1.362e-4
-1.009, -1.395e-4
-1.008, -1.416e-4
-1.007, -1.438e-4
-1.006, -1.435e-4
-1.005, -1.457e-4
-1.004, -1.481e-4
-1.003, -1.510e-4
-1.002, -1.532e-4
-1.001, -1.534e-4
