Potential V vs RHE, Current mA cm-2
0.05339999999999995,0.827181697031087
0.05239999999999995,0.7664905822668768
0.051399999999999946,0.7087703612323834
0.050399999999999945,0.6640654841566482
0.049399999999999944,0.6262926924502518
0.04839999999999994,0.5924810923834773
0.04739999999999994,0.5614989149164331
0.04639999999999994,0.5327802755291728
0.04539999999999994,0.5057592897017505
0.04439999999999994,0.48086037082412597
0.04339999999999994,0.45681027872642027
0.04239999999999994,0.43318460001867426
0.04139999999999994,0.4109736326107932
0.040399999999999936,0.3897529631128176
0.039399999999999935,0.36938112039476106
0.038399999999999934,0.3492922199366776
0.03739999999999993,0.3296277328685535
0.03639999999999993,0.3108120725803486
0.03539999999999993,0.2932696524620221
0.03439999999999993,0.27615164573365514
0.03339999999999993,0.25931658126526125
0.03239999999999993,0.24276445905684027
0.03139999999999993,0.22635380797840585
0.030399999999999927,0.21065051254990397
0.029399999999999926,0.19579604390132105
0.028399999999999925,0.18108304638272468
0.027399999999999924,0.16637004886412832
0.026399999999999924,0.15208146473549145
0.025399999999999923,0.13842950069179386
0.024399999999999922,0.12523024426405305
0.02339999999999992,0.11204513494931091
0.02239999999999992,0.09915711500754042
0.02139999999999992,0.08626909506576994
0.020399999999999918,0.07396110675694412
0.019399999999999917,0.06234632698505217
0.018399999999999916,0.05068910587416426
0.017399999999999916,0.039145061667265564
0.016399999999999915,0.027601017460366868
0.015399999999999914,0.01662285777341418
0.014399999999999913,0.006120041083216148
0.013399999999999912,-0.004637423640957591
0.012399999999999911,-0.015278882038542396
0.01139999999999991,-0.02553553896256391
0.01039999999999991,-0.035579989191605675
0.009399999999999908,-0.04490293665771626
0.008399999999999908,-0.05459370906179176
0.007399999999999907,-0.06427033435286862
0.006399999999999906,-0.07370645872296841
0.005399999999999905,-0.08268987547711139
0.004399999999999904,-0.09123473172829621
0.003399999999999903,-0.09992105910946754
0.002399999999999902,-0.10915912389758622
0.0013999999999999013,-0.11774642148776701
0.00039999999999990044,-0.12605077681797475
-0.0006000000000001005,-0.13424195524419333
-0.0016000000000001013,-0.1421784856364362
-0.0026000000000001022,-0.15052528230563988
-0.003600000000000103,-0.1584476655848841
-0.004600000000000104,-0.16608710660415532
-0.005600000000000105,-0.1734436053634535
-0.006600000000000106,-0.1806586329927652
-0.007600000000000107,-0.18815660288204988
-0.008600000000000108,-0.19593751503130757
-0.009600000000000108,-0.20286960040064628
-0.01060000000000011,-0.20980168576998495
-0.01160000000000011,-0.21687524226931013
-0.012600000000000111,-0.2245146832885813
-0.013600000000000112,-0.23187118204787951
-0.014600000000000113,-0.23809591176728565
-0.015600000000000114,-0.24446211261667833
-0.016600000000000115,-0.251111255726044
-0.017600000000000116,-0.25761892770542316
-0.018600000000000116,-0.26426807081478887
-0.019600000000000117,-0.2706342716641816
-0.020600000000000118,-0.2764345879936282
-0.02160000000000012,-0.28251784658304785
-0.02260000000000012,-0.2888840474324405
-0.02360000000000012,-0.2952502482818331
-0.024600000000000122,-0.3013335068712528
-0.025600000000000123,-0.30699235207071296
-0.026600000000000124,-0.31293413953014615
-0.027600000000000124,-0.31873445585959276
-0.028600000000000125,-0.3246762433190259
-0.029600000000000126,-0.33047655964847256
-0.030600000000000127,-0.33571099145797323
-0.03160000000000013,-0.34136983665743337
-0.03260000000000013,-0.3473116241168665
-0.03360000000000013,-0.35297046931632664
-0.03460000000000002,-0.3586293145157868
-0.03560000000000002,-0.36358080406531446
-0.03660000000000002,-0.3688152358748151
-0.03760000000000002,-0.37461555220426174
-0.03860000000000002,-0.38013292627373535
-0.039600000000000024,-0.38536735808323597
-0.040600000000000025,-0.3903188476327636
-0.041600000000000026,-0.3951288660523047
-0.04260000000000003,-0.4005047689917918
-0.04360000000000003,-0.40602214306126555
-0.04460000000000003,-0.4109736326107932
-0.04560000000000003,-0.4159251221603208
-0.04660000000000003,-0.42073514057986194
-0.04760000000000003,-0.42596957238936256
-0.04860000000000003,-0.4313454753288497
-0.04960000000000003,-0.43601402261840433
-0.050600000000000034,-0.44096551216793195
-0.051600000000000035,-0.4457755305874731
-0.052600000000000036,-0.45086849126698714
-0.053600000000000037,-0.4562443942064743
-0.05460000000000004,-0.46091294149602896
-0.05560000000000004,-0.46529854652561053
-0.05660000000000004,-0.4703915072051247
-0.05760000000000004,-0.47520152562466583
-0.05860000000000004,-0.48015301517419345
-0.05960000000000004,-0.4848215624637481
-0.06060000000000004,-0.48949010975330265
-0.061600000000000044,-0.49401718591287075
-0.06260000000000004,-0.49896867546239837
-0.06360000000000005,-0.5043445784018855
-0.06460000000000005,-0.5090131256914401
-0.06560000000000005,-0.5131157884610488
-0.06660000000000005,-0.5177843357506035
-0.06760000000000005,-0.5227358253001311
-0.06860000000000005,-0.5275458437196722
-0.06960000000000005,-0.5323558621392133
-0.07060000000000005,-0.5367414671687949
-0.07160000000000005,-0.5412685433283632
-0.07260000000000005,-0.5460785617479043
-0.07360000000000005,-0.5510300512974318
-0.07460000000000006,-0.5556985985869863
-0.07560000000000006,-0.5602256747465546
-0.07660000000000006,-0.5647527509061226
-0.07760000000000006,-0.5698457115856368
-0.07860000000000006,-0.5746557300051779
-0.07960000000000006,-0.5793242772947326
-0.08060000000000006,-0.5839928245842871
-0.08160000000000006,-0.5883784296138688
-0.08260000000000006,-0.5933299191633964
-0.08360000000000006,-0.5984228798429104
-0.08460000000000006,-0.6029499560024787
-0.08560000000000006,-0.6076185032920333
-0.08660000000000007,-0.6122870505815878
-0.08760000000000007,-0.617380011261102
-0.08860000000000007,-0.6223315008106296
-0.08960000000000007,-0.6268585769701978
-0.09060000000000007,-0.6316685953897389
-0.09160000000000007,-0.63647861380928
-0.09260000000000007,-0.6412886322288212
-0.09360000000000007,-0.6466645351683082
-0.09460000000000007,-0.6511916113278763
-0.09560000000000007,-0.6561431008774039
-0.09660000000000007,-0.6608116481669587
-0.09760000000000008,-0.6660460799764593
-0.09860000000000008,-0.6714219829159465
-0.09960000000000008,-0.6765149435954606
-0.10060000000000008,-0.6813249620150017
-0.10160000000000008,-0.6864179226945158
-0.10260000000000008,-0.691793825634003
-0.10360000000000008,-0.6971697285734901
-0.10460000000000008,-0.7024041603829907
-0.10560000000000008,-0.7070727076725454
-0.10660000000000008,-0.7124486106120325
-0.10760000000000008,-0.7181074558114927
-0.10860000000000009,-0.7237663010109527
-0.10960000000000009,-0.7291422039504398
-0.11060000000000009,-0.7340936934999676
-0.11160000000000009,-0.7393281253094681
-0.11260000000000009,-0.7451284416389149
-0.11360000000000009,-0.7507872868383749
-0.11460000000000009,-0.7567290742978081
-0.11560000000000009,-0.7623879194972683
-0.11660000000000009,-0.7677638224367553
-0.1176000000000001,-0.7737056098961885
-0.1186000000000001,-0.7795059262256352
-0.1196000000000001,-0.7854477136850683
-0.1206000000000001,-0.7908236166245554
-0.1216000000000001,-0.7964824618240156
-0.1226000000000001,-0.8029901338033948
-0.1236000000000001,-0.808931921262828
-0.1246000000000001,-0.8147322375922746
-0.1256000000000001,-0.8208154961816942
-0.1266000000000001,-0.826615812511141
-0.1276000000000001,-0.8329820133605336
-0.1286000000000001,-0.8396311564698993
-0.1296000000000001,-0.8454314727993459
-0.1306000000000001,-0.8516562025187521
-0.1316000000000001,-0.8577394611081718
-0.1326000000000001,-0.8643886042175374
-0.1336000000000001,-0.871320689586876
-0.1346000000000001,-0.8776868904362687
-0.1356000000000001,-0.8839116201556749
-0.1366000000000001,-0.8902778210050675
-0.1376000000000001,-0.8970684352444198
-0.1386000000000001,-0.9042834628737314
-0.1396000000000001,-0.9110740771130835
-0.1406000000000001,-0.9177232202224491
-0.14160000000000011,-0.9245138344618015
-0.14260000000000012,-0.9314459198311402
-0.14360000000000012,-0.9385194763304654
-0.14460000000000012,-0.9453100905698175
-0.14560000000000012,-0.9521007048091696
-0.14660000000000012,-0.9588913190485219
-0.14760000000000012,-0.9661063466778336
-0.14860000000000012,-0.9733213743071454
-0.14960000000000012,-0.9806778730664433
-0.15060000000000012,-0.9874684873057956
-0.15160000000000012,-0.9945420438051207
-0.15260000000000012,-1.002181484824392
-0.15360000000000013,-1.00953798358369
-0.15460000000000013,-1.0168944823429882
-0.15560000000000013,-1.0241095099723
-0.15660000000000013,-1.0310415953416388
-0.15760000000000013,-1.03868103636091
-0.15860000000000013,-1.0464619485101676
-0.15960000000000002,-1.0539599183994524
-0.16060000000000002,-1.061174946028764
-0.16160000000000002,-1.0683899736580758
-0.16260000000000002,-1.07631235693732
-0.16360000000000002,-1.0840932690865777
-0.16460000000000002,-1.0914497678458759
-0.16560000000000002,-1.0995136222551065
-0.16660000000000003,-1.108426303444256
-0.16760000000000003,-1.1157828022035543
-0.16860000000000003,-1.1234222432228256
-0.16960000000000003,-1.1306372708521373
-0.17060000000000003,-1.1379937696114355
-0.17160000000000003,-1.1454917395007203
-0.17260000000000003,-1.1531311805199913
-0.17360000000000003,-1.1610535637992356
-0.17460000000000003,-1.1685515336885204
-0.17560000000000003,-1.1759080324478186
-0.17660000000000003,-1.1834060023371034
-0.17760000000000004,-1.1910454433563744
-0.17860000000000004,-1.199109297765605
-0.17960000000000004,-1.20660726765489
-0.18060000000000004,-1.213963766414188
-0.18160000000000004,-1.2214617363034728
-0.18260000000000004,-1.2291011773227438
-0.18360000000000004,-1.2370235606019881
-0.18460000000000004,-1.244804472751246
-0.18560000000000004,-1.2520195003805574
-0.18660000000000004,-1.2593759991398557
-0.18760000000000004,-1.2668739690291404
-0.18860000000000005,-1.2745134100484117
-0.18960000000000005,-1.282152851067683
-0.19060000000000005,-1.2890849364370212
-0.19160000000000005,-1.2965829063263061
-0.19260000000000005,-1.3039394050856041
-0.19360000000000005,-1.3112959038449024
-0.19460000000000005,-1.318793873734187
-0.19560000000000005,-1.3257259591035258
-0.19660000000000005,-1.3329409867328375
-0.19760000000000005,-1.3404389566221222
-0.19860000000000005,-1.3477954553814204
-0.19960000000000006,-1.3550104830107321
-0.20060000000000006,-1.3618010972500845
-0.20160000000000006,-1.3683087692294635
-0.20260000000000006,-1.3755237968587752
-0.20360000000000006,-1.382738824488087
-0.20460000000000006,-1.389812380987412
-0.20560000000000006,-1.3966029952267642
-0.20660000000000006,-1.4026862538161837
-0.20760000000000006,-1.409759810315509
-0.20860000000000006,-1.4161260111649017
-0.20960000000000006,-1.423199567664227
-0.21060000000000006,-1.4302731241635522
-0.21160000000000007,-1.4359319693630124
-0.21260000000000007,-1.4430055258623373
-0.21360000000000007,-1.4486643710617975
-0.21460000000000007,-1.4557379275611226
-0.21560000000000007,-1.461396772760583
-0.21660000000000007,-1.4684703292599082
-0.21760000000000007,-1.4741291744593683
-0.21860000000000007,-1.4812027309586933
-0.21960000000000007,-1.4868615761581534
-0.22060000000000007,-1.4925204213576138
-0.22160000000000007,-1.498179266557074
-0.22260000000000008,-1.5038381117565338
-0.22360000000000008,-1.5094969569559942
-0.22460000000000008,-1.5151558021554543
-0.22560000000000008,-1.5208146473549145
-0.22660000000000008,-1.5264734925543744
-0.22760000000000008,-1.5321323377538347
-0.22860000000000008,-1.5377911829532949
-0.22960000000000008,-1.543450028152755
-0.23060000000000008,-1.5491088733522151
-0.23160000000000008,-1.5533530072518102
-0.23260000000000008,-1.5590118524512704
-0.23360000000000009,-1.5646706976507305
-0.2346000000000001,-1.5703295428501907
-0.2356000000000001,-1.5745736767497858
-0.2366000000000001,-1.5788178106493809
-0.2376000000000001,-1.584476655848841
-0.2386000000000001,-1.5901355010483011
-0.2396000000000001,-1.5943796349478963
-0.2406000000000001,-1.5986237688474914
-0.2416000000000001,-1.6028679027470865
-0.2426000000000001,-1.6085267479465466
-0.2436000000000001,-1.612770881846142
-0.2446000000000001,-1.6170150157457368
-0.2456000000000001,-1.6212591496453321
-0.2466000000000001,-1.6255032835449272
-0.2476000000000001,-1.6297474174445223
-0.2486000000000001,-1.6354062626439825
-0.2496000000000001,-1.6382356852437125
-0.2506000000000001,-1.6424798191433077
-0.2516000000000001,-1.6467239530429028
-0.2526000000000001,-1.6509680869424979
-0.2536000000000001,-1.655212220842093
-0.2546000000000001,-1.6594563547416883
-0.2556000000000001,-1.6637004886412832
-0.2566000000000001,-1.6665299112410132
-0.2576000000000001,-1.6707740451406083
-0.2586000000000001,-1.6750181790402037
-0.2596000000000001,-1.6792623129397986
-0.2606000000000001,-1.6820917355395286
-0.2616000000000001,-1.6863358694391237
-0.2626000000000001,-1.690580003338719
-0.2636000000000001,-1.693409425938449
-0.2646000000000001,-1.6976535598380442
-0.2656000000000001,-1.700482982437774
-0.2666000000000001,-1.7047271163373692
-0.2676000000000001,-1.7075565389370995
-0.2686000000000001,-1.7118006728366943
-0.2696000000000001,-1.7160448067362895
-0.2706000000000001,-1.7188742293360195
-0.2716000000000001,-1.7217036519357498
-0.2726000000000001,-1.7259477858353447
-0.2736000000000001,-1.7287772084350748
-0.2746000000000001,-1.7330213423346699
-0.2756000000000001,-1.7358507649344
-0.2766000000000001,-1.7386801875341302
-0.2776000000000001,-1.7429243214337253
-0.2786000000000001,-1.7457537440334552
-0.2796000000000001,-1.7499978779330503
-0.2806000000000001,-1.7528273005327806
-0.28160000000000013,-1.7556567231325106
-0.28260000000000013,-1.7599008570321055
-0.28360000000000013,-1.7627302796318356
-0.2846,-1.766974413531431
-0.2856,-1.769803836131161
-0.2866,-1.772633258730891
-0.2876,-1.775462681330621
-0.2886,-1.779706815230216
-0.2896,-1.7825362378299463
-0.2906,-1.7867803717295414
-0.2916,-1.7896097943292715
-0.2926,-1.7924392169290013
-0.2936,-1.7966833508285964
-0.29460000000000003,-1.8009274847281918
-0.29560000000000003,-1.8037569073279218
-0.29660000000000003,-1.8065863299276517
-0.29760000000000003,-1.8094157525273817
-0.29860000000000003,-1.813659886426977
-0.29960000000000003,-1.8179040203265722
-0.30060000000000003,-1.8207334429263025
-0.30160000000000003,-1.823562865526032
-0.30260000000000004,-1.8278069994256272
-0.30360000000000004,-1.8306364220253575
-0.30460000000000004,-1.8348805559249526
-0.30560000000000004,-1.8377099785246829
-0.30660000000000004,-1.8419541124242775
-0.30760000000000004,-1.8447835350240078
-0.30860000000000004,-1.849027668923603
-0.30960000000000004,-1.8532718028231983
-0.31060000000000004,-1.8561012254229279
-0.31160000000000004,-1.8603453593225232
-0.31260000000000004,-1.8645894932221183
-0.31360000000000005,-1.8674189158218486
-0.31460000000000005,-1.8716630497214433
-0.31560000000000005,-1.8759071836210386
-0.31660000000000005,-1.8787366062207687
-0.31760000000000005,-1.882980740120364
-0.31860000000000005,-1.8872248740199586
-0.31960000000000005,-1.891469007919554
-0.32060000000000005,-1.895713141819149
-0.32160000000000005,-1.8999572757187444
-0.32260000000000005,-1.9042014096183393
-0.32360000000000005,-1.9084455435179344
-0.32460000000000006,-1.9126896774175295
-0.32560000000000006,-1.9169338113171246
-0.32660000000000006,-1.9197632339168547
-0.32760000000000006,-1.925422079116315
-0.32860000000000006,-1.9296662130159101
-0.32960000000000006,-1.933910346915505
-0.33060000000000006,-1.9381544808151003
-0.33160000000000006,-1.9423986147146954
-0.33260000000000006,-1.9466427486142908
-0.33360000000000006,-1.9523015938137507
-0.33460000000000006,-1.9565457277133458
-0.33560000000000006,-1.9607898616129409
-0.33660000000000007,-1.9650339955125358
-0.33760000000000007,-1.9692781294121309
-0.33860000000000007,-1.9749369746115912
-0.33960000000000007,-1.980595819811051
-0.34060000000000007,-1.9848399537106465
-0.34160000000000007,-1.9890840876102414
-0.34260000000000007,-1.9947429328097017
-0.34360000000000007,-2.0004017780091616
-0.3446000000000001,-2.0060606232086218
-0.3456000000000001,-2.0103047571082175
-0.3466000000000001,-2.0159636023076772
-0.34759999999999996,-2.0216224475071374
-0.3486000000000001,-2.0258665814067327
-0.34959999999999997,-2.0329401379060577
-0.3506000000000001,-2.0371842718056525
-0.35159999999999997,-2.042843117005113
-0.3526000000000001,-2.048501962204573
-0.35359999999999997,-2.054160807404033
-0.3546000000000001,-2.0612343639033583
-0.35559999999999997,-2.0668932091028185
-0.3566000000000001,-2.072552054302279
-0.3576,-2.0782108995017388
-0.3586000000000001,-2.085284456001064
-0.3596,-2.092358012500389
-0.3606000000000001,-2.0980168576998492
-0.3616,-2.10367570289931
-0.3626000000000001,-2.110749259398635
-0.3636,-2.11782281589796
-0.3646000000000001,-2.124896372397285
-0.3656,-2.13196992889661
-0.3666000000000001,-2.13762877409607
-0.3676,-2.1447023305953956
-0.3686000000000001,-2.1531905983945863
-0.3696,-2.1602641548939108
-0.3706000000000001,-2.1673377113932366
-0.3716,-2.174411267892561
-0.3726000000000001,-2.1828995356917518
-0.3736,-2.1899730921910767
-0.3746000000000001,-2.1984613599902674
-0.3756,-2.205534916489592
-0.3766000000000001,-2.2126084729889177
-0.3776,-2.2210967407881075
-0.3786000000000001,-2.229585008587298
-0.3796,-2.238073276386488
-0.3806000000000001,-2.2465615441856785
-0.3816,-2.2550498119848683
-0.3826000000000001,-2.263538079784059
-0.3836,-2.272026347583249
-0.3846000000000001,-2.2819293266823037
-0.3856,-2.2904175944814944
-0.3866000000000001,-2.298905862280684
-0.3876,-2.307394130079875
-0.3886000000000001,-2.3172971091789303
-0.3896,-2.3272000882779853
-0.3906000000000001,-2.3356883560771755
-0.3916,-2.3455913351762305
-0.3926000000000001,-2.355494314275286
-0.3936,-2.3653972933743415
-0.3946000000000001,-2.3753002724733965
-0.3956,-2.385203251572452
-0.3966000000000001,-2.3951062306715074
-0.3976,-2.4050092097705624
-0.3986000000000001,-2.4163269001694827
-0.3996,-2.427644590568403
-0.4006000000000001,-2.437547569667458
-0.4016,-2.4474505487665135
-0.4026000000000001,-2.4587682391654337
-0.4036,-2.4700859295643536
-0.4046000000000001,-2.4814036199632743
-0.4056,-2.4927213103621946
-0.40660000000000013,-2.504039000761115
-0.4076,-2.515356691160035
-0.40860000000000013,-2.5266743815589554
-0.4096,-2.539406783257741
-0.41060000000000013,-2.550724473656661
-0.4116,-2.5620421640555815
-0.41260000000000013,-2.5747745657543666
-0.4136,-2.587506967453152
-0.41460000000000014,-2.600239369151937
-0.4156,-2.6115570595508575
-0.41660000000000014,-2.624289461249643
-0.4176,-2.637021862948428
-0.41860000000000014,-2.6511689759470785
-0.41960000000000003,-2.663901377645864
-0.42060000000000014,-2.6766337793446495
-0.42160000000000003,-2.6907808923433
-0.42260000000000014,-2.7049280053419507
-0.42360000000000003,-2.719075118340601
-0.42460000000000014,-2.7332222313392514
-0.42560000000000003,-2.745954633038036
-0.42660000000000015,-2.7601017460366863
-0.42760000000000004,-2.7742488590353367
-0.42860000000000015,-2.7898106833338523
-0.42960000000000004,-2.8039577963325026
-0.43060000000000015,-2.819519620631018
-0.43160000000000004,-2.833666733629668
-0.43260000000000015,-2.8492285579281837
-0.43360000000000004,-2.864790382226699
-0.43460000000000015,-2.8803522065252145
-0.43560000000000004,-2.8959140308237297
-0.43660000000000015,-2.9114758551222453
-0.43760000000000004,-2.9284523907206257
-0.43860000000000016,-2.945428926319006
-0.43960000000000005,-2.9624054619173865
-0.44060000000000016,-2.9793819975157674
-0.44160000000000005,-2.996358533114148
-0.44260000000000016,-3.013335068712528
-0.44360000000000005,-3.031726315610774
-0.44460000000000016,-3.0487028512091543
-0.44560000000000005,-3.0670940981073995
-0.44660000000000016,-3.0854853450056448
-0.44760000000000005,-3.1038765919038904
-0.44860000000000017,-3.123682550102001
