Sept. 8, 2024   06:38:31
Cyclic Voltammetry
File: c:/users/guazh/data/20240903_batch_252_500/2024-09-03-exp295\exp295-2024-09-08t06_12_36-h2koh\exp295_cv_sr_900mvs_efin_-1900mv.bin
Data Source:  Experiment
Instrument Model:  CHI760E
Header: CV ran at 900 mVs
Note: 

Init E (V) = -1
High E (V) = -1
Low E (V) = -1.9
Final E (V) = -1
Init P/N = N
Scan Rate (V/s) = 0.9
Segment = 3
Sample Interval (V) = 0.001
Quiet Time (sec) = 2
Sensitivity (A/V) = 0.01
Comp R (ohm) = 2.7

Results:

Channel 1:
Segment 1:

Segment 2:

Segment 3:

Potential/V, Current/A

-1.000, 3.239e-6
-1.001, 3.239e-6
-1.002, 6.322e-6
-1.003, 3.239e-6
-1.004, 6.322e-6
-1.005, 6.322e-6
-1.006, 6.322e-6
-1.007, 6.322e-6
-1.008, 6.322e-6
-1.009, 9.405e-6
-1.010, 6.322e-6
-1.011, 9.405e-6
-1.012, 6.322e-6
-1.013, 6.322e-6
-1.014, 9.405e-6
-1.015, 9.405e-6
-1.016, 9.405e-6
-1.017, 9.405e-6
-1.018, 9.405e-6
-1.019, 6.322e-6
-1.020, 9.405e-6
-1.021, 9.405e-6
-1.022, 9.405e-6
-1.023, 9.405e-6
-1.024, 9.405e-6
-1.025, 9.405e-6
-1.026, 9.405e-6
-1.027, 9.405e-6
-1.028, 9.405e-6
-1.029, 1.249e-5
-1.030, 9.405e-6
-1.031, 1.249e-5
-1.032, 1.249e-5
-1.033, 9.405e-6
-1.034, 1.249e-5
-1.035, 1.249e-5
-1.036, 9.405e-6
-1.037, 1.249e-5
-1.038, 1.249e-5
-1.039, 1.249e-5
-1.040, 1.249e-5
-1.041, 1.249e-5
-1.042, 1.249e-5
-1.043, 1.249e-5
-1.044, 1.249e-5
-1.045, 1.249e-5
-1.046, 1.249e-5
-1.047, 1.249e-5
-1.048, 1.249e-5
-1.049, 1.249e-5
-1.050, 1.249e-5
-1.051, 1.249e-5
-1.052, 1.249e-5
-1.053, 1.249e-5
-1.054, 1.557e-5
-1.055, 1.557e-5
-1.056, 1.557e-5
-1.057, 1.557e-5
-1.058, 1.557e-5
-1.059, 1.557e-5
-1.060, 1.557e-5
-1.061, 1.557e-5
-1.062, 1.557e-5
-1.063, 1.557e-5
-1.064, 1.249e-5
-1.065, 1.557e-5
-1.066, 1.249e-5
-1.067, 1.249e-5
-1.068, 1.557e-5
-1.069, 1.557e-5
-1.070, 1.557e-5
-1.071, 1.557e-5
-1.072, 1.557e-5
-1.073, 1.557e-5
-1.074, 1.557e-5
-1.075, 1.557e-5
-1.076, 1.557e-5
-1.077, 1.557e-5
-1.078, 1.557e-5
-1.079, 1.557e-5
-1.080, 1.557e-5
-1.081, 1.557e-5
-1.082, 1.557e-5
-1.083, 1.557e-5
-1.084, 1.557e-5
-1.085, 1.557e-5
-1.086, 1.557e-5
-1.087, 1.557e-5
-1.088, 1.557e-5
-1.089, 1.557e-5
-1.090, 1.557e-5
-1.091, 1.557e-5
-1.092, 1.557e-5
-1.093, 1.557e-5
-1.094, 1.557e-5
-1.095, 1.557e-5
-1.096, 1.557e-5
-1.097, 1.557e-5
-1.098, 1.865e-5
-1.099, 1.557e-5
-1.100, 1.557e-5
-1.101, 1.557e-5
-1.102, 1.865e-5
-1.103, 1.865e-5
-1.104, 1.557e-5
-1.105, 1.865e-5
-1.106, 1.865e-5
-1.107, 1.557e-5
-1.108, 1.865e-5
-1.109, 1.865e-5
-1.110, 1.557e-5
-1.111, 1.865e-5
-1.112, 1.865e-5
-1.113, 1.865e-5
-1.114, 1.865e-5
-1.115, 1.865e-5
-1.116, 1.865e-5
-1.117, 1.865e-5
-1.118, 1.865e-5
-1.119, 1.557e-5
-1.120, 1.865e-5
-1.121, 1.865e-5
-1.122, 1.865e-5
-1.123, 1.865e-5
-1.124, 1.865e-5
-1.125, 1.865e-5
-1.126, 1.865e-5
-1.127, 1.865e-5
-1.128, 1.865e-5
-1.129, 1.865e-5
-1.130, 1.865e-5
-1.131, 1.865e-5
-1.132, 1.865e-5
-1.133, 1.865e-5
-1.134, 1.865e-5
-1.135, 1.865e-5
-1.136, 1.865e-5
-1.137, 1.865e-5
-1.138, 1.865e-5
-1.139, 1.865e-5
-1.140, 1.865e-5
-1.141, 1.865e-5
-1.142, 1.865e-5
-1.143, 1.865e-5
-1.144, 1.865e-5
-1.145, 1.865e-5
-1.146, 1.865e-5
-1.147, 1.865e-5
-1.148, 1.865e-5
-1.149, 1.865e-5
-1.150, 1.865e-5
-1.151, 1.865e-5
-1.152, 2.174e-5
-1.153, 1.865e-5
-1.154, 1.865e-5
-1.155, 1.865e-5
-1.156, 1.865e-5
-1.157, 1.865e-5
-1.158, 1.865e-5
-1.159, 2.174e-5
-1.160, 1.865e-5
-1.161, 2.174e-5
-1.162, 1.865e-5
-1.163, 2.174e-5
-1.164, 1.865e-5
-1.165, 1.865e-5
-1.166, 2.174e-5
-1.167, 2.174e-5
-1.168, 1.865e-5
-1.169, 2.174e-5
-1.170, 2.174e-5
-1.171, 1.865e-5
-1.172, 2.174e-5
-1.173, 2.174e-5
-1.174, 2.174e-5
-1.175, 2.174e-5
-1.176, 1.865e-5
-1.177, 2.174e-5
-1.178, 2.174e-5
-1.179, 2.174e-5
-1.180, 2.174e-5
-1.181, 2.174e-5
-1.182, 2.174e-5
-1.183, 2.174e-5
-1.184, 2.174e-5
-1.185, 2.174e-5
-1.186, 2.174e-5
-1.187, 2.174e-5
-1.188, 2.174e-5
-1.189, 2.174e-5
-1.190, 2.174e-5
-1.191, 2.174e-5
-1.192, 2.174e-5
-1.193, 2.174e-5
-1.194, 2.174e-5
-1.195, 2.174e-5
-1.196, 2.174e-5
-1.197, 2.174e-5
-1.198, 2.174e-5
-1.199, 2.174e-5
-1.200, 2.174e-5
-1.201, 2.174e-5
-1.202, 2.174e-5
-1.203, 2.174e-5
-1.204, 2.174e-5
-1.205, 2.174e-5
-1.206, 2.174e-5
-1.207, 2.174e-5
-1.208, 2.174e-5
-1.209, 2.482e-5
-1.210, 2.174e-5
-1.211, 2.482e-5
-1.212, 2.482e-5
-1.213, 2.174e-5
-1.214, 2.174e-5
-1.215, 2.174e-5
-1.216, 2.174e-5
-1.217, 2.174e-5
-1.218, 2.482e-5
-1.219, 2.174e-5
-1.220, 2.482e-5
-1.221, 2.482e-5
-1.222, 2.174e-5
-1.223, 2.482e-5
-1.224, 2.174e-5
-1.225, 2.482e-5
-1.226, 2.482e-5
-1.227, 2.482e-5
-1.228, 2.174e-5
-1.229, 2.482e-5
-1.230, 2.482e-5
-1.231, 2.482e-5
-1.232, 2.482e-5
-1.233, 2.482e-5
-1.234, 2.482e-5
-1.235, 2.482e-5
-1.236, 2.482e-5
-1.237, 2.482e-5
-1.238, 2.482e-5
-1.239, 2.482e-5
-1.240, 2.482e-5
-1.241, 2.482e-5
-1.242, 2.482e-5
-1.243, 2.482e-5
-1.244, 2.482e-5
-1.245, 2.482e-5
-1.246, 2.482e-5
-1.247, 2.482e-5
-1.248, 2.790e-5
-1.249, 2.790e-5
-1.250, 2.790e-5
-1.251, 2.482e-5
-1.252, 2.790e-5
-1.253, 2.482e-5
-1.254, 2.790e-5
-1.255, 2.790e-5
-1.256, 2.790e-5
-1.257, 2.790e-5
-1.258, 2.482e-5
-1.259, 2.482e-5
-1.260, 2.482e-5
-1.261, 2.790e-5
-1.262, 2.790e-5
-1.263, 2.790e-5
-1.264, 2.790e-5
-1.265, 2.482e-5
-1.266, 2.790e-5
-1.267, 2.790e-5
-1.268, 2.790e-5
-1.269, 2.790e-5
-1.270, 2.790e-5
-1.271, 2.790e-5
-1.272, 2.790e-5
-1.273, 2.790e-5
-1.274, 2.790e-5
-1.275, 2.790e-5
-1.276, 2.482e-5
-1.277, 2.790e-5
-1.278, 2.790e-5
-1.279, 2.790e-5
-1.280, 2.790e-5
-1.281, 2.790e-5
-1.282, 2.790e-5
-1.283, 2.790e-5
-1.284, 2.790e-5
-1.285, 2.790e-5
-1.286, 2.790e-5
-1.287, 2.790e-5
-1.288, 2.790e-5
-1.289, 2.790e-5
-1.290, 2.790e-5
-1.291, 2.790e-5
-1.292, 2.790e-5
-1.293, 3.099e-5
-1.294, 2.790e-5
-1.295, 3.099e-5
-1.296, 2.790e-5
-1.297, 2.790e-5
-1.298, 3.099e-5
-1.299, 2.790e-5
-1.300, 2.790e-5
-1.301, 3.099e-5
-1.302, 3.099e-5
-1.303, 3.099e-5
-1.304, 2.790e-5
-1.305, 3.099e-5
-1.306, 3.099e-5
-1.307, 3.099e-5
-1.308, 3.099e-5
-1.309, 3.099e-5
-1.310, 3.099e-5
-1.311, 3.099e-5
-1.312, 3.099e-5
-1.313, 3.099e-5
-1.314, 3.099e-5
-1.315, 3.099e-5
-1.316, 3.099e-5
-1.317, 3.099e-5
-1.318, 3.099e-5
-1.319, 2.790e-5
-1.320, 3.099e-5
-1.321, 3.099e-5
-1.322, 3.099e-5
-1.323, 3.407e-5
-1.324, 3.099e-5
-1.325, 3.099e-5
-1.326, 3.407e-5
-1.327, 3.099e-5
-1.328, 3.099e-5
-1.329, 3.099e-5
-1.330, 3.407e-5
-1.331, 3.407e-5
-1.332, 3.407e-5
-1.333, 3.099e-5
-1.334, 3.099e-5
-1.335, 3.099e-5
-1.336, 3.407e-5
-1.337, 3.099e-5
-1.338, 3.407e-5
-1.339, 3.407e-5
-1.340, 3.407e-5
-1.341, 3.407e-5
-1.342, 3.407e-5
-1.343, 3.407e-5
-1.344, 3.407e-5
-1.345, 3.407e-5
-1.346, 3.407e-5
-1.347, 3.407e-5
-1.348, 3.407e-5
-1.349, 3.407e-5
-1.350, 3.407e-5
-1.351, 3.407e-5
-1.352, 3.407e-5
-1.353, 3.715e-5
-1.354, 3.715e-5
-1.355, 3.407e-5
-1.356, 3.407e-5
-1.357, 3.715e-5
-1.358, 3.407e-5
-1.359, 3.715e-5
-1.360, 3.407e-5
-1.361, 3.715e-5
-1.362, 3.407e-5
-1.363, 3.715e-5
-1.364, 3.715e-5
-1.365, 3.407e-5
-1.366, 3.715e-5
-1.367, 3.715e-5
-1.368, 3.715e-5
-1.369, 3.715e-5
-1.370, 3.715e-5
-1.371, 3.715e-5
-1.372, 3.715e-5
-1.373, 3.715e-5
-1.374, 3.715e-5
-1.375, 3.715e-5
-1.376, 3.715e-5
-1.377, 4.024e-5
-1.378, 4.024e-5
-1.379, 3.715e-5
-1.380, 3.715e-5
-1.381, 3.715e-5
-1.382, 3.715e-5
-1.383, 3.715e-5
-1.384, 4.024e-5
-1.385, 3.715e-5
-1.386, 4.024e-5
-1.387, 4.024e-5
-1.388, 3.715e-5
-1.389, 4.024e-5
-1.390, 4.024e-5
-1.391, 4.024e-5
-1.392, 4.024e-5
-1.393, 4.024e-5
-1.394, 4.024e-5
-1.395, 4.024e-5
-1.396, 4.024e-5
-1.397, 4.024e-5
-1.398, 4.024e-5
-1.399, 4.024e-5
-1.400, 4.332e-5
-1.401, 4.024e-5
-1.402, 4.024e-5
-1.403, 4.332e-5
-1.404, 4.024e-5
-1.405, 4.024e-5
-1.406, 4.332e-5
-1.407, 4.332e-5
-1.408, 4.024e-5
-1.409, 4.332e-5
-1.410, 4.024e-5
-1.411, 4.332e-5
-1.412, 4.332e-5
-1.413, 4.332e-5
-1.414, 4.332e-5
-1.415, 4.332e-5
-1.416, 4.332e-5
-1.417, 4.332e-5
-1.418, 4.332e-5
-1.419, 4.332e-5
-1.420, 4.640e-5
-1.421, 4.332e-5
-1.422, 4.332e-5
-1.423, 4.640e-5
-1.424, 4.332e-5
-1.425, 4.640e-5
-1.426, 4.640e-5
-1.427, 4.640e-5
-1.428, 4.640e-5
-1.429, 4.640e-5
-1.430, 4.640e-5
-1.431, 4.640e-5
-1.432, 4.640e-5
-1.433, 4.640e-5
-1.434, 4.640e-5
-1.435, 4.640e-5
-1.436, 4.949e-5
-1.437, 4.949e-5
-1.438, 4.949e-5
-1.439, 4.640e-5
-1.440, 4.949e-5
-1.441, 4.949e-5
-1.442, 4.949e-5
-1.443, 4.949e-5
-1.444, 4.949e-5
-1.445, 4.949e-5
-1.446, 4.949e-5
-1.447, 4.949e-5
-1.448, 4.949e-5
-1.449, 4.949e-5
-1.450, 5.257e-5
-1.451, 5.257e-5
-1.452, 5.257e-5
-1.453, 5.257e-5
-1.454, 5.257e-5
-1.455, 5.257e-5
-1.456, 5.257e-5
-1.457, 5.257e-5
-1.458, 5.257e-5
-1.459, 5.257e-5
-1.460, 5.565e-5
-1.461, 5.257e-5
-1.462, 5.565e-5
-1.463, 5.565e-5
-1.464, 5.565e-5
-1.465, 5.565e-5
-1.466, 5.873e-5
-1.467, 5.565e-5
-1.468, 5.565e-5
-1.469, 5.565e-5
-1.470, 5.565e-5
-1.471, 5.873e-5
-1.472, 5.565e-5
-1.473, 5.873e-5
-1.474, 5.873e-5
-1.475, 5.873e-5
-1.476, 5.873e-5
-1.477, 5.873e-5
-1.478, 5.873e-5
-1.479, 5.873e-5
-1.480, 6.182e-5
-1.481, 5.873e-5
-1.482, 6.182e-5
-1.483, 6.182e-5
-1.484, 6.182e-5
-1.485, 6.182e-5
-1.486, 6.182e-5
-1.487, 6.182e-5
-1.488, 6.182e-5
-1.489, 6.182e-5
-1.490, 6.182e-5
-1.491, 6.490e-5
-1.492, 6.490e-5
-1.493, 6.490e-5
-1.494, 6.490e-5
-1.495, 6.490e-5
-1.496, 6.490e-5
-1.497, 6.490e-5
-1.498, 6.490e-5
-1.499, 6.490e-5
-1.500, 6.798e-5
-1.501, 6.490e-5
-1.502, 6.798e-5
-1.503, 6.798e-5
-1.504, 6.798e-5
-1.505, 6.798e-5
-1.506, 6.798e-5
-1.507, 6.798e-5
-1.508, 6.798e-5
-1.509, 7.107e-5
-1.510, 6.798e-5
-1.511, 7.107e-5
-1.512, 7.107e-5
-1.513, 7.107e-5
-1.514, 7.107e-5
-1.515, 7.107e-5
-1.516, 7.415e-5
-1.517, 7.415e-5
-1.518, 7.415e-5
-1.519, 7.415e-5
-1.520, 7.415e-5
-1.521, 7.415e-5
-1.522, 7.415e-5
-1.523, 7.723e-5
-1.524, 7.415e-5
-1.525, 7.723e-5
-1.526, 7.723e-5
-1.527, 7.723e-5
-1.528, 7.723e-5
-1.529, 7.723e-5
-1.530, 7.723e-5
-1.531, 8.032e-5
-1.532, 8.032e-5
-1.533, 8.032e-5
-1.534, 8.032e-5
-1.535, 8.032e-5
-1.536, 8.032e-5
-1.537, 8.340e-5
-1.538, 8.032e-5
-1.539, 8.340e-5
-1.540, 8.340e-5
-1.541, 8.340e-5
-1.542, 8.648e-5
-1.543, 8.648e-5
-1.544, 8.648e-5
-1.545, 8.648e-5
-1.546, 8.648e-5
-1.547, 8.648e-5
-1.548, 8.648e-5
-1.549, 8.648e-5
-1.550, 8.957e-5
-1.551, 8.957e-5
-1.552, 9.265e-5
-1.553, 8.957e-5
-1.554, 8.957e-5
-1.555, 9.265e-5
-1.556, 9.265e-5
-1.557, 9.265e-5
-1.558, 9.573e-5
-1.559, 9.573e-5
-1.560, 9.573e-5
-1.561, 9.573e-5
-1.562, 9.573e-5
-1.563, 9.882e-5
-1.564, 9.882e-5
-1.565, 9.882e-5
-1.566, 1.019e-4
-1.567, 9.882e-5
-1.568, 9.882e-5
-1.569, 1.019e-4
-1.570, 1.019e-4
-1.571, 1.019e-4
-1.572, 1.019e-4
-1.573, 1.050e-4
-1.574, 1.050e-4
-1.575, 1.050e-4
-1.576, 1.050e-4
-1.577, 1.081e-4
-1.578, 1.081e-4
-1.579, 1.081e-4
-1.580, 1.111e-4
-1.581, 1.111e-4
-1.582, 1.111e-4
-1.583, 1.111e-4
-1.584, 1.111e-4
-1.585, 1.142e-4
-1.586, 1.142e-4
-1.587, 1.173e-4
-1.588, 1.173e-4
-1.589, 1.173e-4
-1.590, 1.173e-4
-1.591, 1.204e-4
-1.592, 1.204e-4
-1.593, 1.235e-4
-1.594, 1.235e-4
-1.595, 1.235e-4
-1.596, 1.235e-4
-1.597, 1.266e-4
-1.598, 1.266e-4
-1.599, 1.266e-4
-1.600, 1.296e-4
-1.601, 1.296e-4
-1.602, 1.327e-4
-1.603, 1.327e-4
-1.604, 1.327e-4
-1.605, 1.358e-4
-1.606, 1.358e-4
-1.607, 1.389e-4
-1.608, 1.389e-4
-1.609, 1.420e-4
-1.610, 1.420e-4
-1.611, 1.420e-4
-1.612, 1.451e-4
-1.613, 1.451e-4
-1.614, 1.481e-4
-1.615, 1.481e-4
-1.616, 1.481e-4
-1.617, 1.512e-4
-1.618, 1.543e-4
-1.619, 1.543e-4
-1.620, 1.543e-4
-1.621, 1.574e-4
-1.622, 1.574e-4
-1.623, 1.636e-4
-1.624, 1.636e-4
-1.625, 1.636e-4
-1.626, 1.666e-4
-1.627, 1.666e-4
-1.628, 1.697e-4
-1.629, 1.728e-4
-1.630, 1.728e-4
-1.631, 1.759e-4
-1.632, 1.790e-4
-1.633, 1.790e-4
-1.634, 1.821e-4
-1.635, 1.821e-4
-1.636, 1.851e-4
-1.637, 1.882e-4
-1.638, 1.913e-4
-1.639, 1.944e-4
-1.640, 1.944e-4
-1.641, 1.975e-4
-1.642, 2.006e-4
-1.643, 2.006e-4
-1.644, 2.067e-4
-1.645, 2.098e-4
-1.646, 2.129e-4
-1.647, 2.129e-4
-1.648, 2.191e-4
-1.649, 2.191e-4
-1.650, 2.221e-4
-1.651, 2.283e-4
-1.652, 2.314e-4
-1.653, 2.345e-4
-1.654, 2.376e-4
-1.655, 2.406e-4
-1.656, 2.437e-4
-1.657, 2.499e-4
-1.658, 2.499e-4
-1.659, 2.561e-4
-1.660, 2.591e-4
-1.661, 2.622e-4
-1.662, 2.684e-4
-1.663, 2.715e-4
-1.664, 2.776e-4
-1.665, 2.807e-4
-1.666, 2.869e-4
-1.667, 2.869e-4
-1.668, 2.931e-4
-1.669, 2.992e-4
-1.670, 3.023e-4
-1.671, 3.085e-4
-1.672, 3.115e-4
-1.673, 3.177e-4
-1.674, 3.239e-4
-1.675, 3.270e-4
-1.676, 3.331e-4
-1.677, 3.393e-4
-1.678, 3.455e-4
-1.679, 3.485e-4
-1.680, 3.578e-4
-1.681, 3.640e-4
-1.682, 3.701e-4
-1.683, 3.763e-4
-1.684, 3.825e-4
-1.685, 3.886e-4
-1.686, 3.948e-4
-1.687, 4.010e-4
-1.688, 4.102e-4
-1.689, 4.164e-4
-1.690, 4.256e-4
-1.691, 4.349e-4
-1.692, 4.410e-4
-1.693, 4.472e-4
-1.694, 4.565e-4
-1.695, 4.657e-4
-1.696, 4.750e-4
-1.697, 4.842e-4
-1.698, 4.935e-4
-1.699, 4.996e-4
-1.700, 5.120e-4
-1.701, 5.212e-4
-1.702, 5.305e-4
-1.703, 5.397e-4
-1.704, 5.489e-4
-1.705, 5.613e-4
-1.706, 5.736e-4
-1.707, 5.829e-4
-1.708, 5.952e-4
-1.709, 6.044e-4
-1.710, 6.168e-4
-1.711, 6.291e-4
-1.712, 6.384e-4
-1.713, 6.507e-4
-1.714, 6.630e-4
-1.715, 6.754e-4
-1.716, 6.877e-4
-1.717, 7.031e-4
-1.718, 7.154e-4
-1.719, 7.309e-4
-1.720, 7.432e-4
-1.721, 7.586e-4
-1.722, 7.709e-4
-1.723, 7.894e-4
-1.724, 8.018e-4
-1.725, 8.172e-4
-1.726, 8.326e-4
-1.727, 8.480e-4
-1.728, 8.634e-4
-1.729, 8.788e-4
-1.730, 8.973e-4
-1.731, 9.128e-4
-1.732, 9.282e-4
-1.733, 9.467e-4
-1.734, 9.683e-4
-1.735, 9.868e-4
-1.736, 1.005e-3
-1.737, 1.024e-3
-1.738, 1.045e-3
-1.739, 1.064e-3
-1.740, 1.085e-3
-1.741, 1.107e-3
-1.742, 1.129e-3
-1.743, 1.150e-3
-1.744, 1.169e-3
-1.745, 1.193e-3
-1.746, 1.218e-3
-1.747, 1.243e-3
-1.748, 1.270e-3
-1.749, 1.292e-3
-1.750, 1.317e-3
-1.751, 1.344e-3
-1.752, 1.369e-3
-1.753, 1.394e-3
-1.754, 1.421e-3
-1.755, 1.449e-3
-1.756, 1.477e-3
-1.757, 1.508e-3
-1.758, 1.536e-3
-1.759, 1.566e-3
-1.760, 1.597e-3
-1.761, 1.625e-3
-1.762, 1.659e-3
-1.763, 1.687e-3
-1.764, 1.724e-3
-1.765, 1.758e-3
-1.766, 1.791e-3
-1.767, 1.822e-3
-1.768, 1.859e-3
-1.769, 1.896e-3
-1.770, 1.933e-3
-1.771, 1.973e-3
-1.772, 2.007e-3
-1.773, 2.047e-3
-1.774, 2.087e-3
-1.775, 2.128e-3
-1.776, 2.168e-3
-1.777, 2.211e-3
-1.778, 2.251e-3
-1.779, 2.294e-3
-1.780, 2.343e-3
-1.781, 2.386e-3
-1.782, 2.433e-3
-1.783, 2.476e-3
-1.784, 2.516e-3
-1.785, 2.562e-3
-1.786, 2.605e-3
-1.787, 2.658e-3
-1.788, 2.704e-3
-1.789, 2.753e-3
-1.790, 2.797e-3
-1.791, 2.849e-3
-1.792, 2.901e-3
-1.793, 2.954e-3
-1.794, 3.009e-3
-1.795, 3.065e-3
-1.796, 3.117e-3
-1.797, 3.173e-3
-1.798, 3.228e-3
-1.799, 3.284e-3
-1.800, 3.342e-3
-1.801, 3.398e-3
-1.802, 3.453e-3
-1.803, 3.515e-3
-1.804, 3.577e-3
-1.805, 3.638e-3
-1.806, 3.700e-3
-1.807, 3.762e-3
-1.808, 3.826e-3
-1.809, 3.891e-3
-1.810, 3.956e-3
-1.811, 4.027e-3
-1.812, 4.104e-3
-1.813, 4.165e-3
-1.814, 4.233e-3
-1.815, 4.301e-3
-1.816, 4.372e-3
-1.817, 4.440e-3
-1.818, 4.508e-3
-1.819, 4.579e-3
-1.820, 4.646e-3
-1.821, 4.720e-3
-1.822, 4.791e-3
-1.823, 4.865e-3
-1.824, 4.942e-3
-1.825, 5.016e-3
-1.826, 5.097e-3
-1.827, 5.174e-3
-1.828, 5.248e-3
-1.829, 5.322e-3
-1.830, 5.402e-3
-1.831, 5.479e-3
-1.832, 5.556e-3
-1.833, 5.636e-3
-1.834, 5.716e-3
-1.835, 5.796e-3
-1.836, 5.880e-3
-1.837, 5.960e-3
-1.838, 6.037e-3
-1.839, 6.123e-3
-1.840, 6.206e-3
-1.841, 6.293e-3
-1.842, 6.376e-3
-1.843, 6.459e-3
-1.844, 6.546e-3
-1.845, 6.635e-3
-1.846, 6.721e-3
-1.847, 6.801e-3
-1.848, 6.885e-3
-1.849, 6.974e-3
-1.850, 7.064e-3
-1.851, 7.153e-3
-1.852, 7.239e-3
-1.853, 7.329e-3
-1.854, 7.421e-3
-1.855, 7.514e-3
-1.856, 7.603e-3
-1.857, 7.699e-3
-1.858, 7.785e-3
-1.859, 7.874e-3
-1.860, 7.979e-3
-1.861, 8.075e-3
-1.862, 8.167e-3
-1.863, 8.257e-3
-1.864, 8.352e-3
-1.865, 8.451e-3
-1.866, 8.540e-3
-1.867, 8.639e-3
-1.868, 8.741e-3
-1.869, 8.836e-3
-1.870, 8.938e-3
-1.871, 9.037e-3
-1.872, 9.129e-3
-1.873, 9.237e-3
-1.874, 9.342e-3
-1.875, 9.441e-3
-1.876, 9.539e-3
-1.877, 9.644e-3
-1.878, 9.755e-3
-1.879, 9.860e-3
-1.880, 9.968e-3
-1.881, 1.007e-2
-1.882, 1.018e-2
-1.883, 1.028e-2
-1.884, 1.039e-2
-1.885, 1.050e-2
-1.886, 1.061e-2
-1.887, 1.073e-2
-1.888, 1.085e-2
-1.889, 1.096e-2
-1.890, 1.107e-2
-1.891, 1.118e-2
-1.892, 1.129e-2
-1.893, 1.140e-2
-1.894, 1.152e-2
-1.895, 1.163e-2
-1.896, 1.175e-2
-1.897, 1.187e-2
-1.898, 1.199e-2
-1.899, 1.210e-2
-1.900, 1.216e-2
-1.899, 1.211e-2
-1.898, 1.207e-2
-1.897, 1.201e-2
-1.896, 1.195e-2
-1.895, 1.190e-2
-1.894, 1.185e-2
-1.893, 1.179e-2
-1.892, 1.174e-2
-1.891, 1.167e-2
-1.890, 1.162e-2
-1.889, 1.157e-2
-1.888, 1.152e-2
-1.887, 1.145e-2
-1.886, 1.139e-2
-1.885, 1.133e-2
-1.884, 1.126e-2
-1.883, 1.120e-2
-1.882, 1.115e-2
-1.881, 1.109e-2
-1.880, 1.103e-2
-1.879, 1.098e-2
-1.878, 1.091e-2
-1.877, 1.083e-2
-1.876, 1.077e-2
-1.875, 1.070e-2
-1.874, 1.063e-2
-1.873, 1.055e-2
-1.872, 1.047e-2
-1.871, 1.038e-2
-1.870, 1.030e-2
-1.869, 1.021e-2
-1.868, 1.012e-2
-1.867, 1.003e-2
-1.866, 9.940e-3
-1.865, 9.869e-3
-1.864, 9.814e-3
-1.863, 9.746e-3
-1.862, 9.675e-3
-1.861, 9.604e-3
-1.860, 9.533e-3
-1.859, 9.465e-3
-1.858, 9.388e-3
-1.857, 9.317e-3
-1.856, 9.240e-3
-1.855, 9.151e-3
-1.854, 9.077e-3
-1.853, 8.991e-3
-1.852, 8.910e-3
-1.851, 8.830e-3
-1.850, 8.747e-3
-1.849, 8.661e-3
-1.848, 8.577e-3
-1.847, 8.494e-3
-1.846, 8.405e-3
-1.845, 8.318e-3
-1.844, 8.241e-3
-1.843, 8.164e-3
-1.842, 8.078e-3
-1.841, 8.004e-3
-1.840, 7.924e-3
-1.839, 7.844e-3
-1.838, 7.767e-3
-1.837, 7.686e-3
-1.836, 7.615e-3
-1.835, 7.535e-3
-1.834, 7.455e-3
-1.833, 7.381e-3
-1.832, 7.304e-3
-1.831, 7.215e-3
-1.830, 7.128e-3
-1.829, 7.051e-3
-1.828, 6.968e-3
-1.827, 6.888e-3
-1.826, 6.811e-3
-1.825, 6.731e-3
-1.824, 6.660e-3
-1.823, 6.589e-3
-1.822, 6.512e-3
-1.821, 6.441e-3
-1.820, 6.370e-3
-1.819, 6.293e-3
-1.818, 6.225e-3
-1.817, 6.151e-3
-1.816, 6.089e-3
-1.815, 6.021e-3
-1.814, 5.963e-3
-1.813, 5.901e-3
-1.812, 5.836e-3
-1.811, 5.772e-3
-1.810, 5.710e-3
-1.809, 5.645e-3
-1.808, 5.593e-3
-1.807, 5.522e-3
-1.806, 5.460e-3
-1.805, 5.402e-3
-1.804, 5.346e-3
-1.803, 5.285e-3
-1.802, 5.226e-3
-1.801, 5.167e-3
-1.800, 5.106e-3
-1.799, 5.044e-3
-1.798, 4.986e-3
-1.797, 4.933e-3
-1.796, 4.875e-3
-1.795, 4.819e-3
-1.794, 4.760e-3
-1.793, 4.705e-3
-1.792, 4.643e-3
-1.791, 4.591e-3
-1.790, 4.542e-3
-1.789, 4.489e-3
-1.788, 4.437e-3
-1.787, 4.384e-3
-1.786, 4.338e-3
-1.785, 4.280e-3
-1.784, 4.230e-3
-1.783, 4.178e-3
-1.782, 4.125e-3
-1.781, 4.082e-3
-1.780, 4.030e-3
-1.779, 3.987e-3
-1.778, 3.943e-3
-1.777, 3.900e-3
-1.776, 3.854e-3
-1.775, 3.808e-3
-1.774, 3.758e-3
-1.773, 3.709e-3
-1.772, 3.666e-3
-1.771, 3.620e-3
-1.770, 3.580e-3
-1.769, 3.533e-3
-1.768, 3.487e-3
-1.767, 3.444e-3
-1.766, 3.401e-3
-1.765, 3.358e-3
-1.764, 3.314e-3
-1.763, 3.278e-3
-1.762, 3.231e-3
-1.761, 3.188e-3
-1.760, 3.145e-3
-1.759, 3.102e-3
-1.758, 3.062e-3
-1.757, 3.019e-3
-1.756, 2.978e-3
-1.755, 2.941e-3
-1.754, 2.901e-3
-1.753, 2.861e-3
-1.752, 2.824e-3
-1.751, 2.784e-3
-1.750, 2.747e-3
-1.749, 2.710e-3
-1.748, 2.670e-3
-1.747, 2.633e-3
-1.746, 2.596e-3
-1.745, 2.562e-3
-1.744, 2.522e-3
-1.743, 2.488e-3
-1.742, 2.451e-3
-1.741, 2.420e-3
-1.740, 2.386e-3
-1.739, 2.349e-3
-1.738, 2.316e-3
-1.737, 2.285e-3
-1.736, 2.251e-3
-1.735, 2.217e-3
-1.734, 2.180e-3
-1.733, 2.152e-3
-1.732, 2.118e-3
-1.731, 2.084e-3
-1.730, 2.057e-3
-1.729, 2.026e-3
-1.728, 1.995e-3
-1.727, 1.967e-3
-1.726, 1.936e-3
-1.725, 1.902e-3
-1.724, 1.875e-3
-1.723, 1.844e-3
-1.722, 1.816e-3
-1.721, 1.788e-3
-1.720, 1.764e-3
-1.719, 1.733e-3
-1.718, 1.705e-3
-1.717, 1.680e-3
-1.716, 1.653e-3
-1.715, 1.625e-3
-1.714, 1.600e-3
-1.713, 1.573e-3
-1.712, 1.548e-3
-1.711, 1.523e-3
-1.710, 1.499e-3
-1.709, 1.474e-3
-1.708, 1.449e-3
-1.707, 1.425e-3
-1.706, 1.403e-3
-1.705, 1.381e-3
-1.704, 1.360e-3
-1.703, 1.335e-3
-1.702, 1.310e-3
-1.701, 1.292e-3
-1.700, 1.270e-3
-1.699, 1.249e-3
-1.698, 1.230e-3
-1.697, 1.212e-3
-1.696, 1.190e-3
-1.695, 1.172e-3
-1.694, 1.150e-3
-1.693, 1.132e-3
-1.692, 1.113e-3
-1.691, 1.095e-3
-1.690, 1.076e-3
-1.689, 1.058e-3
-1.688, 1.039e-3
-1.687, 1.021e-3
-1.686, 1.002e-3
-1.685, 9.868e-4
-1.684, 9.713e-4
-1.683, 9.528e-4
-1.682, 9.343e-4
-1.681, 9.220e-4
-1.680, 9.035e-4
-1.679, 8.881e-4
-1.678, 8.727e-4
-1.677, 8.603e-4
-1.676, 8.418e-4
-1.675, 8.264e-4
-1.674, 8.141e-4
-1.673, 7.987e-4
-1.672, 7.863e-4
-1.671, 7.709e-4
-1.670, 7.586e-4
-1.669, 7.432e-4
-1.668, 7.309e-4
-1.667, 7.185e-4
-1.666, 7.062e-4
-1.665, 6.939e-4
-1.664, 6.815e-4
-1.663, 6.692e-4
-1.662, 6.569e-4
-1.661, 6.445e-4
-1.660, 6.322e-4
-1.659, 6.229e-4
-1.658, 6.106e-4
-1.657, 5.983e-4
-1.656, 5.890e-4
-1.655, 5.767e-4
-1.654, 5.674e-4
-1.653, 5.582e-4
-1.652, 5.459e-4
-1.651, 5.366e-4
-1.650, 5.274e-4
-1.649, 5.150e-4
-1.648, 5.058e-4
-1.647, 4.996e-4
-1.646, 4.873e-4
-1.645, 4.811e-4
-1.644, 4.688e-4
-1.643, 4.626e-4
-1.642, 4.534e-4
-1.641, 4.441e-4
-1.640, 4.380e-4
-1.639, 4.287e-4
-1.638, 4.195e-4
-1.637, 4.133e-4
-1.636, 4.071e-4
-1.635, 3.979e-4
-1.634, 3.917e-4
-1.633, 3.825e-4
-1.632, 3.732e-4
-1.631, 3.701e-4
-1.630, 3.609e-4
-1.629, 3.547e-4
-1.628, 3.455e-4
-1.627, 3.424e-4
-1.626, 3.331e-4
-1.625, 3.300e-4
-1.624, 3.208e-4
-1.623, 3.146e-4
-1.622, 3.115e-4
-1.621, 3.054e-4
-1.620, 2.992e-4
-1.619, 2.931e-4
-1.618, 2.869e-4
-1.617, 2.807e-4
-1.616, 2.776e-4
-1.615, 2.715e-4
-1.614, 2.653e-4
-1.613, 2.591e-4
-1.612, 2.561e-4
-1.611, 2.499e-4
-1.610, 2.468e-4
-1.609, 2.406e-4
-1.608, 2.376e-4
-1.607, 2.314e-4
-1.606, 2.283e-4
-1.605, 2.221e-4
-1.604, 2.191e-4
-1.603, 2.129e-4
-1.602, 2.098e-4
-1.601, 2.067e-4
-1.600, 2.006e-4
-1.599, 1.975e-4
-1.598, 1.944e-4
-1.597, 1.913e-4
-1.596, 1.882e-4
-1.595, 1.821e-4
-1.594, 1.790e-4
-1.593, 1.790e-4
-1.592, 1.728e-4
-1.591, 1.697e-4
-1.590, 1.666e-4
-1.589, 1.636e-4
-1.588, 1.605e-4
-1.587, 1.543e-4
-1.586, 1.543e-4
-1.585, 1.512e-4
-1.584, 1.481e-4
-1.583, 1.451e-4
-1.582, 1.420e-4
-1.581, 1.389e-4
-1.580, 1.358e-4
-1.579, 1.327e-4
-1.578, 1.296e-4
-1.577, 1.266e-4
-1.576, 1.266e-4
-1.575, 1.204e-4
-1.574, 1.204e-4
-1.573, 1.173e-4
-1.572, 1.142e-4
-1.571, 1.111e-4
-1.570, 1.111e-4
-1.569, 1.081e-4
-1.568, 1.050e-4
-1.567, 1.050e-4
-1.566, 9.882e-5
-1.565, 9.882e-5
-1.564, 9.573e-5
-1.563, 9.573e-5
-1.562, 9.265e-5
-1.561, 9.265e-5
-1.560, 8.957e-5
-1.559, 8.648e-5
-1.558, 8.648e-5
-1.557, 8.340e-5
-1.556, 8.340e-5
-1.555, 8.032e-5
-1.554, 8.032e-5
-1.553, 7.723e-5
-1.552, 7.415e-5
-1.551, 7.415e-5
-1.550, 7.415e-5
-1.549, 7.107e-5
-1.548, 7.107e-5
-1.547, 6.798e-5
-1.546, 6.798e-5
-1.545, 6.798e-5
-1.544, 6.490e-5
-1.543, 6.182e-5
-1.542, 6.182e-5
-1.541, 5.873e-5
-1.540, 5.873e-5
-1.539, 5.873e-5
-1.538, 5.873e-5
-1.537, 5.565e-5
-1.536, 5.565e-5
-1.535, 5.257e-5
-1.534, 5.257e-5
-1.533, 5.257e-5
-1.532, 4.949e-5
-1.531, 4.949e-5
-1.530, 4.949e-5
-1.529, 4.640e-5
-1.528, 4.640e-5
-1.527, 4.332e-5
-1.526, 4.332e-5
-1.525, 4.332e-5
-1.524, 4.332e-5
-1.523, 4.024e-5
-1.522, 4.024e-5
-1.521, 3.715e-5
-1.520, 3.715e-5
-1.519, 3.715e-5
-1.518, 3.715e-5
-1.517, 3.407e-5
-1.516, 3.407e-5
-1.515, 3.407e-5
-1.514, 3.099e-5
-1.513, 3.407e-5
-1.512, 3.099e-5
-1.511, 3.099e-5
-1.510, 2.790e-5
-1.509, 3.099e-5
-1.508, 2.790e-5
-1.507, 2.790e-5
-1.506, 2.790e-5
-1.505, 2.790e-5
-1.504, 2.790e-5
-1.503, 2.482e-5
-1.502, 2.482e-5
-1.501, 2.482e-5
-1.500, 2.174e-5
-1.499, 2.174e-5
-1.498, 2.174e-5
-1.497, 2.174e-5
-1.496, 2.174e-5
-1.495, 2.174e-5
-1.494, 2.174e-5
-1.493, 1.865e-5
-1.492, 1.865e-5
-1.491, 1.865e-5
-1.490, 1.557e-5
-1.489, 1.557e-5
-1.488, 1.865e-5
-1.487, 1.557e-5
-1.486, 1.557e-5
-1.485, 1.557e-5
-1.484, 1.557e-5
-1.483, 1.249e-5
-1.482, 1.249e-5
-1.481, 1.249e-5
-1.480, 1.249e-5
-1.479, 1.249e-5
-1.478, 1.249e-5
-1.477, 1.249e-5
-1.476, 1.249e-5
-1.475, 9.405e-6
-1.474, 9.405e-6
-1.473, 9.405e-6
-1.472, 9.405e-6
-1.471, 9.405e-6
-1.470, 9.405e-6
-1.469, 9.405e-6
-1.468, 9.405e-6
-1.467, 9.405e-6
-1.466, 6.322e-6
-1.465, 6.322e-6
-1.464, 6.322e-6
-1.463, 6.322e-6
-1.462, 6.322e-6
-1.461, 6.322e-6
-1.460, 6.322e-6
-1.459, 6.322e-6
-1.458, 3.239e-6
-1.457, 3.239e-6
-1.456, 6.322e-6
-1.455, 3.239e-6
-1.454, 3.239e-6
-1.453, 3.239e-6
-1.452, 3.239e-6
-1.451, 3.239e-6
-1.450, 3.239e-6
-1.449, 3.239e-6
-1.448, 3.239e-6
-1.447, 3.239e-6
-1.446, 3.239e-6
-1.445, 3.239e-6
-1.444, 1.559e-7
-1.443, 1.559e-7
-1.442, 1.559e-7
-1.441, 3.239e-6
-1.440, 1.559e-7
-1.439, 1.559e-7
-1.438, 1.559e-7
-1.437, 1.559e-7
-1.436, 1.559e-7
-1.435, 1.559e-7
-1.434, 1.559e-7
-1.433, 1.559e-7
-1.432, -2.927e-6
-1.431, 1.559e-7
-1.430, -2.927e-6
-1.429, -2.927e-6
-1.428, -2.927e-6
-1.427, 1.559e-7
-1.426, -2.927e-6
-1.425, 1.559e-7
-1.424, 1.559e-7
-1.423, -2.927e-6
-1.422, -2.927e-6
-1.421, -2.927e-6
-1.420, -2.927e-6
-1.419, -2.927e-6
-1.418, -2.927e-6
-1.417, -6.010e-6
-1.416, -2.927e-6
-1.415, -2.927e-6
-1.414, -6.010e-6
-1.413, -2.927e-6
-1.412, -6.010e-6
-1.411, -2.927e-6
-1.410, -6.010e-6
-1.409, -2.927e-6
-1.408, -2.927e-6
-1.407, -2.927e-6
-1.406, -2.927e-6
-1.405, -2.927e-6
-1.404, -2.927e-6
-1.403, -2.927e-6
-1.402, -2.927e-6
-1.401, -6.010e-6
-1.400, -2.927e-6
-1.399, -6.010e-6
-1.398, -6.010e-6
-1.397, -6.010e-6
-1.396, -6.010e-6
-1.395, -6.010e-6
-1.394, -6.010e-6
-1.393, -6.010e-6
-1.392, -6.010e-6
-1.391, -6.010e-6
-1.390, -9.093e-6
-1.389, -9.093e-6
-1.388, -6.010e-6
-1.387, -9.093e-6
-1.386, -6.010e-6
-1.385, -9.093e-6
-1.384, -6.010e-6
-1.383, -6.010e-6
-1.382, -9.093e-6
-1.381, -9.093e-6
-1.380, -9.093e-6
-1.379, -9.093e-6
-1.378, -9.093e-6
-1.377, -9.093e-6
-1.376, -9.093e-6
-1.375, -9.093e-6
-1.374, -9.093e-6
-1.373, -9.093e-6
-1.372, -9.093e-6
-1.371, -9.093e-6
-1.370, -9.093e-6
-1.369, -9.093e-6
-1.368, -9.093e-6
-1.367, -9.093e-6
-1.366, -9.093e-6
-1.365, -9.093e-6
-1.364, -9.093e-6
-1.363, -9.093e-6
-1.362, -9.093e-6
-1.361, -9.093e-6
-1.360, -1.218e-5
-1.359, -9.093e-6
-1.358, -9.093e-6
-1.357, -9.093e-6
-1.356, -9.093e-6
-1.355, -1.218e-5
-1.354, -9.093e-6
-1.353, -1.218e-5
-1.352, -9.093e-6
-1.351, -9.093e-6
-1.350, -9.093e-6
-1.349, -1.218e-5
-1.348, -9.093e-6
-1.347, -1.218e-5
-1.346, -1.218e-5
-1.345, -1.218e-5
-1.344, -9.093e-6
-1.343, -9.093e-6
-1.342, -1.218e-5
-1.341, -1.218e-5
-1.340, -1.218e-5
-1.339, -1.218e-5
-1.338, -1.218e-5
-1.337, -1.218e-5
-1.336, -1.218e-5
-1.335, -1.218e-5
-1.334, -1.218e-5
-1.333, -1.218e-5
-1.332, -1.218e-5
-1.331, -1.218e-5
-1.330, -1.218e-5
-1.329, -9.093e-6
-1.328, -1.218e-5
-1.327, -1.218e-5
-1.326, -1.218e-5
-1.325, -1.218e-5
-1.324, -1.218e-5
-1.323, -1.218e-5
-1.322, -9.093e-6
-1.321, -1.218e-5
-1.320, -1.218e-5
-1.319, -1.218e-5
-1.318, -1.218e-5
-1.317, -1.218e-5
-1.316, -1.218e-5
-1.315, -1.218e-5
-1.314, -1.218e-5
-1.313, -1.218e-5
-1.312, -1.218e-5
-1.311, -1.218e-5
-1.310, -1.218e-5
-1.309, -1.218e-5
-1.308, -1.218e-5
-1.307, -1.218e-5
-1.306, -1.218e-5
-1.305, -1.218e-5
-1.304, -1.218e-5
-1.303, -1.218e-5
-1.302, -1.218e-5
-1.301, -1.218e-5
-1.300, -1.218e-5
-1.299, -1.218e-5
-1.298, -1.218e-5
-1.297, -1.218e-5
-1.296, -1.218e-5
-1.295, -1.218e-5
-1.294, -1.218e-5
-1.293, -1.218e-5
-1.292, -1.218e-5
-1.291, -1.218e-5
-1.290, -1.218e-5
-1.289, -1.218e-5
-1.288, -1.218e-5
-1.287, -1.526e-5
-1.286, -1.218e-5
-1.285, -1.526e-5
-1.284, -1.218e-5
-1.283, -1.218e-5
-1.282, -1.218e-5
-1.281, -1.526e-5
-1.280, -1.218e-5
-1.279, -1.218e-5
-1.278, -1.526e-5
-1.277, -1.218e-5
-1.276, -1.218e-5
-1.275, -1.218e-5
-1.274, -1.218e-5
-1.273, -1.218e-5
-1.272, -1.526e-5
-1.271, -1.218e-5
-1.270, -1.526e-5
-1.269, -1.218e-5
-1.268, -1.218e-5
-1.267, -1.526e-5
-1.266, -1.218e-5
-1.265, -1.218e-5
-1.264, -1.526e-5
-1.263, -1.526e-5
-1.262, -1.218e-5
-1.261, -1.218e-5
-1.260, -1.526e-5
-1.259, -1.526e-5
-1.258, -1.526e-5
-1.257, -1.218e-5
-1.256, -1.526e-5
-1.255, -1.526e-5
-1.254, -1.218e-5
-1.253, -1.526e-5
-1.252, -1.526e-5
-1.251, -1.526e-5
-1.250, -1.526e-5
-1.249, -1.526e-5
-1.248, -1.526e-5
-1.247, -1.526e-5
-1.246, -1.218e-5
-1.245, -1.526e-5
-1.244, -1.526e-5
-1.243, -1.526e-5
-1.242, -1.526e-5
-1.241, -1.526e-5
-1.240, -1.526e-5
-1.239, -1.526e-5
-1.238, -1.526e-5
-1.237, -1.526e-5
-1.236, -1.526e-5
-1.235, -1.526e-5
-1.234, -1.526e-5
-1.233, -1.526e-5
-1.232, -1.526e-5
-1.231, -1.526e-5
-1.230, -1.526e-5
-1.229, -1.526e-5
-1.228, -1.526e-5
-1.227, -1.526e-5
-1.226, -1.526e-5
-1.225, -1.526e-5
-1.224, -1.526e-5
-1.223, -1.526e-5
-1.222, -1.526e-5
-1.221, -1.526e-5
-1.220, -1.834e-5
-1.219, -1.526e-5
-1.218, -1.526e-5
-1.217, -1.834e-5
-1.216, -1.526e-5
-1.215, -1.526e-5
-1.214, -1.526e-5
-1.213, -1.834e-5
-1.212, -1.526e-5
-1.211, -1.526e-5
-1.210, -1.834e-5
-1.209, -1.526e-5
-1.208, -1.526e-5
-1.207, -1.526e-5
-1.206, -1.526e-5
-1.205, -1.526e-5
-1.204, -1.526e-5
-1.203, -1.834e-5
-1.202, -1.834e-5
-1.201, -1.526e-5
-1.200, -1.834e-5
-1.199, -1.834e-5
-1.198, -1.526e-5
-1.197, -1.834e-5
-1.196, -1.834e-5
-1.195, -1.834e-5
-1.194, -1.834e-5
-1.193, -1.834e-5
-1.192, -1.834e-5
-1.191, -1.834e-5
-1.190, -1.834e-5
-1.189, -1.834e-5
-1.188, -1.834e-5
-1.187, -1.834e-5
-1.186, -1.834e-5
-1.185, -1.834e-5
-1.184, -1.834e-5
-1.183, -1.834e-5
-1.182, -1.834e-5
-1.181, -1.834e-5
-1.180, -1.834e-5
-1.179, -1.834e-5
-1.178, -1.834e-5
-1.177, -1.834e-5
-1.176, -1.834e-5
-1.175, -1.834e-5
-1.174, -1.834e-5
-1.173, -1.834e-5
-1.172, -1.834e-5
-1.171, -1.834e-5
-1.170, -1.834e-5
-1.169, -1.834e-5
-1.168, -1.834e-5
-1.167, -1.834e-5
-1.166, -1.834e-5
-1.165, -2.143e-5
-1.164, -1.834e-5
-1.163, -1.834e-5
-1.162, -1.834e-5
-1.161, -1.834e-5
-1.160, -1.834e-5
-1.159, -1.834e-5
-1.158, -1.834e-5
-1.157, -1.834e-5
-1.156, -1.834e-5
-1.155, -1.834e-5
-1.154, -1.834e-5
-1.153, -1.834e-5
-1.152, -1.834e-5
-1.151, -1.834e-5
-1.150, -1.834e-5
-1.149, -1.834e-5
-1.148, -1.834e-5
-1.147, -1.834e-5
-1.146, -1.834e-5
-1.145, -1.834e-5
-1.144, -2.143e-5
-1.143, -2.143e-5
-1.142, -2.143e-5
-1.141, -2.143e-5
-1.140, -2.143e-5
-1.139, -1.834e-5
-1.138, -1.834e-5
-1.137, -2.143e-5
-1.136, -1.834e-5
-1.135, -2.143e-5
-1.134, -1.834e-5
-1.133, -2.143e-5
-1.132, -1.834e-5
-1.131, -2.143e-5
-1.130, -1.834e-5
-1.129, -2.143e-5
-1.128, -2.143e-5
-1.127, -2.143e-5
-1.126, -2.143e-5
-1.125, -1.834e-5
-1.124, -2.143e-5
-1.123, -2.143e-5
-1.122, -2.143e-5
-1.121, -2.143e-5
-1.120, -2.143e-5
-1.119, -2.143e-5
-1.118, -2.143e-5
-1.117, -2.143e-5
-1.116, -2.143e-5
-1.115, -2.143e-5
-1.114, -2.143e-5
-1.113, -2.143e-5
-1.112, -2.143e-5
-1.111, -2.143e-5
-1.110, -2.143e-5
-1.109, -2.143e-5
-1.108, -2.451e-5
-1.107, -2.143e-5
-1.106, -2.143e-5
-1.105, -2.143e-5
-1.104, -2.143e-5
-1.103, -2.143e-5
-1.102, -2.451e-5
-1.101, -2.451e-5
-1.100, -2.451e-5
-1.099, -2.451e-5
-1.098, -2.451e-5
-1.097, -2.451e-5
-1.096, -2.451e-5
-1.095, -2.451e-5
-1.094, -2.451e-5
-1.093, -2.451e-5
-1.092, -2.451e-5
-1.091, -2.451e-5
-1.090, -2.759e-5
-1.089, -2.451e-5
-1.088, -2.451e-5
-1.087, -2.759e-5
-1.086, -2.759e-5
-1.085, -2.759e-5
-1.084, -2.759e-5
-1.083, -2.759e-5
-1.082, -2.451e-5
-1.081, -2.759e-5
-1.080, -2.451e-5
-1.079, -2.759e-5
-1.078, -2.759e-5
-1.077, -2.759e-5
-1.076, -2.759e-5
-1.075, -2.759e-5
-1.074, -2.759e-5
-1.073, -2.759e-5
-1.072, -2.759e-5
-1.071, -2.759e-5
-1.070, -2.759e-5
-1.069, -2.759e-5
-1.068, -2.759e-5
-1.067, -2.759e-5
-1.066, -2.759e-5
-1.065, -2.759e-5
-1.064, -2.759e-5
-1.063, -2.759e-5
-1.062, -3.068e-5
-1.061, -3.068e-5
-1.060, -3.068e-5
-1.059, -3.068e-5
-1.058, -3.068e-5
-1.057, -3.068e-5
-1.056, -3.068e-5
-1.055, -3.068e-5
-1.054, -3.068e-5
-1.053, -3.068e-5
-1.052, -3.068e-5
-1.051, -3.068e-5
-1.050, -3.068e-5
-1.049, -3.068e-5
-1.048, -3.376e-5
-1.047, -3.376e-5
-1.046, -3.376e-5
-1.045, -3.376e-5
-1.044, -3.376e-5
-1.043, -3.376e-5
-1.042, -3.376e-5
-1.041, -3.376e-5
-1.040, -3.376e-5
-1.039, -3.376e-5
-1.038, -3.376e-5
-1.037, -3.376e-5
-1.036, -3.684e-5
-1.035, -3.376e-5
-1.034, -3.376e-5
-1.033, -3.684e-5
-1.032, -3.684e-5
-1.031, -3.684e-5
-1.030, -3.684e-5
-1.029, -3.684e-5
-1.028, -3.684e-5
-1.027, -3.992e-5
-1.026, -3.684e-5
-1.025, -3.992e-5
-1.024, -3.992e-5
-1.023, -3.684e-5
-1.022, -3.992e-5
-1.021, -3.684e-5
-1.020, -3.992e-5
-1.019, -3.992e-5
-1.018, -3.992e-5
-1.017, -3.992e-5
-1.016, -3.992e-5
-1.015, -3.992e-5
-1.014, -3.992e-5
-1.013, -4.301e-5
-1.012, -4.301e-5
-1.011, -4.301e-5
-1.010, -4.301e-5
-1.009, -4.301e-5
-1.008, -4.301e-5
-1.007, -4.301e-5
-1.006, -4.301e-5
-1.005, -4.301e-5
-1.004, -4.301e-5
-1.003, -4.301e-5
-1.002, -4.609e-5
-1.001, -4.301e-5
