Potential V vs RHE, Current mA cm-2
0.013299999999999867,-0.009055567030436099
0.012299999999999978,-0.0172453307453548
0.011299999999999866,-0.02163093577493641
0.010299999999999976,-0.0250828313466071
0.009299999999999864,-0.02802543085032638
0.008299999999999974,-0.029878702653149573
0.007299999999999862,-0.03185929847296063
0.006299999999999972,-0.03393892408376223
0.00529999999999986,-0.03553754785260972
0.0042999999999999705,-0.037503996559422124
0.0032999999999998586,-0.03848014735632899
0.0022999999999999687,-0.03986656443019673
0.0012999999999998568,-0.04149348242504153
0.00029999999999996696,-0.042568663012938955
-0.000700000000000145,-0.04362969648783773
-0.0017000000000000348,-0.0443511992507689
-0.0027000000000001467,-0.04490293665771626
-0.0037000000000000366,-0.0464025306355732
-0.0047000000000001485,-0.04744941699747333
-0.005700000000000038,-0.047633329466455786
-0.00670000000000015,-0.04869436294135456
-0.00770000000000004,-0.04937342436528978
-0.008700000000000152,-0.05006663290222365
-0.009700000000000042,-0.05146719708909004
-0.010700000000000154,-0.05163696244507385
-0.011700000000000044,-0.052697995919972616
-0.012700000000000156,-0.052613113241980716
-0.013700000000000045,-0.05307996797093617
-0.014700000000000157,-0.05446638504480392
-0.015700000000000047,-0.05459370906179176
-0.01670000000000016,-0.05588109634466895
-0.01770000000000005,-0.05548497718070674
-0.01870000000000016,-0.056149891491643296
-0.01970000000000005,-0.05695627693256638
-0.020700000000000163,-0.057394837435524544
-0.021700000000000053,-0.05757874990450699
-0.022700000000000164,-0.05858319492741117
-0.023700000000000054,-0.05808804597245841
-0.024700000000000166,-0.05947446304632614
-0.025700000000000056,-0.06019596580925731
-0.026700000000000168,-0.05938958036833424
-0.027700000000000058,-0.06019596580925731
-0.02870000000000017,-0.06016767158326001
-0.02970000000000006,-0.0615965299961237
-0.03070000000000017,-0.061624824222121004
-0.03170000000000006,-0.06120041083216149
-0.03270000000000017,-0.062006796273084565
-0.03370000000000006,-0.06251609234103597
-0.034700000000000175,-0.06357712581593475
-0.035700000000000065,-0.0634498017989469
-0.03670000000000018,-0.06336491912095499
-0.03770000000000007,-0.06428448146586727
-0.03870000000000018,-0.06509086690679033
-0.03970000000000007,-0.06489280732480923
-0.04070000000000018,-0.06606701770369722
-0.04170000000000007,-0.06463815929083352
-0.04270000000000018,-0.06649143109365672
-0.04370000000000007,-0.0672412280825852
-0.044700000000000184,-0.06756661168155415
-0.045700000000000074,-0.06793443661951905
-0.046700000000000186,-0.06715634540459328
-0.047700000000000076,-0.06842958557447182
-0.04870000000000019,-0.06881155762543538
-0.04970000000000008,-0.06902376432041514
-0.05070000000000019,-0.06961794306635845
-0.05170000000000008,-0.06939158925838004
-0.05270000000000019,-0.06999991511732201
-0.05370000000000008,-0.07055165252426938
-0.05470000000000019,-0.07083459478424238
-0.05570000000000008,-0.07222101185811013
-0.056700000000000195,-0.07188148114614251
-0.057700000000000085,-0.07217857051911417
-0.058700000000000196,-0.07199465805013172
-0.059700000000000086,-0.07319716265501701
-0.0607000000000002,-0.07435722592090632
-0.06170000000000009,-0.07448454993789419
-0.0627000000000002,-0.074937257553851
-0.06370000000000009,-0.07448454993789419
-0.0647000000000002,-0.07531922960481456
-0.06570000000000009,-0.07609732081974033
-0.0667000000000002,-0.07596999680275247
-0.0677000000000001,-0.0766207640006904
-0.0687000000000002,-0.07633782174071738
-0.0697000000000001,-0.0774978850066067
-0.07070000000000021,-0.0776393561365932
-0.0717000000000001,-0.07848818291651223
-0.07270000000000021,-0.07847403580351359
-0.0737000000000001,-0.07827597622153248
-0.07470000000000021,-0.0792945683574353
-0.0757000000000001,-0.07974727597339212
-0.07670000000000021,-0.07963409906940291
-0.0777000000000001,-0.07945018660042047
-0.07870000000000021,-0.08051122007531925
-0.0797000000000001,-0.08138834108123556
-0.08070000000000022,-0.08210984384416672
-0.0817000000000001,-0.08171372468020452
-0.08270000000000022,-0.08236449187814243
-0.08370000000000011,-0.0831708773190655
-0.08470000000000022,-0.08335478978804794
-0.08570000000000011,-0.08458558861893054
-0.08670000000000022,-0.0854202682858509
-0.08770000000000011,-0.08653789021274429
-0.08870000000000022,-0.08602859414479287
-0.08970000000000011,-0.0867359497947254
-0.09070000000000022,-0.08656618443874159
-0.09170000000000011,-0.0885609273715513
-0.09270000000000023,-0.08786771883461743
-0.09370000000000012,-0.08846189758056075
-0.09470000000000023,-0.08935316569947571
-0.09570000000000012,-0.09003222712341094
-0.09670000000000023,-0.09054152319136234
-0.09770000000000012,-0.09105081925931376
-0.09870000000000023,-0.09073958277334346
-0.09970000000000012,-0.09082446545133536
-0.10070000000000023,-0.09214014696020983
-0.10170000000000012,-0.09219673541220444
-0.10270000000000024,-0.0929182381751356
-0.10370000000000013,-0.09376706495505463
-0.10470000000000024,-0.09431880236200199
-0.10570000000000013,-0.09396512453703573
-0.10670000000000024,-0.09569107232287108
-0.10770000000000013,-0.09591742613084948
-0.10870000000000024,-0.09724725475272263
-0.10970000000000013,-0.0978838748376619
-0.11070000000000024,-0.09854878914859845
-0.11170000000000013,-0.0988175842955728
-0.11270000000000002,-0.09869026027858496
-0.11370000000000013,-0.09982202931847699
-0.11470000000000002,-0.10098209258436633
-0.11570000000000014,-0.10075573877638791
-0.11670000000000003,-0.10153382999131368
-0.11770000000000014,-0.10249583367522191
-0.11870000000000003,-0.10375492673210178
-0.11970000000000014,-0.10426422280005321
-0.12070000000000003,-0.1040661632180721
-0.12170000000000014,-0.10531110916195333
-0.12270000000000003,-0.1040378689920748
-0.12370000000000014,-0.1060326119248845
-0.12470000000000003,-0.10645702531484401
-0.12570000000000014,-0.10618823016786964
-0.12670000000000003,-0.10741902899875223
-0.12770000000000015,-0.10784344238871174
-0.12870000000000004,-0.10866397494263345
-0.12970000000000015,-0.11043236406746475
-0.13070000000000004,-0.10997965645150796
-0.13170000000000015,-0.11109727837840132
-0.13270000000000004,-0.11094166013541619
-0.13370000000000015,-0.1119885464973163
-0.13470000000000004,-0.11320519821520024
-0.13570000000000015,-0.11320519821520024
-0.13670000000000004,-0.11329008089319213
-0.13770000000000016,-0.11418134901210711
-0.13870000000000005,-0.11491699888803693
-0.13970000000000016,-0.11637415152689792
-0.14070000000000005,-0.1170390658378345
-0.14170000000000016,-0.11684100625585338
-0.14270000000000005,-0.11810009931273327
-0.14370000000000016,-0.11883574918866308
-0.14470000000000005,-0.118920631866655
-0.14570000000000016,-0.12073146233048222
-0.14670000000000005,-0.12063243253949167
-0.14770000000000016,-0.1218207900313783
-0.14870000000000005,-0.12211787940434997
-0.14970000000000017,-0.12214617363034727
-0.15070000000000006,-0.12332038400923526
-0.15170000000000017,-0.12391456275517856
-0.15270000000000006,-0.12493315489108141
-0.15370000000000017,-0.1262629835129545
-0.15470000000000006,-0.1270693689538776
-0.15570000000000017,-0.12762110636082497
-0.15670000000000006,-0.1272674285358587
-0.15770000000000017,-0.12810210820277906
-0.15870000000000006,-0.1289226407567008
-0.15970000000000018,-0.12944608393765086
-0.16070000000000007,-0.13059200009054156
-0.16170000000000018,-0.131950122938412
-0.16270000000000007,-0.13206329984240117
-0.16370000000000018,-0.13269991992734045
-0.16470000000000007,-0.13371851206324328
-0.16570000000000018,-0.13463807440815556
-0.16670000000000007,-0.13480783976413932
-0.16770000000000018,-0.13626499240300033
-0.16870000000000007,-0.13668940579295985
-0.16970000000000018,-0.1384436478047925
-0.17070000000000007,-0.13947638705369397
-0.17170000000000019,-0.1384012064657965
-0.17270000000000008,-0.14050912630259546
-0.1737000000000002,-0.14121648195252795
-0.17470000000000008,-0.1426028990263957
-0.1757000000000002,-0.1427443701563822
-0.17670000000000008,-0.1427443701563822
-0.1777000000000002,-0.14415908145624726
-0.17870000000000008,-0.14613967727605828
-0.1797000000000002,-0.14684703292599083
-0.18070000000000008,-0.14896909987578838
-0.1817000000000002,-0.14826174422585583
-0.18270000000000008,-0.14953498439573437
-0.1837000000000002,-0.1506667534356264
-0.1847000000000001,-0.1510911668255859
-0.1857000000000002,-0.15250587812545094
-0.1867000000000001,-0.15264734925543746
-0.1877000000000002,-0.15377911829532948
-0.1887000000000001,-0.15547677185516753
-0.1897000000000002,-0.15618412750510002
-0.1907000000000001,-0.1574573676749786
-0.1917000000000001,-0.1587306078448571
-0.19269999999999998,-0.15957943462477614
-0.1937000000000001,-0.16042826140469515
-0.19469999999999998,-0.1624088572245062
-0.1957000000000001,-0.16339915513441172
-0.19669999999999999,-0.16509680869424978
-0.1977000000000001,-0.1659456354741688
-0.1987,-0.16750181790402036
-0.1997000000000001,-0.16905800033387192
-0.2007,-0.17061418276372342
-0.2017000000000001,-0.17146300954364244
-0.2027,-0.17188742293360199
-0.2037000000000001,-0.1737265476234265
-0.2047,-0.17584861457322407
-0.2057000000000001,-0.1772633258730891
-0.2067,-0.1783950949129811
-0.2077000000000001,-0.18094157525273818
-0.2087,-0.18207334429263022
-0.2097000000000001,-0.18377099785246825
-0.2107,-0.1850442380223468
-0.2117000000000001,-0.1856101225422928
-0.2127,-0.18829807401203638
-0.2137000000000001,-0.19013719870186094
-0.2147,-0.193249563561564
-0.2157000000000001,-0.19466427486142904
-0.2167,-0.19537163051136155
-0.21770000000000012,-0.19805958198110513
-0.2187,-0.2007475334508487
-0.21970000000000012,-0.20244518701068673
-0.2207,-0.20485019622045733
-0.22170000000000012,-0.20640637865030886
-0.2227,-0.2078210899501739
-0.22370000000000012,-0.2119237527197825
-0.2247,-0.21333846401964754
-0.22570000000000012,-0.21659230000933713
-0.2267,-0.21857289582914816
-0.22770000000000012,-0.22126084729889173
-0.22870000000000001,-0.22409026989862182
-0.22970000000000013,-0.22592939458844638
-0.23070000000000002,-0.2293247017081224
-0.23170000000000013,-0.23286147995778506
-0.23270000000000002,-0.23583237368750162
-0.23370000000000013,-0.2393691519371642
-0.23470000000000002,-0.24191563227692126
-0.23570000000000013,-0.24531093939659734
-0.23670000000000002,-0.24913065990623293
-0.2376999999999999,-0.25096978459605745
-0.23870000000000002,-0.2547895051056931
-0.2396999999999999,-0.25761892770542316
-0.24070000000000003,-0.2622874749949778
-0.24169999999999991,-0.2663901377645864
-0.24270000000000003,-0.269643973754276
-0.24369999999999992,-0.2738881076538711
-0.24470000000000003,-0.2775663570335202
-0.24569999999999992,-0.2820934331930883
-0.24670000000000003,-0.28478138466283187
-0.24769999999999992,-0.2894499319523865
-0.24870000000000003,-0.29355259472199513
-0.24969999999999992,-0.29850408427152275
-0.25070000000000003,-0.30303116043109085
-0.2516999999999999,-0.3064264675507669
-0.25270000000000004,-0.3122267838802136
-0.2536999999999999,-0.31901739811956575
-0.25470000000000004,-0.32425182992906637
-0.2556999999999999,-0.33047655964847256
-0.25670000000000004,-0.3345792224180812
-0.25769999999999993,-0.3417942500473929
-0.25870000000000004,-0.347736037506826
-0.25969999999999993,-0.3538192960962457
-0.26070000000000004,-0.3587707856457733
-0.26169999999999993,-0.365985813275085
-0.26270000000000004,-0.37192760073451814
-0.26369999999999993,-0.37970851288377583
-0.26470000000000005,-0.38522588695324944
-0.26569999999999994,-0.3913091455426691
-0.26670000000000005,-0.3986656443019673
-0.26769999999999994,-0.406446556451225
-0.26870000000000005,-0.41380305521052324
-0.26969999999999994,-0.4225742652696865
-0.27070000000000005,-0.43049664854893066
-0.27169999999999994,-0.43898491634812087
-0.27270000000000005,-0.44818053979724365
-0.27369999999999994,-0.45681027872642027
-0.27470000000000006,-0.46600590217554305
-0.27569999999999995,-0.47633329466455787
-0.27670000000000006,-0.4862362737636131
-0.27769999999999995,-0.4954318972127358
-0.27870000000000006,-0.503920165011926
-0.27969999999999995,-0.5155207976708194
-0.28070000000000006,-0.5261311324198072
-0.28169999999999995,-0.5357511692588894
-0.28270000000000006,-0.5457956194879312
-0.28369999999999995,-0.556405954236919
-0.28470000000000006,-0.5681480580257988
-0.28569999999999995,-0.580314575204638
-0.28670000000000007,-0.5921981501235044
-0.28769999999999996,-0.6028084848724922
-0.28870000000000007,-0.6156823577012639
-0.28969999999999996,-0.6289806439199952
-0.29070000000000007,-0.6421374590087401
-0.29169999999999996,-0.6540210339276065
-0.29270000000000007,-0.6666119644964053
-0.29369999999999996,-0.6801931929751097
-0.2947000000000001,-0.6930670658038814
-0.29569999999999996,-0.7045262273327882
-0.2967000000000001,-0.7185318692014522
-0.29769999999999996,-0.732254568810143
-0.2987000000000001,-0.7454113838988878
-0.29969999999999997,-0.7609732081974032
-0.3007000000000001,-0.7739885521561616
-0.30169999999999997,-0.7862965404649873
-0.3027000000000001,-0.8001607112036647
-0.30369999999999997,-0.8137419396823691
-0.3047000000000001,-0.828596408330952
-0.30569999999999997,-0.8427435213296024
-0.3067000000000001,-0.8537782694685497
-0.3077,-0.8660862577773755
-0.3087000000000001,-0.8778283615662553
-0.3097,-0.888438696315243
-0.3107000000000001,-0.8991905021942173
-0.3117,-0.9109326059830971
-0.3127000000000001,-0.9256456035016934
-0.3137,-0.9376706495505462
-0.3147000000000001,-0.9463003884797231
-0.3157,-0.9552130696688728
-0.3167000000000001,-0.963135452948117
-0.3177,-0.9717651918772936
-0.3187000000000001,-0.9813852287163759
-0.3197,-0.9891661408656335
-0.3207000000000001,-0.9939761592851746
-0.3217,-1.0003423601345676
-0.3227000000000001,-1.006142676464014
-0.3237,-1.0132162329633392
-0.3247000000000001,-1.0198653760727048
-0.3257,-1.024675394492246
-0.3267000000000001,-1.0277877593519493
-0.3277,-1.0310415953416388
-0.3287000000000001,-1.0338710179413688
-0.3297,-1.036134556021153
-0.3307000000000001,-1.0379736807109774
-0.3317,-1.0388225074908966
-0.3327000000000001,-1.0396713342708155
-0.3337,-1.0388225074908966
-0.3347000000000001,-1.0352857292412339
-0.3357,-1.0342954313313282
-0.3367000000000001,-1.0321733643815307
-0.3377,-1.0306171819516792
-0.3387000000000001,-1.0297683551717602
-0.3397,-1.0266559903120571
-0.3407000000000001,-1.0250998078822056
-0.3417,-1.0208556739826105
-0.3427000000000001,-1.0166115400830154
-0.3437,-1.0129332907033664
-0.3447000000000001,-1.0082647434138117
-0.3457,-1.0037376672542435
-0.3467000000000001,-0.9980788220547833
-0.3477,-0.9910052655554581
-0.3487000000000001,-0.9878929006957552
-0.3497,-0.9840731801861196
-0.3507000000000001,-0.9795461040265513
-0.3517,-0.9744531433470374
-0.3527000000000001,-0.9695016537975096
-0.3537,-0.9632769240781034
-0.3547000000000001,-0.9584669056585623
-0.3557,-0.9522421759391562
-0.35670000000000013,-0.947149215259642
-0.3577,-0.9420562545801279
-0.35870000000000013,-0.9376706495505462
-0.3597,-0.9301726796612616
-0.36070000000000013,-0.926070016891653
-0.3617,-0.9216844118620713
-0.3626999999999999,-0.9178646913524358
-0.3637,-0.9158840955326246
-0.3646999999999999,-0.9107911348531107
-0.3657,-0.9078202411233941
-0.3666999999999999,-0.9042834628737314
-0.3677,-0.9040005206137584
-0.3686999999999999,-0.9028687515738664
-0.36970000000000003,-0.9013125691440148
-0.3706999999999999,-0.9025858093138934
-0.37170000000000003,-0.903010222703853
-0.3726999999999999,-0.9040005206137584
-0.37370000000000003,-0.907254356603448
-0.3746999999999999,-0.9116399616330296
-0.37570000000000003,-0.9158840955326246
-0.3766999999999999,-0.9184305758723817
-0.37770000000000004,-0.9242308922018284
-0.3786999999999999,-0.9291823817513559
-0.37970000000000004,-0.9354071114707622
-0.3806999999999999,-0.9424806679700873
-0.38170000000000004,-0.9489883399494666
-0.38269999999999993,-0.9557789541888188
-0.38370000000000004,-0.9652575198979146
-0.38469999999999993,-0.9744531433470374
-0.38570000000000004,-0.9835072956661735
-0.38669999999999993,-0.9934102747652287
-0.38770000000000004,-1.0038791383842298
-0.38869999999999993,-1.0149138865231773
-0.38970000000000005,-1.0245339233622595
-0.39069999999999994,-1.0338710179413688
-0.39170000000000005,-1.0467448907701407
-0.39269999999999994,-1.0574966966491148
-0.39370000000000005,-1.070370569477887
-0.39469999999999994,-1.0826785577867126
-0.39570000000000005,-1.0914497678458759
-0.39669999999999994,-1.1046065829346206
-0.39770000000000005,-1.1191781093232305
-0.39869999999999994,-1.1336081645818537
-0.39970000000000006,-1.1474723353205312
-0.40069999999999995,-1.1613365060592085
-0.40170000000000006,-1.1764739169677645
-0.40269999999999995,-1.191186914486361
-0.40370000000000006,-1.2058999120049574
-0.40469999999999995,-1.2221690919534054
-0.40570000000000006,-1.2370235606019881
-0.40669999999999995,-1.2540000962003686
-0.40770000000000006,-1.2697033916288705
-0.40869999999999995,-1.2859725715773183
-0.40970000000000006,-1.3022417515257663
-0.41069999999999995,-1.3195012293841197
-0.41170000000000007,-1.3387413030622841
-0.41269999999999996,-1.3578399056104622
-0.41370000000000007,-1.3762311525087079
-0.41469999999999996,-1.3956126973168586
-0.41570000000000007,-1.4147112998650369
-0.41669999999999996,-1.4373466806628774
-0.41770000000000007,-1.4571526388609877
-0.41869999999999996,-1.4769585970590984
-0.4197000000000001,-1.499593977856939
-0.42069999999999996,-1.5208146473549145
-0.4217000000000001,-1.5363764716534298
-0.42269999999999996,-1.5575971411514054
-0.4237000000000001,-1.5816472332491107
-0.42469999999999997,-1.6056973253468165
-0.4257000000000001,-1.626917994844792
-0.42669999999999997,-1.6467239530429028
-0.4277000000000001,-1.6693593338407433
-0.42869999999999997,-1.6919947146385839
-0.4297000000000001,-1.7146300954364246
-0.43069999999999997,-1.7358507649344
-0.4317000000000001,-1.7599008570321055
-0.4327,-1.7839509491298113
-0.4337000000000001,-1.8080010412275167
-0.4347,-1.8306364220253575
-0.4357000000000001,-1.8518570915233332
-0.4367,-1.8759071836210386
-0.4377000000000001,-1.8999572757187444
-0.4387,-1.9282515017160449
-0.4397000000000001,-1.9523015938137507
-0.4407,-1.9777663972113213
-0.4417000000000001,-2.004645911908757
-0.4427,-2.0315254266061924
-0.4437000000000001,-2.0569902300037635
-0.4447,-2.083869744701199
-0.4457000000000001,-2.110749259398635
-0.4467,-2.13762877409607
-0.4477000000000001,-2.1630935774936413
-0.4487,-2.1899730921910767
-0.4497000000000001,-2.2126084729889177
-0.4507,-2.2409026989862184
-0.4517000000000001,-2.2706116362833835
-0.4527,-2.298905862280684
-0.4537000000000001,-2.3257853769781205
-0.4547,-2.355494314275286
-0.4557000000000001,-2.383788540272587
-0.4567,-2.4106680549700226
-0.4577000000000001,-2.438962280967323
-0.4587,-2.465841795664759
-0.4597000000000001,-2.49696544426179
-0.4607,-2.5280890928588207
-0.4617000000000001,-2.5535538962563913
-0.4627,-2.583262833553557
-0.4637000000000001,-2.6129717708507227
-0.4647,-2.6455101307476188
-0.4657000000000001,-2.6794632019443796
-0.4667,-2.709172139241545
-0.4677000000000001,-2.740295787838576
-0.4687,-2.7742488590353367
-0.4697000000000001,-2.8053725076323675
-0.4707,-2.840740290128994
-0.4717000000000001,-2.8761080726256196
-0.4727,-2.9100611438223805
-0.4737000000000001,-2.945428926319006
-0.4747,-2.9694790184167124
-0.4757000000000001,-2.994943821814283
-0.4767,-3.0260674704113137
-0.4777000000000001,-3.0656793868075347
-0.4787,-3.1081207258034858
-0.4797000000000001,-3.1392443744005165
-0.4807,-3.1760268681970074
-0.48170000000000013,-3.211394650693633
-0.4827,-3.246762433190259
-0.48370000000000013,-3.2821302156868852
-0.4847,-3.316083286883646
-0.48570000000000013,-3.3542804919800018
-0.4867,-3.313253864283916
-0.48570000000000013,-3.2368594540912037
-0.4847,-3.168953311697682
-0.48370000000000013,-3.1024618806040256
-0.4827,-3.043044006009694
-0.48170000000000013,-2.989284976614823
-0.4807,-2.932696524620221
-0.4797000000000001,-2.8732786500258896
-0.4787,-2.813860775431558
