Sept. 8, 2024   06:17:31
Cyclic Voltammetry
File: c:/users/guazh/data/20240903_batch_252_500/2024-09-03-exp295\exp295-2024-09-08t06_12_36-h2koh\exp295_cv_50mvs_efin_-1400mv.bin
Data Source:  Experiment
Instrument Model:  CHI760E
Header: CV ran at 50 mVs
Note: 

Init E (V) = -1
High E (V) = -1
Low E (V) = -1.4
Final E (V) = -1
Init P/N = N
Scan Rate (V/s) = 0.05
Segment = 7
Sample Interval (V) = 0.001
Quiet Time (sec) = 60
Sensitivity (A/V) = 0.001
Comp R (ohm) = 2.7

Results:

Channel 1:
Segment 1:
Ep = -1.142V
ip = 1.011e-4A
Ah = 9.759e-5C

Segment 2:

Segment 3:

Segment 4:

Segment 5:

Segment 6:

Segment 7:

Potential/V, Current/A

-1.000, 7.123e-6
-1.001, 8.468e-6
-1.002, 8.920e-6
-1.003, 9.031e-6
-1.004, 9.304e-6
-1.005, 9.744e-6
-1.006, 1.010e-5
-1.007, 1.043e-5
-1.008, 1.062e-5
-1.009, 1.084e-5
-1.010, 1.120e-5
-1.011, 1.136e-5
-1.012, 1.170e-5
-1.013, 1.188e-5
-1.014, 1.213e-5
-1.015, 1.255e-5
-1.016, 1.286e-5
-1.017, 1.291e-5
-1.018, 1.309e-5
-1.019, 1.331e-5
-1.020, 1.368e-5
-1.021, 1.392e-5
-1.022, 1.416e-5
-1.023, 1.451e-5
-1.024, 1.472e-5
-1.025, 1.495e-5
-1.026, 1.531e-5
-1.027, 1.558e-5
-1.028, 1.588e-5
-1.029, 1.617e-5
-1.030, 1.636e-5
-1.031, 1.700e-5
-1.032, 1.720e-5
-1.033, 1.744e-5
-1.034, 1.765e-5
-1.035, 1.801e-5
-1.036, 1.854e-5
-1.037, 1.886e-5
-1.038, 1.917e-5
-1.039, 1.964e-5
-1.040, 1.992e-5
-1.041, 2.046e-5
-1.042, 2.090e-5
-1.043, 2.135e-5
-1.044, 2.175e-5
-1.045, 2.226e-5
-1.046, 2.294e-5
-1.047, 2.338e-5
-1.048, 2.388e-5
-1.049, 2.429e-5
-1.050, 2.486e-5
-1.051, 2.555e-5
-1.052, 2.608e-5
-1.053, 2.680e-5
-1.054, 2.732e-5
-1.055, 2.800e-5
-1.056, 2.883e-5
-1.057, 2.943e-5
-1.058, 3.028e-5
-1.059, 3.083e-5
-1.060, 3.164e-5
-1.061, 3.257e-5
-1.062, 3.332e-5
-1.063, 3.436e-5
-1.064, 3.503e-5
-1.065, 3.603e-5
-1.066, 3.708e-5
-1.067, 3.808e-5
-1.068, 3.909e-5
-1.069, 4.005e-5
-1.070, 4.120e-5
-1.071, 4.242e-5
-1.072, 4.363e-5
-1.073, 4.463e-5
-1.074, 4.576e-5
-1.075, 4.713e-5
-1.076, 4.846e-5
-1.077, 4.972e-5
-1.078, 5.093e-5
-1.079, 5.243e-5
-1.080, 5.375e-5
-1.081, 5.536e-5
-1.082, 5.696e-5
-1.083, 5.827e-5
-1.084, 5.981e-5
-1.085, 6.146e-5
-1.086, 6.323e-5
-1.087, 6.487e-5
-1.088, 6.636e-5
-1.089, 6.794e-5
-1.090, 6.992e-5
-1.091, 7.173e-5
-1.092, 7.364e-5
-1.093, 7.540e-5
-1.094, 7.725e-5
-1.095, 7.929e-5
-1.096, 8.122e-5
-1.097, 8.323e-5
-1.098, 8.531e-5
-1.099, 8.739e-5
-1.100, 8.941e-5
-1.101, 9.146e-5
-1.102, 9.371e-5
-1.103, 9.577e-5
-1.104, 9.751e-5
-1.105, 9.937e-5
-1.106, 1.015e-4
-1.107, 1.033e-4
-1.108, 1.056e-4
-1.109, 1.077e-4
-1.110, 1.097e-4
-1.111, 1.120e-4
-1.112, 1.141e-4
-1.113, 1.159e-4
-1.114, 1.181e-4
-1.115, 1.199e-4
-1.116, 1.220e-4
-1.117, 1.239e-4
-1.118, 1.256e-4
-1.119, 1.273e-4
-1.120, 1.290e-4
-1.121, 1.299e-4
-1.122, 1.323e-4
-1.123, 1.334e-4
-1.124, 1.345e-4
-1.125, 1.356e-4
-1.126, 1.373e-4
-1.127, 1.387e-4
-1.128, 1.397e-4
-1.129, 1.409e-4
-1.130, 1.421e-4
-1.131, 1.430e-4
-1.132, 1.439e-4
-1.133, 1.447e-4
-1.134, 1.454e-4
-1.135, 1.460e-4
-1.136, 1.466e-4
-1.137, 1.470e-4
-1.138, 1.463e-4
-1.139, 1.467e-4
-1.140, 1.462e-4
-1.141, 1.468e-4
-1.142, 1.471e-4
-1.143, 1.468e-4
-1.144, 1.463e-4
-1.145, 1.462e-4
-1.146, 1.460e-4
-1.147, 1.456e-4
-1.148, 1.450e-4
-1.149, 1.443e-4
-1.150, 1.439e-4
-1.151, 1.431e-4
-1.152, 1.422e-4
-1.153, 1.413e-4
-1.154, 1.403e-4
-1.155, 1.393e-4
-1.156, 1.389e-4
-1.157, 1.378e-4
-1.158, 1.368e-4
-1.159, 1.358e-4
-1.160, 1.348e-4
-1.161, 1.339e-4
-1.162, 1.327e-4
-1.163, 1.317e-4
-1.164, 1.306e-4
-1.165, 1.296e-4
-1.166, 1.284e-4
-1.167, 1.273e-4
-1.168, 1.260e-4
-1.169, 1.243e-4
-1.170, 1.230e-4
-1.171, 1.220e-4
-1.172, 1.214e-4
-1.173, 1.205e-4
-1.174, 1.193e-4
-1.175, 1.183e-4
-1.176, 1.175e-4
-1.177, 1.164e-4
-1.178, 1.153e-4
-1.179, 1.142e-4
-1.180, 1.134e-4
-1.181, 1.125e-4
-1.182, 1.114e-4
-1.183, 1.105e-4
-1.184, 1.091e-4
-1.185, 1.084e-4
-1.186, 1.076e-4
-1.187, 1.068e-4
-1.188, 1.059e-4
-1.189, 1.051e-4
-1.190, 1.044e-4
-1.191, 1.037e-4
-1.192, 1.032e-4
-1.193, 1.024e-4
-1.194, 1.018e-4
-1.195, 1.011e-4
-1.196, 1.005e-4
-1.197, 9.999e-5
-1.198, 9.930e-5
-1.199, 9.881e-5
-1.200, 9.811e-5
-1.201, 9.741e-5
-1.202, 9.608e-5
-1.203, 9.569e-5
-1.204, 9.565e-5
-1.205, 9.524e-5
-1.206, 9.487e-5
-1.207, 9.449e-5
-1.208, 9.388e-5
-1.209, 9.348e-5
-1.210, 9.307e-5
-1.211, 9.268e-5
-1.212, 9.243e-5
-1.213, 9.197e-5
-1.214, 9.156e-5
-1.215, 9.126e-5
-1.216, 9.046e-5
-1.217, 9.051e-5
-1.218, 9.038e-5
-1.219, 8.974e-5
-1.220, 8.941e-5
-1.221, 8.910e-5
-1.222, 8.869e-5
-1.223, 8.860e-5
-1.224, 8.827e-5
-1.225, 8.820e-5
-1.226, 8.792e-5
-1.227, 8.764e-5
-1.228, 8.769e-5
-1.229, 8.734e-5
-1.230, 8.711e-5
-1.231, 8.688e-5
-1.232, 8.664e-5
-1.233, 8.638e-5
-1.234, 8.632e-5
-1.235, 8.580e-5
-1.236, 8.623e-5
-1.237, 8.553e-5
-1.238, 8.504e-5
-1.239, 8.496e-5
-1.240, 8.491e-5
-1.241, 8.477e-5
-1.242, 8.475e-5
-1.243, 8.453e-5
-1.244, 8.434e-5
-1.245, 8.442e-5
-1.246, 8.427e-5
-1.247, 8.413e-5
-1.248, 8.423e-5
-1.249, 8.408e-5
-1.250, 8.424e-5
-1.251, 8.400e-5
-1.252, 8.386e-5
-1.253, 8.342e-5
-1.254, 8.317e-5
-1.255, 8.334e-5
-1.256, 8.349e-5
-1.257, 8.357e-5
-1.258, 8.356e-5
-1.259, 8.348e-5
-1.260, 8.372e-5
-1.261, 8.363e-5
-1.262, 8.378e-5
-1.263, 8.362e-5
-1.264, 8.354e-5
-1.265, 8.373e-5
-1.266, 8.379e-5
-1.267, 8.386e-5
-1.268, 8.340e-5
-1.269, 8.355e-5
-1.270, 8.378e-5
-1.271, 8.394e-5
-1.272, 8.387e-5
-1.273, 8.399e-5
-1.274, 8.420e-5
-1.275, 8.435e-5
-1.276, 8.465e-5
-1.277, 8.472e-5
-1.278, 8.498e-5
-1.279, 8.511e-5
-1.280, 8.534e-5
-1.281, 8.548e-5
-1.282, 8.578e-5
-1.283, 8.593e-5
-1.284, 8.576e-5
-1.285, 8.564e-5
-1.286, 8.606e-5
-1.287, 8.663e-5
-1.288, 8.673e-5
-1.289, 8.705e-5
-1.290, 8.749e-5
-1.291, 8.778e-5
-1.292, 8.814e-5
-1.293, 8.839e-5
-1.294, 8.876e-5
-1.295, 8.920e-5
-1.296, 8.965e-5
-1.297, 9.002e-5
-1.298, 9.039e-5
-1.299, 9.086e-5
-1.300, 9.092e-5
-1.301, 9.121e-5
-1.302, 9.139e-5
-1.303, 9.185e-5
-1.304, 9.260e-5
-1.305, 9.326e-5
-1.306, 9.401e-5
-1.307, 9.455e-5
-1.308, 9.504e-5
-1.309, 9.582e-5
-1.310, 9.643e-5
-1.311, 9.706e-5
-1.312, 9.760e-5
-1.313, 9.825e-5
-1.314, 9.911e-5
-1.315, 9.965e-5
-1.316, 9.998e-5
-1.317, 1.009e-4
-1.318, 1.019e-4
-1.319, 1.027e-4
-1.320, 1.038e-4
-1.321, 1.049e-4
-1.322, 1.060e-4
-1.323, 1.070e-4
-1.324, 1.081e-4
-1.325, 1.095e-4
-1.326, 1.107e-4
-1.327, 1.119e-4
-1.328, 1.129e-4
-1.329, 1.140e-4
-1.330, 1.153e-4
-1.331, 1.166e-4
-1.332, 1.185e-4
-1.333, 1.200e-4
-1.334, 1.216e-4
-1.335, 1.236e-4
-1.336, 1.256e-4
-1.337, 1.277e-4
-1.338, 1.299e-4
-1.339, 1.320e-4
-1.340, 1.346e-4
-1.341, 1.372e-4
-1.342, 1.396e-4
-1.343, 1.423e-4
-1.344, 1.453e-4
-1.345, 1.488e-4
-1.346, 1.521e-4
-1.347, 1.558e-4
-1.348, 1.596e-4
-1.349, 1.634e-4
-1.350, 1.675e-4
-1.351, 1.717e-4
-1.352, 1.762e-4
-1.353, 1.811e-4
-1.354, 1.859e-4
-1.355, 1.907e-4
-1.356, 1.959e-4
-1.357, 2.010e-4
-1.358, 2.040e-4
-1.359, 2.098e-4
-1.360, 2.153e-4
-1.361, 2.208e-4
-1.362, 2.262e-4
-1.363, 2.313e-4
-1.364, 2.365e-4
-1.365, 2.415e-4
-1.366, 2.459e-4
-1.367, 2.506e-4
-1.368, 2.550e-4
-1.369, 2.598e-4
-1.370, 2.649e-4
-1.371, 2.690e-4
-1.372, 2.730e-4
-1.373, 2.769e-4
-1.374, 2.805e-4
-1.375, 2.835e-4
-1.376, 2.849e-4
-1.377, 2.867e-4
-1.378, 2.903e-4
-1.379, 2.939e-4
-1.380, 2.961e-4
-1.381, 2.983e-4
-1.382, 3.000e-4
-1.383, 3.020e-4
-1.384, 3.035e-4
-1.385, 3.049e-4
-1.386, 3.062e-4
-1.387, 3.074e-4
-1.388, 3.082e-4
-1.389, 3.087e-4
-1.390, 3.093e-4
-1.391, 3.097e-4
-1.392, 3.089e-4
-1.393, 3.077e-4
-1.394, 3.072e-4
-1.395, 3.081e-4
-1.396, 3.092e-4
-1.397, 3.094e-4
-1.398, 3.101e-4
-1.399, 3.107e-4
-1.400, 2.977e-4
-1.399, 2.811e-4
-1.398, 2.667e-4
-1.397, 2.542e-4
-1.396, 2.423e-4
-1.395, 2.315e-4
-1.394, 2.212e-4
-1.393, 2.111e-4
-1.392, 2.024e-4
-1.391, 1.932e-4
-1.390, 1.849e-4
-1.389, 1.781e-4
-1.388, 1.719e-4
-1.387, 1.653e-4
-1.386, 1.593e-4
-1.385, 1.536e-4
-1.384, 1.481e-4
-1.383, 1.428e-4
-1.382, 1.378e-4
-1.381, 1.330e-4
-1.380, 1.284e-4
-1.379, 1.239e-4
-1.378, 1.196e-4
-1.377, 1.155e-4
-1.376, 1.118e-4
-1.375, 1.077e-4
-1.374, 1.039e-4
-1.373, 1.006e-4
-1.372, 9.772e-5
-1.371, 9.455e-5
-1.370, 9.153e-5
-1.369, 8.855e-5
-1.368, 8.568e-5
-1.367, 8.291e-5
-1.366, 8.029e-5
-1.365, 7.765e-5
-1.364, 7.515e-5
-1.363, 7.265e-5
-1.362, 7.009e-5
-1.361, 6.783e-5
-1.360, 6.566e-5
-1.359, 6.344e-5
-1.358, 6.119e-5
-1.357, 5.923e-5
-1.356, 5.733e-5
-1.355, 5.560e-5
-1.354, 5.381e-5
-1.353, 5.211e-5
-1.352, 5.020e-5
-1.351, 4.859e-5
-1.350, 4.702e-5
-1.349, 4.525e-5
-1.348, 4.372e-5
-1.347, 4.208e-5
-1.346, 4.084e-5
-1.345, 3.931e-5
-1.344, 3.789e-5
-1.343, 3.651e-5
-1.342, 3.509e-5
-1.341, 3.402e-5
-1.340, 3.277e-5
-1.339, 3.149e-5
-1.338, 3.027e-5
-1.337, 2.917e-5
-1.336, 2.820e-5
-1.335, 2.718e-5
-1.334, 2.611e-5
-1.333, 2.518e-5
-1.332, 2.418e-5
-1.331, 2.317e-5
-1.330, 2.232e-5
-1.329, 2.140e-5
-1.328, 2.039e-5
-1.327, 1.946e-5
-1.326, 1.851e-5
-1.325, 1.768e-5
-1.324, 1.696e-5
-1.323, 1.600e-5
-1.322, 1.536e-5
-1.321, 1.462e-5
-1.320, 1.399e-5
-1.319, 1.328e-5
-1.318, 1.238e-5
-1.317, 1.181e-5
-1.316, 1.111e-5
-1.315, 1.052e-5
-1.314, 9.859e-6
-1.313, 8.980e-6
-1.312, 8.506e-6
-1.311, 7.748e-6
-1.310, 7.268e-6
-1.309, 6.753e-6
-1.308, 6.039e-6
-1.307, 5.473e-6
-1.306, 4.868e-6
-1.305, 4.365e-6
-1.304, 3.824e-6
-1.303, 3.370e-6
-1.302, 2.739e-6
-1.301, 2.335e-6
-1.300, 2.028e-6
-1.299, 1.408e-6
-1.298, 8.473e-7
-1.297, 3.570e-7
-1.296, -1.837e-7
-1.295, -6.504e-7
-1.294, -1.344e-6
-1.293, -1.585e-6
-1.292, -1.986e-6
-1.291, -2.478e-6
-1.290, -2.869e-6
-1.289, -3.405e-6
-1.288, -3.728e-6
-1.287, -4.168e-6
-1.286, -4.407e-6
-1.285, -4.650e-6
-1.284, -5.204e-6
-1.283, -5.676e-6
-1.282, -6.137e-6
-1.281, -6.440e-6
-1.280, -6.927e-6
-1.279, -7.432e-6
-1.278, -7.890e-6
-1.277, -8.309e-6
-1.276, -8.349e-6
-1.275, -8.815e-6
-1.274, -9.190e-6
-1.273, -9.728e-6
-1.272, -1.005e-5
-1.271, -1.027e-5
-1.270, -1.066e-5
-1.269, -1.092e-5
-1.268, -1.126e-5
-1.267, -1.178e-5
-1.266, -1.195e-5
-1.265, -1.250e-5
-1.264, -1.272e-5
-1.263, -1.316e-5
-1.262, -1.360e-5
-1.261, -1.380e-5
-1.260, -1.424e-5
-1.259, -1.457e-5
-1.258, -1.500e-5
-1.257, -1.546e-5
-1.256, -1.556e-5
-1.255, -1.581e-5
-1.254, -1.608e-5
-1.253, -1.652e-5
-1.252, -1.695e-5
-1.251, -1.710e-5
-1.250, -1.743e-5
-1.249, -1.768e-5
-1.248, -1.802e-5
-1.247, -1.830e-5
-1.246, -1.863e-5
-1.245, -1.893e-5
-1.244, -1.935e-5
-1.243, -1.979e-5
-1.242, -1.999e-5
-1.241, -2.028e-5
-1.240, -2.057e-5
-1.239, -2.085e-5
-1.238, -2.118e-5
-1.237, -2.150e-5
-1.236, -2.194e-5
-1.235, -2.233e-5
-1.234, -2.261e-5
-1.233, -2.307e-5
-1.232, -2.341e-5
-1.231, -2.364e-5
-1.230, -2.382e-5
-1.229, -2.409e-5
-1.228, -2.435e-5
-1.227, -2.466e-5
-1.226, -2.496e-5
-1.225, -2.513e-5
-1.224, -2.534e-5
-1.223, -2.550e-5
-1.222, -2.566e-5
-1.221, -2.601e-5
-1.220, -2.604e-5
-1.219, -2.641e-5
-1.218, -2.658e-5
-1.217, -2.664e-5
-1.216, -2.677e-5
-1.215, -2.679e-5
-1.214, -2.706e-5
-1.213, -2.709e-5
-1.212, -2.710e-5
-1.211, -2.730e-5
-1.210, -2.718e-5
-1.209, -2.735e-5
-1.208, -2.750e-5
-1.207, -2.748e-5
-1.206, -2.769e-5
-1.205, -2.763e-5
-1.204, -2.782e-5
-1.203, -2.789e-5
-1.202, -2.786e-5
-1.201, -2.784e-5
-1.200, -2.798e-5
-1.199, -2.812e-5
-1.198, -2.816e-5
-1.197, -2.808e-5
-1.196, -2.803e-5
-1.195, -2.806e-5
-1.194, -2.791e-5
-1.193, -2.794e-5
-1.192, -2.793e-5
-1.191, -2.780e-5
-1.190, -2.801e-5
-1.189, -2.789e-5
-1.188, -2.785e-5
-1.187, -2.796e-5
-1.186, -2.777e-5
-1.185, -2.769e-5
-1.184, -2.760e-5
-1.183, -2.753e-5
-1.182, -2.751e-5
-1.181, -2.738e-5
-1.180, -2.732e-5
-1.179, -2.737e-5
-1.178, -2.732e-5
-1.177, -2.721e-5
-1.176, -2.707e-5
-1.175, -2.705e-5
-1.174, -2.725e-5
-1.173, -2.723e-5
-1.172, -2.745e-5
-1.171, -2.749e-5
-1.170, -2.776e-5
-1.169, -2.803e-5
-1.168, -2.840e-5
-1.167, -2.877e-5
-1.166, -2.908e-5
-1.165, -2.948e-5
-1.164, -2.979e-5
-1.163, -3.015e-5
-1.162, -3.016e-5
-1.161, -3.012e-5
-1.160, -2.987e-5
-1.159, -2.939e-5
-1.158, -2.913e-5
-1.157, -2.875e-5
-1.156, -2.833e-5
-1.155, -2.813e-5
-1.154, -2.796e-5
-1.153, -2.779e-5
-1.152, -2.753e-5
-1.151, -2.705e-5
-1.150, -2.674e-5
-1.149, -2.645e-5
-1.148, -2.612e-5
-1.147, -2.586e-5
-1.146, -2.554e-5
-1.145, -2.523e-5
-1.144, -2.514e-5
-1.143, -2.514e-5
-1.142, -2.461e-5
-1.141, -2.425e-5
-1.140, -2.428e-5
-1.139, -2.423e-5
-1.138, -2.398e-5
-1.137, -2.373e-5
-1.136, -2.337e-5
-1.135, -2.299e-5
-1.134, -2.288e-5
-1.133, -2.242e-5
-1.132, -2.217e-5
-1.131, -2.197e-5
-1.130, -2.176e-5
-1.129, -2.181e-5
-1.128, -2.153e-5
-1.127, -2.138e-5
-1.126, -2.146e-5
-1.125, -2.086e-5
-1.124, -2.061e-5
-1.123, -2.046e-5
-1.122, -2.029e-5
-1.121, -2.015e-5
-1.120, -1.994e-5
-1.119, -2.000e-5
-1.118, -1.986e-5
-1.117, -1.964e-5
-1.116, -1.949e-5
-1.115, -1.929e-5
-1.114, -1.924e-5
-1.113, -1.917e-5
-1.112, -1.910e-5
-1.111, -1.899e-5
-1.110, -1.888e-5
-1.109, -1.885e-5
-1.108, -1.887e-5
-1.107, -1.886e-5
-1.106, -1.890e-5
-1.105, -1.890e-5
-1.104, -1.892e-5
-1.103, -1.883e-5
-1.102, -1.865e-5
-1.101, -1.863e-5
-1.100, -1.852e-5
-1.099, -1.845e-5
-1.098, -1.838e-5
-1.097, -1.824e-5
-1.096, -1.817e-5
-1.095, -1.811e-5
-1.094, -1.809e-5
-1.093, -1.807e-5
-1.092, -1.793e-5
-1.091, -1.801e-5
-1.090, -1.791e-5
-1.089, -1.776e-5
-1.088, -1.778e-5
-1.087, -1.750e-5
-1.086, -1.768e-5
-1.085, -1.775e-5
-1.084, -1.787e-5
-1.083, -1.805e-5
-1.082, -1.792e-5
-1.081, -1.790e-5
-1.080, -1.779e-5
-1.079, -1.775e-5
-1.078, -1.790e-5
-1.077, -1.777e-5
-1.076, -1.779e-5
-1.075, -1.791e-5
-1.074, -1.793e-5
-1.073, -1.806e-5
-1.072, -1.795e-5
-1.071, -1.785e-5
-1.070, -1.793e-5
-1.069, -1.792e-5
-1.068, -1.823e-5
-1.067, -1.834e-5
-1.066, -1.847e-5
-1.065, -1.865e-5
-1.064, -1.868e-5
-1.063, -1.899e-5
-1.062, -1.894e-5
-1.061, -1.895e-5
-1.060, -1.894e-5
-1.059, -1.910e-5
-1.058, -1.929e-5
-1.057, -1.941e-5
-1.056, -1.954e-5
-1.055, -1.968e-5
-1.054, -1.992e-5
-1.053, -2.012e-5
-1.052, -2.027e-5
-1.051, -2.031e-5
-1.050, -2.025e-5
-1.049, -2.060e-5
-1.048, -2.084e-5
-1.047, -2.111e-5
-1.046, -2.141e-5
-1.045, -2.173e-5
-1.044, -2.204e-5
-1.043, -2.226e-5
-1.042, -2.252e-5
-1.041, -2.281e-5
-1.040, -2.301e-5
-1.039, -2.347e-5
-1.038, -2.390e-5
-1.037, -2.423e-5
-1.036, -2.454e-5
-1.035, -2.485e-5
-1.034, -2.528e-5
-1.033, -2.562e-5
-1.032, -2.587e-5
-1.031, -2.640e-5
-1.030, -2.688e-5
-1.029, -2.740e-5
-1.028, -2.792e-5
-1.027, -2.840e-5
-1.026, -2.893e-5
-1.025, -2.980e-5
-1.024, -2.984e-5
-1.023, -3.025e-5
-1.022, -3.093e-5
-1.021, -3.138e-5
-1.020, -3.195e-5
-1.019, -3.273e-5
-1.018, -3.325e-5
-1.017, -3.391e-5
-1.016, -3.442e-5
-1.015, -3.500e-5
-1.014, -3.576e-5
-1.013, -3.629e-5
-1.012, -3.694e-5
-1.011, -3.762e-5
-1.010, -3.831e-5
-1.009, -3.909e-5
-1.008, -3.962e-5
-1.007, -4.039e-5
-1.006, -4.131e-5
-1.005, -4.192e-5
-1.004, -4.286e-5
-1.003, -4.365e-5
-1.002, -4.428e-5
-1.001, -4.518e-5
-1.000, -3.808e-5
-1.001, -3.344e-5
-1.002, -3.057e-5
-1.003, -2.815e-5
-1.004, -2.602e-5
-1.005, -2.399e-5
-1.006, -2.238e-5
-1.007, -2.077e-5
-1.008, -1.917e-5
-1.009, -1.779e-5
-1.010, -1.644e-5
-1.011, -1.539e-5
-1.012, -1.416e-5
-1.013, -1.297e-5
-1.014, -1.202e-5
-1.015, -1.099e-5
-1.016, -1.011e-5
-1.017, -9.178e-6
-1.018, -8.199e-6
-1.019, -7.428e-6
-1.020, -6.649e-6
-1.021, -5.951e-6
-1.022, -5.230e-6
-1.023, -4.272e-6
-1.024, -3.897e-6
-1.025, -3.266e-6
-1.026, -2.580e-6
-1.027, -2.130e-6
-1.028, -1.550e-6
-1.029, -1.068e-6
-1.030, -5.882e-7
-1.031, -1.571e-7
-1.032, 2.701e-7
-1.033, 7.723e-7
-1.034, 1.182e-6
-1.035, 1.545e-6
-1.036, 1.899e-6
-1.037, 2.264e-6
-1.038, 2.681e-6
-1.039, 3.082e-6
-1.040, 3.484e-6
-1.041, 3.739e-6
-1.042, 3.823e-6
-1.043, 4.066e-6
-1.044, 4.319e-6
-1.045, 4.464e-6
-1.046, 4.735e-6
-1.047, 4.830e-6
-1.048, 5.051e-6
-1.049, 5.321e-6
-1.050, 5.404e-6
-1.051, 5.565e-6
-1.052, 5.761e-6
-1.053, 5.917e-6
-1.054, 6.085e-6
-1.055, 6.361e-6
-1.056, 6.648e-6
-1.057, 7.024e-6
-1.058, 7.297e-6
-1.059, 7.361e-6
-1.060, 7.547e-6
-1.061, 7.605e-6
-1.062, 7.545e-6
-1.063, 7.127e-6
-1.064, 7.351e-6
-1.065, 7.327e-6
-1.066, 7.426e-6
-1.067, 7.508e-6
-1.068, 7.598e-6
-1.069, 7.765e-6
-1.070, 7.725e-6
-1.071, 7.876e-6
-1.072, 7.920e-6
-1.073, 7.973e-6
-1.074, 8.250e-6
-1.075, 8.672e-6
-1.076, 8.774e-6
-1.077, 8.890e-6
-1.078, 8.873e-6
-1.079, 8.582e-6
-1.080, 8.462e-6
-1.081, 8.416e-6
-1.082, 8.595e-6
-1.083, 8.586e-6
-1.084, 8.658e-6
-1.085, 8.591e-6
-1.086, 8.734e-6
-1.087, 8.829e-6
-1.088, 8.828e-6
-1.089, 8.934e-6
-1.090, 8.962e-6
-1.091, 8.978e-6
-1.092, 9.097e-6
-1.093, 9.430e-6
-1.094, 9.483e-6
-1.095, 9.299e-6
-1.096, 9.208e-6
-1.097, 9.162e-6
-1.098, 9.391e-6
-1.099, 9.254e-6
-1.100, 9.310e-6
-1.101, 9.396e-6
-1.102, 9.352e-6
-1.103, 9.504e-6
-1.104, 9.472e-6
-1.105, 9.497e-6
-1.106, 9.505e-6
-1.107, 9.465e-6
-1.108, 9.642e-6
-1.109, 9.513e-6
-1.110, 9.665e-6
-1.111, 9.624e-6
-1.112, 9.554e-6
-1.113, 9.789e-6
-1.114, 9.726e-6
-1.115, 9.725e-6
-1.116, 9.799e-6
-1.117, 9.804e-6
-1.118, 9.856e-6
-1.119, 9.893e-6
-1.120, 9.955e-6
-1.121, 9.929e-6
-1.122, 1.012e-5
-1.123, 1.020e-5
-1.124, 1.027e-5
-1.125, 1.023e-5
-1.126, 1.003e-5
-1.127, 1.025e-5
-1.128, 1.019e-5
-1.129, 1.024e-5
-1.130, 1.029e-5
-1.131, 1.027e-5
-1.132, 1.026e-5
-1.133, 1.043e-5
-1.134, 1.041e-5
-1.135, 1.047e-5
-1.136, 1.048e-5
-1.137, 1.055e-5
-1.138, 1.077e-5
-1.139, 1.086e-5
-1.140, 1.086e-5
-1.141, 1.108e-5
-1.142, 1.115e-5
-1.143, 1.098e-5
-1.144, 1.094e-5
-1.145, 1.094e-5
-1.146, 1.095e-5
-1.147, 1.104e-5
-1.148, 1.115e-5
-1.149, 1.124e-5
-1.150, 1.111e-5
-1.151, 1.122e-5
-1.152, 1.132e-5
-1.153, 1.149e-5
-1.154, 1.164e-5
-1.155, 1.164e-5
-1.156, 1.184e-5
-1.157, 1.211e-5
-1.158, 1.238e-5
-1.159, 1.234e-5
-1.160, 1.204e-5
-1.161, 1.208e-5
-1.162, 1.205e-5
-1.163, 1.202e-5
-1.164, 1.217e-5
-1.165, 1.209e-5
-1.166, 1.217e-5
-1.167, 1.226e-5
-1.168, 1.222e-5
-1.169, 1.233e-5
-1.170, 1.236e-5
-1.171, 1.239e-5
-1.172, 1.238e-5
-1.173, 1.258e-5
-1.174, 1.284e-5
-1.175, 1.307e-5
-1.176, 1.320e-5
-1.177, 1.309e-5
-1.178, 1.288e-5
-1.179, 1.283e-5
-1.180, 1.280e-5
-1.181, 1.292e-5
-1.182, 1.298e-5
-1.183, 1.305e-5
-1.184, 1.307e-5
-1.185, 1.314e-5
-1.186, 1.320e-5
-1.187, 1.321e-5
-1.188, 1.339e-5
-1.189, 1.344e-5
-1.190, 1.339e-5
-1.191, 1.356e-5
-1.192, 1.360e-5
-1.193, 1.365e-5
-1.194, 1.386e-5
-1.195, 1.385e-5
-1.196, 1.390e-5
-1.197, 1.411e-5
-1.198, 1.415e-5
-1.199, 1.429e-5
-1.200, 1.441e-5
-1.201, 1.439e-5
-1.202, 1.461e-5
-1.203, 1.469e-5
-1.204, 1.484e-5
-1.205, 1.510e-5
-1.206, 1.503e-5
-1.207, 1.531e-5
-1.208, 1.529e-5
-1.209, 1.538e-5
-1.210, 1.559e-5
-1.211, 1.561e-5
-1.212, 1.581e-5
-1.213, 1.601e-5
-1.214, 1.607e-5
-1.215, 1.629e-5
-1.216, 1.625e-5
-1.217, 1.653e-5
-1.218, 1.687e-5
-1.219, 1.688e-5
-1.220, 1.700e-5
-1.221, 1.709e-5
-1.222, 1.736e-5
-1.223, 1.770e-5
-1.224, 1.778e-5
-1.225, 1.797e-5
-1.226, 1.815e-5
-1.227, 1.842e-5
-1.228, 1.868e-5
-1.229, 1.875e-5
-1.230, 1.888e-5
-1.231, 1.913e-5
-1.232, 1.941e-5
-1.233, 1.964e-5
-1.234, 1.990e-5
-1.235, 2.009e-5
-1.236, 2.028e-5
-1.237, 2.057e-5
-1.238, 2.089e-5
-1.239, 2.111e-5
-1.240, 2.133e-5
-1.241, 2.162e-5
-1.242, 2.185e-5
-1.243, 2.219e-5
-1.244, 2.244e-5
-1.245, 2.266e-5
-1.246, 2.292e-5
-1.247, 2.329e-5
-1.248, 2.363e-5
-1.249, 2.399e-5
-1.250, 2.425e-5
-1.251, 2.455e-5
-1.252, 2.487e-5
-1.253, 2.528e-5
-1.254, 2.566e-5
-1.255, 2.613e-5
-1.256, 2.661e-5
-1.257, 2.685e-5
-1.258, 2.711e-5
-1.259, 2.738e-5
-1.260, 2.781e-5
-1.261, 2.813e-5
-1.262, 2.855e-5
-1.263, 2.911e-5
-1.264, 2.944e-5
-1.265, 2.980e-5
-1.266, 3.039e-5
-1.267, 3.080e-5
-1.268, 3.133e-5
-1.269, 3.171e-5
-1.270, 3.208e-5
-1.271, 3.264e-5
-1.272, 3.312e-5
-1.273, 3.371e-5
-1.274, 3.415e-5
-1.275, 3.460e-5
-1.276, 3.521e-5
-1.277, 3.566e-5
-1.278, 3.615e-5
-1.279, 3.670e-5
-1.280, 3.717e-5
-1.281, 3.777e-5
-1.282, 3.845e-5
-1.283, 3.901e-5
-1.284, 3.958e-5
-1.285, 4.009e-5
-1.286, 4.066e-5
-1.287, 4.139e-5
-1.288, 4.196e-5
-1.289, 4.260e-5
-1.290, 4.321e-5
-1.291, 4.377e-5
-1.292, 4.464e-5
-1.293, 4.534e-5
-1.294, 4.572e-5
-1.295, 4.627e-5
-1.296, 4.699e-5
-1.297, 4.784e-5
-1.298, 4.854e-5
-1.299, 4.910e-5
-1.300, 4.984e-5
-1.301, 5.052e-5
-1.302, 5.130e-5
-1.303, 5.207e-5
-1.304, 5.267e-5
-1.305, 5.336e-5
-1.306, 5.407e-5
-1.307, 5.502e-5
-1.308, 5.575e-5
-1.309, 5.644e-5
-1.310, 5.702e-5
-1.311, 5.808e-5
-1.312, 5.895e-5
-1.313, 5.947e-5
-1.314, 6.008e-5
-1.315, 6.092e-5
-1.316, 6.158e-5
-1.317, 6.241e-5
-1.318, 6.320e-5
-1.319, 6.398e-5
-1.320, 6.470e-5
-1.321, 6.540e-5
-1.322, 6.635e-5
-1.323, 6.694e-5
-1.324, 6.782e-5
-1.325, 6.862e-5
-1.326, 6.939e-5
-1.327, 7.016e-5
-1.328, 7.099e-5
-1.329, 7.191e-5
-1.330, 7.250e-5
-1.331, 7.322e-5
-1.332, 7.408e-5
-1.333, 7.492e-5
-1.334, 7.571e-5
-1.335, 7.644e-5
-1.336, 7.735e-5
-1.337, 7.816e-5
-1.338, 7.908e-5
-1.339, 7.995e-5
-1.340, 8.065e-5
-1.341, 8.155e-5
-1.342, 8.237e-5
-1.343, 8.338e-5
-1.344, 8.408e-5
-1.345, 8.468e-5
-1.346, 8.569e-5
-1.347, 8.652e-5
-1.348, 8.767e-5
-1.349, 8.857e-5
-1.350, 8.940e-5
-1.351, 9.043e-5
-1.352, 9.128e-5
-1.353, 9.238e-5
-1.354, 9.340e-5
-1.355, 9.439e-5
-1.356, 9.545e-5
-1.357, 9.644e-5
-1.358, 9.758e-5
-1.359, 9.850e-5
-1.360, 9.934e-5
-1.361, 1.005e-4
-1.362, 1.017e-4
-1.363, 1.029e-4
-1.364, 1.040e-4
-1.365, 1.051e-4
-1.366, 1.063e-4
-1.367, 1.076e-4
-1.368, 1.090e-4
-1.369, 1.101e-4
-1.370, 1.115e-4
-1.371, 1.128e-4
-1.372, 1.142e-4
-1.373, 1.157e-4
-1.374, 1.169e-4
-1.375, 1.181e-4
-1.376, 1.195e-4
-1.377, 1.206e-4
-1.378, 1.226e-4
-1.379, 1.241e-4
-1.380, 1.257e-4
-1.381, 1.274e-4
-1.382, 1.291e-4
-1.383, 1.309e-4
-1.384, 1.325e-4
-1.385, 1.343e-4
-1.386, 1.363e-4
-1.387, 1.383e-4
-1.388, 1.404e-4
-1.389, 1.423e-4
-1.390, 1.443e-4
-1.391, 1.463e-4
-1.392, 1.483e-4
-1.393, 1.502e-4
-1.394, 1.526e-4
-1.395, 1.551e-4
-1.396, 1.575e-4
-1.397, 1.600e-4
-1.398, 1.625e-4
-1.399, 1.650e-4
-1.400, 1.588e-4
-1.399, 1.526e-4
-1.398, 1.476e-4
-1.397, 1.429e-4
-1.396, 1.383e-4
-1.395, 1.339e-4
-1.394, 1.296e-4
-1.393, 1.249e-4
-1.392, 1.215e-4
-1.391, 1.184e-4
-1.390, 1.148e-4
-1.389, 1.116e-4
-1.388, 1.085e-4
-1.387, 1.053e-4
-1.386, 1.023e-4
-1.385, 9.931e-5
-1.384, 9.655e-5
-1.383, 9.385e-5
-1.382, 9.121e-5
-1.381, 8.870e-5
-1.380, 8.614e-5
-1.379, 8.373e-5
-1.378, 8.141e-5
-1.377, 7.903e-5
-1.376, 7.662e-5
-1.375, 7.445e-5
-1.374, 7.245e-5
-1.373, 7.051e-5
-1.372, 6.865e-5
-1.371, 6.664e-5
-1.370, 6.469e-5
-1.369, 6.286e-5
-1.368, 6.124e-5
-1.367, 5.956e-5
-1.366, 5.786e-5
-1.365, 5.615e-5
-1.364, 5.456e-5
-1.363, 5.302e-5
-1.362, 5.155e-5
-1.361, 4.972e-5
-1.360, 4.821e-5
-1.359, 4.666e-5
-1.358, 4.567e-5
-1.357, 4.442e-5
-1.356, 4.307e-5
-1.355, 4.186e-5
-1.354, 4.073e-5
-1.353, 3.957e-5
-1.352, 3.844e-5
-1.351, 3.725e-5
-1.350, 3.610e-5
-1.349, 3.509e-5
-1.348, 3.406e-5
-1.347, 3.297e-5
-1.346, 3.188e-5
-1.345, 3.081e-5
-1.344, 2.996e-5
-1.343, 2.899e-5
-1.342, 2.801e-5
-1.341, 2.696e-5
-1.340, 2.610e-5
-1.339, 2.518e-5
-1.338, 2.447e-5
-1.337, 2.368e-5
-1.336, 2.281e-5
-1.335, 2.206e-5
-1.334, 2.127e-5
-1.333, 2.060e-5
-1.332, 1.988e-5
-1.331, 1.912e-5
-1.330, 1.842e-5
-1.329, 1.763e-5
-1.328, 1.694e-5
-1.327, 1.622e-5
-1.326, 1.525e-5
-1.325, 1.493e-5
-1.324, 1.451e-5
-1.323, 1.391e-5
-1.322, 1.339e-5
-1.321, 1.275e-5
-1.320, 1.230e-5
-1.319, 1.180e-5
-1.318, 1.120e-5
-1.317, 1.075e-5
-1.316, 1.020e-5
-1.315, 9.726e-6
-1.314, 9.251e-6
-1.313, 8.831e-6
-1.312, 8.309e-6
-1.311, 7.915e-6
-1.310, 7.374e-6
-1.309, 7.010e-6
-1.308, 6.600e-6
-1.307, 6.238e-6
-1.306, 5.879e-6
-1.305, 5.428e-6
-1.304, 5.194e-6
-1.303, 4.823e-6
-1.302, 4.484e-6
-1.301, 4.203e-6
-1.300, 3.746e-6
-1.299, 3.403e-6
-1.298, 3.143e-6
-1.297, 2.432e-6
-1.296, 1.927e-6
-1.295, 1.522e-6
-1.294, 1.201e-6
-1.293, 9.637e-7
-1.292, 1.085e-6
-1.291, 8.621e-7
-1.290, 5.040e-7
-1.289, 3.500e-7
-1.288, 1.636e-7
-1.287, -1.146e-7
-1.286, -3.564e-7
-1.285, -7.500e-7
-1.284, -8.921e-7
-1.283, -1.180e-6
-1.282, -1.425e-6
-1.281, -1.720e-6
-1.280, -2.066e-6
-1.279, -2.241e-6
-1.278, -2.456e-6
-1.277, -2.747e-6
-1.276, -2.913e-6
-1.275, -3.181e-6
-1.274, -3.265e-6
-1.273, -3.454e-6
-1.272, -3.648e-6
-1.271, -3.884e-6
-1.270, -4.213e-6
-1.269, -4.313e-6
-1.268, -4.488e-6
-1.267, -4.744e-6
-1.266, -5.013e-6
-1.265, -5.210e-6
-1.264, -5.530e-6
-1.263, -5.995e-6
-1.262, -6.177e-6
-1.261, -6.038e-6
-1.260, -6.191e-6
-1.259, -6.298e-6
-1.258, -6.373e-6
-1.257, -6.545e-6
-1.256, -6.803e-6
-1.255, -6.952e-6
-1.254, -7.099e-6
-1.253, -7.213e-6
-1.252, -7.403e-6
-1.251, -7.672e-6
-1.250, -7.785e-6
-1.249, -7.974e-6
-1.248, -8.119e-6
-1.247, -8.186e-6
-1.246, -8.330e-6
-1.245, -8.420e-6
-1.244, -8.626e-6
-1.243, -8.718e-6
-1.242, -8.865e-6
-1.241, -9.012e-6
-1.240, -9.081e-6
-1.239, -9.073e-6
-1.238, -9.159e-6
-1.237, -9.257e-6
-1.236, -9.324e-6
-1.235, -9.484e-6
-1.234, -9.583e-6
-1.233, -9.707e-6
-1.232, -9.817e-6
-1.231, -9.921e-6
-1.230, -1.001e-5
-1.229, -1.011e-5
-1.228, -1.010e-5
-1.227, -1.017e-5
-1.226, -1.036e-5
-1.225, -1.049e-5
-1.224, -1.041e-5
-1.223, -1.039e-5
-1.222, -1.057e-5
-1.221, -1.072e-5
-1.220, -1.079e-5
-1.219, -1.078e-5
-1.218, -1.079e-5
-1.217, -1.089e-5
-1.216, -1.098e-5
-1.215, -1.107e-5
-1.214, -1.095e-5
-1.213, -1.103e-5
-1.212, -1.114e-5
-1.211, -1.114e-5
-1.210, -1.115e-5
-1.209, -1.112e-5
-1.208, -1.122e-5
-1.207, -1.126e-5
-1.206, -1.140e-5
-1.205, -1.131e-5
-1.204, -1.131e-5
-1.203, -1.138e-5
-1.202, -1.136e-5
-1.201, -1.145e-5
-1.200, -1.145e-5
-1.199, -1.135e-5
-1.198, -1.146e-5
-1.197, -1.141e-5
-1.196, -1.142e-5
-1.195, -1.144e-5
-1.194, -1.138e-5
-1.193, -1.152e-5
-1.192, -1.132e-5
-1.191, -1.153e-5
-1.190, -1.145e-5
-1.189, -1.135e-5
-1.188, -1.141e-5
-1.187, -1.130e-5
-1.186, -1.143e-5
-1.185, -1.148e-5
-1.184, -1.141e-5
-1.183, -1.136e-5
-1.182, -1.138e-5
-1.181, -1.124e-5
-1.180, -1.130e-5
-1.179, -1.132e-5
-1.178, -1.137e-5
-1.177, -1.146e-5
-1.176, -1.144e-5
-1.175, -1.136e-5
-1.174, -1.138e-5
-1.173, -1.131e-5
-1.172, -1.130e-5
-1.171, -1.126e-5
-1.170, -1.120e-5
-1.169, -1.123e-5
-1.168, -1.113e-5
-1.167, -1.115e-5
-1.166, -1.118e-5
-1.165, -1.108e-5
-1.164, -1.116e-5
-1.163, -1.104e-5
-1.162, -1.106e-5
-1.161, -1.105e-5
-1.160, -1.103e-5
-1.159, -1.095e-5
-1.158, -1.085e-5
-1.157, -1.088e-5
-1.156, -1.094e-5
-1.155, -1.100e-5
-1.154, -1.100e-5
-1.153, -1.113e-5
-1.152, -1.121e-5
-1.151, -1.098e-5
-1.150, -1.064e-5
-1.149, -1.068e-5
-1.148, -1.069e-5
-1.147, -1.075e-5
-1.146, -1.072e-5
-1.145, -1.072e-5
-1.144, -1.061e-5
-1.143, -1.056e-5
-1.142, -1.053e-5
-1.141, -1.052e-5
-1.140, -1.045e-5
-1.139, -1.049e-5
-1.138, -1.040e-5
-1.137, -1.045e-5
-1.136, -1.041e-5
-1.135, -1.039e-5
-1.134, -1.027e-5
-1.133, -1.032e-5
-1.132, -1.025e-5
-1.131, -1.032e-5
-1.130, -1.035e-5
-1.129, -1.030e-5
-1.128, -1.024e-5
-1.127, -1.022e-5
-1.126, -1.026e-5
-1.125, -1.030e-5
-1.124, -1.017e-5
-1.123, -1.018e-5
-1.122, -1.019e-5
-1.121, -1.026e-5
-1.120, -1.025e-5
-1.119, -1.022e-5
-1.118, -1.033e-5
-1.117, -1.033e-5
-1.116, -1.036e-5
-1.115, -1.042e-5
-1.114, -1.038e-5
-1.113, -1.046e-5
-1.112, -1.037e-5
-1.111, -1.042e-5
-1.110, -1.043e-5
-1.109, -1.040e-5
-1.108, -1.045e-5
-1.107, -1.051e-5
-1.106, -1.058e-5
-1.105, -1.056e-5
-1.104, -1.059e-5
-1.103, -1.068e-5
-1.102, -1.074e-5
-1.101, -1.083e-5
-1.100, -1.082e-5
-1.099, -1.082e-5
-1.098, -1.088e-5
-1.097, -1.089e-5
-1.096, -1.100e-5
-1.095, -1.107e-5
-1.094, -1.106e-5
-1.093, -1.113e-5
-1.092, -1.125e-5
-1.091, -1.141e-5
-1.090, -1.141e-5
-1.089, -1.137e-5
-1.088, -1.152e-5
-1.087, -1.163e-5
-1.086, -1.175e-5
-1.085, -1.172e-5
-1.084, -1.181e-5
-1.083, -1.195e-5
-1.082, -1.209e-5
-1.081, -1.222e-5
-1.080, -1.224e-5
-1.079, -1.236e-5
-1.078, -1.252e-5
-1.077, -1.269e-5
-1.076, -1.290e-5
-1.075, -1.296e-5
-1.074, -1.317e-5
-1.073, -1.324e-5
-1.072, -1.333e-5
-1.071, -1.352e-5
-1.070, -1.374e-5
-1.069, -1.381e-5
-1.068, -1.398e-5
-1.067, -1.426e-5
-1.066, -1.436e-5
-1.065, -1.462e-5
-1.064, -1.481e-5
-1.063, -1.495e-5
-1.062, -1.520e-5
-1.061, -1.535e-5
-1.060, -1.561e-5
-1.059, -1.587e-5
-1.058, -1.609e-5
-1.057, -1.661e-5
-1.056, -1.656e-5
-1.055, -1.672e-5
-1.054, -1.693e-5
-1.053, -1.709e-5
-1.052, -1.748e-5
-1.051, -1.775e-5
-1.050, -1.795e-5
-1.049, -1.822e-5
-1.048, -1.849e-5
-1.047, -1.883e-5
-1.046, -1.914e-5
-1.045, -1.937e-5
-1.044, -1.961e-5
-1.043, -2.001e-5
-1.042, -2.038e-5
-1.041, -2.068e-5
-1.040, -2.088e-5
-1.039, -2.131e-5
-1.038, -2.168e-5
-1.037, -2.191e-5
-1.036, -2.240e-5
-1.035, -2.267e-5
-1.034, -2.308e-5
-1.033, -2.349e-5
-1.032, -2.383e-5
-1.031, -2.425e-5
-1.030, -2.466e-5
-1.029, -2.498e-5
-1.028, -2.547e-5
-1.027, -2.578e-5
-1.026, -2.637e-5
-1.025, -2.676e-5
-1.024, -2.720e-5
-1.023, -2.774e-5
-1.022, -2.816e-5
-1.021, -2.860e-5
-1.020, -2.908e-5
-1.019, -2.953e-5
-1.018, -3.000e-5
-1.017, -3.061e-5
-1.016, -3.110e-5
-1.015, -3.156e-5
-1.014, -3.206e-5
-1.013, -3.262e-5
-1.012, -3.319e-5
-1.011, -3.390e-5
-1.010, -3.438e-5
-1.009, -3.493e-5
-1.008, -3.554e-5
-1.007, -3.621e-5
-1.006, -3.687e-5
-1.005, -3.747e-5
-1.004, -3.807e-5
-1.003, -3.878e-5
-1.002, -3.942e-5
-1.001, -4.018e-5
-1.000, -3.400e-5
-1.001, -3.001e-5
-1.002, -2.753e-5
-1.003, -2.572e-5
-1.004, -2.398e-5
-1.005, -2.232e-5
-1.006, -2.079e-5
-1.007, -1.934e-5
-1.008, -1.827e-5
-1.009, -1.697e-5
-1.010, -1.576e-5
-1.011, -1.470e-5
-1.012, -1.362e-5
-1.013, -1.273e-5
-1.014, -1.180e-5
-1.015, -1.078e-5
-1.016, -9.919e-6
-1.017, -9.077e-6
-1.018, -8.341e-6
-1.019, -7.636e-6
-1.020, -6.893e-6
-1.021, -6.181e-6
-1.022, -5.645e-6
-1.023, -5.104e-6
-1.024, -4.435e-6
-1.025, -3.878e-6
-1.026, -3.343e-6
-1.027, -2.798e-6
-1.028, -2.335e-6
-1.029, -1.886e-6
-1.030, -1.421e-6
-1.031, -9.098e-7
-1.032, -5.399e-7
-1.033, -1.748e-7
-1.034, 2.691e-7
-1.035, 5.444e-7
-1.036, 9.815e-7
-1.037, 1.243e-6
-1.038, 1.507e-6
-1.039, 1.825e-6
-1.040, 2.048e-6
-1.041, 2.396e-6
-1.042, 2.684e-6
-1.043, 2.885e-6
-1.044, 3.175e-6
-1.045, 3.486e-6
-1.046, 3.758e-6
-1.047, 4.170e-6
-1.048, 3.959e-6
-1.049, 4.073e-6
-1.050, 4.428e-6
-1.051, 4.460e-6
-1.052, 4.566e-6
-1.053, 4.711e-6
-1.054, 4.789e-6
-1.055, 5.134e-6
-1.056, 5.126e-6
-1.057, 5.160e-6
-1.058, 5.382e-6
-1.059, 5.356e-6
-1.060, 5.609e-6
-1.061, 5.803e-6
-1.062, 5.934e-6
-1.063, 6.219e-6
-1.064, 6.023e-6
-1.065, 6.057e-6
-1.066, 6.153e-6
-1.067, 6.145e-6
-1.068, 6.137e-6
-1.069, 6.271e-6
-1.070, 6.321e-6
-1.071, 6.413e-6
-1.072, 6.454e-6
-1.073, 6.429e-6
-1.074, 6.473e-6
-1.075, 6.644e-6
-1.076, 6.676e-6
-1.077, 6.679e-6
-1.078, 6.694e-6
-1.079, 6.685e-6
-1.080, 6.811e-6
-1.081, 6.833e-6
-1.082, 6.955e-6
-1.083, 6.869e-6
-1.084, 6.907e-6
-1.085, 7.076e-6
-1.086, 7.042e-6
-1.087, 7.071e-6
-1.088, 7.018e-6
-1.089, 7.060e-6
-1.090, 7.193e-6
-1.091, 7.121e-6
-1.092, 7.210e-6
-1.093, 7.260e-6
-1.094, 7.519e-6
-1.095, 7.625e-6
-1.096, 7.405e-6
-1.097, 7.351e-6
-1.098, 7.320e-6
-1.099, 7.344e-6
-1.100, 7.370e-6
-1.101, 7.408e-6
-1.102, 7.482e-6
-1.103, 7.504e-6
-1.104, 7.460e-6
-1.105, 7.542e-6
-1.106, 7.568e-6
-1.107, 7.665e-6
-1.108, 7.577e-6
-1.109, 7.606e-6
-1.110, 7.690e-6
-1.111, 7.701e-6
-1.112, 7.750e-6
-1.113, 7.691e-6
-1.114, 7.757e-6
-1.115, 7.762e-6
-1.116, 7.825e-6
-1.117, 7.746e-6
-1.118, 7.770e-6
-1.119, 7.900e-6
-1.120, 7.856e-6
-1.121, 7.980e-6
-1.122, 8.044e-6
-1.123, 8.000e-6
-1.124, 8.012e-6
-1.125, 8.211e-6
-1.126, 8.192e-6
-1.127, 8.144e-6
-1.128, 8.098e-6
-1.129, 8.265e-6
-1.130, 8.185e-6
-1.131, 8.314e-6
-1.132, 8.259e-6
-1.133, 8.232e-6
-1.134, 8.360e-6
-1.135, 8.337e-6
-1.136, 8.398e-6
-1.137, 8.426e-6
-1.138, 8.520e-6
-1.139, 8.602e-6
-1.140, 8.633e-6
-1.141, 8.737e-6
-1.142, 8.907e-6
-1.143, 8.860e-6
-1.144, 8.662e-6
-1.145, 8.834e-6
-1.146, 8.795e-6
-1.147, 8.823e-6
-1.148, 8.827e-6
-1.149, 8.748e-6
-1.150, 8.932e-6
-1.151, 8.951e-6
-1.152, 8.953e-6
-1.153, 8.985e-6
-1.154, 8.993e-6
-1.155, 9.168e-6
-1.156, 9.190e-6
-1.157, 9.212e-6
-1.158, 9.181e-6
-1.159, 9.100e-6
-1.160, 9.189e-6
-1.161, 9.190e-6
-1.162, 9.337e-6
-1.163, 9.273e-6
-1.164, 9.269e-6
-1.165, 9.367e-6
-1.166, 9.378e-6
-1.167, 9.384e-6
-1.168, 9.351e-6
-1.169, 9.416e-6
-1.170, 9.466e-6
-1.171, 9.492e-6
-1.172, 9.633e-6
-1.173, 9.666e-6
-1.174, 1.002e-5
-1.175, 1.025e-5
-1.176, 1.000e-5
-1.177, 9.833e-6
-1.178, 9.860e-6
-1.179, 9.726e-6
-1.180, 9.921e-6
-1.181, 9.950e-6
-1.182, 9.975e-6
-1.183, 9.987e-6
-1.184, 1.001e-5
-1.185, 1.015e-5
-1.186, 1.013e-5
-1.187, 1.020e-5
-1.188, 1.012e-5
-1.189, 1.032e-5
-1.190, 1.048e-5
-1.191, 1.060e-5
-1.192, 1.050e-5
-1.193, 1.050e-5
-1.194, 1.056e-5
-1.195, 1.066e-5
-1.196, 1.074e-5
-1.197, 1.066e-5
-1.198, 1.078e-5
-1.199, 1.089e-5
-1.200, 1.099e-5
-1.201, 1.106e-5
-1.202, 1.101e-5
-1.203, 1.111e-5
-1.204, 1.125e-5
-1.205, 1.132e-5
-1.206, 1.156e-5
-1.207, 1.175e-5
-1.208, 1.198e-5
-1.209, 1.207e-5
-1.210, 1.197e-5
-1.211, 1.191e-5
-1.212, 1.191e-5
-1.213, 1.191e-5
-1.214, 1.200e-5
-1.215, 1.219e-5
-1.216, 1.228e-5
-1.217, 1.232e-5
-1.218, 1.245e-5
-1.219, 1.241e-5
-1.220, 1.265e-5
-1.221, 1.275e-5
-1.222, 1.281e-5
-1.223, 1.307e-5
-1.224, 1.319e-5
-1.225, 1.343e-5
-1.226, 1.388e-5
-1.227, 1.366e-5
-1.228, 1.367e-5
-1.229, 1.377e-5
-1.230, 1.391e-5
-1.231, 1.404e-5
-1.232, 1.405e-5
-1.233, 1.419e-5
-1.234, 1.439e-5
-1.235, 1.450e-5
-1.236, 1.462e-5
-1.237, 1.478e-5
-1.238, 1.489e-5
-1.239, 1.515e-5
-1.240, 1.531e-5
-1.241, 1.542e-5
-1.242, 1.562e-5
-1.243, 1.569e-5
-1.244, 1.592e-5
-1.245, 1.606e-5
-1.246, 1.625e-5
-1.247, 1.651e-5
-1.248, 1.651e-5
-1.249, 1.680e-5
-1.250, 1.709e-5
-1.251, 1.718e-5
-1.252, 1.741e-5
-1.253, 1.744e-5
-1.254, 1.771e-5
-1.255, 1.808e-5
-1.256, 1.827e-5
-1.257, 1.848e-5
-1.258, 1.883e-5
-1.259, 1.919e-5
-1.260, 1.923e-5
-1.261, 1.924e-5
-1.262, 1.941e-5
-1.263, 1.957e-5
-1.264, 1.991e-5
-1.265, 2.013e-5
-1.266, 2.033e-5
-1.267, 2.052e-5
-1.268, 2.075e-5
-1.269, 2.103e-5
-1.270, 2.129e-5
-1.271, 2.149e-5
-1.272, 2.179e-5
-1.273, 2.200e-5
-1.274, 2.242e-5
-1.275, 2.274e-5
-1.276, 2.315e-5
-1.277, 2.326e-5
-1.278, 2.335e-5
-1.279, 2.364e-5
-1.280, 2.388e-5
-1.281, 2.426e-5
-1.282, 2.443e-5
-1.283, 2.479e-5
-1.284, 2.509e-5
-1.285, 2.544e-5
-1.286, 2.575e-5
-1.287, 2.597e-5
-1.288, 2.630e-5
-1.289, 2.661e-5
-1.290, 2.686e-5
-1.291, 2.723e-5
-1.292, 2.745e-5
-1.293, 2.779e-5
-1.294, 2.825e-5
-1.295, 2.861e-5
-1.296, 2.898e-5
-1.297, 2.923e-5
-1.298, 2.955e-5
-1.299, 2.995e-5
-1.300, 3.034e-5
-1.301, 3.068e-5
-1.302, 3.111e-5
-1.303, 3.146e-5
-1.304, 3.183e-5
-1.305, 3.227e-5
-1.306, 3.278e-5
-1.307, 3.326e-5
-1.308, 3.382e-5
-1.309, 3.400e-5
-1.310, 3.429e-5
-1.311, 3.467e-5
-1.312, 3.506e-5
-1.313, 3.555e-5
-1.314, 3.605e-5
-1.315, 3.651e-5
-1.316, 3.699e-5
-1.317, 3.737e-5
-1.318, 3.778e-5
-1.319, 3.833e-5
-1.320, 3.881e-5
-1.321, 3.928e-5
-1.322, 3.968e-5
-1.323, 4.022e-5
-1.324, 4.081e-5
-1.325, 4.134e-5
-1.326, 4.185e-5
-1.327, 4.244e-5
-1.328, 4.296e-5
-1.329, 4.358e-5
-1.330, 4.425e-5
-1.331, 4.475e-5
-1.332, 4.544e-5
-1.333, 4.589e-5
-1.334, 4.668e-5
-1.335, 4.734e-5
-1.336, 4.787e-5
-1.337, 4.860e-5
-1.338, 4.932e-5
-1.339, 5.007e-5
-1.340, 5.063e-5
-1.341, 5.129e-5
-1.342, 5.199e-5
-1.343, 5.267e-5
-1.344, 5.359e-5
-1.345, 5.430e-5
-1.346, 5.511e-5
-1.347, 5.587e-5
-1.348, 5.671e-5
-1.349, 5.765e-5
-1.350, 5.837e-5
-1.351, 5.929e-5
-1.352, 5.999e-5
-1.353, 6.090e-5
-1.354, 6.190e-5
-1.355, 6.279e-5
-1.356, 6.383e-5
-1.357, 6.474e-5
-1.358, 6.571e-5
-1.359, 6.678e-5
-1.360, 6.762e-5
-1.361, 6.865e-5
-1.362, 6.984e-5
-1.363, 7.088e-5
-1.364, 7.221e-5
-1.365, 7.329e-5
-1.366, 7.447e-5
-1.367, 7.564e-5
-1.368, 7.677e-5
-1.369, 7.813e-5
-1.370, 7.939e-5
-1.371, 8.063e-5
-1.372, 8.188e-5
-1.373, 8.316e-5
-1.374, 8.466e-5
-1.375, 8.603e-5
-1.376, 8.712e-5
-1.377, 8.868e-5
-1.378, 9.013e-5
-1.379, 9.174e-5
-1.380, 9.335e-5
-1.381, 9.483e-5
-1.382, 9.652e-5
-1.383, 9.814e-5
-1.384, 9.983e-5
-1.385, 1.015e-4
-1.386, 1.033e-4
-1.387, 1.050e-4
-1.388, 1.068e-4
-1.389, 1.086e-4
-1.390, 1.105e-4
-1.391, 1.121e-4
-1.392, 1.140e-4
-1.393, 1.160e-4
-1.394, 1.179e-4
-1.395, 1.202e-4
-1.396, 1.222e-4
-1.397, 1.243e-4
-1.398, 1.265e-4
-1.399, 1.286e-4
-1.400, 1.235e-4
-1.399, 1.186e-4
-1.398, 1.150e-4
-1.397, 1.118e-4
-1.396, 1.086e-4
-1.395, 1.057e-4
-1.394, 1.029e-4
-1.393, 9.996e-5
-1.392, 9.738e-5
-1.391, 9.483e-5
-1.390, 9.222e-5
-1.389, 8.972e-5
-1.388, 8.717e-5
-1.387, 8.499e-5
-1.386, 8.270e-5
-1.385, 8.053e-5
-1.384, 7.835e-5
-1.383, 7.594e-5
-1.382, 7.325e-5
-1.381, 7.151e-5
-1.380, 6.988e-5
-1.379, 6.806e-5
-1.378, 6.653e-5
-1.377, 6.476e-5
-1.376, 6.309e-5
-1.375, 6.144e-5
-1.374, 5.980e-5
-1.373, 5.822e-5
-1.372, 5.665e-5
-1.371, 5.522e-5
-1.370, 5.369e-5
-1.369, 5.216e-5
-1.368, 5.075e-5
-1.367, 4.932e-5
-1.366, 4.801e-5
-1.365, 4.677e-5
-1.364, 4.534e-5
-1.363, 4.410e-5
-1.362, 4.299e-5
-1.361, 4.199e-5
-1.360, 4.091e-5
-1.359, 3.980e-5
-1.358, 3.875e-5
-1.357, 3.761e-5
-1.356, 3.660e-5
-1.355, 3.550e-5
-1.354, 3.453e-5
-1.353, 3.347e-5
-1.352, 3.247e-5
-1.351, 3.162e-5
-1.350, 3.057e-5
-1.349, 2.966e-5
-1.348, 2.866e-5
-1.347, 2.783e-5
-1.346, 2.707e-5
-1.345, 2.628e-5
-1.344, 2.547e-5
-1.343, 2.477e-5
-1.342, 2.392e-5
-1.341, 2.337e-5
-1.340, 2.265e-5
-1.339, 2.191e-5
-1.338, 2.104e-5
-1.337, 2.043e-5
-1.336, 1.983e-5
-1.335, 1.922e-5
-1.334, 1.858e-5
-1.333, 1.782e-5
-1.332, 1.730e-5
-1.331, 1.673e-5
-1.330, 1.610e-5
-1.329, 1.553e-5
-1.328, 1.495e-5
-1.327, 1.444e-5
-1.326, 1.397e-5
-1.325, 1.345e-5
-1.324, 1.291e-5
-1.323, 1.231e-5
-1.322, 1.184e-5
-1.321, 1.149e-5
-1.320, 1.098e-5
-1.319, 1.052e-5
-1.318, 9.992e-6
-1.317, 9.664e-6
-1.316, 9.367e-6
-1.315, 8.936e-6
-1.314, 8.611e-6
-1.313, 8.103e-6
-1.312, 7.871e-6
-1.311, 7.573e-6
-1.310, 7.055e-6
-1.309, 6.765e-6
-1.308, 6.293e-6
-1.307, 5.987e-6
-1.306, 5.675e-6
-1.305, 5.259e-6
-1.304, 4.663e-6
-1.303, 4.603e-6
-1.302, 4.418e-6
-1.301, 4.141e-6
-1.300, 3.882e-6
-1.299, 3.442e-6
-1.298, 3.279e-6
-1.297, 3.046e-6
-1.296, 2.881e-6
-1.295, 2.603e-6
-1.294, 2.254e-6
-1.293, 2.072e-6
-1.292, 1.766e-6
-1.291, 1.545e-6
-1.290, 1.280e-6
-1.289, 9.055e-7
-1.288, 9.085e-7
-1.287, 7.279e-7
-1.286, 3.885e-7
-1.285, 3.471e-7
-1.284, -7.103e-9
-1.283, -2.005e-7
-1.282, -4.323e-7
-1.281, -6.592e-7
-1.280, -7.875e-7
-1.279, -1.016e-6
-1.278, -1.254e-6
-1.277, -1.424e-6
-1.276, -1.638e-6
-1.275, -1.846e-6
-1.274, -2.059e-6
-1.273, -2.120e-6
-1.272, -2.337e-6
-1.271, -2.465e-6
-1.270, -2.672e-6
-1.269, -2.816e-6
-1.268, -2.887e-6
-1.267, -3.080e-6
-1.266, -3.183e-6
-1.265, -3.297e-6
-1.264, -3.543e-6
-1.263, -3.662e-6
-1.262, -3.820e-6
-1.261, -3.963e-6
-1.260, -4.142e-6
-1.259, -4.405e-6
-1.258, -4.479e-6
-1.257, -4.559e-6
-1.256, -4.599e-6
-1.255, -4.806e-6
-1.254, -4.928e-6
-1.253, -5.107e-6
-1.252, -5.166e-6
-1.251, -5.354e-6
-1.250, -5.395e-6
-1.249, -5.547e-6
-1.248, -5.710e-6
-1.247, -5.802e-6
-1.246, -5.994e-6
-1.245, -6.072e-6
-1.244, -6.091e-6
-1.243, -6.295e-6
-1.242, -6.311e-6
-1.241, -6.505e-6
-1.240, -6.565e-6
-1.239, -6.583e-6
-1.238, -6.828e-6
-1.237, -6.787e-6
-1.236, -6.914e-6
-1.235, -7.018e-6
-1.234, -7.076e-6
-1.233, -7.288e-6
-1.232, -7.251e-6
-1.231, -7.311e-6
-1.230, -7.412e-6
-1.229, -7.580e-6
-1.228, -7.828e-6
-1.227, -7.753e-6
-1.226, -7.813e-6
-1.225, -7.930e-6
-1.224, -7.947e-6
-1.223, -8.046e-6
-1.222, -8.170e-6
-1.221, -8.123e-6
-1.220, -8.194e-6
-1.219, -8.309e-6
-1.218, -8.401e-6
-1.217, -8.485e-6
-1.216, -8.454e-6
-1.215, -8.634e-6
-1.214, -8.690e-6
-1.213, -8.786e-6
-1.212, -8.844e-6
-1.211, -8.952e-6
-1.210, -8.864e-6
-1.209, -8.967e-6
-1.208, -8.997e-6
-1.207, -9.077e-6
-1.206, -9.191e-6
-1.205, -9.292e-6
-1.204, -9.366e-6
-1.203, -9.404e-6
-1.202, -9.498e-6
-1.201, -9.436e-6
-1.200, -9.511e-6
-1.199, -9.625e-6
-1.198, -9.662e-6
-1.197, -9.662e-6
-1.196, -9.676e-6
-1.195, -9.809e-6
-1.194, -9.941e-6
-1.193, -1.002e-5
-1.192, -9.936e-6
-1.191, -9.945e-6
-1.190, -1.000e-5
-1.189, -1.018e-5
-1.188, -1.009e-5
-1.187, -1.020e-5
-1.186, -1.010e-5
-1.185, -1.013e-5
-1.184, -1.030e-5
-1.183, -1.028e-5
-1.182, -1.031e-5
-1.181, -1.025e-5
-1.180, -1.029e-5
-1.179, -1.039e-5
-1.178, -1.040e-5
-1.177, -1.038e-5
-1.176, -1.031e-5
-1.175, -1.027e-5
-1.174, -1.041e-5
-1.173, -1.033e-5
-1.172, -1.036e-5
-1.171, -1.031e-5
-1.170, -1.019e-5
-1.169, -1.030e-5
-1.168, -1.021e-5
-1.167, -1.027e-5
-1.166, -1.026e-5
-1.165, -1.023e-5
-1.164, -1.029e-5
-1.163, -1.024e-5
-1.162, -1.022e-5
-1.161, -1.019e-5
-1.160, -1.010e-5
-1.159, -1.024e-5
-1.158, -1.019e-5
-1.157, -1.018e-5
-1.156, -1.016e-5
-1.155, -1.016e-5
-1.154, -1.023e-5
-1.153, -1.021e-5
-1.152, -1.017e-5
-1.151, -1.017e-5
-1.150, -1.016e-5
-1.149, -1.018e-5
-1.148, -1.020e-5
-1.147, -1.016e-5
-1.146, -1.010e-5
-1.145, -1.011e-5
-1.144, -1.014e-5
-1.143, -1.013e-5
-1.142, -1.008e-5
-1.141, -1.012e-5
-1.140, -1.003e-5
-1.139, -1.017e-5
-1.138, -1.003e-5
-1.137, -9.943e-6
-1.136, -9.985e-6
-1.135, -9.940e-6
-1.134, -1.002e-5
-1.133, -1.002e-5
-1.132, -9.892e-6
-1.131, -9.970e-6
-1.130, -1.003e-5
-1.129, -9.966e-6
-1.128, -1.031e-5
-1.127, -9.927e-6
-1.126, -9.886e-6
-1.125, -9.928e-6
-1.124, -9.858e-6
-1.123, -9.921e-6
-1.122, -9.781e-6
-1.121, -9.934e-6
-1.120, -9.885e-6
-1.119, -9.952e-6
-1.118, -1.001e-5
-1.117, -9.837e-6
-1.116, -9.763e-6
-1.115, -9.682e-6
-1.114, -9.791e-6
-1.113, -9.682e-6
-1.112, -9.496e-6
-1.111, -9.514e-6
-1.110, -9.423e-6
-1.109, -9.423e-6
-1.108, -9.441e-6
-1.107, -9.316e-6
-1.106, -9.340e-6
-1.105, -9.369e-6
-1.104, -9.359e-6
-1.103, -9.414e-6
-1.102, -9.277e-6
-1.101, -9.348e-6
-1.100, -9.364e-6
-1.099, -9.417e-6
-1.098, -9.456e-6
-1.097, -9.490e-6
-1.096, -9.466e-6
-1.095, -9.542e-6
-1.094, -9.619e-6
-1.093, -9.619e-6
-1.092, -9.652e-6
-1.091, -9.721e-6
-1.090, -9.820e-6
-1.089, -9.858e-6
-1.088, -1.002e-5
-1.087, -1.010e-5
-1.086, -1.021e-5
-1.085, -1.027e-5
-1.084, -1.035e-5
-1.083, -1.044e-5
-1.082, -1.047e-5
-1.081, -1.056e-5
-1.080, -1.062e-5
-1.079, -1.073e-5
-1.078, -1.082e-5
-1.077, -1.096e-5
-1.076, -1.097e-5
-1.075, -1.119e-5
-1.074, -1.127e-5
-1.073, -1.137e-5
-1.072, -1.150e-5
-1.071, -1.156e-5
-1.070, -1.181e-5
-1.069, -1.189e-5
-1.068, -1.207e-5
-1.067, -1.229e-5
-1.066, -1.228e-5
-1.065, -1.257e-5
-1.064, -1.281e-5
-1.063, -1.307e-5
-1.062, -1.341e-5
-1.061, -1.314e-5
-1.060, -1.329e-5
-1.059, -1.354e-5
-1.058, -1.358e-5
-1.057, -1.383e-5
-1.056, -1.398e-5
-1.055, -1.414e-5
-1.054, -1.443e-5
-1.053, -1.453e-5
-1.052, -1.476e-5
-1.051, -1.498e-5
-1.050, -1.514e-5
-1.049, -1.545e-5
-1.048, -1.564e-5
-1.047, -1.585e-5
-1.046, -1.610e-5
-1.045, -1.627e-5
-1.044, -1.652e-5
-1.043, -1.677e-5
-1.042, -1.699e-5
-1.041, -1.721e-5
-1.040, -1.747e-5
-1.039, -1.775e-5
-1.038, -1.802e-5
-1.037, -1.824e-5
-1.036, -1.851e-5
-1.035, -1.884e-5
-1.034, -1.908e-5
-1.033, -1.951e-5
-1.032, -1.973e-5
-1.031, -2.010e-5
-1.030, -2.039e-5
-1.029, -2.065e-5
-1.028, -2.093e-5
-1.027, -2.127e-5
-1.026, -2.157e-5
-1.025, -2.198e-5
-1.024, -2.233e-5
-1.023, -2.265e-5
-1.022, -2.297e-5
-1.021, -2.334e-5
-1.020, -2.377e-5
-1.019, -2.419e-5
-1.018, -2.458e-5
-1.017, -2.494e-5
-1.016, -2.535e-5
-1.015, -2.587e-5
-1.014, -2.638e-5
-1.013, -2.705e-5
-1.012, -2.708e-5
-1.011, -2.748e-5
-1.010, -2.787e-5
-1.009, -2.838e-5
-1.008, -2.879e-5
-1.007, -2.923e-5
-1.006, -2.981e-5
-1.005, -3.019e-5
-1.004, -3.082e-5
-1.003, -3.129e-5
-1.002, -3.177e-5
-1.001, -3.233e-5
