Dec. 19, 2024   18:16:13
Cyclic Voltammetry
File: c:/users/guazh/data/banditlqround7_x0exp667_r5/2024-12-16-exp703\exp703-2024-12-19t18_05_19-arkoh\exp703_cv_sr_400mvs_efin_-1500mv.bin
Data Source:  Experiment
Instrument Model:  CHI760E
Header: CV ran at 400 mVs
Note: 

Init E (V) = -1
High E (V) = -1
Low E (V) = -1.5
Final E (V) = -1
Init P/N = N
Scan Rate (V/s) = 0.4
Segment = 3
Sample Interval (V) = 0.001
Quiet Time (sec) = 2
Sensitivity (A/V) = 0.01
Comp R (ohm) = 1.2

Results:

Channel 1:
Segment 1:
Ep = -1.365V
ip = 1.299e-3A
Ah = 3.496e-4C

Segment 2:

Segment 3:

Potential/V, Current/A

-1.000, -9.234e-5
-1.001, -2.927e-6
-1.002, 7.723e-5
-1.003, 1.481e-4
-1.004, 2.067e-4
-1.005, 2.561e-4
-1.006, 2.992e-4
-1.007, 3.393e-4
-1.008, 3.825e-4
-1.009, 4.256e-4
-1.010, 4.626e-4
-1.011, 4.935e-4
-1.012, 5.181e-4
-1.013, 5.428e-4
-1.014, 5.674e-4
-1.015, 5.983e-4
-1.016, 6.260e-4
-1.017, 6.538e-4
-1.018, 6.723e-4
-1.019, 6.877e-4
-1.020, 7.031e-4
-1.021, 7.216e-4
-1.022, 7.463e-4
-1.023, 7.679e-4
-1.024, 7.894e-4
-1.025, 8.018e-4
-1.026, 8.141e-4
-1.027, 8.295e-4
-1.028, 8.480e-4
-1.029, 8.696e-4
-1.030, 8.881e-4
-1.031, 9.004e-4
-1.032, 9.128e-4
-1.033, 9.220e-4
-1.034, 9.374e-4
-1.035, 9.590e-4
-1.036, 9.837e-4
-1.037, 9.991e-4
-1.038, 1.008e-3
-1.039, 1.014e-3
-1.040, 1.027e-3
-1.041, 1.045e-3
-1.042, 1.067e-3
-1.043, 1.088e-3
-1.044, 1.104e-3
-1.045, 1.113e-3
-1.046, 1.122e-3
-1.047, 1.132e-3
-1.048, 1.147e-3
-1.049, 1.169e-3
-1.050, 1.187e-3
-1.051, 1.206e-3
-1.052, 1.215e-3
-1.053, 1.224e-3
-1.054, 1.240e-3
-1.055, 1.261e-3
-1.056, 1.283e-3
-1.057, 1.301e-3
-1.058, 1.314e-3
-1.059, 1.326e-3
-1.060, 1.335e-3
-1.061, 1.354e-3
-1.062, 1.375e-3
-1.063, 1.391e-3
-1.064, 1.406e-3
-1.065, 1.418e-3
-1.066, 1.428e-3
-1.067, 1.443e-3
-1.068, 1.465e-3
-1.069, 1.486e-3
-1.070, 1.505e-3
-1.071, 1.526e-3
-1.072, 1.539e-3
-1.073, 1.554e-3
-1.074, 1.573e-3
-1.075, 1.594e-3
-1.076, 1.616e-3
-1.077, 1.634e-3
-1.078, 1.643e-3
-1.079, 1.653e-3
-1.080, 1.665e-3
-1.081, 1.684e-3
-1.082, 1.708e-3
-1.083, 1.733e-3
-1.084, 1.754e-3
-1.085, 1.767e-3
-1.086, 1.779e-3
-1.087, 1.795e-3
-1.088, 1.813e-3
-1.089, 1.835e-3
-1.090, 1.859e-3
-1.091, 1.881e-3
-1.092, 1.896e-3
-1.093, 1.912e-3
-1.094, 1.930e-3
-1.095, 1.949e-3
-1.096, 1.967e-3
-1.097, 1.983e-3
-1.098, 1.995e-3
-1.099, 2.001e-3
-1.100, 2.010e-3
-1.101, 2.026e-3
-1.102, 2.047e-3
-1.103, 2.069e-3
-1.104, 2.091e-3
-1.105, 2.106e-3
-1.106, 2.118e-3
-1.107, 2.134e-3
-1.108, 2.152e-3
-1.109, 2.171e-3
-1.110, 2.192e-3
-1.111, 2.208e-3
-1.112, 2.217e-3
-1.113, 2.226e-3
-1.114, 2.242e-3
-1.115, 2.263e-3
-1.116, 2.285e-3
-1.117, 2.306e-3
-1.118, 2.322e-3
-1.119, 2.334e-3
-1.120, 2.346e-3
-1.121, 2.365e-3
-1.122, 2.386e-3
-1.123, 2.408e-3
-1.124, 2.423e-3
-1.125, 2.433e-3
-1.126, 2.442e-3
-1.127, 2.457e-3
-1.128, 2.476e-3
-1.129, 2.501e-3
-1.130, 2.522e-3
-1.131, 2.538e-3
-1.132, 2.550e-3
-1.133, 2.562e-3
-1.134, 2.575e-3
-1.135, 2.593e-3
-1.136, 2.615e-3
-1.137, 2.633e-3
-1.138, 2.645e-3
-1.139, 2.658e-3
-1.140, 2.670e-3
-1.141, 2.686e-3
-1.142, 2.707e-3
-1.143, 2.729e-3
-1.144, 2.747e-3
-1.145, 2.756e-3
-1.146, 2.760e-3
-1.147, 2.769e-3
-1.148, 2.787e-3
-1.149, 2.809e-3
-1.150, 2.834e-3
-1.151, 2.852e-3
-1.152, 2.864e-3
-1.153, 2.877e-3
-1.154, 2.889e-3
-1.155, 2.904e-3
-1.156, 2.923e-3
-1.157, 2.941e-3
-1.158, 2.954e-3
-1.159, 2.966e-3
-1.160, 2.975e-3
-1.161, 2.991e-3
-1.162, 3.012e-3
-1.163, 3.034e-3
-1.164, 3.052e-3
-1.165, 3.062e-3
-1.166, 3.068e-3
-1.167, 3.080e-3
-1.168, 3.096e-3
-1.169, 3.120e-3
-1.170, 3.145e-3
-1.171, 3.160e-3
-1.172, 3.176e-3
-1.173, 3.194e-3
-1.174, 3.210e-3
-1.175, 3.231e-3
-1.176, 3.256e-3
-1.177, 3.278e-3
-1.178, 3.293e-3
-1.179, 3.299e-3
-1.180, 3.302e-3
-1.181, 3.311e-3
-1.182, 3.333e-3
-1.183, 3.358e-3
-1.184, 3.382e-3
-1.185, 3.401e-3
-1.186, 3.410e-3
-1.187, 3.425e-3
-1.188, 3.447e-3
-1.189, 3.475e-3
-1.190, 3.503e-3
-1.191, 3.521e-3
-1.192, 3.530e-3
-1.193, 3.540e-3
-1.194, 3.552e-3
-1.195, 3.567e-3
-1.196, 3.586e-3
-1.197, 3.601e-3
-1.198, 3.617e-3
-1.199, 3.638e-3
-1.200, 3.660e-3
-1.201, 3.694e-3
-1.202, 3.725e-3
-1.203, 3.749e-3
-1.204, 3.771e-3
-1.205, 3.780e-3
-1.206, 3.783e-3
-1.207, 3.789e-3
-1.208, 3.802e-3
-1.209, 3.826e-3
-1.210, 3.857e-3
-1.211, 3.888e-3
-1.212, 3.913e-3
-1.213, 3.931e-3
-1.214, 3.956e-3
-1.215, 3.987e-3
-1.216, 4.017e-3
-1.217, 4.048e-3
-1.218, 4.073e-3
-1.219, 4.085e-3
-1.220, 4.104e-3
-1.221, 4.125e-3
-1.222, 4.147e-3
-1.223, 4.169e-3
-1.224, 4.187e-3
-1.225, 4.202e-3
-1.226, 4.218e-3
-1.227, 4.243e-3
-1.228, 4.273e-3
-1.229, 4.307e-3
-1.230, 4.338e-3
-1.231, 4.363e-3
-1.232, 4.378e-3
-1.233, 4.397e-3
-1.234, 4.415e-3
-1.235, 4.443e-3
-1.236, 4.471e-3
-1.237, 4.498e-3
-1.238, 4.517e-3
-1.239, 4.535e-3
-1.240, 4.554e-3
-1.241, 4.579e-3
-1.242, 4.609e-3
-1.243, 4.637e-3
-1.244, 4.665e-3
-1.245, 4.690e-3
-1.246, 4.714e-3
-1.247, 4.742e-3
-1.248, 4.770e-3
-1.249, 4.807e-3
-1.250, 4.841e-3
-1.251, 4.868e-3
-1.252, 4.890e-3
-1.253, 4.908e-3
-1.254, 4.927e-3
-1.255, 4.955e-3
-1.256, 4.986e-3
-1.257, 5.016e-3
-1.258, 5.041e-3
-1.259, 5.063e-3
-1.260, 5.084e-3
-1.261, 5.115e-3
-1.262, 5.152e-3
-1.263, 5.186e-3
-1.264, 5.217e-3
-1.265, 5.245e-3
-1.266, 5.269e-3
-1.267, 5.297e-3
-1.268, 5.325e-3
-1.269, 5.356e-3
-1.270, 5.386e-3
-1.271, 5.414e-3
-1.272, 5.439e-3
-1.273, 5.470e-3
-1.274, 5.500e-3
-1.275, 5.541e-3
-1.276, 5.581e-3
-1.277, 5.614e-3
-1.278, 5.642e-3
-1.279, 5.664e-3
-1.280, 5.688e-3
-1.281, 5.716e-3
-1.282, 5.744e-3
-1.283, 5.775e-3
-1.284, 5.806e-3
-1.285, 5.830e-3
-1.286, 5.855e-3
-1.287, 5.883e-3
-1.288, 5.914e-3
-1.289, 5.947e-3
-1.290, 5.978e-3
-1.291, 6.003e-3
-1.292, 6.025e-3
-1.293, 6.049e-3
-1.294, 6.074e-3
-1.295, 6.108e-3
-1.296, 6.142e-3
-1.297, 6.169e-3
-1.298, 6.191e-3
-1.299, 6.213e-3
-1.300, 6.237e-3
-1.301, 6.265e-3
-1.302, 6.299e-3
-1.303, 6.330e-3
-1.304, 6.358e-3
-1.305, 6.382e-3
-1.306, 6.407e-3
-1.307, 6.435e-3
-1.308, 6.459e-3
-1.309, 6.487e-3
-1.310, 6.512e-3
-1.311, 6.527e-3
-1.312, 6.543e-3
-1.313, 6.564e-3
-1.314, 6.589e-3
-1.315, 6.626e-3
-1.316, 6.663e-3
-1.317, 6.687e-3
-1.318, 6.706e-3
-1.319, 6.728e-3
-1.320, 6.746e-3
-1.321, 6.768e-3
-1.322, 6.795e-3
-1.323, 6.820e-3
-1.324, 6.838e-3
-1.325, 6.854e-3
-1.326, 6.875e-3
-1.327, 6.894e-3
-1.328, 6.925e-3
-1.329, 6.962e-3
-1.330, 6.990e-3
-1.331, 7.002e-3
-1.332, 7.002e-3
-1.333, 7.005e-3
-1.334, 7.011e-3
-1.335, 7.030e-3
-1.336, 7.060e-3
-1.337, 7.091e-3
-1.338, 7.119e-3
-1.339, 7.141e-3
-1.340, 7.156e-3
-1.341, 7.168e-3
-1.342, 7.181e-3
-1.343, 7.193e-3
-1.344, 7.202e-3
-1.345, 7.218e-3
-1.346, 7.224e-3
-1.347, 7.233e-3
-1.348, 7.252e-3
-1.349, 7.276e-3
-1.350, 7.295e-3
-1.351, 7.310e-3
-1.352, 7.323e-3
-1.353, 7.329e-3
-1.354, 7.335e-3
-1.355, 7.347e-3
-1.356, 7.360e-3
-1.357, 7.369e-3
-1.358, 7.375e-3
-1.359, 7.375e-3
-1.360, 7.375e-3
-1.361, 7.384e-3
-1.362, 7.400e-3
-1.363, 7.412e-3
-1.364, 7.421e-3
-1.365, 7.424e-3
-1.366, 7.418e-3
-1.367, 7.409e-3
-1.368, 7.406e-3
-1.369, 7.412e-3
-1.370, 7.412e-3
-1.371, 7.415e-3
-1.372, 7.415e-3
-1.373, 7.406e-3
-1.374, 7.403e-3
-1.375, 7.400e-3
-1.376, 7.397e-3
-1.377, 7.390e-3
-1.378, 7.372e-3
-1.379, 7.353e-3
-1.380, 7.338e-3
-1.381, 7.335e-3
-1.382, 7.335e-3
-1.383, 7.329e-3
-1.384, 7.319e-3
-1.385, 7.307e-3
-1.386, 7.289e-3
-1.387, 7.270e-3
-1.388, 7.261e-3
-1.389, 7.249e-3
-1.390, 7.230e-3
-1.391, 7.205e-3
-1.392, 7.178e-3
-1.393, 7.150e-3
-1.394, 7.131e-3
-1.395, 7.125e-3
-1.396, 7.116e-3
-1.397, 7.101e-3
-1.398, 7.085e-3
-1.399, 7.057e-3
-1.400, 7.030e-3
-1.401, 7.008e-3
-1.402, 6.986e-3
-1.403, 6.965e-3
-1.404, 6.949e-3
-1.405, 6.925e-3
-1.406, 6.894e-3
-1.407, 6.866e-3
-1.408, 6.845e-3
-1.409, 6.820e-3
-1.410, 6.798e-3
-1.411, 6.774e-3
-1.412, 6.749e-3
-1.413, 6.721e-3
-1.414, 6.703e-3
-1.415, 6.687e-3
-1.416, 6.672e-3
-1.417, 6.660e-3
-1.418, 6.638e-3
-1.419, 6.613e-3
-1.420, 6.589e-3
-1.421, 6.570e-3
-1.422, 6.552e-3
-1.423, 6.530e-3
-1.424, 6.506e-3
-1.425, 6.484e-3
-1.426, 6.459e-3
-1.427, 6.450e-3
-1.428, 6.441e-3
-1.429, 6.435e-3
-1.430, 6.428e-3
-1.431, 6.419e-3
-1.432, 6.401e-3
-1.433, 6.376e-3
-1.434, 6.361e-3
-1.435, 6.358e-3
-1.436, 6.361e-3
-1.437, 6.358e-3
-1.438, 6.342e-3
-1.439, 6.321e-3
-1.440, 6.305e-3
-1.441, 6.305e-3
-1.442, 6.314e-3
-1.443, 6.327e-3
-1.444, 6.333e-3
-1.445, 6.333e-3
-1.446, 6.327e-3
-1.447, 6.333e-3
-1.448, 6.351e-3
-1.449, 6.373e-3
-1.450, 6.385e-3
-1.451, 6.391e-3
-1.452, 6.391e-3
-1.453, 6.391e-3
-1.454, 6.401e-3
-1.455, 6.416e-3
-1.456, 6.428e-3
-1.457, 6.444e-3
-1.458, 6.462e-3
-1.459, 6.481e-3
-1.460, 6.496e-3
-1.461, 6.509e-3
-1.462, 6.527e-3
-1.463, 6.539e-3
-1.464, 6.555e-3
-1.465, 6.576e-3
-1.466, 6.598e-3
-1.467, 6.632e-3
-1.468, 6.675e-3
-1.469, 6.718e-3
-1.470, 6.761e-3
-1.471, 6.795e-3
-1.472, 6.817e-3
-1.473, 6.829e-3
-1.474, 6.842e-3
-1.475, 6.863e-3
-1.476, 6.891e-3
-1.477, 6.916e-3
-1.478, 6.937e-3
-1.479, 6.962e-3
-1.480, 6.986e-3
-1.481, 7.030e-3
-1.482, 7.076e-3
-1.483, 7.116e-3
-1.484, 7.147e-3
-1.485, 7.168e-3
-1.486, 7.181e-3
-1.487, 7.199e-3
-1.488, 7.230e-3
-1.489, 7.261e-3
-1.490, 7.295e-3
-1.491, 7.326e-3
-1.492, 7.353e-3
-1.493, 7.378e-3
-1.494, 7.406e-3
-1.495, 7.443e-3
-1.496, 7.483e-3
-1.497, 7.523e-3
-1.498, 7.557e-3
-1.499, 7.575e-3
-1.500, 7.520e-3
-1.499, 7.347e-3
-1.498, 7.193e-3
-1.497, 7.042e-3
-1.496, 6.906e-3
-1.495, 6.771e-3
-1.494, 6.654e-3
-1.493, 6.552e-3
-1.492, 6.459e-3
-1.491, 6.364e-3
-1.490, 6.271e-3
-1.489, 6.176e-3
-1.488, 6.071e-3
-1.487, 5.966e-3
-1.486, 5.870e-3
-1.485, 5.778e-3
-1.484, 5.688e-3
-1.483, 5.599e-3
-1.482, 5.504e-3
-1.481, 5.405e-3
-1.480, 5.319e-3
-1.479, 5.241e-3
-1.478, 5.171e-3
-1.477, 5.100e-3
-1.476, 5.026e-3
-1.475, 4.945e-3
-1.474, 4.862e-3
-1.473, 4.788e-3
-1.472, 4.717e-3
-1.471, 4.649e-3
-1.470, 4.585e-3
-1.469, 4.517e-3
-1.468, 4.446e-3
-1.467, 4.378e-3
-1.466, 4.317e-3
-1.465, 4.255e-3
-1.464, 4.196e-3
-1.463, 4.138e-3
-1.462, 4.073e-3
-1.461, 4.002e-3
-1.460, 3.937e-3
-1.459, 3.882e-3
-1.458, 3.829e-3
-1.457, 3.777e-3
-1.456, 3.721e-3
-1.455, 3.663e-3
-1.454, 3.604e-3
-1.453, 3.549e-3
-1.452, 3.499e-3
-1.451, 3.450e-3
-1.450, 3.401e-3
-1.449, 3.348e-3
-1.448, 3.290e-3
-1.447, 3.234e-3
-1.446, 3.185e-3
-1.445, 3.142e-3
-1.444, 3.099e-3
-1.443, 3.056e-3
-1.442, 3.006e-3
-1.441, 2.954e-3
-1.440, 2.901e-3
-1.439, 2.858e-3
-1.438, 2.815e-3
-1.437, 2.772e-3
-1.436, 2.723e-3
-1.435, 2.670e-3
-1.434, 2.618e-3
-1.433, 2.568e-3
-1.432, 2.528e-3
-1.431, 2.491e-3
-1.430, 2.451e-3
-1.429, 2.408e-3
-1.428, 2.356e-3
-1.427, 2.306e-3
-1.426, 2.263e-3
-1.425, 2.220e-3
-1.424, 2.183e-3
-1.423, 2.140e-3
-1.422, 2.094e-3
-1.421, 2.047e-3
-1.420, 1.998e-3
-1.419, 1.958e-3
-1.418, 1.927e-3
-1.417, 1.893e-3
-1.416, 1.853e-3
-1.415, 1.807e-3
-1.414, 1.758e-3
-1.413, 1.711e-3
-1.412, 1.671e-3
-1.411, 1.631e-3
-1.410, 1.591e-3
-1.409, 1.551e-3
-1.408, 1.505e-3
-1.407, 1.462e-3
-1.406, 1.425e-3
-1.405, 1.391e-3
-1.404, 1.357e-3
-1.403, 1.323e-3
-1.402, 1.280e-3
-1.401, 1.233e-3
-1.400, 1.193e-3
-1.399, 1.156e-3
-1.398, 1.125e-3
-1.397, 1.095e-3
-1.396, 1.061e-3
-1.395, 1.021e-3
-1.394, 9.806e-4
-1.393, 9.436e-4
-1.392, 9.097e-4
-1.391, 8.788e-4
-1.390, 8.511e-4
-1.389, 8.141e-4
-1.388, 7.740e-4
-1.387, 7.339e-4
-1.386, 7.031e-4
-1.385, 6.723e-4
-1.384, 6.476e-4
-1.383, 6.137e-4
-1.382, 5.798e-4
-1.381, 5.397e-4
-1.380, 5.058e-4
-1.379, 4.750e-4
-1.378, 4.503e-4
-1.377, 4.256e-4
-1.376, 3.948e-4
-1.375, 3.609e-4
-1.374, 3.239e-4
-1.373, 2.900e-4
-1.372, 2.653e-4
-1.371, 2.406e-4
-1.370, 2.160e-4
-1.369, 1.851e-4
-1.368, 1.543e-4
-1.367, 1.204e-4
-1.366, 9.265e-5
-1.365, 6.798e-5
-1.364, 4.949e-5
-1.363, 2.174e-5
-1.362, -9.093e-6
-1.361, -3.992e-5
-1.360, -7.076e-5
-1.359, -9.542e-5
-1.358, -1.139e-4
-1.357, -1.355e-4
-1.356, -1.602e-4
-1.355, -1.879e-4
-1.354, -2.187e-4
-1.353, -2.465e-4
-1.352, -2.650e-4
-1.351, -2.835e-4
-1.350, -3.051e-4
-1.349, -3.297e-4
-1.348, -3.575e-4
-1.347, -3.852e-4
-1.346, -4.068e-4
-1.345, -4.284e-4
-1.344, -4.438e-4
-1.343, -4.654e-4
-1.342, -4.901e-4
-1.341, -5.178e-4
-1.340, -5.456e-4
-1.339, -5.641e-4
-1.338, -5.795e-4
-1.337, -5.949e-4
-1.336, -6.165e-4
-1.335, -6.411e-4
-1.334, -6.689e-4
-1.333, -6.935e-4
-1.332, -7.090e-4
-1.331, -7.244e-4
-1.330, -7.398e-4
-1.329, -7.645e-4
-1.328, -7.891e-4
-1.327, -8.169e-4
-1.326, -8.354e-4
-1.325, -8.508e-4
-1.324, -8.631e-4
-1.323, -8.785e-4
-1.322, -9.001e-4
-1.321, -9.279e-4
-1.320, -9.494e-4
-1.319, -9.710e-4
-1.318, -9.834e-4
-1.317, -9.988e-4
-1.316, -1.017e-3
-1.315, -1.042e-3
-1.314, -1.067e-3
-1.313, -1.088e-3
-1.312, -1.101e-3
-1.311, -1.113e-3
-1.310, -1.125e-3
-1.309, -1.144e-3
-1.308, -1.168e-3
-1.307, -1.193e-3
-1.306, -1.212e-3
-1.305, -1.230e-3
-1.304, -1.239e-3
-1.303, -1.255e-3
-1.302, -1.276e-3
-1.301, -1.301e-3
-1.300, -1.322e-3
-1.299, -1.338e-3
-1.298, -1.350e-3
-1.297, -1.363e-3
-1.296, -1.381e-3
-1.295, -1.403e-3
-1.294, -1.427e-3
-1.293, -1.446e-3
-1.292, -1.461e-3
-1.291, -1.470e-3
-1.290, -1.483e-3
-1.289, -1.501e-3
-1.288, -1.523e-3
-1.287, -1.544e-3
-1.286, -1.560e-3
-1.285, -1.575e-3
-1.284, -1.588e-3
-1.283, -1.603e-3
-1.282, -1.625e-3
-1.281, -1.649e-3
-1.280, -1.674e-3
-1.279, -1.689e-3
-1.278, -1.702e-3
-1.277, -1.714e-3
-1.276, -1.733e-3
-1.275, -1.751e-3
-1.274, -1.776e-3
-1.273, -1.794e-3
-1.272, -1.807e-3
-1.271, -1.819e-3
-1.270, -1.834e-3
-1.269, -1.853e-3
-1.268, -1.881e-3
-1.267, -1.902e-3
-1.266, -1.921e-3
-1.265, -1.933e-3
-1.264, -1.942e-3
-1.263, -1.951e-3
-1.262, -1.970e-3
-1.261, -1.995e-3
-1.260, -2.016e-3
-1.259, -2.029e-3
-1.258, -2.038e-3
-1.257, -2.050e-3
-1.256, -2.066e-3
-1.255, -2.087e-3
-1.254, -2.112e-3
-1.253, -2.133e-3
-1.252, -2.149e-3
-1.251, -2.161e-3
-1.250, -2.177e-3
-1.249, -2.198e-3
-1.248, -2.226e-3
-1.247, -2.254e-3
-1.246, -2.272e-3
-1.245, -2.288e-3
-1.244, -2.300e-3
-1.243, -2.312e-3
-1.242, -2.337e-3
-1.241, -2.358e-3
-1.240, -2.380e-3
-1.239, -2.395e-3
-1.238, -2.405e-3
-1.237, -2.417e-3
-1.236, -2.432e-3
-1.235, -2.457e-3
-1.234, -2.491e-3
-1.233, -2.516e-3
-1.232, -2.531e-3
-1.231, -2.540e-3
-1.230, -2.550e-3
-1.229, -2.571e-3
-1.228, -2.596e-3
-1.227, -2.617e-3
-1.226, -2.636e-3
-1.225, -2.648e-3
-1.224, -2.661e-3
-1.223, -2.679e-3
-1.222, -2.701e-3
-1.221, -2.728e-3
-1.220, -2.756e-3
-1.219, -2.775e-3
-1.218, -2.790e-3
-1.217, -2.805e-3
-1.216, -2.824e-3
-1.215, -2.849e-3
-1.214, -2.873e-3
-1.213, -2.895e-3
-1.212, -2.910e-3
-1.211, -2.923e-3
-1.210, -2.938e-3
-1.209, -2.960e-3
-1.208, -2.984e-3
-1.207, -3.012e-3
-1.206, -3.031e-3
-1.205, -3.049e-3
-1.204, -3.064e-3
-1.203, -3.086e-3
-1.202, -3.111e-3
-1.201, -3.145e-3
-1.200, -3.169e-3
-1.199, -3.194e-3
-1.198, -3.209e-3
-1.197, -3.228e-3
-1.196, -3.249e-3
-1.195, -3.277e-3
-1.194, -3.305e-3
-1.193, -3.333e-3
-1.192, -3.351e-3
-1.191, -3.370e-3
-1.190, -3.388e-3
-1.189, -3.413e-3
-1.188, -3.444e-3
-1.187, -3.478e-3
-1.186, -3.505e-3
-1.185, -3.527e-3
-1.184, -3.545e-3
-1.183, -3.567e-3
-1.182, -3.595e-3
-1.181, -3.629e-3
-1.180, -3.659e-3
-1.179, -3.684e-3
-1.178, -3.706e-3
-1.177, -3.727e-3
-1.176, -3.749e-3
-1.175, -3.777e-3
-1.174, -3.811e-3
-1.173, -3.841e-3
-1.172, -3.869e-3
-1.171, -3.891e-3
-1.170, -3.912e-3
-1.169, -3.940e-3
-1.168, -3.980e-3
-1.167, -4.017e-3
-1.166, -4.045e-3
-1.165, -4.066e-3
-1.164, -4.097e-3
-1.163, -4.128e-3
-1.162, -4.165e-3
-1.161, -4.199e-3
-1.160, -4.227e-3
-1.159, -4.255e-3
-1.158, -4.279e-3
-1.157, -4.301e-3
-1.156, -4.322e-3
-1.155, -4.350e-3
-1.154, -4.381e-3
-1.153, -4.406e-3
-1.152, -4.427e-3
-1.151, -4.449e-3
-1.150, -4.483e-3
-1.149, -4.520e-3
-1.148, -4.560e-3
-1.147, -4.609e-3
-1.146, -4.634e-3
-1.145, -4.658e-3
-1.144, -4.683e-3
-1.143, -4.705e-3
-1.142, -4.739e-3
-1.141, -4.766e-3
-1.140, -4.794e-3
-1.139, -4.819e-3
-1.138, -4.840e-3
-1.137, -4.865e-3
-1.136, -4.896e-3
-1.135, -4.933e-3
-1.134, -4.970e-3
-1.133, -5.004e-3
-1.132, -5.031e-3
-1.131, -5.053e-3
-1.130, -5.084e-3
-1.129, -5.112e-3
-1.128, -5.142e-3
-1.127, -5.176e-3
-1.126, -5.207e-3
-1.125, -5.232e-3
-1.124, -5.247e-3
-1.123, -5.272e-3
-1.122, -5.300e-3
-1.121, -5.334e-3
-1.120, -5.358e-3
-1.119, -5.380e-3
-1.118, -5.398e-3
-1.117, -5.423e-3
-1.116, -5.457e-3
-1.115, -5.482e-3
-1.114, -5.509e-3
-1.113, -5.537e-3
-1.112, -5.556e-3
-1.111, -5.571e-3
-1.110, -5.586e-3
-1.109, -5.611e-3
-1.108, -5.642e-3
-1.107, -5.676e-3
-1.106, -5.697e-3
-1.105, -5.710e-3
-1.104, -5.728e-3
-1.103, -5.768e-3
-1.102, -5.821e-3
-1.101, -5.870e-3
-1.100, -5.898e-3
-1.099, -5.901e-3
-1.098, -5.886e-3
-1.097, -5.864e-3
-1.096, -5.839e-3
-1.095, -5.845e-3
-1.094, -5.886e-3
-1.093, -5.950e-3
-1.092, -6.012e-3
-1.091, -6.061e-3
-1.090, -6.095e-3
-1.089, -6.114e-3
-1.088, -6.123e-3
-1.087, -6.132e-3
-1.086, -6.138e-3
-1.085, -6.135e-3
-1.084, -6.144e-3
-1.083, -6.163e-3
-1.082, -6.194e-3
-1.081, -6.215e-3
-1.080, -6.237e-3
-1.079, -6.252e-3
-1.078, -6.265e-3
-1.077, -6.277e-3
-1.076, -6.299e-3
-1.075, -6.320e-3
-1.074, -6.339e-3
-1.073, -6.354e-3
-1.072, -6.360e-3
-1.071, -6.366e-3
-1.070, -6.373e-3
-1.069, -6.385e-3
-1.068, -6.410e-3
-1.067, -6.437e-3
-1.066, -6.465e-3
-1.065, -6.477e-3
-1.064, -6.496e-3
-1.063, -6.511e-3
-1.062, -6.527e-3
-1.061, -6.542e-3
-1.060, -6.548e-3
-1.059, -6.548e-3
-1.058, -6.548e-3
-1.057, -6.545e-3
-1.056, -6.533e-3
-1.055, -6.530e-3
-1.054, -6.545e-3
-1.053, -6.567e-3
-1.052, -6.588e-3
-1.051, -6.604e-3
-1.050, -6.607e-3
-1.049, -6.607e-3
-1.048, -6.613e-3
-1.047, -6.622e-3
-1.046, -6.625e-3
-1.045, -6.625e-3
-1.044, -6.629e-3
-1.043, -6.622e-3
-1.042, -6.625e-3
-1.041, -6.638e-3
-1.040, -6.653e-3
-1.039, -6.659e-3
-1.038, -6.659e-3
-1.037, -6.653e-3
-1.036, -6.650e-3
-1.035, -6.650e-3
-1.034, -6.659e-3
-1.033, -6.669e-3
-1.032, -6.681e-3
-1.031, -6.696e-3
-1.030, -6.709e-3
-1.029, -6.724e-3
-1.028, -6.736e-3
-1.027, -6.730e-3
-1.026, -6.715e-3
-1.025, -6.684e-3
-1.024, -6.659e-3
-1.023, -6.647e-3
-1.022, -6.647e-3
-1.021, -6.650e-3
-1.020, -6.650e-3
-1.019, -6.644e-3
-1.018, -6.638e-3
-1.017, -6.638e-3
-1.016, -6.644e-3
-1.015, -6.650e-3
-1.014, -6.644e-3
-1.013, -6.632e-3
-1.012, -6.619e-3
-1.011, -6.616e-3
-1.010, -6.607e-3
-1.009, -6.604e-3
-1.008, -6.607e-3
-1.007, -6.616e-3
-1.006, -6.619e-3
-1.005, -6.616e-3
-1.004, -6.610e-3
-1.003, -6.604e-3
-1.002, -6.595e-3
-1.001, -6.582e-3
