Dec. 19, 2024   18:18:01
Cyclic Voltammetry
File: c:/users/guazh/data/banditlqround7_x0exp667_r5/2024-12-16-exp703\exp703-2024-12-19t18_05_19-arkoh\exp703_cv_sr_900mvs_efin_-1500mv.bin
Data Source:  Experiment
Instrument Model:  CHI760E
Header: CV ran at 900 mVs
Note: 

Init E (V) = -1
High E (V) = -1
Low E (V) = -1.5
Final E (V) = -1
Init P/N = N
Scan Rate (V/s) = 0.9
Segment = 3
Sample Interval (V) = 0.001
Quiet Time (sec) = 2
Sensitivity (A/V) = 0.01
Comp R (ohm) = 1.2

Results:

Channel 1:
Segment 1:

Segment 2:

Segment 3:

Potential/V, Current/A

-1.000, -8.617e-5
-1.001, 1.865e-5
-1.002, 1.142e-4
-1.003, 2.036e-4
-1.004, 2.838e-4
-1.005, 3.578e-4
-1.006, 4.287e-4
-1.007, 4.935e-4
-1.008, 5.520e-4
-1.009, 6.075e-4
-1.010, 6.630e-4
-1.011, 7.154e-4
-1.012, 7.679e-4
-1.013, 8.172e-4
-1.014, 8.665e-4
-1.015, 9.158e-4
-1.016, 9.590e-4
-1.017, 1.005e-3
-1.018, 1.045e-3
-1.019, 1.085e-3
-1.020, 1.122e-3
-1.021, 1.153e-3
-1.022, 1.187e-3
-1.023, 1.218e-3
-1.024, 1.246e-3
-1.025, 1.277e-3
-1.026, 1.304e-3
-1.027, 1.338e-3
-1.028, 1.366e-3
-1.029, 1.397e-3
-1.030, 1.428e-3
-1.031, 1.458e-3
-1.032, 1.486e-3
-1.033, 1.517e-3
-1.034, 1.545e-3
-1.035, 1.573e-3
-1.036, 1.597e-3
-1.037, 1.622e-3
-1.038, 1.647e-3
-1.039, 1.668e-3
-1.040, 1.693e-3
-1.041, 1.717e-3
-1.042, 1.739e-3
-1.043, 1.767e-3
-1.044, 1.795e-3
-1.045, 1.819e-3
-1.046, 1.847e-3
-1.047, 1.875e-3
-1.048, 1.899e-3
-1.049, 1.924e-3
-1.050, 1.949e-3
-1.051, 1.970e-3
-1.052, 1.992e-3
-1.053, 2.013e-3
-1.054, 2.032e-3
-1.055, 2.057e-3
-1.056, 2.078e-3
-1.057, 2.106e-3
-1.058, 2.131e-3
-1.059, 2.158e-3
-1.060, 2.186e-3
-1.061, 2.217e-3
-1.062, 2.248e-3
-1.063, 2.275e-3
-1.064, 2.300e-3
-1.065, 2.328e-3
-1.066, 2.349e-3
-1.067, 2.377e-3
-1.068, 2.402e-3
-1.069, 2.423e-3
-1.070, 2.448e-3
-1.071, 2.473e-3
-1.072, 2.497e-3
-1.073, 2.525e-3
-1.074, 2.553e-3
-1.075, 2.584e-3
-1.076, 2.615e-3
-1.077, 2.642e-3
-1.078, 2.670e-3
-1.079, 2.698e-3
-1.080, 2.723e-3
-1.081, 2.750e-3
-1.082, 2.775e-3
-1.083, 2.800e-3
-1.084, 2.821e-3
-1.085, 2.849e-3
-1.086, 2.874e-3
-1.087, 2.904e-3
-1.088, 2.929e-3
-1.089, 2.963e-3
-1.090, 2.994e-3
-1.091, 3.025e-3
-1.092, 3.056e-3
-1.093, 3.086e-3
-1.094, 3.120e-3
-1.095, 3.148e-3
-1.096, 3.176e-3
-1.097, 3.204e-3
-1.098, 3.231e-3
-1.099, 3.256e-3
-1.100, 3.284e-3
-1.101, 3.311e-3
-1.102, 3.339e-3
-1.103, 3.370e-3
-1.104, 3.401e-3
-1.105, 3.435e-3
-1.106, 3.466e-3
-1.107, 3.496e-3
-1.108, 3.527e-3
-1.109, 3.558e-3
-1.110, 3.589e-3
-1.111, 3.617e-3
-1.112, 3.644e-3
-1.113, 3.675e-3
-1.114, 3.700e-3
-1.115, 3.731e-3
-1.116, 3.758e-3
-1.117, 3.789e-3
-1.118, 3.820e-3
-1.119, 3.854e-3
-1.120, 3.888e-3
-1.121, 3.922e-3
-1.122, 3.956e-3
-1.123, 3.987e-3
-1.124, 4.024e-3
-1.125, 4.051e-3
-1.126, 4.082e-3
-1.127, 4.110e-3
-1.128, 4.138e-3
-1.129, 4.162e-3
-1.130, 4.190e-3
-1.131, 4.218e-3
-1.132, 4.246e-3
-1.133, 4.276e-3
-1.134, 4.307e-3
-1.135, 4.338e-3
-1.136, 4.369e-3
-1.137, 4.400e-3
-1.138, 4.431e-3
-1.139, 4.461e-3
-1.140, 4.489e-3
-1.141, 4.517e-3
-1.142, 4.545e-3
-1.143, 4.572e-3
-1.144, 4.597e-3
-1.145, 4.628e-3
-1.146, 4.656e-3
-1.147, 4.683e-3
-1.148, 4.714e-3
-1.149, 4.742e-3
-1.150, 4.776e-3
-1.151, 4.807e-3
-1.152, 4.838e-3
-1.153, 4.868e-3
-1.154, 4.899e-3
-1.155, 4.927e-3
-1.156, 4.958e-3
-1.157, 4.982e-3
-1.158, 5.010e-3
-1.159, 5.035e-3
-1.160, 5.063e-3
-1.161, 5.093e-3
-1.162, 5.121e-3
-1.163, 5.152e-3
-1.164, 5.186e-3
-1.165, 5.217e-3
-1.166, 5.251e-3
-1.167, 5.282e-3
-1.168, 5.315e-3
-1.169, 5.346e-3
-1.170, 5.371e-3
-1.171, 5.399e-3
-1.172, 5.423e-3
-1.173, 5.451e-3
-1.174, 5.476e-3
-1.175, 5.504e-3
-1.176, 5.531e-3
-1.177, 5.562e-3
-1.178, 5.593e-3
-1.179, 5.627e-3
-1.180, 5.658e-3
-1.181, 5.688e-3
-1.182, 5.719e-3
-1.183, 5.750e-3
-1.184, 5.784e-3
-1.185, 5.815e-3
-1.186, 5.843e-3
-1.187, 5.870e-3
-1.188, 5.898e-3
-1.189, 5.923e-3
-1.190, 5.951e-3
-1.191, 5.978e-3
-1.192, 6.009e-3
-1.193, 6.040e-3
-1.194, 6.071e-3
-1.195, 6.105e-3
-1.196, 6.136e-3
-1.197, 6.169e-3
-1.198, 6.200e-3
-1.199, 6.234e-3
-1.200, 6.262e-3
-1.201, 6.293e-3
-1.202, 6.321e-3
-1.203, 6.348e-3
-1.204, 6.376e-3
-1.205, 6.404e-3
-1.206, 6.435e-3
-1.207, 6.465e-3
-1.208, 6.496e-3
-1.209, 6.527e-3
-1.210, 6.561e-3
-1.211, 6.592e-3
-1.212, 6.626e-3
-1.213, 6.657e-3
-1.214, 6.691e-3
-1.215, 6.718e-3
-1.216, 6.746e-3
-1.217, 6.774e-3
-1.218, 6.801e-3
-1.219, 6.826e-3
-1.220, 6.857e-3
-1.221, 6.885e-3
-1.222, 6.916e-3
-1.223, 6.943e-3
-1.224, 6.974e-3
-1.225, 7.011e-3
-1.226, 7.045e-3
-1.227, 7.079e-3
-1.228, 7.113e-3
-1.229, 7.153e-3
-1.230, 7.181e-3
-1.231, 7.208e-3
-1.232, 7.233e-3
-1.233, 7.261e-3
-1.234, 7.286e-3
-1.235, 7.313e-3
-1.236, 7.344e-3
-1.237, 7.375e-3
-1.238, 7.409e-3
-1.239, 7.443e-3
-1.240, 7.477e-3
-1.241, 7.514e-3
-1.242, 7.548e-3
-1.243, 7.578e-3
-1.244, 7.612e-3
-1.245, 7.640e-3
-1.246, 7.668e-3
-1.247, 7.696e-3
-1.248, 7.726e-3
-1.249, 7.754e-3
-1.250, 7.788e-3
-1.251, 7.819e-3
-1.252, 7.856e-3
-1.253, 7.887e-3
-1.254, 7.924e-3
-1.255, 7.964e-3
-1.256, 8.001e-3
-1.257, 8.035e-3
-1.258, 8.072e-3
-1.259, 8.106e-3
-1.260, 8.136e-3
-1.261, 8.167e-3
-1.262, 8.198e-3
-1.263, 8.226e-3
-1.264, 8.257e-3
-1.265, 8.288e-3
-1.266, 8.315e-3
-1.267, 8.349e-3
-1.268, 8.380e-3
-1.269, 8.414e-3
-1.270, 8.451e-3
-1.271, 8.485e-3
-1.272, 8.519e-3
-1.273, 8.556e-3
-1.274, 8.590e-3
-1.275, 8.617e-3
-1.276, 8.648e-3
-1.277, 8.679e-3
-1.278, 8.713e-3
-1.279, 8.744e-3
-1.280, 8.781e-3
-1.281, 8.812e-3
-1.282, 8.846e-3
-1.283, 8.883e-3
-1.284, 8.920e-3
-1.285, 8.957e-3
-1.286, 8.994e-3
-1.287, 9.031e-3
-1.288, 9.071e-3
-1.289, 9.108e-3
-1.290, 9.145e-3
-1.291, 9.185e-3
-1.292, 9.222e-3
-1.293, 9.259e-3
-1.294, 9.290e-3
-1.295, 9.323e-3
-1.296, 9.354e-3
-1.297, 9.388e-3
-1.298, 9.419e-3
-1.299, 9.453e-3
-1.300, 9.484e-3
-1.301, 9.521e-3
-1.302, 9.555e-3
-1.303, 9.592e-3
-1.304, 9.632e-3
-1.305, 9.669e-3
-1.306, 9.700e-3
-1.307, 9.737e-3
-1.308, 9.774e-3
-1.309, 9.811e-3
-1.310, 9.851e-3
-1.311, 9.888e-3
-1.312, 9.928e-3
-1.313, 9.968e-3
-1.314, 9.999e-3
-1.315, 1.003e-2
-1.316, 1.007e-2
-1.317, 1.010e-2
-1.318, 1.014e-2
-1.319, 1.019e-2
-1.320, 1.023e-2
-1.321, 1.027e-2
-1.322, 1.031e-2
-1.323, 1.036e-2
-1.324, 1.039e-2
-1.325, 1.043e-2
-1.326, 1.046e-2
-1.327, 1.049e-2
-1.328, 1.052e-2
-1.329, 1.055e-2
-1.330, 1.059e-2
-1.331, 1.062e-2
-1.332, 1.066e-2
-1.333, 1.070e-2
-1.334, 1.074e-2
-1.335, 1.078e-2
-1.336, 1.082e-2
-1.337, 1.085e-2
-1.338, 1.089e-2
-1.339, 1.092e-2
-1.340, 1.095e-2
-1.341, 1.099e-2
-1.342, 1.102e-2
-1.343, 1.106e-2
-1.344, 1.110e-2
-1.345, 1.115e-2
-1.346, 1.119e-2
-1.347, 1.123e-2
-1.348, 1.128e-2
-1.349, 1.132e-2
-1.350, 1.136e-2
-1.351, 1.139e-2
-1.352, 1.143e-2
-1.353, 1.147e-2
-1.354, 1.150e-2
-1.355, 1.154e-2
-1.356, 1.157e-2
-1.357, 1.161e-2
-1.358, 1.165e-2
-1.359, 1.169e-2
-1.360, 1.173e-2
-1.361, 1.177e-2
-1.362, 1.181e-2
-1.363, 1.184e-2
-1.364, 1.187e-2
-1.365, 1.190e-2
-1.366, 1.193e-2
-1.367, 1.196e-2
-1.368, 1.199e-2
-1.369, 1.202e-2
-1.370, 1.206e-2
-1.371, 1.208e-2
-1.372, 1.211e-2
-1.373, 1.213e-2
-1.374, 1.216e-2
-1.375, 1.219e-2
-1.376, 1.223e-2
-1.377, 1.227e-2
-1.378, 1.231e-2
-1.379, 1.235e-2
-1.380, 1.239e-2
-1.381, 1.241e-2
-1.382, 1.244e-2
-1.383, 1.247e-2
-1.384, 1.248e-2
-1.385, 1.251e-2
-1.386, 1.253e-2
-1.387, 1.255e-2
-1.388, 1.258e-2
-1.389, 1.260e-2
-1.390, 1.263e-2
-1.391, 1.266e-2
-1.392, 1.269e-2
-1.393, 1.273e-2
-1.394, 1.276e-2
-1.395, 1.280e-2
-1.396, 1.282e-2
-1.397, 1.285e-2
-1.398, 1.287e-2
-1.399, 1.289e-2
-1.400, 1.290e-2
-1.401, 1.292e-2
-1.402, 1.294e-2
-1.403, 1.296e-2
-1.404, 1.298e-2
-1.405, 1.300e-2
-1.406, 1.302e-2
-1.407, 1.304e-2
-1.408, 1.307e-2
-1.409, 1.309e-2
-1.410, 1.311e-2
-1.411, 1.313e-2
-1.412, 1.315e-2
-1.413, 1.317e-2
-1.414, 1.318e-2
-1.415, 1.320e-2
-1.416, 1.321e-2
-1.417, 1.322e-2
-1.418, 1.324e-2
-1.419, 1.325e-2
-1.420, 1.326e-2
-1.421, 1.327e-2
-1.422, 1.329e-2
-1.423, 1.330e-2
-1.424, 1.331e-2
-1.425, 1.332e-2
-1.426, 1.332e-2
-1.427, 1.333e-2
-1.428, 1.334e-2
-1.429, 1.335e-2
-1.430, 1.337e-2
-1.431, 1.338e-2
-1.432, 1.340e-2
-1.433, 1.342e-2
-1.434, 1.344e-2
-1.435, 1.346e-2
-1.436, 1.347e-2
-1.437, 1.348e-2
-1.438, 1.349e-2
-1.439, 1.348e-2
-1.440, 1.347e-2
-1.441, 1.345e-2
-1.442, 1.344e-2
-1.443, 1.342e-2
-1.444, 1.340e-2
-1.445, 1.338e-2
-1.446, 1.337e-2
-1.447, 1.336e-2
-1.448, 1.335e-2
-1.449, 1.335e-2
-1.450, 1.335e-2
-1.451, 1.336e-2
-1.452, 1.337e-2
-1.453, 1.337e-2
-1.454, 1.337e-2
-1.455, 1.337e-2
-1.456, 1.336e-2
-1.457, 1.335e-2
-1.458, 1.334e-2
-1.459, 1.333e-2
-1.460, 1.333e-2
-1.461, 1.332e-2
-1.462, 1.332e-2
-1.463, 1.331e-2
-1.464, 1.330e-2
-1.465, 1.329e-2
-1.466, 1.328e-2
-1.467, 1.327e-2
-1.468, 1.325e-2
-1.469, 1.324e-2
-1.470, 1.321e-2
-1.471, 1.319e-2
-1.472, 1.317e-2
-1.473, 1.314e-2
-1.474, 1.312e-2
-1.475, 1.309e-2
-1.476, 1.306e-2
-1.477, 1.304e-2
-1.478, 1.301e-2
-1.479, 1.300e-2
-1.480, 1.300e-2
-1.481, 1.299e-2
-1.482, 1.299e-2
-1.483, 1.298e-2
-1.484, 1.297e-2
-1.485, 1.296e-2
-1.486, 1.293e-2
-1.487, 1.291e-2
-1.488, 1.288e-2
-1.489, 1.286e-2
-1.490, 1.284e-2
-1.491, 1.281e-2
-1.492, 1.279e-2
-1.493, 1.277e-2
-1.494, 1.275e-2
-1.495, 1.274e-2
-1.496, 1.273e-2
-1.497, 1.271e-2
-1.498, 1.270e-2
-1.499, 1.268e-2
-1.500, 1.259e-2
-1.499, 1.236e-2
-1.498, 1.214e-2
-1.497, 1.193e-2
-1.496, 1.173e-2
-1.495, 1.153e-2
-1.494, 1.135e-2
-1.493, 1.116e-2
-1.492, 1.098e-2
-1.491, 1.081e-2
-1.490, 1.064e-2
-1.489, 1.048e-2
-1.488, 1.031e-2
-1.487, 1.015e-2
-1.486, 9.993e-3
-1.485, 9.835e-3
-1.484, 9.681e-3
-1.483, 9.530e-3
-1.482, 9.379e-3
-1.481, 9.225e-3
-1.480, 9.071e-3
-1.479, 8.920e-3
-1.478, 8.775e-3
-1.477, 8.624e-3
-1.476, 8.482e-3
-1.475, 8.343e-3
-1.474, 8.210e-3
-1.473, 8.078e-3
-1.472, 7.948e-3
-1.471, 7.819e-3
-1.470, 7.689e-3
-1.469, 7.563e-3
-1.468, 7.437e-3
-1.467, 7.313e-3
-1.466, 7.187e-3
-1.465, 7.067e-3
-1.464, 6.946e-3
-1.463, 6.832e-3
-1.462, 6.718e-3
-1.461, 6.607e-3
-1.460, 6.502e-3
-1.459, 6.395e-3
-1.458, 6.290e-3
-1.457, 6.182e-3
-1.456, 6.077e-3
-1.455, 5.969e-3
-1.454, 5.864e-3
-1.453, 5.759e-3
-1.452, 5.655e-3
-1.451, 5.553e-3
-1.450, 5.454e-3
-1.449, 5.352e-3
-1.448, 5.260e-3
-1.447, 5.164e-3
-1.446, 5.072e-3
-1.445, 4.982e-3
-1.444, 4.893e-3
-1.443, 4.807e-3
-1.442, 4.720e-3
-1.441, 4.631e-3
-1.440, 4.545e-3
-1.439, 4.458e-3
-1.438, 4.372e-3
-1.437, 4.283e-3
-1.436, 4.196e-3
-1.435, 4.113e-3
-1.434, 4.030e-3
-1.433, 3.947e-3
-1.432, 3.866e-3
-1.431, 3.786e-3
-1.430, 3.709e-3
-1.429, 3.635e-3
-1.428, 3.555e-3
-1.427, 3.481e-3
-1.426, 3.404e-3
-1.425, 3.324e-3
-1.424, 3.247e-3
-1.423, 3.170e-3
-1.422, 3.096e-3
-1.421, 3.019e-3
-1.420, 2.945e-3
-1.419, 2.874e-3
-1.418, 2.806e-3
-1.417, 2.738e-3
-1.416, 2.670e-3
-1.415, 2.608e-3
-1.414, 2.544e-3
-1.413, 2.479e-3
-1.412, 2.417e-3
-1.411, 2.353e-3
-1.410, 2.288e-3
-1.409, 2.220e-3
-1.408, 2.158e-3
-1.407, 2.091e-3
-1.406, 2.023e-3
-1.405, 1.961e-3
-1.404, 1.893e-3
-1.403, 1.835e-3
-1.402, 1.773e-3
-1.401, 1.714e-3
-1.400, 1.659e-3
-1.399, 1.603e-3
-1.398, 1.545e-3
-1.397, 1.489e-3
-1.396, 1.434e-3
-1.395, 1.375e-3
-1.394, 1.320e-3
-1.393, 1.261e-3
-1.392, 1.206e-3
-1.391, 1.144e-3
-1.390, 1.092e-3
-1.389, 1.036e-3
-1.388, 9.837e-4
-1.387, 9.343e-4
-1.386, 8.850e-4
-1.385, 8.357e-4
-1.384, 7.863e-4
-1.383, 7.370e-4
-1.382, 6.908e-4
-1.381, 6.414e-4
-1.380, 5.921e-4
-1.379, 5.397e-4
-1.378, 4.904e-4
-1.377, 4.380e-4
-1.376, 3.886e-4
-1.375, 3.393e-4
-1.374, 2.900e-4
-1.373, 2.437e-4
-1.372, 2.006e-4
-1.371, 1.574e-4
-1.370, 1.142e-4
-1.369, 7.415e-5
-1.368, 3.099e-5
-1.367, -1.218e-5
-1.366, -5.226e-5
-1.365, -9.542e-5
-1.364, -1.386e-4
-1.363, -1.848e-4
-1.362, -2.280e-4
-1.361, -2.712e-4
-1.360, -3.143e-4
-1.359, -3.575e-4
-1.358, -3.976e-4
-1.357, -4.346e-4
-1.356, -4.746e-4
-1.355, -5.116e-4
-1.354, -5.456e-4
-1.353, -5.826e-4
-1.352, -6.165e-4
-1.351, -6.535e-4
-1.350, -6.905e-4
-1.349, -7.305e-4
-1.348, -7.706e-4
-1.347, -8.076e-4
-1.346, -8.477e-4
-1.345, -8.847e-4
-1.344, -9.217e-4
-1.343, -9.556e-4
-1.342, -9.895e-4
-1.341, -1.023e-3
-1.340, -1.054e-3
-1.339, -1.082e-3
-1.338, -1.113e-3
-1.337, -1.147e-3
-1.336, -1.175e-3
-1.335, -1.212e-3
-1.334, -1.245e-3
-1.333, -1.282e-3
-1.332, -1.316e-3
-1.331, -1.350e-3
-1.330, -1.381e-3
-1.329, -1.415e-3
-1.328, -1.446e-3
-1.327, -1.477e-3
-1.326, -1.504e-3
-1.325, -1.529e-3
-1.324, -1.560e-3
-1.323, -1.585e-3
-1.322, -1.612e-3
-1.321, -1.640e-3
-1.320, -1.668e-3
-1.319, -1.699e-3
-1.318, -1.729e-3
-1.317, -1.757e-3
-1.316, -1.788e-3
-1.315, -1.816e-3
-1.314, -1.847e-3
-1.313, -1.871e-3
-1.312, -1.899e-3
-1.311, -1.924e-3
-1.310, -1.945e-3
-1.309, -1.970e-3
-1.308, -1.992e-3
-1.307, -2.016e-3
-1.306, -2.041e-3
-1.305, -2.069e-3
-1.304, -2.093e-3
-1.303, -2.121e-3
-1.302, -2.149e-3
-1.301, -2.180e-3
-1.300, -2.204e-3
-1.299, -2.229e-3
-1.298, -2.257e-3
-1.297, -2.278e-3
-1.296, -2.300e-3
-1.295, -2.321e-3
-1.294, -2.343e-3
-1.293, -2.365e-3
-1.292, -2.383e-3
-1.291, -2.405e-3
-1.290, -2.429e-3
-1.289, -2.454e-3
-1.288, -2.479e-3
-1.287, -2.503e-3
-1.286, -2.534e-3
-1.285, -2.556e-3
-1.284, -2.583e-3
-1.283, -2.602e-3
-1.282, -2.627e-3
-1.281, -2.648e-3
-1.280, -2.670e-3
-1.279, -2.688e-3
-1.278, -2.707e-3
-1.277, -2.728e-3
-1.276, -2.750e-3
-1.275, -2.775e-3
-1.274, -2.799e-3
-1.273, -2.824e-3
-1.272, -2.849e-3
-1.271, -2.876e-3
-1.270, -2.898e-3
-1.269, -2.923e-3
-1.268, -2.944e-3
-1.267, -2.963e-3
-1.266, -2.981e-3
-1.265, -3.000e-3
-1.264, -3.015e-3
-1.263, -3.034e-3
-1.262, -3.052e-3
-1.261, -3.071e-3
-1.260, -3.092e-3
-1.259, -3.117e-3
-1.258, -3.138e-3
-1.257, -3.163e-3
-1.256, -3.185e-3
-1.255, -3.209e-3
-1.254, -3.234e-3
-1.253, -3.256e-3
-1.252, -3.277e-3
-1.251, -3.299e-3
-1.250, -3.317e-3
-1.249, -3.336e-3
-1.248, -3.354e-3
-1.247, -3.379e-3
-1.246, -3.397e-3
-1.245, -3.422e-3
-1.244, -3.450e-3
-1.243, -3.471e-3
-1.242, -3.499e-3
-1.241, -3.527e-3
-1.240, -3.549e-3
-1.239, -3.573e-3
-1.238, -3.592e-3
-1.237, -3.613e-3
-1.236, -3.632e-3
-1.235, -3.650e-3
-1.234, -3.669e-3
-1.233, -3.690e-3
-1.232, -3.712e-3
-1.231, -3.733e-3
-1.230, -3.758e-3
-1.229, -3.786e-3
-1.228, -3.814e-3
-1.227, -3.841e-3
-1.226, -3.872e-3
-1.225, -3.894e-3
-1.224, -3.922e-3
-1.223, -3.946e-3
-1.222, -3.968e-3
-1.221, -3.992e-3
-1.220, -4.014e-3
-1.219, -4.039e-3
-1.218, -4.063e-3
-1.217, -4.091e-3
-1.216, -4.116e-3
-1.215, -4.144e-3
-1.214, -4.171e-3
-1.213, -4.196e-3
-1.212, -4.227e-3
-1.211, -4.251e-3
-1.210, -4.276e-3
-1.209, -4.304e-3
-1.208, -4.325e-3
-1.207, -4.350e-3
-1.206, -4.375e-3
-1.205, -4.399e-3
-1.204, -4.424e-3
-1.203, -4.449e-3
-1.202, -4.477e-3
-1.201, -4.504e-3
-1.200, -4.535e-3
-1.199, -4.566e-3
-1.198, -4.600e-3
-1.197, -4.637e-3
-1.196, -4.674e-3
-1.195, -4.711e-3
-1.194, -4.745e-3
-1.193, -4.779e-3
-1.192, -4.809e-3
-1.191, -4.840e-3
-1.190, -4.871e-3
-1.189, -4.899e-3
-1.188, -4.930e-3
-1.187, -4.961e-3
-1.186, -4.991e-3
-1.185, -5.022e-3
-1.184, -5.056e-3
-1.183, -5.090e-3
-1.182, -5.118e-3
-1.181, -5.155e-3
-1.180, -5.186e-3
-1.179, -5.220e-3
-1.178, -5.250e-3
-1.177, -5.287e-3
-1.176, -5.318e-3
-1.175, -5.349e-3
-1.174, -5.380e-3
-1.173, -5.411e-3
-1.172, -5.448e-3
-1.171, -5.479e-3
-1.170, -5.512e-3
-1.169, -5.549e-3
-1.168, -5.583e-3
-1.167, -5.620e-3
-1.166, -5.660e-3
-1.165, -5.697e-3
-1.164, -5.738e-3
-1.163, -5.775e-3
-1.162, -5.815e-3
-1.161, -5.849e-3
-1.160, -5.886e-3
-1.159, -5.919e-3
-1.158, -5.953e-3
-1.157, -5.987e-3
-1.156, -6.021e-3
-1.155, -6.058e-3
-1.154, -6.098e-3
-1.153, -6.135e-3
-1.152, -6.175e-3
-1.151, -6.222e-3
-1.150, -6.262e-3
-1.149, -6.305e-3
-1.148, -6.342e-3
-1.147, -6.379e-3
-1.146, -6.419e-3
-1.145, -6.453e-3
-1.144, -6.490e-3
-1.143, -6.524e-3
-1.142, -6.558e-3
-1.141, -6.592e-3
-1.140, -6.629e-3
-1.139, -6.666e-3
-1.138, -6.703e-3
-1.137, -6.743e-3
-1.136, -6.783e-3
-1.135, -6.823e-3
-1.134, -6.860e-3
-1.133, -6.900e-3
-1.132, -6.937e-3
-1.131, -6.974e-3
-1.130, -7.008e-3
-1.129, -7.042e-3
-1.128, -7.076e-3
-1.127, -7.109e-3
-1.126, -7.140e-3
-1.125, -7.171e-3
-1.124, -7.205e-3
-1.123, -7.242e-3
-1.122, -7.279e-3
-1.121, -7.322e-3
-1.120, -7.359e-3
-1.119, -7.399e-3
-1.118, -7.436e-3
-1.117, -7.473e-3
-1.116, -7.510e-3
-1.115, -7.544e-3
-1.114, -7.581e-3
-1.113, -7.621e-3
-1.112, -7.658e-3
-1.111, -7.695e-3
-1.110, -7.738e-3
-1.109, -7.785e-3
-1.108, -7.831e-3
-1.107, -7.874e-3
-1.106, -7.920e-3
-1.105, -7.967e-3
-1.104, -8.010e-3
-1.103, -8.050e-3
-1.102, -8.093e-3
-1.101, -8.133e-3
-1.100, -8.170e-3
-1.099, -8.204e-3
-1.098, -8.238e-3
-1.097, -8.272e-3
-1.096, -8.309e-3
-1.095, -8.352e-3
-1.094, -8.395e-3
-1.093, -8.438e-3
-1.092, -8.481e-3
-1.091, -8.522e-3
-1.090, -8.559e-3
-1.089, -8.592e-3
-1.088, -8.623e-3
-1.087, -8.654e-3
-1.086, -8.682e-3
-1.085, -8.707e-3
-1.084, -8.734e-3
-1.083, -8.759e-3
-1.082, -8.784e-3
-1.081, -8.811e-3
-1.080, -8.845e-3
-1.079, -8.882e-3
-1.078, -8.913e-3
-1.077, -8.947e-3
-1.076, -8.984e-3
-1.075, -9.021e-3
-1.074, -9.061e-3
-1.073, -9.098e-3
-1.072, -9.141e-3
-1.071, -9.184e-3
-1.070, -9.228e-3
-1.069, -9.268e-3
-1.068, -9.308e-3
-1.067, -9.351e-3
-1.066, -9.391e-3
-1.065, -9.434e-3
-1.064, -9.474e-3
-1.063, -9.508e-3
-1.062, -9.533e-3
-1.061, -9.561e-3
-1.060, -9.582e-3
-1.059, -9.601e-3
-1.058, -9.622e-3
-1.057, -9.644e-3
-1.056, -9.665e-3
-1.055, -9.690e-3
-1.054, -9.715e-3
-1.053, -9.742e-3
-1.052, -9.773e-3
-1.051, -9.804e-3
-1.050, -9.841e-3
-1.049, -9.875e-3
-1.048, -9.912e-3
-1.047, -9.943e-3
-1.046, -9.980e-3
-1.045, -1.001e-2
-1.044, -1.004e-2
-1.043, -1.007e-2
-1.042, -1.010e-2
-1.041, -1.013e-2
-1.040, -1.015e-2
-1.039, -1.018e-2
-1.038, -1.020e-2
-1.037, -1.023e-2
-1.036, -1.026e-2
-1.035, -1.029e-2
-1.034, -1.031e-2
-1.033, -1.034e-2
-1.032, -1.036e-2
-1.031, -1.038e-2
-1.030, -1.041e-2
-1.029, -1.043e-2
-1.028, -1.046e-2
-1.027, -1.048e-2
-1.026, -1.050e-2
-1.025, -1.052e-2
-1.024, -1.054e-2
-1.023, -1.056e-2
-1.022, -1.058e-2
-1.021, -1.060e-2
-1.020, -1.063e-2
-1.019, -1.066e-2
-1.018, -1.068e-2
-1.017, -1.070e-2
-1.016, -1.073e-2
-1.015, -1.075e-2
-1.014, -1.078e-2
-1.013, -1.080e-2
-1.012, -1.082e-2
-1.011, -1.083e-2
-1.010, -1.085e-2
-1.009, -1.086e-2
-1.008, -1.087e-2
-1.007, -1.089e-2
-1.006, -1.091e-2
-1.005, -1.093e-2
-1.004, -1.095e-2
-1.003, -1.097e-2
-1.002, -1.099e-2
-1.001, -1.101e-2
