Potential V vs RHE, Current mA cm-2
0.013299999999999867,1.0446228238203432
0.012299999999999978,-0.3511313446265021
0.011299999999999866,-1.5293029151541047
0.010299999999999976,-2.4884771764625997
0.009299999999999864,-3.403795387475278
0.008299999999999974,-4.1889601589003735
0.007299999999999862,-5.017980980621284
0.006299999999999972,-5.80314575204638
0.00529999999999986,-6.54445447317566
0.0042999999999999705,-7.199465805013171
0.0032999999999998586,-7.722908985963235
0.0022999999999999687,-8.202496116617484
0.0012999999999998568,-8.638227196975913
0.00029999999999996696,-9.031516938338395
-0.000700000000000145,-9.511104068992642
-0.0017000000000000348,-9.99069119964689
-0.0027000000000001467,-10.470278330301136
-0.0037000000000000366,-10.906009410659568
-0.0047000000000001485,-11.299299152022046
-0.005700000000000038,-11.604876792792895
-0.00670000000000015,-11.909039722263879
-0.00770000000000004,-12.170761312738911
-0.008700000000000152,-12.476338953509758
-0.009700000000000042,-12.781916594280606
-0.010700000000000154,-13.13135028534727
-0.011700000000000044,-13.47936926511407
-0.012700000000000156,-13.784946905884919
-0.013700000000000045,-14.046668496359947
-0.014700000000000157,-14.26028990263957
-0.015700000000000047,-14.444202371622024
-0.01670000000000016,-14.69885040559773
-0.01770000000000005,-14.967645552572087
-0.01870000000000016,-15.264734925543747
-0.01970000000000005,-15.618412750510005
-0.020700000000000163,-15.87306078448571
-0.021700000000000053,-16.141855931460068
-0.022700000000000164,-16.311621287443874
-0.023700000000000054,-16.495533756426326
-0.024700000000000166,-16.665299112410132
-0.025700000000000056,-16.919947146385837
-0.026700000000000168,-17.188742293360193
-0.027700000000000058,-17.48583166633185
-0.02870000000000017,-17.797068152302163
-0.02970000000000006,-18.06586329927652
-0.03070000000000017,-18.320511333252224
-0.03170000000000006,-18.49027668923603
-0.03270000000000017,-18.674189158218486
-0.03370000000000006,-18.88639585319824
-0.034700000000000175,-19.197632339168546
-0.035700000000000065,-19.49472171214021
-0.03670000000000018,-19.805958198110513
-0.03770000000000007,-20.10304757108217
-0.03870000000000018,-20.329401379060574
-0.03970000000000007,-20.541608074040333
-0.04070000000000018,-20.72552054302279
-0.04170000000000007,-20.89528589900659
-0.04270000000000018,-21.2065223849769
-0.04370000000000007,-21.503611757948562
-0.044700000000000184,-21.857289582914817
-0.045700000000000074,-22.15437895588647
-0.046700000000000186,-22.42317410286083
-0.047700000000000076,-22.63538079784059
-0.04870000000000019,-22.819293266823045
-0.04970000000000008,-23.073941300798747
-0.05070000000000019,-23.342736447773106
-0.05170000000000008,-23.639825820744765
-0.05270000000000019,-23.993503645711023
-0.05370000000000008,-24.389622809673234
-0.05470000000000019,-24.686712182644893
-0.05570000000000008,-24.9130659906233
-0.056700000000000195,-25.167714024599
-0.057700000000000085,-25.39406783257741
-0.058700000000000196,-25.60627452755716
-0.059700000000000086,-25.959952352523427
-0.0607000000000002,-26.29948306449103
-0.06170000000000009,-26.65316088945729
-0.0627000000000002,-26.9643973754276
-0.06370000000000009,-27.219045409403304
-0.0647000000000002,-27.43125210438306
-0.06570000000000009,-27.615164573365515
-0.0667000000000002,-27.869812607341224
-0.0677000000000001,-28.18104909331153
-0.0687000000000002,-28.53472691827779
-0.0697000000000001,-28.8742576302454
-0.07070000000000021,-29.22793545521166
-0.0717000000000001,-29.482583489187363
-0.07270000000000021,-29.708937297165768
-0.0737000000000001,-29.878702653149578
-0.07470000000000021,-30.147497800123933
-0.0757000000000001,-30.444587173095588
-0.07670000000000021,-30.79826499806185
-0.0777000000000001,-31.137795710029454
-0.07870000000000021,-31.49147353499572
-0.0797000000000001,-31.802710020966025
-0.08070000000000022,-32.05735805494172
-0.0817000000000001,-32.283711862920136
-0.08270000000000022,-32.53835989689585
-0.08370000000000011,-32.807155043870196
-0.08470000000000022,-33.10424441684186
-0.08570000000000011,-33.50036358080407
-0.08670000000000022,-33.89648274476628
-0.08770000000000011,-34.193572117737936
-0.08870000000000022,-34.462367264712285
-0.08970000000000011,-34.67457395969205
-0.09070000000000022,-34.85848642867451
-0.09170000000000011,-35.07069312365426
-0.09270000000000023,-35.38192960962457
-0.09370000000000012,-35.763901660588125
-0.09470000000000023,-36.16002082455034
-0.09570000000000012,-36.5136986495166
-0.09670000000000023,-36.768346683492304
-0.09770000000000012,-36.99470049147071
-0.09870000000000023,-37.164465847454515
-0.09970000000000012,-37.41911388143023
-0.10070000000000023,-37.687909028404576
-0.10170000000000012,-37.99914551437489
-0.10270000000000024,-38.33867622634249
-0.10370000000000013,-38.6499127123128
-0.10470000000000024,-38.94700208528445
-0.10570000000000013,-39.21579723225882
-0.10670000000000024,-39.38556258824262
-0.10770000000000013,-39.654357735216976
-0.10870000000000024,-39.95144710818864
-0.10970000000000013,-40.3900076111468
-0.11070000000000024,-40.78612677510901
-0.11170000000000013,-41.04077480908471
-0.11270000000000002,-41.352011295055014
-0.11370000000000013,-41.606659329030734
-0.11470000000000002,-41.79057179801318
-0.11570000000000014,-41.91789581500104
-0.11670000000000003,-42.130102509980794
-0.11770000000000014,-42.39889765695515
-0.11870000000000003,-42.79501682091736
-0.11970000000000014,-43.17698887188092
-0.12070000000000003,-43.61554937483908
-0.12170000000000014,-43.92678586080939
-0.12270000000000003,-44.096551216793195
-0.12370000000000014,-44.223875233781044
-0.12470000000000003,-44.36534636376755
-0.12570000000000014,-44.535111719751356
-0.12670000000000003,-44.74731841473111
-0.12770000000000015,-45.05855490070142
-0.12870000000000004,-45.32735004767578
-0.12970000000000015,-45.624439420647434
-0.13070000000000004,-45.89323456762179
-0.13170000000000015,-46.147882601597495
-0.13270000000000004,-46.41667774857186
-0.13370000000000015,-46.713767121543505
-0.13470000000000004,-47.067444946509774
-0.13570000000000015,-47.40697565847737
-0.13670000000000004,-47.76065348344364
-0.13770000000000016,-48.071889969413945
-0.13870000000000005,-48.32653800338966
-0.13970000000000016,-48.51045047237211
-0.14070000000000005,-48.68021582835591
-0.14170000000000016,-48.89242252333566
-0.14270000000000005,-49.16121767031002
-0.14370000000000016,-49.458307043281685
-0.14470000000000005,-49.81198486824794
-0.14570000000000016,-50.0807800152223
-0.14670000000000005,-50.37786938819396
-0.14770000000000016,-50.60422319617236
-0.14870000000000005,-50.81642989115212
-0.14970000000000017,-51.071077925127824
-0.15070000000000006,-51.33987307210218
-0.15170000000000017,-51.65110955807249
-0.15270000000000006,-51.990640270040096
-0.15370000000000017,-52.30187675601041
-0.15470000000000006,-52.59896612898206
-0.15570000000000017,-52.82531993696047
-0.15670000000000006,-52.995085292944275
-0.15770000000000017,-53.26388043991864
-0.15870000000000006,-53.518528473894335
-0.15970000000000018,-53.82976495986464
-0.16070000000000007,-54.2117370108282
-0.16170000000000018,-54.56541483579447
-0.16270000000000007,-54.876651321764776
-0.16370000000000018,-55.088858016744524
-0.16470000000000007,-55.31521182472294
-0.16570000000000018,-55.527418519702685
-0.16670000000000007,-55.73962521468245
-0.16770000000000018,-56.05086170065276
-0.16870000000000007,-56.36209818662306
-0.16970000000000018,-56.70162889859067
-0.17070000000000007,-57.05530672355693
-0.17170000000000019,-57.352396096528594
-0.17270000000000008,-57.62119124350295
-0.1737000000000002,-57.79095659948675
-0.17470000000000008,-58.017310407465146
-0.1757000000000002,-58.31439978043681
-0.17670000000000008,-58.583194927411164
-0.1777000000000002,-58.92272563937878
-0.17870000000000008,-59.23396212534908
-0.1797000000000002,-59.54519861131939
-0.18070000000000008,-59.7998466452951
-0.1817000000000002,-60.02620045327351
-0.18270000000000008,-60.23840714825326
-0.1837000000000002,-60.45061384323302
-0.1847000000000001,-60.80429166819927
-0.1857000000000002,-61.11552815416958
-0.1867000000000001,-61.49750020513315
-0.1877000000000002,-61.851178030099405
-0.1887000000000001,-62.11997317707376
-0.1897000000000002,-62.37462121104946
-0.1907000000000001,-62.64341635802381
-0.1917000000000001,-62.855623053003576
-0.19269999999999998,-63.15271242597524
-0.1937000000000001,-63.5063902509415
-0.19469999999999998,-63.860068075907755
-0.1957000000000001,-64.25618723986996
-0.19669999999999999,-64.55327661284163
-0.1977000000000001,-64.82207175981598
-0.1987,-65.11916113278764
-0.1997000000000001,-65.43039761875795
-0.2007,-65.76992833072556
-0.2017000000000001,-66.16604749468777
-0.2027,-66.56216665864997
-0.2037000000000001,-66.91584448361623
-0.2047,-67.21293385658788
-0.2057000000000001,-67.48172900356225
-0.2067,-67.73637703753796
-0.2077000000000001,-68.04761352350828
-0.2087,-68.38714423547587
-0.2097000000000001,-68.74082206044213
-0.2107,-69.13694122440434
-0.2117000000000001,-69.57550172736251
-0.2127,-69.95747377832606
-0.2137000000000001,-70.31115160329232
-0.2147,-70.62238808926263
-0.2157000000000001,-71.0043601402262
-0.2167,-71.35803796519245
-0.21770000000000012,-71.7965984681506
-0.2187,-72.27760031010472
-0.21970000000000012,-72.75860215205884
-0.2207,-73.197162655017
-0.22170000000000012,-73.53669336698461
-0.2227,-73.89037119195086
-0.22370000000000012,-74.14501922592657
-0.2247,-74.49869705089283
-0.22570000000000012,-74.89481621485504
-0.2267,-75.37581805680915
-0.22770000000000012,-75.8992612377592
-0.22870000000000001,-76.38026307971333
-0.22970000000000013,-76.81882358267148
-0.23070000000000002,-77.20079563363505
-0.23170000000000013,-77.55447345860131
-0.23270000000000002,-77.86570994457162
-0.23370000000000013,-78.24768199553519
-0.23470000000000002,-78.68624249849334
-0.23570000000000013,-79.16724434044745
-0.23670000000000002,-79.64824618240156
-0.2376999999999999,-80.08680668535972
-0.23870000000000002,-80.46877873632329
-0.2396999999999999,-80.82245656128954
-0.24070000000000003,-81.1761343862558
-0.24169999999999991,-81.57225355021802
-0.24270000000000003,-81.99666694017753
-0.24369999999999992,-82.52011012112759
-0.24470000000000003,-83.04355330207765
-0.24569999999999992,-83.56699648302772
-0.24670000000000003,-84.04799832498183
-0.24769999999999992,-84.48655882793999
-0.24870000000000003,-84.84023665290624
-0.24969999999999992,-85.23635581686847
-0.25070000000000003,-85.66076920682796
-0.2516999999999999,-86.14177104878208
-0.25270000000000004,-86.66521422973216
-0.2536999999999999,-87.14621607168625
-0.25470000000000004,-87.66965925263632
-0.2556999999999999,-88.06577841659853
-0.25670000000000004,-88.4194562415648
-0.25769999999999993,-88.8438696315243
-0.25870000000000004,-89.23998879548651
-0.25969999999999993,-89.63610795944872
-0.26070000000000004,-90.11710980140283
-0.26169999999999993,-90.68299432134886
-0.26270000000000004,-91.16399616330297
-0.26369999999999993,-91.60255666626112
-0.26470000000000005,-91.98452871722468
-0.26569999999999994,-92.3806478811869
-0.26670000000000005,-92.81920838414506
-0.26769999999999994,-93.34265156509512
-0.26870000000000005,-93.86609474604518
-0.26969999999999994,-94.4319792659912
-0.27070000000000005,-94.95542244694126
-0.27169999999999994,-95.39398294989942
-0.27270000000000005,-95.83254345285758
-0.27369999999999994,-96.17207416482519
-0.27470000000000006,-96.52575198979144
-0.27569999999999995,-96.96431249274961
-0.27670000000000006,-97.53019701269562
-0.27769999999999995,-98.09608153264163
-0.27870000000000006,-98.66196605258766
-0.27969999999999995,-99.14296789454177
-0.28070000000000006,-99.58152839749994
-0.28169999999999995,-99.97764756146215
-0.28270000000000006,-100.31717827342976
-0.28369999999999995,-100.71329743739196
-0.28470000000000006,-101.15185794035013
-0.28569999999999995,-101.63285978230424
-0.28670000000000007,-102.19874430225026
-0.28769999999999996,-102.72218748320032
-0.28870000000000007,-103.16074798615847
-0.28969999999999996,-103.59930848911664
-0.29070000000000007,-103.93883920108425
-0.29169999999999996,-104.3773997040424
-0.29270000000000007,-104.81596020700057
-0.29369999999999996,-105.33940338795064
-0.2947000000000001,-105.82040522990474
-0.29569999999999996,-106.30140707185885
-0.2967000000000001,-106.73996757481702
-0.29769999999999996,-107.16438096477653
-0.2987000000000001,-107.56050012873874
-0.29969999999999997,-107.914177953705
-0.3007000000000001,-108.2537086656726
-0.30169999999999997,-108.64982782963483
-0.3027000000000001,-109.13082967158894
-0.30369999999999997,-109.56939017454708
-0.3047000000000001,-110.00795067750525
-0.30569999999999997,-110.34748138947285
-0.3067000000000001,-110.70115921443913
-0.3077,-111.05483703940537
-0.3087000000000001,-111.35192641237703
-0.3097,-111.7904869153352
-0.3107000000000001,-112.3563714352812
-0.3117,-112.96469729422319
-0.3127000000000001,-113.48814047517324
-0.3137,-113.79937696114357
-0.3147000000000001,-114.0115836561233
-0.3157,-114.23793746410173
-0.3167000000000001,-114.4925854980774
-0.3177,-114.80382198404773
-0.3187000000000001,-115.15749980901398
-0.3197,-115.53947185997755
-0.3207000000000001,-115.85070834594785
-0.3217,-116.14779771891952
-0.3227000000000001,-116.41659286589388
-0.3237,-116.72782935186417
-0.3247000000000001,-117.15224274182368
-0.3257,-117.63324458377778
-0.3267000000000001,-118.07180508673595
-0.3277,-118.55280692869007
-0.3287000000000001,-118.99136743164823
-0.3297,-119.38748659561045
-0.3307000000000001,-119.72701730757805
-0.3317,-119.95337111555646
-0.3327000000000001,-120.12313647154028
-0.3337,-120.20801914953216
-0.3347000000000001,-120.43437295751058
-0.3357,-120.64657965249035
-0.3367000000000001,-121.00025747745659
-0.3377,-121.29734685042824
-0.3387000000000001,-121.56614199740261
-0.3397,-121.86323137037427
-0.3407000000000001,-122.08958517835266
-0.3417,-122.42911589032028
-0.3427000000000001,-122.91011773227437
-0.3437,-123.39111957422851
-0.3447000000000001,-123.74479739919475
-0.3457,-123.91456275517855
-0.3467000000000001,-123.87212141618261
-0.3477,-123.78723873819072
-0.3487000000000001,-123.70235606019881
-0.3497,-123.57503204321095
-0.3507000000000001,-123.6174733822069
-0.3517,-123.74479739919475
-0.3527000000000001,-123.99944543317046
-0.3537,-124.35312325813672
-0.3547000000000001,-124.70680108310299
-0.3557,-124.87656643908679
-0.35670000000000013,-125.00389045607463
-0.3577,-125.14536158606113
-0.35870000000000013,-125.35756828104091
-0.3597,-125.6688047670112
-0.36070000000000013,-125.88101146199097
-0.3617,-126.00833547897882
-0.3626999999999999,-126.00833547897882
-0.3637,-125.83857012299501
-0.3646999999999999,-125.56977497602065
-0.3657,-125.35756828104091
-0.3666999999999999,-125.272685603049
-0.3677,-125.272685603049
-0.3686999999999999,-125.272685603049
-0.36970000000000003,-125.31512694204494
-0.3706999999999999,-125.31512694204494
-0.37170000000000003,-125.31512694204494
-0.3726999999999999,-125.31512694204494
-0.37370000000000003,-125.23024426405304
-0.3746999999999999,-125.14536158606113
-0.37570000000000003,-125.00389045607463
-0.3766999999999999,-124.91900777808273
-0.37770000000000004,-124.83412510009084
-0.3786999999999999,-124.74924242209892
-0.37970000000000004,-124.66435974410705
-0.3806999999999999,-124.48044727512458
-0.38170000000000004,-124.26824058014482
-0.38269999999999993,-124.05603388516508
-0.38370000000000004,-123.82968007718667
-0.38469999999999993,-123.74479739919475
-0.38570000000000004,-123.70235606019881
-0.38669999999999993,-123.65991472120285
-0.38770000000000004,-123.57503204321095
-0.38869999999999993,-123.3062368962366
-0.38970000000000005,-123.00914752326493
-0.39069999999999994,-122.61302835930273
-0.39170000000000005,-122.21690919534053
-0.39269999999999994,-121.90567270937021
-0.39370000000000005,-121.65102467539451
-0.39469999999999994,-121.43881798041474
-0.39570000000000005,-121.21246417243634
-0.39669999999999994,-121.00025747745659
-0.39770000000000005,-120.73146233048222
-0.39869999999999994,-120.43437295751058
-0.39970000000000006,-120.08069513254432
-0.40069999999999995,-119.72701730757805
-0.40170000000000006,-119.3450452566145
-0.40269999999999995,-118.99136743164823
-0.40370000000000006,-118.63768960668197
-0.40469999999999995,-118.24157044271978
-0.40570000000000006,-117.81715705276027
-0.40669999999999995,-117.29371387181018
-0.40770000000000006,-116.81271202985609
-0.40869999999999995,-116.33171018790196
-0.40970000000000006,-115.97803236293572
-0.41069999999999995,-115.72338432896
-0.41170000000000007,-115.4970305209816
-0.41269999999999996,-115.2423824870059
-0.41370000000000007,-114.84626332304367
-0.41469999999999996,-114.4925854980774
-0.41570000000000007,-114.11061344711386
-0.41669999999999996,-113.71449428315165
-0.41770000000000007,-113.36081645818538
-0.41869999999999996,-113.10616842420968
-0.4197000000000001,-112.87981461623129
-0.42069999999999996,-112.62516658225556
-0.4217000000000001,-112.27148875728932
-0.42269999999999996,-111.8753695933271
-0.4237000000000001,-111.5358388813595
-0.42469999999999997,-111.22460239538917
-0.4257000000000001,-110.92751302241753
-0.42669999999999997,-110.74360055343507
-0.4277000000000001,-110.57383519745127
-0.42869999999999997,-110.34748138947285
-0.4297000000000001,-110.1352746944931
-0.43069999999999997,-109.8806266605174
-0.4317000000000001,-109.61183151354304
-0.4327,-109.39962481856328
-0.4337000000000001,-109.21571234958083
-0.4347,-109.13082967158894
-0.4357000000000001,-109.08838833259297
-0.4367,-109.00350565460108
-0.4377000000000001,-109.00350565460108
-0.4387,-108.96106431560513
-0.4397000000000001,-108.87618163761321
-0.4407,-108.69226916863077
-0.4417000000000001,-108.60738649063886
-0.4427,-108.56494515164292
-0.4437000000000001,-108.56494515164292
-0.4447,-108.64982782963483
-0.4457000000000001,-108.77715184662266
-0.4467,-108.87618163761321
-0.4477000000000001,-108.96106431560513
-0.4487,-109.04594699359701
-0.4497000000000001,-109.25815368857677
-0.4507,-109.4845074965552
-0.4517000000000001,-109.78159686952685
-0.4527,-110.05039201650122
-0.4537000000000001,-110.34748138947285
-0.4547,-110.57383519745127
-0.4557000000000001,-110.65871787544317
-0.4567,-110.74360055343507
-0.4577000000000001,-110.87092457042293
-0.4587,-111.01239570040943
-0.4597000000000001,-111.3094850733811
-0.4607,-111.6207215593514
-0.4617000000000001,-111.8753695933271
-0.4627,-112.14416474030146
-0.4637000000000001,-112.39881277427718
-0.4647,-112.79493193823936
-0.4657000000000001,-113.19105110220158
-0.4667,-113.67205294415571
-0.4677000000000001,-114.0115836561233
-0.4687,-114.3228201420936
-0.4697000000000001,-114.4925854980774
-0.4707,-114.71893930605583
-0.4717000000000001,-114.97358734003153
-0.4727,-115.28482382600184
-0.4737000000000001,-115.72338432896
-0.4747,-116.20438617091412
-0.4757000000000001,-116.81271202985609
-0.4767,-117.46347922779398
-0.4777000000000001,-118.11424642573192
-0.4787,-118.76501362366983
-0.4797000000000001,-119.2884568046199
-0.4807,-119.72701730757805
-0.48170000000000013,-120.03825379354835
-0.4827,-120.29290182752408
-0.48370000000000013,-120.56169697449842
-0.4847,-120.9153747994647
-0.48570000000000013,-121.21246417243634
-0.4867,-120.47681429650652
-0.48570000000000013,-117.85959839175621
-0.4847,-115.45458918198564
-0.48370000000000013,-113.27593378019348
-0.4827,-111.22460239538917
-0.48170000000000013,-109.30059502757274
-0.4807,-107.56050012873874
-0.4797000000000001,-105.86284656890071
-0.4787,-104.25007568705455
-0.4777000000000001,-102.67974614420436
-0.4767,-101.10941660135417
-0.4757000000000001,-99.45420438051207
-0.4747,-97.78484504667132
-0.4737000000000001,-96.12963282582925
-0.4727,-94.55930328297906
-0.4717000000000001,-93.08800353111941
-0.4707,-91.72988068324898
-0.4697000000000001,-90.41419917437449
-0.4687,-89.11266477849867
-0.4677000000000001,-87.66965925263632
-0.4667,-86.28324217876859
-0.4657000000000001,-84.8826779919022
