Dec. 19, 2024   18:10:15
Cyclic Voltammetry
File: c:/users/guazh/data/banditlqround7_x0exp667_r5/2024-12-16-exp703\exp703-2024-12-19t18_05_19-arkoh\exp703_cv_50mvs_efin_-1400mv.bin
Data Source:  Experiment
Instrument Model:  CHI760E
Header: CV ran at 50 mVs
Note: 

Init E (V) = -1
High E (V) = -1
Low E (V) = -1.4
Final E (V) = -1
Init P/N = N
Scan Rate (V/s) = 0.05
Segment = 7
Sample Interval (V) = 0.001
Quiet Time (sec) = 60
Sensitivity (A/V) = 0.001
Comp R (ohm) = 1.2

Results:

Channel 1:
Segment 1:
Ep = -1.266V
ip = 5.410e-4A
Ah = 1.172e-3C

Segment 2:

Segment 3:
Ep = -1.258V
ip = 2.499e-4A
Ah = 3.836e-4C

Segment 4:

Segment 5:
Ep = -1.259V
ip = 2.365e-4A
Ah = 3.914e-4C

Segment 6:

Segment 7:

Potential/V, Current/A

-1.000, 2.526e-5
-1.001, 6.756e-5
-1.002, 8.188e-5
-1.003, 8.986e-5
-1.004, 9.746e-5
-1.005, 1.039e-4
-1.006, 1.079e-4
-1.007, 1.105e-4
-1.008, 1.127e-4
-1.009, 1.173e-4
-1.010, 1.221e-4
-1.011, 1.251e-4
-1.012, 1.265e-4
-1.013, 1.280e-4
-1.014, 1.319e-4
-1.015, 1.370e-4
-1.016, 1.393e-4
-1.017, 1.406e-4
-1.018, 1.428e-4
-1.019, 1.461e-4
-1.020, 1.510e-4
-1.021, 1.536e-4
-1.022, 1.548e-4
-1.023, 1.570e-4
-1.024, 1.613e-4
-1.025, 1.658e-4
-1.026, 1.688e-4
-1.027, 1.700e-4
-1.028, 1.725e-4
-1.029, 1.763e-4
-1.030, 1.818e-4
-1.031, 1.855e-4
-1.032, 1.865e-4
-1.033, 1.891e-4
-1.034, 1.938e-4
-1.035, 1.989e-4
-1.036, 2.032e-4
-1.037, 2.050e-4
-1.038, 2.078e-4
-1.039, 2.129e-4
-1.040, 2.182e-4
-1.041, 2.228e-4
-1.042, 2.253e-4
-1.043, 2.282e-4
-1.044, 2.340e-4
-1.045, 2.401e-4
-1.046, 2.441e-4
-1.047, 2.475e-4
-1.048, 2.507e-4
-1.049, 2.569e-4
-1.050, 2.634e-4
-1.051, 2.679e-4
-1.052, 2.711e-4
-1.053, 2.742e-4
-1.054, 2.801e-4
-1.055, 2.876e-4
-1.056, 2.923e-4
-1.057, 2.963e-4
-1.058, 3.003e-4
-1.059, 3.063e-4
-1.060, 3.136e-4
-1.061, 3.185e-4
-1.062, 3.225e-4
-1.063, 3.271e-4
-1.064, 3.329e-4
-1.065, 3.403e-4
-1.066, 3.458e-4
-1.067, 3.498e-4
-1.068, 3.547e-4
-1.069, 3.606e-4
-1.070, 3.684e-4
-1.071, 3.744e-4
-1.072, 3.776e-4
-1.073, 3.824e-4
-1.074, 3.890e-4
-1.075, 3.969e-4
-1.076, 4.031e-4
-1.077, 4.067e-4
-1.078, 4.110e-4
-1.079, 4.175e-4
-1.080, 4.247e-4
-1.081, 4.308e-4
-1.082, 4.346e-4
-1.083, 4.387e-4
-1.084, 4.456e-4
-1.085, 4.526e-4
-1.086, 4.587e-4
-1.087, 4.628e-4
-1.088, 4.667e-4
-1.089, 4.729e-4
-1.090, 4.803e-4
-1.091, 4.860e-4
-1.092, 4.905e-4
-1.093, 4.941e-4
-1.094, 5.004e-4
-1.095, 5.078e-4
-1.096, 5.131e-4
-1.097, 5.174e-4
-1.098, 5.221e-4
-1.099, 5.277e-4
-1.100, 5.345e-4
-1.101, 5.394e-4
-1.102, 5.436e-4
-1.103, 5.469e-4
-1.104, 5.522e-4
-1.105, 5.594e-4
-1.106, 5.650e-4
-1.107, 5.689e-4
-1.108, 5.731e-4
-1.109, 5.778e-4
-1.110, 5.839e-4
-1.111, 5.895e-4
-1.112, 5.928e-4
-1.113, 5.965e-4
-1.114, 6.018e-4
-1.115, 6.078e-4
-1.116, 6.141e-4
-1.117, 6.163e-4
-1.118, 6.194e-4
-1.119, 6.252e-4
-1.120, 6.312e-4
-1.121, 6.367e-4
-1.122, 6.402e-4
-1.123, 6.437e-4
-1.124, 6.487e-4
-1.125, 6.543e-4
-1.126, 6.600e-4
-1.127, 6.631e-4
-1.128, 6.658e-4
-1.129, 6.712e-4
-1.130, 6.772e-4
-1.131, 6.819e-4
-1.132, 6.852e-4
-1.133, 6.881e-4
-1.134, 6.936e-4
-1.135, 7.005e-4
-1.136, 7.052e-4
-1.137, 7.083e-4
-1.138, 7.113e-4
-1.139, 7.158e-4
-1.140, 7.228e-4
-1.141, 7.274e-4
-1.142, 7.305e-4
-1.143, 7.343e-4
-1.144, 7.390e-4
-1.145, 7.461e-4
-1.146, 7.515e-4
-1.147, 7.541e-4
-1.148, 7.576e-4
-1.149, 7.629e-4
-1.150, 7.702e-4
-1.151, 7.749e-4
-1.152, 7.779e-4
-1.153, 7.826e-4
-1.154, 7.865e-4
-1.155, 7.935e-4
-1.156, 8.008e-4
-1.157, 8.031e-4
-1.158, 8.065e-4
-1.159, 8.118e-4
-1.160, 8.189e-4
-1.161, 8.256e-4
-1.162, 8.280e-4
-1.163, 8.319e-4
-1.164, 8.383e-4
-1.165, 8.460e-4
-1.166, 8.511e-4
-1.167, 8.553e-4
-1.168, 8.587e-4
-1.169, 8.654e-4
-1.170, 8.732e-4
-1.171, 8.796e-4
-1.172, 8.849e-4
-1.173, 8.889e-4
-1.174, 8.950e-4
-1.175, 9.038e-4
-1.176, 9.100e-4
-1.177, 9.160e-4
-1.178, 9.207e-4
-1.179, 9.268e-4
-1.180, 9.353e-4
-1.181, 9.423e-4
-1.182, 9.479e-4
-1.183, 9.528e-4
-1.184, 9.591e-4
-1.185, 9.672e-4
-1.186, 9.750e-4
-1.187, 9.799e-4
-1.188, 9.866e-4
-1.189, 9.942e-4
-1.190, 1.003e-3
-1.191, 1.012e-3
-1.192, 1.016e-3
-1.193, 1.022e-3
-1.194, 1.029e-3
-1.195, 1.039e-3
-1.196, 1.048e-3
-1.197, 1.053e-3
-1.198, 1.060e-3
-1.199, 1.069e-3
-1.200, 1.078e-3
-1.201, 1.087e-3
-1.202, 1.093e-3
-1.203, 1.099e-3
-1.204, 1.108e-3
-1.205, 1.118e-3
-1.206, 1.128e-3
-1.207, 1.137e-3
-1.208, 1.144e-3
-1.209, 1.150e-3
-1.210, 1.160e-3
-1.211, 1.168e-3
-1.212, 1.175e-3
-1.213, 1.181e-3
-1.214, 1.191e-3
-1.215, 1.202e-3
-1.216, 1.211e-3
-1.217, 1.218e-3
-1.218, 1.223e-3
-1.219, 1.232e-3
-1.220, 1.242e-3
-1.221, 1.251e-3
-1.222, 1.258e-3
-1.223, 1.265e-3
-1.224, 1.274e-3
-1.225, 1.283e-3
-1.226, 1.292e-3
-1.227, 1.298e-3
-1.228, 1.305e-3
-1.229, 1.315e-3
-1.230, 1.325e-3
-1.231, 1.332e-3
-1.232, 1.338e-3
-1.233, 1.344e-3
-1.234, 1.351e-3
-1.235, 1.359e-3
-1.236, 1.368e-3
-1.237, 1.373e-3
-1.238, 1.379e-3
-1.239, 1.385e-3
-1.240, 1.390e-3
-1.241, 1.397e-3
-1.242, 1.405e-3
-1.243, 1.409e-3
-1.244, 1.414e-3
-1.245, 1.419e-3
-1.246, 1.424e-3
-1.247, 1.428e-3
-1.248, 1.431e-3
-1.249, 1.436e-3
-1.250, 1.442e-3
-1.251, 1.445e-3
-1.252, 1.447e-3
-1.253, 1.449e-3
-1.254, 1.453e-3
-1.255, 1.458e-3
-1.256, 1.461e-3
-1.257, 1.463e-3
-1.258, 1.463e-3
-1.259, 1.463e-3
-1.260, 1.467e-3
-1.261, 1.471e-3
-1.262, 1.470e-3
-1.263, 1.471e-3
-1.264, 1.472e-3
-1.265, 1.473e-3
-1.266, 1.473e-3
-1.267, 1.471e-3
-1.268, 1.469e-3
-1.269, 1.467e-3
-1.270, 1.467e-3
-1.271, 1.466e-3
-1.272, 1.464e-3
-1.273, 1.461e-3
-1.274, 1.459e-3
-1.275, 1.458e-3
-1.276, 1.456e-3
-1.277, 1.452e-3
-1.278, 1.447e-3
-1.279, 1.442e-3
-1.280, 1.439e-3
-1.281, 1.436e-3
-1.282, 1.431e-3
-1.283, 1.425e-3
-1.284, 1.422e-3
-1.285, 1.418e-3
-1.286, 1.415e-3
-1.287, 1.408e-3
-1.288, 1.399e-3
-1.289, 1.394e-3
-1.290, 1.389e-3
-1.291, 1.384e-3
-1.292, 1.378e-3
-1.293, 1.371e-3
-1.294, 1.366e-3
-1.295, 1.362e-3
-1.296, 1.357e-3
-1.297, 1.349e-3
-1.298, 1.341e-3
-1.299, 1.335e-3
-1.300, 1.332e-3
-1.301, 1.328e-3
-1.302, 1.321e-3
-1.303, 1.314e-3
-1.304, 1.308e-3
-1.305, 1.305e-3
-1.306, 1.301e-3
-1.307, 1.296e-3
-1.308, 1.290e-3
-1.309, 1.287e-3
-1.310, 1.285e-3
-1.311, 1.282e-3
-1.312, 1.278e-3
-1.313, 1.273e-3
-1.314, 1.271e-3
-1.315, 1.270e-3
-1.316, 1.270e-3
-1.317, 1.267e-3
-1.318, 1.265e-3
-1.319, 1.265e-3
-1.320, 1.266e-3
-1.321, 1.268e-3
-1.322, 1.268e-3
-1.323, 1.268e-3
-1.324, 1.269e-3
-1.325, 1.272e-3
-1.326, 1.275e-3
-1.327, 1.279e-3
-1.328, 1.281e-3
-1.329, 1.285e-3
-1.330, 1.292e-3
-1.331, 1.297e-3
-1.332, 1.303e-3
-1.333, 1.307e-3
-1.334, 1.313e-3
-1.335, 1.321e-3
-1.336, 1.329e-3
-1.337, 1.336e-3
-1.338, 1.343e-3
-1.339, 1.352e-3
-1.340, 1.364e-3
-1.341, 1.374e-3
-1.342, 1.384e-3
-1.343, 1.393e-3
-1.344, 1.403e-3
-1.345, 1.417e-3
-1.346, 1.430e-3
-1.347, 1.440e-3
-1.348, 1.452e-3
-1.349, 1.465e-3
-1.350, 1.482e-3
-1.351, 1.497e-3
-1.352, 1.510e-3
-1.353, 1.522e-3
-1.354, 1.536e-3
-1.355, 1.554e-3
-1.356, 1.571e-3
-1.357, 1.586e-3
-1.358, 1.601e-3
-1.359, 1.618e-3
-1.360, 1.636e-3
-1.361, 1.655e-3
-1.362, 1.671e-3
-1.363, 1.685e-3
-1.364, 1.701e-3
-1.365, 1.720e-3
-1.366, 1.740e-3
-1.367, 1.758e-3
-1.368, 1.774e-3
-1.369, 1.791e-3
-1.370, 1.811e-3
-1.371, 1.831e-3
-1.372, 1.848e-3
-1.373, 1.864e-3
-1.374, 1.882e-3
-1.375, 1.902e-3
-1.376, 1.922e-3
-1.377, 1.939e-3
-1.378, 1.956e-3
-1.379, 1.975e-3
-1.380, 1.996e-3
-1.381, 2.016e-3
-1.382, 2.036e-3
-1.383, 2.054e-3
-1.384, 2.072e-3
-1.385, 2.095e-3
-1.386, 2.118e-3
-1.387, 2.139e-3
-1.388, 2.160e-3
-1.389, 2.182e-3
-1.390, 2.207e-3
-1.391, 2.234e-3
-1.392, 2.260e-3
-1.393, 2.287e-3
-1.394, 2.315e-3
-1.395, 2.349e-3
-1.396, 2.385e-3
-1.397, 2.420e-3
-1.398, 2.455e-3
-1.399, 2.494e-3
-1.400, 2.440e-3
-1.399, 2.339e-3
-1.398, 2.268e-3
-1.397, 2.206e-3
-1.396, 2.150e-3
-1.395, 2.098e-3
-1.394, 2.045e-3
-1.393, 1.993e-3
-1.392, 1.941e-3
-1.391, 1.890e-3
-1.390, 1.842e-3
-1.389, 1.795e-3
-1.388, 1.747e-3
-1.387, 1.700e-3
-1.386, 1.655e-3
-1.385, 1.613e-3
-1.384, 1.572e-3
-1.383, 1.528e-3
-1.382, 1.483e-3
-1.381, 1.441e-3
-1.380, 1.403e-3
-1.379, 1.366e-3
-1.378, 1.328e-3
-1.377, 1.287e-3
-1.376, 1.250e-3
-1.375, 1.215e-3
-1.374, 1.180e-3
-1.373, 1.145e-3
-1.372, 1.108e-3
-1.371, 1.075e-3
-1.370, 1.045e-3
-1.369, 1.014e-3
-1.368, 9.836e-4
-1.367, 9.507e-4
-1.366, 9.196e-4
-1.365, 8.923e-4
-1.364, 8.651e-4
-1.363, 8.361e-4
-1.362, 8.062e-4
-1.361, 7.785e-4
-1.360, 7.537e-4
-1.359, 7.291e-4
-1.358, 7.033e-4
-1.357, 6.771e-4
-1.356, 6.518e-4
-1.355, 6.294e-4
-1.354, 6.080e-4
-1.353, 5.843e-4
-1.352, 5.614e-4
-1.351, 5.393e-4
-1.350, 5.199e-4
-1.349, 5.016e-4
-1.348, 4.806e-4
-1.347, 4.594e-4
-1.346, 4.395e-4
-1.345, 4.212e-4
-1.344, 4.050e-4
-1.343, 3.867e-4
-1.342, 3.677e-4
-1.341, 3.502e-4
-1.340, 3.343e-4
-1.339, 3.196e-4
-1.338, 3.033e-4
-1.337, 2.854e-4
-1.336, 2.693e-4
-1.335, 2.552e-4
-1.334, 2.431e-4
-1.333, 2.290e-4
-1.332, 2.130e-4
-1.331, 1.976e-4
-1.330, 1.849e-4
-1.329, 1.736e-4
-1.328, 1.609e-4
-1.327, 1.466e-4
-1.326, 1.327e-4
-1.325, 1.215e-4
-1.324, 1.101e-4
-1.323, 9.816e-5
-1.322, 8.469e-5
-1.321, 7.229e-5
-1.320, 6.355e-5
-1.319, 5.421e-5
-1.318, 4.306e-5
-1.317, 3.153e-5
-1.316, 2.022e-5
-1.315, 1.107e-5
-1.314, 2.745e-6
-1.313, -8.689e-6
-1.312, -2.009e-5
-1.311, -3.016e-5
-1.310, -3.772e-5
-1.309, -4.429e-5
-1.308, -5.369e-5
-1.307, -6.443e-5
-1.306, -7.522e-5
-1.305, -8.320e-5
-1.304, -8.930e-5
-1.303, -9.867e-5
-1.302, -1.092e-4
-1.301, -1.182e-4
-1.300, -1.258e-4
-1.299, -1.315e-4
-1.298, -1.391e-4
-1.297, -1.490e-4
-1.296, -1.577e-4
-1.295, -1.651e-4
-1.294, -1.720e-4
-1.293, -1.792e-4
-1.292, -1.886e-4
-1.291, -1.968e-4
-1.290, -2.034e-4
-1.289, -2.090e-4
-1.288, -2.154e-4
-1.287, -2.250e-4
-1.286, -2.337e-4
-1.285, -2.393e-4
-1.284, -2.451e-4
-1.283, -2.526e-4
-1.282, -2.614e-4
-1.281, -2.698e-4
-1.280, -2.768e-4
-1.279, -2.814e-4
-1.278, -2.882e-4
-1.277, -2.963e-4
-1.276, -3.047e-4
-1.275, -3.108e-4
-1.274, -3.157e-4
-1.273, -3.226e-4
-1.272, -3.302e-4
-1.271, -3.382e-4
-1.270, -3.441e-4
-1.269, -3.483e-4
-1.268, -3.552e-4
-1.267, -3.630e-4
-1.266, -3.708e-4
-1.265, -3.772e-4
-1.264, -3.821e-4
-1.263, -3.893e-4
-1.262, -3.979e-4
-1.261, -4.052e-4
-1.260, -4.112e-4
-1.259, -4.158e-4
-1.258, -4.225e-4
-1.257, -4.315e-4
-1.256, -4.396e-4
-1.255, -4.459e-4
-1.254, -4.511e-4
-1.253, -4.572e-4
-1.252, -4.664e-4
-1.251, -4.746e-4
-1.250, -4.811e-4
-1.249, -4.864e-4
-1.248, -4.927e-4
-1.247, -5.013e-4
-1.246, -5.103e-4
-1.245, -5.162e-4
-1.244, -5.216e-4
-1.243, -5.287e-4
-1.242, -5.378e-4
-1.241, -5.471e-4
-1.240, -5.533e-4
-1.239, -5.589e-4
-1.238, -5.657e-4
-1.237, -5.738e-4
-1.236, -5.833e-4
-1.235, -5.898e-4
-1.234, -5.957e-4
-1.233, -6.035e-4
-1.232, -6.132e-4
-1.231, -6.233e-4
-1.230, -6.310e-4
-1.229, -6.398e-4
-1.228, -6.465e-4
-1.227, -6.557e-4
-1.226, -6.640e-4
-1.225, -6.717e-4
-1.224, -6.781e-4
-1.223, -6.862e-4
-1.222, -6.967e-4
-1.221, -7.069e-4
-1.220, -7.156e-4
-1.219, -7.228e-4
-1.218, -7.315e-4
-1.217, -7.421e-4
-1.216, -7.522e-4
-1.215, -7.610e-4
-1.214, -7.683e-4
-1.213, -7.772e-4
-1.212, -7.886e-4
-1.211, -8.004e-4
-1.210, -8.095e-4
-1.209, -8.181e-4
-1.208, -8.276e-4
-1.207, -8.399e-4
-1.206, -8.519e-4
-1.205, -8.609e-4
-1.204, -8.692e-4
-1.203, -8.783e-4
-1.202, -8.892e-4
-1.201, -9.010e-4
-1.200, -9.102e-4
-1.199, -9.196e-4
-1.198, -9.296e-4
-1.197, -9.400e-4
-1.196, -9.504e-4
-1.195, -9.590e-4
-1.194, -9.660e-4
-1.193, -9.751e-4
-1.192, -9.851e-4
-1.191, -9.974e-4
-1.190, -1.007e-3
-1.189, -1.013e-3
-1.188, -1.022e-3
-1.187, -1.031e-3
-1.186, -1.040e-3
-1.185, -1.049e-3
-1.184, -1.055e-3
-1.183, -1.063e-3
-1.182, -1.072e-3
-1.181, -1.080e-3
-1.180, -1.086e-3
-1.179, -1.091e-3
-1.178, -1.098e-3
-1.177, -1.106e-3
-1.176, -1.114e-3
-1.175, -1.119e-3
-1.174, -1.123e-3
-1.173, -1.126e-3
-1.172, -1.133e-3
-1.171, -1.137e-3
-1.170, -1.142e-3
-1.169, -1.145e-3
-1.168, -1.146e-3
-1.167, -1.151e-3
-1.166, -1.157e-3
-1.165, -1.160e-3
-1.164, -1.161e-3
-1.163, -1.162e-3
-1.162, -1.165e-3
-1.161, -1.168e-3
-1.160, -1.168e-3
-1.159, -1.167e-3
-1.158, -1.168e-3
-1.157, -1.170e-3
-1.156, -1.173e-3
-1.155, -1.174e-3
-1.154, -1.172e-3
-1.153, -1.171e-3
-1.152, -1.171e-3
-1.151, -1.172e-3
-1.150, -1.172e-3
-1.149, -1.168e-3
-1.148, -1.166e-3
-1.147, -1.166e-3
-1.146, -1.166e-3
-1.145, -1.164e-3
-1.144, -1.160e-3
-1.143, -1.157e-3
-1.142, -1.157e-3
-1.141, -1.156e-3
-1.140, -1.153e-3
-1.139, -1.149e-3
-1.138, -1.146e-3
-1.137, -1.145e-3
-1.136, -1.142e-3
-1.135, -1.139e-3
-1.134, -1.133e-3
-1.133, -1.128e-3
-1.132, -1.126e-3
-1.131, -1.124e-3
-1.130, -1.121e-3
-1.129, -1.116e-3
-1.128, -1.111e-3
-1.127, -1.109e-3
-1.126, -1.107e-3
-1.125, -1.103e-3
-1.124, -1.099e-3
-1.123, -1.093e-3
-1.122, -1.089e-3
-1.121, -1.089e-3
-1.120, -1.084e-3
-1.119, -1.079e-3
-1.118, -1.074e-3
-1.117, -1.071e-3
-1.116, -1.070e-3
-1.115, -1.065e-3
-1.114, -1.059e-3
-1.113, -1.056e-3
-1.112, -1.054e-3
-1.111, -1.052e-3
-1.110, -1.048e-3
-1.109, -1.042e-3
-1.108, -1.038e-3
-1.107, -1.035e-3
-1.106, -1.033e-3
-1.105, -1.030e-3
-1.104, -1.024e-3
-1.103, -1.020e-3
-1.102, -1.017e-3
-1.101, -1.016e-3
-1.100, -1.012e-3
-1.099, -1.007e-3
-1.098, -1.003e-3
-1.097, -1.001e-3
-1.096, -9.978e-4
-1.095, -9.939e-4
-1.094, -9.891e-4
-1.093, -9.848e-4
-1.092, -9.835e-4
-1.091, -9.819e-4
-1.090, -9.794e-4
-1.089, -9.750e-4
-1.088, -9.703e-4
-1.087, -9.684e-4
-1.086, -9.675e-4
-1.085, -9.644e-4
-1.084, -9.603e-4
-1.083, -9.562e-4
-1.082, -9.546e-4
-1.081, -9.543e-4
-1.080, -9.512e-4
-1.079, -9.478e-4
-1.078, -9.444e-4
-1.077, -9.425e-4
-1.076, -9.418e-4
-1.075, -9.401e-4
-1.074, -9.365e-4
-1.073, -9.333e-4
-1.072, -9.309e-4
-1.071, -9.307e-4
-1.070, -9.292e-4
-1.069, -9.260e-4
-1.068, -9.229e-4
-1.067, -9.202e-4
-1.066, -9.199e-4
-1.065, -9.187e-4
-1.064, -9.150e-4
-1.063, -9.131e-4
-1.062, -9.128e-4
-1.061, -9.132e-4
-1.060, -9.119e-4
-1.059, -9.084e-4
-1.058, -9.052e-4
-1.057, -9.049e-4
-1.056, -9.051e-4
-1.055, -9.041e-4
-1.054, -9.013e-4
-1.053, -8.989e-4
-1.052, -8.987e-4
-1.051, -8.990e-4
-1.050, -8.974e-4
-1.049, -8.946e-4
-1.048, -8.919e-4
-1.047, -8.914e-4
-1.046, -8.916e-4
-1.045, -8.902e-4
-1.044, -8.880e-4
-1.043, -8.863e-4
-1.042, -8.857e-4
-1.041, -8.873e-4
-1.040, -8.857e-4
-1.039, -8.834e-4
-1.038, -8.813e-4
-1.037, -8.815e-4
-1.036, -8.830e-4
-1.035, -8.827e-4
-1.034, -8.803e-4
-1.033, -8.785e-4
-1.032, -8.789e-4
-1.031, -8.798e-4
-1.030, -8.794e-4
-1.029, -8.754e-4
-1.028, -8.743e-4
-1.027, -8.752e-4
-1.026, -8.768e-4
-1.025, -8.769e-4
-1.024, -8.754e-4
-1.023, -8.732e-4
-1.022, -8.733e-4
-1.021, -8.735e-4
-1.020, -8.737e-4
-1.019, -8.722e-4
-1.018, -8.709e-4
-1.017, -8.721e-4
-1.016, -8.736e-4
-1.015, -8.733e-4
-1.014, -8.706e-4
-1.013, -8.682e-4
-1.012, -8.699e-4
-1.011, -8.715e-4
-1.010, -8.714e-4
-1.009, -8.697e-4
-1.008, -8.684e-4
-1.007, -8.695e-4
-1.006, -8.719e-4
-1.005, -8.719e-4
-1.004, -8.706e-4
-1.003, -8.696e-4
-1.002, -8.705e-4
-1.001, -8.723e-4
-1.000, -7.814e-4
-1.001, -6.512e-4
-1.002, -5.664e-4
-1.003, -5.024e-4
-1.004, -4.483e-4
-1.005, -4.004e-4
-1.006, -3.562e-4
-1.007, -3.156e-4
-1.008, -2.823e-4
-1.009, -2.523e-4
-1.010, -2.236e-4
-1.011, -1.958e-4
-1.012, -1.700e-4
-1.013, -1.488e-4
-1.014, -1.298e-4
-1.015, -1.104e-4
-1.016, -9.147e-5
-1.017, -7.320e-5
-1.018, -5.809e-5
-1.019, -4.537e-5
-1.020, -3.175e-5
-1.021, -1.758e-5
-1.022, -3.935e-6
-1.023, 6.952e-6
-1.024, 1.664e-5
-1.025, 2.620e-5
-1.026, 3.756e-5
-1.027, 4.785e-5
-1.028, 5.626e-5
-1.029, 6.265e-5
-1.030, 7.075e-5
-1.031, 8.009e-5
-1.032, 8.849e-5
-1.033, 9.523e-5
-1.034, 1.003e-4
-1.035, 1.065e-4
-1.036, 1.148e-4
-1.037, 1.219e-4
-1.038, 1.273e-4
-1.039, 1.318e-4
-1.040, 1.367e-4
-1.041, 1.434e-4
-1.042, 1.508e-4
-1.043, 1.550e-4
-1.044, 1.590e-4
-1.045, 1.632e-4
-1.046, 1.696e-4
-1.047, 1.761e-4
-1.048, 1.799e-4
-1.049, 1.832e-4
-1.050, 1.872e-4
-1.051, 1.925e-4
-1.052, 1.991e-4
-1.053, 2.023e-4
-1.054, 2.050e-4
-1.055, 2.091e-4
-1.056, 2.143e-4
-1.057, 2.202e-4
-1.058, 2.240e-4
-1.059, 2.263e-4
-1.060, 2.301e-4
-1.061, 2.352e-4
-1.062, 2.409e-4
-1.063, 2.446e-4
-1.064, 2.465e-4
-1.065, 2.499e-4
-1.066, 2.552e-4
-1.067, 2.606e-4
-1.068, 2.641e-4
-1.069, 2.663e-4
-1.070, 2.696e-4
-1.071, 2.748e-4
-1.072, 2.796e-4
-1.073, 2.833e-4
-1.074, 2.855e-4
-1.075, 2.889e-4
-1.076, 2.945e-4
-1.077, 2.994e-4
-1.078, 3.030e-4
-1.079, 3.050e-4
-1.080, 3.079e-4
-1.081, 3.129e-4
-1.082, 3.184e-4
-1.083, 3.219e-4
-1.084, 3.241e-4
-1.085, 3.270e-4
-1.086, 3.323e-4
-1.087, 3.376e-4
-1.088, 3.406e-4
-1.089, 3.434e-4
-1.090, 3.466e-4
-1.091, 3.515e-4
-1.092, 3.573e-4
-1.093, 3.597e-4
-1.094, 3.618e-4
-1.095, 3.657e-4
-1.096, 3.709e-4
-1.097, 3.763e-4
-1.098, 3.798e-4
-1.099, 3.816e-4
-1.100, 3.855e-4
-1.101, 3.906e-4
-1.102, 3.963e-4
-1.103, 3.999e-4
-1.104, 4.015e-4
-1.105, 4.050e-4
-1.106, 4.101e-4
-1.107, 4.160e-4
-1.108, 4.202e-4
-1.109, 4.222e-4
-1.110, 4.254e-4
-1.111, 4.310e-4
-1.112, 4.365e-4
-1.113, 4.401e-4
-1.114, 4.427e-4
-1.115, 4.458e-4
-1.116, 4.516e-4
-1.117, 4.567e-4
-1.118, 4.607e-4
-1.119, 4.634e-4
-1.120, 4.666e-4
-1.121, 4.724e-4
-1.122, 4.784e-4
-1.123, 4.820e-4
-1.124, 4.850e-4
-1.125, 4.885e-4
-1.126, 4.944e-4
-1.127, 5.007e-4
-1.128, 5.043e-4
-1.129, 5.071e-4
-1.130, 5.109e-4
-1.131, 5.164e-4
-1.132, 5.227e-4
-1.133, 5.264e-4
-1.134, 5.296e-4
-1.135, 5.336e-4
-1.136, 5.395e-4
-1.137, 5.472e-4
-1.138, 5.510e-4
-1.139, 5.533e-4
-1.140, 5.581e-4
-1.141, 5.631e-4
-1.142, 5.692e-4
-1.143, 5.739e-4
-1.144, 5.778e-4
-1.145, 5.830e-4
-1.146, 5.885e-4
-1.147, 5.944e-4
-1.148, 5.994e-4
-1.149, 6.029e-4
-1.150, 6.068e-4
-1.151, 6.131e-4
-1.152, 6.211e-4
-1.153, 6.266e-4
-1.154, 6.302e-4
-1.155, 6.342e-4
-1.156, 6.410e-4
-1.157, 6.474e-4
-1.158, 6.526e-4
-1.159, 6.575e-4
-1.160, 6.622e-4
-1.161, 6.692e-4
-1.162, 6.766e-4
-1.163, 6.826e-4
-1.164, 6.870e-4
-1.165, 6.915e-4
-1.166, 6.988e-4
-1.167, 7.066e-4
-1.168, 7.123e-4
-1.169, 7.172e-4
-1.170, 7.243e-4
-1.171, 7.302e-4
-1.172, 7.379e-4
-1.173, 7.438e-4
-1.174, 7.487e-4
-1.175, 7.545e-4
-1.176, 7.611e-4
-1.177, 7.706e-4
-1.178, 7.786e-4
-1.179, 7.829e-4
-1.180, 7.888e-4
-1.181, 7.958e-4
-1.182, 8.054e-4
-1.183, 8.129e-4
-1.184, 8.170e-4
-1.185, 8.236e-4
-1.186, 8.307e-4
-1.187, 8.388e-4
-1.188, 8.471e-4
-1.189, 8.535e-4
-1.190, 8.608e-4
-1.191, 8.684e-4
-1.192, 8.767e-4
-1.193, 8.850e-4
-1.194, 8.903e-4
-1.195, 8.962e-4
-1.196, 9.048e-4
-1.197, 9.140e-4
-1.198, 9.220e-4
-1.199, 9.280e-4
-1.200, 9.348e-4
-1.201, 9.430e-4
-1.202, 9.526e-4
-1.203, 9.606e-4
-1.204, 9.667e-4
-1.205, 9.735e-4
-1.206, 9.817e-4
-1.207, 9.908e-4
-1.208, 9.986e-4
-1.209, 1.004e-3
-1.210, 1.012e-3
-1.211, 1.020e-3
-1.212, 1.030e-3
-1.213, 1.038e-3
-1.214, 1.043e-3
-1.215, 1.050e-3
-1.216, 1.057e-3
-1.217, 1.066e-3
-1.218, 1.073e-3
-1.219, 1.080e-3
-1.220, 1.085e-3
-1.221, 1.093e-3
-1.222, 1.102e-3
-1.223, 1.110e-3
-1.224, 1.115e-3
-1.225, 1.119e-3
-1.226, 1.126e-3
-1.227, 1.132e-3
-1.228, 1.139e-3
-1.229, 1.147e-3
-1.230, 1.151e-3
-1.231, 1.157e-3
-1.232, 1.164e-3
-1.233, 1.171e-3
-1.234, 1.174e-3
-1.235, 1.178e-3
-1.236, 1.182e-3
-1.237, 1.188e-3
-1.238, 1.193e-3
-1.239, 1.197e-3
-1.240, 1.200e-3
-1.241, 1.204e-3
-1.242, 1.211e-3
-1.243, 1.215e-3
-1.244, 1.216e-3
-1.245, 1.217e-3
-1.246, 1.222e-3
-1.247, 1.226e-3
-1.248, 1.229e-3
-1.249, 1.229e-3
-1.250, 1.229e-3
-1.251, 1.232e-3
-1.252, 1.237e-3
-1.253, 1.238e-3
-1.254, 1.238e-3
-1.255, 1.239e-3
-1.256, 1.241e-3
-1.257, 1.243e-3
-1.258, 1.244e-3
-1.259, 1.241e-3
-1.260, 1.240e-3
-1.261, 1.239e-3
-1.262, 1.241e-3
-1.263, 1.242e-3
-1.264, 1.238e-3
-1.265, 1.236e-3
-1.266, 1.236e-3
-1.267, 1.238e-3
-1.268, 1.236e-3
-1.269, 1.232e-3
-1.270, 1.230e-3
-1.271, 1.228e-3
-1.272, 1.227e-3
-1.273, 1.224e-3
-1.274, 1.220e-3
-1.275, 1.216e-3
-1.276, 1.214e-3
-1.277, 1.211e-3
-1.278, 1.208e-3
-1.279, 1.204e-3
-1.280, 1.201e-3
-1.281, 1.197e-3
-1.282, 1.195e-3
-1.283, 1.190e-3
-1.284, 1.184e-3
-1.285, 1.178e-3
-1.286, 1.174e-3
-1.287, 1.172e-3
-1.288, 1.167e-3
-1.289, 1.162e-3
-1.290, 1.156e-3
-1.291, 1.151e-3
-1.292, 1.150e-3
-1.293, 1.146e-3
-1.294, 1.139e-3
-1.295, 1.133e-3
-1.296, 1.130e-3
-1.297, 1.128e-3
-1.298, 1.124e-3
-1.299, 1.119e-3
-1.300, 1.116e-3
-1.301, 1.111e-3
-1.302, 1.110e-3
-1.303, 1.107e-3
-1.304, 1.101e-3
-1.305, 1.098e-3
-1.306, 1.095e-3
-1.307, 1.095e-3
-1.308, 1.094e-3
-1.309, 1.089e-3
-1.310, 1.086e-3
-1.311, 1.085e-3
-1.312, 1.085e-3
-1.313, 1.085e-3
-1.314, 1.084e-3
-1.315, 1.081e-3
-1.316, 1.083e-3
-1.317, 1.085e-3
-1.318, 1.087e-3
-1.319, 1.088e-3
-1.320, 1.088e-3
-1.321, 1.090e-3
-1.322, 1.094e-3
-1.323, 1.098e-3
-1.324, 1.101e-3
-1.325, 1.102e-3
-1.326, 1.106e-3
-1.327, 1.114e-3
-1.328, 1.120e-3
-1.329, 1.125e-3
-1.330, 1.130e-3
-1.331, 1.139e-3
-1.332, 1.147e-3
-1.333, 1.151e-3
-1.334, 1.159e-3
-1.335, 1.165e-3
-1.336, 1.172e-3
-1.337, 1.183e-3
-1.338, 1.195e-3
-1.339, 1.204e-3
-1.340, 1.214e-3
-1.341, 1.225e-3
-1.342, 1.237e-3
-1.343, 1.248e-3
-1.344, 1.257e-3
-1.345, 1.269e-3
-1.346, 1.282e-3
-1.347, 1.296e-3
-1.348, 1.310e-3
-1.349, 1.322e-3
-1.350, 1.335e-3
-1.351, 1.350e-3
-1.352, 1.366e-3
-1.353, 1.382e-3
-1.354, 1.394e-3
-1.355, 1.409e-3
-1.356, 1.426e-3
-1.357, 1.443e-3
-1.358, 1.459e-3
-1.359, 1.473e-3
-1.360, 1.486e-3
-1.361, 1.503e-3
-1.362, 1.521e-3
-1.363, 1.539e-3
-1.364, 1.554e-3
-1.365, 1.569e-3
-1.366, 1.586e-3
-1.367, 1.605e-3
-1.368, 1.622e-3
-1.369, 1.636e-3
-1.370, 1.651e-3
-1.371, 1.667e-3
-1.372, 1.686e-3
-1.373, 1.704e-3
-1.374, 1.720e-3
-1.375, 1.734e-3
-1.376, 1.750e-3
-1.377, 1.769e-3
-1.378, 1.786e-3
-1.379, 1.800e-3
-1.380, 1.816e-3
-1.381, 1.834e-3
-1.382, 1.850e-3
-1.383, 1.871e-3
-1.384, 1.887e-3
-1.385, 1.905e-3
-1.386, 1.923e-3
-1.387, 1.944e-3
-1.388, 1.965e-3
-1.389, 1.984e-3
-1.390, 2.003e-3
-1.391, 2.027e-3
-1.392, 2.052e-3
-1.393, 2.079e-3
-1.394, 2.104e-3
-1.395, 2.131e-3
-1.396, 2.163e-3
-1.397, 2.195e-3
-1.398, 2.229e-3
-1.399, 2.263e-3
-1.400, 2.206e-3
-1.399, 2.106e-3
-1.398, 2.041e-3
-1.397, 1.983e-3
-1.396, 1.928e-3
-1.395, 1.875e-3
-1.394, 1.826e-3
-1.393, 1.777e-3
-1.392, 1.730e-3
-1.391, 1.682e-3
-1.390, 1.636e-3
-1.389, 1.591e-3
-1.388, 1.550e-3
-1.387, 1.509e-3
-1.386, 1.468e-3
-1.385, 1.427e-3
-1.384, 1.388e-3
-1.383, 1.351e-3
-1.382, 1.312e-3
-1.381, 1.275e-3
-1.380, 1.238e-3
-1.379, 1.203e-3
-1.378, 1.170e-3
-1.377, 1.137e-3
-1.376, 1.103e-3
-1.375, 1.068e-3
-1.374, 1.037e-3
-1.373, 1.008e-3
-1.372, 9.784e-4
-1.371, 9.472e-4
-1.370, 9.159e-4
-1.369, 8.870e-4
-1.368, 8.616e-4
-1.367, 8.346e-4
-1.366, 8.064e-4
-1.365, 7.788e-4
-1.364, 7.530e-4
-1.363, 7.291e-4
-1.362, 7.062e-4
-1.361, 6.805e-4
-1.360, 6.549e-4
-1.359, 6.316e-4
-1.358, 6.106e-4
-1.357, 5.895e-4
-1.356, 5.661e-4
-1.355, 5.422e-4
-1.354, 5.222e-4
-1.353, 5.043e-4
-1.352, 4.864e-4
-1.351, 4.665e-4
-1.350, 4.463e-4
-1.349, 4.287e-4
-1.348, 4.117e-4
-1.347, 3.951e-4
-1.346, 3.769e-4
-1.345, 3.583e-4
-1.344, 3.428e-4
-1.343, 3.283e-4
-1.342, 3.131e-4
-1.341, 2.973e-4
-1.340, 2.804e-4
-1.339, 2.660e-4
-1.338, 2.534e-4
-1.337, 2.399e-4
-1.336, 2.250e-4
-1.335, 2.098e-4
-1.334, 1.961e-4
-1.333, 1.852e-4
-1.332, 1.735e-4
-1.331, 1.601e-4
-1.330, 1.459e-4
-1.329, 1.327e-4
-1.328, 1.223e-4
-1.327, 1.114e-4
-1.326, 9.974e-5
-1.325, 8.828e-5
-1.324, 7.782e-5
-1.323, 6.910e-5
-1.322, 5.950e-5
-1.321, 4.719e-5
-1.320, 3.565e-5
-1.319, 2.538e-5
-1.318, 1.676e-5
-1.317, 7.830e-6
-1.316, -3.478e-6
-1.315, -1.458e-5
-1.314, -2.385e-5
-1.313, -3.125e-5
-1.312, -3.811e-5
-1.311, -4.747e-5
-1.310, -5.838e-5
-1.309, -6.625e-5
-1.308, -7.319e-5
-1.307, -8.006e-5
-1.306, -8.887e-5
-1.305, -9.927e-5
-1.304, -1.066e-4
-1.303, -1.133e-4
-1.302, -1.202e-4
-1.301, -1.287e-4
-1.300, -1.390e-4
-1.299, -1.470e-4
-1.298, -1.527e-4
-1.297, -1.586e-4
-1.296, -1.654e-4
-1.295, -1.748e-4
-1.294, -1.830e-4
-1.293, -1.885e-4
-1.292, -1.948e-4
-1.291, -2.027e-4
-1.290, -2.115e-4
-1.289, -2.193e-4
-1.288, -2.242e-4
-1.287, -2.296e-4
-1.286, -2.375e-4
-1.285, -2.459e-4
-1.284, -2.538e-4
-1.283, -2.591e-4
-1.282, -2.642e-4
-1.281, -2.713e-4
-1.280, -2.798e-4
-1.279, -2.862e-4
-1.278, -2.917e-4
-1.277, -2.970e-4
-1.276, -3.051e-4
-1.275, -3.130e-4
-1.274, -3.195e-4
-1.273, -3.251e-4
-1.272, -3.298e-4
-1.271, -3.367e-4
-1.270, -3.447e-4
-1.269, -3.509e-4
-1.268, -3.560e-4
-1.267, -3.619e-4
-1.266, -3.701e-4
-1.265, -3.799e-4
-1.264, -3.866e-4
-1.263, -3.915e-4
-1.262, -3.968e-4
-1.261, -4.031e-4
-1.260, -4.110e-4
-1.259, -4.175e-4
-1.258, -4.216e-4
-1.257, -4.266e-4
-1.256, -4.327e-4
-1.255, -4.416e-4
-1.254, -4.494e-4
-1.253, -4.540e-4
-1.252, -4.596e-4
-1.251, -4.669e-4
-1.250, -4.752e-4
-1.249, -4.827e-4
-1.248, -4.875e-4
-1.247, -4.935e-4
-1.246, -5.010e-4
-1.245, -5.094e-4
-1.244, -5.167e-4
-1.243, -5.219e-4
-1.242, -5.273e-4
-1.241, -5.348e-4
-1.240, -5.430e-4
-1.239, -5.509e-4
-1.238, -5.567e-4
-1.237, -5.618e-4
-1.236, -5.696e-4
-1.235, -5.788e-4
-1.234, -5.867e-4
-1.233, -5.928e-4
-1.232, -5.987e-4
-1.231, -6.074e-4
-1.230, -6.177e-4
-1.229, -6.288e-4
-1.228, -6.361e-4
-1.227, -6.423e-4
-1.226, -6.504e-4
-1.225, -6.598e-4
-1.224, -6.675e-4
-1.223, -6.742e-4
-1.222, -6.815e-4
-1.221, -6.908e-4
-1.220, -7.016e-4
-1.219, -7.116e-4
-1.218, -7.197e-4
-1.217, -7.282e-4
-1.216, -7.369e-4
-1.215, -7.483e-4
-1.214, -7.583e-4
-1.213, -7.657e-4
-1.212, -7.737e-4
-1.211, -7.833e-4
-1.210, -7.952e-4
-1.209, -8.066e-4
-1.208, -8.148e-4
-1.207, -8.235e-4
-1.206, -8.338e-4
-1.205, -8.446e-4
-1.204, -8.563e-4
-1.203, -8.658e-4
-1.202, -8.743e-4
-1.201, -8.845e-4
-1.200, -8.947e-4
-1.199, -9.057e-4
-1.198, -9.142e-4
-1.197, -9.216e-4
-1.196, -9.324e-4
-1.195, -9.426e-4
-1.194, -9.528e-4
-1.193, -9.613e-4
-1.192, -9.689e-4
-1.191, -9.781e-4
-1.190, -9.878e-4
-1.189, -9.974e-4
-1.188, -1.005e-3
-1.187, -1.013e-3
-1.186, -1.021e-3
-1.185, -1.031e-3
-1.184, -1.039e-3
-1.183, -1.046e-3
-1.182, -1.052e-3
-1.181, -1.058e-3
-1.180, -1.068e-3
-1.179, -1.075e-3
-1.178, -1.081e-3
-1.177, -1.087e-3
-1.176, -1.092e-3
-1.175, -1.099e-3
-1.174, -1.105e-3
-1.173, -1.108e-3
-1.172, -1.111e-3
-1.171, -1.116e-3
-1.170, -1.122e-3
-1.169, -1.127e-3
-1.168, -1.129e-3
-1.167, -1.131e-3
-1.166, -1.135e-3
-1.165, -1.139e-3
-1.164, -1.143e-3
-1.163, -1.144e-3
-1.162, -1.143e-3
-1.161, -1.145e-3
-1.160, -1.147e-3
-1.159, -1.149e-3
-1.158, -1.149e-3
-1.157, -1.148e-3
-1.156, -1.149e-3
-1.155, -1.150e-3
-1.154, -1.151e-3
-1.153, -1.150e-3
-1.152, -1.147e-3
-1.151, -1.147e-3
-1.150, -1.149e-3
-1.149, -1.149e-3
-1.148, -1.146e-3
-1.147, -1.142e-3
-1.146, -1.140e-3
-1.145, -1.141e-3
-1.144, -1.139e-3
-1.143, -1.136e-3
-1.142, -1.132e-3
-1.141, -1.129e-3
-1.140, -1.129e-3
-1.139, -1.127e-3
-1.138, -1.124e-3
-1.137, -1.119e-3
-1.136, -1.116e-3
-1.135, -1.115e-3
-1.134, -1.113e-3
-1.133, -1.109e-3
-1.132, -1.103e-3
-1.131, -1.099e-3
-1.130, -1.098e-3
-1.129, -1.095e-3
-1.128, -1.091e-3
-1.127, -1.085e-3
-1.126, -1.080e-3
-1.125, -1.078e-3
-1.124, -1.076e-3
-1.123, -1.072e-3
-1.122, -1.067e-3
-1.121, -1.064e-3
-1.120, -1.062e-3
-1.119, -1.058e-3
-1.118, -1.055e-3
-1.117, -1.049e-3
-1.116, -1.045e-3
-1.115, -1.043e-3
-1.114, -1.041e-3
-1.113, -1.038e-3
-1.112, -1.032e-3
-1.111, -1.028e-3
-1.110, -1.025e-3
-1.109, -1.022e-3
-1.108, -1.017e-3
-1.107, -1.012e-3
-1.106, -1.009e-3
-1.105, -1.008e-3
-1.104, -1.005e-3
-1.103, -1.000e-3
-1.102, -9.951e-4
-1.101, -9.902e-4
-1.100, -9.888e-4
-1.099, -9.864e-4
-1.098, -9.829e-4
-1.097, -9.783e-4
-1.096, -9.752e-4
-1.095, -9.741e-4
-1.094, -9.721e-4
-1.093, -9.680e-4
-1.092, -9.632e-4
-1.091, -9.601e-4
-1.090, -9.587e-4
-1.089, -9.580e-4
-1.088, -9.537e-4
-1.087, -9.493e-4
-1.086, -9.467e-4
-1.085, -9.445e-4
-1.084, -9.431e-4
-1.083, -9.400e-4
-1.082, -9.355e-4
-1.081, -9.339e-4
-1.080, -9.321e-4
-1.079, -9.309e-4
-1.078, -9.276e-4
-1.077, -9.231e-4
-1.076, -9.215e-4
-1.075, -9.220e-4
-1.074, -9.209e-4
-1.073, -9.180e-4
-1.072, -9.138e-4
-1.071, -9.111e-4
-1.070, -9.105e-4
-1.069, -9.088e-4
-1.068, -9.059e-4
-1.067, -9.033e-4
-1.066, -9.019e-4
-1.065, -9.023e-4
-1.064, -9.016e-4
-1.063, -8.985e-4
-1.062, -8.942e-4
-1.061, -8.916e-4
-1.060, -8.918e-4
-1.059, -8.919e-4
-1.058, -8.897e-4
-1.057, -8.874e-4
-1.056, -8.858e-4
-1.055, -8.859e-4
-1.054, -8.866e-4
-1.053, -8.835e-4
-1.052, -8.806e-4
-1.051, -8.792e-4
-1.050, -8.794e-4
-1.049, -8.802e-4
-1.048, -8.781e-4
-1.047, -8.759e-4
-1.046, -8.749e-4
-1.045, -8.750e-4
-1.044, -8.755e-4
-1.043, -8.742e-4
-1.042, -8.718e-4
-1.041, -8.707e-4
-1.040, -8.711e-4
-1.039, -8.716e-4
-1.038, -8.701e-4
-1.037, -8.675e-4
-1.036, -8.666e-4
-1.035, -8.677e-4
-1.034, -8.688e-4
-1.033, -8.677e-4
-1.032, -8.654e-4
-1.031, -8.651e-4
-1.030, -8.668e-4
-1.029, -8.667e-4
-1.028, -8.656e-4
-1.027, -8.641e-4
-1.026, -8.633e-4
-1.025, -8.650e-4
-1.024, -8.659e-4
-1.023, -8.649e-4
-1.022, -8.628e-4
-1.021, -8.623e-4
-1.020, -8.632e-4
-1.019, -8.645e-4
-1.018, -8.641e-4
-1.017, -8.629e-4
-1.016, -8.622e-4
-1.015, -8.650e-4
-1.014, -8.663e-4
-1.013, -8.636e-4
-1.012, -8.629e-4
-1.011, -8.625e-4
-1.010, -8.645e-4
-1.009, -8.672e-4
-1.008, -8.656e-4
-1.007, -8.646e-4
-1.006, -8.646e-4
-1.005, -8.665e-4
-1.004, -8.679e-4
-1.003, -8.673e-4
-1.002, -8.656e-4
-1.001, -8.659e-4
-1.000, -7.783e-4
-1.001, -6.521e-4
-1.002, -5.689e-4
-1.003, -5.018e-4
-1.004, -4.455e-4
-1.005, -3.991e-4
-1.006, -3.572e-4
-1.007, -3.183e-4
-1.008, -2.820e-4
-1.009, -2.496e-4
-1.010, -2.225e-4
-1.011, -1.973e-4
-1.012, -1.722e-4
-1.013, -1.486e-4
-1.014, -1.272e-4
-1.015, -1.090e-4
-1.016, -9.262e-5
-1.017, -7.533e-5
-1.018, -5.807e-5
-1.019, -4.285e-5
-1.020, -3.055e-5
-1.021, -1.924e-5
-1.022, -6.537e-6
-1.023, 7.164e-6
-1.024, 1.903e-5
-1.025, 2.761e-5
-1.026, 3.599e-5
-1.027, 4.533e-5
-1.028, 5.626e-5
-1.029, 6.527e-5
-1.030, 7.181e-5
-1.031, 7.828e-5
-1.032, 8.618e-5
-1.033, 9.496e-5
-1.034, 1.025e-4
-1.035, 1.074e-4
-1.036, 1.130e-4
-1.037, 1.191e-4
-1.038, 1.270e-4
-1.039, 1.337e-4
-1.040, 1.376e-4
-1.041, 1.417e-4
-1.042, 1.476e-4
-1.043, 1.544e-4
-1.044, 1.605e-4
-1.045, 1.638e-4
-1.046, 1.673e-4
-1.047, 1.732e-4
-1.048, 1.791e-4
-1.049, 1.844e-4
-1.050, 1.878e-4
-1.051, 1.908e-4
-1.052, 1.957e-4
-1.053, 2.013e-4
-1.054, 2.063e-4
-1.055, 2.095e-4
-1.056, 2.120e-4
-1.057, 2.169e-4
-1.058, 2.229e-4
-1.059, 2.273e-4
-1.060, 2.302e-4
-1.061, 2.322e-4
-1.062, 2.371e-4
-1.063, 2.431e-4
-1.064, 2.473e-4
-1.065, 2.502e-4
-1.066, 2.525e-4
-1.067, 2.566e-4
-1.068, 2.624e-4
-1.069, 2.665e-4
-1.070, 2.694e-4
-1.071, 2.718e-4
-1.072, 2.759e-4
-1.073, 2.818e-4
-1.074, 2.862e-4
-1.075, 2.888e-4
-1.076, 2.916e-4
-1.077, 2.949e-4
-1.078, 3.004e-4
-1.079, 3.052e-4
-1.080, 3.072e-4
-1.081, 3.097e-4
-1.082, 3.136e-4
-1.083, 3.188e-4
-1.084, 3.242e-4
-1.085, 3.268e-4
-1.086, 3.295e-4
-1.087, 3.335e-4
-1.088, 3.384e-4
-1.089, 3.430e-4
-1.090, 3.454e-4
-1.091, 3.471e-4
-1.092, 3.514e-4
-1.093, 3.569e-4
-1.094, 3.621e-4
-1.095, 3.651e-4
-1.096, 3.670e-4
-1.097, 3.712e-4
-1.098, 3.766e-4
-1.099, 3.809e-4
-1.100, 3.840e-4
-1.101, 3.864e-4
-1.102, 3.907e-4
-1.103, 3.963e-4
-1.104, 4.009e-4
-1.105, 4.041e-4
-1.106, 4.061e-4
-1.107, 4.107e-4
-1.108, 4.165e-4
-1.109, 4.209e-4
-1.110, 4.239e-4
-1.111, 4.265e-4
-1.112, 4.306e-4
-1.113, 4.365e-4
-1.114, 4.420e-4
-1.115, 4.447e-4
-1.116, 4.476e-4
-1.117, 4.511e-4
-1.118, 4.567e-4
-1.119, 4.623e-4
-1.120, 4.650e-4
-1.121, 4.679e-4
-1.122, 4.726e-4
-1.123, 4.785e-4
-1.124, 4.840e-4
-1.125, 4.864e-4
-1.126, 4.886e-4
-1.127, 4.940e-4
-1.128, 4.996e-4
-1.129, 5.054e-4
-1.130, 5.087e-4
-1.131, 5.114e-4
-1.132, 5.164e-4
-1.133, 5.219e-4
-1.134, 5.278e-4
-1.135, 5.320e-4
-1.136, 5.343e-4
-1.137, 5.396e-4
-1.138, 5.454e-4
-1.139, 5.508e-4
-1.140, 5.551e-4
-1.141, 5.581e-4
-1.142, 5.628e-4
-1.143, 5.700e-4
-1.144, 5.753e-4
-1.145, 5.794e-4
-1.146, 5.829e-4
-1.147, 5.876e-4
-1.148, 5.949e-4
-1.149, 6.009e-4
-1.150, 6.055e-4
-1.151, 6.089e-4
-1.152, 6.137e-4
-1.153, 6.208e-4
-1.154, 6.271e-4
-1.155, 6.318e-4
-1.156, 6.362e-4
-1.157, 6.411e-4
-1.158, 6.483e-4
-1.159, 6.548e-4
-1.160, 6.586e-4
-1.161, 6.631e-4
-1.162, 6.690e-4
-1.163, 6.762e-4
-1.164, 6.843e-4
-1.165, 6.898e-4
-1.166, 6.942e-4
-1.167, 6.999e-4
-1.168, 7.064e-4
-1.169, 7.139e-4
-1.170, 7.200e-4
-1.171, 7.255e-4
-1.172, 7.337e-4
-1.173, 7.398e-4
-1.174, 7.464e-4
-1.175, 7.523e-4
-1.176, 7.573e-4
-1.177, 7.643e-4
-1.178, 7.732e-4
-1.179, 7.808e-4
-1.180, 7.872e-4
-1.181, 7.919e-4
-1.182, 7.987e-4
-1.183, 8.076e-4
-1.184, 8.159e-4
-1.185, 8.218e-4
-1.186, 8.265e-4
-1.187, 8.336e-4
-1.188, 8.430e-4
-1.189, 8.506e-4
-1.190, 8.572e-4
-1.191, 8.637e-4
-1.192, 8.705e-4
-1.193, 8.798e-4
-1.194, 8.883e-4
-1.195, 8.953e-4
-1.196, 9.014e-4
-1.197, 9.077e-4
-1.198, 9.179e-4
-1.199, 9.268e-4
-1.200, 9.332e-4
-1.201, 9.387e-4
-1.202, 9.456e-4
-1.203, 9.547e-4
-1.204, 9.635e-4
-1.205, 9.701e-4
-1.206, 9.773e-4
-1.207, 9.853e-4
-1.208, 9.935e-4
-1.209, 1.002e-3
-1.210, 1.009e-3
-1.211, 1.014e-3
-1.212, 1.022e-3
-1.213, 1.030e-3
-1.214, 1.039e-3
-1.215, 1.046e-3
-1.216, 1.051e-3
-1.217, 1.057e-3
-1.218, 1.066e-3
-1.219, 1.074e-3
-1.220, 1.081e-3
-1.221, 1.085e-3
-1.222, 1.091e-3
-1.223, 1.100e-3
-1.224, 1.108e-3
-1.225, 1.114e-3
-1.226, 1.118e-3
-1.227, 1.123e-3
-1.228, 1.130e-3
-1.229, 1.141e-3
-1.230, 1.145e-3
-1.231, 1.148e-3
-1.232, 1.152e-3
-1.233, 1.159e-3
-1.234, 1.164e-3
-1.235, 1.170e-3
-1.236, 1.173e-3
-1.237, 1.176e-3
-1.238, 1.181e-3
-1.239, 1.187e-3
-1.240, 1.190e-3
-1.241, 1.192e-3
-1.242, 1.194e-3
-1.243, 1.199e-3
-1.244, 1.203e-3
-1.245, 1.205e-3
-1.246, 1.206e-3
-1.247, 1.208e-3
-1.248, 1.212e-3
-1.249, 1.217e-3
-1.250, 1.217e-3
-1.251, 1.215e-3
-1.252, 1.216e-3
-1.253, 1.217e-3
-1.254, 1.220e-3
-1.255, 1.221e-3
-1.256, 1.220e-3
-1.257, 1.221e-3
-1.258, 1.223e-3
-1.259, 1.224e-3
-1.260, 1.222e-3
-1.261, 1.219e-3
-1.262, 1.218e-3
-1.263, 1.219e-3
-1.264, 1.219e-3
-1.265, 1.218e-3
-1.266, 1.215e-3
-1.267, 1.212e-3
-1.268, 1.211e-3
-1.269, 1.210e-3
-1.270, 1.207e-3
-1.271, 1.202e-3
-1.272, 1.198e-3
-1.273, 1.197e-3
-1.274, 1.196e-3
-1.275, 1.193e-3
-1.276, 1.189e-3
-1.277, 1.183e-3
-1.278, 1.179e-3
-1.279, 1.178e-3
-1.280, 1.175e-3
-1.281, 1.169e-3
-1.282, 1.164e-3
-1.283, 1.161e-3
-1.284, 1.159e-3
-1.285, 1.153e-3
-1.286, 1.147e-3
-1.287, 1.143e-3
-1.288, 1.139e-3
-1.289, 1.136e-3
-1.290, 1.131e-3
-1.291, 1.125e-3
-1.292, 1.118e-3
-1.293, 1.115e-3
-1.294, 1.112e-3
-1.295, 1.108e-3
-1.296, 1.102e-3
-1.297, 1.097e-3
-1.298, 1.095e-3
-1.299, 1.093e-3
-1.300, 1.089e-3
-1.301, 1.082e-3
-1.302, 1.077e-3
-1.303, 1.075e-3
-1.304, 1.074e-3
-1.305, 1.071e-3
-1.306, 1.067e-3
-1.307, 1.063e-3
-1.308, 1.062e-3
-1.309, 1.062e-3
-1.310, 1.060e-3
-1.311, 1.057e-3
-1.312, 1.054e-3
-1.313, 1.056e-3
-1.314, 1.057e-3
-1.315, 1.056e-3
-1.316, 1.055e-3
-1.317, 1.055e-3
-1.318, 1.056e-3
-1.319, 1.059e-3
-1.320, 1.060e-3
-1.321, 1.062e-3
-1.322, 1.064e-3
-1.323, 1.067e-3
-1.324, 1.073e-3
-1.325, 1.074e-3
-1.326, 1.076e-3
-1.327, 1.079e-3
-1.328, 1.085e-3
-1.329, 1.094e-3
-1.330, 1.099e-3
-1.331, 1.103e-3
-1.332, 1.110e-3
-1.333, 1.119e-3
-1.334, 1.129e-3
-1.335, 1.136e-3
-1.336, 1.142e-3
-1.337, 1.150e-3
-1.338, 1.159e-3
-1.339, 1.171e-3
-1.340, 1.182e-3
-1.341, 1.190e-3
-1.342, 1.201e-3
-1.343, 1.213e-3
-1.344, 1.223e-3
-1.345, 1.236e-3
-1.346, 1.248e-3
-1.347, 1.261e-3
-1.348, 1.273e-3
-1.349, 1.287e-3
-1.350, 1.301e-3
-1.351, 1.314e-3
-1.352, 1.326e-3
-1.353, 1.341e-3
-1.354, 1.359e-3
-1.355, 1.373e-3
-1.356, 1.386e-3
-1.357, 1.399e-3
-1.358, 1.415e-3
-1.359, 1.433e-3
-1.360, 1.448e-3
-1.361, 1.462e-3
-1.362, 1.477e-3
-1.363, 1.495e-3
-1.364, 1.513e-3
-1.365, 1.529e-3
-1.366, 1.542e-3
-1.367, 1.557e-3
-1.368, 1.572e-3
-1.369, 1.591e-3
-1.370, 1.607e-3
-1.371, 1.620e-3
-1.372, 1.636e-3
-1.373, 1.653e-3
-1.374, 1.670e-3
-1.375, 1.685e-3
-1.376, 1.700e-3
-1.377, 1.714e-3
-1.378, 1.730e-3
-1.379, 1.748e-3
-1.380, 1.765e-3
-1.381, 1.780e-3
-1.382, 1.796e-3
-1.383, 1.811e-3
-1.384, 1.829e-3
-1.385, 1.846e-3
-1.386, 1.863e-3
-1.387, 1.881e-3
-1.388, 1.902e-3
-1.389, 1.921e-3
-1.390, 1.939e-3
-1.391, 1.958e-3
-1.392, 1.980e-3
-1.393, 2.003e-3
-1.394, 2.030e-3
-1.395, 2.057e-3
-1.396, 2.083e-3
-1.397, 2.112e-3
-1.398, 2.144e-3
-1.399, 2.179e-3
-1.400, 2.121e-3
-1.399, 2.017e-3
-1.398, 1.952e-3
-1.397, 1.894e-3
-1.396, 1.843e-3
-1.395, 1.794e-3
-1.394, 1.743e-3
-1.393, 1.694e-3
-1.392, 1.647e-3
-1.391, 1.602e-3
-1.390, 1.559e-3
-1.389, 1.516e-3
-1.388, 1.475e-3
-1.387, 1.436e-3
-1.386, 1.398e-3
-1.385, 1.360e-3
-1.384, 1.320e-3
-1.383, 1.281e-3
-1.382, 1.245e-3
-1.381, 1.213e-3
-1.380, 1.178e-3
-1.379, 1.143e-3
-1.378, 1.108e-3
-1.377, 1.076e-3
-1.376, 1.046e-3
-1.375, 1.016e-3
-1.374, 9.834e-4
-1.373, 9.529e-4
-1.372, 9.238e-4
-1.371, 8.968e-4
-1.370, 8.695e-4
-1.369, 8.409e-4
-1.368, 8.128e-4
-1.367, 7.870e-4
-1.366, 7.625e-4
-1.365, 7.381e-4
-1.364, 7.116e-4
-1.363, 6.862e-4
-1.362, 6.633e-4
-1.361, 6.417e-4
-1.360, 6.208e-4
-1.359, 5.973e-4
-1.358, 5.743e-4
-1.357, 5.540e-4
-1.356, 5.355e-4
-1.355, 5.157e-4
-1.354, 4.947e-4
-1.353, 4.738e-4
-1.352, 4.562e-4
-1.351, 4.395e-4
-1.350, 4.221e-4
-1.349, 4.036e-4
-1.348, 3.848e-4
-1.347, 3.688e-4
-1.346, 3.545e-4
-1.345, 3.385e-4
-1.344, 3.217e-4
-1.343, 3.053e-4
-1.342, 2.907e-4
-1.341, 2.775e-4
-1.340, 2.632e-4
-1.339, 2.476e-4
-1.338, 2.325e-4
-1.337, 2.195e-4
-1.336, 2.087e-4
-1.335, 1.962e-4
-1.334, 1.823e-4
-1.333, 1.691e-4
-1.332, 1.569e-4
-1.331, 1.460e-4
-1.330, 1.347e-4
-1.329, 1.214e-4
-1.328, 1.096e-4
-1.327, 9.931e-5
-1.326, 8.975e-5
-1.325, 7.932e-5
-1.324, 6.676e-5
-1.323, 5.475e-5
-1.322, 4.600e-5
-1.321, 3.785e-5
-1.320, 2.928e-5
-1.319, 1.865e-5
-1.318, 7.527e-6
-1.317, -1.820e-6
-1.316, -1.045e-5
-1.315, -1.957e-5
-1.314, -2.976e-5
-1.313, -3.911e-5
-1.312, -4.595e-5
-1.311, -5.237e-5
-1.310, -6.056e-5
-1.309, -7.023e-5
-1.308, -8.038e-5
-1.307, -8.826e-5
-1.306, -9.377e-5
-1.305, -1.012e-4
-1.304, -1.105e-4
-1.303, -1.202e-4
-1.302, -1.277e-4
-1.301, -1.333e-4
-1.300, -1.402e-4
-1.299, -1.479e-4
-1.298, -1.564e-4
-1.297, -1.637e-4
-1.296, -1.690e-4
-1.295, -1.762e-4
-1.294, -1.853e-4
-1.293, -1.929e-4
-1.292, -1.991e-4
-1.291, -2.036e-4
-1.290, -2.093e-4
-1.289, -2.176e-4
-1.288, -2.254e-4
-1.287, -2.323e-4
-1.286, -2.381e-4
-1.285, -2.431e-4
-1.284, -2.515e-4
-1.283, -2.598e-4
-1.282, -2.653e-4
-1.281, -2.705e-4
-1.280, -2.772e-4
-1.279, -2.853e-4
-1.278, -2.930e-4
-1.277, -2.979e-4
-1.276, -3.024e-4
-1.275, -3.077e-4
-1.274, -3.153e-4
-1.273, -3.238e-4
-1.272, -3.295e-4
-1.271, -3.343e-4
-1.270, -3.400e-4
-1.269, -3.472e-4
-1.268, -3.552e-4
-1.267, -3.611e-4
-1.266, -3.651e-4
-1.265, -3.715e-4
-1.264, -3.789e-4
-1.263, -3.871e-4
-1.262, -3.932e-4
-1.261, -3.971e-4
-1.260, -4.030e-4
-1.259, -4.107e-4
-1.258, -4.182e-4
-1.257, -4.254e-4
-1.256, -4.302e-4
-1.255, -4.365e-4
-1.254, -4.443e-4
-1.253, -4.517e-4
-1.252, -4.578e-4
-1.251, -4.623e-4
-1.250, -4.677e-4
-1.249, -4.757e-4
-1.248, -4.828e-4
-1.247, -4.916e-4
-1.246, -4.945e-4
-1.245, -5.002e-4
-1.244, -5.081e-4
-1.243, -5.161e-4
-1.242, -5.224e-4
-1.241, -5.283e-4
-1.240, -5.338e-4
-1.239, -5.418e-4
-1.238, -5.504e-4
-1.237, -5.574e-4
-1.236, -5.634e-4
-1.235, -5.718e-4
-1.234, -5.802e-4
-1.233, -5.887e-4
-1.232, -5.933e-4
-1.231, -5.987e-4
-1.230, -6.070e-4
-1.229, -6.196e-4
-1.228, -6.294e-4
-1.227, -6.370e-4
-1.226, -6.427e-4
-1.225, -6.494e-4
-1.224, -6.576e-4
-1.223, -6.695e-4
-1.222, -6.770e-4
-1.221, -6.835e-4
-1.220, -6.918e-4
-1.219, -7.018e-4
-1.218, -7.125e-4
-1.217, -7.220e-4
-1.216, -7.286e-4
-1.215, -7.378e-4
-1.214, -7.479e-4
-1.213, -7.580e-4
-1.212, -7.677e-4
-1.211, -7.758e-4
-1.210, -7.847e-4
-1.209, -7.962e-4
-1.208, -8.076e-4
-1.207, -8.171e-4
-1.206, -8.256e-4
-1.205, -8.350e-4
-1.204, -8.468e-4
-1.203, -8.574e-4
-1.202, -8.669e-4
-1.201, -8.752e-4
-1.200, -8.844e-4
-1.199, -8.944e-4
-1.198, -9.052e-4
-1.197, -9.141e-4
-1.196, -9.234e-4
-1.195, -9.322e-4
-1.194, -9.431e-4
-1.193, -9.554e-4
-1.192, -9.643e-4
-1.191, -9.723e-4
-1.190, -9.804e-4
-1.189, -9.893e-4
-1.188, -9.988e-4
-1.187, -1.006e-3
-1.186, -1.014e-3
-1.185, -1.021e-3
-1.184, -1.029e-3
-1.183, -1.039e-3
-1.182, -1.046e-3
-1.181, -1.051e-3
-1.180, -1.057e-3
-1.179, -1.064e-3
-1.178, -1.073e-3
-1.177, -1.079e-3
-1.176, -1.083e-3
-1.175, -1.087e-3
-1.174, -1.094e-3
-1.173, -1.100e-3
-1.172, -1.105e-3
-1.171, -1.108e-3
-1.170, -1.111e-3
-1.169, -1.116e-3
-1.168, -1.120e-3
-1.167, -1.124e-3
-1.166, -1.125e-3
-1.165, -1.127e-3
-1.164, -1.130e-3
-1.163, -1.134e-3
-1.162, -1.136e-3
-1.161, -1.137e-3
-1.160, -1.137e-3
-1.159, -1.139e-3
-1.158, -1.141e-3
-1.157, -1.141e-3
-1.156, -1.140e-3
-1.155, -1.139e-3
-1.154, -1.140e-3
-1.153, -1.141e-3
-1.152, -1.141e-3
-1.151, -1.139e-3
-1.150, -1.137e-3
-1.149, -1.136e-3
-1.148, -1.137e-3
-1.147, -1.135e-3
-1.146, -1.133e-3
-1.145, -1.130e-3
-1.144, -1.128e-3
-1.143, -1.128e-3
-1.142, -1.125e-3
-1.141, -1.121e-3
-1.140, -1.117e-3
-1.139, -1.115e-3
-1.138, -1.114e-3
-1.137, -1.113e-3
-1.136, -1.108e-3
-1.135, -1.104e-3
-1.134, -1.102e-3
-1.133, -1.100e-3
-1.132, -1.097e-3
-1.131, -1.091e-3
-1.130, -1.085e-3
-1.129, -1.083e-3
-1.128, -1.080e-3
-1.127, -1.078e-3
-1.126, -1.073e-3
-1.125, -1.068e-3
-1.124, -1.066e-3
-1.123, -1.064e-3
-1.122, -1.060e-3
-1.121, -1.055e-3
-1.120, -1.049e-3
-1.119, -1.046e-3
-1.118, -1.045e-3
-1.117, -1.041e-3
-1.116, -1.035e-3
-1.115, -1.031e-3
-1.114, -1.028e-3
-1.113, -1.027e-3
-1.112, -1.022e-3
-1.111, -1.017e-3
-1.110, -1.012e-3
-1.109, -1.009e-3
-1.108, -1.008e-3
-1.107, -1.004e-3
-1.106, -9.990e-4
-1.105, -9.948e-4
-1.104, -9.918e-4
-1.103, -9.902e-4
-1.102, -9.871e-4
-1.101, -9.822e-4
-1.100, -9.772e-4
-1.099, -9.745e-4
-1.098, -9.735e-4
-1.097, -9.715e-4
-1.096, -9.665e-4
-1.095, -9.625e-4
-1.094, -9.602e-4
-1.093, -9.577e-4
-1.092, -9.548e-4
-1.091, -9.499e-4
-1.090, -9.455e-4
-1.089, -9.444e-4
-1.088, -9.427e-4
-1.087, -9.407e-4
-1.086, -9.365e-4
-1.085, -9.319e-4
-1.084, -9.300e-4
-1.083, -9.288e-4
-1.082, -9.262e-4
-1.081, -9.226e-4
-1.080, -9.185e-4
-1.079, -9.172e-4
-1.078, -9.165e-4
-1.077, -9.141e-4
-1.076, -9.104e-4
-1.075, -9.077e-4
-1.074, -9.065e-4
-1.073, -9.073e-4
-1.072, -9.045e-4
-1.071, -9.004e-4
-1.070, -8.977e-4
-1.069, -8.958e-4
-1.068, -8.958e-4
-1.067, -8.937e-4
-1.066, -8.899e-4
-1.065, -8.882e-4
-1.064, -8.869e-4
-1.063, -8.874e-4
-1.062, -8.860e-4
-1.061, -8.823e-4
-1.060, -8.794e-4
-1.059, -8.784e-4
-1.058, -8.790e-4
-1.057, -8.783e-4
-1.056, -8.754e-4
-1.055, -8.726e-4
-1.054, -8.723e-4
-1.053, -8.718e-4
-1.052, -8.702e-4
-1.051, -8.682e-4
-1.050, -8.659e-4
-1.049, -8.666e-4
-1.048, -8.670e-4
-1.047, -8.668e-4
-1.046, -8.645e-4
-1.045, -8.620e-4
-1.044, -8.620e-4
-1.043, -8.623e-4
-1.042, -8.617e-4
-1.041, -8.603e-4
-1.040, -8.572e-4
-1.039, -8.580e-4
-1.038, -8.588e-4
-1.037, -8.576e-4
-1.036, -8.561e-4
-1.035, -8.550e-4
-1.034, -8.563e-4
-1.033, -8.572e-4
-1.032, -8.567e-4
-1.031, -8.551e-4
-1.030, -8.531e-4
-1.029, -8.537e-4
-1.028, -8.552e-4
-1.027, -8.555e-4
-1.026, -8.542e-4
-1.025, -8.536e-4
-1.024, -8.543e-4
-1.023, -8.554e-4
-1.022, -8.553e-4
-1.021, -8.533e-4
-1.020, -8.523e-4
-1.019, -8.529e-4
-1.018, -8.546e-4
-1.017, -8.558e-4
-1.016, -8.541e-4
-1.015, -8.533e-4
-1.014, -8.545e-4
-1.013, -8.559e-4
-1.012, -8.562e-4
-1.011, -8.551e-4
-1.010, -8.535e-4
-1.009, -8.549e-4
-1.008, -8.568e-4
-1.007, -8.581e-4
-1.006, -8.574e-4
-1.005, -8.562e-4
-1.004, -8.576e-4
-1.003, -8.598e-4
-1.002, -8.602e-4
-1.001, -8.592e-4
