Potential V vs RHE, Current mA cm-2
0.013299999999999867,-0.35735607434590827
0.012299999999999978,-0.9557789541888188
0.011299999999999866,-1.1583656123294919
0.010299999999999976,-1.2712595740587218
0.009299999999999864,-1.3787776328484649
0.008299999999999974,-1.4698850405597732
0.007299999999999862,-1.5264734925543744
0.006299999999999972,-1.5632559863508655
0.00529999999999986,-1.5943796349478963
0.0042999999999999705,-1.6594563547416883
0.0032999999999998586,-1.72736249713521
0.0022999999999999687,-1.769803836131161
0.0012999999999998568,-1.7896097943292715
0.00029999999999996696,-1.8108304638272468
-0.000700000000000145,-1.8660042045219833
-0.0017000000000000348,-1.9381544808151003
-0.0027000000000001467,-1.9706928407119961
-0.0037000000000000366,-1.9890840876102414
-0.0047000000000001485,-2.020207736207272
-0.005700000000000038,-2.0668932091028185
-0.00670000000000015,-2.136214062796206
-0.00770000000000004,-2.1729965565926963
-0.008700000000000152,-2.1899730921910767
-0.009700000000000042,-2.2210967407881075
-0.010700000000000154,-2.2819293266823037
-0.011700000000000044,-2.3455913351762305
-0.012700000000000156,-2.388032674172182
-0.013700000000000045,-2.4050092097705624
-0.014700000000000157,-2.4403769922671885
-0.015700000000000047,-2.49413602166206
-0.01670000000000016,-2.5719451431546365
-0.01770000000000005,-2.624289461249643
-0.01870000000000016,-2.6384365742482934
-0.01970000000000005,-2.6752190680447843
-0.020700000000000163,-2.741710499138441
-0.021700000000000053,-2.813860775431558
-0.022700000000000164,-2.874693361325755
-0.023700000000000054,-2.900158164723325
-0.024700000000000166,-2.9397700811195464
-0.025700000000000056,-3.0119203574126634
-0.026700000000000168,-3.08690005630551
-0.027700000000000058,-3.1519767760993016
-0.02870000000000017,-3.1873445585959277
-0.02970000000000006,-3.228371186292014
-0.03070000000000017,-3.310424441684186
-0.03170000000000006,-3.3967218309759533
-0.03270000000000017,-3.453310282970554
-0.03370000000000006,-3.5014104671659654
-0.034700000000000175,-3.546681228761647
-0.035700000000000065,-3.6343933293532795
-0.03670000000000018,-3.7263495638445066
-0.03770000000000007,-3.7900115723384333
-0.03870000000000018,-3.835282333934114
-0.03970000000000007,-3.8791383842299307
-0.04070000000000018,-3.962606350921967
-0.04170000000000007,-4.068709698411845
-0.04270000000000018,-4.135201129505503
-0.04370000000000007,-4.191789581500104
-0.044700000000000184,-4.2483780334947046
-0.045700000000000074,-4.3332607114866075
-0.046700000000000186,-4.436534636376755
-0.047700000000000076,-4.505855490070142
-0.04870000000000019,-4.562443942064744
-0.04970000000000008,-4.627520661858535
-0.05070000000000019,-4.709573917250707
-0.05170000000000008,-4.814262553440719
-0.05270000000000019,-4.892071674933297
-0.05370000000000008,-4.948660126927899
-0.05470000000000019,-5.017980980621284
-0.05570000000000008,-5.101448947313322
-0.056700000000000195,-5.211796428702795
-0.057700000000000085,-5.296679106694698
-0.058700000000000196,-5.341949868290378
-0.059700000000000086,-5.409856010683901
-0.0607000000000002,-5.503226956474993
-0.06170000000000009,-5.614989149164331
-0.0627000000000002,-5.702701249755963
-0.06370000000000009,-5.753630856551104
-0.0647000000000002,-5.814463442445301
-0.06570000000000009,-5.906419676936528
-0.0667000000000002,-6.008278890526811
-0.0677000000000001,-6.094576279818578
-0.0687000000000002,-6.14833530921345
-0.0697000000000001,-6.206338472507916
-0.07070000000000021,-6.303953552198603
-0.0717000000000001,-6.402983343189156
-0.07270000000000021,-6.489280732480923
-0.0737000000000001,-6.54728389577539
-0.07470000000000021,-6.602457636470127
-0.0757000000000001,-6.690169737061758
-0.07670000000000021,-6.794858373251771
-0.0777000000000001,-6.875496917344078
-0.07870000000000021,-6.939158925838006
-0.0797000000000001,-6.990088532633147
-0.08070000000000022,-7.079215344524644
-0.0817000000000001,-7.183903980714656
-0.08270000000000022,-7.258883679607503
-0.08370000000000011,-7.3197162655017
-0.08470000000000022,-7.386207696595355
-0.08570000000000011,-7.465431529387798
-0.08670000000000022,-7.561631897778621
-0.08770000000000011,-7.630952751472008
-0.08870000000000022,-7.69037062606634
-0.08970000000000011,-7.737056098961886
-0.09070000000000022,-7.812035797854732
-0.09170000000000011,-7.913895011445016
-0.09270000000000023,-7.993118844237457
-0.09370000000000012,-8.048292584932193
-0.09470000000000023,-8.107710459526524
-0.09570000000000012,-8.17420189062018
-0.09670000000000023,-8.26049927991195
-0.09770000000000012,-8.339723112704391
-0.09870000000000023,-8.386408585599938
-0.09970000000000012,-8.438752903694944
-0.10070000000000023,-8.51373260258779
-0.10170000000000012,-8.598615280579693
-0.10270000000000024,-8.68774209247119
-0.10370000000000013,-8.71886574106822
-0.10470000000000024,-8.762721791364037
-0.10570000000000013,-8.84477504675621
-0.10670000000000024,-8.929657724748111
-0.10770000000000013,-9.007466846240689
-0.10870000000000024,-9.056981741735965
-0.10970000000000013,-9.10649663723124
-0.11070000000000024,-9.177232202224493
-0.11170000000000013,-9.256456035016935
-0.11270000000000002,-9.337094579109243
-0.11370000000000013,-9.380950629405058
-0.11470000000000002,-9.419147834501414
-0.11570000000000014,-9.495542244694127
-0.11670000000000003,-9.58042492268603
-0.11770000000000014,-9.646916353779686
-0.11870000000000003,-9.69360182667523
-0.11970000000000014,-9.734628454371316
-0.12070000000000003,-9.812437575863894
-0.12170000000000014,-9.910052655554582
-0.12270000000000003,-9.97654408664824
-0.12370000000000014,-10.020400136944055
-0.12470000000000003,-10.062841475940006
-0.12570000000000014,-10.126503484433933
-0.12670000000000003,-10.225533275424485
-0.12770000000000015,-10.290609995218277
-0.12870000000000004,-10.334466045514093
-0.12970000000000015,-10.388225074908965
-0.13070000000000004,-10.45471650600262
-0.13170000000000015,-10.55516100829304
-0.13270000000000004,-10.63155541848575
-0.13370000000000015,-10.66833791228224
-0.13470000000000004,-10.717852807777518
-0.13570000000000015,-10.792832506670365
-0.13670000000000004,-10.896106431560511
-0.13770000000000016,-10.96259786265417
-0.13870000000000005,-11.005039201650119
-0.13970000000000016,-11.071530632743777
-0.14070000000000005,-11.126704373438514
-0.14170000000000016,-11.225734164429067
-0.14270000000000005,-11.329008089319213
-0.14370000000000016,-11.361546449216108
-0.14470000000000005,-11.409646633411523
-0.14570000000000016,-11.484626332304368
-0.14670000000000005,-11.585070834594784
-0.14770000000000016,-11.679856491685744
-0.14870000000000005,-11.713809562882503
-0.14970000000000017,-11.76898330357724
-0.15070000000000006,-11.859524826768602
-0.15170000000000017,-11.96845759685821
-0.15270000000000006,-12.040607873151327
-0.15370000000000017,-12.10002574774566
-0.15470000000000006,-12.14812593194107
-0.15570000000000017,-12.242911589032026
-0.15670000000000006,-12.353259070421501
-0.15770000000000017,-12.443800593612863
-0.15870000000000006,-12.51878029250571
-0.15970000000000018,-12.57536874450031
-0.16070000000000007,-12.661666133792078
-0.16170000000000018,-12.786160728180201
-0.16270000000000007,-12.873872828771834
-0.16370000000000018,-12.958755506763735
-0.16470000000000007,-13.025246937857393
-0.16570000000000018,-13.11154432714916
-0.16670000000000007,-13.231794787637687
-0.16770000000000018,-13.33082457862824
-0.16870000000000007,-13.410048411420682
-0.16970000000000018,-13.47936926511407
-0.17070000000000007,-13.568496077005566
-0.17170000000000019,-13.683087692294635
-0.17270000000000008,-13.793435173684106
-0.1737000000000002,-13.862756027377493
-0.17470000000000008,-13.957541684468453
-0.1757000000000002,-14.065059743258194
-0.17670000000000008,-14.189554337646317
-0.1777000000000002,-14.316878354634172
-0.17870000000000008,-14.373466806628771
-0.1797000000000002,-14.458349484620674
-0.18070000000000008,-14.557379275611227
-0.1817000000000002,-14.69885040559773
-0.18270000000000008,-14.826174422585586
-0.1837000000000002,-14.896909987578834
-0.1847000000000001,-14.995939778569388
-0.1857000000000002,-15.123263795557243
-0.1867000000000001,-15.250587812545096
-0.1877000000000002,-15.37791182953295
-0.1887000000000001,-15.462794507524851
-0.1897000000000002,-15.547677185516752
-0.1907000000000001,-15.675001202504609
-0.1917000000000001,-15.816472332491113
-0.19269999999999998,-15.957943462477614
-0.1937000000000001,-16.085267479465468
-0.19469999999999998,-16.184297270456018
-0.1957000000000001,-16.269179948447924
-0.19669999999999999,-16.410651078434423
-0.1977000000000001,-16.52382798242363
-0.1987,-16.622857773414182
-0.1997000000000001,-16.70774045140608
-0.2007,-16.849211581392588
-0.2017000000000001,-17.00482982437774
-0.2027,-17.132153841365596
-0.2037000000000001,-17.231183632356142
-0.2047,-17.301919197349395
-0.2057000000000001,-17.429243214337255
-0.2067,-17.570714344323754
-0.2077000000000001,-17.698038361311607
-0.2087,-17.797068152302163
-0.2097000000000001,-17.896097943292716
-0.2107,-18.02342196028057
-0.2117000000000001,-18.15074597726842
-0.2127,-18.27806999425627
-0.2137000000000001,-18.362952672248177
-0.2147,-18.461982463238726
-0.2157000000000001,-18.603453593225233
-0.2167,-18.744924723211735
-0.21770000000000012,-18.843954514202288
-0.2187,-18.92883719219419
-0.21970000000000012,-19.01371987018609
-0.2207,-19.112749661176647
-0.22170000000000012,-19.22592656516585
-0.2227,-19.353250582153702
-0.22370000000000012,-19.423986147146955
-0.2247,-19.508868825138855
-0.22570000000000012,-19.593751503130758
-0.2267,-19.664487068124007
-0.22770000000000012,-19.763516859114564
-0.22870000000000001,-19.876693763103766
-0.22970000000000013,-19.93328221509837
-0.23070000000000002,-20.00401778009162
-0.23170000000000013,-20.07475334508487
-0.23270000000000002,-20.14548891007812
-0.23370000000000013,-20.202077362072725
-0.23470000000000002,-20.244518701068674
-0.23570000000000013,-20.315254266061928
-0.23670000000000002,-20.400136944053827
-0.2376999999999999,-20.44257828304978
-0.23870000000000002,-20.47087250904708
-0.2396999999999999,-20.499166735044383
-0.24070000000000003,-20.555755187038983
-0.24169999999999991,-20.626490752032236
-0.24270000000000003,-20.668932091028186
-0.24369999999999992,-20.69722631702549
-0.24470000000000003,-20.69722631702549
-0.24569999999999992,-20.69722631702549
-0.24670000000000003,-20.75381476902009
-0.24769999999999992,-20.810403221014692
-0.24870000000000003,-20.79625610801604
-0.24969999999999992,-20.810403221014692
-0.25070000000000003,-20.824550334013338
-0.2516999999999999,-20.838697447011988
-0.25270000000000004,-20.838697447011988
-0.2536999999999999,-20.810403221014692
-0.25470000000000004,-20.78210899501739
-0.2556999999999999,-20.75381476902009
-0.25670000000000004,-20.75381476902009
-0.25769999999999993,-20.73966765602144
-0.25870000000000004,-20.711373430024135
-0.25969999999999993,-20.668932091028186
-0.26070000000000004,-20.640637865030882
-0.26169999999999993,-20.626490752032236
-0.26270000000000004,-20.598196526034933
-0.26369999999999993,-20.541608074040333
-0.26470000000000005,-20.47087250904708
-0.26569999999999994,-20.400136944053827
-0.26670000000000005,-20.357695605057877
-0.26769999999999994,-20.315254266061928
-0.26870000000000005,-20.244518701068674
-0.26969999999999994,-20.159636023076775
-0.27070000000000005,-20.117194684080822
-0.27169999999999994,-20.06060623208622
-0.27270000000000005,-20.01816489309027
-0.27369999999999994,-19.919135102099716
-0.27470000000000006,-19.791811085111863
-0.27569999999999995,-19.721075520118614
-0.27670000000000006,-19.65033995512536
-0.27769999999999995,-19.579604390132108
-0.27870000000000006,-19.49472171214021
-0.27969999999999995,-19.395691921149652
-0.28070000000000006,-19.3249563561564
-0.28169999999999995,-19.2683679041618
-0.28270000000000006,-19.197632339168546
-0.28369999999999995,-19.084455435179343
-0.28470000000000006,-18.97127853119014
-0.28569999999999995,-18.88639585319824
-0.28670000000000007,-18.843954514202288
-0.28769999999999996,-18.78736606220769
-0.28870000000000007,-18.688336271217132
-0.28969999999999996,-18.589306480226583
-0.29070000000000007,-18.504423802234676
-0.29169999999999996,-18.461982463238726
-0.29270000000000007,-18.40539401124413
-0.29369999999999996,-18.334658446250877
-0.2947000000000001,-18.249775768258974
-0.29569999999999996,-18.207334429263025
-0.2967000000000001,-18.17904020326572
-0.29769999999999996,-18.13659886426977
-0.2987000000000001,-18.08001041227517
-0.29969999999999997,-18.009274847281915
-0.3007000000000001,-17.980980621284615
-0.30169999999999997,-17.966833508285966
-0.3027000000000001,-17.966833508285966
-0.30369999999999997,-17.924392169290012
-0.3047000000000001,-17.896097943292716
-0.30569999999999997,-17.896097943292716
-0.3067000000000001,-17.910245056291366
-0.3077,-17.938539282288666
-0.3087000000000001,-17.938539282288666
-0.3097,-17.938539282288666
-0.3107000000000001,-17.952686395287316
-0.3117,-17.995127734283265
-0.3127000000000001,-18.03756907327922
-0.3137,-18.09415752527382
-0.3147000000000001,-18.122451751271118
-0.3157,-18.17904020326572
-0.3167000000000001,-18.27806999425627
-0.3177,-18.348805559249524
-0.3187000000000001,-18.433688237241427
-0.3197,-18.49027668923603
-0.3207000000000001,-18.57515936722793
-0.3217,-18.688336271217132
-0.3227000000000001,-18.80151317520634
-0.3237,-18.900542966196888
-0.3247000000000001,-18.999572757187444
-0.3257,-19.126896774175293
-0.3267000000000001,-19.296662130159103
-0.3277,-19.4381332601456
-0.3287000000000001,-19.579604390132108
-0.3297,-19.70692840711996
-0.3307000000000001,-19.848399537106463
-0.3317,-20.046459119087572
-0.3327000000000001,-20.230371588070028
-0.3337,-20.371842718056527
-0.3347000000000001,-20.541608074040333
-0.3357,-20.72552054302279
-0.3367000000000001,-20.966021463999844
-0.3377,-21.1782281589796
-0.3387000000000001,-21.362140627962056
-0.3397,-21.531905983945855
-0.3407000000000001,-21.729965565926964
-0.3417,-21.98461359990267
-0.3427000000000001,-22.225114520879725
-0.3437,-22.437321215859484
-0.3447000000000001,-22.649527910839236
-0.3457,-22.890028831816295
-0.3467000000000001,-23.144676865792
-0.3477,-23.41347201276636
-0.3487000000000001,-23.639825820744765
-0.3497,-23.83788540272587
-0.3507000000000001,-24.064239210704276
-0.3517,-24.33303435767863
-0.3527000000000001,-24.61597661765164
-0.3537,-24.870624651627345
-0.3547000000000001,-25.09697845960575
-0.3557,-25.337479380582806
-0.35670000000000013,-25.620421640555815
-0.3577,-25.90336390052882
-0.35870000000000013,-26.14386482150588
-0.3597,-26.370218629484285
-0.36070000000000013,-26.62486666345999
-0.3617,-26.907808923433
-0.3626999999999999,-27.190751183406004
-0.3637,-27.43125210438306
-0.3646999999999999,-27.671753025360115
-0.3657,-27.940548172334477
-0.3666999999999999,-28.237637545306132
-0.3677,-28.52057980527914
-0.3686999999999999,-28.80352206525215
-0.36970000000000003,-29.058170099227848
-0.3706999999999999,-29.31281813320356
-0.37170000000000003,-29.63820173217252
-0.3726999999999999,-29.96358533114148
-0.37370000000000003,-30.260674704113132
-0.3746999999999999,-30.55776407708479
-0.37570000000000003,-30.8690005630551
-0.3766999999999999,-31.22267838802136
-0.37770000000000004,-31.604650438984915
-0.3786999999999999,-31.972475376949827
-0.37970000000000004,-32.354447427913385
-0.3806999999999999,-32.7505665918756
-0.38170000000000004,-33.231568433829715
-0.38269999999999993,-33.740864501781125
-0.38370000000000004,-34.236013456733886
-0.38469999999999993,-34.731162411686654
-0.38570000000000004,-35.282899818634014
-0.38669999999999993,-34.51895571670689
-0.38570000000000004,-33.09009730384321
-0.38469999999999993,-32.08565228093904
-0.38370000000000004,-31.20853127502271
-0.38269999999999993,-30.416292947098288
-0.38170000000000004,-29.68064307116847
-0.3806999999999999,-28.93084608224
-0.37970000000000004,-28.19519620631018
-0.3786999999999999,-27.459546330380363
-0.37770000000000004,-26.738043567449193
-0.3766999999999999,-26.058982143513976
-0.37570000000000003,-25.39406783257741
-0.3746999999999999,-24.71500640864219
-0.37370000000000003,-24.050092097705623
-0.3726999999999999,-23.41347201276636
-0.37170000000000003,-22.819293266823045
-0.3706999999999999,-22.239261633878378
-0.36970000000000003,-21.61678866193776
-0.3686999999999999,-20.980168576998494
-0.3677,-20.38598983105518
-0.3666999999999999,-19.848399537106463
-0.3657,-19.3249563561564
-0.3646999999999999,-18.78736606220769
-0.3637,-18.207334429263025
-0.3626999999999999,-17.683891248312957
-0.3617,-17.188742293360193
-0.36070000000000013,-16.693593338407435
-0.3597,-16.19844438345467
-0.35870000000000013,-15.675001202504609
-0.3577,-15.208146473549144
-0.35670000000000013,-14.783733083589633
-0.3557,-14.345172580631472
-0.3547000000000001,-13.915100345472501
-0.3537,-13.449660327816902
-0.3527000000000001,-13.009685113558877
-0.3517,-12.623468928695722
-0.3507000000000001,-12.238667455132433
-0.3497,-11.828401178171571
-0.3487000000000001,-11.405402499511926
-0.3477,-11.013527469449311
-0.3467000000000001,-10.662679067082781
-0.3457,-10.314660087315982
-0.3447000000000001,-9.949664571950803
-0.3437,-9.579010211386164
-0.3427000000000001,-9.221088252520309
-0.3417,-8.90419292135054
-0.3407000000000001,-8.601444703179425
-0.3397,-8.26615812511141
-0.3387000000000001,-7.942189237442316
-0.3377,-7.629538040172143
-0.3367000000000001,-7.355084047998325
-0.3357,-7.096191880123024
-0.3347000000000001,-6.799102507151367
-0.3337,-6.499183711579978
-0.3327000000000001,-6.217656162906836
-0.3317,-5.958763995031535
-0.3307000000000001,-5.729580764453398
-0.3297,-5.470688596578097
-0.3287000000000001,-5.201893449603739
-0.3277,-4.954318972127359
-0.3267000000000001,-4.729379875448817
-0.3257,-4.521417314368658
-0.3247000000000001,-4.290819372490656
-0.3237,-4.037586049814815
-0.3227000000000001,-3.8098175305365434
-0.3217,-3.6103432372555737
-0.3207000000000001,-3.439163169971904
-0.3197,-3.2396888766909337
-0.3187000000000001,-3.013335068712528
-0.3177,-2.795469528533313
-0.3167000000000001,-2.615801193450453
-0.3157,-2.4559388165657037
-0.3147000000000001,-2.276270481482844
-0.3137,-2.073966765602144
-0.3127000000000001,-1.8773218949209036
-0.3117,-1.7188742293360195
-0.3107000000000001,-1.5575971411514054
-0.3097,-1.38868061194752
-0.3087000000000001,-1.1981189998556998
-0.3077,-1.022694798672435
-0.3067000000000001,-0.8990490310642308
-0.30569999999999997,-0.7669149956568363
-0.3047000000000001,-0.6091746857218847
-0.30369999999999997,-0.44605847284744604
-0.3027000000000001,-0.28605462483271044
-0.30169999999999997,-0.15660854089505957
-0.3007000000000001,-0.03883382518129525
-0.29969999999999997,0.12292426484527302
-0.2987000000000001,0.2842155001428859
-0.29769999999999996,0.4266769280392951
-0.2967000000000001,0.5336291023090919
-0.29569999999999996,0.6265756347102247
-0.2947000000000001,0.7595584968975382
-0.29369999999999996,0.9114984905030432
-0.29270000000000007,1.0641458397584806
-0.29169999999999996,1.1770398014877106
-0.29070000000000007,1.2633371907794777
-0.28969999999999996,1.3958956395768316
-0.28870000000000007,1.54486473945262
-0.28769999999999996,1.6721887564404734
-0.28670000000000007,1.779706815230216
-0.28569999999999995,1.8603453593225232
-0.28470000000000006,1.967863418112266
-0.28369999999999995,2.1079198367989047
-0.28270000000000006,2.230999719887163
-0.28169999999999995,2.3356883560771755
-0.28070000000000006,2.433303435767863
-0.27969999999999995,2.5351626493581456
-0.27870000000000006,2.6681455115454593
-0.27769999999999995,2.7841518381343926
-0.27670000000000006,2.877522783925485
-0.27569999999999995,2.956746616717927
-0.27470000000000006,3.047288139909289
-0.27369999999999994,3.1831004246963324
-0.27270000000000005,3.3061803077845906
-0.27169999999999994,3.3854041405770325
-0.27070000000000005,3.4674573959692045
-0.26969999999999994,3.573560743459083
-0.26870000000000005,3.698055337847206
-0.26769999999999994,3.8168910870358688
