Apr. 5, 2025   07:22:52
Linear Sweep Voltammetry
File: c:/users/guazh/data/banditlqround7_x0exp994_r5/2025-03-28-exp987\regeneratedgce-2025-04-05t07_18_15-lsvinkoh\regeneratedgce_lsv_50mvs_efin_-1900mv.bin
Data Source:  Experiment
Instrument Model:  CHI760E
Header: LSV ran at 50 mVs with Efin at -1900mV
Note: 

Init E (V) = -0.6
Final E (V) = -1.9
Scan Rate (V/s) = 0.05
Sample Interval (V) = 0.001
Quiet Time (sec) = 2
Sensitivity (A/V) = 1e-4
Comp R (ohm) = 2.0

Results:

Channel 1:
Ep = -1.679V
ip = 9.992e-4A
Ah = 6.028e-4C

Potential/V, Current/A

-0.600, 8.966e-8
-0.601, 2.279e-7
-0.602, 2.621e-7
-0.603, 2.773e-7
-0.604, 2.892e-7
-0.605, 2.990e-7
-0.606, 3.105e-7
-0.607, 3.199e-7
-0.608, 3.272e-7
-0.609, 3.347e-7
-0.610, 3.406e-7
-0.611, 3.485e-7
-0.612, 3.565e-7
-0.613, 3.592e-7
-0.614, 3.661e-7
-0.615, 3.730e-7
-0.616, 3.784e-7
-0.617, 3.857e-7
-0.618, 3.891e-7
-0.619, 3.935e-7
-0.620, 3.971e-7
-0.621, 4.032e-7
-0.622, 4.106e-7
-0.623, 4.131e-7
-0.624, 4.155e-7
-0.625, 4.221e-7
-0.626, 4.269e-7
-0.627, 4.320e-7
-0.628, 4.351e-7
-0.629, 4.390e-7
-0.630, 4.434e-7
-0.631, 4.479e-7
-0.632, 4.526e-7
-0.633, 4.555e-7
-0.634, 4.585e-7
-0.635, 4.621e-7
-0.636, 4.671e-7
-0.637, 4.713e-7
-0.638, 4.751e-7
-0.639, 4.784e-7
-0.640, 4.817e-7
-0.641, 4.875e-7
-0.642, 4.912e-7
-0.643, 4.939e-7
-0.644, 4.964e-7
-0.645, 4.995e-7
-0.646, 5.055e-7
-0.647, 5.099e-7
-0.648, 5.114e-7
-0.649, 5.147e-7
-0.650, 5.168e-7
-0.651, 5.213e-7
-0.652, 5.265e-7
-0.653, 5.269e-7
-0.654, 5.310e-7
-0.655, 5.319e-7
-0.656, 5.375e-7
-0.657, 5.439e-7
-0.658, 5.432e-7
-0.659, 5.469e-7
-0.660, 5.499e-7
-0.661, 5.538e-7
-0.662, 5.600e-7
-0.663, 5.594e-7
-0.664, 5.625e-7
-0.665, 5.664e-7
-0.666, 5.724e-7
-0.667, 5.752e-7
-0.668, 5.753e-7
-0.669, 5.780e-7
-0.670, 5.818e-7
-0.671, 5.861e-7
-0.672, 5.904e-7
-0.673, 5.923e-7
-0.674, 5.927e-7
-0.675, 5.970e-7
-0.676, 6.015e-7
-0.677, 6.035e-7
-0.678, 6.057e-7
-0.679, 6.089e-7
-0.680, 6.122e-7
-0.681, 6.164e-7
-0.682, 6.182e-7
-0.683, 6.206e-7
-0.684, 6.232e-7
-0.685, 6.255e-7
-0.686, 6.312e-7
-0.687, 6.337e-7
-0.688, 6.358e-7
-0.689, 6.391e-7
-0.690, 6.405e-7
-0.691, 6.477e-7
-0.692, 6.491e-7
-0.693, 6.502e-7
-0.694, 6.532e-7
-0.695, 6.560e-7
-0.696, 6.605e-7
-0.697, 6.641e-7
-0.698, 6.646e-7
-0.699, 6.688e-7
-0.700, 6.704e-7
-0.701, 6.732e-7
-0.702, 6.768e-7
-0.703, 6.768e-7
-0.704, 6.797e-7
-0.705, 6.846e-7
-0.706, 6.881e-7
-0.707, 6.911e-7
-0.708, 6.920e-7
-0.709, 6.933e-7
-0.710, 6.970e-7
-0.711, 7.008e-7
-0.712, 7.046e-7
-0.713, 7.070e-7
-0.714, 7.081e-7
-0.715, 7.121e-7
-0.716, 7.161e-7
-0.717, 7.180e-7
-0.718, 7.192e-7
-0.719, 7.217e-7
-0.720, 7.239e-7
-0.721, 7.281e-7
-0.722, 7.305e-7
-0.723, 7.317e-7
-0.724, 7.346e-7
-0.725, 7.372e-7
-0.726, 7.408e-7
-0.727, 7.441e-7
-0.728, 7.444e-7
-0.729, 7.479e-7
-0.730, 7.501e-7
-0.731, 7.534e-7
-0.732, 7.567e-7
-0.733, 7.571e-7
-0.734, 7.604e-7
-0.735, 7.621e-7
-0.736, 7.654e-7
-0.737, 7.702e-7
-0.738, 7.719e-7
-0.739, 7.721e-7
-0.740, 7.751e-7
-0.741, 7.781e-7
-0.742, 7.829e-7
-0.743, 7.837e-7
-0.744, 7.866e-7
-0.745, 7.895e-7
-0.746, 7.921e-7
-0.747, 7.949e-7
-0.748, 7.971e-7
-0.749, 7.983e-7
-0.750, 8.015e-7
-0.751, 8.048e-7
-0.752, 8.067e-7
-0.753, 8.088e-7
-0.754, 8.120e-7
-0.755, 8.152e-7
-0.756, 8.198e-7
-0.757, 8.211e-7
-0.758, 8.232e-7
-0.759, 8.253e-7
-0.760, 8.286e-7
-0.761, 8.338e-7
-0.762, 8.345e-7
-0.763, 8.355e-7
-0.764, 8.379e-7
-0.765, 8.412e-7
-0.766, 8.464e-7
-0.767, 8.470e-7
-0.768, 8.507e-7
-0.769, 8.534e-7
-0.770, 8.550e-7
-0.771, 8.595e-7
-0.772, 8.614e-7
-0.773, 8.612e-7
-0.774, 8.652e-7
-0.775, 8.668e-7
-0.776, 8.712e-7
-0.777, 8.739e-7
-0.778, 8.749e-7
-0.779, 8.776e-7
-0.780, 8.797e-7
-0.781, 8.850e-7
-0.782, 8.870e-7
-0.783, 8.883e-7
-0.784, 8.903e-7
-0.785, 8.932e-7
-0.786, 8.976e-7
-0.787, 8.993e-7
-0.788, 9.019e-7
-0.789, 9.042e-7
-0.790, 9.089e-7
-0.791, 9.117e-7
-0.792, 9.139e-7
-0.793, 9.164e-7
-0.794, 9.180e-7
-0.795, 9.213e-7
-0.796, 9.263e-7
-0.797, 9.277e-7
-0.798, 9.295e-7
-0.799, 9.309e-7
-0.800, 9.348e-7
-0.801, 9.396e-7
-0.802, 9.409e-7
-0.803, 9.426e-7
-0.804, 9.455e-7
-0.805, 9.469e-7
-0.806, 9.527e-7
-0.807, 9.552e-7
-0.808, 9.567e-7
-0.809, 9.596e-7
-0.810, 9.609e-7
-0.811, 9.661e-7
-0.812, 9.679e-7
-0.813, 9.684e-7
-0.814, 9.724e-7
-0.815, 9.754e-7
-0.816, 9.789e-7
-0.817, 9.808e-7
-0.818, 9.826e-7
-0.819, 9.895e-7
-0.820, 9.930e-7
-0.821, 9.940e-7
-0.822, 9.967e-7
-0.823, 9.981e-7
-0.824, 1.000e-6
-0.825, 1.004e-6
-0.826, 1.008e-6
-0.827, 1.010e-6
-0.828, 1.012e-6
-0.829, 1.013e-6
-0.830, 1.016e-6
-0.831, 1.020e-6
-0.832, 1.022e-6
-0.833, 1.025e-6
-0.834, 1.025e-6
-0.835, 1.030e-6
-0.836, 1.034e-6
-0.837, 1.038e-6
-0.838, 1.039e-6
-0.839, 1.043e-6
-0.840, 1.045e-6
-0.841, 1.049e-6
-0.842, 1.050e-6
-0.843, 1.053e-6
-0.844, 1.055e-6
-0.845, 1.060e-6
-0.846, 1.064e-6
-0.847, 1.065e-6
-0.848, 1.068e-6
-0.849, 1.072e-6
-0.850, 1.073e-6
-0.851, 1.078e-6
-0.852, 1.081e-6
-0.853, 1.081e-6
-0.854, 1.083e-6
-0.855, 1.087e-6
-0.856, 1.092e-6
-0.857, 1.094e-6
-0.858, 1.096e-6
-0.859, 1.098e-6
-0.860, 1.102e-6
-0.861, 1.106e-6
-0.862, 1.108e-6
-0.863, 1.110e-6
-0.864, 1.112e-6
-0.865, 1.116e-6
-0.866, 1.119e-6
-0.867, 1.121e-6
-0.868, 1.123e-6
-0.869, 1.125e-6
-0.870, 1.129e-6
-0.871, 1.136e-6
-0.872, 1.137e-6
-0.873, 1.138e-6
-0.874, 1.140e-6
-0.875, 1.145e-6
-0.876, 1.150e-6
-0.877, 1.150e-6
-0.878, 1.153e-6
-0.879, 1.154e-6
-0.880, 1.159e-6
-0.881, 1.163e-6
-0.882, 1.164e-6
-0.883, 1.167e-6
-0.884, 1.171e-6
-0.885, 1.176e-6
-0.886, 1.179e-6
-0.887, 1.180e-6
-0.888, 1.181e-6
-0.889, 1.184e-6
-0.890, 1.189e-6
-0.891, 1.193e-6
-0.892, 1.193e-6
-0.893, 1.196e-6
-0.894, 1.200e-6
-0.895, 1.204e-6
-0.896, 1.210e-6
-0.897, 1.211e-6
-0.898, 1.213e-6
-0.899, 1.215e-6
-0.900, 1.220e-6
-0.901, 1.225e-6
-0.902, 1.227e-6
-0.903, 1.228e-6
-0.904, 1.231e-6
-0.905, 1.236e-6
-0.906, 1.239e-6
-0.907, 1.242e-6
-0.908, 1.243e-6
-0.909, 1.246e-6
-0.910, 1.252e-6
-0.911, 1.255e-6
-0.912, 1.257e-6
-0.913, 1.260e-6
-0.914, 1.263e-6
-0.915, 1.267e-6
-0.916, 1.272e-6
-0.917, 1.273e-6
-0.918, 1.276e-6
-0.919, 1.278e-6
-0.920, 1.282e-6
-0.921, 1.288e-6
-0.922, 1.290e-6
-0.923, 1.292e-6
-0.924, 1.294e-6
-0.925, 1.300e-6
-0.926, 1.304e-6
-0.927, 1.305e-6
-0.928, 1.308e-6
-0.929, 1.312e-6
-0.930, 1.315e-6
-0.931, 1.319e-6
-0.932, 1.322e-6
-0.933, 1.325e-6
-0.934, 1.328e-6
-0.935, 1.333e-6
-0.936, 1.338e-6
-0.937, 1.339e-6
-0.938, 1.342e-6
-0.939, 1.345e-6
-0.940, 1.350e-6
-0.941, 1.354e-6
-0.942, 1.357e-6
-0.943, 1.360e-6
-0.944, 1.363e-6
-0.945, 1.368e-6
-0.946, 1.371e-6
-0.947, 1.375e-6
-0.948, 1.379e-6
-0.949, 1.381e-6
-0.950, 1.387e-6
-0.951, 1.391e-6
-0.952, 1.392e-6
-0.953, 1.396e-6
-0.954, 1.398e-6
-0.955, 1.403e-6
-0.956, 1.407e-6
-0.957, 1.410e-6
-0.958, 1.414e-6
-0.959, 1.416e-6
-0.960, 1.421e-6
-0.961, 1.426e-6
-0.962, 1.428e-6
-0.963, 1.432e-6
-0.964, 1.435e-6
-0.965, 1.439e-6
-0.966, 1.444e-6
-0.967, 1.446e-6
-0.968, 1.450e-6
-0.969, 1.454e-6
-0.970, 1.458e-6
-0.971, 1.463e-6
-0.972, 1.466e-6
-0.973, 1.471e-6
-0.974, 1.474e-6
-0.975, 1.479e-6
-0.976, 1.482e-6
-0.977, 1.486e-6
-0.978, 1.489e-6
-0.979, 1.493e-6
-0.980, 1.498e-6
-0.981, 1.502e-6
-0.982, 1.505e-6
-0.983, 1.507e-6
-0.984, 1.512e-6
-0.985, 1.518e-6
-0.986, 1.522e-6
-0.987, 1.524e-6
-0.988, 1.529e-6
-0.989, 1.532e-6
-0.990, 1.539e-6
-0.991, 1.543e-6
-0.992, 1.546e-6
-0.993, 1.550e-6
-0.994, 1.552e-6
-0.995, 1.559e-6
-0.996, 1.564e-6
-0.997, 1.566e-6
-0.998, 1.573e-6
-0.999, 1.575e-6
-1.000, 1.582e-6
-1.001, 1.586e-6
-1.002, 1.588e-6
-1.003, 1.593e-6
-1.004, 1.597e-6
-1.005, 1.602e-6
-1.006, 1.608e-6
-1.007, 1.611e-6
-1.008, 1.615e-6
-1.009, 1.620e-6
-1.010, 1.625e-6
-1.011, 1.630e-6
-1.012, 1.634e-6
-1.013, 1.636e-6
-1.014, 1.641e-6
-1.015, 1.647e-6
-1.016, 1.651e-6
-1.017, 1.655e-6
-1.018, 1.659e-6
-1.019, 1.665e-6
-1.020, 1.670e-6
-1.021, 1.675e-6
-1.022, 1.679e-6
-1.023, 1.682e-6
-1.024, 1.689e-6
-1.025, 1.695e-6
-1.026, 1.698e-6
-1.027, 1.702e-6
-1.028, 1.708e-6
-1.029, 1.711e-6
-1.030, 1.718e-6
-1.031, 1.721e-6
-1.032, 1.725e-6
-1.033, 1.730e-6
-1.034, 1.734e-6
-1.035, 1.740e-6
-1.036, 1.745e-6
-1.037, 1.748e-6
-1.038, 1.754e-6
-1.039, 1.757e-6
-1.040, 1.763e-6
-1.041, 1.768e-6
-1.042, 1.771e-6
-1.043, 1.775e-6
-1.044, 1.780e-6
-1.045, 1.786e-6
-1.046, 1.791e-6
-1.047, 1.793e-6
-1.048, 1.798e-6
-1.049, 1.804e-6
-1.050, 1.809e-6
-1.051, 1.815e-6
-1.052, 1.817e-6
-1.053, 1.821e-6
-1.054, 1.826e-6
-1.055, 1.831e-6
-1.056, 1.837e-6
-1.057, 1.840e-6
-1.058, 1.845e-6
-1.059, 1.849e-6
-1.060, 1.855e-6
-1.061, 1.859e-6
-1.062, 1.864e-6
-1.063, 1.868e-6
-1.064, 1.873e-6
-1.065, 1.880e-6
-1.066, 1.883e-6
-1.067, 1.887e-6
-1.068, 1.892e-6
-1.069, 1.896e-6
-1.070, 1.903e-6
-1.071, 1.907e-6
-1.072, 1.910e-6
-1.073, 1.913e-6
-1.074, 1.917e-6
-1.075, 1.927e-6
-1.076, 1.930e-6
-1.077, 1.933e-6
-1.078, 1.936e-6
-1.079, 1.941e-6
-1.080, 1.946e-6
-1.081, 1.952e-6
-1.082, 1.954e-6
-1.083, 1.958e-6
-1.084, 1.963e-6
-1.085, 1.969e-6
-1.086, 1.974e-6
-1.087, 1.975e-6
-1.088, 1.980e-6
-1.089, 1.986e-6
-1.090, 1.990e-6
-1.091, 1.995e-6
-1.092, 1.999e-6
-1.093, 2.002e-6
-1.094, 2.008e-6
-1.095, 2.013e-6
-1.096, 2.018e-6
-1.097, 2.022e-6
-1.098, 2.025e-6
-1.099, 2.030e-6
-1.100, 2.036e-6
-1.101, 2.040e-6
-1.102, 2.043e-6
-1.103, 2.046e-6
-1.104, 2.052e-6
-1.105, 2.059e-6
-1.106, 2.061e-6
-1.107, 2.064e-6
-1.108, 2.070e-6
-1.109, 2.075e-6
-1.110, 2.081e-6
-1.111, 2.084e-6
-1.112, 2.087e-6
-1.113, 2.093e-6
-1.114, 2.097e-6
-1.115, 2.103e-6
-1.116, 2.106e-6
-1.117, 2.109e-6
-1.118, 2.113e-6
-1.119, 2.116e-6
-1.120, 2.123e-6
-1.121, 2.127e-6
-1.122, 2.129e-6
-1.123, 2.134e-6
-1.124, 2.140e-6
-1.125, 2.145e-6
-1.126, 2.149e-6
-1.127, 2.151e-6
-1.128, 2.153e-6
-1.129, 2.159e-6
-1.130, 2.164e-6
-1.131, 2.168e-6
-1.132, 2.172e-6
-1.133, 2.174e-6
-1.134, 2.179e-6
-1.135, 2.185e-6
-1.136, 2.187e-6
-1.137, 2.191e-6
-1.138, 2.193e-6
-1.139, 2.199e-6
-1.140, 2.204e-6
-1.141, 2.206e-6
-1.142, 2.211e-6
-1.143, 2.214e-6
-1.144, 2.219e-6
-1.145, 2.225e-6
-1.146, 2.227e-6
-1.147, 2.229e-6
-1.148, 2.234e-6
-1.149, 2.236e-6
-1.150, 2.243e-6
-1.151, 2.245e-6
-1.152, 2.250e-6
-1.153, 2.254e-6
-1.154, 2.257e-6
-1.155, 2.263e-6
-1.156, 2.265e-6
-1.157, 2.268e-6
-1.158, 2.273e-6
-1.159, 2.277e-6
-1.160, 2.282e-6
-1.161, 2.287e-6
-1.162, 2.287e-6
-1.163, 2.292e-6
-1.164, 2.296e-6
-1.165, 2.301e-6
-1.166, 2.304e-6
-1.167, 2.307e-6
-1.168, 2.310e-6
-1.169, 2.314e-6
-1.170, 2.319e-6
-1.171, 2.323e-6
-1.172, 2.325e-6
-1.173, 2.328e-6
-1.174, 2.333e-6
-1.175, 2.338e-6
-1.176, 2.341e-6
-1.177, 2.346e-6
-1.178, 2.351e-6
-1.179, 2.354e-6
-1.180, 2.359e-6
-1.181, 2.360e-6
-1.182, 2.364e-6
-1.183, 2.366e-6
-1.184, 2.371e-6
-1.185, 2.377e-6
-1.186, 2.378e-6
-1.187, 2.382e-6
-1.188, 2.385e-6
-1.189, 2.389e-6
-1.190, 2.395e-6
-1.191, 2.398e-6
-1.192, 2.402e-6
-1.193, 2.406e-6
-1.194, 2.410e-6
-1.195, 2.416e-6
-1.196, 2.418e-6
-1.197, 2.420e-6
-1.198, 2.423e-6
-1.199, 2.427e-6
-1.200, 2.432e-6
-1.201, 2.435e-6
-1.202, 2.435e-6
-1.203, 2.439e-6
-1.204, 2.444e-6
-1.205, 2.447e-6
-1.206, 2.450e-6
-1.207, 2.452e-6
-1.208, 2.454e-6
-1.209, 2.460e-6
-1.210, 2.464e-6
-1.211, 2.466e-6
-1.212, 2.468e-6
-1.213, 2.470e-6
-1.214, 2.476e-6
-1.215, 2.479e-6
-1.216, 2.481e-6
-1.217, 2.485e-6
-1.218, 2.486e-6
-1.219, 2.490e-6
-1.220, 2.496e-6
-1.221, 2.496e-6
-1.222, 2.499e-6
-1.223, 2.502e-6
-1.224, 2.507e-6
-1.225, 2.511e-6
-1.226, 2.513e-6
-1.227, 2.515e-6
-1.228, 2.518e-6
-1.229, 2.530e-6
-1.230, 2.530e-6
-1.231, 2.529e-6
-1.232, 2.533e-6
-1.233, 2.536e-6
-1.234, 2.538e-6
-1.235, 2.544e-6
-1.236, 2.547e-6
-1.237, 2.547e-6
-1.238, 2.550e-6
-1.239, 2.555e-6
-1.240, 2.558e-6
-1.241, 2.559e-6
-1.242, 2.562e-6
-1.243, 2.564e-6
-1.244, 2.568e-6
-1.245, 2.572e-6
-1.246, 2.574e-6
-1.247, 2.575e-6
-1.248, 2.578e-6
-1.249, 2.583e-6
-1.250, 2.586e-6
-1.251, 2.587e-6
-1.252, 2.588e-6
-1.253, 2.591e-6
-1.254, 2.596e-6
-1.255, 2.601e-6
-1.256, 2.601e-6
-1.257, 2.606e-6
-1.258, 2.605e-6
-1.259, 2.611e-6
-1.260, 2.615e-6
-1.261, 2.616e-6
-1.262, 2.620e-6
-1.263, 2.621e-6
-1.264, 2.625e-6
-1.265, 2.629e-6
-1.266, 2.629e-6
-1.267, 2.633e-6
-1.268, 2.636e-6
-1.269, 2.640e-6
-1.270, 2.645e-6
-1.271, 2.645e-6
-1.272, 2.647e-6
-1.273, 2.653e-6
-1.274, 2.657e-6
-1.275, 2.660e-6
-1.276, 2.662e-6
-1.277, 2.664e-6
-1.278, 2.669e-6
-1.279, 2.673e-6
-1.280, 2.681e-6
-1.281, 2.681e-6
-1.282, 2.683e-6
-1.283, 2.686e-6
-1.284, 2.693e-6
-1.285, 2.694e-6
-1.286, 2.698e-6
-1.287, 2.700e-6
-1.288, 2.704e-6
-1.289, 2.710e-6
-1.290, 2.713e-6
-1.291, 2.715e-6
-1.292, 2.718e-6
-1.293, 2.723e-6
-1.294, 2.730e-6
-1.295, 2.734e-6
-1.296, 2.737e-6
-1.297, 2.741e-6
-1.298, 2.744e-6
-1.299, 2.750e-6
-1.300, 2.755e-6
-1.301, 2.757e-6
-1.302, 2.762e-6
-1.303, 2.767e-6
-1.304, 2.774e-6
-1.305, 2.780e-6
-1.306, 2.783e-6
-1.307, 2.788e-6
-1.308, 2.792e-6
-1.309, 2.798e-6
-1.310, 2.805e-6
-1.311, 2.806e-6
-1.312, 2.812e-6
-1.313, 2.819e-6
-1.314, 2.825e-6
-1.315, 2.831e-6
-1.316, 2.834e-6
-1.317, 2.839e-6
-1.318, 2.846e-6
-1.319, 2.852e-6
-1.320, 2.859e-6
-1.321, 2.864e-6
-1.322, 2.866e-6
-1.323, 2.873e-6
-1.324, 2.882e-6
-1.325, 2.887e-6
-1.326, 2.892e-6
-1.327, 2.897e-6
-1.328, 2.904e-6
-1.329, 2.912e-6
-1.330, 2.916e-6
-1.331, 2.921e-6
-1.332, 2.927e-6
-1.333, 2.935e-6
-1.334, 2.945e-6
-1.335, 2.950e-6
-1.336, 2.955e-6
-1.337, 2.961e-6
-1.338, 2.966e-6
-1.339, 2.973e-6
-1.340, 2.980e-6
-1.341, 2.985e-6
-1.342, 2.992e-6
-1.343, 2.997e-6
-1.344, 3.006e-6
-1.345, 3.013e-6
-1.346, 3.017e-6
-1.347, 3.025e-6
-1.348, 3.032e-6
-1.349, 3.039e-6
-1.350, 3.049e-6
-1.351, 3.054e-6
-1.352, 3.060e-6
-1.353, 3.068e-6
-1.354, 3.077e-6
-1.355, 3.085e-6
-1.356, 3.093e-6
-1.357, 3.099e-6
-1.358, 3.108e-6
-1.359, 3.116e-6
-1.360, 3.124e-6
-1.361, 3.131e-6
-1.362, 3.137e-6
-1.363, 3.147e-6
-1.364, 3.157e-6
-1.365, 3.164e-6
-1.366, 3.171e-6
-1.367, 3.179e-6
-1.368, 3.189e-6
-1.369, 3.199e-6
-1.370, 3.206e-6
-1.371, 3.214e-6
-1.372, 3.221e-6
-1.373, 3.230e-6
-1.374, 3.242e-6
-1.375, 3.249e-6
-1.376, 3.257e-6
-1.377, 3.267e-6
-1.378, 3.274e-6
-1.379, 3.286e-6
-1.380, 3.295e-6
-1.381, 3.304e-6
-1.382, 3.316e-6
-1.383, 3.328e-6
-1.384, 3.337e-6
-1.385, 3.348e-6
-1.386, 3.356e-6
-1.387, 3.366e-6
-1.388, 3.378e-6
-1.389, 3.391e-6
-1.390, 3.403e-6
-1.391, 3.413e-6
-1.392, 3.423e-6
-1.393, 3.438e-6
-1.394, 3.451e-6
-1.395, 3.461e-6
-1.396, 3.471e-6
-1.397, 3.481e-6
-1.398, 3.497e-6
-1.399, 3.511e-6
-1.400, 3.523e-6
-1.401, 3.537e-6
-1.402, 3.546e-6
-1.403, 3.564e-6
-1.404, 3.577e-6
-1.405, 3.590e-6
-1.406, 3.603e-6
-1.407, 3.618e-6
-1.408, 3.635e-6
-1.409, 3.652e-6
-1.410, 3.666e-6
-1.411, 3.681e-6
-1.412, 3.697e-6
-1.413, 3.714e-6
-1.414, 3.733e-6
-1.415, 3.748e-6
-1.416, 3.763e-6
-1.417, 3.782e-6
-1.418, 3.800e-6
-1.419, 3.821e-6
-1.420, 3.838e-6
-1.421, 3.855e-6
-1.422, 3.874e-6
-1.423, 3.894e-6
-1.424, 3.914e-6
-1.425, 3.933e-6
-1.426, 3.950e-6
-1.427, 3.971e-6
-1.428, 3.995e-6
-1.429, 4.018e-6
-1.430, 4.040e-6
-1.431, 4.059e-6
-1.432, 4.079e-6
-1.433, 4.107e-6
-1.434, 4.131e-6
-1.435, 4.154e-6
-1.436, 4.177e-6
-1.437, 4.200e-6
-1.438, 4.226e-6
-1.439, 4.251e-6
-1.440, 4.278e-6
-1.441, 4.304e-6
-1.442, 4.328e-6
-1.443, 4.357e-6
-1.444, 4.388e-6
-1.445, 4.416e-6
-1.446, 4.446e-6
-1.447, 4.474e-6
-1.448, 4.505e-6
-1.449, 4.540e-6
-1.450, 4.568e-6
-1.451, 4.598e-6
-1.452, 4.630e-6
-1.453, 4.666e-6
-1.454, 4.704e-6
-1.455, 4.735e-6
-1.456, 4.770e-6
-1.457, 4.804e-6
-1.458, 4.843e-6
-1.459, 4.880e-6
-1.460, 4.915e-6
-1.461, 4.950e-6
-1.462, 4.991e-6
-1.463, 5.032e-6
-1.464, 5.074e-6
-1.465, 5.114e-6
-1.466, 5.152e-6
-1.467, 5.197e-6
-1.468, 5.242e-6
-1.469, 5.291e-6
-1.470, 5.337e-6
-1.471, 5.382e-6
-1.472, 5.427e-6
-1.473, 5.477e-6
-1.474, 5.527e-6
-1.475, 5.576e-6
-1.476, 5.625e-6
-1.477, 5.674e-6
-1.478, 5.729e-6
-1.479, 5.784e-6
-1.480, 5.839e-6
-1.481, 5.892e-6
-1.482, 5.943e-6
-1.483, 6.004e-6
-1.484, 6.063e-6
-1.485, 6.127e-6
-1.486, 6.185e-6
-1.487, 6.240e-6
-1.488, 6.306e-6
-1.489, 6.373e-6
-1.490, 6.436e-6
-1.491, 6.503e-6
-1.492, 6.570e-6
-1.493, 6.642e-6
-1.494, 6.716e-6
-1.495, 6.783e-6
-1.496, 6.857e-6
-1.497, 6.932e-6
-1.498, 7.008e-6
-1.499, 7.091e-6
-1.500, 7.170e-6
-1.501, 7.244e-6
-1.502, 7.321e-6
-1.503, 7.406e-6
-1.504, 7.491e-6
-1.505, 7.579e-6
-1.506, 7.670e-6
-1.507, 7.760e-6
-1.508, 7.856e-6
-1.509, 7.954e-6
-1.510, 8.045e-6
-1.511, 8.142e-6
-1.512, 8.248e-6
-1.513, 8.358e-6
-1.514, 8.461e-6
-1.515, 8.567e-6
-1.516, 8.671e-6
-1.517, 8.783e-6
-1.518, 8.901e-6
-1.519, 9.018e-6
-1.520, 9.142e-6
-1.521, 9.266e-6
-1.522, 9.386e-6
-1.523, 9.517e-6
-1.524, 9.647e-6
-1.525, 9.777e-6
-1.526, 9.917e-6
-1.527, 1.006e-5
-1.528, 1.020e-5
-1.529, 1.035e-5
-1.530, 1.050e-5
-1.531, 1.065e-5
-1.532, 1.081e-5
-1.533, 1.098e-5
-1.534, 1.115e-5
-1.535, 1.132e-5
-1.536, 1.150e-5
-1.537, 1.168e-5
-1.538, 1.186e-5
-1.539, 1.205e-5
-1.540, 1.223e-5
-1.541, 1.243e-5
-1.542, 1.264e-5
-1.543, 1.285e-5
-1.544, 1.308e-5
-1.545, 1.331e-5
-1.546, 1.354e-5
-1.547, 1.379e-5
-1.548, 1.404e-5
-1.549, 1.429e-5
-1.550, 1.455e-5
-1.551, 1.481e-5
-1.552, 1.509e-5
-1.553, 1.539e-5
-1.554, 1.570e-5
-1.555, 1.601e-5
-1.556, 1.633e-5
-1.557, 1.666e-5
-1.558, 1.701e-5
-1.559, 1.738e-5
-1.560, 1.775e-5
-1.561, 1.813e-5
-1.562, 1.852e-5
-1.563, 1.894e-5
-1.564, 1.937e-5
-1.565, 1.982e-5
-1.566, 2.028e-5
-1.567, 2.075e-5
-1.568, 2.126e-5
-1.569, 2.178e-5
-1.570, 2.233e-5
-1.571, 2.290e-5
-1.572, 2.349e-5
-1.573, 2.411e-5
-1.574, 2.476e-5
-1.575, 2.543e-5
-1.576, 2.612e-5
-1.577, 2.685e-5
-1.578, 2.760e-5
-1.579, 2.838e-5
-1.580, 2.921e-5
-1.581, 3.009e-5
-1.582, 3.100e-5
-1.583, 3.196e-5
-1.584, 3.297e-5
-1.585, 3.400e-5
-1.586, 3.510e-5
-1.587, 3.627e-5
-1.588, 3.749e-5
-1.589, 3.873e-5
-1.590, 4.004e-5
-1.591, 4.141e-5
-1.592, 4.286e-5
-1.593, 4.434e-5
-1.594, 4.591e-5
-1.595, 4.758e-5
-1.596, 4.931e-5
-1.597, 5.112e-5
-1.598, 5.302e-5
-1.599, 5.501e-5
-1.600, 5.712e-5
-1.601, 5.931e-5
-1.602, 6.159e-5
-1.603, 6.402e-5
-1.604, 6.654e-5
-1.605, 6.920e-5
-1.606, 7.198e-5
-1.607, 7.488e-5
-1.608, 7.794e-5
-1.609, 8.113e-5
-1.610, 8.446e-5
-1.611, 8.797e-5
-1.612, 9.161e-5
-1.613, 9.543e-5
-1.614, 9.945e-5
-1.615, 1.036e-4
-1.616, 1.079e-4
-1.617, 1.125e-4
-1.618, 1.173e-4
-1.619, 1.223e-4
-1.620, 1.275e-4
-1.621, 1.329e-4
-1.622, 1.385e-4
-1.623, 1.443e-4
-1.624, 1.505e-4
-1.625, 1.569e-4
-1.626, 1.635e-4
-1.627, 1.704e-4
-1.628, 1.775e-4
-1.629, 1.850e-4
-1.630, 1.926e-4
-1.631, 2.006e-4
-1.632, 2.089e-4
-1.633, 2.176e-4
-1.634, 2.265e-4
-1.635, 2.358e-4
-1.636, 2.454e-4
-1.637, 2.553e-4
-1.638, 2.656e-4
-1.639, 2.763e-4
-1.640, 2.873e-4
-1.641, 2.987e-4
-1.642, 3.103e-4
-1.643, 3.224e-4
-1.644, 3.348e-4
-1.645, 3.477e-4
-1.646, 3.609e-4
-1.647, 3.744e-4
-1.648, 3.884e-4
-1.649, 4.028e-4
-1.650, 4.175e-4
-1.651, 4.327e-4
-1.652, 4.484e-4
-1.653, 4.645e-4
-1.654, 4.809e-4
-1.655, 4.976e-4
-1.656, 5.147e-4
-1.657, 5.323e-4
-1.658, 5.503e-4
-1.659, 5.689e-4
-1.660, 5.877e-4
-1.661, 6.070e-4
-1.662, 6.267e-4
-1.663, 6.469e-4
-1.664, 6.675e-4
-1.665, 6.885e-4
-1.666, 7.100e-4
-1.667, 7.319e-4
-1.668, 7.542e-4
-1.669, 7.769e-4
-1.670, 8.001e-4
-1.671, 8.237e-4
-1.672, 8.477e-4
-1.673, 8.721e-4
-1.674, 8.969e-4
-1.675, 9.221e-4
-1.676, 9.478e-4
-1.677, 9.740e-4
-1.678, 1.001e-3
-1.679, 1.011e-3
-1.680, 1.011e-3
-1.681, 1.011e-3
-1.682, 1.011e-3
-1.683, 1.011e-3
-1.684, 1.011e-3
-1.685, 1.011e-3
-1.686, 1.011e-3
-1.687, 1.011e-3
-1.688, 1.011e-3
-1.689, 1.011e-3
-1.690, 1.011e-3
-1.691, 1.011e-3
-1.692, 1.011e-3
-1.693, 1.011e-3
-1.694, 1.011e-3
-1.695, 1.011e-3
-1.696, 1.011e-3
-1.697, 1.011e-3
-1.698, 1.011e-3
-1.699, 1.011e-3
-1.700, 1.011e-3
-1.701, 1.011e-3
-1.702, 1.011e-3
-1.703, 1.011e-3
-1.704, 1.011e-3
-1.705, 1.011e-3
-1.706, 1.011e-3
-1.707, 1.011e-3
-1.708, 1.011e-3
-1.709, 1.011e-3
-1.710, 1.011e-3
-1.711, 1.011e-3
-1.712, 1.011e-3
-1.713, 1.011e-3
-1.714, 1.011e-3
-1.715, 1.011e-3
-1.716, 1.011e-3
-1.717, 1.011e-3
-1.718, 1.011e-3
-1.719, 1.011e-3
-1.720, 1.011e-3
-1.721, 1.011e-3
-1.722, 1.011e-3
-1.723, 1.011e-3
-1.724, 1.011e-3
-1.725, 1.011e-3
-1.726, 1.011e-3
-1.727, 1.011e-3
-1.728, 1.011e-3
-1.729, 1.011e-3
-1.730, 1.011e-3
-1.731, 1.011e-3
-1.732, 1.011e-3
-1.733, 1.011e-3
-1.734, 1.011e-3
-1.735, 1.011e-3
-1.736, 1.011e-3
-1.737, 1.011e-3
-1.738, 1.011e-3
-1.739, 1.011e-3
-1.740, 1.011e-3
-1.741, 1.011e-3
-1.742, 1.011e-3
-1.743, 1.011e-3
-1.744, 1.011e-3
-1.745, 1.011e-3
-1.746, 1.011e-3
-1.747, 1.011e-3
-1.748, 1.011e-3
-1.749, 1.011e-3
-1.750, 1.011e-3
-1.751, 1.011e-3
-1.752, 1.011e-3
-1.753, 1.011e-3
-1.754, 1.011e-3
-1.755, 1.011e-3
-1.756, 1.011e-3
-1.757, 1.011e-3
-1.758, 1.011e-3
-1.759, 1.011e-3
-1.760, 1.011e-3
-1.761, 1.011e-3
-1.762, 1.011e-3
-1.763, 1.011e-3
-1.764, 1.011e-3
-1.765, 1.011e-3
-1.766, 1.011e-3
-1.767, 1.011e-3
-1.768, 1.011e-3
-1.769, 1.011e-3
-1.770, 1.011e-3
-1.771, 1.011e-3
-1.772, 1.011e-3
-1.773, 1.011e-3
-1.774, 1.011e-3
-1.775, 1.011e-3
-1.776, 1.011e-3
-1.777, 1.011e-3
-1.778, 1.011e-3
-1.779, 1.011e-3
-1.780, 1.011e-3
-1.781, 1.011e-3
-1.782, 1.011e-3
-1.783, 1.011e-3
-1.784, 1.011e-3
-1.785, 1.011e-3
-1.786, 1.011e-3
-1.787, 1.011e-3
-1.788, 1.011e-3
-1.789, 1.011e-3
-1.790, 1.011e-3
-1.791, 1.011e-3
-1.792, 1.011e-3
-1.793, 1.011e-3
-1.794, 1.011e-3
-1.795, 1.011e-3
-1.796, 1.011e-3
-1.797, 1.011e-3
-1.798, 1.011e-3
-1.799, 1.011e-3
-1.800, 1.011e-3
-1.801, 1.011e-3
-1.802, 1.011e-3
-1.803, 1.011e-3
-1.804, 1.011e-3
-1.805, 1.011e-3
-1.806, 1.011e-3
-1.807, 1.011e-3
-1.808, 1.011e-3
-1.809, 1.011e-3
-1.810, 1.011e-3
-1.811, 1.011e-3
-1.812, 1.011e-3
-1.813, 1.011e-3
-1.814, 1.011e-3
-1.815, 1.011e-3
-1.816, 1.011e-3
-1.817, 1.011e-3
-1.818, 1.011e-3
-1.819, 1.011e-3
-1.820, 1.011e-3
-1.821, 1.011e-3
-1.822, 1.011e-3
-1.823, 1.011e-3
-1.824, 1.011e-3
-1.825, 1.011e-3
-1.826, 1.011e-3
-1.827, 1.011e-3
-1.828, 1.011e-3
-1.829, 1.011e-3
-1.830, 1.011e-3
-1.831, 1.011e-3
-1.832, 1.011e-3
-1.833, 1.011e-3
-1.834, 1.011e-3
-1.835, 1.011e-3
-1.836, 1.011e-3
-1.837, 1.011e-3
-1.838, 1.011e-3
-1.839, 1.011e-3
-1.840, 1.011e-3
-1.841, 1.011e-3
-1.842, 1.011e-3
-1.843, 1.011e-3
-1.844, 1.011e-3
-1.845, 1.011e-3
-1.846, 1.011e-3
-1.847, 1.011e-3
-1.848, 1.011e-3
-1.849, 1.011e-3
-1.850, 1.011e-3
-1.851, 1.011e-3
-1.852, 1.011e-3
-1.853, 1.011e-3
-1.854, 1.011e-3
-1.855, 1.011e-3
-1.856, 1.011e-3
-1.857, 1.011e-3
-1.858, 1.011e-3
-1.859, 1.011e-3
-1.860, 1.011e-3
-1.861, 1.011e-3
-1.862, 1.011e-3
-1.863, 1.011e-3
-1.864, 1.011e-3
-1.865, 1.011e-3
-1.866, 1.011e-3
-1.867, 1.011e-3
-1.868, 1.011e-3
-1.869, 1.011e-3
-1.870, 1.011e-3
-1.871, 1.011e-3
-1.872, 1.011e-3
-1.873, 1.011e-3
-1.874, 1.011e-3
-1.875, 1.011e-3
-1.876, 1.011e-3
-1.877, 1.011e-3
-1.878, 1.011e-3
-1.879, 1.011e-3
-1.880, 1.011e-3
-1.881, 1.011e-3
-1.882, 1.011e-3
-1.883, 1.011e-3
-1.884, 1.011e-3
-1.885, 1.011e-3
-1.886, 1.011e-3
-1.887, 1.011e-3
-1.888, 1.011e-3
-1.889, 1.011e-3
-1.890, 1.011e-3
-1.891, 1.011e-3
-1.892, 1.011e-3
-1.893, 1.011e-3
-1.894, 1.011e-3
-1.895, 1.011e-3
-1.896, 1.011e-3
-1.897, 1.011e-3
-1.898, 1.011e-3
-1.899, 1.011e-3
