Potential V vs RHE, Current mA cm-2
0.013299999999999867,-0.26384365742482935
0.012299999999999978,-1.0054353208140816
0.011299999999999866,-1.5717442541500557
0.010299999999999976,-1.92117794521672
0.009299999999999864,-2.226755585987568
0.008299999999999974,-2.4884771764625997
0.007299999999999862,-2.706342716641815
0.006299999999999972,-2.924208256821031
0.00529999999999986,-3.0996324580042955
0.0042999999999999705,-3.2297858975918787
0.0032999999999998586,-3.447651437771094
0.0022999999999999687,-3.579219588658543
0.0012999999999998568,-3.7093730282461257
0.00029999999999996696,-3.840941179133574
-0.000700000000000145,-3.971094618721158
-0.0017000000000000348,-4.0588067193127895
-0.0027000000000001467,-4.102662769608606
-0.0037000000000000366,-4.23281620919619
-0.0047000000000001485,-4.276672259492005
-0.005700000000000038,-4.276672259492005
-0.00670000000000015,-4.364384360083638
-0.00770000000000004,-4.406825699079589
-0.008700000000000152,-4.406825699079589
-0.009700000000000042,-4.450681749375406
-0.010700000000000154,-4.494537799671222
-0.011700000000000044,-4.582249900262854
-0.012700000000000156,-4.626105950558669
-0.013700000000000045,-4.668547289554621
-0.014700000000000157,-4.712403339850438
-0.015700000000000047,-4.756259390146253
-0.01670000000000016,-4.800115440442069
-0.01770000000000005,-4.843971490737885
-0.01870000000000016,-4.843971490737885
-0.01970000000000005,-4.887827541033701
-0.020700000000000163,-4.843971490737885
-0.021700000000000053,-4.843971490737885
-0.022700000000000164,-4.843971490737885
-0.023700000000000054,-4.843971490737885
-0.024700000000000166,-4.887827541033701
-0.025700000000000056,-4.843971490737885
-0.026700000000000168,-4.887827541033701
-0.027700000000000058,-4.9302688800296535
-0.02870000000000017,-4.974124930325469
-0.02970000000000006,-4.974124930325469
-0.03070000000000017,-5.017980980621284
-0.03170000000000006,-5.017980980621284
-0.03270000000000017,-5.017980980621284
-0.03370000000000006,-5.017980980621284
-0.034700000000000175,-5.017980980621284
-0.035700000000000065,-5.017980980621284
-0.03670000000000018,-5.017980980621284
-0.03770000000000007,-4.974124930325469
-0.03870000000000018,-4.974124930325469
-0.03970000000000007,-4.974124930325469
-0.04070000000000018,-4.974124930325469
-0.04170000000000007,-5.017980980621284
-0.04270000000000018,-5.017980980621284
-0.04370000000000007,-5.017980980621284
-0.044700000000000184,-5.0618370309171015
-0.045700000000000074,-5.105693081212917
-0.046700000000000186,-5.0618370309171015
-0.047700000000000076,-5.0618370309171015
-0.04870000000000019,-5.0618370309171015
-0.04970000000000008,-5.0618370309171015
-0.05070000000000019,-5.0618370309171015
-0.05170000000000008,-5.017980980621284
-0.05270000000000019,-5.017980980621284
-0.05370000000000008,-4.974124930325469
-0.05470000000000019,-5.017980980621284
-0.05570000000000008,-4.974124930325469
-0.056700000000000195,-5.017980980621284
-0.057700000000000085,-5.017980980621284
-0.058700000000000196,-5.017980980621284
-0.059700000000000086,-5.0618370309171015
-0.0607000000000002,-5.0618370309171015
-0.06170000000000009,-5.0618370309171015
-0.0627000000000002,-5.105693081212917
-0.06370000000000009,-5.0618370309171015
-0.0647000000000002,-5.0618370309171015
-0.06570000000000009,-5.0618370309171015
-0.0667000000000002,-5.017980980621284
-0.0677000000000001,-4.974124930325469
-0.0687000000000002,-4.974124930325469
-0.0697000000000001,-4.974124930325469
-0.07070000000000021,-4.974124930325469
-0.0717000000000001,-4.974124930325469
-0.07270000000000021,-5.017980980621284
-0.0737000000000001,-4.974124930325469
-0.07470000000000021,-5.017980980621284
-0.0757000000000001,-5.0618370309171015
-0.07670000000000021,-5.017980980621284
-0.0777000000000001,-5.017980980621284
-0.07870000000000021,-5.017980980621284
-0.0797000000000001,-5.017980980621284
-0.08070000000000022,-4.974124930325469
-0.0817000000000001,-4.974124930325469
-0.08270000000000022,-4.9302688800296535
-0.08370000000000011,-4.9302688800296535
-0.08470000000000022,-4.9302688800296535
-0.08570000000000011,-4.887827541033701
-0.08670000000000022,-4.9302688800296535
-0.08770000000000011,-4.9302688800296535
-0.08870000000000022,-4.9302688800296535
-0.08970000000000011,-4.974124930325469
-0.09070000000000022,-4.974124930325469
-0.09170000000000011,-4.974124930325469
-0.09270000000000023,-4.974124930325469
-0.09370000000000012,-4.974124930325469
-0.09470000000000023,-4.9302688800296535
-0.09570000000000012,-4.9302688800296535
-0.09670000000000023,-4.887827541033701
-0.09770000000000012,-4.887827541033701
-0.09870000000000023,-4.843971490737885
-0.09970000000000012,-4.843971490737885
-0.10070000000000023,-4.843971490737885
-0.10170000000000012,-4.843971490737885
-0.10270000000000024,-4.887827541033701
-0.10370000000000013,-4.887827541033701
-0.10470000000000024,-4.887827541033701
-0.10570000000000013,-4.9302688800296535
-0.10670000000000024,-4.887827541033701
-0.10770000000000013,-4.887827541033701
-0.10870000000000024,-4.887827541033701
-0.10970000000000013,-4.887827541033701
-0.11070000000000024,-4.887827541033701
-0.11170000000000013,-4.843971490737885
-0.11270000000000002,-4.843971490737885
-0.11370000000000013,-4.800115440442069
-0.11470000000000002,-4.800115440442069
-0.11570000000000014,-4.756259390146253
-0.11670000000000003,-4.843971490737885
-0.11770000000000014,-4.800115440442069
-0.11870000000000003,-4.843971490737885
-0.11970000000000014,-4.843971490737885
-0.12070000000000003,-4.887827541033701
-0.12170000000000014,-4.843971490737885
-0.12270000000000003,-4.843971490737885
-0.12370000000000014,-4.843971490737885
-0.12470000000000003,-4.843971490737885
-0.12570000000000014,-4.800115440442069
-0.12670000000000003,-4.800115440442069
-0.12770000000000015,-4.756259390146253
-0.12870000000000004,-4.756259390146253
-0.12970000000000015,-4.756259390146253
-0.13070000000000004,-4.756259390146253
-0.13170000000000015,-4.756259390146253
-0.13270000000000004,-4.800115440442069
-0.13370000000000015,-4.800115440442069
-0.13470000000000004,-4.843971490737885
-0.13570000000000015,-4.843971490737885
-0.13670000000000004,-4.843971490737885
-0.13770000000000016,-4.843971490737885
-0.13870000000000005,-4.843971490737885
-0.13970000000000016,-4.843971490737885
-0.14070000000000005,-4.800115440442069
-0.14170000000000016,-4.800115440442069
-0.14270000000000005,-4.756259390146253
-0.14370000000000016,-4.756259390146253
-0.14470000000000005,-4.756259390146253
-0.14570000000000016,-4.712403339850438
-0.14670000000000005,-4.756259390146253
-0.14770000000000016,-4.800115440442069
-0.14870000000000005,-4.800115440442069
-0.14970000000000017,-4.800115440442069
-0.15070000000000006,-4.843971490737885
-0.15170000000000017,-4.843971490737885
-0.15270000000000006,-4.843971490737885
-0.15370000000000017,-4.843971490737885
-0.15470000000000006,-4.843971490737885
-0.15570000000000017,-4.800115440442069
-0.15670000000000006,-4.800115440442069
-0.15770000000000017,-4.800115440442069
-0.15870000000000006,-4.756259390146253
-0.15970000000000018,-4.756259390146253
-0.16070000000000007,-4.756259390146253
-0.16170000000000018,-4.800115440442069
-0.16270000000000007,-4.800115440442069
-0.16370000000000018,-4.843971490737885
-0.16470000000000007,-4.843971490737885
-0.16570000000000018,-4.887827541033701
-0.16670000000000007,-4.843971490737885
-0.16770000000000018,-4.887827541033701
-0.16870000000000007,-4.887827541033701
-0.16970000000000018,-4.887827541033701
-0.17070000000000007,-4.843971490737885
-0.17170000000000019,-4.843971490737885
-0.17270000000000008,-4.843971490737885
-0.1737000000000002,-4.843971490737885
-0.17470000000000008,-4.800115440442069
-0.1757000000000002,-4.800115440442069
-0.17670000000000008,-4.843971490737885
-0.1777000000000002,-4.887827541033701
-0.17870000000000008,-4.887827541033701
-0.1797000000000002,-4.9302688800296535
-0.18070000000000008,-4.974124930325469
-0.1817000000000002,-4.9302688800296535
-0.18270000000000008,-4.974124930325469
-0.1837000000000002,-4.974124930325469
-0.1847000000000001,-4.974124930325469
-0.1857000000000002,-4.974124930325469
-0.1867000000000001,-4.9302688800296535
-0.1877000000000002,-4.9302688800296535
-0.1887000000000001,-4.9302688800296535
-0.1897000000000002,-4.9302688800296535
-0.1907000000000001,-4.9302688800296535
-0.1917000000000001,-4.974124930325469
-0.19269999999999998,-5.017980980621284
-0.1937000000000001,-5.017980980621284
-0.19469999999999998,-5.0618370309171015
-0.1957000000000001,-5.0618370309171015
-0.19669999999999999,-5.0618370309171015
-0.1977000000000001,-5.105693081212917
-0.1987,-5.105693081212917
-0.1997000000000001,-5.105693081212917
-0.2007,-5.105693081212917
-0.2017000000000001,-5.105693081212917
-0.2027,-5.105693081212917
-0.2037000000000001,-5.105693081212917
-0.2047,-5.105693081212917
-0.2057000000000001,-5.105693081212917
-0.2067,-5.149549131508733
-0.2077000000000001,-5.191990470504685
-0.2087,-5.235846520800501
-0.2097000000000001,-5.235846520800501
-0.2107,-5.279702571096316
-0.2117000000000001,-5.323558621392133
-0.2127,-5.323558621392133
-0.2137000000000001,-5.323558621392133
-0.2147,-5.367414671687949
-0.2157000000000001,-5.367414671687949
-0.2167,-5.367414671687949
-0.21770000000000012,-5.367414671687949
-0.2187,-5.367414671687949
-0.21970000000000012,-5.367414671687949
-0.2207,-5.367414671687949
-0.22170000000000012,-5.411270721983764
-0.2227,-5.453712060979717
-0.22370000000000012,-5.497568111275533
-0.2247,-5.5414241615713475
-0.22570000000000012,-5.585280211867165
-0.2267,-5.585280211867165
-0.22770000000000012,-5.585280211867165
-0.22870000000000001,-5.629136262162981
-0.22970000000000013,-5.629136262162981
-0.23070000000000002,-5.629136262162981
-0.23170000000000013,-5.629136262162981
-0.23270000000000002,-5.672992312458796
-0.23370000000000013,-5.672992312458796
-0.23470000000000002,-5.672992312458796
-0.23570000000000013,-5.672992312458796
-0.23670000000000002,-5.759289701750564
-0.2376999999999999,-5.80314575204638
-0.23870000000000002,-5.80314575204638
-0.2396999999999999,-5.847001802342197
-0.24070000000000003,-5.9347139029338285
-0.24169999999999991,-5.9347139029338285
-0.24270000000000003,-5.9347139029338285
-0.24369999999999992,-5.977155241929781
-0.24470000000000003,-5.977155241929781
-0.24569999999999992,-6.021011292225596
-0.24670000000000003,-6.021011292225596
-0.24769999999999992,-6.021011292225596
-0.24870000000000003,-6.064867342521412
-0.24969999999999992,-6.064867342521412
-0.25070000000000003,-6.108723392817228
-0.2516999999999999,-6.152579443113044
-0.25270000000000004,-6.196435493408861
-0.2536999999999999,-6.238876832404812
-0.25470000000000004,-6.282732882700628
-0.2556999999999999,-6.326588932996443
-0.25670000000000004,-6.326588932996443
-0.25769999999999993,-6.37044498329226
-0.25870000000000004,-6.414301033588076
-0.25969999999999993,-6.458157083883892
-0.26070000000000004,-6.458157083883892
-0.26169999999999993,-6.458157083883892
-0.26270000000000004,-6.500598422879844
-0.26369999999999993,-6.500598422879844
-0.26470000000000005,-6.54445447317566
-0.26569999999999994,-6.54445447317566
-0.26670000000000005,-6.632166573767292
-0.26769999999999994,-6.6760226240631075
-0.26870000000000005,-6.719878674358924
-0.26969999999999994,-6.762320013354876
-0.27070000000000005,-6.850032113946507
-0.27169999999999994,-6.850032113946507
-0.27270000000000005,-6.893888164242324
-0.27369999999999994,-6.93774421453814
-0.27470000000000006,-6.981600264833956
-0.27569999999999995,-7.024041603829907
-0.27670000000000006,-7.024041603829907
-0.27769999999999995,-7.067897654125724
-0.27870000000000006,-7.067897654125724
-0.27969999999999995,-7.111753704421539
-0.28070000000000006,-7.155609754717355
-0.28169999999999995,-7.199465805013171
-0.28270000000000006,-7.28576319430494
-0.28369999999999995,-7.28576319430494
-0.28470000000000006,-7.37347529489657
-0.28569999999999995,-7.461187395488204
-0.28670000000000007,-7.50504344578402
-0.28769999999999996,-7.50504344578402
-0.28870000000000007,-7.5474847847799715
-0.28969999999999996,-7.591340835075788
-0.29070000000000007,-7.635196885371603
-0.29169999999999996,-7.635196885371603
-0.29270000000000007,-7.679052935667419
-0.29369999999999996,-7.722908985963235
-0.2947000000000001,-7.7653503249591855
-0.29569999999999996,-7.7653503249591855
-0.2967000000000001,-7.853062425550818
-0.29769999999999996,-7.940774526142452
-0.2987000000000001,-7.984630576438266
-0.29969999999999997,-8.070927965730034
-0.3007000000000001,-8.11478401602585
-0.30169999999999997,-8.158640066321666
-0.3027000000000001,-8.202496116617484
-0.30369999999999997,-8.246352166913299
-0.3047000000000001,-8.288793505909249
-0.30569999999999997,-8.332649556205066
-0.3067000000000001,-8.376505606500881
-0.3077,-8.464217707092514
-0.3087000000000001,-8.464217707092514
-0.3097,-8.508073757388331
-0.3107000000000001,-8.55051509638428
-0.3117,-8.638227196975913
-0.3127000000000001,-8.725939297567548
-0.3137,-8.769795347863363
-0.3147000000000001,-8.85609273715513
-0.3157,-8.943804837746763
-0.3167000000000001,-8.987660888042578
-0.3177,-9.073958277334345
-0.3187000000000001,-9.11781432763016
-0.3197,-9.161670377925978
-0.3207000000000001,-9.205526428221793
-0.3217,-9.24938247851761
-0.3227000000000001,-9.293238528813426
-0.3237,-9.379535918105192
-0.3247000000000001,-9.423391968401008
-0.3257,-9.467248018696827
-0.3267000000000001,-9.55496011928846
-0.3277,-9.641257508580225
-0.3287000000000001,-9.728969609171857
-0.3297,-9.81668170976349
-0.3307000000000001,-9.902979099055257
-0.3317,-9.946835149351072
-0.3327000000000001,-10.034547249942705
-0.3337,-10.120844639234473
-0.3347000000000001,-10.164700689530287
-0.3357,-10.25241279012192
-0.3367000000000001,-10.296268840417738
-0.3377,-10.340124890713554
-0.3387000000000001,-10.42642228000532
-0.3397,-10.470278330301136
-0.3407000000000001,-10.557990430892769
-0.3417,-10.688143870480351
-0.3427000000000001,-10.775855971071984
-0.3437,-10.863568071663616
-0.3447000000000001,-10.993721511251199
-0.3457,-11.081433611842833
-0.3467000000000001,-11.1677310011346
-0.3477,-11.255443101726232
-0.3487000000000001,-11.299299152022046
-0.3497,-11.42945259160963
-0.3507000000000001,-11.473308641905447
-0.3517,-11.56102074249708
-0.3527000000000001,-11.604876792792895
-0.3537,-11.73503023238048
-0.3547000000000001,-11.778886282676295
-0.3557,-11.86659838326793
-0.35670000000000013,-12.040607873151327
-0.3577,-12.12831997374296
-0.35870000000000013,-12.258473413330542
-0.3597,-12.346185513922174
-0.36070000000000013,-12.476338953509758
-0.3617,-12.56405105410139
-0.3626999999999999,-12.651763154693022
-0.3637,-12.781916594280606
-0.3646999999999999,-12.869628694872238
-0.3657,-12.955926084164007
-0.3666999999999999,-13.043638184755638
-0.3677,-13.175206335643086
-0.3686999999999999,-13.261503724934855
-0.36970000000000003,-13.349215825526485
-0.3706999999999999,-13.436927926118118
-0.37170000000000003,-13.610937416001518
-0.3726999999999999,-13.698649516593148
-0.37370000000000003,-13.828802956180734
-0.3746999999999999,-13.960371107068182
-0.37570000000000003,-14.090524546655764
-0.3766999999999999,-14.217848563643619
-0.37770000000000004,-14.30273124163552
-0.3786999999999999,-14.444202371622024
-0.37970000000000004,-14.57152638860988
-0.3806999999999999,-14.65640906660178
-0.38170000000000004,-14.741291744593681
-0.38269999999999993,-14.868615761581536
-0.38370000000000004,-14.967645552572087
-0.38469999999999993,-15.094969569559943
-0.38570000000000004,-15.179852247551842
-0.38669999999999993,-15.349617603535648
-0.38770000000000004,-15.533530072518102
-0.38869999999999993,-15.618412750510005
-0.38970000000000005,-15.74573676749786
-0.39069999999999994,-15.91550212348166
-0.39170000000000005,-16.056973253468165
-0.39269999999999994,-16.184297270456018
-0.39370000000000005,-16.311621287443874
-0.39469999999999994,-16.438945304431726
-0.39570000000000005,-16.580416434418233
-0.39669999999999994,-16.70774045140608
-0.39770000000000005,-16.835064468393938
-0.39869999999999994,-16.919947146385837
-0.39970000000000006,-17.061418276372343
-0.40069999999999995,-17.188742293360193
-0.40170000000000006,-17.358507649344002
-0.40269999999999995,-17.48583166633185
-0.40370000000000006,-17.669744135314307
-0.40469999999999995,-17.839509491298113
-0.40570000000000006,-17.966833508285966
-0.40669999999999995,-18.15074597726842
-0.40770000000000006,-18.27806999425627
-0.40869999999999995,-18.44783535024008
-0.40970000000000006,-18.589306480226583
-0.41069999999999995,-18.716630497214435
-0.41170000000000007,-18.843954514202288
-0.41269999999999996,-18.97127853119014
-0.41370000000000007,-19.155191000172596
-0.41469999999999996,-19.28251501716045
-0.41570000000000007,-19.409839034148305
-0.41669999999999996,-19.636192842126707
-0.41770000000000007,-19.805958198110513
-0.41869999999999996,-19.93328221509837
-0.4197000000000001,-20.10304757108217
-0.42069999999999996,-20.371842718056527
-0.4217000000000001,-20.499166735044383
-0.42269999999999996,-20.626490752032236
-0.4237000000000001,-20.810403221014692
-0.42469999999999997,-20.980168576998494
-0.4257000000000001,-21.107492593986347
-0.42669999999999997,-21.291405062968803
-0.4277000000000001,-21.461170418952605
-0.42869999999999997,-21.58849443594046
-0.4297000000000001,-21.772406904922917
-0.43069999999999997,-21.94217226090672
-0.4317000000000001,-22.111937616890522
-0.4327,-22.295850085872978
-0.4337000000000001,-22.508056780852733
-0.4347,-22.67782213683654
-0.4357000000000001,-22.904175944814945
-0.4367,-23.073941300798747
-0.4377000000000001,-23.24370665678255
-0.4387,-23.427619125765005
-0.4397000000000001,-23.597384481748815
-0.4407,-23.767149837732617
-0.4417000000000001,-23.951062306715073
-0.4427,-24.120827662698876
-0.4437000000000001,-24.290593018682678
-0.4447,-24.474505487665134
-0.4457000000000001,-24.64427084364894
-0.4467,-24.9130659906233
-0.4477000000000001,-25.12527268560305
-0.4487,-25.295038041586857
-0.4497000000000001,-25.521391849565262
-0.4507,-25.73359854454502
-0.4517000000000001,-25.91751101352747
-0.4527,-26.129717708507226
-0.4537000000000001,-26.34192440348698
-0.4547,-26.525836872469437
-0.4557000000000001,-26.738043567449193
-0.4567,-26.907808923433
-0.4577000000000001,-27.091721392415455
-0.4587,-27.303928087395207
-0.4597000000000001,-27.530281895373616
-0.4607,-27.700047251357418
-0.4617000000000001,-27.954695285333123
-0.4627,-28.18104909331153
-0.4637000000000001,-28.393255788291288
-0.4647,-28.619609596269694
-0.4657000000000001,-28.8742576302454
-0.4667,-29.058170099227848
-0.4677000000000001,-29.31281813320356
-0.4687,-29.525024828183312
-0.4697000000000001,-29.751378636161718
-0.4707,-29.96358533114148
-0.4717000000000001,-30.189939139119886
-0.4727,-30.402145834099635
-0.4737000000000001,-30.614352529079397
-0.4747,-30.8407063370578
-0.4757000000000001,-31.052913032037555
-0.4767,-31.321708179011907
-0.4777000000000001,-31.533914873991666
-0.4787,-31.802710020966025
-0.4797000000000001,-32.05735805494172
-0.4807,-32.32615320191609
-0.48170000000000013,-32.53835989689585
-0.4827,-32.807155043870196
-0.48370000000000013,-33.01936173884996
-0.4847,-33.288156885824314
-0.48570000000000013,-33.54280491980002
-0.4867,-33.755011614779775
-0.4876999999999999,-34.02380676175414
-0.4887,-34.236013456733886
-0.4896999999999999,-34.50480860370825
-0.4907,-34.717015298688004
-0.4916999999999999,-35.02825178465831
-0.4927,-35.282899818634014
-0.4936999999999999,-35.55169496560837
-0.49470000000000003,-35.806342999584075
-0.4956999999999999,-36.11757948555439
-0.49670000000000003,-36.37222751953009
-0.4976999999999999,-36.64102266650445
-0.49870000000000003,-36.89567070048016
-0.4996999999999999,-37.206907186450465
-0.5007,-37.47570233342482
-0.5016999999999999,-37.687909028404576
-0.5027,-37.94255706238028
-0.5036999999999999,-38.211352209354644
-0.5047,-38.46600024333035
-0.5056999999999999,-38.734795390304704
-0.5067,-39.046031876275016
-0.5076999999999999,-39.34312124924667
-0.5087,-39.654357735216976
-0.5096999999999999,-39.95144710818864
