Potential V vs RHE, Current mA cm-2
0.05339999999999995,-0.04248378033494705
0.05239999999999995,-0.04381360895682019
0.051399999999999946,-0.044421934815762155
0.050399999999999945,-0.04488878954471761
0.049399999999999944,-0.04534149716067442
0.04839999999999994,-0.04575176343763528
0.04739999999999994,-0.0461761768275948
0.04639999999999994,-0.046586443104555654
0.04539999999999994,-0.04702500360751381
0.04439999999999994,-0.04747771122347064
0.04339999999999994,-0.04787383038743284
0.04239999999999994,-0.0483406851163883
0.04139999999999994,-0.048750951393349166
0.040399999999999936,-0.04914707055731138
0.039399999999999935,-0.04958563106026953
0.038399999999999934,-0.0499958973372304
0.03739999999999993,-0.050392016501192606
0.03639999999999993,-0.05081642989115212
0.03539999999999993,-0.05122669616811298
0.03439999999999993,-0.05167940378406979
0.03339999999999993,-0.05208967006103065
0.03239999999999993,-0.05252823056398881
0.03139999999999993,-0.052952643953948324
0.030399999999999927,-0.053348763117910536
0.029399999999999926,-0.05377317650787005
0.028399999999999925,-0.05422588412382686
0.027399999999999924,-0.05465029751378637
0.026399999999999924,-0.055088858016744534
0.025399999999999923,-0.05549912429370539
0.024399999999999922,-0.0558952434576676
0.02339999999999992,-0.05630550973462846
0.02239999999999992,-0.056729923124587966
0.02139999999999992,-0.057182630740544776
0.020399999999999918,-0.0576070441305043
0.019399999999999917,-0.058017310407465154
0.018399999999999916,-0.05845587091042332
0.017399999999999916,-0.05888028430038283
0.016399999999999915,-0.05927640346434503
0.015399999999999914,-0.059686669741305896
0.014399999999999913,-0.06008278890526811
0.013399999999999912,-0.060507202295227616
0.012399999999999911,-0.060931615685187124
0.01139999999999991,-0.06134188196214799
0.01039999999999991,-0.061780442465106146
0.009399999999999908,-0.06221900296806432
0.008399999999999908,-0.06262926924502517
0.007399999999999907,-0.06305368263498468
0.006399999999999906,-0.06346394891194555
0.005399999999999905,-0.0639025094149037
0.004399999999999904,-0.06435521703086051
0.003399999999999903,-0.06475133619482273
0.002399999999999902,-0.06520404381077954
0.0013999999999999013,-0.06560016297474175
0.00039999999999990044,-0.06603872347769991
-0.0006000000000001005,-0.06644898975466076
-0.0016000000000001013,-0.06684510891862298
-0.0026000000000001022,-0.0672695223085825
-0.003600000000000103,-0.06765149435954605
-0.004600000000000104,-0.06806176063650692
-0.005600000000000105,-0.06851446825246373
-0.006600000000000106,-0.06891058741642593
-0.007600000000000107,-0.06930670658038814
-0.008600000000000108,-0.06971697285734901
-0.009600000000000108,-0.07012723913430988
-0.01060000000000011,-0.07055165252426938
-0.01160000000000011,-0.07096191880123023
-0.012600000000000111,-0.07140047930418841
-0.013600000000000112,-0.07178245135515196
-0.014600000000000113,-0.07219271763211282
-0.015600000000000114,-0.07258883679607502
-0.016600000000000115,-0.07297080884703859
-0.017600000000000116,-0.07338107512399945
-0.018600000000000116,-0.07376304717496303
-0.019600000000000117,-0.07417331345192386
-0.020600000000000118,-0.07454113838988878
-0.02160000000000012,-0.07492311044085233
-0.02260000000000012,-0.07531922960481456
-0.02360000000000012,-0.07568705454277945
-0.024600000000000122,-0.07609732081974033
-0.025600000000000123,-0.07646514575770523
-0.026600000000000124,-0.07681882358267149
-0.027600000000000124,-0.0772149427466337
-0.028600000000000125,-0.07755447345860131
-0.029600000000000126,-0.07793644550956487
-0.030600000000000127,-0.07830427044752979
-0.03160000000000013,-0.07864380115949739
-0.03260000000000013,-0.07903992032345959
-0.03360000000000013,-0.07937945103542722
-0.03460000000000002,-0.07973312886039347
-0.03560000000000002,-0.08007265957236107
-0.03660000000000002,-0.08038389605833138
-0.03760000000000002,-0.08075172099629631
-0.03860000000000002,-0.08109125170826391
-0.039600000000000024,-0.08141663530723285
-0.040600000000000025,-0.08175616601920047
-0.041600000000000026,-0.08208154961816942
-0.04260000000000003,-0.08240693321713838
-0.04360000000000003,-0.08271816970310869
-0.04460000000000003,-0.083029406189079
-0.04560000000000003,-0.08334064267504931
-0.04660000000000003,-0.08360943782202368
-0.04760000000000003,-0.08389238008199668
-0.04860000000000003,-0.08416117522897103
-0.04960000000000003,-0.08444411748894404
-0.050600000000000034,-0.08475535397491435
-0.051600000000000035,-0.08503829623488735
-0.052600000000000036,-0.08530709138186171
-0.053600000000000037,-0.08557588652883606
-0.05460000000000004,-0.08585882878880907
-0.05560000000000004,-0.08611347682278478
-0.05660000000000004,-0.0863681248567605
-0.05760000000000004,-0.08663692000373484
-0.05860000000000004,-0.0868774209247119
-0.05960000000000004,-0.08711792184568896
-0.06060000000000004,-0.08734427565366736
-0.061600000000000044,-0.08755648234864712
-0.06260000000000004,-0.08775454193062822
-0.06360000000000005,-0.08800918996460394
-0.06460000000000005,-0.08819310243358638
-0.06560000000000005,-0.08840530912856613
-0.06660000000000005,-0.08860336871054725
-0.06760000000000005,-0.08880142829252836
-0.06860000000000005,-0.08898534076151081
-0.06960000000000005,-0.08919754745649056
-0.07060000000000005,-0.08938145992547303
-0.07160000000000005,-0.08955122528145683
-0.07260000000000005,-0.08973513775043927
-0.07360000000000005,-0.08989075599342443
-0.07460000000000006,-0.09006052134940823
-0.07560000000000006,-0.0902161395923934
-0.07660000000000006,-0.0903576107223799
-0.07760000000000006,-0.09051322896536505
-0.07860000000000006,-0.09066884720835021
-0.07960000000000006,-0.0907820241123394
-0.08060000000000006,-0.09093764235532456
-0.08160000000000006,-0.09105081925931376
-0.08260000000000006,-0.09116399616330297
-0.08360000000000006,-0.09127717306729217
-0.08460000000000006,-0.09137620285828273
-0.08560000000000006,-0.09148937976227192
-0.08660000000000007,-0.09158840955326249
-0.08760000000000007,-0.09167329223125438
-0.08860000000000007,-0.09175817490924627
-0.08960000000000007,-0.09184305758723818
-0.09060000000000007,-0.09192794026523009
-0.09160000000000007,-0.09199867583022334
-0.09260000000000007,-0.09206941139521659
-0.09360000000000007,-0.09211185273421253
-0.09460000000000007,-0.09216844118620715
-0.09560000000000007,-0.09222502963820174
-0.09660000000000007,-0.0922674709771977
-0.09760000000000008,-0.09229576520319499
-0.09860000000000008,-0.09233820654219095
-0.09960000000000008,-0.0923806478811869
-0.10060000000000008,-0.09239479499418554
-0.10160000000000008,-0.09242308922018284
-0.10260000000000008,-0.09245138344618015
-0.10360000000000008,-0.09245138344618015
-0.10460000000000008,-0.09247967767217745
-0.10560000000000008,-0.09246553055917879
-0.10660000000000008,-0.09245138344618015
-0.10760000000000008,-0.09246553055917879
-0.10860000000000009,-0.0924372363331815
-0.10960000000000009,-0.0924089421071842
-0.11060000000000009,-0.09242308922018284
-0.11160000000000009,-0.0923806478811869
-0.11260000000000009,-0.0923806478811869
-0.11360000000000009,-0.09233820654219095
-0.11460000000000009,-0.09232405942919229
-0.11560000000000009,-0.09229576520319499
-0.11660000000000009,-0.09222502963820174
-0.1176000000000001,-0.09218258829920578
-0.1186000000000001,-0.09212599984721119
-0.1196000000000001,-0.09208355850821524
-0.1206000000000001,-0.09204111716921928
-0.1216000000000001,-0.09194208737822873
-0.1226000000000001,-0.09189964603923279
-0.1236000000000001,-0.09181476336124088
-0.1246000000000001,-0.09175817490924627
-0.1256000000000001,-0.09167329223125438
-0.1266000000000001,-0.09158840955326249
-0.1276000000000001,-0.09153182110126787
-0.1286000000000001,-0.09144693842327598
-0.1296000000000001,-0.09134790863228542
-0.1306000000000001,-0.0912630259542935
-0.1316000000000001,-0.09116399616330297
-0.1326000000000001,-0.09107911348531106
-0.1336000000000001,-0.09099423080731917
-0.1346000000000001,-0.09089520101632861
-0.1356000000000001,-0.0907820241123394
-0.1366000000000001,-0.0906971414343475
-0.1376000000000001,-0.0905839645303583
-0.1386000000000001,-0.09048493473936775
-0.1396000000000001,-0.09040005206137584
-0.1406000000000001,-0.09028687515738665
-0.14160000000000011,-0.09015955114039878
-0.14260000000000012,-0.09006052134940823
-0.14360000000000012,-0.08991905021942173
-0.14460000000000012,-0.08980587331543252
-0.14560000000000012,-0.08969269641144333
-0.14660000000000012,-0.08955122528145683
-0.14760000000000012,-0.08946634260346491
-0.14860000000000012,-0.08931072436047977
-0.14960000000000012,-0.08919754745649056
-0.15060000000000012,-0.08908437055250136
-0.15160000000000012,-0.08894289942251486
-0.15260000000000012,-0.08882972251852565
-0.15360000000000013,-0.08868825138853914
-0.15460000000000013,-0.0885609273715513
-0.15560000000000013,-0.08844775046756209
-0.15660000000000013,-0.0883062793375756
-0.15760000000000013,-0.08819310243358638
-0.15860000000000013,-0.08806577841659853
-0.15960000000000002,-0.08793845439961068
-0.16060000000000002,-0.08781113038262284
-0.16160000000000002,-0.08766965925263633
-0.16260000000000002,-0.08755648234864712
-0.16360000000000002,-0.08742915833165928
-0.16460000000000002,-0.08728768720167276
-0.16560000000000002,-0.08720280452368086
-0.16660000000000003,-0.08708962761969166
-0.16760000000000003,-0.0869340093767065
-0.16860000000000003,-0.08680668535971865
-0.16960000000000003,-0.08666521422973215
-0.17060000000000003,-0.08653789021274429
-0.17160000000000003,-0.08635397774376184
-0.17260000000000003,-0.08624080083977263
-0.17360000000000003,-0.08608518259678749
-0.17460000000000003,-0.08595785857979962
-0.17560000000000003,-0.08581638744981313
-0.17660000000000003,-0.08566076920682797
-0.17760000000000004,-0.08553344518984012
-0.17860000000000004,-0.08539197405985362
-0.17960000000000004,-0.08526465004286575
-0.18060000000000004,-0.08512317891287925
-0.18160000000000004,-0.0849675606698941
-0.18260000000000004,-0.08484023665290626
-0.18360000000000004,-0.0846846184099211
-0.18460000000000004,-0.08455729439293323
-0.18560000000000004,-0.08442997037594539
-0.18660000000000004,-0.0842884992459589
-0.18760000000000004,-0.08416117522897103
-0.18860000000000005,-0.08403385121198319
-0.18960000000000005,-0.08390652719499532
-0.19060000000000005,-0.08377920317800747
-0.19160000000000005,-0.08366602627401826
-0.19260000000000005,-0.08353870225703043
-0.19360000000000005,-0.0833972311270439
-0.19460000000000005,-0.0832840542230547
-0.19560000000000005,-0.0831708773190655
-0.19660000000000005,-0.083029406189079
-0.19760000000000005,-0.08291622928508981
-0.19860000000000005,-0.08277475815510331
-0.19960000000000006,-0.08264743413811544
-0.20060000000000006,-0.08252011012112759
-0.20160000000000006,-0.08237863899114109
-0.20260000000000006,-0.08223716786115459
-0.20360000000000006,-0.08210984384416672
-0.20460000000000006,-0.08198251982717887
-0.20560000000000006,-0.08186934292318966
-0.20660000000000006,-0.08171372468020452
-0.20760000000000006,-0.08158640066321667
-0.20860000000000006,-0.08144492953323015
-0.20960000000000006,-0.08131760551624231
-0.21060000000000006,-0.08121857572525175
-0.21160000000000007,-0.08107710459526525
-0.21260000000000007,-0.08093563346527875
-0.21360000000000007,-0.08082245656128956
-0.21460000000000007,-0.08068098543130305
-0.21560000000000007,-0.08056780852731382
-0.21660000000000007,-0.080440484510326
-0.21760000000000007,-0.08035560183233408
-0.21860000000000007,-0.08021413070234758
-0.21960000000000007,-0.08011510091135703
-0.22060000000000007,-0.07998777689436919
-0.22160000000000007,-0.07984630576438266
-0.22260000000000008,-0.07976142308639078
-0.22360000000000008,-0.07963409906940291
-0.22460000000000008,-0.079549216391411
-0.22560000000000008,-0.07942189237442315
-0.22660000000000008,-0.0792945683574353
-0.22760000000000008,-0.07919553856644475
-0.22860000000000008,-0.07908236166245554
-0.22960000000000008,-0.078983331871465
-0.23060000000000008,-0.07887015496747579
-0.23160000000000008,-0.07874283095048794
-0.23260000000000008,-0.07865794827249603
-0.23360000000000009,-0.07853062425550819
-0.2346000000000001,-0.07843159446451763
-0.2356000000000001,-0.07833256467352707
-0.2366000000000001,-0.07821938776953788
-0.2376000000000001,-0.07812035797854733
-0.2386000000000001,-0.07800718107455813
-0.2396000000000001,-0.07789400417056892
-0.2406000000000001,-0.07779497437957837
-0.2416000000000001,-0.07768179747558916
-0.2426000000000001,-0.07762520902359457
-0.2436000000000001,-0.0774978850066067
-0.2446000000000001,-0.07738470810261751
-0.2456000000000001,-0.07731397253762426
-0.2466000000000001,-0.0772149427466337
-0.2476000000000001,-0.07711591295564316
-0.2486000000000001,-0.07701688316465259
-0.2496000000000001,-0.0769037062606634
-0.2506000000000001,-0.07683297069567015
-0.2516000000000001,-0.0767339409046796
-0.2526000000000001,-0.07664905822668767
-0.2536000000000001,-0.07656417554869578
-0.2546000000000001,-0.07646514575770523
-0.2556000000000001,-0.07638026307971334
-0.2566000000000001,-0.07629538040172142
-0.2576000000000001,-0.07621049772372954
-0.2586000000000001,-0.07612561504573763
-0.2596000000000001,-0.07602658525474706
-0.2606000000000001,-0.07594170257675517
-0.2616000000000001,-0.07585681989876326
-0.2626000000000001,-0.07578608433377002
-0.2636000000000001,-0.07568705454277945
-0.2646000000000001,-0.07560217186478757
-0.2656000000000001,-0.07551728918679566
-0.2666000000000001,-0.07540411228280645
-0.2676000000000001,-0.0753333767178132
-0.2686000000000001,-0.07523434692682264
-0.2696000000000001,-0.07516361136182939
-0.2706000000000001,-0.07509287579683614
-0.2716000000000001,-0.0750221402318429
-0.2726000000000001,-0.07495140466684964
-0.2736000000000001,-0.07480993353686313
-0.2746000000000001,-0.07476749219786719
-0.2756000000000001,-0.07468260951987529
-0.2766000000000001,-0.07458357972888473
-0.2776000000000001,-0.07454113838988878
-0.2786000000000001,-0.07444210859889823
-0.2796000000000001,-0.07438552014690362
-0.2806000000000001,-0.07431478458191038
-0.28160000000000013,-0.07422990190391847
-0.28260000000000013,-0.07417331345192386
-0.28360000000000013,-0.07407428366093333
-0.2846,-0.07400354809594006
-0.2856,-0.07394695964394547
-0.2866,-0.07386207696595355
-0.2876,-0.07380548851395898
-0.2886,-0.07373475294896571
-0.2896,-0.07366401738397246
-0.2906,-0.07360742893197786
-0.2916,-0.07352254625398597
-0.2926,-0.0734518106889927
-0.2936,-0.0733952222369981
-0.29460000000000003,-0.07332448667200485
-0.29560000000000003,-0.0732537511070116
-0.29660000000000003,-0.07319716265501701
-0.29760000000000003,-0.07312642709002375
-0.29860000000000003,-0.0730556915250305
-0.29960000000000003,-0.07299910307303589
-0.30060000000000003,-0.07294251462104129
-0.30160000000000003,-0.07284348483005075
-0.30260000000000004,-0.07280104349105479
-0.30360000000000004,-0.07271616081306288
-0.30460000000000004,-0.07265957236106828
-0.30560000000000004,-0.07260298390907369
-0.30660000000000004,-0.07254639545707908
-0.30760000000000004,-0.07251810123108177
-0.30860000000000004,-0.07244736566608852
-0.30960000000000004,-0.07240492432709257
-0.31060000000000004,-0.07229174742310338
-0.31160000000000004,-0.07223515897110877
-0.31260000000000004,-0.07219271763211282
-0.31360000000000005,-0.07212198206711957
-0.31460000000000005,-0.07206539361512497
-0.31560000000000005,-0.07203709938912767
-0.31660000000000005,-0.07196636382413442
-0.31760000000000005,-0.07190977537213981
-0.31860000000000005,-0.07185318692014521
-0.31960000000000005,-0.07182489269414791
-0.32060000000000005,-0.07175415712915466
-0.32160000000000005,-0.07168342156416141
-0.32260000000000005,-0.0716268331121668
-0.32360000000000005,-0.0715702446601722
-0.32460000000000006,-0.07149950909517895
-0.32560000000000006,-0.07145706775618299
-0.32660000000000006,-0.0713721850781911
-0.32760000000000006,-0.07132974373919515
-0.32860000000000006,-0.07130144951319785
-0.32960000000000006,-0.07124486106120324
-0.33060000000000006,-0.07117412549621
-0.33160000000000006,-0.07113168415721405
-0.33260000000000006,-0.0710892428182181
-0.33360000000000006,-0.07100436014022618
-0.33460000000000006,-0.0709760659142289
-0.33560000000000006,-0.07093362457523293
-0.33660000000000007,-0.07086288901023968
-0.33760000000000007,-0.07082044767124374
-0.33860000000000007,-0.07076385921924913
-0.33960000000000007,-0.07069312365425588
-0.34060000000000007,-0.07060824097626398
-0.34160000000000007,-0.07057994675026667
-0.34260000000000007,-0.07053750541127073
-0.34360000000000007,-0.07049506407227478
-0.3446000000000001,-0.07043847562028017
-0.3456000000000001,-0.07039603428128423
-0.3466000000000001,-0.07035359294228827
-0.34759999999999996,-0.07031115160329232
-0.3486000000000001,-0.07024041603829907
-0.34959999999999997,-0.07021212181230177
-0.3506000000000001,-0.07015553336030717
-0.35159999999999997,-0.07009894490831257
-0.3526000000000001,-0.07007065068231526
-0.35359999999999997,-0.06999991511732201
-0.3546000000000001,-0.06995747377832606
-0.35559999999999997,-0.06991503243933012
-0.3566000000000001,-0.06983014976133821
-0.3576,-0.06983014976133821
-0.3586000000000001,-0.06978770842234226
-0.3596,-0.06973111997034764
-0.3606000000000001,-0.06970282574435036
-0.3616,-0.0696320901793571
-0.3626000000000001,-0.06960379595335982
-0.3636,-0.06956135461436386
-0.3646000000000001,-0.06953306038836657
-0.3656,-0.06949061904937061
-0.3666000000000001,-0.069434030597376
-0.3676,-0.06941988348437735
-0.3686000000000001,-0.0693774421453814
-0.3696,-0.0693208536933868
-0.3706000000000001,-0.06930670658038814
-0.3716,-0.06925011812839355
-0.3726000000000001,-0.0692076767893976
-0.3736,-0.069151088337403
-0.3746000000000001,-0.06912279411140569
-0.3756,-0.06908035277240973
-0.3766000000000001,-0.06903791143341378
-0.3776,-0.06899547009441785
-0.3786000000000001,-0.06895302875542189
-0.3796,-0.06893888164242323
-0.3806000000000001,-0.06886814607742998
-0.3816,-0.06883985185143268
-0.3826000000000001,-0.06881155762543538
-0.3836,-0.06875496917344079
-0.3846000000000001,-0.06872667494744349
-0.3856,-0.06868423360844754
-0.3866000000000001,-0.06865593938245024
-0.3876,-0.06862764515645292
-0.3886000000000001,-0.06858520381745697
-0.3896,-0.06857105670445833
-0.3906000000000001,-0.06854276247846103
-0.3916,-0.06850032113946508
-0.3926000000000001,-0.06848617402646642
-0.3936,-0.06844373268747048
-0.3946000000000001,-0.06840129134847453
-0.3956,-0.06838714423547587
-0.3966000000000001,-0.06835885000947857
-0.3976,-0.06831640867048261
-0.3986000000000001,-0.06828811444448532
-0.3996,-0.06824567310548936
-0.4006000000000001,-0.06824567310548936
-0.4016,-0.06817493754049611
-0.4026000000000001,-0.06816079042749747
-0.4036,-0.06813249620150016
-0.4046000000000001,-0.06810420197550286
-0.4056,-0.06807590774950557
-0.40660000000000013,-0.06803346641050961
-0.4076,-0.06800517218451232
-0.40860000000000013,-0.06799102507151367
-0.4096,-0.06796273084551636
-0.41060000000000013,-0.06792028950652042
-0.4116,-0.06792028950652042
-0.41260000000000013,-0.06787784816752446
-0.4136,-0.0678637010545258
-0.41460000000000014,-0.06783540682852851
-0.4156,-0.06779296548953255
-0.41660000000000014,-0.0677788183765339
-0.4176,-0.0677505241505366
-0.41860000000000014,-0.06769393569854201
-0.41960000000000003,-0.06769393569854201
-0.42060000000000014,-0.0676656414725447
-0.42160000000000003,-0.06765149435954605
-0.42260000000000014,-0.0676373472465474
-0.42360000000000003,-0.0676090530205501
-0.42460000000000014,-0.06759490590755145
-0.42560000000000003,-0.0675807587945528
-0.42660000000000015,-0.06756661168155415
-0.42760000000000004,-0.06756661168155415
-0.42860000000000015,-0.0675241703425582
-0.42960000000000004,-0.0675241703425582
-0.43060000000000015,-0.06751002322955955
-0.43160000000000004,-0.06746758189056361
-0.43260000000000015,-0.06746758189056361
-0.43360000000000004,-0.06745343477756495
-0.43460000000000015,-0.06745343477756495
-0.43560000000000004,-0.067410993438569
-0.43660000000000015,-0.0673544049865744
