Dec. 28, 2024   15:21:58
Linear Sweep Voltammetry
File: c:/users/guazh/data/banditlqround7_x0exp136_r20/2024-12-24-exp768\1acid_3ac-2024-12-28t15_18_44-lsvinphos\1acid_3ac_lsv_50mvs_efin_-2300mv.bin
Data Source:  Experiment
Instrument Model:  CHI760E
Header: LSV ran at 50 mVs with Efin at -2300mV
Note: 

Init E (V) = -0.6
Final E (V) = -2.3
Scan Rate (V/s) = 0.05
Sample Interval (V) = 0.001
Quiet Time (sec) = 2
Sensitivity (A/V) = 1e-4
Comp R (ohm) = 10.0

Results:

Channel 1:
Ep = -1.175V
ip = 3.167e-5A
Ah = 5.063e-5C

Ep = -1.768V
ip = 7.353e-4A
Ah = 8.947e-4C

Potential/V, Current/A

-0.600, 2.664e-5
-0.601, 2.695e-5
-0.602, 2.707e-5
-0.603, 2.714e-5
-0.604, 2.720e-5
-0.605, 2.722e-5
-0.606, 2.725e-5
-0.607, 2.728e-5
-0.608, 2.731e-5
-0.609, 2.734e-5
-0.610, 2.735e-5
-0.611, 2.737e-5
-0.612, 2.738e-5
-0.613, 2.741e-5
-0.614, 2.743e-5
-0.615, 2.742e-5
-0.616, 2.743e-5
-0.617, 2.745e-5
-0.618, 2.746e-5
-0.619, 2.746e-5
-0.620, 2.746e-5
-0.621, 2.745e-5
-0.622, 2.745e-5
-0.623, 2.746e-5
-0.624, 2.746e-5
-0.625, 2.745e-5
-0.626, 2.744e-5
-0.627, 2.745e-5
-0.628, 2.746e-5
-0.629, 2.747e-5
-0.630, 2.747e-5
-0.631, 2.746e-5
-0.632, 2.746e-5
-0.633, 2.746e-5
-0.634, 2.746e-5
-0.635, 2.746e-5
-0.636, 2.745e-5
-0.637, 2.746e-5
-0.638, 2.746e-5
-0.639, 2.747e-5
-0.640, 2.748e-5
-0.641, 2.746e-5
-0.642, 2.745e-5
-0.643, 2.744e-5
-0.644, 2.743e-5
-0.645, 2.742e-5
-0.646, 2.740e-5
-0.647, 2.741e-5
-0.648, 2.741e-5
-0.649, 2.740e-5
-0.650, 2.740e-5
-0.651, 2.739e-5
-0.652, 2.739e-5
-0.653, 2.740e-5
-0.654, 2.741e-5
-0.655, 2.740e-5
-0.656, 2.738e-5
-0.657, 2.739e-5
-0.658, 2.740e-5
-0.659, 2.738e-5
-0.660, 2.736e-5
-0.661, 2.735e-5
-0.662, 2.734e-5
-0.663, 2.734e-5
-0.664, 2.735e-5
-0.665, 2.733e-5
-0.666, 2.732e-5
-0.667, 2.732e-5
-0.668, 2.732e-5
-0.669, 2.730e-5
-0.670, 2.728e-5
-0.671, 2.727e-5
-0.672, 2.727e-5
-0.673, 2.729e-5
-0.674, 2.728e-5
-0.675, 2.727e-5
-0.676, 2.724e-5
-0.677, 2.722e-5
-0.678, 2.722e-5
-0.679, 2.722e-5
-0.680, 2.721e-5
-0.681, 2.719e-5
-0.682, 2.717e-5
-0.683, 2.717e-5
-0.684, 2.717e-5
-0.685, 2.716e-5
-0.686, 2.713e-5
-0.687, 2.712e-5
-0.688, 2.712e-5
-0.689, 2.710e-5
-0.690, 2.708e-5
-0.691, 2.706e-5
-0.692, 2.704e-5
-0.693, 2.703e-5
-0.694, 2.703e-5
-0.695, 2.701e-5
-0.696, 2.698e-5
-0.697, 2.697e-5
-0.698, 2.697e-5
-0.699, 2.696e-5
-0.700, 2.693e-5
-0.701, 2.691e-5
-0.702, 2.691e-5
-0.703, 2.690e-5
-0.704, 2.688e-5
-0.705, 2.685e-5
-0.706, 2.683e-5
-0.707, 2.681e-5
-0.708, 2.681e-5
-0.709, 2.678e-5
-0.710, 2.677e-5
-0.711, 2.673e-5
-0.712, 2.672e-5
-0.713, 2.672e-5
-0.714, 2.670e-5
-0.715, 2.668e-5
-0.716, 2.666e-5
-0.717, 2.664e-5
-0.718, 2.663e-5
-0.719, 2.660e-5
-0.720, 2.658e-5
-0.721, 2.656e-5
-0.722, 2.654e-5
-0.723, 2.654e-5
-0.724, 2.652e-5
-0.725, 2.650e-5
-0.726, 2.648e-5
-0.727, 2.646e-5
-0.728, 2.645e-5
-0.729, 2.643e-5
-0.730, 2.641e-5
-0.731, 2.638e-5
-0.732, 2.638e-5
-0.733, 2.636e-5
-0.734, 2.634e-5
-0.735, 2.631e-5
-0.736, 2.628e-5
-0.737, 2.627e-5
-0.738, 2.625e-5
-0.739, 2.623e-5
-0.740, 2.621e-5
-0.741, 2.620e-5
-0.742, 2.618e-5
-0.743, 2.617e-5
-0.744, 2.614e-5
-0.745, 2.613e-5
-0.746, 2.610e-5
-0.747, 2.609e-5
-0.748, 2.608e-5
-0.749, 2.606e-5
-0.750, 2.603e-5
-0.751, 2.600e-5
-0.752, 2.599e-5
-0.753, 2.598e-5
-0.754, 2.596e-5
-0.755, 2.594e-5
-0.756, 2.592e-5
-0.757, 2.590e-5
-0.758, 2.590e-5
-0.759, 2.588e-5
-0.760, 2.586e-5
-0.761, 2.584e-5
-0.762, 2.583e-5
-0.763, 2.582e-5
-0.764, 2.581e-5
-0.765, 2.578e-5
-0.766, 2.575e-5
-0.767, 2.575e-5
-0.768, 2.575e-5
-0.769, 2.573e-5
-0.770, 2.570e-5
-0.771, 2.569e-5
-0.772, 2.567e-5
-0.773, 2.566e-5
-0.774, 2.566e-5
-0.775, 2.564e-5
-0.776, 2.562e-5
-0.777, 2.562e-5
-0.778, 2.561e-5
-0.779, 2.560e-5
-0.780, 2.558e-5
-0.781, 2.556e-5
-0.782, 2.556e-5
-0.783, 2.556e-5
-0.784, 2.554e-5
-0.785, 2.551e-5
-0.786, 2.547e-5
-0.787, 2.546e-5
-0.788, 2.546e-5
-0.789, 2.545e-5
-0.790, 2.542e-5
-0.791, 2.540e-5
-0.792, 2.541e-5
-0.793, 2.540e-5
-0.794, 2.539e-5
-0.795, 2.536e-5
-0.796, 2.534e-5
-0.797, 2.533e-5
-0.798, 2.532e-5
-0.799, 2.531e-5
-0.800, 2.530e-5
-0.801, 2.529e-5
-0.802, 2.529e-5
-0.803, 2.527e-5
-0.804, 2.525e-5
-0.805, 2.521e-5
-0.806, 2.519e-5
-0.807, 2.519e-5
-0.808, 2.519e-5
-0.809, 2.516e-5
-0.810, 2.514e-5
-0.811, 2.513e-5
-0.812, 2.512e-5
-0.813, 2.512e-5
-0.814, 2.511e-5
-0.815, 2.508e-5
-0.816, 2.505e-5
-0.817, 2.504e-5
-0.818, 2.504e-5
-0.819, 2.505e-5
-0.820, 2.503e-5
-0.821, 2.501e-5
-0.822, 2.501e-5
-0.823, 2.502e-5
-0.824, 2.501e-5
-0.825, 2.500e-5
-0.826, 2.496e-5
-0.827, 2.496e-5
-0.828, 2.496e-5
-0.829, 2.495e-5
-0.830, 2.494e-5
-0.831, 2.492e-5
-0.832, 2.492e-5
-0.833, 2.491e-5
-0.834, 2.488e-5
-0.835, 2.487e-5
-0.836, 2.486e-5
-0.837, 2.485e-5
-0.838, 2.486e-5
-0.839, 2.486e-5
-0.840, 2.484e-5
-0.841, 2.482e-5
-0.842, 2.483e-5
-0.843, 2.483e-5
-0.844, 2.483e-5
-0.845, 2.482e-5
-0.846, 2.482e-5
-0.847, 2.482e-5
-0.848, 2.482e-5
-0.849, 2.481e-5
-0.850, 2.479e-5
-0.851, 2.479e-5
-0.852, 2.478e-5
-0.853, 2.479e-5
-0.854, 2.478e-5
-0.855, 2.476e-5
-0.856, 2.475e-5
-0.857, 2.476e-5
-0.858, 2.476e-5
-0.859, 2.475e-5
-0.860, 2.472e-5
-0.861, 2.471e-5
-0.862, 2.472e-5
-0.863, 2.472e-5
-0.864, 2.470e-5
-0.865, 2.468e-5
-0.866, 2.467e-5
-0.867, 2.467e-5
-0.868, 2.468e-5
-0.869, 2.467e-5
-0.870, 2.466e-5
-0.871, 2.466e-5
-0.872, 2.466e-5
-0.873, 2.467e-5
-0.874, 2.466e-5
-0.875, 2.464e-5
-0.876, 2.464e-5
-0.877, 2.468e-5
-0.878, 2.471e-5
-0.879, 2.470e-5
-0.880, 2.468e-5
-0.881, 2.464e-5
-0.882, 2.462e-5
-0.883, 2.463e-5
-0.884, 2.461e-5
-0.885, 2.458e-5
-0.886, 2.458e-5
-0.887, 2.460e-5
-0.888, 2.459e-5
-0.889, 2.457e-5
-0.890, 2.457e-5
-0.891, 2.456e-5
-0.892, 2.457e-5
-0.893, 2.456e-5
-0.894, 2.455e-5
-0.895, 2.452e-5
-0.896, 2.453e-5
-0.897, 2.451e-5
-0.898, 2.447e-5
-0.899, 2.445e-5
-0.900, 2.444e-5
-0.901, 2.443e-5
-0.902, 2.443e-5
-0.903, 2.445e-5
-0.904, 2.443e-5
-0.905, 2.442e-5
-0.906, 2.442e-5
-0.907, 2.443e-5
-0.908, 2.445e-5
-0.909, 2.443e-5
-0.910, 2.442e-5
-0.911, 2.440e-5
-0.912, 2.440e-5
-0.913, 2.441e-5
-0.914, 2.440e-5
-0.915, 2.439e-5
-0.916, 2.438e-5
-0.917, 2.437e-5
-0.918, 2.438e-5
-0.919, 2.434e-5
-0.920, 2.433e-5
-0.921, 2.434e-5
-0.922, 2.433e-5
-0.923, 2.433e-5
-0.924, 2.433e-5
-0.925, 2.432e-5
-0.926, 2.431e-5
-0.927, 2.431e-5
-0.928, 2.432e-5
-0.929, 2.431e-5
-0.930, 2.429e-5
-0.931, 2.429e-5
-0.932, 2.430e-5
-0.933, 2.429e-5
-0.934, 2.427e-5
-0.935, 2.427e-5
-0.936, 2.427e-5
-0.937, 2.428e-5
-0.938, 2.428e-5
-0.939, 2.428e-5
-0.940, 2.426e-5
-0.941, 2.427e-5
-0.942, 2.428e-5
-0.943, 2.429e-5
-0.944, 2.428e-5
-0.945, 2.428e-5
-0.946, 2.428e-5
-0.947, 2.429e-5
-0.948, 2.430e-5
-0.949, 2.431e-5
-0.950, 2.430e-5
-0.951, 2.429e-5
-0.952, 2.430e-5
-0.953, 2.432e-5
-0.954, 2.433e-5
-0.955, 2.433e-5
-0.956, 2.435e-5
-0.957, 2.438e-5
-0.958, 2.440e-5
-0.959, 2.441e-5
-0.960, 2.441e-5
-0.961, 2.444e-5
-0.962, 2.446e-5
-0.963, 2.448e-5
-0.964, 2.451e-5
-0.965, 2.452e-5
-0.966, 2.455e-5
-0.967, 2.459e-5
-0.968, 2.464e-5
-0.969, 2.467e-5
-0.970, 2.473e-5
-0.971, 2.477e-5
-0.972, 2.483e-5
-0.973, 2.484e-5
-0.974, 2.489e-5
-0.975, 2.492e-5
-0.976, 2.494e-5
-0.977, 2.500e-5
-0.978, 2.504e-5
-0.979, 2.509e-5
-0.980, 2.513e-5
-0.981, 2.522e-5
-0.982, 2.529e-5
-0.983, 2.537e-5
-0.984, 2.543e-5
-0.985, 2.550e-5
-0.986, 2.558e-5
-0.987, 2.566e-5
-0.988, 2.577e-5
-0.989, 2.584e-5
-0.990, 2.591e-5
-0.991, 2.600e-5
-0.992, 2.609e-5
-0.993, 2.619e-5
-0.994, 2.628e-5
-0.995, 2.636e-5
-0.996, 2.645e-5
-0.997, 2.655e-5
-0.998, 2.667e-5
-0.999, 2.675e-5
-1.000, 2.683e-5
-1.001, 2.693e-5
-1.002, 2.704e-5
-1.003, 2.714e-5
-1.004, 2.724e-5
-1.005, 2.734e-5
-1.006, 2.743e-5
-1.007, 2.752e-5
-1.008, 2.762e-5
-1.009, 2.771e-5
-1.010, 2.780e-5
-1.011, 2.789e-5
-1.012, 2.799e-5
-1.013, 2.809e-5
-1.014, 2.817e-5
-1.015, 2.826e-5
-1.016, 2.834e-5
-1.017, 2.844e-5
-1.018, 2.853e-5
-1.019, 2.861e-5
-1.020, 2.868e-5
-1.021, 2.877e-5
-1.022, 2.888e-5
-1.023, 2.897e-5
-1.024, 2.904e-5
-1.025, 2.913e-5
-1.026, 2.921e-5
-1.027, 2.928e-5
-1.028, 2.938e-5
-1.029, 2.943e-5
-1.030, 2.949e-5
-1.031, 2.958e-5
-1.032, 2.966e-5
-1.033, 2.974e-5
-1.034, 2.978e-5
-1.035, 2.986e-5
-1.036, 2.993e-5
-1.037, 3.001e-5
-1.038, 3.011e-5
-1.039, 3.019e-5
-1.040, 3.025e-5
-1.041, 3.037e-5
-1.042, 3.046e-5
-1.043, 3.056e-5
-1.044, 3.064e-5
-1.045, 3.070e-5
-1.046, 3.079e-5
-1.047, 3.089e-5
-1.048, 3.099e-5
-1.049, 3.107e-5
-1.050, 3.115e-5
-1.051, 3.124e-5
-1.052, 3.134e-5
-1.053, 3.142e-5
-1.054, 3.152e-5
-1.055, 3.161e-5
-1.056, 3.169e-5
-1.057, 3.181e-5
-1.058, 3.193e-5
-1.059, 3.205e-5
-1.060, 3.214e-5
-1.061, 3.226e-5
-1.062, 3.235e-5
-1.063, 3.247e-5
-1.064, 3.259e-5
-1.065, 3.269e-5
-1.066, 3.283e-5
-1.067, 3.298e-5
-1.068, 3.309e-5
-1.069, 3.318e-5
-1.070, 3.330e-5
-1.071, 3.343e-5
-1.072, 3.357e-5
-1.073, 3.372e-5
-1.074, 3.386e-5
-1.075, 3.397e-5
-1.076, 3.410e-5
-1.077, 3.425e-5
-1.078, 3.440e-5
-1.079, 3.454e-5
-1.080, 3.468e-5
-1.081, 3.481e-5
-1.082, 3.498e-5
-1.083, 3.512e-5
-1.084, 3.525e-5
-1.085, 3.541e-5
-1.086, 3.557e-5
-1.087, 3.574e-5
-1.088, 3.591e-5
-1.089, 3.608e-5
-1.090, 3.623e-5
-1.091, 3.640e-5
-1.092, 3.659e-5
-1.093, 3.678e-5
-1.094, 3.693e-5
-1.095, 3.712e-5
-1.096, 3.732e-5
-1.097, 3.751e-5
-1.098, 3.772e-5
-1.099, 3.791e-5
-1.100, 3.810e-5
-1.101, 3.830e-5
-1.102, 3.850e-5
-1.103, 3.871e-5
-1.104, 3.891e-5
-1.105, 3.912e-5
-1.106, 3.932e-5
-1.107, 3.952e-5
-1.108, 3.975e-5
-1.109, 3.996e-5
-1.110, 4.018e-5
-1.111, 4.042e-5
-1.112, 4.067e-5
-1.113, 4.090e-5
-1.114, 4.112e-5
-1.115, 4.135e-5
-1.116, 4.161e-5
-1.117, 4.187e-5
-1.118, 4.214e-5
-1.119, 4.236e-5
-1.120, 4.259e-5
-1.121, 4.286e-5
-1.122, 4.314e-5
-1.123, 4.341e-5
-1.124, 4.367e-5
-1.125, 4.393e-5
-1.126, 4.419e-5
-1.127, 4.447e-5
-1.128, 4.476e-5
-1.129, 4.506e-5
-1.130, 4.533e-5
-1.131, 4.563e-5
-1.132, 4.594e-5
-1.133, 4.622e-5
-1.134, 4.653e-5
-1.135, 4.685e-5
-1.136, 4.713e-5
-1.137, 4.743e-5
-1.138, 4.774e-5
-1.139, 4.804e-5
-1.140, 4.833e-5
-1.141, 4.866e-5
-1.142, 4.900e-5
-1.143, 4.931e-5
-1.144, 4.961e-5
-1.145, 4.990e-5
-1.146, 5.019e-5
-1.147, 5.050e-5
-1.148, 5.083e-5
-1.149, 5.113e-5
-1.150, 5.142e-5
-1.151, 5.171e-5
-1.152, 5.203e-5
-1.153, 5.233e-5
-1.154, 5.261e-5
-1.155, 5.287e-5
-1.156, 5.315e-5
-1.157, 5.342e-5
-1.158, 5.369e-5
-1.159, 5.393e-5
-1.160, 5.415e-5
-1.161, 5.439e-5
-1.162, 5.458e-5
-1.163, 5.478e-5
-1.164, 5.498e-5
-1.165, 5.515e-5
-1.166, 5.529e-5
-1.167, 5.543e-5
-1.168, 5.557e-5
-1.169, 5.569e-5
-1.170, 5.578e-5
-1.171, 5.586e-5
-1.172, 5.595e-5
-1.173, 5.601e-5
-1.174, 5.603e-5
-1.175, 5.604e-5
-1.176, 5.604e-5
-1.177, 5.604e-5
-1.178, 5.601e-5
-1.179, 5.596e-5
-1.180, 5.589e-5
-1.181, 5.583e-5
-1.182, 5.577e-5
-1.183, 5.564e-5
-1.184, 5.548e-5
-1.185, 5.534e-5
-1.186, 5.518e-5
-1.187, 5.503e-5
-1.188, 5.487e-5
-1.189, 5.468e-5
-1.190, 5.447e-5
-1.191, 5.428e-5
-1.192, 5.405e-5
-1.193, 5.382e-5
-1.194, 5.358e-5
-1.195, 5.334e-5
-1.196, 5.313e-5
-1.197, 5.294e-5
-1.198, 5.275e-5
-1.199, 5.253e-5
-1.200, 5.229e-5
-1.201, 5.204e-5
-1.202, 5.181e-5
-1.203, 5.160e-5
-1.204, 5.136e-5
-1.205, 5.114e-5
-1.206, 5.093e-5
-1.207, 5.074e-5
-1.208, 5.055e-5
-1.209, 5.033e-5
-1.210, 5.013e-5
-1.211, 4.997e-5
-1.212, 4.980e-5
-1.213, 4.965e-5
-1.214, 4.949e-5
-1.215, 4.935e-5
-1.216, 4.927e-5
-1.217, 4.915e-5
-1.218, 4.904e-5
-1.219, 4.893e-5
-1.220, 4.879e-5
-1.221, 4.871e-5
-1.222, 4.864e-5
-1.223, 4.853e-5
-1.224, 4.843e-5
-1.225, 4.836e-5
-1.226, 4.826e-5
-1.227, 4.821e-5
-1.228, 4.816e-5
-1.229, 4.811e-5
-1.230, 4.806e-5
-1.231, 4.803e-5
-1.232, 4.800e-5
-1.233, 4.798e-5
-1.234, 4.799e-5
-1.235, 4.793e-5
-1.236, 4.787e-5
-1.237, 4.788e-5
-1.238, 4.786e-5
-1.239, 4.782e-5
-1.240, 4.781e-5
-1.241, 4.783e-5
-1.242, 4.784e-5
-1.243, 4.785e-5
-1.244, 4.787e-5
-1.245, 4.788e-5
-1.246, 4.789e-5
-1.247, 4.792e-5
-1.248, 4.796e-5
-1.249, 4.801e-5
-1.250, 4.802e-5
-1.251, 4.805e-5
-1.252, 4.810e-5
-1.253, 4.818e-5
-1.254, 4.827e-5
-1.255, 4.834e-5
-1.256, 4.840e-5
-1.257, 4.850e-5
-1.258, 4.859e-5
-1.259, 4.867e-5
-1.260, 4.875e-5
-1.261, 4.885e-5
-1.262, 4.898e-5
-1.263, 4.911e-5
-1.264, 4.926e-5
-1.265, 4.943e-5
-1.266, 4.952e-5
-1.267, 4.963e-5
-1.268, 4.979e-5
-1.269, 4.992e-5
-1.270, 5.007e-5
-1.271, 5.023e-5
-1.272, 5.045e-5
-1.273, 5.064e-5
-1.274, 5.079e-5
-1.275, 5.092e-5
-1.276, 5.101e-5
-1.277, 5.114e-5
-1.278, 5.132e-5
-1.279, 5.147e-5
-1.280, 5.165e-5
-1.281, 5.182e-5
-1.282, 5.204e-5
-1.283, 5.224e-5
-1.284, 5.243e-5
-1.285, 5.260e-5
-1.286, 5.277e-5
-1.287, 5.294e-5
-1.288, 5.314e-5
-1.289, 5.331e-5
-1.290, 5.349e-5
-1.291, 5.371e-5
-1.292, 5.393e-5
-1.293, 5.417e-5
-1.294, 5.441e-5
-1.295, 5.461e-5
-1.296, 5.480e-5
-1.297, 5.502e-5
-1.298, 5.523e-5
-1.299, 5.542e-5
-1.300, 5.555e-5
-1.301, 5.574e-5
-1.302, 5.595e-5
-1.303, 5.615e-5
-1.304, 5.638e-5
-1.305, 5.657e-5
-1.306, 5.675e-5
-1.307, 5.702e-5
-1.308, 5.724e-5
-1.309, 5.749e-5
-1.310, 5.769e-5
-1.311, 5.784e-5
-1.312, 5.798e-5
-1.313, 5.825e-5
-1.314, 5.851e-5
-1.315, 5.873e-5
-1.316, 5.898e-5
-1.317, 5.914e-5
-1.318, 5.928e-5
-1.319, 5.936e-5
-1.320, 5.945e-5
-1.321, 5.953e-5
-1.322, 5.971e-5
-1.323, 5.985e-5
-1.324, 5.996e-5
-1.325, 6.009e-5
-1.326, 6.020e-5
-1.327, 6.041e-5
-1.328, 6.060e-5
-1.329, 6.074e-5
-1.330, 6.092e-5
-1.331, 6.112e-5
-1.332, 6.133e-5
-1.333, 6.150e-5
-1.334, 6.167e-5
-1.335, 6.178e-5
-1.336, 6.196e-5
-1.337, 6.209e-5
-1.338, 6.218e-5
-1.339, 6.222e-5
-1.340, 6.226e-5
-1.341, 6.236e-5
-1.342, 6.252e-5
-1.343, 6.264e-5
-1.344, 6.276e-5
-1.345, 6.285e-5
-1.346, 6.289e-5
-1.347, 6.290e-5
-1.348, 6.297e-5
-1.349, 6.305e-5
-1.350, 6.320e-5
-1.351, 6.328e-5
-1.352, 6.334e-5
-1.353, 6.342e-5
-1.354, 6.352e-5
-1.355, 6.366e-5
-1.356, 6.366e-5
-1.357, 6.363e-5
-1.358, 6.366e-5
-1.359, 6.377e-5
-1.360, 6.392e-5
-1.361, 6.402e-5
-1.362, 6.413e-5
-1.363, 6.429e-5
-1.364, 6.440e-5
-1.365, 6.451e-5
-1.366, 6.463e-5
-1.367, 6.473e-5
-1.368, 6.484e-5
-1.369, 6.489e-5
-1.370, 6.491e-5
-1.371, 6.504e-5
-1.372, 6.521e-5
-1.373, 6.535e-5
-1.374, 6.546e-5
-1.375, 6.555e-5
-1.376, 6.566e-5
-1.377, 6.573e-5
-1.378, 6.577e-5
-1.379, 6.584e-5
-1.380, 6.605e-5
-1.381, 6.619e-5
-1.382, 6.633e-5
-1.383, 6.654e-5
-1.384, 6.672e-5
-1.385, 6.693e-5
-1.386, 6.707e-5
-1.387, 6.724e-5
-1.388, 6.749e-5
-1.389, 6.770e-5
-1.390, 6.787e-5
-1.391, 6.809e-5
-1.392, 6.838e-5
-1.393, 6.857e-5
-1.394, 6.866e-5
-1.395, 6.881e-5
-1.396, 6.891e-5
-1.397, 6.912e-5
-1.398, 6.935e-5
-1.399, 6.943e-5
-1.400, 6.962e-5
-1.401, 6.997e-5
-1.402, 7.023e-5
-1.403, 7.035e-5
-1.404, 7.048e-5
-1.405, 7.067e-5
-1.406, 7.083e-5
-1.407, 7.104e-5
-1.408, 7.130e-5
-1.409, 7.147e-5
-1.410, 7.172e-5
-1.411, 7.180e-5
-1.412, 7.179e-5
-1.413, 7.184e-5
-1.414, 7.197e-5
-1.415, 7.214e-5
-1.416, 7.224e-5
-1.417, 7.241e-5
-1.418, 7.260e-5
-1.419, 7.289e-5
-1.420, 7.339e-5
-1.421, 7.363e-5
-1.422, 7.365e-5
-1.423, 7.374e-5
-1.424, 7.373e-5
-1.425, 7.386e-5
-1.426, 7.403e-5
-1.427, 7.428e-5
-1.428, 7.474e-5
-1.429, 7.533e-5
-1.430, 7.559e-5
-1.431, 7.566e-5
-1.432, 7.592e-5
-1.433, 7.592e-5
-1.434, 7.581e-5
-1.435, 7.599e-5
-1.436, 7.619e-5
-1.437, 7.656e-5
-1.438, 7.670e-5
-1.439, 7.682e-5
-1.440, 7.700e-5
-1.441, 7.720e-5
-1.442, 7.746e-5
-1.443, 7.755e-5
-1.444, 7.778e-5
-1.445, 7.819e-5
-1.446, 7.861e-5
-1.447, 7.891e-5
-1.448, 7.929e-5
-1.449, 7.966e-5
-1.450, 7.998e-5
-1.451, 8.015e-5
-1.452, 8.027e-5
-1.453, 8.056e-5
-1.454, 8.054e-5
-1.455, 8.064e-5
-1.456, 8.110e-5
-1.457, 8.137e-5
-1.458, 8.149e-5
-1.459, 8.139e-5
-1.460, 8.156e-5
-1.461, 8.170e-5
-1.462, 8.198e-5
-1.463, 8.214e-5
-1.464, 8.229e-5
-1.465, 8.233e-5
-1.466, 8.258e-5
-1.467, 8.272e-5
-1.468, 8.287e-5
-1.469, 8.309e-5
-1.470, 8.321e-5
-1.471, 8.322e-5
-1.472, 8.339e-5
-1.473, 8.368e-5
-1.474, 8.384e-5
-1.475, 8.418e-5
-1.476, 8.442e-5
-1.477, 8.475e-5
-1.478, 8.500e-5
-1.479, 8.528e-5
-1.480, 8.553e-5
-1.481, 8.570e-5
-1.482, 8.610e-5
-1.483, 8.656e-5
-1.484, 8.713e-5
-1.485, 8.760e-5
-1.486, 8.788e-5
-1.487, 8.808e-5
-1.488, 8.841e-5
-1.489, 8.874e-5
-1.490, 8.920e-5
-1.491, 8.982e-5
-1.492, 9.028e-5
-1.493, 9.045e-5
-1.494, 9.043e-5
-1.495, 9.065e-5
-1.496, 9.102e-5
-1.497, 9.138e-5
-1.498, 9.203e-5
-1.499, 9.241e-5
-1.500, 9.265e-5
-1.501, 9.322e-5
-1.502, 9.383e-5
-1.503, 9.429e-5
-1.504, 9.482e-5
-1.505, 9.530e-5
-1.506, 9.565e-5
-1.507, 9.614e-5
-1.508, 9.661e-5
-1.509, 9.719e-5
-1.510, 9.783e-5
-1.511, 9.850e-5
-1.512, 9.899e-5
-1.513, 9.858e-5
-1.514, 9.830e-5
-1.515, 9.855e-5
-1.516, 9.907e-5
-1.517, 1.000e-4
-1.518, 1.010e-4
-1.519, 1.015e-4
-1.520, 1.022e-4
-1.521, 1.028e-4
-1.522, 1.035e-4
-1.523, 1.049e-4
-1.524, 1.052e-4
-1.525, 1.056e-4
-1.526, 1.062e-4
-1.527, 1.070e-4
-1.528, 1.077e-4
-1.529, 1.080e-4
-1.530, 1.085e-4
-1.531, 1.094e-4
-1.532, 1.099e-4
-1.533, 1.103e-4
-1.534, 1.110e-4
-1.535, 1.118e-4
-1.536, 1.127e-4
-1.537, 1.136e-4
-1.538, 1.144e-4
-1.539, 1.151e-4
-1.540, 1.160e-4
-1.541, 1.167e-4
-1.542, 1.171e-4
-1.543, 1.178e-4
-1.544, 1.182e-4
-1.545, 1.188e-4
-1.546, 1.196e-4
-1.547, 1.207e-4
-1.548, 1.216e-4
-1.549, 1.225e-4
-1.550, 1.233e-4
-1.551, 1.244e-4
-1.552, 1.250e-4
-1.553, 1.253e-4
-1.554, 1.262e-4
-1.555, 1.271e-4
-1.556, 1.273e-4
-1.557, 1.277e-4
-1.558, 1.283e-4
-1.559, 1.292e-4
-1.560, 1.302e-4
-1.561, 1.317e-4
-1.562, 1.321e-4
-1.563, 1.329e-4
-1.564, 1.340e-4
-1.565, 1.350e-4
-1.566, 1.361e-4
-1.567, 1.367e-4
-1.568, 1.379e-4
-1.569, 1.388e-4
-1.570, 1.393e-4
-1.571, 1.408e-4
-1.572, 1.422e-4
-1.573, 1.428e-4
-1.574, 1.438e-4
-1.575, 1.448e-4
-1.576, 1.458e-4
-1.577, 1.467e-4
-1.578, 1.472e-4
-1.579, 1.486e-4
-1.580, 1.502e-4
-1.581, 1.512e-4
-1.582, 1.527e-4
-1.583, 1.538e-4
-1.584, 1.548e-4
-1.585, 1.564e-4
-1.586, 1.573e-4
-1.587, 1.583e-4
-1.588, 1.599e-4
-1.589, 1.619e-4
-1.590, 1.628e-4
-1.591, 1.638e-4
-1.592, 1.653e-4
-1.593, 1.662e-4
-1.594, 1.672e-4
-1.595, 1.686e-4
-1.596, 1.700e-4
-1.597, 1.712e-4
-1.598, 1.726e-4
-1.599, 1.748e-4
-1.600, 1.763e-4
-1.601, 1.771e-4
-1.602, 1.785e-4
-1.603, 1.802e-4
-1.604, 1.813e-4
-1.605, 1.825e-4
-1.606, 1.835e-4
-1.607, 1.851e-4
-1.608, 1.865e-4
-1.609, 1.878e-4
-1.610, 1.893e-4
-1.611, 1.908e-4
-1.612, 1.932e-4
-1.613, 1.948e-4
-1.614, 1.960e-4
-1.615, 1.974e-4
-1.616, 1.988e-4
-1.617, 2.009e-4
-1.618, 2.031e-4
-1.619, 2.048e-4
-1.620, 2.062e-4
-1.621, 2.082e-4
-1.622, 2.097e-4
-1.623, 2.116e-4
-1.624, 2.133e-4
-1.625, 2.149e-4
-1.626, 2.175e-4
-1.627, 2.196e-4
-1.628, 2.203e-4
-1.629, 2.222e-4
-1.630, 2.239e-4
-1.631, 2.259e-4
-1.632, 2.286e-4
-1.633, 2.313e-4
-1.634, 2.334e-4
-1.635, 2.359e-4
-1.636, 2.381e-4
-1.637, 2.403e-4
-1.638, 2.429e-4
-1.639, 2.451e-4
-1.640, 2.474e-4
-1.641, 2.502e-4
-1.642, 2.535e-4
-1.643, 2.566e-4
-1.644, 2.593e-4
-1.645, 2.619e-4
-1.646, 2.644e-4
-1.647, 2.670e-4
-1.648, 2.700e-4
-1.649, 2.732e-4
-1.650, 2.765e-4
-1.651, 2.802e-4
-1.652, 2.840e-4
-1.653, 2.868e-4
-1.654, 2.902e-4
-1.655, 2.934e-4
-1.656, 2.967e-4
-1.657, 3.000e-4
-1.658, 3.041e-4
-1.659, 3.078e-4
-1.660, 3.112e-4
-1.661, 3.145e-4
-1.662, 3.180e-4
-1.663, 3.216e-4
-1.664, 3.252e-4
-1.665, 3.290e-4
-1.666, 3.331e-4
-1.667, 3.373e-4
-1.668, 3.415e-4
-1.669, 3.456e-4
-1.670, 3.497e-4
-1.671, 3.537e-4
-1.672, 3.579e-4
-1.673, 3.626e-4
-1.674, 3.670e-4
-1.675, 3.710e-4
-1.676, 3.754e-4
-1.677, 3.806e-4
-1.678, 3.857e-4
-1.679, 3.906e-4
-1.680, 3.955e-4
-1.681, 4.002e-4
-1.682, 4.052e-4
-1.683, 4.101e-4
-1.684, 4.152e-4
-1.685, 4.207e-4
-1.686, 4.264e-4
-1.687, 4.325e-4
-1.688, 4.376e-4
-1.689, 4.427e-4
-1.690, 4.481e-4
-1.691, 4.532e-4
-1.692, 4.583e-4
-1.693, 4.638e-4
-1.694, 4.690e-4
-1.695, 4.753e-4
-1.696, 4.819e-4
-1.697, 4.879e-4
-1.698, 4.940e-4
-1.699, 4.998e-4
-1.700, 5.056e-4
-1.701, 5.111e-4
-1.702, 5.164e-4
-1.703, 5.219e-4
-1.704, 5.286e-4
-1.705, 5.347e-4
-1.706, 5.407e-4
-1.707, 5.471e-4
-1.708, 5.534e-4
-1.709, 5.601e-4
-1.710, 5.665e-4
-1.711, 5.731e-4
-1.712, 5.796e-4
-1.713, 5.863e-4
-1.714, 5.926e-4
-1.715, 5.992e-4
-1.716, 6.062e-4
-1.717, 6.130e-4
-1.718, 6.194e-4
-1.719, 6.262e-4
-1.720, 6.329e-4
-1.721, 6.392e-4
-1.722, 6.457e-4
-1.723, 6.525e-4
-1.724, 6.593e-4
-1.725, 6.667e-4
-1.726, 6.742e-4
-1.727, 6.816e-4
-1.728, 6.896e-4
-1.729, 6.976e-4
-1.730, 7.051e-4
-1.731, 7.127e-4
-1.732, 7.200e-4
-1.733, 7.280e-4
-1.734, 7.356e-4
-1.735, 7.433e-4
-1.736, 7.512e-4
-1.737, 7.589e-4
-1.738, 7.664e-4
-1.739, 7.737e-4
-1.740, 7.813e-4
-1.741, 7.892e-4
-1.742, 7.975e-4
-1.743, 8.056e-4
-1.744, 8.140e-4
-1.745, 8.222e-4
-1.746, 8.304e-4
-1.747, 8.385e-4
-1.748, 8.467e-4
-1.749, 8.550e-4
-1.750, 8.635e-4
-1.751, 8.719e-4
-1.752, 8.802e-4
-1.753, 8.885e-4
-1.754, 8.969e-4
-1.755, 9.057e-4
-1.756, 9.142e-4
-1.757, 9.226e-4
-1.758, 9.314e-4
-1.759, 9.401e-4
-1.760, 9.489e-4
-1.761, 9.576e-4
-1.762, 9.666e-4
-1.763, 9.760e-4
-1.764, 9.853e-4
-1.765, 9.943e-4
-1.766, 1.003e-3
-1.767, 1.010e-3
-1.768, 1.011e-3
-1.769, 1.011e-3
-1.770, 1.011e-3
-1.771, 1.011e-3
-1.772, 1.011e-3
-1.773, 1.011e-3
-1.774, 1.011e-3
-1.775, 1.011e-3
-1.776, 1.011e-3
-1.777, 1.011e-3
-1.778, 1.011e-3
-1.779, 1.011e-3
-1.780, 1.011e-3
-1.781, 1.011e-3
-1.782, 1.011e-3
-1.783, 1.011e-3
-1.784, 1.011e-3
-1.785, 1.011e-3
-1.786, 1.011e-3
-1.787, 1.011e-3
-1.788, 1.011e-3
-1.789, 1.011e-3
-1.790, 1.011e-3
-1.791, 1.011e-3
-1.792, 1.011e-3
-1.793, 1.011e-3
-1.794, 1.011e-3
-1.795, 1.011e-3
-1.796, 1.011e-3
-1.797, 1.011e-3
-1.798, 1.011e-3
-1.799, 1.011e-3
-1.800, 1.011e-3
-1.801, 1.011e-3
-1.802, 1.011e-3
-1.803, 1.011e-3
-1.804, 1.011e-3
-1.805, 1.011e-3
-1.806, 1.011e-3
-1.807, 1.011e-3
-1.808, 1.011e-3
-1.809, 1.011e-3
-1.810, 1.011e-3
-1.811, 1.011e-3
-1.812, 1.011e-3
-1.813, 1.011e-3
-1.814, 1.011e-3
-1.815, 1.011e-3
-1.816, 1.011e-3
-1.817, 1.011e-3
-1.818, 1.011e-3
-1.819, 1.011e-3
-1.820, 1.011e-3
-1.821, 1.011e-3
-1.822, 1.011e-3
-1.823, 1.011e-3
-1.824, 1.011e-3
-1.825, 1.011e-3
-1.826, 1.011e-3
-1.827, 1.011e-3
-1.828, 1.011e-3
-1.829, 1.011e-3
-1.830, 1.011e-3
-1.831, 1.011e-3
-1.832, 1.011e-3
-1.833, 1.011e-3
-1.834, 1.011e-3
-1.835, 1.011e-3
-1.836, 1.011e-3
-1.837, 1.011e-3
-1.838, 1.011e-3
-1.839, 1.011e-3
-1.840, 1.011e-3
-1.841, 1.011e-3
-1.842, 1.011e-3
-1.843, 1.011e-3
-1.844, 1.011e-3
-1.845, 1.011e-3
-1.846, 1.011e-3
-1.847, 1.011e-3
-1.848, 1.011e-3
-1.849, 1.011e-3
-1.850, 1.011e-3
-1.851, 1.011e-3
-1.852, 1.011e-3
-1.853, 1.011e-3
-1.854, 1.011e-3
-1.855, 1.011e-3
-1.856, 1.011e-3
-1.857, 1.011e-3
-1.858, 1.011e-3
-1.859, 1.011e-3
-1.860, 1.011e-3
-1.861, 1.011e-3
-1.862, 1.011e-3
-1.863, 1.011e-3
-1.864, 1.011e-3
-1.865, 1.011e-3
-1.866, 1.011e-3
-1.867, 1.011e-3
-1.868, 1.011e-3
-1.869, 1.011e-3
-1.870, 1.011e-3
-1.871, 1.011e-3
-1.872, 1.011e-3
-1.873, 1.011e-3
-1.874, 1.011e-3
-1.875, 1.011e-3
-1.876, 1.011e-3
-1.877, 1.011e-3
-1.878, 1.011e-3
-1.879, 1.011e-3
-1.880, 1.011e-3
-1.881, 1.011e-3
-1.882, 1.011e-3
-1.883, 1.011e-3
-1.884, 1.011e-3
-1.885, 1.011e-3
-1.886, 1.011e-3
-1.887, 1.011e-3
-1.888, 1.011e-3
-1.889, 1.011e-3
-1.890, 1.011e-3
-1.891, 1.011e-3
-1.892, 1.011e-3
-1.893, 1.011e-3
-1.894, 1.011e-3
-1.895, 1.011e-3
-1.896, 1.011e-3
-1.897, 1.011e-3
-1.898, 1.011e-3
-1.899, 1.011e-3
-1.900, 1.011e-3
-1.901, 1.011e-3
-1.902, 1.011e-3
-1.903, 1.011e-3
-1.904, 1.011e-3
-1.905, 1.011e-3
-1.906, 1.011e-3
-1.907, 1.011e-3
-1.908, 1.011e-3
-1.909, 1.011e-3
-1.910, 1.011e-3
-1.911, 1.011e-3
-1.912, 1.011e-3
-1.913, 1.011e-3
-1.914, 1.011e-3
-1.915, 1.011e-3
-1.916, 1.011e-3
-1.917, 1.011e-3
-1.918, 1.011e-3
-1.919, 1.011e-3
-1.920, 1.011e-3
-1.921, 1.011e-3
-1.922, 1.011e-3
-1.923, 1.011e-3
-1.924, 1.011e-3
-1.925, 1.011e-3
-1.926, 1.011e-3
-1.927, 1.011e-3
-1.928, 1.011e-3
-1.929, 1.011e-3
-1.930, 1.011e-3
-1.931, 1.011e-3
-1.932, 1.011e-3
-1.933, 1.011e-3
-1.934, 1.011e-3
-1.935, 1.011e-3
-1.936, 1.011e-3
-1.937, 1.011e-3
-1.938, 1.011e-3
-1.939, 1.011e-3
-1.940, 1.011e-3
-1.941, 1.011e-3
-1.942, 1.011e-3
-1.943, 1.011e-3
-1.944, 1.011e-3
-1.945, 1.011e-3
-1.946, 1.011e-3
-1.947, 1.011e-3
-1.948, 1.011e-3
-1.949, 1.011e-3
-1.950, 1.011e-3
-1.951, 1.011e-3
-1.952, 1.011e-3
-1.953, 1.011e-3
-1.954, 1.011e-3
-1.955, 1.011e-3
-1.956, 1.011e-3
-1.957, 1.011e-3
-1.958, 1.011e-3
-1.959, 1.011e-3
-1.960, 1.011e-3
-1.961, 1.011e-3
-1.962, 1.011e-3
-1.963, 1.011e-3
-1.964, 1.011e-3
-1.965, 1.011e-3
-1.966, 1.011e-3
-1.967, 1.011e-3
-1.968, 1.011e-3
-1.969, 1.011e-3
-1.970, 1.011e-3
-1.971, 1.011e-3
-1.972, 1.011e-3
-1.973, 1.011e-3
-1.974, 1.011e-3
-1.975, 1.011e-3
-1.976, 1.011e-3
-1.977, 1.011e-3
-1.978, 1.011e-3
-1.979, 1.011e-3
-1.980, 1.011e-3
-1.981, 1.011e-3
-1.982, 1.011e-3
-1.983, 1.011e-3
-1.984, 1.011e-3
-1.985, 1.011e-3
-1.986, 1.011e-3
-1.987, 1.011e-3
-1.988, 1.011e-3
-1.989, 1.011e-3
-1.990, 1.011e-3
-1.991, 1.011e-3
-1.992, 1.011e-3
-1.993, 1.011e-3
-1.994, 1.011e-3
-1.995, 1.011e-3
-1.996, 1.011e-3
-1.997, 1.011e-3
-1.998, 1.011e-3
-1.999, 1.011e-3
-2.000, 1.011e-3
-2.001, 1.011e-3
-2.002, 1.011e-3
-2.003, 1.011e-3
-2.004, 1.011e-3
-2.005, 1.011e-3
-2.006, 1.011e-3
-2.007, 1.011e-3
-2.008, 1.011e-3
-2.009, 1.011e-3
-2.010, 1.011e-3
-2.011, 1.011e-3
-2.012, 1.011e-3
-2.013, 1.011e-3
-2.014, 1.011e-3
-2.015, 1.011e-3
-2.016, 1.011e-3
-2.017, 1.011e-3
-2.018, 1.011e-3
-2.019, 1.011e-3
-2.020, 1.011e-3
-2.021, 1.011e-3
-2.022, 1.011e-3
-2.023, 1.011e-3
-2.024, 1.011e-3
-2.025, 1.011e-3
-2.026, 1.011e-3
-2.027, 1.011e-3
-2.028, 1.011e-3
-2.029, 1.011e-3
-2.030, 1.011e-3
-2.031, 1.011e-3
-2.032, 1.011e-3
-2.033, 1.011e-3
-2.034, 1.011e-3
-2.035, 1.011e-3
-2.036, 1.011e-3
-2.037, 1.011e-3
-2.038, 1.011e-3
-2.039, 1.011e-3
-2.040, 1.011e-3
-2.041, 1.011e-3
-2.042, 1.011e-3
-2.043, 1.011e-3
-2.044, 1.011e-3
-2.045, 1.011e-3
-2.046, 1.011e-3
-2.047, 1.011e-3
-2.048, 1.011e-3
-2.049, 1.011e-3
-2.050, 1.011e-3
-2.051, 1.011e-3
-2.052, 1.011e-3
-2.053, 1.011e-3
-2.054, 1.011e-3
-2.055, 1.011e-3
-2.056, 1.011e-3
-2.057, 1.011e-3
-2.058, 1.011e-3
-2.059, 1.011e-3
-2.060, 1.011e-3
-2.061, 1.011e-3
-2.062, 1.011e-3
-2.063, 1.011e-3
-2.064, 1.011e-3
-2.065, 1.011e-3
-2.066, 1.011e-3
-2.067, 1.011e-3
-2.068, 1.011e-3
-2.069, 1.011e-3
-2.070, 1.011e-3
-2.071, 1.011e-3
-2.072, 1.011e-3
-2.073, 1.011e-3
-2.074, 1.011e-3
-2.075, 1.011e-3
-2.076, 1.011e-3
-2.077, 1.011e-3
-2.078, 1.011e-3
-2.079, 1.011e-3
-2.080, 1.011e-3
-2.081, 1.011e-3
-2.082, 1.011e-3
-2.083, 1.011e-3
-2.084, 1.011e-3
-2.085, 1.011e-3
-2.086, 1.011e-3
-2.087, 1.011e-3
-2.088, 1.011e-3
-2.089, 1.011e-3
-2.090, 1.011e-3
-2.091, 1.011e-3
-2.092, 1.011e-3
-2.093, 1.011e-3
-2.094, 1.011e-3
-2.095, 1.011e-3
-2.096, 1.011e-3
-2.097, 1.011e-3
-2.098, 1.011e-3
-2.099, 1.011e-3
-2.100, 1.011e-3
-2.101, 1.011e-3
-2.102, 1.011e-3
-2.103, 1.011e-3
-2.104, 1.011e-3
-2.105, 1.011e-3
-2.106, 1.011e-3
-2.107, 1.011e-3
-2.108, 1.011e-3
-2.109, 1.011e-3
-2.110, 1.011e-3
-2.111, 1.011e-3
-2.112, 1.011e-3
-2.113, 1.011e-3
-2.114, 1.011e-3
-2.115, 1.011e-3
-2.116, 1.011e-3
-2.117, 1.011e-3
-2.118, 1.011e-3
-2.119, 1.011e-3
-2.120, 1.011e-3
-2.121, 1.011e-3
-2.122, 1.011e-3
-2.123, 1.011e-3
-2.124, 1.011e-3
-2.125, 1.011e-3
-2.126, 1.011e-3
-2.127, 1.011e-3
-2.128, 1.011e-3
-2.129, 1.011e-3
-2.130, 1.011e-3
-2.131, 1.011e-3
-2.132, 1.011e-3
-2.133, 1.011e-3
-2.134, 1.011e-3
-2.135, 1.011e-3
-2.136, 1.011e-3
-2.137, 1.011e-3
-2.138, 1.011e-3
-2.139, 1.011e-3
-2.140, 1.011e-3
-2.141, 1.011e-3
-2.142, 1.011e-3
-2.143, 1.011e-3
-2.144, 1.011e-3
-2.145, 1.011e-3
-2.146, 1.011e-3
-2.147, 1.011e-3
-2.148, 1.011e-3
-2.149, 1.011e-3
-2.150, 1.011e-3
-2.151, 1.011e-3
-2.152, 1.011e-3
-2.153, 1.011e-3
-2.154, 1.011e-3
-2.155, 1.011e-3
-2.156, 1.011e-3
-2.157, 1.011e-3
-2.158, 1.011e-3
-2.159, 1.011e-3
-2.160, 1.011e-3
-2.161, 1.011e-3
-2.162, 1.011e-3
-2.163, 1.011e-3
-2.164, 1.011e-3
-2.165, 1.011e-3
-2.166, 1.011e-3
-2.167, 1.011e-3
-2.168, 1.011e-3
-2.169, 1.011e-3
-2.170, 1.011e-3
-2.171, 1.011e-3
-2.172, 1.011e-3
-2.173, 1.011e-3
-2.174, 1.011e-3
-2.175, 1.011e-3
-2.176, 1.011e-3
-2.177, 1.011e-3
-2.178, 1.011e-3
-2.179, 1.011e-3
-2.180, 1.011e-3
-2.181, 1.011e-3
-2.182, 1.011e-3
-2.183, 1.011e-3
-2.184, 1.011e-3
-2.185, 1.011e-3
-2.186, 1.011e-3
-2.187, 1.011e-3
-2.188, 1.011e-3
-2.189, 1.011e-3
-2.190, 1.011e-3
-2.191, 1.011e-3
-2.192, 1.011e-3
-2.193, 1.011e-3
-2.194, 1.011e-3
-2.195, 1.011e-3
-2.196, 1.011e-3
-2.197, 1.011e-3
-2.198, 1.011e-3
-2.199, 1.011e-3
-2.200, 1.011e-3
-2.201, 1.011e-3
-2.202, 1.011e-3
-2.203, 1.011e-3
-2.204, 1.011e-3
-2.205, 1.011e-3
-2.206, 1.011e-3
-2.207, 1.011e-3
-2.208, 1.011e-3
-2.209, 1.011e-3
-2.210, 1.011e-3
-2.211, 1.011e-3
-2.212, 1.011e-3
-2.213, 1.011e-3
-2.214, 1.011e-3
-2.215, 1.011e-3
-2.216, 1.011e-3
-2.217, 1.011e-3
-2.218, 1.011e-3
-2.219, 1.011e-3
-2.220, 1.011e-3
-2.221, 1.011e-3
-2.222, 1.011e-3
-2.223, 1.011e-3
-2.224, 1.011e-3
-2.225, 1.011e-3
-2.226, 1.011e-3
-2.227, 1.011e-3
-2.228, 1.011e-3
-2.229, 1.011e-3
-2.230, 1.011e-3
-2.231, 1.011e-3
-2.232, 1.011e-3
-2.233, 1.011e-3
-2.234, 1.011e-3
-2.235, 1.011e-3
-2.236, 1.011e-3
-2.237, 1.011e-3
-2.238, 1.011e-3
-2.239, 1.011e-3
-2.240, 1.011e-3
-2.241, 1.011e-3
-2.242, 1.011e-3
-2.243, 1.011e-3
-2.244, 1.011e-3
-2.245, 1.011e-3
-2.246, 1.011e-3
-2.247, 1.011e-3
-2.248, 1.011e-3
-2.249, 1.011e-3
-2.250, 1.011e-3
-2.251, 1.011e-3
-2.252, 1.011e-3
-2.253, 1.011e-3
-2.254, 1.011e-3
-2.255, 1.011e-3
-2.256, 1.011e-3
-2.257, 1.011e-3
-2.258, 1.011e-3
-2.259, 1.011e-3
-2.260, 1.011e-3
-2.261, 1.011e-3
-2.262, 1.011e-3
-2.263, 1.011e-3
-2.264, 1.011e-3
-2.265, 1.011e-3
-2.266, 1.011e-3
-2.267, 1.011e-3
-2.268, 1.011e-3
-2.269, 1.011e-3
-2.270, 1.011e-3
-2.271, 1.011e-3
-2.272, 1.011e-3
-2.273, 1.011e-3
-2.274, 1.011e-3
-2.275, 1.011e-3
-2.276, 1.011e-3
-2.277, 1.011e-3
-2.278, 1.011e-3
-2.279, 1.011e-3
-2.280, 1.011e-3
-2.281, 1.011e-3
-2.282, 1.011e-3
-2.283, 1.011e-3
-2.284, 1.011e-3
-2.285, 1.011e-3
-2.286, 1.011e-3
-2.287, 1.011e-3
-2.288, 1.011e-3
-2.289, 1.011e-3
-2.290, 1.011e-3
-2.291, 1.011e-3
-2.292, 1.011e-3
-2.293, 1.011e-3
-2.294, 1.011e-3
-2.295, 1.011e-3
-2.296, 1.011e-3
-2.297, 1.011e-3
-2.298, 1.011e-3
-2.299, 1.011e-3
