Apr. 5, 2025   11:10:17
Cyclic Voltammetry
File: c:/users/guazh/data/banditlqround7_x0exp994_r5/2025-03-28-exp989\exp989-2025-04-05t10_58_42-arkoh\exp989_cv_sr_600mvs_efin_-1500mv.bin
Data Source:  Experiment
Instrument Model:  CHI760E
Header: CV ran at 600 mVs
Note: 

Init E (V) = -1
High E (V) = -1
Low E (V) = -1.5
Final E (V) = -1
Init P/N = N
Scan Rate (V/s) = 0.6
Segment = 3
Sample Interval (V) = 0.001
Quiet Time (sec) = 2
Sensitivity (A/V) = 0.01
Comp R (ohm) = 1.6

Results:

Channel 1:
Segment 1:

Segment 2:

Segment 3:

Potential/V, Current/A

-1.000, 1.557e-5
-1.001, 4.949e-5
-1.002, 5.565e-5
-1.003, 6.490e-5
-1.004, 6.798e-5
-1.005, 7.415e-5
-1.006, 7.723e-5
-1.007, 8.032e-5
-1.008, 8.340e-5
-1.009, 8.648e-5
-1.010, 8.648e-5
-1.011, 8.957e-5
-1.012, 9.265e-5
-1.013, 9.265e-5
-1.014, 9.573e-5
-1.015, 9.882e-5
-1.016, 1.019e-4
-1.017, 1.050e-4
-1.018, 1.081e-4
-1.019, 1.081e-4
-1.020, 1.111e-4
-1.021, 1.142e-4
-1.022, 1.142e-4
-1.023, 1.173e-4
-1.024, 1.204e-4
-1.025, 1.235e-4
-1.026, 1.266e-4
-1.027, 1.296e-4
-1.028, 1.296e-4
-1.029, 1.327e-4
-1.030, 1.358e-4
-1.031, 1.358e-4
-1.032, 1.389e-4
-1.033, 1.420e-4
-1.034, 1.451e-4
-1.035, 1.481e-4
-1.036, 1.512e-4
-1.037, 1.543e-4
-1.038, 1.574e-4
-1.039, 1.605e-4
-1.040, 1.605e-4
-1.041, 1.636e-4
-1.042, 1.666e-4
-1.043, 1.666e-4
-1.044, 1.728e-4
-1.045, 1.759e-4
-1.046, 1.790e-4
-1.047, 1.851e-4
-1.048, 1.851e-4
-1.049, 1.882e-4
-1.050, 1.913e-4
-1.051, 1.944e-4
-1.052, 1.944e-4
-1.053, 1.975e-4
-1.054, 2.036e-4
-1.055, 2.067e-4
-1.056, 2.098e-4
-1.057, 2.129e-4
-1.058, 2.160e-4
-1.059, 2.191e-4
-1.060, 2.221e-4
-1.061, 2.221e-4
-1.062, 2.252e-4
-1.063, 2.314e-4
-1.064, 2.345e-4
-1.065, 2.376e-4
-1.066, 2.406e-4
-1.067, 2.437e-4
-1.068, 2.468e-4
-1.069, 2.499e-4
-1.070, 2.530e-4
-1.071, 2.561e-4
-1.072, 2.561e-4
-1.073, 2.591e-4
-1.074, 2.653e-4
-1.075, 2.684e-4
-1.076, 2.715e-4
-1.077, 2.746e-4
-1.078, 2.776e-4
-1.079, 2.776e-4
-1.080, 2.807e-4
-1.081, 2.807e-4
-1.082, 2.838e-4
-1.083, 2.838e-4
-1.084, 2.900e-4
-1.085, 2.931e-4
-1.086, 2.961e-4
-1.087, 2.992e-4
-1.088, 2.992e-4
-1.089, 3.023e-4
-1.090, 3.054e-4
-1.091, 3.054e-4
-1.092, 3.085e-4
-1.093, 3.085e-4
-1.094, 3.115e-4
-1.095, 3.146e-4
-1.096, 3.177e-4
-1.097, 3.208e-4
-1.098, 3.208e-4
-1.099, 3.208e-4
-1.100, 3.239e-4
-1.101, 3.239e-4
-1.102, 3.239e-4
-1.103, 3.239e-4
-1.104, 3.270e-4
-1.105, 3.270e-4
-1.106, 3.300e-4
-1.107, 3.331e-4
-1.108, 3.362e-4
-1.109, 3.362e-4
-1.110, 3.331e-4
-1.111, 3.362e-4
-1.112, 3.331e-4
-1.113, 3.362e-4
-1.114, 3.393e-4
-1.115, 3.393e-4
-1.116, 3.424e-4
-1.117, 3.424e-4
-1.118, 3.455e-4
-1.119, 3.455e-4
-1.120, 3.424e-4
-1.121, 3.455e-4
-1.122, 3.424e-4
-1.123, 3.455e-4
-1.124, 3.455e-4
-1.125, 3.485e-4
-1.126, 3.485e-4
-1.127, 3.516e-4
-1.128, 3.516e-4
-1.129, 3.516e-4
-1.130, 3.485e-4
-1.131, 3.516e-4
-1.132, 3.516e-4
-1.133, 3.485e-4
-1.134, 3.516e-4
-1.135, 3.516e-4
-1.136, 3.547e-4
-1.137, 3.547e-4
-1.138, 3.547e-4
-1.139, 3.547e-4
-1.140, 3.547e-4
-1.141, 3.516e-4
-1.142, 3.516e-4
-1.143, 3.516e-4
-1.144, 3.516e-4
-1.145, 3.547e-4
-1.146, 3.547e-4
-1.147, 3.578e-4
-1.148, 3.578e-4
-1.149, 3.547e-4
-1.150, 3.547e-4
-1.151, 3.547e-4
-1.152, 3.516e-4
-1.153, 3.516e-4
-1.154, 3.516e-4
-1.155, 3.516e-4
-1.156, 3.547e-4
-1.157, 3.547e-4
-1.158, 3.516e-4
-1.159, 3.547e-4
-1.160, 3.516e-4
-1.161, 3.516e-4
-1.162, 3.485e-4
-1.163, 3.485e-4
-1.164, 3.485e-4
-1.165, 3.485e-4
-1.166, 3.516e-4
-1.167, 3.516e-4
-1.168, 3.485e-4
-1.169, 3.485e-4
-1.170, 3.455e-4
-1.171, 3.455e-4
-1.172, 3.455e-4
-1.173, 3.424e-4
-1.174, 3.424e-4
-1.175, 3.424e-4
-1.176, 3.424e-4
-1.177, 3.455e-4
-1.178, 3.455e-4
-1.179, 3.424e-4
-1.180, 3.393e-4
-1.181, 3.393e-4
-1.182, 3.362e-4
-1.183, 3.362e-4
-1.184, 3.331e-4
-1.185, 3.362e-4
-1.186, 3.362e-4
-1.187, 3.331e-4
-1.188, 3.331e-4
-1.189, 3.300e-4
-1.190, 3.300e-4
-1.191, 3.270e-4
-1.192, 3.239e-4
-1.193, 3.270e-4
-1.194, 3.239e-4
-1.195, 3.239e-4
-1.196, 3.239e-4
-1.197, 3.239e-4
-1.198, 3.239e-4
-1.199, 3.208e-4
-1.200, 3.177e-4
-1.201, 3.177e-4
-1.202, 3.146e-4
-1.203, 3.146e-4
-1.204, 3.115e-4
-1.205, 3.115e-4
-1.206, 3.115e-4
-1.207, 3.115e-4
-1.208, 3.115e-4
-1.209, 3.085e-4
-1.210, 3.054e-4
-1.211, 3.054e-4
-1.212, 3.054e-4
-1.213, 3.023e-4
-1.214, 3.023e-4
-1.215, 3.023e-4
-1.216, 3.023e-4
-1.217, 3.023e-4
-1.218, 2.992e-4
-1.219, 2.961e-4
-1.220, 2.961e-4
-1.221, 2.931e-4
-1.222, 2.900e-4
-1.223, 2.900e-4
-1.224, 2.900e-4
-1.225, 2.900e-4
-1.226, 2.900e-4
-1.227, 2.900e-4
-1.228, 2.869e-4
-1.229, 2.900e-4
-1.230, 2.838e-4
-1.231, 2.838e-4
-1.232, 2.807e-4
-1.233, 2.807e-4
-1.234, 2.807e-4
-1.235, 2.807e-4
-1.236, 2.807e-4
-1.237, 2.807e-4
-1.238, 2.776e-4
-1.239, 2.776e-4
-1.240, 2.746e-4
-1.241, 2.715e-4
-1.242, 2.684e-4
-1.243, 2.684e-4
-1.244, 2.684e-4
-1.245, 2.684e-4
-1.246, 2.684e-4
-1.247, 2.684e-4
-1.248, 2.653e-4
-1.249, 2.653e-4
-1.250, 2.622e-4
-1.251, 2.622e-4
-1.252, 2.622e-4
-1.253, 2.622e-4
-1.254, 2.591e-4
-1.255, 2.591e-4
-1.256, 2.591e-4
-1.257, 2.622e-4
-1.258, 2.622e-4
-1.259, 2.591e-4
-1.260, 2.561e-4
-1.261, 2.561e-4
-1.262, 2.530e-4
-1.263, 2.530e-4
-1.264, 2.530e-4
-1.265, 2.530e-4
-1.266, 2.530e-4
-1.267, 2.530e-4
-1.268, 2.530e-4
-1.269, 2.499e-4
-1.270, 2.499e-4
-1.271, 2.499e-4
-1.272, 2.468e-4
-1.273, 2.468e-4
-1.274, 2.468e-4
-1.275, 2.468e-4
-1.276, 2.468e-4
-1.277, 2.499e-4
-1.278, 2.468e-4
-1.279, 2.468e-4
-1.280, 2.468e-4
-1.281, 2.468e-4
-1.282, 2.437e-4
-1.283, 2.437e-4
-1.284, 2.437e-4
-1.285, 2.468e-4
-1.286, 2.468e-4
-1.287, 2.468e-4
-1.288, 2.468e-4
-1.289, 2.468e-4
-1.290, 2.437e-4
-1.291, 2.437e-4
-1.292, 2.437e-4
-1.293, 2.437e-4
-1.294, 2.437e-4
-1.295, 2.468e-4
-1.296, 2.468e-4
-1.297, 2.468e-4
-1.298, 2.468e-4
-1.299, 2.468e-4
-1.300, 2.468e-4
-1.301, 2.468e-4
-1.302, 2.468e-4
-1.303, 2.468e-4
-1.304, 2.499e-4
-1.305, 2.499e-4
-1.306, 2.530e-4
-1.307, 2.530e-4
-1.308, 2.561e-4
-1.309, 2.561e-4
-1.310, 2.561e-4
-1.311, 2.561e-4
-1.312, 2.561e-4
-1.313, 2.591e-4
-1.314, 2.591e-4
-1.315, 2.622e-4
-1.316, 2.653e-4
-1.317, 2.684e-4
-1.318, 2.684e-4
-1.319, 2.715e-4
-1.320, 2.715e-4
-1.321, 2.746e-4
-1.322, 2.776e-4
-1.323, 2.776e-4
-1.324, 2.807e-4
-1.325, 2.869e-4
-1.326, 2.900e-4
-1.327, 2.931e-4
-1.328, 2.961e-4
-1.329, 2.992e-4
-1.330, 3.023e-4
-1.331, 3.085e-4
-1.332, 3.115e-4
-1.333, 3.177e-4
-1.334, 3.208e-4
-1.335, 3.270e-4
-1.336, 3.362e-4
-1.337, 3.424e-4
-1.338, 3.485e-4
-1.339, 3.547e-4
-1.340, 3.609e-4
-1.341, 3.670e-4
-1.342, 3.763e-4
-1.343, 3.855e-4
-1.344, 3.948e-4
-1.345, 4.071e-4
-1.346, 4.164e-4
-1.347, 4.287e-4
-1.348, 4.410e-4
-1.349, 4.534e-4
-1.350, 4.657e-4
-1.351, 4.811e-4
-1.352, 4.965e-4
-1.353, 5.120e-4
-1.354, 5.305e-4
-1.355, 5.489e-4
-1.356, 5.705e-4
-1.357, 5.921e-4
-1.358, 6.168e-4
-1.359, 6.414e-4
-1.360, 6.661e-4
-1.361, 6.939e-4
-1.362, 7.216e-4
-1.363, 7.524e-4
-1.364, 7.894e-4
-1.365, 8.264e-4
-1.366, 8.665e-4
-1.367, 9.066e-4
-1.368, 9.498e-4
-1.369, 9.929e-4
-1.370, 1.039e-3
-1.371, 1.092e-3
-1.372, 1.141e-3
-1.373, 1.196e-3
-1.374, 1.252e-3
-1.375, 1.314e-3
-1.376, 1.375e-3
-1.377, 1.440e-3
-1.378, 1.505e-3
-1.379, 1.573e-3
-1.380, 1.643e-3
-1.381, 1.717e-3
-1.382, 1.791e-3
-1.383, 1.865e-3
-1.384, 1.946e-3
-1.385, 2.026e-3
-1.386, 2.109e-3
-1.387, 2.195e-3
-1.388, 2.285e-3
-1.389, 2.374e-3
-1.390, 2.464e-3
-1.391, 2.553e-3
-1.392, 2.639e-3
-1.393, 2.732e-3
-1.394, 2.821e-3
-1.395, 2.911e-3
-1.396, 3.003e-3
-1.397, 3.096e-3
-1.398, 3.185e-3
-1.399, 3.271e-3
-1.400, 3.358e-3
-1.401, 3.444e-3
-1.402, 3.530e-3
-1.403, 3.614e-3
-1.404, 3.703e-3
-1.405, 3.789e-3
-1.406, 3.879e-3
-1.407, 3.968e-3
-1.408, 4.058e-3
-1.409, 4.147e-3
-1.410, 4.239e-3
-1.411, 4.326e-3
-1.412, 4.412e-3
-1.413, 4.495e-3
-1.414, 4.582e-3
-1.415, 4.665e-3
-1.416, 4.748e-3
-1.417, 4.831e-3
-1.418, 4.915e-3
-1.419, 4.998e-3
-1.420, 5.078e-3
-1.421, 5.158e-3
-1.422, 5.238e-3
-1.423, 5.322e-3
-1.424, 5.408e-3
-1.425, 5.500e-3
-1.426, 5.593e-3
-1.427, 5.685e-3
-1.428, 5.781e-3
-1.429, 5.870e-3
-1.430, 5.960e-3
-1.431, 6.052e-3
-1.432, 6.139e-3
-1.433, 6.228e-3
-1.434, 6.317e-3
-1.435, 6.410e-3
-1.436, 6.499e-3
-1.437, 6.589e-3
-1.438, 6.675e-3
-1.439, 6.761e-3
-1.440, 6.848e-3
-1.441, 6.934e-3
-1.442, 7.020e-3
-1.443, 7.110e-3
-1.444, 7.202e-3
-1.445, 7.298e-3
-1.446, 7.390e-3
-1.447, 7.486e-3
-1.448, 7.578e-3
-1.449, 7.677e-3
-1.450, 7.773e-3
-1.451, 7.871e-3
-1.452, 7.967e-3
-1.453, 8.062e-3
-1.454, 8.155e-3
-1.455, 8.247e-3
-1.456, 8.340e-3
-1.457, 8.436e-3
-1.458, 8.525e-3
-1.459, 8.621e-3
-1.460, 8.719e-3
-1.461, 8.815e-3
-1.462, 8.913e-3
-1.463, 9.006e-3
-1.464, 9.098e-3
-1.465, 9.194e-3
-1.466, 9.296e-3
-1.467, 9.404e-3
-1.468, 9.515e-3
-1.469, 9.619e-3
-1.470, 9.721e-3
-1.471, 9.820e-3
-1.472, 9.915e-3
-1.473, 1.001e-2
-1.474, 1.011e-2
-1.475, 1.022e-2
-1.476, 1.033e-2
-1.477, 1.043e-2
-1.478, 1.052e-2
-1.479, 1.062e-2
-1.480, 1.071e-2
-1.481, 1.080e-2
-1.482, 1.090e-2
-1.483, 1.099e-2
-1.484, 1.110e-2
-1.485, 1.120e-2
-1.486, 1.130e-2
-1.487, 1.140e-2
-1.488, 1.151e-2
-1.489, 1.161e-2
-1.490, 1.172e-2
-1.491, 1.183e-2
-1.492, 1.193e-2
-1.493, 1.204e-2
-1.494, 1.214e-2
-1.495, 1.224e-2
-1.496, 1.234e-2
-1.497, 1.245e-2
-1.498, 1.255e-2
-1.499, 1.266e-2
-1.500, 1.269e-2
-1.499, 1.260e-2
-1.498, 1.250e-2
-1.497, 1.240e-2
-1.496, 1.230e-2
-1.495, 1.219e-2
-1.494, 1.210e-2
-1.493, 1.201e-2
-1.492, 1.192e-2
-1.491, 1.182e-2
-1.490, 1.174e-2
-1.489, 1.166e-2
-1.488, 1.158e-2
-1.487, 1.149e-2
-1.486, 1.140e-2
-1.485, 1.130e-2
-1.484, 1.121e-2
-1.483, 1.112e-2
-1.482, 1.103e-2
-1.481, 1.095e-2
-1.480, 1.085e-2
-1.479, 1.076e-2
-1.478, 1.067e-2
-1.477, 1.058e-2
-1.476, 1.050e-2
-1.475, 1.042e-2
-1.474, 1.034e-2
-1.473, 1.026e-2
-1.472, 1.017e-2
-1.471, 1.008e-2
-1.470, 9.974e-3
-1.469, 9.863e-3
-1.468, 9.749e-3
-1.467, 9.632e-3
-1.466, 9.521e-3
-1.465, 9.416e-3
-1.464, 9.314e-3
-1.463, 9.216e-3
-1.462, 9.111e-3
-1.461, 9.006e-3
-1.460, 8.901e-3
-1.459, 8.809e-3
-1.458, 8.719e-3
-1.457, 8.633e-3
-1.456, 8.547e-3
-1.455, 8.463e-3
-1.454, 8.380e-3
-1.453, 8.300e-3
-1.452, 8.223e-3
-1.451, 8.149e-3
-1.450, 8.075e-3
-1.449, 7.995e-3
-1.448, 7.911e-3
-1.447, 7.825e-3
-1.446, 7.733e-3
-1.445, 7.634e-3
-1.444, 7.541e-3
-1.443, 7.458e-3
-1.442, 7.369e-3
-1.441, 7.279e-3
-1.440, 7.187e-3
-1.439, 7.094e-3
-1.438, 7.005e-3
-1.437, 6.916e-3
-1.436, 6.832e-3
-1.435, 6.746e-3
-1.434, 6.660e-3
-1.433, 6.580e-3
-1.432, 6.496e-3
-1.431, 6.413e-3
-1.430, 6.327e-3
-1.429, 6.243e-3
-1.428, 6.163e-3
-1.427, 6.089e-3
-1.426, 6.018e-3
-1.425, 5.947e-3
-1.424, 5.877e-3
-1.423, 5.806e-3
-1.422, 5.735e-3
-1.421, 5.664e-3
-1.420, 5.590e-3
-1.419, 5.513e-3
-1.418, 5.439e-3
-1.417, 5.359e-3
-1.416, 5.278e-3
-1.415, 5.192e-3
-1.414, 5.112e-3
-1.413, 5.032e-3
-1.412, 4.955e-3
-1.411, 4.884e-3
-1.410, 4.810e-3
-1.409, 4.739e-3
-1.408, 4.668e-3
-1.407, 4.597e-3
-1.406, 4.532e-3
-1.405, 4.464e-3
-1.404, 4.400e-3
-1.403, 4.335e-3
-1.402, 4.267e-3
-1.401, 4.199e-3
-1.400, 4.128e-3
-1.399, 4.058e-3
-1.398, 3.987e-3
-1.397, 3.919e-3
-1.396, 3.854e-3
-1.395, 3.789e-3
-1.394, 3.725e-3
-1.393, 3.663e-3
-1.392, 3.598e-3
-1.391, 3.536e-3
-1.390, 3.478e-3
-1.389, 3.419e-3
-1.388, 3.358e-3
-1.387, 3.302e-3
-1.386, 3.244e-3
-1.385, 3.185e-3
-1.384, 3.126e-3
-1.383, 3.065e-3
-1.382, 3.009e-3
-1.381, 2.951e-3
-1.380, 2.889e-3
-1.379, 2.834e-3
-1.378, 2.775e-3
-1.377, 2.723e-3
-1.376, 2.667e-3
-1.375, 2.612e-3
-1.374, 2.562e-3
-1.373, 2.513e-3
-1.372, 2.460e-3
-1.371, 2.411e-3
-1.370, 2.359e-3
-1.369, 2.309e-3
-1.368, 2.257e-3
-1.367, 2.208e-3
-1.366, 2.158e-3
-1.365, 2.112e-3
-1.364, 2.066e-3
-1.363, 2.020e-3
-1.362, 1.976e-3
-1.361, 1.930e-3
-1.360, 1.887e-3
-1.359, 1.844e-3
-1.358, 1.801e-3
-1.357, 1.758e-3
-1.356, 1.714e-3
-1.355, 1.674e-3
-1.354, 1.634e-3
-1.353, 1.594e-3
-1.352, 1.554e-3
-1.351, 1.514e-3
-1.350, 1.477e-3
-1.349, 1.440e-3
-1.348, 1.400e-3
-1.347, 1.363e-3
-1.346, 1.329e-3
-1.345, 1.295e-3
-1.344, 1.261e-3
-1.343, 1.230e-3
-1.342, 1.199e-3
-1.341, 1.169e-3
-1.340, 1.138e-3
-1.339, 1.107e-3
-1.338, 1.073e-3
-1.337, 1.045e-3
-1.336, 1.014e-3
-1.335, 9.868e-4
-1.334, 9.621e-4
-1.333, 9.343e-4
-1.332, 9.066e-4
-1.331, 8.788e-4
-1.330, 8.511e-4
-1.329, 8.264e-4
-1.328, 8.018e-4
-1.327, 7.771e-4
-1.326, 7.524e-4
-1.325, 7.309e-4
-1.324, 7.093e-4
-1.323, 6.877e-4
-1.322, 6.661e-4
-1.321, 6.445e-4
-1.320, 6.260e-4
-1.319, 6.044e-4
-1.318, 5.829e-4
-1.317, 5.644e-4
-1.316, 5.459e-4
-1.315, 5.274e-4
-1.314, 5.089e-4
-1.313, 4.904e-4
-1.312, 4.750e-4
-1.311, 4.595e-4
-1.310, 4.410e-4
-1.309, 4.256e-4
-1.308, 4.102e-4
-1.307, 3.948e-4
-1.306, 3.794e-4
-1.305, 3.670e-4
-1.304, 3.547e-4
-1.303, 3.393e-4
-1.302, 3.270e-4
-1.301, 3.146e-4
-1.300, 2.992e-4
-1.299, 2.869e-4
-1.298, 2.746e-4
-1.297, 2.653e-4
-1.296, 2.530e-4
-1.295, 2.437e-4
-1.294, 2.314e-4
-1.293, 2.221e-4
-1.292, 2.129e-4
-1.291, 2.006e-4
-1.290, 1.913e-4
-1.289, 1.821e-4
-1.288, 1.697e-4
-1.287, 1.636e-4
-1.286, 1.543e-4
-1.285, 1.481e-4
-1.284, 1.389e-4
-1.283, 1.296e-4
-1.282, 1.235e-4
-1.281, 1.142e-4
-1.280, 1.081e-4
-1.279, 9.882e-5
-1.278, 8.957e-5
-1.277, 8.340e-5
-1.276, 7.723e-5
-1.275, 7.107e-5
-1.274, 6.798e-5
-1.273, 6.182e-5
-1.272, 5.565e-5
-1.271, 4.949e-5
-1.270, 4.024e-5
-1.269, 3.715e-5
-1.268, 2.790e-5
-1.267, 2.174e-5
-1.266, 1.865e-5
-1.265, 1.557e-5
-1.264, 9.405e-6
-1.263, 6.322e-6
-1.262, 1.559e-7
-1.261, -2.927e-6
-1.260, -9.093e-6
-1.259, -1.526e-5
-1.258, -2.143e-5
-1.257, -2.451e-5
-1.256, -2.759e-5
-1.255, -3.068e-5
-1.254, -3.068e-5
-1.253, -3.684e-5
-1.252, -3.992e-5
-1.251, -4.301e-5
-1.250, -4.917e-5
-1.249, -5.226e-5
-1.248, -5.534e-5
-1.247, -6.151e-5
-1.246, -6.151e-5
-1.245, -6.459e-5
-1.244, -6.767e-5
-1.243, -7.076e-5
-1.242, -7.384e-5
-1.241, -7.692e-5
-1.240, -8.309e-5
-1.239, -8.617e-5
-1.238, -8.925e-5
-1.237, -8.925e-5
-1.236, -9.234e-5
-1.235, -9.542e-5
-1.234, -9.542e-5
-1.233, -9.850e-5
-1.232, -1.016e-4
-1.231, -1.047e-4
-1.230, -1.078e-4
-1.229, -1.108e-4
-1.228, -1.139e-4
-1.227, -1.170e-4
-1.226, -1.170e-4
-1.225, -1.201e-4
-1.224, -1.201e-4
-1.223, -1.232e-4
-1.222, -1.263e-4
-1.221, -1.263e-4
-1.220, -1.324e-4
-1.219, -1.324e-4
-1.218, -1.355e-4
-1.217, -1.386e-4
-1.216, -1.386e-4
-1.215, -1.417e-4
-1.214, -1.417e-4
-1.213, -1.448e-4
-1.212, -1.448e-4
-1.211, -1.478e-4
-1.210, -1.509e-4
-1.209, -1.540e-4
-1.208, -1.571e-4
-1.207, -1.571e-4
-1.206, -1.602e-4
-1.205, -1.602e-4
-1.204, -1.632e-4
-1.203, -1.632e-4
-1.202, -1.663e-4
-1.201, -1.663e-4
-1.200, -1.694e-4
-1.199, -1.725e-4
-1.198, -1.756e-4
-1.197, -1.787e-4
-1.196, -1.787e-4
-1.195, -1.787e-4
-1.194, -1.787e-4
-1.193, -1.817e-4
-1.192, -1.848e-4
-1.191, -1.848e-4
-1.190, -1.879e-4
-1.189, -1.910e-4
-1.188, -1.941e-4
-1.187, -1.972e-4
-1.186, -1.972e-4
-1.185, -2.002e-4
-1.184, -1.972e-4
-1.183, -2.002e-4
-1.182, -2.033e-4
-1.181, -2.033e-4
-1.180, -2.064e-4
-1.179, -2.095e-4
-1.178, -2.126e-4
-1.177, -2.157e-4
-1.176, -2.157e-4
-1.175, -2.157e-4
-1.174, -2.187e-4
-1.173, -2.187e-4
-1.172, -2.218e-4
-1.171, -2.218e-4
-1.170, -2.249e-4
-1.169, -2.280e-4
-1.168, -2.311e-4
-1.167, -2.311e-4
-1.166, -2.342e-4
-1.165, -2.342e-4
-1.164, -2.342e-4
-1.163, -2.372e-4
-1.162, -2.372e-4
-1.161, -2.403e-4
-1.160, -2.434e-4
-1.159, -2.465e-4
-1.158, -2.496e-4
-1.157, -2.496e-4
-1.156, -2.527e-4
-1.155, -2.527e-4
-1.154, -2.527e-4
-1.153, -2.557e-4
-1.152, -2.557e-4
-1.151, -2.588e-4
-1.150, -2.619e-4
-1.149, -2.619e-4
-1.148, -2.681e-4
-1.147, -2.681e-4
-1.146, -2.712e-4
-1.145, -2.712e-4
-1.144, -2.712e-4
-1.143, -2.712e-4
-1.142, -2.742e-4
-1.141, -2.773e-4
-1.140, -2.804e-4
-1.139, -2.804e-4
-1.138, -2.866e-4
-1.137, -2.866e-4
-1.136, -2.866e-4
-1.135, -2.866e-4
-1.134, -2.897e-4
-1.133, -2.897e-4
-1.132, -2.927e-4
-1.131, -2.927e-4
-1.130, -2.958e-4
-1.129, -2.989e-4
-1.128, -3.020e-4
-1.127, -3.020e-4
-1.126, -3.051e-4
-1.125, -3.051e-4
-1.124, -3.051e-4
-1.123, -3.082e-4
-1.122, -3.082e-4
-1.121, -3.112e-4
-1.120, -3.143e-4
-1.119, -3.174e-4
-1.118, -3.205e-4
-1.117, -3.205e-4
-1.116, -3.236e-4
-1.115, -3.236e-4
-1.114, -3.236e-4
-1.113, -3.236e-4
-1.112, -3.267e-4
-1.111, -3.297e-4
-1.110, -3.297e-4
-1.109, -3.328e-4
-1.108, -3.359e-4
-1.107, -3.390e-4
-1.106, -3.390e-4
-1.105, -3.390e-4
-1.104, -3.390e-4
-1.103, -3.390e-4
-1.102, -3.421e-4
-1.101, -3.421e-4
-1.100, -3.482e-4
-1.099, -3.482e-4
-1.098, -3.513e-4
-1.097, -3.544e-4
-1.096, -3.544e-4
-1.095, -3.544e-4
-1.094, -3.544e-4
-1.093, -3.544e-4
-1.092, -3.575e-4
-1.091, -3.606e-4
-1.090, -3.606e-4
-1.089, -3.637e-4
-1.088, -3.667e-4
-1.087, -3.667e-4
-1.086, -3.698e-4
-1.085, -3.698e-4
-1.084, -3.698e-4
-1.083, -3.698e-4
-1.082, -3.729e-4
-1.081, -3.760e-4
-1.080, -3.760e-4
-1.079, -3.791e-4
-1.078, -3.821e-4
-1.077, -3.821e-4
-1.076, -3.821e-4
-1.075, -3.852e-4
-1.074, -3.852e-4
-1.073, -3.852e-4
-1.072, -3.852e-4
-1.071, -3.883e-4
-1.070, -3.883e-4
-1.069, -3.914e-4
-1.068, -3.945e-4
-1.067, -3.976e-4
-1.066, -3.976e-4
-1.065, -4.006e-4
-1.064, -3.976e-4
-1.063, -4.006e-4
-1.062, -4.006e-4
-1.061, -4.037e-4
-1.060, -4.068e-4
-1.059, -4.068e-4
-1.058, -4.130e-4
-1.057, -4.130e-4
-1.056, -4.130e-4
-1.055, -4.161e-4
-1.054, -4.130e-4
-1.053, -4.161e-4
-1.052, -4.161e-4
-1.051, -4.191e-4
-1.050, -4.222e-4
-1.049, -4.222e-4
-1.048, -4.253e-4
-1.047, -4.284e-4
-1.046, -4.284e-4
-1.045, -4.284e-4
-1.044, -4.315e-4
-1.043, -4.315e-4
-1.042, -4.346e-4
-1.041, -4.376e-4
-1.040, -4.376e-4
-1.039, -4.407e-4
-1.038, -4.438e-4
-1.037, -4.438e-4
-1.036, -4.469e-4
-1.035, -4.469e-4
-1.034, -4.500e-4
-1.033, -4.500e-4
-1.032, -4.500e-4
-1.031, -4.531e-4
-1.030, -4.561e-4
-1.029, -4.592e-4
-1.028, -4.623e-4
-1.027, -4.654e-4
-1.026, -4.654e-4
-1.025, -4.654e-4
-1.024, -4.685e-4
-1.023, -4.685e-4
-1.022, -4.716e-4
-1.021, -4.746e-4
-1.020, -4.777e-4
-1.019, -4.808e-4
-1.018, -4.839e-4
-1.017, -4.870e-4
-1.016, -4.870e-4
-1.015, -4.870e-4
-1.014, -4.901e-4
-1.013, -4.901e-4
-1.012, -4.931e-4
-1.011, -4.962e-4
-1.010, -4.993e-4
-1.009, -5.024e-4
-1.008, -5.055e-4
-1.007, -5.086e-4
-1.006, -5.086e-4
-1.005, -5.086e-4
-1.004, -5.116e-4
-1.003, -5.147e-4
-1.002, -5.178e-4
-1.001, -5.209e-4
