Potential V vs RHE, Current mA cm-2
0.05339999999999995,-0.05182087491405629
0.05239999999999995,-0.0597432581933005
0.051399999999999946,-0.06434106991786188
0.050399999999999945,-0.06789199528052312
0.049399999999999944,-0.07110338993121673
0.04839999999999994,-0.07398940098294142
0.04739999999999994,-0.07667735245268498
0.04639999999999994,-0.07923797990544071
0.04539999999999994,-0.08185519581019103
0.04439999999999994,-0.08438752903694943
0.04339999999999994,-0.0867076555687281
0.04239999999999994,-0.0889570465355135
0.04139999999999994,-0.09120643750229893
0.040399999999999936,-0.09351241692107892
0.039399999999999935,-0.09588913190485218
0.038399999999999934,-0.09811022864564029
0.03739999999999993,-0.10017570714344325
0.03639999999999993,-0.10228362698024217
0.03539999999999993,-0.10439154681704105
0.03439999999999993,-0.10659849644483052
0.03339999999999993,-0.10869226916863078
0.03239999999999993,-0.11072945344043642
0.03139999999999993,-0.11276663771224207
0.030399999999999927,-0.11483211621004503
0.029399999999999926,-0.11705321295083315
0.028399999999999925,-0.11910454433563744
0.027399999999999924,-0.12105684592945118
0.026399999999999924,-0.12306573597525952
0.025399999999999923,-0.12514536158606115
0.024399999999999922,-0.1272108400838641
0.02339999999999992,-0.12927631858166705
0.02239999999999992,-0.13122862017548081
0.02139999999999992,-0.1332233631082905
0.020399999999999918,-0.1353171358320908
0.019399999999999917,-0.13739676144289234
0.018399999999999916,-0.13947638705369397
0.017399999999999916,-0.14144283576050634
0.016399999999999915,-0.1433102546763282
0.015399999999999914,-0.14543232162612577
0.014399999999999913,-0.14755438857592332
0.013399999999999912,-0.1496764555257209
0.012399999999999911,-0.15165705134553195
0.01139999999999991,-0.15363764716534298
0.01039999999999991,-0.15575971411514053
0.009399999999999908,-0.15788178106493808
0.008399999999999908,-0.16000384801473563
0.007399999999999907,-0.16212591496453319
0.006399999999999906,-0.16410651078434427
0.005399999999999905,-0.16622857773414182
0.004399999999999904,-0.16849211581392587
0.003399999999999903,-0.17047271163373692
0.002399999999999902,-0.17245330745354798
0.0013999999999999013,-0.17443390327335903
0.00039999999999990044,-0.1766974413531431
-0.0006000000000001005,-0.17896097943292713
-0.0016000000000001013,-0.18108304638272468
-0.0026000000000001022,-0.18320511333252223
-0.003600000000000103,-0.1854686514123063
-0.004600000000000104,-0.18773218949209036
-0.005600000000000105,-0.1899957275718744
-0.006600000000000106,-0.1922592656516585
-0.007600000000000107,-0.19438133260145604
-0.008600000000000108,-0.1966448706812401
-0.009600000000000108,-0.19890840876102414
-0.01060000000000011,-0.2011719468408082
-0.01160000000000011,-0.2035769560505788
-0.012600000000000111,-0.20584049413036284
-0.013600000000000112,-0.2081040322101469
-0.014600000000000113,-0.21050904141991747
-0.015600000000000114,-0.21291405062968802
-0.016600000000000115,-0.2153190598394586
-0.017600000000000116,-0.21758259791924262
-0.018600000000000116,-0.2198461359990267
-0.019600000000000117,-0.22239261633878374
-0.020600000000000118,-0.22479762554855431
-0.02160000000000012,-0.2273441058883114
-0.02260000000000012,-0.22974911509808196
-0.02360000000000012,-0.2321541243078525
-0.024600000000000122,-0.23470060464760956
-0.025600000000000123,-0.23724708498736666
-0.026600000000000124,-0.2396520941971372
-0.027600000000000124,-0.24219857453689428
-0.028600000000000125,-0.2446035837466648
-0.029600000000000126,-0.2471500640864219
-0.030600000000000127,-0.24983801555616547
-0.03160000000000013,-0.2523844958959225
-0.03260000000000013,-0.25493097623567956
-0.03360000000000013,-0.2574774565754367
-0.03460000000000002,-0.26002393691519377
-0.03560000000000002,-0.2627118883849373
-0.03660000000000002,-0.2653998398546809
-0.03760000000000002,-0.267946320194438
-0.03860000000000002,-0.2706342716641816
-0.039600000000000024,-0.2733222231339251
-0.040600000000000025,-0.27615164573365514
-0.041600000000000026,-0.27883959720339874
-0.04260000000000003,-0.2813860775431558
-0.04360000000000003,-0.2840740290128994
-0.04460000000000003,-0.28676198048264295
-0.04560000000000003,-0.28973287421235955
-0.04660000000000003,-0.2924208256821031
-0.04760000000000003,-0.2952502482818331
-0.04860000000000003,-0.29793819975157676
-0.04960000000000003,-0.3007676223513068
-0.050600000000000034,-0.30373851608102337
-0.051600000000000035,-0.30656793868075344
-0.052600000000000036,-0.30925589015049704
-0.053600000000000037,-0.31208531275022705
-0.05460000000000004,-0.31505620647994365
-0.05560000000000004,-0.31802710020966024
-0.05660000000000004,-0.32099799393937684
-0.05760000000000004,-0.32382741653910685
-0.05860000000000004,-0.326656839138837
-0.05960000000000004,-0.32976920399854004
-0.06060000000000004,-0.33274009772825663
-0.061600000000000044,-0.33571099145797323
-0.06260000000000004,-0.3386818851876898
-0.06360000000000005,-0.3417942500473929
-0.06460000000000005,-0.34490661490709595
-0.06560000000000005,-0.34787750863681255
-0.06660000000000005,-0.3509898734965156
-0.06760000000000005,-0.3539607672262322
-0.06860000000000005,-0.35693166095594875
-0.06960000000000005,-0.36018549694563834
-0.07060000000000005,-0.36329786180534146
-0.07160000000000005,-0.36641022666504447
-0.07260000000000005,-0.3695225915247476
-0.07360000000000005,-0.3724934852544642
-0.07460000000000006,-0.3757473212441537
-0.07560000000000006,-0.37914262836382984
-0.07660000000000006,-0.3822549932235329
-0.07760000000000006,-0.38536735808323597
-0.07860000000000006,-0.3884797229429391
-0.07960000000000006,-0.39187503006261515
-0.08060000000000006,-0.3949873949223182
-0.08160000000000006,-0.39809975978202133
-0.08260000000000006,-0.4013535957717109
-0.08360000000000006,-0.40460743176140046
-0.08460000000000006,-0.4080027388810766
-0.08560000000000006,-0.4113980460007527
-0.08660000000000007,-0.41465188199044223
-0.08760000000000007,-0.4179057179801318
-0.08860000000000007,-0.42130102509980794
-0.08960000000000007,-0.42469633221948405
-0.09060000000000007,-0.4280916393391601
-0.09160000000000007,-0.4313454753288497
-0.09260000000000007,-0.43474078244852576
-0.09360000000000007,-0.43813608956820194
-0.09460000000000007,-0.44167286781786447
-0.09560000000000007,-0.44506817493754053
-0.09660000000000007,-0.4486049531872031
-0.09760000000000008,-0.4520002603068792
-0.09860000000000008,-0.45553703855654176
-0.09960000000000008,-0.45907381680620446
-0.10060000000000008,-0.462610595055867
-0.10160000000000008,-0.4661473733055296
-0.10260000000000008,-0.46954268042520564
-0.10360000000000008,-0.4730794586748682
-0.10460000000000008,-0.47675770805451734
-0.10560000000000008,-0.48029448630418
-0.10660000000000008,-0.4838312645538425
-0.10760000000000008,-0.4873680428035051
-0.10860000000000009,-0.49090482105316774
-0.10960000000000009,-0.49472454156280327
-0.11060000000000009,-0.4984027909424524
-0.11160000000000009,-0.5020810403221014
-0.11260000000000009,-0.505617818571764
-0.11360000000000009,-0.5091545968214266
-0.11460000000000009,-0.5131157884610488
-0.11560000000000009,-0.5169355089706844
-0.11660000000000009,-0.5206137583503335
-0.1176000000000001,-0.5242920077299826
-0.1186000000000001,-0.5279702571096317
-0.1196000000000001,-0.5317899776192673
-0.1206000000000001,-0.5356096981289029
-0.1216000000000001,-0.539287947508552
-0.1226000000000001,-0.5431076680181876
-0.1236000000000001,-0.5469273885278232
-0.1246000000000001,-0.5507471090374588
-0.1256000000000001,-0.5547083006770809
-0.1266000000000001,-0.5585280211867165
-0.1276000000000001,-0.562347741696352
-0.1286000000000001,-0.5663089333359742
-0.1296000000000001,-0.5702701249755963
-0.1306000000000001,-0.5742313166152184
-0.1316000000000001,-0.5781925082548405
-0.1326000000000001,-0.5820122287644761
-0.1336000000000001,-0.5859734204040982
-0.1346000000000001,-0.5899346120437202
-0.1356000000000001,-0.5938958036833424
-0.1366000000000001,-0.597998466452951
-0.1376000000000001,-0.6018181869625866
-0.1386000000000001,-0.6059208497321952
-0.1396000000000001,-0.6100235125018038
-0.1406000000000001,-0.614267646401399
-0.14160000000000011,-0.618228838041021
-0.14260000000000012,-0.6220485585506567
-0.14360000000000012,-0.6261512213202652
-0.14460000000000012,-0.6303953552198603
-0.14560000000000012,-0.6344980179894689
-0.14660000000000012,-0.638742151889064
-0.14760000000000012,-0.6428448146586726
-0.14860000000000012,-0.6469474774282812
-0.14960000000000012,-0.6511916113278763
-0.15060000000000012,-0.6554357452274714
-0.15160000000000012,-0.6596798791270665
-0.15260000000000012,-0.6639240130266617
-0.15360000000000013,-0.6681681469262569
-0.15460000000000013,-0.6725537519558386
-0.15560000000000013,-0.6769393569854201
-0.15660000000000013,-0.6811834908850152
-0.15760000000000013,-0.6854276247846103
-0.15860000000000013,-0.6898132298141919
-0.15960000000000002,-0.6941988348437735
-0.16060000000000002,-0.6988673821333282
-0.16160000000000002,-0.7031115160329233
-0.16260000000000002,-0.7073556499325184
-0.16360000000000002,-0.7118827260920865
-0.16460000000000002,-0.7162683311216681
-0.16560000000000002,-0.7210783495412092
-0.16660000000000003,-0.7260298390907369
-0.16760000000000003,-0.7302739729903319
-0.16860000000000003,-0.7348010491499001
-0.16960000000000003,-0.7393281253094681
-0.17060000000000003,-0.7439966725990228
-0.17160000000000003,-0.7485237487585908
-0.17260000000000003,-0.7529093537881726
-0.17360000000000003,-0.7575779010777272
-0.17460000000000003,-0.7622464483672817
-0.17560000000000003,-0.7669149956568363
-0.17660000000000003,-0.771583542946391
-0.17760000000000004,-0.7762520902359457
-0.17860000000000004,-0.7809206375255002
-0.17960000000000004,-0.7858721270750278
-0.18060000000000004,-0.7905406743645824
-0.18160000000000004,-0.7953506927841236
-0.18260000000000004,-0.8000192400736782
-0.18360000000000004,-0.8048292584932193
-0.18460000000000004,-0.8097807480427469
-0.18560000000000004,-0.8145907664622882
-0.18660000000000004,-0.8194007848818293
-0.18760000000000004,-0.8242108033013704
-0.18860000000000005,-0.8290208217209115
-0.18960000000000005,-0.8341137824004257
-0.19060000000000005,-0.8390652719499533
-0.19160000000000005,-0.8438752903694944
-0.19260000000000005,-0.8488267799190221
-0.19360000000000005,-0.8537782694685497
-0.19460000000000005,-0.8590127012780503
-0.19560000000000005,-0.8641056619575644
-0.19660000000000005,-0.8690571515070921
-0.19760000000000005,-0.8741501121866062
-0.19860000000000005,-0.8792430728661204
-0.19960000000000006,-0.884477504675621
-0.20060000000000006,-0.8897119364851216
-0.20160000000000006,-0.8948048971646357
-0.20260000000000006,-0.9000393289741364
-0.20360000000000006,-0.905273760783637
-0.20460000000000006,-0.9105081925931376
-0.20560000000000006,-0.9160255666626113
-0.20660000000000006,-0.9212599984721118
-0.20760000000000006,-0.9263529591516261
-0.20860000000000006,-0.931728862091113
-0.20960000000000006,-0.9371047650306003
-0.21060000000000006,-0.942622139100074
-0.21160000000000007,-0.947998042039561
-0.21260000000000007,-0.9532324738490617
-0.21360000000000007,-0.9586083767885488
-0.21460000000000007,-0.9642672219880091
-0.21560000000000007,-0.9697845960574827
-0.21660000000000007,-0.9753019701269563
-0.21760000000000007,-0.9809608153264163
-0.21860000000000007,-0.98647818939589
-0.21960000000000007,-0.9921370345953502
-0.22060000000000007,-0.9976544086648237
-0.22160000000000007,-1.003313253864284
-0.22260000000000008,-1.0088306279337578
-0.22360000000000008,-1.014489473133218
-0.22460000000000008,-1.0202897894626646
-0.22560000000000008,-1.026090105792111
-0.22660000000000008,-1.0317489509915712
-0.22760000000000008,-1.037266325061045
-0.22860000000000008,-1.0430666413904914
-0.22960000000000008,-1.0490084288499246
-0.23060000000000008,-1.0548087451793715
-0.23160000000000008,-1.0604675903788316
-0.23260000000000008,-1.0661264355782916
-0.23360000000000009,-1.071785280777752
-0.2346000000000001,-1.0777270682371851
-0.2356000000000001,-1.0836688556966183
-0.2366000000000001,-1.0894691720260647
-0.2376000000000001,-1.0952694883555114
-0.2386000000000001,-1.1012112758149446
-0.2396000000000001,-1.1071530632743778
-0.2406000000000001,-1.1132363218637973
-0.2416000000000001,-1.119036638193244
-0.2426000000000001,-1.1251198967826637
-0.2436000000000001,-1.1310616842420969
-0.2446000000000001,-1.1371449428315166
-0.2456000000000001,-1.143228201420936
-0.2466000000000001,-1.1491699888803693
-0.2476000000000001,-1.154970305209816
-0.2486000000000001,-1.160912092669249
-0.2496000000000001,-1.1671368223886553
-0.2506000000000001,-1.1732200809780748
-0.2516000000000001,-1.179161868437508
-0.2526000000000001,-1.1851036558969412
-0.2536000000000001,-1.191186914486361
-0.2546000000000001,-1.1972701730757807
-0.2556000000000001,-1.2033534316652001
-0.2566000000000001,-1.2094366902546199
-0.2576000000000001,-1.2152370065840665
-0.2586000000000001,-1.2213202651734862
-0.2596000000000001,-1.2275449948928923
-0.2606000000000001,-1.233628253482312
-0.2616000000000001,-1.2397115120717317
-0.2626000000000001,-1.2456532995311649
-0.2636000000000001,-1.251595086990598
-0.2646000000000001,-1.257819816710004
-0.2656000000000001,-1.2637616041694373
-0.2666000000000001,-1.2698448627588568
-0.2676000000000001,-1.27578665021829
-0.2686000000000001,-1.28186990880771
-0.2696000000000001,-1.2878116962671429
-0.2706000000000001,-1.293753483726576
-0.2716000000000001,-1.2996952711860092
-0.2726000000000001,-1.3056370586454424
-0.2736000000000001,-1.3114373749748889
-0.2746000000000001,-1.3176621046942951
-0.2756000000000001,-1.3236038921537283
-0.2766000000000001,-1.329404208483175
-0.2776000000000001,-1.335345995942608
-0.2786000000000001,-1.3411463122720548
-0.2796000000000001,-1.3472295708614743
-0.2806000000000001,-1.3533128294508943
-0.28160000000000013,-1.3591131457803407
-0.28260000000000013,-1.3649134621097874
-0.28360000000000013,-1.3708552495692206
-0.2846,-1.3766555658986672
-0.2856,-1.3825973533581004
-0.2866,-1.388397669687547
-0.2876,-1.3940565148870072
-0.2886,-1.3998568312164539
-0.2896,-1.4056571475459005
-0.2906,-1.411457463875347
-0.2916,-1.4175407224647667
-0.2926,-1.423199567664227
-0.2936,-1.4288584128636872
-0.29460000000000003,-1.4345172580631471
-0.29560000000000003,-1.4401761032626073
-0.29660000000000003,-1.4458349484620676
-0.29760000000000003,-1.4514937936615278
-0.29860000000000003,-1.4571526388609877
-0.29960000000000003,-1.462811484060448
-0.30060000000000003,-1.4684703292599082
-0.30160000000000003,-1.4741291744593683
-0.30260000000000004,-1.4797880196588282
-0.30360000000000004,-1.4854468648582886
-0.30460000000000004,-1.4911057100577487
-0.30560000000000004,-1.4967645552572086
-0.30660000000000004,-1.502423400456669
-0.30760000000000004,-1.5080822456561291
-0.30860000000000004,-1.5137410908555893
-0.30960000000000004,-1.5193999360550492
-0.31060000000000004,-1.5250587812545096
-0.31160000000000004,-1.5307176264539697
-0.31260000000000004,-1.5363764716534298
-0.31360000000000005,-1.54203531685289
-0.31460000000000005,-1.54769416205235
-0.31560000000000005,-1.5533530072518102
-0.31660000000000005,-1.5590118524512704
-0.31760000000000005,-1.5646706976507305
-0.31860000000000005,-1.5703295428501907
-0.31960000000000005,-1.5759883880496508
-0.32060000000000005,-1.583061944548976
-0.32160000000000005,-1.5887207897484361
-0.32260000000000005,-1.5943796349478963
-0.32360000000000005,-1.6000384801473564
-0.32460000000000006,-1.6056973253468165
-0.32560000000000006,-1.6113561705462767
-0.32660000000000006,-1.6170150157457368
-0.32760000000000006,-1.6226738609451972
-0.32860000000000006,-1.6283327061446573
-0.32960000000000006,-1.6339915513441174
-0.33060000000000006,-1.6410651078434426
-0.33160000000000006,-1.6467239530429028
-0.33260000000000006,-1.6523827982423631
-0.33360000000000006,-1.658041643441823
-0.33460000000000006,-1.6651151999411482
-0.33560000000000006,-1.6707740451406083
-0.33660000000000007,-1.6764328903400685
-0.33760000000000007,-1.6835064468393939
-0.33860000000000007,-1.6891652920388538
-0.33960000000000007,-1.696238848538179
-0.34060000000000007,-1.701897693737639
-0.34160000000000007,-1.7075565389370995
-0.34260000000000007,-1.7146300954364246
-0.34360000000000007,-1.7202889406358846
-0.3446000000000001,-1.72736249713521
-0.3456000000000001,-1.734436053634535
-0.3466000000000001,-1.7400948988339953
-0.34759999999999996,-1.7471684553333202
-0.3486000000000001,-1.7528273005327806
-0.34959999999999997,-1.7599008570321055
-0.3506000000000001,-1.766974413531431
-0.35159999999999997,-1.774047970030756
-0.3526000000000001,-1.779706815230216
-0.35359999999999997,-1.7867803717295414
-0.3546000000000001,-1.7938539282288664
-0.35559999999999997,-1.8009274847281918
-0.3566000000000001,-1.8080010412275167
-0.3576,-1.815074597726842
-0.3586000000000001,-1.822148154226167
-0.3596,-1.8292217107254924
-0.3606000000000001,-1.8377099785246829
-0.3616,-1.8447835350240078
-0.3626000000000001,-1.8518570915233332
-0.3636,-1.8589306480226582
-0.3646000000000001,-1.8660042045219833
-0.3656,-1.8744924723211736
-0.3666000000000001,-1.8815660288204987
-0.3676,-1.890054296619689
-0.3686000000000001,-1.897127853119014
-0.3696,-1.9056161209182045
-0.3706000000000001,-1.9141043887173947
-0.3716,-1.92117794521672
-0.3726000000000001,-1.9296662130159101
-0.3736,-1.9381544808151003
-0.3746000000000001,-1.9466427486142908
-0.3756,-1.9537163051136157
-0.3766000000000001,-1.9622045729128061
-0.3776,-1.9706928407119961
-0.3786000000000001,-1.9791811085111866
-0.3796,-1.9876693763103765
-0.3806000000000001,-1.9961576441095665
-0.3816,-2.004645911908757
-0.3826000000000001,-2.013134179707947
-0.3836,-2.023037158807002
-0.3846000000000001,-2.0315254266061924
-0.3856,-2.0414284057052483
-0.3866000000000001,-2.049916673504438
-0.3876,-2.0584049413036287
-0.3886000000000001,-2.0683079204026833
-0.3896,-2.0782108995017388
-0.3906000000000001,-2.0866991673009294
-0.3916,-2.0966021463999844
-0.3926000000000001,-2.1065051254990395
-0.3936,-2.1149933932982297
-0.3946000000000001,-2.12631108369715
-0.3956,-2.136214062796206
-0.3966000000000001,-2.1447023305953956
-0.3976,-2.1546053096944506
-0.3986000000000001,-2.1659230000933714
-0.3996,-2.1758259791924264
-0.4006000000000001,-2.1857289582914814
-0.4016,-2.1956319373905373
-0.4026000000000001,-2.206949627789457
-0.4036,-2.216852606888512
-0.4046000000000001,-2.228170297287433
-0.4056,-2.238073276386488
-0.40660000000000013,-2.249390966785408
-0.4076,-2.2592939458844636
-0.40860000000000013,-2.2706116362833835
-0.4096,-2.2819293266823037
-0.41060000000000013,-2.2932470170812245
-0.4116,-2.3045647074801447
-0.41260000000000013,-2.3158823978790646
-0.4136,-2.3272000882779853
-0.41460000000000014,-2.3385177786769056
-0.4156,-2.349835469075826
-0.41660000000000014,-2.362567870774611
-0.4176,-2.3738855611735317
-0.41860000000000014,-2.385203251572452
-0.41960000000000003,-2.3979356532712375
-0.42060000000000014,-2.4106680549700226
-0.42160000000000003,-2.4219857453689424
-0.42260000000000014,-2.4347181470677284
-0.42360000000000003,-2.4474505487665135
-0.42460000000000014,-2.460182950465299
-0.42560000000000003,-2.472915352164084
-0.42660000000000015,-2.485647753862869
-0.42760000000000004,-2.4983801555616547
-0.42860000000000015,-2.5111125572604402
-0.42960000000000004,-2.5238449589592253
-0.43060000000000015,-2.5379920719578757
-0.43160000000000004,-2.550724473656661
-0.43260000000000015,-2.5634568753554463
-0.43360000000000004,-2.5776039883540967
-0.43460000000000015,-2.590336390052882
-0.43560000000000004,-2.6044835030515325
-0.43660000000000015,-2.618630616050183
-0.43760000000000004,-2.631363017748968
-0.43860000000000016,-2.6455101307476188
-0.43960000000000005,-2.659657243746269
-0.44060000000000016,-2.6738043567449195
-0.44160000000000005,-2.6879514697435702
-0.44260000000000016,-2.70209858274222
-0.44360000000000005,-2.7176604070407357
-0.44460000000000016,-2.7318075200393857
-0.44560000000000005,-2.7473693443379013
-0.44660000000000016,-2.7615164573365516
