Potential V vs RHE, Current mA cm-2
0.013299999999999867,0.17231183632356148
0.012299999999999978,-0.2202705493889862
0.011299999999999866,-0.6128529351015338
0.010299999999999976,-0.8745745255765657
0.009299999999999864,-1.1798692240874404
0.008299999999999974,-1.4415908145624723
0.007299999999999862,-1.6594563547416883
0.006299999999999972,-1.8773218949209036
0.00529999999999986,-2.095187435100119
0.0042999999999999705,-2.2706116362833835
0.0032999999999998586,-2.4446211261667834
0.0022999999999999687,-2.662486666345999
0.0012999999999998568,-2.794054817233447
0.00029999999999996696,-2.968064307116847
-0.000700000000000145,-3.0996324580042955
-0.0017000000000000348,-3.273641947887695
-0.0027000000000001467,-3.403795387475278
-0.0037000000000000366,-3.5353635383627267
-0.0047000000000001485,-3.6655169779503103
-0.005700000000000038,-3.7970851288377587
-0.00670000000000015,-3.927238568425342
-0.00770000000000004,-4.014950669016974
-0.008700000000000152,-4.146518819904423
-0.009700000000000042,-4.276672259492005
-0.010700000000000154,-4.406825699079589
-0.011700000000000044,-4.494537799671222
-0.012700000000000156,-4.582249900262854
-0.013700000000000045,-4.668547289554621
-0.014700000000000157,-4.756259390146253
-0.015700000000000047,-4.843971490737885
-0.01670000000000016,-4.9302688800296535
-0.01770000000000005,-5.017980980621284
-0.01870000000000016,-5.105693081212917
-0.01970000000000005,-5.191990470504685
-0.020700000000000163,-5.279702571096316
-0.021700000000000053,-5.367414671687949
-0.022700000000000164,-5.453712060979717
-0.023700000000000054,-5.497568111275533
-0.024700000000000166,-5.5414241615713475
-0.025700000000000056,-5.629136262162981
-0.026700000000000168,-5.715433651454749
-0.027700000000000058,-5.759289701750564
-0.02870000000000017,-5.80314575204638
-0.02970000000000006,-5.890857852638012
-0.03070000000000017,-5.9347139029338285
-0.03170000000000006,-5.977155241929781
-0.03270000000000017,-6.064867342521412
-0.03370000000000006,-6.108723392817228
-0.034700000000000175,-6.152579443113044
-0.035700000000000065,-6.196435493408861
-0.03670000000000018,-6.238876832404812
-0.03770000000000007,-6.282732882700628
-0.03870000000000018,-6.326588932996443
-0.03970000000000007,-6.37044498329226
-0.04070000000000018,-6.414301033588076
-0.04170000000000007,-6.458157083883892
-0.04270000000000018,-6.54445447317566
-0.04370000000000007,-6.54445447317566
-0.044700000000000184,-6.588310523471475
-0.045700000000000074,-6.588310523471475
-0.046700000000000186,-6.6760226240631075
-0.047700000000000076,-6.719878674358924
-0.04870000000000019,-6.719878674358924
-0.04970000000000008,-6.762320013354876
-0.05070000000000019,-6.806176063650692
-0.05170000000000008,-6.850032113946507
-0.05270000000000019,-6.893888164242324
-0.05370000000000008,-6.893888164242324
-0.05470000000000019,-6.93774421453814
-0.05570000000000008,-6.981600264833956
-0.056700000000000195,-7.024041603829907
-0.057700000000000085,-7.024041603829907
-0.058700000000000196,-7.067897654125724
-0.059700000000000086,-7.067897654125724
-0.0607000000000002,-7.111753704421539
-0.06170000000000009,-7.111753704421539
-0.0627000000000002,-7.155609754717355
-0.06370000000000009,-7.155609754717355
-0.0647000000000002,-7.199465805013171
-0.06570000000000009,-7.199465805013171
-0.0667000000000002,-7.199465805013171
-0.0677000000000001,-7.243321855308987
-0.0687000000000002,-7.243321855308987
-0.0697000000000001,-7.243321855308987
-0.07070000000000021,-7.243321855308987
-0.0717000000000001,-7.243321855308987
-0.07270000000000021,-7.28576319430494
-0.0737000000000001,-7.28576319430494
-0.07470000000000021,-7.329619244600755
-0.0757000000000001,-7.28576319430494
-0.07670000000000021,-7.329619244600755
-0.0777000000000001,-7.329619244600755
-0.07870000000000021,-7.329619244600755
-0.0797000000000001,-7.37347529489657
-0.08070000000000022,-7.37347529489657
-0.0817000000000001,-7.37347529489657
-0.08270000000000022,-7.37347529489657
-0.08370000000000011,-7.37347529489657
-0.08470000000000022,-7.37347529489657
-0.08570000000000011,-7.4173313451923875
-0.08670000000000022,-7.4173313451923875
-0.08770000000000011,-7.37347529489657
-0.08870000000000022,-7.4173313451923875
-0.08970000000000011,-7.4173313451923875
-0.09070000000000022,-7.4173313451923875
-0.09170000000000011,-7.4173313451923875
-0.09270000000000023,-7.4173313451923875
-0.09370000000000012,-7.4173313451923875
-0.09470000000000023,-7.4173313451923875
-0.09570000000000012,-7.4173313451923875
-0.09670000000000023,-7.4173313451923875
-0.09770000000000012,-7.4173313451923875
-0.09870000000000023,-7.4173313451923875
-0.09970000000000012,-7.4173313451923875
-0.10070000000000023,-7.4173313451923875
-0.10170000000000012,-7.4173313451923875
-0.10270000000000024,-7.4173313451923875
-0.10370000000000013,-7.4173313451923875
-0.10470000000000024,-7.4173313451923875
-0.10570000000000013,-7.37347529489657
-0.10670000000000024,-7.37347529489657
-0.10770000000000013,-7.37347529489657
-0.10870000000000024,-7.37347529489657
-0.10970000000000013,-7.37347529489657
-0.11070000000000024,-7.37347529489657
-0.11170000000000013,-7.37347529489657
-0.11270000000000002,-7.37347529489657
-0.11370000000000013,-7.37347529489657
-0.11470000000000002,-7.329619244600755
-0.11570000000000014,-7.329619244600755
-0.11670000000000003,-7.329619244600755
-0.11770000000000014,-7.329619244600755
-0.11870000000000003,-7.329619244600755
-0.11970000000000014,-7.28576319430494
-0.12070000000000003,-7.28576319430494
-0.12170000000000014,-7.28576319430494
-0.12270000000000003,-7.28576319430494
-0.12370000000000014,-7.28576319430494
-0.12470000000000003,-7.28576319430494
-0.12570000000000014,-7.28576319430494
-0.12670000000000003,-7.28576319430494
-0.12770000000000015,-7.28576319430494
-0.12870000000000004,-7.28576319430494
-0.12970000000000015,-7.243321855308987
-0.13070000000000004,-7.243321855308987
-0.13170000000000015,-7.243321855308987
-0.13270000000000004,-7.199465805013171
-0.13370000000000015,-7.199465805013171
-0.13470000000000004,-7.199465805013171
-0.13570000000000015,-7.199465805013171
-0.13670000000000004,-7.199465805013171
-0.13770000000000016,-7.199465805013171
-0.13870000000000005,-7.199465805013171
-0.13970000000000016,-7.155609754717355
-0.14070000000000005,-7.155609754717355
-0.14170000000000016,-7.155609754717355
-0.14270000000000005,-7.155609754717355
-0.14370000000000016,-7.155609754717355
-0.14470000000000005,-7.111753704421539
-0.14570000000000016,-7.111753704421539
-0.14670000000000005,-7.111753704421539
-0.14770000000000016,-7.067897654125724
-0.14870000000000005,-7.067897654125724
-0.14970000000000017,-7.067897654125724
-0.15070000000000006,-7.067897654125724
-0.15170000000000017,-7.024041603829907
-0.15270000000000006,-7.024041603829907
-0.15370000000000017,-7.024041603829907
-0.15470000000000006,-7.024041603829907
-0.15570000000000017,-6.981600264833956
-0.15670000000000006,-6.981600264833956
-0.15770000000000017,-6.981600264833956
-0.15870000000000006,-6.93774421453814
-0.15970000000000018,-6.93774421453814
-0.16070000000000007,-6.93774421453814
-0.16170000000000018,-6.93774421453814
-0.16270000000000007,-6.93774421453814
-0.16370000000000018,-6.93774421453814
-0.16470000000000007,-6.93774421453814
-0.16570000000000018,-6.893888164242324
-0.16670000000000007,-6.893888164242324
-0.16770000000000018,-6.93774421453814
-0.16870000000000007,-6.93774421453814
-0.16970000000000018,-6.893888164242324
-0.17070000000000007,-6.893888164242324
-0.17170000000000019,-6.893888164242324
-0.17270000000000008,-6.893888164242324
-0.1737000000000002,-6.893888164242324
-0.17470000000000008,-6.893888164242324
-0.1757000000000002,-6.93774421453814
-0.17670000000000008,-6.893888164242324
-0.1777000000000002,-6.893888164242324
-0.17870000000000008,-6.893888164242324
-0.1797000000000002,-6.893888164242324
-0.18070000000000008,-6.893888164242324
-0.1817000000000002,-6.893888164242324
-0.18270000000000008,-6.893888164242324
-0.1837000000000002,-6.850032113946507
-0.1847000000000001,-6.893888164242324
-0.1857000000000002,-6.893888164242324
-0.1867000000000001,-6.893888164242324
-0.1877000000000002,-6.893888164242324
-0.1887000000000001,-6.893888164242324
-0.1897000000000002,-6.893888164242324
-0.1907000000000001,-6.893888164242324
-0.1917000000000001,-6.893888164242324
-0.19269999999999998,-6.893888164242324
-0.1937000000000001,-6.893888164242324
-0.19469999999999998,-6.893888164242324
-0.1957000000000001,-6.893888164242324
-0.19669999999999999,-6.893888164242324
-0.1977000000000001,-6.93774421453814
-0.1987,-6.93774421453814
-0.1997000000000001,-6.93774421453814
-0.2007,-6.93774421453814
-0.2017000000000001,-6.93774421453814
-0.2027,-6.93774421453814
-0.2037000000000001,-6.93774421453814
-0.2047,-6.981600264833956
-0.2057000000000001,-6.981600264833956
-0.2067,-6.981600264833956
-0.2077000000000001,-6.981600264833956
-0.2087,-6.981600264833956
-0.2097000000000001,-6.981600264833956
-0.2107,-6.981600264833956
-0.2117000000000001,-7.024041603829907
-0.2127,-7.024041603829907
-0.2137000000000001,-7.024041603829907
-0.2147,-7.024041603829907
-0.2157000000000001,-7.024041603829907
-0.2167,-7.067897654125724
-0.21770000000000012,-7.067897654125724
-0.2187,-7.067897654125724
-0.21970000000000012,-7.067897654125724
-0.2207,-7.067897654125724
-0.22170000000000012,-7.111753704421539
-0.2227,-7.067897654125724
-0.22370000000000012,-7.111753704421539
-0.2247,-7.111753704421539
-0.22570000000000012,-7.111753704421539
-0.2267,-7.155609754717355
-0.22770000000000012,-7.155609754717355
-0.22870000000000001,-7.155609754717355
-0.22970000000000013,-7.199465805013171
-0.23070000000000002,-7.199465805013171
-0.23170000000000013,-7.199465805013171
-0.23270000000000002,-7.199465805013171
-0.23370000000000013,-7.243321855308987
-0.23470000000000002,-7.243321855308987
-0.23570000000000013,-7.243321855308987
-0.23670000000000002,-7.243321855308987
-0.2376999999999999,-7.28576319430494
-0.23870000000000002,-7.28576319430494
-0.2396999999999999,-7.28576319430494
-0.24070000000000003,-7.28576319430494
-0.24169999999999991,-7.329619244600755
-0.24270000000000003,-7.329619244600755
-0.24369999999999992,-7.329619244600755
-0.24470000000000003,-7.37347529489657
-0.24569999999999992,-7.37347529489657
-0.24670000000000003,-7.37347529489657
-0.24769999999999992,-7.37347529489657
-0.24870000000000003,-7.4173313451923875
-0.24969999999999992,-7.4173313451923875
-0.25070000000000003,-7.4173313451923875
-0.2516999999999999,-7.4173313451923875
-0.25270000000000004,-7.461187395488204
-0.2536999999999999,-7.461187395488204
-0.25470000000000004,-7.461187395488204
-0.2556999999999999,-7.50504344578402
-0.25670000000000004,-7.50504344578402
-0.25769999999999993,-7.5474847847799715
-0.25870000000000004,-7.5474847847799715
-0.25969999999999993,-7.5474847847799715
-0.26070000000000004,-7.591340835075788
-0.26169999999999993,-7.591340835075788
-0.26270000000000004,-7.635196885371603
-0.26369999999999993,-7.635196885371603
-0.26470000000000005,-7.635196885371603
-0.26569999999999994,-7.635196885371603
-0.26670000000000005,-7.679052935667419
-0.26769999999999994,-7.679052935667419
-0.26870000000000005,-7.722908985963235
-0.26969999999999994,-7.722908985963235
-0.27070000000000005,-7.722908985963235
-0.27169999999999994,-7.7653503249591855
-0.27270000000000005,-7.7653503249591855
-0.27369999999999994,-7.7653503249591855
-0.27470000000000006,-7.809206375255003
-0.27569999999999995,-7.809206375255003
-0.27670000000000006,-7.809206375255003
-0.27769999999999995,-7.853062425550818
-0.27870000000000006,-7.853062425550818
-0.27969999999999995,-7.853062425550818
-0.28070000000000006,-7.896918475846635
-0.28169999999999995,-7.896918475846635
-0.28270000000000006,-7.896918475846635
-0.28369999999999995,-7.896918475846635
-0.28470000000000006,-7.940774526142452
-0.28569999999999995,-7.940774526142452
-0.28670000000000007,-7.940774526142452
-0.28769999999999996,-7.940774526142452
-0.28870000000000007,-7.984630576438266
-0.28969999999999996,-7.984630576438266
-0.29070000000000007,-7.984630576438266
-0.29169999999999996,-8.027071915434218
-0.29270000000000007,-8.027071915434218
-0.29369999999999996,-8.070927965730034
-0.2947000000000001,-8.070927965730034
-0.29569999999999996,-8.070927965730034
-0.2967000000000001,-8.11478401602585
-0.29769999999999996,-8.11478401602585
-0.2987000000000001,-8.11478401602585
-0.29969999999999997,-8.11478401602585
-0.3007000000000001,-8.11478401602585
-0.30169999999999997,-8.158640066321666
-0.3027000000000001,-8.158640066321666
-0.30369999999999997,-8.158640066321666
-0.3047000000000001,-8.158640066321666
-0.30569999999999997,-8.202496116617484
-0.3067000000000001,-8.202496116617484
-0.3077,-8.202496116617484
-0.3087000000000001,-8.246352166913299
-0.3097,-8.246352166913299
-0.3107000000000001,-8.288793505909249
-0.3117,-8.246352166913299
-0.3127000000000001,-8.288793505909249
-0.3137,-8.288793505909249
-0.3147000000000001,-8.288793505909249
-0.3157,-8.288793505909249
-0.3167000000000001,-8.332649556205066
-0.3177,-8.332649556205066
-0.3187000000000001,-8.332649556205066
-0.3197,-8.332649556205066
-0.3207000000000001,-8.332649556205066
-0.3217,-8.376505606500881
-0.3227000000000001,-8.376505606500881
-0.3237,-8.4203616567967
-0.3247000000000001,-8.4203616567967
-0.3257,-8.464217707092514
-0.3267000000000001,-8.464217707092514
-0.3277,-8.464217707092514
-0.3287000000000001,-8.464217707092514
-0.3297,-8.464217707092514
-0.3307000000000001,-8.508073757388331
-0.3317,-8.464217707092514
-0.3327000000000001,-8.508073757388331
-0.3337,-8.508073757388331
-0.3347000000000001,-8.508073757388331
-0.3357,-8.508073757388331
-0.3367000000000001,-8.508073757388331
-0.3377,-8.55051509638428
-0.3387000000000001,-8.55051509638428
-0.3397,-8.55051509638428
-0.3407000000000001,-8.55051509638428
-0.3417,-8.594371146680096
-0.3427000000000001,-8.594371146680096
-0.3437,-8.594371146680096
-0.3447000000000001,-8.638227196975913
-0.3457,-8.594371146680096
-0.3467000000000001,-8.638227196975913
-0.3477,-8.638227196975913
-0.3487000000000001,-8.638227196975913
-0.3497,-8.638227196975913
-0.3507000000000001,-8.638227196975913
-0.3517,-8.638227196975913
-0.3527000000000001,-8.68208324727173
-0.3537,-8.68208324727173
-0.3547000000000001,-8.68208324727173
-0.3557,-8.68208324727173
-0.35670000000000013,-8.68208324727173
-0.3577,-8.68208324727173
-0.35870000000000013,-8.725939297567548
-0.3597,-8.68208324727173
-0.36070000000000013,-8.725939297567548
-0.3617,-8.725939297567548
-0.3626999999999999,-8.725939297567548
-0.3637,-8.769795347863363
-0.3646999999999999,-8.769795347863363
-0.3657,-8.769795347863363
-0.3666999999999999,-8.769795347863363
-0.3677,-8.769795347863363
-0.3686999999999999,-8.769795347863363
-0.36970000000000003,-8.812236686859313
-0.3706999999999999,-8.812236686859313
-0.37170000000000003,-8.812236686859313
-0.3726999999999999,-8.812236686859313
-0.37370000000000003,-8.812236686859313
-0.3746999999999999,-8.812236686859313
-0.37570000000000003,-8.812236686859313
-0.3766999999999999,-8.85609273715513
-0.37770000000000004,-8.812236686859313
-0.3786999999999999,-8.85609273715513
-0.37970000000000004,-8.85609273715513
-0.3806999999999999,-8.85609273715513
-0.38170000000000004,-8.85609273715513
-0.38269999999999993,-8.899948787450944
-0.38370000000000004,-8.899948787450944
-0.38469999999999993,-8.899948787450944
-0.38570000000000004,-8.943804837746763
-0.38669999999999993,-8.943804837746763
-0.38770000000000004,-8.943804837746763
-0.38869999999999993,-8.943804837746763
-0.38970000000000005,-8.943804837746763
-0.39069999999999994,-8.943804837746763
-0.39170000000000005,-8.987660888042578
-0.39269999999999994,-8.987660888042578
-0.39370000000000005,-8.987660888042578
-0.39469999999999994,-8.987660888042578
-0.39570000000000005,-8.987660888042578
-0.39669999999999994,-8.987660888042578
-0.39770000000000005,-9.031516938338395
-0.39869999999999994,-9.031516938338395
-0.39970000000000006,-9.031516938338395
-0.40069999999999995,-9.073958277334345
-0.40170000000000006,-9.073958277334345
-0.40269999999999995,-9.073958277334345
-0.40370000000000006,-9.11781432763016
-0.40469999999999995,-9.073958277334345
-0.40570000000000006,-9.11781432763016
-0.40669999999999995,-9.11781432763016
-0.40770000000000006,-9.11781432763016
-0.40869999999999995,-9.11781432763016
-0.40970000000000006,-9.161670377925978
-0.41069999999999995,-9.161670377925978
-0.41170000000000007,-9.161670377925978
-0.41269999999999996,-9.161670377925978
-0.41370000000000007,-9.205526428221793
-0.41469999999999996,-9.205526428221793
-0.41570000000000007,-9.205526428221793
-0.41669999999999996,-9.24938247851761
-0.41770000000000007,-9.24938247851761
-0.41869999999999996,-9.24938247851761
-0.4197000000000001,-9.24938247851761
-0.42069999999999996,-9.24938247851761
-0.4217000000000001,-9.24938247851761
-0.42269999999999996,-9.293238528813426
-0.4237000000000001,-9.293238528813426
-0.42469999999999997,-9.293238528813426
-0.4257000000000001,-9.335679867809377
-0.42669999999999997,-9.335679867809377
-0.4277000000000001,-9.335679867809377
-0.42869999999999997,-9.379535918105192
-0.4297000000000001,-9.379535918105192
-0.43069999999999997,-9.379535918105192
-0.4317000000000001,-9.423391968401008
-0.4327,-9.423391968401008
-0.4337000000000001,-9.467248018696827
-0.4347,-9.467248018696827
-0.4357000000000001,-9.467248018696827
-0.4367,-9.511104068992642
-0.4377000000000001,-9.511104068992642
-0.4387,-9.511104068992642
-0.4397000000000001,-9.55496011928846
-0.4407,-9.59740145828441
-0.4417000000000001,-9.59740145828441
-0.4427,-9.59740145828441
-0.4437000000000001,-9.59740145828441
-0.4447,-9.641257508580225
-0.4457000000000001,-9.685113558876042
-0.4467,-9.685113558876042
-0.4477000000000001,-9.728969609171857
-0.4487,-9.728969609171857
-0.4497000000000001,-9.772825659467674
-0.4507,-9.772825659467674
-0.4517000000000001,-9.81668170976349
-0.4527,-9.81668170976349
-0.4537000000000001,-9.85912304875944
-0.4547,-9.85912304875944
-0.4557000000000001,-9.902979099055257
-0.4567,-9.946835149351072
-0.4577000000000001,-9.946835149351072
-0.4587,-9.99069119964689
-0.4597000000000001,-10.034547249942705
-0.4607,-10.034547249942705
-0.4617000000000001,-10.078403300238522
-0.4627,-10.120844639234473
-0.4637000000000001,-10.120844639234473
-0.4647,-10.164700689530287
-0.4657000000000001,-10.164700689530287
-0.4667,-10.208556739826104
-0.4677000000000001,-10.25241279012192
-0.4687,-10.296268840417738
-0.4697000000000001,-10.340124890713554
-0.4707,-10.382566229709504
-0.4717000000000001,-10.382566229709504
-0.4727,-10.470278330301136
-0.4737000000000001,-10.470278330301136
-0.4747,-10.514134380596953
-0.4757000000000001,-10.557990430892769
-0.4767,-10.601846481188586
-0.4777000000000001,-10.644287820184536
-0.4787,-10.688143870480351
-0.4797000000000001,-10.731999920776168
-0.4807,-10.731999920776168
-0.48170000000000013,-10.819712021367803
-0.4827,-10.819712021367803
-0.48370000000000013,-10.863568071663616
-0.4847,-10.906009410659568
-0.48570000000000013,-10.949865460955383
-0.4867,-10.993721511251199
-0.4876999999999999,-11.037577561547016
-0.4887,-11.081433611842833
-0.4896999999999999,-11.123874950838783
-0.4907,-11.211587051430415
-0.4916999999999999,-11.255443101726232
-0.4927,-11.299299152022046
-0.4936999999999999,-11.343155202317865
-0.49470000000000003,-11.385596541313816
-0.4956999999999999,-11.473308641905447
-0.49670000000000003,-11.473308641905447
-0.4976999999999999,-11.56102074249708
-0.49870000000000003,-11.604876792792895
-0.4996999999999999,-11.691174182084664
-0.5007,-11.73503023238048
-0.5016999999999999,-11.778886282676295
-0.5027,-11.82274233297211
-0.5036999999999999,-11.909039722263879
-0.5047,-11.996751822855511
-0.5056999999999999,-12.040607873151327
-0.5067,-12.12831997374296
-0.5076999999999999,-12.12831997374296
-0.5087,-12.214617363034726
-0.5096999999999999,-12.258473413330542
-0.5107,-12.302329463626359
-0.5116999999999999,-12.390041564217992
-0.5127,-12.432482903213943
-0.5136999999999999,-12.520195003805576
-0.5147,-12.56405105410139
