Sept. 1, 2024   17:16:55
Cyclic Voltammetry
File: c:/users/guazh/data/20240829_batch_215_500/2024-08-29-exp240\exp240-2024-09-01t16_57_48-h2koh\exp240_cv_sr_400mvs_efin_-1700mv.bin
Data Source:  Experiment
Instrument Model:  CHI760E
Header: CV ran at 400 mVs
Note: 

Init E (V) = -1
High E (V) = -1
Low E (V) = -1.7
Final E (V) = -1
Init P/N = N
Scan Rate (V/s) = 0.4
Segment = 3
Sample Interval (V) = 0.001
Quiet Time (sec) = 2
Sensitivity (A/V) = 0.01
Comp R (ohm) = 1.7

Results:

Channel 1:
Segment 1:
Ep = -1.358V
ip = 9.426e-5A
Ah = 1.801e-5C

Segment 2:

Segment 3:

Potential/V, Current/A

-1.000, -1.834e-5
-1.001, 9.405e-6
-1.002, 2.790e-5
-1.003, 4.640e-5
-1.004, 6.490e-5
-1.005, 7.723e-5
-1.006, 8.957e-5
-1.007, 1.019e-4
-1.008, 1.111e-4
-1.009, 1.204e-4
-1.010, 1.296e-4
-1.011, 1.389e-4
-1.012, 1.481e-4
-1.013, 1.574e-4
-1.014, 1.636e-4
-1.015, 1.697e-4
-1.016, 1.759e-4
-1.017, 1.821e-4
-1.018, 1.913e-4
-1.019, 1.944e-4
-1.020, 2.006e-4
-1.021, 2.067e-4
-1.022, 2.129e-4
-1.023, 2.160e-4
-1.024, 2.221e-4
-1.025, 2.252e-4
-1.026, 2.314e-4
-1.027, 2.345e-4
-1.028, 2.376e-4
-1.029, 2.437e-4
-1.030, 2.468e-4
-1.031, 2.499e-4
-1.032, 2.530e-4
-1.033, 2.561e-4
-1.034, 2.591e-4
-1.035, 2.622e-4
-1.036, 2.653e-4
-1.037, 2.653e-4
-1.038, 2.684e-4
-1.039, 2.715e-4
-1.040, 2.746e-4
-1.041, 2.776e-4
-1.042, 2.807e-4
-1.043, 2.807e-4
-1.044, 2.838e-4
-1.045, 2.869e-4
-1.046, 2.900e-4
-1.047, 2.900e-4
-1.048, 2.931e-4
-1.049, 2.961e-4
-1.050, 2.961e-4
-1.051, 2.992e-4
-1.052, 2.992e-4
-1.053, 3.023e-4
-1.054, 3.023e-4
-1.055, 3.054e-4
-1.056, 3.054e-4
-1.057, 3.054e-4
-1.058, 3.085e-4
-1.059, 3.115e-4
-1.060, 3.146e-4
-1.061, 3.146e-4
-1.062, 3.146e-4
-1.063, 3.146e-4
-1.064, 3.146e-4
-1.065, 3.177e-4
-1.066, 3.177e-4
-1.067, 3.177e-4
-1.068, 3.177e-4
-1.069, 3.177e-4
-1.070, 3.177e-4
-1.071, 3.208e-4
-1.072, 3.208e-4
-1.073, 3.208e-4
-1.074, 3.208e-4
-1.075, 3.208e-4
-1.076, 3.239e-4
-1.077, 3.208e-4
-1.078, 3.239e-4
-1.079, 3.208e-4
-1.080, 3.208e-4
-1.081, 3.239e-4
-1.082, 3.239e-4
-1.083, 3.239e-4
-1.084, 3.239e-4
-1.085, 3.239e-4
-1.086, 3.239e-4
-1.087, 3.239e-4
-1.088, 3.239e-4
-1.089, 3.239e-4
-1.090, 3.239e-4
-1.091, 3.239e-4
-1.092, 3.239e-4
-1.093, 3.239e-4
-1.094, 3.239e-4
-1.095, 3.208e-4
-1.096, 3.239e-4
-1.097, 3.208e-4
-1.098, 3.208e-4
-1.099, 3.208e-4
-1.100, 3.208e-4
-1.101, 3.208e-4
-1.102, 3.208e-4
-1.103, 3.208e-4
-1.104, 3.177e-4
-1.105, 3.177e-4
-1.106, 3.177e-4
-1.107, 3.177e-4
-1.108, 3.177e-4
-1.109, 3.177e-4
-1.110, 3.146e-4
-1.111, 3.146e-4
-1.112, 3.146e-4
-1.113, 3.146e-4
-1.114, 3.146e-4
-1.115, 3.146e-4
-1.116, 3.146e-4
-1.117, 3.115e-4
-1.118, 3.115e-4
-1.119, 3.115e-4
-1.120, 3.115e-4
-1.121, 3.115e-4
-1.122, 3.085e-4
-1.123, 3.085e-4
-1.124, 3.085e-4
-1.125, 3.085e-4
-1.126, 3.085e-4
-1.127, 3.054e-4
-1.128, 3.054e-4
-1.129, 3.054e-4
-1.130, 3.054e-4
-1.131, 3.023e-4
-1.132, 3.023e-4
-1.133, 3.023e-4
-1.134, 3.023e-4
-1.135, 3.023e-4
-1.136, 2.992e-4
-1.137, 2.992e-4
-1.138, 2.992e-4
-1.139, 2.992e-4
-1.140, 2.992e-4
-1.141, 2.961e-4
-1.142, 2.961e-4
-1.143, 2.931e-4
-1.144, 2.931e-4
-1.145, 2.931e-4
-1.146, 2.931e-4
-1.147, 2.900e-4
-1.148, 2.900e-4
-1.149, 2.900e-4
-1.150, 2.900e-4
-1.151, 2.900e-4
-1.152, 2.900e-4
-1.153, 2.869e-4
-1.154, 2.900e-4
-1.155, 2.869e-4
-1.156, 2.869e-4
-1.157, 2.869e-4
-1.158, 2.869e-4
-1.159, 2.869e-4
-1.160, 2.869e-4
-1.161, 2.869e-4
-1.162, 2.838e-4
-1.163, 2.838e-4
-1.164, 2.838e-4
-1.165, 2.838e-4
-1.166, 2.838e-4
-1.167, 2.838e-4
-1.168, 2.838e-4
-1.169, 2.807e-4
-1.170, 2.807e-4
-1.171, 2.807e-4
-1.172, 2.807e-4
-1.173, 2.807e-4
-1.174, 2.807e-4
-1.175, 2.807e-4
-1.176, 2.807e-4
-1.177, 2.807e-4
-1.178, 2.807e-4
-1.179, 2.807e-4
-1.180, 2.807e-4
-1.181, 2.807e-4
-1.182, 2.776e-4
-1.183, 2.776e-4
-1.184, 2.807e-4
-1.185, 2.776e-4
-1.186, 2.776e-4
-1.187, 2.776e-4
-1.188, 2.776e-4
-1.189, 2.776e-4
-1.190, 2.776e-4
-1.191, 2.776e-4
-1.192, 2.776e-4
-1.193, 2.776e-4
-1.194, 2.776e-4
-1.195, 2.776e-4
-1.196, 2.776e-4
-1.197, 2.776e-4
-1.198, 2.776e-4
-1.199, 2.776e-4
-1.200, 2.776e-4
-1.201, 2.776e-4
-1.202, 2.776e-4
-1.203, 2.776e-4
-1.204, 2.776e-4
-1.205, 2.776e-4
-1.206, 2.776e-4
-1.207, 2.776e-4
-1.208, 2.807e-4
-1.209, 2.807e-4
-1.210, 2.776e-4
-1.211, 2.807e-4
-1.212, 2.807e-4
-1.213, 2.807e-4
-1.214, 2.807e-4
-1.215, 2.807e-4
-1.216, 2.807e-4
-1.217, 2.807e-4
-1.218, 2.838e-4
-1.219, 2.838e-4
-1.220, 2.838e-4
-1.221, 2.838e-4
-1.222, 2.838e-4
-1.223, 2.838e-4
-1.224, 2.838e-4
-1.225, 2.869e-4
-1.226, 2.838e-4
-1.227, 2.869e-4
-1.228, 2.869e-4
-1.229, 2.869e-4
-1.230, 2.869e-4
-1.231, 2.869e-4
-1.232, 2.869e-4
-1.233, 2.900e-4
-1.234, 2.900e-4
-1.235, 2.900e-4
-1.236, 2.900e-4
-1.237, 2.900e-4
-1.238, 2.931e-4
-1.239, 2.931e-4
-1.240, 2.931e-4
-1.241, 2.931e-4
-1.242, 2.931e-4
-1.243, 2.961e-4
-1.244, 2.961e-4
-1.245, 2.961e-4
-1.246, 2.992e-4
-1.247, 2.992e-4
-1.248, 2.992e-4
-1.249, 2.992e-4
-1.250, 2.992e-4
-1.251, 2.992e-4
-1.252, 3.023e-4
-1.253, 3.023e-4
-1.254, 3.023e-4
-1.255, 3.054e-4
-1.256, 3.054e-4
-1.257, 3.054e-4
-1.258, 3.054e-4
-1.259, 3.054e-4
-1.260, 3.085e-4
-1.261, 3.085e-4
-1.262, 3.085e-4
-1.263, 3.085e-4
-1.264, 3.115e-4
-1.265, 3.115e-4
-1.266, 3.115e-4
-1.267, 3.146e-4
-1.268, 3.146e-4
-1.269, 3.146e-4
-1.270, 3.177e-4
-1.271, 3.177e-4
-1.272, 3.177e-4
-1.273, 3.177e-4
-1.274, 3.208e-4
-1.275, 3.208e-4
-1.276, 3.208e-4
-1.277, 3.208e-4
-1.278, 3.208e-4
-1.279, 3.239e-4
-1.280, 3.239e-4
-1.281, 3.239e-4
-1.282, 3.239e-4
-1.283, 3.239e-4
-1.284, 3.270e-4
-1.285, 3.270e-4
-1.286, 3.270e-4
-1.287, 3.300e-4
-1.288, 3.300e-4
-1.289, 3.300e-4
-1.290, 3.331e-4
-1.291, 3.331e-4
-1.292, 3.362e-4
-1.293, 3.331e-4
-1.294, 3.362e-4
-1.295, 3.362e-4
-1.296, 3.393e-4
-1.297, 3.393e-4
-1.298, 3.393e-4
-1.299, 3.393e-4
-1.300, 3.393e-4
-1.301, 3.424e-4
-1.302, 3.424e-4
-1.303, 3.424e-4
-1.304, 3.424e-4
-1.305, 3.455e-4
-1.306, 3.455e-4
-1.307, 3.455e-4
-1.308, 3.485e-4
-1.309, 3.485e-4
-1.310, 3.485e-4
-1.311, 3.485e-4
-1.312, 3.485e-4
-1.313, 3.516e-4
-1.314, 3.516e-4
-1.315, 3.516e-4
-1.316, 3.516e-4
-1.317, 3.547e-4
-1.318, 3.547e-4
-1.319, 3.547e-4
-1.320, 3.547e-4
-1.321, 3.547e-4
-1.322, 3.578e-4
-1.323, 3.578e-4
-1.324, 3.578e-4
-1.325, 3.578e-4
-1.326, 3.578e-4
-1.327, 3.609e-4
-1.328, 3.609e-4
-1.329, 3.609e-4
-1.330, 3.609e-4
-1.331, 3.609e-4
-1.332, 3.609e-4
-1.333, 3.640e-4
-1.334, 3.640e-4
-1.335, 3.640e-4
-1.336, 3.640e-4
-1.337, 3.640e-4
-1.338, 3.640e-4
-1.339, 3.640e-4
-1.340, 3.670e-4
-1.341, 3.670e-4
-1.342, 3.670e-4
-1.343, 3.670e-4
-1.344, 3.670e-4
-1.345, 3.670e-4
-1.346, 3.670e-4
-1.347, 3.670e-4
-1.348, 3.670e-4
-1.349, 3.670e-4
-1.350, 3.701e-4
-1.351, 3.701e-4
-1.352, 3.701e-4
-1.353, 3.701e-4
-1.354, 3.701e-4
-1.355, 3.701e-4
-1.356, 3.701e-4
-1.357, 3.701e-4
-1.358, 3.732e-4
-1.359, 3.701e-4
-1.360, 3.701e-4
-1.361, 3.701e-4
-1.362, 3.701e-4
-1.363, 3.701e-4
-1.364, 3.701e-4
-1.365, 3.701e-4
-1.366, 3.701e-4
-1.367, 3.701e-4
-1.368, 3.701e-4
-1.369, 3.701e-4
-1.370, 3.701e-4
-1.371, 3.701e-4
-1.372, 3.701e-4
-1.373, 3.701e-4
-1.374, 3.701e-4
-1.375, 3.701e-4
-1.376, 3.701e-4
-1.377, 3.701e-4
-1.378, 3.701e-4
-1.379, 3.701e-4
-1.380, 3.701e-4
-1.381, 3.701e-4
-1.382, 3.670e-4
-1.383, 3.670e-4
-1.384, 3.670e-4
-1.385, 3.670e-4
-1.386, 3.640e-4
-1.387, 3.670e-4
-1.388, 3.670e-4
-1.389, 3.670e-4
-1.390, 3.670e-4
-1.391, 3.670e-4
-1.392, 3.670e-4
-1.393, 3.670e-4
-1.394, 3.670e-4
-1.395, 3.670e-4
-1.396, 3.670e-4
-1.397, 3.670e-4
-1.398, 3.670e-4
-1.399, 3.670e-4
-1.400, 3.670e-4
-1.401, 3.670e-4
-1.402, 3.670e-4
-1.403, 3.670e-4
-1.404, 3.640e-4
-1.405, 3.670e-4
-1.406, 3.640e-4
-1.407, 3.640e-4
-1.408, 3.640e-4
-1.409, 3.640e-4
-1.410, 3.640e-4
-1.411, 3.640e-4
-1.412, 3.640e-4
-1.413, 3.640e-4
-1.414, 3.670e-4
-1.415, 3.640e-4
-1.416, 3.640e-4
-1.417, 3.640e-4
-1.418, 3.640e-4
-1.419, 3.670e-4
-1.420, 3.670e-4
-1.421, 3.670e-4
-1.422, 3.640e-4
-1.423, 3.670e-4
-1.424, 3.670e-4
-1.425, 3.670e-4
-1.426, 3.670e-4
-1.427, 3.670e-4
-1.428, 3.670e-4
-1.429, 3.670e-4
-1.430, 3.670e-4
-1.431, 3.670e-4
-1.432, 3.670e-4
-1.433, 3.670e-4
-1.434, 3.701e-4
-1.435, 3.701e-4
-1.436, 3.670e-4
-1.437, 3.701e-4
-1.438, 3.701e-4
-1.439, 3.701e-4
-1.440, 3.701e-4
-1.441, 3.732e-4
-1.442, 3.732e-4
-1.443, 3.732e-4
-1.444, 3.732e-4
-1.445, 3.732e-4
-1.446, 3.763e-4
-1.447, 3.763e-4
-1.448, 3.763e-4
-1.449, 3.763e-4
-1.450, 3.794e-4
-1.451, 3.794e-4
-1.452, 3.794e-4
-1.453, 3.794e-4
-1.454, 3.825e-4
-1.455, 3.825e-4
-1.456, 3.825e-4
-1.457, 3.855e-4
-1.458, 3.855e-4
-1.459, 3.855e-4
-1.460, 3.886e-4
-1.461, 3.886e-4
-1.462, 3.917e-4
-1.463, 3.917e-4
-1.464, 3.948e-4
-1.465, 3.948e-4
-1.466, 3.979e-4
-1.467, 3.979e-4
-1.468, 3.979e-4
-1.469, 4.010e-4
-1.470, 4.010e-4
-1.471, 4.040e-4
-1.472, 4.071e-4
-1.473, 4.071e-4
-1.474, 4.102e-4
-1.475, 4.133e-4
-1.476, 4.133e-4
-1.477, 4.133e-4
-1.478, 4.164e-4
-1.479, 4.195e-4
-1.480, 4.225e-4
-1.481, 4.225e-4
-1.482, 4.256e-4
-1.483, 4.287e-4
-1.484, 4.318e-4
-1.485, 4.318e-4
-1.486, 4.349e-4
-1.487, 4.380e-4
-1.488, 4.410e-4
-1.489, 4.410e-4
-1.490, 4.441e-4
-1.491, 4.472e-4
-1.492, 4.503e-4
-1.493, 4.534e-4
-1.494, 4.565e-4
-1.495, 4.595e-4
-1.496, 4.626e-4
-1.497, 4.657e-4
-1.498, 4.688e-4
-1.499, 4.719e-4
-1.500, 4.780e-4
-1.501, 4.811e-4
-1.502, 4.842e-4
-1.503, 4.842e-4
-1.504, 4.904e-4
-1.505, 4.935e-4
-1.506, 4.965e-4
-1.507, 5.027e-4
-1.508, 5.027e-4
-1.509, 5.089e-4
-1.510, 5.120e-4
-1.511, 5.181e-4
-1.512, 5.212e-4
-1.513, 5.243e-4
-1.514, 5.274e-4
-1.515, 5.335e-4
-1.516, 5.366e-4
-1.517, 5.428e-4
-1.518, 5.489e-4
-1.519, 5.520e-4
-1.520, 5.551e-4
-1.521, 5.613e-4
-1.522, 5.644e-4
-1.523, 5.705e-4
-1.524, 5.767e-4
-1.525, 5.829e-4
-1.526, 5.859e-4
-1.527, 5.921e-4
-1.528, 5.983e-4
-1.529, 6.044e-4
-1.530, 6.106e-4
-1.531, 6.137e-4
-1.532, 6.229e-4
-1.533, 6.260e-4
-1.534, 6.322e-4
-1.535, 6.384e-4
-1.536, 6.445e-4
-1.537, 6.507e-4
-1.538, 6.569e-4
-1.539, 6.630e-4
-1.540, 6.723e-4
-1.541, 6.784e-4
-1.542, 6.846e-4
-1.543, 6.939e-4
-1.544, 7.000e-4
-1.545, 7.062e-4
-1.546, 7.124e-4
-1.547, 7.185e-4
-1.548, 7.278e-4
-1.549, 7.339e-4
-1.550, 7.432e-4
-1.551, 7.494e-4
-1.552, 7.555e-4
-1.553, 7.648e-4
-1.554, 7.740e-4
-1.555, 7.802e-4
-1.556, 7.894e-4
-1.557, 7.987e-4
-1.558, 8.079e-4
-1.559, 8.172e-4
-1.560, 8.264e-4
-1.561, 8.357e-4
-1.562, 8.449e-4
-1.563, 8.542e-4
-1.564, 8.634e-4
-1.565, 8.727e-4
-1.566, 8.819e-4
-1.567, 8.912e-4
-1.568, 9.004e-4
-1.569, 9.097e-4
-1.570, 9.189e-4
-1.571, 9.282e-4
-1.572, 9.374e-4
-1.573, 9.467e-4
-1.574, 9.590e-4
-1.575, 9.683e-4
-1.576, 9.775e-4
-1.577, 9.898e-4
-1.578, 9.991e-4
-1.579, 1.008e-3
-1.580, 1.014e-3
-1.581, 1.024e-3
-1.582, 1.033e-3
-1.583, 1.042e-3
-1.584, 1.055e-3
-1.585, 1.067e-3
-1.586, 1.079e-3
-1.587, 1.088e-3
-1.588, 1.098e-3
-1.589, 1.110e-3
-1.590, 1.125e-3
-1.591, 1.141e-3
-1.592, 1.153e-3
-1.593, 1.166e-3
-1.594, 1.178e-3
-1.595, 1.193e-3
-1.596, 1.203e-3
-1.597, 1.215e-3
-1.598, 1.227e-3
-1.599, 1.243e-3
-1.600, 1.255e-3
-1.601, 1.270e-3
-1.602, 1.283e-3
-1.603, 1.295e-3
-1.604, 1.314e-3
-1.605, 1.326e-3
-1.606, 1.341e-3
-1.607, 1.357e-3
-1.608, 1.369e-3
-1.609, 1.384e-3
-1.610, 1.403e-3
-1.611, 1.418e-3
-1.612, 1.437e-3
-1.613, 1.455e-3
-1.614, 1.471e-3
-1.615, 1.483e-3
-1.616, 1.495e-3
-1.617, 1.517e-3
-1.618, 1.539e-3
-1.619, 1.557e-3
-1.620, 1.573e-3
-1.621, 1.585e-3
-1.622, 1.603e-3
-1.623, 1.622e-3
-1.624, 1.643e-3
-1.625, 1.662e-3
-1.626, 1.677e-3
-1.627, 1.693e-3
-1.628, 1.711e-3
-1.629, 1.730e-3
-1.630, 1.751e-3
-1.631, 1.773e-3
-1.632, 1.788e-3
-1.633, 1.807e-3
-1.634, 1.825e-3
-1.635, 1.844e-3
-1.636, 1.865e-3
-1.637, 1.884e-3
-1.638, 1.902e-3
-1.639, 1.921e-3
-1.640, 1.943e-3
-1.641, 1.967e-3
-1.642, 1.992e-3
-1.643, 2.017e-3
-1.644, 2.038e-3
-1.645, 2.060e-3
-1.646, 2.078e-3
-1.647, 2.103e-3
-1.648, 2.128e-3
-1.649, 2.152e-3
-1.650, 2.174e-3
-1.651, 2.198e-3
-1.652, 2.223e-3
-1.653, 2.248e-3
-1.654, 2.279e-3
-1.655, 2.303e-3
-1.656, 2.331e-3
-1.657, 2.359e-3
-1.658, 2.390e-3
-1.659, 2.417e-3
-1.660, 2.442e-3
-1.661, 2.470e-3
-1.662, 2.494e-3
-1.663, 2.519e-3
-1.664, 2.544e-3
-1.665, 2.571e-3
-1.666, 2.596e-3
-1.667, 2.618e-3
-1.668, 2.639e-3
-1.669, 2.661e-3
-1.670, 2.682e-3
-1.671, 2.707e-3
-1.672, 2.732e-3
-1.673, 2.756e-3
-1.674, 2.781e-3
-1.675, 2.803e-3
-1.676, 2.830e-3
-1.677, 2.849e-3
-1.678, 2.871e-3
-1.679, 2.892e-3
-1.680, 2.908e-3
-1.681, 2.935e-3
-1.682, 2.957e-3
-1.683, 2.985e-3
-1.684, 3.009e-3
-1.685, 3.040e-3
-1.686, 3.071e-3
-1.687, 3.108e-3
-1.688, 3.139e-3
-1.689, 3.167e-3
-1.690, 3.197e-3
-1.691, 3.234e-3
-1.692, 3.268e-3
-1.693, 3.305e-3
-1.694, 3.342e-3
-1.695, 3.373e-3
-1.696, 3.407e-3
-1.697, 3.447e-3
-1.698, 3.484e-3
-1.699, 3.524e-3
-1.700, 3.530e-3
-1.699, 3.490e-3
-1.698, 3.456e-3
-1.697, 3.422e-3
-1.696, 3.398e-3
-1.695, 3.370e-3
-1.694, 3.342e-3
-1.693, 3.311e-3
-1.692, 3.281e-3
-1.691, 3.247e-3
-1.690, 3.219e-3
-1.689, 3.194e-3
-1.688, 3.163e-3
-1.687, 3.136e-3
-1.686, 3.105e-3
-1.685, 3.077e-3
-1.684, 3.049e-3
-1.683, 3.019e-3
-1.682, 2.991e-3
-1.681, 2.960e-3
-1.680, 2.932e-3
-1.679, 2.901e-3
-1.678, 2.871e-3
-1.677, 2.843e-3
-1.676, 2.812e-3
-1.675, 2.781e-3
-1.674, 2.750e-3
-1.673, 2.723e-3
-1.672, 2.701e-3
-1.671, 2.673e-3
-1.670, 2.645e-3
-1.669, 2.621e-3
-1.668, 2.596e-3
-1.667, 2.575e-3
-1.666, 2.550e-3
-1.665, 2.522e-3
-1.664, 2.491e-3
-1.663, 2.460e-3
-1.662, 2.433e-3
-1.661, 2.408e-3
-1.660, 2.377e-3
-1.659, 2.346e-3
-1.658, 2.316e-3
-1.657, 2.288e-3
-1.656, 2.269e-3
-1.655, 2.248e-3
-1.654, 2.223e-3
-1.653, 2.198e-3
-1.652, 2.180e-3
-1.651, 2.161e-3
-1.650, 2.143e-3
-1.649, 2.121e-3
-1.648, 2.106e-3
-1.647, 2.087e-3
-1.646, 2.060e-3
-1.645, 2.032e-3
-1.644, 2.004e-3
-1.643, 1.983e-3
-1.642, 1.964e-3
-1.641, 1.939e-3
-1.640, 1.915e-3
-1.639, 1.884e-3
-1.638, 1.853e-3
-1.637, 1.832e-3
-1.636, 1.810e-3
-1.635, 1.791e-3
-1.634, 1.770e-3
-1.633, 1.745e-3
-1.632, 1.721e-3
-1.631, 1.699e-3
-1.630, 1.677e-3
-1.629, 1.659e-3
-1.628, 1.634e-3
-1.627, 1.613e-3
-1.626, 1.591e-3
-1.625, 1.569e-3
-1.624, 1.548e-3
-1.623, 1.529e-3
-1.622, 1.508e-3
-1.621, 1.486e-3
-1.620, 1.465e-3
-1.619, 1.446e-3
-1.618, 1.428e-3
-1.617, 1.409e-3
-1.616, 1.391e-3
-1.615, 1.369e-3
-1.614, 1.351e-3
-1.613, 1.335e-3
-1.612, 1.317e-3
-1.611, 1.301e-3
-1.610, 1.283e-3
-1.609, 1.267e-3
-1.608, 1.249e-3
-1.607, 1.233e-3
-1.606, 1.215e-3
-1.605, 1.199e-3
-1.604, 1.184e-3
-1.603, 1.166e-3
-1.602, 1.150e-3
-1.601, 1.129e-3
-1.600, 1.116e-3
-1.599, 1.098e-3
-1.598, 1.082e-3
-1.597, 1.067e-3
-1.596, 1.048e-3
-1.595, 1.033e-3
-1.594, 1.018e-3
-1.593, 1.002e-3
-1.592, 9.868e-4
-1.591, 9.713e-4
-1.590, 9.559e-4
-1.589, 9.405e-4
-1.588, 9.251e-4
-1.587, 9.097e-4
-1.586, 8.943e-4
-1.585, 8.788e-4
-1.584, 8.665e-4
-1.583, 8.511e-4
-1.582, 8.388e-4
-1.581, 8.233e-4
-1.580, 8.079e-4
-1.579, 7.956e-4
-1.578, 7.802e-4
-1.577, 7.679e-4
-1.576, 7.555e-4
-1.575, 7.401e-4
-1.574, 7.278e-4
-1.573, 7.154e-4
-1.572, 7.031e-4
-1.571, 6.908e-4
-1.570, 6.784e-4
-1.569, 6.661e-4
-1.568, 6.538e-4
-1.567, 6.414e-4
-1.566, 6.291e-4
-1.565, 6.168e-4
-1.564, 6.044e-4
-1.563, 5.952e-4
-1.562, 5.829e-4
-1.561, 5.705e-4
-1.560, 5.613e-4
-1.559, 5.489e-4
-1.558, 5.366e-4
-1.557, 5.274e-4
-1.556, 5.181e-4
-1.555, 5.058e-4
-1.554, 4.935e-4
-1.553, 4.842e-4
-1.552, 4.750e-4
-1.551, 4.626e-4
-1.550, 4.534e-4
-1.549, 4.441e-4
-1.548, 4.318e-4
-1.547, 4.256e-4
-1.546, 4.164e-4
-1.545, 4.071e-4
-1.544, 3.979e-4
-1.543, 3.886e-4
-1.542, 3.794e-4
-1.541, 3.701e-4
-1.540, 3.609e-4
-1.539, 3.547e-4
-1.538, 3.455e-4
-1.537, 3.362e-4
-1.536, 3.270e-4
-1.535, 3.177e-4
-1.534, 3.115e-4
-1.533, 3.023e-4
-1.532, 2.931e-4
-1.531, 2.869e-4
-1.530, 2.776e-4
-1.529, 2.715e-4
-1.528, 2.622e-4
-1.527, 2.561e-4
-1.526, 2.499e-4
-1.525, 2.406e-4
-1.524, 2.314e-4
-1.523, 2.252e-4
-1.522, 2.191e-4
-1.521, 2.129e-4
-1.520, 2.067e-4
-1.519, 2.006e-4
-1.518, 1.944e-4
-1.517, 1.851e-4
-1.516, 1.790e-4
-1.515, 1.728e-4
-1.514, 1.666e-4
-1.513, 1.605e-4
-1.512, 1.543e-4
-1.511, 1.481e-4
-1.510, 1.420e-4
-1.509, 1.358e-4
-1.508, 1.327e-4
-1.507, 1.266e-4
-1.506, 1.204e-4
-1.505, 1.142e-4
-1.504, 1.081e-4
-1.503, 1.050e-4
-1.502, 9.882e-5
-1.501, 9.265e-5
-1.500, 8.648e-5
-1.499, 8.340e-5
-1.498, 8.032e-5
-1.497, 7.415e-5
-1.496, 6.798e-5
-1.495, 6.490e-5
-1.494, 5.873e-5
-1.493, 5.565e-5
-1.492, 4.949e-5
-1.491, 4.640e-5
-1.490, 4.024e-5
-1.489, 3.715e-5
-1.488, 3.407e-5
-1.487, 2.790e-5
-1.486, 2.482e-5
-1.485, 2.174e-5
-1.484, 1.557e-5
-1.483, 1.249e-5
-1.482, 9.405e-6
-1.481, 6.322e-6
-1.480, 3.239e-6
-1.479, -2.927e-6
-1.478, -6.010e-6
-1.477, -9.093e-6
-1.476, -1.218e-5
-1.475, -1.526e-5
-1.474, -1.834e-5
-1.473, -2.143e-5
-1.472, -2.451e-5
-1.471, -2.759e-5
-1.470, -3.068e-5
-1.469, -3.376e-5
-1.468, -3.684e-5
-1.467, -3.992e-5
-1.466, -4.301e-5
-1.465, -4.609e-5
-1.464, -4.609e-5
-1.463, -4.917e-5
-1.462, -5.226e-5
-1.461, -5.534e-5
-1.460, -5.842e-5
-1.459, -6.151e-5
-1.458, -6.151e-5
-1.457, -6.459e-5
-1.456, -6.767e-5
-1.455, -6.767e-5
-1.454, -7.076e-5
-1.453, -7.384e-5
-1.452, -7.692e-5
-1.451, -7.692e-5
-1.450, -8.000e-5
-1.449, -8.000e-5
-1.448, -8.309e-5
-1.447, -8.309e-5
-1.446, -8.617e-5
-1.445, -8.617e-5
-1.444, -8.925e-5
-1.443, -9.234e-5
-1.442, -9.234e-5
-1.441, -9.542e-5
-1.440, -9.542e-5
-1.439, -9.542e-5
-1.438, -9.850e-5
-1.437, -9.850e-5
-1.436, -1.016e-4
-1.435, -1.016e-4
-1.434, -1.047e-4
-1.433, -1.047e-4
-1.432, -1.078e-4
-1.431, -1.078e-4
-1.430, -1.078e-4
-1.429, -1.078e-4
-1.428, -1.108e-4
-1.427, -1.108e-4
-1.426, -1.139e-4
-1.425, -1.139e-4
-1.424, -1.139e-4
-1.423, -1.139e-4
-1.422, -1.170e-4
-1.421, -1.170e-4
-1.420, -1.170e-4
-1.419, -1.170e-4
-1.418, -1.201e-4
-1.417, -1.201e-4
-1.416, -1.232e-4
-1.415, -1.232e-4
-1.414, -1.232e-4
-1.413, -1.232e-4
-1.412, -1.232e-4
-1.411, -1.232e-4
-1.410, -1.263e-4
-1.409, -1.263e-4
-1.408, -1.263e-4
-1.407, -1.263e-4
-1.406, -1.263e-4
-1.405, -1.293e-4
-1.404, -1.293e-4
-1.403, -1.293e-4
-1.402, -1.293e-4
-1.401, -1.293e-4
-1.400, -1.293e-4
-1.399, -1.293e-4
-1.398, -1.324e-4
-1.397, -1.293e-4
-1.396, -1.324e-4
-1.395, -1.324e-4
-1.394, -1.324e-4
-1.393, -1.324e-4
-1.392, -1.324e-4
-1.391, -1.324e-4
-1.390, -1.324e-4
-1.389, -1.324e-4
-1.388, -1.324e-4
-1.387, -1.355e-4
-1.386, -1.324e-4
-1.385, -1.355e-4
-1.384, -1.355e-4
-1.383, -1.355e-4
-1.382, -1.355e-4
-1.381, -1.355e-4
-1.380, -1.355e-4
-1.379, -1.355e-4
-1.378, -1.355e-4
-1.377, -1.386e-4
-1.376, -1.355e-4
-1.375, -1.355e-4
-1.374, -1.386e-4
-1.373, -1.355e-4
-1.372, -1.386e-4
-1.371, -1.386e-4
-1.370, -1.386e-4
-1.369, -1.386e-4
-1.368, -1.386e-4
-1.367, -1.386e-4
-1.366, -1.386e-4
-1.365, -1.386e-4
-1.364, -1.417e-4
-1.363, -1.417e-4
-1.362, -1.386e-4
-1.361, -1.417e-4
-1.360, -1.417e-4
-1.359, -1.417e-4
-1.358, -1.417e-4
-1.357, -1.417e-4
-1.356, -1.417e-4
-1.355, -1.417e-4
-1.354, -1.417e-4
-1.353, -1.448e-4
-1.352, -1.417e-4
-1.351, -1.448e-4
-1.350, -1.448e-4
-1.349, -1.448e-4
-1.348, -1.448e-4
-1.347, -1.448e-4
-1.346, -1.448e-4
-1.345, -1.478e-4
-1.344, -1.478e-4
-1.343, -1.478e-4
-1.342, -1.478e-4
-1.341, -1.478e-4
-1.340, -1.509e-4
-1.339, -1.509e-4
-1.338, -1.509e-4
-1.337, -1.509e-4
-1.336, -1.509e-4
-1.335, -1.509e-4
-1.334, -1.540e-4
-1.333, -1.540e-4
-1.332, -1.540e-4
-1.331, -1.540e-4
-1.330, -1.540e-4
-1.329, -1.540e-4
-1.328, -1.540e-4
-1.327, -1.571e-4
-1.326, -1.571e-4
-1.325, -1.571e-4
-1.324, -1.602e-4
-1.323, -1.602e-4
-1.322, -1.602e-4
-1.321, -1.602e-4
-1.320, -1.632e-4
-1.319, -1.632e-4
-1.318, -1.663e-4
-1.317, -1.663e-4
-1.316, -1.663e-4
-1.315, -1.663e-4
-1.314, -1.694e-4
-1.313, -1.694e-4
-1.312, -1.694e-4
-1.311, -1.725e-4
-1.310, -1.725e-4
-1.309, -1.725e-4
-1.308, -1.756e-4
-1.307, -1.756e-4
-1.306, -1.756e-4
-1.305, -1.787e-4
-1.304, -1.787e-4
-1.303, -1.787e-4
-1.302, -1.817e-4
-1.301, -1.817e-4
-1.300, -1.848e-4
-1.299, -1.848e-4
-1.298, -1.879e-4
-1.297, -1.879e-4
-1.296, -1.910e-4
-1.295, -1.910e-4
-1.294, -1.910e-4
-1.293, -1.941e-4
-1.292, -1.972e-4
-1.291, -1.972e-4
-1.290, -2.002e-4
-1.289, -2.002e-4
-1.288, -2.033e-4
-1.287, -2.033e-4
-1.286, -2.064e-4
-1.285, -2.064e-4
-1.284, -2.095e-4
-1.283, -2.095e-4
-1.282, -2.126e-4
-1.281, -2.126e-4
-1.280, -2.157e-4
-1.279, -2.157e-4
-1.278, -2.187e-4
-1.277, -2.187e-4
-1.276, -2.218e-4
-1.275, -2.218e-4
-1.274, -2.249e-4
-1.273, -2.249e-4
-1.272, -2.280e-4
-1.271, -2.311e-4
-1.270, -2.311e-4
-1.269, -2.342e-4
-1.268, -2.342e-4
-1.267, -2.372e-4
-1.266, -2.372e-4
-1.265, -2.403e-4
-1.264, -2.403e-4
-1.263, -2.434e-4
-1.262, -2.465e-4
-1.261, -2.465e-4
-1.260, -2.496e-4
-1.259, -2.496e-4
-1.258, -2.527e-4
-1.257, -2.557e-4
-1.256, -2.557e-4
-1.255, -2.588e-4
-1.254, -2.619e-4
-1.253, -2.619e-4
-1.252, -2.650e-4
-1.251, -2.650e-4
-1.250, -2.681e-4
-1.249, -2.712e-4
-1.248, -2.712e-4
-1.247, -2.742e-4
-1.246, -2.742e-4
-1.245, -2.773e-4
-1.244, -2.804e-4
-1.243, -2.835e-4
-1.242, -2.835e-4
-1.241, -2.866e-4
-1.240, -2.866e-4
-1.239, -2.866e-4
-1.238, -2.897e-4
-1.237, -2.927e-4
-1.236, -2.958e-4
-1.235, -2.958e-4
-1.234, -2.989e-4
-1.233, -3.020e-4
-1.232, -3.020e-4
-1.231, -3.051e-4
-1.230, -3.082e-4
-1.229, -3.082e-4
-1.228, -3.112e-4
-1.227, -3.143e-4
-1.226, -3.143e-4
-1.225, -3.174e-4
-1.224, -3.174e-4
-1.223, -3.205e-4
-1.222, -3.236e-4
-1.221, -3.236e-4
-1.220, -3.267e-4
-1.219, -3.267e-4
-1.218, -3.297e-4
-1.217, -3.297e-4
-1.216, -3.328e-4
-1.215, -3.359e-4
-1.214, -3.359e-4
-1.213, -3.390e-4
-1.212, -3.390e-4
-1.211, -3.421e-4
-1.210, -3.452e-4
-1.209, -3.482e-4
-1.208, -3.482e-4
-1.207, -3.482e-4
-1.206, -3.513e-4
-1.205, -3.513e-4
-1.204, -3.544e-4
-1.203, -3.544e-4
-1.202, -3.575e-4
-1.201, -3.575e-4
-1.200, -3.606e-4
-1.199, -3.606e-4
-1.198, -3.637e-4
-1.197, -3.637e-4
-1.196, -3.637e-4
-1.195, -3.667e-4
-1.194, -3.667e-4
-1.193, -3.698e-4
-1.192, -3.698e-4
-1.191, -3.729e-4
-1.190, -3.729e-4
-1.189, -3.760e-4
-1.188, -3.760e-4
-1.187, -3.760e-4
-1.186, -3.791e-4
-1.185, -3.791e-4
-1.184, -3.821e-4
-1.183, -3.852e-4
-1.182, -3.852e-4
-1.181, -3.852e-4
-1.180, -3.883e-4
-1.179, -3.883e-4
-1.178, -3.914e-4
-1.177, -3.945e-4
-1.176, -3.914e-4
-1.175, -3.945e-4
-1.174, -3.945e-4
-1.173, -3.976e-4
-1.172, -3.976e-4
-1.171, -4.006e-4
-1.170, -4.006e-4
-1.169, -4.006e-4
-1.168, -4.037e-4
-1.167, -4.037e-4
-1.166, -4.068e-4
-1.165, -4.068e-4
-1.164, -4.068e-4
-1.163, -4.099e-4
-1.162, -4.099e-4
-1.161, -4.130e-4
-1.160, -4.130e-4
-1.159, -4.130e-4
-1.158, -4.130e-4
-1.157, -4.161e-4
-1.156, -4.161e-4
-1.155, -4.161e-4
-1.154, -4.191e-4
-1.153, -4.191e-4
-1.152, -4.191e-4
-1.151, -4.222e-4
-1.150, -4.222e-4
-1.149, -4.222e-4
-1.148, -4.253e-4
-1.147, -4.253e-4
-1.146, -4.253e-4
-1.145, -4.284e-4
-1.144, -4.284e-4
-1.143, -4.284e-4
-1.142, -4.284e-4
-1.141, -4.284e-4
-1.140, -4.315e-4
-1.139, -4.315e-4
-1.138, -4.315e-4
-1.137, -4.315e-4
-1.136, -4.315e-4
-1.135, -4.346e-4
-1.134, -4.346e-4
-1.133, -4.346e-4
-1.132, -4.346e-4
-1.131, -4.346e-4
-1.130, -4.376e-4
-1.129, -4.376e-4
-1.128, -4.376e-4
-1.127, -4.376e-4
-1.126, -4.376e-4
-1.125, -4.407e-4
-1.124, -4.407e-4
-1.123, -4.407e-4
-1.122, -4.407e-4
-1.121, -4.438e-4
-1.120, -4.407e-4
-1.119, -4.438e-4
-1.118, -4.438e-4
-1.117, -4.438e-4
-1.116, -4.469e-4
-1.115, -4.438e-4
-1.114, -4.469e-4
-1.113, -4.469e-4
-1.112, -4.469e-4
-1.111, -4.469e-4
-1.110, -4.469e-4
-1.109, -4.469e-4
-1.108, -4.500e-4
-1.107, -4.500e-4
-1.106, -4.500e-4
-1.105, -4.500e-4
-1.104, -4.500e-4
-1.103, -4.531e-4
-1.102, -4.531e-4
-1.101, -4.531e-4
-1.100, -4.531e-4
-1.099, -4.561e-4
-1.098, -4.561e-4
-1.097, -4.561e-4
-1.096, -4.561e-4
-1.095, -4.561e-4
-1.094, -4.592e-4
-1.093, -4.592e-4
-1.092, -4.561e-4
-1.091, -4.592e-4
-1.090, -4.592e-4
-1.089, -4.592e-4
-1.088, -4.623e-4
-1.087, -4.623e-4
-1.086, -4.623e-4
-1.085, -4.623e-4
-1.084, -4.623e-4
-1.083, -4.623e-4
-1.082, -4.654e-4
-1.081, -4.654e-4
-1.080, -4.685e-4
-1.079, -4.685e-4
-1.078, -4.685e-4
-1.077, -4.716e-4
-1.076, -4.716e-4
-1.075, -4.746e-4
-1.074, -4.746e-4
-1.073, -4.746e-4
-1.072, -4.746e-4
-1.071, -4.777e-4
-1.070, -4.777e-4
-1.069, -4.777e-4
-1.068, -4.808e-4
-1.067, -4.808e-4
-1.066, -4.808e-4
-1.065, -4.839e-4
-1.064, -4.870e-4
-1.063, -4.870e-4
-1.062, -4.870e-4
-1.061, -4.901e-4
-1.060, -4.931e-4
-1.059, -4.931e-4
-1.058, -4.931e-4
-1.057, -4.962e-4
-1.056, -4.962e-4
-1.055, -4.993e-4
-1.054, -4.993e-4
-1.053, -5.024e-4
-1.052, -5.024e-4
-1.051, -5.055e-4
-1.050, -5.086e-4
-1.049, -5.086e-4
-1.048, -5.116e-4
-1.047, -5.116e-4
-1.046, -5.147e-4
-1.045, -5.178e-4
-1.044, -5.209e-4
-1.043, -5.240e-4
-1.042, -5.240e-4
-1.041, -5.271e-4
-1.040, -5.301e-4
-1.039, -5.301e-4
-1.038, -5.363e-4
-1.037, -5.394e-4
-1.036, -5.394e-4
-1.035, -5.425e-4
-1.034, -5.486e-4
-1.033, -5.548e-4
-1.032, -5.610e-4
-1.031, -5.641e-4
-1.030, -5.671e-4
-1.029, -5.733e-4
-1.028, -5.733e-4
-1.027, -5.733e-4
-1.026, -5.795e-4
-1.025, -5.826e-4
-1.024, -5.887e-4
-1.023, -5.887e-4
-1.022, -5.949e-4
-1.021, -5.980e-4
-1.020, -6.011e-4
-1.019, -6.041e-4
-1.018, -6.103e-4
-1.017, -6.134e-4
-1.016, -6.134e-4
-1.015, -6.195e-4
-1.014, -6.226e-4
-1.013, -6.288e-4
-1.012, -6.319e-4
-1.011, -6.350e-4
-1.010, -6.380e-4
-1.009, -6.442e-4
-1.008, -6.473e-4
-1.007, -6.535e-4
-1.006, -6.565e-4
-1.005, -6.596e-4
-1.004, -6.627e-4
-1.003, -6.689e-4
-1.002, -6.720e-4
-1.001, -6.781e-4
