Potential V vs RHE, Current mA cm-2
0.013299999999999867,0.3990900576919268
0.012299999999999978,0.1976351685911456
0.011299999999999866,0.07526264115281994
0.010299999999999976,-0.015745736767497857
0.009299999999999864,-0.09195623449122738
0.008299999999999974,-0.1551938295951945
0.007299999999999862,-0.21121639706985
0.006299999999999972,-0.2622874749949778
0.00529999999999986,-0.30529469851087493
0.0042999999999999705,-0.3453310282970554
0.0032999999999998586,-0.386499127123128
0.0022999999999999687,-0.42158396735978093
0.0012999999999998568,-0.4544052695166497
0.00029999999999996696,-0.48001154404420693
-0.000700000000000145,-0.5091545968214266
-0.0017000000000000348,-0.5356096981289029
-0.0027000000000001467,-0.5593768479666354
-0.0037000000000000366,-0.5844172379742467
-0.0047000000000001485,-0.6045061384323301
-0.005700000000000038,-0.6216241451606972
-0.00670000000000015,-0.6394495075389965
-0.00770000000000004,-0.652747793757728
-0.008700000000000152,-0.6671778490163512
-0.009700000000000042,-0.6893888164242324
-0.010700000000000154,-0.7060824097626398
-0.011700000000000044,-0.7145706775618301
-0.012700000000000156,-0.7308398575102779
-0.013700000000000045,-0.7437137303390498
-0.014700000000000157,-0.7553143629979431
-0.015700000000000047,-0.7674808801767823
-0.01670000000000016,-0.7756862057159997
-0.01770000000000005,-0.7899747898446364
-0.01870000000000016,-0.8104881036926795
-0.01970000000000005,-0.8242108033013704
-0.020700000000000163,-0.8310014175407225
-0.021700000000000053,-0.8360943782202367
-0.022700000000000164,-0.846280299579265
-0.023700000000000054,-0.8561832786783202
-0.024700000000000166,-0.8588712301480638
-0.025700000000000056,-0.8650959598674699
-0.026700000000000168,-0.8626909506576994
-0.027700000000000058,-0.8703303916769705
-0.02870000000000017,-0.88532633145554
-0.02970000000000006,-0.8916925323049326
-0.03070000000000017,-0.8984831465442846
-0.03170000000000006,-0.9014540402740014
-0.03270000000000017,-0.9090934812932725
-0.03370000000000006,-0.9151767398826923
-0.034700000000000175,-0.9198452871722468
-0.035700000000000065,-0.9245138344618015
-0.03670000000000018,-0.9305970930512211
-0.03770000000000007,-0.9314459198311402
-0.03870000000000018,-0.9371047650306003
-0.03970000000000007,-0.9379535918105193
-0.04070000000000018,-0.9376706495505462
-0.04170000000000007,-0.9395097742403707
-0.04270000000000018,-0.9361144671206947
-0.04370000000000007,-0.9412074278002089
-0.044700000000000184,-0.9499786378593722
-0.045700000000000074,-0.9522421759391562
-0.046700000000000186,-0.9564863098387513
-0.047700000000000076,-0.9569107232287108
-0.04870000000000019,-0.9591742613084948
-0.04970000000000008,-0.9591742613084948
-0.05070000000000019,-0.9595986746984544
-0.05170000000000008,-0.963135452948117
-0.05270000000000019,-0.9645501642479821
-0.05370000000000008,-0.96341839520809
-0.05470000000000019,-0.965116048767928
-0.05570000000000008,-0.9673795868477121
-0.056700000000000195,-0.9686528270175907
-0.057700000000000085,-0.9641257508580224
-0.058700000000000196,-0.963135452948117
-0.059700000000000086,-0.9628525106881439
-0.0607000000000002,-0.9584669056585623
-0.06170000000000009,-0.9569107232287108
-0.0627000000000002,-0.9579010211386163
-0.06370000000000009,-0.961154857128306
-0.0647000000000002,-0.9632769240781034
-0.06570000000000009,-0.962003683908225
-0.0667000000000002,-0.9586083767885488
-0.0677000000000001,-0.9564863098387513
-0.0687000000000002,-0.9556374830588322
-0.0697000000000001,-0.9512518780292506
-0.07070000000000021,-0.9508274646392911
-0.0717000000000001,-0.948563926559507
-0.07270000000000021,-0.9505445223793181
-0.0737000000000001,-0.9467248018696826
-0.07470000000000021,-0.9406415432802627
-0.0757000000000001,-0.9413488989301954
-0.07670000000000021,-0.9386609474604518
-0.0777000000000001,-0.9344168135608568
-0.07870000000000021,-0.9330021022609917
-0.0797000000000001,-0.9293238528813426
-0.08070000000000022,-0.9293238528813426
-0.0817000000000001,-0.9276261993215045
-0.08270000000000022,-0.9225332386419903
-0.08370000000000011,-0.9197038160422604
-0.08470000000000022,-0.9189964603923279
-0.08570000000000011,-0.9160255666626113
-0.08670000000000022,-0.9144693842327598
-0.08770000000000011,-0.9085275967733266
-0.08870000000000022,-0.9049908185236639
-0.08970000000000011,-0.9011710980140284
-0.09070000000000022,-0.8998978578441498
-0.09170000000000011,-0.8990490310642308
-0.09270000000000023,-0.8963610795944873
-0.09370000000000012,-0.8914095900449596
-0.09470000000000023,-0.8892875230951621
-0.09570000000000012,-0.8854678025855264
-0.09670000000000023,-0.8827798511157828
-0.09770000000000012,-0.8827798511157828
-0.09870000000000023,-0.8765551213963767
-0.09970000000000012,-0.8708962761969166
-0.10070000000000023,-0.8665106711673349
-0.10170000000000012,-0.8626909506576994
-0.10270000000000024,-0.8614177104878209
-0.10370000000000013,-0.8602859414479289
-0.10470000000000024,-0.8568906343282527
-0.10570000000000013,-0.8556173941583741
-0.10670000000000024,-0.8539197405985361
-0.10770000000000013,-0.8509488468688196
-0.10870000000000024,-0.84769501087913
-0.10970000000000013,-0.8420361656796699
-0.11070000000000024,-0.8416117522897104
-0.11170000000000013,-0.8392067430799398
-0.11270000000000002,-0.8365187916101962
-0.11370000000000013,-0.8343967246603987
-0.11470000000000002,-0.828313466070979
-0.11570000000000014,-0.8281719949409925
-0.11670000000000003,-0.8249181589513029
-0.11770000000000014,-0.8179860735819643
-0.11870000000000003,-0.8182690158419373
-0.11970000000000014,-0.8147322375922746
-0.12070000000000003,-0.8070927965730035
-0.12170000000000014,-0.8096392769127605
-0.12270000000000003,-0.8073757388329764
-0.12370000000000014,-0.807517209962963
-0.12470000000000003,-0.8022827781534622
-0.12570000000000014,-0.7974727597339211
-0.12670000000000003,-0.7986045287738132
-0.12770000000000015,-0.7983215865138401
-0.12870000000000004,-0.7945018660042045
-0.12970000000000015,-0.792096856794434
-0.13070000000000004,-0.7887015496747579
-0.13170000000000015,-0.7861550693350008
-0.13270000000000004,-0.7868624249849333
-0.13370000000000015,-0.7840330023852033
-0.13470000000000004,-0.7797888684856082
-0.13570000000000015,-0.7756862057159997
-0.13670000000000004,-0.771866485206364
-0.13770000000000016,-0.7693200048666069
-0.13870000000000005,-0.7722908985963235
-0.13970000000000016,-0.7721494274663371
-0.14070000000000005,-0.769037062606634
-0.14170000000000016,-0.767905293566742
-0.14270000000000005,-0.7669149956568363
-0.14370000000000016,-0.7642270441870929
-0.14470000000000005,-0.7632367462771872
-0.14570000000000016,-0.7647929287070389
-0.14670000000000005,-0.7621049772372952
-0.14770000000000016,-0.7616805638473357
-0.14870000000000005,-0.7587096701176191
-0.14970000000000017,-0.7571534876877677
-0.15070000000000006,-0.7574364299477406
-0.15170000000000017,-0.756163189777862
-0.15270000000000006,-0.751070229098348
-0.15370000000000017,-0.7469675663287394
-0.15470000000000006,-0.7496555177984829
-0.15570000000000017,-0.7500799311884424
-0.15670000000000006,-0.7502214023184289
-0.15770000000000017,-0.7485237487585908
-0.15870000000000006,-0.7496555177984829
-0.15970000000000018,-0.7456943261588609
-0.16070000000000007,-0.7456943261588609
-0.16170000000000018,-0.7471090374587258
-0.16270000000000007,-0.7452699127689013
-0.16370000000000018,-0.7502214023184289
-0.16470000000000007,-0.7489481621485504
-0.16570000000000018,-0.7438552014690363
-0.16670000000000007,-0.7472505085887123
-0.16770000000000018,-0.7462602106788069
-0.16870000000000007,-0.7448454993789418
-0.16970000000000018,-0.7411672499992927
-0.17070000000000007,-0.7414501922592658
-0.17170000000000019,-0.7452699127689013
-0.17270000000000008,-0.7478163931086583
-0.1737000000000002,-0.7471090374587258
-0.17470000000000008,-0.7479578642386449
-0.1757000000000002,-0.7476749219786718
-0.17670000000000008,-0.7483822776286043
-0.1777000000000002,-0.7483822776286043
-0.17870000000000008,-0.7489481621485504
-0.1797000000000002,-0.749938460058456
-0.18070000000000008,-0.749938460058456
-0.1817000000000002,-0.7507872868383749
-0.18270000000000008,-0.7529093537881726
-0.1837000000000002,-0.753050824918159
-0.1847000000000001,-0.753333767178132
-0.1857000000000002,-0.7543240650880375
-0.1867000000000001,-0.7580023144676866
-0.1877000000000002,-0.7592755546375651
-0.1887000000000001,-0.7606902659374303
-0.1897000000000002,-0.7598414391575111
-0.1907000000000001,-0.7650758709670118
-0.1917000000000001,-0.7629538040172142
-0.19269999999999998,-0.7611146793273897
-0.1937000000000001,-0.7680467646967284
-0.19469999999999998,-0.7632367462771872
-0.1957000000000001,-0.7698858893865529
-0.19669999999999999,-0.7732811965062291
-0.1977000000000001,-0.7714420718164045
-0.1987,-0.7756862057159997
-0.1997000000000001,-0.774130023286148
-0.2007,-0.7758276768459861
-0.2017000000000001,-0.7793644550956487
-0.2027,-0.7824768199553517
-0.2037000000000001,-0.7865794827249604
-0.2047,-0.7868624249849333
-0.2057000000000001,-0.7874283095048794
-0.2067,-0.7887015496747579
-0.2077000000000001,-0.7966239329540021
-0.2087,-0.7990289421637727
-0.2097000000000001,-0.8014339513735432
-0.2107,-0.8042633739732733
-0.2117000000000001,-0.8036974894533273
-0.2127,-0.8034145471933544
-0.2137000000000001,-0.8148737087222612
-0.2147,-0.8143078242023152
-0.2157000000000001,-0.8201081405317618
-0.2167,-0.8218057940915999
-0.21770000000000012,-0.826898754771114
-0.2187,-0.828313466070979
-0.21970000000000012,-0.828030523811006
-0.2207,-0.8305770041507631
-0.22170000000000012,-0.8375090895201018
-0.2227,-0.8427435213296024
-0.22370000000000012,-0.8431679347195619
-0.2247,-0.8455729439293325
-0.22570000000000012,-0.8489682510490086
-0.2267,-0.8461388284492785
-0.22770000000000012,-0.8495341355689546
-0.22870000000000001,-0.8554759230283877
-0.22970000000000013,-0.8601444703179423
-0.23070000000000002,-0.8648130176074971
-0.23170000000000013,-0.868491266987146
-0.23270000000000002,-0.871037747326903
-0.23370000000000013,-0.8751404100965116
-0.23470000000000002,-0.8774039481762959
-0.23570000000000013,-0.8806577841659853
-0.23670000000000002,-0.8830627933757559
-0.2376999999999999,-0.8823554377258234
-0.23870000000000002,-0.888438696315243
-0.2396999999999999,-0.8953707816845817
-0.24070000000000003,-0.8970684352444198
-0.24169999999999991,-0.9037175783537855
-0.24270000000000003,-0.906971414343475
-0.24369999999999992,-0.9146108553627462
-0.24470000000000003,-0.9168743934425302
-0.24569999999999992,-0.9163085089225843
-0.24670000000000003,-0.9206941139521657
-0.24769999999999992,-0.9266359014115991
-0.24870000000000003,-0.9301726796612616
-0.24969999999999992,-0.9311629775711672
-0.25070000000000003,-0.9363974093806677
-0.2516999999999999,-0.9402171298903033
-0.25270000000000004,-0.9455930328297906
-0.2536999999999999,-0.949129811079453
-0.25470000000000004,-0.9372462361605868
-0.2556999999999999,-0.941490370060182
-0.25670000000000004,-0.9545057140189402
-0.25769999999999993,-0.9710578362273611
-0.25870000000000004,-0.9628525106881439
-0.25969999999999993,-0.9645501642479821
-0.26070000000000004,-0.9733213743071454
-0.26169999999999993,-0.9750190278669832
-0.26270000000000004,-0.9786972772466322
-0.26369999999999993,-0.9806778730664433
-0.26470000000000005,-0.982234055496295
-0.26569999999999994,-0.9856293626159711
-0.26670000000000005,-0.9927029191152963
-0.26769999999999994,-0.9949664571950803
-0.26870000000000005,-0.9982202931847698
-0.26969999999999994,-0.9999179467446078
-0.27070000000000005,-1.0017570714344324
-0.27169999999999994,-1.0027473693443378
-0.27270000000000005,-1.0081232722838251
-0.27369999999999994,-1.0149138865231773
-0.27470000000000006,-1.0294854129117872
-0.27569999999999995,-1.0248168656222325
-0.27670000000000006,-1.0289195283918413
-0.27769999999999995,-1.0311830664716253
-0.27870000000000006,-1.0359930848911665
-0.27969999999999995,-1.0378322095809909
-0.28070000000000006,-1.0430666413904914
-0.28169999999999995,-1.0432081125204782
-0.28270000000000006,-1.0461790062501946
-0.28369999999999995,-1.0526866782295738
-0.28470000000000006,-1.0557990430892767
-0.28569999999999995,-1.0580625811690607
-0.28670000000000007,-1.0587699368189936
-0.28769999999999996,-1.0583455234290338
-0.28870000000000007,-1.0567893409991824
-0.28969999999999996,-1.063155541848575
-0.29070000000000007,-1.0689558581780219
-0.29169999999999996,-1.0719267519077382
-0.29270000000000007,-1.0773026548472253
-0.29369999999999996,-1.0812638464868474
-0.2947000000000001,-1.0833859134366453
-0.29569999999999996,-1.0826785577867126
-0.2967000000000001,-1.0873471050762673
-0.29769999999999996,-1.0910253544559163
-0.2987000000000001,-1.0964012573954034
-0.29969999999999997,-1.0965427285253897
-0.3007000000000001,-1.099655093385093
-0.30169999999999997,-1.099655093385093
-0.3027000000000001,-1.1012112758149446
-0.30369999999999997,-1.1043236406746475
-0.3047000000000001,-1.1048895251945938
-0.30569999999999997,-1.0989477377351606
-0.3067000000000001,-1.099938035645066
-0.3077,-1.114226619773703
-0.3087000000000001,-1.1152169176836084
-0.3097,-1.1171975135034193
-0.3107000000000001,-1.118470753673298
-0.3117,-1.1213001762730281
-0.3127000000000001,-1.1220075319229605
-0.3137,-1.1262516658225556
-0.3147000000000001,-1.1296469729422318
-0.3157,-1.1302128574621777
-0.3167000000000001,-1.1313446265020697
-0.3177,-1.1320519821520023
-0.3187000000000001,-1.135871702661638
-0.3197,-1.1357302315316515
-0.3207000000000001,-1.1372864139615029
-0.3217,-1.136437587181584
-0.3227000000000001,-1.1354472892716785
-0.3237,-1.1388425963913547
-0.3247000000000001,-1.141247605601125
-0.3257,-1.1419549612510576
-0.3267000000000001,-1.1442184993308417
-0.3277,-1.1450673261107607
-0.3287000000000001,-1.1491699888803693
-0.3297,-1.1491699888803693
-0.3307000000000001,-1.1498773445303017
-0.3317,-1.1514335269601534
-0.3327000000000001,-1.15440442068987
-0.3337,-1.155253247469789
-0.3347000000000001,-1.1542629495598833
-0.3357,-1.1525652960000454
-0.3367000000000001,-1.1534141227799644
-0.3377,-1.154970305209816
-0.3387000000000001,-1.1539800072999105
-0.3397,-1.1409646633411519
-0.3407000000000001,-1.1504432290502478
-0.3417,-1.1602047370193165
-0.3427000000000001,-1.158082670069519
-0.3437,-1.159497381369384
-0.3447000000000001,-1.1556776608597483
-0.3457,-1.157799727809546
-0.3467000000000001,-1.1562435453796944
-0.3477,-1.1565264876396673
-0.3487000000000001,-1.1576582566795592
-0.3497,-1.1592144391094112
-0.3507000000000001,-1.1590729679794245
-0.3517,-1.157799727809546
-0.3527000000000001,-1.1585070834594786
-0.3537,-1.1599217947593436
-0.3547000000000001,-1.1592144391094112
-0.3557,-1.1590729679794245
-0.35670000000000013,-1.1603462081493032
-0.3577,-1.159497381369384
-0.35870000000000013,-1.1611950349292222
-0.3597,-1.1585070834594786
-0.36070000000000013,-1.156667958769654
-0.3617,-1.1583656123294919
-0.3626999999999999,-1.1536970650399374
-0.3637,-1.155536189729762
-0.3646999999999999,-1.1586485545894651
-0.3657,-1.1630341596190465
-0.3666999999999999,-1.1602047370193165
-0.3677,-1.160629150409276
-0.3686999999999999,-1.1637415152689792
-0.36970000000000003,-1.1651562265688442
-0.3706999999999999,-1.1647318131788846
-0.37170000000000003,-1.164590342048898
-0.3726999999999999,-1.1628926884890602
-0.37370000000000003,-1.1626097462290872
-0.3746999999999999,-1.1648732843088712
-0.37570000000000003,-1.1658635822187766
-0.3766999999999999,-1.1691174182084663
-0.37770000000000004,-1.1725127253281424
-0.3786999999999999,-1.1718053696782098
-0.37970000000000004,-1.1713809562882502
-0.3806999999999999,-1.1736444943680344
-0.38170000000000004,-1.1771812726176971
-0.38269999999999993,-1.1797277529574541
-0.38370000000000004,-1.1807180508673596
-0.38469999999999993,-1.179161868437508
-0.38570000000000004,-1.1804351086073865
-0.38669999999999993,-1.1808595219973461
-0.38770000000000004,-1.1822742332972112
-0.38869999999999993,-1.1899136743164824
-0.38970000000000005,-1.189772203186496
-0.39069999999999994,-1.195996932905902
-0.39170000000000005,-1.1992507688955918
-0.39269999999999994,-1.201655778105362
-0.39370000000000005,-1.2067487387848763
-0.39469999999999994,-1.2098611036445792
-0.39570000000000005,-1.2150955354540802
-0.39669999999999994,-1.2186323137037425
-0.39770000000000005,-1.2237252743832567
-0.39869999999999994,-1.2281108794128386
-0.39970000000000006,-1.2266961681129733
-0.40069999999999995,-1.2293841195827169
-0.40170000000000006,-1.2370235606019881
-0.40269999999999995,-1.2446630016212592
-0.40370000000000006,-1.2518780292505711
-0.40469999999999995,-1.2558392208901932
-0.40570000000000006,-1.2620639506095992
-0.40669999999999995,-1.2694204493688974
-0.40770000000000006,-1.2790404862079796
-0.40869999999999995,-1.2863969849672778
-0.40970000000000006,-1.2917728879067651
-0.41069999999999995,-1.2971487908462522
-0.41170000000000007,-1.305495587515456
-0.41269999999999996,-1.3158229800044707
-0.41370000000000007,-1.3264333147534584
-0.41469999999999996,-1.333931284642743
-0.41570000000000007,-1.3411463122720548
-0.41669999999999996,-1.350483406851164
-0.41770000000000007,-1.3630743374199628
-0.41869999999999996,-1.3700064227893016
-0.4197000000000001,-1.3800508730183432
-0.42069999999999996,-1.3919344479372096
-0.4217000000000001,-1.4041009651160488
-0.42269999999999996,-1.4175407224647667
-0.4237000000000001,-1.431687835463417
-0.42469999999999997,-1.4444202371622026
-0.4257000000000001,-1.4571526388609877
-0.42669999999999997,-1.4698850405597732
-0.4277000000000001,-1.4826174422585585
-0.42869999999999997,-1.502423400456669
-0.4297000000000001,-1.5151558021554543
-0.43069999999999997,-1.5321323377538347
-0.4317000000000001,-1.54486473945262
-0.4327,-1.5618412750510005
-0.4337000000000001,-1.5816472332491107
-0.4347,-1.5929649236480312
-0.4357000000000001,-1.6071120366466816
-0.4367,-1.626917994844792
-0.4377000000000001,-1.6481386643427678
-0.4387,-1.6721887564404734
-0.4397000000000001,-1.6891652920388538
-0.4407,-1.7132153841365596
-0.4417000000000001,-1.7358507649344
-0.4427,-1.7542420118326456
-0.4437000000000001,-1.778292103930351
-0.4447,-1.8023421960280568
-0.4457000000000001,-1.8292217107254924
-0.4467,-1.8546865141230628
-0.4477000000000001,-1.8759071836210386
-0.4487,-1.8999572757187444
-0.4497000000000001,-1.925422079116315
-0.4507,-1.9494721712140204
-0.4517000000000001,-1.9650339955125358
-0.4527,-2.013134179707947
-0.4537000000000001,-2.0286960040064623
-0.4547,-2.0612343639033583
-0.4557000000000001,-2.0980168576998492
-0.4567,-2.12631108369715
-0.4577000000000001,-2.1574347322941807
-0.4587,-2.1885583808912115
-0.4597000000000001,-2.225340874687703
-0.4607,-2.260708657184329
-0.4617000000000001,-2.2974911509808194
-0.4627,-2.32861479957785
-0.4637000000000001,-2.3569090255751513
-0.4647,-2.3908620967719116
-0.4657000000000001,-2.427644590568403
-0.4667,-2.4715006408642193
-0.4677000000000001,-2.5167714024599
-0.4687,-2.5563833188561214
-0.4697000000000001,-2.5931658126526123
-0.4707,-2.6327777290488332
-0.4717000000000001,-2.6780484906445143
-0.4727,-2.7233192522401954
-0.4737000000000001,-2.7742488590353367
-0.4747,-2.8152754867314234
-0.4757000000000001,-2.8534726918277786
-0.4767,-2.897328742123595
-0.4777000000000001,-2.927037679420761
-0.4787,-2.990699687914687
-0.4797000000000001,-3.0387998721100984
-0.4807,-3.08690005630551
-0.48170000000000013,-3.1406590857003813
-0.4827,-3.1873445585959277
-0.48370000000000013,-3.2368594540912037
-0.4847,-3.2892037721862106
-0.48570000000000013,-3.3387186676814866
-0.4867,-3.3910629857764927
-0.4876999999999999,-3.4462367264712297
-0.4887,-3.5014104671659654
-0.4896999999999999,-3.562243053060162
-0.4907,-3.6145873711551686
-0.4916999999999999,-3.681078802248825
-0.4927,-3.7574732124415373
-0.4936999999999999,-3.8140616644361387
-0.49470000000000003,-3.8748942503303354
-0.4956999999999999,-3.934312124924667
-0.49670000000000003,-4.003632978618054
-0.4976999999999999,-4.075783254911171
-0.49870000000000003,-4.140859974704963
-0.4996999999999999,-4.2087661170984845
-0.5007,-4.283745815991331
-0.5016999999999999,-4.358725514884178
