Potential V vs RHE, Current mA cm-2
0.013299999999999867,0.3903188476327636
0.012299999999999978,-0.1330535977523067
0.011299999999999866,-0.6128529351015338
0.010299999999999976,-1.0490084288499246
0.009299999999999864,-1.4415908145624723
0.008299999999999974,-1.7033124050375041
0.007299999999999862,-2.008890045808352
0.006299999999999972,-2.2706116362833835
0.00529999999999986,-2.576189277054232
0.0042999999999999705,-2.8379108675292635
0.0032999999999998586,-3.0119203574126634
0.0022999999999999687,-3.2297858975918787
0.0012999999999998568,-3.447651437771094
0.00029999999999996696,-3.7093730282461257
-0.000700000000000145,-3.884797229429391
-0.0017000000000000348,-4.014950669016974
-0.0027000000000001467,-4.1889601589003735
-0.0037000000000000366,-4.364384360083638
-0.0047000000000001485,-4.582249900262854
-0.005700000000000038,-4.756259390146253
-0.00670000000000015,-4.843971490737885
-0.00770000000000004,-4.974124930325469
-0.008700000000000152,-5.191990470504685
-0.009700000000000042,-5.323558621392133
-0.010700000000000154,-5.453712060979717
-0.011700000000000044,-5.5414241615713475
-0.012700000000000156,-5.672992312458796
-0.013700000000000045,-5.80314575204638
-0.014700000000000157,-5.9347139029338285
-0.015700000000000047,-6.064867342521412
-0.01670000000000016,-6.196435493408861
-0.01770000000000005,-6.282732882700628
-0.01870000000000016,-6.414301033588076
-0.01970000000000005,-6.588310523471475
-0.020700000000000163,-6.6760226240631075
-0.021700000000000053,-6.762320013354876
-0.022700000000000164,-6.850032113946507
-0.023700000000000054,-6.93774421453814
-0.024700000000000166,-7.111753704421539
-0.025700000000000056,-7.28576319430494
-0.026700000000000168,-7.37347529489657
-0.027700000000000058,-7.4173313451923875
-0.02870000000000017,-7.5474847847799715
-0.02970000000000006,-7.679052935667419
-0.03070000000000017,-7.809206375255003
-0.03170000000000006,-7.853062425550818
-0.03270000000000017,-7.940774526142452
-0.03370000000000006,-8.027071915434218
-0.034700000000000175,-8.158640066321666
-0.035700000000000065,-8.288793505909249
-0.03670000000000018,-8.332649556205066
-0.03770000000000007,-8.376505606500881
-0.03870000000000018,-8.464217707092514
-0.03970000000000007,-8.638227196975913
-0.04070000000000018,-8.725939297567548
-0.04170000000000007,-8.812236686859313
-0.04270000000000018,-8.85609273715513
-0.04370000000000007,-8.943804837746763
-0.044700000000000184,-9.031516938338395
-0.045700000000000074,-9.161670377925978
-0.046700000000000186,-9.24938247851761
-0.047700000000000076,-9.293238528813426
-0.04870000000000019,-9.379535918105192
-0.04970000000000008,-9.511104068992642
-0.05070000000000019,-9.59740145828441
-0.05170000000000008,-9.641257508580225
-0.05270000000000019,-9.685113558876042
-0.05370000000000008,-9.772825659467674
-0.05470000000000019,-9.85912304875944
-0.05570000000000008,-9.946835149351072
-0.056700000000000195,-9.99069119964689
-0.057700000000000085,-10.034547249942705
-0.058700000000000196,-10.078403300238522
-0.059700000000000086,-10.208556739826104
-0.0607000000000002,-10.25241279012192
-0.06170000000000009,-10.296268840417738
-0.0627000000000002,-10.296268840417738
-0.06370000000000009,-10.340124890713554
-0.0647000000000002,-10.42642228000532
-0.06570000000000009,-10.470278330301136
-0.0667000000000002,-10.470278330301136
-0.0677000000000001,-10.557990430892769
-0.0687000000000002,-10.644287820184536
-0.0697000000000001,-10.688143870480351
-0.07070000000000021,-10.688143870480351
-0.0717000000000001,-10.731999920776168
-0.07270000000000021,-10.775855971071984
-0.0737000000000001,-10.863568071663616
-0.07470000000000021,-10.906009410659568
-0.0757000000000001,-10.906009410659568
-0.07670000000000021,-10.906009410659568
-0.0777000000000001,-10.906009410659568
-0.07870000000000021,-10.993721511251199
-0.0797000000000001,-10.993721511251199
-0.08070000000000022,-10.993721511251199
-0.0817000000000001,-10.993721511251199
-0.08270000000000022,-10.993721511251199
-0.08370000000000011,-11.037577561547016
-0.08470000000000022,-11.037577561547016
-0.08570000000000011,-11.037577561547016
-0.08670000000000022,-10.993721511251199
-0.08770000000000011,-11.037577561547016
-0.08870000000000022,-11.081433611842833
-0.08970000000000011,-11.123874950838783
-0.09070000000000022,-11.123874950838783
-0.09170000000000011,-11.081433611842833
-0.09270000000000023,-11.037577561547016
-0.09370000000000012,-10.993721511251199
-0.09470000000000023,-11.037577561547016
-0.09570000000000012,-11.081433611842833
-0.09670000000000023,-11.081433611842833
-0.09770000000000012,-10.949865460955383
-0.09870000000000023,-10.906009410659568
-0.09970000000000012,-10.863568071663616
-0.10070000000000023,-10.863568071663616
-0.10170000000000012,-10.863568071663616
-0.10270000000000024,-10.819712021367803
-0.10370000000000013,-10.775855971071984
-0.10470000000000024,-10.731999920776168
-0.10570000000000013,-10.731999920776168
-0.10670000000000024,-10.688143870480351
-0.10770000000000013,-10.557990430892769
-0.10870000000000024,-10.601846481188586
-0.10970000000000013,-10.731999920776168
-0.11070000000000024,-10.644287820184536
-0.11170000000000013,-10.514134380596953
-0.11270000000000002,-10.470278330301136
-0.11370000000000013,-10.382566229709504
-0.11470000000000002,-10.340124890713554
-0.11570000000000014,-10.296268840417738
-0.11670000000000003,-10.25241279012192
-0.11770000000000014,-10.208556739826104
-0.11870000000000003,-10.120844639234473
-0.11970000000000014,-10.078403300238522
-0.12070000000000003,-10.034547249942705
-0.12170000000000014,-9.946835149351072
-0.12270000000000003,-9.81668170976349
-0.12370000000000014,-9.81668170976349
-0.12470000000000003,-9.772825659467674
-0.12570000000000014,-9.685113558876042
-0.12670000000000003,-9.59740145828441
-0.12770000000000015,-9.511104068992642
-0.12870000000000004,-9.467248018696827
-0.12970000000000015,-9.379535918105192
-0.13070000000000004,-9.293238528813426
-0.13170000000000015,-9.24938247851761
-0.13270000000000004,-9.205526428221793
-0.13370000000000015,-9.11781432763016
-0.13470000000000004,-9.073958277334345
-0.13570000000000015,-8.943804837746763
-0.13670000000000004,-8.899948787450944
-0.13770000000000016,-8.812236686859313
-0.13870000000000005,-8.769795347863363
-0.13970000000000016,-8.725939297567548
-0.14070000000000005,-8.638227196975913
-0.14170000000000016,-8.55051509638428
-0.14270000000000005,-8.464217707092514
-0.14370000000000016,-8.376505606500881
-0.14470000000000005,-8.332649556205066
-0.14570000000000016,-8.288793505909249
-0.14670000000000005,-8.202496116617484
-0.14770000000000016,-8.11478401602585
-0.14870000000000005,-8.070927965730034
-0.14970000000000017,-7.984630576438266
-0.15070000000000006,-7.896918475846635
-0.15170000000000017,-7.809206375255003
-0.15270000000000006,-7.7653503249591855
-0.15370000000000017,-7.679052935667419
-0.15470000000000006,-7.635196885371603
-0.15570000000000017,-7.591340835075788
-0.15670000000000006,-7.461187395488204
-0.15770000000000017,-7.4173313451923875
-0.15870000000000006,-7.37347529489657
-0.15970000000000018,-7.329619244600755
-0.16070000000000007,-7.243321855308987
-0.16170000000000018,-7.155609754717355
-0.16270000000000007,-7.067897654125724
-0.16370000000000018,-7.067897654125724
-0.16470000000000007,-7.024041603829907
-0.16570000000000018,-6.893888164242324
-0.16670000000000007,-6.806176063650692
-0.16770000000000018,-6.762320013354876
-0.16870000000000007,-6.719878674358924
-0.16970000000000018,-6.6760226240631075
-0.17070000000000007,-6.588310523471475
-0.17170000000000019,-6.54445447317566
-0.17270000000000008,-6.458157083883892
-0.1737000000000002,-6.414301033588076
-0.17470000000000008,-6.414301033588076
-0.1757000000000002,-6.37044498329226
-0.17670000000000008,-6.282732882700628
-0.1777000000000002,-6.152579443113044
-0.17870000000000008,-6.152579443113044
-0.1797000000000002,-6.196435493408861
-0.18070000000000008,-6.108723392817228
-0.1817000000000002,-5.977155241929781
-0.18270000000000008,-5.9347139029338285
-0.1837000000000002,-5.9347139029338285
-0.1847000000000001,-5.9347139029338285
-0.1857000000000002,-5.847001802342197
-0.1867000000000001,-5.80314575204638
-0.1877000000000002,-5.759289701750564
-0.1887000000000001,-5.715433651454749
-0.1897000000000002,-5.672992312458796
-0.1907000000000001,-5.629136262162981
-0.1917000000000001,-5.629136262162981
-0.19269999999999998,-5.585280211867165
-0.1937000000000001,-5.585280211867165
-0.19469999999999998,-5.5414241615713475
-0.1957000000000001,-5.453712060979717
-0.19669999999999999,-5.411270721983764
-0.1977000000000001,-5.367414671687949
-0.1987,-5.367414671687949
-0.1997000000000001,-5.367414671687949
-0.2007,-5.323558621392133
-0.2017000000000001,-5.279702571096316
-0.2027,-5.235846520800501
-0.2037000000000001,-5.235846520800501
-0.2047,-5.191990470504685
-0.2057000000000001,-5.149549131508733
-0.2067,-5.105693081212917
-0.2077000000000001,-5.105693081212917
-0.2087,-5.105693081212917
-0.2097000000000001,-5.105693081212917
-0.2107,-5.0618370309171015
-0.2117000000000001,-4.974124930325469
-0.2127,-4.9302688800296535
-0.2137000000000001,-4.974124930325469
-0.2147,-4.974124930325469
-0.2157000000000001,-4.974124930325469
-0.2167,-4.974124930325469
-0.21770000000000012,-4.9302688800296535
-0.2187,-4.887827541033701
-0.21970000000000012,-4.887827541033701
-0.2207,-4.800115440442069
-0.22170000000000012,-4.800115440442069
-0.2227,-4.800115440442069
-0.22370000000000012,-4.800115440442069
-0.2247,-4.756259390146253
-0.22570000000000012,-4.756259390146253
-0.2267,-4.712403339850438
-0.22770000000000012,-4.668547289554621
-0.22870000000000001,-4.668547289554621
-0.22970000000000013,-4.712403339850438
-0.23070000000000002,-4.668547289554621
-0.23170000000000013,-4.626105950558669
-0.23270000000000002,-4.582249900262854
-0.23370000000000013,-4.582249900262854
-0.23470000000000002,-4.582249900262854
-0.23570000000000013,-4.626105950558669
-0.23670000000000002,-4.582249900262854
-0.2376999999999999,-4.538393849967037
-0.23870000000000002,-4.538393849967037
-0.2396999999999999,-4.538393849967037
-0.24070000000000003,-4.538393849967037
-0.24169999999999991,-4.494537799671222
-0.24270000000000003,-4.450681749375406
-0.24369999999999992,-4.450681749375406
-0.24470000000000003,-4.494537799671222
-0.24569999999999992,-4.494537799671222
-0.24670000000000003,-4.450681749375406
-0.24769999999999992,-4.406825699079589
-0.24870000000000003,-4.406825699079589
-0.24969999999999992,-4.450681749375406
-0.25070000000000003,-4.450681749375406
-0.2516999999999999,-4.406825699079589
-0.25270000000000004,-4.406825699079589
-0.2536999999999999,-4.406825699079589
-0.25470000000000004,-4.406825699079589
-0.2556999999999999,-4.406825699079589
-0.25670000000000004,-4.364384360083638
-0.25769999999999993,-4.364384360083638
-0.25870000000000004,-4.406825699079589
-0.25969999999999993,-4.406825699079589
-0.26070000000000004,-4.364384360083638
-0.26169999999999993,-4.364384360083638
-0.26270000000000004,-4.3205283097878215
-0.26369999999999993,-4.364384360083638
-0.26470000000000005,-4.406825699079589
-0.26569999999999994,-4.406825699079589
-0.26670000000000005,-4.364384360083638
-0.26769999999999994,-4.364384360083638
-0.26870000000000005,-4.406825699079589
-0.26969999999999994,-4.406825699079589
-0.27070000000000005,-4.364384360083638
-0.27169999999999994,-4.364384360083638
-0.27270000000000005,-4.406825699079589
-0.27369999999999994,-4.450681749375406
-0.27470000000000006,-4.450681749375406
-0.27569999999999995,-4.450681749375406
-0.27670000000000006,-4.406825699079589
-0.27769999999999995,-4.406825699079589
-0.27870000000000006,-4.450681749375406
-0.27969999999999995,-4.494537799671222
-0.28070000000000006,-4.494537799671222
-0.28169999999999995,-4.494537799671222
-0.28270000000000006,-4.494537799671222
-0.28369999999999995,-4.538393849967037
-0.28470000000000006,-4.538393849967037
-0.28569999999999995,-4.582249900262854
-0.28670000000000007,-4.538393849967037
-0.28769999999999996,-4.582249900262854
-0.28870000000000007,-4.582249900262854
-0.28969999999999996,-4.626105950558669
-0.29070000000000007,-4.668547289554621
-0.29169999999999996,-4.626105950558669
-0.29270000000000007,-4.668547289554621
-0.29369999999999996,-4.712403339850438
-0.2947000000000001,-4.800115440442069
-0.29569999999999996,-4.800115440442069
-0.2967000000000001,-4.800115440442069
-0.29769999999999996,-4.800115440442069
-0.2987000000000001,-4.843971490737885
-0.29969999999999997,-4.9302688800296535
-0.3007000000000001,-4.9302688800296535
-0.30169999999999997,-4.9302688800296535
-0.3027000000000001,-4.974124930325469
-0.30369999999999997,-5.017980980621284
-0.3047000000000001,-5.105693081212917
-0.30569999999999997,-5.149549131508733
-0.3067000000000001,-5.149549131508733
-0.3077,-5.191990470504685
-0.3087000000000001,-5.279702571096316
-0.3097,-5.323558621392133
-0.3107000000000001,-5.367414671687949
-0.3117,-5.411270721983764
-0.3127000000000001,-5.453712060979717
-0.3137,-5.497568111275533
-0.3147000000000001,-5.585280211867165
-0.3157,-5.672992312458796
-0.3167000000000001,-5.672992312458796
-0.3177,-5.715433651454749
-0.3187000000000001,-5.80314575204638
-0.3197,-5.9347139029338285
-0.3207000000000001,-6.021011292225596
-0.3217,-6.021011292225596
-0.3227000000000001,-6.064867342521412
-0.3237,-6.196435493408861
-0.3247000000000001,-6.326588932996443
-0.3257,-6.414301033588076
-0.3267000000000001,-6.458157083883892
-0.3277,-6.54445447317566
-0.3287000000000001,-6.632166573767292
-0.3297,-6.762320013354876
-0.3307000000000001,-6.893888164242324
-0.3317,-6.981600264833956
-0.3327000000000001,-7.067897654125724
-0.3337,-7.243321855308987
-0.3347000000000001,-7.37347529489657
-0.3357,-7.50504344578402
-0.3367000000000001,-7.635196885371603
-0.3377,-7.722908985963235
-0.3387000000000001,-7.896918475846635
-0.3397,-8.070927965730034
-0.3407000000000001,-8.246352166913299
-0.3417,-8.332649556205066
-0.3427000000000001,-8.508073757388331
-0.3437,-8.68208324727173
-0.3447000000000001,-8.899948787450944
-0.3457,-9.073958277334345
-0.3467000000000001,-9.205526428221793
-0.3477,-9.423391968401008
-0.3487000000000001,-9.641257508580225
-0.3497,-9.902979099055257
-0.3507000000000001,-10.120844639234473
-0.3517,-10.296268840417738
-0.3527000000000001,-10.514134380596953
-0.3537,-10.775855971071984
-0.3547000000000001,-11.081433611842833
-0.3557,-11.343155202317865
-0.35670000000000013,-11.604876792792895
-0.3577,-11.909039722263879
-0.35870000000000013,-12.214617363034726
-0.3597,-12.520195003805576
-0.36070000000000013,-12.781916594280606
-0.3617,-13.087494235051453
-0.3626999999999999,-13.47936926511407
-0.3637,-13.872659006476551
-0.3646999999999999,-14.26028990263957
-0.3657,-14.61396772760583
-0.3666999999999999,-14.967645552572087
-0.3677,-15.307176264539699
-0.3686999999999999,-15.70329542850191
-0.36970000000000003,-16.22673860945197
-0.3706999999999999,-16.750181790402035
-0.37170000000000003,-17.231183632356142
-0.3726999999999999,-17.627302796318357
-0.37370000000000003,-18.009274847281915
-0.3746999999999999,-18.53271802823198
-0.37570000000000003,-19.056161209182044
-0.3766999999999999,-19.636192842126707
-0.37770000000000004,-20.159636023076775
-0.3786999999999999,-20.72552054302279
-0.37970000000000004,-21.333846401964752
-0.3806999999999999,-21.899730921910766
-0.38170000000000004,-22.42317410286083
-0.38269999999999993,-22.989058622806844
-0.38370000000000004,-23.682267159740714
-0.38469999999999993,-24.474505487665134
-0.38570000000000004,-25.12527268560305
-0.38669999999999993,-25.60627452755716
-0.38770000000000004,-26.129717708507226
-0.38869999999999993,-26.780484906445146
-0.38970000000000005,-27.615164573365515
-0.39069999999999994,-28.350814449295335
-0.39170000000000005,-29.001581647233255
-0.39269999999999994,-29.708937297165768
-0.39370000000000005,-30.487028512091538
-0.39469999999999994,-31.137795710029454
-0.39570000000000005,-31.661238890979522
-0.39669999999999994,-32.41103587990799
-0.39770000000000005,-33.330598224820264
-0.39869999999999994,-34.193572117737936
-0.39970000000000006,-34.90092776767045
-0.40069999999999995,-35.55169496560837
-0.40170000000000006,-36.20246216354629
-0.40269999999999995,-36.8532293614842
-0.40370000000000006,-37.645467689408626
-0.40469999999999995,-38.522588695324956
-0.40570000000000006,-39.34312124924667
-0.40669999999999995,-39.90900576919269
-0.40770000000000006,-40.3900076111468
-0.40869999999999995,-41.083216148080666
-0.40970000000000006,-42.00277849299294
-0.41069999999999995,-42.92234083790521
-0.41170000000000007,-43.657990713835034
-0.41269999999999996,-44.36534636376755
-0.41370000000000007,-45.10099623969737
-0.41469999999999996,-45.97811724561369
-0.41570000000000007,-46.84109113853137
-0.41669999999999996,-47.590888127459834
-0.41770000000000007,-48.32653800338966
-0.41869999999999996,-49.118776331314066
-0.4197000000000001,-49.89686754623985
-0.42069999999999996,-50.81642989115212
-0.4217000000000001,-51.55207976708194
-0.42269999999999996,-52.075522948032
-0.4237000000000001,-52.64140746797801
-0.42469999999999997,-53.68829382987814
-0.4257000000000001,-54.876651321764776
-0.42669999999999997,-55.65474253669055
-0.4277000000000001,-56.26306839563251
-0.42869999999999997,-56.97042404556503
-0.4297000000000001,-57.7485152604908
-0.43069999999999997,-58.71051894439902
-0.4317000000000001,-59.502757272323436
-0.4327,-60.15352447026136
-0.4337000000000001,-61.07308681517363
-0.4347,-62.06338472507916
-0.4357000000000001,-62.855623053003576
-0.4367,-63.421507572949594
-0.4377000000000001,-63.98739209289561
-0.4387,-64.72304196882543
-0.4397000000000001,-65.68504565273366
-0.4407,-66.64704933664189
-0.4417000000000001,-67.48172900356225
-0.4427,-68.13249620150016
-0.4437000000000001,-68.86814607742998
-0.4447,-69.74526708334632
-0.4457000000000001,-70.62238808926263
-0.4467,-71.52780332117625
-0.4477000000000001,-72.19271763211282
-0.4487,-72.67371947406694
-0.4497000000000001,-73.53669336698461
-0.4507,-74.72505085887124
-0.4517000000000001,-75.54558341279296
-0.4527,-76.02658525474708
-0.4537000000000001,-76.5924697746931
-0.4547,-77.28567831162695
-0.4557000000000001,-78.20524065653922
-0.4567,-79.1248030014515
-0.4577000000000001,-80.00192400736783
-0.4587,-80.82245656128954
-0.4597000000000001,-81.51566509822342
-0.4607,-82.13813807016405
-0.4617000000000001,-82.8313466070979
-0.4627,-83.56699648302772
-0.4637000000000001,-84.27435213296022
-0.4647,-84.92511933089816
-0.4657000000000001,-85.61832786783202
-0.4667,-86.41056619575643
-0.4677000000000001,-87.18865741068221
-0.4687,-87.89601306061473
-0.4697000000000001,-88.5043389195567
-0.4707,-89.32487147347842
-0.4717000000000001,-90.20199247939475
-0.4727,-91.03667214631511
-0.4737000000000001,-91.77232202224494
-0.4747,-92.50797189817473
-0.4757000000000001,-93.13044487011537
-0.4767,-93.73877072905732
-0.4777000000000001,-94.601744621975
-0.4787,-95.35154161090348
-0.4797000000000001,-95.64863098387512
-0.4807,-96.27110395581576
-0.48170000000000013,-97.26140186572127
-0.4827,-98.13852287163759
-0.48370000000000013,-98.7892900695755
-0.4847,-99.01564387755391
-0.48570000000000013,-99.14296789454177
-0.4867,-99.75129375348374
-0.48570000000000013,-99.87861777047159
-0.4847,-99.41176304151614
-0.48370000000000013,-98.4497593576079
-0.4827,-97.57263835169158
-0.48170000000000013,-96.83698847576176
-0.4807,-96.35598663380765
-0.4797000000000001,-95.83254345285758
-0.4787,-95.08274646392913
-0.4777000000000001,-94.34709658799929
-0.4767,-93.78121206805329
-0.4757000000000001,-93.21532754810727
-0.4747,-92.42308922018285
-0.4737000000000001,-91.64499800525708
-0.4727,-91.03667214631511
-0.4717000000000001,-90.51322896536506
-0.4707,-89.98978578441499
-0.4697000000000001,-89.19754745649055
-0.4687,-88.23554377258235
-0.4677000000000001,-87.23109874967815
-0.4667,-86.7076555687281
-0.4657000000000001,-86.66521422973216
-0.4647,-86.14177104878208
-0.4637000000000001,-84.7129126359184
-0.4627,-83.87823296899803
-0.4617000000000001,-83.70846761301424
-0.4607,-83.35478978804795
