Potential V vs RHE, Current mA cm-2
0.05339999999999995,-0.04862362737636131
0.05239999999999995,-0.06767978858554335
0.051399999999999946,-0.08106295748226659
0.050399999999999945,-0.09042834628737315
0.049399999999999944,-0.09802534596764839
0.04839999999999994,-0.10461790062501947
0.04739999999999994,-0.11075774766643375
0.04639999999999994,-0.11658635822187767
0.04539999999999994,-0.12200470250036077
0.04439999999999994,-0.12680057380690324
0.04339999999999994,-0.13135594419246865
0.04239999999999994,-0.13588302035203678
0.04139999999999994,-0.1402686253816184
0.040399999999999936,-0.14430055258623375
0.039399999999999935,-0.14840321535584233
0.038399999999999934,-0.15208146473549145
0.03739999999999993,-0.15590118524512703
0.03639999999999993,-0.15957943462477614
0.03539999999999993,-0.16311621287443873
0.03439999999999993,-0.16651151999411481
0.03339999999999993,-0.1694824137238314
0.03239999999999993,-0.172736249713521
0.03139999999999993,-0.17613155683319706
0.030399999999999927,-0.17924392169290015
0.029399999999999926,-0.18221481542261672
0.028399999999999925,-0.1851857091523333
0.027399999999999924,-0.18815660288204988
0.026399999999999924,-0.19126896774175295
0.025399999999999923,-0.19423986147146954
0.024399999999999922,-0.1970692840711996
0.02339999999999992,-0.19961576441095666
0.02239999999999992,-0.20244518701068673
0.02139999999999992,-0.20541608074040332
0.020399999999999918,-0.2081040322101469
0.019399999999999917,-0.21065051254990397
0.018399999999999916,-0.21319699288966104
0.017399999999999916,-0.21588494435940458
0.016399999999999915,-0.21857289582914816
0.015399999999999914,-0.22126084729889173
0.014399999999999913,-0.2235243853786758
0.013399999999999912,-0.22621233684841938
0.012399999999999911,-0.22875881718817642
0.01139999999999991,-0.2313052975279335
0.01039999999999991,-0.23371030673770407
0.009399999999999908,-0.23611531594747462
0.008399999999999908,-0.2382373828972722
0.007399999999999907,-0.24078386323702924
0.006399999999999906,-0.24318887244679982
0.005399999999999905,-0.24545241052658387
0.004399999999999904,-0.2477159486063679
0.003399999999999903,-0.24983801555616547
0.002399999999999902,-0.2521015536359495
0.0013999999999999013,-0.25450656284572004
0.00039999999999990044,-0.2567701009255041
-0.0006000000000001005,-0.2588921678753017
-0.0016000000000001013,-0.2608727636951128
-0.0026000000000001022,-0.2631363017748969
-0.003600000000000103,-0.2653998398546809
-0.004600000000000104,-0.26738043567449193
-0.005600000000000105,-0.2695025026242895
-0.006600000000000106,-0.27148309844410057
-0.007600000000000107,-0.2734636942639116
-0.008600000000000108,-0.27572723234369567
-0.009600000000000108,-0.2777078281635067
-0.01060000000000011,-0.2796884239833177
-0.01160000000000011,-0.2815275486731423
-0.012600000000000111,-0.28364961562293983
-0.013600000000000112,-0.2856302114427509
-0.014600000000000113,-0.2874693361325754
-0.015600000000000114,-0.28930846082239997
-0.016600000000000115,-0.2911475855122245
-0.017600000000000116,-0.2929867102020491
-0.018600000000000116,-0.2949673060218601
-0.019600000000000117,-0.29680643071168467
-0.020600000000000118,-0.29850408427152275
-0.02160000000000012,-0.30034320896134725
-0.02260000000000012,-0.3021823336511718
-0.02360000000000012,-0.30402145834099636
-0.024600000000000122,-0.3058605830308209
-0.025600000000000123,-0.3074167654606725
-0.026600000000000124,-0.30897294789052404
-0.027600000000000124,-0.3108120725803486
-0.028600000000000125,-0.3125097261401866
-0.029600000000000126,-0.3142073797000246
-0.030600000000000127,-0.3159050332598627
-0.03160000000000013,-0.3173197445597277
-0.03260000000000013,-0.3191588692495523
-0.03360000000000013,-0.3208565228093903
-0.03460000000000002,-0.32255417636922834
-0.03560000000000002,-0.3239688876690934
-0.03660000000000002,-0.3253835989689584
-0.03760000000000002,-0.32708125252879644
-0.03860000000000002,-0.3287789060886345
-0.039600000000000024,-0.3303350885184861
-0.040600000000000025,-0.33174979981835107
-0.041600000000000026,-0.33316451111821616
-0.04260000000000003,-0.3347206935480677
-0.04360000000000003,-0.33641834710790575
-0.04460000000000003,-0.3379745295377573
-0.04560000000000003,-0.3393892408376223
-0.04660000000000003,-0.3408039521374874
-0.04760000000000003,-0.3422186634373524
-0.04860000000000003,-0.34391631699719044
-0.04960000000000003,-0.3453310282970554
-0.050600000000000034,-0.346604268466934
-0.051600000000000035,-0.3480189797667991
-0.052600000000000036,-0.3492922199366776
-0.053600000000000037,-0.3509898734965156
-0.05460000000000004,-0.35240458479638065
-0.05560000000000004,-0.3535363538362727
-0.05660000000000004,-0.35495106513613767
-0.05760000000000004,-0.35622430530601623
-0.05860000000000004,-0.35792195886585426
-0.05960000000000004,-0.35933667016571935
-0.06060000000000004,-0.3603269680756248
-0.061600000000000044,-0.3617416793754899
-0.06260000000000004,-0.36315639067535493
-0.06360000000000005,-0.3645711019752199
-0.06460000000000005,-0.3658443421450985
-0.06560000000000005,-0.3669761111849905
-0.06660000000000005,-0.368249351354869
-0.06760000000000005,-0.36966406265473406
-0.06860000000000005,-0.3709373028246126
-0.06960000000000005,-0.3723520141244776
-0.07060000000000005,-0.3734837831643697
-0.07160000000000005,-0.37461555220426174
-0.07260000000000005,-0.3760302635041267
-0.07360000000000005,-0.37744497480399175
-0.07460000000000006,-0.3787182149738703
-0.07560000000000006,-0.3798499840137623
-0.07660000000000006,-0.3809817530536544
-0.07760000000000006,-0.3822549932235329
-0.07860000000000006,-0.38366970452339794
-0.07960000000000006,-0.38480147356329
-0.08060000000000006,-0.38607471373316854
-0.08160000000000006,-0.387065011643074
-0.08260000000000006,-0.38833825181295256
-0.08360000000000006,-0.3897529631128176
-0.08460000000000006,-0.39088473215270964
-0.08560000000000006,-0.39215797232258814
-0.08660000000000007,-0.39314827023249366
-0.08760000000000007,-0.3942800392723857
-0.08860000000000007,-0.39555327944226426
-0.08960000000000007,-0.39682651961214277
-0.09060000000000007,-0.3978168175220483
-0.09160000000000007,-0.3989485865619403
-0.09260000000000007,-0.40008035560183236
-0.09360000000000007,-0.4014950669016974
-0.09460000000000007,-0.40262683594158943
-0.09560000000000007,-0.4037586049814815
-0.09660000000000007,-0.40489037402137346
-0.09760000000000008,-0.40602214306126555
-0.09860000000000008,-0.4072953832311441
-0.09960000000000008,-0.4084271522710361
-0.10060000000000008,-0.40955892131092814
-0.10160000000000008,-0.41054921922083365
-0.10260000000000008,-0.4118224593907122
-0.10360000000000008,-0.4130956995605908
-0.10460000000000008,-0.41436893973046923
-0.10560000000000008,-0.4153592376403748
-0.10660000000000008,-0.4163495355502803
-0.10760000000000008,-0.41748130459017235
-0.10860000000000009,-0.4187545447600509
-0.10960000000000009,-0.4201692560599159
-0.11060000000000009,-0.42101808283983494
-0.11160000000000009,-0.42200838074974045
-0.11260000000000009,-0.423281620919619
-0.11360000000000009,-0.4245548610894975
-0.11460000000000009,-0.42596957238936256
-0.11560000000000009,-0.4271013414292546
-0.11660000000000009,-0.4279501682091736
-0.1176000000000001,-0.4290819372490656
-0.1186000000000001,-0.4303551774189442
-0.1196000000000001,-0.4316284175888227
-0.1206000000000001,-0.43261871549872827
-0.1216000000000001,-0.4336090134086337
-0.1226000000000001,-0.43474078244852576
-0.1236000000000001,-0.43615549374839085
-0.1246000000000001,-0.4371457916582963
-0.1256000000000001,-0.4384190318281749
-0.1266000000000001,-0.4392678586080939
-0.1276000000000001,-0.44039962764798596
-0.1286000000000001,-0.44181433894785094
-0.1296000000000001,-0.4429461079877429
-0.1306000000000001,-0.44407787702763507
-0.1316000000000001,-0.44506817493754053
-0.1326000000000001,-0.44619994397743257
-0.1336000000000001,-0.44761465527729766
-0.1346000000000001,-0.44888789544717617
-0.1356000000000001,-0.4498781933570817
-0.1366000000000001,-0.45100996239697366
-0.1376000000000001,-0.4521417314368657
-0.1386000000000001,-0.4535564427367308
-0.1396000000000001,-0.4548296829066093
-0.1406000000000001,-0.4558199808165148
-0.14160000000000011,-0.4569517498564068
-0.14260000000000012,-0.45808351889629884
-0.14360000000000012,-0.4593567590661774
-0.14460000000000012,-0.46077147036604243
-0.14560000000000012,-0.46176176827594795
-0.14660000000000012,-0.46289353731584
-0.14760000000000012,-0.4641667774857185
-0.14860000000000012,-0.46529854652561053
-0.14960000000000012,-0.46685472895546215
-0.15060000000000012,-0.4678450268653676
-0.15160000000000012,-0.4688353247752731
-0.15260000000000012,-0.47010856494515163
-0.15360000000000013,-0.4715232762450167
-0.15460000000000013,-0.4727965164148953
-0.15560000000000013,-0.47392828545478727
-0.15660000000000013,-0.4749185833646928
-0.15760000000000013,-0.47633329466455787
-0.15860000000000013,-0.47774800596442285
-0.15960000000000002,-0.4790212461343014
-0.16060000000000002,-0.48015301517419345
-0.16160000000000002,-0.48114331308409897
-0.16260000000000002,-0.48241655325397753
-0.16360000000000002,-0.4838312645538425
-0.16460000000000002,-0.4852459758537076
-0.16560000000000002,-0.4868021582835591
-0.16660000000000003,-0.48835834071341067
-0.16760000000000003,-0.4893486386233161
-0.16860000000000003,-0.4907633499231812
-0.16960000000000003,-0.49189511896307325
-0.17060000000000003,-0.49316835913295176
-0.17160000000000003,-0.4944415993028303
-0.17260000000000003,-0.4957148394727089
-0.17360000000000003,-0.49727102190256034
-0.17460000000000003,-0.4985442620724389
-0.17560000000000003,-0.49981750224231747
-0.17660000000000003,-0.5012322135421824
-0.17760000000000004,-0.5023639825820745
-0.17860000000000004,-0.5040616361419126
-0.17960000000000004,-0.5054763474417775
-0.18060000000000004,-0.5066081164816696
-0.18160000000000004,-0.5078813566515481
-0.18260000000000004,-0.5091545968214266
-0.18360000000000004,-0.5108522503812647
-0.18460000000000004,-0.5124084328111163
-0.18560000000000004,-0.5136816729809948
-0.18660000000000004,-0.5149549131508734
-0.18760000000000004,-0.5163696244507384
-0.18860000000000005,-0.5180672780105765
-0.18960000000000005,-0.519623460440428
-0.19060000000000005,-0.5208967006103065
-0.19160000000000005,-0.5223114119101716
-0.19260000000000005,-0.5238675943400232
-0.19360000000000005,-0.5254237767698746
-0.19460000000000005,-0.5271214303297127
-0.19560000000000005,-0.5286776127595643
-0.19660000000000005,-0.5299508529294428
-0.19760000000000005,-0.5315070353592943
-0.19860000000000005,-0.5332046889191324
-0.19960000000000006,-0.5347608713489839
-0.20060000000000006,-0.5363170537788354
-0.20160000000000006,-0.5377317650787005
-0.20260000000000006,-0.539287947508552
-0.20360000000000006,-0.5411270721983766
-0.20460000000000006,-0.5428247257582146
-0.20560000000000006,-0.5443809081880661
-0.20660000000000006,-0.5457956194879312
-0.20760000000000006,-0.5476347441777557
-0.20860000000000006,-0.5494738688675803
-0.20960000000000006,-0.5510300512974318
-0.21060000000000006,-0.5527277048572699
-0.21160000000000007,-0.5544253584171079
-0.21260000000000007,-0.5561230119769459
-0.21360000000000007,-0.5581036077967569
-0.21460000000000007,-0.5599427324865814
-0.21560000000000007,-0.5616403860464196
-0.21660000000000007,-0.5634795107362441
-0.21760000000000007,-0.5654601065560552
-0.21860000000000007,-0.5672992312458797
-0.21960000000000007,-0.5691383559357043
-0.22060000000000007,-0.5708360094955423
-0.22160000000000007,-0.5726751341853669
-0.22260000000000008,-0.5745142588751914
-0.22360000000000008,-0.576636325824989
-0.22460000000000008,-0.5786169216447999
-0.22560000000000008,-0.580314575204638
-0.22660000000000008,-0.5821536998944625
-0.22760000000000008,-0.5842757668442602
-0.22860000000000008,-0.5862563626640712
-0.22960000000000008,-0.5883784296138688
-0.23060000000000008,-0.5903590254336798
-0.23160000000000008,-0.5920566789935179
-0.23260000000000008,-0.5943202170733018
-0.23360000000000009,-0.5964422840230995
-0.2346000000000001,-0.5985643509728971
-0.2356000000000001,-0.6006864179226945
-0.2366000000000001,-0.6025255426125191
-0.2376000000000001,-0.6047890806923032
-0.2386000000000001,-0.6070526187720873
-0.2396000000000001,-0.6093161568518712
-0.2406000000000001,-0.6114382238016689
-0.2416000000000001,-0.6134188196214798
-0.2426000000000001,-0.6158238288312504
-0.2436000000000001,-0.6179458957810481
-0.2446000000000001,-0.6200679627308455
-0.2456000000000001,-0.6224729719406161
-0.2466000000000001,-0.6245950388904137
-0.2476000000000001,-0.6268585769701978
-0.2486000000000001,-0.6294050573099549
-0.2496000000000001,-0.6318100665197254
-0.2506000000000001,-0.634215075729496
-0.2516000000000001,-0.63647861380928
-0.2526000000000001,-0.638742151889064
-0.2536000000000001,-0.6414301033588077
-0.2546000000000001,-0.6439765836985646
-0.2556000000000001,-0.6462401217783488
-0.2566000000000001,-0.6486451309881194
-0.2576000000000001,-0.6510501401978899
-0.2586000000000001,-0.6538795627976199
-0.2596000000000001,-0.6564260431373771
-0.2606000000000001,-0.6588310523471476
-0.2616000000000001,-0.6615190038168911
-0.2626000000000001,-0.6640654841566482
-0.2636000000000001,-0.6667534356263918
-0.2646000000000001,-0.6695828582261218
-0.2656000000000001,-0.6719878674358926
-0.2666000000000001,-0.674675818905636
-0.2676000000000001,-0.6773637703753796
-0.2686000000000001,-0.6801931929751097
-0.2696000000000001,-0.6831640867048262
-0.2706000000000001,-0.6857105670445833
-0.2716000000000001,-0.6883985185143269
-0.2726000000000001,-0.691227941114057
-0.2736000000000001,-0.6939158925838005
-0.2746000000000001,-0.6970282574435036
-0.2756000000000001,-0.6998576800432337
-0.2766000000000001,-0.7024041603829907
-0.2776000000000001,-0.7052335829827208
-0.2786000000000001,-0.7082044767124374
-0.2796000000000001,-0.7113168415721405
-0.2806000000000001,-0.7141462641718705
-0.28160000000000013,-0.7168342156416141
-0.28260000000000013,-0.7198051093713307
-0.28360000000000013,-0.7230589453610202
-0.2846,-0.7260298390907369
-0.2856,-0.7290007328204534
-0.2866,-0.731688684290197
-0.2876,-0.734518106889927
-0.2886,-0.7379134140096032
-0.2896,-0.7408843077393197
-0.2906,-0.7439966725990228
-0.2916,-0.7469675663287394
-0.2926,-0.7497969889284695
-0.2936,-0.7531922960481455
-0.29460000000000003,-0.7563046609078485
-0.29560000000000003,-0.7594170257675517
-0.29660000000000003,-0.7622464483672817
-0.29760000000000003,-0.7652173420969983
-0.29860000000000003,-0.7686126492166745
-0.29960000000000003,-0.7717250140763775
-0.30060000000000003,-0.7748373789360805
-0.30160000000000003,-0.7779497437957836
-0.30260000000000004,-0.7809206375255002
-0.30360000000000004,-0.7841744735151899
-0.30460000000000004,-0.7875697806348659
-0.30560000000000004,-0.7905406743645824
-0.30660000000000004,-0.7936530392242855
-0.30760000000000004,-0.7969068752139751
-0.30860000000000004,-0.8000192400736782
-0.30960000000000004,-0.8034145471933544
-0.31060000000000004,-0.806385440923071
-0.31160000000000004,-0.8093563346527874
-0.31260000000000004,-0.8126101706424771
-0.31360000000000005,-0.8157225355021802
-0.31460000000000005,-0.8191178426218563
-0.31560000000000005,-0.8222302074815594
-0.31660000000000005,-0.8250596300812894
-0.31760000000000005,-0.828313466070979
-0.31860000000000005,-0.8314258309306821
-0.31960000000000005,-0.8351040803103312
-0.32060000000000005,-0.8382164451700342
-0.32160000000000005,-0.8410458677697643
-0.32260000000000005,-0.8438752903694944
-0.32360000000000005,-0.8472705974891704
-0.32460000000000006,-0.8505244334788601
-0.32560000000000006,-0.8536367983385632
-0.32660000000000006,-0.8566076920682798
-0.32760000000000006,-0.8597200569279828
-0.32860000000000006,-0.8631153640476589
-0.32960000000000006,-0.8662277289073619
-0.33060000000000006,-0.8693400937670651
-0.33160000000000006,-0.8721695163667951
-0.33260000000000006,-0.8752818812264982
-0.33360000000000006,-0.8786771883461743
-0.33460000000000006,-0.8819310243358639
-0.33560000000000006,-0.8849019180655805
-0.33660000000000007,-0.8880142829252835
-0.33760000000000007,-0.8908437055250136
-0.33860000000000007,-0.894380483774676
-0.33960000000000007,-0.8976343197643657
-0.34060000000000007,-0.9006052134940823
-0.34160000000000007,-0.9037175783537855
-0.34260000000000007,-0.9066884720835021
-0.34360000000000007,-0.9100837792031781
-0.3446000000000001,-0.9134790863228541
-0.3456000000000001,-0.9165914511825571
-0.3466000000000001,-0.9195623449122737
-0.34759999999999996,-0.922674709771977
-0.3486000000000001,-0.92578707463168
-0.34959999999999997,-0.9293238528813426
-0.3506000000000001,-0.9324362177410456
-0.35159999999999997,-0.9355485826007488
-0.3526000000000001,-0.9386609474604518
-0.35359999999999997,-0.9419147834501415
-0.3546000000000001,-0.9454515616998039
-0.35559999999999997,-0.9487053976894935
-0.3566000000000001,-0.9516762914192101
-0.3576,-0.9550715985388862
-0.3586000000000001,-0.9584669056585623
-0.3596,-0.9618622127782385
-0.3606000000000001,-0.965398991027901
-0.3616,-0.9683698847576176
-0.3626000000000001,-0.9719066630072802
-0.3636,-0.9754434412569427
-0.3646000000000001,-0.9789802195066053
-0.3656,-0.9823755266262814
-0.3666000000000001,-0.9856293626159711
-0.3676,-0.9891661408656335
-0.3686000000000001,-0.9931273325052556
-0.3696,-0.9969470530148913
-0.3706000000000001,-1.0004838312645539
-0.3716,-1.0043035517741894
-0.3726000000000001,-1.0076988588938656
-0.3736,-1.0116600505334876
-0.3746000000000001,-1.01562124217311
-0.3756,-1.0194409626827452
-0.3766000000000001,-1.023260683192381
-0.3776,-1.0270804037020165
-0.3786000000000001,-1.0311830664716253
-0.3796,-1.0352857292412339
-0.3806000000000001,-1.039246920880856
-0.3816,-1.0432081125204782
-0.3826000000000001,-1.0470278330301137
-0.3836,-1.0515549091896819
-0.3846000000000001,-1.0559405142192635
-0.3856,-1.0601846481188586
-0.3866000000000001,-1.064287310888467
-0.3876,-1.0686729159180488
-0.3886000000000001,-1.0733414632076033
-0.3896,-1.0781514816271445
-0.3906000000000001,-1.0828200289166992
-0.3916,-1.0873471050762673
-0.3926000000000001,-1.0920156523658218
-0.3936,-1.0969671419153495
-0.3946000000000001,-1.10220157372485
-0.3956,-1.107294534404364
-0.3966000000000001,-1.1122460239538918
-0.3976,-1.1174804557633924
-0.3986000000000001,-1.1228563587028795
-0.3996,-1.1283737327723533
-0.4006000000000001,-1.1338911068418267
-0.4016,-1.1391255386513275
-0.4026000000000001,-1.1447843838507878
-0.4036,-1.1507261713102208
-0.4046000000000001,-1.1565264876396673
-0.4056,-1.1623268039691141
-0.40660000000000013,-1.1681271202985608
-0.4076,-1.1742103788879805
-0.40860000000000013,-1.180576579737373
-0.4096,-1.1869427805867658
-0.41060000000000013,-1.193450452566145
-0.4116,-1.1998166534155377
-0.41260000000000013,-1.2061828542649302
-0.4136,-1.213114939634269
-0.41460000000000014,-1.2203299672635808
-0.4156,-1.2274035237629057
-0.41660000000000014,-1.2343356091322446
-0.4176,-1.241267694501583
-0.41860000000000014,-1.2489071355208543
-0.41960000000000003,-1.256405105410139
-0.42060000000000014,-1.2640445464294103
-0.42160000000000003,-1.271825458578668
-0.42260000000000014,-1.2798893129878988
-0.42360000000000003,-1.2876702251371563
-0.42460000000000014,-1.2958755506763735
-0.42560000000000003,-1.3037979339556176
-0.42660000000000015,-1.3118617883648485
-0.42760000000000004,-1.3202085850340524
-0.42860000000000015,-1.3289797950932156
-0.42960000000000004,-1.3380339474123517
-0.43060000000000015,-1.3466636863415284
-0.43160000000000004,-1.3555763675306782
-0.43260000000000015,-1.3646305198498143
-0.43360000000000004,-1.373826143298937
-0.43460000000000015,-1.3834461801380193
-0.43560000000000004,-1.3929247458471152
-0.43660000000000015,-1.4021203692962378
-0.43760000000000004,-1.41174040613532
-0.43860000000000016,-1.421784856364362
-0.43960000000000005,-1.431687835463417
-0.44060000000000016,-1.4415908145624723
-0.44160000000000005,-1.4529085049613928
-0.44260000000000016,-1.462811484060448
-0.44360000000000005,-1.4741291744593683
-0.44460000000000016,-1.4840321535584236
-0.44560000000000005,-1.4953498439573436
