Potential V vs RHE, Current mA cm-2
0.013299999999999867,-0.8745745255765657
0.012299999999999978,-3.623075638954359
0.011299999999999866,-6.064867342521412
0.010299999999999976,-8.376505606500881
0.009299999999999864,-10.470278330301136
0.008299999999999974,-12.432482903213943
0.007299999999999862,-14.30273124163552
0.006299999999999972,-16.014531914472215
0.00529999999999986,-17.584861457322408
0.0042999999999999705,-19.155191000172596
0.0032999999999998586,-20.541608074040333
0.0022999999999999687,-21.899730921910766
0.0012999999999998568,-23.2012653177866
0.00029999999999996696,-24.389622809673234
-0.000700000000000145,-25.478950510569312
-0.0017000000000000348,-26.525836872469437
-0.0027000000000001467,-27.43125210438306
-0.0037000000000000366,-28.350814449295335
-0.0047000000000001485,-29.14305277721976
-0.005700000000000038,-29.878702653149578
-0.00670000000000015,-30.571911190083444
-0.00770000000000004,-31.23682550102001
-0.008700000000000152,-31.887592698957924
-0.009700000000000042,-32.49591855789989
-0.010700000000000154,-33.14668575583781
-0.011700000000000044,-33.712570275783825
-0.012700000000000156,-34.193572117737936
-0.013700000000000045,-34.717015298688004
-0.014700000000000157,-35.198017140642115
-0.015700000000000047,-35.594136304604326
-0.01670000000000016,-36.03269680756248
-0.01770000000000005,-36.37222751953009
-0.01870000000000016,-36.6834640055004
-0.01970000000000005,-36.99470049147071
-0.020700000000000163,-37.249348525446415
-0.021700000000000053,-37.51814367242077
-0.022700000000000164,-37.77279170639648
-0.023700000000000054,-38.04158685337084
-0.024700000000000166,-38.29623488734655
-0.025700000000000056,-38.522588695324956
-0.026700000000000168,-38.777236729300654
-0.027700000000000058,-38.94700208528445
-0.02870000000000017,-39.21579723225882
-0.02970000000000006,-39.34312124924667
-0.03070000000000017,-39.56947505722508
-0.03170000000000006,-39.696799074212926
-0.03270000000000017,-39.82412309120078
-0.03370000000000006,-39.90900576919269
-0.034700000000000175,-39.99388844718459
-0.035700000000000065,-40.092918238175145
-0.03670000000000018,-40.177800916167044
-0.03770000000000007,-40.30512493315489
-0.03870000000000018,-40.3900076111468
-0.03970000000000007,-40.4748902891387
-0.04070000000000018,-40.559772967130606
-0.04170000000000007,-40.65880275812115
-0.04270000000000018,-40.78612677510901
-0.04370000000000007,-40.91345079209687
-0.044700000000000184,-40.99833347008877
-0.045700000000000074,-41.083216148080666
-0.046700000000000186,-41.139804600075266
-0.047700000000000076,-41.182245939071215
-0.04870000000000019,-41.22468727806717
-0.04970000000000008,-41.267128617063115
-0.05070000000000019,-41.22468727806717
-0.05170000000000008,-41.267128617063115
-0.05270000000000019,-41.267128617063115
-0.05370000000000008,-41.30956995605907
-0.05470000000000019,-41.352011295055014
-0.05570000000000008,-41.39445263405098
-0.056700000000000195,-41.43689397304693
-0.057700000000000085,-41.52177665103883
-0.058700000000000196,-41.56421799003478
-0.059700000000000086,-41.66324778102533
-0.0607000000000002,-41.66324778102533
-0.06170000000000009,-41.70568912002128
-0.0627000000000002,-41.74813045901723
-0.06370000000000009,-41.74813045901723
-0.0647000000000002,-41.70568912002128
-0.06570000000000009,-41.74813045901723
-0.0667000000000002,-41.70568912002128
-0.0677000000000001,-41.70568912002128
-0.0687000000000002,-41.70568912002128
-0.0697000000000001,-41.70568912002128
-0.07070000000000021,-41.74813045901723
-0.0717000000000001,-41.74813045901723
-0.07270000000000021,-41.79057179801318
-0.0737000000000001,-41.87545447600508
-0.07470000000000021,-41.87545447600508
-0.0757000000000001,-41.91789581500104
-0.07670000000000021,-41.91789581500104
-0.0777000000000001,-41.91789581500104
-0.07870000000000021,-41.87545447600508
-0.0797000000000001,-41.87545447600508
-0.08070000000000022,-41.87545447600508
-0.0817000000000001,-41.83301313700913
-0.08270000000000022,-41.83301313700913
-0.08370000000000011,-41.79057179801318
-0.08470000000000022,-41.83301313700913
-0.08570000000000011,-41.83301313700913
-0.08670000000000022,-41.87545447600508
-0.08770000000000011,-41.91789581500104
-0.08870000000000022,-42.00277849299294
-0.08970000000000011,-42.00277849299294
-0.09070000000000022,-42.04521983198889
-0.09170000000000011,-42.087661170984845
-0.09270000000000023,-42.04521983198889
-0.09370000000000012,-42.04521983198889
-0.09470000000000023,-42.04521983198889
-0.09570000000000012,-42.00277849299294
-0.09670000000000023,-41.96033715399699
-0.09770000000000012,-41.91789581500104
-0.09870000000000023,-41.91789581500104
-0.09970000000000012,-41.91789581500104
-0.10070000000000023,-41.96033715399699
-0.10170000000000012,-41.96033715399699
-0.10270000000000024,-42.00277849299294
-0.10370000000000013,-42.00277849299294
-0.10470000000000024,-42.04521983198889
-0.10570000000000013,-42.04521983198889
-0.10670000000000024,-42.04521983198889
-0.10770000000000013,-42.04521983198889
-0.10870000000000024,-42.00277849299294
-0.10970000000000013,-42.00277849299294
-0.11070000000000024,-42.00277849299294
-0.11170000000000013,-42.00277849299294
-0.11270000000000002,-42.00277849299294
-0.11370000000000013,-42.00277849299294
-0.11470000000000002,-42.04521983198889
-0.11570000000000014,-42.130102509980794
-0.11670000000000003,-42.130102509980794
-0.11770000000000014,-42.186690961975394
-0.11870000000000003,-42.229132300971344
-0.11970000000000014,-42.229132300971344
-0.12070000000000003,-42.2715736399673
-0.12170000000000014,-42.2715736399673
-0.12270000000000003,-42.2715736399673
-0.12370000000000014,-42.229132300971344
-0.12470000000000003,-42.229132300971344
-0.12570000000000014,-42.229132300971344
-0.12670000000000003,-42.229132300971344
-0.12770000000000015,-42.229132300971344
-0.12870000000000004,-42.2715736399673
-0.12970000000000015,-42.31401497896325
-0.13070000000000004,-42.31401497896325
-0.13170000000000015,-42.39889765695515
-0.13270000000000004,-42.4413389959511
-0.13370000000000015,-42.483780334947056
-0.13470000000000004,-42.526221673943
-0.13570000000000015,-42.526221673943
-0.13670000000000004,-42.568663012938956
-0.13770000000000016,-42.568663012938956
-0.13870000000000005,-42.568663012938956
-0.13970000000000016,-42.568663012938956
-0.14070000000000005,-42.526221673943
-0.14170000000000016,-42.526221673943
-0.14270000000000005,-42.526221673943
-0.14370000000000016,-42.526221673943
-0.14470000000000005,-42.568663012938956
-0.14570000000000016,-42.6111043519349
-0.14670000000000005,-42.653545690930855
-0.14770000000000016,-42.71013414292546
-0.14870000000000005,-42.752575481921404
-0.14970000000000017,-42.837458159913304
-0.15070000000000006,-42.837458159913304
-0.15170000000000017,-42.87989949890926
-0.15270000000000006,-42.87989949890926
-0.15370000000000017,-42.87989949890926
-0.15470000000000006,-42.837458159913304
-0.15570000000000017,-42.837458159913304
-0.15670000000000006,-42.837458159913304
-0.15770000000000017,-42.79501682091736
-0.15870000000000006,-42.79501682091736
-0.15970000000000018,-42.837458159913304
-0.16070000000000007,-42.92234083790521
-0.16170000000000018,-42.96478217690117
-0.16270000000000007,-43.007223515897124
-0.16370000000000018,-43.09210619388902
-0.16470000000000007,-43.17698887188092
-0.16570000000000018,-43.27601866287147
-0.16670000000000007,-43.27601866287147
-0.16770000000000018,-43.27601866287147
-0.16870000000000007,-43.31846000186743
-0.16970000000000018,-43.31846000186743
-0.17070000000000007,-43.31846000186743
-0.17170000000000019,-43.31846000186743
-0.17270000000000008,-43.31846000186743
-0.1737000000000002,-43.31846000186743
-0.17470000000000008,-43.36090134086337
-0.1757000000000002,-43.36090134086337
-0.17670000000000008,-43.36090134086337
-0.1777000000000002,-43.44578401885527
-0.17870000000000008,-43.48822535785123
-0.1797000000000002,-43.48822535785123
-0.18070000000000008,-43.53066669684718
-0.1817000000000002,-43.57310803584313
-0.18270000000000008,-43.61554937483908
-0.1837000000000002,-43.61554937483908
-0.1847000000000001,-43.61554937483908
-0.1857000000000002,-43.61554937483908
-0.1867000000000001,-43.57310803584313
-0.1877000000000002,-43.657990713835034
-0.1887000000000001,-43.657990713835034
-0.1897000000000002,-43.75702050482558
-0.1907000000000001,-43.84190318281749
-0.1917000000000001,-43.88434452181344
-0.19269999999999998,-43.96922719980534
-0.1937000000000001,-44.054109877797245
-0.19469999999999998,-44.096551216793195
-0.1957000000000001,-44.181433894785094
-0.19669999999999999,-44.223875233781044
-0.1977000000000001,-44.28046368577565
-0.1987,-44.28046368577565
-0.1997000000000001,-44.28046368577565
-0.2007,-44.28046368577565
-0.2017000000000001,-44.28046368577565
-0.2027,-44.3229050247716
-0.2037000000000001,-44.36534636376755
-0.2047,-44.4077877027635
-0.2057000000000001,-44.45022904175945
-0.2067,-44.4926703807554
-0.2077000000000001,-44.577553058747306
-0.2087,-44.704877075735155
-0.2097000000000001,-44.80390686672572
-0.2107,-44.84634820572166
-0.2117000000000001,-44.93123088371356
-0.2127,-44.93123088371356
-0.2137000000000001,-44.88878954471762
-0.2147,-44.88878954471762
-0.2157000000000001,-44.93123088371356
-0.2167,-44.97367222270952
-0.21770000000000012,-45.01611356170547
-0.2187,-45.01611356170547
-0.21970000000000012,-45.10099623969737
-0.2207,-45.143437578693316
-0.22170000000000012,-45.22832025668522
-0.2227,-45.32735004767578
-0.22370000000000012,-45.412232725667685
-0.2247,-45.497115403659585
-0.22570000000000012,-45.581998081651484
-0.2267,-45.666880759643384
-0.22770000000000012,-45.70932209863933
-0.22870000000000001,-45.75176343763528
-0.22970000000000013,-45.79420477663124
-0.23070000000000002,-45.85079322862584
-0.23170000000000013,-45.89323456762179
-0.23270000000000002,-45.97811724561369
-0.23370000000000013,-46.02055858460964
-0.23470000000000002,-46.062999923605595
-0.23570000000000013,-46.2327652795894
-0.23670000000000002,-46.27520661858535
-0.2376999999999999,-46.41667774857186
-0.23870000000000002,-46.544001765559706
-0.2396999999999999,-46.67132578254756
-0.24070000000000003,-46.84109113853137
-0.24169999999999991,-46.94012092952192
-0.24270000000000003,-47.02500360751382
-0.24369999999999992,-47.10988628550572
-0.24470000000000003,-47.10988628550572
-0.24569999999999992,-47.15232762450167
-0.24670000000000003,-47.19476896349763
-0.24769999999999992,-47.27965164148953
-0.24870000000000003,-47.40697565847737
-0.24969999999999992,-47.590888127459834
-0.25070000000000003,-47.71821214444768
-0.2516999999999999,-47.8879775004315
-0.25270000000000004,-48.029448630417996
-0.2536999999999999,-48.1992139864018
-0.25470000000000004,-48.2840966643937
-0.2556999999999999,-48.41142068138156
-0.25670000000000004,-48.51045047237211
-0.25769999999999993,-48.55289181136806
-0.25870000000000004,-48.63777448935996
-0.25969999999999993,-48.72265716735186
-0.26070000000000004,-48.76509850634781
-0.26169999999999993,-48.89242252333566
-0.26270000000000004,-48.97730520132757
-0.26369999999999993,-49.118776331314066
-0.26470000000000005,-49.24610034830193
-0.26569999999999994,-49.458307043281685
-0.26670000000000005,-49.642219512264134
-0.26769999999999994,-49.81198486824794
-0.26870000000000005,-50.024191563227696
-0.26969999999999994,-50.1656626932142
-0.27070000000000005,-50.335428049198
-0.27169999999999994,-50.50519340518181
-0.27270000000000005,-50.64666453516831
-0.27369999999999994,-50.81642989115212
-0.27470000000000006,-50.90131256914402
-0.27569999999999995,-51.028636586131874
-0.27670000000000006,-51.127666377122424
-0.27769999999999995,-51.33987307210218
-0.27870000000000006,-51.509638428085985
-0.27969999999999995,-51.69355089706845
-0.28070000000000006,-51.948198931044146
-0.28169999999999995,-52.17455273902255
-0.28270000000000006,-52.42920077299826
-0.28369999999999995,-52.74043725896857
-0.28470000000000006,-52.995085292944275
-0.28569999999999995,-53.22143910092268
-0.28670000000000007,-53.476087134898386
-0.28769999999999996,-53.74488228187274
-0.28870000000000007,-53.9570889768525
-0.28969999999999996,-54.16929567183226
-0.29070000000000007,-54.35320814081471
-0.29169999999999996,-54.56541483579447
-0.29270000000000007,-54.834209982768826
-0.29369999999999996,-55.088858016744524
-0.2947000000000001,-55.357653163718886
-0.29569999999999996,-55.612301197694585
-0.2967000000000001,-55.96597902266086
-0.29769999999999996,-56.26306839563251
-0.2987000000000001,-56.57430488160282
-0.29969999999999997,-56.88554136757313
-0.3007000000000001,-57.182630740544774
-0.30169999999999997,-57.493867226515086
-0.3027000000000001,-57.79095659948675
-0.30369999999999997,-58.10219308545706
-0.3047000000000001,-58.39928245842871
-0.30569999999999997,-58.71051894439902
-0.3067000000000001,-59.02175543036933
-0.3077,-59.403727481332886
-0.3087000000000001,-59.7149639673032
-0.3097,-60.11108313126541
-0.3107000000000001,-60.49305518222897
-0.3117,-60.889174346191176
-0.3127000000000001,-61.327734849149344
-0.3137,-61.7662953521075
-0.3147000000000001,-62.20485585506566
-0.3157,-62.68585769701977
-0.3167000000000001,-63.11027108697928
-0.3177,-63.59127292893339
-0.3187000000000001,-64.02983343189156
-0.3197,-64.46839393484973
-0.3207000000000001,-64.90695443780788
-0.3217,-65.34551494076604
-0.3227000000000001,-65.82651678272015
-0.3237,-66.29337151167562
-0.3247000000000001,-66.81681469262568
-0.3257,-67.34025787357575
-0.3267000000000001,-67.86370105452582
-0.3277,-68.34470289647993
-0.3287000000000001,-68.91058741642594
-0.3297,-69.4906190493706
-0.3307000000000001,-70.05650356931662
-0.3317,-70.57994675026669
-0.3327000000000001,-71.10338993121674
-0.3337,-71.66927445116276
-0.3347000000000001,-72.19271763211282
-0.3357,-72.67371947406694
-0.3367000000000001,-73.2820453330089
-0.3377,-73.93281253094682
-0.3387000000000001,-74.58357972888473
-0.3397,-75.19190558782671
-0.3407000000000001,-75.85681989876326
-0.3417,-76.50758709670117
-0.3427000000000001,-77.20079563363505
-0.3437,-77.95059262256353
-0.3447000000000001,-78.64380115949739
-0.3457,-79.37945103542721
-0.3467000000000001,-80.08680668535972
-0.3477,-80.7800152222936
-0.3487000000000001,-81.43078242023151
-0.3497,-82.13813807016405
-0.3507000000000001,-82.87378794609386
-0.3517,-83.56699648302772
-0.3527000000000001,-84.35923481095215
-0.3537,-85.09488468688197
-0.3547000000000001,-85.92956435380233
-0.3557,-86.75009690772404
-0.35670000000000013,-87.58477657464444
-0.3577,-88.4194562415648
-0.35870000000000013,-89.32487147347842
-0.3597,-90.20199247939475
-0.36070000000000013,-91.07911348531105
-0.3617,-91.98452871722468
-0.3626999999999999,-92.81920838414506
-0.3637,-93.69632939006138
-0.3646999999999999,-94.5168619439831
-0.3657,-95.39398294989942
-0.3666999999999999,-96.31354529481169
-0.3677,-97.21896052672531
-0.3686999999999999,-98.18096421063355
-0.36970000000000003,-99.18540923353773
-0.3706999999999999,-100.18985425644189
-0.37170000000000003,-101.19429927934607
-0.3726999999999999,-102.19874430225026
-0.37370000000000003,-103.28807200314633
-0.3746999999999999,-104.33495836504645
-0.37570000000000003,-105.38184472694657
-0.3766999999999999,-106.4287310888467
-0.37770000000000004,-107.47561745074682
-0.3786999999999999,-108.52250381264696
-0.37970000000000004,-109.52694883555114
-0.3806999999999999,-110.57383519745127
-0.38170000000000004,-111.66316289834735
-0.38269999999999993,-112.75249059924342
-0.38370000000000004,-113.84181830013951
-0.38469999999999993,-114.97358734003153
-0.38570000000000004,-116.10535637992358
-0.38669999999999993,-115.2423824870059
-0.38570000000000004,-110.92751302241753
-0.38469999999999993,-107.07949828678463
-0.38370000000000004,-103.59930848911664
-0.38269999999999993,-100.2747369344338
-0.38170000000000004,-97.21896052672531
-0.3806999999999999,-94.38953792699526
-0.37970000000000004,-91.64499800525708
-0.3786999999999999,-89.02778210050676
-0.37770000000000004,-86.5378902127443
-0.3766999999999999,-84.23191079396429
-0.37570000000000003,-81.95422560118158
-0.3746999999999999,-79.7755701993894
-0.37370000000000003,-77.7242388145851
-0.3726999999999999,-75.71534876877676
-0.37170000000000003,-73.8479298529549
-0.3706999999999999,-72.00880516313036
-0.36970000000000003,-70.22626892530042
-0.3686999999999999,-68.48617402646643
-0.3677,-66.77437335362974
-0.3666999999999999,-65.11916113278764
-0.3657,-63.46394891194555
-0.3646999999999999,-61.851178030099405
-0.3637,-60.28084848724921
-0.3626999999999999,-58.71051894439902
-0.3617,-57.182630740544774
-0.36070000000000013,-55.65474253669055
-0.3597,-54.16929567183226
-0.35870000000000013,-52.69799591997262
-0.3577,-51.29743173310623
-0.35670000000000013,-49.89686754623985
-0.3557,-48.55289181136806
-0.3547000000000001,-47.23721030249357
-0.3537,-45.89323456762179
-0.3527000000000001,-44.577553058747306
-0.3517,-43.27601866287147
-0.3507000000000001,-41.91789581500104
-0.3497,-40.65880275812115
-0.3487000000000001,-39.38556258824262
-0.3477,-38.08402819236679
-0.3467000000000001,-36.8532293614842
-0.3457,-35.636577643600276
-0.3447000000000001,-34.41992592571634
-0.3437,-33.18912709483376
-0.3427000000000001,-32.05735805494172
-0.3417,-30.925589015049702
-0.3407000000000001,-29.793819975157668
-0.3397,-28.662050935265643
-0.3387000000000001,-27.572723234369565
-0.3377,-26.440954194477534
-0.3367000000000001,-25.337479380582806
-0.3357,-24.20571034069078
-0.3347000000000001,-23.1163826397947
-0.3337,-22.027054938898623
-0.3327000000000001,-20.93772723800254
-0.3317,-19.805958198110513
-0.3307000000000001,-18.759071836210385
-0.3297,-17.71218547431026
-0.3287000000000001,-16.70774045140608
-0.3277,-15.74573676749786
-0.3267000000000001,-14.69885040559773
-0.3257,-13.828802956180734
-0.3247000000000001,-12.869628694872238
-0.3237,-11.909039722263879
-0.3227000000000001,-10.993721511251199
-0.3217,-10.034547249942705
-0.3207000000000001,-9.073958277334345
-0.3197,-8.11478401602585
-0.3187000000000001,-7.199465805013171
-0.3177,-6.238876832404812
-0.3167000000000001,-5.279702571096316
-0.3157,-4.406825699079589
-0.3147000000000001,-3.4915074880669104
-0.3137,-2.662486666345999
-0.3127000000000001,-1.8334658446250875
-0.3117,-1.0054353208140816
-0.3107000000000001,-0.1766974413531431
-0.3097,0.6084673300719523
-0.3087000000000001,1.3934906303670611
-0.3077,2.178655401792157
-0.3067000000000001,3.0076762235130676
-0.30569999999999997,3.8366970452339793
-0.3047000000000001,4.578005766363259
-0.30369999999999997,5.3631705377883545
-0.3027000000000001,6.1907766482094
-0.30169999999999997,6.933500080638546
-0.3007000000000001,7.674808801767824
-0.29969999999999997,8.459973573192919
-0.2987000000000001,9.157426244026382
-0.29769999999999996,9.811022864564029
-0.2967000000000001,10.509890246697358
-0.29569999999999996,11.163486867235004
-0.2947000000000001,11.818498199072517
-0.29369999999999996,12.472094819610163
-0.29270000000000007,13.127106151447675
-0.29169999999999996,13.780702771985322
-0.29070000000000007,14.430055258623375
-0.28969999999999996,15.094969569559943
-0.28870000000000007,15.74573676749786
-0.28769999999999996,16.354062626439823
-0.28670000000000007,17.00482982437774
-0.28569999999999995,17.613155683319707
-0.28470000000000006,18.23562865526032
-0.28369999999999995,18.80151317520634
-0.28270000000000006,19.367397695152352
-0.28169999999999995,19.93328221509837
-0.28070000000000006,20.456725396048434
-0.27969999999999995,20.93772723800254
-0.27870000000000006,21.461170418952605
-0.27769999999999995,21.98461359990267
-0.27670000000000006,22.508056780852733
-0.27569999999999995,22.989058622806844
-0.27470000000000006,23.51250180375691
-0.27369999999999994,24.035944984706973
-0.27270000000000005,24.559388165657033
-0.27169999999999994,25.04039000761115
-0.27070000000000005,25.507244736566612
-0.26969999999999994,26.030687917516673
-0.26870000000000005,26.426807081478888
-0.26769999999999994,26.86536758443705
-0.26670000000000005,27.34636942639116
-0.26569999999999994,27.742488590353368
-0.26470000000000005,28.082019302320973
-0.26369999999999993,28.478138466283188
