Mar. 29, 2025   23:04:06
Cyclic Voltammetry
File: c:/users/guazh/data/banditlqround7_x0exp518_r20/2025-03-28-exp984\exp984-2025-03-29t22_57_28-h2koh\exp984_cv_sr_300mvs_efin_-1400mv.bin
Data Source:  Experiment
Instrument Model:  CHI760E
Header: CV ran at 300 mVs
Note: 

Init E (V) = -1
High E (V) = -1
Low E (V) = -1.4
Final E (V) = -1
Init P/N = N
Scan Rate (V/s) = 0.3
Segment = 3
Sample Interval (V) = 0.001
Quiet Time (sec) = 2
Sensitivity (A/V) = 0.01
Comp R (ohm) = 2.0

Results:

Channel 1:
Segment 1:

Segment 2:

Segment 3:

Potential/V, Current/A

-1.000, 4.332e-5
-1.001, 2.160e-4
-1.002, 3.609e-4
-1.003, 4.719e-4
-1.004, 5.582e-4
-1.005, 6.291e-4
-1.006, 6.939e-4
-1.007, 7.555e-4
-1.008, 7.987e-4
-1.009, 8.326e-4
-1.010, 8.573e-4
-1.011, 8.850e-4
-1.012, 9.158e-4
-1.013, 9.343e-4
-1.014, 9.467e-4
-1.015, 9.590e-4
-1.016, 9.713e-4
-1.017, 9.898e-4
-1.018, 9.991e-4
-1.019, 1.002e-3
-1.020, 1.002e-3
-1.021, 1.008e-3
-1.022, 1.021e-3
-1.023, 1.024e-3
-1.024, 1.024e-3
-1.025, 1.024e-3
-1.026, 1.027e-3
-1.027, 1.033e-3
-1.028, 1.036e-3
-1.029, 1.033e-3
-1.030, 1.030e-3
-1.031, 1.036e-3
-1.032, 1.042e-3
-1.033, 1.045e-3
-1.034, 1.039e-3
-1.035, 1.036e-3
-1.036, 1.039e-3
-1.037, 1.045e-3
-1.038, 1.048e-3
-1.039, 1.042e-3
-1.040, 1.036e-3
-1.041, 1.039e-3
-1.042, 1.045e-3
-1.043, 1.045e-3
-1.044, 1.039e-3
-1.045, 1.036e-3
-1.046, 1.036e-3
-1.047, 1.042e-3
-1.048, 1.045e-3
-1.049, 1.039e-3
-1.050, 1.036e-3
-1.051, 1.039e-3
-1.052, 1.045e-3
-1.053, 1.045e-3
-1.054, 1.042e-3
-1.055, 1.036e-3
-1.056, 1.039e-3
-1.057, 1.045e-3
-1.058, 1.045e-3
-1.059, 1.039e-3
-1.060, 1.036e-3
-1.061, 1.036e-3
-1.062, 1.042e-3
-1.063, 1.045e-3
-1.064, 1.036e-3
-1.065, 1.033e-3
-1.066, 1.033e-3
-1.067, 1.039e-3
-1.068, 1.039e-3
-1.069, 1.033e-3
-1.070, 1.027e-3
-1.071, 1.033e-3
-1.072, 1.039e-3
-1.073, 1.045e-3
-1.074, 1.039e-3
-1.075, 1.036e-3
-1.076, 1.036e-3
-1.077, 1.042e-3
-1.078, 1.045e-3
-1.079, 1.039e-3
-1.080, 1.033e-3
-1.081, 1.036e-3
-1.082, 1.042e-3
-1.083, 1.045e-3
-1.084, 1.042e-3
-1.085, 1.033e-3
-1.086, 1.036e-3
-1.087, 1.039e-3
-1.088, 1.042e-3
-1.089, 1.039e-3
-1.090, 1.033e-3
-1.091, 1.036e-3
-1.092, 1.042e-3
-1.093, 1.042e-3
-1.094, 1.036e-3
-1.095, 1.033e-3
-1.096, 1.033e-3
-1.097, 1.039e-3
-1.098, 1.042e-3
-1.099, 1.036e-3
-1.100, 1.033e-3
-1.101, 1.033e-3
-1.102, 1.039e-3
-1.103, 1.042e-3
-1.104, 1.036e-3
-1.105, 1.033e-3
-1.106, 1.033e-3
-1.107, 1.042e-3
-1.108, 1.042e-3
-1.109, 1.036e-3
-1.110, 1.033e-3
-1.111, 1.033e-3
-1.112, 1.039e-3
-1.113, 1.042e-3
-1.114, 1.036e-3
-1.115, 1.033e-3
-1.116, 1.036e-3
-1.117, 1.042e-3
-1.118, 1.045e-3
-1.119, 1.039e-3
-1.120, 1.036e-3
-1.121, 1.039e-3
-1.122, 1.042e-3
-1.123, 1.045e-3
-1.124, 1.039e-3
-1.125, 1.036e-3
-1.126, 1.039e-3
-1.127, 1.048e-3
-1.128, 1.048e-3
-1.129, 1.045e-3
-1.130, 1.039e-3
-1.131, 1.042e-3
-1.132, 1.051e-3
-1.133, 1.051e-3
-1.134, 1.048e-3
-1.135, 1.045e-3
-1.136, 1.045e-3
-1.137, 1.055e-3
-1.138, 1.055e-3
-1.139, 1.051e-3
-1.140, 1.045e-3
-1.141, 1.048e-3
-1.142, 1.055e-3
-1.143, 1.058e-3
-1.144, 1.051e-3
-1.145, 1.048e-3
-1.146, 1.051e-3
-1.147, 1.058e-3
-1.148, 1.061e-3
-1.149, 1.055e-3
-1.150, 1.051e-3
-1.151, 1.055e-3
-1.152, 1.061e-3
-1.153, 1.064e-3
-1.154, 1.061e-3
-1.155, 1.055e-3
-1.156, 1.058e-3
-1.157, 1.067e-3
-1.158, 1.067e-3
-1.159, 1.061e-3
-1.160, 1.058e-3
-1.161, 1.064e-3
-1.162, 1.070e-3
-1.163, 1.073e-3
-1.164, 1.070e-3
-1.165, 1.064e-3
-1.166, 1.067e-3
-1.167, 1.073e-3
-1.168, 1.076e-3
-1.169, 1.073e-3
-1.170, 1.067e-3
-1.171, 1.073e-3
-1.172, 1.082e-3
-1.173, 1.085e-3
-1.174, 1.082e-3
-1.175, 1.079e-3
-1.176, 1.079e-3
-1.177, 1.088e-3
-1.178, 1.088e-3
-1.179, 1.085e-3
-1.180, 1.079e-3
-1.181, 1.082e-3
-1.182, 1.092e-3
-1.183, 1.092e-3
-1.184, 1.085e-3
-1.185, 1.082e-3
-1.186, 1.085e-3
-1.187, 1.095e-3
-1.188, 1.095e-3
-1.189, 1.092e-3
-1.190, 1.092e-3
-1.191, 1.095e-3
-1.192, 1.104e-3
-1.193, 1.107e-3
-1.194, 1.104e-3
-1.195, 1.101e-3
-1.196, 1.107e-3
-1.197, 1.113e-3
-1.198, 1.116e-3
-1.199, 1.113e-3
-1.200, 1.110e-3
-1.201, 1.116e-3
-1.202, 1.125e-3
-1.203, 1.138e-3
-1.204, 1.135e-3
-1.205, 1.122e-3
-1.206, 1.129e-3
-1.207, 1.138e-3
-1.208, 1.141e-3
-1.209, 1.138e-3
-1.210, 1.132e-3
-1.211, 1.135e-3
-1.212, 1.141e-3
-1.213, 1.144e-3
-1.214, 1.144e-3
-1.215, 1.144e-3
-1.216, 1.150e-3
-1.217, 1.159e-3
-1.218, 1.166e-3
-1.219, 1.162e-3
-1.220, 1.162e-3
-1.221, 1.169e-3
-1.222, 1.178e-3
-1.223, 1.184e-3
-1.224, 1.181e-3
-1.225, 1.181e-3
-1.226, 1.187e-3
-1.227, 1.196e-3
-1.228, 1.203e-3
-1.229, 1.206e-3
-1.230, 1.203e-3
-1.231, 1.209e-3
-1.232, 1.215e-3
-1.233, 1.221e-3
-1.234, 1.218e-3
-1.235, 1.218e-3
-1.236, 1.224e-3
-1.237, 1.233e-3
-1.238, 1.243e-3
-1.239, 1.240e-3
-1.240, 1.240e-3
-1.241, 1.249e-3
-1.242, 1.261e-3
-1.243, 1.267e-3
-1.244, 1.267e-3
-1.245, 1.270e-3
-1.246, 1.277e-3
-1.247, 1.289e-3
-1.248, 1.292e-3
-1.249, 1.295e-3
-1.250, 1.295e-3
-1.251, 1.304e-3
-1.252, 1.317e-3
-1.253, 1.323e-3
-1.254, 1.329e-3
-1.255, 1.332e-3
-1.256, 1.341e-3
-1.257, 1.354e-3
-1.258, 1.363e-3
-1.259, 1.366e-3
-1.260, 1.372e-3
-1.261, 1.384e-3
-1.262, 1.400e-3
-1.263, 1.409e-3
-1.264, 1.412e-3
-1.265, 1.421e-3
-1.266, 1.434e-3
-1.267, 1.452e-3
-1.268, 1.465e-3
-1.269, 1.474e-3
-1.270, 1.483e-3
-1.271, 1.495e-3
-1.272, 1.514e-3
-1.273, 1.526e-3
-1.274, 1.532e-3
-1.275, 1.548e-3
-1.276, 1.560e-3
-1.277, 1.579e-3
-1.278, 1.594e-3
-1.279, 1.603e-3
-1.280, 1.616e-3
-1.281, 1.637e-3
-1.282, 1.656e-3
-1.283, 1.671e-3
-1.284, 1.684e-3
-1.285, 1.696e-3
-1.286, 1.717e-3
-1.287, 1.739e-3
-1.288, 1.754e-3
-1.289, 1.764e-3
-1.290, 1.776e-3
-1.291, 1.798e-3
-1.292, 1.825e-3
-1.293, 1.844e-3
-1.294, 1.856e-3
-1.295, 1.872e-3
-1.296, 1.893e-3
-1.297, 1.924e-3
-1.298, 1.949e-3
-1.299, 1.964e-3
-1.300, 1.980e-3
-1.301, 2.001e-3
-1.302, 2.029e-3
-1.303, 2.054e-3
-1.304, 2.075e-3
-1.305, 2.097e-3
-1.306, 2.128e-3
-1.307, 2.158e-3
-1.308, 2.183e-3
-1.309, 2.201e-3
-1.310, 2.220e-3
-1.311, 2.254e-3
-1.312, 2.288e-3
-1.313, 2.325e-3
-1.314, 2.353e-3
-1.315, 2.377e-3
-1.316, 2.414e-3
-1.317, 2.454e-3
-1.318, 2.491e-3
-1.319, 2.522e-3
-1.320, 2.553e-3
-1.321, 2.590e-3
-1.322, 2.633e-3
-1.323, 2.670e-3
-1.324, 2.704e-3
-1.325, 2.738e-3
-1.326, 2.778e-3
-1.327, 2.821e-3
-1.328, 2.864e-3
-1.329, 2.901e-3
-1.330, 2.935e-3
-1.331, 2.985e-3
-1.332, 3.034e-3
-1.333, 3.077e-3
-1.334, 3.114e-3
-1.335, 3.154e-3
-1.336, 3.204e-3
-1.337, 3.253e-3
-1.338, 3.302e-3
-1.339, 3.342e-3
-1.340, 3.385e-3
-1.341, 3.435e-3
-1.342, 3.490e-3
-1.343, 3.546e-3
-1.344, 3.592e-3
-1.345, 3.644e-3
-1.346, 3.703e-3
-1.347, 3.762e-3
-1.348, 3.817e-3
-1.349, 3.869e-3
-1.350, 3.922e-3
-1.351, 3.984e-3
-1.352, 4.045e-3
-1.353, 4.104e-3
-1.354, 4.156e-3
-1.355, 4.209e-3
-1.356, 4.270e-3
-1.357, 4.338e-3
-1.358, 4.400e-3
-1.359, 4.458e-3
-1.360, 4.517e-3
-1.361, 4.585e-3
-1.362, 4.656e-3
-1.363, 4.723e-3
-1.364, 4.782e-3
-1.365, 4.844e-3
-1.366, 4.912e-3
-1.367, 4.986e-3
-1.368, 5.056e-3
-1.369, 5.121e-3
-1.370, 5.189e-3
-1.371, 5.266e-3
-1.372, 5.343e-3
-1.373, 5.420e-3
-1.374, 5.491e-3
-1.375, 5.565e-3
-1.376, 5.645e-3
-1.377, 5.732e-3
-1.378, 5.815e-3
-1.379, 5.895e-3
-1.380, 5.975e-3
-1.381, 6.058e-3
-1.382, 6.145e-3
-1.383, 6.228e-3
-1.384, 6.305e-3
-1.385, 6.385e-3
-1.386, 6.472e-3
-1.387, 6.561e-3
-1.388, 6.650e-3
-1.389, 6.731e-3
-1.390, 6.814e-3
-1.391, 6.906e-3
-1.392, 7.002e-3
-1.393, 7.088e-3
-1.394, 7.168e-3
-1.395, 7.255e-3
-1.396, 7.344e-3
-1.397, 7.440e-3
-1.398, 7.529e-3
-1.399, 7.609e-3
-1.400, 7.557e-3
-1.399, 7.301e-3
-1.398, 7.101e-3
-1.397, 6.928e-3
-1.396, 6.768e-3
-1.395, 6.626e-3
-1.394, 6.499e-3
-1.393, 6.388e-3
-1.392, 6.274e-3
-1.391, 6.160e-3
-1.390, 6.046e-3
-1.389, 5.941e-3
-1.388, 5.840e-3
-1.387, 5.741e-3
-1.386, 5.636e-3
-1.385, 5.531e-3
-1.384, 5.436e-3
-1.383, 5.343e-3
-1.382, 5.245e-3
-1.381, 5.146e-3
-1.380, 5.047e-3
-1.379, 4.958e-3
-1.378, 4.875e-3
-1.377, 4.785e-3
-1.376, 4.693e-3
-1.375, 4.600e-3
-1.374, 4.517e-3
-1.373, 4.434e-3
-1.372, 4.341e-3
-1.371, 4.246e-3
-1.370, 4.153e-3
-1.369, 4.073e-3
-1.368, 3.999e-3
-1.367, 3.916e-3
-1.366, 3.832e-3
-1.365, 3.749e-3
-1.364, 3.669e-3
-1.363, 3.598e-3
-1.362, 3.524e-3
-1.361, 3.444e-3
-1.360, 3.367e-3
-1.359, 3.293e-3
-1.358, 3.225e-3
-1.357, 3.154e-3
-1.356, 3.086e-3
-1.355, 3.019e-3
-1.354, 2.948e-3
-1.353, 2.880e-3
-1.352, 2.812e-3
-1.351, 2.732e-3
-1.350, 2.658e-3
-1.349, 2.593e-3
-1.348, 2.528e-3
-1.347, 2.460e-3
-1.346, 2.390e-3
-1.345, 2.322e-3
-1.344, 2.263e-3
-1.343, 2.205e-3
-1.342, 2.146e-3
-1.341, 2.078e-3
-1.340, 2.013e-3
-1.339, 1.958e-3
-1.338, 1.902e-3
-1.337, 1.847e-3
-1.336, 1.782e-3
-1.335, 1.721e-3
-1.334, 1.668e-3
-1.333, 1.619e-3
-1.332, 1.563e-3
-1.331, 1.505e-3
-1.330, 1.446e-3
-1.329, 1.400e-3
-1.328, 1.354e-3
-1.327, 1.304e-3
-1.326, 1.246e-3
-1.325, 1.196e-3
-1.324, 1.150e-3
-1.323, 1.107e-3
-1.322, 1.061e-3
-1.321, 1.011e-3
-1.320, 9.590e-4
-1.319, 9.158e-4
-1.318, 8.788e-4
-1.317, 8.357e-4
-1.316, 7.863e-4
-1.315, 7.401e-4
-1.314, 7.000e-4
-1.313, 6.661e-4
-1.312, 6.260e-4
-1.311, 5.798e-4
-1.310, 5.366e-4
-1.309, 5.027e-4
-1.308, 4.688e-4
-1.307, 4.318e-4
-1.306, 3.886e-4
-1.305, 3.485e-4
-1.304, 3.177e-4
-1.303, 2.869e-4
-1.302, 2.530e-4
-1.301, 2.129e-4
-1.300, 1.759e-4
-1.299, 1.481e-4
-1.298, 1.235e-4
-1.297, 9.265e-5
-1.296, 5.565e-5
-1.295, 2.174e-5
-1.294, -2.927e-6
-1.293, -2.759e-5
-1.292, -5.534e-5
-1.291, -8.617e-5
-1.290, -1.170e-4
-1.289, -1.417e-4
-1.288, -1.602e-4
-1.287, -1.879e-4
-1.286, -2.157e-4
-1.285, -2.434e-4
-1.284, -2.681e-4
-1.283, -2.835e-4
-1.282, -3.082e-4
-1.281, -3.359e-4
-1.280, -3.606e-4
-1.279, -3.821e-4
-1.278, -3.976e-4
-1.277, -4.130e-4
-1.276, -4.407e-4
-1.275, -4.623e-4
-1.274, -4.777e-4
-1.273, -4.901e-4
-1.272, -5.086e-4
-1.271, -5.301e-4
-1.270, -5.517e-4
-1.269, -5.671e-4
-1.268, -5.795e-4
-1.267, -5.918e-4
-1.266, -6.165e-4
-1.265, -6.350e-4
-1.264, -6.442e-4
-1.263, -6.535e-4
-1.262, -6.689e-4
-1.261, -6.874e-4
-1.260, -7.059e-4
-1.259, -7.151e-4
-1.258, -7.213e-4
-1.257, -7.336e-4
-1.256, -7.521e-4
-1.255, -7.675e-4
-1.254, -7.768e-4
-1.253, -7.830e-4
-1.252, -7.922e-4
-1.251, -8.076e-4
-1.250, -8.200e-4
-1.249, -8.292e-4
-1.248, -8.323e-4
-1.247, -8.415e-4
-1.246, -8.539e-4
-1.245, -8.693e-4
-1.244, -8.724e-4
-1.243, -8.754e-4
-1.242, -8.816e-4
-1.241, -8.970e-4
-1.240, -9.063e-4
-1.239, -9.124e-4
-1.238, -9.124e-4
-1.237, -9.217e-4
-1.236, -9.340e-4
-1.235, -9.433e-4
-1.234, -9.464e-4
-1.233, -9.464e-4
-1.232, -9.525e-4
-1.231, -9.649e-4
-1.230, -9.710e-4
-1.229, -9.772e-4
-1.228, -9.803e-4
-1.227, -9.803e-4
-1.226, -9.895e-4
-1.225, -1.002e-3
-1.224, -1.005e-3
-1.223, -1.002e-3
-1.222, -1.005e-3
-1.221, -1.014e-3
-1.220, -1.023e-3
-1.219, -1.023e-3
-1.218, -1.020e-3
-1.217, -1.023e-3
-1.216, -1.033e-3
-1.215, -1.039e-3
-1.214, -1.039e-3
-1.213, -1.036e-3
-1.212, -1.039e-3
-1.211, -1.045e-3
-1.210, -1.051e-3
-1.209, -1.051e-3
-1.208, -1.048e-3
-1.207, -1.048e-3
-1.206, -1.057e-3
-1.205, -1.060e-3
-1.204, -1.064e-3
-1.203, -1.060e-3
-1.202, -1.064e-3
-1.201, -1.070e-3
-1.200, -1.076e-3
-1.199, -1.073e-3
-1.198, -1.073e-3
-1.197, -1.073e-3
-1.196, -1.079e-3
-1.195, -1.085e-3
-1.194, -1.082e-3
-1.193, -1.076e-3
-1.192, -1.076e-3
-1.191, -1.085e-3
-1.190, -1.088e-3
-1.189, -1.085e-3
-1.188, -1.082e-3
-1.187, -1.079e-3
-1.186, -1.088e-3
-1.185, -1.094e-3
-1.184, -1.088e-3
-1.183, -1.085e-3
-1.182, -1.088e-3
-1.181, -1.091e-3
-1.180, -1.097e-3
-1.179, -1.094e-3
-1.178, -1.091e-3
-1.177, -1.094e-3
-1.176, -1.101e-3
-1.175, -1.104e-3
-1.174, -1.101e-3
-1.173, -1.094e-3
-1.172, -1.094e-3
-1.171, -1.104e-3
-1.170, -1.107e-3
-1.169, -1.104e-3
-1.168, -1.097e-3
-1.167, -1.097e-3
-1.166, -1.101e-3
-1.165, -1.107e-3
-1.164, -1.104e-3
-1.163, -1.097e-3
-1.162, -1.097e-3
-1.161, -1.101e-3
-1.160, -1.104e-3
-1.159, -1.104e-3
-1.158, -1.097e-3
-1.157, -1.094e-3
-1.156, -1.104e-3
-1.155, -1.104e-3
-1.154, -1.101e-3
-1.153, -1.094e-3
-1.152, -1.097e-3
-1.151, -1.104e-3
-1.150, -1.107e-3
-1.149, -1.101e-3
-1.148, -1.097e-3
-1.147, -1.094e-3
-1.146, -1.101e-3
-1.145, -1.107e-3
-1.144, -1.104e-3
-1.143, -1.097e-3
-1.142, -1.097e-3
-1.141, -1.104e-3
-1.140, -1.107e-3
-1.139, -1.104e-3
-1.138, -1.097e-3
-1.137, -1.097e-3
-1.136, -1.104e-3
-1.135, -1.110e-3
-1.134, -1.107e-3
-1.133, -1.104e-3
-1.132, -1.104e-3
-1.131, -1.110e-3
-1.130, -1.113e-3
-1.129, -1.110e-3
-1.128, -1.101e-3
-1.127, -1.101e-3
-1.126, -1.107e-3
-1.125, -1.110e-3
-1.124, -1.104e-3
-1.123, -1.097e-3
-1.122, -1.097e-3
-1.121, -1.104e-3
-1.120, -1.107e-3
-1.119, -1.104e-3
-1.118, -1.101e-3
-1.117, -1.097e-3
-1.116, -1.107e-3
-1.115, -1.110e-3
-1.114, -1.107e-3
-1.113, -1.101e-3
-1.112, -1.101e-3
-1.111, -1.107e-3
-1.110, -1.110e-3
-1.109, -1.107e-3
-1.108, -1.101e-3
-1.107, -1.101e-3
-1.106, -1.104e-3
-1.105, -1.113e-3
-1.104, -1.110e-3
-1.103, -1.107e-3
-1.102, -1.110e-3
-1.101, -1.119e-3
-1.100, -1.119e-3
-1.099, -1.113e-3
-1.098, -1.107e-3
-1.097, -1.107e-3
-1.096, -1.113e-3
-1.095, -1.122e-3
-1.094, -1.116e-3
-1.093, -1.107e-3
-1.092, -1.110e-3
-1.091, -1.116e-3
-1.090, -1.119e-3
-1.089, -1.116e-3
-1.088, -1.107e-3
-1.087, -1.110e-3
-1.086, -1.116e-3
-1.085, -1.119e-3
-1.084, -1.116e-3
-1.083, -1.107e-3
-1.082, -1.107e-3
-1.081, -1.113e-3
-1.080, -1.116e-3
-1.079, -1.113e-3
-1.078, -1.107e-3
-1.077, -1.107e-3
-1.076, -1.116e-3
-1.075, -1.125e-3
-1.074, -1.122e-3
-1.073, -1.116e-3
-1.072, -1.119e-3
-1.071, -1.122e-3
-1.070, -1.128e-3
-1.069, -1.125e-3
-1.068, -1.119e-3
-1.067, -1.119e-3
-1.066, -1.125e-3
-1.065, -1.131e-3
-1.064, -1.131e-3
-1.063, -1.125e-3
-1.062, -1.125e-3
-1.061, -1.131e-3
-1.060, -1.138e-3
-1.059, -1.134e-3
-1.058, -1.128e-3
-1.057, -1.128e-3
-1.056, -1.134e-3
-1.055, -1.141e-3
-1.054, -1.138e-3
-1.053, -1.131e-3
-1.052, -1.131e-3
-1.051, -1.138e-3
-1.050, -1.144e-3
-1.049, -1.144e-3
-1.048, -1.138e-3
-1.047, -1.141e-3
-1.046, -1.150e-3
-1.045, -1.156e-3
-1.044, -1.153e-3
-1.043, -1.147e-3
-1.042, -1.150e-3
-1.041, -1.153e-3
-1.040, -1.156e-3
-1.039, -1.156e-3
-1.038, -1.153e-3
-1.037, -1.156e-3
-1.036, -1.162e-3
-1.035, -1.168e-3
-1.034, -1.162e-3
-1.033, -1.159e-3
-1.032, -1.159e-3
-1.031, -1.168e-3
-1.030, -1.171e-3
-1.029, -1.171e-3
-1.028, -1.171e-3
-1.027, -1.171e-3
-1.026, -1.181e-3
-1.025, -1.187e-3
-1.024, -1.184e-3
-1.023, -1.184e-3
-1.022, -1.184e-3
-1.021, -1.190e-3
-1.020, -1.199e-3
-1.019, -1.196e-3
-1.018, -1.193e-3
-1.017, -1.196e-3
-1.016, -1.205e-3
-1.015, -1.212e-3
-1.014, -1.212e-3
-1.013, -1.205e-3
-1.012, -1.212e-3
-1.011, -1.218e-3
-1.010, -1.224e-3
-1.009, -1.224e-3
-1.008, -1.221e-3
-1.007, -1.224e-3
-1.006, -1.230e-3
-1.005, -1.236e-3
-1.004, -1.236e-3
-1.003, -1.233e-3
-1.002, -1.236e-3
-1.001, -1.242e-3
