Potential V vs RHE, Current mA cm-2
0.013299999999999867,-0.6128529351015338
0.012299999999999978,-3.055776407708479
0.011299999999999866,-5.105693081212917
0.010299999999999976,-6.6760226240631075
0.009299999999999864,-7.896918475846635
0.008299999999999974,-8.899948787450944
0.007299999999999862,-9.81668170976349
0.006299999999999972,-10.688143870480351
0.00529999999999986,-11.299299152022046
0.0042999999999999705,-11.778886282676295
0.0032999999999998586,-12.12831997374296
0.0022999999999999687,-12.520195003805576
0.0012999999999998568,-12.955926084164007
0.00029999999999996696,-13.217647674639037
-0.000700000000000145,-13.3930718758223
-0.0017000000000000348,-13.567081365705702
-0.0027000000000001467,-13.741090855589102
-0.0037000000000000366,-14.002812446064135
-0.0047000000000001485,-14.13438059695158
-0.005700000000000038,-14.175407224647667
-0.00670000000000015,-14.175407224647667
-0.00770000000000004,-14.26028990263957
-0.008700000000000152,-14.444202371622024
-0.009700000000000042,-14.486643710617974
-0.010700000000000154,-14.486643710617974
-0.011700000000000044,-14.486643710617974
-0.012700000000000156,-14.529085049613924
-0.013700000000000045,-14.61396772760583
-0.014700000000000157,-14.65640906660178
-0.015700000000000047,-14.61396772760583
-0.01670000000000016,-14.57152638860988
-0.01770000000000005,-14.65640906660178
-0.01870000000000016,-14.741291744593681
-0.01970000000000005,-14.783733083589633
-0.020700000000000163,-14.69885040559773
-0.021700000000000053,-14.65640906660178
-0.022700000000000164,-14.69885040559773
-0.023700000000000054,-14.783733083589633
-0.024700000000000166,-14.826174422585586
-0.025700000000000056,-14.741291744593681
-0.026700000000000168,-14.65640906660178
-0.027700000000000058,-14.69885040559773
-0.02870000000000017,-14.783733083589633
-0.02970000000000006,-14.783733083589633
-0.03070000000000017,-14.69885040559773
-0.03170000000000006,-14.65640906660178
-0.03270000000000017,-14.65640906660178
-0.03370000000000006,-14.741291744593681
-0.034700000000000175,-14.783733083589633
-0.035700000000000065,-14.69885040559773
-0.03670000000000018,-14.65640906660178
-0.03770000000000007,-14.69885040559773
-0.03870000000000018,-14.783733083589633
-0.03970000000000007,-14.783733083589633
-0.04070000000000018,-14.741291744593681
-0.04170000000000007,-14.65640906660178
-0.04270000000000018,-14.69885040559773
-0.04370000000000007,-14.783733083589633
-0.044700000000000184,-14.783733083589633
-0.045700000000000074,-14.69885040559773
-0.046700000000000186,-14.65640906660178
-0.047700000000000076,-14.65640906660178
-0.04870000000000019,-14.741291744593681
-0.04970000000000008,-14.783733083589633
-0.05070000000000019,-14.65640906660178
-0.05170000000000008,-14.61396772760583
-0.05270000000000019,-14.61396772760583
-0.05370000000000008,-14.69885040559773
-0.05470000000000019,-14.69885040559773
-0.05570000000000008,-14.61396772760583
-0.056700000000000195,-14.529085049613924
-0.057700000000000085,-14.61396772760583
-0.058700000000000196,-14.69885040559773
-0.059700000000000086,-14.783733083589633
-0.0607000000000002,-14.69885040559773
-0.06170000000000009,-14.65640906660178
-0.0627000000000002,-14.65640906660178
-0.06370000000000009,-14.741291744593681
-0.0647000000000002,-14.783733083589633
-0.06570000000000009,-14.69885040559773
-0.0667000000000002,-14.61396772760583
-0.0677000000000001,-14.65640906660178
-0.0687000000000002,-14.741291744593681
-0.0697000000000001,-14.783733083589633
-0.07070000000000021,-14.741291744593681
-0.0717000000000001,-14.61396772760583
-0.07270000000000021,-14.65640906660178
-0.0737000000000001,-14.69885040559773
-0.07470000000000021,-14.741291744593681
-0.0757000000000001,-14.69885040559773
-0.07670000000000021,-14.61396772760583
-0.0777000000000001,-14.65640906660178
-0.07870000000000021,-14.741291744593681
-0.0797000000000001,-14.741291744593681
-0.08070000000000022,-14.65640906660178
-0.0817000000000001,-14.61396772760583
-0.08270000000000022,-14.61396772760583
-0.08370000000000011,-14.69885040559773
-0.08470000000000022,-14.741291744593681
-0.08570000000000011,-14.65640906660178
-0.08670000000000022,-14.61396772760583
-0.08770000000000011,-14.61396772760583
-0.08870000000000022,-14.69885040559773
-0.08970000000000011,-14.741291744593681
-0.09070000000000022,-14.65640906660178
-0.09170000000000011,-14.61396772760583
-0.09270000000000023,-14.61396772760583
-0.09370000000000012,-14.741291744593681
-0.09470000000000023,-14.741291744593681
-0.09570000000000012,-14.65640906660178
-0.09670000000000023,-14.61396772760583
-0.09770000000000012,-14.61396772760583
-0.09870000000000023,-14.69885040559773
-0.09970000000000012,-14.741291744593681
-0.10070000000000023,-14.65640906660178
-0.10170000000000012,-14.61396772760583
-0.10270000000000024,-14.65640906660178
-0.10370000000000013,-14.741291744593681
-0.10470000000000024,-14.783733083589633
-0.10570000000000013,-14.69885040559773
-0.10670000000000024,-14.65640906660178
-0.10770000000000013,-14.69885040559773
-0.10870000000000024,-14.741291744593681
-0.10970000000000013,-14.783733083589633
-0.11070000000000024,-14.69885040559773
-0.11170000000000013,-14.65640906660178
-0.11270000000000002,-14.69885040559773
-0.11370000000000013,-14.826174422585586
-0.11470000000000002,-14.826174422585586
-0.11570000000000014,-14.783733083589633
-0.11670000000000003,-14.69885040559773
-0.11770000000000014,-14.741291744593681
-0.11870000000000003,-14.868615761581536
-0.11970000000000014,-14.868615761581536
-0.12070000000000003,-14.826174422585586
-0.12170000000000014,-14.783733083589633
-0.12270000000000003,-14.783733083589633
-0.12370000000000014,-14.925204213576137
-0.12470000000000003,-14.925204213576137
-0.12570000000000014,-14.868615761581536
-0.12670000000000003,-14.783733083589633
-0.12770000000000015,-14.826174422585586
-0.12870000000000004,-14.925204213576137
-0.12970000000000015,-14.967645552572087
-0.13070000000000004,-14.868615761581536
-0.13170000000000015,-14.826174422585586
-0.13270000000000004,-14.868615761581536
-0.13370000000000015,-14.967645552572087
-0.13470000000000004,-15.01008689156804
-0.13570000000000015,-14.925204213576137
-0.13670000000000004,-14.868615761581536
-0.13770000000000016,-14.925204213576137
-0.13870000000000005,-15.01008689156804
-0.13970000000000016,-15.05252823056399
-0.14070000000000005,-15.01008689156804
-0.14170000000000016,-14.925204213576137
-0.14270000000000005,-14.967645552572087
-0.14370000000000016,-15.094969569559943
-0.14470000000000005,-15.094969569559943
-0.14570000000000016,-15.01008689156804
-0.14670000000000005,-14.967645552572087
-0.14770000000000016,-15.05252823056399
-0.14870000000000005,-15.137410908555893
-0.14970000000000017,-15.179852247551842
-0.15070000000000006,-15.137410908555893
-0.15170000000000017,-15.05252823056399
-0.15270000000000006,-15.094969569559943
-0.15370000000000017,-15.179852247551842
-0.15470000000000006,-15.222293586547794
-0.15570000000000017,-15.179852247551842
-0.15670000000000006,-15.094969569559943
-0.15770000000000017,-15.179852247551842
-0.15870000000000006,-15.307176264539699
-0.15970000000000018,-15.349617603535648
-0.16070000000000007,-15.307176264539699
-0.16170000000000018,-15.264734925543747
-0.16270000000000007,-15.264734925543747
-0.16370000000000018,-15.3920589425316
-0.16470000000000007,-15.3920589425316
-0.16570000000000018,-15.349617603535648
-0.16670000000000007,-15.264734925543747
-0.16770000000000018,-15.307176264539699
-0.16870000000000007,-15.448647394526201
-0.16970000000000018,-15.448647394526201
-0.17070000000000007,-15.349617603535648
-0.17170000000000019,-15.307176264539699
-0.17270000000000008,-15.349617603535648
-0.1737000000000002,-15.491088733522153
-0.17470000000000008,-15.491088733522153
-0.1757000000000002,-15.448647394526201
-0.17670000000000008,-15.448647394526201
-0.1777000000000002,-15.491088733522153
-0.17870000000000008,-15.618412750510005
-0.1797000000000002,-15.660854089505953
-0.18070000000000008,-15.618412750510005
-0.1817000000000002,-15.575971411514052
-0.18270000000000008,-15.660854089505953
-0.1837000000000002,-15.74573676749786
-0.1847000000000001,-15.78817810649381
-0.1857000000000002,-15.74573676749786
-0.1867000000000001,-15.70329542850191
-0.1877000000000002,-15.78817810649381
-0.1887000000000001,-15.91550212348166
-0.1897000000000002,-16.099414592464115
-0.1907000000000001,-16.056973253468165
-0.1917000000000001,-15.87306078448571
-0.19269999999999998,-15.972090575476265
-0.1937000000000001,-16.099414592464115
-0.19469999999999998,-16.141855931460068
-0.1957000000000001,-16.099414592464115
-0.19669999999999999,-16.014531914472215
-0.1977000000000001,-16.056973253468165
-0.1987,-16.141855931460068
-0.1997000000000001,-16.184297270456018
-0.2007,-16.184297270456018
-0.2017000000000001,-16.184297270456018
-0.2027,-16.269179948447924
-0.2037000000000001,-16.396503965435777
-0.2047,-16.495533756426326
-0.2057000000000001,-16.438945304431726
-0.2067,-16.438945304431726
-0.2077000000000001,-16.53797509542228
-0.2087,-16.665299112410132
-0.2097000000000001,-16.750181790402035
-0.2107,-16.70774045140608
-0.2117000000000001,-16.70774045140608
-0.2127,-16.792623129397985
-0.2137000000000001,-16.919947146385837
-0.2147,-17.018976937376394
-0.2157000000000001,-17.061418276372343
-0.2167,-17.018976937376394
-0.21770000000000012,-17.103859615368293
-0.2187,-17.188742293360193
-0.21970000000000012,-17.2736249713521
-0.2207,-17.231183632356142
-0.22170000000000012,-17.231183632356142
-0.2227,-17.316066310348052
-0.22370000000000012,-17.4433903273359
-0.2247,-17.584861457322408
-0.22570000000000012,-17.542420118326454
-0.2267,-17.542420118326454
-0.22770000000000012,-17.669744135314307
-0.22870000000000001,-17.839509491298113
-0.22970000000000013,-17.924392169290012
-0.23070000000000002,-17.924392169290012
-0.23170000000000013,-17.966833508285966
-0.23270000000000002,-18.06586329927652
-0.23370000000000013,-18.23562865526032
-0.23470000000000002,-18.27806999425627
-0.23570000000000013,-18.320511333252224
-0.23670000000000002,-18.320511333252224
-0.2376999999999999,-18.44783535024008
-0.23870000000000002,-18.631747819222536
-0.2396999999999999,-18.716630497214435
-0.24070000000000003,-18.80151317520634
-0.24169999999999991,-18.843954514202288
-0.24270000000000003,-18.97127853119014
-0.24369999999999992,-19.155191000172596
-0.24470000000000003,-19.28251501716045
-0.24569999999999992,-19.3249563561564
-0.24670000000000003,-19.409839034148305
-0.24769999999999992,-19.579604390132108
-0.24870000000000003,-19.805958198110513
-0.24969999999999992,-19.93328221509837
-0.25070000000000003,-19.97572355409432
-0.2516999999999999,-20.10304757108217
-0.25270000000000004,-20.286960040064624
-0.2536999999999999,-20.541608074040333
-0.25470000000000004,-20.72552054302279
-0.2556999999999999,-20.85284456001064
-0.25670000000000004,-20.980168576998494
-0.25769999999999993,-21.149933932982297
-0.25870000000000004,-21.418729079956652
-0.25969999999999993,-21.58849443594046
-0.26070000000000004,-21.67337711393236
-0.26169999999999993,-21.899730921910766
-0.26270000000000004,-22.069496277894572
-0.26369999999999993,-22.33829142486893
-0.26470000000000005,-22.550498119848687
-0.26569999999999994,-22.67782213683654
-0.26670000000000005,-22.861734605818995
-0.26769999999999994,-23.15882397879065
-0.26870000000000005,-23.427619125765005
-0.26969999999999994,-23.639825820744765
-0.27070000000000005,-23.823738289727217
-0.27169999999999994,-23.993503645711023
-0.27270000000000005,-24.290593018682678
-0.27369999999999994,-24.601829504652986
-0.27470000000000006,-24.814036199632742
-0.27569999999999995,-24.95550732961925
-0.27670000000000006,-25.12527268560305
-0.27769999999999995,-25.43650917157336
-0.27870000000000006,-25.81848122253692
-0.27969999999999995,-26.087276369511276
-0.28070000000000006,-26.257041725495082
-0.28169999999999995,-26.483395533473487
-0.28270000000000006,-26.780484906445146
-0.28369999999999995,-27.219045409403304
-0.28470000000000006,-27.572723234369565
-0.28569999999999995,-27.78492992934932
-0.28670000000000007,-28.011283737327723
-0.28769999999999996,-28.308373110299385
-0.28870000000000007,-28.704492274261593
-0.28969999999999996,-29.058170099227848
-0.29070000000000007,-29.35525947219951
-0.29169999999999996,-29.66649595816982
-0.29270000000000007,-30.10505646112798
-0.29369999999999996,-30.529469851087494
-0.2947000000000001,-30.88314767605375
-0.29569999999999996,-31.137795710029454
-0.2967000000000001,-31.40659085700382
-0.29769999999999996,-31.887592698957924
-0.2987000000000001,-32.368594540912035
-0.29969999999999997,-32.892037721862096
-0.3007000000000001,-33.288156885824314
-0.30169999999999997,-33.627687597791926
-0.3027000000000001,-34.15113077874198
-0.30369999999999997,-34.717015298688004
-0.3047000000000001,-35.240458479638065
-0.30569999999999997,-35.679018982596226
-0.3067000000000001,-36.11757948555439
-0.3077,-36.64102266650445
-0.3087000000000001,-37.249348525446415
-0.3097,-37.77279170639648
-0.3107000000000001,-38.253793548350586
-0.3117,-38.734795390304704
-0.3127000000000001,-39.30067991025072
-0.3137,-39.90900576919269
-0.3147000000000001,-40.51733162813464
-0.3157,-41.04077480908471
-0.3167000000000001,-41.52177665103883
-0.3177,-42.229132300971344
-0.3187000000000001,-42.92234083790521
-0.3197,-43.53066669684718
-0.3207000000000001,-44.054109877797245
-0.3217,-44.619994397743255
-0.3227000000000001,-45.32735004767578
-0.3237,-46.02055858460964
-0.3247000000000001,-46.713767121543505
-0.3257,-47.27965164148953
-0.3267000000000001,-47.8879775004315
-0.3277,-48.59533315036401
-0.3287000000000001,-49.373424365289786
-0.3297,-50.1656626932142
-0.3307000000000001,-50.81642989115212
-0.3317,-51.55207976708194
-0.3327000000000001,-52.386759434002315
-0.3337,-53.22143910092268
-0.3347000000000001,-53.999530315848446
-0.3357,-54.73518019177827
-0.3367000000000001,-55.484977180706736
-0.3377,-56.36209818662306
-0.3387000000000001,-57.22507207954074
-0.3397,-58.05975174646111
-0.3407000000000001,-58.79540162239092
-0.3417,-59.54519861131939
-0.3427000000000001,-60.40817250423707
-0.3437,-61.37017618814529
-0.3447000000000001,-62.24729719406162
-0.3457,-63.06782974798333
-0.3467000000000001,-63.902509414903705
-0.3477,-64.86451309881193
-0.3487000000000001,-65.86895812171612
-0.3497,-66.81681469262568
-0.3507000000000001,-67.65149435954605
-0.3517,-68.52861536546239
-0.3527000000000001,-69.4906190493706
-0.3537,-70.53750541127073
-0.3547000000000001,-71.52780332117625
-0.3557,-72.44736566608852
-0.35670000000000013,-73.40936934999675
-0.3577,-74.49869705089283
-0.35870000000000013,-75.5880247517889
-0.3597,-76.67735245268499
-0.36070000000000013,-77.68179747558916
-0.3617,-78.72868383748929
-0.3626999999999999,-79.86045287738132
-0.3637,-81.09125170826391
-0.3646999999999999,-82.26546208715187
-0.3657,-83.39723112704392
-0.3666999999999999,-84.52900016693594
-0.3677,-85.70321054582392
-0.3686999999999999,-86.93400937670651
-0.36970000000000003,-88.10821975559449
-0.3706999999999999,-89.19754745649055
-0.37170000000000003,-90.32931649638259
-0.3726999999999999,-91.56011532726518
-0.37370000000000003,-92.81920838414506
-0.3746999999999999,-94.07830144102493
-0.37570000000000003,-95.22421759391563
-0.3766999999999999,-96.3984279728036
-0.37770000000000004,-97.69996236867944
-0.3786999999999999,-99.05808521654988
-0.37970000000000004,-100.2747369344338
-0.3806999999999999,-101.40650597432582
-0.38170000000000004,-102.63730480520842
-0.38269999999999993,-103.89639786208829
-0.38370000000000004,-105.25452070995874
-0.38469999999999993,-106.51361376683862
-0.38570000000000004,-107.64538280673065
-0.38669999999999993,-106.90973293080083
-0.38570000000000004,-103.28807200314633
-0.38469999999999993,-100.45864940341626
-0.38370000000000004,-98.01119885464975
-0.38269999999999993,-95.74766077486568
-0.38170000000000004,-93.73877072905732
-0.3806999999999999,-91.94208737822873
-0.37970000000000004,-90.37175783537855
-0.3786999999999999,-88.7589869535324
-0.37770000000000004,-87.14621607168625
-0.3766999999999999,-85.53344518984011
-0.37570000000000003,-84.04799832498183
-0.3746999999999999,-82.61913991211814
-0.37370000000000003,-81.21857572525175
-0.3726999999999999,-79.73312886039348
-0.37170000000000003,-78.24768199553519
-0.3706999999999999,-76.9037062606634
-0.36970000000000003,-75.5880247517889
-0.3686999999999999,-74.20160767792116
-0.3677,-72.80104349105478
-0.3666999999999999,-71.4004793041884
-0.3657,-70.14138624730852
-0.3646999999999999,-68.96717586842054
-0.3637,-67.693935698542
-0.3626999999999999,-66.39240130266617
-0.3617,-65.0767197937917
-0.36070000000000013,-63.902509414903705
-0.3597,-62.72829903601572
-0.35870000000000013,-61.412617527141244
-0.3577,-60.06864179226946
-0.35670000000000013,-58.75296028339497
-0.3557,-57.62119124350295
-0.3547000000000001,-56.57430488160282
-0.3537,-55.400094502714836
-0.3527000000000001,-54.2117370108282
-0.3517,-53.03752663194023
-0.3507000000000001,-51.90575759204819
-0.3497,-50.90131256914402
-0.3487000000000001,-49.85442620724389
-0.3477,-48.72265716735186
-0.3467000000000001,-47.633329466455784
-0.3457,-46.586443104555656
-0.3447000000000001,-45.624439420647434
-0.3437,-44.619994397743255
-0.3427000000000001,-43.657990713835034
-0.3417,-42.71013414292546
-0.3407000000000001,-41.70568912002128
-0.3397,-40.743685436113054
-0.3387000000000001,-39.78168175220483
-0.3377,-38.6499127123128
-0.3367000000000001,-37.60302635041268
-0.3357,-36.6834640055004
-0.3347000000000001,-35.763901660588125
-0.3337,-34.8018979766799
-0.3327000000000001,-33.81160006677438
-0.3317,-32.84959638286615
-0.3307000000000001,-32.01491671594578
-0.3297,-31.19438416202406
-0.3287000000000001,-30.359704495103685
-0.3277,-29.39770081119546
-0.3267000000000001,-28.478138466283188
-0.3257,-27.700047251357418
-0.3247000000000001,-26.907808923433
-0.3237,-26.129717708507226
-0.3227000000000001,-25.210155363594954
-0.3217,-24.34718147067728
-0.3207000000000001,-23.597384481748815
-0.3197,-22.904175944814945
-0.3187000000000001,-22.111937616890522
-0.3177,-21.291405062968803
-0.3167000000000001,-20.456725396048434
-0.3157,-19.805958198110513
-0.3147000000000001,-19.155191000172596
-0.3137,-18.44783535024008
-0.3127000000000001,-17.627302796318357
-0.3117,-16.919947146385837
-0.3107000000000001,-16.269179948447924
-0.3097,-15.660854089505953
-0.3087000000000001,-15.01008689156804
-0.3077,-14.30273124163552
-0.3067000000000001,-13.567081365705702
-0.30569999999999997,-12.955926084164007
-0.3047000000000001,-12.432482903213943
-0.30369999999999997,-11.82274233297211
-0.3027000000000001,-11.123874950838783
-0.30169999999999997,-10.470278330301136
-0.3007000000000001,-9.902979099055257
-0.29969999999999997,-9.423391968401008
-0.2987000000000001,-8.85609273715513
-0.29769999999999996,-8.202496116617484
-0.2967000000000001,-7.591340835075788
-0.29569999999999996,-7.111753704421539
-0.2947000000000001,-6.632166573767292
-0.29369999999999996,-6.108723392817228
-0.29270000000000007,-5.497568111275533
-0.29169999999999996,-4.9302688800296535
-0.29070000000000007,-4.494537799671222
-0.28969999999999996,-4.0588067193127895
-0.28870000000000007,-3.579219588658543
-0.28769999999999996,-3.0119203574126634
-0.28670000000000007,-2.4884771764625997
-0.28569999999999995,-2.095187435100119
-0.28470000000000006,-1.7471684553333202
-0.28369999999999995,-1.3107300193249565
-0.28270000000000006,-0.7872868383748929
-0.28169999999999995,-0.30755823659065895
-0.28070000000000006,0.04140859974704963
-0.27969999999999995,0.3903188476327636
-0.27870000000000006,0.7829012333453113
-0.27769999999999995,1.219056727093702
-0.27670000000000006,1.655212220842093
-0.27569999999999995,2.004645911908757
-0.27470000000000006,2.2663675023837886
-0.27369999999999994,2.658242532446404
-0.27270000000000005,3.0515322738088844
-0.27169999999999994,3.4434073038714996
-0.27070000000000005,3.7928409949381634
-0.26969999999999994,4.01070653511738
-0.26870000000000005,4.360140226184043
-0.26769999999999994,4.752015256246658
