Mar. 16, 2025   18:08:58
Cyclic Voltammetry
File: c:/users/guazh/data/banditlqround7_x0exp891_r5/2025-03-03-exp914\exp914-2025-03-16t17_47_01-h2koh\exp914_cv_sr_100mvs_efin_-1800mv.bin
Data Source:  Experiment
Instrument Model:  CHI760E
Header: CV ran at 100 mVs
Note: 

Init E (V) = -1
High E (V) = -1
Low E (V) = -1.8
Final E (V) = -1
Init P/N = N
Scan Rate (V/s) = 0.1
Segment = 3
Sample Interval (V) = 0.001
Quiet Time (sec) = 2
Sensitivity (A/V) = 0.01
Comp R (ohm) = 1.9

Results:

Channel 1:
Segment 1:
Ep = -1.373V
ip = 1.378e-5A
Ah = 1.595e-5C

Segment 2:
Ep = -1.126V
ip = -4.562e-6A
Ah = -3.244e-6C

Segment 3:

Potential/V, Current/A

-1.000, -3.495e-6
-1.001, -2.676e-6
-1.002, -2.409e-6
-1.003, -2.182e-6
-1.004, -1.768e-6
-1.005, -1.482e-6
-1.006, -1.344e-6
-1.007, -1.215e-6
-1.008, -1.107e-6
-1.009, -8.603e-7
-1.010, -6.433e-7
-1.011, -4.755e-7
-1.012, -2.486e-7
-1.013, -2.684e-7
-1.014, -5.130e-8
-1.015, 2.447e-7
-1.016, 1.362e-7
-1.017, 2.743e-7
-1.018, 4.815e-7
-1.019, 7.182e-7
-1.020, 7.084e-7
-1.021, 8.761e-7
-1.022, 9.945e-7
-1.023, 9.353e-7
-1.024, 1.241e-6
-1.025, 1.231e-6
-1.026, 1.360e-6
-1.027, 1.537e-6
-1.028, 1.448e-6
-1.029, 1.656e-6
-1.030, 1.833e-6
-1.031, 1.882e-6
-1.032, 1.942e-6
-1.033, 1.882e-6
-1.034, 2.139e-6
-1.035, 2.139e-6
-1.036, 2.247e-6
-1.037, 2.405e-6
-1.038, 2.376e-6
-1.039, 2.741e-6
-1.040, 2.652e-6
-1.041, 2.652e-6
-1.042, 2.780e-6
-1.043, 2.790e-6
-1.044, 2.987e-6
-1.045, 3.047e-6
-1.046, 3.106e-6
-1.047, 3.165e-6
-1.048, 3.076e-6
-1.049, 3.244e-6
-1.050, 3.451e-6
-1.051, 3.412e-6
-1.052, 3.599e-6
-1.053, 3.402e-6
-1.054, 3.560e-6
-1.055, 3.579e-6
-1.056, 3.708e-6
-1.057, 3.767e-6
-1.058, 3.826e-6
-1.059, 3.806e-6
-1.060, 4.033e-6
-1.061, 3.895e-6
-1.062, 4.033e-6
-1.063, 4.033e-6
-1.064, 4.063e-6
-1.065, 4.221e-6
-1.066, 4.280e-6
-1.067, 4.290e-6
-1.068, 4.231e-6
-1.069, 4.418e-6
-1.070, 4.526e-6
-1.071, 4.477e-6
-1.072, 4.576e-6
-1.073, 4.438e-6
-1.074, 4.615e-6
-1.075, 4.576e-6
-1.076, 4.783e-6
-1.077, 4.872e-6
-1.078, 4.832e-6
-1.079, 4.931e-6
-1.080, 4.852e-6
-1.081, 4.961e-6
-1.082, 5.118e-6
-1.083, 5.000e-6
-1.084, 4.990e-6
-1.085, 5.089e-6
-1.086, 5.168e-6
-1.087, 5.138e-6
-1.088, 5.286e-6
-1.089, 5.355e-6
-1.090, 5.355e-6
-1.091, 5.385e-6
-1.092, 5.276e-6
-1.093, 5.365e-6
-1.094, 5.286e-6
-1.095, 5.582e-6
-1.096, 5.493e-6
-1.097, 5.503e-6
-1.098, 5.503e-6
-1.099, 5.651e-6
-1.100, 5.582e-6
-1.101, 5.730e-6
-1.102, 5.760e-6
-1.103, 5.691e-6
-1.104, 5.671e-6
-1.105, 5.819e-6
-1.106, 5.789e-6
-1.107, 5.908e-6
-1.108, 5.957e-6
-1.109, 5.839e-6
-1.110, 5.898e-6
-1.111, 6.154e-6
-1.112, 5.947e-6
-1.113, 5.977e-6
-1.114, 6.125e-6
-1.115, 6.056e-6
-1.116, 6.174e-6
-1.117, 6.135e-6
-1.118, 6.214e-6
-1.119, 6.243e-6
-1.120, 6.302e-6
-1.121, 6.332e-6
-1.122, 6.381e-6
-1.123, 6.342e-6
-1.124, 6.440e-6
-1.125, 6.223e-6
-1.126, 6.450e-6
-1.127, 6.549e-6
-1.128, 6.470e-6
-1.129, 6.608e-6
-1.130, 6.549e-6
-1.131, 6.628e-6
-1.132, 6.608e-6
-1.133, 6.618e-6
-1.134, 6.648e-6
-1.135, 6.707e-6
-1.136, 6.815e-6
-1.137, 6.904e-6
-1.138, 6.776e-6
-1.139, 6.835e-6
-1.140, 6.944e-6
-1.141, 7.013e-6
-1.142, 6.963e-6
-1.143, 6.924e-6
-1.144, 7.042e-6
-1.145, 7.062e-6
-1.146, 7.299e-6
-1.147, 7.200e-6
-1.148, 7.259e-6
-1.149, 7.289e-6
-1.150, 7.259e-6
-1.151, 7.427e-6
-1.152, 7.388e-6
-1.153, 7.358e-6
-1.154, 7.536e-6
-1.155, 7.476e-6
-1.156, 7.723e-6
-1.157, 7.536e-6
-1.158, 7.545e-6
-1.159, 7.802e-6
-1.160, 7.585e-6
-1.161, 7.772e-6
-1.162, 7.763e-6
-1.163, 7.832e-6
-1.164, 7.999e-6
-1.165, 7.980e-6
-1.166, 7.989e-6
-1.167, 8.078e-6
-1.168, 8.088e-6
-1.169, 8.187e-6
-1.170, 8.088e-6
-1.171, 8.157e-6
-1.172, 8.315e-6
-1.173, 8.345e-6
-1.174, 8.453e-6
-1.175, 8.463e-6
-1.176, 8.611e-6
-1.177, 8.611e-6
-1.178, 8.690e-6
-1.179, 8.858e-6
-1.180, 8.946e-6
-1.181, 8.927e-6
-1.182, 8.848e-6
-1.183, 8.907e-6
-1.184, 9.154e-6
-1.185, 9.094e-6
-1.186, 9.242e-6
-1.187, 9.292e-6
-1.188, 9.351e-6
-1.189, 9.499e-6
-1.190, 9.390e-6
-1.191, 9.568e-6
-1.192, 9.568e-6
-1.193, 9.686e-6
-1.194, 9.686e-6
-1.195, 9.775e-6
-1.196, 9.982e-6
-1.197, 9.992e-6
-1.198, 1.002e-5
-1.199, 1.019e-5
-1.200, 1.029e-5
-1.201, 1.016e-5
-1.202, 1.028e-5
-1.203, 1.044e-5
-1.204, 1.056e-5
-1.205, 1.057e-5
-1.206, 1.068e-5
-1.207, 1.088e-5
-1.208, 1.083e-5
-1.209, 1.089e-5
-1.210, 1.113e-5
-1.211, 1.117e-5
-1.212, 1.120e-5
-1.213, 1.138e-5
-1.214, 1.148e-5
-1.215, 1.148e-5
-1.216, 1.164e-5
-1.217, 1.175e-5
-1.218, 1.189e-5
-1.219, 1.202e-5
-1.220, 1.200e-5
-1.221, 1.228e-5
-1.222, 1.239e-5
-1.223, 1.250e-5
-1.224, 1.251e-5
-1.225, 1.264e-5
-1.226, 1.296e-5
-1.227, 1.292e-5
-1.228, 1.299e-5
-1.229, 1.339e-5
-1.230, 1.338e-5
-1.231, 1.354e-5
-1.232, 1.361e-5
-1.233, 1.358e-5
-1.234, 1.398e-5
-1.235, 1.388e-5
-1.236, 1.421e-5
-1.237, 1.420e-5
-1.238, 1.436e-5
-1.239, 1.461e-5
-1.240, 1.464e-5
-1.241, 1.486e-5
-1.242, 1.508e-5
-1.243, 1.518e-5
-1.244, 1.525e-5
-1.245, 1.550e-5
-1.246, 1.562e-5
-1.247, 1.563e-5
-1.248, 1.578e-5
-1.249, 1.602e-5
-1.250, 1.611e-5
-1.251, 1.648e-5
-1.252, 1.664e-5
-1.253, 1.669e-5
-1.254, 1.681e-5
-1.255, 1.700e-5
-1.256, 1.732e-5
-1.257, 1.740e-5
-1.258, 1.757e-5
-1.259, 1.779e-5
-1.260, 1.783e-5
-1.261, 1.823e-5
-1.262, 1.837e-5
-1.263, 1.848e-5
-1.264, 1.869e-5
-1.265, 1.889e-5
-1.266, 1.913e-5
-1.267, 1.929e-5
-1.268, 1.947e-5
-1.269, 1.971e-5
-1.270, 1.980e-5
-1.271, 2.007e-5
-1.272, 2.012e-5
-1.273, 2.032e-5
-1.274, 2.060e-5
-1.275, 2.069e-5
-1.276, 2.091e-5
-1.277, 2.120e-5
-1.278, 2.135e-5
-1.279, 2.154e-5
-1.280, 2.177e-5
-1.281, 2.201e-5
-1.282, 2.231e-5
-1.283, 2.237e-5
-1.284, 2.267e-5
-1.285, 2.269e-5
-1.286, 2.303e-5
-1.287, 2.321e-5
-1.288, 2.333e-5
-1.289, 2.356e-5
-1.290, 2.360e-5
-1.291, 2.391e-5
-1.292, 2.406e-5
-1.293, 2.414e-5
-1.294, 2.443e-5
-1.295, 2.439e-5
-1.296, 2.468e-5
-1.297, 2.479e-5
-1.298, 2.486e-5
-1.299, 2.489e-5
-1.300, 2.495e-5
-1.301, 2.523e-5
-1.302, 2.534e-5
-1.303, 2.522e-5
-1.304, 2.534e-5
-1.305, 2.534e-5
-1.306, 2.552e-5
-1.307, 2.546e-5
-1.308, 2.547e-5
-1.309, 2.557e-5
-1.310, 2.539e-5
-1.311, 2.560e-5
-1.312, 2.552e-5
-1.313, 2.544e-5
-1.314, 2.545e-5
-1.315, 2.532e-5
-1.316, 2.546e-5
-1.317, 2.534e-5
-1.318, 2.532e-5
-1.319, 2.524e-5
-1.320, 2.516e-5
-1.321, 2.511e-5
-1.322, 2.510e-5
-1.323, 2.486e-5
-1.324, 2.483e-5
-1.325, 2.471e-5
-1.326, 2.476e-5
-1.327, 2.475e-5
-1.328, 2.455e-5
-1.329, 2.460e-5
-1.330, 2.446e-5
-1.331, 2.456e-5
-1.332, 2.453e-5
-1.333, 2.442e-5
-1.334, 2.448e-5
-1.335, 2.439e-5
-1.336, 2.451e-5
-1.337, 2.454e-5
-1.338, 2.460e-5
-1.339, 2.439e-5
-1.340, 2.438e-5
-1.341, 2.452e-5
-1.342, 2.451e-5
-1.343, 2.454e-5
-1.344, 2.462e-5
-1.345, 2.472e-5
-1.346, 2.495e-5
-1.347, 2.499e-5
-1.348, 2.503e-5
-1.349, 2.510e-5
-1.350, 2.507e-5
-1.351, 2.534e-5
-1.352, 2.529e-5
-1.353, 2.528e-5
-1.354, 2.556e-5
-1.355, 2.570e-5
-1.356, 2.586e-5
-1.357, 2.602e-5
-1.358, 2.605e-5
-1.359, 2.630e-5
-1.360, 2.625e-5
-1.361, 2.632e-5
-1.362, 2.643e-5
-1.363, 2.653e-5
-1.364, 2.681e-5
-1.365, 2.687e-5
-1.366, 2.720e-5
-1.367, 2.721e-5
-1.368, 2.720e-5
-1.369, 2.730e-5
-1.370, 2.753e-5
-1.371, 2.771e-5
-1.372, 2.784e-5
-1.373, 2.792e-5
-1.374, 2.801e-5
-1.375, 2.823e-5
-1.376, 2.821e-5
-1.377, 2.831e-5
-1.378, 2.834e-5
-1.379, 2.854e-5
-1.380, 2.858e-5
-1.381, 2.864e-5
-1.382, 2.871e-5
-1.383, 2.881e-5
-1.384, 2.909e-5
-1.385, 2.894e-5
-1.386, 2.917e-5
-1.387, 2.931e-5
-1.388, 2.935e-5
-1.389, 2.945e-5
-1.390, 2.946e-5
-1.391, 2.962e-5
-1.392, 2.980e-5
-1.393, 2.987e-5
-1.394, 3.011e-5
-1.395, 3.027e-5
-1.396, 3.057e-5
-1.397, 3.073e-5
-1.398, 3.098e-5
-1.399, 3.120e-5
-1.400, 3.123e-5
-1.401, 3.165e-5
-1.402, 3.209e-5
-1.403, 3.230e-5
-1.404, 3.264e-5
-1.405, 3.285e-5
-1.406, 3.331e-5
-1.407, 3.392e-5
-1.408, 3.414e-5
-1.409, 3.449e-5
-1.410, 3.498e-5
-1.411, 3.540e-5
-1.412, 3.581e-5
-1.413, 3.619e-5
-1.414, 3.697e-5
-1.415, 3.721e-5
-1.416, 3.777e-5
-1.417, 3.834e-5
-1.418, 3.894e-5
-1.419, 3.961e-5
-1.420, 4.011e-5
-1.421, 4.082e-5
-1.422, 4.142e-5
-1.423, 4.218e-5
-1.424, 4.270e-5
-1.425, 4.351e-5
-1.426, 4.427e-5
-1.427, 4.495e-5
-1.428, 4.570e-5
-1.429, 4.638e-5
-1.430, 4.712e-5
-1.431, 4.809e-5
-1.432, 4.899e-5
-1.433, 4.981e-5
-1.434, 5.101e-5
-1.435, 5.176e-5
-1.436, 5.267e-5
-1.437, 5.374e-5
-1.438, 5.473e-5
-1.439, 5.574e-5
-1.440, 5.681e-5
-1.441, 5.794e-5
-1.442, 5.914e-5
-1.443, 6.023e-5
-1.444, 6.141e-5
-1.445, 6.278e-5
-1.446, 6.411e-5
-1.447, 6.533e-5
-1.448, 6.688e-5
-1.449, 6.803e-5
-1.450, 6.958e-5
-1.451, 7.119e-5
-1.452, 7.270e-5
-1.453, 7.436e-5
-1.454, 7.596e-5
-1.455, 7.787e-5
-1.456, 7.940e-5
-1.457, 8.125e-5
-1.458, 8.286e-5
-1.459, 8.488e-5
-1.460, 8.683e-5
-1.461, 8.894e-5
-1.462, 9.120e-5
-1.463, 9.351e-5
-1.464, 9.551e-5
-1.465, 9.798e-5
-1.466, 1.003e-4
-1.467, 1.027e-4
-1.468, 1.052e-4
-1.469, 1.079e-4
-1.470, 1.103e-4
-1.471, 1.130e-4
-1.472, 1.160e-4
-1.473, 1.188e-4
-1.474, 1.217e-4
-1.475, 1.246e-4
-1.476, 1.279e-4
-1.477, 1.312e-4
-1.478, 1.343e-4
-1.479, 1.377e-4
-1.480, 1.414e-4
-1.481, 1.452e-4
-1.482, 1.487e-4
-1.483, 1.525e-4
-1.484, 1.564e-4
-1.485, 1.604e-4
-1.486, 1.645e-4
-1.487, 1.690e-4
-1.488, 1.730e-4
-1.489, 1.773e-4
-1.490, 1.818e-4
-1.491, 1.864e-4
-1.492, 1.911e-4
-1.493, 1.957e-4
-1.494, 2.005e-4
-1.495, 2.056e-4
-1.496, 2.108e-4
-1.497, 2.151e-4
-1.498, 2.204e-4
-1.499, 2.252e-4
-1.500, 2.306e-4
-1.501, 2.365e-4
-1.502, 2.419e-4
-1.503, 2.479e-4
-1.504, 2.537e-4
-1.505, 2.601e-4
-1.506, 2.660e-4
-1.507, 2.722e-4
-1.508, 2.786e-4
-1.509, 2.849e-4
-1.510, 2.909e-4
-1.511, 2.974e-4
-1.512, 3.043e-4
-1.513, 3.115e-4
-1.514, 3.176e-4
-1.515, 3.242e-4
-1.516, 3.310e-4
-1.517, 3.375e-4
-1.518, 3.450e-4
-1.519, 3.528e-4
-1.520, 3.600e-4
-1.521, 3.677e-4
-1.522, 3.758e-4
-1.523, 3.840e-4
-1.524, 3.914e-4
-1.525, 3.991e-4
-1.526, 4.082e-4
-1.527, 4.154e-4
-1.528, 4.233e-4
-1.529, 4.327e-4
-1.530, 4.392e-4
-1.531, 4.486e-4
-1.532, 4.581e-4
-1.533, 4.661e-4
-1.534, 4.749e-4
-1.535, 4.846e-4
-1.536, 4.932e-4
-1.537, 5.024e-4
-1.538, 5.132e-4
-1.539, 5.231e-4
-1.540, 5.340e-4
-1.541, 5.450e-4
-1.542, 5.559e-4
-1.543, 5.673e-4
-1.544, 5.800e-4
-1.545, 5.938e-4
-1.546, 6.051e-4
-1.547, 6.153e-4
-1.548, 6.275e-4
-1.549, 6.402e-4
-1.550, 6.520e-4
-1.551, 6.623e-4
-1.552, 6.745e-4
-1.553, 6.892e-4
-1.554, 7.008e-4
-1.555, 7.133e-4
-1.556, 7.217e-4
-1.557, 7.313e-4
-1.558, 7.459e-4
-1.559, 7.559e-4
-1.560, 7.681e-4
-1.561, 7.824e-4
-1.562, 7.929e-4
-1.563, 8.076e-4
-1.564, 8.221e-4
-1.565, 8.405e-4
-1.566, 8.560e-4
-1.567, 8.722e-4
-1.568, 8.885e-4
-1.569, 9.031e-4
-1.570, 9.168e-4
-1.571, 9.303e-4
-1.572, 9.448e-4
-1.573, 9.595e-4
-1.574, 9.688e-4
-1.575, 9.793e-4
-1.576, 9.944e-4
-1.577, 1.009e-3
-1.578, 1.025e-3
-1.579, 1.042e-3
-1.580, 1.058e-3
-1.581, 1.073e-3
-1.582, 1.089e-3
-1.583, 1.106e-3
-1.584, 1.128e-3
-1.585, 1.146e-3
-1.586, 1.162e-3
-1.587, 1.178e-3
-1.588, 1.196e-3
-1.589, 1.210e-3
-1.590, 1.227e-3
-1.591, 1.246e-3
-1.592, 1.264e-3
-1.593, 1.283e-3
-1.594, 1.302e-3
-1.595, 1.321e-3
-1.596, 1.349e-3
-1.597, 1.365e-3
-1.598, 1.378e-3
-1.599, 1.398e-3
-1.600, 1.419e-3
-1.601, 1.441e-3
-1.602, 1.462e-3
-1.603, 1.479e-3
-1.604, 1.501e-3
-1.605, 1.530e-3
-1.606, 1.552e-3
-1.607, 1.575e-3
-1.608, 1.609e-3
-1.609, 1.634e-3
-1.610, 1.657e-3
-1.611, 1.672e-3
-1.612, 1.693e-3
-1.613, 1.713e-3
-1.614, 1.736e-3
-1.615, 1.757e-3
-1.616, 1.789e-3
-1.617, 1.820e-3
-1.618, 1.838e-3
-1.619, 1.862e-3
-1.620, 1.893e-3
-1.621, 1.914e-3
-1.622, 1.933e-3
-1.623, 1.963e-3
-1.624, 1.989e-3
-1.625, 2.014e-3
-1.626, 2.034e-3
-1.627, 2.058e-3
-1.628, 2.083e-3
-1.629, 2.101e-3
-1.630, 2.126e-3
-1.631, 2.152e-3
-1.632, 2.175e-3
-1.633, 2.203e-3
-1.634, 2.235e-3
-1.635, 2.268e-3
-1.636, 2.297e-3
-1.637, 2.313e-3
-1.638, 2.348e-3
-1.639, 2.372e-3
-1.640, 2.385e-3
-1.641, 2.410e-3
-1.642, 2.436e-3
-1.643, 2.470e-3
-1.644, 2.492e-3
-1.645, 2.515e-3
-1.646, 2.541e-3
-1.647, 2.577e-3
-1.648, 2.609e-3
-1.649, 2.642e-3
-1.650, 2.667e-3
-1.651, 2.684e-3
-1.652, 2.724e-3
-1.653, 2.744e-3
-1.654, 2.777e-3
-1.655, 2.824e-3
-1.656, 2.851e-3
-1.657, 2.885e-3
-1.658, 2.945e-3
-1.659, 2.959e-3
-1.660, 2.985e-3
-1.661, 3.031e-3
-1.662, 3.086e-3
-1.663, 3.117e-3
-1.664, 3.143e-3
-1.665, 3.184e-3
-1.666, 3.211e-3
-1.667, 3.229e-3
-1.668, 3.263e-3
-1.669, 3.290e-3
-1.670, 3.320e-3
-1.671, 3.353e-3
-1.672, 3.387e-3
-1.673, 3.405e-3
-1.674, 3.444e-3
-1.675, 3.472e-3
-1.676, 3.501e-3
-1.677, 3.538e-3
-1.678, 3.585e-3
-1.679, 3.636e-3
-1.680, 3.687e-3
-1.681, 3.709e-3
-1.682, 3.738e-3
-1.683, 3.785e-3
-1.684, 3.840e-3
-1.685, 3.884e-3
-1.686, 3.922e-3
-1.687, 3.955e-3
-1.688, 3.985e-3
-1.689, 4.015e-3
-1.690, 4.052e-3
-1.691, 4.095e-3
-1.692, 4.137e-3
-1.693, 4.185e-3
-1.694, 4.216e-3
-1.695, 4.261e-3
-1.696, 4.315e-3
-1.697, 4.392e-3
-1.698, 4.417e-3
-1.699, 4.452e-3
-1.700, 4.481e-3
-1.701, 4.527e-3
-1.702, 4.596e-3
-1.703, 4.616e-3
-1.704, 4.651e-3
-1.705, 4.708e-3
-1.706, 4.740e-3
-1.707, 4.735e-3
-1.708, 4.780e-3
-1.709, 4.824e-3
-1.710, 4.852e-3
-1.711, 4.902e-3
-1.712, 4.939e-3
-1.713, 5.006e-3
-1.714, 5.088e-3
-1.715, 5.209e-3
-1.716, 5.215e-3
-1.717, 5.213e-3
-1.718, 5.299e-3
-1.719, 5.358e-3
-1.720, 5.389e-3
-1.721, 5.418e-3
-1.722, 5.440e-3
-1.723, 5.494e-3
-1.724, 5.543e-3
-1.725, 5.572e-3
-1.726, 5.623e-3
-1.727, 5.679e-3
-1.728, 5.703e-3
-1.729, 5.736e-3
-1.730, 5.796e-3
-1.731, 5.846e-3
-1.732, 5.925e-3
-1.733, 5.947e-3
-1.734, 5.984e-3
-1.735, 6.011e-3
-1.736, 6.081e-3
-1.737, 6.133e-3
-1.738, 6.209e-3
-1.739, 6.251e-3
-1.740, 6.334e-3
-1.741, 6.382e-3
-1.742, 6.392e-3
-1.743, 6.421e-3
-1.744, 6.453e-3
-1.745, 6.537e-3
-1.746, 6.571e-3
-1.747, 6.588e-3
-1.748, 6.635e-3
-1.749, 6.693e-3
-1.750, 6.771e-3
-1.751, 6.815e-3
-1.752, 6.855e-3
-1.753, 6.879e-3
-1.754, 6.906e-3
-1.755, 6.941e-3
-1.756, 6.996e-3
-1.757, 7.050e-3
-1.758, 7.175e-3
-1.759, 7.187e-3
-1.760, 7.227e-3
-1.761, 7.282e-3
-1.762, 7.341e-3
-1.763, 7.408e-3
-1.764, 7.492e-3
-1.765, 7.530e-3
-1.766, 7.539e-3
-1.767, 7.551e-3
-1.768, 7.644e-3
-1.769, 7.655e-3
-1.770, 7.687e-3
-1.771, 7.761e-3
-1.772, 7.886e-3
-1.773, 7.934e-3
-1.774, 7.969e-3
-1.775, 8.095e-3
-1.776, 8.082e-3
-1.777, 8.156e-3
-1.778, 8.264e-3
-1.779, 8.345e-3
-1.780, 8.361e-3
-1.781, 8.353e-3
-1.782, 8.387e-3
-1.783, 8.416e-3
-1.784, 8.445e-3
-1.785, 8.522e-3
-1.786, 8.568e-3
-1.787, 8.618e-3
-1.788, 8.685e-3
-1.789, 8.734e-3
-1.790, 8.775e-3
-1.791, 8.834e-3
-1.792, 8.825e-3
-1.793, 8.942e-3
-1.794, 9.014e-3
-1.795, 9.068e-3
-1.796, 9.095e-3
-1.797, 9.139e-3
-1.798, 9.205e-3
-1.799, 9.262e-3
-1.800, 9.260e-3
-1.799, 9.372e-3
-1.798, 9.400e-3
-1.797, 9.362e-3
-1.796, 9.393e-3
-1.795, 9.342e-3
-1.794, 9.261e-3
-1.793, 9.231e-3
-1.792, 9.206e-3
-1.791, 9.149e-3
-1.790, 9.122e-3
-1.789, 8.977e-3
-1.788, 8.930e-3
-1.787, 8.915e-3
-1.786, 8.872e-3
-1.785, 8.846e-3
-1.784, 8.773e-3
-1.783, 8.691e-3
-1.782, 8.577e-3
-1.781, 8.550e-3
-1.780, 8.516e-3
-1.779, 8.432e-3
-1.778, 8.352e-3
-1.777, 8.292e-3
-1.776, 8.243e-3
-1.775, 8.223e-3
-1.774, 8.116e-3
-1.773, 8.103e-3
-1.772, 8.060e-3
-1.771, 7.967e-3
-1.770, 7.929e-3
-1.769, 7.881e-3
-1.768, 7.790e-3
-1.767, 7.756e-3
-1.766, 7.711e-3
-1.765, 7.646e-3
-1.764, 7.600e-3
-1.763, 7.574e-3
-1.762, 7.522e-3
-1.761, 7.441e-3
-1.760, 7.405e-3
-1.759, 7.384e-3
-1.758, 7.300e-3
-1.757, 7.237e-3
-1.756, 7.222e-3
-1.755, 7.203e-3
-1.754, 7.127e-3
-1.753, 7.074e-3
-1.752, 7.021e-3
-1.751, 6.950e-3
-1.750, 6.925e-3
-1.749, 6.887e-3
-1.748, 6.776e-3
-1.747, 6.761e-3
-1.746, 6.762e-3
-1.745, 6.682e-3
-1.744, 6.651e-3
-1.743, 6.626e-3
-1.742, 6.524e-3
-1.741, 6.472e-3
-1.740, 6.434e-3
-1.739, 6.410e-3
-1.738, 6.367e-3
-1.737, 6.302e-3
-1.736, 6.238e-3
-1.735, 6.192e-3
-1.734, 6.120e-3
-1.733, 6.054e-3
-1.732, 5.992e-3
-1.731, 5.942e-3
-1.730, 5.885e-3
-1.729, 5.826e-3
-1.728, 5.820e-3
-1.727, 5.758e-3
-1.726, 5.730e-3
-1.725, 5.679e-3
-1.724, 5.614e-3
-1.723, 5.562e-3
-1.722, 5.524e-3
-1.721, 5.487e-3
-1.720, 5.450e-3
-1.719, 5.403e-3
-1.718, 5.364e-3
-1.717, 5.314e-3
-1.716, 5.277e-3
-1.715, 5.273e-3
-1.714, 5.190e-3
-1.713, 5.144e-3
-1.712, 5.123e-3
-1.711, 5.079e-3
-1.710, 5.022e-3
-1.709, 4.958e-3
-1.708, 4.907e-3
-1.707, 4.876e-3
-1.706, 4.846e-3
-1.705, 4.806e-3
-1.704, 4.745e-3
-1.703, 4.698e-3
-1.702, 4.666e-3
-1.701, 4.615e-3
-1.700, 4.554e-3
-1.699, 4.524e-3
-1.698, 4.470e-3
-1.697, 4.420e-3
-1.696, 4.401e-3
-1.695, 4.368e-3
-1.694, 4.327e-3
-1.693, 4.287e-3
-1.692, 4.271e-3
-1.691, 4.263e-3
-1.690, 4.231e-3
-1.689, 4.186e-3
-1.688, 4.130e-3
-1.687, 4.086e-3
-1.686, 4.047e-3
-1.685, 4.002e-3
-1.684, 3.957e-3
-1.683, 3.910e-3
-1.682, 3.868e-3
-1.681, 3.831e-3
-1.680, 3.801e-3
-1.679, 3.768e-3
-1.678, 3.713e-3
-1.677, 3.670e-3
-1.676, 3.639e-3
-1.675, 3.601e-3
-1.674, 3.563e-3
-1.673, 3.528e-3
-1.672, 3.500e-3
-1.671, 3.470e-3
-1.670, 3.434e-3
-1.669, 3.416e-3
-1.668, 3.387e-3
-1.667, 3.342e-3
-1.666, 3.302e-3
-1.665, 3.268e-3
-1.664, 3.229e-3
-1.663, 3.183e-3
-1.662, 3.147e-3
-1.661, 3.117e-3
-1.660, 3.079e-3
-1.659, 3.044e-3
-1.658, 3.015e-3
-1.657, 2.981e-3
-1.656, 2.946e-3
-1.655, 2.905e-3
-1.654, 2.891e-3
-1.653, 2.862e-3
-1.652, 2.829e-3
-1.651, 2.804e-3
-1.650, 2.772e-3
-1.649, 2.750e-3
-1.648, 2.732e-3
-1.647, 2.701e-3
-1.646, 2.665e-3
-1.645, 2.642e-3
-1.644, 2.602e-3
-1.643, 2.565e-3
-1.642, 2.520e-3
-1.641, 2.483e-3
-1.640, 2.450e-3
-1.639, 2.417e-3
-1.638, 2.389e-3
-1.637, 2.358e-3
-1.636, 2.330e-3
-1.635, 2.314e-3
-1.634, 2.292e-3
-1.633, 2.255e-3
-1.632, 2.224e-3
-1.631, 2.210e-3
-1.630, 2.193e-3
-1.629, 2.167e-3
-1.628, 2.135e-3
-1.627, 2.103e-3
-1.626, 2.071e-3
-1.625, 2.054e-3
-1.624, 2.024e-3
-1.623, 1.995e-3
-1.622, 1.964e-3
-1.621, 1.935e-3
-1.620, 1.909e-3
-1.619, 1.883e-3
-1.618, 1.864e-3
-1.617, 1.839e-3
-1.616, 1.816e-3
-1.615, 1.797e-3
-1.614, 1.772e-3
-1.613, 1.743e-3
-1.612, 1.719e-3
-1.611, 1.693e-3
-1.610, 1.669e-3
-1.609, 1.644e-3
-1.608, 1.623e-3
-1.607, 1.606e-3
-1.606, 1.593e-3
-1.605, 1.577e-3
-1.604, 1.556e-3
-1.603, 1.529e-3
-1.602, 1.502e-3
-1.601, 1.482e-3
-1.600, 1.467e-3
-1.599, 1.446e-3
-1.598, 1.431e-3
-1.597, 1.416e-3
-1.596, 1.395e-3
-1.595, 1.369e-3
-1.594, 1.342e-3
-1.593, 1.322e-3
-1.592, 1.298e-3
-1.591, 1.282e-3
-1.590, 1.260e-3
-1.589, 1.249e-3
-1.588, 1.235e-3
-1.587, 1.216e-3
-1.586, 1.199e-3
-1.585, 1.184e-3
-1.584, 1.165e-3
-1.583, 1.146e-3
-1.582, 1.124e-3
-1.581, 1.103e-3
-1.580, 1.085e-3
-1.579, 1.071e-3
-1.578, 1.052e-3
-1.577, 1.032e-3
-1.576, 1.016e-3
-1.575, 1.001e-3
-1.574, 9.812e-4
-1.573, 9.637e-4
-1.572, 9.512e-4
-1.571, 9.311e-4
-1.570, 9.092e-4
-1.569, 8.941e-4
-1.568, 8.825e-4
-1.567, 8.671e-4
-1.566, 8.487e-4
-1.565, 8.296e-4
-1.564, 8.200e-4
-1.563, 8.045e-4
-1.562, 7.851e-4
-1.561, 7.752e-4
-1.560, 7.602e-4
-1.559, 7.419e-4
-1.558, 7.305e-4
-1.557, 7.125e-4
-1.556, 7.011e-4
-1.555, 6.921e-4
-1.554, 6.790e-4
-1.553, 6.654e-4
-1.552, 6.535e-4
-1.551, 6.412e-4
-1.550, 6.282e-4
-1.549, 6.158e-4
-1.548, 6.051e-4
-1.547, 5.926e-4
-1.546, 5.797e-4
-1.545, 5.680e-4
-1.544, 5.557e-4
-1.543, 5.443e-4
-1.542, 5.330e-4
-1.541, 5.220e-4
-1.540, 5.108e-4
-1.539, 4.999e-4
-1.538, 4.902e-4
-1.537, 4.801e-4
-1.536, 4.699e-4
-1.535, 4.598e-4
-1.534, 4.503e-4
-1.533, 4.407e-4
-1.532, 4.311e-4
-1.531, 4.225e-4
-1.530, 4.139e-4
-1.529, 4.043e-4
-1.528, 3.956e-4
-1.527, 3.874e-4
-1.526, 3.793e-4
-1.525, 3.713e-4
-1.524, 3.621e-4
-1.523, 3.541e-4
-1.522, 3.465e-4
-1.521, 3.379e-4
-1.520, 3.305e-4
-1.519, 3.236e-4
-1.518, 3.163e-4
-1.517, 3.090e-4
-1.516, 3.018e-4
-1.515, 2.954e-4
-1.514, 2.885e-4
-1.513, 2.816e-4
-1.512, 2.754e-4
-1.511, 2.683e-4
-1.510, 2.620e-4
-1.509, 2.558e-4
-1.508, 2.499e-4
-1.507, 2.440e-4
-1.506, 2.382e-4
-1.505, 2.330e-4
-1.504, 2.277e-4
-1.503, 2.225e-4
-1.502, 2.170e-4
-1.501, 2.118e-4
-1.500, 2.069e-4
-1.499, 2.016e-4
-1.498, 1.967e-4
-1.497, 1.918e-4
-1.496, 1.870e-4
-1.495, 1.825e-4
-1.494, 1.780e-4
-1.493, 1.736e-4
-1.492, 1.695e-4
-1.491, 1.650e-4
-1.490, 1.612e-4
-1.489, 1.573e-4
-1.488, 1.531e-4
-1.487, 1.492e-4
-1.486, 1.454e-4
-1.485, 1.417e-4
-1.484, 1.383e-4
-1.483, 1.347e-4
-1.482, 1.314e-4
-1.481, 1.279e-4
-1.480, 1.248e-4
-1.479, 1.217e-4
-1.478, 1.183e-4
-1.477, 1.154e-4
-1.476, 1.127e-4
-1.475, 1.101e-4
-1.474, 1.074e-4
-1.473, 1.048e-4
-1.472, 1.021e-4
-1.471, 9.950e-5
-1.470, 9.703e-5
-1.469, 9.443e-5
-1.468, 9.207e-5
-1.467, 8.992e-5
-1.466, 8.780e-5
-1.465, 8.552e-5
-1.464, 8.342e-5
-1.463, 8.127e-5
-1.462, 7.921e-5
-1.461, 7.735e-5
-1.460, 7.560e-5
-1.459, 7.370e-5
-1.458, 7.180e-5
-1.457, 6.999e-5
-1.456, 6.824e-5
-1.455, 6.691e-5
-1.454, 6.516e-5
-1.453, 6.350e-5
-1.452, 6.191e-5
-1.451, 6.056e-5
-1.450, 5.915e-5
-1.449, 5.768e-5
-1.448, 5.629e-5
-1.447, 5.506e-5
-1.446, 5.368e-5
-1.445, 5.248e-5
-1.444, 5.129e-5
-1.443, 5.015e-5
-1.442, 4.898e-5
-1.441, 4.763e-5
-1.440, 4.649e-5
-1.439, 4.563e-5
-1.438, 4.452e-5
-1.437, 4.345e-5
-1.436, 4.238e-5
-1.435, 4.160e-5
-1.434, 4.060e-5
-1.433, 3.963e-5
-1.432, 3.875e-5
-1.431, 3.790e-5
-1.430, 3.709e-5
-1.429, 3.624e-5
-1.428, 3.539e-5
-1.427, 3.462e-5
-1.426, 3.383e-5
-1.425, 3.317e-5
-1.424, 3.253e-5
-1.423, 3.180e-5
-1.422, 3.109e-5
-1.421, 3.031e-5
-1.420, 2.961e-5
-1.419, 2.903e-5
-1.418, 2.818e-5
-1.417, 2.771e-5
-1.416, 2.693e-5
-1.415, 2.651e-5
-1.414, 2.596e-5
-1.413, 2.524e-5
-1.412, 2.478e-5
-1.411, 2.420e-5
-1.410, 2.385e-5
-1.409, 2.330e-5
-1.408, 2.266e-5
-1.407, 2.230e-5
-1.406, 2.171e-5
-1.405, 2.146e-5
-1.404, 2.093e-5
-1.403, 2.039e-5
-1.402, 1.998e-5
-1.401, 1.954e-5
-1.400, 1.925e-5
-1.399, 1.876e-5
-1.398, 1.825e-5
-1.397, 1.798e-5
-1.396, 1.756e-5
-1.395, 1.723e-5
-1.394, 1.699e-5
-1.393, 1.647e-5
-1.392, 1.616e-5
-1.391, 1.571e-5
-1.390, 1.557e-5
-1.389, 1.528e-5
-1.388, 1.493e-5
-1.387, 1.466e-5
-1.386, 1.423e-5
-1.385, 1.402e-5
-1.384, 1.378e-5
-1.383, 1.345e-5
-1.382, 1.315e-5
-1.381, 1.275e-5
-1.380, 1.272e-5
-1.379, 1.229e-5
-1.378, 1.193e-5
-1.377, 1.182e-5
-1.376, 1.149e-5
-1.375, 1.130e-5
-1.374, 1.119e-5
-1.373, 1.079e-5
-1.372, 1.064e-5
-1.371, 1.023e-5
-1.370, 1.015e-5
-1.369, 9.943e-6
-1.368, 9.558e-6
-1.367, 9.420e-6
-1.366, 9.213e-6
-1.365, 8.907e-6
-1.364, 8.877e-6
-1.363, 8.611e-6
-1.362, 8.374e-6
-1.361, 8.147e-6
-1.360, 7.980e-6
-1.359, 7.861e-6
-1.358, 7.526e-6
-1.357, 7.368e-6
-1.356, 7.210e-6
-1.355, 7.092e-6
-1.354, 6.884e-6
-1.353, 6.608e-6
-1.352, 6.421e-6
-1.351, 6.233e-6
-1.350, 6.125e-6
-1.349, 6.046e-6
-1.348, 5.691e-6
-1.347, 5.701e-6
-1.346, 5.523e-6
-1.345, 5.336e-6
-1.344, 5.197e-6
-1.343, 4.892e-6
-1.342, 4.921e-6
-1.341, 4.615e-6
-1.340, 4.497e-6
-1.339, 4.359e-6
-1.338, 4.181e-6
-1.337, 4.132e-6
-1.336, 3.865e-6
-1.335, 3.846e-6
-1.334, 3.787e-6
-1.333, 3.471e-6
-1.332, 3.471e-6
-1.331, 3.165e-6
-1.330, 3.066e-6
-1.329, 2.978e-6
-1.328, 2.810e-6
-1.327, 2.632e-6
-1.326, 2.553e-6
-1.325, 2.405e-6
-1.324, 2.228e-6
-1.323, 2.109e-6
-1.322, 2.119e-6
-1.321, 1.843e-6
-1.320, 1.863e-6
-1.319, 1.754e-6
-1.318, 1.369e-6
-1.317, 1.379e-6
-1.316, 1.231e-6
-1.315, 1.172e-6
-1.314, 1.192e-6
-1.313, 8.958e-7
-1.312, 8.268e-7
-1.311, 5.209e-7
-1.310, 6.689e-7
-1.309, 5.012e-7
-1.308, 3.335e-7
-1.307, 2.052e-7
-1.306, 4.736e-8
-1.305, -2.171e-8
-1.304, -7.103e-8
-1.303, -1.500e-7
-1.302, -3.078e-7
-1.301, -4.854e-7
-1.300, -4.755e-7
-1.299, -6.433e-7
-1.298, -8.011e-7
-1.297, -8.011e-7
-1.296, -9.392e-7
-1.295, -9.886e-7
-1.294, -1.067e-6
-1.293, -1.245e-6
-1.292, -1.354e-6
-1.291, -1.561e-6
-1.290, -1.531e-6
-1.289, -1.699e-6
-1.288, -1.738e-6
-1.287, -1.857e-6
-1.286, -1.946e-6
-1.285, -1.896e-6
-1.284, -1.995e-6
-1.283, -2.212e-6
-1.282, -2.301e-6
-1.281, -2.468e-6
-1.280, -2.528e-6
-1.279, -2.538e-6
-1.278, -2.735e-6
-1.277, -2.715e-6
-1.276, -2.912e-6
-1.275, -2.843e-6
-1.274, -2.942e-6
-1.273, -3.041e-6
-1.272, -3.090e-6
-1.271, -3.317e-6
-1.270, -3.297e-6
-1.269, -3.445e-6
-1.268, -3.544e-6
-1.267, -3.662e-6
-1.266, -3.790e-6
-1.265, -3.781e-6
-1.264, -3.840e-6
-1.263, -3.919e-6
-1.262, -4.077e-6
-1.261, -4.244e-6
-1.260, -4.165e-6
-1.259, -4.244e-6
-1.258, -4.274e-6
-1.257, -4.550e-6
-1.256, -4.570e-6
-1.255, -4.570e-6
-1.254, -4.817e-6
-1.253, -4.866e-6
-1.252, -4.866e-6
-1.251, -5.083e-6
-1.250, -5.073e-6
-1.249, -5.261e-6
-1.248, -5.201e-6
-1.247, -5.251e-6
-1.246, -5.576e-6
-1.245, -5.537e-6
-1.244, -5.645e-6
-1.243, -5.704e-6
-1.242, -5.783e-6
-1.241, -5.961e-6
-1.240, -5.991e-6
-1.239, -6.020e-6
-1.238, -6.109e-6
-1.237, -6.227e-6
-1.236, -6.306e-6
-1.235, -6.405e-6
-1.234, -6.514e-6
-1.233, -6.632e-6
-1.232, -6.661e-6
-1.231, -6.938e-6
-1.230, -6.898e-6
-1.229, -7.096e-6
-1.228, -7.273e-6
-1.227, -7.224e-6
-1.226, -7.392e-6
-1.225, -7.540e-6
-1.224, -7.549e-6
-1.223, -7.747e-6
-1.222, -7.826e-6
-1.221, -8.023e-6
-1.220, -7.984e-6
-1.219, -8.112e-6
-1.218, -8.289e-6
-1.217, -8.467e-6
-1.216, -8.704e-6
-1.215, -8.654e-6
-1.214, -9.049e-6
-1.213, -8.842e-6
-1.212, -9.049e-6
-1.211, -9.325e-6
-1.210, -9.375e-6
-1.209, -9.602e-6
-1.208, -9.671e-6
-1.207, -9.809e-6
-1.206, -1.005e-5
-1.205, -1.007e-5
-1.204, -1.031e-5
-1.203, -1.055e-5
-1.202, -1.065e-5
-1.201, -1.091e-5
-1.200, -1.086e-5
-1.199, -1.111e-5
-1.198, -1.124e-5
-1.197, -1.145e-5
-1.196, -1.167e-5
-1.195, -1.177e-5
-1.194, -1.204e-5
-1.193, -1.215e-5
-1.192, -1.225e-5
-1.191, -1.250e-5
-1.190, -1.263e-5
-1.189, -1.287e-5
-1.188, -1.292e-5
-1.187, -1.321e-5
-1.186, -1.334e-5
-1.185, -1.359e-5
-1.184, -1.374e-5
-1.183, -1.382e-5
-1.182, -1.400e-5
-1.181, -1.412e-5
-1.180, -1.422e-5
-1.179, -1.450e-5
-1.178, -1.456e-5
-1.177, -1.475e-5
-1.176, -1.509e-5
-1.175, -1.523e-5
-1.174, -1.546e-5
-1.173, -1.542e-5
-1.172, -1.565e-5
-1.171, -1.604e-5
-1.170, -1.601e-5
-1.169, -1.633e-5
-1.168, -1.623e-5
-1.167, -1.650e-5
-1.166, -1.671e-5
-1.165, -1.675e-5
-1.164, -1.718e-5
-1.163, -1.708e-5
-1.162, -1.739e-5
-1.161, -1.749e-5
-1.160, -1.764e-5
-1.159, -1.772e-5
-1.158, -1.792e-5
-1.157, -1.807e-5
-1.156, -1.820e-5
-1.155, -1.829e-5
-1.154, -1.854e-5
-1.153, -1.856e-5
-1.152, -1.876e-5
-1.151, -1.890e-5
-1.150, -1.897e-5
-1.149, -1.929e-5
-1.148, -1.917e-5
-1.147, -1.921e-5
-1.146, -1.946e-5
-1.145, -1.950e-5
-1.144, -1.971e-5
-1.143, -1.963e-5
-1.142, -1.984e-5
-1.141, -1.991e-5
-1.140, -1.977e-5
-1.139, -2.012e-5
-1.138, -2.005e-5
-1.137, -2.014e-5
-1.136, -2.022e-5
-1.135, -2.011e-5
-1.134, -2.019e-5
-1.133, -2.019e-5
-1.132, -2.019e-5
-1.131, -2.031e-5
-1.130, -2.019e-5
-1.129, -2.039e-5
-1.128, -2.018e-5
-1.127, -2.017e-5
-1.126, -2.041e-5
-1.125, -2.012e-5
-1.124, -2.024e-5
-1.123, -2.015e-5
-1.122, -2.000e-5
-1.121, -2.010e-5
-1.120, -2.008e-5
-1.119, -2.005e-5
-1.118, -1.991e-5
-1.117, -1.980e-5
-1.116, -1.986e-5
-1.115, -1.972e-5
-1.114, -1.983e-5
-1.113, -1.965e-5
-1.112, -1.960e-5
-1.111, -1.959e-5
-1.110, -1.959e-5
-1.109, -1.951e-5
-1.108, -1.935e-5
-1.107, -1.944e-5
-1.106, -1.935e-5
-1.105, -1.931e-5
-1.104, -1.924e-5
-1.103, -1.914e-5
-1.102, -1.919e-5
-1.101, -1.918e-5
-1.100, -1.912e-5
-1.099, -1.912e-5
-1.098, -1.896e-5
-1.097, -1.895e-5
-1.096, -1.894e-5
-1.095, -1.893e-5
-1.094, -1.892e-5
-1.093, -1.871e-5
-1.092, -1.881e-5
-1.091, -1.897e-5
-1.090, -1.866e-5
-1.089, -1.888e-5
-1.088, -1.874e-5
-1.087, -1.878e-5
-1.086, -1.886e-5
-1.085, -1.859e-5
-1.084, -1.861e-5
-1.083, -1.852e-5
-1.082, -1.860e-5
-1.081, -1.865e-5
-1.080, -1.858e-5
-1.079, -1.854e-5
-1.078, -1.849e-5
-1.077, -1.859e-5
-1.076, -1.862e-5
-1.075, -1.866e-5
-1.074, -1.867e-5
-1.073, -1.860e-5
-1.072, -1.868e-5
-1.071, -1.864e-5
-1.070, -1.862e-5
-1.069, -1.856e-5
-1.068, -1.853e-5
-1.067, -1.868e-5
-1.066, -1.879e-5
-1.065, -1.872e-5
-1.064, -1.881e-5
-1.063, -1.871e-5
-1.062, -1.883e-5
-1.061, -1.889e-5
-1.060, -1.874e-5
-1.059, -1.888e-5
-1.058, -1.880e-5
-1.057, -1.888e-5
-1.056, -1.889e-5
-1.055, -1.902e-5
-1.054, -1.914e-5
-1.053, -1.905e-5
-1.052, -1.916e-5
-1.051, -1.925e-5
-1.050, -1.929e-5
-1.049, -1.944e-5
-1.048, -1.941e-5
-1.047, -1.940e-5
-1.046, -1.963e-5
-1.045, -1.952e-5
-1.044, -1.970e-5
-1.043, -1.965e-5
-1.042, -1.970e-5
-1.041, -1.991e-5
-1.040, -1.989e-5
-1.039, -2.006e-5
-1.038, -1.998e-5
-1.037, -2.024e-5
-1.036, -2.041e-5
-1.035, -2.037e-5
-1.034, -2.030e-5
-1.033, -2.040e-5
-1.032, -2.048e-5
-1.031, -2.058e-5
-1.030, -2.071e-5
-1.029, -2.086e-5
-1.028, -2.081e-5
-1.027, -2.082e-5
-1.026, -2.096e-5
-1.025, -2.107e-5
-1.024, -2.138e-5
-1.023, -2.150e-5
-1.022, -2.139e-5
-1.021, -2.157e-5
-1.020, -2.164e-5
-1.019, -2.181e-5
-1.018, -2.176e-5
-1.017, -2.192e-5
-1.016, -2.208e-5
-1.015, -2.212e-5
-1.014, -2.224e-5
-1.013, -2.229e-5
-1.012, -2.243e-5
-1.011, -2.253e-5
-1.010, -2.263e-5
-1.009, -2.287e-5
-1.008, -2.285e-5
-1.007, -2.300e-5
-1.006, -2.311e-5
-1.005, -2.314e-5
-1.004, -2.330e-5
-1.003, -2.333e-5
-1.002, -2.348e-5
-1.001, -2.369e-5
