Mar. 16, 2025   18:11:27
Cyclic Voltammetry
File: c:/users/guazh/data/banditlqround7_x0exp891_r5/2025-03-03-exp914\exp914-2025-03-16t17_47_01-h2koh\exp914_cv_sr_800mvs_efin_-1800mv.bin
Data Source:  Experiment
Instrument Model:  CHI760E
Header: CV ran at 800 mVs
Note: 

Init E (V) = -1
High E (V) = -1
Low E (V) = -1.8
Final E (V) = -1
Init P/N = N
Scan Rate (V/s) = 0.8
Segment = 3
Sample Interval (V) = 0.001
Quiet Time (sec) = 2
Sensitivity (A/V) = 0.01
Comp R (ohm) = 1.9

Results:

Channel 1:
Segment 1:
Ep = -1.328V
ip = 5.298e-5A
Ah = 4.231e-6C

Segment 2:
Ep = -1.073V
ip = -4.864e-5A
Ah = -5.227e-6C

Segment 3:

Potential/V, Current/A

-1.000, 3.239e-6
-1.001, 6.322e-6
-1.002, 6.322e-6
-1.003, 6.322e-6
-1.004, 6.322e-6
-1.005, 9.405e-6
-1.006, 9.405e-6
-1.007, 1.249e-5
-1.008, 9.405e-6
-1.009, 1.249e-5
-1.010, 1.249e-5
-1.011, 1.249e-5
-1.012, 1.249e-5
-1.013, 1.249e-5
-1.014, 1.249e-5
-1.015, 1.557e-5
-1.016, 1.249e-5
-1.017, 1.249e-5
-1.018, 1.557e-5
-1.019, 1.557e-5
-1.020, 1.557e-5
-1.021, 1.557e-5
-1.022, 1.557e-5
-1.023, 1.557e-5
-1.024, 1.557e-5
-1.025, 1.557e-5
-1.026, 1.557e-5
-1.027, 1.557e-5
-1.028, 1.557e-5
-1.029, 1.865e-5
-1.030, 1.865e-5
-1.031, 1.865e-5
-1.032, 1.865e-5
-1.033, 1.865e-5
-1.034, 1.865e-5
-1.035, 1.865e-5
-1.036, 1.865e-5
-1.037, 1.865e-5
-1.038, 1.865e-5
-1.039, 2.174e-5
-1.040, 1.865e-5
-1.041, 2.174e-5
-1.042, 2.174e-5
-1.043, 2.174e-5
-1.044, 2.174e-5
-1.045, 2.174e-5
-1.046, 2.174e-5
-1.047, 2.174e-5
-1.048, 2.174e-5
-1.049, 2.174e-5
-1.050, 2.174e-5
-1.051, 2.174e-5
-1.052, 2.174e-5
-1.053, 2.174e-5
-1.054, 2.482e-5
-1.055, 2.482e-5
-1.056, 2.482e-5
-1.057, 2.174e-5
-1.058, 2.482e-5
-1.059, 2.482e-5
-1.060, 2.482e-5
-1.061, 2.482e-5
-1.062, 2.482e-5
-1.063, 2.482e-5
-1.064, 2.482e-5
-1.065, 2.790e-5
-1.066, 2.482e-5
-1.067, 2.482e-5
-1.068, 2.790e-5
-1.069, 2.482e-5
-1.070, 2.790e-5
-1.071, 2.790e-5
-1.072, 2.790e-5
-1.073, 2.790e-5
-1.074, 3.099e-5
-1.075, 2.790e-5
-1.076, 2.790e-5
-1.077, 2.790e-5
-1.078, 3.099e-5
-1.079, 2.790e-5
-1.080, 3.099e-5
-1.081, 3.099e-5
-1.082, 3.099e-5
-1.083, 3.099e-5
-1.084, 3.099e-5
-1.085, 3.099e-5
-1.086, 3.099e-5
-1.087, 3.099e-5
-1.088, 3.099e-5
-1.089, 3.099e-5
-1.090, 3.099e-5
-1.091, 3.099e-5
-1.092, 3.099e-5
-1.093, 3.099e-5
-1.094, 3.099e-5
-1.095, 3.407e-5
-1.096, 3.099e-5
-1.097, 3.099e-5
-1.098, 3.099e-5
-1.099, 3.099e-5
-1.100, 3.407e-5
-1.101, 3.407e-5
-1.102, 3.099e-5
-1.103, 3.407e-5
-1.104, 3.099e-5
-1.105, 3.407e-5
-1.106, 3.407e-5
-1.107, 3.407e-5
-1.108, 3.407e-5
-1.109, 3.407e-5
-1.110, 3.407e-5
-1.111, 3.407e-5
-1.112, 3.407e-5
-1.113, 3.407e-5
-1.114, 3.407e-5
-1.115, 3.407e-5
-1.116, 3.407e-5
-1.117, 3.407e-5
-1.118, 3.407e-5
-1.119, 3.407e-5
-1.120, 3.407e-5
-1.121, 3.715e-5
-1.122, 3.407e-5
-1.123, 3.715e-5
-1.124, 3.407e-5
-1.125, 3.407e-5
-1.126, 3.715e-5
-1.127, 3.715e-5
-1.128, 3.715e-5
-1.129, 3.715e-5
-1.130, 3.715e-5
-1.131, 3.715e-5
-1.132, 3.715e-5
-1.133, 3.715e-5
-1.134, 3.715e-5
-1.135, 3.715e-5
-1.136, 3.715e-5
-1.137, 3.715e-5
-1.138, 3.715e-5
-1.139, 3.715e-5
-1.140, 3.715e-5
-1.141, 3.715e-5
-1.142, 3.715e-5
-1.143, 3.715e-5
-1.144, 3.715e-5
-1.145, 3.715e-5
-1.146, 3.715e-5
-1.147, 3.715e-5
-1.148, 4.024e-5
-1.149, 3.715e-5
-1.150, 4.024e-5
-1.151, 3.715e-5
-1.152, 4.024e-5
-1.153, 3.715e-5
-1.154, 4.024e-5
-1.155, 4.024e-5
-1.156, 4.024e-5
-1.157, 3.715e-5
-1.158, 4.024e-5
-1.159, 4.024e-5
-1.160, 4.024e-5
-1.161, 4.024e-5
-1.162, 4.024e-5
-1.163, 4.024e-5
-1.164, 4.024e-5
-1.165, 4.024e-5
-1.166, 4.024e-5
-1.167, 4.024e-5
-1.168, 4.332e-5
-1.169, 4.024e-5
-1.170, 4.332e-5
-1.171, 4.024e-5
-1.172, 4.332e-5
-1.173, 4.332e-5
-1.174, 4.332e-5
-1.175, 4.332e-5
-1.176, 4.332e-5
-1.177, 4.332e-5
-1.178, 4.332e-5
-1.179, 4.332e-5
-1.180, 4.332e-5
-1.181, 4.332e-5
-1.182, 4.332e-5
-1.183, 4.332e-5
-1.184, 4.332e-5
-1.185, 4.332e-5
-1.186, 4.332e-5
-1.187, 4.332e-5
-1.188, 4.332e-5
-1.189, 4.640e-5
-1.190, 4.332e-5
-1.191, 4.640e-5
-1.192, 4.640e-5
-1.193, 4.640e-5
-1.194, 4.640e-5
-1.195, 4.640e-5
-1.196, 4.640e-5
-1.197, 4.640e-5
-1.198, 4.640e-5
-1.199, 4.640e-5
-1.200, 4.640e-5
-1.201, 4.949e-5
-1.202, 4.640e-5
-1.203, 4.949e-5
-1.204, 4.640e-5
-1.205, 4.949e-5
-1.206, 4.949e-5
-1.207, 4.949e-5
-1.208, 4.949e-5
-1.209, 4.949e-5
-1.210, 4.949e-5
-1.211, 5.257e-5
-1.212, 4.949e-5
-1.213, 4.949e-5
-1.214, 5.257e-5
-1.215, 5.257e-5
-1.216, 4.949e-5
-1.217, 5.257e-5
-1.218, 5.257e-5
-1.219, 5.257e-5
-1.220, 5.257e-5
-1.221, 5.257e-5
-1.222, 5.257e-5
-1.223, 5.565e-5
-1.224, 5.257e-5
-1.225, 5.565e-5
-1.226, 5.565e-5
-1.227, 5.565e-5
-1.228, 5.565e-5
-1.229, 5.565e-5
-1.230, 5.565e-5
-1.231, 5.565e-5
-1.232, 5.873e-5
-1.233, 5.565e-5
-1.234, 5.873e-5
-1.235, 5.873e-5
-1.236, 5.873e-5
-1.237, 5.873e-5
-1.238, 5.873e-5
-1.239, 5.873e-5
-1.240, 5.873e-5
-1.241, 6.182e-5
-1.242, 6.182e-5
-1.243, 6.182e-5
-1.244, 6.182e-5
-1.245, 6.182e-5
-1.246, 6.490e-5
-1.247, 6.490e-5
-1.248, 6.490e-5
-1.249, 6.490e-5
-1.250, 6.490e-5
-1.251, 6.490e-5
-1.252, 6.490e-5
-1.253, 6.490e-5
-1.254, 6.798e-5
-1.255, 6.798e-5
-1.256, 6.798e-5
-1.257, 6.798e-5
-1.258, 6.798e-5
-1.259, 6.798e-5
-1.260, 6.798e-5
-1.261, 7.107e-5
-1.262, 7.107e-5
-1.263, 7.107e-5
-1.264, 7.107e-5
-1.265, 7.107e-5
-1.266, 7.107e-5
-1.267, 7.415e-5
-1.268, 7.415e-5
-1.269, 7.415e-5
-1.270, 7.415e-5
-1.271, 7.415e-5
-1.272, 7.415e-5
-1.273, 7.723e-5
-1.274, 7.723e-5
-1.275, 7.723e-5
-1.276, 7.723e-5
-1.277, 8.032e-5
-1.278, 8.032e-5
-1.279, 8.032e-5
-1.280, 8.032e-5
-1.281, 8.032e-5
-1.282, 8.032e-5
-1.283, 8.340e-5
-1.284, 8.340e-5
-1.285, 8.340e-5
-1.286, 8.340e-5
-1.287, 8.648e-5
-1.288, 8.648e-5
-1.289, 8.648e-5
-1.290, 8.648e-5
-1.291, 8.957e-5
-1.292, 8.957e-5
-1.293, 8.957e-5
-1.294, 8.957e-5
-1.295, 8.957e-5
-1.296, 8.957e-5
-1.297, 9.265e-5
-1.298, 9.265e-5
-1.299, 9.265e-5
-1.300, 9.265e-5
-1.301, 9.573e-5
-1.302, 9.265e-5
-1.303, 9.573e-5
-1.304, 9.573e-5
-1.305, 9.573e-5
-1.306, 9.573e-5
-1.307, 9.882e-5
-1.308, 9.882e-5
-1.309, 9.882e-5
-1.310, 9.882e-5
-1.311, 9.882e-5
-1.312, 9.882e-5
-1.313, 9.882e-5
-1.314, 9.882e-5
-1.315, 1.019e-4
-1.316, 1.019e-4
-1.317, 1.019e-4
-1.318, 1.019e-4
-1.319, 1.019e-4
-1.320, 1.050e-4
-1.321, 1.050e-4
-1.322, 1.050e-4
-1.323, 1.050e-4
-1.324, 1.050e-4
-1.325, 1.050e-4
-1.326, 1.050e-4
-1.327, 1.050e-4
-1.328, 1.081e-4
-1.329, 1.050e-4
-1.330, 1.050e-4
-1.331, 1.050e-4
-1.332, 1.050e-4
-1.333, 1.050e-4
-1.334, 1.050e-4
-1.335, 1.050e-4
-1.336, 1.050e-4
-1.337, 1.050e-4
-1.338, 1.050e-4
-1.339, 1.050e-4
-1.340, 1.050e-4
-1.341, 1.050e-4
-1.342, 1.050e-4
-1.343, 1.019e-4
-1.344, 1.019e-4
-1.345, 1.019e-4
-1.346, 1.019e-4
-1.347, 1.019e-4
-1.348, 1.019e-4
-1.349, 9.882e-5
-1.350, 9.882e-5
-1.351, 9.882e-5
-1.352, 9.573e-5
-1.353, 9.882e-5
-1.354, 9.882e-5
-1.355, 9.573e-5
-1.356, 9.573e-5
-1.357, 9.573e-5
-1.358, 9.573e-5
-1.359, 9.573e-5
-1.360, 9.265e-5
-1.361, 9.265e-5
-1.362, 9.265e-5
-1.363, 9.265e-5
-1.364, 9.265e-5
-1.365, 9.265e-5
-1.366, 8.957e-5
-1.367, 9.265e-5
-1.368, 8.957e-5
-1.369, 8.957e-5
-1.370, 8.957e-5
-1.371, 8.957e-5
-1.372, 8.648e-5
-1.373, 8.957e-5
-1.374, 8.648e-5
-1.375, 8.957e-5
-1.376, 8.648e-5
-1.377, 8.648e-5
-1.378, 8.648e-5
-1.379, 8.648e-5
-1.380, 8.648e-5
-1.381, 8.648e-5
-1.382, 8.648e-5
-1.383, 8.648e-5
-1.384, 8.648e-5
-1.385, 8.648e-5
-1.386, 8.648e-5
-1.387, 8.648e-5
-1.388, 8.648e-5
-1.389, 8.648e-5
-1.390, 8.648e-5
-1.391, 8.648e-5
-1.392, 8.648e-5
-1.393, 8.648e-5
-1.394, 8.648e-5
-1.395, 8.648e-5
-1.396, 8.648e-5
-1.397, 8.648e-5
-1.398, 8.648e-5
-1.399, 8.648e-5
-1.400, 8.648e-5
-1.401, 8.957e-5
-1.402, 8.957e-5
-1.403, 8.648e-5
-1.404, 8.957e-5
-1.405, 8.957e-5
-1.406, 8.957e-5
-1.407, 8.957e-5
-1.408, 8.957e-5
-1.409, 8.957e-5
-1.410, 9.265e-5
-1.411, 9.265e-5
-1.412, 9.265e-5
-1.413, 9.265e-5
-1.414, 9.265e-5
-1.415, 9.265e-5
-1.416, 9.265e-5
-1.417, 9.265e-5
-1.418, 9.573e-5
-1.419, 9.573e-5
-1.420, 9.573e-5
-1.421, 9.573e-5
-1.422, 9.882e-5
-1.423, 9.573e-5
-1.424, 9.882e-5
-1.425, 9.882e-5
-1.426, 9.882e-5
-1.427, 9.882e-5
-1.428, 9.882e-5
-1.429, 9.882e-5
-1.430, 1.019e-4
-1.431, 1.019e-4
-1.432, 1.019e-4
-1.433, 1.019e-4
-1.434, 1.019e-4
-1.435, 1.050e-4
-1.436, 1.050e-4
-1.437, 1.050e-4
-1.438, 1.050e-4
-1.439, 1.050e-4
-1.440, 1.050e-4
-1.441, 1.050e-4
-1.442, 1.081e-4
-1.443, 1.081e-4
-1.444, 1.081e-4
-1.445, 1.081e-4
-1.446, 1.081e-4
-1.447, 1.111e-4
-1.448, 1.111e-4
-1.449, 1.111e-4
-1.450, 1.111e-4
-1.451, 1.111e-4
-1.452, 1.111e-4
-1.453, 1.142e-4
-1.454, 1.142e-4
-1.455, 1.142e-4
-1.456, 1.142e-4
-1.457, 1.142e-4
-1.458, 1.142e-4
-1.459, 1.173e-4
-1.460, 1.173e-4
-1.461, 1.173e-4
-1.462, 1.173e-4
-1.463, 1.204e-4
-1.464, 1.204e-4
-1.465, 1.204e-4
-1.466, 1.204e-4
-1.467, 1.235e-4
-1.468, 1.235e-4
-1.469, 1.235e-4
-1.470, 1.235e-4
-1.471, 1.266e-4
-1.472, 1.266e-4
-1.473, 1.266e-4
-1.474, 1.266e-4
-1.475, 1.296e-4
-1.476, 1.296e-4
-1.477, 1.296e-4
-1.478, 1.327e-4
-1.479, 1.327e-4
-1.480, 1.327e-4
-1.481, 1.358e-4
-1.482, 1.389e-4
-1.483, 1.389e-4
-1.484, 1.420e-4
-1.485, 1.420e-4
-1.486, 1.451e-4
-1.487, 1.481e-4
-1.488, 1.512e-4
-1.489, 1.512e-4
-1.490, 1.543e-4
-1.491, 1.574e-4
-1.492, 1.605e-4
-1.493, 1.636e-4
-1.494, 1.666e-4
-1.495, 1.728e-4
-1.496, 1.759e-4
-1.497, 1.821e-4
-1.498, 1.851e-4
-1.499, 1.913e-4
-1.500, 1.975e-4
-1.501, 2.036e-4
-1.502, 2.098e-4
-1.503, 2.160e-4
-1.504, 2.252e-4
-1.505, 2.345e-4
-1.506, 2.406e-4
-1.507, 2.499e-4
-1.508, 2.591e-4
-1.509, 2.684e-4
-1.510, 2.776e-4
-1.511, 2.869e-4
-1.512, 2.961e-4
-1.513, 3.054e-4
-1.514, 3.146e-4
-1.515, 3.239e-4
-1.516, 3.300e-4
-1.517, 3.393e-4
-1.518, 3.516e-4
-1.519, 3.578e-4
-1.520, 3.670e-4
-1.521, 3.763e-4
-1.522, 3.855e-4
-1.523, 3.917e-4
-1.524, 4.010e-4
-1.525, 4.102e-4
-1.526, 4.164e-4
-1.527, 4.256e-4
-1.528, 4.349e-4
-1.529, 4.441e-4
-1.530, 4.534e-4
-1.531, 4.626e-4
-1.532, 4.719e-4
-1.533, 4.811e-4
-1.534, 4.873e-4
-1.535, 4.965e-4
-1.536, 5.058e-4
-1.537, 5.150e-4
-1.538, 5.243e-4
-1.539, 5.335e-4
-1.540, 5.428e-4
-1.541, 5.551e-4
-1.542, 5.644e-4
-1.543, 5.736e-4
-1.544, 5.829e-4
-1.545, 5.952e-4
-1.546, 6.044e-4
-1.547, 6.168e-4
-1.548, 6.260e-4
-1.549, 6.384e-4
-1.550, 6.476e-4
-1.551, 6.599e-4
-1.552, 6.723e-4
-1.553, 6.815e-4
-1.554, 6.939e-4
-1.555, 7.062e-4
-1.556, 7.154e-4
-1.557, 7.278e-4
-1.558, 7.401e-4
-1.559, 7.524e-4
-1.560, 7.617e-4
-1.561, 7.771e-4
-1.562, 7.894e-4
-1.563, 7.987e-4
-1.564, 8.141e-4
-1.565, 8.264e-4
-1.566, 8.388e-4
-1.567, 8.511e-4
-1.568, 8.665e-4
-1.569, 8.788e-4
-1.570, 8.943e-4
-1.571, 9.066e-4
-1.572, 9.189e-4
-1.573, 9.343e-4
-1.574, 9.467e-4
-1.575, 9.621e-4
-1.576, 9.744e-4
-1.577, 9.898e-4
-1.578, 1.002e-3
-1.579, 1.018e-3
-1.580, 1.030e-3
-1.581, 1.045e-3
-1.582, 1.061e-3
-1.583, 1.076e-3
-1.584, 1.092e-3
-1.585, 1.110e-3
-1.586, 1.122e-3
-1.587, 1.138e-3
-1.588, 1.156e-3
-1.589, 1.172e-3
-1.590, 1.190e-3
-1.591, 1.203e-3
-1.592, 1.221e-3
-1.593, 1.236e-3
-1.594, 1.255e-3
-1.595, 1.270e-3
-1.596, 1.286e-3
-1.597, 1.304e-3
-1.598, 1.320e-3
-1.599, 1.335e-3
-1.600, 1.351e-3
-1.601, 1.369e-3
-1.602, 1.388e-3
-1.603, 1.403e-3
-1.604, 1.425e-3
-1.605, 1.440e-3
-1.606, 1.458e-3
-1.607, 1.477e-3
-1.608, 1.495e-3
-1.609, 1.517e-3
-1.610, 1.536e-3
-1.611, 1.554e-3
-1.612, 1.573e-3
-1.613, 1.594e-3
-1.614, 1.613e-3
-1.615, 1.634e-3
-1.616, 1.653e-3
-1.617, 1.674e-3
-1.618, 1.693e-3
-1.619, 1.714e-3
-1.620, 1.736e-3
-1.621, 1.758e-3
-1.622, 1.776e-3
-1.623, 1.798e-3
-1.624, 1.816e-3
-1.625, 1.841e-3
-1.626, 1.862e-3
-1.627, 1.884e-3
-1.628, 1.902e-3
-1.629, 1.924e-3
-1.630, 1.943e-3
-1.631, 1.967e-3
-1.632, 1.986e-3
-1.633, 2.013e-3
-1.634, 2.038e-3
-1.635, 2.060e-3
-1.636, 2.084e-3
-1.637, 2.106e-3
-1.638, 2.131e-3
-1.639, 2.152e-3
-1.640, 2.174e-3
-1.641, 2.195e-3
-1.642, 2.220e-3
-1.643, 2.245e-3
-1.644, 2.272e-3
-1.645, 2.297e-3
-1.646, 2.319e-3
-1.647, 2.349e-3
-1.648, 2.377e-3
-1.649, 2.405e-3
-1.650, 2.433e-3
-1.651, 2.457e-3
-1.652, 2.485e-3
-1.653, 2.504e-3
-1.654, 2.525e-3
-1.655, 2.547e-3
-1.656, 2.571e-3
-1.657, 2.596e-3
-1.658, 2.627e-3
-1.659, 2.658e-3
-1.660, 2.692e-3
-1.661, 2.726e-3
-1.662, 2.760e-3
-1.663, 2.793e-3
-1.664, 2.821e-3
-1.665, 2.849e-3
-1.666, 2.874e-3
-1.667, 2.901e-3
-1.668, 2.926e-3
-1.669, 2.957e-3
-1.670, 2.985e-3
-1.671, 3.012e-3
-1.672, 3.056e-3
-1.673, 3.083e-3
-1.674, 3.114e-3
-1.675, 3.151e-3
-1.676, 3.188e-3
-1.677, 3.225e-3
-1.678, 3.262e-3
-1.679, 3.299e-3
-1.680, 3.333e-3
-1.681, 3.364e-3
-1.682, 3.395e-3
-1.683, 3.422e-3
-1.684, 3.447e-3
-1.685, 3.478e-3
-1.686, 3.503e-3
-1.687, 3.527e-3
-1.688, 3.561e-3
-1.689, 3.592e-3
-1.690, 3.626e-3
-1.691, 3.663e-3
-1.692, 3.697e-3
-1.693, 3.737e-3
-1.694, 3.765e-3
-1.695, 3.802e-3
-1.696, 3.836e-3
-1.697, 3.873e-3
-1.698, 3.903e-3
-1.699, 3.940e-3
-1.700, 3.974e-3
-1.701, 4.005e-3
-1.702, 4.036e-3
-1.703, 4.067e-3
-1.704, 4.095e-3
-1.705, 4.125e-3
-1.706, 4.156e-3
-1.707, 4.187e-3
-1.708, 4.221e-3
-1.709, 4.255e-3
-1.710, 4.295e-3
-1.711, 4.332e-3
-1.712, 4.372e-3
-1.713, 4.403e-3
-1.714, 4.437e-3
-1.715, 4.471e-3
-1.716, 4.501e-3
-1.717, 4.532e-3
-1.718, 4.566e-3
-1.719, 4.606e-3
-1.720, 4.640e-3
-1.721, 4.674e-3
-1.722, 4.711e-3
-1.723, 4.748e-3
-1.724, 4.791e-3
-1.725, 4.841e-3
-1.726, 4.884e-3
-1.727, 4.927e-3
-1.728, 4.976e-3
-1.729, 5.035e-3
-1.730, 5.090e-3
-1.731, 5.146e-3
-1.732, 5.204e-3
-1.733, 5.254e-3
-1.734, 5.303e-3
-1.735, 5.340e-3
-1.736, 5.374e-3
-1.737, 5.411e-3
-1.738, 5.445e-3
-1.739, 5.482e-3
-1.740, 5.522e-3
-1.741, 5.556e-3
-1.742, 5.596e-3
-1.743, 5.630e-3
-1.744, 5.667e-3
-1.745, 5.698e-3
-1.746, 5.729e-3
-1.747, 5.759e-3
-1.748, 5.787e-3
-1.749, 5.827e-3
-1.750, 5.864e-3
-1.751, 5.901e-3
-1.752, 5.960e-3
-1.753, 6.012e-3
-1.754, 6.068e-3
-1.755, 6.123e-3
-1.756, 6.176e-3
-1.757, 6.228e-3
-1.758, 6.287e-3
-1.759, 6.339e-3
-1.760, 6.401e-3
-1.761, 6.453e-3
-1.762, 6.502e-3
-1.763, 6.552e-3
-1.764, 6.604e-3
-1.765, 6.654e-3
-1.766, 6.706e-3
-1.767, 6.752e-3
-1.768, 6.801e-3
-1.769, 6.848e-3
-1.770, 6.894e-3
-1.771, 6.946e-3
-1.772, 6.999e-3
-1.773, 7.051e-3
-1.774, 7.101e-3
-1.775, 7.147e-3
-1.776, 7.193e-3
-1.777, 7.242e-3
-1.778, 7.292e-3
-1.779, 7.347e-3
-1.780, 7.427e-3
-1.781, 7.483e-3
-1.782, 7.535e-3
-1.783, 7.582e-3
-1.784, 7.643e-3
-1.785, 7.696e-3
-1.786, 7.751e-3
-1.787, 7.810e-3
-1.788, 7.865e-3
-1.789, 7.914e-3
-1.790, 7.967e-3
-1.791, 8.019e-3
-1.792, 8.075e-3
-1.793, 8.130e-3
-1.794, 8.186e-3
-1.795, 8.235e-3
-1.796, 8.288e-3
-1.797, 8.346e-3
-1.798, 8.399e-3
-1.799, 8.454e-3
-1.800, 8.485e-3
-1.799, 8.436e-3
-1.798, 8.392e-3
-1.797, 8.346e-3
-1.796, 8.309e-3
-1.795, 8.275e-3
-1.794, 8.232e-3
-1.793, 8.195e-3
-1.792, 8.152e-3
-1.791, 8.103e-3
-1.790, 8.050e-3
-1.789, 8.032e-3
-1.788, 7.985e-3
-1.787, 7.930e-3
-1.786, 7.871e-3
-1.785, 7.825e-3
-1.784, 7.779e-3
-1.783, 7.720e-3
-1.782, 7.665e-3
-1.781, 7.609e-3
-1.780, 7.554e-3
-1.779, 7.501e-3
-1.778, 7.446e-3
-1.777, 7.403e-3
-1.776, 7.350e-3
-1.775, 7.304e-3
-1.774, 7.255e-3
-1.773, 7.193e-3
-1.772, 7.138e-3
-1.771, 7.079e-3
-1.770, 7.027e-3
-1.769, 6.971e-3
-1.768, 6.922e-3
-1.767, 6.872e-3
-1.766, 6.829e-3
-1.765, 6.783e-3
-1.764, 6.734e-3
-1.763, 6.691e-3
-1.762, 6.644e-3
-1.761, 6.595e-3
-1.760, 6.539e-3
-1.759, 6.493e-3
-1.758, 6.444e-3
-1.757, 6.425e-3
-1.756, 6.376e-3
-1.755, 6.333e-3
-1.754, 6.299e-3
-1.753, 6.259e-3
-1.752, 6.206e-3
-1.751, 6.148e-3
-1.750, 6.092e-3
-1.749, 6.034e-3
-1.748, 5.981e-3
-1.747, 5.951e-3
-1.746, 5.923e-3
-1.745, 5.883e-3
-1.744, 5.830e-3
-1.743, 5.778e-3
-1.742, 5.732e-3
-1.741, 5.685e-3
-1.740, 5.636e-3
-1.739, 5.590e-3
-1.738, 5.547e-3
-1.737, 5.504e-3
-1.736, 5.470e-3
-1.735, 5.433e-3
-1.734, 5.386e-3
-1.733, 5.337e-3
-1.732, 5.291e-3
-1.731, 5.248e-3
-1.730, 5.201e-3
-1.729, 5.158e-3
-1.728, 5.118e-3
-1.727, 5.078e-3
-1.726, 5.044e-3
-1.725, 5.004e-3
-1.724, 4.964e-3
-1.723, 4.924e-3
-1.722, 4.887e-3
-1.721, 4.847e-3
-1.720, 4.804e-3
-1.719, 4.754e-3
-1.718, 4.714e-3
-1.717, 4.677e-3
-1.716, 4.634e-3
-1.715, 4.591e-3
-1.714, 4.548e-3
-1.713, 4.508e-3
-1.712, 4.468e-3
-1.711, 4.431e-3
-1.710, 4.397e-3
-1.709, 4.369e-3
-1.708, 4.332e-3
-1.707, 4.295e-3
-1.706, 4.258e-3
-1.705, 4.233e-3
-1.704, 4.196e-3
-1.703, 4.159e-3
-1.702, 4.119e-3
-1.701, 4.082e-3
-1.700, 4.042e-3
-1.699, 4.005e-3
-1.698, 3.971e-3
-1.697, 3.934e-3
-1.696, 3.897e-3
-1.695, 3.860e-3
-1.694, 3.823e-3
-1.693, 3.789e-3
-1.692, 3.752e-3
-1.691, 3.715e-3
-1.690, 3.678e-3
-1.689, 3.644e-3
-1.688, 3.604e-3
-1.687, 3.564e-3
-1.686, 3.527e-3
-1.685, 3.490e-3
-1.684, 3.453e-3
-1.683, 3.419e-3
-1.682, 3.388e-3
-1.681, 3.358e-3
-1.680, 3.327e-3
-1.679, 3.296e-3
-1.678, 3.262e-3
-1.677, 3.231e-3
-1.676, 3.191e-3
-1.675, 3.163e-3
-1.674, 3.133e-3
-1.673, 3.102e-3
-1.672, 3.077e-3
-1.671, 3.052e-3
-1.670, 3.019e-3
-1.669, 2.988e-3
-1.668, 2.960e-3
-1.667, 2.932e-3
-1.666, 2.920e-3
-1.665, 2.898e-3
-1.664, 2.877e-3
-1.663, 2.852e-3
-1.662, 2.824e-3
-1.661, 2.800e-3
-1.660, 2.775e-3
-1.659, 2.744e-3
-1.658, 2.713e-3
-1.657, 2.682e-3
-1.656, 2.652e-3
-1.655, 2.621e-3
-1.654, 2.596e-3
-1.653, 2.568e-3
-1.652, 2.538e-3
-1.651, 2.513e-3
-1.650, 2.482e-3
-1.649, 2.451e-3
-1.648, 2.420e-3
-1.647, 2.390e-3
-1.646, 2.362e-3
-1.645, 2.334e-3
-1.644, 2.306e-3
-1.643, 2.282e-3
-1.642, 2.251e-3
-1.641, 2.223e-3
-1.640, 2.198e-3
-1.639, 2.171e-3
-1.638, 2.143e-3
-1.637, 2.124e-3
-1.636, 2.097e-3
-1.635, 2.072e-3
-1.634, 2.044e-3
-1.633, 2.020e-3
-1.632, 1.995e-3
-1.631, 1.973e-3
-1.630, 1.952e-3
-1.629, 1.927e-3
-1.628, 1.902e-3
-1.627, 1.881e-3
-1.626, 1.856e-3
-1.625, 1.832e-3
-1.624, 1.807e-3
-1.623, 1.788e-3
-1.622, 1.764e-3
-1.621, 1.745e-3
-1.620, 1.721e-3
-1.619, 1.702e-3
-1.618, 1.680e-3
-1.617, 1.659e-3
-1.616, 1.634e-3
-1.615, 1.610e-3
-1.614, 1.591e-3
-1.613, 1.566e-3
-1.612, 1.545e-3
-1.611, 1.520e-3
-1.610, 1.499e-3
-1.609, 1.474e-3
-1.608, 1.452e-3
-1.607, 1.428e-3
-1.606, 1.409e-3
-1.605, 1.388e-3
-1.604, 1.369e-3
-1.603, 1.347e-3
-1.602, 1.332e-3
-1.601, 1.310e-3
-1.600, 1.292e-3
-1.599, 1.273e-3
-1.598, 1.258e-3
-1.597, 1.236e-3
-1.596, 1.221e-3
-1.595, 1.206e-3
-1.594, 1.193e-3
-1.593, 1.175e-3
-1.592, 1.159e-3
-1.591, 1.144e-3
-1.590, 1.125e-3
-1.589, 1.110e-3
-1.588, 1.092e-3
-1.587, 1.073e-3
-1.586, 1.058e-3
-1.585, 1.039e-3
-1.584, 1.024e-3
-1.583, 1.005e-3
-1.582, 9.898e-4
-1.581, 9.744e-4
-1.580, 9.590e-4
-1.579, 9.436e-4
-1.578, 9.282e-4
-1.577, 9.128e-4
-1.576, 8.943e-4
-1.575, 8.819e-4
-1.574, 8.665e-4
-1.573, 8.511e-4
-1.572, 8.357e-4
-1.571, 8.264e-4
-1.570, 8.110e-4
-1.569, 7.987e-4
-1.568, 7.863e-4
-1.567, 7.709e-4
-1.566, 7.555e-4
-1.565, 7.432e-4
-1.564, 7.278e-4
-1.563, 7.154e-4
-1.562, 7.031e-4
-1.561, 6.908e-4
-1.560, 6.784e-4
-1.559, 6.661e-4
-1.558, 6.538e-4
-1.557, 6.414e-4
-1.556, 6.291e-4
-1.555, 6.199e-4
-1.554, 6.075e-4
-1.553, 5.952e-4
-1.552, 5.859e-4
-1.551, 5.736e-4
-1.550, 5.613e-4
-1.549, 5.520e-4
-1.548, 5.397e-4
-1.547, 5.305e-4
-1.546, 5.181e-4
-1.545, 5.120e-4
-1.544, 4.996e-4
-1.543, 4.904e-4
-1.542, 4.811e-4
-1.541, 4.719e-4
-1.540, 4.626e-4
-1.539, 4.534e-4
-1.538, 4.410e-4
-1.537, 4.318e-4
-1.536, 4.256e-4
-1.535, 4.164e-4
-1.534, 4.040e-4
-1.533, 3.979e-4
-1.532, 3.886e-4
-1.531, 3.794e-4
-1.530, 3.701e-4
-1.529, 3.640e-4
-1.528, 3.547e-4
-1.527, 3.485e-4
-1.526, 3.393e-4
-1.525, 3.331e-4
-1.524, 3.270e-4
-1.523, 3.177e-4
-1.522, 3.115e-4
-1.521, 3.054e-4
-1.520, 2.992e-4
-1.519, 2.900e-4
-1.518, 2.838e-4
-1.517, 2.776e-4
-1.516, 2.715e-4
-1.515, 2.622e-4
-1.514, 2.561e-4
-1.513, 2.499e-4
-1.512, 2.468e-4
-1.511, 2.376e-4
-1.510, 2.345e-4
-1.509, 2.283e-4
-1.508, 2.221e-4
-1.507, 2.160e-4
-1.506, 2.129e-4
-1.505, 2.067e-4
-1.504, 2.036e-4
-1.503, 1.975e-4
-1.502, 1.913e-4
-1.501, 1.882e-4
-1.500, 1.821e-4
-1.499, 1.790e-4
-1.498, 1.728e-4
-1.497, 1.697e-4
-1.496, 1.666e-4
-1.495, 1.605e-4
-1.494, 1.574e-4
-1.493, 1.512e-4
-1.492, 1.481e-4
-1.491, 1.451e-4
-1.490, 1.389e-4
-1.489, 1.358e-4
-1.488, 1.327e-4
-1.487, 1.296e-4
-1.486, 1.266e-4
-1.485, 1.235e-4
-1.484, 1.204e-4
-1.483, 1.142e-4
-1.482, 1.111e-4
-1.481, 1.081e-4
-1.480, 1.050e-4
-1.479, 1.050e-4
-1.478, 1.019e-4
-1.477, 9.882e-5
-1.476, 9.265e-5
-1.475, 9.265e-5
-1.474, 8.957e-5
-1.473, 8.648e-5
-1.472, 8.340e-5
-1.471, 8.340e-5
-1.470, 8.032e-5
-1.469, 7.723e-5
-1.468, 7.415e-5
-1.467, 7.415e-5
-1.466, 7.107e-5
-1.465, 6.798e-5
-1.464, 6.798e-5
-1.463, 6.490e-5
-1.462, 6.182e-5
-1.461, 6.182e-5
-1.460, 5.873e-5
-1.459, 5.565e-5
-1.458, 5.565e-5
-1.457, 5.257e-5
-1.456, 5.257e-5
-1.455, 5.257e-5
-1.454, 4.949e-5
-1.453, 4.640e-5
-1.452, 4.640e-5
-1.451, 4.332e-5
-1.450, 4.332e-5
-1.449, 4.024e-5
-1.448, 4.024e-5
-1.447, 4.024e-5
-1.446, 4.024e-5
-1.445, 3.715e-5
-1.444, 3.715e-5
-1.443, 3.407e-5
-1.442, 3.407e-5
-1.441, 3.407e-5
-1.440, 3.099e-5
-1.439, 3.099e-5
-1.438, 2.790e-5
-1.437, 2.790e-5
-1.436, 2.790e-5
-1.435, 2.482e-5
-1.434, 2.482e-5
-1.433, 2.482e-5
-1.432, 2.482e-5
-1.431, 2.482e-5
-1.430, 2.174e-5
-1.429, 2.174e-5
-1.428, 2.174e-5
-1.427, 2.174e-5
-1.426, 1.865e-5
-1.425, 1.865e-5
-1.424, 1.865e-5
-1.423, 1.865e-5
-1.422, 1.557e-5
-1.421, 1.557e-5
-1.420, 1.557e-5
-1.419, 1.557e-5
-1.418, 1.557e-5
-1.417, 1.557e-5
-1.416, 1.249e-5
-1.415, 1.249e-5
-1.414, 1.249e-5
-1.413, 1.249e-5
-1.412, 1.249e-5
-1.411, 9.405e-6
-1.410, 9.405e-6
-1.409, 9.405e-6
-1.408, 9.405e-6
-1.407, 9.405e-6
-1.406, 9.405e-6
-1.405, 9.405e-6
-1.404, 9.405e-6
-1.403, 9.405e-6
-1.402, 6.322e-6
-1.401, 6.322e-6
-1.400, 6.322e-6
-1.399, 6.322e-6
-1.398, 6.322e-6
-1.397, 6.322e-6
-1.396, 3.239e-6
-1.395, 6.322e-6
-1.394, 3.239e-6
-1.393, 3.239e-6
-1.392, 3.239e-6
-1.391, 3.239e-6
-1.390, 3.239e-6
-1.389, 3.239e-6
-1.388, 1.559e-7
-1.387, 3.239e-6
-1.386, 1.559e-7
-1.385, 3.239e-6
-1.384, 1.559e-7
-1.383, 1.559e-7
-1.382, 1.559e-7
-1.381, 1.559e-7
-1.380, 1.559e-7
-1.379, 1.559e-7
-1.378, 1.559e-7
-1.377, -2.927e-6
-1.376, 1.559e-7
-1.375, -2.927e-6
-1.374, 1.559e-7
-1.373, -2.927e-6
-1.372, -2.927e-6
-1.371, -2.927e-6
-1.370, -2.927e-6
-1.369, -2.927e-6
-1.368, -2.927e-6
-1.367, -2.927e-6
-1.366, -2.927e-6
-1.365, -2.927e-6
-1.364, -2.927e-6
-1.363, -2.927e-6
-1.362, -2.927e-6
-1.361, -2.927e-6
-1.360, -2.927e-6
-1.359, -6.010e-6
-1.358, -2.927e-6
-1.357, -6.010e-6
-1.356, -6.010e-6
-1.355, -6.010e-6
-1.354, -6.010e-6
-1.353, -6.010e-6
-1.352, -6.010e-6
-1.351, -6.010e-6
-1.350, -6.010e-6
-1.349, -6.010e-6
-1.348, -6.010e-6
-1.347, -6.010e-6
-1.346, -9.093e-6
-1.345, -9.093e-6
-1.344, -6.010e-6
-1.343, -9.093e-6
-1.342, -9.093e-6
-1.341, -9.093e-6
-1.340, -9.093e-6
-1.339, -9.093e-6
-1.338, -9.093e-6
-1.337, -9.093e-6
-1.336, -9.093e-6
-1.335, -9.093e-6
-1.334, -9.093e-6
-1.333, -9.093e-6
-1.332, -1.218e-5
-1.331, -9.093e-6
-1.330, -1.218e-5
-1.329, -9.093e-6
-1.328, -9.093e-6
-1.327, -9.093e-6
-1.326, -1.218e-5
-1.325, -9.093e-6
-1.324, -1.218e-5
-1.323, -1.218e-5
-1.322, -1.218e-5
-1.321, -1.218e-5
-1.320, -1.218e-5
-1.319, -1.218e-5
-1.318, -1.218e-5
-1.317, -1.218e-5
-1.316, -1.218e-5
-1.315, -1.218e-5
-1.314, -1.218e-5
-1.313, -1.218e-5
-1.312, -1.218e-5
-1.311, -1.218e-5
-1.310, -1.526e-5
-1.309, -1.526e-5
-1.308, -1.526e-5
-1.307, -1.526e-5
-1.306, -1.526e-5
-1.305, -1.526e-5
-1.304, -1.526e-5
-1.303, -1.526e-5
-1.302, -1.526e-5
-1.301, -1.526e-5
-1.300, -1.526e-5
-1.299, -1.526e-5
-1.298, -1.526e-5
-1.297, -1.526e-5
-1.296, -1.526e-5
-1.295, -1.526e-5
-1.294, -1.834e-5
-1.293, -1.834e-5
-1.292, -1.526e-5
-1.291, -1.834e-5
-1.290, -1.834e-5
-1.289, -1.834e-5
-1.288, -1.526e-5
-1.287, -1.834e-5
-1.286, -1.834e-5
-1.285, -1.834e-5
-1.284, -1.526e-5
-1.283, -1.834e-5
-1.282, -1.834e-5
-1.281, -1.834e-5
-1.280, -1.834e-5
-1.279, -1.834e-5
-1.278, -1.834e-5
-1.277, -1.834e-5
-1.276, -1.834e-5
-1.275, -2.143e-5
-1.274, -1.834e-5
-1.273, -2.143e-5
-1.272, -1.834e-5
-1.271, -2.143e-5
-1.270, -2.143e-5
-1.269, -2.143e-5
-1.268, -2.143e-5
-1.267, -2.143e-5
-1.266, -2.143e-5
-1.265, -2.143e-5
-1.264, -2.143e-5
-1.263, -2.143e-5
-1.262, -2.143e-5
-1.261, -2.143e-5
-1.260, -2.143e-5
-1.259, -2.143e-5
-1.258, -2.143e-5
-1.257, -2.143e-5
-1.256, -2.451e-5
-1.255, -2.143e-5
-1.254, -2.451e-5
-1.253, -2.451e-5
-1.252, -2.451e-5
-1.251, -2.451e-5
-1.250, -2.451e-5
-1.249, -2.451e-5
-1.248, -2.451e-5
-1.247, -2.451e-5
-1.246, -2.451e-5
-1.245, -2.451e-5
-1.244, -2.451e-5
-1.243, -2.451e-5
-1.242, -2.759e-5
-1.241, -2.451e-5
-1.240, -2.759e-5
-1.239, -2.451e-5
-1.238, -2.451e-5
-1.237, -2.759e-5
-1.236, -2.759e-5
-1.235, -2.759e-5
-1.234, -2.759e-5
-1.233, -2.759e-5
-1.232, -2.759e-5
-1.231, -2.759e-5
-1.230, -2.759e-5
-1.229, -2.759e-5
-1.228, -2.759e-5
-1.227, -2.759e-5
-1.226, -3.068e-5
-1.225, -3.068e-5
-1.224, -3.068e-5
-1.223, -3.068e-5
-1.222, -3.068e-5
-1.221, -3.068e-5
-1.220, -3.068e-5
-1.219, -3.068e-5
-1.218, -3.068e-5
-1.217, -3.068e-5
-1.216, -3.068e-5
-1.215, -3.376e-5
-1.214, -3.376e-5
-1.213, -3.376e-5
-1.212, -3.376e-5
-1.211, -3.376e-5
-1.210, -3.376e-5
-1.209, -3.684e-5
-1.208, -3.376e-5
-1.207, -3.684e-5
-1.206, -3.684e-5
-1.205, -3.684e-5
-1.204, -3.684e-5
-1.203, -3.684e-5
-1.202, -3.684e-5
-1.201, -3.684e-5
-1.200, -3.684e-5
-1.199, -3.992e-5
-1.198, -3.992e-5
-1.197, -3.992e-5
-1.196, -3.992e-5
-1.195, -3.992e-5
-1.194, -3.992e-5
-1.193, -3.992e-5
-1.192, -4.301e-5
-1.191, -4.301e-5
-1.190, -4.301e-5
-1.189, -4.301e-5
-1.188, -4.301e-5
-1.187, -4.301e-5
-1.186, -4.609e-5
-1.185, -4.609e-5
-1.184, -4.609e-5
-1.183, -4.609e-5
-1.182, -4.609e-5
-1.181, -4.609e-5
-1.180, -4.609e-5
-1.179, -4.917e-5
-1.178, -4.917e-5
-1.177, -4.917e-5
-1.176, -4.917e-5
-1.175, -5.226e-5
-1.174, -5.226e-5
-1.173, -5.226e-5
-1.172, -5.226e-5
-1.171, -5.226e-5
-1.170, -5.226e-5
-1.169, -5.534e-5
-1.168, -5.534e-5
-1.167, -5.534e-5
-1.166, -5.534e-5
-1.165, -5.534e-5
-1.164, -5.842e-5
-1.163, -5.842e-5
-1.162, -5.842e-5
-1.161, -5.842e-5
-1.160, -5.842e-5
-1.159, -5.842e-5
-1.158, -6.151e-5
-1.157, -6.151e-5
-1.156, -6.151e-5
-1.155, -6.151e-5
-1.154, -6.151e-5
-1.153, -6.151e-5
-1.152, -6.151e-5
-1.151, -6.151e-5
-1.150, -6.459e-5
-1.149, -6.459e-5
-1.148, -6.767e-5
-1.147, -6.459e-5
-1.146, -6.767e-5
-1.145, -6.767e-5
-1.144, -6.767e-5
-1.143, -6.767e-5
-1.142, -7.076e-5
-1.141, -7.076e-5
-1.140, -7.076e-5
-1.139, -7.076e-5
-1.138, -7.076e-5
-1.137, -7.076e-5
-1.136, -7.076e-5
-1.135, -7.384e-5
-1.134, -7.384e-5
-1.133, -7.384e-5
-1.132, -7.384e-5
-1.131, -7.384e-5
-1.130, -7.692e-5
-1.129, -7.384e-5
-1.128, -7.692e-5
-1.127, -7.692e-5
-1.126, -7.692e-5
-1.125, -7.692e-5
-1.124, -7.692e-5
-1.123, -8.000e-5
-1.122, -8.000e-5
-1.121, -8.000e-5
-1.120, -8.000e-5
-1.119, -8.309e-5
-1.118, -8.000e-5
-1.117, -8.309e-5
-1.116, -8.309e-5
-1.115, -8.309e-5
-1.114, -8.309e-5
-1.113, -8.309e-5
-1.112, -8.309e-5
-1.111, -8.309e-5
-1.110, -8.617e-5
-1.109, -8.617e-5
-1.108, -8.617e-5
-1.107, -8.617e-5
-1.106, -8.617e-5
-1.105, -8.617e-5
-1.104, -8.617e-5
-1.103, -8.925e-5
-1.102, -8.925e-5
-1.101, -8.617e-5
-1.100, -8.925e-5
-1.099, -8.925e-5
-1.098, -8.925e-5
-1.097, -8.925e-5
-1.096, -8.925e-5
-1.095, -8.925e-5
-1.094, -8.925e-5
-1.093, -8.925e-5
-1.092, -8.925e-5
-1.091, -8.925e-5
-1.090, -9.234e-5
-1.089, -8.925e-5
-1.088, -9.234e-5
-1.087, -9.234e-5
-1.086, -9.234e-5
-1.085, -9.234e-5
-1.084, -9.234e-5
-1.083, -9.234e-5
-1.082, -9.234e-5
-1.081, -9.234e-5
-1.080, -9.234e-5
-1.079, -9.234e-5
-1.078, -9.234e-5
-1.077, -9.234e-5
-1.076, -9.234e-5
-1.075, -9.234e-5
-1.074, -9.234e-5
-1.073, -9.542e-5
-1.072, -9.234e-5
-1.071, -9.234e-5
-1.070, -9.234e-5
-1.069, -9.234e-5
-1.068, -9.234e-5
-1.067, -9.234e-5
-1.066, -9.234e-5
-1.065, -9.234e-5
-1.064, -9.234e-5
-1.063, -9.234e-5
-1.062, -9.234e-5
-1.061, -9.234e-5
-1.060, -9.234e-5
-1.059, -9.234e-5
-1.058, -9.234e-5
-1.057, -9.234e-5
-1.056, -9.234e-5
-1.055, -9.234e-5
-1.054, -9.234e-5
-1.053, -9.234e-5
-1.052, -9.234e-5
-1.051, -9.234e-5
-1.050, -9.234e-5
-1.049, -9.234e-5
-1.048, -9.234e-5
-1.047, -9.234e-5
-1.046, -8.925e-5
-1.045, -9.234e-5
-1.044, -8.925e-5
-1.043, -8.925e-5
-1.042, -8.925e-5
-1.041, -9.234e-5
-1.040, -8.925e-5
-1.039, -9.234e-5
-1.038, -8.925e-5
-1.037, -8.925e-5
-1.036, -8.925e-5
-1.035, -8.925e-5
-1.034, -8.925e-5
-1.033, -8.925e-5
-1.032, -8.925e-5
-1.031, -8.925e-5
-1.030, -8.925e-5
-1.029, -8.925e-5
-1.028, -8.925e-5
-1.027, -8.925e-5
-1.026, -8.925e-5
-1.025, -8.925e-5
-1.024, -8.925e-5
-1.023, -8.925e-5
-1.022, -8.925e-5
-1.021, -8.925e-5
-1.020, -8.925e-5
-1.019, -8.925e-5
-1.018, -8.925e-5
-1.017, -8.925e-5
-1.016, -8.925e-5
-1.015, -8.925e-5
-1.014, -8.925e-5
-1.013, -8.925e-5
-1.012, -8.925e-5
-1.011, -8.925e-5
-1.010, -8.925e-5
-1.009, -8.925e-5
-1.008, -8.925e-5
-1.007, -8.925e-5
-1.006, -8.925e-5
-1.005, -8.925e-5
-1.004, -8.925e-5
-1.003, -8.925e-5
-1.002, -9.234e-5
-1.001, -9.234e-5
