Sept. 14, 2024   15:25:59
Linear Sweep Voltammetry
File: c:/users/guazh/data/20240903_batch_252_500/2024-09-03-exp352\1acid_2ac-2024-09-14t15_22_49-lsvinphos\1acid_2ac_lsv_50mvs_efin_-2300mv.bin
Data Source:  Experiment
Instrument Model:  CHI760E
Header: LSV ran at 50 mVs with Efin at -2300mV
Note: 

Init E (V) = -0.6
Final E (V) = -2.3
Scan Rate (V/s) = 0.05
Sample Interval (V) = 0.001
Quiet Time (sec) = 2
Sensitivity (A/V) = 1e-4
Comp R (ohm) = 10.6

Results:

Channel 1:
Ep = -2.042V
ip = 5.432e-4A
Ah = 8.028e-4C

Potential/V, Current/A

-0.600, 3.472e-6
-0.601, 3.574e-6
-0.602, 3.623e-6
-0.603, 3.660e-6
-0.604, 3.697e-6
-0.605, 3.733e-6
-0.606, 3.767e-6
-0.607, 3.802e-6
-0.608, 3.839e-6
-0.609, 3.874e-6
-0.610, 3.906e-6
-0.611, 3.941e-6
-0.612, 3.974e-6
-0.613, 4.008e-6
-0.614, 4.043e-6
-0.615, 4.077e-6
-0.616, 4.112e-6
-0.617, 4.146e-6
-0.618, 4.178e-6
-0.619, 4.211e-6
-0.620, 4.245e-6
-0.621, 4.279e-6
-0.622, 4.313e-6
-0.623, 4.348e-6
-0.624, 4.382e-6
-0.625, 4.416e-6
-0.626, 4.450e-6
-0.627, 4.488e-6
-0.628, 4.523e-6
-0.629, 4.557e-6
-0.630, 4.593e-6
-0.631, 4.627e-6
-0.632, 4.661e-6
-0.633, 4.697e-6
-0.634, 4.730e-6
-0.635, 4.766e-6
-0.636, 4.801e-6
-0.637, 4.836e-6
-0.638, 4.871e-6
-0.639, 4.904e-6
-0.640, 4.940e-6
-0.641, 4.975e-6
-0.642, 5.009e-6
-0.643, 5.046e-6
-0.644, 5.080e-6
-0.645, 5.114e-6
-0.646, 5.149e-6
-0.647, 5.184e-6
-0.648, 5.219e-6
-0.649, 5.253e-6
-0.650, 5.288e-6
-0.651, 5.322e-6
-0.652, 5.357e-6
-0.653, 5.391e-6
-0.654, 5.424e-6
-0.655, 5.458e-6
-0.656, 5.493e-6
-0.657, 5.527e-6
-0.658, 5.562e-6
-0.659, 5.596e-6
-0.660, 5.629e-6
-0.661, 5.661e-6
-0.662, 5.695e-6
-0.663, 5.728e-6
-0.664, 5.761e-6
-0.665, 5.797e-6
-0.666, 5.831e-6
-0.667, 5.863e-6
-0.668, 5.893e-6
-0.669, 5.922e-6
-0.670, 5.953e-6
-0.671, 5.984e-6
-0.672, 6.019e-6
-0.673, 6.049e-6
-0.674, 6.079e-6
-0.675, 6.113e-6
-0.676, 6.142e-6
-0.677, 6.171e-6
-0.678, 6.201e-6
-0.679, 6.229e-6
-0.680, 6.258e-6
-0.681, 6.287e-6
-0.682, 6.317e-6
-0.683, 6.348e-6
-0.684, 6.376e-6
-0.685, 6.404e-6
-0.686, 6.432e-6
-0.687, 6.459e-6
-0.688, 6.487e-6
-0.689, 6.513e-6
-0.690, 6.541e-6
-0.691, 6.569e-6
-0.692, 6.594e-6
-0.693, 6.621e-6
-0.694, 6.646e-6
-0.695, 6.672e-6
-0.696, 6.695e-6
-0.697, 6.721e-6
-0.698, 6.745e-6
-0.699, 6.768e-6
-0.700, 6.792e-6
-0.701, 6.814e-6
-0.702, 6.837e-6
-0.703, 6.859e-6
-0.704, 6.881e-6
-0.705, 6.902e-6
-0.706, 6.922e-6
-0.707, 6.943e-6
-0.708, 6.963e-6
-0.709, 6.982e-6
-0.710, 7.002e-6
-0.711, 7.020e-6
-0.712, 7.038e-6
-0.713, 7.058e-6
-0.714, 7.075e-6
-0.715, 7.093e-6
-0.716, 7.109e-6
-0.717, 7.128e-6
-0.718, 7.145e-6
-0.719, 7.158e-6
-0.720, 7.173e-6
-0.721, 7.188e-6
-0.722, 7.201e-6
-0.723, 7.217e-6
-0.724, 7.229e-6
-0.725, 7.241e-6
-0.726, 7.254e-6
-0.727, 7.263e-6
-0.728, 7.276e-6
-0.729, 7.287e-6
-0.730, 7.297e-6
-0.731, 7.307e-6
-0.732, 7.318e-6
-0.733, 7.328e-6
-0.734, 7.336e-6
-0.735, 7.344e-6
-0.736, 7.354e-6
-0.737, 7.361e-6
-0.738, 7.368e-6
-0.739, 7.374e-6
-0.740, 7.381e-6
-0.741, 7.387e-6
-0.742, 7.393e-6
-0.743, 7.399e-6
-0.744, 7.403e-6
-0.745, 7.408e-6
-0.746, 7.411e-6
-0.747, 7.416e-6
-0.748, 7.419e-6
-0.749, 7.422e-6
-0.750, 7.423e-6
-0.751, 7.427e-6
-0.752, 7.428e-6
-0.753, 7.431e-6
-0.754, 7.430e-6
-0.755, 7.432e-6
-0.756, 7.432e-6
-0.757, 7.432e-6
-0.758, 7.433e-6
-0.759, 7.431e-6
-0.760, 7.431e-6
-0.761, 7.430e-6
-0.762, 7.428e-6
-0.763, 7.426e-6
-0.764, 7.423e-6
-0.765, 7.421e-6
-0.766, 7.418e-6
-0.767, 7.415e-6
-0.768, 7.414e-6
-0.769, 7.410e-6
-0.770, 7.404e-6
-0.771, 7.402e-6
-0.772, 7.396e-6
-0.773, 7.392e-6
-0.774, 7.385e-6
-0.775, 7.380e-6
-0.776, 7.376e-6
-0.777, 7.370e-6
-0.778, 7.364e-6
-0.779, 7.356e-6
-0.780, 7.349e-6
-0.781, 7.344e-6
-0.782, 7.336e-6
-0.783, 7.329e-6
-0.784, 7.320e-6
-0.785, 7.311e-6
-0.786, 7.303e-6
-0.787, 7.295e-6
-0.788, 7.287e-6
-0.789, 7.276e-6
-0.790, 7.269e-6
-0.791, 7.260e-6
-0.792, 7.249e-6
-0.793, 7.241e-6
-0.794, 7.231e-6
-0.795, 7.222e-6
-0.796, 7.212e-6
-0.797, 7.201e-6
-0.798, 7.192e-6
-0.799, 7.179e-6
-0.800, 7.170e-6
-0.801, 7.159e-6
-0.802, 7.147e-6
-0.803, 7.137e-6
-0.804, 7.125e-6
-0.805, 7.114e-6
-0.806, 7.104e-6
-0.807, 7.092e-6
-0.808, 7.082e-6
-0.809, 7.069e-6
-0.810, 7.055e-6
-0.811, 7.045e-6
-0.812, 7.035e-6
-0.813, 7.024e-6
-0.814, 7.012e-6
-0.815, 7.000e-6
-0.816, 6.990e-6
-0.817, 6.978e-6
-0.818, 6.965e-6
-0.819, 6.958e-6
-0.820, 6.948e-6
-0.821, 6.933e-6
-0.822, 6.922e-6
-0.823, 6.912e-6
-0.824, 6.899e-6
-0.825, 6.888e-6
-0.826, 6.877e-6
-0.827, 6.866e-6
-0.828, 6.855e-6
-0.829, 6.843e-6
-0.830, 6.832e-6
-0.831, 6.820e-6
-0.832, 6.808e-6
-0.833, 6.798e-6
-0.834, 6.785e-6
-0.835, 6.774e-6
-0.836, 6.764e-6
-0.837, 6.751e-6
-0.838, 6.741e-6
-0.839, 6.730e-6
-0.840, 6.718e-6
-0.841, 6.708e-6
-0.842, 6.695e-6
-0.843, 6.686e-6
-0.844, 6.674e-6
-0.845, 6.664e-6
-0.846, 6.655e-6
-0.847, 6.642e-6
-0.848, 6.630e-6
-0.849, 6.620e-6
-0.850, 6.608e-6
-0.851, 6.600e-6
-0.852, 6.588e-6
-0.853, 6.578e-6
-0.854, 6.568e-6
-0.855, 6.556e-6
-0.856, 6.547e-6
-0.857, 6.536e-6
-0.858, 6.525e-6
-0.859, 6.514e-6
-0.860, 6.505e-6
-0.861, 6.494e-6
-0.862, 6.485e-6
-0.863, 6.475e-6
-0.864, 6.464e-6
-0.865, 6.455e-6
-0.866, 6.446e-6
-0.867, 6.436e-6
-0.868, 6.427e-6
-0.869, 6.416e-6
-0.870, 6.407e-6
-0.871, 6.399e-6
-0.872, 6.390e-6
-0.873, 6.380e-6
-0.874, 6.370e-6
-0.875, 6.360e-6
-0.876, 6.351e-6
-0.877, 6.341e-6
-0.878, 6.334e-6
-0.879, 6.323e-6
-0.880, 6.314e-6
-0.881, 6.306e-6
-0.882, 6.295e-6
-0.883, 6.288e-6
-0.884, 6.279e-6
-0.885, 6.269e-6
-0.886, 6.262e-6
-0.887, 6.253e-6
-0.888, 6.245e-6
-0.889, 6.235e-6
-0.890, 6.227e-6
-0.891, 6.220e-6
-0.892, 6.213e-6
-0.893, 6.204e-6
-0.894, 6.196e-6
-0.895, 6.188e-6
-0.896, 6.182e-6
-0.897, 6.175e-6
-0.898, 6.166e-6
-0.899, 6.159e-6
-0.900, 6.151e-6
-0.901, 6.143e-6
-0.902, 6.135e-6
-0.903, 6.127e-6
-0.904, 6.120e-6
-0.905, 6.112e-6
-0.906, 6.105e-6
-0.907, 6.096e-6
-0.908, 6.090e-6
-0.909, 6.083e-6
-0.910, 6.074e-6
-0.911, 6.067e-6
-0.912, 6.061e-6
-0.913, 6.054e-6
-0.914, 6.046e-6
-0.915, 6.039e-6
-0.916, 6.032e-6
-0.917, 6.024e-6
-0.918, 6.019e-6
-0.919, 6.011e-6
-0.920, 6.003e-6
-0.921, 5.998e-6
-0.922, 5.991e-6
-0.923, 5.985e-6
-0.924, 5.977e-6
-0.925, 5.970e-6
-0.926, 5.967e-6
-0.927, 5.959e-6
-0.928, 5.954e-6
-0.929, 5.947e-6
-0.930, 5.940e-6
-0.931, 5.935e-6
-0.932, 5.929e-6
-0.933, 5.922e-6
-0.934, 5.918e-6
-0.935, 5.912e-6
-0.936, 5.906e-6
-0.937, 5.901e-6
-0.938, 5.895e-6
-0.939, 5.891e-6
-0.940, 5.885e-6
-0.941, 5.880e-6
-0.942, 5.873e-6
-0.943, 5.869e-6
-0.944, 5.863e-6
-0.945, 5.856e-6
-0.946, 5.851e-6
-0.947, 5.846e-6
-0.948, 5.842e-6
-0.949, 5.836e-6
-0.950, 5.830e-6
-0.951, 5.826e-6
-0.952, 5.820e-6
-0.953, 5.814e-6
-0.954, 5.809e-6
-0.955, 5.803e-6
-0.956, 5.799e-6
-0.957, 5.793e-6
-0.958, 5.790e-6
-0.959, 5.783e-6
-0.960, 5.779e-6
-0.961, 5.775e-6
-0.962, 5.768e-6
-0.963, 5.764e-6
-0.964, 5.759e-6
-0.965, 5.752e-6
-0.966, 5.749e-6
-0.967, 5.743e-6
-0.968, 5.738e-6
-0.969, 5.734e-6
-0.970, 5.729e-6
-0.971, 5.725e-6
-0.972, 5.718e-6
-0.973, 5.717e-6
-0.974, 5.714e-6
-0.975, 5.706e-6
-0.976, 5.702e-6
-0.977, 5.697e-6
-0.978, 5.691e-6
-0.979, 5.689e-6
-0.980, 5.684e-6
-0.981, 5.678e-6
-0.982, 5.674e-6
-0.983, 5.670e-6
-0.984, 5.666e-6
-0.985, 5.662e-6
-0.986, 5.658e-6
-0.987, 5.654e-6
-0.988, 5.650e-6
-0.989, 5.646e-6
-0.990, 5.641e-6
-0.991, 5.638e-6
-0.992, 5.635e-6
-0.993, 5.631e-6
-0.994, 5.627e-6
-0.995, 5.623e-6
-0.996, 5.619e-6
-0.997, 5.615e-6
-0.998, 5.612e-6
-0.999, 5.608e-6
-1.000, 5.603e-6
-1.001, 5.600e-6
-1.002, 5.594e-6
-1.003, 5.593e-6
-1.004, 5.589e-6
-1.005, 5.584e-6
-1.006, 5.582e-6
-1.007, 5.577e-6
-1.008, 5.573e-6
-1.009, 5.569e-6
-1.010, 5.566e-6
-1.011, 5.563e-6
-1.012, 5.559e-6
-1.013, 5.556e-6
-1.014, 5.551e-6
-1.015, 5.547e-6
-1.016, 5.544e-6
-1.017, 5.540e-6
-1.018, 5.536e-6
-1.019, 5.534e-6
-1.020, 5.529e-6
-1.021, 5.527e-6
-1.022, 5.523e-6
-1.023, 5.519e-6
-1.024, 5.518e-6
-1.025, 5.515e-6
-1.026, 5.511e-6
-1.027, 5.506e-6
-1.028, 5.504e-6
-1.029, 5.500e-6
-1.030, 5.498e-6
-1.031, 5.494e-6
-1.032, 5.491e-6
-1.033, 5.488e-6
-1.034, 5.484e-6
-1.035, 5.481e-6
-1.036, 5.479e-6
-1.037, 5.475e-6
-1.038, 5.473e-6
-1.039, 5.470e-6
-1.040, 5.467e-6
-1.041, 5.464e-6
-1.042, 5.460e-6
-1.043, 5.459e-6
-1.044, 5.456e-6
-1.045, 5.451e-6
-1.046, 5.449e-6
-1.047, 5.446e-6
-1.048, 5.444e-6
-1.049, 5.441e-6
-1.050, 5.438e-6
-1.051, 5.436e-6
-1.052, 5.433e-6
-1.053, 5.430e-6
-1.054, 5.428e-6
-1.055, 5.424e-6
-1.056, 5.423e-6
-1.057, 5.419e-6
-1.058, 5.417e-6
-1.059, 5.415e-6
-1.060, 5.412e-6
-1.061, 5.410e-6
-1.062, 5.408e-6
-1.063, 5.406e-6
-1.064, 5.403e-6
-1.065, 5.400e-6
-1.066, 5.399e-6
-1.067, 5.396e-6
-1.068, 5.394e-6
-1.069, 5.392e-6
-1.070, 5.391e-6
-1.071, 5.389e-6
-1.072, 5.386e-6
-1.073, 5.383e-6
-1.074, 5.382e-6
-1.075, 5.381e-6
-1.076, 5.379e-6
-1.077, 5.376e-6
-1.078, 5.375e-6
-1.079, 5.372e-6
-1.080, 5.368e-6
-1.081, 5.369e-6
-1.082, 5.366e-6
-1.083, 5.364e-6
-1.084, 5.362e-6
-1.085, 5.359e-6
-1.086, 5.359e-6
-1.087, 5.356e-6
-1.088, 5.355e-6
-1.089, 5.354e-6
-1.090, 5.351e-6
-1.091, 5.350e-6
-1.092, 5.349e-6
-1.093, 5.347e-6
-1.094, 5.346e-6
-1.095, 5.344e-6
-1.096, 5.342e-6
-1.097, 5.342e-6
-1.098, 5.340e-6
-1.099, 5.339e-6
-1.100, 5.336e-6
-1.101, 5.336e-6
-1.102, 5.335e-6
-1.103, 5.334e-6
-1.104, 5.332e-6
-1.105, 5.332e-6
-1.106, 5.332e-6
-1.107, 5.330e-6
-1.108, 5.327e-6
-1.109, 5.327e-6
-1.110, 5.324e-6
-1.111, 5.323e-6
-1.112, 5.323e-6
-1.113, 5.324e-6
-1.114, 5.323e-6
-1.115, 5.321e-6
-1.116, 5.321e-6
-1.117, 5.320e-6
-1.118, 5.320e-6
-1.119, 5.318e-6
-1.120, 5.317e-6
-1.121, 5.319e-6
-1.122, 5.316e-6
-1.123, 5.317e-6
-1.124, 5.317e-6
-1.125, 5.316e-6
-1.126, 5.315e-6
-1.127, 5.315e-6
-1.128, 5.313e-6
-1.129, 5.315e-6
-1.130, 5.312e-6
-1.131, 5.312e-6
-1.132, 5.309e-6
-1.133, 5.309e-6
-1.134, 5.311e-6
-1.135, 5.308e-6
-1.136, 5.307e-6
-1.137, 5.307e-6
-1.138, 5.304e-6
-1.139, 5.305e-6
-1.140, 5.304e-6
-1.141, 5.303e-6
-1.142, 5.303e-6
-1.143, 5.301e-6
-1.144, 5.301e-6
-1.145, 5.301e-6
-1.146, 5.301e-6
-1.147, 5.300e-6
-1.148, 5.300e-6
-1.149, 5.300e-6
-1.150, 5.298e-6
-1.151, 5.298e-6
-1.152, 5.298e-6
-1.153, 5.297e-6
-1.154, 5.296e-6
-1.155, 5.296e-6
-1.156, 5.296e-6
-1.157, 5.295e-6
-1.158, 5.296e-6
-1.159, 5.294e-6
-1.160, 5.294e-6
-1.161, 5.294e-6
-1.162, 5.293e-6
-1.163, 5.294e-6
-1.164, 5.295e-6
-1.165, 5.294e-6
-1.166, 5.295e-6
-1.167, 5.294e-6
-1.168, 5.295e-6
-1.169, 5.295e-6
-1.170, 5.293e-6
-1.171, 5.295e-6
-1.172, 5.295e-6
-1.173, 5.294e-6
-1.174, 5.295e-6
-1.175, 5.295e-6
-1.176, 5.295e-6
-1.177, 5.296e-6
-1.178, 5.297e-6
-1.179, 5.297e-6
-1.180, 5.298e-6
-1.181, 5.296e-6
-1.182, 5.297e-6
-1.183, 5.298e-6
-1.184, 5.299e-6
-1.185, 5.298e-6
-1.186, 5.299e-6
-1.187, 5.300e-6
-1.188, 5.301e-6
-1.189, 5.301e-6
-1.190, 5.303e-6
-1.191, 5.303e-6
-1.192, 5.304e-6
-1.193, 5.305e-6
-1.194, 5.307e-6
-1.195, 5.306e-6
-1.196, 5.307e-6
-1.197, 5.308e-6
-1.198, 5.309e-6
-1.199, 5.310e-6
-1.200, 5.310e-6
-1.201, 5.312e-6
-1.202, 5.313e-6
-1.203, 5.314e-6
-1.204, 5.315e-6
-1.205, 5.316e-6
-1.206, 5.318e-6
-1.207, 5.318e-6
-1.208, 5.320e-6
-1.209, 5.322e-6
-1.210, 5.322e-6
-1.211, 5.323e-6
-1.212, 5.324e-6
-1.213, 5.327e-6
-1.214, 5.329e-6
-1.215, 5.328e-6
-1.216, 5.331e-6
-1.217, 5.334e-6
-1.218, 5.334e-6
-1.219, 5.336e-6
-1.220, 5.337e-6
-1.221, 5.338e-6
-1.222, 5.341e-6
-1.223, 5.342e-6
-1.224, 5.345e-6
-1.225, 5.345e-6
-1.226, 5.347e-6
-1.227, 5.349e-6
-1.228, 5.352e-6
-1.229, 5.358e-6
-1.230, 5.358e-6
-1.231, 5.359e-6
-1.232, 5.361e-6
-1.233, 5.363e-6
-1.234, 5.364e-6
-1.235, 5.366e-6
-1.236, 5.368e-6
-1.237, 5.371e-6
-1.238, 5.372e-6
-1.239, 5.375e-6
-1.240, 5.377e-6
-1.241, 5.379e-6
-1.242, 5.381e-6
-1.243, 5.384e-6
-1.244, 5.386e-6
-1.245, 5.387e-6
-1.246, 5.389e-6
-1.247, 5.391e-6
-1.248, 5.394e-6
-1.249, 5.398e-6
-1.250, 5.398e-6
-1.251, 5.401e-6
-1.252, 5.403e-6
-1.253, 5.405e-6
-1.254, 5.408e-6
-1.255, 5.411e-6
-1.256, 5.413e-6
-1.257, 5.417e-6
-1.258, 5.418e-6
-1.259, 5.422e-6
-1.260, 5.423e-6
-1.261, 5.427e-6
-1.262, 5.430e-6
-1.263, 5.431e-6
-1.264, 5.436e-6
-1.265, 5.437e-6
-1.266, 5.439e-6
-1.267, 5.444e-6
-1.268, 5.446e-6
-1.269, 5.449e-6
-1.270, 5.452e-6
-1.271, 5.453e-6
-1.272, 5.457e-6
-1.273, 5.460e-6
-1.274, 5.464e-6
-1.275, 5.467e-6
-1.276, 5.470e-6
-1.277, 5.473e-6
-1.278, 5.477e-6
-1.279, 5.479e-6
-1.280, 5.485e-6
-1.281, 5.488e-6
-1.282, 5.491e-6
-1.283, 5.495e-6
-1.284, 5.498e-6
-1.285, 5.501e-6
-1.286, 5.505e-6
-1.287, 5.509e-6
-1.288, 5.511e-6
-1.289, 5.516e-6
-1.290, 5.517e-6
-1.291, 5.520e-6
-1.292, 5.525e-6
-1.293, 5.528e-6
-1.294, 5.533e-6
-1.295, 5.535e-6
-1.296, 5.538e-6
-1.297, 5.543e-6
-1.298, 5.546e-6
-1.299, 5.551e-6
-1.300, 5.555e-6
-1.301, 5.557e-6
-1.302, 5.561e-6
-1.303, 5.564e-6
-1.304, 5.569e-6
-1.305, 5.572e-6
-1.306, 5.576e-6
-1.307, 5.580e-6
-1.308, 5.585e-6
-1.309, 5.588e-6
-1.310, 5.592e-6
-1.311, 5.594e-6
-1.312, 5.601e-6
-1.313, 5.604e-6
-1.314, 5.606e-6
-1.315, 5.611e-6
-1.316, 5.615e-6
-1.317, 5.619e-6
-1.318, 5.624e-6
-1.319, 5.629e-6
-1.320, 5.632e-6
-1.321, 5.637e-6
-1.322, 5.641e-6
-1.323, 5.644e-6
-1.324, 5.650e-6
-1.325, 5.654e-6
-1.326, 5.657e-6
-1.327, 5.661e-6
-1.328, 5.666e-6
-1.329, 5.672e-6
-1.330, 5.675e-6
-1.331, 5.680e-6
-1.332, 5.686e-6
-1.333, 5.689e-6
-1.334, 5.695e-6
-1.335, 5.697e-6
-1.336, 5.704e-6
-1.337, 5.710e-6
-1.338, 5.714e-6
-1.339, 5.719e-6
-1.340, 5.722e-6
-1.341, 5.726e-6
-1.342, 5.732e-6
-1.343, 5.736e-6
-1.344, 5.744e-6
-1.345, 5.749e-6
-1.346, 5.753e-6
-1.347, 5.759e-6
-1.348, 5.763e-6
-1.349, 5.770e-6
-1.350, 5.774e-6
-1.351, 5.778e-6
-1.352, 5.785e-6
-1.353, 5.791e-6
-1.354, 5.794e-6
-1.355, 5.800e-6
-1.356, 5.804e-6
-1.357, 5.811e-6
-1.358, 5.815e-6
-1.359, 5.822e-6
-1.360, 5.827e-6
-1.361, 5.833e-6
-1.362, 5.838e-6
-1.363, 5.842e-6
-1.364, 5.848e-6
-1.365, 5.854e-6
-1.366, 5.859e-6
-1.367, 5.865e-6
-1.368, 5.870e-6
-1.369, 5.877e-6
-1.370, 5.882e-6
-1.371, 5.887e-6
-1.372, 5.894e-6
-1.373, 5.898e-6
-1.374, 5.905e-6
-1.375, 5.908e-6
-1.376, 5.914e-6
-1.377, 5.922e-6
-1.378, 5.925e-6
-1.379, 5.930e-6
-1.380, 5.936e-6
-1.381, 5.942e-6
-1.382, 5.950e-6
-1.383, 5.957e-6
-1.384, 5.962e-6
-1.385, 5.969e-6
-1.386, 5.975e-6
-1.387, 5.982e-6
-1.388, 5.988e-6
-1.389, 5.994e-6
-1.390, 6.001e-6
-1.391, 6.007e-6
-1.392, 6.013e-6
-1.393, 6.021e-6
-1.394, 6.028e-6
-1.395, 6.035e-6
-1.396, 6.040e-6
-1.397, 6.048e-6
-1.398, 6.056e-6
-1.399, 6.063e-6
-1.400, 6.070e-6
-1.401, 6.078e-6
-1.402, 6.083e-6
-1.403, 6.090e-6
-1.404, 6.098e-6
-1.405, 6.105e-6
-1.406, 6.113e-6
-1.407, 6.120e-6
-1.408, 6.128e-6
-1.409, 6.136e-6
-1.410, 6.143e-6
-1.411, 6.149e-6
-1.412, 6.157e-6
-1.413, 6.164e-6
-1.414, 6.174e-6
-1.415, 6.180e-6
-1.416, 6.186e-6
-1.417, 6.195e-6
-1.418, 6.203e-6
-1.419, 6.211e-6
-1.420, 6.218e-6
-1.421, 6.227e-6
-1.422, 6.235e-6
-1.423, 6.242e-6
-1.424, 6.252e-6
-1.425, 6.259e-6
-1.426, 6.267e-6
-1.427, 6.276e-6
-1.428, 6.284e-6
-1.429, 6.294e-6
-1.430, 6.302e-6
-1.431, 6.310e-6
-1.432, 6.320e-6
-1.433, 6.330e-6
-1.434, 6.340e-6
-1.435, 6.349e-6
-1.436, 6.357e-6
-1.437, 6.367e-6
-1.438, 6.377e-6
-1.439, 6.387e-6
-1.440, 6.397e-6
-1.441, 6.405e-6
-1.442, 6.416e-6
-1.443, 6.424e-6
-1.444, 6.435e-6
-1.445, 6.444e-6
-1.446, 6.455e-6
-1.447, 6.464e-6
-1.448, 6.474e-6
-1.449, 6.485e-6
-1.450, 6.494e-6
-1.451, 6.505e-6
-1.452, 6.516e-6
-1.453, 6.527e-6
-1.454, 6.539e-6
-1.455, 6.549e-6
-1.456, 6.559e-6
-1.457, 6.571e-6
-1.458, 6.581e-6
-1.459, 6.594e-6
-1.460, 6.605e-6
-1.461, 6.615e-6
-1.462, 6.628e-6
-1.463, 6.637e-6
-1.464, 6.650e-6
-1.465, 6.663e-6
-1.466, 6.675e-6
-1.467, 6.688e-6
-1.468, 6.698e-6
-1.469, 6.710e-6
-1.470, 6.723e-6
-1.471, 6.734e-6
-1.472, 6.748e-6
-1.473, 6.761e-6
-1.474, 6.774e-6
-1.475, 6.788e-6
-1.476, 6.801e-6
-1.477, 6.815e-6
-1.478, 6.827e-6
-1.479, 6.839e-6
-1.480, 6.854e-6
-1.481, 6.866e-6
-1.482, 6.879e-6
-1.483, 6.893e-6
-1.484, 6.908e-6
-1.485, 6.923e-6
-1.486, 6.937e-6
-1.487, 6.951e-6
-1.488, 6.964e-6
-1.489, 6.979e-6
-1.490, 6.993e-6
-1.491, 7.007e-6
-1.492, 7.023e-6
-1.493, 7.037e-6
-1.494, 7.053e-6
-1.495, 7.068e-6
-1.496, 7.083e-6
-1.497, 7.100e-6
-1.498, 7.115e-6
-1.499, 7.132e-6
-1.500, 7.149e-6
-1.501, 7.165e-6
-1.502, 7.181e-6
-1.503, 7.197e-6
-1.504, 7.216e-6
-1.505, 7.233e-6
-1.506, 7.248e-6
-1.507, 7.265e-6
-1.508, 7.282e-6
-1.509, 7.299e-6
-1.510, 7.317e-6
-1.511, 7.336e-6
-1.512, 7.353e-6
-1.513, 7.370e-6
-1.514, 7.389e-6
-1.515, 7.406e-6
-1.516, 7.424e-6
-1.517, 7.444e-6
-1.518, 7.463e-6
-1.519, 7.483e-6
-1.520, 7.502e-6
-1.521, 7.521e-6
-1.522, 7.540e-6
-1.523, 7.562e-6
-1.524, 7.581e-6
-1.525, 7.602e-6
-1.526, 7.621e-6
-1.527, 7.643e-6
-1.528, 7.662e-6
-1.529, 7.685e-6
-1.530, 7.706e-6
-1.531, 7.727e-6
-1.532, 7.750e-6
-1.533, 7.770e-6
-1.534, 7.793e-6
-1.535, 7.815e-6
-1.536, 7.836e-6
-1.537, 7.860e-6
-1.538, 7.883e-6
-1.539, 7.908e-6
-1.540, 7.930e-6
-1.541, 7.952e-6
-1.542, 7.979e-6
-1.543, 8.001e-6
-1.544, 8.024e-6
-1.545, 8.050e-6
-1.546, 8.071e-6
-1.547, 8.098e-6
-1.548, 8.123e-6
-1.549, 8.148e-6
-1.550, 8.177e-6
-1.551, 8.203e-6
-1.552, 8.231e-6
-1.553, 8.258e-6
-1.554, 8.283e-6
-1.555, 8.310e-6
-1.556, 8.336e-6
-1.557, 8.363e-6
-1.558, 8.389e-6
-1.559, 8.415e-6
-1.560, 8.445e-6
-1.561, 8.474e-6
-1.562, 8.501e-6
-1.563, 8.531e-6
-1.564, 8.560e-6
-1.565, 8.587e-6
-1.566, 8.615e-6
-1.567, 8.643e-6
-1.568, 8.674e-6
-1.569, 8.704e-6
-1.570, 8.734e-6
-1.571, 8.766e-6
-1.572, 8.798e-6
-1.573, 8.827e-6
-1.574, 8.857e-6
-1.575, 8.888e-6
-1.576, 8.919e-6
-1.577, 8.952e-6
-1.578, 8.982e-6
-1.579, 9.016e-6
-1.580, 9.051e-6
-1.581, 9.084e-6
-1.582, 9.119e-6
-1.583, 9.149e-6
-1.584, 9.186e-6
-1.585, 9.222e-6
-1.586, 9.257e-6
-1.587, 9.294e-6
-1.588, 9.331e-6
-1.589, 9.363e-6
-1.590, 9.400e-6
-1.591, 9.434e-6
-1.592, 9.473e-6
-1.593, 9.512e-6
-1.594, 9.547e-6
-1.595, 9.587e-6
-1.596, 9.624e-6
-1.597, 9.662e-6
-1.598, 9.702e-6
-1.599, 9.740e-6
-1.600, 9.783e-6
-1.601, 9.825e-6
-1.602, 9.864e-6
-1.603, 9.905e-6
-1.604, 9.948e-6
-1.605, 9.991e-6
-1.606, 1.003e-5
-1.607, 1.007e-5
-1.608, 1.012e-5
-1.609, 1.016e-5
-1.610, 1.020e-5
-1.611, 1.025e-5
-1.612, 1.029e-5
-1.613, 1.034e-5
-1.614, 1.039e-5
-1.615, 1.043e-5
-1.616, 1.048e-5
-1.617, 1.053e-5
-1.618, 1.058e-5
-1.619, 1.063e-5
-1.620, 1.068e-5
-1.621, 1.073e-5
-1.622, 1.078e-5
-1.623, 1.083e-5
-1.624, 1.088e-5
-1.625, 1.094e-5
-1.626, 1.099e-5
-1.627, 1.104e-5
-1.628, 1.110e-5
-1.629, 1.115e-5
-1.630, 1.121e-5
-1.631, 1.127e-5
-1.632, 1.133e-5
-1.633, 1.139e-5
-1.634, 1.145e-5
-1.635, 1.151e-5
-1.636, 1.157e-5
-1.637, 1.163e-5
-1.638, 1.170e-5
-1.639, 1.177e-5
-1.640, 1.183e-5
-1.641, 1.189e-5
-1.642, 1.196e-5
-1.643, 1.202e-5
-1.644, 1.208e-5
-1.645, 1.215e-5
-1.646, 1.222e-5
-1.647, 1.229e-5
-1.648, 1.236e-5
-1.649, 1.244e-5
-1.650, 1.251e-5
-1.651, 1.259e-5
-1.652, 1.267e-5
-1.653, 1.274e-5
-1.654, 1.283e-5
-1.655, 1.291e-5
-1.656, 1.299e-5
-1.657, 1.307e-5
-1.658, 1.316e-5
-1.659, 1.324e-5
-1.660, 1.333e-5
-1.661, 1.342e-5
-1.662, 1.351e-5
-1.663, 1.360e-5
-1.664, 1.370e-5
-1.665, 1.379e-5
-1.666, 1.389e-5
-1.667, 1.399e-5
-1.668, 1.408e-5
-1.669, 1.418e-5
-1.670, 1.429e-5
-1.671, 1.440e-5
-1.672, 1.450e-5
-1.673, 1.461e-5
-1.674, 1.472e-5
-1.675, 1.484e-5
-1.676, 1.495e-5
-1.677, 1.506e-5
-1.678, 1.519e-5
-1.679, 1.531e-5
-1.680, 1.543e-5
-1.681, 1.556e-5
-1.682, 1.569e-5
-1.683, 1.582e-5
-1.684, 1.596e-5
-1.685, 1.609e-5
-1.686, 1.624e-5
-1.687, 1.638e-5
-1.688, 1.652e-5
-1.689, 1.668e-5
-1.690, 1.683e-5
-1.691, 1.698e-5
-1.692, 1.714e-5
-1.693, 1.730e-5
-1.694, 1.746e-5
-1.695, 1.763e-5
-1.696, 1.779e-5
-1.697, 1.796e-5
-1.698, 1.813e-5
-1.699, 1.831e-5
-1.700, 1.849e-5
-1.701, 1.868e-5
-1.702, 1.887e-5
-1.703, 1.907e-5
-1.704, 1.927e-5
-1.705, 1.947e-5
-1.706, 1.968e-5
-1.707, 1.989e-5
-1.708, 2.010e-5
-1.709, 2.032e-5
-1.710, 2.054e-5
-1.711, 2.077e-5
-1.712, 2.100e-5
-1.713, 2.124e-5
-1.714, 2.148e-5
-1.715, 2.173e-5
-1.716, 2.198e-5
-1.717, 2.223e-5
-1.718, 2.250e-5
-1.719, 2.276e-5
-1.720, 2.304e-5
-1.721, 2.332e-5
-1.722, 2.361e-5
-1.723, 2.390e-5
-1.724, 2.421e-5
-1.725, 2.450e-5
-1.726, 2.481e-5
-1.727, 2.513e-5
-1.728, 2.545e-5
-1.729, 2.579e-5
-1.730, 2.612e-5
-1.731, 2.646e-5
-1.732, 2.681e-5
-1.733, 2.717e-5
-1.734, 2.754e-5
-1.735, 2.790e-5
-1.736, 2.827e-5
-1.737, 2.866e-5
-1.738, 2.906e-5
-1.739, 2.947e-5
-1.740, 2.988e-5
-1.741, 3.030e-5
-1.742, 3.073e-5
-1.743, 3.118e-5
-1.744, 3.163e-5
-1.745, 3.209e-5
-1.746, 3.256e-5
-1.747, 3.303e-5
-1.748, 3.353e-5
-1.749, 3.402e-5
-1.750, 3.453e-5
-1.751, 3.504e-5
-1.752, 3.556e-5
-1.753, 3.610e-5
-1.754, 3.665e-5
-1.755, 3.722e-5
-1.756, 3.778e-5
-1.757, 3.837e-5
-1.758, 3.896e-5
-1.759, 3.957e-5
-1.760, 4.019e-5
-1.761, 4.083e-5
-1.762, 4.148e-5
-1.763, 4.213e-5
-1.764, 4.280e-5
-1.765, 4.348e-5
-1.766, 4.417e-5
-1.767, 4.488e-5
-1.768, 4.560e-5
-1.769, 4.635e-5
-1.770, 4.710e-5
-1.771, 4.787e-5
-1.772, 4.865e-5
-1.773, 4.945e-5
-1.774, 5.027e-5
-1.775, 5.111e-5
-1.776, 5.195e-5
-1.777, 5.281e-5
-1.778, 5.369e-5
-1.779, 5.458e-5
-1.780, 5.550e-5
-1.781, 5.643e-5
-1.782, 5.738e-5
-1.783, 5.835e-5
-1.784, 5.934e-5
-1.785, 6.034e-5
-1.786, 6.135e-5
-1.787, 6.239e-5
-1.788, 6.344e-5
-1.789, 6.453e-5
-1.790, 6.564e-5
-1.791, 6.676e-5
-1.792, 6.790e-5
-1.793, 6.907e-5
-1.794, 7.025e-5
-1.795, 7.147e-5
-1.796, 7.271e-5
-1.797, 7.396e-5
-1.798, 7.523e-5
-1.799, 7.651e-5
-1.800, 7.783e-5
-1.801, 7.919e-5
-1.802, 8.056e-5
-1.803, 8.194e-5
-1.804, 8.335e-5
-1.805, 8.479e-5
-1.806, 8.625e-5
-1.807, 8.774e-5
-1.808, 8.925e-5
-1.809, 9.079e-5
-1.810, 9.236e-5
-1.811, 9.396e-5
-1.812, 9.560e-5
-1.813, 9.724e-5
-1.814, 9.892e-5
-1.815, 1.006e-4
-1.816, 1.023e-4
-1.817, 1.041e-4
-1.818, 1.059e-4
-1.819, 1.077e-4
-1.820, 1.096e-4
-1.821, 1.114e-4
-1.822, 1.133e-4
-1.823, 1.152e-4
-1.824, 1.172e-4
-1.825, 1.192e-4
-1.826, 1.212e-4
-1.827, 1.233e-4
-1.828, 1.253e-4
-1.829, 1.274e-4
-1.830, 1.296e-4
-1.831, 1.317e-4
-1.832, 1.339e-4
-1.833, 1.362e-4
-1.834, 1.384e-4
-1.835, 1.407e-4
-1.836, 1.430e-4
-1.837, 1.453e-4
-1.838, 1.477e-4
-1.839, 1.501e-4
-1.840, 1.525e-4
-1.841, 1.550e-4
-1.842, 1.575e-4
-1.843, 1.600e-4
-1.844, 1.625e-4
-1.845, 1.651e-4
-1.846, 1.677e-4
-1.847, 1.703e-4
-1.848, 1.729e-4
-1.849, 1.756e-4
-1.850, 1.782e-4
-1.851, 1.809e-4
-1.852, 1.836e-4
-1.853, 1.863e-4
-1.854, 1.890e-4
-1.855, 1.918e-4
-1.856, 1.945e-4
-1.857, 1.972e-4
-1.858, 1.999e-4
-1.859, 2.025e-4
-1.860, 2.051e-4
-1.861, 2.077e-4
-1.862, 2.101e-4
-1.863, 2.125e-4
-1.864, 2.148e-4
-1.865, 2.170e-4
-1.866, 2.191e-4
-1.867, 2.211e-4
-1.868, 2.230e-4
-1.869, 2.248e-4
-1.870, 2.267e-4
-1.871, 2.286e-4
-1.872, 2.305e-4
-1.873, 2.325e-4
-1.874, 2.344e-4
-1.875, 2.364e-4
-1.876, 2.385e-4
-1.877, 2.406e-4
-1.878, 2.427e-4
-1.879, 2.449e-4
-1.880, 2.471e-4
-1.881, 2.494e-4
-1.882, 2.517e-4
-1.883, 2.540e-4
-1.884, 2.564e-4
-1.885, 2.588e-4
-1.886, 2.613e-4
-1.887, 2.638e-4
-1.888, 2.664e-4
-1.889, 2.690e-4
-1.890, 2.716e-4
-1.891, 2.743e-4
-1.892, 2.770e-4
-1.893, 2.798e-4
-1.894, 2.826e-4
-1.895, 2.854e-4
-1.896, 2.883e-4
-1.897, 2.912e-4
-1.898, 2.941e-4
-1.899, 2.971e-4
-1.900, 3.001e-4
-1.901, 3.032e-4
-1.902, 3.063e-4
-1.903, 3.094e-4
-1.904, 3.126e-4
-1.905, 3.158e-4
-1.906, 3.190e-4
-1.907, 3.223e-4
-1.908, 3.256e-4
-1.909, 3.290e-4
-1.910, 3.323e-4
-1.911, 3.357e-4
-1.912, 3.392e-4
-1.913, 3.427e-4
-1.914, 3.462e-4
-1.915, 3.498e-4
-1.916, 3.534e-4
-1.917, 3.570e-4
-1.918, 3.607e-4
-1.919, 3.644e-4
-1.920, 3.681e-4
-1.921, 3.719e-4
-1.922, 3.756e-4
-1.923, 3.795e-4
-1.924, 3.833e-4
-1.925, 3.872e-4
-1.926, 3.911e-4
-1.927, 3.951e-4
-1.928, 3.991e-4
-1.929, 4.031e-4
-1.930, 4.071e-4
-1.931, 4.112e-4
-1.932, 4.153e-4
-1.933, 4.195e-4
-1.934, 4.236e-4
-1.935, 4.277e-4
-1.936, 4.319e-4
-1.937, 4.362e-4
-1.938, 4.405e-4
-1.939, 4.448e-4
-1.940, 4.491e-4
-1.941, 4.535e-4
-1.942, 4.579e-4
-1.943, 4.623e-4
-1.944, 4.668e-4
-1.945, 4.713e-4
-1.946, 4.758e-4
-1.947, 4.804e-4
-1.948, 4.849e-4
-1.949, 4.895e-4
-1.950, 4.942e-4
-1.951, 4.989e-4
-1.952, 5.035e-4
-1.953, 5.082e-4
-1.954, 5.129e-4
-1.955, 5.176e-4
-1.956, 5.224e-4
-1.957, 5.271e-4
-1.958, 5.319e-4
-1.959, 5.368e-4
-1.960, 5.417e-4
-1.961, 5.466e-4
-1.962, 5.516e-4
-1.963, 5.565e-4
-1.964, 5.614e-4
-1.965, 5.663e-4
-1.966, 5.714e-4
-1.967, 5.765e-4
-1.968, 5.814e-4
-1.969, 5.864e-4
-1.970, 5.915e-4
-1.971, 5.967e-4
-1.972, 6.019e-4
-1.973, 6.071e-4
-1.974, 6.123e-4
-1.975, 6.175e-4
-1.976, 6.228e-4
-1.977, 6.280e-4
-1.978, 6.333e-4
-1.979, 6.386e-4
-1.980, 6.439e-4
-1.981, 6.493e-4
-1.982, 6.547e-4
-1.983, 6.601e-4
-1.984, 6.656e-4
-1.985, 6.711e-4
-1.986, 6.766e-4
-1.987, 6.821e-4
-1.988, 6.876e-4
-1.989, 6.932e-4
-1.990, 6.988e-4
-1.991, 7.044e-4
-1.992, 7.100e-4
-1.993, 7.156e-4
-1.994, 7.213e-4
-1.995, 7.270e-4
-1.996, 7.328e-4
-1.997, 7.386e-4
-1.998, 7.443e-4
-1.999, 7.501e-4
-2.000, 7.559e-4
-2.001, 7.617e-4
-2.002, 7.676e-4
-2.003, 7.734e-4
-2.004, 7.792e-4
-2.005, 7.852e-4
-2.006, 7.911e-4
-2.007, 7.971e-4
-2.008, 8.031e-4
-2.009, 8.091e-4
-2.010, 8.152e-4
-2.011, 8.213e-4
-2.012, 8.274e-4
-2.013, 8.335e-4
-2.014, 8.396e-4
-2.015, 8.457e-4
-2.016, 8.518e-4
-2.017, 8.580e-4
-2.018, 8.643e-4
-2.019, 8.706e-4
-2.020, 8.768e-4
-2.021, 8.831e-4
-2.022, 8.895e-4
-2.023, 8.958e-4
-2.024, 9.021e-4
-2.025, 9.085e-4
-2.026, 9.147e-4
-2.027, 9.211e-4
-2.028, 9.274e-4
-2.029, 9.337e-4
-2.030, 9.401e-4
-2.031, 9.465e-4
-2.032, 9.530e-4
-2.033, 9.596e-4
-2.034, 9.661e-4
-2.035, 9.726e-4
-2.036, 9.790e-4
-2.037, 9.855e-4
-2.038, 9.921e-4
-2.039, 9.987e-4
-2.040, 1.005e-3
-2.041, 1.010e-3
-2.042, 1.011e-3
-2.043, 1.011e-3
-2.044, 1.011e-3
-2.045, 1.011e-3
-2.046, 1.011e-3
-2.047, 1.011e-3
-2.048, 1.011e-3
-2.049, 1.011e-3
-2.050, 1.011e-3
-2.051, 1.011e-3
-2.052, 1.011e-3
-2.053, 1.011e-3
-2.054, 1.011e-3
-2.055, 1.011e-3
-2.056, 1.011e-3
-2.057, 1.011e-3
-2.058, 1.011e-3
-2.059, 1.011e-3
-2.060, 1.011e-3
-2.061, 1.011e-3
-2.062, 1.011e-3
-2.063, 1.011e-3
-2.064, 1.011e-3
-2.065, 1.011e-3
-2.066, 1.011e-3
-2.067, 1.011e-3
-2.068, 1.011e-3
-2.069, 1.011e-3
-2.070, 1.011e-3
-2.071, 1.011e-3
-2.072, 1.011e-3
-2.073, 1.011e-3
-2.074, 1.011e-3
-2.075, 1.011e-3
-2.076, 1.011e-3
-2.077, 1.011e-3
-2.078, 1.011e-3
-2.079, 1.011e-3
-2.080, 1.011e-3
-2.081, 1.011e-3
-2.082, 1.011e-3
-2.083, 1.011e-3
-2.084, 1.011e-3
-2.085, 1.011e-3
-2.086, 1.011e-3
-2.087, 1.011e-3
-2.088, 1.011e-3
-2.089, 1.011e-3
-2.090, 1.011e-3
-2.091, 1.011e-3
-2.092, 1.011e-3
-2.093, 1.011e-3
-2.094, 1.011e-3
-2.095, 1.011e-3
-2.096, 1.011e-3
-2.097, 1.011e-3
-2.098, 1.011e-3
-2.099, 1.011e-3
-2.100, 1.011e-3
-2.101, 1.011e-3
-2.102, 1.011e-3
-2.103, 1.011e-3
-2.104, 1.011e-3
-2.105, 1.011e-3
-2.106, 1.011e-3
-2.107, 1.011e-3
-2.108, 1.011e-3
-2.109, 1.011e-3
-2.110, 1.011e-3
-2.111, 1.011e-3
-2.112, 1.011e-3
-2.113, 1.011e-3
-2.114, 1.011e-3
-2.115, 1.011e-3
-2.116, 1.011e-3
-2.117, 1.011e-3
-2.118, 1.011e-3
-2.119, 1.011e-3
-2.120, 1.011e-3
-2.121, 1.011e-3
-2.122, 1.011e-3
-2.123, 1.011e-3
-2.124, 1.011e-3
-2.125, 1.011e-3
-2.126, 1.011e-3
-2.127, 1.011e-3
-2.128, 1.011e-3
-2.129, 1.011e-3
-2.130, 1.011e-3
-2.131, 1.011e-3
-2.132, 1.011e-3
-2.133, 1.011e-3
-2.134, 1.011e-3
-2.135, 1.011e-3
-2.136, 1.011e-3
-2.137, 1.011e-3
-2.138, 1.011e-3
-2.139, 1.011e-3
-2.140, 1.011e-3
-2.141, 1.011e-3
-2.142, 1.011e-3
-2.143, 1.011e-3
-2.144, 1.011e-3
-2.145, 1.011e-3
-2.146, 1.011e-3
-2.147, 1.011e-3
-2.148, 1.011e-3
-2.149, 1.011e-3
-2.150, 1.011e-3
-2.151, 1.011e-3
-2.152, 1.011e-3
-2.153, 1.011e-3
-2.154, 1.011e-3
-2.155, 1.011e-3
-2.156, 1.011e-3
-2.157, 1.011e-3
-2.158, 1.011e-3
-2.159, 1.011e-3
-2.160, 1.011e-3
-2.161, 1.011e-3
-2.162, 1.011e-3
-2.163, 1.011e-3
-2.164, 1.011e-3
-2.165, 1.011e-3
-2.166, 1.011e-3
-2.167, 1.011e-3
-2.168, 1.011e-3
-2.169, 1.011e-3
-2.170, 1.011e-3
-2.171, 1.011e-3
-2.172, 1.011e-3
-2.173, 1.011e-3
-2.174, 1.011e-3
-2.175, 1.011e-3
-2.176, 1.011e-3
-2.177, 1.011e-3
-2.178, 1.011e-3
-2.179, 1.011e-3
-2.180, 1.011e-3
-2.181, 1.011e-3
-2.182, 1.011e-3
-2.183, 1.011e-3
-2.184, 1.011e-3
-2.185, 1.011e-3
-2.186, 1.011e-3
-2.187, 1.011e-3
-2.188, 1.011e-3
-2.189, 1.011e-3
-2.190, 1.011e-3
-2.191, 1.011e-3
-2.192, 1.011e-3
-2.193, 1.011e-3
-2.194, 1.011e-3
-2.195, 1.011e-3
-2.196, 1.011e-3
-2.197, 1.011e-3
-2.198, 1.011e-3
-2.199, 1.011e-3
-2.200, 1.011e-3
-2.201, 1.011e-3
-2.202, 1.011e-3
-2.203, 1.011e-3
-2.204, 1.011e-3
-2.205, 1.011e-3
-2.206, 1.011e-3
-2.207, 1.011e-3
-2.208, 1.011e-3
-2.209, 1.011e-3
-2.210, 1.011e-3
-2.211, 1.011e-3
-2.212, 1.011e-3
-2.213, 1.011e-3
-2.214, 1.011e-3
-2.215, 1.011e-3
-2.216, 1.011e-3
-2.217, 1.011e-3
-2.218, 1.011e-3
-2.219, 1.011e-3
-2.220, 1.011e-3
-2.221, 1.011e-3
-2.222, 1.011e-3
-2.223, 1.011e-3
-2.224, 1.011e-3
-2.225, 1.011e-3
-2.226, 1.011e-3
-2.227, 1.011e-3
-2.228, 1.011e-3
-2.229, 1.011e-3
-2.230, 1.011e-3
-2.231, 1.011e-3
-2.232, 1.011e-3
-2.233, 1.011e-3
-2.234, 1.011e-3
-2.235, 1.011e-3
-2.236, 1.011e-3
-2.237, 1.011e-3
-2.238, 1.011e-3
-2.239, 1.011e-3
-2.240, 1.011e-3
-2.241, 1.011e-3
-2.242, 1.011e-3
-2.243, 1.011e-3
-2.244, 1.011e-3
-2.245, 1.011e-3
-2.246, 1.011e-3
-2.247, 1.011e-3
-2.248, 1.011e-3
-2.249, 1.011e-3
-2.250, 1.011e-3
-2.251, 1.011e-3
-2.252, 1.011e-3
-2.253, 1.011e-3
-2.254, 1.011e-3
-2.255, 1.011e-3
-2.256, 1.011e-3
-2.257, 1.011e-3
-2.258, 1.011e-3
-2.259, 1.011e-3
-2.260, 1.011e-3
-2.261, 1.011e-3
-2.262, 1.011e-3
-2.263, 1.011e-3
-2.264, 1.011e-3
-2.265, 1.011e-3
-2.266, 1.011e-3
-2.267, 1.011e-3
-2.268, 1.011e-3
-2.269, 1.011e-3
-2.270, 1.011e-3
-2.271, 1.011e-3
-2.272, 1.011e-3
-2.273, 1.011e-3
-2.274, 1.011e-3
-2.275, 1.011e-3
-2.276, 1.011e-3
-2.277, 1.011e-3
-2.278, 1.011e-3
-2.279, 1.011e-3
-2.280, 1.011e-3
-2.281, 1.011e-3
-2.282, 1.011e-3
-2.283, 1.011e-3
-2.284, 1.011e-3
-2.285, 1.011e-3
-2.286, 1.011e-3
-2.287, 1.011e-3
-2.288, 1.011e-3
-2.289, 1.011e-3
-2.290, 1.011e-3
-2.291, 1.011e-3
-2.292, 1.011e-3
-2.293, 1.011e-3
-2.294, 1.011e-3
-2.295, 1.011e-3
-2.296, 1.011e-3
-2.297, 1.011e-3
-2.298, 1.011e-3
-2.299, 1.011e-3
