Aug. 22, 2024   21:41:27
Cyclic Voltammetry
File: c:/users/guazh/data/20240813_batch_94_500/2024-08-15-exp163\exp163-2024-08-22t21_20_58-arkoh\exp163_cv_sr_600mvs_efin_-1800mv.bin
Data Source:  Experiment
Instrument Model:  CHI760E
Header: CV ran at 600 mVs
Note: 

Init E (V) = -1
High E (V) = -1
Low E (V) = -1.8
Final E (V) = -1
Init P/N = N
Scan Rate (V/s) = 0.6
Segment = 3
Sample Interval (V) = 0.001
Quiet Time (sec) = 2
Sensitivity (A/V) = 0.01
Comp R (ohm) = 1.6

Results:

Channel 1:
Segment 1:
Ep = -1.290V
ip = 7.789e-6A
Ah = 1.091e-6C

Segment 2:
Segment 3:

Potential/V, Current/A

-1.000, 3.239e-6
-1.001, 3.239e-6
-1.002, 3.239e-6
-1.003, 3.239e-6
-1.004, 6.322e-6
-1.005, 3.239e-6
-1.006, 3.239e-6
-1.007, 3.239e-6
-1.008, 3.239e-6
-1.009, 3.239e-6
-1.010, 3.239e-6
-1.011, 3.239e-6
-1.012, 3.239e-6
-1.013, 3.239e-6
-1.014, 3.239e-6
-1.015, 3.239e-6
-1.016, 3.239e-6
-1.017, 3.239e-6
-1.018, 3.239e-6
-1.019, 6.322e-6
-1.020, 3.239e-6
-1.021, 3.239e-6
-1.022, 6.322e-6
-1.023, 6.322e-6
-1.024, 6.322e-6
-1.025, 3.239e-6
-1.026, 3.239e-6
-1.027, 6.322e-6
-1.028, 6.322e-6
-1.029, 6.322e-6
-1.030, 6.322e-6
-1.031, 6.322e-6
-1.032, 6.322e-6
-1.033, 6.322e-6
-1.034, 6.322e-6
-1.035, 6.322e-6
-1.036, 6.322e-6
-1.037, 6.322e-6
-1.038, 6.322e-6
-1.039, 6.322e-6
-1.040, 6.322e-6
-1.041, 6.322e-6
-1.042, 6.322e-6
-1.043, 6.322e-6
-1.044, 6.322e-6
-1.045, 6.322e-6
-1.046, 6.322e-6
-1.047, 6.322e-6
-1.048, 6.322e-6
-1.049, 6.322e-6
-1.050, 6.322e-6
-1.051, 6.322e-6
-1.052, 6.322e-6
-1.053, 6.322e-6
-1.054, 6.322e-6
-1.055, 6.322e-6
-1.056, 6.322e-6
-1.057, 6.322e-6
-1.058, 6.322e-6
-1.059, 6.322e-6
-1.060, 6.322e-6
-1.061, 6.322e-6
-1.062, 6.322e-6
-1.063, 6.322e-6
-1.064, 6.322e-6
-1.065, 6.322e-6
-1.066, 6.322e-6
-1.067, 6.322e-6
-1.068, 6.322e-6
-1.069, 6.322e-6
-1.070, 6.322e-6
-1.071, 6.322e-6
-1.072, 6.322e-6
-1.073, 6.322e-6
-1.074, 6.322e-6
-1.075, 6.322e-6
-1.076, 6.322e-6
-1.077, 6.322e-6
-1.078, 6.322e-6
-1.079, 6.322e-6
-1.080, 6.322e-6
-1.081, 6.322e-6
-1.082, 6.322e-6
-1.083, 6.322e-6
-1.084, 6.322e-6
-1.085, 6.322e-6
-1.086, 6.322e-6
-1.087, 9.405e-6
-1.088, 6.322e-6
-1.089, 6.322e-6
-1.090, 9.405e-6
-1.091, 6.322e-6
-1.092, 9.405e-6
-1.093, 9.405e-6
-1.094, 6.322e-6
-1.095, 6.322e-6
-1.096, 9.405e-6
-1.097, 6.322e-6
-1.098, 9.405e-6
-1.099, 6.322e-6
-1.100, 9.405e-6
-1.101, 9.405e-6
-1.102, 9.405e-6
-1.103, 6.322e-6
-1.104, 9.405e-6
-1.105, 6.322e-6
-1.106, 9.405e-6
-1.107, 9.405e-6
-1.108, 6.322e-6
-1.109, 6.322e-6
-1.110, 6.322e-6
-1.111, 6.322e-6
-1.112, 6.322e-6
-1.113, 6.322e-6
-1.114, 9.405e-6
-1.115, 9.405e-6
-1.116, 9.405e-6
-1.117, 6.322e-6
-1.118, 9.405e-6
-1.119, 6.322e-6
-1.120, 6.322e-6
-1.121, 9.405e-6
-1.122, 9.405e-6
-1.123, 6.322e-6
-1.124, 9.405e-6
-1.125, 6.322e-6
-1.126, 6.322e-6
-1.127, 9.405e-6
-1.128, 9.405e-6
-1.129, 9.405e-6
-1.130, 9.405e-6
-1.131, 9.405e-6
-1.132, 9.405e-6
-1.133, 9.405e-6
-1.134, 9.405e-6
-1.135, 9.405e-6
-1.136, 9.405e-6
-1.137, 9.405e-6
-1.138, 9.405e-6
-1.139, 9.405e-6
-1.140, 9.405e-6
-1.141, 9.405e-6
-1.142, 9.405e-6
-1.143, 9.405e-6
-1.144, 9.405e-6
-1.145, 9.405e-6
-1.146, 9.405e-6
-1.147, 9.405e-6
-1.148, 9.405e-6
-1.149, 9.405e-6
-1.150, 9.405e-6
-1.151, 9.405e-6
-1.152, 9.405e-6
-1.153, 9.405e-6
-1.154, 9.405e-6
-1.155, 9.405e-6
-1.156, 9.405e-6
-1.157, 9.405e-6
-1.158, 9.405e-6
-1.159, 9.405e-6
-1.160, 9.405e-6
-1.161, 9.405e-6
-1.162, 9.405e-6
-1.163, 9.405e-6
-1.164, 9.405e-6
-1.165, 9.405e-6
-1.166, 9.405e-6
-1.167, 9.405e-6
-1.168, 9.405e-6
-1.169, 9.405e-6
-1.170, 9.405e-6
-1.171, 9.405e-6
-1.172, 9.405e-6
-1.173, 9.405e-6
-1.174, 9.405e-6
-1.175, 9.405e-6
-1.176, 9.405e-6
-1.177, 9.405e-6
-1.178, 9.405e-6
-1.179, 9.405e-6
-1.180, 9.405e-6
-1.181, 9.405e-6
-1.182, 9.405e-6
-1.183, 9.405e-6
-1.184, 9.405e-6
-1.185, 9.405e-6
-1.186, 9.405e-6
-1.187, 9.405e-6
-1.188, 9.405e-6
-1.189, 9.405e-6
-1.190, 1.249e-5
-1.191, 9.405e-6
-1.192, 1.249e-5
-1.193, 9.405e-6
-1.194, 9.405e-6
-1.195, 9.405e-6
-1.196, 1.249e-5
-1.197, 1.249e-5
-1.198, 9.405e-6
-1.199, 1.249e-5
-1.200, 1.249e-5
-1.201, 1.249e-5
-1.202, 1.249e-5
-1.203, 9.405e-6
-1.204, 1.249e-5
-1.205, 9.405e-6
-1.206, 1.249e-5
-1.207, 9.405e-6
-1.208, 1.249e-5
-1.209, 1.249e-5
-1.210, 1.249e-5
-1.211, 9.405e-6
-1.212, 1.249e-5
-1.213, 1.249e-5
-1.214, 1.249e-5
-1.215, 9.405e-6
-1.216, 1.249e-5
-1.217, 9.405e-6
-1.218, 9.405e-6
-1.219, 1.249e-5
-1.220, 9.405e-6
-1.221, 9.405e-6
-1.222, 1.249e-5
-1.223, 9.405e-6
-1.224, 9.405e-6
-1.225, 1.249e-5
-1.226, 9.405e-6
-1.227, 1.249e-5
-1.228, 1.249e-5
-1.229, 1.249e-5
-1.230, 1.249e-5
-1.231, 1.249e-5
-1.232, 9.405e-6
-1.233, 1.249e-5
-1.234, 1.249e-5
-1.235, 1.249e-5
-1.236, 1.249e-5
-1.237, 1.249e-5
-1.238, 1.249e-5
-1.239, 1.249e-5
-1.240, 1.249e-5
-1.241, 1.249e-5
-1.242, 1.249e-5
-1.243, 1.249e-5
-1.244, 1.249e-5
-1.245, 1.249e-5
-1.246, 1.249e-5
-1.247, 1.249e-5
-1.248, 1.249e-5
-1.249, 1.249e-5
-1.250, 1.249e-5
-1.251, 1.249e-5
-1.252, 1.249e-5
-1.253, 1.249e-5
-1.254, 1.249e-5
-1.255, 1.249e-5
-1.256, 1.249e-5
-1.257, 1.249e-5
-1.258, 1.249e-5
-1.259, 1.249e-5
-1.260, 1.249e-5
-1.261, 1.249e-5
-1.262, 1.249e-5
-1.263, 1.249e-5
-1.264, 1.249e-5
-1.265, 1.249e-5
-1.266, 1.249e-5
-1.267, 1.249e-5
-1.268, 1.249e-5
-1.269, 1.249e-5
-1.270, 1.249e-5
-1.271, 1.249e-5
-1.272, 1.249e-5
-1.273, 1.249e-5
-1.274, 1.249e-5
-1.275, 1.249e-5
-1.276, 1.249e-5
-1.277, 1.249e-5
-1.278, 1.249e-5
-1.279, 1.249e-5
-1.280, 1.249e-5
-1.281, 1.249e-5
-1.282, 1.249e-5
-1.283, 1.249e-5
-1.284, 1.249e-5
-1.285, 1.249e-5
-1.286, 1.249e-5
-1.287, 1.249e-5
-1.288, 1.249e-5
-1.289, 1.249e-5
-1.290, 1.557e-5
-1.291, 1.249e-5
-1.292, 1.557e-5
-1.293, 1.557e-5
-1.294, 1.557e-5
-1.295, 1.557e-5
-1.296, 1.249e-5
-1.297, 1.249e-5
-1.298, 1.557e-5
-1.299, 1.557e-5
-1.300, 1.557e-5
-1.301, 1.557e-5
-1.302, 1.249e-5
-1.303, 1.249e-5
-1.304, 1.557e-5
-1.305, 1.557e-5
-1.306, 1.249e-5
-1.307, 1.557e-5
-1.308, 1.249e-5
-1.309, 1.557e-5
-1.310, 1.557e-5
-1.311, 1.557e-5
-1.312, 1.249e-5
-1.313, 1.249e-5
-1.314, 1.249e-5
-1.315, 1.249e-5
-1.316, 1.249e-5
-1.317, 1.249e-5
-1.318, 1.249e-5
-1.319, 1.557e-5
-1.320, 1.249e-5
-1.321, 1.249e-5
-1.322, 1.249e-5
-1.323, 1.249e-5
-1.324, 1.249e-5
-1.325, 1.249e-5
-1.326, 1.249e-5
-1.327, 1.557e-5
-1.328, 1.249e-5
-1.329, 1.557e-5
-1.330, 1.557e-5
-1.331, 1.249e-5
-1.332, 1.557e-5
-1.333, 1.557e-5
-1.334, 1.557e-5
-1.335, 1.249e-5
-1.336, 1.557e-5
-1.337, 1.557e-5
-1.338, 1.557e-5
-1.339, 1.557e-5
-1.340, 1.557e-5
-1.341, 1.557e-5
-1.342, 1.557e-5
-1.343, 1.557e-5
-1.344, 1.557e-5
-1.345, 1.557e-5
-1.346, 1.557e-5
-1.347, 1.557e-5
-1.348, 1.557e-5
-1.349, 1.557e-5
-1.350, 1.557e-5
-1.351, 1.557e-5
-1.352, 1.557e-5
-1.353, 1.557e-5
-1.354, 1.557e-5
-1.355, 1.557e-5
-1.356, 1.557e-5
-1.357, 1.557e-5
-1.358, 1.557e-5
-1.359, 1.557e-5
-1.360, 1.557e-5
-1.361, 1.557e-5
-1.362, 1.557e-5
-1.363, 1.249e-5
-1.364, 1.557e-5
-1.365, 1.557e-5
-1.366, 1.557e-5
-1.367, 1.557e-5
-1.368, 1.557e-5
-1.369, 1.557e-5
-1.370, 1.557e-5
-1.371, 1.557e-5
-1.372, 1.557e-5
-1.373, 1.557e-5
-1.374, 1.557e-5
-1.375, 1.557e-5
-1.376, 1.557e-5
-1.377, 1.557e-5
-1.378, 1.557e-5
-1.379, 1.557e-5
-1.380, 1.557e-5
-1.381, 1.557e-5
-1.382, 1.557e-5
-1.383, 1.557e-5
-1.384, 1.557e-5
-1.385, 1.557e-5
-1.386, 1.557e-5
-1.387, 1.557e-5
-1.388, 1.557e-5
-1.389, 1.557e-5
-1.390, 1.557e-5
-1.391, 1.557e-5
-1.392, 1.557e-5
-1.393, 1.557e-5
-1.394, 1.557e-5
-1.395, 1.557e-5
-1.396, 1.557e-5
-1.397, 1.557e-5
-1.398, 1.557e-5
-1.399, 1.557e-5
-1.400, 1.557e-5
-1.401, 1.557e-5
-1.402, 1.557e-5
-1.403, 1.557e-5
-1.404, 1.865e-5
-1.405, 1.557e-5
-1.406, 1.557e-5
-1.407, 1.557e-5
-1.408, 1.557e-5
-1.409, 1.557e-5
-1.410, 1.557e-5
-1.411, 1.557e-5
-1.412, 1.557e-5
-1.413, 1.557e-5
-1.414, 1.557e-5
-1.415, 1.557e-5
-1.416, 1.557e-5
-1.417, 1.557e-5
-1.418, 1.557e-5
-1.419, 1.557e-5
-1.420, 1.557e-5
-1.421, 1.557e-5
-1.422, 1.557e-5
-1.423, 1.557e-5
-1.424, 1.557e-5
-1.425, 1.557e-5
-1.426, 1.557e-5
-1.427, 1.557e-5
-1.428, 1.557e-5
-1.429, 1.557e-5
-1.430, 1.557e-5
-1.431, 1.557e-5
-1.432, 1.557e-5
-1.433, 1.557e-5
-1.434, 1.865e-5
-1.435, 1.865e-5
-1.436, 1.865e-5
-1.437, 1.557e-5
-1.438, 1.557e-5
-1.439, 1.865e-5
-1.440, 1.557e-5
-1.441, 1.865e-5
-1.442, 1.865e-5
-1.443, 1.557e-5
-1.444, 1.865e-5
-1.445, 1.865e-5
-1.446, 1.865e-5
-1.447, 1.865e-5
-1.448, 1.865e-5
-1.449, 1.865e-5
-1.450, 1.865e-5
-1.451, 1.557e-5
-1.452, 1.865e-5
-1.453, 1.865e-5
-1.454, 1.865e-5
-1.455, 1.865e-5
-1.456, 1.865e-5
-1.457, 1.865e-5
-1.458, 1.865e-5
-1.459, 1.865e-5
-1.460, 1.865e-5
-1.461, 1.865e-5
-1.462, 1.865e-5
-1.463, 1.865e-5
-1.464, 1.865e-5
-1.465, 1.865e-5
-1.466, 1.865e-5
-1.467, 1.865e-5
-1.468, 1.865e-5
-1.469, 1.865e-5
-1.470, 1.865e-5
-1.471, 1.865e-5
-1.472, 1.865e-5
-1.473, 1.865e-5
-1.474, 1.865e-5
-1.475, 1.865e-5
-1.476, 1.865e-5
-1.477, 1.865e-5
-1.478, 1.865e-5
-1.479, 1.865e-5
-1.480, 1.865e-5
-1.481, 1.865e-5
-1.482, 1.865e-5
-1.483, 1.865e-5
-1.484, 1.865e-5
-1.485, 1.865e-5
-1.486, 1.865e-5
-1.487, 1.865e-5
-1.488, 1.865e-5
-1.489, 1.865e-5
-1.490, 1.865e-5
-1.491, 1.865e-5
-1.492, 1.865e-5
-1.493, 2.174e-5
-1.494, 2.174e-5
-1.495, 1.865e-5
-1.496, 2.174e-5
-1.497, 2.174e-5
-1.498, 2.174e-5
-1.499, 2.174e-5
-1.500, 2.174e-5
-1.501, 2.174e-5
-1.502, 2.174e-5
-1.503, 2.174e-5
-1.504, 2.174e-5
-1.505, 2.174e-5
-1.506, 2.174e-5
-1.507, 2.174e-5
-1.508, 2.174e-5
-1.509, 2.174e-5
-1.510, 2.174e-5
-1.511, 2.174e-5
-1.512, 1.865e-5
-1.513, 2.174e-5
-1.514, 2.174e-5
-1.515, 1.865e-5
-1.516, 2.174e-5
-1.517, 2.174e-5
-1.518, 2.174e-5
-1.519, 2.174e-5
-1.520, 2.174e-5
-1.521, 2.174e-5
-1.522, 2.174e-5
-1.523, 2.174e-5
-1.524, 2.174e-5
-1.525, 2.174e-5
-1.526, 2.174e-5
-1.527, 2.174e-5
-1.528, 2.174e-5
-1.529, 2.174e-5
-1.530, 2.174e-5
-1.531, 2.174e-5
-1.532, 2.174e-5
-1.533, 2.482e-5
-1.534, 2.482e-5
-1.535, 2.174e-5
-1.536, 2.482e-5
-1.537, 2.482e-5
-1.538, 2.482e-5
-1.539, 2.482e-5
-1.540, 2.482e-5
-1.541, 2.482e-5
-1.542, 2.482e-5
-1.543, 2.482e-5
-1.544, 2.482e-5
-1.545, 2.482e-5
-1.546, 2.482e-5
-1.547, 2.482e-5
-1.548, 2.482e-5
-1.549, 2.482e-5
-1.550, 2.482e-5
-1.551, 2.482e-5
-1.552, 2.482e-5
-1.553, 2.482e-5
-1.554, 2.482e-5
-1.555, 2.482e-5
-1.556, 2.790e-5
-1.557, 2.482e-5
-1.558, 2.482e-5
-1.559, 2.790e-5
-1.560, 2.790e-5
-1.561, 2.790e-5
-1.562, 2.790e-5
-1.563, 2.790e-5
-1.564, 2.790e-5
-1.565, 2.790e-5
-1.566, 2.790e-5
-1.567, 2.790e-5
-1.568, 2.790e-5
-1.569, 2.790e-5
-1.570, 2.790e-5
-1.571, 2.790e-5
-1.572, 2.790e-5
-1.573, 3.099e-5
-1.574, 3.099e-5
-1.575, 3.099e-5
-1.576, 3.099e-5
-1.577, 3.099e-5
-1.578, 3.099e-5
-1.579, 3.099e-5
-1.580, 3.099e-5
-1.581, 3.099e-5
-1.582, 3.407e-5
-1.583, 3.099e-5
-1.584, 3.407e-5
-1.585, 3.407e-5
-1.586, 3.407e-5
-1.587, 3.407e-5
-1.588, 3.407e-5
-1.589, 3.407e-5
-1.590, 3.407e-5
-1.591, 3.407e-5
-1.592, 3.407e-5
-1.593, 3.715e-5
-1.594, 3.715e-5
-1.595, 3.715e-5
-1.596, 3.715e-5
-1.597, 3.715e-5
-1.598, 3.715e-5
-1.599, 4.024e-5
-1.600, 4.024e-5
-1.601, 3.715e-5
-1.602, 4.024e-5
-1.603, 4.024e-5
-1.604, 4.024e-5
-1.605, 4.024e-5
-1.606, 4.024e-5
-1.607, 4.024e-5
-1.608, 4.332e-5
-1.609, 4.332e-5
-1.610, 4.332e-5
-1.611, 4.332e-5
-1.612, 4.332e-5
-1.613, 4.640e-5
-1.614, 4.640e-5
-1.615, 4.640e-5
-1.616, 4.640e-5
-1.617, 4.640e-5
-1.618, 4.949e-5
-1.619, 4.949e-5
-1.620, 4.949e-5
-1.621, 4.949e-5
-1.622, 5.257e-5
-1.623, 5.257e-5
-1.624, 5.257e-5
-1.625, 5.565e-5
-1.626, 5.565e-5
-1.627, 5.565e-5
-1.628, 5.873e-5
-1.629, 5.873e-5
-1.630, 5.873e-5
-1.631, 5.873e-5
-1.632, 6.182e-5
-1.633, 6.182e-5
-1.634, 6.490e-5
-1.635, 6.490e-5
-1.636, 6.490e-5
-1.637, 6.490e-5
-1.638, 6.798e-5
-1.639, 6.798e-5
-1.640, 7.107e-5
-1.641, 7.107e-5
-1.642, 7.415e-5
-1.643, 7.415e-5
-1.644, 7.415e-5
-1.645, 7.723e-5
-1.646, 7.723e-5
-1.647, 8.032e-5
-1.648, 8.032e-5
-1.649, 8.340e-5
-1.650, 8.340e-5
-1.651, 8.648e-5
-1.652, 8.648e-5
-1.653, 8.957e-5
-1.654, 9.265e-5
-1.655, 9.265e-5
-1.656, 9.573e-5
-1.657, 9.573e-5
-1.658, 9.882e-5
-1.659, 1.019e-4
-1.660, 1.019e-4
-1.661, 1.050e-4
-1.662, 1.081e-4
-1.663, 1.111e-4
-1.664, 1.111e-4
-1.665, 1.142e-4
-1.666, 1.173e-4
-1.667, 1.204e-4
-1.668, 1.235e-4
-1.669, 1.266e-4
-1.670, 1.266e-4
-1.671, 1.296e-4
-1.672, 1.358e-4
-1.673, 1.358e-4
-1.674, 1.420e-4
-1.675, 1.420e-4
-1.676, 1.481e-4
-1.677, 1.512e-4
-1.678, 1.543e-4
-1.679, 1.574e-4
-1.680, 1.605e-4
-1.681, 1.636e-4
-1.682, 1.697e-4
-1.683, 1.728e-4
-1.684, 1.759e-4
-1.685, 1.790e-4
-1.686, 1.851e-4
-1.687, 1.882e-4
-1.688, 1.913e-4
-1.689, 1.975e-4
-1.690, 2.006e-4
-1.691, 2.067e-4
-1.692, 2.098e-4
-1.693, 2.160e-4
-1.694, 2.221e-4
-1.695, 2.252e-4
-1.696, 2.314e-4
-1.697, 2.376e-4
-1.698, 2.406e-4
-1.699, 2.468e-4
-1.700, 2.530e-4
-1.701, 2.591e-4
-1.702, 2.653e-4
-1.703, 2.715e-4
-1.704, 2.776e-4
-1.705, 2.838e-4
-1.706, 2.900e-4
-1.707, 2.992e-4
-1.708, 3.054e-4
-1.709, 3.115e-4
-1.710, 3.208e-4
-1.711, 3.270e-4
-1.712, 3.362e-4
-1.713, 3.424e-4
-1.714, 3.516e-4
-1.715, 3.578e-4
-1.716, 3.670e-4
-1.717, 3.763e-4
-1.718, 3.855e-4
-1.719, 3.948e-4
-1.720, 4.040e-4
-1.721, 4.133e-4
-1.722, 4.225e-4
-1.723, 4.318e-4
-1.724, 4.410e-4
-1.725, 4.534e-4
-1.726, 4.626e-4
-1.727, 4.750e-4
-1.728, 4.842e-4
-1.729, 4.965e-4
-1.730, 5.089e-4
-1.731, 5.212e-4
-1.732, 5.305e-4
-1.733, 5.428e-4
-1.734, 5.582e-4
-1.735, 5.705e-4
-1.736, 5.829e-4
-1.737, 5.952e-4
-1.738, 6.075e-4
-1.739, 6.229e-4
-1.740, 6.353e-4
-1.741, 6.476e-4
-1.742, 6.630e-4
-1.743, 6.784e-4
-1.744, 6.939e-4
-1.745, 7.093e-4
-1.746, 7.247e-4
-1.747, 7.401e-4
-1.748, 7.555e-4
-1.749, 7.709e-4
-1.750, 7.894e-4
-1.751, 8.079e-4
-1.752, 8.233e-4
-1.753, 8.418e-4
-1.754, 8.603e-4
-1.755, 8.788e-4
-1.756, 8.973e-4
-1.757, 9.158e-4
-1.758, 9.343e-4
-1.759, 9.559e-4
-1.760, 9.744e-4
-1.761, 9.929e-4
-1.762, 1.014e-3
-1.763, 1.036e-3
-1.764, 1.058e-3
-1.765, 1.079e-3
-1.766, 1.101e-3
-1.767, 1.122e-3
-1.768, 1.144e-3
-1.769, 1.166e-3
-1.770, 1.190e-3
-1.771, 1.212e-3
-1.772, 1.236e-3
-1.773, 1.258e-3
-1.774, 1.283e-3
-1.775, 1.307e-3
-1.776, 1.332e-3
-1.777, 1.357e-3
-1.778, 1.381e-3
-1.779, 1.409e-3
-1.780, 1.437e-3
-1.781, 1.462e-3
-1.782, 1.489e-3
-1.783, 1.517e-3
-1.784, 1.545e-3
-1.785, 1.573e-3
-1.786, 1.600e-3
-1.787, 1.631e-3
-1.788, 1.659e-3
-1.789, 1.690e-3
-1.790, 1.721e-3
-1.791, 1.751e-3
-1.792, 1.782e-3
-1.793, 1.813e-3
-1.794, 1.844e-3
-1.795, 1.875e-3
-1.796, 1.909e-3
-1.797, 1.943e-3
-1.798, 1.976e-3
-1.799, 2.010e-3
-1.800, 2.023e-3
-1.799, 2.007e-3
-1.798, 1.989e-3
-1.797, 1.973e-3
-1.796, 1.955e-3
-1.795, 1.936e-3
-1.794, 1.921e-3
-1.793, 1.902e-3
-1.792, 1.884e-3
-1.791, 1.862e-3
-1.790, 1.844e-3
-1.789, 1.825e-3
-1.788, 1.807e-3
-1.787, 1.788e-3
-1.786, 1.770e-3
-1.785, 1.751e-3
-1.784, 1.733e-3
-1.783, 1.714e-3
-1.782, 1.696e-3
-1.781, 1.677e-3
-1.780, 1.659e-3
-1.779, 1.637e-3
-1.778, 1.619e-3
-1.777, 1.600e-3
-1.776, 1.582e-3
-1.775, 1.563e-3
-1.774, 1.545e-3
-1.773, 1.526e-3
-1.772, 1.508e-3
-1.771, 1.492e-3
-1.770, 1.471e-3
-1.769, 1.455e-3
-1.768, 1.437e-3
-1.767, 1.418e-3
-1.766, 1.403e-3
-1.765, 1.384e-3
-1.764, 1.366e-3
-1.763, 1.351e-3
-1.762, 1.332e-3
-1.761, 1.314e-3
-1.760, 1.298e-3
-1.759, 1.280e-3
-1.758, 1.264e-3
-1.757, 1.249e-3
-1.756, 1.233e-3
-1.755, 1.215e-3
-1.754, 1.199e-3
-1.753, 1.184e-3
-1.752, 1.169e-3
-1.751, 1.153e-3
-1.750, 1.138e-3
-1.749, 1.122e-3
-1.748, 1.107e-3
-1.747, 1.092e-3
-1.746, 1.079e-3
-1.745, 1.061e-3
-1.744, 1.048e-3
-1.743, 1.033e-3
-1.742, 1.018e-3
-1.741, 1.005e-3
-1.740, 9.929e-4
-1.739, 9.775e-4
-1.738, 9.652e-4
-1.737, 9.498e-4
-1.736, 9.374e-4
-1.735, 9.220e-4
-1.734, 9.097e-4
-1.733, 8.973e-4
-1.732, 8.850e-4
-1.731, 8.696e-4
-1.730, 8.573e-4
-1.729, 8.449e-4
-1.728, 8.326e-4
-1.727, 8.203e-4
-1.726, 8.110e-4
-1.725, 7.956e-4
-1.724, 7.833e-4
-1.723, 7.740e-4
-1.722, 7.617e-4
-1.721, 7.494e-4
-1.720, 7.401e-4
-1.719, 7.278e-4
-1.718, 7.154e-4
-1.717, 7.062e-4
-1.716, 6.939e-4
-1.715, 6.846e-4
-1.714, 6.723e-4
-1.713, 6.630e-4
-1.712, 6.538e-4
-1.711, 6.414e-4
-1.710, 6.322e-4
-1.709, 6.229e-4
-1.708, 6.137e-4
-1.707, 6.044e-4
-1.706, 5.952e-4
-1.705, 5.859e-4
-1.704, 5.767e-4
-1.703, 5.674e-4
-1.702, 5.582e-4
-1.701, 5.489e-4
-1.700, 5.397e-4
-1.699, 5.305e-4
-1.698, 5.243e-4
-1.697, 5.150e-4
-1.696, 5.058e-4
-1.695, 4.996e-4
-1.694, 4.904e-4
-1.693, 4.842e-4
-1.692, 4.750e-4
-1.691, 4.657e-4
-1.690, 4.595e-4
-1.689, 4.534e-4
-1.688, 4.441e-4
-1.687, 4.380e-4
-1.686, 4.287e-4
-1.685, 4.225e-4
-1.684, 4.164e-4
-1.683, 4.102e-4
-1.682, 4.010e-4
-1.681, 3.948e-4
-1.680, 3.886e-4
-1.679, 3.825e-4
-1.678, 3.763e-4
-1.677, 3.701e-4
-1.676, 3.640e-4
-1.675, 3.578e-4
-1.674, 3.516e-4
-1.673, 3.455e-4
-1.672, 3.393e-4
-1.671, 3.331e-4
-1.670, 3.270e-4
-1.669, 3.208e-4
-1.668, 3.146e-4
-1.667, 3.115e-4
-1.666, 3.054e-4
-1.665, 2.992e-4
-1.664, 2.931e-4
-1.663, 2.869e-4
-1.662, 2.838e-4
-1.661, 2.776e-4
-1.660, 2.746e-4
-1.659, 2.684e-4
-1.658, 2.653e-4
-1.657, 2.591e-4
-1.656, 2.561e-4
-1.655, 2.499e-4
-1.654, 2.468e-4
-1.653, 2.406e-4
-1.652, 2.376e-4
-1.651, 2.345e-4
-1.650, 2.283e-4
-1.649, 2.252e-4
-1.648, 2.221e-4
-1.647, 2.160e-4
-1.646, 2.129e-4
-1.645, 2.098e-4
-1.644, 2.067e-4
-1.643, 2.006e-4
-1.642, 1.975e-4
-1.641, 1.944e-4
-1.640, 1.913e-4
-1.639, 1.882e-4
-1.638, 1.851e-4
-1.637, 1.790e-4
-1.636, 1.790e-4
-1.635, 1.728e-4
-1.634, 1.697e-4
-1.633, 1.666e-4
-1.632, 1.636e-4
-1.631, 1.605e-4
-1.630, 1.574e-4
-1.629, 1.574e-4
-1.628, 1.512e-4
-1.627, 1.481e-4
-1.626, 1.451e-4
-1.625, 1.420e-4
-1.624, 1.420e-4
-1.623, 1.389e-4
-1.622, 1.358e-4
-1.621, 1.327e-4
-1.620, 1.296e-4
-1.619, 1.266e-4
-1.618, 1.266e-4
-1.617, 1.235e-4
-1.616, 1.204e-4
-1.615, 1.173e-4
-1.614, 1.142e-4
-1.613, 1.142e-4
-1.612, 1.111e-4
-1.611, 1.081e-4
-1.610, 1.081e-4
-1.609, 1.050e-4
-1.608, 1.019e-4
-1.607, 9.882e-5
-1.606, 9.882e-5
-1.605, 9.573e-5
-1.604, 9.573e-5
-1.603, 9.265e-5
-1.602, 9.265e-5
-1.601, 8.957e-5
-1.600, 8.957e-5
-1.599, 8.648e-5
-1.598, 8.648e-5
-1.597, 8.340e-5
-1.596, 8.032e-5
-1.595, 8.032e-5
-1.594, 7.723e-5
-1.593, 7.723e-5
-1.592, 7.415e-5
-1.591, 7.415e-5
-1.590, 7.107e-5
-1.589, 7.107e-5
-1.588, 6.798e-5
-1.587, 6.798e-5
-1.586, 6.490e-5
-1.585, 6.490e-5
-1.584, 6.182e-5
-1.583, 6.182e-5
-1.582, 6.182e-5
-1.581, 5.873e-5
-1.580, 5.873e-5
-1.579, 5.565e-5
-1.578, 5.565e-5
-1.577, 5.565e-5
-1.576, 5.257e-5
-1.575, 5.257e-5
-1.574, 5.257e-5
-1.573, 4.949e-5
-1.572, 4.949e-5
-1.571, 4.640e-5
-1.570, 4.640e-5
-1.569, 4.640e-5
-1.568, 4.332e-5
-1.567, 4.332e-5
-1.566, 4.332e-5
-1.565, 4.024e-5
-1.564, 4.024e-5
-1.563, 4.024e-5
-1.562, 4.024e-5
-1.561, 3.715e-5
-1.560, 3.715e-5
-1.559, 3.715e-5
-1.558, 3.715e-5
-1.557, 3.407e-5
-1.556, 3.407e-5
-1.555, 3.407e-5
-1.554, 3.407e-5
-1.553, 3.407e-5
-1.552, 3.099e-5
-1.551, 3.099e-5
-1.550, 3.099e-5
-1.549, 2.790e-5
-1.548, 2.790e-5
-1.547, 2.790e-5
-1.546, 2.790e-5
-1.545, 2.790e-5
-1.544, 2.790e-5
-1.543, 2.790e-5
-1.542, 2.482e-5
-1.541, 2.482e-5
-1.540, 2.482e-5
-1.539, 2.482e-5
-1.538, 2.482e-5
-1.537, 2.482e-5
-1.536, 2.174e-5
-1.535, 2.174e-5
-1.534, 2.174e-5
-1.533, 2.174e-5
-1.532, 1.865e-5
-1.531, 1.865e-5
-1.530, 1.865e-5
-1.529, 1.865e-5
-1.528, 1.865e-5
-1.527, 1.865e-5
-1.526, 1.865e-5
-1.525, 1.557e-5
-1.524, 1.557e-5
-1.523, 1.557e-5
-1.522, 1.557e-5
-1.521, 1.557e-5
-1.520, 1.557e-5
-1.519, 1.557e-5
-1.518, 1.249e-5
-1.517, 1.249e-5
-1.516, 1.249e-5
-1.515, 1.249e-5
-1.514, 1.249e-5
-1.513, 1.249e-5
-1.512, 1.249e-5
-1.511, 1.249e-5
-1.510, 1.249e-5
-1.509, 1.249e-5
-1.508, 9.405e-6
-1.507, 9.405e-6
-1.506, 9.405e-6
-1.505, 9.405e-6
-1.504, 9.405e-6
-1.503, 9.405e-6
-1.502, 9.405e-6
-1.501, 9.405e-6
-1.500, 9.405e-6
-1.499, 9.405e-6
-1.498, 9.405e-6
-1.497, 9.405e-6
-1.496, 9.405e-6
-1.495, 6.322e-6
-1.494, 6.322e-6
-1.493, 6.322e-6
-1.492, 9.405e-6
-1.491, 6.322e-6
-1.490, 9.405e-6
-1.489, 6.322e-6
-1.488, 6.322e-6
-1.487, 6.322e-6
-1.486, 6.322e-6
-1.485, 6.322e-6
-1.484, 6.322e-6
-1.483, 6.322e-6
-1.482, 3.239e-6
-1.481, 6.322e-6
-1.480, 6.322e-6
-1.479, 3.239e-6
-1.478, 6.322e-6
-1.477, 3.239e-6
-1.476, 3.239e-6
-1.475, 3.239e-6
-1.474, 3.239e-6
-1.473, 3.239e-6
-1.472, 3.239e-6
-1.471, 3.239e-6
-1.470, 3.239e-6
-1.469, 3.239e-6
-1.468, 3.239e-6
-1.467, 1.559e-7
-1.466, 3.239e-6
-1.465, 3.239e-6
-1.464, 3.239e-6
-1.463, 3.239e-6
-1.462, 3.239e-6
-1.461, 3.239e-6
-1.460, 3.239e-6
-1.459, 1.559e-7
-1.458, 3.239e-6
-1.457, 3.239e-6
-1.456, 3.239e-6
-1.455, 1.559e-7
-1.454, 3.239e-6
-1.453, 1.559e-7
-1.452, 1.559e-7
-1.451, 3.239e-6
-1.450, 3.239e-6
-1.449, 3.239e-6
-1.448, 1.559e-7
-1.447, 1.559e-7
-1.446, 1.559e-7
-1.445, 1.559e-7
-1.444, 1.559e-7
-1.443, 1.559e-7
-1.442, 1.559e-7
-1.441, 1.559e-7
-1.440, 1.559e-7
-1.439, 1.559e-7
-1.438, 1.559e-7
-1.437, 1.559e-7
-1.436, 1.559e-7
-1.435, 1.559e-7
-1.434, 1.559e-7
-1.433, 1.559e-7
-1.432, 1.559e-7
-1.431, 1.559e-7
-1.430, 1.559e-7
-1.429, 1.559e-7
-1.428, 1.559e-7
-1.427, 1.559e-7
-1.426, 1.559e-7
-1.425, 1.559e-7
-1.424, 1.559e-7
-1.423, 1.559e-7
-1.422, 1.559e-7
-1.421, 1.559e-7
-1.420, 1.559e-7
-1.419, -2.927e-6
-1.418, 1.559e-7
-1.417, 1.559e-7
-1.416, 1.559e-7
-1.415, -2.927e-6
-1.414, -2.927e-6
-1.413, -2.927e-6
-1.412, 1.559e-7
-1.411, 1.559e-7
-1.410, -2.927e-6
-1.409, 1.559e-7
-1.408, -2.927e-6
-1.407, -2.927e-6
-1.406, 1.559e-7
-1.405, 1.559e-7
-1.404, -2.927e-6
-1.403, 1.559e-7
-1.402, 1.559e-7
-1.401, 1.559e-7
-1.400, 1.559e-7
-1.399, -2.927e-6
-1.398, 1.559e-7
-1.397, 1.559e-7
-1.396, 1.559e-7
-1.395, -2.927e-6
-1.394, 1.559e-7
-1.393, -2.927e-6
-1.392, 1.559e-7
-1.391, -2.927e-6
-1.390, -2.927e-6
-1.389, -2.927e-6
-1.388, -2.927e-6
-1.387, -2.927e-6
-1.386, 1.559e-7
-1.385, -2.927e-6
-1.384, -2.927e-6
-1.383, -2.927e-6
-1.382, -2.927e-6
-1.381, 1.559e-7
-1.380, -2.927e-6
-1.379, -2.927e-6
-1.378, -2.927e-6
-1.377, -2.927e-6
-1.376, -2.927e-6
-1.375, -2.927e-6
-1.374, -2.927e-6
-1.373, -2.927e-6
-1.372, -2.927e-6
-1.371, -2.927e-6
-1.370, -2.927e-6
-1.369, -2.927e-6
-1.368, -2.927e-6
-1.367, -2.927e-6
-1.366, -2.927e-6
-1.365, -2.927e-6
-1.364, -2.927e-6
-1.363, -2.927e-6
-1.362, -2.927e-6
-1.361, -2.927e-6
-1.360, -2.927e-6
-1.359, -2.927e-6
-1.358, -2.927e-6
-1.357, -2.927e-6
-1.356, -2.927e-6
-1.355, -2.927e-6
-1.354, -2.927e-6
-1.353, -2.927e-6
-1.352, -2.927e-6
-1.351, -2.927e-6
-1.350, -2.927e-6
-1.349, -2.927e-6
-1.348, -2.927e-6
-1.347, -2.927e-6
-1.346, -2.927e-6
-1.345, -2.927e-6
-1.344, -2.927e-6
-1.343, -2.927e-6
-1.342, -2.927e-6
-1.341, -2.927e-6
-1.340, -2.927e-6
-1.339, -2.927e-6
-1.338, -2.927e-6
-1.337, -2.927e-6
-1.336, -2.927e-6
-1.335, -2.927e-6
-1.334, -2.927e-6
-1.333, -2.927e-6
-1.332, -2.927e-6
-1.331, -2.927e-6
-1.330, -2.927e-6
-1.329, -2.927e-6
-1.328, -2.927e-6
-1.327, -2.927e-6
-1.326, -2.927e-6
-1.325, -2.927e-6
-1.324, -2.927e-6
-1.323, -2.927e-6
-1.322, -2.927e-6
-1.321, -2.927e-6
-1.320, -2.927e-6
-1.319, -2.927e-6
-1.318, -2.927e-6
-1.317, -2.927e-6
-1.316, -2.927e-6
-1.315, -2.927e-6
-1.314, -2.927e-6
-1.313, -2.927e-6
-1.312, -2.927e-6
-1.311, -2.927e-6
-1.310, -2.927e-6
-1.309, -2.927e-6
-1.308, -2.927e-6
-1.307, -2.927e-6
-1.306, -2.927e-6
-1.305, -2.927e-6
-1.304, -2.927e-6
-1.303, -2.927e-6
-1.302, -2.927e-6
-1.301, -2.927e-6
-1.300, -2.927e-6
-1.299, -2.927e-6
-1.298, -2.927e-6
-1.297, -2.927e-6
-1.296, -2.927e-6
-1.295, -2.927e-6
-1.294, -2.927e-6
-1.293, -2.927e-6
-1.292, -2.927e-6
-1.291, -2.927e-6
-1.290, -2.927e-6
-1.289, -2.927e-6
-1.288, -2.927e-6
-1.287, -6.010e-6
-1.286, -2.927e-6
-1.285, -2.927e-6
-1.284, -6.010e-6
-1.283, -2.927e-6
-1.282, -2.927e-6
-1.281, -2.927e-6
-1.280, -2.927e-6
-1.279, -2.927e-6
-1.278, -2.927e-6
-1.277, -6.010e-6
-1.276, -2.927e-6
-1.275, -6.010e-6
-1.274, -2.927e-6
-1.273, -6.010e-6
-1.272, -6.010e-6
-1.271, -2.927e-6
-1.270, -2.927e-6
-1.269, -2.927e-6
-1.268, -2.927e-6
-1.267, -6.010e-6
-1.266, -2.927e-6
-1.265, -6.010e-6
-1.264, -2.927e-6
-1.263, -2.927e-6
-1.262, -6.010e-6
-1.261, -2.927e-6
-1.260, -2.927e-6
-1.259, -2.927e-6
-1.258, -2.927e-6
-1.257, -2.927e-6
-1.256, -2.927e-6
-1.255, -2.927e-6
-1.254, -2.927e-6
-1.253, -2.927e-6
-1.252, -2.927e-6
-1.251, -2.927e-6
-1.250, -2.927e-6
-1.249, -2.927e-6
-1.248, -2.927e-6
-1.247, -6.010e-6
-1.246, -2.927e-6
-1.245, -2.927e-6
-1.244, -2.927e-6
-1.243, -2.927e-6
-1.242, -2.927e-6
-1.241, -2.927e-6
-1.240, -2.927e-6
-1.239, -2.927e-6
-1.238, -2.927e-6
-1.237, -2.927e-6
-1.236, -2.927e-6
-1.235, -2.927e-6
-1.234, -6.010e-6
-1.233, -2.927e-6
-1.232, -6.010e-6
-1.231, -2.927e-6
-1.230, -6.010e-6
-1.229, -2.927e-6
-1.228, -6.010e-6
-1.227, -6.010e-6
-1.226, -2.927e-6
-1.225, -6.010e-6
-1.224, -6.010e-6
-1.223, -6.010e-6
-1.222, -6.010e-6
-1.221, -6.010e-6
-1.220, -2.927e-6
-1.219, -6.010e-6
-1.218, -6.010e-6
-1.217, -6.010e-6
-1.216, -6.010e-6
-1.215, -6.010e-6
-1.214, -6.010e-6
-1.213, -6.010e-6
-1.212, -2.927e-6
-1.211, -6.010e-6
-1.210, -6.010e-6
-1.209, -6.010e-6
-1.208, -6.010e-6
-1.207, -6.010e-6
-1.206, -2.927e-6
-1.205, -6.010e-6
-1.204, -2.927e-6
-1.203, -2.927e-6
-1.202, -6.010e-6
-1.201, -2.927e-6
-1.200, -2.927e-6
-1.199, -6.010e-6
-1.198, -2.927e-6
-1.197, -6.010e-6
-1.196, -2.927e-6
-1.195, -6.010e-6
-1.194, -2.927e-6
-1.193, -6.010e-6
-1.192, -2.927e-6
-1.191, -2.927e-6
-1.190, -2.927e-6
-1.189, -6.010e-6
-1.188, -6.010e-6
-1.187, -6.010e-6
-1.186, -2.927e-6
-1.185, -6.010e-6
-1.184, -6.010e-6
-1.183, -6.010e-6
-1.182, -6.010e-6
-1.181, -2.927e-6
-1.180, -6.010e-6
-1.179, -6.010e-6
-1.178, -6.010e-6
-1.177, -6.010e-6
-1.176, -6.010e-6
-1.175, -6.010e-6
-1.174, -6.010e-6
-1.173, -6.010e-6
-1.172, -6.010e-6
-1.171, -6.010e-6
-1.170, -6.010e-6
-1.169, -6.010e-6
-1.168, -6.010e-6
-1.167, -6.010e-6
-1.166, -6.010e-6
-1.165, -6.010e-6
-1.164, -6.010e-6
-1.163, -6.010e-6
-1.162, -6.010e-6
-1.161, -6.010e-6
-1.160, -6.010e-6
-1.159, -6.010e-6
-1.158, -6.010e-6
-1.157, -6.010e-6
-1.156, -6.010e-6
-1.155, -6.010e-6
-1.154, -6.010e-6
-1.153, -6.010e-6
-1.152, -6.010e-6
-1.151, -6.010e-6
-1.150, -6.010e-6
-1.149, -6.010e-6
-1.148, -6.010e-6
-1.147, -6.010e-6
-1.146, -6.010e-6
-1.145, -6.010e-6
-1.144, -6.010e-6
-1.143, -6.010e-6
-1.142, -6.010e-6
-1.141, -6.010e-6
-1.140, -2.927e-6
-1.139, -6.010e-6
-1.138, -6.010e-6
-1.137, -6.010e-6
-1.136, -6.010e-6
-1.135, -6.010e-6
-1.134, -6.010e-6
-1.133, -6.010e-6
-1.132, -6.010e-6
-1.131, -6.010e-6
-1.130, -6.010e-6
-1.129, -6.010e-6
-1.128, -6.010e-6
-1.127, -6.010e-6
-1.126, -6.010e-6
-1.125, -6.010e-6
-1.124, -6.010e-6
-1.123, -6.010e-6
-1.122, -6.010e-6
-1.121, -6.010e-6
-1.120, -6.010e-6
-1.119, -6.010e-6
-1.118, -6.010e-6
-1.117, -6.010e-6
-1.116, -6.010e-6
-1.115, -6.010e-6
-1.114, -6.010e-6
-1.113, -6.010e-6
-1.112, -6.010e-6
-1.111, -6.010e-6
-1.110, -6.010e-6
-1.109, -6.010e-6
-1.108, -6.010e-6
-1.107, -6.010e-6
-1.106, -6.010e-6
-1.105, -6.010e-6
-1.104, -6.010e-6
-1.103, -6.010e-6
-1.102, -6.010e-6
-1.101, -6.010e-6
-1.100, -6.010e-6
-1.099, -6.010e-6
-1.098, -6.010e-6
-1.097, -6.010e-6
-1.096, -6.010e-6
-1.095, -6.010e-6
-1.094, -6.010e-6
-1.093, -6.010e-6
-1.092, -6.010e-6
-1.091, -6.010e-6
-1.090, -6.010e-6
-1.089, -6.010e-6
-1.088, -6.010e-6
-1.087, -9.093e-6
-1.086, -6.010e-6
-1.085, -6.010e-6
-1.084, -6.010e-6
-1.083, -6.010e-6
-1.082, -9.093e-6
-1.081, -6.010e-6
-1.080, -9.093e-6
-1.079, -9.093e-6
-1.078, -6.010e-6
-1.077, -9.093e-6
-1.076, -6.010e-6
-1.075, -9.093e-6
-1.074, -9.093e-6
-1.073, -9.093e-6
-1.072, -9.093e-6
-1.071, -9.093e-6
-1.070, -9.093e-6
-1.069, -9.093e-6
-1.068, -6.010e-6
-1.067, -9.093e-6
-1.066, -6.010e-6
-1.065, -9.093e-6
-1.064, -9.093e-6
-1.063, -6.010e-6
-1.062, -9.093e-6
-1.061, -6.010e-6
-1.060, -9.093e-6
-1.059, -9.093e-6
-1.058, -6.010e-6
-1.057, -6.010e-6
-1.056, -6.010e-6
-1.055, -9.093e-6
-1.054, -9.093e-6
-1.053, -6.010e-6
-1.052, -6.010e-6
-1.051, -6.010e-6
-1.050, -6.010e-6
-1.049, -6.010e-6
-1.048, -9.093e-6
-1.047, -6.010e-6
-1.046, -6.010e-6
-1.045, -9.093e-6
-1.044, -9.093e-6
-1.043, -6.010e-6
-1.042, -9.093e-6
-1.041, -9.093e-6
-1.040, -6.010e-6
-1.039, -9.093e-6
-1.038, -9.093e-6
-1.037, -9.093e-6
-1.036, -9.093e-6
-1.035, -9.093e-6
-1.034, -9.093e-6
-1.033, -9.093e-6
-1.032, -9.093e-6
-1.031, -9.093e-6
-1.030, -9.093e-6
-1.029, -9.093e-6
-1.028, -9.093e-6
-1.027, -9.093e-6
-1.026, -9.093e-6
-1.025, -9.093e-6
-1.024, -9.093e-6
-1.023, -9.093e-6
-1.022, -9.093e-6
-1.021, -9.093e-6
-1.020, -9.093e-6
-1.019, -9.093e-6
-1.018, -9.093e-6
-1.017, -9.093e-6
-1.016, -9.093e-6
-1.015, -9.093e-6
-1.014, -9.093e-6
-1.013, -9.093e-6
-1.012, -9.093e-6
-1.011, -9.093e-6
-1.010, -9.093e-6
-1.009, -9.093e-6
-1.008, -9.093e-6
-1.007, -9.093e-6
-1.006, -9.093e-6
-1.005, -9.093e-6
-1.004, -9.093e-6
-1.003, -9.093e-6
-1.002, -9.093e-6
-1.001, -6.010e-6
