June 30, 2026   04:33:39
Linear Sweep Voltammetry
File: c:/users/guazh/data/20260623_doe_duplica2/2026-06-24-exp47\pre-regen-2026-06-30t04_30_34-lsvinphos\pre-regen_lsv_50mvs_efin_-1900mv.bin
Data Source:  Experiment
Instrument Model:  CHI760E
Header: LSV ran at 50 mVs with Efin at -1900mV
Note: 

Init E (V) = -0.6
Final E (V) = -1.9
Scan Rate (V/s) = 0.05
Sample Interval (V) = 0.001
Quiet Time (sec) = 2
Sensitivity (A/V) = 1e-4
Comp R (ohm) = 10.0

Results:

Channel 1:
Ep = -1.839V
ip = 9.034e-4A
Ah = 1.047e-3C

Potential/V, Current/A

-0.600, 4.751e-6
-0.601, 4.892e-6
-0.602, 4.968e-6
-0.603, 5.026e-6
-0.604, 5.078e-6
-0.605, 5.128e-6
-0.606, 5.176e-6
-0.607, 5.224e-6
-0.608, 5.271e-6
-0.609, 5.316e-6
-0.610, 5.360e-6
-0.611, 5.403e-6
-0.612, 5.446e-6
-0.613, 5.489e-6
-0.614, 5.535e-6
-0.615, 5.579e-6
-0.616, 5.618e-6
-0.617, 5.659e-6
-0.618, 5.699e-6
-0.619, 5.740e-6
-0.620, 5.782e-6
-0.621, 5.822e-6
-0.622, 5.861e-6
-0.623, 5.897e-6
-0.624, 5.935e-6
-0.625, 5.973e-6
-0.626, 6.010e-6
-0.627, 6.050e-6
-0.628, 6.088e-6
-0.629, 6.124e-6
-0.630, 6.163e-6
-0.631, 6.196e-6
-0.632, 6.230e-6
-0.633, 6.267e-6
-0.634, 6.303e-6
-0.635, 6.340e-6
-0.636, 6.375e-6
-0.637, 6.409e-6
-0.638, 6.446e-6
-0.639, 6.478e-6
-0.640, 6.513e-6
-0.641, 6.548e-6
-0.642, 6.580e-6
-0.643, 6.616e-6
-0.644, 6.648e-6
-0.645, 6.680e-6
-0.646, 6.712e-6
-0.647, 6.744e-6
-0.648, 6.775e-6
-0.649, 6.808e-6
-0.650, 6.838e-6
-0.651, 6.869e-6
-0.652, 6.898e-6
-0.653, 6.928e-6
-0.654, 6.959e-6
-0.655, 6.989e-6
-0.656, 7.016e-6
-0.657, 7.045e-6
-0.658, 7.073e-6
-0.659, 7.101e-6
-0.660, 7.130e-6
-0.661, 7.155e-6
-0.662, 7.183e-6
-0.663, 7.210e-6
-0.664, 7.235e-6
-0.665, 7.261e-6
-0.666, 7.287e-6
-0.667, 7.312e-6
-0.668, 7.336e-6
-0.669, 7.360e-6
-0.670, 7.385e-6
-0.671, 7.407e-6
-0.672, 7.431e-6
-0.673, 7.456e-6
-0.674, 7.478e-6
-0.675, 7.501e-6
-0.676, 7.522e-6
-0.677, 7.543e-6
-0.678, 7.565e-6
-0.679, 7.586e-6
-0.680, 7.607e-6
-0.681, 7.627e-6
-0.682, 7.646e-6
-0.683, 7.667e-6
-0.684, 7.685e-6
-0.685, 7.706e-6
-0.686, 7.725e-6
-0.687, 7.742e-6
-0.688, 7.760e-6
-0.689, 7.779e-6
-0.690, 7.796e-6
-0.691, 7.814e-6
-0.692, 7.831e-6
-0.693, 7.847e-6
-0.694, 7.865e-6
-0.695, 7.880e-6
-0.696, 7.895e-6
-0.697, 7.910e-6
-0.698, 7.925e-6
-0.699, 7.940e-6
-0.700, 7.956e-6
-0.701, 7.970e-6
-0.702, 7.984e-6
-0.703, 7.997e-6
-0.704, 8.012e-6
-0.705, 8.025e-6
-0.706, 8.036e-6
-0.707, 8.049e-6
-0.708, 8.060e-6
-0.709, 8.072e-6
-0.710, 8.087e-6
-0.711, 8.096e-6
-0.712, 8.108e-6
-0.713, 8.119e-6
-0.714, 8.129e-6
-0.715, 8.141e-6
-0.716, 8.151e-6
-0.717, 8.161e-6
-0.718, 8.171e-6
-0.719, 8.181e-6
-0.720, 8.192e-6
-0.721, 8.202e-6
-0.722, 8.210e-6
-0.723, 8.221e-6
-0.724, 8.230e-6
-0.725, 8.238e-6
-0.726, 8.247e-6
-0.727, 8.255e-6
-0.728, 8.264e-6
-0.729, 8.272e-6
-0.730, 8.281e-6
-0.731, 8.288e-6
-0.732, 8.296e-6
-0.733, 8.304e-6
-0.734, 8.309e-6
-0.735, 8.316e-6
-0.736, 8.324e-6
-0.737, 8.331e-6
-0.738, 8.337e-6
-0.739, 8.343e-6
-0.740, 8.351e-6
-0.741, 8.355e-6
-0.742, 8.361e-6
-0.743, 8.367e-6
-0.744, 8.373e-6
-0.745, 8.379e-6
-0.746, 8.384e-6
-0.747, 8.389e-6
-0.748, 8.395e-6
-0.749, 8.401e-6
-0.750, 8.407e-6
-0.751, 8.410e-6
-0.752, 8.417e-6
-0.753, 8.423e-6
-0.754, 8.426e-6
-0.755, 8.432e-6
-0.756, 8.436e-6
-0.757, 8.441e-6
-0.758, 8.447e-6
-0.759, 8.451e-6
-0.760, 8.457e-6
-0.761, 8.461e-6
-0.762, 8.465e-6
-0.763, 8.470e-6
-0.764, 8.474e-6
-0.765, 8.478e-6
-0.766, 8.482e-6
-0.767, 8.486e-6
-0.768, 8.494e-6
-0.769, 8.498e-6
-0.770, 8.502e-6
-0.771, 8.506e-6
-0.772, 8.511e-6
-0.773, 8.513e-6
-0.774, 8.519e-6
-0.775, 8.522e-6
-0.776, 8.525e-6
-0.777, 8.530e-6
-0.778, 8.534e-6
-0.779, 8.536e-6
-0.780, 8.543e-6
-0.781, 8.545e-6
-0.782, 8.550e-6
-0.783, 8.553e-6
-0.784, 8.557e-6
-0.785, 8.563e-6
-0.786, 8.564e-6
-0.787, 8.568e-6
-0.788, 8.573e-6
-0.789, 8.575e-6
-0.790, 8.580e-6
-0.791, 8.583e-6
-0.792, 8.587e-6
-0.793, 8.592e-6
-0.794, 8.596e-6
-0.795, 8.601e-6
-0.796, 8.603e-6
-0.797, 8.607e-6
-0.798, 8.611e-6
-0.799, 8.613e-6
-0.800, 8.618e-6
-0.801, 8.622e-6
-0.802, 8.624e-6
-0.803, 8.629e-6
-0.804, 8.633e-6
-0.805, 8.636e-6
-0.806, 8.640e-6
-0.807, 8.644e-6
-0.808, 8.648e-6
-0.809, 8.652e-6
-0.810, 8.656e-6
-0.811, 8.660e-6
-0.812, 8.663e-6
-0.813, 8.666e-6
-0.814, 8.672e-6
-0.815, 8.675e-6
-0.816, 8.679e-6
-0.817, 8.683e-6
-0.818, 8.687e-6
-0.819, 8.695e-6
-0.820, 8.702e-6
-0.821, 8.703e-6
-0.822, 8.708e-6
-0.823, 8.710e-6
-0.824, 8.714e-6
-0.825, 8.719e-6
-0.826, 8.723e-6
-0.827, 8.727e-6
-0.828, 8.731e-6
-0.829, 8.735e-6
-0.830, 8.739e-6
-0.831, 8.742e-6
-0.832, 8.747e-6
-0.833, 8.751e-6
-0.834, 8.753e-6
-0.835, 8.758e-6
-0.836, 8.762e-6
-0.837, 8.765e-6
-0.838, 8.771e-6
-0.839, 8.775e-6
-0.840, 8.779e-6
-0.841, 8.783e-6
-0.842, 8.786e-6
-0.843, 8.792e-6
-0.844, 8.796e-6
-0.845, 8.801e-6
-0.846, 8.805e-6
-0.847, 8.807e-6
-0.848, 8.812e-6
-0.849, 8.816e-6
-0.850, 8.821e-6
-0.851, 8.824e-6
-0.852, 8.828e-6
-0.853, 8.831e-6
-0.854, 8.836e-6
-0.855, 8.839e-6
-0.856, 8.844e-6
-0.857, 8.848e-6
-0.858, 8.852e-6
-0.859, 8.855e-6
-0.860, 8.861e-6
-0.861, 8.862e-6
-0.862, 8.867e-6
-0.863, 8.871e-6
-0.864, 8.873e-6
-0.865, 8.878e-6
-0.866, 8.880e-6
-0.867, 8.885e-6
-0.868, 8.887e-6
-0.869, 8.891e-6
-0.870, 8.897e-6
-0.871, 8.901e-6
-0.872, 8.903e-6
-0.873, 8.906e-6
-0.874, 8.909e-6
-0.875, 8.914e-6
-0.876, 8.916e-6
-0.877, 8.919e-6
-0.878, 8.924e-6
-0.879, 8.926e-6
-0.880, 8.931e-6
-0.881, 8.934e-6
-0.882, 8.935e-6
-0.883, 8.940e-6
-0.884, 8.944e-6
-0.885, 8.947e-6
-0.886, 8.951e-6
-0.887, 8.953e-6
-0.888, 8.957e-6
-0.889, 8.960e-6
-0.890, 8.961e-6
-0.891, 8.964e-6
-0.892, 8.968e-6
-0.893, 8.971e-6
-0.894, 8.974e-6
-0.895, 8.977e-6
-0.896, 8.980e-6
-0.897, 8.983e-6
-0.898, 8.986e-6
-0.899, 8.990e-6
-0.900, 8.993e-6
-0.901, 8.994e-6
-0.902, 8.998e-6
-0.903, 9.000e-6
-0.904, 9.002e-6
-0.905, 9.005e-6
-0.906, 9.008e-6
-0.907, 9.009e-6
-0.908, 9.013e-6
-0.909, 9.015e-6
-0.910, 9.019e-6
-0.911, 9.020e-6
-0.912, 9.022e-6
-0.913, 9.025e-6
-0.914, 9.026e-6
-0.915, 9.030e-6
-0.916, 9.031e-6
-0.917, 9.032e-6
-0.918, 9.034e-6
-0.919, 9.035e-6
-0.920, 9.037e-6
-0.921, 9.039e-6
-0.922, 9.042e-6
-0.923, 9.044e-6
-0.924, 9.047e-6
-0.925, 9.050e-6
-0.926, 9.050e-6
-0.927, 9.052e-6
-0.928, 9.052e-6
-0.929, 9.054e-6
-0.930, 9.055e-6
-0.931, 9.058e-6
-0.932, 9.061e-6
-0.933, 9.060e-6
-0.934, 9.062e-6
-0.935, 9.064e-6
-0.936, 9.064e-6
-0.937, 9.065e-6
-0.938, 9.065e-6
-0.939, 9.068e-6
-0.940, 9.069e-6
-0.941, 9.069e-6
-0.942, 9.072e-6
-0.943, 9.071e-6
-0.944, 9.074e-6
-0.945, 9.073e-6
-0.946, 9.072e-6
-0.947, 9.074e-6
-0.948, 9.076e-6
-0.949, 9.075e-6
-0.950, 9.079e-6
-0.951, 9.078e-6
-0.952, 9.078e-6
-0.953, 9.080e-6
-0.954, 9.080e-6
-0.955, 9.082e-6
-0.956, 9.081e-6
-0.957, 9.082e-6
-0.958, 9.084e-6
-0.959, 9.083e-6
-0.960, 9.086e-6
-0.961, 9.087e-6
-0.962, 9.088e-6
-0.963, 9.089e-6
-0.964, 9.089e-6
-0.965, 9.088e-6
-0.966, 9.089e-6
-0.967, 9.090e-6
-0.968, 9.086e-6
-0.969, 9.088e-6
-0.970, 9.089e-6
-0.971, 9.090e-6
-0.972, 9.089e-6
-0.973, 9.089e-6
-0.974, 9.088e-6
-0.975, 9.090e-6
-0.976, 9.089e-6
-0.977, 9.088e-6
-0.978, 9.086e-6
-0.979, 9.087e-6
-0.980, 9.088e-6
-0.981, 9.086e-6
-0.982, 9.088e-6
-0.983, 9.087e-6
-0.984, 9.083e-6
-0.985, 9.085e-6
-0.986, 9.084e-6
-0.987, 9.084e-6
-0.988, 9.083e-6
-0.989, 9.082e-6
-0.990, 9.084e-6
-0.991, 9.083e-6
-0.992, 9.083e-6
-0.993, 9.082e-6
-0.994, 9.081e-6
-0.995, 9.082e-6
-0.996, 9.083e-6
-0.997, 9.084e-6
-0.998, 9.082e-6
-0.999, 9.080e-6
-1.000, 9.080e-6
-1.001, 9.079e-6
-1.002, 9.080e-6
-1.003, 9.080e-6
-1.004, 9.080e-6
-1.005, 9.078e-6
-1.006, 9.079e-6
-1.007, 9.077e-6
-1.008, 9.077e-6
-1.009, 9.077e-6
-1.010, 9.077e-6
-1.011, 9.077e-6
-1.012, 9.078e-6
-1.013, 9.077e-6
-1.014, 9.078e-6
-1.015, 9.077e-6
-1.016, 9.076e-6
-1.017, 9.076e-6
-1.018, 9.076e-6
-1.019, 9.078e-6
-1.020, 9.079e-6
-1.021, 9.079e-6
-1.022, 9.081e-6
-1.023, 9.079e-6
-1.024, 9.081e-6
-1.025, 9.083e-6
-1.026, 9.079e-6
-1.027, 9.081e-6
-1.028, 9.082e-6
-1.029, 9.081e-6
-1.030, 9.082e-6
-1.031, 9.082e-6
-1.032, 9.083e-6
-1.033, 9.086e-6
-1.034, 9.089e-6
-1.035, 9.090e-6
-1.036, 9.093e-6
-1.037, 9.094e-6
-1.038, 9.094e-6
-1.039, 9.093e-6
-1.040, 9.090e-6
-1.041, 9.093e-6
-1.042, 9.096e-6
-1.043, 9.100e-6
-1.044, 9.099e-6
-1.045, 9.100e-6
-1.046, 9.103e-6
-1.047, 9.104e-6
-1.048, 9.110e-6
-1.049, 9.106e-6
-1.050, 9.108e-6
-1.051, 9.107e-6
-1.052, 9.106e-6
-1.053, 9.110e-6
-1.054, 9.112e-6
-1.055, 9.112e-6
-1.056, 9.113e-6
-1.057, 9.116e-6
-1.058, 9.118e-6
-1.059, 9.122e-6
-1.060, 9.125e-6
-1.061, 9.125e-6
-1.062, 9.130e-6
-1.063, 9.133e-6
-1.064, 9.135e-6
-1.065, 9.139e-6
-1.066, 9.140e-6
-1.067, 9.145e-6
-1.068, 9.149e-6
-1.069, 9.150e-6
-1.070, 9.154e-6
-1.071, 9.155e-6
-1.072, 9.159e-6
-1.073, 9.161e-6
-1.074, 9.164e-6
-1.075, 9.170e-6
-1.076, 9.173e-6
-1.077, 9.175e-6
-1.078, 9.180e-6
-1.079, 9.181e-6
-1.080, 9.185e-6
-1.081, 9.190e-6
-1.082, 9.195e-6
-1.083, 9.200e-6
-1.084, 9.204e-6
-1.085, 9.208e-6
-1.086, 9.213e-6
-1.087, 9.218e-6
-1.088, 9.225e-6
-1.089, 9.232e-6
-1.090, 9.236e-6
-1.091, 9.242e-6
-1.092, 9.249e-6
-1.093, 9.253e-6
-1.094, 9.261e-6
-1.095, 9.265e-6
-1.096, 9.272e-6
-1.097, 9.277e-6
-1.098, 9.285e-6
-1.099, 9.292e-6
-1.100, 9.300e-6
-1.101, 9.309e-6
-1.102, 9.318e-6
-1.103, 9.324e-6
-1.104, 9.329e-6
-1.105, 9.334e-6
-1.106, 9.339e-6
-1.107, 9.346e-6
-1.108, 9.352e-6
-1.109, 9.359e-6
-1.110, 9.367e-6
-1.111, 9.374e-6
-1.112, 9.383e-6
-1.113, 9.392e-6
-1.114, 9.399e-6
-1.115, 9.413e-6
-1.116, 9.426e-6
-1.117, 9.426e-6
-1.118, 9.435e-6
-1.119, 9.441e-6
-1.120, 9.449e-6
-1.121, 9.458e-6
-1.122, 9.466e-6
-1.123, 9.476e-6
-1.124, 9.487e-6
-1.125, 9.497e-6
-1.126, 9.508e-6
-1.127, 9.517e-6
-1.128, 9.527e-6
-1.129, 9.539e-6
-1.130, 9.547e-6
-1.131, 9.559e-6
-1.132, 9.570e-6
-1.133, 9.584e-6
-1.134, 9.594e-6
-1.135, 9.604e-6
-1.136, 9.616e-6
-1.137, 9.629e-6
-1.138, 9.643e-6
-1.139, 9.656e-6
-1.140, 9.669e-6
-1.141, 9.681e-6
-1.142, 9.697e-6
-1.143, 9.709e-6
-1.144, 9.722e-6
-1.145, 9.736e-6
-1.146, 9.749e-6
-1.147, 9.764e-6
-1.148, 9.779e-6
-1.149, 9.788e-6
-1.150, 9.804e-6
-1.151, 9.818e-6
-1.152, 9.834e-6
-1.153, 9.854e-6
-1.154, 9.861e-6
-1.155, 9.872e-6
-1.156, 9.886e-6
-1.157, 9.904e-6
-1.158, 9.920e-6
-1.159, 9.939e-6
-1.160, 9.954e-6
-1.161, 9.969e-6
-1.162, 9.985e-6
-1.163, 1.000e-5
-1.164, 1.002e-5
-1.165, 1.004e-5
-1.166, 1.005e-5
-1.167, 1.007e-5
-1.168, 1.009e-5
-1.169, 1.011e-5
-1.170, 1.012e-5
-1.171, 1.014e-5
-1.172, 1.015e-5
-1.173, 1.017e-5
-1.174, 1.019e-5
-1.175, 1.021e-5
-1.176, 1.023e-5
-1.177, 1.025e-5
-1.178, 1.027e-5
-1.179, 1.029e-5
-1.180, 1.031e-5
-1.181, 1.033e-5
-1.182, 1.035e-5
-1.183, 1.037e-5
-1.184, 1.039e-5
-1.185, 1.041e-5
-1.186, 1.043e-5
-1.187, 1.045e-5
-1.188, 1.047e-5
-1.189, 1.049e-5
-1.190, 1.052e-5
-1.191, 1.054e-5
-1.192, 1.056e-5
-1.193, 1.059e-5
-1.194, 1.061e-5
-1.195, 1.063e-5
-1.196, 1.066e-5
-1.197, 1.068e-5
-1.198, 1.071e-5
-1.199, 1.073e-5
-1.200, 1.076e-5
-1.201, 1.078e-5
-1.202, 1.081e-5
-1.203, 1.083e-5
-1.204, 1.086e-5
-1.205, 1.088e-5
-1.206, 1.090e-5
-1.207, 1.093e-5
-1.208, 1.095e-5
-1.209, 1.098e-5
-1.210, 1.101e-5
-1.211, 1.103e-5
-1.212, 1.106e-5
-1.213, 1.109e-5
-1.214, 1.111e-5
-1.215, 1.114e-5
-1.216, 1.117e-5
-1.217, 1.120e-5
-1.218, 1.122e-5
-1.219, 1.125e-5
-1.220, 1.128e-5
-1.221, 1.131e-5
-1.222, 1.134e-5
-1.223, 1.137e-5
-1.224, 1.140e-5
-1.225, 1.143e-5
-1.226, 1.147e-5
-1.227, 1.151e-5
-1.228, 1.155e-5
-1.229, 1.159e-5
-1.230, 1.162e-5
-1.231, 1.165e-5
-1.232, 1.168e-5
-1.233, 1.169e-5
-1.234, 1.171e-5
-1.235, 1.175e-5
-1.236, 1.178e-5
-1.237, 1.181e-5
-1.238, 1.184e-5
-1.239, 1.188e-5
-1.240, 1.192e-5
-1.241, 1.196e-5
-1.242, 1.199e-5
-1.243, 1.202e-5
-1.244, 1.204e-5
-1.245, 1.207e-5
-1.246, 1.210e-5
-1.247, 1.214e-5
-1.248, 1.217e-5
-1.249, 1.221e-5
-1.250, 1.225e-5
-1.251, 1.229e-5
-1.252, 1.232e-5
-1.253, 1.236e-5
-1.254, 1.239e-5
-1.255, 1.243e-5
-1.256, 1.246e-5
-1.257, 1.250e-5
-1.258, 1.254e-5
-1.259, 1.258e-5
-1.260, 1.262e-5
-1.261, 1.265e-5
-1.262, 1.270e-5
-1.263, 1.273e-5
-1.264, 1.278e-5
-1.265, 1.282e-5
-1.266, 1.286e-5
-1.267, 1.290e-5
-1.268, 1.294e-5
-1.269, 1.298e-5
-1.270, 1.303e-5
-1.271, 1.307e-5
-1.272, 1.311e-5
-1.273, 1.316e-5
-1.274, 1.320e-5
-1.275, 1.325e-5
-1.276, 1.329e-5
-1.277, 1.334e-5
-1.278, 1.338e-5
-1.279, 1.343e-5
-1.280, 1.348e-5
-1.281, 1.352e-5
-1.282, 1.357e-5
-1.283, 1.362e-5
-1.284, 1.367e-5
-1.285, 1.372e-5
-1.286, 1.377e-5
-1.287, 1.381e-5
-1.288, 1.387e-5
-1.289, 1.392e-5
-1.290, 1.397e-5
-1.291, 1.402e-5
-1.292, 1.406e-5
-1.293, 1.411e-5
-1.294, 1.416e-5
-1.295, 1.421e-5
-1.296, 1.427e-5
-1.297, 1.433e-5
-1.298, 1.438e-5
-1.299, 1.443e-5
-1.300, 1.449e-5
-1.301, 1.454e-5
-1.302, 1.459e-5
-1.303, 1.465e-5
-1.304, 1.471e-5
-1.305, 1.476e-5
-1.306, 1.482e-5
-1.307, 1.488e-5
-1.308, 1.494e-5
-1.309, 1.500e-5
-1.310, 1.505e-5
-1.311, 1.511e-5
-1.312, 1.517e-5
-1.313, 1.524e-5
-1.314, 1.529e-5
-1.315, 1.535e-5
-1.316, 1.542e-5
-1.317, 1.548e-5
-1.318, 1.554e-5
-1.319, 1.560e-5
-1.320, 1.567e-5
-1.321, 1.574e-5
-1.322, 1.580e-5
-1.323, 1.586e-5
-1.324, 1.593e-5
-1.325, 1.600e-5
-1.326, 1.607e-5
-1.327, 1.613e-5
-1.328, 1.620e-5
-1.329, 1.627e-5
-1.330, 1.634e-5
-1.331, 1.641e-5
-1.332, 1.648e-5
-1.333, 1.655e-5
-1.334, 1.662e-5
-1.335, 1.669e-5
-1.336, 1.676e-5
-1.337, 1.684e-5
-1.338, 1.690e-5
-1.339, 1.697e-5
-1.340, 1.704e-5
-1.341, 1.712e-5
-1.342, 1.719e-5
-1.343, 1.726e-5
-1.344, 1.734e-5
-1.345, 1.741e-5
-1.346, 1.748e-5
-1.347, 1.756e-5
-1.348, 1.763e-5
-1.349, 1.771e-5
-1.350, 1.778e-5
-1.351, 1.786e-5
-1.352, 1.793e-5
-1.353, 1.801e-5
-1.354, 1.809e-5
-1.355, 1.817e-5
-1.356, 1.824e-5
-1.357, 1.831e-5
-1.358, 1.839e-5
-1.359, 1.847e-5
-1.360, 1.855e-5
-1.361, 1.863e-5
-1.362, 1.870e-5
-1.363, 1.879e-5
-1.364, 1.887e-5
-1.365, 1.895e-5
-1.366, 1.902e-5
-1.367, 1.911e-5
-1.368, 1.919e-5
-1.369, 1.928e-5
-1.370, 1.936e-5
-1.371, 1.944e-5
-1.372, 1.952e-5
-1.373, 1.959e-5
-1.374, 1.968e-5
-1.375, 1.976e-5
-1.376, 1.985e-5
-1.377, 1.993e-5
-1.378, 2.001e-5
-1.379, 2.009e-5
-1.380, 2.017e-5
-1.381, 2.025e-5
-1.382, 2.034e-5
-1.383, 2.042e-5
-1.384, 2.050e-5
-1.385, 2.057e-5
-1.386, 2.065e-5
-1.387, 2.073e-5
-1.388, 2.082e-5
-1.389, 2.090e-5
-1.390, 2.098e-5
-1.391, 2.106e-5
-1.392, 2.115e-5
-1.393, 2.124e-5
-1.394, 2.132e-5
-1.395, 2.140e-5
-1.396, 2.148e-5
-1.397, 2.156e-5
-1.398, 2.164e-5
-1.399, 2.172e-5
-1.400, 2.181e-5
-1.401, 2.189e-5
-1.402, 2.198e-5
-1.403, 2.206e-5
-1.404, 2.215e-5
-1.405, 2.223e-5
-1.406, 2.231e-5
-1.407, 2.240e-5
-1.408, 2.250e-5
-1.409, 2.258e-5
-1.410, 2.266e-5
-1.411, 2.274e-5
-1.412, 2.282e-5
-1.413, 2.290e-5
-1.414, 2.298e-5
-1.415, 2.307e-5
-1.416, 2.315e-5
-1.417, 2.324e-5
-1.418, 2.332e-5
-1.419, 2.340e-5
-1.420, 2.349e-5
-1.421, 2.358e-5
-1.422, 2.366e-5
-1.423, 2.375e-5
-1.424, 2.383e-5
-1.425, 2.392e-5
-1.426, 2.401e-5
-1.427, 2.410e-5
-1.428, 2.418e-5
-1.429, 2.427e-5
-1.430, 2.436e-5
-1.431, 2.444e-5
-1.432, 2.453e-5
-1.433, 2.462e-5
-1.434, 2.470e-5
-1.435, 2.478e-5
-1.436, 2.486e-5
-1.437, 2.495e-5
-1.438, 2.504e-5
-1.439, 2.512e-5
-1.440, 2.521e-5
-1.441, 2.531e-5
-1.442, 2.539e-5
-1.443, 2.548e-5
-1.444, 2.557e-5
-1.445, 2.565e-5
-1.446, 2.574e-5
-1.447, 2.583e-5
-1.448, 2.593e-5
-1.449, 2.601e-5
-1.450, 2.609e-5
-1.451, 2.619e-5
-1.452, 2.629e-5
-1.453, 2.638e-5
-1.454, 2.647e-5
-1.455, 2.655e-5
-1.456, 2.664e-5
-1.457, 2.673e-5
-1.458, 2.683e-5
-1.459, 2.691e-5
-1.460, 2.701e-5
-1.461, 2.710e-5
-1.462, 2.719e-5
-1.463, 2.728e-5
-1.464, 2.737e-5
-1.465, 2.746e-5
-1.466, 2.756e-5
-1.467, 2.765e-5
-1.468, 2.774e-5
-1.469, 2.783e-5
-1.470, 2.792e-5
-1.471, 2.801e-5
-1.472, 2.811e-5
-1.473, 2.821e-5
-1.474, 2.832e-5
-1.475, 2.842e-5
-1.476, 2.851e-5
-1.477, 2.860e-5
-1.478, 2.870e-5
-1.479, 2.880e-5
-1.480, 2.890e-5
-1.481, 2.899e-5
-1.482, 2.909e-5
-1.483, 2.919e-5
-1.484, 2.929e-5
-1.485, 2.940e-5
-1.486, 2.950e-5
-1.487, 2.960e-5
-1.488, 2.970e-5
-1.489, 2.980e-5
-1.490, 2.988e-5
-1.491, 2.997e-5
-1.492, 3.006e-5
-1.493, 3.016e-5
-1.494, 3.026e-5
-1.495, 3.036e-5
-1.496, 3.046e-5
-1.497, 3.056e-5
-1.498, 3.066e-5
-1.499, 3.076e-5
-1.500, 3.086e-5
-1.501, 3.097e-5
-1.502, 3.107e-5
-1.503, 3.117e-5
-1.504, 3.127e-5
-1.505, 3.137e-5
-1.506, 3.148e-5
-1.507, 3.158e-5
-1.508, 3.168e-5
-1.509, 3.178e-5
-1.510, 3.190e-5
-1.511, 3.200e-5
-1.512, 3.211e-5
-1.513, 3.223e-5
-1.514, 3.233e-5
-1.515, 3.245e-5
-1.516, 3.255e-5
-1.517, 3.266e-5
-1.518, 3.278e-5
-1.519, 3.289e-5
-1.520, 3.301e-5
-1.521, 3.312e-5
-1.522, 3.322e-5
-1.523, 3.331e-5
-1.524, 3.343e-5
-1.525, 3.356e-5
-1.526, 3.368e-5
-1.527, 3.378e-5
-1.528, 3.389e-5
-1.529, 3.400e-5
-1.530, 3.411e-5
-1.531, 3.422e-5
-1.532, 3.433e-5
-1.533, 3.445e-5
-1.534, 3.456e-5
-1.535, 3.467e-5
-1.536, 3.479e-5
-1.537, 3.492e-5
-1.538, 3.504e-5
-1.539, 3.517e-5
-1.540, 3.529e-5
-1.541, 3.541e-5
-1.542, 3.553e-5
-1.543, 3.564e-5
-1.544, 3.576e-5
-1.545, 3.588e-5
-1.546, 3.600e-5
-1.547, 3.614e-5
-1.548, 3.628e-5
-1.549, 3.638e-5
-1.550, 3.650e-5
-1.551, 3.662e-5
-1.552, 3.675e-5
-1.553, 3.688e-5
-1.554, 3.700e-5
-1.555, 3.709e-5
-1.556, 3.721e-5
-1.557, 3.734e-5
-1.558, 3.747e-5
-1.559, 3.760e-5
-1.560, 3.774e-5
-1.561, 3.787e-5
-1.562, 3.801e-5
-1.563, 3.816e-5
-1.564, 3.833e-5
-1.565, 3.846e-5
-1.566, 3.858e-5
-1.567, 3.872e-5
-1.568, 3.886e-5
-1.569, 3.902e-5
-1.570, 3.920e-5
-1.571, 3.930e-5
-1.572, 3.943e-5
-1.573, 3.958e-5
-1.574, 3.975e-5
-1.575, 3.990e-5
-1.576, 4.006e-5
-1.577, 4.022e-5
-1.578, 4.038e-5
-1.579, 4.049e-5
-1.580, 4.062e-5
-1.581, 4.080e-5
-1.582, 4.098e-5
-1.583, 4.112e-5
-1.584, 4.130e-5
-1.585, 4.147e-5
-1.586, 4.162e-5
-1.587, 4.180e-5
-1.588, 4.200e-5
-1.589, 4.218e-5
-1.590, 4.236e-5
-1.591, 4.257e-5
-1.592, 4.278e-5
-1.593, 4.298e-5
-1.594, 4.321e-5
-1.595, 4.335e-5
-1.596, 4.357e-5
-1.597, 4.375e-5
-1.598, 4.397e-5
-1.599, 4.418e-5
-1.600, 4.441e-5
-1.601, 4.463e-5
-1.602, 4.487e-5
-1.603, 4.512e-5
-1.604, 4.540e-5
-1.605, 4.572e-5
-1.606, 4.600e-5
-1.607, 4.622e-5
-1.608, 4.647e-5
-1.609, 4.669e-5
-1.610, 4.692e-5
-1.611, 4.717e-5
-1.612, 4.743e-5
-1.613, 4.768e-5
-1.614, 4.796e-5
-1.615, 4.823e-5
-1.616, 4.853e-5
-1.617, 4.885e-5
-1.618, 4.916e-5
-1.619, 4.953e-5
-1.620, 4.992e-5
-1.621, 5.022e-5
-1.622, 5.048e-5
-1.623, 5.083e-5
-1.624, 5.121e-5
-1.625, 5.159e-5
-1.626, 5.208e-5
-1.627, 5.238e-5
-1.628, 5.283e-5
-1.629, 5.336e-5
-1.630, 5.369e-5
-1.631, 5.404e-5
-1.632, 5.450e-5
-1.633, 5.515e-5
-1.634, 5.630e-5
-1.635, 5.596e-5
-1.636, 5.610e-5
-1.637, 5.658e-5
-1.638, 5.710e-5
-1.639, 5.761e-5
-1.640, 5.812e-5
-1.641, 5.863e-5
-1.642, 5.917e-5
-1.643, 5.973e-5
-1.644, 6.030e-5
-1.645, 6.097e-5
-1.646, 6.155e-5
-1.647, 6.220e-5
-1.648, 6.294e-5
-1.649, 6.366e-5
-1.650, 6.440e-5
-1.651, 6.518e-5
-1.652, 6.601e-5
-1.653, 6.630e-5
-1.654, 6.660e-5
-1.655, 6.724e-5
-1.656, 6.797e-5
-1.657, 6.878e-5
-1.658, 6.963e-5
-1.659, 7.030e-5
-1.660, 7.106e-5
-1.661, 7.187e-5
-1.662, 7.269e-5
-1.663, 7.356e-5
-1.664, 7.439e-5
-1.665, 7.578e-5
-1.666, 7.755e-5
-1.667, 7.742e-5
-1.668, 7.807e-5
-1.669, 7.904e-5
-1.670, 8.001e-5
-1.671, 8.096e-5
-1.672, 8.200e-5
-1.673, 8.393e-5
-1.674, 8.514e-5
-1.675, 8.520e-5
-1.676, 8.617e-5
-1.677, 8.729e-5
-1.678, 8.946e-5
-1.679, 9.070e-5
-1.680, 9.099e-5
-1.681, 9.222e-5
-1.682, 9.459e-5
-1.683, 9.543e-5
-1.684, 9.590e-5
-1.685, 9.763e-5
-1.686, 9.989e-5
-1.687, 1.002e-4
-1.688, 1.015e-4
-1.689, 1.043e-4
-1.690, 1.052e-4
-1.691, 1.063e-4
-1.692, 1.089e-4
-1.693, 1.097e-4
-1.694, 1.109e-4
-1.695, 1.134e-4
-1.696, 1.144e-4
-1.697, 1.158e-4
-1.698, 1.188e-4
-1.699, 1.198e-4
-1.700, 1.211e-4
-1.701, 1.243e-4
-1.702, 1.250e-4
-1.703, 1.270e-4
-1.704, 1.301e-4
-1.705, 1.309e-4
-1.706, 1.337e-4
-1.707, 1.359e-4
-1.708, 1.373e-4
-1.709, 1.409e-4
-1.710, 1.423e-4
-1.711, 1.442e-4
-1.712, 1.478e-4
-1.713, 1.489e-4
-1.714, 1.522e-4
-1.715, 1.545e-4
-1.716, 1.563e-4
-1.717, 1.598e-4
-1.718, 1.612e-4
-1.719, 1.651e-4
-1.720, 1.669e-4
-1.721, 1.699e-4
-1.722, 1.734e-4
-1.723, 1.754e-4
-1.724, 1.795e-4
-1.725, 1.810e-4
-1.726, 1.850e-4
-1.727, 1.877e-4
-1.728, 1.915e-4
-1.729, 1.942e-4
-1.730, 1.980e-4
-1.731, 2.007e-4
-1.732, 2.051e-4
-1.733, 2.080e-4
-1.734, 2.117e-4
-1.735, 2.156e-4
-1.736, 2.187e-4
-1.737, 2.233e-4
-1.738, 2.264e-4
-1.739, 2.310e-4
-1.740, 2.351e-4
-1.741, 2.389e-4
-1.742, 2.435e-4
-1.743, 2.471e-4
-1.744, 2.519e-4
-1.745, 2.567e-4
-1.746, 2.609e-4
-1.747, 2.657e-4
-1.748, 2.706e-4
-1.749, 2.756e-4
-1.750, 2.803e-4
-1.751, 2.851e-4
-1.752, 2.904e-4
-1.753, 2.955e-4
-1.754, 3.007e-4
-1.755, 3.059e-4
-1.756, 3.114e-4
-1.757, 3.169e-4
-1.758, 3.223e-4
-1.759, 3.278e-4
-1.760, 3.334e-4
-1.761, 3.392e-4
-1.762, 3.454e-4
-1.763, 3.510e-4
-1.764, 3.568e-4
-1.765, 3.630e-4
-1.766, 3.691e-4
-1.767, 3.750e-4
-1.768, 3.813e-4
-1.769, 3.878e-4
-1.770, 3.942e-4
-1.771, 4.007e-4
-1.772, 4.076e-4
-1.773, 4.142e-4
-1.774, 4.212e-4
-1.775, 4.283e-4
-1.776, 4.354e-4
-1.777, 4.426e-4
-1.778, 4.497e-4
-1.779, 4.570e-4
-1.780, 4.643e-4
-1.781, 4.718e-4
-1.782, 4.796e-4
-1.783, 4.872e-4
-1.784, 4.946e-4
-1.785, 5.023e-4
-1.786, 5.100e-4
-1.787, 5.177e-4
-1.788, 5.256e-4
-1.789, 5.336e-4
-1.790, 5.417e-4
-1.791, 5.497e-4
-1.792, 5.582e-4
-1.793, 5.664e-4
-1.794, 5.748e-4
-1.795, 5.833e-4
-1.796, 5.916e-4
-1.797, 6.001e-4
-1.798, 6.087e-4
-1.799, 6.173e-4
-1.800, 6.262e-4
-1.801, 6.350e-4
-1.802, 6.440e-4
-1.803, 6.530e-4
-1.804, 6.621e-4
-1.805, 6.714e-4
-1.806, 6.806e-4
-1.807, 6.901e-4
-1.808, 6.993e-4
-1.809, 7.087e-4
-1.810, 7.183e-4
-1.811, 7.279e-4
-1.812, 7.373e-4
-1.813, 7.467e-4
-1.814, 7.565e-4
-1.815, 7.662e-4
-1.816, 7.759e-4
-1.817, 7.860e-4
-1.818, 7.963e-4
-1.819, 8.064e-4
-1.820, 8.165e-4
-1.821, 8.263e-4
-1.822, 8.365e-4
-1.823, 8.476e-4
-1.824, 8.582e-4
-1.825, 8.686e-4
-1.826, 8.786e-4
-1.827, 8.887e-4
-1.828, 8.991e-4
-1.829, 9.098e-4
-1.830, 9.205e-4
-1.831, 9.310e-4
-1.832, 9.413e-4
-1.833, 9.521e-4
-1.834, 9.630e-4
-1.835, 9.736e-4
-1.836, 9.843e-4
-1.837, 9.952e-4
-1.838, 1.006e-3
-1.839, 1.011e-3
-1.840, 1.011e-3
-1.841, 1.011e-3
-1.842, 1.011e-3
-1.843, 1.011e-3
-1.844, 1.011e-3
-1.845, 1.011e-3
-1.846, 1.011e-3
-1.847, 1.011e-3
-1.848, 1.011e-3
-1.849, 1.011e-3
-1.850, 1.011e-3
-1.851, 1.011e-3
-1.852, 1.011e-3
-1.853, 1.011e-3
-1.854, 1.011e-3
-1.855, 1.011e-3
-1.856, 1.011e-3
-1.857, 1.011e-3
-1.858, 1.011e-3
-1.859, 1.011e-3
-1.860, 1.011e-3
-1.861, 1.011e-3
-1.862, 1.011e-3
-1.863, 1.011e-3
-1.864, 1.011e-3
-1.865, 1.011e-3
-1.866, 1.011e-3
-1.867, 1.011e-3
-1.868, 1.011e-3
-1.869, 1.011e-3
-1.870, 1.011e-3
-1.871, 1.011e-3
-1.872, 1.011e-3
-1.873, 1.011e-3
-1.874, 1.011e-3
-1.875, 1.011e-3
-1.876, 1.011e-3
-1.877, 1.011e-3
-1.878, 1.011e-3
-1.879, 1.011e-3
-1.880, 1.011e-3
-1.881, 1.011e-3
-1.882, 1.011e-3
-1.883, 1.011e-3
-1.884, 1.011e-3
-1.885, 1.011e-3
-1.886, 1.011e-3
-1.887, 1.011e-3
-1.888, 1.011e-3
-1.889, 1.011e-3
-1.890, 1.011e-3
-1.891, 1.011e-3
-1.892, 1.011e-3
-1.893, 1.011e-3
-1.894, 1.011e-3
-1.895, 1.011e-3
-1.896, 1.011e-3
-1.897, 1.011e-3
-1.898, 1.011e-3
-1.899, 1.011e-3
