Dec. 15, 2024   12:37:00
Cyclic Voltammetry
File: c:/users/guazh/data/banditlqround7_x0exp59_r20/2024-12-09-exp668\exp668-2024-12-15t12_30_17-h2koh\exp668_cv_sr_300mvs_efin_-1400mv.bin
Data Source:  Experiment
Instrument Model:  CHI760E
Header: CV ran at 300 mVs
Note: 

Init E (V) = -1
High E (V) = -1
Low E (V) = -1.4
Final E (V) = -1
Init P/N = N
Scan Rate (V/s) = 0.3
Segment = 3
Sample Interval (V) = 0.001
Quiet Time (sec) = 2
Sensitivity (A/V) = 0.01
Comp R (ohm) = 1.2

Results:

Channel 1:
Segment 1:

Segment 2:

Segment 3:

Potential/V, Current/A

-1.000, -2.257e-3
-1.001, -2.118e-3
-1.002, -1.992e-3
-1.003, -1.884e-3
-1.004, -1.782e-3
-1.005, -1.677e-3
-1.006, -1.563e-3
-1.007, -1.458e-3
-1.008, -1.366e-3
-1.009, -1.279e-3
-1.010, -1.187e-3
-1.011, -1.088e-3
-1.012, -9.957e-4
-1.013, -9.155e-4
-1.014, -8.354e-4
-1.015, -7.521e-4
-1.016, -6.627e-4
-1.017, -5.764e-4
-1.018, -5.024e-4
-1.019, -4.346e-4
-1.020, -3.575e-4
-1.021, -2.742e-4
-1.022, -1.941e-4
-1.023, -1.263e-4
-1.024, -6.459e-5
-1.025, 6.322e-6
-1.026, 8.648e-5
-1.027, 1.605e-4
-1.028, 2.252e-4
-1.029, 2.807e-4
-1.030, 3.485e-4
-1.031, 4.225e-4
-1.032, 4.935e-4
-1.033, 5.520e-4
-1.034, 6.044e-4
-1.035, 6.692e-4
-1.036, 7.401e-4
-1.037, 8.079e-4
-1.038, 8.634e-4
-1.039, 9.158e-4
-1.040, 9.744e-4
-1.041, 1.042e-3
-1.042, 1.107e-3
-1.043, 1.159e-3
-1.044, 1.209e-3
-1.045, 1.261e-3
-1.046, 1.329e-3
-1.047, 1.391e-3
-1.048, 1.443e-3
-1.049, 1.489e-3
-1.050, 1.545e-3
-1.051, 1.610e-3
-1.052, 1.668e-3
-1.053, 1.717e-3
-1.054, 1.761e-3
-1.055, 1.813e-3
-1.056, 1.875e-3
-1.057, 1.936e-3
-1.058, 1.980e-3
-1.059, 2.023e-3
-1.060, 2.072e-3
-1.061, 2.134e-3
-1.062, 2.189e-3
-1.063, 2.235e-3
-1.064, 2.275e-3
-1.065, 2.328e-3
-1.066, 2.390e-3
-1.067, 2.442e-3
-1.068, 2.488e-3
-1.069, 2.525e-3
-1.070, 2.578e-3
-1.071, 2.633e-3
-1.072, 2.689e-3
-1.073, 2.732e-3
-1.074, 2.769e-3
-1.075, 2.818e-3
-1.076, 2.877e-3
-1.077, 2.929e-3
-1.078, 2.969e-3
-1.079, 3.009e-3
-1.080, 3.059e-3
-1.081, 3.117e-3
-1.082, 3.170e-3
-1.083, 3.210e-3
-1.084, 3.250e-3
-1.085, 3.299e-3
-1.086, 3.358e-3
-1.087, 3.407e-3
-1.088, 3.447e-3
-1.089, 3.481e-3
-1.090, 3.524e-3
-1.091, 3.580e-3
-1.092, 3.632e-3
-1.093, 3.675e-3
-1.094, 3.709e-3
-1.095, 3.755e-3
-1.096, 3.811e-3
-1.097, 3.860e-3
-1.098, 3.900e-3
-1.099, 3.934e-3
-1.100, 3.984e-3
-1.101, 4.039e-3
-1.102, 4.091e-3
-1.103, 4.132e-3
-1.104, 4.165e-3
-1.105, 4.212e-3
-1.106, 4.261e-3
-1.107, 4.313e-3
-1.108, 4.350e-3
-1.109, 4.381e-3
-1.110, 4.428e-3
-1.111, 4.480e-3
-1.112, 4.529e-3
-1.113, 4.566e-3
-1.114, 4.600e-3
-1.115, 4.646e-3
-1.116, 4.699e-3
-1.117, 4.748e-3
-1.118, 4.788e-3
-1.119, 4.822e-3
-1.120, 4.865e-3
-1.121, 4.918e-3
-1.122, 4.967e-3
-1.123, 5.001e-3
-1.124, 5.032e-3
-1.125, 5.075e-3
-1.126, 5.127e-3
-1.127, 5.177e-3
-1.128, 5.211e-3
-1.129, 5.241e-3
-1.130, 5.288e-3
-1.131, 5.340e-3
-1.132, 5.386e-3
-1.133, 5.420e-3
-1.134, 5.451e-3
-1.135, 5.494e-3
-1.136, 5.544e-3
-1.137, 5.590e-3
-1.138, 5.624e-3
-1.139, 5.658e-3
-1.140, 5.701e-3
-1.141, 5.750e-3
-1.142, 5.799e-3
-1.143, 5.833e-3
-1.144, 5.867e-3
-1.145, 5.910e-3
-1.146, 5.960e-3
-1.147, 6.009e-3
-1.148, 6.043e-3
-1.149, 6.074e-3
-1.150, 6.114e-3
-1.151, 6.163e-3
-1.152, 6.206e-3
-1.153, 6.237e-3
-1.154, 6.268e-3
-1.155, 6.308e-3
-1.156, 6.358e-3
-1.157, 6.401e-3
-1.158, 6.435e-3
-1.159, 6.465e-3
-1.160, 6.506e-3
-1.161, 6.558e-3
-1.162, 6.604e-3
-1.163, 6.638e-3
-1.164, 6.666e-3
-1.165, 6.709e-3
-1.166, 6.758e-3
-1.167, 6.801e-3
-1.168, 6.832e-3
-1.169, 6.860e-3
-1.170, 6.897e-3
-1.171, 6.946e-3
-1.172, 6.990e-3
-1.173, 7.020e-3
-1.174, 7.051e-3
-1.175, 7.088e-3
-1.176, 7.138e-3
-1.177, 7.181e-3
-1.178, 7.215e-3
-1.179, 7.245e-3
-1.180, 7.289e-3
-1.181, 7.338e-3
-1.182, 7.381e-3
-1.183, 7.412e-3
-1.184, 7.443e-3
-1.185, 7.483e-3
-1.186, 7.526e-3
-1.187, 7.566e-3
-1.188, 7.594e-3
-1.189, 7.622e-3
-1.190, 7.659e-3
-1.191, 7.708e-3
-1.192, 7.751e-3
-1.193, 7.785e-3
-1.194, 7.813e-3
-1.195, 7.850e-3
-1.196, 7.899e-3
-1.197, 7.942e-3
-1.198, 7.973e-3
-1.199, 8.001e-3
-1.200, 8.038e-3
-1.201, 8.084e-3
-1.202, 8.124e-3
-1.203, 8.155e-3
-1.204, 8.180e-3
-1.205, 8.217e-3
-1.206, 8.263e-3
-1.207, 8.300e-3
-1.208, 8.331e-3
-1.209, 8.358e-3
-1.210, 8.399e-3
-1.211, 8.445e-3
-1.212, 8.488e-3
-1.213, 8.519e-3
-1.214, 8.547e-3
-1.215, 8.587e-3
-1.216, 8.633e-3
-1.217, 8.676e-3
-1.218, 8.704e-3
-1.219, 8.732e-3
-1.220, 8.772e-3
-1.221, 8.821e-3
-1.222, 8.864e-3
-1.223, 8.892e-3
-1.224, 8.923e-3
-1.225, 8.960e-3
-1.226, 9.006e-3
-1.227, 9.046e-3
-1.228, 9.080e-3
-1.229, 9.114e-3
-1.230, 9.157e-3
-1.231, 9.206e-3
-1.232, 9.249e-3
-1.233, 9.286e-3
-1.234, 9.320e-3
-1.235, 9.360e-3
-1.236, 9.410e-3
-1.237, 9.456e-3
-1.238, 9.487e-3
-1.239, 9.518e-3
-1.240, 9.552e-3
-1.241, 9.598e-3
-1.242, 9.638e-3
-1.243, 9.666e-3
-1.244, 9.693e-3
-1.245, 9.730e-3
-1.246, 9.777e-3
-1.247, 9.823e-3
-1.248, 9.854e-3
-1.249, 9.885e-3
-1.250, 9.925e-3
-1.251, 9.971e-3
-1.252, 1.001e-2
-1.253, 1.004e-2
-1.254, 1.008e-2
-1.255, 1.012e-2
-1.256, 1.016e-2
-1.257, 1.020e-2
-1.258, 1.023e-2
-1.259, 1.026e-2
-1.260, 1.030e-2
-1.261, 1.035e-2
-1.262, 1.040e-2
-1.263, 1.043e-2
-1.264, 1.047e-2
-1.265, 1.051e-2
-1.266, 1.057e-2
-1.267, 1.062e-2
-1.268, 1.065e-2
-1.269, 1.068e-2
-1.270, 1.073e-2
-1.271, 1.078e-2
-1.272, 1.082e-2
-1.273, 1.087e-2
-1.274, 1.090e-2
-1.275, 1.094e-2
-1.276, 1.100e-2
-1.277, 1.105e-2
-1.278, 1.109e-2
-1.279, 1.113e-2
-1.280, 1.117e-2
-1.281, 1.123e-2
-1.282, 1.127e-2
-1.283, 1.131e-2
-1.284, 1.135e-2
-1.285, 1.139e-2
-1.286, 1.144e-2
-1.287, 1.149e-2
-1.288, 1.153e-2
-1.289, 1.157e-2
-1.290, 1.161e-2
-1.291, 1.166e-2
-1.292, 1.170e-2
-1.293, 1.174e-2
-1.294, 1.177e-2
-1.295, 1.182e-2
-1.296, 1.187e-2
-1.297, 1.192e-2
-1.298, 1.196e-2
-1.299, 1.200e-2
-1.300, 1.205e-2
-1.301, 1.210e-2
-1.302, 1.216e-2
-1.303, 1.219e-2
-1.304, 1.223e-2
-1.305, 1.227e-2
-1.306, 1.232e-2
-1.307, 1.237e-2
-1.308, 1.240e-2
-1.309, 1.244e-2
-1.310, 1.249e-2
-1.311, 1.254e-2
-1.312, 1.260e-2
-1.313, 1.264e-2
-1.314, 1.269e-2
-1.315, 1.274e-2
-1.316, 1.280e-2
-1.317, 1.286e-2
-1.318, 1.290e-2
-1.319, 1.295e-2
-1.320, 1.300e-2
-1.321, 1.306e-2
-1.322, 1.311e-2
-1.323, 1.315e-2
-1.324, 1.320e-2
-1.325, 1.325e-2
-1.326, 1.331e-2
-1.327, 1.337e-2
-1.328, 1.341e-2
-1.329, 1.346e-2
-1.330, 1.352e-2
-1.331, 1.358e-2
-1.332, 1.364e-2
-1.333, 1.369e-2
-1.334, 1.374e-2
-1.335, 1.380e-2
-1.336, 1.386e-2
-1.337, 1.392e-2
-1.338, 1.398e-2
-1.339, 1.403e-2
-1.340, 1.408e-2
-1.341, 1.415e-2
-1.342, 1.420e-2
-1.343, 1.424e-2
-1.344, 1.428e-2
-1.345, 1.433e-2
-1.346, 1.440e-2
-1.347, 1.446e-2
-1.348, 1.451e-2
-1.349, 1.455e-2
-1.350, 1.462e-2
-1.351, 1.470e-2
-1.352, 1.477e-2
-1.353, 1.483e-2
-1.354, 1.489e-2
-1.355, 1.495e-2
-1.356, 1.502e-2
-1.357, 1.508e-2
-1.358, 1.514e-2
-1.359, 1.518e-2
-1.360, 1.524e-2
-1.361, 1.530e-2
-1.362, 1.536e-2
-1.363, 1.542e-2
-1.364, 1.547e-2
-1.365, 1.553e-2
-1.366, 1.560e-2
-1.367, 1.567e-2
-1.368, 1.572e-2
-1.369, 1.578e-2
-1.370, 1.585e-2
-1.371, 1.593e-2
-1.372, 1.600e-2
-1.373, 1.607e-2
-1.374, 1.613e-2
-1.375, 1.620e-2
-1.376, 1.628e-2
-1.377, 1.635e-2
-1.378, 1.640e-2
-1.379, 1.645e-2
-1.380, 1.651e-2
-1.381, 1.657e-2
-1.382, 1.664e-2
-1.383, 1.670e-2
-1.384, 1.676e-2
-1.385, 1.683e-2
-1.386, 1.691e-2
-1.387, 1.698e-2
-1.388, 1.704e-2
-1.389, 1.711e-2
-1.390, 1.717e-2
-1.391, 1.724e-2
-1.392, 1.731e-2
-1.393, 1.737e-2
-1.394, 1.742e-2
-1.395, 1.749e-2
-1.396, 1.757e-2
-1.397, 1.764e-2
-1.398, 1.772e-2
-1.399, 1.778e-2
-1.400, 1.777e-2
-1.399, 1.759e-2
-1.398, 1.741e-2
-1.397, 1.723e-2
-1.396, 1.704e-2
-1.395, 1.687e-2
-1.394, 1.671e-2
-1.393, 1.654e-2
-1.392, 1.637e-2
-1.391, 1.618e-2
-1.390, 1.602e-2
-1.389, 1.588e-2
-1.388, 1.574e-2
-1.387, 1.559e-2
-1.386, 1.543e-2
-1.385, 1.528e-2
-1.384, 1.514e-2
-1.383, 1.499e-2
-1.382, 1.482e-2
-1.381, 1.466e-2
-1.380, 1.451e-2
-1.379, 1.437e-2
-1.378, 1.423e-2
-1.377, 1.407e-2
-1.376, 1.391e-2
-1.375, 1.378e-2
-1.374, 1.365e-2
-1.373, 1.352e-2
-1.372, 1.337e-2
-1.371, 1.322e-2
-1.370, 1.308e-2
-1.369, 1.295e-2
-1.368, 1.280e-2
-1.367, 1.264e-2
-1.366, 1.249e-2
-1.365, 1.235e-2
-1.364, 1.223e-2
-1.363, 1.210e-2
-1.362, 1.196e-2
-1.361, 1.181e-2
-1.360, 1.167e-2
-1.359, 1.155e-2
-1.358, 1.141e-2
-1.357, 1.127e-2
-1.356, 1.112e-2
-1.355, 1.099e-2
-1.354, 1.086e-2
-1.353, 1.073e-2
-1.352, 1.059e-2
-1.351, 1.045e-2
-1.350, 1.032e-2
-1.349, 1.019e-2
-1.348, 1.007e-2
-1.347, 9.934e-3
-1.346, 9.801e-3
-1.345, 9.678e-3
-1.344, 9.561e-3
-1.343, 9.438e-3
-1.342, 9.305e-3
-1.341, 9.169e-3
-1.340, 9.049e-3
-1.339, 8.935e-3
-1.338, 8.815e-3
-1.337, 8.685e-3
-1.336, 8.553e-3
-1.335, 8.432e-3
-1.334, 8.318e-3
-1.333, 8.201e-3
-1.332, 8.072e-3
-1.331, 7.942e-3
-1.330, 7.825e-3
-1.329, 7.714e-3
-1.328, 7.600e-3
-1.327, 7.477e-3
-1.326, 7.350e-3
-1.325, 7.233e-3
-1.324, 7.122e-3
-1.323, 7.011e-3
-1.322, 6.888e-3
-1.321, 6.768e-3
-1.320, 6.654e-3
-1.319, 6.552e-3
-1.318, 6.441e-3
-1.317, 6.321e-3
-1.316, 6.197e-3
-1.315, 6.086e-3
-1.314, 5.981e-3
-1.313, 5.873e-3
-1.312, 5.753e-3
-1.311, 5.633e-3
-1.310, 5.522e-3
-1.309, 5.423e-3
-1.308, 5.319e-3
-1.307, 5.201e-3
-1.306, 5.087e-3
-1.305, 4.986e-3
-1.304, 4.893e-3
-1.303, 4.788e-3
-1.302, 4.674e-3
-1.301, 4.566e-3
-1.300, 4.468e-3
-1.299, 4.375e-3
-1.298, 4.273e-3
-1.297, 4.159e-3
-1.296, 4.048e-3
-1.295, 3.947e-3
-1.294, 3.851e-3
-1.293, 3.755e-3
-1.292, 3.651e-3
-1.291, 3.546e-3
-1.290, 3.450e-3
-1.289, 3.361e-3
-1.288, 3.268e-3
-1.287, 3.160e-3
-1.286, 3.052e-3
-1.285, 2.957e-3
-1.284, 2.867e-3
-1.283, 2.778e-3
-1.282, 2.673e-3
-1.281, 2.571e-3
-1.280, 2.476e-3
-1.279, 2.390e-3
-1.278, 2.300e-3
-1.277, 2.198e-3
-1.276, 2.097e-3
-1.275, 2.007e-3
-1.274, 1.927e-3
-1.273, 1.838e-3
-1.272, 1.742e-3
-1.271, 1.643e-3
-1.270, 1.554e-3
-1.269, 1.474e-3
-1.268, 1.391e-3
-1.267, 1.295e-3
-1.266, 1.199e-3
-1.265, 1.113e-3
-1.264, 1.039e-3
-1.263, 9.559e-4
-1.262, 8.634e-4
-1.261, 7.709e-4
-1.260, 6.877e-4
-1.259, 6.137e-4
-1.258, 5.366e-4
-1.257, 4.441e-4
-1.256, 3.578e-4
-1.255, 2.746e-4
-1.254, 2.036e-4
-1.253, 1.266e-4
-1.252, 4.024e-5
-1.251, -4.917e-5
-1.250, -1.232e-4
-1.249, -1.941e-4
-1.248, -2.681e-4
-1.247, -3.544e-4
-1.246, -4.376e-4
-1.245, -5.116e-4
-1.244, -5.795e-4
-1.243, -6.504e-4
-1.242, -7.336e-4
-1.241, -8.169e-4
-1.240, -8.878e-4
-1.239, -9.525e-4
-1.238, -1.020e-3
-1.237, -1.101e-3
-1.236, -1.181e-3
-1.235, -1.249e-3
-1.234, -1.313e-3
-1.233, -1.381e-3
-1.232, -1.455e-3
-1.231, -1.535e-3
-1.230, -1.603e-3
-1.229, -1.668e-3
-1.228, -1.733e-3
-1.227, -1.807e-3
-1.226, -1.884e-3
-1.225, -1.948e-3
-1.224, -2.004e-3
-1.223, -2.069e-3
-1.222, -2.143e-3
-1.221, -2.217e-3
-1.220, -2.278e-3
-1.219, -2.334e-3
-1.218, -2.395e-3
-1.217, -2.466e-3
-1.216, -2.537e-3
-1.215, -2.599e-3
-1.214, -2.654e-3
-1.213, -2.713e-3
-1.212, -2.781e-3
-1.211, -2.852e-3
-1.210, -2.910e-3
-1.209, -2.960e-3
-1.208, -3.018e-3
-1.207, -3.086e-3
-1.206, -3.157e-3
-1.205, -3.212e-3
-1.204, -3.265e-3
-1.203, -3.320e-3
-1.202, -3.385e-3
-1.201, -3.453e-3
-1.200, -3.505e-3
-1.199, -3.555e-3
-1.198, -3.613e-3
-1.197, -3.678e-3
-1.196, -3.746e-3
-1.195, -3.801e-3
-1.194, -3.851e-3
-1.193, -3.906e-3
-1.192, -3.968e-3
-1.191, -4.033e-3
-1.190, -4.082e-3
-1.189, -4.128e-3
-1.188, -4.184e-3
-1.187, -4.248e-3
-1.186, -4.310e-3
-1.185, -4.362e-3
-1.184, -4.406e-3
-1.183, -4.458e-3
-1.182, -4.517e-3
-1.181, -4.578e-3
-1.180, -4.628e-3
-1.179, -4.671e-3
-1.178, -4.723e-3
-1.177, -4.782e-3
-1.176, -4.840e-3
-1.175, -4.893e-3
-1.174, -4.936e-3
-1.173, -4.985e-3
-1.172, -5.044e-3
-1.171, -5.102e-3
-1.170, -5.152e-3
-1.169, -5.192e-3
-1.168, -5.241e-3
-1.167, -5.300e-3
-1.166, -5.355e-3
-1.165, -5.401e-3
-1.164, -5.442e-3
-1.163, -5.491e-3
-1.162, -5.546e-3
-1.161, -5.605e-3
-1.160, -5.651e-3
-1.159, -5.691e-3
-1.158, -5.741e-3
-1.157, -5.796e-3
-1.156, -5.855e-3
-1.155, -5.898e-3
-1.154, -5.941e-3
-1.153, -5.984e-3
-1.152, -6.040e-3
-1.151, -6.095e-3
-1.150, -6.138e-3
-1.149, -6.175e-3
-1.148, -6.218e-3
-1.147, -6.274e-3
-1.146, -6.333e-3
-1.145, -6.376e-3
-1.144, -6.413e-3
-1.143, -6.456e-3
-1.142, -6.508e-3
-1.141, -6.564e-3
-1.140, -6.604e-3
-1.139, -6.641e-3
-1.138, -6.681e-3
-1.137, -6.733e-3
-1.136, -6.786e-3
-1.135, -6.829e-3
-1.134, -6.866e-3
-1.133, -6.909e-3
-1.132, -6.962e-3
-1.131, -7.014e-3
-1.130, -7.057e-3
-1.129, -7.091e-3
-1.128, -7.134e-3
-1.127, -7.187e-3
-1.126, -7.239e-3
-1.125, -7.279e-3
-1.124, -7.313e-3
-1.123, -7.353e-3
-1.122, -7.402e-3
-1.121, -7.455e-3
-1.120, -7.495e-3
-1.119, -7.529e-3
-1.118, -7.572e-3
-1.117, -7.621e-3
-1.116, -7.674e-3
-1.115, -7.711e-3
-1.114, -7.745e-3
-1.113, -7.788e-3
-1.112, -7.840e-3
-1.111, -7.893e-3
-1.110, -7.936e-3
-1.109, -7.970e-3
-1.108, -8.013e-3
-1.107, -8.065e-3
-1.106, -8.115e-3
-1.105, -8.149e-3
-1.104, -8.176e-3
-1.103, -8.213e-3
-1.102, -8.256e-3
-1.101, -8.303e-3
-1.100, -8.337e-3
-1.099, -8.367e-3
-1.098, -8.404e-3
-1.097, -8.451e-3
-1.096, -8.494e-3
-1.095, -8.528e-3
-1.094, -8.559e-3
-1.093, -8.592e-3
-1.092, -8.639e-3
-1.091, -8.679e-3
-1.090, -8.713e-3
-1.089, -8.737e-3
-1.088, -8.768e-3
-1.087, -8.811e-3
-1.086, -8.851e-3
-1.085, -8.885e-3
-1.084, -8.910e-3
-1.083, -8.944e-3
-1.082, -8.990e-3
-1.081, -9.033e-3
-1.080, -9.052e-3
-1.079, -9.089e-3
-1.078, -9.129e-3
-1.077, -9.172e-3
-1.076, -9.221e-3
-1.075, -9.258e-3
-1.074, -9.289e-3
-1.073, -9.326e-3
-1.072, -9.360e-3
-1.071, -9.397e-3
-1.070, -9.428e-3
-1.069, -9.456e-3
-1.068, -9.490e-3
-1.067, -9.536e-3
-1.066, -9.579e-3
-1.065, -9.610e-3
-1.064, -9.628e-3
-1.063, -9.656e-3
-1.062, -9.696e-3
-1.061, -9.736e-3
-1.060, -9.767e-3
-1.059, -9.792e-3
-1.058, -9.826e-3
-1.057, -9.866e-3
-1.056, -9.906e-3
-1.055, -9.940e-3
-1.054, -9.971e-3
-1.053, -1.000e-2
-1.052, -1.005e-2
-1.051, -1.009e-2
-1.050, -1.013e-2
-1.049, -1.016e-2
-1.048, -1.019e-2
-1.047, -1.023e-2
-1.046, -1.027e-2
-1.045, -1.030e-2
-1.044, -1.033e-2
-1.043, -1.036e-2
-1.042, -1.040e-2
-1.041, -1.044e-2
-1.040, -1.047e-2
-1.039, -1.050e-2
-1.038, -1.054e-2
-1.037, -1.058e-2
-1.036, -1.063e-2
-1.035, -1.066e-2
-1.034, -1.069e-2
-1.033, -1.072e-2
-1.032, -1.075e-2
-1.031, -1.079e-2
-1.030, -1.082e-2
-1.029, -1.085e-2
-1.028, -1.088e-2
-1.027, -1.094e-2
-1.026, -1.098e-2
-1.025, -1.101e-2
-1.024, -1.103e-2
-1.023, -1.106e-2
-1.022, -1.111e-2
-1.021, -1.114e-2
-1.020, -1.117e-2
-1.019, -1.119e-2
-1.018, -1.122e-2
-1.017, -1.126e-2
-1.016, -1.131e-2
-1.015, -1.135e-2
-1.014, -1.137e-2
-1.013, -1.140e-2
-1.012, -1.144e-2
-1.011, -1.148e-2
-1.010, -1.150e-2
-1.009, -1.152e-2
-1.008, -1.156e-2
-1.007, -1.160e-2
-1.006, -1.164e-2
-1.005, -1.168e-2
-1.004, -1.172e-2
-1.003, -1.176e-2
-1.002, -1.181e-2
-1.001, -1.185e-2
