Potential V vs RHE, Current mA cm-2
0.013299999999999867,37.77279170639648
0.012299999999999978,36.07513814655844
0.011299999999999866,34.5755441687015
0.010299999999999976,33.203274207832415
0.009299999999999864,31.972475376949827
0.008299999999999974,30.82655922405915
0.007299999999999862,29.68064307116847
0.006299999999999972,28.56302114427509
0.00529999999999986,27.544429008372262
0.0042999999999999705,26.59657243746269
0.0032999999999998586,25.648715866553115
0.0022999999999999687,24.71500640864219
0.0012999999999998568,23.795444063729917
0.00029999999999996696,22.932470170812245
-0.000700000000000145,22.111937616890522
-0.0017000000000000348,21.2631108369715
-0.0027000000000001467,20.456725396048434
-0.0037000000000000366,19.622045729128057
-0.0047000000000001485,18.858101627200938
-0.005700000000000038,18.122451751271118
-0.00670000000000015,17.40094898833995
-0.00770000000000004,16.665299112410132
-0.008700000000000152,15.943796349478962
-0.009700000000000042,15.250587812545096
-0.010700000000000154,14.57152638860988
-0.011700000000000044,13.919344479372096
-0.012700000000000156,13.27706554923337
-0.013700000000000045,12.619224794796127
-0.014700000000000157,11.97128701945794
-0.015700000000000047,11.396914231712735
-0.01670000000000016,10.798491351869824
-0.01770000000000005,10.20148318332678
-0.01870000000000016,9.59174261308495
-0.01970000000000005,9.014540402740012
-0.020700000000000163,8.475535397491434
-0.021700000000000053,7.937945103542721
-0.022700000000000164,7.386207696595355
-0.023700000000000054,6.825982021848802
-0.024700000000000166,6.298294706999143
-0.025700000000000056,5.788998639047731
-0.026700000000000168,5.323558621392133
-0.027700000000000058,4.818506687340315
-0.02870000000000017,4.307795908089036
-0.02970000000000006,3.822549932235329
-0.03070000000000017,3.362768759779192
-0.03170000000000006,2.9114758551222453
-0.03270000000000017,2.4432064148669186
-0.03370000000000006,1.9622045729128061
-0.034700000000000175,1.5165705134553193
-0.035700000000000065,1.0849420958664966
-0.03670000000000018,0.6622263594668236
-0.03770000000000007,0.2293247017081224
-0.03870000000000018,-0.2229585008587298
-0.03970000000000007,-0.6456742372584027
-0.04070000000000018,-1.0419348723505995
-0.04170000000000007,-1.433102546763282
-0.04270000000000018,-1.8419541124242775
-0.04370000000000007,-2.263538079784059
-0.044700000000000184,-2.661071955046134
-0.045700000000000074,-3.028896893011044
-0.046700000000000186,-3.402380676175413
-0.047700000000000076,-3.782938015839108
-0.04870000000000019,-4.186130736300643
-0.04970000000000008,-4.568102787264204
-0.05070000000000019,-4.904804076632082
-0.05170000000000008,-5.247164211199421
-0.05270000000000019,-5.612159726564601
-0.05370000000000008,-5.987058221028835
-0.05470000000000019,-6.361956715493069
-0.05570000000000008,-6.685925603162163
-0.056700000000000195,-7.012723913430986
-0.057700000000000085,-7.355084047998325
-0.058700000000000196,-7.70168831646526
-0.059700000000000086,-8.045463162332464
-0.0607000000000002,-8.349626091803447
-0.06170000000000009,-8.666521422973215
-0.0627000000000002,-9.013125691440148
-0.06370000000000009,-9.346997558208297
-0.0647000000000002,-9.672381157177256
-0.06570000000000009,-9.962396973649588
-0.0667000000000002,-10.249583367522192
-0.0677000000000001,-10.570722832591555
-0.0687000000000002,-10.883374029861727
-0.0697000000000001,-11.18753695933271
-0.07070000000000021,-11.488870466203963
-0.0717000000000001,-11.77181272617697
-0.07270000000000021,-12.070316810448494
-0.0737000000000001,-12.384382719018532
-0.07470000000000021,-12.702692761488164
-0.0757000000000001,-12.996952711860093
-0.07670000000000021,-13.247356611936203
-0.0777000000000001,-13.5387871397084
-0.07870000000000021,-13.845779491779115
-0.0797000000000001,-14.137210019551313
-0.08070000000000022,-14.387613919627421
-0.0817000000000001,-14.642261953603128
-0.08270000000000022,-14.925204213576137
-0.08370000000000011,-15.222293586547794
-0.08470000000000022,-15.4769416205235
-0.08570000000000011,-15.731589654499205
-0.08670000000000022,-16.000384801473565
-0.08770000000000011,-16.28332706144657
-0.08870000000000022,-16.56626932141958
-0.08970000000000011,-16.835064468393938
-0.09070000000000022,-17.061418276372343
-0.09170000000000011,-17.316066310348052
-0.09270000000000023,-17.570714344323754
-0.09370000000000012,-17.839509491298113
-0.09470000000000023,-18.10830463827247
-0.09570000000000012,-18.334658446250877
-0.09670000000000023,-18.57515936722793
-0.09770000000000012,-18.815660288204988
-0.09870000000000023,-19.070308322180697
-0.09970000000000012,-19.339103469155052
-0.10070000000000023,-19.593751503130758
-0.10170000000000012,-19.820105311109163
-0.10270000000000024,-20.01816489309027
-0.10370000000000013,-20.301107153063278
-0.10470000000000024,-20.555755187038983
-0.10570000000000013,-20.79625610801604
-0.10670000000000024,-21.036757028993097
-0.10770000000000013,-21.248963723972853
-0.10870000000000024,-21.503611757948562
-0.10970000000000013,-21.729965565926964
-0.11070000000000024,-21.95631937390537
-0.11170000000000013,-22.196820294882425
-0.11270000000000002,-22.437321215859484
-0.11370000000000013,-22.691969249835186
-0.11470000000000002,-22.932470170812245
-0.11570000000000014,-23.15882397879065
-0.11670000000000003,-23.371030673770406
-0.11770000000000014,-23.58323736875016
-0.11870000000000003,-23.823738289727217
-0.11970000000000014,-24.064239210704276
-0.12070000000000003,-24.262298792685378
-0.12170000000000014,-24.488652600663784
-0.12270000000000003,-24.70085929564354
-0.12370000000000014,-24.95550732961925
-0.12470000000000003,-25.18186113759765
-0.12570000000000014,-25.40821494557606
-0.12670000000000003,-25.60627452755716
-0.12770000000000015,-25.832628335535567
-0.12870000000000004,-26.129717708507226
-0.12970000000000015,-26.34192440348698
-0.13070000000000004,-26.539983985468087
-0.13170000000000015,-26.738043567449193
-0.13270000000000004,-26.97854448842625
-0.13370000000000015,-27.289780974396557
-0.13470000000000004,-27.516134782374962
-0.13570000000000015,-27.685900138358768
-0.13670000000000004,-27.926401059335824
-0.13770000000000016,-28.19519620631018
-0.13870000000000005,-28.393255788291288
-0.13970000000000016,-28.591315370272387
-0.14070000000000005,-28.761080726256196
-0.14170000000000016,-29.001581647233255
-0.14270000000000005,-29.242082568210304
-0.14370000000000016,-29.510877715184666
-0.14470000000000005,-29.751378636161718
-0.14570000000000016,-29.96358533114148
-0.14670000000000005,-30.204086252118536
-0.14770000000000016,-30.43044006009694
-0.14870000000000005,-30.670940981073993
-0.14970000000000017,-30.91144190205105
-0.15070000000000006,-31.137795710029454
-0.15170000000000017,-31.350002405009217
-0.15270000000000006,-31.590503325986273
-0.15370000000000017,-31.873445585959274
-0.15470000000000006,-32.14224073293363
-0.15570000000000017,-32.39688876690934
-0.15670000000000006,-32.6090954618891
-0.15770000000000017,-32.8637434958648
-0.15870000000000006,-33.07595019084456
-0.15970000000000018,-33.344745337818914
-0.16070000000000007,-33.55695203279867
-0.16170000000000018,-33.76915872777842
-0.16270000000000007,-34.02380676175414
-0.16370000000000018,-34.292601908728486
-0.16470000000000007,-34.51895571670689
-0.16570000000000018,-34.773603750682604
-0.16670000000000007,-34.99995755866101
-0.16770000000000018,-35.268752705635364
-0.16870000000000007,-35.608283417602976
-0.16970000000000018,-35.82049011258273
-0.17070000000000007,-36.03269680756248
-0.17170000000000019,-36.230756389543586
-0.17270000000000008,-36.47125731052064
-0.1737000000000002,-36.796640909489604
-0.17470000000000008,-37.093730282461266
-0.1757000000000002,-37.334231203438314
-0.17670000000000008,-37.58887923741403
-0.1777000000000002,-37.87182149738703
-0.17870000000000008,-38.154763757360044
-0.1797000000000002,-38.49429446932764
-0.18070000000000008,-38.734795390304704
-0.1817000000000002,-39.00359053727906
-0.18270000000000008,-39.258238571254765
-0.1837000000000002,-39.55532794422642
-0.1847000000000001,-39.82412309120078
-0.1857000000000002,-40.06462401217784
-0.1867000000000001,-40.30512493315489
-0.1877000000000002,-40.5880671931279
-0.1887000000000001,-40.88515656609956
-0.1897000000000002,-41.267128617063115
-0.1907000000000001,-41.53592376403748
-0.1917000000000001,-41.86130736300643
-0.19269999999999998,-42.14424962297944
-0.1937000000000001,-42.483780334947056
-0.19469999999999998,-42.752575481921404
-0.1957000000000001,-43.007223515897124
-0.19669999999999999,-43.31846000186743
-0.1977000000000001,-43.672137826833676
-0.1987,-44.011668538801295
-0.1997000000000001,-44.28046368577565
-0.2007,-44.54925883275
-0.2017000000000001,-44.86049531872031
-0.2027,-45.157584691691966
-0.2037000000000001,-45.482968290660935
-0.2047,-45.85079322862584
-0.2057000000000001,-46.24691239258805
-0.2067,-46.529854652561056
-0.2077000000000001,-46.84109113853137
-0.2087,-47.19476896349763
-0.2097000000000001,-47.57674101446119
-0.2107,-47.85968327443419
-0.2117000000000001,-48.1992139864018
-0.2127,-48.55289181136806
-0.2137000000000001,-48.920716749332975
-0.2147,-49.30268880029653
-0.2157000000000001,-49.68466085126009
-0.2167,-49.995897337230396
-0.21770000000000012,-50.39201650119261
-0.2187,-50.75984143915752
-0.21970000000000012,-51.127666377122424
-0.2207,-51.46719708909004
-0.22170000000000012,-51.86331625305225
-0.2227,-52.30187675601041
-0.22370000000000012,-52.68384880697396
-0.2247,-53.051673744938874
-0.22570000000000012,-53.50438136089569
-0.2267,-53.872206298860604
-0.22770000000000012,-54.22588412382685
-0.22870000000000001,-54.72103307877962
-0.22970000000000013,-55.14544646873913
-0.23070000000000002,-55.555712745699985
-0.23170000000000013,-55.8669492316703
-0.23270000000000002,-56.30550973462846
-0.23370000000000013,-56.81480580257987
-0.23470000000000002,-57.23921919253939
-0.23570000000000013,-57.6919268084962
-0.23670000000000002,-58.13048731145436
-0.2376999999999999,-58.48416513642061
-0.23870000000000002,-59.050049656366625
-0.2396999999999999,-59.53105149832074
-0.24070000000000003,-59.913023549284304
-0.24169999999999991,-60.37987827823977
-0.24270000000000003,-60.95990991118443
-0.24369999999999992,-61.53994154412909
-0.24470000000000003,-61.95020782108996
-0.24569999999999992,-62.38876832404812
-0.24670000000000003,-62.82732882700627
-0.24769999999999992,-63.22344799096849
-0.24870000000000003,-63.78933251091451
-0.24969999999999992,-64.28448146586726
-0.25070000000000003,-64.69474774282813
-0.2516999999999999,-65.13330824578628
-0.25270000000000004,-65.71333987873095
-0.2536999999999999,-66.33581285067157
-0.25470000000000004,-66.77437335362974
-0.2556999999999999,-67.18463963059058
-0.25670000000000004,-67.70808281154066
-0.25769999999999993,-68.33055578348127
-0.25870000000000004,-68.83985185143268
-0.25969999999999993,-69.44817771037465
-0.26070000000000004,-70.08479779531392
-0.26169999999999993,-70.50921118527343
-0.26270000000000004,-71.04680147922215
-0.26369999999999993,-71.59853888616952
-0.26470000000000005,-72.19271763211282
-0.26569999999999994,-72.74445503906018
-0.26670000000000005,-73.26789822001024
-0.26769999999999994,-73.96110675694412
-0.26870000000000005,-74.48454993789417
-0.26969999999999994,-75.0504344578402
-0.27070000000000005,-75.60217186478755
-0.27169999999999994,-76.19635061073087
-0.27270000000000005,-76.81882358267148
-0.27369999999999994,-77.46959078060941
-0.27470000000000006,-78.02132818755678
-0.27569999999999995,-78.58721270750279
-0.27670000000000006,-79.16724434044745
-0.27769999999999995,-79.76142308639076
-0.27870000000000006,-80.48292584932193
-0.27969999999999995,-81.09125170826391
-0.28070000000000006,-81.68543045420722
-0.28169999999999995,-82.30790342614785
-0.28270000000000006,-83.01525907608035
-0.28369999999999995,-83.76505606500882
-0.28470000000000006,-84.35923481095215
-0.28569999999999995,-85.13732602587791
-0.28670000000000007,-85.66076920682796
-0.28769999999999996,-86.32568351776455
-0.28870000000000007,-87.03303916769705
-0.28969999999999996,-87.71210059163228
-0.29070000000000007,-88.26383799857963
-0.29169999999999996,-88.9004580835189
-0.29270000000000007,-89.66440218544602
-0.29369999999999996,-90.42834628737315
-0.2947000000000001,-91.14984905030431
-0.29569999999999996,-91.87135181323548
-0.2967000000000001,-92.5221190111734
-0.29769999999999996,-93.20118043510863
-0.2987000000000001,-93.92268319803979
-0.29969999999999997,-94.58759750897636
-0.3007000000000001,-95.28080604591021
-0.30169999999999997,-96.05889726083599
-0.3027000000000001,-96.80869424976446
-0.30369999999999997,-97.51604989969698
-0.3047000000000001,-98.20925843663085
-0.30569999999999997,-98.91661408656337
-0.3067000000000001,-99.69470530148914
-0.3077,-100.387913838423
-0.3087000000000001,-101.06697526235823
-0.3097,-102.0148318332678
-0.3107000000000001,-102.84951150018817
-0.3117,-103.5285729241234
-0.3127000000000001,-104.19348723505995
-0.3137,-104.94328422398843
-0.3147000000000001,-105.79211100390745
-0.3157,-106.47117242784265
-0.3167000000000001,-107.26341075576708
-0.3177,-108.0556490836915
-0.3187000000000001,-108.79129895962132
-0.3197,-109.52694883555114
-0.3207000000000001,-110.36162850247152
-0.3217,-111.1680139433946
-0.3227000000000001,-111.76219268933791
-0.3237,-112.59687235625829
-0.3247000000000001,-113.44569913617728
-0.3257,-114.3228201420936
-0.3267000000000001,-115.11505847001803
-0.3277,-115.83656123294922
-0.3287000000000001,-116.64294667387229
-0.3297,-117.47762634079265
-0.3307000000000001,-118.2557175557184
-0.3317,-119.13283856163473
-0.3327000000000001,-120.26460760152676
-0.3337,-121.226611285435
-0.3347000000000001,-122.14617363034726
-0.3357,-123.05158886226087
-0.3367000000000001,-123.75894451219342
-0.3377,-124.52288861412055
-0.3387000000000001,-125.44245095903281
-0.3397,-126.20639506095993
-0.3407000000000001,-126.97033916288706
-0.3417,-127.94648995979391
-0.3427000000000001,-128.73872828771835
-0.3437,-129.55926084164005
-0.3447000000000001,-130.37979339556176
-0.3457,-131.1720317234862
-0.3467000000000001,-131.99256427740792
-0.3477,-132.92627373531886
-0.3487000000000001,-134.02974854921356
-0.3497,-134.80783976413935
-0.3507000000000001,-135.71325499605297
-0.3517,-136.71770001895717
-0.3527000000000001,-137.693850815864
-0.3537,-138.61341316077628
-0.3547000000000001,-139.2641803587142
-0.3557,-140.16959559062784
-0.35670000000000013,-140.96183391855226
-0.3577,-141.75407224647665
-0.35870000000000013,-142.6028990263957
-0.3597,-143.4517258063147
-0.36070000000000013,-144.44202371622026
-0.3617,-145.57379275611228
-0.3626999999999999,-146.5640906660178
-0.3637,-147.27144631595033
-0.3646999999999999,-147.83733083589632
-0.3657,-148.82762874580186
-0.3666999999999999,-149.6764555257209
-0.3677,-150.5252823056399
-0.3686999999999999,-151.23263795557244
-0.36970000000000003,-151.93999360550492
-0.3706999999999999,-152.64734925543743
-0.37170000000000003,-153.49617603535648
-0.3726999999999999,-154.3450028152755
-0.37370000000000003,-155.33530072518104
-0.3746999999999999,-155.90118524512707
-0.37570000000000003,-156.75001202504606
-0.3766999999999999,-157.31589654499206
-0.37770000000000004,-158.02325219492457
-0.3786999999999999,-158.73060784485713
-0.37970000000000004,-159.57943462477613
-0.3806999999999999,-160.28679027470866
-0.38170000000000004,-160.99414592464117
-0.38269999999999993,-161.84297270456022
-0.38370000000000004,-162.6917994844792
-0.38469999999999993,-163.39915513441173
-0.38570000000000004,-163.96503965435775
-0.38669999999999993,-162.8332706144657
-0.38570000000000004,-160.00384801473567
-0.38469999999999993,-157.31589654499206
-0.38370000000000004,-154.9108873352215
-0.38269999999999993,-152.50587812545095
-0.38170000000000004,-150.24234004566688
-0.3806999999999999,-147.55438857592333
-0.37970000000000004,-145.14937936615277
-0.3786999999999999,-142.6028990263957
-0.37770000000000004,-140.12715425163188
-0.3766999999999999,-137.86361617184784
-0.37570000000000003,-135.60007809206377
-0.3746999999999999,-133.40727557727294
-0.37370000000000003,-131.12959038449023
-0.3726999999999999,-128.79531673971292
-0.37170000000000003,-126.44689598193698
-0.3706999999999999,-124.14091656315696
-0.36970000000000003,-121.93396693536751
-0.3686999999999999,-119.61384040358885
-0.3677,-117.53421479278724
-0.3666999999999999,-115.42629495598834
-0.3657,-113.37496357118404
-0.3646999999999999,-111.29533796038245
-0.3637,-109.21571234958083
-0.3626999999999999,-107.16438096477653
-0.3617,-105.07060824097626
-0.36070000000000013,-103.03342396917063
-0.3597,-101.03868103636091
-0.35870000000000013,-99.14296789454177
-0.3577,-97.11993073573475
-0.35670000000000013,-94.98371667293856
-0.3557,-93.27191600010187
-0.3547000000000001,-91.36205574528407
-0.3537,-89.39560703847167
-0.3527000000000001,-87.61307080064172
-0.3517,-85.71735765882258
-0.3507000000000001,-83.89238008199668
-0.3497,-82.08154961816942
-0.3487000000000001,-80.36974894533273
-0.3477,-78.51647714250953
-0.3467000000000001,-76.80467646967284
-0.3457,-75.16361136182941
-0.3447000000000001,-73.50839914098731
-0.3437,-71.8531869201452
-0.3427000000000001,-70.21212181230177
-0.3417,-68.54276247846103
-0.3407000000000001,-67.00072716160814
-0.3397,-65.4728389577539
-0.3387000000000001,-63.98739209289561
-0.3377,-62.38876832404812
-0.3367000000000001,-60.87502723319253
-0.3357,-59.417874594331536
-0.3347000000000001,-57.904133503475954
-0.3337,-56.46112797761361
-0.3327000000000001,-54.989828225753975
-0.3317,-53.49023424789704
-0.3307000000000001,-52.11796428702795
-0.3297,-50.80228277815347
-0.3287000000000001,-49.52904260827494
-0.3277,-48.21336109940045
-0.3267000000000001,-46.86938536452866
-0.3257,-45.581998081651484
-0.3247000000000001,-44.33705213777025
-0.3237,-43.134547532884966
-0.3227000000000001,-41.86130736300643
-0.3217,-40.6729498711198
-0.3207000000000001,-39.48459237923317
-0.3197,-38.3669704523398
-0.3187000000000001,-37.221054299449115
-0.3177,-36.07513814655844
-0.3167000000000001,-34.94336910666641
-0.3157,-33.85404140577033
-0.3147000000000001,-32.79300793087155
-0.3137,-31.77441579496872
-0.3127000000000001,-30.7558236590659
-0.3117,-29.694790184167122
-0.3107000000000001,-28.676198048264297
-0.3097,-27.714194364356068
-0.3087000000000001,-26.752190680447846
-0.3077,-25.747745657543668
-0.3067000000000001,-24.799889086634096
-0.30569999999999997,-23.908620967719123
-0.3047000000000001,-22.989058622806844
-0.30369999999999997,-22.111937616890522
-0.3027000000000001,-21.19237527197825
-0.30169999999999997,-20.329401379060574
-0.3007000000000001,-19.480574599141555
-0.29969999999999997,-18.660042045219836
-0.2987000000000001,-17.881950830294063
-0.29769999999999996,-17.047271163373694
-0.2967000000000001,-16.269179948447924
-0.29569999999999996,-15.491088733522153
-0.2947000000000001,-14.69885040559773
-0.29369999999999996,-13.943394571469803
-0.29270000000000007,-13.17662104694295
-0.29169999999999996,-12.433897614513807
-0.29070000000000007,-11.73220080978075
-0.28969999999999996,-11.009283335549716
-0.28870000000000007,-10.317489509915713
-0.28769999999999996,-9.607304437383464
-0.28670000000000007,-8.89570465355135
-0.28569999999999995,-8.247766878213163
-0.28470000000000006,-7.598414391575112
-0.28369999999999995,-6.947647193637194
-0.28270000000000006,-6.286977016600223
-0.28169999999999995,-5.650356931660957
-0.28070000000000006,-5.032128093619936
-0.27969999999999995,-4.433705213777024
-0.27870000000000006,-3.823964643535194
-0.27769999999999995,-3.201491671594578
-0.27670000000000006,-2.6058982143513973
-0.27569999999999995,-2.0329401379060577
-0.27470000000000006,-1.4854468648582886
-0.27369999999999994,-0.9020199247939473
-0.27270000000000005,-0.31236825501020005
-0.27169999999999994,0.26044835030515323
-0.27070000000000005,0.8021413070234757
-0.26969999999999994,1.3214818252039309
-0.26870000000000005,1.8589306480226582
-0.26769999999999994,2.420571034069078
-0.26670000000000005,2.9793819975157674
-0.26569999999999994,3.4844339315675854
