Sept. 7, 2024   22:15:32
Cyclic Voltammetry
File: c:/users/guazh/data/20240903_batch_252_500/2024-09-03-exp292\exp292-2024-09-07t21_55_00-h2koh\exp292_cv_sr_800mvs_efin_-1700mv.bin
Data Source:  Experiment
Instrument Model:  CHI760E
Header: CV ran at 800 mVs
Note: 

Init E (V) = -1
High E (V) = -1
Low E (V) = -1.7
Final E (V) = -1
Init P/N = N
Scan Rate (V/s) = 0.8
Segment = 3
Sample Interval (V) = 0.001
Quiet Time (sec) = 2
Sensitivity (A/V) = 0.01
Comp R (ohm) = 2.3

Results:

Channel 1:
Segment 1:

Segment 2:

Segment 3:

Potential/V, Current/A

-1.000, 2.790e-5
-1.001, 6.798e-5
-1.002, 8.340e-5
-1.003, 8.957e-5
-1.004, 9.265e-5
-1.005, 9.573e-5
-1.006, 9.882e-5
-1.007, 9.882e-5
-1.008, 1.019e-4
-1.009, 1.050e-4
-1.010, 1.081e-4
-1.011, 1.081e-4
-1.012, 1.081e-4
-1.013, 1.111e-4
-1.014, 1.111e-4
-1.015, 1.111e-4
-1.016, 1.111e-4
-1.017, 1.142e-4
-1.018, 1.142e-4
-1.019, 1.173e-4
-1.020, 1.142e-4
-1.021, 1.173e-4
-1.022, 1.173e-4
-1.023, 1.204e-4
-1.024, 1.204e-4
-1.025, 1.204e-4
-1.026, 1.204e-4
-1.027, 1.204e-4
-1.028, 1.204e-4
-1.029, 1.204e-4
-1.030, 1.235e-4
-1.031, 1.235e-4
-1.032, 1.235e-4
-1.033, 1.235e-4
-1.034, 1.235e-4
-1.035, 1.235e-4
-1.036, 1.235e-4
-1.037, 1.266e-4
-1.038, 1.266e-4
-1.039, 1.266e-4
-1.040, 1.266e-4
-1.041, 1.266e-4
-1.042, 1.266e-4
-1.043, 1.296e-4
-1.044, 1.296e-4
-1.045, 1.266e-4
-1.046, 1.266e-4
-1.047, 1.266e-4
-1.048, 1.296e-4
-1.049, 1.296e-4
-1.050, 1.296e-4
-1.051, 1.296e-4
-1.052, 1.296e-4
-1.053, 1.296e-4
-1.054, 1.296e-4
-1.055, 1.296e-4
-1.056, 1.327e-4
-1.057, 1.327e-4
-1.058, 1.296e-4
-1.059, 1.296e-4
-1.060, 1.296e-4
-1.061, 1.327e-4
-1.062, 1.327e-4
-1.063, 1.327e-4
-1.064, 1.327e-4
-1.065, 1.327e-4
-1.066, 1.327e-4
-1.067, 1.327e-4
-1.068, 1.327e-4
-1.069, 1.358e-4
-1.070, 1.327e-4
-1.071, 1.327e-4
-1.072, 1.327e-4
-1.073, 1.358e-4
-1.074, 1.358e-4
-1.075, 1.358e-4
-1.076, 1.358e-4
-1.077, 1.358e-4
-1.078, 1.358e-4
-1.079, 1.358e-4
-1.080, 1.358e-4
-1.081, 1.358e-4
-1.082, 1.389e-4
-1.083, 1.358e-4
-1.084, 1.358e-4
-1.085, 1.358e-4
-1.086, 1.358e-4
-1.087, 1.358e-4
-1.088, 1.358e-4
-1.089, 1.389e-4
-1.090, 1.389e-4
-1.091, 1.389e-4
-1.092, 1.389e-4
-1.093, 1.358e-4
-1.094, 1.389e-4
-1.095, 1.389e-4
-1.096, 1.389e-4
-1.097, 1.389e-4
-1.098, 1.389e-4
-1.099, 1.389e-4
-1.100, 1.389e-4
-1.101, 1.389e-4
-1.102, 1.389e-4
-1.103, 1.420e-4
-1.104, 1.389e-4
-1.105, 1.389e-4
-1.106, 1.420e-4
-1.107, 1.420e-4
-1.108, 1.451e-4
-1.109, 1.420e-4
-1.110, 1.420e-4
-1.111, 1.420e-4
-1.112, 1.420e-4
-1.113, 1.420e-4
-1.114, 1.420e-4
-1.115, 1.420e-4
-1.116, 1.451e-4
-1.117, 1.451e-4
-1.118, 1.420e-4
-1.119, 1.420e-4
-1.120, 1.451e-4
-1.121, 1.451e-4
-1.122, 1.451e-4
-1.123, 1.451e-4
-1.124, 1.481e-4
-1.125, 1.451e-4
-1.126, 1.451e-4
-1.127, 1.451e-4
-1.128, 1.451e-4
-1.129, 1.481e-4
-1.130, 1.451e-4
-1.131, 1.481e-4
-1.132, 1.481e-4
-1.133, 1.481e-4
-1.134, 1.481e-4
-1.135, 1.481e-4
-1.136, 1.481e-4
-1.137, 1.481e-4
-1.138, 1.481e-4
-1.139, 1.481e-4
-1.140, 1.481e-4
-1.141, 1.481e-4
-1.142, 1.481e-4
-1.143, 1.481e-4
-1.144, 1.481e-4
-1.145, 1.512e-4
-1.146, 1.512e-4
-1.147, 1.512e-4
-1.148, 1.512e-4
-1.149, 1.512e-4
-1.150, 1.512e-4
-1.151, 1.512e-4
-1.152, 1.512e-4
-1.153, 1.512e-4
-1.154, 1.512e-4
-1.155, 1.512e-4
-1.156, 1.543e-4
-1.157, 1.543e-4
-1.158, 1.543e-4
-1.159, 1.543e-4
-1.160, 1.543e-4
-1.161, 1.543e-4
-1.162, 1.543e-4
-1.163, 1.543e-4
-1.164, 1.574e-4
-1.165, 1.543e-4
-1.166, 1.543e-4
-1.167, 1.543e-4
-1.168, 1.543e-4
-1.169, 1.574e-4
-1.170, 1.543e-4
-1.171, 1.574e-4
-1.172, 1.574e-4
-1.173, 1.574e-4
-1.174, 1.574e-4
-1.175, 1.574e-4
-1.176, 1.574e-4
-1.177, 1.574e-4
-1.178, 1.574e-4
-1.179, 1.574e-4
-1.180, 1.605e-4
-1.181, 1.605e-4
-1.182, 1.605e-4
-1.183, 1.605e-4
-1.184, 1.605e-4
-1.185, 1.605e-4
-1.186, 1.605e-4
-1.187, 1.605e-4
-1.188, 1.636e-4
-1.189, 1.636e-4
-1.190, 1.636e-4
-1.191, 1.636e-4
-1.192, 1.636e-4
-1.193, 1.636e-4
-1.194, 1.636e-4
-1.195, 1.636e-4
-1.196, 1.636e-4
-1.197, 1.666e-4
-1.198, 1.636e-4
-1.199, 1.636e-4
-1.200, 1.666e-4
-1.201, 1.666e-4
-1.202, 1.666e-4
-1.203, 1.666e-4
-1.204, 1.697e-4
-1.205, 1.697e-4
-1.206, 1.697e-4
-1.207, 1.666e-4
-1.208, 1.697e-4
-1.209, 1.697e-4
-1.210, 1.697e-4
-1.211, 1.697e-4
-1.212, 1.697e-4
-1.213, 1.728e-4
-1.214, 1.728e-4
-1.215, 1.728e-4
-1.216, 1.728e-4
-1.217, 1.728e-4
-1.218, 1.728e-4
-1.219, 1.728e-4
-1.220, 1.728e-4
-1.221, 1.728e-4
-1.222, 1.759e-4
-1.223, 1.759e-4
-1.224, 1.759e-4
-1.225, 1.759e-4
-1.226, 1.790e-4
-1.227, 1.790e-4
-1.228, 1.790e-4
-1.229, 1.821e-4
-1.230, 1.790e-4
-1.231, 1.790e-4
-1.232, 1.790e-4
-1.233, 1.821e-4
-1.234, 1.821e-4
-1.235, 1.821e-4
-1.236, 1.821e-4
-1.237, 1.851e-4
-1.238, 1.851e-4
-1.239, 1.851e-4
-1.240, 1.851e-4
-1.241, 1.851e-4
-1.242, 1.882e-4
-1.243, 1.882e-4
-1.244, 1.882e-4
-1.245, 1.882e-4
-1.246, 1.882e-4
-1.247, 1.882e-4
-1.248, 1.913e-4
-1.249, 1.913e-4
-1.250, 1.913e-4
-1.251, 1.913e-4
-1.252, 1.944e-4
-1.253, 1.944e-4
-1.254, 1.944e-4
-1.255, 1.975e-4
-1.256, 1.975e-4
-1.257, 1.975e-4
-1.258, 1.975e-4
-1.259, 2.006e-4
-1.260, 2.006e-4
-1.261, 2.006e-4
-1.262, 2.006e-4
-1.263, 2.036e-4
-1.264, 2.036e-4
-1.265, 2.036e-4
-1.266, 2.036e-4
-1.267, 2.067e-4
-1.268, 2.067e-4
-1.269, 2.067e-4
-1.270, 2.098e-4
-1.271, 2.098e-4
-1.272, 2.098e-4
-1.273, 2.098e-4
-1.274, 2.129e-4
-1.275, 2.129e-4
-1.276, 2.160e-4
-1.277, 2.160e-4
-1.278, 2.160e-4
-1.279, 2.191e-4
-1.280, 2.191e-4
-1.281, 2.191e-4
-1.282, 2.221e-4
-1.283, 2.221e-4
-1.284, 2.252e-4
-1.285, 2.252e-4
-1.286, 2.252e-4
-1.287, 2.252e-4
-1.288, 2.283e-4
-1.289, 2.283e-4
-1.290, 2.314e-4
-1.291, 2.314e-4
-1.292, 2.314e-4
-1.293, 2.345e-4
-1.294, 2.376e-4
-1.295, 2.376e-4
-1.296, 2.376e-4
-1.297, 2.376e-4
-1.298, 2.406e-4
-1.299, 2.437e-4
-1.300, 2.437e-4
-1.301, 2.437e-4
-1.302, 2.468e-4
-1.303, 2.468e-4
-1.304, 2.499e-4
-1.305, 2.499e-4
-1.306, 2.530e-4
-1.307, 2.530e-4
-1.308, 2.530e-4
-1.309, 2.561e-4
-1.310, 2.591e-4
-1.311, 2.591e-4
-1.312, 2.591e-4
-1.313, 2.622e-4
-1.314, 2.653e-4
-1.315, 2.653e-4
-1.316, 2.684e-4
-1.317, 2.684e-4
-1.318, 2.715e-4
-1.319, 2.715e-4
-1.320, 2.746e-4
-1.321, 2.746e-4
-1.322, 2.776e-4
-1.323, 2.807e-4
-1.324, 2.807e-4
-1.325, 2.807e-4
-1.326, 2.869e-4
-1.327, 2.869e-4
-1.328, 2.900e-4
-1.329, 2.900e-4
-1.330, 2.931e-4
-1.331, 2.961e-4
-1.332, 2.961e-4
-1.333, 2.992e-4
-1.334, 2.992e-4
-1.335, 3.023e-4
-1.336, 3.054e-4
-1.337, 3.085e-4
-1.338, 3.085e-4
-1.339, 3.115e-4
-1.340, 3.146e-4
-1.341, 3.177e-4
-1.342, 3.177e-4
-1.343, 3.208e-4
-1.344, 3.239e-4
-1.345, 3.300e-4
-1.346, 3.300e-4
-1.347, 3.331e-4
-1.348, 3.362e-4
-1.349, 3.393e-4
-1.350, 3.393e-4
-1.351, 3.424e-4
-1.352, 3.455e-4
-1.353, 3.485e-4
-1.354, 3.516e-4
-1.355, 3.547e-4
-1.356, 3.578e-4
-1.357, 3.609e-4
-1.358, 3.640e-4
-1.359, 3.670e-4
-1.360, 3.701e-4
-1.361, 3.732e-4
-1.362, 3.763e-4
-1.363, 3.794e-4
-1.364, 3.855e-4
-1.365, 3.886e-4
-1.366, 3.917e-4
-1.367, 3.948e-4
-1.368, 3.979e-4
-1.369, 4.010e-4
-1.370, 4.071e-4
-1.371, 4.102e-4
-1.372, 4.133e-4
-1.373, 4.164e-4
-1.374, 4.225e-4
-1.375, 4.256e-4
-1.376, 4.287e-4
-1.377, 4.349e-4
-1.378, 4.380e-4
-1.379, 4.441e-4
-1.380, 4.472e-4
-1.381, 4.503e-4
-1.382, 4.565e-4
-1.383, 4.626e-4
-1.384, 4.657e-4
-1.385, 4.719e-4
-1.386, 4.780e-4
-1.387, 4.811e-4
-1.388, 4.873e-4
-1.389, 4.904e-4
-1.390, 4.965e-4
-1.391, 5.027e-4
-1.392, 5.058e-4
-1.393, 5.120e-4
-1.394, 5.150e-4
-1.395, 5.243e-4
-1.396, 5.274e-4
-1.397, 5.366e-4
-1.398, 5.397e-4
-1.399, 5.489e-4
-1.400, 5.551e-4
-1.401, 5.582e-4
-1.402, 5.644e-4
-1.403, 5.705e-4
-1.404, 5.767e-4
-1.405, 5.829e-4
-1.406, 5.890e-4
-1.407, 5.952e-4
-1.408, 6.014e-4
-1.409, 6.106e-4
-1.410, 6.137e-4
-1.411, 6.199e-4
-1.412, 6.260e-4
-1.413, 6.322e-4
-1.414, 6.384e-4
-1.415, 6.507e-4
-1.416, 6.569e-4
-1.417, 6.630e-4
-1.418, 6.692e-4
-1.419, 6.754e-4
-1.420, 6.815e-4
-1.421, 6.877e-4
-1.422, 6.939e-4
-1.423, 7.000e-4
-1.424, 7.093e-4
-1.425, 7.154e-4
-1.426, 7.216e-4
-1.427, 7.309e-4
-1.428, 7.370e-4
-1.429, 7.432e-4
-1.430, 7.524e-4
-1.431, 7.586e-4
-1.432, 7.648e-4
-1.433, 7.740e-4
-1.434, 7.802e-4
-1.435, 7.894e-4
-1.436, 7.956e-4
-1.437, 8.048e-4
-1.438, 8.141e-4
-1.439, 8.233e-4
-1.440, 8.295e-4
-1.441, 8.357e-4
-1.442, 8.449e-4
-1.443, 8.542e-4
-1.444, 8.634e-4
-1.445, 8.696e-4
-1.446, 8.788e-4
-1.447, 8.881e-4
-1.448, 8.943e-4
-1.449, 9.066e-4
-1.450, 9.158e-4
-1.451, 9.220e-4
-1.452, 9.282e-4
-1.453, 9.374e-4
-1.454, 9.467e-4
-1.455, 9.559e-4
-1.456, 9.652e-4
-1.457, 9.744e-4
-1.458, 9.837e-4
-1.459, 9.898e-4
-1.460, 9.991e-4
-1.461, 1.011e-3
-1.462, 1.021e-3
-1.463, 1.030e-3
-1.464, 1.039e-3
-1.465, 1.048e-3
-1.466, 1.058e-3
-1.467, 1.067e-3
-1.468, 1.079e-3
-1.469, 1.088e-3
-1.470, 1.098e-3
-1.471, 1.107e-3
-1.472, 1.119e-3
-1.473, 1.129e-3
-1.474, 1.138e-3
-1.475, 1.147e-3
-1.476, 1.156e-3
-1.477, 1.166e-3
-1.478, 1.175e-3
-1.479, 1.187e-3
-1.480, 1.196e-3
-1.481, 1.206e-3
-1.482, 1.215e-3
-1.483, 1.227e-3
-1.484, 1.236e-3
-1.485, 1.246e-3
-1.486, 1.255e-3
-1.487, 1.267e-3
-1.488, 1.277e-3
-1.489, 1.286e-3
-1.490, 1.295e-3
-1.491, 1.307e-3
-1.492, 1.320e-3
-1.493, 1.329e-3
-1.494, 1.338e-3
-1.495, 1.351e-3
-1.496, 1.360e-3
-1.497, 1.369e-3
-1.498, 1.381e-3
-1.499, 1.391e-3
-1.500, 1.403e-3
-1.501, 1.415e-3
-1.502, 1.421e-3
-1.503, 1.434e-3
-1.504, 1.446e-3
-1.505, 1.455e-3
-1.506, 1.471e-3
-1.507, 1.480e-3
-1.508, 1.492e-3
-1.509, 1.502e-3
-1.510, 1.514e-3
-1.511, 1.523e-3
-1.512, 1.536e-3
-1.513, 1.548e-3
-1.514, 1.560e-3
-1.515, 1.569e-3
-1.516, 1.582e-3
-1.517, 1.594e-3
-1.518, 1.610e-3
-1.519, 1.619e-3
-1.520, 1.631e-3
-1.521, 1.640e-3
-1.522, 1.653e-3
-1.523, 1.665e-3
-1.524, 1.677e-3
-1.525, 1.690e-3
-1.526, 1.702e-3
-1.527, 1.714e-3
-1.528, 1.724e-3
-1.529, 1.739e-3
-1.530, 1.751e-3
-1.531, 1.764e-3
-1.532, 1.776e-3
-1.533, 1.785e-3
-1.534, 1.798e-3
-1.535, 1.807e-3
-1.536, 1.819e-3
-1.537, 1.828e-3
-1.538, 1.838e-3
-1.539, 1.850e-3
-1.540, 1.862e-3
-1.541, 1.872e-3
-1.542, 1.884e-3
-1.543, 1.896e-3
-1.544, 1.909e-3
-1.545, 1.924e-3
-1.546, 1.936e-3
-1.547, 1.949e-3
-1.548, 1.967e-3
-1.549, 1.980e-3
-1.550, 1.992e-3
-1.551, 2.004e-3
-1.552, 2.013e-3
-1.553, 2.026e-3
-1.554, 2.041e-3
-1.555, 2.060e-3
-1.556, 2.075e-3
-1.557, 2.087e-3
-1.558, 2.100e-3
-1.559, 2.109e-3
-1.560, 2.124e-3
-1.561, 2.140e-3
-1.562, 2.158e-3
-1.563, 2.177e-3
-1.564, 2.192e-3
-1.565, 2.205e-3
-1.566, 2.214e-3
-1.567, 2.229e-3
-1.568, 2.251e-3
-1.569, 2.269e-3
-1.570, 2.288e-3
-1.571, 2.300e-3
-1.572, 2.316e-3
-1.573, 2.328e-3
-1.574, 2.340e-3
-1.575, 2.359e-3
-1.576, 2.377e-3
-1.577, 2.393e-3
-1.578, 2.411e-3
-1.579, 2.427e-3
-1.580, 2.445e-3
-1.581, 2.464e-3
-1.582, 2.482e-3
-1.583, 2.497e-3
-1.584, 2.516e-3
-1.585, 2.534e-3
-1.586, 2.553e-3
-1.587, 2.568e-3
-1.588, 2.590e-3
-1.589, 2.608e-3
-1.590, 2.624e-3
-1.591, 2.642e-3
-1.592, 2.658e-3
-1.593, 2.679e-3
-1.594, 2.698e-3
-1.595, 2.719e-3
-1.596, 2.735e-3
-1.597, 2.756e-3
-1.598, 2.775e-3
-1.599, 2.793e-3
-1.600, 2.812e-3
-1.601, 2.837e-3
-1.602, 2.855e-3
-1.603, 2.877e-3
-1.604, 2.895e-3
-1.605, 2.917e-3
-1.606, 2.938e-3
-1.607, 2.957e-3
-1.608, 2.978e-3
-1.609, 3.000e-3
-1.610, 3.019e-3
-1.611, 3.040e-3
-1.612, 3.059e-3
-1.613, 3.083e-3
-1.614, 3.105e-3
-1.615, 3.126e-3
-1.616, 3.148e-3
-1.617, 3.173e-3
-1.618, 3.194e-3
-1.619, 3.216e-3
-1.620, 3.237e-3
-1.621, 3.259e-3
-1.622, 3.284e-3
-1.623, 3.308e-3
-1.624, 3.330e-3
-1.625, 3.355e-3
-1.626, 3.379e-3
-1.627, 3.401e-3
-1.628, 3.425e-3
-1.629, 3.444e-3
-1.630, 3.469e-3
-1.631, 3.493e-3
-1.632, 3.518e-3
-1.633, 3.543e-3
-1.634, 3.567e-3
-1.635, 3.592e-3
-1.636, 3.620e-3
-1.637, 3.644e-3
-1.638, 3.672e-3
-1.639, 3.697e-3
-1.640, 3.725e-3
-1.641, 3.749e-3
-1.642, 3.777e-3
-1.643, 3.805e-3
-1.644, 3.832e-3
-1.645, 3.857e-3
-1.646, 3.885e-3
-1.647, 3.916e-3
-1.648, 3.947e-3
-1.649, 3.974e-3
-1.650, 3.999e-3
-1.651, 4.024e-3
-1.652, 4.051e-3
-1.653, 4.082e-3
-1.654, 4.110e-3
-1.655, 4.135e-3
-1.656, 4.165e-3
-1.657, 4.199e-3
-1.658, 4.230e-3
-1.659, 4.270e-3
-1.660, 4.307e-3
-1.661, 4.338e-3
-1.662, 4.366e-3
-1.663, 4.391e-3
-1.664, 4.421e-3
-1.665, 4.452e-3
-1.666, 4.483e-3
-1.667, 4.511e-3
-1.668, 4.538e-3
-1.669, 4.579e-3
-1.670, 4.612e-3
-1.671, 4.646e-3
-1.672, 4.677e-3
-1.673, 4.708e-3
-1.674, 4.736e-3
-1.675, 4.764e-3
-1.676, 4.788e-3
-1.677, 4.822e-3
-1.678, 4.862e-3
-1.679, 4.902e-3
-1.680, 4.939e-3
-1.681, 4.970e-3
-1.682, 5.001e-3
-1.683, 5.032e-3
-1.684, 5.063e-3
-1.685, 5.106e-3
-1.686, 5.158e-3
-1.687, 5.208e-3
-1.688, 5.241e-3
-1.689, 5.272e-3
-1.690, 5.306e-3
-1.691, 5.340e-3
-1.692, 5.383e-3
-1.693, 5.439e-3
-1.694, 5.494e-3
-1.695, 5.541e-3
-1.696, 5.578e-3
-1.697, 5.614e-3
-1.698, 5.655e-3
-1.699, 5.707e-3
-1.700, 5.698e-3
-1.699, 5.621e-3
-1.698, 5.553e-3
-1.697, 5.482e-3
-1.696, 5.414e-3
-1.695, 5.346e-3
-1.694, 5.285e-3
-1.693, 5.220e-3
-1.692, 5.158e-3
-1.691, 5.090e-3
-1.690, 5.019e-3
-1.689, 4.949e-3
-1.688, 4.890e-3
-1.687, 4.825e-3
-1.686, 4.764e-3
-1.685, 4.708e-3
-1.684, 4.646e-3
-1.683, 4.591e-3
-1.682, 4.532e-3
-1.681, 4.474e-3
-1.680, 4.418e-3
-1.679, 4.363e-3
-1.678, 4.310e-3
-1.677, 4.258e-3
-1.676, 4.202e-3
-1.675, 4.150e-3
-1.674, 4.095e-3
-1.673, 4.042e-3
-1.672, 3.987e-3
-1.671, 3.937e-3
-1.670, 3.885e-3
-1.669, 3.836e-3
-1.668, 3.783e-3
-1.667, 3.737e-3
-1.666, 3.691e-3
-1.665, 3.638e-3
-1.664, 3.595e-3
-1.663, 3.546e-3
-1.662, 3.499e-3
-1.661, 3.447e-3
-1.660, 3.401e-3
-1.659, 3.355e-3
-1.658, 3.308e-3
-1.657, 3.262e-3
-1.656, 3.219e-3
-1.655, 3.176e-3
-1.654, 3.133e-3
-1.653, 3.089e-3
-1.652, 3.046e-3
-1.651, 3.003e-3
-1.650, 2.963e-3
-1.649, 2.923e-3
-1.648, 2.883e-3
-1.647, 2.840e-3
-1.646, 2.803e-3
-1.645, 2.766e-3
-1.644, 2.723e-3
-1.643, 2.686e-3
-1.642, 2.649e-3
-1.641, 2.612e-3
-1.640, 2.575e-3
-1.639, 2.538e-3
-1.638, 2.501e-3
-1.637, 2.470e-3
-1.636, 2.433e-3
-1.635, 2.399e-3
-1.634, 2.365e-3
-1.633, 2.331e-3
-1.632, 2.297e-3
-1.631, 2.263e-3
-1.630, 2.232e-3
-1.629, 2.205e-3
-1.628, 2.171e-3
-1.627, 2.143e-3
-1.626, 2.115e-3
-1.625, 2.084e-3
-1.624, 2.057e-3
-1.623, 2.026e-3
-1.622, 1.998e-3
-1.621, 1.970e-3
-1.620, 1.943e-3
-1.619, 1.915e-3
-1.618, 1.887e-3
-1.617, 1.862e-3
-1.616, 1.835e-3
-1.615, 1.810e-3
-1.614, 1.785e-3
-1.613, 1.761e-3
-1.612, 1.739e-3
-1.611, 1.711e-3
-1.610, 1.687e-3
-1.609, 1.662e-3
-1.608, 1.640e-3
-1.607, 1.616e-3
-1.606, 1.591e-3
-1.605, 1.563e-3
-1.604, 1.545e-3
-1.603, 1.523e-3
-1.602, 1.505e-3
-1.601, 1.483e-3
-1.600, 1.468e-3
-1.599, 1.446e-3
-1.598, 1.421e-3
-1.597, 1.403e-3
-1.596, 1.384e-3
-1.595, 1.366e-3
-1.594, 1.344e-3
-1.593, 1.323e-3
-1.592, 1.301e-3
-1.591, 1.286e-3
-1.590, 1.267e-3
-1.589, 1.249e-3
-1.588, 1.230e-3
-1.587, 1.215e-3
-1.586, 1.199e-3
-1.585, 1.184e-3
-1.584, 1.169e-3
-1.583, 1.150e-3
-1.582, 1.135e-3
-1.581, 1.119e-3
-1.580, 1.101e-3
-1.579, 1.085e-3
-1.578, 1.073e-3
-1.577, 1.058e-3
-1.576, 1.042e-3
-1.575, 1.027e-3
-1.574, 1.014e-3
-1.573, 9.991e-4
-1.572, 9.868e-4
-1.571, 9.744e-4
-1.570, 9.590e-4
-1.569, 9.467e-4
-1.568, 9.313e-4
-1.567, 9.189e-4
-1.566, 9.035e-4
-1.565, 8.943e-4
-1.564, 8.788e-4
-1.563, 8.696e-4
-1.562, 8.573e-4
-1.561, 8.449e-4
-1.560, 8.326e-4
-1.559, 8.203e-4
-1.558, 8.110e-4
-1.557, 7.987e-4
-1.556, 7.894e-4
-1.555, 7.771e-4
-1.554, 7.648e-4
-1.553, 7.555e-4
-1.552, 7.463e-4
-1.551, 7.339e-4
-1.550, 7.247e-4
-1.549, 7.154e-4
-1.548, 7.062e-4
-1.547, 6.969e-4
-1.546, 6.877e-4
-1.545, 6.784e-4
-1.544, 6.692e-4
-1.543, 6.599e-4
-1.542, 6.476e-4
-1.541, 6.414e-4
-1.540, 6.322e-4
-1.539, 6.260e-4
-1.538, 6.137e-4
-1.537, 6.075e-4
-1.536, 5.983e-4
-1.535, 5.921e-4
-1.534, 5.829e-4
-1.533, 5.736e-4
-1.532, 5.674e-4
-1.531, 5.582e-4
-1.530, 5.489e-4
-1.529, 5.428e-4
-1.528, 5.366e-4
-1.527, 5.274e-4
-1.526, 5.212e-4
-1.525, 5.150e-4
-1.524, 5.058e-4
-1.523, 5.027e-4
-1.522, 4.935e-4
-1.521, 4.873e-4
-1.520, 4.780e-4
-1.519, 4.750e-4
-1.518, 4.688e-4
-1.517, 4.595e-4
-1.516, 4.534e-4
-1.515, 4.472e-4
-1.514, 4.410e-4
-1.513, 4.318e-4
-1.512, 4.256e-4
-1.511, 4.225e-4
-1.510, 4.164e-4
-1.509, 4.102e-4
-1.508, 4.040e-4
-1.507, 3.979e-4
-1.506, 3.948e-4
-1.505, 3.855e-4
-1.504, 3.825e-4
-1.503, 3.763e-4
-1.502, 3.701e-4
-1.501, 3.640e-4
-1.500, 3.578e-4
-1.499, 3.547e-4
-1.498, 3.485e-4
-1.497, 3.424e-4
-1.496, 3.393e-4
-1.495, 3.362e-4
-1.494, 3.300e-4
-1.493, 3.239e-4
-1.492, 3.177e-4
-1.491, 3.146e-4
-1.490, 3.115e-4
-1.489, 3.054e-4
-1.488, 2.992e-4
-1.487, 2.961e-4
-1.486, 2.900e-4
-1.485, 2.869e-4
-1.484, 2.807e-4
-1.483, 2.776e-4
-1.482, 2.746e-4
-1.481, 2.684e-4
-1.480, 2.653e-4
-1.479, 2.622e-4
-1.478, 2.561e-4
-1.477, 2.530e-4
-1.476, 2.499e-4
-1.475, 2.437e-4
-1.474, 2.406e-4
-1.473, 2.376e-4
-1.472, 2.314e-4
-1.471, 2.283e-4
-1.470, 2.221e-4
-1.469, 2.221e-4
-1.468, 2.160e-4
-1.467, 2.129e-4
-1.466, 2.098e-4
-1.465, 2.067e-4
-1.464, 2.036e-4
-1.463, 1.975e-4
-1.462, 1.944e-4
-1.461, 1.913e-4
-1.460, 1.851e-4
-1.459, 1.851e-4
-1.458, 1.821e-4
-1.457, 1.759e-4
-1.456, 1.728e-4
-1.455, 1.697e-4
-1.454, 1.666e-4
-1.453, 1.636e-4
-1.452, 1.605e-4
-1.451, 1.574e-4
-1.450, 1.543e-4
-1.449, 1.512e-4
-1.448, 1.481e-4
-1.447, 1.451e-4
-1.446, 1.420e-4
-1.445, 1.358e-4
-1.444, 1.358e-4
-1.443, 1.327e-4
-1.442, 1.296e-4
-1.441, 1.266e-4
-1.440, 1.235e-4
-1.439, 1.204e-4
-1.438, 1.204e-4
-1.437, 1.142e-4
-1.436, 1.111e-4
-1.435, 1.081e-4
-1.434, 1.050e-4
-1.433, 1.019e-4
-1.432, 9.882e-5
-1.431, 9.573e-5
-1.430, 9.573e-5
-1.429, 9.265e-5
-1.428, 8.957e-5
-1.427, 8.648e-5
-1.426, 8.648e-5
-1.425, 8.032e-5
-1.424, 8.032e-5
-1.423, 7.415e-5
-1.422, 7.415e-5
-1.421, 7.107e-5
-1.420, 6.798e-5
-1.419, 6.490e-5
-1.418, 6.490e-5
-1.417, 6.182e-5
-1.416, 5.873e-5
-1.415, 5.565e-5
-1.414, 5.257e-5
-1.413, 5.257e-5
-1.412, 4.949e-5
-1.411, 4.640e-5
-1.410, 4.640e-5
-1.409, 4.332e-5
-1.408, 4.024e-5
-1.407, 3.715e-5
-1.406, 3.407e-5
-1.405, 3.407e-5
-1.404, 3.099e-5
-1.403, 2.790e-5
-1.402, 2.482e-5
-1.401, 2.482e-5
-1.400, 2.174e-5
-1.399, 1.865e-5
-1.398, 1.865e-5
-1.397, 1.557e-5
-1.396, 1.557e-5
-1.395, 9.405e-6
-1.394, 9.405e-6
-1.393, 6.322e-6
-1.392, 6.322e-6
-1.391, 3.239e-6
-1.390, 3.239e-6
-1.389, 1.559e-7
-1.388, -2.927e-6
-1.387, -2.927e-6
-1.386, -6.010e-6
-1.385, -9.093e-6
-1.384, -9.093e-6
-1.383, -1.218e-5
-1.382, -1.526e-5
-1.381, -1.526e-5
-1.380, -1.834e-5
-1.379, -1.834e-5
-1.378, -2.143e-5
-1.377, -2.451e-5
-1.376, -2.451e-5
-1.375, -2.451e-5
-1.374, -2.759e-5
-1.373, -3.068e-5
-1.372, -3.068e-5
-1.371, -3.068e-5
-1.370, -3.376e-5
-1.369, -3.684e-5
-1.368, -3.684e-5
-1.367, -3.992e-5
-1.366, -4.301e-5
-1.365, -4.301e-5
-1.364, -4.609e-5
-1.363, -4.609e-5
-1.362, -4.917e-5
-1.361, -4.917e-5
-1.360, -5.226e-5
-1.359, -5.226e-5
-1.358, -5.226e-5
-1.357, -5.534e-5
-1.356, -5.842e-5
-1.355, -5.842e-5
-1.354, -5.842e-5
-1.353, -6.151e-5
-1.352, -6.151e-5
-1.351, -6.459e-5
-1.350, -6.767e-5
-1.349, -6.767e-5
-1.348, -6.767e-5
-1.347, -6.767e-5
-1.346, -7.076e-5
-1.345, -7.076e-5
-1.344, -7.076e-5
-1.343, -7.384e-5
-1.342, -7.692e-5
-1.341, -7.692e-5
-1.340, -8.000e-5
-1.339, -8.000e-5
-1.338, -8.000e-5
-1.337, -8.309e-5
-1.336, -8.309e-5
-1.335, -8.617e-5
-1.334, -8.617e-5
-1.333, -8.617e-5
-1.332, -8.617e-5
-1.331, -8.925e-5
-1.330, -8.925e-5
-1.329, -8.925e-5
-1.328, -9.234e-5
-1.327, -9.542e-5
-1.326, -9.542e-5
-1.325, -9.542e-5
-1.324, -9.850e-5
-1.323, -9.542e-5
-1.322, -9.850e-5
-1.321, -9.850e-5
-1.320, -1.016e-4
-1.319, -1.016e-4
-1.318, -1.047e-4
-1.317, -1.016e-4
-1.316, -1.047e-4
-1.315, -1.047e-4
-1.314, -1.078e-4
-1.313, -1.078e-4
-1.312, -1.078e-4
-1.311, -1.108e-4
-1.310, -1.108e-4
-1.309, -1.108e-4
-1.308, -1.108e-4
-1.307, -1.139e-4
-1.306, -1.139e-4
-1.305, -1.139e-4
-1.304, -1.139e-4
-1.303, -1.170e-4
-1.302, -1.201e-4
-1.301, -1.201e-4
-1.300, -1.201e-4
-1.299, -1.201e-4
-1.298, -1.201e-4
-1.297, -1.232e-4
-1.296, -1.232e-4
-1.295, -1.232e-4
-1.294, -1.232e-4
-1.293, -1.263e-4
-1.292, -1.232e-4
-1.291, -1.263e-4
-1.290, -1.263e-4
-1.289, -1.293e-4
-1.288, -1.293e-4
-1.287, -1.293e-4
-1.286, -1.293e-4
-1.285, -1.293e-4
-1.284, -1.324e-4
-1.283, -1.324e-4
-1.282, -1.324e-4
-1.281, -1.324e-4
-1.280, -1.324e-4
-1.279, -1.355e-4
-1.278, -1.355e-4
-1.277, -1.355e-4
-1.276, -1.386e-4
-1.275, -1.386e-4
-1.274, -1.386e-4
-1.273, -1.386e-4
-1.272, -1.417e-4
-1.271, -1.417e-4
-1.270, -1.417e-4
-1.269, -1.417e-4
-1.268, -1.448e-4
-1.267, -1.417e-4
-1.266, -1.448e-4
-1.265, -1.448e-4
-1.264, -1.448e-4
-1.263, -1.448e-4
-1.262, -1.448e-4
-1.261, -1.478e-4
-1.260, -1.478e-4
-1.259, -1.478e-4
-1.258, -1.478e-4
-1.257, -1.478e-4
-1.256, -1.478e-4
-1.255, -1.509e-4
-1.254, -1.478e-4
-1.253, -1.509e-4
-1.252, -1.509e-4
-1.251, -1.509e-4
-1.250, -1.509e-4
-1.249, -1.509e-4
-1.248, -1.509e-4
-1.247, -1.509e-4
-1.246, -1.509e-4
-1.245, -1.509e-4
-1.244, -1.540e-4
-1.243, -1.540e-4
-1.242, -1.540e-4
-1.241, -1.540e-4
-1.240, -1.540e-4
-1.239, -1.540e-4
-1.238, -1.540e-4
-1.237, -1.540e-4
-1.236, -1.540e-4
-1.235, -1.571e-4
-1.234, -1.571e-4
-1.233, -1.571e-4
-1.232, -1.571e-4
-1.231, -1.571e-4
-1.230, -1.571e-4
-1.229, -1.602e-4
-1.228, -1.571e-4
-1.227, -1.602e-4
-1.226, -1.602e-4
-1.225, -1.602e-4
-1.224, -1.571e-4
-1.223, -1.602e-4
-1.222, -1.602e-4
-1.221, -1.632e-4
-1.220, -1.632e-4
-1.219, -1.602e-4
-1.218, -1.632e-4
-1.217, -1.632e-4
-1.216, -1.632e-4
-1.215, -1.632e-4
-1.214, -1.632e-4
-1.213, -1.663e-4
-1.212, -1.663e-4
-1.211, -1.632e-4
-1.210, -1.663e-4
-1.209, -1.663e-4
-1.208, -1.663e-4
-1.207, -1.663e-4
-1.206, -1.663e-4
-1.205, -1.694e-4
-1.204, -1.694e-4
-1.203, -1.663e-4
-1.202, -1.663e-4
-1.201, -1.694e-4
-1.200, -1.694e-4
-1.199, -1.694e-4
-1.198, -1.694e-4
-1.197, -1.694e-4
-1.196, -1.725e-4
-1.195, -1.694e-4
-1.194, -1.694e-4
-1.193, -1.725e-4
-1.192, -1.725e-4
-1.191, -1.725e-4
-1.190, -1.725e-4
-1.189, -1.725e-4
-1.188, -1.725e-4
-1.187, -1.725e-4
-1.186, -1.725e-4
-1.185, -1.756e-4
-1.184, -1.756e-4
-1.183, -1.756e-4
-1.182, -1.756e-4
-1.181, -1.756e-4
-1.180, -1.756e-4
-1.179, -1.787e-4
-1.178, -1.787e-4
-1.177, -1.787e-4
-1.176, -1.787e-4
-1.175, -1.787e-4
-1.174, -1.787e-4
-1.173, -1.787e-4
-1.172, -1.787e-4
-1.171, -1.787e-4
-1.170, -1.787e-4
-1.169, -1.787e-4
-1.168, -1.787e-4
-1.167, -1.817e-4
-1.166, -1.817e-4
-1.165, -1.817e-4
-1.164, -1.817e-4
-1.163, -1.817e-4
-1.162, -1.817e-4
-1.161, -1.848e-4
-1.160, -1.817e-4
-1.159, -1.848e-4
-1.158, -1.848e-4
-1.157, -1.817e-4
-1.156, -1.848e-4
-1.155, -1.848e-4
-1.154, -1.879e-4
-1.153, -1.879e-4
-1.152, -1.879e-4
-1.151, -1.879e-4
-1.150, -1.879e-4
-1.149, -1.879e-4
-1.148, -1.879e-4
-1.147, -1.879e-4
-1.146, -1.879e-4
-1.145, -1.910e-4
-1.144, -1.879e-4
-1.143, -1.910e-4
-1.142, -1.941e-4
-1.141, -1.941e-4
-1.140, -1.941e-4
-1.139, -1.941e-4
-1.138, -1.941e-4
-1.137, -1.941e-4
-1.136, -1.941e-4
-1.135, -1.941e-4
-1.134, -1.972e-4
-1.133, -1.972e-4
-1.132, -1.972e-4
-1.131, -1.972e-4
-1.130, -1.972e-4
-1.129, -2.002e-4
-1.128, -2.002e-4
-1.127, -2.002e-4
-1.126, -2.002e-4
-1.125, -2.033e-4
-1.124, -2.033e-4
-1.123, -2.033e-4
-1.122, -2.002e-4
-1.121, -2.033e-4
-1.120, -2.033e-4
-1.119, -2.064e-4
-1.118, -2.064e-4
-1.117, -2.064e-4
-1.116, -2.095e-4
-1.115, -2.095e-4
-1.114, -2.095e-4
-1.113, -2.126e-4
-1.112, -2.095e-4
-1.111, -2.095e-4
-1.110, -2.126e-4
-1.109, -2.126e-4
-1.108, -2.157e-4
-1.107, -2.157e-4
-1.106, -2.157e-4
-1.105, -2.126e-4
-1.104, -2.157e-4
-1.103, -2.187e-4
-1.102, -2.187e-4
-1.101, -2.187e-4
-1.100, -2.218e-4
-1.099, -2.218e-4
-1.098, -2.218e-4
-1.097, -2.218e-4
-1.096, -2.218e-4
-1.095, -2.218e-4
-1.094, -2.249e-4
-1.093, -2.249e-4
-1.092, -2.249e-4
-1.091, -2.280e-4
-1.090, -2.280e-4
-1.089, -2.280e-4
-1.088, -2.311e-4
-1.087, -2.311e-4
-1.086, -2.342e-4
-1.085, -2.311e-4
-1.084, -2.342e-4
-1.083, -2.372e-4
-1.082, -2.372e-4
-1.081, -2.372e-4
-1.080, -2.372e-4
-1.079, -2.403e-4
-1.078, -2.403e-4
-1.077, -2.403e-4
-1.076, -2.403e-4
-1.075, -2.434e-4
-1.074, -2.434e-4
-1.073, -2.465e-4
-1.072, -2.465e-4
-1.071, -2.496e-4
-1.070, -2.496e-4
-1.069, -2.496e-4
-1.068, -2.527e-4
-1.067, -2.527e-4
-1.066, -2.527e-4
-1.065, -2.527e-4
-1.064, -2.557e-4
-1.063, -2.588e-4
-1.062, -2.588e-4
-1.061, -2.619e-4
-1.060, -2.619e-4
-1.059, -2.619e-4
-1.058, -2.650e-4
-1.057, -2.650e-4
-1.056, -2.681e-4
-1.055, -2.681e-4
-1.054, -2.681e-4
-1.053, -2.712e-4
-1.052, -2.712e-4
-1.051, -2.712e-4
-1.050, -2.742e-4
-1.049, -2.773e-4
-1.048, -2.773e-4
-1.047, -2.804e-4
-1.046, -2.804e-4
-1.045, -2.835e-4
-1.044, -2.835e-4
-1.043, -2.835e-4
-1.042, -2.835e-4
-1.041, -2.866e-4
-1.040, -2.897e-4
-1.039, -2.897e-4
-1.038, -2.897e-4
-1.037, -2.927e-4
-1.036, -2.958e-4
-1.035, -2.958e-4
-1.034, -2.958e-4
-1.033, -2.989e-4
-1.032, -3.020e-4
-1.031, -3.020e-4
-1.030, -3.020e-4
-1.029, -3.051e-4
-1.028, -3.082e-4
-1.027, -3.082e-4
-1.026, -3.082e-4
-1.025, -3.143e-4
-1.024, -3.112e-4
-1.023, -3.174e-4
-1.022, -3.174e-4
-1.021, -3.205e-4
-1.020, -3.236e-4
-1.019, -3.236e-4
-1.018, -3.267e-4
-1.017, -3.267e-4
-1.016, -3.297e-4
-1.015, -3.328e-4
-1.014, -3.328e-4
-1.013, -3.359e-4
-1.012, -3.359e-4
-1.011, -3.390e-4
-1.010, -3.390e-4
-1.009, -3.421e-4
-1.008, -3.421e-4
-1.007, -3.482e-4
-1.006, -3.482e-4
-1.005, -3.482e-4
-1.004, -3.513e-4
-1.003, -3.544e-4
-1.002, -3.544e-4
-1.001, -3.575e-4
