Potential V vs RHE, Current mA cm-2
0.013299999999999867,-0.30755823659065895
0.012299999999999978,-2.4884771764625997
0.011299999999999866,-4.364384360083638
0.010299999999999976,-6.152579443113044
0.009299999999999864,-7.679052935667419
0.008299999999999974,-9.11781432763016
0.007299999999999862,-10.470278330301136
0.006299999999999972,-11.604876792792895
0.00529999999999986,-12.651763154693022
0.0042999999999999705,-13.610937416001518
0.0032999999999998586,-14.444202371622024
0.0022999999999999687,-15.222293586547794
0.0012999999999998568,-15.972090575476265
0.00029999999999996696,-16.70774045140608
-0.000700000000000145,-17.358507649344002
-0.0017000000000000348,-18.06586329927652
-0.0027000000000001467,-18.631747819222536
-0.0037000000000000366,-19.197632339168546
-0.0047000000000001485,-19.678634181122664
-0.005700000000000038,-20.159636023076775
-0.00670000000000015,-20.499166735044383
-0.00770000000000004,-20.85284456001064
-0.008700000000000152,-21.2065223849769
-0.009700000000000042,-21.503611757948562
-0.010700000000000154,-21.857289582914817
-0.011700000000000044,-22.15437895588647
-0.012700000000000156,-22.46561544185678
-0.013700000000000045,-22.776851927827092
-0.014700000000000157,-23.073941300798747
-0.015700000000000047,-23.300295108777156
-0.01670000000000016,-23.55494314275286
-0.01770000000000005,-23.682267159740714
-0.01870000000000016,-23.86617962872317
-0.01970000000000005,-23.993503645711023
-0.020700000000000163,-24.120827662698876
-0.021700000000000053,-24.290593018682678
-0.022700000000000164,-24.432064148669184
-0.023700000000000054,-24.601829504652986
-0.024700000000000166,-24.729153521640843
-0.025700000000000056,-24.95550732961925
-0.026700000000000168,-25.0828313466071
-0.027700000000000058,-25.210155363594954
-0.02870000000000017,-25.295038041586857
-0.02970000000000006,-25.337479380582806
-0.03070000000000017,-25.43650917157336
-0.03170000000000006,-25.43650917157336
-0.03270000000000017,-25.478950510569312
-0.03370000000000006,-25.521391849565262
-0.034700000000000175,-25.60627452755716
-0.035700000000000065,-25.691157205549064
-0.03670000000000018,-25.77603988354097
-0.03770000000000007,-25.91751101352747
-0.03870000000000018,-26.002393691519377
-0.03970000000000007,-26.044835030515326
-0.04070000000000018,-26.087276369511276
-0.04170000000000007,-26.087276369511276
-0.04270000000000018,-26.087276369511276
-0.04370000000000007,-26.044835030515326
-0.044700000000000184,-26.087276369511276
-0.045700000000000074,-26.087276369511276
-0.046700000000000186,-26.129717708507226
-0.047700000000000076,-26.21460038649913
-0.04870000000000019,-26.29948306449103
-0.04970000000000008,-26.38436574248293
-0.05070000000000019,-26.440954194477534
-0.05170000000000008,-26.440954194477534
-0.05270000000000019,-26.440954194477534
-0.05370000000000008,-26.38436574248293
-0.05470000000000019,-26.34192440348698
-0.05570000000000008,-26.29948306449103
-0.056700000000000195,-26.29948306449103
-0.057700000000000085,-26.29948306449103
-0.058700000000000196,-26.38436574248293
-0.059700000000000086,-26.440954194477534
-0.0607000000000002,-26.483395533473487
-0.06170000000000009,-26.568278211465387
-0.0627000000000002,-26.61071955046134
-0.06370000000000009,-26.568278211465387
-0.0647000000000002,-26.525836872469437
-0.06570000000000009,-26.483395533473487
-0.0667000000000002,-26.440954194477534
-0.0677000000000001,-26.38436574248293
-0.0687000000000002,-26.34192440348698
-0.0697000000000001,-26.38436574248293
-0.07070000000000021,-26.440954194477534
-0.0717000000000001,-26.483395533473487
-0.07270000000000021,-26.568278211465387
-0.0737000000000001,-26.61071955046134
-0.07470000000000021,-26.61071955046134
-0.0757000000000001,-26.61071955046134
-0.07670000000000021,-26.61071955046134
-0.0777000000000001,-26.61071955046134
-0.07870000000000021,-26.568278211465387
-0.0797000000000001,-26.568278211465387
-0.08070000000000022,-26.568278211465387
-0.0817000000000001,-26.61071955046134
-0.08270000000000022,-26.65316088945729
-0.08370000000000011,-26.738043567449193
-0.08470000000000022,-26.780484906445146
-0.08570000000000011,-26.780484906445146
-0.08670000000000022,-26.822926245441096
-0.08770000000000011,-26.780484906445146
-0.08870000000000022,-26.738043567449193
-0.08970000000000011,-26.69560222845324
-0.09070000000000022,-26.65316088945729
-0.09170000000000011,-26.65316088945729
-0.09270000000000023,-26.65316088945729
-0.09370000000000012,-26.69560222845324
-0.09470000000000023,-26.738043567449193
-0.09570000000000012,-26.780484906445146
-0.09670000000000023,-26.822926245441096
-0.09770000000000012,-26.86536758443705
-0.09870000000000023,-26.86536758443705
-0.09970000000000012,-26.822926245441096
-0.10070000000000023,-26.822926245441096
-0.10170000000000012,-26.738043567449193
-0.10270000000000024,-26.738043567449193
-0.10370000000000013,-26.738043567449193
-0.10470000000000024,-26.780484906445146
-0.10570000000000013,-26.822926245441096
-0.10670000000000024,-26.86536758443705
-0.10770000000000013,-27.00683871442355
-0.10870000000000024,-27.00683871442355
-0.10970000000000013,-27.049280053419505
-0.11070000000000024,-27.049280053419505
-0.11170000000000013,-27.00683871442355
-0.11270000000000002,-27.00683871442355
-0.11370000000000013,-26.9643973754276
-0.11470000000000002,-26.907808923433
-0.11570000000000014,-26.9643973754276
-0.11670000000000003,-26.9643973754276
-0.11770000000000014,-27.00683871442355
-0.11870000000000003,-27.049280053419505
-0.11970000000000014,-27.134162731411404
-0.12070000000000003,-27.219045409403304
-0.12170000000000014,-27.261486748399253
-0.12270000000000003,-27.219045409403304
-0.12370000000000014,-27.219045409403304
-0.12470000000000003,-27.219045409403304
-0.12570000000000014,-27.176604070407354
-0.12670000000000003,-27.219045409403304
-0.12770000000000015,-27.219045409403304
-0.12870000000000004,-27.261486748399253
-0.12970000000000015,-27.303928087395207
-0.13070000000000004,-27.34636942639116
-0.13170000000000015,-27.38881076538711
-0.13270000000000004,-27.38881076538711
-0.13370000000000015,-27.38881076538711
-0.13470000000000004,-27.38881076538711
-0.13570000000000015,-27.34636942639116
-0.13670000000000004,-27.303928087395207
-0.13770000000000016,-27.303928087395207
-0.13870000000000005,-27.34636942639116
-0.13970000000000016,-27.38881076538711
-0.14070000000000005,-27.43125210438306
-0.14170000000000016,-27.487840556377662
-0.14270000000000005,-27.572723234369565
-0.14370000000000016,-27.615164573365515
-0.14470000000000005,-27.65760591236147
-0.14570000000000016,-27.65760591236147
-0.14670000000000005,-27.65760591236147
-0.14770000000000016,-27.65760591236147
-0.14870000000000005,-27.615164573365515
-0.14970000000000017,-27.615164573365515
-0.15070000000000006,-27.65760591236147
-0.15170000000000017,-27.742488590353368
-0.15270000000000006,-27.827371268345274
-0.15370000000000017,-27.912253946337174
-0.15470000000000006,-28.011283737327723
-0.15570000000000017,-28.09616641531963
-0.15670000000000006,-28.09616641531963
-0.15770000000000017,-28.09616641531963
-0.15870000000000006,-28.09616641531963
-0.15970000000000018,-28.05372507632368
-0.16070000000000007,-28.05372507632368
-0.16170000000000018,-28.05372507632368
-0.16270000000000007,-28.09616641531963
-0.16370000000000018,-28.13860775431558
-0.16470000000000007,-28.22349043230748
-0.16570000000000018,-28.308373110299385
-0.16670000000000007,-28.393255788291288
-0.16770000000000018,-28.393255788291288
-0.16870000000000007,-28.478138466283188
-0.16970000000000018,-28.478138466283188
-0.17070000000000007,-28.478138466283188
-0.17170000000000019,-28.478138466283188
-0.17270000000000008,-28.53472691827779
-0.1737000000000002,-28.53472691827779
-0.17470000000000008,-28.619609596269694
-0.1757000000000002,-28.704492274261593
-0.17670000000000008,-28.789374952253496
-0.1777000000000002,-28.8742576302454
-0.17870000000000008,-28.8742576302454
-0.1797000000000002,-28.91669896924135
-0.18070000000000008,-28.8742576302454
-0.1817000000000002,-28.8742576302454
-0.18270000000000008,-28.8742576302454
-0.1837000000000002,-28.831816291249446
-0.1847000000000001,-28.831816291249446
-0.1857000000000002,-28.8742576302454
-0.1867000000000001,-28.959140308237306
-0.1877000000000002,-29.100611438223805
-0.1887000000000001,-29.18549411621571
-0.1897000000000002,-29.31281813320356
-0.1907000000000001,-29.440142150191413
-0.1917000000000001,-29.482583489187363
-0.19269999999999998,-29.581613280177915
-0.1937000000000001,-29.581613280177915
-0.19469999999999998,-29.581613280177915
-0.1957000000000001,-29.581613280177915
-0.19669999999999999,-29.62405461917387
-0.1977000000000001,-29.66649595816982
-0.1987,-29.751378636161718
-0.1997000000000001,-29.836261314153624
-0.2007,-29.96358533114148
-0.2017000000000001,-30.04846800913338
-0.2027,-30.10505646112798
-0.2037000000000001,-30.147497800123933
-0.2047,-30.147497800123933
-0.2057000000000001,-30.147497800123933
-0.2067,-30.147497800123933
-0.2077000000000001,-30.189939139119886
-0.2087,-30.232380478115836
-0.2097000000000001,-30.317263156107735
-0.2107,-30.402145834099635
-0.2117000000000001,-30.529469851087494
-0.2127,-30.670940981073993
-0.2137000000000001,-30.71338232006995
-0.2147,-30.79826499806185
-0.2157000000000001,-30.925589015049702
-0.2167,-30.925589015049702
-0.21770000000000012,-30.925589015049702
-0.2187,-30.925589015049702
-0.21970000000000012,-31.010471693041605
-0.2207,-31.052913032037555
-0.22170000000000012,-31.095354371033505
-0.2227,-31.23682550102001
-0.22370000000000012,-31.321708179011907
-0.2247,-31.449032195999767
-0.22570000000000012,-31.533914873991666
-0.2267,-31.57635621298762
-0.22770000000000012,-31.661238890979522
-0.22870000000000001,-31.661238890979522
-0.22970000000000013,-31.661238890979522
-0.23070000000000002,-31.717827342974125
-0.23170000000000013,-31.802710020966025
-0.23270000000000002,-31.887592698957924
-0.23370000000000013,-31.972475376949827
-0.23470000000000002,-32.09979939393769
-0.23570000000000013,-32.24127052392419
-0.23670000000000002,-32.32615320191609
-0.2376999999999999,-32.41103587990799
-0.23870000000000002,-32.45347721890394
-0.2396999999999999,-32.45347721890394
-0.24070000000000003,-32.49591855789989
-0.24169999999999991,-32.53835989689585
-0.24270000000000003,-32.58080123589179
-0.24369999999999992,-32.66568391388369
-0.24470000000000003,-32.764713704874254
-0.24569999999999992,-32.93447906085806
-0.24670000000000003,-33.06180307784591
-0.24769999999999992,-33.288156885824314
-0.24870000000000003,-33.41548090281216
-0.24969999999999992,-33.54280491980002
-0.25070000000000003,-33.627687597791926
-0.2516999999999999,-33.712570275783825
-0.25270000000000004,-33.755011614779775
-0.2536999999999999,-33.81160006677438
-0.25470000000000004,-33.89648274476628
-0.2556999999999999,-33.93892408376223
-0.25670000000000004,-34.06624810075008
-0.25769999999999993,-34.15113077874198
-0.25870000000000004,-34.278454795729836
-0.25969999999999993,-34.41992592571634
-0.26070000000000004,-34.50480860370825
-0.26169999999999993,-34.58969128170015
-0.26270000000000004,-34.67457395969205
-0.26369999999999993,-34.717015298688004
-0.26470000000000005,-34.75945663768395
-0.26569999999999994,-34.8018979766799
-0.26670000000000005,-34.94336910666641
-0.26769999999999994,-35.11313446265021
-0.26870000000000005,-35.198017140642115
-0.26969999999999994,-35.32534115762997
-0.27070000000000005,-35.50925362661242
-0.27169999999999994,-35.636577643600276
-0.27270000000000005,-35.763901660588125
-0.27369999999999994,-35.90537279057463
-0.27470000000000006,-35.94781412957058
-0.27569999999999995,-36.03269680756248
-0.27670000000000006,-36.07513814655844
-0.27769999999999995,-36.16002082455034
-0.27870000000000006,-36.244903502542236
-0.27969999999999995,-36.37222751953009
-0.28070000000000006,-36.55613998851254
-0.28169999999999995,-36.725905344496354
-0.28270000000000006,-36.89567070048016
-0.28369999999999995,-37.07958316946261
-0.28470000000000006,-37.206907186450465
-0.28569999999999995,-37.249348525446415
-0.28670000000000007,-37.334231203438314
-0.28769999999999996,-37.41911388143023
-0.28870000000000007,-37.56058501141672
-0.28969999999999996,-37.645467689408626
-0.29070000000000007,-37.77279170639648
-0.29169999999999996,-37.90011572338433
-0.29270000000000007,-38.08402819236679
-0.29369999999999996,-38.253793548350586
-0.2947000000000001,-38.42355890433439
-0.29569999999999996,-38.5650300343209
-0.2967000000000001,-38.734795390304704
-0.29769999999999996,-38.86211940729255
-0.2987000000000001,-38.94700208528445
-0.29969999999999997,-39.130914554266916
-0.3007000000000001,-39.258238571254765
-0.30169999999999997,-39.42800392723857
-0.3027000000000001,-39.61191639622103
-0.30369999999999997,-39.86656443019674
-0.3047000000000001,-40.092918238175145
-0.30569999999999997,-40.34756627215084
-0.3067000000000001,-40.559772967130606
-0.3077,-40.828568114104954
-0.3087000000000001,-40.91345079209687
-0.3097,-41.083216148080666
-0.3107000000000001,-41.22468727806717
-0.3117,-41.30956995605907
-0.3127000000000001,-41.43689397304693
-0.3137,-41.56421799003478
-0.3147000000000001,-41.79057179801318
-0.3157,-42.00277849299294
-0.3167000000000001,-42.229132300971344
-0.3177,-42.483780334947056
-0.3187000000000001,-42.752575481921404
-0.3197,-42.96478217690117
-0.3207000000000001,-43.17698887188092
-0.3217,-43.36090134086337
-0.3227000000000001,-43.48822535785123
-0.3237,-43.657990713835034
-0.3247000000000001,-43.88434452181344
-0.3257,-44.096551216793195
-0.3267000000000001,-44.36534636376755
-0.3277,-44.66243573673921
-0.3287000000000001,-44.93123088371356
-0.3297,-45.27076159568118
-0.3307000000000001,-45.53955674265553
-0.3317,-45.79420477663124
-0.3327000000000001,-46.062999923605595
-0.3337,-46.3176479575813
-0.3347000000000001,-46.544001765559706
-0.3357,-46.79864979953541
-0.3367000000000001,-47.067444946509774
-0.3377,-47.36453431948143
-0.3387000000000001,-47.71821214444768
-0.3397,-48.071889969413945
-0.3407000000000001,-48.36897934238561
-0.3417,-48.68021582835591
-0.3427000000000001,-49.03389365332217
-0.3437,-49.28854168729788
-0.3447000000000001,-49.557336834272235
-0.3457,-49.76954352925199
-0.3467000000000001,-49.98175022423175
-0.3477,-50.2505453712061
-0.3487000000000001,-50.46275206618586
-0.3497,-50.77398855215617
-0.3507000000000001,-51.17010771611838
-0.3517,-51.509638428085985
-0.3527000000000001,-51.948198931044146
-0.3537,-52.34431809500636
-0.3547000000000001,-52.74043725896857
-0.3557,-53.079967970936174
-0.35670000000000013,-53.433645795902436
-0.3577,-53.7873236208687
-0.35870000000000013,-54.1268543328363
-0.3597,-54.52297349679851
-0.36070000000000013,-54.919092660760725
-0.3617,-55.357653163718886
-0.3626999999999999,-55.838655005673
-0.3637,-56.36209818662306
-0.3646999999999999,-56.82895291557852
-0.3657,-57.26751341853669
-0.3666999999999999,-57.70607392149485
-0.3677,-58.05975174646111
-0.3686999999999999,-58.45587091042332
-0.36970000000000003,-58.83784296138688
-0.3706999999999999,-59.23396212534908
-0.37170000000000003,-59.67252262830725
-0.3726999999999999,-60.15352447026136
-0.37370000000000003,-60.63452631221547
-0.3746999999999999,-61.20041083216149
-0.37570000000000003,-61.72385401311155
-0.3766999999999999,-62.20485585506566
-0.37770000000000004,-62.72829903601572
-0.3786999999999999,-63.15271242597524
-0.37970000000000004,-63.633714267929356
-0.3806999999999999,-64.0722747708875
-0.38170000000000004,-64.51083527384567
-0.38269999999999993,-64.99183711579978
-0.38370000000000004,-65.43039761875795
-0.38469999999999993,-65.99628213870396
-0.38570000000000004,-66.56216665864997
-0.38669999999999993,-67.128051178596
-0.38770000000000004,-67.73637703753796
-0.38869999999999993,-68.30226155748396
-0.38970000000000005,-68.86814607742998
-0.39069999999999994,-69.3491479193841
-0.39170000000000005,-69.87259110033416
-0.39269999999999994,-70.35359294228827
-0.39370000000000005,-70.8345947842424
-0.39469999999999994,-71.35803796519245
-0.39570000000000005,-71.92392248513846
-0.39669999999999994,-72.53224834408043
-0.39770000000000005,-73.197162655017
-0.39869999999999994,-73.89037119195086
-0.39970000000000006,-74.58357972888473
-0.40069999999999995,-75.29093537881725
-0.40170000000000006,-75.94170257675518
-0.40269999999999995,-76.63491111368903
-0.40370000000000006,-77.243236972631
-0.40469999999999995,-77.90815128356756
-0.40570000000000006,-78.55891848150549
-0.40669999999999995,-79.2945683574353
-0.40770000000000006,-80.04436534636378
-0.40869999999999995,-80.82245656128954
-0.40970000000000006,-81.57225355021802
-0.41069999999999995,-82.35034476514379
-0.41170000000000007,-83.14258309306821
-0.41269999999999996,-83.83579163000208
-0.41370000000000007,-84.52900016693594
-0.41469999999999996,-85.23635581686847
-0.41570000000000007,-85.88712301480638
-0.41669999999999996,-86.58033155174023
-0.41770000000000007,-87.33012854066871
-0.41869999999999996,-88.06577841659853
-0.4197000000000001,-88.8438696315243
-0.42069999999999996,-89.67854929844468
-0.4217000000000001,-90.55567030436099
-0.42269999999999996,-91.41864419727867
-0.4237000000000001,-92.2108825252031
-0.42469999999999997,-92.98897374012887
-0.4257000000000001,-93.73877072905732
-0.42669999999999997,-94.47442060498715
-0.4277000000000001,-95.12518780292505
-0.42869999999999997,-95.83254345285758
-0.4297000000000001,-96.5681933287874
-0.43069999999999997,-97.31799031771587
-0.4317000000000001,-98.18096421063355
-0.4327,-99.05808521654988
-0.4337000000000001,-99.97764756146215
-0.4347,-100.92550413237171
-0.4357000000000001,-101.88750781627995
-0.4367,-102.80707016119221
-0.4377000000000001,-103.68419116710854
-0.4387,-104.58960639902216
-0.4397000000000001,-105.42428606594254
-0.4407,-106.30140707185885
-0.4417000000000001,-107.12193962578058
-0.4427,-108.04150197069285
-0.4437000000000001,-108.96106431560513
-0.4447,-109.92306799951335
-0.4457000000000001,-110.92751302241753
-0.4467,-111.8753695933271
-0.4477000000000001,-112.83737327723534
-0.4487,-113.79937696114357
-0.4497000000000001,-114.76138064505177
-0.4507,-115.72338432896
-0.4517000000000001,-116.62879956087362
-0.4527,-117.59080324478184
-0.4537000000000001,-118.55280692869007
-0.4547,-119.51481061259831
-0.4557000000000001,-120.47681429650652
-0.4567,-121.52370065840667
-0.4577000000000001,-122.52814568131083
-0.4587,-123.57503204321095
-0.4597000000000001,-124.57947706611512
-0.4607,-125.56977497602065
-0.4617000000000001,-126.48933732093293
-0.4627,-127.4937823438371
-0.4637000000000001,-128.41334468874936
-0.4647,-129.3753483726576
-0.4657000000000001,-130.32320494356716
-0.4667,-131.37009130546733
-0.4677000000000001,-132.47356611936203
-0.4687,-133.52045248126214
-0.4697000000000001,-134.6522215211542
-0.4707,-135.6991078830543
-0.4717000000000001,-136.7884355839504
-0.4727,-137.83532194585052
-0.4737000000000001,-138.8397669687547
-0.4747,-139.8866533306548
-0.4757000000000001,-140.93353969255494
-0.4767,-142.03701450644968
-0.4777000000000001,-143.16878354634173
-0.4787,-144.30055258623375
-0.4797000000000001,-145.43232162612577
-0.4807,-146.7055617960043
-0.48170000000000013,-147.83733083589632
-0.4827,-148.96909987578834
-0.48370000000000013,-150.24234004566688
-0.4847,-151.23263795557244
-0.48570000000000013,-152.36440699546444
-0.4867,-151.93999360550492
-0.48570000000000013,-148.68615761581535
-0.4847,-145.7152638860988
-0.48370000000000013,-143.3102546763282
-0.4827,-140.89109835355902
-0.48170000000000013,-138.6982958387682
-0.4807,-136.66111156696255
-0.4797000000000001,-134.69466286015015
-0.4787,-132.7706554923337
-0.4777000000000001,-130.9456779155078
-0.4767,-129.0641118866873
-0.4757000000000001,-127.36645832684925
-0.4747,-125.62636342801528
-0.4737000000000001,-123.99944543317046
-0.4727,-122.42911589032028
-0.4717000000000001,-120.85878634747009
-0.4707,-119.3450452566145
-0.4697000000000001,-117.85959839175621
-0.4687,-116.37415152689792
-0.4677000000000001,-114.84626332304367
-0.4667,-113.27593378019348
-0.4657000000000001,-111.66316289834735
-0.4647,-110.09283335549715
