Apr. 25, 2025   04:31:04
Cyclic Voltammetry
File: c:/users/guazh/data/banditlqround7_x0exp590_r20/2025-04-16-exp1182\exp1182-2025-04-25t04_19_10-h2koh\exp1182_cv_sr_800mvs_efin_-1500mv.bin
Data Source:  Experiment
Instrument Model:  CHI760E
Header: CV ran at 800 mVs
Note: 

Init E (V) = -1
High E (V) = -1
Low E (V) = -1.5
Final E (V) = -1
Init P/N = N
Scan Rate (V/s) = 0.8
Segment = 3
Sample Interval (V) = 0.001
Quiet Time (sec) = 2
Sensitivity (A/V) = 0.01
Comp R (ohm) = 1.3

Results:

Channel 1:
Segment 1:

Segment 2:

Segment 3:

Potential/V, Current/A

-1.000, 4.024e-5
-1.001, 1.975e-4
-1.002, 3.362e-4
-1.003, 4.595e-4
-1.004, 5.736e-4
-1.005, 6.784e-4
-1.006, 7.771e-4
-1.007, 8.665e-4
-1.008, 9.528e-4
-1.009, 1.030e-3
-1.010, 1.104e-3
-1.011, 1.175e-3
-1.012, 1.236e-3
-1.013, 1.295e-3
-1.014, 1.347e-3
-1.015, 1.394e-3
-1.016, 1.437e-3
-1.017, 1.477e-3
-1.018, 1.514e-3
-1.019, 1.548e-3
-1.020, 1.582e-3
-1.021, 1.616e-3
-1.022, 1.650e-3
-1.023, 1.684e-3
-1.024, 1.714e-3
-1.025, 1.742e-3
-1.026, 1.767e-3
-1.027, 1.788e-3
-1.028, 1.807e-3
-1.029, 1.819e-3
-1.030, 1.835e-3
-1.031, 1.847e-3
-1.032, 1.859e-3
-1.033, 1.872e-3
-1.034, 1.887e-3
-1.035, 1.902e-3
-1.036, 1.921e-3
-1.037, 1.933e-3
-1.038, 1.952e-3
-1.039, 1.961e-3
-1.040, 1.973e-3
-1.041, 1.986e-3
-1.042, 1.989e-3
-1.043, 1.995e-3
-1.044, 2.001e-3
-1.045, 2.007e-3
-1.046, 2.010e-3
-1.047, 2.020e-3
-1.048, 2.029e-3
-1.049, 2.038e-3
-1.050, 2.044e-3
-1.051, 2.057e-3
-1.052, 2.063e-3
-1.053, 2.069e-3
-1.054, 2.069e-3
-1.055, 2.069e-3
-1.056, 2.069e-3
-1.057, 2.069e-3
-1.058, 2.069e-3
-1.059, 2.069e-3
-1.060, 2.072e-3
-1.061, 2.075e-3
-1.062, 2.084e-3
-1.063, 2.091e-3
-1.064, 2.097e-3
-1.065, 2.103e-3
-1.066, 2.103e-3
-1.067, 2.106e-3
-1.068, 2.106e-3
-1.069, 2.103e-3
-1.070, 2.100e-3
-1.071, 2.097e-3
-1.072, 2.094e-3
-1.073, 2.097e-3
-1.074, 2.097e-3
-1.075, 2.103e-3
-1.076, 2.109e-3
-1.077, 2.112e-3
-1.078, 2.118e-3
-1.079, 2.121e-3
-1.080, 2.124e-3
-1.081, 2.121e-3
-1.082, 2.121e-3
-1.083, 2.115e-3
-1.084, 2.115e-3
-1.085, 2.112e-3
-1.086, 2.109e-3
-1.087, 2.109e-3
-1.088, 2.112e-3
-1.089, 2.115e-3
-1.090, 2.118e-3
-1.091, 2.124e-3
-1.092, 2.128e-3
-1.093, 2.128e-3
-1.094, 2.128e-3
-1.095, 2.124e-3
-1.096, 2.124e-3
-1.097, 2.121e-3
-1.098, 2.118e-3
-1.099, 2.115e-3
-1.100, 2.115e-3
-1.101, 2.115e-3
-1.102, 2.118e-3
-1.103, 2.124e-3
-1.104, 2.128e-3
-1.105, 2.128e-3
-1.106, 2.131e-3
-1.107, 2.131e-3
-1.108, 2.134e-3
-1.109, 2.128e-3
-1.110, 2.128e-3
-1.111, 2.121e-3
-1.112, 2.124e-3
-1.113, 2.124e-3
-1.114, 2.124e-3
-1.115, 2.128e-3
-1.116, 2.134e-3
-1.117, 2.137e-3
-1.118, 2.143e-3
-1.119, 2.143e-3
-1.120, 2.143e-3
-1.121, 2.146e-3
-1.122, 2.146e-3
-1.123, 2.143e-3
-1.124, 2.143e-3
-1.125, 2.140e-3
-1.126, 2.140e-3
-1.127, 2.143e-3
-1.128, 2.143e-3
-1.129, 2.149e-3
-1.130, 2.149e-3
-1.131, 2.152e-3
-1.132, 2.158e-3
-1.133, 2.158e-3
-1.134, 2.161e-3
-1.135, 2.161e-3
-1.136, 2.161e-3
-1.137, 2.161e-3
-1.138, 2.158e-3
-1.139, 2.158e-3
-1.140, 2.161e-3
-1.141, 2.164e-3
-1.142, 2.171e-3
-1.143, 2.177e-3
-1.144, 2.183e-3
-1.145, 2.189e-3
-1.146, 2.192e-3
-1.147, 2.195e-3
-1.148, 2.195e-3
-1.149, 2.195e-3
-1.150, 2.192e-3
-1.151, 2.192e-3
-1.152, 2.189e-3
-1.153, 2.189e-3
-1.154, 2.189e-3
-1.155, 2.189e-3
-1.156, 2.192e-3
-1.157, 2.195e-3
-1.158, 2.205e-3
-1.159, 2.205e-3
-1.160, 2.208e-3
-1.161, 2.211e-3
-1.162, 2.211e-3
-1.163, 2.211e-3
-1.164, 2.208e-3
-1.165, 2.208e-3
-1.166, 2.208e-3
-1.167, 2.208e-3
-1.168, 2.208e-3
-1.169, 2.211e-3
-1.170, 2.217e-3
-1.171, 2.220e-3
-1.172, 2.223e-3
-1.173, 2.226e-3
-1.174, 2.229e-3
-1.175, 2.226e-3
-1.176, 2.226e-3
-1.177, 2.226e-3
-1.178, 2.226e-3
-1.179, 2.226e-3
-1.180, 2.229e-3
-1.181, 2.229e-3
-1.182, 2.235e-3
-1.183, 2.238e-3
-1.184, 2.245e-3
-1.185, 2.251e-3
-1.186, 2.254e-3
-1.187, 2.257e-3
-1.188, 2.260e-3
-1.189, 2.260e-3
-1.190, 2.263e-3
-1.191, 2.266e-3
-1.192, 2.269e-3
-1.193, 2.275e-3
-1.194, 2.282e-3
-1.195, 2.291e-3
-1.196, 2.297e-3
-1.197, 2.306e-3
-1.198, 2.312e-3
-1.199, 2.319e-3
-1.200, 2.325e-3
-1.201, 2.325e-3
-1.202, 2.325e-3
-1.203, 2.325e-3
-1.204, 2.325e-3
-1.205, 2.328e-3
-1.206, 2.331e-3
-1.207, 2.334e-3
-1.208, 2.340e-3
-1.209, 2.343e-3
-1.210, 2.353e-3
-1.211, 2.359e-3
-1.212, 2.365e-3
-1.213, 2.368e-3
-1.214, 2.371e-3
-1.215, 2.371e-3
-1.216, 2.371e-3
-1.217, 2.374e-3
-1.218, 2.371e-3
-1.219, 2.374e-3
-1.220, 2.380e-3
-1.221, 2.383e-3
-1.222, 2.393e-3
-1.223, 2.402e-3
-1.224, 2.405e-3
-1.225, 2.414e-3
-1.226, 2.420e-3
-1.227, 2.423e-3
-1.228, 2.427e-3
-1.229, 2.436e-3
-1.230, 2.436e-3
-1.231, 2.436e-3
-1.232, 2.439e-3
-1.233, 2.445e-3
-1.234, 2.448e-3
-1.235, 2.457e-3
-1.236, 2.467e-3
-1.237, 2.473e-3
-1.238, 2.485e-3
-1.239, 2.491e-3
-1.240, 2.501e-3
-1.241, 2.504e-3
-1.242, 2.507e-3
-1.243, 2.513e-3
-1.244, 2.516e-3
-1.245, 2.516e-3
-1.246, 2.522e-3
-1.247, 2.528e-3
-1.248, 2.534e-3
-1.249, 2.544e-3
-1.250, 2.553e-3
-1.251, 2.562e-3
-1.252, 2.571e-3
-1.253, 2.578e-3
-1.254, 2.584e-3
-1.255, 2.587e-3
-1.256, 2.590e-3
-1.257, 2.596e-3
-1.258, 2.596e-3
-1.259, 2.605e-3
-1.260, 2.608e-3
-1.261, 2.618e-3
-1.262, 2.630e-3
-1.263, 2.639e-3
-1.264, 2.649e-3
-1.265, 2.661e-3
-1.266, 2.670e-3
-1.267, 2.676e-3
-1.268, 2.682e-3
-1.269, 2.686e-3
-1.270, 2.692e-3
-1.271, 2.695e-3
-1.272, 2.698e-3
-1.273, 2.707e-3
-1.274, 2.713e-3
-1.275, 2.723e-3
-1.276, 2.732e-3
-1.277, 2.741e-3
-1.278, 2.753e-3
-1.279, 2.760e-3
-1.280, 2.772e-3
-1.281, 2.778e-3
-1.282, 2.781e-3
-1.283, 2.787e-3
-1.284, 2.790e-3
-1.285, 2.797e-3
-1.286, 2.806e-3
-1.287, 2.812e-3
-1.288, 2.821e-3
-1.289, 2.837e-3
-1.290, 2.846e-3
-1.291, 2.858e-3
-1.292, 2.871e-3
-1.293, 2.880e-3
-1.294, 2.886e-3
-1.295, 2.892e-3
-1.296, 2.898e-3
-1.297, 2.904e-3
-1.298, 2.911e-3
-1.299, 2.920e-3
-1.300, 2.926e-3
-1.301, 2.935e-3
-1.302, 2.951e-3
-1.303, 2.963e-3
-1.304, 2.975e-3
-1.305, 2.988e-3
-1.306, 3.000e-3
-1.307, 3.009e-3
-1.308, 3.019e-3
-1.309, 3.028e-3
-1.310, 3.037e-3
-1.311, 3.043e-3
-1.312, 3.052e-3
-1.313, 3.065e-3
-1.314, 3.077e-3
-1.315, 3.093e-3
-1.316, 3.108e-3
-1.317, 3.123e-3
-1.318, 3.139e-3
-1.319, 3.154e-3
-1.320, 3.167e-3
-1.321, 3.179e-3
-1.322, 3.191e-3
-1.323, 3.200e-3
-1.324, 3.210e-3
-1.325, 3.222e-3
-1.326, 3.231e-3
-1.327, 3.247e-3
-1.328, 3.259e-3
-1.329, 3.278e-3
-1.330, 3.293e-3
-1.331, 3.311e-3
-1.332, 3.327e-3
-1.333, 3.342e-3
-1.334, 3.358e-3
-1.335, 3.370e-3
-1.336, 3.382e-3
-1.337, 3.395e-3
-1.338, 3.404e-3
-1.339, 3.419e-3
-1.340, 3.435e-3
-1.341, 3.453e-3
-1.342, 3.475e-3
-1.343, 3.496e-3
-1.344, 3.515e-3
-1.345, 3.536e-3
-1.346, 3.555e-3
-1.347, 3.573e-3
-1.348, 3.592e-3
-1.349, 3.607e-3
-1.350, 3.626e-3
-1.351, 3.638e-3
-1.352, 3.657e-3
-1.353, 3.675e-3
-1.354, 3.694e-3
-1.355, 3.718e-3
-1.356, 3.737e-3
-1.357, 3.758e-3
-1.358, 3.783e-3
-1.359, 3.802e-3
-1.360, 3.820e-3
-1.361, 3.839e-3
-1.362, 3.854e-3
-1.363, 3.873e-3
-1.364, 3.891e-3
-1.365, 3.913e-3
-1.366, 3.940e-3
-1.367, 3.965e-3
-1.368, 3.993e-3
-1.369, 4.024e-3
-1.370, 4.054e-3
-1.371, 4.085e-3
-1.372, 4.116e-3
-1.373, 4.144e-3
-1.374, 4.172e-3
-1.375, 4.199e-3
-1.376, 4.227e-3
-1.377, 4.255e-3
-1.378, 4.280e-3
-1.379, 4.307e-3
-1.380, 4.338e-3
-1.381, 4.369e-3
-1.382, 4.400e-3
-1.383, 4.431e-3
-1.384, 4.461e-3
-1.385, 4.495e-3
-1.386, 4.523e-3
-1.387, 4.554e-3
-1.388, 4.588e-3
-1.389, 4.619e-3
-1.390, 4.653e-3
-1.391, 4.690e-3
-1.392, 4.727e-3
-1.393, 4.767e-3
-1.394, 4.807e-3
-1.395, 4.847e-3
-1.396, 4.890e-3
-1.397, 4.930e-3
-1.398, 4.973e-3
-1.399, 5.016e-3
-1.400, 5.060e-3
-1.401, 5.100e-3
-1.402, 5.137e-3
-1.403, 5.174e-3
-1.404, 5.208e-3
-1.405, 5.245e-3
-1.406, 5.285e-3
-1.407, 5.322e-3
-1.408, 5.362e-3
-1.409, 5.402e-3
-1.410, 5.442e-3
-1.411, 5.488e-3
-1.412, 5.534e-3
-1.413, 5.587e-3
-1.414, 5.639e-3
-1.415, 5.692e-3
-1.416, 5.744e-3
-1.417, 5.796e-3
-1.418, 5.843e-3
-1.419, 5.892e-3
-1.420, 5.938e-3
-1.421, 5.984e-3
-1.422, 6.037e-3
-1.423, 6.086e-3
-1.424, 6.136e-3
-1.425, 6.188e-3
-1.426, 6.240e-3
-1.427, 6.293e-3
-1.428, 6.342e-3
-1.429, 6.395e-3
-1.430, 6.444e-3
-1.431, 6.496e-3
-1.432, 6.549e-3
-1.433, 6.601e-3
-1.434, 6.660e-3
-1.435, 6.718e-3
-1.436, 6.774e-3
-1.437, 6.832e-3
-1.438, 6.891e-3
-1.439, 6.946e-3
-1.440, 7.005e-3
-1.441, 7.064e-3
-1.442, 7.116e-3
-1.443, 7.171e-3
-1.444, 7.224e-3
-1.445, 7.282e-3
-1.446, 7.338e-3
-1.447, 7.397e-3
-1.448, 7.455e-3
-1.449, 7.517e-3
-1.450, 7.575e-3
-1.451, 7.640e-3
-1.452, 7.705e-3
-1.453, 7.767e-3
-1.454, 7.831e-3
-1.455, 7.893e-3
-1.456, 7.958e-3
-1.457, 8.019e-3
-1.458, 8.078e-3
-1.459, 8.143e-3
-1.460, 8.207e-3
-1.461, 8.272e-3
-1.462, 8.343e-3
-1.463, 8.411e-3
-1.464, 8.482e-3
-1.465, 8.550e-3
-1.466, 8.621e-3
-1.467, 8.688e-3
-1.468, 8.756e-3
-1.469, 8.821e-3
-1.470, 8.889e-3
-1.471, 8.954e-3
-1.472, 9.021e-3
-1.473, 9.092e-3
-1.474, 9.163e-3
-1.475, 9.240e-3
-1.476, 9.317e-3
-1.477, 9.394e-3
-1.478, 9.478e-3
-1.479, 9.555e-3
-1.480, 9.632e-3
-1.481, 9.709e-3
-1.482, 9.786e-3
-1.483, 9.860e-3
-1.484, 9.937e-3
-1.485, 1.002e-2
-1.486, 1.009e-2
-1.487, 1.017e-2
-1.488, 1.025e-2
-1.489, 1.033e-2
-1.490, 1.041e-2
-1.491, 1.049e-2
-1.492, 1.057e-2
-1.493, 1.064e-2
-1.494, 1.072e-2
-1.495, 1.080e-2
-1.496, 1.088e-2
-1.497, 1.096e-2
-1.498, 1.103e-2
-1.499, 1.112e-2
-1.500, 1.108e-2
-1.499, 1.084e-2
-1.498, 1.064e-2
-1.497, 1.045e-2
-1.496, 1.028e-2
-1.495, 1.011e-2
-1.494, 9.956e-3
-1.493, 9.808e-3
-1.492, 9.663e-3
-1.491, 9.524e-3
-1.490, 9.385e-3
-1.489, 9.249e-3
-1.488, 9.123e-3
-1.487, 9.000e-3
-1.486, 8.883e-3
-1.485, 8.765e-3
-1.484, 8.651e-3
-1.483, 8.543e-3
-1.482, 8.432e-3
-1.481, 8.325e-3
-1.480, 8.214e-3
-1.479, 8.099e-3
-1.478, 7.985e-3
-1.477, 7.878e-3
-1.476, 7.763e-3
-1.475, 7.656e-3
-1.474, 7.551e-3
-1.473, 7.449e-3
-1.472, 7.350e-3
-1.471, 7.249e-3
-1.470, 7.147e-3
-1.469, 7.051e-3
-1.468, 6.949e-3
-1.467, 6.854e-3
-1.466, 6.755e-3
-1.465, 6.654e-3
-1.464, 6.555e-3
-1.463, 6.453e-3
-1.462, 6.354e-3
-1.461, 6.256e-3
-1.460, 6.160e-3
-1.459, 6.068e-3
-1.458, 5.981e-3
-1.457, 5.892e-3
-1.456, 5.806e-3
-1.455, 5.716e-3
-1.454, 5.627e-3
-1.453, 5.541e-3
-1.452, 5.448e-3
-1.451, 5.359e-3
-1.450, 5.266e-3
-1.449, 5.174e-3
-1.448, 5.090e-3
-1.447, 5.001e-3
-1.446, 4.918e-3
-1.445, 4.834e-3
-1.444, 4.751e-3
-1.443, 4.671e-3
-1.442, 4.594e-3
-1.441, 4.511e-3
-1.440, 4.437e-3
-1.439, 4.354e-3
-1.438, 4.273e-3
-1.437, 4.190e-3
-1.436, 4.110e-3
-1.435, 4.030e-3
-1.434, 3.950e-3
-1.433, 3.869e-3
-1.432, 3.795e-3
-1.431, 3.725e-3
-1.430, 3.651e-3
-1.429, 3.580e-3
-1.428, 3.509e-3
-1.427, 3.438e-3
-1.426, 3.364e-3
-1.425, 3.287e-3
-1.424, 3.216e-3
-1.423, 3.142e-3
-1.422, 3.068e-3
-1.421, 3.000e-3
-1.420, 2.929e-3
-1.419, 2.861e-3
-1.418, 2.797e-3
-1.417, 2.735e-3
-1.416, 2.676e-3
-1.415, 2.612e-3
-1.414, 2.550e-3
-1.413, 2.485e-3
-1.412, 2.420e-3
-1.411, 2.356e-3
-1.410, 2.291e-3
-1.409, 2.223e-3
-1.408, 2.158e-3
-1.407, 2.094e-3
-1.406, 2.032e-3
-1.405, 1.973e-3
-1.404, 1.912e-3
-1.403, 1.856e-3
-1.402, 1.801e-3
-1.401, 1.745e-3
-1.400, 1.687e-3
-1.399, 1.628e-3
-1.398, 1.569e-3
-1.397, 1.511e-3
-1.396, 1.452e-3
-1.395, 1.397e-3
-1.394, 1.338e-3
-1.393, 1.289e-3
-1.392, 1.236e-3
-1.391, 1.187e-3
-1.390, 1.138e-3
-1.389, 1.092e-3
-1.388, 1.042e-3
-1.387, 9.929e-4
-1.386, 9.405e-4
-1.385, 8.881e-4
-1.384, 8.388e-4
-1.383, 7.863e-4
-1.382, 7.339e-4
-1.381, 6.846e-4
-1.380, 6.384e-4
-1.379, 5.921e-4
-1.378, 5.489e-4
-1.377, 5.058e-4
-1.376, 4.657e-4
-1.375, 4.225e-4
-1.374, 3.825e-4
-1.373, 3.393e-4
-1.372, 2.961e-4
-1.371, 2.499e-4
-1.370, 2.067e-4
-1.369, 1.605e-4
-1.368, 1.204e-4
-1.367, 7.723e-5
-1.366, 3.715e-5
-1.365, 1.559e-7
-1.364, -3.684e-5
-1.363, -7.076e-5
-1.362, -1.047e-4
-1.361, -1.417e-4
-1.360, -1.756e-4
-1.359, -2.126e-4
-1.358, -2.527e-4
-1.357, -2.927e-4
-1.356, -3.297e-4
-1.355, -3.667e-4
-1.354, -4.006e-4
-1.353, -4.346e-4
-1.352, -4.654e-4
-1.351, -4.962e-4
-1.350, -5.271e-4
-1.349, -5.548e-4
-1.348, -5.856e-4
-1.347, -6.134e-4
-1.346, -6.442e-4
-1.345, -6.781e-4
-1.344, -7.090e-4
-1.343, -7.429e-4
-1.342, -7.768e-4
-1.341, -8.076e-4
-1.340, -8.385e-4
-1.339, -8.662e-4
-1.338, -8.909e-4
-1.337, -9.155e-4
-1.336, -9.402e-4
-1.335, -9.649e-4
-1.334, -9.895e-4
-1.333, -1.017e-3
-1.332, -1.045e-3
-1.331, -1.076e-3
-1.330, -1.107e-3
-1.329, -1.134e-3
-1.328, -1.159e-3
-1.327, -1.184e-3
-1.326, -1.208e-3
-1.325, -1.230e-3
-1.324, -1.252e-3
-1.323, -1.270e-3
-1.322, -1.289e-3
-1.321, -1.307e-3
-1.320, -1.326e-3
-1.319, -1.347e-3
-1.318, -1.372e-3
-1.317, -1.393e-3
-1.316, -1.418e-3
-1.315, -1.440e-3
-1.314, -1.461e-3
-1.313, -1.483e-3
-1.312, -1.501e-3
-1.311, -1.517e-3
-1.310, -1.532e-3
-1.309, -1.548e-3
-1.308, -1.563e-3
-1.307, -1.578e-3
-1.306, -1.600e-3
-1.305, -1.618e-3
-1.304, -1.637e-3
-1.303, -1.659e-3
-1.302, -1.680e-3
-1.301, -1.696e-3
-1.300, -1.714e-3
-1.299, -1.726e-3
-1.298, -1.742e-3
-1.297, -1.754e-3
-1.296, -1.763e-3
-1.295, -1.779e-3
-1.294, -1.794e-3
-1.293, -1.807e-3
-1.292, -1.822e-3
-1.291, -1.837e-3
-1.290, -1.856e-3
-1.289, -1.874e-3
-1.288, -1.887e-3
-1.287, -1.902e-3
-1.286, -1.911e-3
-1.285, -1.924e-3
-1.284, -1.933e-3
-1.283, -1.942e-3
-1.282, -1.948e-3
-1.281, -1.958e-3
-1.280, -1.970e-3
-1.279, -1.985e-3
-1.278, -1.998e-3
-1.277, -2.010e-3
-1.276, -2.022e-3
-1.275, -2.035e-3
-1.274, -2.047e-3
-1.273, -2.059e-3
-1.272, -2.069e-3
-1.271, -2.078e-3
-1.270, -2.084e-3
-1.269, -2.090e-3
-1.268, -2.103e-3
-1.267, -2.112e-3
-1.266, -2.124e-3
-1.265, -2.136e-3
-1.264, -2.149e-3
-1.263, -2.161e-3
-1.262, -2.177e-3
-1.261, -2.186e-3
-1.260, -2.201e-3
-1.259, -2.207e-3
-1.258, -2.214e-3
-1.257, -2.223e-3
-1.256, -2.226e-3
-1.255, -2.232e-3
-1.254, -2.241e-3
-1.253, -2.247e-3
-1.252, -2.260e-3
-1.251, -2.269e-3
-1.250, -2.281e-3
-1.249, -2.294e-3
-1.248, -2.300e-3
-1.247, -2.306e-3
-1.246, -2.312e-3
-1.245, -2.318e-3
-1.244, -2.321e-3
-1.243, -2.325e-3
-1.242, -2.328e-3
-1.241, -2.331e-3
-1.240, -2.334e-3
-1.239, -2.343e-3
-1.238, -2.352e-3
-1.237, -2.362e-3
-1.236, -2.374e-3
-1.235, -2.380e-3
-1.234, -2.389e-3
-1.233, -2.399e-3
-1.232, -2.399e-3
-1.231, -2.402e-3
-1.230, -2.405e-3
-1.229, -2.408e-3
-1.228, -2.414e-3
-1.227, -2.417e-3
-1.226, -2.423e-3
-1.225, -2.429e-3
-1.224, -2.436e-3
-1.223, -2.445e-3
-1.222, -2.454e-3
-1.221, -2.460e-3
-1.220, -2.466e-3
-1.219, -2.469e-3
-1.218, -2.472e-3
-1.217, -2.472e-3
-1.216, -2.472e-3
-1.215, -2.476e-3
-1.214, -2.479e-3
-1.213, -2.485e-3
-1.212, -2.491e-3
-1.211, -2.500e-3
-1.210, -2.506e-3
-1.209, -2.516e-3
-1.208, -2.522e-3
-1.207, -2.528e-3
-1.206, -2.531e-3
-1.205, -2.534e-3
-1.204, -2.537e-3
-1.203, -2.540e-3
-1.202, -2.543e-3
-1.201, -2.546e-3
-1.200, -2.550e-3
-1.199, -2.556e-3
-1.198, -2.565e-3
-1.197, -2.571e-3
-1.196, -2.577e-3
-1.195, -2.583e-3
-1.194, -2.587e-3
-1.193, -2.590e-3
-1.192, -2.593e-3
-1.191, -2.593e-3
-1.190, -2.590e-3
-1.189, -2.590e-3
-1.188, -2.593e-3
-1.187, -2.593e-3
-1.186, -2.596e-3
-1.185, -2.599e-3
-1.184, -2.602e-3
-1.183, -2.611e-3
-1.182, -2.617e-3
-1.181, -2.617e-3
-1.180, -2.627e-3
-1.179, -2.624e-3
-1.178, -2.627e-3
-1.177, -2.627e-3
-1.176, -2.627e-3
-1.175, -2.627e-3
-1.174, -2.630e-3
-1.173, -2.630e-3
-1.172, -2.636e-3
-1.171, -2.642e-3
-1.170, -2.648e-3
-1.169, -2.654e-3
-1.168, -2.661e-3
-1.167, -2.667e-3
-1.166, -2.670e-3
-1.165, -2.673e-3
-1.164, -2.676e-3
-1.163, -2.676e-3
-1.162, -2.676e-3
-1.161, -2.679e-3
-1.160, -2.679e-3
-1.159, -2.682e-3
-1.158, -2.682e-3
-1.157, -2.685e-3
-1.156, -2.688e-3
-1.155, -2.691e-3
-1.154, -2.694e-3
-1.153, -2.698e-3
-1.152, -2.698e-3
-1.151, -2.698e-3
-1.150, -2.701e-3
-1.149, -2.701e-3
-1.148, -2.704e-3
-1.147, -2.707e-3
-1.146, -2.713e-3
-1.145, -2.716e-3
-1.144, -2.722e-3
-1.143, -2.725e-3
-1.142, -2.731e-3
-1.141, -2.735e-3
-1.140, -2.738e-3
-1.139, -2.738e-3
-1.138, -2.735e-3
-1.137, -2.738e-3
-1.136, -2.738e-3
-1.135, -2.738e-3
-1.134, -2.741e-3
-1.133, -2.744e-3
-1.132, -2.753e-3
-1.131, -2.759e-3
-1.130, -2.765e-3
-1.129, -2.772e-3
-1.128, -2.775e-3
-1.127, -2.778e-3
-1.126, -2.778e-3
-1.125, -2.778e-3
-1.124, -2.775e-3
-1.123, -2.775e-3
-1.122, -2.775e-3
-1.121, -2.778e-3
-1.120, -2.781e-3
-1.119, -2.784e-3
-1.118, -2.790e-3
-1.117, -2.793e-3
-1.116, -2.799e-3
-1.115, -2.802e-3
-1.114, -2.805e-3
-1.113, -2.809e-3
-1.112, -2.809e-3
-1.111, -2.809e-3
-1.110, -2.805e-3
-1.109, -2.802e-3
-1.108, -2.805e-3
-1.107, -2.809e-3
-1.106, -2.812e-3
-1.105, -2.818e-3
-1.104, -2.824e-3
-1.103, -2.830e-3
-1.102, -2.836e-3
-1.101, -2.839e-3
-1.100, -2.846e-3
-1.099, -2.846e-3
-1.098, -2.846e-3
-1.097, -2.849e-3
-1.096, -2.846e-3
-1.095, -2.849e-3
-1.094, -2.849e-3
-1.093, -2.852e-3
-1.092, -2.858e-3
-1.091, -2.858e-3
-1.090, -2.864e-3
-1.089, -2.867e-3
-1.088, -2.870e-3
-1.087, -2.870e-3
-1.086, -2.870e-3
-1.085, -2.867e-3
-1.084, -2.867e-3
-1.083, -2.864e-3
-1.082, -2.861e-3
-1.081, -2.861e-3
-1.080, -2.861e-3
-1.079, -2.864e-3
-1.078, -2.870e-3
-1.077, -2.873e-3
-1.076, -2.879e-3
-1.075, -2.886e-3
-1.074, -2.889e-3
-1.073, -2.889e-3
-1.072, -2.889e-3
-1.071, -2.886e-3
-1.070, -2.886e-3
-1.069, -2.883e-3
-1.068, -2.883e-3
-1.067, -2.886e-3
-1.066, -2.889e-3
-1.065, -2.889e-3
-1.064, -2.895e-3
-1.063, -2.895e-3
-1.062, -2.898e-3
-1.061, -2.898e-3
-1.060, -2.898e-3
-1.059, -2.895e-3
-1.058, -2.889e-3
-1.057, -2.889e-3
-1.056, -2.883e-3
-1.055, -2.883e-3
-1.054, -2.879e-3
-1.053, -2.879e-3
-1.052, -2.879e-3
-1.051, -2.879e-3
-1.050, -2.883e-3
-1.049, -2.889e-3
-1.048, -2.889e-3
-1.047, -2.892e-3
-1.046, -2.892e-3
-1.045, -2.889e-3
-1.044, -2.886e-3
-1.043, -2.886e-3
-1.042, -2.883e-3
-1.041, -2.886e-3
-1.040, -2.886e-3
-1.039, -2.889e-3
-1.038, -2.895e-3
-1.037, -2.898e-3
-1.036, -2.904e-3
-1.035, -2.910e-3
-1.034, -2.913e-3
-1.033, -2.916e-3
-1.032, -2.920e-3
-1.031, -2.920e-3
-1.030, -2.920e-3
-1.029, -2.920e-3
-1.028, -2.920e-3
-1.027, -2.920e-3
-1.026, -2.923e-3
-1.025, -2.926e-3
-1.024, -2.935e-3
-1.023, -2.941e-3
-1.022, -2.947e-3
-1.021, -2.950e-3
-1.020, -2.953e-3
-1.019, -2.957e-3
-1.018, -2.957e-3
-1.017, -2.957e-3
-1.016, -2.953e-3
-1.015, -2.953e-3
-1.014, -2.957e-3
-1.013, -2.957e-3
-1.012, -2.963e-3
-1.011, -2.966e-3
-1.010, -2.972e-3
-1.009, -2.981e-3
-1.008, -2.987e-3
-1.007, -2.990e-3
-1.006, -2.997e-3
-1.005, -2.997e-3
-1.004, -3.000e-3
-1.003, -3.003e-3
-1.002, -3.003e-3
-1.001, -3.009e-3
