Potential V vs RHE, Current mA cm-2
0.013299999999999867,18.603453593225233
0.012299999999999978,16.50968086942498
0.011299999999999866,14.925204213576137
0.010299999999999976,13.596790303002868
0.009299999999999864,11.870842517167523
0.008299999999999974,10.279292304819355
0.007299999999999862,9.184305758723816
0.006299999999999972,7.804962241355407
0.00529999999999986,6.272829903601573
0.0042999999999999705,5.221699407801851
0.0032999999999998586,4.157836510303343
0.0022999999999999687,2.7049280053419507
0.0012999999999998568,1.6368209739438475
0.00029999999999996696,0.7776668015358106
-0.000700000000000145,-0.5003833867622635
-0.0017000000000000348,-1.6976535598380442
-0.0027000000000001467,-2.4318887244679983
-0.0037000000000000366,-3.4872633541673155
-0.0047000000000001485,-4.710988628550572
-0.005700000000000038,-5.473518019177827
-0.00670000000000015,-6.289806439199953
-0.00770000000000004,-7.4937257553851
-0.008700000000000152,-8.366602627401825
-0.009700000000000042,-8.994734444541903
-0.010700000000000154,-10.076988588938656
-0.011700000000000044,-11.047480540646072
-0.012700000000000156,-11.594973813693839
-0.013700000000000045,-12.465021263110838
-0.014700000000000157,-13.574154922205025
-0.015700000000000047,-14.189554337646317
-0.01670000000000016,-14.854468648582884
-0.01770000000000005,-15.91550212348166
-0.01870000000000016,-16.622857773414182
-0.01970000000000005,-17.103859615368293
-0.020700000000000163,-18.03756907327922
-0.021700000000000053,-18.88639585319824
-0.022700000000000164,-19.31080924315775
-0.023700000000000054,-20.06060623208622
-0.024700000000000166,-21.036757028993097
-0.025700000000000056,-21.54605309694451
-0.026700000000000168,-22.069496277894572
-0.027700000000000058,-23.059794187800097
-0.02870000000000017,-23.682267159740714
-0.02970000000000006,-24.078386323702922
-0.03070000000000017,-24.941360216620595
-0.03170000000000006,-25.719451431546364
-0.03270000000000017,-25.974099465522073
-0.03370000000000006,-26.63901377645864
-0.034700000000000175,-27.671753025360115
-0.035700000000000065,-28.15275486731423
-0.03670000000000018,-28.676198048264297
-0.03770000000000007,-29.55331905418062
-0.03870000000000018,-30.07676223513068
-0.03970000000000007,-30.317263156107735
-0.04070000000000018,-31.052913032037555
-0.04170000000000007,-31.788562907967375
-0.04270000000000018,-32.12809361993498
-0.04370000000000007,-32.807155043870196
-0.044700000000000184,-33.68427604978652
-0.045700000000000074,-34.06624810075008
-0.046700000000000186,-34.47651437771095
-0.047700000000000076,-35.21216425364076
-0.04870000000000019,-35.679018982596226
-0.04970000000000008,-36.00440258156518
-0.05070000000000019,-36.90981781347881
-0.05170000000000008,-37.744497480399176
-0.05270000000000019,-38.04158685337084
-0.05370000000000008,-38.55088292132225
-0.05470000000000019,-39.229944345257465
-0.05570000000000008,-39.47044526623452
-0.056700000000000195,-39.89485865619403
-0.057700000000000085,-40.77197966211036
-0.058700000000000196,-41.42274686004827
-0.059700000000000086,-41.84716025000779
-0.0607000000000002,-42.667692803929505
-0.06170000000000009,-43.43163690585662
-0.0627000000000002,-43.68628493983233
-0.06370000000000009,-44.223875233781044
-0.0647000000000002,-44.97367222270952
-0.06570000000000009,-45.36979138667173
-0.0667000000000002,-45.79420477663124
-0.0677000000000001,-46.65717866954891
-0.0687000000000002,-47.22306318949492
-0.0697000000000001,-47.605035240458484
-0.07070000000000021,-48.43971490737886
-0.0717000000000001,-49.16121767031002
-0.07270000000000021,-49.34513013929248
-0.0737000000000001,-49.89686754623985
-0.07470000000000021,-50.75984143915752
-0.0757000000000001,-51.22669616811298
-0.07670000000000021,-51.69355089706845
-0.0777000000000001,-52.514083450990164
-0.07870000000000021,-52.995085292944275
-0.0797000000000001,-53.24973332691998
-0.08070000000000022,-53.9570889768525
-0.0817000000000001,-54.62200328778906
-0.08270000000000022,-54.919092660760725
-0.08370000000000011,-55.56985985869864
-0.08470000000000022,-56.41868663861767
-0.08570000000000011,-56.786511576582576
-0.08670000000000022,-57.22507207954074
-0.08770000000000011,-58.08804597245841
-0.08870000000000022,-58.62563626640712
-0.08970000000000011,-58.90857852638013
-0.09070000000000022,-59.6583755153086
-0.09170000000000011,-60.39402539123842
-0.09270000000000023,-60.73355610320602
-0.09370000000000012,-61.384323301143944
-0.09470000000000023,-62.20485585506566
-0.09570000000000012,-62.51609234103597
-0.09670000000000023,-62.86977016600223
-0.09770000000000012,-63.732744058919906
-0.09870000000000023,-64.34106991786187
-0.09970000000000012,-64.70889485582677
-0.10070000000000023,-65.52942740974851
-0.10170000000000012,-66.26507728567832
-0.10270000000000024,-66.50557820665539
-0.10370000000000013,-67.0997569525987
-0.10470000000000024,-68.01931929751096
-0.10570000000000013,-68.48617402646643
-0.10670000000000024,-68.85399896443133
-0.10770000000000013,-69.61794306635846
-0.10870000000000024,-70.22626892530042
-0.10970000000000013,-70.70727076725453
-0.11070000000000024,-71.55609754717355
-0.11170000000000013,-72.22101185811013
-0.11270000000000002,-72.47565989208583
-0.11370000000000013,-73.15472131602105
-0.11470000000000002,-74.06013654793468
-0.11570000000000014,-74.47040282489553
-0.11670000000000003,-74.89481621485504
-0.11770000000000014,-75.74364299477406
-0.11870000000000003,-76.29538040172143
-0.11970000000000014,-76.66320533968634
-0.12070000000000003,-77.58276768459861
-0.12170000000000014,-78.48818291651223
-0.12270000000000003,-78.8984491934731
-0.12370000000000014,-79.45018660042047
-0.12470000000000003,-80.25657204134353
-0.12570000000000014,-80.70927965730034
-0.12670000000000003,-81.20442861225311
-0.12770000000000015,-82.09569673116808
-0.12870000000000004,-82.67572836411274
-0.12970000000000015,-83.05770041507631
-0.13070000000000004,-83.8216445170034
-0.13170000000000015,-84.57144150593189
-0.13270000000000004,-84.84023665290624
-0.13370000000000015,-85.34953272085767
-0.13470000000000004,-85.98615280579692
-0.13570000000000015,-86.24080083977263
-0.13670000000000004,-86.83497958571596
-0.13770000000000016,-87.89601306061473
-0.13870000000000005,-88.47604469355939
-0.13970000000000016,-88.71654561453644
-0.14070000000000005,-89.50878394246087
-0.14170000000000016,-90.42834628737315
-0.14270000000000005,-90.7820241123394
-0.14370000000000016,-91.29132018029082
-0.14470000000000005,-91.97038160422603
-0.14570000000000016,-92.42308922018285
-0.14670000000000005,-93.11629775711671
-0.14770000000000016,-94.21977257101145
-0.14870000000000005,-94.6300388479723
-0.14970000000000017,-94.4319792659912
-0.15070000000000006,-94.68662729996691
-0.15170000000000017,-95.66277809687378
-0.15270000000000006,-96.61063466778336
-0.15370000000000017,-98.26584688862545
-0.15470000000000006,-99.41176304151614
-0.15570000000000017,-99.55323417150264
-0.15670000000000006,-99.36932170252018
-0.15770000000000017,-99.72299952748644
-0.15870000000000006,-99.87861777047159
-0.15970000000000018,-100.20400136944055
-0.16070000000000007,-101.3640646353299
-0.16170000000000018,-102.36850965823406
-0.16270000000000007,-102.90609995218277
-0.16370000000000018,-103.5568671501207
-0.16470000000000007,-104.10860455706805
-0.16570000000000018,-104.151045896064
-0.16670000000000007,-104.61790062501946
-0.16770000000000018,-105.891140794898
-0.16870000000000007,-106.72582046181837
-0.16970000000000018,-107.06535117378597
-0.17070000000000007,-107.75855971071984
-0.17170000000000019,-108.35273845666316
-0.17270000000000008,-108.52250381264696
-0.1737000000000002,-109.03179988059838
-0.17470000000000008,-109.8523324345201
-0.1757000000000002,-110.36162850247152
-0.17670000000000008,-110.99824858741079
-0.1777000000000002,-112.05928206230955
-0.17870000000000008,-112.51198967826636
-0.1797000000000002,-112.56857813026097
-0.18070000000000008,-113.02128574621779
-0.1817000000000002,-113.64375871815841
-0.18270000000000008,-114.1530547861098
-0.1837000000000002,-114.95944022703287
-0.1847000000000001,-115.99217947593435
-0.1857000000000002,-116.48732843088712
-0.1867000000000001,-117.0390658378345
-0.1877000000000002,-118.10009931273325
-0.1887000000000001,-118.65183671968063
-0.1897000000000002,-118.86404341466037
-0.1907000000000001,-119.85434132456592
-0.1917000000000001,-120.61828542649305
-0.19269999999999998,-120.92952191246334
-0.1937000000000001,-121.42467086741611
-0.19469999999999998,-121.96226116136481
-0.1957000000000001,-122.0471438393567
-0.19669999999999999,-122.72620526329193
-0.1977000000000001,-124.04188677216642
-0.1987,-124.70680108310299
-0.1997000000000001,-124.87656643908679
-0.2007,-125.79612878399907
-0.2017000000000001,-126.9278978238911
-0.2027,-127.32401698785328
-0.2037000000000001,-127.67769481281957
-0.2047,-128.0879610897804
-0.2057000000000001,-128.28602067176152
-0.2067,-129.21973012967246
-0.2077000000000001,-130.5637058645442
-0.2087,-131.5115624354538
-0.2097000000000001,-132.06329984240116
-0.2107,-132.5725959103526
-0.2117000000000001,-132.6291843623472
-0.2127,-132.58674302335123
-0.2137000000000001,-133.49215825526485
-0.2147,-134.82198687713802
-0.2157000000000001,-135.6425194310597
-0.2167,-136.4489048719828
-0.21770000000000012,-137.3826143298937
-0.2187,-137.6231152508708
-0.21970000000000012,-137.59482102487348
-0.2207,-137.99094018883568
-0.22170000000000012,-138.40120646579655
-0.2227,-138.48608914378846
-0.22370000000000012,-139.05197366373446
-0.2247,-139.77347642666564
-0.22570000000000012,-140.12715425163188
-0.2267,-140.70718588457655
-0.22770000000000012,-141.75407224647665
-0.22870000000000001,-142.4614278964092
-0.22970000000000013,-142.6028990263957
-0.23070000000000002,-143.3102546763282
-0.23170000000000013,-144.30055258623375
-0.23270000000000002,-144.58349484620675
-0.23370000000000013,-145.00790823616626
-0.23470000000000002,-145.85673501608528
-0.23570000000000013,-146.4226195360313
-0.23670000000000002,-147.1299751859638
-0.2376999999999999,-148.26174422585584
-0.23870000000000002,-148.96909987578834
-0.2396999999999999,-149.39351326574788
-0.24070000000000003,-149.95939778569388
-0.24169999999999991,-150.5252823056399
-0.24270000000000003,-151.09116682558593
-0.24369999999999992,-152.0814647354914
-0.24470000000000003,-153.21323377538346
-0.24569999999999992,-153.63764716534297
-0.24670000000000003,-153.77911829532948
-0.24769999999999992,-154.0620605553025
-0.24870000000000003,-154.203531685289
-0.24969999999999992,-154.3450028152755
-0.25070000000000003,-155.47677185516753
-0.2516999999999999,-156.60854089505958
-0.25270000000000004,-157.17442541500557
-0.2536999999999999,-157.7403099349516
-0.25470000000000004,-158.4476655848841
-0.2556999999999999,-158.5891367148706
-0.25670000000000004,-158.73060784485713
-0.25769999999999993,-159.57943462477613
-0.25870000000000004,-160.14531914472215
-0.25969999999999993,-160.5697325346817
-0.26070000000000004,-161.2770881846142
-0.26169999999999993,-162.12591496453322
-0.26270000000000004,-162.40885722450622
-0.26369999999999993,-162.97474174445222
-0.26470000000000005,-163.96503965435775
-0.26569999999999994,-164.38945304431726
-0.26670000000000005,-164.9553375642633
-0.26769999999999994,-165.8041643441823
-0.26870000000000005,-165.94563547416882
-0.26969999999999994,-166.22857773414182
-0.27070000000000005,-167.07740451406085
-0.27169999999999994,-168.06770242396635
-0.27270000000000005,-168.35064468393938
-0.27369999999999994,-168.77505807389886
-0.27470000000000006,-169.6238848538179
-0.27569999999999995,-169.7653559838044
-0.27670000000000006,-169.7653559838044
-0.27769999999999995,-170.47271163373694
-0.27870000000000006,-171.32153841365593
-0.27969999999999995,-171.88742293360195
-0.28070000000000006,-173.01919197349397
-0.28169999999999995,-173.72654762342648
-0.28270000000000006,-173.72654762342648
-0.28369999999999995,-174.0094898833995
-0.28470000000000006,-174.57537440334553
-0.28569999999999995,-174.85831666331853
-0.28670000000000007,-175.42420118326456
-0.28769999999999996,-176.13155683319707
-0.28870000000000007,-176.55597022315658
-0.28969999999999996,-176.98038361311612
-0.29070000000000007,-177.82921039303508
-0.29169999999999996,-178.53656604296762
-0.29270000000000007,-178.53656604296762
-0.29369999999999996,-179.10245056291362
-0.2947000000000001,-179.95127734283267
-0.29569999999999996,-180.5171618627787
-0.2967000000000001,-181.08304638272472
-0.29769999999999996,-181.64893090267074
-0.2987000000000001,-181.93187316264374
-0.29969999999999997,-182.21481542261674
-0.3007000000000001,-182.92217107254925
-0.30169999999999997,-183.77099785246824
-0.3027000000000001,-183.91246898245475
-0.30369999999999997,-184.47835350240078
-0.3047000000000001,-185.3271802823198
-0.30569999999999997,-185.46865141230631
-0.3067000000000001,-185.7515936722793
-0.3077,-186.31747819222534
-0.3087000000000001,-186.31747819222534
-0.3097,-186.31747819222534
-0.3107000000000001,-187.16630497214436
-0.3117,-188.29807401203638
-0.3127000000000001,-188.72248740199586
-0.3137,-189.0054296619689
-0.3147000000000001,-189.1469007919554
-0.3157,-189.0054296619689
-0.3167000000000001,-189.1469007919554
-0.3177,-190.27866983184742
-0.3187000000000001,-191.41043887173947
-0.3197,-191.9763233916855
-0.3207000000000001,-192.54220791163152
-0.3217,-192.82515017160452
-0.3227000000000001,-193.249563561564
-0.3237,-194.09839034148303
-0.3247000000000001,-195.51310164134807
-0.3257,-196.2204572912806
-0.3267000000000001,-196.50339955125358
-0.3277,-196.7863418112266
-0.3287000000000001,-196.7863418112266
-0.3297,-196.2204572912806
-0.3307000000000001,-196.0789861612941
-0.3317,-195.65457277133459
-0.3327000000000001,-195.23015938137505
-0.3337,-195.79604390132107
-0.3347000000000001,-196.92781294121312
-0.3357,-197.63516859114563
-0.3367000000000001,-198.20105311109162
-0.3377,-199.19135102099716
-0.3387000000000001,-199.89870667092967
-0.3397,-199.89870667092967
-0.3407000000000001,-200.04017780091618
-0.3417,-200.18164893090267
-0.3427000000000001,-200.3231200608892
-0.3437,-201.17194684080823
-0.3447000000000001,-201.87930249074074
-0.3457,-201.87930249074074
-0.3467000000000001,-201.87930249074074
-0.3477,-202.30371588070025
-0.3487000000000001,-203.01107153063276
-0.3497,-203.71842718056527
-0.3507000000000001,-204.7087250904708
-0.3517,-205.27460961041683
-0.3527000000000001,-205.41608074040332
-0.3537,-205.84049413036286
-0.3547000000000001,-205.69902300037634
-0.3557,-204.9916673504438
-0.35670000000000013,-204.9916673504438
-0.3577,-205.69902300037634
-0.35870000000000013,-205.98196526034934
-0.3597,-206.12343639033585
-0.36070000000000013,-206.40637865030885
-0.3617,-206.83079204026836
-0.3626999999999999,-207.25520543022787
-0.3637,-207.67961882018741
-0.3646999999999999,-208.1040322101469
-0.3657,-207.96256108016038
-0.3666999999999999,-207.8210899501739
-0.3677,-208.24550334013338
-0.3686999999999999,-208.3869744701199
-0.36970000000000003,-208.6699167300929
-0.3706999999999999,-209.23580125003892
-0.37170000000000003,-210.08462802995794
-0.3726999999999999,-210.36757028993094
-0.37370000000000003,-210.79198367989048
-0.3746999999999999,-211.35786819983647
-0.37570000000000003,-211.499339329823
-0.3766999999999999,-211.35786819983647
-0.37770000000000004,-211.499339329823
-0.3786999999999999,-211.782281589796
-0.37970000000000004,-212.065223849769
-0.3806999999999999,-213.19699288966103
-0.38170000000000004,-214.18729079956654
-0.38269999999999993,-214.32876192955305
-0.38370000000000004,-214.61170418952605
-0.38469999999999993,-215.17758870947208
-0.38570000000000004,-215.4605309694451
-0.38669999999999993,-213.76287740960703
-0.38570000000000004,-210.36757028993094
-0.38469999999999993,-206.83079204026836
-0.38370000000000004,-203.43548492059227
-0.38269999999999993,-200.6060623208622
-0.38170000000000004,-197.77663972113214
-0.3806999999999999,-194.52280373144254
-0.37970000000000004,-191.551910001726
-0.3786999999999999,-188.8639585319824
-0.37770000000000004,-185.46865141230631
-0.3766999999999999,-182.21481542261674
-0.37570000000000003,-179.80980621284618
-0.3746999999999999,-177.1218547431026
-0.37370000000000003,-174.43390327335902
-0.3726999999999999,-172.31183632356147
-0.37170000000000003,-169.7653559838044
-0.3706999999999999,-166.51151999411482
-0.36970000000000003,-163.82356852437124
-0.3686999999999999,-161.70150157457368
-0.3677,-159.15502123481662
-0.3666999999999999,-156.60854089505958
-0.3657,-154.6279450752485
-0.3646999999999999,-152.0814647354914
-0.3637,-149.53498439573437
-0.3626999999999999,-147.4129174459368
-0.3617,-145.43232162612577
-0.36070000000000013,-143.16878354634173
-0.3597,-141.13159927453606
-0.35870000000000013,-139.1792976807223
-0.3577,-136.5054933239774
-0.35670000000000013,-133.81754185423384
-0.3557,-132.0067113904066
-0.3547000000000001,-130.35149916956448
-0.3537,-128.38505046275208
-0.3527000000000001,-126.50348443393159
-0.3517,-124.29653480614212
-0.3507000000000001,-121.86323137037427
-0.3497,-120.15143069753758
-0.3487000000000001,-118.75086651067119
-0.3477,-116.68538801286822
-0.3467000000000001,-114.36526148108955
-0.3457,-112.59687235625829
-0.3447000000000001,-110.77189477943237
-0.3437,-108.90447586361051
-0.3427000000000001,-107.40488188575358
-0.3417,-105.69308121291688
-0.3407000000000001,-103.47198447212878
-0.3397,-101.44894731332178
-0.3387000000000001,-99.90691199646888
-0.3377,-98.09608153264163
-0.3367000000000001,-96.32769240781035
-0.3357,-95.11104068992641
-0.3347000000000001,-93.46997558208298
-0.3337,-91.47523264927328
-0.3327000000000001,-90.07466846240689
-0.3317,-88.65995716254186
-0.3307000000000001,-86.6793613427308
-0.3297,-84.96756066989411
-0.3287000000000001,-83.65187916101961
-0.3277,-81.98251982717888
-0.3267000000000001,-80.31316049333813
-0.3257,-79.1248030014515
-0.3247000000000001,-77.59691479759726
-0.3237,-75.82852567276596
-0.3227000000000001,-74.59772684188339
-0.3217,-73.3669280110008
-0.3207000000000001,-71.61268599916815
-0.3197,-70.05650356931662
-0.3187000000000001,-68.76911628643943
-0.3177,-67.18463963059058
-0.3167000000000001,-65.64260431373769
-0.3157,-64.56742372584027
-0.3147000000000001,-63.3366248949577
-0.3137,-61.7380011261102
-0.3127000000000001,-60.49305518222897
-0.3117,-59.21981501235043
-0.3107000000000001,-57.53630856551105
-0.3097,-56.27721550863116
-0.3087000000000001,-55.25862337272834
-0.3077,-53.70244094287679
-0.3067000000000001,-52.2169940780185
-0.30569999999999997,-51.24084328111163
-0.3047000000000001,-50.010044450229046
-0.30369999999999997,-48.48215624637481
-0.3027000000000001,-47.46356411047198
-0.30169999999999997,-46.38838352257455
-0.3007000000000001,-44.84634820572166
-0.29969999999999997,-43.58725514884178
-0.2987000000000001,-42.6111043519349
-0.29769999999999996,-41.22468727806717
-0.2967000000000001,-39.89485865619403
-0.29569999999999996,-39.060178989273666
-0.2947000000000001,-37.84352727138973
-0.29369999999999996,-36.3439332935328
-0.29270000000000007,-35.42437094862052
-0.29169999999999996,-34.53310282970554
-0.29070000000000007,-33.10424441684186
-0.28969999999999996,-31.901739811956578
-0.28870000000000007,-31.024618806040255
-0.28769999999999996,-29.72308441016442
-0.28670000000000007,-28.44984424028589
-0.28569999999999995,-27.671753025360115
-0.28470000000000006,-26.62486666345999
-0.28369999999999995,-25.280890928588207
-0.28270000000000006,-24.417917035670534
-0.28169999999999995,-23.526648916755562
-0.28070000000000006,-22.182673181883775
-0.27969999999999995,-21.19237527197825
-0.27870000000000006,-20.456725396048434
-0.27769999999999995,-19.25422079116315
-0.27670000000000006,-18.08001041227517
-0.27569999999999995,-17.34436053634535
-0.27470000000000006,-16.325768400442524
-0.27369999999999994,-15.02423400456669
-0.27270000000000005,-14.217848563643619
-0.27169999999999994,-13.385998319322978
-0.27070000000000005,-12.194811404836617
-0.26969999999999994,-11.340325779718134
-0.26870000000000005,-10.683899736580756
-0.26769999999999994,-9.468662729996689
