Potential V vs RHE, Current mA cm-2
0.4132999999999999,-0.011495944022703288
0.4122999999999999,-0.013763726236386942
0.4112999999999999,-0.014543232162612576
0.4102999999999999,-0.014911057100577486
0.4092999999999999,-0.015179852247551842
0.4082999999999999,-0.015392058942531598
0.4072999999999999,-0.015561824298515404
0.4062999999999999,-0.01568914831550326
0.4052999999999999,-0.01583061944548976
0.4042999999999999,-0.015943796349478963
0.4032999999999999,-0.016056973253468165
0.4022999999999999,-0.016127708818461418
0.4012999999999999,-0.016226738609451972
0.4002999999999999,-0.016283327061446574
0.3992999999999999,-0.016396503965435776
0.3982999999999999,-0.016495533756426328
0.3972999999999999,-0.016537975095422278
0.3962999999999999,-0.01662285777341418
0.3952999999999999,-0.01666529911241013
0.3942999999999999,-0.01673603467740338
0.39329999999999987,-0.016792623129397985
0.39229999999999987,-0.016849211581392583
0.39129999999999987,-0.01691994714638584
0.39029999999999987,-0.016948241372383138
0.38929999999999987,-0.017018976937376393
0.38829999999999987,-0.01706141827637234
0.38729999999999987,-0.017118006728366945
0.38629999999999987,-0.017174595180361543
0.38529999999999986,-0.0172453307453548
0.38429999999999986,-0.0172453307453548
0.38329999999999986,-0.01731606631034805
0.38229999999999986,-0.017358507649344
0.38129999999999986,-0.017400948988339954
0.38029999999999986,-0.017471684553333203
0.37929999999999986,-0.017471684553333203
0.37829999999999986,-0.017542420118326456
0.37729999999999986,-0.017584861457322406
0.37629999999999986,-0.017613155683319705
0.37529999999999986,-0.01768389124831296
0.37429999999999986,-0.01769803836131161
0.37329999999999985,-0.01776877392630486
0.37229999999999985,-0.017797068152302163
0.37129999999999985,-0.017825362378299462
0.37029999999999985,-0.017881950830294063
0.36929999999999985,-0.017910245056291362
0.36829999999999985,-0.017938539282288665
0.36729999999999985,-0.017995127734283266
0.36629999999999985,-0.018023421960280565
0.36529999999999985,-0.018065863299276518
0.36429999999999985,-0.018094157525273817
0.36329999999999985,-0.01813659886426977
0.36229999999999984,-0.01817904020326572
0.36129999999999984,-0.018221481542261674
0.36029999999999984,-0.018249775768258973
0.35929999999999984,-0.018306364220253574
0.35829999999999984,-0.018320511333252226
0.35729999999999984,-0.018362952672248176
0.35629999999999984,-0.018433688237241428
0.35529999999999984,-0.018419541124242777
0.35429999999999984,-0.018461982463238727
0.35329999999999984,-0.01851857091523333
0.35229999999999984,-0.018546865141230634
0.35129999999999983,-0.01858930648022658
0.35029999999999983,-0.018617600706223883
0.34929999999999983,-0.018631747819222534
0.34829999999999983,-0.018702483384215783
0.34729999999999983,-0.018759071836210388
0.34629999999999983,-0.018773218949209036
0.34529999999999983,-0.018815660288204986
0.34429999999999983,-0.018815660288204986
0.3432999999999998,-0.018886395853198238
0.3422999999999998,-0.018900542966196893
0.3412999999999998,-0.018957131418191494
0.3402999999999998,-0.018999572757187444
0.3392999999999998,-0.018985425644188793
0.3382999999999998,-0.019042014096183394
0.3372999999999998,-0.019084455435179344
0.3362999999999998,-0.019112749661176646
0.3352999999999998,-0.019141043887173945
0.3342999999999998,-0.019169338113171244
0.3332999999999998,-0.01922592656516585
0.3322999999999998,-0.019254220791163148
0.3312999999999998,-0.01928251501716045
0.3302999999999998,-0.019310809243157753
0.3292999999999998,-0.0193249563561564
0.3282999999999998,-0.019367397695152354
0.3272999999999998,-0.019423986147146955
0.3262999999999998,-0.019438133260145606
0.3252999999999999,-0.019452280373144254
0.3242999999999999,-0.019494721712140204
0.3232999999999999,-0.019537163051136158
0.3222999999999999,-0.019565457277133456
0.3212999999999999,-0.019622045729128058
0.3202999999999999,-0.019622045729128058
0.3192999999999999,-0.01967863418112266
0.3182999999999999,-0.01970692840711996
0.3172999999999999,-0.019721075520118612
0.3162999999999999,-0.019777663972113214
0.3152999999999999,-0.019805958198110513
0.3142999999999999,-0.019834252424107815
0.3132999999999999,-0.019862546650105117
0.3122999999999999,-0.019904987989101064
0.3112999999999999,-0.019933282215098366
0.3102999999999999,-0.019947429328097017
0.3092999999999999,-0.019989870667092968
0.3082999999999999,-0.02003231200608892
0.3072999999999999,-0.02004645911908757
0.3062999999999999,-0.020103047571082173
0.3052999999999999,-0.020145488910078124
0.3042999999999999,-0.020145488910078124
0.3032999999999999,-0.020187930249074077
0.3022999999999999,-0.020230371588070024
0.3012999999999999,-0.020258665814067326
0.3002999999999999,-0.020301107153063276
0.2992999999999999,-0.020301107153063276
0.2982999999999999,-0.020357695605057877
0.2972999999999999,-0.020400136944053827
0.2962999999999999,-0.020442578283049778
0.2952999999999999,-0.02048501962204573
0.2942999999999999,-0.020470872509047083
0.2932999999999999,-0.02052746096104168
0.2922999999999999,-0.020584049413036282
0.2912999999999999,-0.020584049413036282
0.2902999999999999,-0.020626490752032236
0.2892999999999999,-0.020668932091028186
0.2882999999999999,-0.020697226317025485
0.2872999999999999,-0.02073966765602144
0.2862999999999999,-0.020767961882018737
0.2852999999999999,-0.02079625610801604
0.2842999999999999,-0.020824550334013342
0.2832999999999999,-0.02085284456001064
0.2822999999999999,-0.020895285899006594
0.2812999999999999,-0.020937727238002544
0.2802999999999999,-0.020966021463999843
0.2792999999999999,-0.021008462802995797
0.2782999999999999,-0.021036757028993096
0.2772999999999999,-0.021050904141991744
0.2762999999999999,-0.021135786819983647
0.2752999999999999,-0.021135786819983647
0.2742999999999999,-0.021164081045980946
0.2732999999999999,-0.0212065223849769
0.2722999999999999,-0.0212348166109742
0.2712999999999999,-0.021291405062968803
0.2702999999999999,-0.021319699288966102
0.2692999999999999,-0.021333846401964753
0.26829999999999987,-0.021390434853959358
0.26729999999999987,-0.021404581966958002
0.26629999999999987,-0.021461170418952607
0.26529999999999987,-0.021489464644949906
0.26429999999999987,-0.02150361175794856
0.26329999999999987,-0.021560200209943158
0.26229999999999987,-0.02158849443594046
0.26129999999999987,-0.02163093577493641
0.26029999999999986,-0.02165923000093371
0.25929999999999986,-0.02167337711393236
0.25829999999999986,-0.021744112678925617
0.25729999999999986,-0.021786554017921567
0.25629999999999986,-0.021800701130920214
0.25529999999999986,-0.02185728958291482
0.25429999999999986,-0.021871436695913467
0.25329999999999986,-0.021913878034909417
0.25229999999999986,-0.02194217226090672
0.25129999999999986,-0.02199876071290132
0.25029999999999986,-0.022027054938898623
0.24929999999999986,-0.022069496277894573
0.24829999999999985,-0.022097790503891875
0.24729999999999985,-0.022140231842887825
0.24629999999999985,-0.02218267318188378
0.24529999999999985,-0.022225114520879725
0.24429999999999985,-0.022281702972874327
0.24329999999999985,-0.022281702972874327
0.24229999999999985,-0.02232414431187028
0.24129999999999985,-0.02238073276386488
0.24029999999999985,-0.02239487987686353
0.23929999999999985,-0.022437321215859483
0.23829999999999985,-0.022465615441856785
0.23729999999999984,-0.022479762554855433
0.23629999999999984,-0.022536351006850038
0.23529999999999984,-0.022550498119848682
0.23429999999999984,-0.022592939458844635
0.23329999999999984,-0.02264952791083924
0.23229999999999984,-0.022691969249835187
0.23129999999999984,-0.02273441058883114
0.23029999999999984,-0.02276270481482844
0.22929999999999984,-0.02277685192782709
0.22829999999999984,-0.022833440379821688
0.22729999999999984,-0.022861734605818994
0.22629999999999983,-0.022918323057813595
0.22529999999999983,-0.022960764396809545
0.22429999999999983,-0.022974911509808196
0.22329999999999983,-0.023031499961802798
0.22229999999999983,-0.023073941300798748
0.22129999999999983,-0.02310223552679605
0.22029999999999983,-0.02313052975279335
0.21929999999999983,-0.023172971091789302
0.21829999999999983,-0.023215412430785252
0.21729999999999983,-0.02327200088277985
0.21629999999999983,-0.023300295108777156
0.21529999999999982,-0.023328589334774455
0.21429999999999982,-0.023342736447773106
0.21329999999999982,-0.02341347201276636
0.21229999999999982,-0.02345591335176231
0.21129999999999982,-0.023498354690758262
0.21029999999999982,-0.02354079602975421
0.20929999999999982,-0.02355494314275286
0.20829999999999982,-0.023583237368750162
0.20729999999999982,-0.023639825820744764
0.20629999999999982,-0.023696414272739365
0.20529999999999982,-0.023724708498736664
0.20429999999999982,-0.023767149837732617
0.20329999999999981,-0.023809591176728567
0.2022999999999998,-0.02385203251572452
0.2012999999999998,-0.02390862096771912
0.20029999999999992,-0.02392276808071777
0.19929999999999992,-0.023965209419713723
0.19829999999999992,-0.02400765075870967
0.19729999999999992,-0.024078386323702922
0.19629999999999992,-0.024106680549700225
0.19529999999999992,-0.024134974775697527
0.19429999999999992,-0.02424815167968673
0.19329999999999992,-0.024318887244679982
0.19229999999999992,-0.024318887244679982
0.19129999999999991,-0.02433303435767863
0.1902999999999999,-0.02436132858367593
0.1892999999999999,-0.024417917035670533
0.1882999999999999,-0.02447450548766513
0.1872999999999999,-0.024502799713662437
0.1862999999999999,-0.024559388165657038
0.1852999999999999,-0.024587682391654337
0.1842999999999999,-0.024601829504652988
0.1832999999999999,-0.02468671218264489
0.1822999999999999,-0.02471500640864219
0.1812999999999999,-0.024785741973635443
0.1802999999999999,-0.02482818331263139
0.1792999999999999,-0.024870624651627343
0.1782999999999999,-0.024913065990623297
0.1772999999999999,-0.024955507329619247
0.1762999999999999,-0.0249979486686152
0.1752999999999999,-0.0250545371206098
0.1742999999999999,-0.0250828313466071
0.1732999999999999,-0.025139419798601705
0.1722999999999999,-0.025167714024599004
0.1712999999999999,-0.025224302476593602
0.1702999999999999,-0.025266743815589552
0.1692999999999999,-0.025309185154585506
0.1682999999999999,-0.02537992071957876
0.1672999999999999,-0.025422362058574708
0.1662999999999999,-0.02546480339757066
0.1652999999999999,-0.025507244736566608
0.1642999999999999,-0.025563833188561213
0.1632999999999999,-0.025577980301559864
0.1622999999999999,-0.025662862979551764
0.1612999999999999,-0.025719451431546365
0.1602999999999999,-0.02573359854454502
0.1592999999999999,-0.02577603988354097
0.15829999999999989,-0.025832628335535568
0.15729999999999988,-0.02587506967453152
0.15629999999999988,-0.025974099465522073
0.15529999999999988,-0.02600239369151937
0.15429999999999988,-0.026044835030515325
0.15329999999999988,-0.026087276369511275
0.15229999999999988,-0.02614386482150588
0.15129999999999988,-0.026186306160501827
0.15029999999999988,-0.02622874749949778
0.14929999999999988,-0.02627118883849373
0.14829999999999988,-0.026341924403486983
0.14729999999999988,-0.026398512855481584
0.14629999999999987,-0.02645510130747619
0.14529999999999987,-0.026483395533473487
0.14429999999999987,-0.02652583687246944
0.14329999999999987,-0.02662486666345999
0.14229999999999987,-0.026695602228453245
0.14129999999999987,-0.02673804356744919
0.14029999999999987,-0.026766337793446494
0.13929999999999987,-0.026808779132442447
0.13829999999999987,-0.026879514697435696
0.13729999999999987,-0.026936103149430297
0.13629999999999987,-0.026992691601424906
0.13529999999999986,-0.0270209858274222
0.13429999999999986,-0.027049280053419503
0.13329999999999986,-0.027120015618412752
0.13229999999999986,-0.027176604070407354
0.13129999999999986,-0.02723319252240196
0.13029999999999986,-0.02730392808739521
0.12929999999999986,-0.02736051653938981
0.12829999999999986,-0.02738881076538711
0.12729999999999986,-0.027473693443379014
0.12629999999999986,-0.027516134782374965
0.12529999999999986,-0.02755857612137091
0.12429999999999986,-0.027615164573365516
0.12329999999999985,-0.02768590013835877
0.12229999999999985,-0.02774248859035337
0.12129999999999985,-0.027813224155346622
0.12029999999999985,-0.027855665494342572
0.11929999999999985,-0.027898106833338522
0.11829999999999985,-0.02796884239833177
0.11729999999999985,-0.02802543085032638
0.11629999999999985,-0.02811031352831828
0.11529999999999985,-0.02815275486731423
0.11429999999999985,-0.02819519620631018
0.11329999999999985,-0.028265931771303435
0.11229999999999984,-0.028322520223298033
0.11129999999999984,-0.028407402901289937
0.11029999999999984,-0.028463991353284535
0.10929999999999984,-0.02849228557928184
0.10829999999999984,-0.028577168257273744
0.10729999999999984,-0.028633756709268345
0.10629999999999984,-0.028732786500258897
0.10529999999999984,-0.028775227839254847
0.10429999999999984,-0.028817669178250797
0.10329999999999984,-0.02888840474324405
0.10229999999999984,-0.0289591403082373
0.10129999999999983,-0.02902987587323055
0.10029999999999983,-0.029100611438223806
0.09929999999999983,-0.02912890566422111
0.09829999999999983,-0.029199641229214358
0.09729999999999983,-0.029284523907206258
0.09629999999999983,-0.029341112359200863
0.09529999999999983,-0.029425995037192763
0.09429999999999983,-0.02946843637618871
0.09329999999999983,-0.02953917194118197
0.09229999999999983,-0.029624054619173872
0.09129999999999983,-0.02969479018416712
0.09029999999999982,-0.02973723152316307
0.08929999999999982,-0.029807967088156324
0.08829999999999982,-0.02986455554015093
0.08729999999999982,-0.029935291105144177
0.08629999999999982,-0.029991879557138775
0.08529999999999982,-0.030048468009133376
0.08429999999999982,-0.03011920357412663
0.08329999999999982,-0.030204086252118532
0.08229999999999982,-0.030260674704113137
0.08129999999999982,-0.030345557382105034
0.08029999999999982,-0.030373851608102336
0.07929999999999982,-0.030458734286094236
0.07829999999999981,-0.03051532273808884
0.07729999999999981,-0.03058605830308209
0.07629999999999981,-0.030670940981073994
0.07529999999999992,-0.030713382320069947
0.07429999999999992,-0.030769970772064545
0.07329999999999992,-0.03085485345005645
0.07229999999999992,-0.030897294789052406
0.07129999999999992,-0.030982177467044306
0.07029999999999992,-0.031024618806040256
0.06929999999999992,-0.031095354371033508
0.06829999999999992,-0.031194384162024056
0.06729999999999992,-0.03123682550102001
0.06629999999999991,-0.03132170817901191
0.06529999999999991,-0.03139244374400516
0.06429999999999991,-0.031434885083001116
0.06329999999999991,-0.03151976776099302
0.06229999999999991,-0.03157635621298762
0.06129999999999991,-0.03164709177798087
0.06029999999999991,-0.03170368022997547
0.05929999999999991,-0.031731974455972776
0.05829999999999991,-0.03184515135996198
0.05729999999999991,-0.03190173981195658
0.056299999999999906,-0.03195832826395118
0.055299999999999905,-0.03202906382894443
0.054299999999999904,-0.032071505167940384
0.0532999999999999,-0.032156387845932284
0.0522999999999999,-0.03222712341092554
0.0512999999999999,-0.03228371186292014
0.0502999999999999,-0.03235444742791339
0.0492999999999999,-0.03241103587990799
0.0482999999999999,-0.032453477218903945
0.0472999999999999,-0.032552507009894496
0.0462999999999999,-0.0326090954618891
0.045299999999999896,-0.0326656839138837
0.044299999999999895,-0.032722272365878304
0.043299999999999894,-0.0327788608178729
0.04229999999999989,-0.0328637434958648
0.04129999999999989,-0.0329203319478594
0.04029999999999989,-0.033005214625851306
0.03929999999999989,-0.03303350885184861
0.03829999999999989,-0.033104244416841865
0.03729999999999989,-0.033174979981835113
0.03629999999999989,-0.03321742132083106
0.03529999999999989,-0.033274009772825665
0.034299999999999886,-0.03331645111182161
0.033299999999999885,-0.03341548090281216
0.032299999999999884,-0.03344377512880947
0.031299999999999883,-0.033542804919800016
0.030299999999999883,-0.03357109914579732
0.02929999999999988,-0.03361354048479327
0.02829999999999988,-0.033712570275783824
0.02729999999999988,-0.03378330584077707
0.02629999999999988,-0.03383989429277168
0.025299999999999878,-0.03388233563176763
0.024299999999999877,-0.03393892408376223
0.023299999999999876,-0.034009659648755484
0.022299999999999875,-0.03406624810075008
0.021299999999999875,-0.03412283655274468
0.020299999999999874,-0.034193572117737936
0.019299999999999873,-0.03422186634373524
0.018299999999999872,-0.034278454795729836
0.01729999999999987,-0.034349190360723085
0.01629999999999987,-0.03440577881271769
0.01529999999999987,-0.034476514377710946
0.014299999999999868,-0.03451895571670689
0.013299999999999867,-0.0345755441687015
0.012299999999999978,-0.0346321326206961
0.011299999999999866,-0.0346887210726907
0.010299999999999976,-0.034745309524685304
0.009299999999999864,-0.03478775086368125
0.008299999999999974,-0.03484433931567585
0.007299999999999862,-0.034915074880669104
0.006299999999999972,-0.03495751621966506
0.00529999999999986,-0.034999957558661005
0.0042999999999999705,-0.03507069312365426
0.0032999999999998586,-0.03509898734965156
0.0022999999999999687,-0.03518387002764346
0.0012999999999998568,-0.03522631136663941
0.00029999999999996696,-0.03526875270563536
-0.000700000000000145,-0.03535363538362727
-0.0017000000000000348,-0.035381929609624566
-0.0027000000000001467,-0.03545266517461782
-0.0037000000000000366,-0.035509253626612426
-0.0047000000000001485,-0.03553754785260972
-0.005700000000000038,-0.035594136304604326
-0.00670000000000015,-0.035664871869597575
-0.00770000000000004,-0.03572146032159217
-0.008700000000000152,-0.035820490112582724
-0.009700000000000042,-0.03583463722558138
-0.010700000000000154,-0.03590537279057463
-0.011700000000000044,-0.03599025546856653
-0.012700000000000156,-0.036018549694563834
-0.013700000000000045,-0.03608928525955708
-0.014700000000000157,-0.036131726598553036
-0.015700000000000047,-0.036160020824550346
-0.01670000000000016,-0.03624490350254224
-0.01770000000000005,-0.036301491954536844
-0.01870000000000016,-0.03637222751953009
-0.01970000000000005,-0.03641466885852604
-0.020700000000000163,-0.03644296308452335
-0.021700000000000053,-0.0365136986495166
-0.022700000000000164,-0.036570287101511195
-0.023700000000000054,-0.03664102266650445
-0.024700000000000166,-0.0366834640055004
-0.025700000000000056,-0.03672590534449635
-0.026700000000000168,-0.03681078802248825
-0.027700000000000058,-0.036867376474482856
-0.02870000000000017,-0.03689567070048015
-0.02970000000000006,-0.03695225915247476
-0.03070000000000017,-0.03702299471746801
-0.03170000000000006,-0.03706543605646396
-0.03270000000000017,-0.03712202450845856
-0.03370000000000006,-0.03717861296045316
-0.034700000000000175,-0.037206907186450464
-0.035700000000000065,-0.037291789864442364
-0.03670000000000018,-0.03736252542943562
-0.03770000000000007,-0.037419113881430224
-0.03870000000000018,-0.03747570233342482
-0.03970000000000007,-0.037503996559422124
-0.04070000000000018,-0.03754643789841807
-0.04170000000000007,-0.03761717346341132
-0.04270000000000018,-0.037673761915405925
-0.04370000000000007,-0.03774449748039918
-0.044700000000000184,-0.03774449748039918
-0.045700000000000074,-0.037843527271389725
-0.046700000000000186,-0.03790011572338433
-0.047700000000000076,-0.037956704175378934
-0.04870000000000019,-0.03802743974037219
-0.04970000000000008,-0.03806988107936814
-0.05070000000000019,-0.03808402819236679
-0.05170000000000008,-0.038154763757360044
-0.05270000000000019,-0.03821135220935464
-0.05370000000000008,-0.03829623488734655
-0.05470000000000019,-0.03833867622634249
-0.05570000000000008,-0.03835282333934115
-0.056700000000000195,-0.0384518531303317
-0.057700000000000085,-0.038494294469327645
-0.058700000000000196,-0.0385367358083236
-0.059700000000000086,-0.0385933242603182
-0.0607000000000002,-0.038621618486315505
-0.06170000000000009,-0.03873479539030471
-0.0627000000000002,-0.03879138384229931
-0.06370000000000009,-0.0388196780682966
-0.0647000000000002,-0.03890456074628851
-0.06570000000000009,-0.03890456074628851
