Potential V vs RHE, Current mA cm-2
0.013299999999999867,-0.48199213986401795
0.012299999999999978,-1.6594563547416883
0.011299999999999866,-2.532333226758415
0.010299999999999976,-3.2297858975918787
0.009299999999999864,-3.7970851288377587
0.008299999999999974,-4.23281620919619
0.007299999999999862,-4.626105950558669
0.006299999999999972,-4.974124930325469
0.00529999999999986,-5.235846520800501
0.0042999999999999705,-5.453712060979717
0.0032999999999998586,-5.715433651454749
0.0022999999999999687,-5.890857852638012
0.0012999999999998568,-6.064867342521412
0.00029999999999996696,-6.238876832404812
-0.000700000000000145,-6.37044498329226
-0.0017000000000000348,-6.500598422879844
-0.0027000000000001467,-6.632166573767292
-0.0037000000000000366,-6.762320013354876
-0.0047000000000001485,-6.850032113946507
-0.005700000000000038,-6.93774421453814
-0.00670000000000015,-7.024041603829907
-0.00770000000000004,-7.067897654125724
-0.008700000000000152,-7.111753704421539
-0.009700000000000042,-7.155609754717355
-0.010700000000000154,-7.199465805013171
-0.011700000000000044,-7.243321855308987
-0.012700000000000156,-7.28576319430494
-0.013700000000000045,-7.329619244600755
-0.014700000000000157,-7.37347529489657
-0.015700000000000047,-7.4173313451923875
-0.01670000000000016,-7.461187395488204
-0.01770000000000005,-7.50504344578402
-0.01870000000000016,-7.5474847847799715
-0.01970000000000005,-7.591340835075788
-0.020700000000000163,-7.591340835075788
-0.021700000000000053,-7.635196885371603
-0.022700000000000164,-7.591340835075788
-0.023700000000000054,-7.591340835075788
-0.024700000000000166,-7.635196885371603
-0.025700000000000056,-7.635196885371603
-0.026700000000000168,-7.635196885371603
-0.027700000000000058,-7.679052935667419
-0.02870000000000017,-7.679052935667419
-0.02970000000000006,-7.679052935667419
-0.03070000000000017,-7.7653503249591855
-0.03170000000000006,-7.7653503249591855
-0.03270000000000017,-7.809206375255003
-0.03370000000000006,-7.809206375255003
-0.034700000000000175,-7.853062425550818
-0.035700000000000065,-7.853062425550818
-0.03670000000000018,-7.853062425550818
-0.03770000000000007,-7.853062425550818
-0.03870000000000018,-7.896918475846635
-0.03970000000000007,-7.853062425550818
-0.04070000000000018,-7.853062425550818
-0.04170000000000007,-7.853062425550818
-0.04270000000000018,-7.853062425550818
-0.04370000000000007,-7.896918475846635
-0.044700000000000184,-7.896918475846635
-0.045700000000000074,-7.940774526142452
-0.046700000000000186,-7.984630576438266
-0.047700000000000076,-7.984630576438266
-0.04870000000000019,-8.027071915434218
-0.04970000000000008,-8.027071915434218
-0.05070000000000019,-8.070927965730034
-0.05170000000000008,-8.070927965730034
-0.05270000000000019,-8.027071915434218
-0.05370000000000008,-8.027071915434218
-0.05470000000000019,-8.027071915434218
-0.05570000000000008,-7.984630576438266
-0.056700000000000195,-8.027071915434218
-0.057700000000000085,-8.027071915434218
-0.058700000000000196,-8.027071915434218
-0.059700000000000086,-8.070927965730034
-0.0607000000000002,-8.070927965730034
-0.06170000000000009,-8.11478401602585
-0.0627000000000002,-8.158640066321666
-0.06370000000000009,-8.202496116617484
-0.0647000000000002,-8.202496116617484
-0.06570000000000009,-8.202496116617484
-0.0667000000000002,-8.202496116617484
-0.0677000000000001,-8.202496116617484
-0.0687000000000002,-8.202496116617484
-0.0697000000000001,-8.202496116617484
-0.07070000000000021,-8.202496116617484
-0.0717000000000001,-8.202496116617484
-0.07270000000000021,-8.202496116617484
-0.0737000000000001,-8.202496116617484
-0.07470000000000021,-8.246352166913299
-0.0757000000000001,-8.246352166913299
-0.07670000000000021,-8.288793505909249
-0.0777000000000001,-8.288793505909249
-0.07870000000000021,-8.332649556205066
-0.0797000000000001,-8.288793505909249
-0.08070000000000022,-8.332649556205066
-0.0817000000000001,-8.332649556205066
-0.08270000000000022,-8.288793505909249
-0.08370000000000011,-8.332649556205066
-0.08470000000000022,-8.288793505909249
-0.08570000000000011,-8.288793505909249
-0.08670000000000022,-8.332649556205066
-0.08770000000000011,-8.332649556205066
-0.08870000000000022,-8.332649556205066
-0.08970000000000011,-8.376505606500881
-0.09070000000000022,-8.376505606500881
-0.09170000000000011,-8.4203616567967
-0.09270000000000023,-8.4203616567967
-0.09370000000000012,-8.4203616567967
-0.09470000000000023,-8.464217707092514
-0.09570000000000012,-8.508073757388331
-0.09670000000000023,-8.464217707092514
-0.09770000000000012,-8.464217707092514
-0.09870000000000023,-8.464217707092514
-0.09970000000000012,-8.464217707092514
-0.10070000000000023,-8.464217707092514
-0.10170000000000012,-8.464217707092514
-0.10270000000000024,-8.464217707092514
-0.10370000000000013,-8.464217707092514
-0.10470000000000024,-8.508073757388331
-0.10570000000000013,-8.508073757388331
-0.10670000000000024,-8.55051509638428
-0.10770000000000013,-8.594371146680096
-0.10870000000000024,-8.594371146680096
-0.10970000000000013,-8.594371146680096
-0.11070000000000024,-8.594371146680096
-0.11170000000000013,-8.594371146680096
-0.11270000000000002,-8.594371146680096
-0.11370000000000013,-8.594371146680096
-0.11470000000000002,-8.594371146680096
-0.11570000000000014,-8.594371146680096
-0.11670000000000003,-8.594371146680096
-0.11770000000000014,-8.594371146680096
-0.11870000000000003,-8.638227196975913
-0.11970000000000014,-8.68208324727173
-0.12070000000000003,-8.68208324727173
-0.12170000000000014,-8.725939297567548
-0.12270000000000003,-8.725939297567548
-0.12370000000000014,-8.769795347863363
-0.12470000000000003,-8.725939297567548
-0.12570000000000014,-8.769795347863363
-0.12670000000000003,-8.769795347863363
-0.12770000000000015,-8.769795347863363
-0.12870000000000004,-8.725939297567548
-0.12970000000000015,-8.769795347863363
-0.13070000000000004,-8.725939297567548
-0.13170000000000015,-8.769795347863363
-0.13270000000000004,-8.769795347863363
-0.13370000000000015,-8.769795347863363
-0.13470000000000004,-8.812236686859313
-0.13570000000000015,-8.812236686859313
-0.13670000000000004,-8.85609273715513
-0.13770000000000016,-8.85609273715513
-0.13870000000000005,-8.899948787450944
-0.13970000000000016,-8.943804837746763
-0.14070000000000005,-8.943804837746763
-0.14170000000000016,-8.943804837746763
-0.14270000000000005,-8.943804837746763
-0.14370000000000016,-8.943804837746763
-0.14470000000000005,-8.943804837746763
-0.14570000000000016,-8.943804837746763
-0.14670000000000005,-8.943804837746763
-0.14770000000000016,-8.943804837746763
-0.14870000000000005,-8.943804837746763
-0.14970000000000017,-8.987660888042578
-0.15070000000000006,-8.987660888042578
-0.15170000000000017,-9.031516938338395
-0.15270000000000006,-9.073958277334345
-0.15370000000000017,-9.073958277334345
-0.15470000000000006,-9.073958277334345
-0.15570000000000017,-9.11781432763016
-0.15670000000000006,-9.073958277334345
-0.15770000000000017,-9.073958277334345
-0.15870000000000006,-9.11781432763016
-0.15970000000000018,-9.11781432763016
-0.16070000000000007,-9.073958277334345
-0.16170000000000018,-9.11781432763016
-0.16270000000000007,-9.11781432763016
-0.16370000000000018,-9.161670377925978
-0.16470000000000007,-9.205526428221793
-0.16570000000000018,-9.205526428221793
-0.16670000000000007,-9.24938247851761
-0.16770000000000018,-9.24938247851761
-0.16870000000000007,-9.293238528813426
-0.16970000000000018,-9.293238528813426
-0.17070000000000007,-9.335679867809377
-0.17170000000000019,-9.293238528813426
-0.17270000000000008,-9.293238528813426
-0.1737000000000002,-9.293238528813426
-0.17470000000000008,-9.293238528813426
-0.1757000000000002,-9.293238528813426
-0.17670000000000008,-9.293238528813426
-0.1777000000000002,-9.335679867809377
-0.17870000000000008,-9.335679867809377
-0.1797000000000002,-9.379535918105192
-0.18070000000000008,-9.379535918105192
-0.1817000000000002,-9.467248018696827
-0.18270000000000008,-9.467248018696827
-0.1837000000000002,-9.467248018696827
-0.1847000000000001,-9.511104068992642
-0.1857000000000002,-9.55496011928846
-0.1867000000000001,-9.511104068992642
-0.1877000000000002,-9.511104068992642
-0.1887000000000001,-9.511104068992642
-0.1897000000000002,-9.55496011928846
-0.1907000000000001,-9.511104068992642
-0.1917000000000001,-9.55496011928846
-0.19269999999999998,-9.55496011928846
-0.1937000000000001,-9.59740145828441
-0.19469999999999998,-9.59740145828441
-0.1957000000000001,-9.641257508580225
-0.19669999999999999,-9.685113558876042
-0.1977000000000001,-9.685113558876042
-0.1987,-9.728969609171857
-0.1997000000000001,-9.728969609171857
-0.2007,-9.772825659467674
-0.2017000000000001,-9.728969609171857
-0.2027,-9.772825659467674
-0.2037000000000001,-9.772825659467674
-0.2047,-9.772825659467674
-0.2057000000000001,-9.772825659467674
-0.2067,-9.81668170976349
-0.2077000000000001,-9.81668170976349
-0.2087,-9.81668170976349
-0.2097000000000001,-9.85912304875944
-0.2107,-9.902979099055257
-0.2117000000000001,-9.946835149351072
-0.2127,-9.99069119964689
-0.2137000000000001,-9.99069119964689
-0.2147,-10.034547249942705
-0.2157000000000001,-10.120844639234473
-0.2167,-10.078403300238522
-0.21770000000000012,-10.078403300238522
-0.2187,-10.078403300238522
-0.21970000000000012,-10.078403300238522
-0.2207,-10.078403300238522
-0.22170000000000012,-10.078403300238522
-0.2227,-10.120844639234473
-0.22370000000000012,-10.120844639234473
-0.2247,-10.164700689530287
-0.22570000000000012,-10.164700689530287
-0.2267,-10.208556739826104
-0.22770000000000012,-10.25241279012192
-0.22870000000000001,-10.296268840417738
-0.22970000000000013,-10.296268840417738
-0.23070000000000002,-10.340124890713554
-0.23170000000000013,-10.340124890713554
-0.23270000000000002,-10.340124890713554
-0.23370000000000013,-10.382566229709504
-0.23470000000000002,-10.382566229709504
-0.23570000000000013,-10.382566229709504
-0.23670000000000002,-10.42642228000532
-0.2376999999999999,-10.470278330301136
-0.23870000000000002,-10.470278330301136
-0.2396999999999999,-10.514134380596953
-0.24070000000000003,-10.514134380596953
-0.24169999999999991,-10.557990430892769
-0.24270000000000003,-10.601846481188586
-0.24369999999999992,-10.644287820184536
-0.24470000000000003,-10.644287820184536
-0.24569999999999992,-10.688143870480351
-0.24670000000000003,-10.688143870480351
-0.24769999999999992,-10.688143870480351
-0.24870000000000003,-10.731999920776168
-0.24969999999999992,-10.775855971071984
-0.25070000000000003,-10.731999920776168
-0.2516999999999999,-10.819712021367803
-0.25270000000000004,-10.819712021367803
-0.2536999999999999,-10.863568071663616
-0.25470000000000004,-10.906009410659568
-0.2556999999999999,-10.949865460955383
-0.25670000000000004,-10.993721511251199
-0.25769999999999993,-11.037577561547016
-0.25870000000000004,-11.037577561547016
-0.25969999999999993,-11.081433611842833
-0.26070000000000004,-11.1677310011346
-0.26169999999999993,-11.1677310011346
-0.26270000000000004,-11.211587051430415
-0.26369999999999993,-11.211587051430415
-0.26470000000000005,-11.255443101726232
-0.26569999999999994,-11.299299152022046
-0.26670000000000005,-11.343155202317865
-0.26769999999999994,-11.385596541313816
-0.26870000000000005,-11.42945259160963
-0.26969999999999994,-11.473308641905447
-0.27070000000000005,-11.517164692201263
-0.27169999999999994,-11.604876792792895
-0.27270000000000005,-11.647318131788847
-0.27369999999999994,-11.691174182084664
-0.27470000000000006,-11.73503023238048
-0.27569999999999995,-11.82274233297211
-0.27670000000000006,-11.82274233297211
-0.27769999999999995,-11.86659838326793
-0.27870000000000006,-11.909039722263879
-0.27969999999999995,-11.952895772559694
-0.28070000000000006,-11.996751822855511
-0.28169999999999995,-12.084463923447142
-0.28270000000000006,-12.12831997374296
-0.28369999999999995,-12.214617363034726
-0.28470000000000006,-12.302329463626359
-0.28569999999999995,-12.346185513922174
-0.28670000000000007,-12.476338953509758
-0.28769999999999996,-12.56405105410139
-0.28870000000000007,-12.651763154693022
-0.28969999999999996,-12.694204493688973
-0.29070000000000007,-12.825772644576423
-0.29169999999999996,-12.869628694872238
-0.29270000000000007,-12.955926084164007
-0.29369999999999996,-13.043638184755638
-0.2947000000000001,-13.087494235051453
-0.29569999999999996,-13.175206335643086
-0.2967000000000001,-13.261503724934855
-0.29769999999999996,-13.3930718758223
-0.2987000000000001,-13.47936926511407
-0.29969999999999997,-13.610937416001518
-0.3007000000000001,-13.741090855589102
-0.30169999999999997,-13.828802956180734
-0.3027000000000001,-14.002812446064135
-0.30369999999999997,-14.090524546655764
-0.3047000000000001,-14.26028990263957
-0.30569999999999997,-14.401761032626075
-0.3067000000000001,-14.529085049613924
-0.3077,-14.65640906660178
-0.3087000000000001,-14.783733083589633
-0.3097,-14.967645552572087
-0.3107000000000001,-15.094969569559943
-0.3117,-15.264734925543747
-0.3127000000000001,-15.3920589425316
-0.3137,-15.618412750510005
-0.3147000000000001,-15.78817810649381
-0.3157,-16.014531914472215
-0.3167000000000001,-16.22673860945197
-0.3177,-16.438945304431726
-0.3187000000000001,-16.70774045140608
-0.3197,-16.919947146385837
-0.3207000000000001,-17.146300954364243
-0.3217,-17.358507649344002
-0.3227000000000001,-17.584861457322408
-0.3237,-17.881950830294063
-0.3247000000000001,-18.10830463827247
-0.3257,-18.362952672248177
-0.3267000000000001,-18.674189158218486
-0.3277,-18.97127853119014
-0.3287000000000001,-19.28251501716045
-0.3297,-19.636192842126707
-0.3307000000000001,-19.97572355409432
-0.3317,-20.371842718056527
-0.3327000000000001,-20.72552054302279
-0.3337,-21.107492593986347
-0.3347000000000001,-21.54605309694451
-0.3357,-21.98461359990267
-0.3367000000000001,-22.42317410286083
-0.3377,-22.861734605818995
-0.3387000000000001,-23.342736447773106
-0.3397,-23.86617962872317
-0.3407000000000001,-24.34718147067728
-0.3417,-24.9130659906233
-0.3427000000000001,-25.478950510569312
-0.3437,-26.087276369511276
-0.3447000000000001,-26.738043567449193
-0.3457,-27.38881076538711
-0.3467000000000001,-28.13860775431558
-0.3477,-28.8742576302454
-0.3487000000000001,-29.66649595816982
-0.3497,-30.444587173095588
-0.3507000000000001,-31.321708179011907
-0.3517,-32.24127052392419
-0.3527000000000001,-33.14668575583781
-0.3537,-34.15113077874198
-0.3547000000000001,-35.198017140642115
-0.3557,-36.28734484153819
-0.35670000000000013,-37.41911388143023
-0.3577,-38.692354051308754
-0.35870000000000013,-39.95144710818864
-0.3597,-41.267128617063115
-0.36070000000000013,-42.71013414292546
-0.3617,-44.181433894785094
-0.3626999999999999,-45.70932209863933
-0.3637,-47.27965164148953
-0.3646999999999999,-48.93486386233162
-0.3657,-50.64666453516831
-0.3666999999999999,-52.34431809500636
-0.3677,-54.08441299384035
-0.3686999999999999,-55.838655005673
-0.36970000000000003,-57.66363258249889
-0.3706999999999999,-59.44616882032884
-0.37170000000000003,-61.28529351015339
-0.3726999999999999,-63.06782974798333
-0.37370000000000003,-64.90695443780788
-0.3746999999999999,-66.68949067563783
-0.37570000000000003,-68.44373268747047
-0.3766999999999999,-70.14138624730852
-0.37770000000000004,-71.7965984681506
-0.3786999999999999,-73.45181068899271
-0.37970000000000004,-75.14946424883075
-0.3806999999999999,-76.7622351306769
-0.38170000000000004,-78.33256467352709
-0.38269999999999993,-79.90289421637728
-0.38370000000000004,-81.47322375922747
-0.38469999999999993,-82.95867062408576
-0.38570000000000004,-84.40167614994809
-0.38669999999999993,-84.84023665290624
-0.38570000000000004,-83.92067430799398
-0.38469999999999993,-83.26990711005605
-0.38370000000000004,-82.70402259011003
-0.38269999999999993,-82.18057940915998
-0.38170000000000004,-81.65713622820991
-0.3806999999999999,-81.13369304725985
-0.37970000000000004,-80.56780852731384
-0.3786999999999999,-80.00192400736783
-0.37770000000000004,-79.42189237442317
-0.3766999999999999,-78.8135665154812
-0.37570000000000003,-78.20524065653922
-0.3746999999999999,-77.51203211960537
-0.37370000000000003,-76.86126492166746
-0.3726999999999999,-76.15390927173492
-0.37170000000000003,-75.46070073480107
-0.3706999999999999,-74.80993353686314
-0.36970000000000003,-74.0176952089387
-0.3686999999999999,-73.2820453330089
-0.3677,-72.53224834408043
-0.3666999999999999,-71.75415712915466
-0.3657,-71.06094859222078
-0.3646999999999999,-70.35359294228827
-0.3637,-69.61794306635846
-0.3626999999999999,-68.91058741642594
-0.3617,-68.17493754049613
-0.36070000000000013,-67.39684632557035
-0.3597,-66.64704933664189
-0.35870000000000013,-65.91139946071206
-0.3577,-65.11916113278764
-0.35670000000000013,-64.38351125685783
-0.3557,-63.633714267929356
-0.3547000000000001,-62.89806439199953
-0.3537,-62.11997317707376
-0.3527000000000001,-61.327734849149344
-0.3517,-60.59208497321952
-0.3507000000000001,-59.842287984291055
-0.3497,-59.10663810836124
-0.3487000000000001,-58.35684111943277
-0.3477,-57.66363258249889
-0.3467000000000001,-56.927982706569075
-0.3457,-56.13574437864466
-0.3447000000000001,-55.400094502714836
-0.3437,-54.60785617479041
-0.3427000000000001,-53.82976495986464
-0.3417,-53.079967970936174
-0.3407000000000001,-52.34431809500636
-0.3397,-51.594521106077885
-0.3387000000000001,-50.90131256914402
-0.3377,-50.1656626932142
-0.3367000000000001,-49.41586570428573
-0.3357,-48.68021582835591
-0.3347000000000001,-47.987007291422046
-0.3337,-47.27965164148953
-0.3327000000000001,-46.586443104555656
-0.3317,-45.85079322862584
-0.3307000000000001,-45.143437578693316
-0.3297,-44.4077877027635
-0.3287000000000001,-43.70043205283099
-0.3277,-42.96478217690117
-0.3267000000000001,-42.2715736399673
-0.3257,-41.56421799003478
-0.3247000000000001,-40.87100945310091
-0.3237,-40.177800916167044
-0.3227000000000001,-39.47044526623452
-0.3217,-38.81967806829661
-0.3207000000000001,-38.16891087035869
-0.3197,-37.51814367242077
-0.3187000000000001,-36.81078802248826
-0.3177,-36.20246216354629
-0.3167000000000001,-35.55169496560837
-0.3157,-34.85848642867451
-0.3147000000000001,-34.193572117737936
-0.3137,-33.54280491980002
-0.3127000000000001,-32.892037721862096
-0.3117,-32.24127052392419
-0.3107000000000001,-31.57635621298762
-0.3097,-30.968030354045652
-0.3087000000000001,-30.359704495103685
-0.3077,-29.793819975157668
-0.3067000000000001,-29.22793545521166
-0.30569999999999997,-28.662050935265643
-0.3047000000000001,-28.05372507632368
-0.30369999999999997,-27.487840556377662
-0.3027000000000001,-26.907808923433
-0.30169999999999997,-26.29948306449103
-0.3007000000000001,-25.73359854454502
-0.29969999999999997,-25.12527268560305
-0.2987000000000001,-24.559388165657033
-0.29769999999999996,-23.951062306715073
-0.2967000000000001,-23.427619125765005
-0.29569999999999996,-22.861734605818995
-0.2947000000000001,-22.33829142486893
-0.29369999999999996,-21.814848243918867
-0.29270000000000007,-21.291405062968803
-0.29169999999999996,-20.76796188201874
-0.29070000000000007,-20.286960040064624
-0.28969999999999996,-19.805958198110513
-0.28870000000000007,-19.28251501716045
-0.28769999999999996,-18.80151317520634
-0.28670000000000007,-18.320511333252224
-0.28569999999999995,-17.797068152302163
-0.28470000000000006,-17.316066310348052
-0.28369999999999995,-16.835064468393938
-0.28270000000000006,-16.354062626439823
-0.28169999999999995,-15.87306078448571
-0.28070000000000006,-15.448647394526201
-0.27969999999999995,-14.967645552572087
-0.27870000000000006,-14.529085049613924
-0.27769999999999995,-14.13438059695158
-0.27670000000000006,-13.698649516593148
-0.27569999999999995,-13.30535977523067
-0.27470000000000006,-12.913484745168056
-0.27369999999999994,-12.476338953509758
-0.27270000000000005,-12.084463923447142
-0.27169999999999994,-11.691174182084664
-0.27070000000000005,-11.255443101726232
-0.26969999999999994,-10.863568071663616
-0.26870000000000005,-10.470278330301136
-0.26769999999999994,-10.078403300238522
-0.26670000000000005,-9.685113558876042
-0.26569999999999994,-9.293238528813426
-0.26470000000000005,-8.943804837746763
