July 16, 2024   05:47:45
Linear Sweep Voltammetry
File: c:/users/guazh/data/20240709_batch67/2024-07-10-exp58\post-regen1-2024-07-16t05_44_32-lsvinphos\post-regen1_lsv_50mvs_efin_-2300mv.bin
Data Source:  Experiment
Instrument Model:  CHI760E
Header: LSV ran at 50 mVs with Efin at -2300mV
Note: 

Init E (V) = -0.6
Final E (V) = -2.3
Scan Rate (V/s) = 0.05
Sample Interval (V) = 0.001
Quiet Time (sec) = 2
Sensitivity (A/V) = 1e-4
Comp R (ohm) = 10.1

Results:

Channel 1:
Ep = -2.075V
ip = 7.399e-4A
Ah = 1.002e-3C

Potential/V, Current/A

-0.600, 1.366e-6
-0.601, 1.421e-6
-0.602, 1.450e-6
-0.603, 1.474e-6
-0.604, 1.492e-6
-0.605, 1.509e-6
-0.606, 1.527e-6
-0.607, 1.545e-6
-0.608, 1.564e-6
-0.609, 1.581e-6
-0.610, 1.596e-6
-0.611, 1.612e-6
-0.612, 1.630e-6
-0.613, 1.648e-6
-0.614, 1.664e-6
-0.615, 1.681e-6
-0.616, 1.695e-6
-0.617, 1.712e-6
-0.618, 1.731e-6
-0.619, 1.747e-6
-0.620, 1.761e-6
-0.621, 1.778e-6
-0.622, 1.797e-6
-0.623, 1.815e-6
-0.624, 1.830e-6
-0.625, 1.847e-6
-0.626, 1.863e-6
-0.627, 1.883e-6
-0.628, 1.903e-6
-0.629, 1.918e-6
-0.630, 1.935e-6
-0.631, 1.951e-6
-0.632, 1.970e-6
-0.633, 1.990e-6
-0.634, 2.006e-6
-0.635, 2.025e-6
-0.636, 2.043e-6
-0.637, 2.063e-6
-0.638, 2.084e-6
-0.639, 2.102e-6
-0.640, 2.119e-6
-0.641, 2.139e-6
-0.642, 2.158e-6
-0.643, 2.179e-6
-0.644, 2.196e-6
-0.645, 2.215e-6
-0.646, 2.233e-6
-0.647, 2.254e-6
-0.648, 2.275e-6
-0.649, 2.295e-6
-0.650, 2.314e-6
-0.651, 2.334e-6
-0.652, 2.357e-6
-0.653, 2.381e-6
-0.654, 2.401e-6
-0.655, 2.423e-6
-0.656, 2.443e-6
-0.657, 2.465e-6
-0.658, 2.488e-6
-0.659, 2.508e-6
-0.660, 2.529e-6
-0.661, 2.552e-6
-0.662, 2.577e-6
-0.663, 2.602e-6
-0.664, 2.624e-6
-0.665, 2.647e-6
-0.666, 2.672e-6
-0.667, 2.696e-6
-0.668, 2.720e-6
-0.669, 2.744e-6
-0.670, 2.767e-6
-0.671, 2.789e-6
-0.672, 2.817e-6
-0.673, 2.843e-6
-0.674, 2.867e-6
-0.675, 2.891e-6
-0.676, 2.916e-6
-0.677, 2.943e-6
-0.678, 2.971e-6
-0.679, 2.995e-6
-0.680, 3.021e-6
-0.681, 3.047e-6
-0.682, 3.075e-6
-0.683, 3.104e-6
-0.684, 3.129e-6
-0.685, 3.156e-6
-0.686, 3.184e-6
-0.687, 3.212e-6
-0.688, 3.241e-6
-0.689, 3.267e-6
-0.690, 3.294e-6
-0.691, 3.322e-6
-0.692, 3.355e-6
-0.693, 3.384e-6
-0.694, 3.414e-6
-0.695, 3.442e-6
-0.696, 3.471e-6
-0.697, 3.501e-6
-0.698, 3.532e-6
-0.699, 3.560e-6
-0.700, 3.589e-6
-0.701, 3.621e-6
-0.702, 3.653e-6
-0.703, 3.686e-6
-0.704, 3.716e-6
-0.705, 3.746e-6
-0.706, 3.776e-6
-0.707, 3.809e-6
-0.708, 3.843e-6
-0.709, 3.875e-6
-0.710, 3.907e-6
-0.711, 3.937e-6
-0.712, 3.971e-6
-0.713, 4.006e-6
-0.714, 4.036e-6
-0.715, 4.069e-6
-0.716, 4.100e-6
-0.717, 4.136e-6
-0.718, 4.170e-6
-0.719, 4.201e-6
-0.720, 4.232e-6
-0.721, 4.265e-6
-0.722, 4.300e-6
-0.723, 4.336e-6
-0.724, 4.369e-6
-0.725, 4.402e-6
-0.726, 4.438e-6
-0.727, 4.474e-6
-0.728, 4.509e-6
-0.729, 4.544e-6
-0.730, 4.579e-6
-0.731, 4.613e-6
-0.732, 4.650e-6
-0.733, 4.687e-6
-0.734, 4.722e-6
-0.735, 4.755e-6
-0.736, 4.791e-6
-0.737, 4.829e-6
-0.738, 4.864e-6
-0.739, 4.900e-6
-0.740, 4.935e-6
-0.741, 4.968e-6
-0.742, 5.008e-6
-0.743, 5.046e-6
-0.744, 5.082e-6
-0.745, 5.118e-6
-0.746, 5.152e-6
-0.747, 5.190e-6
-0.748, 5.227e-6
-0.749, 5.263e-6
-0.750, 5.298e-6
-0.751, 5.332e-6
-0.752, 5.372e-6
-0.753, 5.407e-6
-0.754, 5.441e-6
-0.755, 5.477e-6
-0.756, 5.514e-6
-0.757, 5.553e-6
-0.758, 5.590e-6
-0.759, 5.623e-6
-0.760, 5.657e-6
-0.761, 5.693e-6
-0.762, 5.731e-6
-0.763, 5.768e-6
-0.764, 5.803e-6
-0.765, 5.839e-6
-0.766, 5.873e-6
-0.767, 5.908e-6
-0.768, 5.943e-6
-0.769, 5.976e-6
-0.770, 6.011e-6
-0.771, 6.046e-6
-0.772, 6.083e-6
-0.773, 6.118e-6
-0.774, 6.152e-6
-0.775, 6.184e-6
-0.776, 6.216e-6
-0.777, 6.249e-6
-0.778, 6.284e-6
-0.779, 6.316e-6
-0.780, 6.350e-6
-0.781, 6.383e-6
-0.782, 6.418e-6
-0.783, 6.450e-6
-0.784, 6.482e-6
-0.785, 6.514e-6
-0.786, 6.547e-6
-0.787, 6.583e-6
-0.788, 6.615e-6
-0.789, 6.645e-6
-0.790, 6.675e-6
-0.791, 6.705e-6
-0.792, 6.739e-6
-0.793, 6.770e-6
-0.794, 6.800e-6
-0.795, 6.830e-6
-0.796, 6.860e-6
-0.797, 6.890e-6
-0.798, 6.920e-6
-0.799, 6.946e-6
-0.800, 6.974e-6
-0.801, 7.001e-6
-0.802, 7.033e-6
-0.803, 7.062e-6
-0.804, 7.088e-6
-0.805, 7.112e-6
-0.806, 7.141e-6
-0.807, 7.169e-6
-0.808, 7.196e-6
-0.809, 7.220e-6
-0.810, 7.245e-6
-0.811, 7.269e-6
-0.812, 7.295e-6
-0.813, 7.320e-6
-0.814, 7.341e-6
-0.815, 7.365e-6
-0.816, 7.387e-6
-0.817, 7.412e-6
-0.818, 7.435e-6
-0.819, 7.460e-6
-0.820, 7.485e-6
-0.821, 7.504e-6
-0.822, 7.528e-6
-0.823, 7.549e-6
-0.824, 7.568e-6
-0.825, 7.588e-6
-0.826, 7.608e-6
-0.827, 7.629e-6
-0.828, 7.648e-6
-0.829, 7.666e-6
-0.830, 7.685e-6
-0.831, 7.704e-6
-0.832, 7.725e-6
-0.833, 7.741e-6
-0.834, 7.756e-6
-0.835, 7.771e-6
-0.836, 7.789e-6
-0.837, 7.806e-6
-0.838, 7.822e-6
-0.839, 7.835e-6
-0.840, 7.849e-6
-0.841, 7.864e-6
-0.842, 7.880e-6
-0.843, 7.894e-6
-0.844, 7.907e-6
-0.845, 7.920e-6
-0.846, 7.933e-6
-0.847, 7.951e-6
-0.848, 7.964e-6
-0.849, 7.975e-6
-0.850, 7.981e-6
-0.851, 7.988e-6
-0.852, 7.999e-6
-0.853, 8.018e-6
-0.854, 8.022e-6
-0.855, 8.030e-6
-0.856, 8.036e-6
-0.857, 8.048e-6
-0.858, 8.055e-6
-0.859, 8.063e-6
-0.860, 8.069e-6
-0.861, 8.074e-6
-0.862, 8.085e-6
-0.863, 8.091e-6
-0.864, 8.101e-6
-0.865, 8.108e-6
-0.866, 8.113e-6
-0.867, 8.118e-6
-0.868, 8.123e-6
-0.869, 8.127e-6
-0.870, 8.133e-6
-0.871, 8.136e-6
-0.872, 8.137e-6
-0.873, 8.141e-6
-0.874, 8.142e-6
-0.875, 8.145e-6
-0.876, 8.150e-6
-0.877, 8.157e-6
-0.878, 8.165e-6
-0.879, 8.169e-6
-0.880, 8.163e-6
-0.881, 8.163e-6
-0.882, 8.171e-6
-0.883, 8.180e-6
-0.884, 8.181e-6
-0.885, 8.184e-6
-0.886, 8.184e-6
-0.887, 8.186e-6
-0.888, 8.199e-6
-0.889, 8.201e-6
-0.890, 8.194e-6
-0.891, 8.188e-6
-0.892, 8.190e-6
-0.893, 8.186e-6
-0.894, 8.182e-6
-0.895, 8.180e-6
-0.896, 8.183e-6
-0.897, 8.180e-6
-0.898, 8.177e-6
-0.899, 8.177e-6
-0.900, 8.173e-6
-0.901, 8.171e-6
-0.902, 8.171e-6
-0.903, 8.173e-6
-0.904, 8.165e-6
-0.905, 8.167e-6
-0.906, 8.162e-6
-0.907, 8.161e-6
-0.908, 8.159e-6
-0.909, 8.160e-6
-0.910, 8.153e-6
-0.911, 8.145e-6
-0.912, 8.143e-6
-0.913, 8.139e-6
-0.914, 8.134e-6
-0.915, 8.131e-6
-0.916, 8.124e-6
-0.917, 8.122e-6
-0.918, 8.120e-6
-0.919, 8.113e-6
-0.920, 8.107e-6
-0.921, 8.103e-6
-0.922, 8.103e-6
-0.923, 8.098e-6
-0.924, 8.091e-6
-0.925, 8.085e-6
-0.926, 8.081e-6
-0.927, 8.080e-6
-0.928, 8.081e-6
-0.929, 8.074e-6
-0.930, 8.069e-6
-0.931, 8.071e-6
-0.932, 8.068e-6
-0.933, 8.066e-6
-0.934, 8.056e-6
-0.935, 8.049e-6
-0.936, 8.048e-6
-0.937, 8.055e-6
-0.938, 8.052e-6
-0.939, 8.045e-6
-0.940, 8.038e-6
-0.941, 8.026e-6
-0.942, 8.024e-6
-0.943, 8.016e-6
-0.944, 8.005e-6
-0.945, 8.000e-6
-0.946, 7.998e-6
-0.947, 7.997e-6
-0.948, 7.992e-6
-0.949, 7.986e-6
-0.950, 7.983e-6
-0.951, 7.979e-6
-0.952, 7.978e-6
-0.953, 7.974e-6
-0.954, 7.970e-6
-0.955, 7.965e-6
-0.956, 7.959e-6
-0.957, 7.955e-6
-0.958, 7.952e-6
-0.959, 7.946e-6
-0.960, 7.943e-6
-0.961, 7.942e-6
-0.962, 7.936e-6
-0.963, 7.928e-6
-0.964, 7.921e-6
-0.965, 7.918e-6
-0.966, 7.915e-6
-0.967, 7.912e-6
-0.968, 7.913e-6
-0.969, 7.905e-6
-0.970, 7.902e-6
-0.971, 7.901e-6
-0.972, 7.897e-6
-0.973, 7.894e-6
-0.974, 7.891e-6
-0.975, 7.888e-6
-0.976, 7.886e-6
-0.977, 7.882e-6
-0.978, 7.876e-6
-0.979, 7.872e-6
-0.980, 7.869e-6
-0.981, 7.865e-6
-0.982, 7.864e-6
-0.983, 7.861e-6
-0.984, 7.856e-6
-0.985, 7.850e-6
-0.986, 7.850e-6
-0.987, 7.850e-6
-0.988, 7.848e-6
-0.989, 7.842e-6
-0.990, 7.836e-6
-0.991, 7.834e-6
-0.992, 7.835e-6
-0.993, 7.831e-6
-0.994, 7.825e-6
-0.995, 7.822e-6
-0.996, 7.820e-6
-0.997, 7.820e-6
-0.998, 7.817e-6
-0.999, 7.814e-6
-1.000, 7.811e-6
-1.001, 7.806e-6
-1.002, 7.806e-6
-1.003, 7.802e-6
-1.004, 7.797e-6
-1.005, 7.793e-6
-1.006, 7.792e-6
-1.007, 7.793e-6
-1.008, 7.799e-6
-1.009, 7.800e-6
-1.010, 7.796e-6
-1.011, 7.796e-6
-1.012, 7.795e-6
-1.013, 7.791e-6
-1.014, 7.788e-6
-1.015, 7.784e-6
-1.016, 7.784e-6
-1.017, 7.784e-6
-1.018, 7.781e-6
-1.019, 7.778e-6
-1.020, 7.778e-6
-1.021, 7.775e-6
-1.022, 7.775e-6
-1.023, 7.773e-6
-1.024, 7.773e-6
-1.025, 7.770e-6
-1.026, 7.770e-6
-1.027, 7.774e-6
-1.028, 7.768e-6
-1.029, 7.756e-6
-1.030, 7.753e-6
-1.031, 7.756e-6
-1.032, 7.755e-6
-1.033, 7.756e-6
-1.034, 7.754e-6
-1.035, 7.753e-6
-1.036, 7.751e-6
-1.037, 7.752e-6
-1.038, 7.750e-6
-1.039, 7.747e-6
-1.040, 7.746e-6
-1.041, 7.745e-6
-1.042, 7.745e-6
-1.043, 7.743e-6
-1.044, 7.741e-6
-1.045, 7.737e-6
-1.046, 7.746e-6
-1.047, 7.762e-6
-1.048, 7.761e-6
-1.049, 7.758e-6
-1.050, 7.755e-6
-1.051, 7.747e-6
-1.052, 7.746e-6
-1.053, 7.758e-6
-1.054, 7.759e-6
-1.055, 7.757e-6
-1.056, 7.753e-6
-1.057, 7.746e-6
-1.058, 7.746e-6
-1.059, 7.746e-6
-1.060, 7.747e-6
-1.061, 7.744e-6
-1.062, 7.748e-6
-1.063, 7.747e-6
-1.064, 7.747e-6
-1.065, 7.745e-6
-1.066, 7.745e-6
-1.067, 7.749e-6
-1.068, 7.749e-6
-1.069, 7.747e-6
-1.070, 7.749e-6
-1.071, 7.748e-6
-1.072, 7.750e-6
-1.073, 7.752e-6
-1.074, 7.750e-6
-1.075, 7.752e-6
-1.076, 7.755e-6
-1.077, 7.758e-6
-1.078, 7.757e-6
-1.079, 7.758e-6
-1.080, 7.758e-6
-1.081, 7.758e-6
-1.082, 7.763e-6
-1.083, 7.762e-6
-1.084, 7.762e-6
-1.085, 7.764e-6
-1.086, 7.773e-6
-1.087, 7.775e-6
-1.088, 7.771e-6
-1.089, 7.766e-6
-1.090, 7.766e-6
-1.091, 7.772e-6
-1.092, 7.773e-6
-1.093, 7.781e-6
-1.094, 7.781e-6
-1.095, 7.778e-6
-1.096, 7.781e-6
-1.097, 7.780e-6
-1.098, 7.780e-6
-1.099, 7.781e-6
-1.100, 7.783e-6
-1.101, 7.786e-6
-1.102, 7.787e-6
-1.103, 7.792e-6
-1.104, 7.793e-6
-1.105, 7.796e-6
-1.106, 7.800e-6
-1.107, 7.800e-6
-1.108, 7.800e-6
-1.109, 7.800e-6
-1.110, 7.800e-6
-1.111, 7.803e-6
-1.112, 7.807e-6
-1.113, 7.806e-6
-1.114, 7.807e-6
-1.115, 7.810e-6
-1.116, 7.815e-6
-1.117, 7.820e-6
-1.118, 7.818e-6
-1.119, 7.819e-6
-1.120, 7.820e-6
-1.121, 7.824e-6
-1.122, 7.829e-6
-1.123, 7.830e-6
-1.124, 7.832e-6
-1.125, 7.832e-6
-1.126, 7.838e-6
-1.127, 7.845e-6
-1.128, 7.846e-6
-1.129, 7.849e-6
-1.130, 7.848e-6
-1.131, 7.851e-6
-1.132, 7.857e-6
-1.133, 7.856e-6
-1.134, 7.858e-6
-1.135, 7.860e-6
-1.136, 7.863e-6
-1.137, 7.867e-6
-1.138, 7.869e-6
-1.139, 7.878e-6
-1.140, 7.879e-6
-1.141, 7.880e-6
-1.142, 7.883e-6
-1.143, 7.883e-6
-1.144, 7.885e-6
-1.145, 7.890e-6
-1.146, 7.891e-6
-1.147, 7.897e-6
-1.148, 7.902e-6
-1.149, 7.903e-6
-1.150, 7.904e-6
-1.151, 7.908e-6
-1.152, 7.917e-6
-1.153, 7.930e-6
-1.154, 7.936e-6
-1.155, 7.927e-6
-1.156, 7.933e-6
-1.157, 7.945e-6
-1.158, 7.946e-6
-1.159, 7.945e-6
-1.160, 7.948e-6
-1.161, 7.953e-6
-1.162, 7.958e-6
-1.163, 7.961e-6
-1.164, 7.965e-6
-1.165, 7.968e-6
-1.166, 7.972e-6
-1.167, 7.969e-6
-1.168, 7.973e-6
-1.169, 7.976e-6
-1.170, 7.979e-6
-1.171, 7.983e-6
-1.172, 7.990e-6
-1.173, 7.991e-6
-1.174, 7.992e-6
-1.175, 7.998e-6
-1.176, 8.016e-6
-1.177, 8.010e-6
-1.178, 8.012e-6
-1.179, 8.017e-6
-1.180, 8.020e-6
-1.181, 8.026e-6
-1.182, 8.031e-6
-1.183, 8.033e-6
-1.184, 8.039e-6
-1.185, 8.051e-6
-1.186, 8.057e-6
-1.187, 8.061e-6
-1.188, 8.062e-6
-1.189, 8.067e-6
-1.190, 8.070e-6
-1.191, 8.078e-6
-1.192, 8.086e-6
-1.193, 8.091e-6
-1.194, 8.093e-6
-1.195, 8.094e-6
-1.196, 8.100e-6
-1.197, 8.107e-6
-1.198, 8.111e-6
-1.199, 8.117e-6
-1.200, 8.120e-6
-1.201, 8.127e-6
-1.202, 8.133e-6
-1.203, 8.135e-6
-1.204, 8.141e-6
-1.205, 8.145e-6
-1.206, 8.152e-6
-1.207, 8.159e-6
-1.208, 8.164e-6
-1.209, 8.171e-6
-1.210, 8.173e-6
-1.211, 8.178e-6
-1.212, 8.189e-6
-1.213, 8.194e-6
-1.214, 8.199e-6
-1.215, 8.208e-6
-1.216, 8.212e-6
-1.217, 8.220e-6
-1.218, 8.224e-6
-1.219, 8.231e-6
-1.220, 8.235e-6
-1.221, 8.241e-6
-1.222, 8.253e-6
-1.223, 8.260e-6
-1.224, 8.264e-6
-1.225, 8.272e-6
-1.226, 8.283e-6
-1.227, 8.299e-6
-1.228, 8.301e-6
-1.229, 8.302e-6
-1.230, 8.306e-6
-1.231, 8.311e-6
-1.232, 8.320e-6
-1.233, 8.327e-6
-1.234, 8.332e-6
-1.235, 8.335e-6
-1.236, 8.343e-6
-1.237, 8.352e-6
-1.238, 8.358e-6
-1.239, 8.372e-6
-1.240, 8.376e-6
-1.241, 8.389e-6
-1.242, 8.399e-6
-1.243, 8.401e-6
-1.244, 8.405e-6
-1.245, 8.413e-6
-1.246, 8.426e-6
-1.247, 8.433e-6
-1.248, 8.441e-6
-1.249, 8.445e-6
-1.250, 8.454e-6
-1.251, 8.459e-6
-1.252, 8.467e-6
-1.253, 8.480e-6
-1.254, 8.489e-6
-1.255, 8.494e-6
-1.256, 8.503e-6
-1.257, 8.513e-6
-1.258, 8.518e-6
-1.259, 8.526e-6
-1.260, 8.530e-6
-1.261, 8.544e-6
-1.262, 8.553e-6
-1.263, 8.558e-6
-1.264, 8.567e-6
-1.265, 8.576e-6
-1.266, 8.586e-6
-1.267, 8.601e-6
-1.268, 8.610e-6
-1.269, 8.616e-6
-1.270, 8.622e-6
-1.271, 8.634e-6
-1.272, 8.645e-6
-1.273, 8.653e-6
-1.274, 8.662e-6
-1.275, 8.671e-6
-1.276, 8.683e-6
-1.277, 8.693e-6
-1.278, 8.704e-6
-1.279, 8.712e-6
-1.280, 8.723e-6
-1.281, 8.733e-6
-1.282, 8.745e-6
-1.283, 8.766e-6
-1.284, 8.775e-6
-1.285, 8.786e-6
-1.286, 8.802e-6
-1.287, 8.813e-6
-1.288, 8.825e-6
-1.289, 8.831e-6
-1.290, 8.843e-6
-1.291, 8.849e-6
-1.292, 8.854e-6
-1.293, 8.861e-6
-1.294, 8.868e-6
-1.295, 8.878e-6
-1.296, 8.890e-6
-1.297, 8.904e-6
-1.298, 8.918e-6
-1.299, 8.930e-6
-1.300, 8.949e-6
-1.301, 8.966e-6
-1.302, 8.970e-6
-1.303, 8.980e-6
-1.304, 9.004e-6
-1.305, 9.005e-6
-1.306, 9.014e-6
-1.307, 9.028e-6
-1.308, 9.043e-6
-1.309, 9.063e-6
-1.310, 9.078e-6
-1.311, 9.089e-6
-1.312, 9.095e-6
-1.313, 9.105e-6
-1.314, 9.116e-6
-1.315, 9.129e-6
-1.316, 9.145e-6
-1.317, 9.161e-6
-1.318, 9.177e-6
-1.319, 9.193e-6
-1.320, 9.209e-6
-1.321, 9.234e-6
-1.322, 9.251e-6
-1.323, 9.264e-6
-1.324, 9.282e-6
-1.325, 9.296e-6
-1.326, 9.305e-6
-1.327, 9.319e-6
-1.328, 9.326e-6
-1.329, 9.336e-6
-1.330, 9.351e-6
-1.331, 9.370e-6
-1.332, 9.388e-6
-1.333, 9.402e-6
-1.334, 9.417e-6
-1.335, 9.434e-6
-1.336, 9.454e-6
-1.337, 9.478e-6
-1.338, 9.486e-6
-1.339, 9.520e-6
-1.340, 9.544e-6
-1.341, 9.552e-6
-1.342, 9.556e-6
-1.343, 9.572e-6
-1.344, 9.597e-6
-1.345, 9.601e-6
-1.346, 9.616e-6
-1.347, 9.633e-6
-1.348, 9.648e-6
-1.349, 9.665e-6
-1.350, 9.682e-6
-1.351, 9.703e-6
-1.352, 9.728e-6
-1.353, 9.750e-6
-1.354, 9.766e-6
-1.355, 9.782e-6
-1.356, 9.801e-6
-1.357, 9.818e-6
-1.358, 9.835e-6
-1.359, 9.847e-6
-1.360, 9.870e-6
-1.361, 9.890e-6
-1.362, 9.911e-6
-1.363, 9.933e-6
-1.364, 9.955e-6
-1.365, 9.973e-6
-1.366, 9.992e-6
-1.367, 1.002e-5
-1.368, 1.004e-5
-1.369, 1.005e-5
-1.370, 1.006e-5
-1.371, 1.009e-5
-1.372, 1.011e-5
-1.373, 1.013e-5
-1.374, 1.015e-5
-1.375, 1.017e-5
-1.376, 1.019e-5
-1.377, 1.021e-5
-1.378, 1.023e-5
-1.379, 1.025e-5
-1.380, 1.026e-5
-1.381, 1.029e-5
-1.382, 1.032e-5
-1.383, 1.035e-5
-1.384, 1.037e-5
-1.385, 1.038e-5
-1.386, 1.040e-5
-1.387, 1.042e-5
-1.388, 1.045e-5
-1.389, 1.047e-5
-1.390, 1.049e-5
-1.391, 1.051e-5
-1.392, 1.053e-5
-1.393, 1.055e-5
-1.394, 1.058e-5
-1.395, 1.060e-5
-1.396, 1.063e-5
-1.397, 1.066e-5
-1.398, 1.069e-5
-1.399, 1.071e-5
-1.400, 1.073e-5
-1.401, 1.076e-5
-1.402, 1.077e-5
-1.403, 1.080e-5
-1.404, 1.082e-5
-1.405, 1.085e-5
-1.406, 1.088e-5
-1.407, 1.090e-5
-1.408, 1.092e-5
-1.409, 1.094e-5
-1.410, 1.097e-5
-1.411, 1.100e-5
-1.412, 1.102e-5
-1.413, 1.105e-5
-1.414, 1.107e-5
-1.415, 1.109e-5
-1.416, 1.112e-5
-1.417, 1.114e-5
-1.418, 1.116e-5
-1.419, 1.118e-5
-1.420, 1.121e-5
-1.421, 1.124e-5
-1.422, 1.127e-5
-1.423, 1.129e-5
-1.424, 1.132e-5
-1.425, 1.134e-5
-1.426, 1.137e-5
-1.427, 1.140e-5
-1.428, 1.142e-5
-1.429, 1.145e-5
-1.430, 1.148e-5
-1.431, 1.150e-5
-1.432, 1.153e-5
-1.433, 1.156e-5
-1.434, 1.158e-5
-1.435, 1.161e-5
-1.436, 1.163e-5
-1.437, 1.167e-5
-1.438, 1.170e-5
-1.439, 1.172e-5
-1.440, 1.175e-5
-1.441, 1.178e-5
-1.442, 1.181e-5
-1.443, 1.184e-5
-1.444, 1.187e-5
-1.445, 1.190e-5
-1.446, 1.193e-5
-1.447, 1.195e-5
-1.448, 1.198e-5
-1.449, 1.201e-5
-1.450, 1.204e-5
-1.451, 1.207e-5
-1.452, 1.209e-5
-1.453, 1.211e-5
-1.454, 1.213e-5
-1.455, 1.215e-5
-1.456, 1.219e-5
-1.457, 1.222e-5
-1.458, 1.225e-5
-1.459, 1.228e-5
-1.460, 1.231e-5
-1.461, 1.234e-5
-1.462, 1.238e-5
-1.463, 1.241e-5
-1.464, 1.243e-5
-1.465, 1.247e-5
-1.466, 1.250e-5
-1.467, 1.253e-5
-1.468, 1.256e-5
-1.469, 1.259e-5
-1.470, 1.262e-5
-1.471, 1.266e-5
-1.472, 1.270e-5
-1.473, 1.273e-5
-1.474, 1.277e-5
-1.475, 1.280e-5
-1.476, 1.282e-5
-1.477, 1.286e-5
-1.478, 1.290e-5
-1.479, 1.293e-5
-1.480, 1.298e-5
-1.481, 1.301e-5
-1.482, 1.303e-5
-1.483, 1.307e-5
-1.484, 1.310e-5
-1.485, 1.313e-5
-1.486, 1.316e-5
-1.487, 1.320e-5
-1.488, 1.323e-5
-1.489, 1.327e-5
-1.490, 1.330e-5
-1.491, 1.334e-5
-1.492, 1.338e-5
-1.493, 1.342e-5
-1.494, 1.345e-5
-1.495, 1.349e-5
-1.496, 1.353e-5
-1.497, 1.357e-5
-1.498, 1.362e-5
-1.499, 1.365e-5
-1.500, 1.367e-5
-1.501, 1.371e-5
-1.502, 1.375e-5
-1.503, 1.379e-5
-1.504, 1.382e-5
-1.505, 1.387e-5
-1.506, 1.391e-5
-1.507, 1.395e-5
-1.508, 1.400e-5
-1.509, 1.403e-5
-1.510, 1.406e-5
-1.511, 1.410e-5
-1.512, 1.415e-5
-1.513, 1.420e-5
-1.514, 1.424e-5
-1.515, 1.428e-5
-1.516, 1.432e-5
-1.517, 1.436e-5
-1.518, 1.441e-5
-1.519, 1.445e-5
-1.520, 1.450e-5
-1.521, 1.455e-5
-1.522, 1.459e-5
-1.523, 1.463e-5
-1.524, 1.467e-5
-1.525, 1.471e-5
-1.526, 1.476e-5
-1.527, 1.480e-5
-1.528, 1.485e-5
-1.529, 1.490e-5
-1.530, 1.494e-5
-1.531, 1.499e-5
-1.532, 1.503e-5
-1.533, 1.508e-5
-1.534, 1.512e-5
-1.535, 1.516e-5
-1.536, 1.522e-5
-1.537, 1.527e-5
-1.538, 1.531e-5
-1.539, 1.536e-5
-1.540, 1.541e-5
-1.541, 1.546e-5
-1.542, 1.551e-5
-1.543, 1.555e-5
-1.544, 1.560e-5
-1.545, 1.565e-5
-1.546, 1.570e-5
-1.547, 1.576e-5
-1.548, 1.581e-5
-1.549, 1.586e-5
-1.550, 1.591e-5
-1.551, 1.596e-5
-1.552, 1.602e-5
-1.553, 1.608e-5
-1.554, 1.613e-5
-1.555, 1.619e-5
-1.556, 1.624e-5
-1.557, 1.630e-5
-1.558, 1.635e-5
-1.559, 1.640e-5
-1.560, 1.646e-5
-1.561, 1.652e-5
-1.562, 1.658e-5
-1.563, 1.664e-5
-1.564, 1.670e-5
-1.565, 1.674e-5
-1.566, 1.679e-5
-1.567, 1.684e-5
-1.568, 1.690e-5
-1.569, 1.695e-5
-1.570, 1.702e-5
-1.571, 1.708e-5
-1.572, 1.714e-5
-1.573, 1.719e-5
-1.574, 1.725e-5
-1.575, 1.731e-5
-1.576, 1.737e-5
-1.577, 1.744e-5
-1.578, 1.750e-5
-1.579, 1.756e-5
-1.580, 1.762e-5
-1.581, 1.768e-5
-1.582, 1.775e-5
-1.583, 1.780e-5
-1.584, 1.787e-5
-1.585, 1.792e-5
-1.586, 1.798e-5
-1.587, 1.804e-5
-1.588, 1.811e-5
-1.589, 1.818e-5
-1.590, 1.825e-5
-1.591, 1.830e-5
-1.592, 1.837e-5
-1.593, 1.843e-5
-1.594, 1.849e-5
-1.595, 1.855e-5
-1.596, 1.862e-5
-1.597, 1.870e-5
-1.598, 1.876e-5
-1.599, 1.883e-5
-1.600, 1.889e-5
-1.601, 1.896e-5
-1.602, 1.902e-5
-1.603, 1.909e-5
-1.604, 1.916e-5
-1.605, 1.923e-5
-1.606, 1.930e-5
-1.607, 1.937e-5
-1.608, 1.944e-5
-1.609, 1.951e-5
-1.610, 1.958e-5
-1.611, 1.966e-5
-1.612, 1.973e-5
-1.613, 1.979e-5
-1.614, 1.986e-5
-1.615, 1.992e-5
-1.616, 1.999e-5
-1.617, 2.006e-5
-1.618, 2.014e-5
-1.619, 2.021e-5
-1.620, 2.028e-5
-1.621, 2.036e-5
-1.622, 2.044e-5
-1.623, 2.051e-5
-1.624, 2.058e-5
-1.625, 2.066e-5
-1.626, 2.074e-5
-1.627, 2.081e-5
-1.628, 2.089e-5
-1.629, 2.097e-5
-1.630, 2.105e-5
-1.631, 2.113e-5
-1.632, 2.121e-5
-1.633, 2.130e-5
-1.634, 2.138e-5
-1.635, 2.145e-5
-1.636, 2.154e-5
-1.637, 2.163e-5
-1.638, 2.171e-5
-1.639, 2.180e-5
-1.640, 2.189e-5
-1.641, 2.198e-5
-1.642, 2.207e-5
-1.643, 2.215e-5
-1.644, 2.223e-5
-1.645, 2.232e-5
-1.646, 2.240e-5
-1.647, 2.250e-5
-1.648, 2.259e-5
-1.649, 2.268e-5
-1.650, 2.277e-5
-1.651, 2.287e-5
-1.652, 2.297e-5
-1.653, 2.306e-5
-1.654, 2.317e-5
-1.655, 2.325e-5
-1.656, 2.335e-5
-1.657, 2.345e-5
-1.658, 2.355e-5
-1.659, 2.365e-5
-1.660, 2.374e-5
-1.661, 2.384e-5
-1.662, 2.395e-5
-1.663, 2.406e-5
-1.664, 2.417e-5
-1.665, 2.428e-5
-1.666, 2.438e-5
-1.667, 2.449e-5
-1.668, 2.460e-5
-1.669, 2.471e-5
-1.670, 2.482e-5
-1.671, 2.493e-5
-1.672, 2.506e-5
-1.673, 2.517e-5
-1.674, 2.529e-5
-1.675, 2.540e-5
-1.676, 2.552e-5
-1.677, 2.565e-5
-1.678, 2.576e-5
-1.679, 2.588e-5
-1.680, 2.599e-5
-1.681, 2.612e-5
-1.682, 2.625e-5
-1.683, 2.639e-5
-1.684, 2.651e-5
-1.685, 2.664e-5
-1.686, 2.677e-5
-1.687, 2.691e-5
-1.688, 2.705e-5
-1.689, 2.717e-5
-1.690, 2.731e-5
-1.691, 2.745e-5
-1.692, 2.759e-5
-1.693, 2.773e-5
-1.694, 2.787e-5
-1.695, 2.800e-5
-1.696, 2.815e-5
-1.697, 2.830e-5
-1.698, 2.844e-5
-1.699, 2.860e-5
-1.700, 2.875e-5
-1.701, 2.891e-5
-1.702, 2.908e-5
-1.703, 2.923e-5
-1.704, 2.939e-5
-1.705, 2.955e-5
-1.706, 2.972e-5
-1.707, 2.989e-5
-1.708, 3.006e-5
-1.709, 3.023e-5
-1.710, 3.040e-5
-1.711, 3.057e-5
-1.712, 3.076e-5
-1.713, 3.094e-5
-1.714, 3.112e-5
-1.715, 3.130e-5
-1.716, 3.149e-5
-1.717, 3.168e-5
-1.718, 3.187e-5
-1.719, 3.206e-5
-1.720, 3.226e-5
-1.721, 3.245e-5
-1.722, 3.265e-5
-1.723, 3.285e-5
-1.724, 3.305e-5
-1.725, 3.326e-5
-1.726, 3.347e-5
-1.727, 3.370e-5
-1.728, 3.392e-5
-1.729, 3.413e-5
-1.730, 3.435e-5
-1.731, 3.457e-5
-1.732, 3.480e-5
-1.733, 3.502e-5
-1.734, 3.525e-5
-1.735, 3.547e-5
-1.736, 3.571e-5
-1.737, 3.594e-5
-1.738, 3.618e-5
-1.739, 3.642e-5
-1.740, 3.667e-5
-1.741, 3.692e-5
-1.742, 3.718e-5
-1.743, 3.743e-5
-1.744, 3.768e-5
-1.745, 3.794e-5
-1.746, 3.821e-5
-1.747, 3.849e-5
-1.748, 3.876e-5
-1.749, 3.903e-5
-1.750, 3.930e-5
-1.751, 3.959e-5
-1.752, 3.989e-5
-1.753, 4.017e-5
-1.754, 4.046e-5
-1.755, 4.075e-5
-1.756, 4.105e-5
-1.757, 4.136e-5
-1.758, 4.166e-5
-1.759, 4.197e-5
-1.760, 4.228e-5
-1.761, 4.260e-5
-1.762, 4.292e-5
-1.763, 4.325e-5
-1.764, 4.357e-5
-1.765, 4.389e-5
-1.766, 4.424e-5
-1.767, 4.459e-5
-1.768, 4.492e-5
-1.769, 4.526e-5
-1.770, 4.562e-5
-1.771, 4.600e-5
-1.772, 4.638e-5
-1.773, 4.674e-5
-1.774, 4.713e-5
-1.775, 4.750e-5
-1.776, 4.789e-5
-1.777, 4.828e-5
-1.778, 4.866e-5
-1.779, 4.903e-5
-1.780, 4.942e-5
-1.781, 4.982e-5
-1.782, 5.023e-5
-1.783, 5.064e-5
-1.784, 5.105e-5
-1.785, 5.145e-5
-1.786, 5.187e-5
-1.787, 5.231e-5
-1.788, 5.274e-5
-1.789, 5.315e-5
-1.790, 5.358e-5
-1.791, 5.403e-5
-1.792, 5.449e-5
-1.793, 5.494e-5
-1.794, 5.539e-5
-1.795, 5.585e-5
-1.796, 5.633e-5
-1.797, 5.681e-5
-1.798, 5.729e-5
-1.799, 5.776e-5
-1.800, 5.824e-5
-1.801, 5.874e-5
-1.802, 5.926e-5
-1.803, 5.975e-5
-1.804, 6.025e-5
-1.805, 6.076e-5
-1.806, 6.130e-5
-1.807, 6.181e-5
-1.808, 6.235e-5
-1.809, 6.287e-5
-1.810, 6.343e-5
-1.811, 6.399e-5
-1.812, 6.457e-5
-1.813, 6.514e-5
-1.814, 6.570e-5
-1.815, 6.627e-5
-1.816, 6.686e-5
-1.817, 6.746e-5
-1.818, 6.805e-5
-1.819, 6.864e-5
-1.820, 6.922e-5
-1.821, 6.982e-5
-1.822, 7.046e-5
-1.823, 7.108e-5
-1.824, 7.172e-5
-1.825, 7.236e-5
-1.826, 7.301e-5
-1.827, 7.366e-5
-1.828, 7.432e-5
-1.829, 7.498e-5
-1.830, 7.564e-5
-1.831, 7.633e-5
-1.832, 7.703e-5
-1.833, 7.772e-5
-1.834, 7.840e-5
-1.835, 7.911e-5
-1.836, 7.985e-5
-1.837, 8.059e-5
-1.838, 8.132e-5
-1.839, 8.206e-5
-1.840, 8.282e-5
-1.841, 8.361e-5
-1.842, 8.439e-5
-1.843, 8.517e-5
-1.844, 8.596e-5
-1.845, 8.675e-5
-1.846, 8.758e-5
-1.847, 8.840e-5
-1.848, 8.922e-5
-1.849, 9.006e-5
-1.850, 9.089e-5
-1.851, 9.175e-5
-1.852, 9.262e-5
-1.853, 9.350e-5
-1.854, 9.438e-5
-1.855, 9.527e-5
-1.856, 9.618e-5
-1.857, 9.710e-5
-1.858, 9.806e-5
-1.859, 9.900e-5
-1.860, 9.995e-5
-1.861, 1.009e-4
-1.862, 1.019e-4
-1.863, 1.029e-4
-1.864, 1.039e-4
-1.865, 1.049e-4
-1.866, 1.059e-4
-1.867, 1.070e-4
-1.868, 1.080e-4
-1.869, 1.091e-4
-1.870, 1.102e-4
-1.871, 1.113e-4
-1.872, 1.124e-4
-1.873, 1.135e-4
-1.874, 1.147e-4
-1.875, 1.158e-4
-1.876, 1.170e-4
-1.877, 1.182e-4
-1.878, 1.194e-4
-1.879, 1.206e-4
-1.880, 1.218e-4
-1.881, 1.231e-4
-1.882, 1.244e-4
-1.883, 1.257e-4
-1.884, 1.271e-4
-1.885, 1.284e-4
-1.886, 1.297e-4
-1.887, 1.311e-4
-1.888, 1.325e-4
-1.889, 1.339e-4
-1.890, 1.354e-4
-1.891, 1.369e-4
-1.892, 1.383e-4
-1.893, 1.399e-4
-1.894, 1.414e-4
-1.895, 1.430e-4
-1.896, 1.446e-4
-1.897, 1.462e-4
-1.898, 1.478e-4
-1.899, 1.495e-4
-1.900, 1.512e-4
-1.901, 1.529e-4
-1.902, 1.546e-4
-1.903, 1.563e-4
-1.904, 1.581e-4
-1.905, 1.598e-4
-1.906, 1.615e-4
-1.907, 1.634e-4
-1.908, 1.654e-4
-1.909, 1.674e-4
-1.910, 1.693e-4
-1.911, 1.713e-4
-1.912, 1.734e-4
-1.913, 1.755e-4
-1.914, 1.776e-4
-1.915, 1.797e-4
-1.916, 1.819e-4
-1.917, 1.841e-4
-1.918, 1.863e-4
-1.919, 1.886e-4
-1.920, 1.908e-4
-1.921, 1.932e-4
-1.922, 1.955e-4
-1.923, 1.979e-4
-1.924, 2.004e-4
-1.925, 2.028e-4
-1.926, 2.054e-4
-1.927, 2.079e-4
-1.928, 2.105e-4
-1.929, 2.132e-4
-1.930, 2.158e-4
-1.931, 2.184e-4
-1.932, 2.211e-4
-1.933, 2.238e-4
-1.934, 2.266e-4
-1.935, 2.294e-4
-1.936, 2.322e-4
-1.937, 2.351e-4
-1.938, 2.381e-4
-1.939, 2.409e-4
-1.940, 2.438e-4
-1.941, 2.469e-4
-1.942, 2.500e-4
-1.943, 2.531e-4
-1.944, 2.563e-4
-1.945, 2.590e-4
-1.946, 2.616e-4
-1.947, 2.647e-4
-1.948, 2.681e-4
-1.949, 2.714e-4
-1.950, 2.747e-4
-1.951, 2.780e-4
-1.952, 2.815e-4
-1.953, 2.849e-4
-1.954, 2.884e-4
-1.955, 2.918e-4
-1.956, 2.954e-4
-1.957, 2.991e-4
-1.958, 3.027e-4
-1.959, 3.065e-4
-1.960, 3.101e-4
-1.961, 3.138e-4
-1.962, 3.175e-4
-1.963, 3.213e-4
-1.964, 3.250e-4
-1.965, 3.286e-4
-1.966, 3.325e-4
-1.967, 3.364e-4
-1.968, 3.404e-4
-1.969, 3.446e-4
-1.970, 3.487e-4
-1.971, 3.527e-4
-1.972, 3.570e-4
-1.973, 3.612e-4
-1.974, 3.655e-4
-1.975, 3.699e-4
-1.976, 3.743e-4
-1.977, 3.788e-4
-1.978, 3.832e-4
-1.979, 3.878e-4
-1.980, 3.924e-4
-1.981, 3.971e-4
-1.982, 4.018e-4
-1.983, 4.065e-4
-1.984, 4.113e-4
-1.985, 4.162e-4
-1.986, 4.209e-4
-1.987, 4.257e-4
-1.988, 4.306e-4
-1.989, 4.357e-4
-1.990, 4.407e-4
-1.991, 4.457e-4
-1.992, 4.508e-4
-1.993, 4.559e-4
-1.994, 4.612e-4
-1.995, 4.665e-4
-1.996, 4.718e-4
-1.997, 4.773e-4
-1.998, 4.828e-4
-1.999, 4.882e-4
-2.000, 4.937e-4
-2.001, 4.992e-4
-2.002, 5.048e-4
-2.003, 5.105e-4
-2.004, 5.163e-4
-2.005, 5.220e-4
-2.006, 5.277e-4
-2.007, 5.334e-4
-2.008, 5.392e-4
-2.009, 5.450e-4
-2.010, 5.509e-4
-2.011, 5.569e-4
-2.012, 5.630e-4
-2.013, 5.691e-4
-2.014, 5.754e-4
-2.015, 5.815e-4
-2.016, 5.878e-4
-2.017, 5.941e-4
-2.018, 6.004e-4
-2.019, 6.068e-4
-2.020, 6.132e-4
-2.021, 6.194e-4
-2.022, 6.261e-4
-2.023, 6.325e-4
-2.024, 6.390e-4
-2.025, 6.455e-4
-2.026, 6.522e-4
-2.027, 6.589e-4
-2.028, 6.656e-4
-2.029, 6.725e-4
-2.030, 6.793e-4
-2.031, 6.861e-4
-2.032, 6.931e-4
-2.033, 6.996e-4
-2.034, 7.055e-4
-2.035, 7.125e-4
-2.036, 7.198e-4
-2.037, 7.270e-4
-2.038, 7.343e-4
-2.039, 7.414e-4
-2.040, 7.488e-4
-2.041, 7.562e-4
-2.042, 7.634e-4
-2.043, 7.706e-4
-2.044, 7.779e-4
-2.045, 7.853e-4
-2.046, 7.928e-4
-2.047, 8.003e-4
-2.048, 8.077e-4
-2.049, 8.153e-4
-2.050, 8.229e-4
-2.051, 8.306e-4
-2.052, 8.381e-4
-2.053, 8.456e-4
-2.054, 8.529e-4
-2.055, 8.608e-4
-2.056, 8.687e-4
-2.057, 8.762e-4
-2.058, 8.836e-4
-2.059, 8.915e-4
-2.060, 8.993e-4
-2.061, 9.073e-4
-2.062, 9.152e-4
-2.063, 9.231e-4
-2.064, 9.312e-4
-2.065, 9.389e-4
-2.066, 9.460e-4
-2.067, 9.543e-4
-2.068, 9.628e-4
-2.069, 9.711e-4
-2.070, 9.793e-4
-2.071, 9.875e-4
-2.072, 9.958e-4
-2.073, 1.004e-3
-2.074, 1.010e-3
-2.075, 1.011e-3
-2.076, 1.011e-3
-2.077, 1.011e-3
-2.078, 1.011e-3
-2.079, 1.011e-3
-2.080, 1.011e-3
-2.081, 1.011e-3
-2.082, 1.011e-3
-2.083, 1.011e-3
-2.084, 1.011e-3
-2.085, 1.011e-3
-2.086, 1.011e-3
-2.087, 1.011e-3
-2.088, 1.011e-3
-2.089, 1.011e-3
-2.090, 1.011e-3
-2.091, 1.011e-3
-2.092, 1.011e-3
-2.093, 1.011e-3
-2.094, 1.011e-3
-2.095, 1.011e-3
-2.096, 1.011e-3
-2.097, 1.011e-3
-2.098, 1.011e-3
-2.099, 1.011e-3
-2.100, 1.011e-3
-2.101, 1.011e-3
-2.102, 1.011e-3
-2.103, 1.011e-3
-2.104, 1.011e-3
-2.105, 1.011e-3
-2.106, 1.011e-3
-2.107, 1.011e-3
-2.108, 1.011e-3
-2.109, 1.011e-3
-2.110, 1.011e-3
-2.111, 1.011e-3
-2.112, 1.011e-3
-2.113, 1.011e-3
-2.114, 1.011e-3
-2.115, 1.011e-3
-2.116, 1.011e-3
-2.117, 1.011e-3
-2.118, 1.011e-3
-2.119, 1.011e-3
-2.120, 1.011e-3
-2.121, 1.011e-3
-2.122, 1.011e-3
-2.123, 1.011e-3
-2.124, 1.011e-3
-2.125, 1.011e-3
-2.126, 1.011e-3
-2.127, 1.011e-3
-2.128, 1.011e-3
-2.129, 1.011e-3
-2.130, 1.011e-3
-2.131, 1.011e-3
-2.132, 1.011e-3
-2.133, 1.011e-3
-2.134, 1.011e-3
-2.135, 1.011e-3
-2.136, 1.011e-3
-2.137, 1.011e-3
-2.138, 1.011e-3
-2.139, 1.011e-3
-2.140, 1.011e-3
-2.141, 1.011e-3
-2.142, 1.011e-3
-2.143, 1.011e-3
-2.144, 1.011e-3
-2.145, 1.011e-3
-2.146, 1.011e-3
-2.147, 1.011e-3
-2.148, 1.011e-3
-2.149, 1.011e-3
-2.150, 1.011e-3
-2.151, 1.011e-3
-2.152, 1.011e-3
-2.153, 1.011e-3
-2.154, 1.011e-3
-2.155, 1.011e-3
-2.156, 1.011e-3
-2.157, 1.011e-3
-2.158, 1.011e-3
-2.159, 1.011e-3
-2.160, 1.011e-3
-2.161, 1.011e-3
-2.162, 1.011e-3
-2.163, 1.011e-3
-2.164, 1.011e-3
-2.165, 1.011e-3
-2.166, 1.011e-3
-2.167, 1.011e-3
-2.168, 1.011e-3
-2.169, 1.011e-3
-2.170, 1.011e-3
-2.171, 1.011e-3
-2.172, 1.011e-3
-2.173, 1.011e-3
-2.174, 1.011e-3
-2.175, 1.011e-3
-2.176, 1.011e-3
-2.177, 1.011e-3
-2.178, 1.011e-3
-2.179, 1.011e-3
-2.180, 1.011e-3
-2.181, 1.011e-3
-2.182, 1.011e-3
-2.183, 1.011e-3
-2.184, 1.011e-3
-2.185, 1.011e-3
-2.186, 1.011e-3
-2.187, 1.011e-3
-2.188, 1.011e-3
-2.189, 1.011e-3
-2.190, 1.011e-3
-2.191, 1.011e-3
-2.192, 1.011e-3
-2.193, 1.011e-3
-2.194, 1.011e-3
-2.195, 1.011e-3
-2.196, 1.011e-3
-2.197, 1.011e-3
-2.198, 1.011e-3
-2.199, 1.011e-3
-2.200, 1.011e-3
-2.201, 1.011e-3
-2.202, 1.011e-3
-2.203, 1.011e-3
-2.204, 1.011e-3
-2.205, 1.011e-3
-2.206, 1.011e-3
-2.207, 1.011e-3
-2.208, 1.011e-3
-2.209, 1.011e-3
-2.210, 1.011e-3
-2.211, 1.011e-3
-2.212, 1.011e-3
-2.213, 1.011e-3
-2.214, 1.011e-3
-2.215, 1.011e-3
-2.216, 1.011e-3
-2.217, 1.011e-3
-2.218, 1.011e-3
-2.219, 1.011e-3
-2.220, 1.011e-3
-2.221, 1.011e-3
-2.222, 1.011e-3
-2.223, 1.011e-3
-2.224, 1.011e-3
-2.225, 1.011e-3
-2.226, 1.011e-3
-2.227, 1.011e-3
-2.228, 1.011e-3
-2.229, 1.011e-3
-2.230, 1.011e-3
-2.231, 1.011e-3
-2.232, 1.011e-3
-2.233, 1.011e-3
-2.234, 1.011e-3
-2.235, 1.011e-3
-2.236, 1.011e-3
-2.237, 1.011e-3
-2.238, 1.011e-3
-2.239, 1.011e-3
-2.240, 1.011e-3
-2.241, 1.011e-3
-2.242, 1.011e-3
-2.243, 1.011e-3
-2.244, 1.011e-3
-2.245, 1.011e-3
-2.246, 1.011e-3
-2.247, 1.011e-3
-2.248, 1.011e-3
-2.249, 1.011e-3
-2.250, 1.011e-3
-2.251, 1.011e-3
-2.252, 1.011e-3
-2.253, 1.011e-3
-2.254, 1.011e-3
-2.255, 1.011e-3
-2.256, 1.011e-3
-2.257, 1.011e-3
-2.258, 1.011e-3
-2.259, 1.011e-3
-2.260, 1.011e-3
-2.261, 1.011e-3
-2.262, 1.011e-3
-2.263, 1.011e-3
-2.264, 1.011e-3
-2.265, 1.011e-3
-2.266, 1.011e-3
-2.267, 1.011e-3
-2.268, 1.011e-3
-2.269, 1.011e-3
-2.270, 1.011e-3
-2.271, 1.011e-3
-2.272, 1.011e-3
-2.273, 1.011e-3
-2.274, 1.011e-3
-2.275, 1.011e-3
-2.276, 1.011e-3
-2.277, 1.011e-3
-2.278, 1.011e-3
-2.279, 1.011e-3
-2.280, 1.011e-3
-2.281, 1.011e-3
-2.282, 1.011e-3
-2.283, 1.011e-3
-2.284, 1.011e-3
-2.285, 1.011e-3
-2.286, 1.011e-3
-2.287, 1.011e-3
-2.288, 1.011e-3
-2.289, 1.011e-3
-2.290, 1.011e-3
-2.291, 1.011e-3
-2.292, 1.011e-3
-2.293, 1.011e-3
-2.294, 1.011e-3
-2.295, 1.011e-3
-2.296, 1.011e-3
-2.297, 1.011e-3
-2.298, 1.011e-3
-2.299, 1.011e-3
