Potential V vs RHE, Current mA cm-2
0.05339999999999995,-0.04058806719312791
0.05239999999999995,-0.04234230920496055
0.051399999999999946,-0.04314869464588362
0.050399999999999945,-0.04371457916582964
0.049399999999999944,-0.04411069832979184
0.04839999999999994,-0.0444077877027635
0.04739999999999994,-0.04483220109272301
0.04639999999999994,-0.04538393849967037
0.04539999999999994,-0.04587908745462314
0.04439999999999994,-0.04621861816659075
0.04339999999999994,-0.04647326620056645
0.04239999999999994,-0.046883532477527315
0.04139999999999994,-0.04744941699747333
0.040399999999999936,-0.04793041883942745
0.039399999999999935,-0.048312390890391
0.038399999999999934,-0.04859533315036401
0.03739999999999993,-0.04897730520132757
0.03639999999999993,-0.04952904260827493
0.03539999999999993,-0.050010044450229045
0.03439999999999993,-0.05034957516219666
0.03339999999999993,-0.05063251742216966
0.03239999999999993,-0.051014489473133216
0.03139999999999993,-0.05159452110607789
0.030399999999999927,-0.052075522948032
0.029399999999999926,-0.05245749499899556
0.028399999999999925,-0.05275458437196722
0.027399999999999924,-0.05310826219693348
0.026399999999999924,-0.05371658805587544
0.025399999999999923,-0.05422588412382686
0.024399999999999922,-0.05457956194879311
0.02339999999999992,-0.05486250420876612
0.02239999999999992,-0.05525862337272834
0.02139999999999992,-0.055838655005673
0.020399999999999918,-0.056362098186623064
0.019399999999999917,-0.05671577601158932
0.018399999999999916,-0.05701286538456098
0.017399999999999916,-0.05740898454852319
0.016399999999999915,-0.057974869068469215
0.015399999999999914,-0.05851245936241791
0.014399999999999913,-0.058851990074385525
0.013399999999999912,-0.05916322656035583
0.012399999999999911,-0.059573492837316694
0.01139999999999991,-0.06012523024426406
0.01039999999999991,-0.06064867342521412
0.009399999999999908,-0.06104479258917633
0.008399999999999908,-0.061327734849149336
0.007399999999999907,-0.061752148239108844
0.006399999999999906,-0.062332179872053514
0.005399999999999905,-0.06288391727900088
0.004399999999999904,-0.06329418355596174
0.003399999999999903,-0.06359127292893339
0.002399999999999902,-0.0640156863188929
0.0013999999999999013,-0.06463815929083352
0.00039999999999990044,-0.06517574958478224
-0.0006000000000001005,-0.0655577216357458
-0.0016000000000001013,-0.06586895812171611
-0.0026000000000001022,-0.06629337151167561
-0.003600000000000103,-0.06688755025761894
-0.004600000000000104,-0.06743928766456629
-0.005600000000000105,-0.06783540682852851
-0.006600000000000106,-0.06814664331449882
-0.007600000000000107,-0.06855690959145967
-0.008600000000000108,-0.069151088337403
-0.009600000000000108,-0.0696886786313517
-0.01060000000000011,-0.07008479779531392
-0.01160000000000011,-0.07043847562028017
-0.012600000000000111,-0.07087703612323834
-0.013600000000000112,-0.07147121486918166
-0.014600000000000113,-0.07202295227612901
-0.015600000000000114,-0.07241907144009123
-0.016600000000000115,-0.07273030792606154
-0.017600000000000116,-0.07314057420302239
-0.018600000000000116,-0.07373475294896571
-0.019600000000000117,-0.07430063746891173
-0.020600000000000118,-0.07466846240687663
-0.02160000000000012,-0.07499384600584559
-0.02260000000000012,-0.0754182593958051
-0.02360000000000012,-0.07599829102874978
-0.024600000000000122,-0.07655002843569715
-0.025600000000000123,-0.07696029471265799
-0.026600000000000124,-0.07724323697263101
-0.027600000000000124,-0.07768179747558916
-0.028600000000000125,-0.07827597622153248
-0.029600000000000126,-0.07879941940248254
-0.030600000000000127,-0.0791813914534461
-0.03160000000000013,-0.07950677505241506
-0.03260000000000013,-0.07991704132937592
-0.03360000000000013,-0.08048292584932194
-0.03460000000000002,-0.081006369030272
-0.03560000000000002,-0.08138834108123556
-0.03660000000000002,-0.08168543045420722
-0.03760000000000002,-0.08210984384416672
-0.03860000000000002,-0.08268987547711139
-0.039600000000000024,-0.0831708773190655
-0.040600000000000025,-0.08353870225703043
-0.041600000000000026,-0.08379335029100612
-0.04260000000000003,-0.08417532234196969
-0.04360000000000003,-0.08472705974891705
-0.04460000000000003,-0.08523635581686846
-0.04560000000000003,-0.08557588652883606
-0.04660000000000003,-0.08585882878880907
-0.04760000000000003,-0.08622665372677399
-0.04860000000000003,-0.0867642440207227
-0.04960000000000003,-0.08723109874967816
-0.050600000000000034,-0.08755648234864712
-0.051600000000000035,-0.08781113038262284
-0.052600000000000036,-0.08813651398159178
-0.053600000000000037,-0.0886458100495432
-0.05460000000000004,-0.08914095900449596
-0.05560000000000004,-0.08943804837746762
-0.05660000000000004,-0.08969269641144333
-0.05760000000000004,-0.09001808001041228
-0.05860000000000004,-0.09051322896536505
-0.05960000000000004,-0.09098008369432051
-0.06060000000000004,-0.0912630259542935
-0.061600000000000044,-0.09148937976227192
-0.06260000000000004,-0.09181476336124088
-0.06360000000000005,-0.09230991231619365
-0.06460000000000005,-0.09273432570615316
-0.06560000000000005,-0.09298897374012885
-0.06660000000000005,-0.09318703332210997
-0.06760000000000005,-0.09349826980808028
-0.06860000000000005,-0.09393683031103843
-0.06960000000000005,-0.09433294947500065
-0.07060000000000005,-0.09457345039597771
-0.07160000000000005,-0.0947432157519615
-0.07260000000000005,-0.09502615801193452
-0.07360000000000005,-0.09543642428889539
-0.07460000000000006,-0.09580424922686027
-0.07560000000000006,-0.09604475014783734
-0.07660000000000006,-0.09617207416482519
-0.07760000000000006,-0.0964267221988009
-0.07860000000000006,-0.09680869424976446
-0.07960000000000006,-0.09714822496173206
-0.08060000000000006,-0.09733213743071452
-0.08160000000000006,-0.09744531433470371
-0.08260000000000006,-0.09767166814268213
-0.08360000000000006,-0.09802534596764839
-0.08460000000000006,-0.0983365824536187
-0.08560000000000006,-0.0984780535836052
-0.08660000000000007,-0.09857708337459577
-0.08760000000000007,-0.09874684873057955
-0.08860000000000007,-0.09910052655554581
-0.08960000000000007,-0.09935517458952153
-0.09060000000000007,-0.09948249860650937
-0.09160000000000007,-0.09953908705850398
-0.09260000000000007,-0.09969470530148912
-0.09360000000000007,-0.10002008890045809
-0.09460000000000007,-0.10026058982143515
-0.09560000000000007,-0.1003596196124257
-0.09660000000000007,-0.1003596196124257
-0.09760000000000008,-0.1004727965164149
-0.09860000000000008,-0.10075573877638791
-0.09960000000000008,-0.10098209258436633
-0.10060000000000008,-0.10103868103636092
-0.10160000000000008,-0.10103868103636092
-0.10260000000000008,-0.10112356371435283
-0.10360000000000008,-0.10134991752233123
-0.10460000000000008,-0.1015904184433083
-0.10560000000000008,-0.1015904184433083
-0.10660000000000008,-0.10153382999131368
-0.10760000000000008,-0.1015904184433083
-0.10860000000000009,-0.10181677225128669
-0.10960000000000009,-0.10198653760727049
-0.11060000000000009,-0.10197239049427186
-0.11160000000000009,-0.10188750781627993
-0.11260000000000009,-0.10191580204227724
-0.11360000000000009,-0.10209971451125968
-0.11460000000000009,-0.10225533275424485
-0.11560000000000009,-0.1022411856412462
-0.11660000000000009,-0.10208556739826105
-0.1176000000000001,-0.10211386162425835
-0.1186000000000001,-0.1022694798672435
-0.1196000000000001,-0.10236850965823405
-0.1206000000000001,-0.1023260683192381
-0.1216000000000001,-0.1021845971892516
-0.1226000000000001,-0.10214215585025564
-0.1236000000000001,-0.10228362698024217
-0.1246000000000001,-0.10235436254523542
-0.1256000000000001,-0.10228362698024217
-0.1266000000000001,-0.102128008737257
-0.1276000000000001,-0.10208556739826105
-0.1286000000000001,-0.1021845971892516
-0.1296000000000001,-0.1022411856412462
-0.1306000000000001,-0.10214215585025564
-0.1316000000000001,-0.10195824338127318
-0.1326000000000001,-0.1019016549292786
-0.1336000000000001,-0.10195824338127318
-0.1346000000000001,-0.1020148318332678
-0.1356000000000001,-0.10188750781627993
-0.1366000000000001,-0.10170359534729749
-0.1376000000000001,-0.10157627133030964
-0.1386000000000001,-0.10164700689530289
-0.1396000000000001,-0.10168944823429883
-0.1406000000000001,-0.10153382999131368
-0.14160000000000011,-0.10130747618333527
-0.14260000000000012,-0.10119429927934608
-0.14360000000000012,-0.10123674061834202
-0.14460000000000012,-0.10125088773134068
-0.14560000000000012,-0.10106697526235821
-0.14660000000000012,-0.10085476856737846
-0.14760000000000012,-0.10072744455039061
-0.14860000000000012,-0.10072744455039061
-0.14960000000000012,-0.10075573877638791
-0.15060000000000012,-0.10057182630740545
-0.15160000000000012,-0.10028888404743246
-0.15260000000000012,-0.10017570714344325
-0.15360000000000013,-0.10018985425644189
-0.15460000000000013,-0.10014741291744596
-0.15560000000000013,-0.09996350044846349
-0.15660000000000013,-0.09969470530148912
-0.15760000000000013,-0.09953908705850398
-0.15860000000000013,-0.09955323417150262
-0.15960000000000002,-0.09951079283250668
-0.16060000000000002,-0.09932688036352423
-0.16160000000000002,-0.09905808521654987
-0.16260000000000002,-0.09887417274756742
-0.16360000000000002,-0.09887417274756742
-0.16460000000000002,-0.09884587852157012
-0.16560000000000002,-0.09869026027858496
-0.16660000000000003,-0.0984497593576079
-0.16760000000000003,-0.0982234055496295
-0.16860000000000003,-0.0982234055496295
-0.16960000000000003,-0.09816681709763489
-0.17060000000000003,-0.09796875751565379
-0.17160000000000003,-0.09767166814268213
-0.17260000000000003,-0.09748775567369967
-0.17360000000000003,-0.09748775567369967
-0.17460000000000003,-0.09743116722170508
-0.17560000000000003,-0.09721896052672531
-0.17660000000000003,-0.09693601826675231
-0.17760000000000004,-0.09673795868477121
-0.17860000000000004,-0.09673795868477121
-0.17960000000000004,-0.09669551734577525
-0.18060000000000004,-0.09644086931179956
-0.18160000000000004,-0.09615792705182655
-0.18260000000000004,-0.09597401458284409
-0.18360000000000004,-0.09595986746984543
-0.18460000000000004,-0.09591742613084948
-0.18560000000000004,-0.09567692520987243
-0.18660000000000004,-0.09539398294989941
-0.18760000000000004,-0.09522421759391562
-0.18860000000000005,-0.09518177625491966
-0.18960000000000005,-0.09512518780292507
-0.19060000000000005,-0.09491298110794531
-0.19160000000000005,-0.0946300388479723
-0.19260000000000005,-0.09444612637898986
-0.19360000000000005,-0.09441783215299256
-0.19460000000000005,-0.09436124370099794
-0.19560000000000005,-0.09414903700601819
-0.19660000000000005,-0.09385194763304654
-0.19760000000000005,-0.09366803516406408
-0.19860000000000005,-0.09365388805106543
-0.19960000000000006,-0.09359729959907082
-0.20060000000000006,-0.09338509290409107
-0.20160000000000006,-0.09307385641812077
-0.20260000000000006,-0.09288994394913831
-0.20360000000000006,-0.09288994394913831
-0.20460000000000006,-0.09283335549714371
-0.20560000000000006,-0.09262114880216396
-0.20660000000000006,-0.09233820654219095
-0.20760000000000006,-0.09216844118620715
-0.20860000000000006,-0.09214014696020983
-0.20960000000000006,-0.09208355850821524
-0.21060000000000006,-0.09188549892623413
-0.21160000000000007,-0.09160255666626112
-0.21260000000000007,-0.09141864419727867
-0.21360000000000007,-0.09140449708428001
-0.21460000000000007,-0.09136205574528407
-0.21560000000000007,-0.09116399616330297
-0.21660000000000007,-0.09090934812932726
-0.21760000000000007,-0.09075372988634212
-0.21860000000000007,-0.0907254356603448
-0.21960000000000007,-0.09068299432134884
-0.22060000000000007,-0.09047078762636909
-0.22160000000000007,-0.09018784536639608
-0.22260000000000008,-0.09001808001041228
-0.22360000000000008,-0.09000393289741364
-0.22460000000000008,-0.08998978578441498
-0.22560000000000008,-0.08977757908943522
-0.22660000000000008,-0.08950878394246087
-0.22760000000000008,-0.08932487147347841
-0.22860000000000008,-0.08932487147347841
-0.22960000000000008,-0.08932487147347841
-0.23060000000000008,-0.08914095900449596
-0.23160000000000008,-0.08885801674452294
-0.23260000000000008,-0.08868825138853914
-0.23360000000000009,-0.08868825138853914
-0.2346000000000001,-0.0886741042755405
-0.2356000000000001,-0.08849019180655805
-0.2366000000000001,-0.08823554377258234
-0.2376000000000001,-0.08807992552959719
-0.2386000000000001,-0.08809407264259583
-0.2396000000000001,-0.08806577841659853
-0.2406000000000001,-0.08788186594761609
-0.2416000000000001,-0.08765551213963767
-0.2426000000000001,-0.08751404100965117
-0.2436000000000001,-0.08754233523564847
-0.2446000000000001,-0.08749989389665253
-0.2456000000000001,-0.08734427565366736
-0.2466000000000001,-0.0871037747326903
-0.2476000000000001,-0.08694815648970515
-0.2486000000000001,-0.08697645071570247
-0.2496000000000001,-0.08694815648970515
-0.2506000000000001,-0.08677839113372135
-0.2516000000000001,-0.08655203732574294
-0.2526000000000001,-0.08639641908275779
-0.2536000000000001,-0.08643886042175375
-0.2546000000000001,-0.08641056619575643
-0.2556000000000001,-0.08626909506576994
-0.2566000000000001,-0.08601444703179424
-0.2576000000000001,-0.08587297590180773
-0.2586000000000001,-0.08590127012780503
-0.2596000000000001,-0.08591541724080368
-0.2606000000000001,-0.08573150477182122
-0.2616000000000001,-0.08550515096384281
-0.2626000000000001,-0.08536367983385632
-0.2636000000000001,-0.08540612117285226
-0.2646000000000001,-0.08540612117285226
-0.2656000000000001,-0.08523635581686846
-0.2666000000000001,-0.0849958548958914
-0.2676000000000001,-0.0848826779919022
-0.2686000000000001,-0.0849109722178995
-0.2696000000000001,-0.0849392664438968
-0.2706000000000001,-0.084769501087913
-0.2716000000000001,-0.08454314727993459
-0.2726000000000001,-0.08442997037594539
-0.2736000000000001,-0.0844582646019427
-0.2746000000000001,-0.08447241171494134
-0.2756000000000001,-0.08433094058495484
-0.2766000000000001,-0.08411873388997508
-0.2776000000000001,-0.08400555698598587
-0.2786000000000001,-0.08404799832498183
-0.2796000000000001,-0.08406214543798048
-0.2806000000000001,-0.08392067430799398
-0.28160000000000013,-0.08372261472601288
-0.28260000000000013,-0.08359529070902501
-0.28360000000000013,-0.08365187916101963
-0.2846,-0.08366602627401826
-0.2856,-0.08355284937002906
-0.2866,-0.08332649556205066
-0.2876,-0.08324161288405875
-0.2886,-0.0832840542230547
-0.2896,-0.08331234844905201
-0.2906,-0.0831708773190655
-0.2916,-0.08298696485008306
-0.2926,-0.0828879350590925
-0.2936,-0.08295867062408575
-0.29460000000000003,-0.0829728177370844
-0.29560000000000003,-0.08284549372009656
-0.29660000000000003,-0.08264743413811544
-0.29760000000000003,-0.08253425723412625
-0.29860000000000003,-0.0826049927991195
-0.29960000000000003,-0.0826615812511141
-0.30060000000000003,-0.08252011012112759
-0.30160000000000003,-0.08233619765214513
-0.30260000000000004,-0.08222302074815592
-0.30360000000000004,-0.08229375631314918
-0.30460000000000004,-0.08233619765214513
-0.30560000000000004,-0.08220887363515728
-0.30660000000000004,-0.08202496116617483
-0.30760000000000004,-0.08194007848818292
-0.30860000000000004,-0.08201081405317617
-0.30960000000000004,-0.08205325539217213
-0.31060000000000004,-0.08195422560118158
-0.31160000000000004,-0.08175616601920047
-0.31260000000000004,-0.08167128334120857
-0.31360000000000005,-0.08174201890620184
-0.31460000000000005,-0.08178446024519778
-0.31560000000000005,-0.08169957756720586
-0.31660000000000005,-0.0814873708722261
-0.31760000000000005,-0.08141663530723285
-0.31860000000000005,-0.0814873708722261
-0.31960000000000005,-0.08158640066321667
-0.32060000000000005,-0.08147322375922747
-0.32160000000000005,-0.08127516417724635
-0.32260000000000005,-0.08119028149925445
-0.32360000000000005,-0.08126101706424771
-0.32460000000000006,-0.0813458997422396
-0.32560000000000006,-0.08124686995124906
-0.32660000000000006,-0.08106295748226659
-0.32760000000000006,-0.0809780748042747
-0.32860000000000006,-0.08106295748226659
-0.32960000000000006,-0.0811195459342612
-0.33060000000000006,-0.08102051614327066
-0.33160000000000006,-0.08087904501328413
-0.33260000000000006,-0.0807800152222936
-0.33360000000000006,-0.08087904501328413
-0.33460000000000006,-0.08094978057827738
-0.33560000000000006,-0.08085075078728685
-0.33660000000000007,-0.08070927965730033
-0.33760000000000007,-0.0806102498663098
-0.33860000000000007,-0.08069513254430169
-0.33960000000000007,-0.08080830944829089
-0.34060000000000007,-0.08069513254430169
-0.34160000000000007,-0.08053951430131655
-0.34260000000000007,-0.08045463162332463
-0.34360000000000007,-0.08056780852731382
-0.3446000000000001,-0.08065269120530574
-0.3456000000000001,-0.08055366141431519
-0.3466000000000001,-0.0804121902843287
-0.34759999999999996,-0.08032730760633679
-0.3486000000000001,-0.080440484510326
-0.34959999999999997,-0.08052536718831789
-0.3506000000000001,-0.08045463162332463
-0.35159999999999997,-0.08028486626734083
-0.3526000000000001,-0.08022827781534624
-0.35359999999999997,-0.08031316049333813
-0.3546000000000001,-0.0804121902843287
-0.35559999999999997,-0.08036974894533275
-0.3566000000000001,-0.08018583647635028
-0.3576,-0.08014339513735433
-0.3586000000000001,-0.08025657204134354
-0.3596,-0.08035560183233408
-0.3606000000000001,-0.08029901338033948
-0.3616,-0.08014339513735433
-0.3626000000000001,-0.08008680668535972
-0.3636,-0.08019998358934893
-0.3646000000000001,-0.08029901338033948
-0.3656,-0.08024242492834488
-0.3666000000000001,-0.08011510091135703
-0.3676,-0.08004436534636378
-0.3686000000000001,-0.08017168936335163
-0.3696,-0.08027071915434218
-0.3706000000000001,-0.08024242492834488
-0.3716,-0.08014339513735433
-0.3726000000000001,-0.08007265957236107
-0.3736,-0.08019998358934893
-0.3746000000000001,-0.08031316049333813
-0.3756,-0.08025657204134354
-0.3766000000000001,-0.08015754225035297
-0.3776,-0.08010095379835838
-0.3786000000000001,-0.08022827781534624
-0.3796,-0.08034145471933543
-0.3806000000000001,-0.08029901338033948
-0.3816,-0.08019998358934893
-0.3826000000000001,-0.08017168936335163
-0.3836,-0.08029901338033948
-0.3846000000000001,-0.080440484510326
-0.3856,-0.08039804317133004
-0.3866000000000001,-0.08029901338033948
-0.3876,-0.08028486626734083
-0.3886000000000001,-0.08039804317133004
-0.3896,-0.08056780852731382
-0.3906000000000001,-0.08055366141431519
-0.3916,-0.08045463162332463
-0.3926000000000001,-0.080440484510326
-0.3936,-0.08056780852731382
-0.3946000000000001,-0.08072342677029899
-0.3956,-0.08073757388329764
-0.3966000000000001,-0.08063854409230709
-0.3976,-0.08063854409230709
-0.3986000000000001,-0.0807800152222936
-0.3996,-0.08093563346527875
-0.4006000000000001,-0.08094978057827738
-0.4016,-0.08085075078728685
-0.4026000000000001,-0.0808648979002855
-0.4036,-0.0810346632562693
-0.4046000000000001,-0.08119028149925445
-0.4056,-0.08121857572525175
-0.40660000000000013,-0.08116198727325716
-0.4076,-0.08116198727325716
-0.40860000000000013,-0.0813458997422396
-0.4096,-0.08150151798522477
-0.41060000000000013,-0.08154395932422072
-0.4116,-0.0814873708722261
-0.41260000000000013,-0.08147322375922747
-0.4136,-0.08167128334120857
-0.41460000000000014,-0.08186934292318966
-0.4156,-0.08192593137518428
-0.41660000000000014,-0.08186934292318966
-0.4176,-0.08188349003618833
-0.41860000000000014,-0.08209569673116808
-0.41960000000000003,-0.08227960920015054
-0.42060000000000014,-0.08232205053914649
-0.42160000000000003,-0.08232205053914649
-0.42260000000000014,-0.08235034476514379
-0.42360000000000003,-0.08253425723412625
-0.42460000000000014,-0.08273231681610735
-0.42560000000000003,-0.08278890526810194
-0.42660000000000015,-0.08274646392910599
-0.42760000000000004,-0.08281719949409926
-0.42860000000000015,-0.0829728177370844
-0.42960000000000004,-0.08319917154506282
-0.43060000000000015,-0.08325575999705741
-0.43160000000000004,-0.08324161288405875
-0.43260000000000015,-0.08329820133605337
-0.43360000000000004,-0.08349626091803447
-0.43460000000000015,-0.08372261472601288
-0.43560000000000004,-0.08379335029100612
-0.43660000000000015,-0.08377920317800747
