Potential V vs RHE, Current mA cm-2
0.013299999999999867,-0.08943804837746762
0.012299999999999978,-0.9181476336124089
0.011299999999999866,-1.5293029151541047
0.010299999999999976,-1.92117794521672
0.009299999999999864,-2.3144676865791998
0.008299999999999974,-2.618630616050183
0.007299999999999862,-2.924208256821031
0.006299999999999972,-3.1859298472960624
0.00529999999999986,-3.403795387475278
0.0042999999999999705,-3.623075638954359
0.0032999999999998586,-3.840941179133574
0.0022999999999999687,-4.014950669016974
0.0012999999999998568,-4.1889601589003735
0.00029999999999996696,-4.3205283097878215
-0.000700000000000145,-4.494537799671222
-0.0017000000000000348,-4.668547289554621
-0.0027000000000001467,-4.756259390146253
-0.0037000000000000366,-4.887827541033701
-0.0047000000000001485,-5.017980980621284
-0.005700000000000038,-5.105693081212917
-0.00670000000000015,-5.191990470504685
-0.00770000000000004,-5.279702571096316
-0.008700000000000152,-5.367414671687949
-0.009700000000000042,-5.453712060979717
-0.010700000000000154,-5.5414241615713475
-0.011700000000000044,-5.629136262162981
-0.012700000000000156,-5.715433651454749
-0.013700000000000045,-5.759289701750564
-0.014700000000000157,-5.847001802342197
-0.015700000000000047,-5.9347139029338285
-0.01670000000000016,-5.977155241929781
-0.01770000000000005,-6.064867342521412
-0.01870000000000016,-6.152579443113044
-0.01970000000000005,-6.238876832404812
-0.020700000000000163,-6.326588932996443
-0.021700000000000053,-6.414301033588076
-0.022700000000000164,-6.500598422879844
-0.023700000000000054,-6.588310523471475
-0.024700000000000166,-6.719878674358924
-0.025700000000000056,-6.850032113946507
-0.026700000000000168,-6.893888164242324
-0.027700000000000058,-7.024041603829907
-0.02870000000000017,-7.155609754717355
-0.02970000000000006,-7.243321855308987
-0.03070000000000017,-7.4173313451923875
-0.03170000000000006,-7.50504344578402
-0.03270000000000017,-7.679052935667419
-0.03370000000000006,-7.7653503249591855
-0.034700000000000175,-7.896918475846635
-0.035700000000000065,-8.070927965730034
-0.03670000000000018,-8.246352166913299
-0.03770000000000007,-8.376505606500881
-0.03870000000000018,-8.508073757388331
-0.03970000000000007,-8.68208324727173
-0.04070000000000018,-8.85609273715513
-0.04170000000000007,-9.031516938338395
-0.04270000000000018,-9.161670377925978
-0.04370000000000007,-9.379535918105192
-0.044700000000000184,-9.55496011928846
-0.045700000000000074,-9.728969609171857
-0.046700000000000186,-9.946835149351072
-0.047700000000000076,-10.120844639234473
-0.04870000000000019,-10.296268840417738
-0.04970000000000008,-10.514134380596953
-0.05070000000000019,-10.688143870480351
-0.05170000000000008,-10.906009410659568
-0.05270000000000019,-11.123874950838783
-0.05370000000000008,-11.343155202317865
-0.05470000000000019,-11.56102074249708
-0.05570000000000008,-11.778886282676295
-0.056700000000000195,-12.040607873151327
-0.057700000000000085,-12.258473413330542
-0.058700000000000196,-12.432482903213943
-0.059700000000000086,-12.694204493688973
-0.0607000000000002,-12.913484745168056
-0.06170000000000009,-13.175206335643086
-0.0627000000000002,-13.3930718758223
-0.06370000000000009,-13.654793466297335
-0.0647000000000002,-13.916515056772363
-0.06570000000000009,-14.175407224647667
-0.0667000000000002,-14.444202371622024
-0.0677000000000001,-14.741291744593681
-0.0687000000000002,-15.094969569559943
-0.0697000000000001,-15.3920589425316
-0.07070000000000021,-15.74573676749786
-0.0717000000000001,-16.141855931460068
-0.07270000000000021,-16.495533756426326
-0.0737000000000001,-16.835064468393938
-0.07470000000000021,-17.188742293360193
-0.0757000000000001,-17.542420118326454
-0.07670000000000021,-17.924392169290012
-0.0777000000000001,-18.23562865526032
-0.07870000000000021,-18.589306480226583
-0.0797000000000001,-18.88639585319824
-0.08070000000000022,-19.197632339168546
-0.0817000000000001,-19.49472171214021
-0.08270000000000022,-19.763516859114564
-0.08370000000000011,-20.06060623208622
-0.08470000000000022,-20.329401379060574
-0.08570000000000011,-20.541608074040333
-0.08670000000000022,-20.810403221014692
-0.08770000000000011,-21.022609915994444
-0.08870000000000022,-21.248963723972853
-0.08970000000000011,-21.418729079956652
-0.09070000000000022,-21.58849443594046
-0.09170000000000011,-21.772406904922917
-0.09270000000000023,-21.94217226090672
-0.09370000000000012,-22.069496277894572
-0.09470000000000023,-22.253408746877028
-0.09570000000000012,-22.42317410286083
-0.09670000000000023,-22.592939458844636
-0.09770000000000012,-22.72026347583249
-0.09870000000000023,-22.819293266823045
-0.09970000000000012,-22.946617283810895
-0.10070000000000023,-23.073941300798747
-0.10170000000000012,-23.15882397879065
-0.10270000000000024,-23.2012653177866
-0.10370000000000013,-23.300295108777156
-0.10470000000000024,-23.385177786769056
-0.10570000000000013,-23.47006046476096
-0.10670000000000024,-23.47006046476096
-0.10770000000000013,-23.51250180375691
-0.10870000000000024,-23.597384481748815
-0.10970000000000013,-23.597384481748815
-0.11070000000000024,-23.682267159740714
-0.11170000000000013,-23.724708498736668
-0.11270000000000002,-23.724708498736668
-0.11370000000000013,-23.767149837732617
-0.11470000000000002,-23.823738289727217
-0.11570000000000014,-23.823738289727217
-0.11670000000000003,-23.86617962872317
-0.11770000000000014,-23.86617962872317
-0.11870000000000003,-23.86617962872317
-0.11970000000000014,-23.908620967719123
-0.12070000000000003,-23.908620967719123
-0.12170000000000014,-23.908620967719123
-0.12270000000000003,-23.951062306715073
-0.12370000000000014,-23.993503645711023
-0.12470000000000003,-23.993503645711023
-0.12570000000000014,-23.993503645711023
-0.12670000000000003,-23.993503645711023
-0.12770000000000015,-24.035944984706973
-0.12870000000000004,-23.993503645711023
-0.12970000000000015,-24.035944984706973
-0.13070000000000004,-23.993503645711023
-0.13170000000000015,-23.993503645711023
-0.13270000000000004,-23.993503645711023
-0.13370000000000015,-23.993503645711023
-0.13470000000000004,-23.951062306715073
-0.13570000000000015,-23.951062306715073
-0.13670000000000004,-23.951062306715073
-0.13770000000000016,-23.951062306715073
-0.13870000000000005,-23.951062306715073
-0.13970000000000016,-23.951062306715073
-0.14070000000000005,-23.908620967719123
-0.14170000000000016,-23.86617962872317
-0.14270000000000005,-23.908620967719123
-0.14370000000000016,-23.86617962872317
-0.14470000000000005,-23.86617962872317
-0.14570000000000016,-23.86617962872317
-0.14670000000000005,-23.86617962872317
-0.14770000000000016,-23.86617962872317
-0.14870000000000005,-23.86617962872317
-0.14970000000000017,-23.823738289727217
-0.15070000000000006,-23.86617962872317
-0.15170000000000017,-23.86617962872317
-0.15270000000000006,-23.908620967719123
-0.15370000000000017,-23.86617962872317
-0.15470000000000006,-23.908620967719123
-0.15570000000000017,-23.86617962872317
-0.15670000000000006,-23.908620967719123
-0.15770000000000017,-23.823738289727217
-0.15870000000000006,-23.86617962872317
-0.15970000000000018,-23.823738289727217
-0.16070000000000007,-23.823738289727217
-0.16170000000000018,-23.767149837732617
-0.16270000000000007,-23.767149837732617
-0.16370000000000018,-23.823738289727217
-0.16470000000000007,-23.767149837732617
-0.16570000000000018,-23.767149837732617
-0.16670000000000007,-23.767149837732617
-0.16770000000000018,-23.767149837732617
-0.16870000000000007,-23.767149837732617
-0.16970000000000018,-23.767149837732617
-0.17070000000000007,-23.724708498736668
-0.17170000000000019,-23.724708498736668
-0.17270000000000008,-23.724708498736668
-0.1737000000000002,-23.724708498736668
-0.17470000000000008,-23.724708498736668
-0.1757000000000002,-23.767149837732617
-0.17670000000000008,-23.767149837732617
-0.1777000000000002,-23.767149837732617
-0.17870000000000008,-23.767149837732617
-0.1797000000000002,-23.767149837732617
-0.18070000000000008,-23.823738289727217
-0.1817000000000002,-23.823738289727217
-0.18270000000000008,-23.86617962872317
-0.1837000000000002,-23.86617962872317
-0.1847000000000001,-23.86617962872317
-0.1857000000000002,-23.86617962872317
-0.1867000000000001,-23.86617962872317
-0.1877000000000002,-23.86617962872317
-0.1887000000000001,-23.908620967719123
-0.1897000000000002,-23.86617962872317
-0.1907000000000001,-23.86617962872317
-0.1917000000000001,-23.908620967719123
-0.19269999999999998,-23.908620967719123
-0.1937000000000001,-23.908620967719123
-0.19469999999999998,-23.908620967719123
-0.1957000000000001,-23.951062306715073
-0.19669999999999999,-23.993503645711023
-0.1977000000000001,-23.951062306715073
-0.1987,-23.951062306715073
-0.1997000000000001,-23.993503645711023
-0.2007,-23.993503645711023
-0.2017000000000001,-23.993503645711023
-0.2027,-24.035944984706973
-0.2037000000000001,-24.078386323702922
-0.2047,-24.078386323702922
-0.2057000000000001,-24.078386323702922
-0.2067,-24.120827662698876
-0.2077000000000001,-24.16326900169483
-0.2087,-24.16326900169483
-0.2097000000000001,-24.20571034069078
-0.2107,-24.24815167968673
-0.2117000000000001,-24.24815167968673
-0.2127,-24.290593018682678
-0.2137000000000001,-24.34718147067728
-0.2147,-24.389622809673234
-0.2157000000000001,-24.474505487665134
-0.2167,-24.474505487665134
-0.21770000000000012,-24.559388165657033
-0.2187,-24.601829504652986
-0.21970000000000012,-24.64427084364894
-0.2207,-24.64427084364894
-0.22170000000000012,-24.64427084364894
-0.2227,-24.729153521640843
-0.22370000000000012,-24.729153521640843
-0.2247,-24.729153521640843
-0.22570000000000012,-24.771594860636792
-0.2267,-24.814036199632742
-0.22770000000000012,-24.870624651627345
-0.22870000000000001,-24.9130659906233
-0.22970000000000013,-24.95550732961925
-0.23070000000000002,-24.997948668615198
-0.23170000000000013,-25.0828313466071
-0.23270000000000002,-25.0828313466071
-0.23370000000000013,-25.12527268560305
-0.23470000000000002,-25.167714024599
-0.23570000000000013,-25.252596702590903
-0.23670000000000002,-25.295038041586857
-0.2376999999999999,-25.337479380582806
-0.23870000000000002,-25.39406783257741
-0.2396999999999999,-25.43650917157336
-0.24070000000000003,-25.521391849565262
-0.24169999999999991,-25.563833188561212
-0.24270000000000003,-25.648715866553115
-0.24369999999999992,-25.73359854454502
-0.24470000000000003,-25.77603988354097
-0.24569999999999992,-25.86092256153287
-0.24670000000000003,-25.959952352523427
-0.24769999999999992,-26.087276369511276
-0.24870000000000003,-26.129717708507226
-0.24969999999999992,-26.21460038649913
-0.25070000000000003,-26.29948306449103
-0.2516999999999999,-26.34192440348698
-0.25270000000000004,-26.440954194477534
-0.2536999999999999,-26.483395533473487
-0.25470000000000004,-26.568278211465387
-0.2556999999999999,-26.69560222845324
-0.25670000000000004,-26.738043567449193
-0.25769999999999993,-26.822926245441096
-0.25870000000000004,-26.907808923433
-0.25969999999999993,-27.00683871442355
-0.26070000000000004,-27.091721392415455
-0.26169999999999993,-27.176604070407354
-0.26270000000000004,-27.261486748399253
-0.26369999999999993,-27.34636942639116
-0.26470000000000005,-27.43125210438306
-0.26569999999999994,-27.530281895373616
-0.26670000000000005,-27.65760591236147
-0.26769999999999994,-27.742488590353368
-0.26870000000000005,-27.827371268345274
-0.26969999999999994,-27.912253946337174
-0.27070000000000005,-28.05372507632368
-0.27169999999999994,-28.18104909331153
-0.27270000000000005,-28.308373110299385
-0.27369999999999994,-28.393255788291288
-0.27470000000000006,-28.53472691827779
-0.27569999999999995,-28.662050935265643
-0.27670000000000006,-28.789374952253496
-0.27769999999999995,-28.91669896924135
-0.27870000000000006,-29.058170099227848
-0.27969999999999995,-29.18549411621571
-0.28070000000000006,-29.31281813320356
-0.28169999999999995,-29.440142150191413
-0.28270000000000006,-29.62405461917387
-0.28369999999999995,-29.751378636161718
-0.28470000000000006,-29.878702653149578
-0.28569999999999995,-30.00602667013743
-0.28670000000000007,-30.232380478115836
-0.28769999999999996,-30.359704495103685
-0.28870000000000007,-30.487028512091538
-0.28969999999999996,-30.670940981073993
-0.29070000000000007,-30.79826499806185
-0.29169999999999996,-30.968030354045652
-0.29270000000000007,-31.137795710029454
-0.29369999999999996,-31.321708179011907
-0.2947000000000001,-31.49147353499572
-0.29569999999999996,-31.661238890979522
-0.2967000000000001,-31.802710020966025
-0.29769999999999996,-32.01491671594578
-0.2987000000000001,-32.184682071929586
-0.29969999999999997,-32.41103587990799
-0.3007000000000001,-32.58080123589179
-0.30169999999999997,-32.764713704874254
-0.3027000000000001,-32.97692039985401
-0.30369999999999997,-33.18912709483376
-0.3047000000000001,-33.373039563816214
-0.30569999999999997,-33.54280491980002
-0.3067000000000001,-33.755011614779775
-0.3077,-33.98136542275818
-0.3087000000000001,-34.193572117737936
-0.3097,-34.462367264712285
-0.3107000000000001,-34.717015298688004
-0.3117,-34.98581044566235
-0.3127000000000001,-35.198017140642115
-0.3137,-35.50925362661242
-0.3147000000000001,-35.721460321592176
-0.3157,-36.03269680756248
-0.3167000000000001,-36.244903502542236
-0.3177,-36.5136986495166
-0.3187000000000001,-36.768346683492304
-0.3197,-37.037141830466666
-0.3207000000000001,-37.291789864442364
-0.3217,-37.56058501141672
-0.3227000000000001,-37.85767438438838
-0.3237,-38.12646953136274
-0.3247000000000001,-38.38111756533845
-0.3257,-38.6499127123128
-0.3267000000000001,-38.94700208528445
-0.3277,-39.258238571254765
-0.3287000000000001,-39.51288660523048
-0.3297,-39.82412309120078
-0.3307000000000001,-40.092918238175145
-0.3317,-40.3900076111468
-0.3327000000000001,-40.65880275812115
-0.3337,-40.95589213109281
-0.3347000000000001,-41.30956995605907
-0.3357,-41.606659329030734
-0.3367000000000001,-41.96033715399699
-0.3377,-42.31401497896325
-0.3387000000000001,-42.653545690930855
-0.3397,-43.04966485489307
-0.3407000000000001,-43.40334267985933
-0.3417,-43.75702050482558
-0.3427000000000001,-44.138992555789144
-0.3437,-44.4926703807554
-0.3447000000000001,-44.80390686672572
-0.3457,-45.18587891768927
-0.3467000000000001,-45.53955674265553
-0.3477,-45.89323456762179
-0.3487000000000001,-46.27520661858535
-0.3497,-46.628884443551605
-0.3507000000000001,-47.02500360751382
-0.3517,-47.40697565847737
-0.3527000000000001,-47.76065348344364
-0.3537,-48.156772647405845
-0.3547000000000001,-48.55289181136806
-0.3557,-48.93486386233162
-0.35670000000000013,-49.33098302629383
-0.3577,-49.72710219025603
-0.35870000000000013,-50.1656626932142
-0.3597,-50.60422319617236
-0.36070000000000013,-50.98619524713592
-0.3617,-51.424755750094086
-0.3626999999999999,-51.90575759204819
-0.3637,-52.34431809500636
-0.3646999999999999,-52.82531993696047
-0.3657,-53.30632177891458
-0.3666999999999999,-53.872206298860604
-0.3677,-54.35320814081471
-0.3686999999999999,-54.791768643772876
-0.36970000000000003,-55.31521182472294
-0.3706999999999999,-55.73962521468245
-0.37170000000000003,-56.26306839563251
-0.3726999999999999,-56.70162889859067
-0.37370000000000003,-57.22507207954074
-0.3746999999999999,-57.70607392149485
-0.37570000000000003,-58.18707576344896
-0.3766999999999999,-58.71051894439902
-0.37770000000000004,-59.19152078635314
-0.3786999999999999,-59.7149639673032
-0.37970000000000004,-60.23840714825326
-0.3806999999999999,-60.761850329203334
-0.38170000000000004,-61.28529351015339
-0.38269999999999993,-61.851178030099405
-0.38370000000000004,-62.37462121104946
-0.38469999999999993,-62.89806439199953
-0.38570000000000004,-63.46394891194555
-0.38669999999999993,-63.06782974798333
-0.38570000000000004,-61.01649836317903
-0.38469999999999993,-59.19152078635314
-0.38370000000000004,-57.493867226515086
-0.38269999999999993,-55.9235376836649
-0.38170000000000004,-54.480532157802564
-0.3806999999999999,-53.12240930993213
-0.37970000000000004,-51.82087491405629
-0.3786999999999999,-50.547634744177756
-0.37770000000000004,-49.373424365289786
-0.3766999999999999,-48.1992139864018
-0.37570000000000003,-47.10988628550572
-0.3746999999999999,-46.02055858460964
-0.37370000000000003,-45.01611356170547
-0.3726999999999999,-43.96922719980534
-0.37170000000000003,-43.007223515897124
-0.3706999999999999,-42.087661170984845
-0.36970000000000003,-41.182245939071215
-0.3686999999999999,-40.26268359415894
-0.3677,-39.38556258824262
-0.3666999999999999,-38.5650300343209
-0.3657,-37.77279170639648
-0.3646999999999999,-36.95225915247476
-0.3637,-36.16002082455034
-0.3626999999999999,-35.42437094862052
-0.3617,-34.67457395969205
-0.36070000000000013,-33.93892408376223
-0.3597,-33.231568433829715
-0.35870000000000013,-32.53835989689585
-0.3577,-31.84515135996197
-0.35670000000000013,-31.19438416202406
-0.3557,-30.529469851087494
-0.3547000000000001,-29.878702653149578
-0.3537,-29.22793545521166
-0.3527000000000001,-28.577168257273744
-0.3517,-27.954695285333123
-0.3507000000000001,-27.303928087395207
-0.3497,-26.69560222845324
-0.3487000000000001,-26.044835030515326
-0.3477,-25.478950510569312
-0.3467000000000001,-24.870624651627345
-0.3457,-24.24815167968673
-0.3447000000000001,-23.682267159740714
-0.3437,-23.1163826397947
-0.3427000000000001,-22.550498119848687
-0.3417,-21.94217226090672
-0.3407000000000001,-21.418729079956652
-0.3397,-20.85284456001064
-0.3387000000000001,-20.371842718056527
-0.3377,-19.805958198110513
-0.3367000000000001,-19.28251501716045
-0.3357,-18.759071836210385
-0.3347000000000001,-18.23562865526032
-0.3337,-17.75462681330621
-0.3327000000000001,-17.231183632356142
-0.3317,-16.750181790402035
-0.3307000000000001,-16.311621287443874
-0.3297,-15.830619445489761
-0.3287000000000001,-15.349617603535648
-0.3277,-14.868615761581536
-0.3267000000000001,-14.444202371622024
-0.3257,-14.002812446064135
-0.3247000000000001,-13.523225315409885
-0.3237,-13.087494235051453
-0.3227000000000001,-12.651763154693022
-0.3217,-12.170761312738911
-0.3207000000000001,-11.73503023238048
-0.3197,-11.343155202317865
-0.3187000000000001,-10.906009410659568
-0.3177,-10.470278330301136
-0.3167000000000001,-10.078403300238522
-0.3157,-9.685113558876042
-0.3147000000000001,-9.293238528813426
-0.3137,-8.899948787450944
-0.3127000000000001,-8.508073757388331
-0.3117,-8.11478401602585
-0.3107000000000001,-7.7653503249591855
-0.3097,-7.4173313451923875
-0.3087000000000001,-7.024041603829907
-0.3077,-6.6760226240631075
-0.3067000000000001,-6.326588932996443
-0.30569999999999997,-5.977155241929781
-0.3047000000000001,-5.672992312458796
-0.30369999999999997,-5.367414671687949
-0.3027000000000001,-5.017980980621284
-0.30169999999999997,-4.712403339850438
-0.3007000000000001,-4.406825699079589
-0.29969999999999997,-4.146518819904423
-0.2987000000000001,-3.840941179133574
-0.29769999999999996,-3.5353635383627267
-0.2967000000000001,-3.273641947887695
-0.29569999999999996,-3.0119203574126634
-0.2947000000000001,-2.7501987669376318
-0.29369999999999996,-2.4884771764625997
-0.29270000000000007,-2.226755585987568
-0.29169999999999996,-2.008890045808352
-0.29070000000000007,-1.8334658446250875
-0.28969999999999996,-1.5717442541500557
-0.28870000000000007,-1.3980177065266295
-0.28769999999999996,-1.1798692240874404
-0.28670000000000007,-1.0054353208140816
-0.28569999999999995,-0.8308599464107361
-0.28470000000000006,-0.6564260431373771
-0.28369999999999995,-0.48199213986401795
-0.28270000000000006,-0.3511313446265021
-0.28169999999999995,-0.1766974413531431
-0.28070000000000006,-0.04582249900262853
-0.27969999999999995,0.08502414912188871
-0.27870000000000006,0.2594580523952477
-0.27769999999999995,0.3903188476327636
-0.27670000000000006,0.4776065348344364
-0.27569999999999995,0.6084673300719523
-0.27470000000000006,0.6956135461436386
-0.27369999999999994,0.8264743413811545
-0.27270000000000005,0.9137620285828272
-0.27169999999999994,1.0010497157844997
-0.27070000000000005,1.1317690398920295
-0.26969999999999994,1.2626298351295453
-0.26870000000000005,1.3934906303670611
-0.26769999999999994,1.4812027309586933
