Potential V vs RHE, Current mA cm-2
0.013299999999999867,-0.08943804837746762
0.012299999999999978,-0.8745745255765657
0.011299999999999866,-1.3980177065266295
0.010299999999999976,-1.8334658446250875
0.009299999999999864,-2.1828995356917518
0.008299999999999974,-2.4446211261667834
0.007299999999999862,-2.7501987669376318
0.006299999999999972,-2.924208256821031
0.00529999999999986,-3.1420737970002466
0.0042999999999999705,-3.361354048479327
0.0032999999999998586,-3.5353635383627267
0.0022999999999999687,-3.7093730282461257
0.0012999999999998568,-3.840941179133574
0.00029999999999996696,-3.971094618721158
-0.000700000000000145,-4.102662769608606
-0.0017000000000000348,-4.23281620919619
-0.0027000000000001467,-4.364384360083638
-0.0037000000000000366,-4.450681749375406
-0.0047000000000001485,-4.582249900262854
-0.005700000000000038,-4.668547289554621
-0.00670000000000015,-4.756259390146253
-0.00770000000000004,-4.800115440442069
-0.008700000000000152,-4.9302688800296535
-0.009700000000000042,-4.974124930325469
-0.010700000000000154,-5.0618370309171015
-0.011700000000000044,-5.105693081212917
-0.012700000000000156,-5.191990470504685
-0.013700000000000045,-5.279702571096316
-0.014700000000000157,-5.323558621392133
-0.015700000000000047,-5.411270721983764
-0.01670000000000016,-5.497568111275533
-0.01770000000000005,-5.585280211867165
-0.01870000000000016,-5.629136262162981
-0.01970000000000005,-5.715433651454749
-0.020700000000000163,-5.80314575204638
-0.021700000000000053,-5.890857852638012
-0.022700000000000164,-5.977155241929781
-0.023700000000000054,-6.108723392817228
-0.024700000000000166,-6.196435493408861
-0.025700000000000056,-6.282732882700628
-0.026700000000000168,-6.414301033588076
-0.027700000000000058,-6.54445447317566
-0.02870000000000017,-6.632166573767292
-0.02970000000000006,-6.762320013354876
-0.03070000000000017,-6.893888164242324
-0.03170000000000006,-7.024041603829907
-0.03270000000000017,-7.111753704421539
-0.03370000000000006,-7.28576319430494
-0.034700000000000175,-7.4173313451923875
-0.035700000000000065,-7.5474847847799715
-0.03670000000000018,-7.722908985963235
-0.03770000000000007,-7.853062425550818
-0.03870000000000018,-8.027071915434218
-0.03970000000000007,-8.202496116617484
-0.04070000000000018,-8.332649556205066
-0.04170000000000007,-8.508073757388331
-0.04270000000000018,-8.68208324727173
-0.04370000000000007,-8.85609273715513
-0.044700000000000184,-9.031516938338395
-0.045700000000000074,-9.161670377925978
-0.046700000000000186,-9.379535918105192
-0.047700000000000076,-9.55496011928846
-0.04870000000000019,-9.772825659467674
-0.04970000000000008,-9.946835149351072
-0.05070000000000019,-10.164700689530287
-0.05170000000000008,-10.382566229709504
-0.05270000000000019,-10.557990430892769
-0.05370000000000008,-10.775855971071984
-0.05470000000000019,-10.993721511251199
-0.05570000000000008,-11.211587051430415
-0.056700000000000195,-11.385596541313816
-0.057700000000000085,-11.604876792792895
-0.058700000000000196,-11.82274233297211
-0.059700000000000086,-12.040607873151327
-0.0607000000000002,-12.302329463626359
-0.06170000000000009,-12.520195003805576
-0.0627000000000002,-12.781916594280606
-0.06370000000000009,-12.99978213445982
-0.0647000000000002,-13.30535977523067
-0.06570000000000009,-13.567081365705702
-0.0667000000000002,-13.872659006476551
-0.0677000000000001,-14.217848563643619
-0.0687000000000002,-14.529085049613924
-0.0697000000000001,-14.826174422585586
-0.07070000000000021,-15.179852247551842
-0.0717000000000001,-15.533530072518102
-0.07270000000000021,-15.830619445489761
-0.0737000000000001,-16.184297270456018
-0.07470000000000021,-16.495533756426326
-0.0757000000000001,-16.792623129397985
-0.07670000000000021,-17.103859615368293
-0.0777000000000001,-17.358507649344002
-0.07870000000000021,-17.669744135314307
-0.0797000000000001,-17.881950830294063
-0.08070000000000022,-18.15074597726842
-0.0817000000000001,-18.40539401124413
-0.08270000000000022,-18.631747819222536
-0.08370000000000011,-18.80151317520634
-0.08470000000000022,-19.01371987018609
-0.08570000000000011,-19.2400736781645
-0.08670000000000022,-19.409839034148305
-0.08770000000000011,-19.537163051136158
-0.08870000000000022,-19.763516859114564
-0.08970000000000011,-19.890840876102416
-0.09070000000000022,-20.01816489309027
-0.09170000000000011,-20.159636023076775
-0.09270000000000023,-20.244518701068674
-0.09370000000000012,-20.371842718056527
-0.09470000000000023,-20.456725396048434
-0.09570000000000012,-20.541608074040333
-0.09670000000000023,-20.626490752032236
-0.09770000000000012,-20.72552054302279
-0.09870000000000023,-20.810403221014692
-0.09970000000000012,-20.85284456001064
-0.10070000000000023,-20.89528589900659
-0.10170000000000012,-20.93772723800254
-0.10270000000000024,-20.980168576998494
-0.10370000000000013,-20.980168576998494
-0.10470000000000024,-21.022609915994444
-0.10570000000000013,-21.065051254990397
-0.10670000000000024,-21.065051254990397
-0.10770000000000013,-21.107492593986347
-0.10870000000000024,-21.149933932982297
-0.10970000000000013,-21.149933932982297
-0.11070000000000024,-21.2065223849769
-0.11170000000000013,-21.2065223849769
-0.11270000000000002,-21.2065223849769
-0.11370000000000013,-21.2065223849769
-0.11470000000000002,-21.2065223849769
-0.11570000000000014,-21.248963723972853
-0.11670000000000003,-21.248963723972853
-0.11770000000000014,-21.248963723972853
-0.11870000000000003,-21.248963723972853
-0.11970000000000014,-21.248963723972853
-0.12070000000000003,-21.248963723972853
-0.12170000000000014,-21.291405062968803
-0.12270000000000003,-21.291405062968803
-0.12370000000000014,-21.291405062968803
-0.12470000000000003,-21.291405062968803
-0.12570000000000014,-21.291405062968803
-0.12670000000000003,-21.248963723972853
-0.12770000000000015,-21.248963723972853
-0.12870000000000004,-21.2065223849769
-0.12970000000000015,-21.2065223849769
-0.13070000000000004,-21.2065223849769
-0.13170000000000015,-21.149933932982297
-0.13270000000000004,-21.149933932982297
-0.13370000000000015,-21.107492593986347
-0.13470000000000004,-21.107492593986347
-0.13570000000000015,-21.107492593986347
-0.13670000000000004,-21.065051254990397
-0.13770000000000016,-21.022609915994444
-0.13870000000000005,-21.022609915994444
-0.13970000000000016,-21.022609915994444
-0.14070000000000005,-21.022609915994444
-0.14170000000000016,-21.022609915994444
-0.14270000000000005,-20.980168576998494
-0.14370000000000016,-20.980168576998494
-0.14470000000000005,-20.980168576998494
-0.14570000000000016,-20.980168576998494
-0.14670000000000005,-20.980168576998494
-0.14770000000000016,-20.980168576998494
-0.14870000000000005,-20.980168576998494
-0.14970000000000017,-20.980168576998494
-0.15070000000000006,-20.93772723800254
-0.15170000000000017,-20.93772723800254
-0.15270000000000006,-20.93772723800254
-0.15370000000000017,-20.93772723800254
-0.15470000000000006,-20.93772723800254
-0.15570000000000017,-20.93772723800254
-0.15670000000000006,-20.89528589900659
-0.15770000000000017,-20.89528589900659
-0.15870000000000006,-20.89528589900659
-0.15970000000000018,-20.89528589900659
-0.16070000000000007,-20.89528589900659
-0.16170000000000018,-20.89528589900659
-0.16270000000000007,-20.89528589900659
-0.16370000000000018,-20.89528589900659
-0.16470000000000007,-20.89528589900659
-0.16570000000000018,-20.89528589900659
-0.16670000000000007,-20.89528589900659
-0.16770000000000018,-20.89528589900659
-0.16870000000000007,-20.89528589900659
-0.16970000000000018,-20.93772723800254
-0.17070000000000007,-20.93772723800254
-0.17170000000000019,-20.93772723800254
-0.17270000000000008,-20.93772723800254
-0.1737000000000002,-20.980168576998494
-0.17470000000000008,-20.980168576998494
-0.1757000000000002,-20.980168576998494
-0.17670000000000008,-21.022609915994444
-0.1777000000000002,-21.022609915994444
-0.17870000000000008,-21.022609915994444
-0.1797000000000002,-20.980168576998494
-0.18070000000000008,-21.022609915994444
-0.1817000000000002,-21.022609915994444
-0.18270000000000008,-21.022609915994444
-0.1837000000000002,-21.022609915994444
-0.1847000000000001,-21.022609915994444
-0.1857000000000002,-21.022609915994444
-0.1867000000000001,-21.022609915994444
-0.1877000000000002,-21.022609915994444
-0.1887000000000001,-21.065051254990397
-0.1897000000000002,-21.065051254990397
-0.1907000000000001,-21.107492593986347
-0.1917000000000001,-21.107492593986347
-0.19269999999999998,-21.149933932982297
-0.1937000000000001,-21.149933932982297
-0.19469999999999998,-21.2065223849769
-0.1957000000000001,-21.2065223849769
-0.19669999999999999,-21.248963723972853
-0.1977000000000001,-21.291405062968803
-0.1987,-21.291405062968803
-0.1997000000000001,-21.291405062968803
-0.2007,-21.333846401964752
-0.2017000000000001,-21.376287740960702
-0.2027,-21.376287740960702
-0.2037000000000001,-21.418729079956652
-0.2047,-21.418729079956652
-0.2057000000000001,-21.461170418952605
-0.2067,-21.461170418952605
-0.2077000000000001,-21.503611757948562
-0.2087,-21.503611757948562
-0.2097000000000001,-21.54605309694451
-0.2107,-21.54605309694451
-0.2117000000000001,-21.58849443594046
-0.2127,-21.58849443594046
-0.2137000000000001,-21.63093577493641
-0.2147,-21.67337711393236
-0.2157000000000001,-21.772406904922917
-0.2167,-21.814848243918867
-0.21770000000000012,-21.814848243918867
-0.2187,-21.857289582914817
-0.21970000000000012,-21.857289582914817
-0.2207,-21.899730921910766
-0.22170000000000012,-21.94217226090672
-0.2227,-21.98461359990267
-0.22370000000000012,-22.069496277894572
-0.2247,-22.111937616890522
-0.22570000000000012,-22.15437895588647
-0.2267,-22.196820294882425
-0.22770000000000012,-22.295850085872978
-0.22870000000000001,-22.33829142486893
-0.22970000000000013,-22.33829142486893
-0.23070000000000002,-22.42317410286083
-0.23170000000000013,-22.46561544185678
-0.23270000000000002,-22.508056780852733
-0.23370000000000013,-22.550498119848687
-0.23470000000000002,-22.592939458844636
-0.23570000000000013,-22.63538079784059
-0.23670000000000002,-22.72026347583249
-0.2376999999999999,-22.776851927827092
-0.23870000000000002,-22.861734605818995
-0.2396999999999999,-22.904175944814945
-0.24070000000000003,-22.989058622806844
-0.24169999999999991,-23.031499961802798
-0.24270000000000003,-23.073941300798747
-0.24369999999999992,-23.15882397879065
-0.24470000000000003,-23.24370665678255
-0.24569999999999992,-23.300295108777156
-0.24670000000000003,-23.385177786769056
-0.24769999999999992,-23.47006046476096
-0.24870000000000003,-23.55494314275286
-0.24969999999999992,-23.639825820744765
-0.25070000000000003,-23.724708498736668
-0.2516999999999999,-23.86617962872317
-0.25270000000000004,-23.908620967719123
-0.2536999999999999,-23.993503645711023
-0.25470000000000004,-24.078386323702922
-0.2556999999999999,-24.120827662698876
-0.25670000000000004,-24.20571034069078
-0.25769999999999993,-24.290593018682678
-0.25870000000000004,-24.389622809673234
-0.25969999999999993,-24.516946826661083
-0.26070000000000004,-24.601829504652986
-0.26169999999999993,-24.686712182644893
-0.26270000000000004,-24.771594860636792
-0.26369999999999993,-24.9130659906233
-0.26470000000000005,-24.997948668615198
-0.26569999999999994,-25.12527268560305
-0.26670000000000005,-25.252596702590903
-0.26769999999999994,-25.39406783257741
-0.26870000000000005,-25.478950510569312
-0.26969999999999994,-25.60627452755716
-0.27070000000000005,-25.73359854454502
-0.27169999999999994,-25.86092256153287
-0.27270000000000005,-26.044835030515326
-0.27369999999999994,-26.129717708507226
-0.27470000000000006,-26.257041725495082
-0.27569999999999995,-26.38436574248293
-0.27670000000000006,-26.525836872469437
-0.27769999999999995,-26.65316088945729
-0.27870000000000006,-26.780484906445146
-0.27969999999999995,-26.907808923433
-0.28070000000000006,-27.091721392415455
-0.28169999999999995,-27.219045409403304
-0.28270000000000006,-27.34636942639116
-0.28369999999999995,-27.530281895373616
-0.28470000000000006,-27.65760591236147
-0.28569999999999995,-27.827371268345274
-0.28670000000000007,-27.954695285333123
-0.28769999999999996,-28.13860775431558
-0.28870000000000007,-28.308373110299385
-0.28969999999999996,-28.478138466283188
-0.29070000000000007,-28.619609596269694
-0.29169999999999996,-28.831816291249446
-0.29270000000000007,-29.001581647233255
-0.29369999999999996,-29.18549411621571
-0.2947000000000001,-29.39770081119546
-0.29569999999999996,-29.581613280177915
-0.2967000000000001,-29.836261314153624
-0.29769999999999996,-30.00602667013743
-0.2987000000000001,-30.232380478115836
-0.29969999999999997,-30.444587173095588
-0.3007000000000001,-30.614352529079397
-0.30169999999999997,-30.79826499806185
-0.3027000000000001,-31.010471693041605
-0.30369999999999997,-31.23682550102001
-0.3047000000000001,-31.449032195999767
-0.30569999999999997,-31.717827342974125
-0.3067000000000001,-31.930034037953877
-0.3077,-32.14224073293363
-0.3087000000000001,-32.368594540912035
-0.3097,-32.58080123589179
-0.3107000000000001,-32.84959638286615
-0.3117,-33.10424441684186
-0.3127000000000001,-33.373039563816214
-0.3137,-33.627687597791926
-0.3147000000000001,-33.85404140577033
-0.3157,-34.15113077874198
-0.3167000000000001,-34.41992592571634
-0.3177,-34.717015298688004
-0.3187000000000001,-35.02825178465831
-0.3197,-35.32534115762997
-0.3207000000000001,-35.636577643600276
-0.3217,-35.90537279057463
-0.3227000000000001,-36.16002082455034
-0.3237,-36.47125731052064
-0.3247000000000001,-36.725905344496354
-0.3257,-37.037141830466666
-0.3267000000000001,-37.291789864442364
-0.3277,-37.60302635041268
-0.3287000000000001,-37.90011572338433
-0.3297,-38.253793548350586
-0.3307000000000001,-38.5650300343209
-0.3317,-38.86211940729255
-0.3327000000000001,-39.21579723225882
-0.3337,-39.51288660523048
-0.3347000000000001,-39.86656443019674
-0.3357,-40.177800916167044
-0.3367000000000001,-40.51733162813464
-0.3377,-40.87100945310091
-0.3387000000000001,-41.22468727806717
-0.3397,-41.606659329030734
-0.3407000000000001,-41.96033715399699
-0.3417,-42.3564563179592
-0.3427000000000001,-42.71013414292546
-0.3437,-43.09210619388902
-0.3447000000000001,-43.48822535785123
-0.3457,-43.88434452181344
-0.3467000000000001,-44.28046368577565
-0.3477,-44.704877075735155
-0.3487000000000001,-45.10099623969737
-0.3497,-45.497115403659585
-0.3507000000000001,-45.93567590661774
-0.3517,-46.3176479575813
-0.3527000000000001,-46.75620846053947
-0.3537,-47.15232762450167
-0.3547000000000001,-47.590888127459834
-0.3557,-48.029448630417996
-0.35670000000000013,-48.45386202037751
-0.3577,-48.84998118433972
-0.35870000000000013,-49.33098302629383
-0.3597,-49.72710219025603
-0.36070000000000013,-50.1656626932142
-0.3617,-50.64666453516831
-0.3626999999999999,-51.071077925127824
-0.3637,-51.509638428085985
-0.3646999999999999,-51.948198931044146
-0.3657,-52.42920077299826
-0.3666999999999999,-52.91020261495237
-0.3677,-53.433645795902436
-0.3686999999999999,-53.9570889768525
-0.36970000000000003,-54.480532157802564
-0.3706999999999999,-55.003975338752625
-0.37170000000000003,-55.527418519702685
-0.3726999999999999,-56.008420361656796
-0.37370000000000003,-56.53186354260687
-0.3746999999999999,-57.012865384560975
-0.37570000000000003,-57.57874990450699
-0.3766999999999999,-58.05975174646111
-0.37770000000000004,-58.62563626640712
-0.3786999999999999,-59.19152078635314
-0.37970000000000004,-59.757405306299155
-0.3806999999999999,-60.32328982624517
-0.38170000000000004,-60.889174346191176
-0.38269999999999993,-61.49750020513315
-0.38370000000000004,-62.06338472507916
-0.38469999999999993,-62.68585769701977
-0.38570000000000004,-63.251742216965795
-0.38669999999999993,-62.89806439199953
-0.38570000000000004,-60.889174346191176
-0.38469999999999993,-59.14907944735718
-0.38370000000000004,-57.493867226515086
-0.38269999999999993,-55.96597902266086
-0.38170000000000004,-54.52297349679851
-0.3806999999999999,-53.16485064892808
-0.37970000000000004,-51.86331625305225
-0.3786999999999999,-50.68910587416426
-0.37770000000000004,-49.557336834272235
-0.3766999999999999,-48.45386202037751
-0.37570000000000003,-47.40697565847737
-0.3746999999999999,-46.41667774857186
-0.37370000000000003,-45.412232725667685
-0.3726999999999999,-44.4926703807554
-0.37170000000000003,-43.57310803584313
-0.3706999999999999,-42.71013414292546
-0.36970000000000003,-41.87545447600508
-0.3686999999999999,-41.04077480908471
-0.3677,-40.220242255162994
-0.3666999999999999,-39.42800392723857
-0.3657,-38.777236729300654
-0.3646999999999999,-38.04158685337084
-0.3637,-37.291789864442364
-0.3626999999999999,-36.5985813275085
-0.3617,-35.90537279057463
-0.36070000000000013,-35.15557580164616
-0.3597,-34.50480860370825
-0.35870000000000013,-33.81160006677438
-0.3577,-33.10424441684186
-0.35670000000000013,-32.45347721890394
-0.3557,-31.76026868197007
-0.3547000000000001,-31.095354371033505
-0.3537,-30.487028512091538
-0.3527000000000001,-29.836261314153624
-0.3517,-29.22793545521166
-0.3507000000000001,-28.619609596269694
-0.3497,-28.05372507632368
-0.3487000000000001,-27.43125210438306
-0.3477,-26.86536758443705
-0.3467000000000001,-26.29948306449103
-0.3457,-25.73359854454502
-0.3447000000000001,-25.167714024599
-0.3437,-24.601829504652986
-0.3427000000000001,-24.035944984706973
-0.3417,-23.51250180375691
-0.3407000000000001,-22.946617283810895
-0.3397,-22.38073276386488
-0.3387000000000001,-21.857289582914817
-0.3377,-21.333846401964752
-0.3367000000000001,-20.810403221014692
-0.3357,-20.286960040064624
-0.3347000000000001,-19.805958198110513
-0.3337,-19.28251501716045
-0.3327000000000001,-18.80151317520634
-0.3317,-18.27806999425627
-0.3307000000000001,-17.797068152302163
-0.3297,-17.316066310348052
-0.3287000000000001,-16.835064468393938
-0.3277,-16.396503965435777
-0.3267000000000001,-15.91550212348166
-0.3257,-15.491088733522153
-0.3247000000000001,-15.01008689156804
-0.3237,-14.57152638860988
-0.3227000000000001,-14.13438059695158
-0.3217,-13.698649516593148
-0.3207000000000001,-13.261503724934855
-0.3197,-12.869628694872238
-0.3187000000000001,-12.432482903213943
-0.3177,-11.996751822855511
-0.3167000000000001,-11.604876792792895
-0.3157,-11.1677310011346
-0.3147000000000001,-10.775855971071984
-0.3137,-10.382566229709504
-0.3127000000000001,-9.99069119964689
-0.3117,-9.59740145828441
-0.3107000000000001,-9.205526428221793
-0.3097,-8.85609273715513
-0.3087000000000001,-8.464217707092514
-0.3077,-8.11478401602585
-0.3067000000000001,-7.7653503249591855
-0.30569999999999997,-7.37347529489657
-0.3047000000000001,-7.024041603829907
-0.30369999999999997,-6.719878674358924
-0.3027000000000001,-6.37044498329226
-0.30169999999999997,-6.064867342521412
-0.3007000000000001,-5.759289701750564
-0.29969999999999997,-5.411270721983764
-0.2987000000000001,-5.105693081212917
-0.29769999999999996,-4.800115440442069
-0.2967000000000001,-4.494537799671222
-0.29569999999999996,-4.23281620919619
-0.2947000000000001,-3.927238568425342
-0.29369999999999996,-3.6655169779503103
-0.29270000000000007,-3.403795387475278
-0.29169999999999996,-3.1420737970002466
-0.29070000000000007,-2.8803522065252145
-0.28969999999999996,-2.662486666345999
-0.28870000000000007,-2.4007650758709675
-0.28769999999999996,-2.1828995356917518
-0.28670000000000007,-1.92117794521672
-0.28569999999999995,-1.7471684553333202
-0.28470000000000006,-1.5293029151541047
-0.28369999999999995,-1.3107300193249565
-0.28270000000000006,-1.1362961160515976
-0.28169999999999995,-0.9617207416482519
-0.28070000000000006,-0.7872868383748929
-0.27969999999999995,-0.6564260431373771
-0.27870000000000006,-0.48199213986401795
-0.27769999999999995,-0.30755823659065895
-0.27670000000000006,-0.2202705493889862
-0.27569999999999995,-0.04582249900262853
-0.27470000000000006,0.04140859974704963
-0.27369999999999994,0.17231183632356148
-0.27270000000000005,0.3031726315610774
-0.27169999999999994,0.43403342679859325
-0.27070000000000005,0.5647527509061226
-0.26969999999999994,0.6520404381077953
-0.26870000000000005,0.7393281253094681
-0.26769999999999994,0.870188920546984
