Aug. 18, 2024   17:48:02
Cyclic Voltammetry
File: c:/users/guazh/data/20240813_batch_94_500/2024-08-15-exp124\exp124-2024-08-18t17_42_28-h2koh\exp124_cv_sr_50mvs_efin_-1400mv.bin
Data Source:  Experiment
Instrument Model:  CHI760E
Header: CV ran at 50 mVs
Note: 

Init E (V) = -1
High E (V) = -1
Low E (V) = -1.4
Final E (V) = -1
Init P/N = N
Scan Rate (V/s) = 0.05
Segment = 3
Sample Interval (V) = 0.001
Quiet Time (sec) = 2
Sensitivity (A/V) = 0.01
Comp R (ohm) = 1.6

Results:

Channel 1:
Segment 1:

Segment 2:

Segment 3:

Potential/V, Current/A

-1.000, -2.226e-5
-1.001, -7.549e-6
-1.002, 1.685e-6
-1.003, 8.650e-6
-1.004, 1.451e-5
-1.005, 1.917e-5
-1.006, 2.276e-5
-1.007, 2.583e-5
-1.008, 2.821e-5
-1.009, 3.040e-5
-1.010, 3.233e-5
-1.011, 3.373e-5
-1.012, 3.518e-5
-1.013, 3.664e-5
-1.014, 3.781e-5
-1.015, 3.928e-5
-1.016, 4.042e-5
-1.017, 4.168e-5
-1.018, 4.320e-5
-1.019, 4.457e-5
-1.020, 4.621e-5
-1.021, 4.764e-5
-1.022, 4.937e-5
-1.023, 5.136e-5
-1.024, 5.350e-5
-1.025, 5.545e-5
-1.026, 5.753e-5
-1.027, 5.949e-5
-1.028, 6.190e-5
-1.029, 6.432e-5
-1.030, 6.681e-5
-1.031, 6.935e-5
-1.032, 7.167e-5
-1.033, 7.410e-5
-1.034, 7.667e-5
-1.035, 7.892e-5
-1.036, 8.134e-5
-1.037, 8.356e-5
-1.038, 8.580e-5
-1.039, 8.826e-5
-1.040, 9.014e-5
-1.041, 9.216e-5
-1.042, 9.398e-5
-1.043, 9.580e-5
-1.044, 9.765e-5
-1.045, 9.917e-5
-1.046, 1.009e-4
-1.047, 1.023e-4
-1.048, 1.037e-4
-1.049, 1.052e-4
-1.050, 1.064e-4
-1.051, 1.075e-4
-1.052, 1.086e-4
-1.053, 1.096e-4
-1.054, 1.106e-4
-1.055, 1.114e-4
-1.056, 1.123e-4
-1.057, 1.129e-4
-1.058, 1.137e-4
-1.059, 1.142e-4
-1.060, 1.149e-4
-1.061, 1.152e-4
-1.062, 1.155e-4
-1.063, 1.162e-4
-1.064, 1.163e-4
-1.065, 1.168e-4
-1.066, 1.171e-4
-1.067, 1.172e-4
-1.068, 1.178e-4
-1.069, 1.178e-4
-1.070, 1.182e-4
-1.071, 1.184e-4
-1.072, 1.184e-4
-1.073, 1.186e-4
-1.074, 1.188e-4
-1.075, 1.192e-4
-1.076, 1.194e-4
-1.077, 1.195e-4
-1.078, 1.196e-4
-1.079, 1.199e-4
-1.080, 1.201e-4
-1.081, 1.200e-4
-1.082, 1.204e-4
-1.083, 1.204e-4
-1.084, 1.209e-4
-1.085, 1.207e-4
-1.086, 1.211e-4
-1.087, 1.211e-4
-1.088, 1.212e-4
-1.089, 1.215e-4
-1.090, 1.217e-4
-1.091, 1.218e-4
-1.092, 1.220e-4
-1.093, 1.222e-4
-1.094, 1.223e-4
-1.095, 1.225e-4
-1.096, 1.225e-4
-1.097, 1.228e-4
-1.098, 1.229e-4
-1.099, 1.233e-4
-1.100, 1.235e-4
-1.101, 1.236e-4
-1.102, 1.238e-4
-1.103, 1.240e-4
-1.104, 1.242e-4
-1.105, 1.245e-4
-1.106, 1.246e-4
-1.107, 1.252e-4
-1.108, 1.255e-4
-1.109, 1.257e-4
-1.110, 1.259e-4
-1.111, 1.264e-4
-1.112, 1.263e-4
-1.113, 1.269e-4
-1.114, 1.273e-4
-1.115, 1.277e-4
-1.116, 1.282e-4
-1.117, 1.280e-4
-1.118, 1.285e-4
-1.119, 1.290e-4
-1.120, 1.294e-4
-1.121, 1.297e-4
-1.122, 1.299e-4
-1.123, 1.306e-4
-1.124, 1.313e-4
-1.125, 1.318e-4
-1.126, 1.325e-4
-1.127, 1.329e-4
-1.128, 1.335e-4
-1.129, 1.340e-4
-1.130, 1.346e-4
-1.131, 1.350e-4
-1.132, 1.354e-4
-1.133, 1.360e-4
-1.134, 1.365e-4
-1.135, 1.372e-4
-1.136, 1.377e-4
-1.137, 1.383e-4
-1.138, 1.389e-4
-1.139, 1.397e-4
-1.140, 1.404e-4
-1.141, 1.409e-4
-1.142, 1.414e-4
-1.143, 1.420e-4
-1.144, 1.425e-4
-1.145, 1.434e-4
-1.146, 1.440e-4
-1.147, 1.445e-4
-1.148, 1.453e-4
-1.149, 1.457e-4
-1.150, 1.465e-4
-1.151, 1.477e-4
-1.152, 1.482e-4
-1.153, 1.490e-4
-1.154, 1.497e-4
-1.155, 1.504e-4
-1.156, 1.512e-4
-1.157, 1.519e-4
-1.158, 1.527e-4
-1.159, 1.535e-4
-1.160, 1.540e-4
-1.161, 1.551e-4
-1.162, 1.559e-4
-1.163, 1.569e-4
-1.164, 1.581e-4
-1.165, 1.589e-4
-1.166, 1.599e-4
-1.167, 1.607e-4
-1.168, 1.618e-4
-1.169, 1.628e-4
-1.170, 1.641e-4
-1.171, 1.652e-4
-1.172, 1.662e-4
-1.173, 1.676e-4
-1.174, 1.687e-4
-1.175, 1.703e-4
-1.176, 1.712e-4
-1.177, 1.728e-4
-1.178, 1.745e-4
-1.179, 1.758e-4
-1.180, 1.771e-4
-1.181, 1.785e-4
-1.182, 1.798e-4
-1.183, 1.812e-4
-1.184, 1.826e-4
-1.185, 1.845e-4
-1.186, 1.859e-4
-1.187, 1.877e-4
-1.188, 1.895e-4
-1.189, 1.912e-4
-1.190, 1.930e-4
-1.191, 1.953e-4
-1.192, 1.968e-4
-1.193, 1.988e-4
-1.194, 2.008e-4
-1.195, 2.031e-4
-1.196, 2.052e-4
-1.197, 2.074e-4
-1.198, 2.097e-4
-1.199, 2.122e-4
-1.200, 2.147e-4
-1.201, 2.170e-4
-1.202, 2.193e-4
-1.203, 2.221e-4
-1.204, 2.248e-4
-1.205, 2.276e-4
-1.206, 2.301e-4
-1.207, 2.334e-4
-1.208, 2.356e-4
-1.209, 2.399e-4
-1.210, 2.432e-4
-1.211, 2.462e-4
-1.212, 2.496e-4
-1.213, 2.524e-4
-1.214, 2.558e-4
-1.215, 2.592e-4
-1.216, 2.634e-4
-1.217, 2.675e-4
-1.218, 2.715e-4
-1.219, 2.753e-4
-1.220, 2.795e-4
-1.221, 2.840e-4
-1.222, 2.886e-4
-1.223, 2.938e-4
-1.224, 2.982e-4
-1.225, 3.025e-4
-1.226, 3.074e-4
-1.227, 3.121e-4
-1.228, 3.182e-4
-1.229, 3.243e-4
-1.230, 3.295e-4
-1.231, 3.354e-4
-1.232, 3.404e-4
-1.233, 3.471e-4
-1.234, 3.532e-4
-1.235, 3.604e-4
-1.236, 3.660e-4
-1.237, 3.731e-4
-1.238, 3.796e-4
-1.239, 3.875e-4
-1.240, 3.948e-4
-1.241, 4.015e-4
-1.242, 4.094e-4
-1.243, 4.171e-4
-1.244, 4.253e-4
-1.245, 4.326e-4
-1.246, 4.409e-4
-1.247, 4.506e-4
-1.248, 4.589e-4
-1.249, 4.689e-4
-1.250, 4.773e-4
-1.251, 4.880e-4
-1.252, 4.973e-4
-1.253, 5.076e-4
-1.254, 5.170e-4
-1.255, 5.273e-4
-1.256, 5.376e-4
-1.257, 5.495e-4
-1.258, 5.603e-4
-1.259, 5.729e-4
-1.260, 5.839e-4
-1.261, 5.968e-4
-1.262, 6.078e-4
-1.263, 6.210e-4
-1.264, 6.318e-4
-1.265, 6.455e-4
-1.266, 6.584e-4
-1.267, 6.732e-4
-1.268, 6.864e-4
-1.269, 7.002e-4
-1.270, 7.134e-4
-1.271, 7.292e-4
-1.272, 7.432e-4
-1.273, 7.590e-4
-1.274, 7.752e-4
-1.275, 7.910e-4
-1.276, 8.078e-4
-1.277, 8.217e-4
-1.278, 8.382e-4
-1.279, 8.541e-4
-1.280, 8.717e-4
-1.281, 8.881e-4
-1.282, 9.052e-4
-1.283, 9.215e-4
-1.284, 9.393e-4
-1.285, 9.603e-4
-1.286, 9.776e-4
-1.287, 9.971e-4
-1.288, 1.015e-3
-1.289, 1.037e-3
-1.290, 1.055e-3
-1.291, 1.072e-3
-1.292, 1.091e-3
-1.293, 1.112e-3
-1.294, 1.132e-3
-1.295, 1.155e-3
-1.296, 1.176e-3
-1.297, 1.196e-3
-1.298, 1.217e-3
-1.299, 1.235e-3
-1.300, 1.261e-3
-1.301, 1.282e-3
-1.302, 1.305e-3
-1.303, 1.327e-3
-1.304, 1.351e-3
-1.305, 1.377e-3
-1.306, 1.399e-3
-1.307, 1.424e-3
-1.308, 1.447e-3
-1.309, 1.473e-3
-1.310, 1.497e-3
-1.311, 1.525e-3
-1.312, 1.549e-3
-1.313, 1.576e-3
-1.314, 1.602e-3
-1.315, 1.631e-3
-1.316, 1.656e-3
-1.317, 1.686e-3
-1.318, 1.708e-3
-1.319, 1.737e-3
-1.320, 1.764e-3
-1.321, 1.793e-3
-1.322, 1.818e-3
-1.323, 1.851e-3
-1.324, 1.879e-3
-1.325, 1.913e-3
-1.326, 1.940e-3
-1.327, 1.968e-3
-1.328, 1.997e-3
-1.329, 2.028e-3
-1.330, 2.062e-3
-1.331, 2.097e-3
-1.332, 2.135e-3
-1.333, 2.161e-3
-1.334, 2.194e-3
-1.335, 2.220e-3
-1.336, 2.258e-3
-1.337, 2.296e-3
-1.338, 2.330e-3
-1.339, 2.363e-3
-1.340, 2.398e-3
-1.341, 2.426e-3
-1.342, 2.464e-3
-1.343, 2.500e-3
-1.344, 2.534e-3
-1.345, 2.573e-3
-1.346, 2.605e-3
-1.347, 2.648e-3
-1.348, 2.681e-3
-1.349, 2.722e-3
-1.350, 2.757e-3
-1.351, 2.794e-3
-1.352, 2.835e-3
-1.353, 2.870e-3
-1.354, 2.907e-3
-1.355, 2.943e-3
-1.356, 2.990e-3
-1.357, 3.033e-3
-1.358, 3.078e-3
-1.359, 3.121e-3
-1.360, 3.167e-3
-1.361, 3.201e-3
-1.362, 3.243e-3
-1.363, 3.284e-3
-1.364, 3.328e-3
-1.365, 3.376e-3
-1.366, 3.416e-3
-1.367, 3.464e-3
-1.368, 3.501e-3
-1.369, 3.550e-3
-1.370, 3.594e-3
-1.371, 3.642e-3
-1.372, 3.677e-3
-1.373, 3.727e-3
-1.374, 3.769e-3
-1.375, 3.825e-3
-1.376, 3.865e-3
-1.377, 3.921e-3
-1.378, 3.959e-3
-1.379, 4.018e-3
-1.380, 4.057e-3
-1.381, 4.114e-3
-1.382, 4.155e-3
-1.383, 4.213e-3
-1.384, 4.254e-3
-1.385, 4.316e-3
-1.386, 4.358e-3
-1.387, 4.418e-3
-1.388, 4.458e-3
-1.389, 4.519e-3
-1.390, 4.559e-3
-1.391, 4.624e-3
-1.392, 4.660e-3
-1.393, 4.716e-3
-1.394, 4.759e-3
-1.395, 4.826e-3
-1.396, 4.890e-3
-1.397, 4.954e-3
-1.398, 5.011e-3
-1.399, 5.072e-3
-1.400, 5.040e-3
-1.399, 4.977e-3
-1.398, 4.908e-3
-1.397, 4.865e-3
-1.396, 4.819e-3
-1.395, 4.764e-3
-1.394, 4.715e-3
-1.393, 4.661e-3
-1.392, 4.612e-3
-1.391, 4.563e-3
-1.390, 4.506e-3
-1.389, 4.461e-3
-1.388, 4.411e-3
-1.387, 4.365e-3
-1.386, 4.326e-3
-1.385, 4.266e-3
-1.384, 4.212e-3
-1.383, 4.161e-3
-1.382, 4.120e-3
-1.381, 4.074e-3
-1.380, 4.026e-3
-1.379, 3.982e-3
-1.378, 3.927e-3
-1.377, 3.890e-3
-1.376, 3.846e-3
-1.375, 3.793e-3
-1.374, 3.753e-3
-1.373, 3.706e-3
-1.372, 3.656e-3
-1.371, 3.609e-3
-1.370, 3.560e-3
-1.369, 3.513e-3
-1.368, 3.474e-3
-1.367, 3.427e-3
-1.366, 3.387e-3
-1.365, 3.347e-3
-1.364, 3.306e-3
-1.363, 3.260e-3
-1.362, 3.204e-3
-1.361, 3.165e-3
-1.360, 3.121e-3
-1.359, 3.086e-3
-1.358, 3.043e-3
-1.357, 3.002e-3
-1.356, 2.966e-3
-1.355, 2.923e-3
-1.354, 2.890e-3
-1.353, 2.845e-3
-1.352, 2.810e-3
-1.351, 2.764e-3
-1.350, 2.730e-3
-1.349, 2.692e-3
-1.348, 2.652e-3
-1.347, 2.616e-3
-1.346, 2.579e-3
-1.345, 2.540e-3
-1.344, 2.504e-3
-1.343, 2.467e-3
-1.342, 2.430e-3
-1.341, 2.393e-3
-1.340, 2.360e-3
-1.339, 2.323e-3
-1.338, 2.291e-3
-1.337, 2.254e-3
-1.336, 2.222e-3
-1.335, 2.187e-3
-1.334, 2.154e-3
-1.333, 2.123e-3
-1.332, 2.090e-3
-1.331, 2.059e-3
-1.330, 2.022e-3
-1.329, 1.993e-3
-1.328, 1.960e-3
-1.327, 1.930e-3
-1.326, 1.895e-3
-1.325, 1.864e-3
-1.324, 1.828e-3
-1.323, 1.807e-3
-1.322, 1.777e-3
-1.321, 1.750e-3
-1.320, 1.716e-3
-1.319, 1.690e-3
-1.318, 1.660e-3
-1.317, 1.631e-3
-1.316, 1.601e-3
-1.315, 1.570e-3
-1.314, 1.543e-3
-1.313, 1.511e-3
-1.312, 1.484e-3
-1.311, 1.456e-3
-1.310, 1.429e-3
-1.309, 1.404e-3
-1.308, 1.380e-3
-1.307, 1.350e-3
-1.306, 1.327e-3
-1.305, 1.301e-3
-1.304, 1.278e-3
-1.303, 1.255e-3
-1.302, 1.227e-3
-1.301, 1.205e-3
-1.300, 1.179e-3
-1.299, 1.157e-3
-1.298, 1.133e-3
-1.297, 1.111e-3
-1.296, 1.088e-3
-1.295, 1.065e-3
-1.294, 1.042e-3
-1.293, 1.021e-3
-1.292, 9.994e-4
-1.291, 9.777e-4
-1.290, 9.599e-4
-1.289, 9.368e-4
-1.288, 9.156e-4
-1.287, 8.945e-4
-1.286, 8.737e-4
-1.285, 8.566e-4
-1.284, 8.352e-4
-1.283, 8.173e-4
-1.282, 7.957e-4
-1.281, 7.750e-4
-1.280, 7.575e-4
-1.279, 7.377e-4
-1.278, 7.212e-4
-1.277, 7.039e-4
-1.276, 6.842e-4
-1.275, 6.691e-4
-1.274, 6.504e-4
-1.273, 6.332e-4
-1.272, 6.175e-4
-1.271, 5.992e-4
-1.270, 5.844e-4
-1.269, 5.686e-4
-1.268, 5.526e-4
-1.267, 5.370e-4
-1.266, 5.220e-4
-1.265, 5.057e-4
-1.264, 4.910e-4
-1.263, 4.766e-4
-1.262, 4.621e-4
-1.261, 4.491e-4
-1.260, 4.341e-4
-1.259, 4.213e-4
-1.258, 4.076e-4
-1.257, 3.947e-4
-1.256, 3.820e-4
-1.255, 3.684e-4
-1.254, 3.563e-4
-1.253, 3.439e-4
-1.252, 3.326e-4
-1.251, 3.212e-4
-1.250, 3.093e-4
-1.249, 2.975e-4
-1.248, 2.862e-4
-1.247, 2.755e-4
-1.246, 2.645e-4
-1.245, 2.543e-4
-1.244, 2.440e-4
-1.243, 2.338e-4
-1.242, 2.240e-4
-1.241, 2.141e-4
-1.240, 2.052e-4
-1.239, 1.962e-4
-1.238, 1.871e-4
-1.237, 1.781e-4
-1.236, 1.692e-4
-1.235, 1.608e-4
-1.234, 1.530e-4
-1.233, 1.445e-4
-1.232, 1.369e-4
-1.231, 1.293e-4
-1.230, 1.220e-4
-1.229, 1.142e-4
-1.228, 1.071e-4
-1.227, 1.006e-4
-1.226, 9.412e-5
-1.225, 8.749e-5
-1.224, 8.158e-5
-1.223, 7.532e-5
-1.222, 6.950e-5
-1.221, 6.389e-5
-1.220, 5.847e-5
-1.219, 5.336e-5
-1.218, 4.822e-5
-1.217, 4.334e-5
-1.216, 3.871e-5
-1.215, 3.418e-5
-1.214, 2.998e-5
-1.213, 2.600e-5
-1.212, 2.203e-5
-1.211, 1.846e-5
-1.210, 1.520e-5
-1.209, 1.187e-5
-1.208, 8.720e-6
-1.207, 5.691e-6
-1.206, 2.800e-6
-1.205, 3.236e-7
-1.204, -2.153e-6
-1.203, -4.994e-6
-1.202, -7.293e-6
-1.201, -9.809e-6
-1.200, -1.189e-5
-1.199, -1.392e-5
-1.198, -1.635e-5
-1.197, -1.830e-5
-1.196, -2.033e-5
-1.195, -2.228e-5
-1.194, -2.403e-5
-1.193, -2.608e-5
-1.192, -2.777e-5
-1.191, -2.933e-5
-1.190, -3.103e-5
-1.189, -3.242e-5
-1.188, -3.411e-5
-1.187, -3.556e-5
-1.186, -3.686e-5
-1.185, -3.827e-5
-1.184, -3.932e-5
-1.183, -4.068e-5
-1.182, -4.208e-5
-1.181, -4.297e-5
-1.180, -4.418e-5
-1.179, -4.530e-5
-1.178, -4.658e-5
-1.177, -4.773e-5
-1.176, -4.858e-5
-1.175, -4.963e-5
-1.174, -5.040e-5
-1.173, -5.145e-5
-1.172, -5.252e-5
-1.171, -5.336e-5
-1.170, -5.423e-5
-1.169, -5.526e-5
-1.168, -5.603e-5
-1.167, -5.720e-5
-1.166, -5.809e-5
-1.165, -5.887e-5
-1.164, -6.001e-5
-1.163, -6.093e-5
-1.162, -6.199e-5
-1.161, -6.287e-5
-1.160, -6.375e-5
-1.159, -6.488e-5
-1.158, -6.607e-5
-1.157, -6.730e-5
-1.156, -6.836e-5
-1.155, -6.982e-5
-1.154, -7.115e-5
-1.153, -7.260e-5
-1.152, -7.427e-5
-1.151, -7.576e-5
-1.150, -7.746e-5
-1.149, -7.905e-5
-1.148, -8.112e-5
-1.147, -8.317e-5
-1.146, -8.558e-5
-1.145, -8.831e-5
-1.144, -9.123e-5
-1.143, -9.494e-5
-1.142, -9.945e-5
-1.141, -1.042e-4
-1.140, -1.095e-4
-1.139, -1.151e-4
-1.138, -1.208e-4
-1.137, -1.263e-4
-1.136, -1.311e-4
-1.135, -1.358e-4
-1.134, -1.393e-4
-1.133, -1.428e-4
-1.132, -1.459e-4
-1.131, -1.485e-4
-1.130, -1.503e-4
-1.129, -1.523e-4
-1.128, -1.540e-4
-1.127, -1.557e-4
-1.126, -1.573e-4
-1.125, -1.584e-4
-1.124, -1.595e-4
-1.123, -1.609e-4
-1.122, -1.620e-4
-1.121, -1.634e-4
-1.120, -1.642e-4
-1.119, -1.652e-4
-1.118, -1.664e-4
-1.117, -1.672e-4
-1.116, -1.682e-4
-1.115, -1.691e-4
-1.114, -1.702e-4
-1.113, -1.713e-4
-1.112, -1.722e-4
-1.111, -1.728e-4
-1.110, -1.739e-4
-1.109, -1.744e-4
-1.108, -1.755e-4
-1.107, -1.764e-4
-1.106, -1.773e-4
-1.105, -1.782e-4
-1.104, -1.789e-4
-1.103, -1.796e-4
-1.102, -1.808e-4
-1.101, -1.812e-4
-1.100, -1.821e-4
-1.099, -1.827e-4
-1.098, -1.835e-4
-1.097, -1.845e-4
-1.096, -1.851e-4
-1.095, -1.859e-4
-1.094, -1.867e-4
-1.093, -1.873e-4
-1.092, -1.881e-4
-1.091, -1.888e-4
-1.090, -1.896e-4
-1.089, -1.900e-4
-1.088, -1.909e-4
-1.087, -1.916e-4
-1.086, -1.926e-4
-1.085, -1.928e-4
-1.084, -1.937e-4
-1.083, -1.944e-4
-1.082, -1.950e-4
-1.081, -1.957e-4
-1.080, -1.963e-4
-1.079, -1.972e-4
-1.078, -1.975e-4
-1.077, -1.985e-4
-1.076, -1.992e-4
-1.075, -1.999e-4
-1.074, -2.001e-4
-1.073, -2.009e-4
-1.072, -2.014e-4
-1.071, -2.022e-4
-1.070, -2.028e-4
-1.069, -2.033e-4
-1.068, -2.040e-4
-1.067, -2.045e-4
-1.066, -2.054e-4
-1.065, -2.061e-4
-1.064, -2.062e-4
-1.063, -2.066e-4
-1.062, -2.079e-4
-1.061, -2.084e-4
-1.060, -2.088e-4
-1.059, -2.096e-4
-1.058, -2.099e-4
-1.057, -2.110e-4
-1.056, -2.115e-4
-1.055, -2.123e-4
-1.054, -2.127e-4
-1.053, -2.137e-4
-1.052, -2.143e-4
-1.051, -2.149e-4
-1.050, -2.157e-4
-1.049, -2.163e-4
-1.048, -2.168e-4
-1.047, -2.175e-4
-1.046, -2.187e-4
-1.045, -2.192e-4
-1.044, -2.202e-4
-1.043, -2.207e-4
-1.042, -2.216e-4
-1.041, -2.224e-4
-1.040, -2.229e-4
-1.039, -2.237e-4
-1.038, -2.246e-4
-1.037, -2.252e-4
-1.036, -2.261e-4
-1.035, -2.268e-4
-1.034, -2.274e-4
-1.033, -2.286e-4
-1.032, -2.291e-4
-1.031, -2.302e-4
-1.030, -2.308e-4
-1.029, -2.314e-4
-1.028, -2.320e-4
-1.027, -2.332e-4
-1.026, -2.339e-4
-1.025, -2.347e-4
-1.024, -2.358e-4
-1.023, -2.364e-4
-1.022, -2.374e-4
-1.021, -2.379e-4
-1.020, -2.388e-4
-1.019, -2.395e-4
-1.018, -2.404e-4
-1.017, -2.413e-4
-1.016, -2.418e-4
-1.015, -2.429e-4
-1.014, -2.433e-4
-1.013, -2.443e-4
-1.012, -2.454e-4
-1.011, -2.465e-4
-1.010, -2.472e-4
-1.009, -2.478e-4
-1.008, -2.486e-4
-1.007, -2.498e-4
-1.006, -2.508e-4
-1.005, -2.516e-4
-1.004, -2.523e-4
-1.003, -2.534e-4
-1.002, -2.545e-4
-1.001, -2.555e-4
