Aug. 18, 2024   17:49:57
Cyclic Voltammetry
File: c:/users/guazh/data/20240813_batch_94_500/2024-08-15-exp124\exp124-2024-08-18t17_42_28-h2koh\exp124_cv_sr_500mvs_efin_-1400mv.bin
Data Source:  Experiment
Instrument Model:  CHI760E
Header: CV ran at 500 mVs
Note: 

Init E (V) = -1
High E (V) = -1
Low E (V) = -1.4
Final E (V) = -1
Init P/N = N
Scan Rate (V/s) = 0.5
Segment = 3
Sample Interval (V) = 0.001
Quiet Time (sec) = 2
Sensitivity (A/V) = 0.01
Comp R (ohm) = 1.6

Results:

Channel 1:
Segment 1:
Ep = -1.111V
ip = 3.448e-4A
Ah = 3.061e-5C

Segment 2:

Segment 3:

Potential/V, Current/A

-1.000, 6.322e-6
-1.001, 5.257e-5
-1.002, 8.340e-5
-1.003, 1.081e-4
-1.004, 1.266e-4
-1.005, 1.420e-4
-1.006, 1.574e-4
-1.007, 1.697e-4
-1.008, 1.821e-4
-1.009, 1.913e-4
-1.010, 2.006e-4
-1.011, 2.098e-4
-1.012, 2.191e-4
-1.013, 2.252e-4
-1.014, 2.314e-4
-1.015, 2.376e-4
-1.016, 2.437e-4
-1.017, 2.499e-4
-1.018, 2.530e-4
-1.019, 2.591e-4
-1.020, 2.622e-4
-1.021, 2.684e-4
-1.022, 2.715e-4
-1.023, 2.746e-4
-1.024, 2.776e-4
-1.025, 2.838e-4
-1.026, 2.869e-4
-1.027, 2.931e-4
-1.028, 2.992e-4
-1.029, 3.023e-4
-1.030, 3.085e-4
-1.031, 3.115e-4
-1.032, 3.177e-4
-1.033, 3.239e-4
-1.034, 3.300e-4
-1.035, 3.362e-4
-1.036, 3.424e-4
-1.037, 3.516e-4
-1.038, 3.578e-4
-1.039, 3.640e-4
-1.040, 3.701e-4
-1.041, 3.763e-4
-1.042, 3.855e-4
-1.043, 3.948e-4
-1.044, 4.010e-4
-1.045, 4.102e-4
-1.046, 4.195e-4
-1.047, 4.287e-4
-1.048, 4.380e-4
-1.049, 4.472e-4
-1.050, 4.595e-4
-1.051, 4.688e-4
-1.052, 4.811e-4
-1.053, 4.904e-4
-1.054, 4.996e-4
-1.055, 5.150e-4
-1.056, 5.243e-4
-1.057, 5.366e-4
-1.058, 5.489e-4
-1.059, 5.613e-4
-1.060, 5.705e-4
-1.061, 5.829e-4
-1.062, 5.983e-4
-1.063, 6.075e-4
-1.064, 6.199e-4
-1.065, 6.322e-4
-1.066, 6.445e-4
-1.067, 6.569e-4
-1.068, 6.692e-4
-1.069, 6.815e-4
-1.070, 6.939e-4
-1.071, 7.062e-4
-1.072, 7.185e-4
-1.073, 7.339e-4
-1.074, 7.494e-4
-1.075, 7.648e-4
-1.076, 7.833e-4
-1.077, 7.987e-4
-1.078, 8.203e-4
-1.079, 8.357e-4
-1.080, 8.542e-4
-1.081, 8.727e-4
-1.082, 8.912e-4
-1.083, 9.097e-4
-1.084, 9.251e-4
-1.085, 9.405e-4
-1.086, 9.559e-4
-1.087, 9.713e-4
-1.088, 9.868e-4
-1.089, 9.991e-4
-1.090, 1.011e-3
-1.091, 1.024e-3
-1.092, 1.033e-3
-1.093, 1.042e-3
-1.094, 1.048e-3
-1.095, 1.058e-3
-1.096, 1.064e-3
-1.097, 1.070e-3
-1.098, 1.073e-3
-1.099, 1.079e-3
-1.100, 1.082e-3
-1.101, 1.085e-3
-1.102, 1.092e-3
-1.103, 1.095e-3
-1.104, 1.098e-3
-1.105, 1.101e-3
-1.106, 1.104e-3
-1.107, 1.104e-3
-1.108, 1.107e-3
-1.109, 1.107e-3
-1.110, 1.107e-3
-1.111, 1.110e-3
-1.112, 1.110e-3
-1.113, 1.110e-3
-1.114, 1.107e-3
-1.115, 1.107e-3
-1.116, 1.107e-3
-1.117, 1.107e-3
-1.118, 1.107e-3
-1.119, 1.104e-3
-1.120, 1.104e-3
-1.121, 1.104e-3
-1.122, 1.104e-3
-1.123, 1.104e-3
-1.124, 1.104e-3
-1.125, 1.104e-3
-1.126, 1.104e-3
-1.127, 1.101e-3
-1.128, 1.101e-3
-1.129, 1.101e-3
-1.130, 1.098e-3
-1.131, 1.095e-3
-1.132, 1.095e-3
-1.133, 1.092e-3
-1.134, 1.092e-3
-1.135, 1.092e-3
-1.136, 1.092e-3
-1.137, 1.092e-3
-1.138, 1.088e-3
-1.139, 1.088e-3
-1.140, 1.088e-3
-1.141, 1.085e-3
-1.142, 1.088e-3
-1.143, 1.085e-3
-1.144, 1.085e-3
-1.145, 1.085e-3
-1.146, 1.082e-3
-1.147, 1.082e-3
-1.148, 1.082e-3
-1.149, 1.079e-3
-1.150, 1.079e-3
-1.151, 1.076e-3
-1.152, 1.076e-3
-1.153, 1.076e-3
-1.154, 1.079e-3
-1.155, 1.076e-3
-1.156, 1.076e-3
-1.157, 1.076e-3
-1.158, 1.079e-3
-1.159, 1.076e-3
-1.160, 1.076e-3
-1.161, 1.079e-3
-1.162, 1.079e-3
-1.163, 1.076e-3
-1.164, 1.076e-3
-1.165, 1.073e-3
-1.166, 1.076e-3
-1.167, 1.073e-3
-1.168, 1.073e-3
-1.169, 1.076e-3
-1.170, 1.076e-3
-1.171, 1.076e-3
-1.172, 1.076e-3
-1.173, 1.076e-3
-1.174, 1.079e-3
-1.175, 1.079e-3
-1.176, 1.082e-3
-1.177, 1.082e-3
-1.178, 1.082e-3
-1.179, 1.082e-3
-1.180, 1.082e-3
-1.181, 1.082e-3
-1.182, 1.082e-3
-1.183, 1.082e-3
-1.184, 1.082e-3
-1.185, 1.085e-3
-1.186, 1.085e-3
-1.187, 1.085e-3
-1.188, 1.085e-3
-1.189, 1.088e-3
-1.190, 1.088e-3
-1.191, 1.088e-3
-1.192, 1.088e-3
-1.193, 1.092e-3
-1.194, 1.092e-3
-1.195, 1.095e-3
-1.196, 1.098e-3
-1.197, 1.098e-3
-1.198, 1.098e-3
-1.199, 1.098e-3
-1.200, 1.101e-3
-1.201, 1.101e-3
-1.202, 1.101e-3
-1.203, 1.104e-3
-1.204, 1.107e-3
-1.205, 1.107e-3
-1.206, 1.107e-3
-1.207, 1.110e-3
-1.208, 1.110e-3
-1.209, 1.113e-3
-1.210, 1.113e-3
-1.211, 1.116e-3
-1.212, 1.119e-3
-1.213, 1.119e-3
-1.214, 1.122e-3
-1.215, 1.125e-3
-1.216, 1.129e-3
-1.217, 1.132e-3
-1.218, 1.135e-3
-1.219, 1.135e-3
-1.220, 1.138e-3
-1.221, 1.141e-3
-1.222, 1.141e-3
-1.223, 1.144e-3
-1.224, 1.147e-3
-1.225, 1.150e-3
-1.226, 1.153e-3
-1.227, 1.153e-3
-1.228, 1.159e-3
-1.229, 1.166e-3
-1.230, 1.169e-3
-1.231, 1.172e-3
-1.232, 1.175e-3
-1.233, 1.178e-3
-1.234, 1.181e-3
-1.235, 1.187e-3
-1.236, 1.190e-3
-1.237, 1.193e-3
-1.238, 1.196e-3
-1.239, 1.199e-3
-1.240, 1.203e-3
-1.241, 1.206e-3
-1.242, 1.209e-3
-1.243, 1.215e-3
-1.244, 1.218e-3
-1.245, 1.221e-3
-1.246, 1.227e-3
-1.247, 1.230e-3
-1.248, 1.233e-3
-1.249, 1.240e-3
-1.250, 1.243e-3
-1.251, 1.252e-3
-1.252, 1.258e-3
-1.253, 1.264e-3
-1.254, 1.270e-3
-1.255, 1.277e-3
-1.256, 1.280e-3
-1.257, 1.286e-3
-1.258, 1.289e-3
-1.259, 1.298e-3
-1.260, 1.301e-3
-1.261, 1.310e-3
-1.262, 1.317e-3
-1.263, 1.320e-3
-1.264, 1.329e-3
-1.265, 1.332e-3
-1.266, 1.341e-3
-1.267, 1.347e-3
-1.268, 1.357e-3
-1.269, 1.366e-3
-1.270, 1.375e-3
-1.271, 1.381e-3
-1.272, 1.391e-3
-1.273, 1.400e-3
-1.274, 1.406e-3
-1.275, 1.415e-3
-1.276, 1.425e-3
-1.277, 1.431e-3
-1.278, 1.440e-3
-1.279, 1.449e-3
-1.280, 1.458e-3
-1.281, 1.468e-3
-1.282, 1.477e-3
-1.283, 1.486e-3
-1.284, 1.499e-3
-1.285, 1.511e-3
-1.286, 1.523e-3
-1.287, 1.532e-3
-1.288, 1.545e-3
-1.289, 1.557e-3
-1.290, 1.569e-3
-1.291, 1.579e-3
-1.292, 1.594e-3
-1.293, 1.606e-3
-1.294, 1.619e-3
-1.295, 1.631e-3
-1.296, 1.647e-3
-1.297, 1.659e-3
-1.298, 1.671e-3
-1.299, 1.687e-3
-1.300, 1.699e-3
-1.301, 1.711e-3
-1.302, 1.727e-3
-1.303, 1.739e-3
-1.304, 1.758e-3
-1.305, 1.770e-3
-1.306, 1.782e-3
-1.307, 1.798e-3
-1.308, 1.813e-3
-1.309, 1.832e-3
-1.310, 1.847e-3
-1.311, 1.862e-3
-1.312, 1.881e-3
-1.313, 1.896e-3
-1.314, 1.912e-3
-1.315, 1.927e-3
-1.316, 1.946e-3
-1.317, 1.964e-3
-1.318, 1.983e-3
-1.319, 2.001e-3
-1.320, 2.020e-3
-1.321, 2.041e-3
-1.322, 2.063e-3
-1.323, 2.081e-3
-1.324, 2.103e-3
-1.325, 2.124e-3
-1.326, 2.143e-3
-1.327, 2.164e-3
-1.328, 2.186e-3
-1.329, 2.208e-3
-1.330, 2.229e-3
-1.331, 2.248e-3
-1.332, 2.272e-3
-1.333, 2.291e-3
-1.334, 2.316e-3
-1.335, 2.337e-3
-1.336, 2.359e-3
-1.337, 2.383e-3
-1.338, 2.408e-3
-1.339, 2.433e-3
-1.340, 2.457e-3
-1.341, 2.479e-3
-1.342, 2.504e-3
-1.343, 2.528e-3
-1.344, 2.556e-3
-1.345, 2.581e-3
-1.346, 2.605e-3
-1.347, 2.633e-3
-1.348, 2.658e-3
-1.349, 2.686e-3
-1.350, 2.713e-3
-1.351, 2.741e-3
-1.352, 2.772e-3
-1.353, 2.803e-3
-1.354, 2.834e-3
-1.355, 2.864e-3
-1.356, 2.892e-3
-1.357, 2.923e-3
-1.358, 2.954e-3
-1.359, 2.985e-3
-1.360, 3.015e-3
-1.361, 3.046e-3
-1.362, 3.077e-3
-1.363, 3.108e-3
-1.364, 3.139e-3
-1.365, 3.173e-3
-1.366, 3.204e-3
-1.367, 3.237e-3
-1.368, 3.271e-3
-1.369, 3.305e-3
-1.370, 3.342e-3
-1.371, 3.379e-3
-1.372, 3.419e-3
-1.373, 3.453e-3
-1.374, 3.490e-3
-1.375, 3.527e-3
-1.376, 3.561e-3
-1.377, 3.598e-3
-1.378, 3.635e-3
-1.379, 3.672e-3
-1.380, 3.712e-3
-1.381, 3.746e-3
-1.382, 3.786e-3
-1.383, 3.826e-3
-1.384, 3.866e-3
-1.385, 3.910e-3
-1.386, 3.950e-3
-1.387, 3.993e-3
-1.388, 4.033e-3
-1.389, 4.076e-3
-1.390, 4.119e-3
-1.391, 4.165e-3
-1.392, 4.209e-3
-1.393, 4.252e-3
-1.394, 4.295e-3
-1.395, 4.338e-3
-1.396, 4.375e-3
-1.397, 4.418e-3
-1.398, 4.461e-3
-1.399, 4.508e-3
-1.400, 4.486e-3
-1.399, 4.350e-3
-1.398, 4.236e-3
-1.397, 4.132e-3
-1.396, 4.036e-3
-1.395, 3.950e-3
-1.394, 3.866e-3
-1.393, 3.789e-3
-1.392, 3.721e-3
-1.391, 3.657e-3
-1.390, 3.595e-3
-1.389, 3.533e-3
-1.388, 3.472e-3
-1.387, 3.410e-3
-1.386, 3.351e-3
-1.385, 3.293e-3
-1.384, 3.237e-3
-1.383, 3.179e-3
-1.382, 3.126e-3
-1.381, 3.077e-3
-1.380, 3.028e-3
-1.379, 2.975e-3
-1.378, 2.926e-3
-1.377, 2.877e-3
-1.376, 2.830e-3
-1.375, 2.784e-3
-1.374, 2.738e-3
-1.373, 2.695e-3
-1.372, 2.652e-3
-1.371, 2.608e-3
-1.370, 2.565e-3
-1.369, 2.522e-3
-1.368, 2.476e-3
-1.367, 2.433e-3
-1.366, 2.386e-3
-1.365, 2.343e-3
-1.364, 2.300e-3
-1.363, 2.254e-3
-1.362, 2.211e-3
-1.361, 2.168e-3
-1.360, 2.124e-3
-1.359, 2.081e-3
-1.358, 2.041e-3
-1.357, 2.001e-3
-1.356, 1.961e-3
-1.355, 1.927e-3
-1.354, 1.887e-3
-1.353, 1.850e-3
-1.352, 1.816e-3
-1.351, 1.779e-3
-1.350, 1.745e-3
-1.349, 1.708e-3
-1.348, 1.671e-3
-1.347, 1.637e-3
-1.346, 1.600e-3
-1.345, 1.566e-3
-1.344, 1.529e-3
-1.343, 1.495e-3
-1.342, 1.462e-3
-1.341, 1.431e-3
-1.340, 1.397e-3
-1.339, 1.366e-3
-1.338, 1.332e-3
-1.337, 1.301e-3
-1.336, 1.270e-3
-1.335, 1.240e-3
-1.334, 1.209e-3
-1.333, 1.181e-3
-1.332, 1.150e-3
-1.331, 1.119e-3
-1.330, 1.092e-3
-1.329, 1.061e-3
-1.328, 1.033e-3
-1.327, 1.002e-3
-1.326, 9.744e-4
-1.325, 9.467e-4
-1.324, 9.189e-4
-1.323, 8.912e-4
-1.322, 8.634e-4
-1.321, 8.357e-4
-1.320, 8.110e-4
-1.319, 7.863e-4
-1.318, 7.586e-4
-1.317, 7.339e-4
-1.316, 7.093e-4
-1.315, 6.815e-4
-1.314, 6.599e-4
-1.313, 6.353e-4
-1.312, 6.106e-4
-1.311, 5.859e-4
-1.310, 5.613e-4
-1.309, 5.397e-4
-1.308, 5.150e-4
-1.307, 4.935e-4
-1.306, 4.719e-4
-1.305, 4.503e-4
-1.304, 4.318e-4
-1.303, 4.102e-4
-1.302, 3.886e-4
-1.301, 3.670e-4
-1.300, 3.485e-4
-1.299, 3.300e-4
-1.298, 3.115e-4
-1.297, 2.931e-4
-1.296, 2.746e-4
-1.295, 2.561e-4
-1.294, 2.376e-4
-1.293, 2.221e-4
-1.292, 2.067e-4
-1.291, 1.882e-4
-1.290, 1.759e-4
-1.289, 1.605e-4
-1.288, 1.451e-4
-1.287, 1.296e-4
-1.286, 1.173e-4
-1.285, 1.050e-4
-1.284, 9.265e-5
-1.283, 8.032e-5
-1.282, 6.798e-5
-1.281, 5.873e-5
-1.280, 4.949e-5
-1.279, 3.715e-5
-1.278, 2.790e-5
-1.277, 2.174e-5
-1.276, 1.249e-5
-1.275, 3.239e-6
-1.274, -2.927e-6
-1.273, -9.093e-6
-1.272, -1.834e-5
-1.271, -2.451e-5
-1.270, -3.068e-5
-1.269, -3.684e-5
-1.268, -4.301e-5
-1.267, -4.917e-5
-1.266, -5.534e-5
-1.265, -5.842e-5
-1.264, -6.459e-5
-1.263, -7.076e-5
-1.262, -7.692e-5
-1.261, -8.000e-5
-1.260, -8.925e-5
-1.259, -9.234e-5
-1.258, -9.850e-5
-1.257, -1.016e-4
-1.256, -1.078e-4
-1.255, -1.108e-4
-1.254, -1.170e-4
-1.253, -1.232e-4
-1.252, -1.293e-4
-1.251, -1.324e-4
-1.250, -1.355e-4
-1.249, -1.417e-4
-1.248, -1.448e-4
-1.247, -1.509e-4
-1.246, -1.540e-4
-1.245, -1.602e-4
-1.244, -1.632e-4
-1.243, -1.694e-4
-1.242, -1.725e-4
-1.241, -1.756e-4
-1.240, -1.817e-4
-1.239, -1.848e-4
-1.238, -1.879e-4
-1.237, -1.941e-4
-1.236, -1.972e-4
-1.235, -2.033e-4
-1.234, -2.064e-4
-1.233, -2.095e-4
-1.232, -2.126e-4
-1.231, -2.187e-4
-1.230, -2.218e-4
-1.229, -2.249e-4
-1.228, -2.311e-4
-1.227, -2.342e-4
-1.226, -2.372e-4
-1.225, -2.434e-4
-1.224, -2.434e-4
-1.223, -2.496e-4
-1.222, -2.527e-4
-1.221, -2.557e-4
-1.220, -2.619e-4
-1.219, -2.650e-4
-1.218, -2.681e-4
-1.217, -2.712e-4
-1.216, -2.742e-4
-1.215, -2.773e-4
-1.214, -2.804e-4
-1.213, -2.866e-4
-1.212, -2.897e-4
-1.211, -2.927e-4
-1.210, -2.989e-4
-1.209, -2.989e-4
-1.208, -3.051e-4
-1.207, -3.082e-4
-1.206, -3.143e-4
-1.205, -3.174e-4
-1.204, -3.205e-4
-1.203, -3.267e-4
-1.202, -3.328e-4
-1.201, -3.390e-4
-1.200, -3.421e-4
-1.199, -3.482e-4
-1.198, -3.544e-4
-1.197, -3.606e-4
-1.196, -3.698e-4
-1.195, -3.791e-4
-1.194, -3.883e-4
-1.193, -4.037e-4
-1.192, -4.161e-4
-1.191, -4.346e-4
-1.190, -4.531e-4
-1.189, -4.716e-4
-1.188, -4.962e-4
-1.187, -5.178e-4
-1.186, -5.425e-4
-1.185, -5.702e-4
-1.184, -5.918e-4
-1.183, -6.195e-4
-1.182, -6.442e-4
-1.181, -6.658e-4
-1.180, -6.905e-4
-1.179, -7.120e-4
-1.178, -7.336e-4
-1.177, -7.521e-4
-1.176, -7.737e-4
-1.175, -7.922e-4
-1.174, -8.076e-4
-1.173, -8.230e-4
-1.172, -8.354e-4
-1.171, -8.477e-4
-1.170, -8.631e-4
-1.169, -8.754e-4
-1.168, -8.878e-4
-1.167, -8.970e-4
-1.166, -9.063e-4
-1.165, -9.186e-4
-1.164, -9.248e-4
-1.163, -9.309e-4
-1.162, -9.402e-4
-1.161, -9.464e-4
-1.160, -9.556e-4
-1.159, -9.587e-4
-1.158, -9.649e-4
-1.157, -9.679e-4
-1.156, -9.741e-4
-1.155, -9.772e-4
-1.154, -9.803e-4
-1.153, -9.834e-4
-1.152, -9.895e-4
-1.151, -9.895e-4
-1.150, -9.926e-4
-1.149, -9.957e-4
-1.148, -9.957e-4
-1.147, -9.988e-4
-1.146, -9.988e-4
-1.145, -1.005e-3
-1.144, -1.005e-3
-1.143, -1.008e-3
-1.142, -1.008e-3
-1.141, -1.008e-3
-1.140, -1.011e-3
-1.139, -1.011e-3
-1.138, -1.011e-3
-1.137, -1.014e-3
-1.136, -1.011e-3
-1.135, -1.011e-3
-1.134, -1.011e-3
-1.133, -1.011e-3
-1.132, -1.011e-3
-1.131, -1.011e-3
-1.130, -1.008e-3
-1.129, -1.008e-3
-1.128, -1.008e-3
-1.127, -1.008e-3
-1.126, -1.008e-3
-1.125, -1.008e-3
-1.124, -1.008e-3
-1.123, -1.008e-3
-1.122, -1.008e-3
-1.121, -1.005e-3
-1.120, -1.008e-3
-1.119, -1.005e-3
-1.118, -1.005e-3
-1.117, -1.005e-3
-1.116, -1.002e-3
-1.115, -1.002e-3
-1.114, -1.002e-3
-1.113, -9.988e-4
-1.112, -9.988e-4
-1.111, -9.957e-4
-1.110, -9.957e-4
-1.109, -9.957e-4
-1.108, -9.926e-4
-1.107, -9.926e-4
-1.106, -9.926e-4
-1.105, -9.895e-4
-1.104, -9.895e-4
-1.103, -9.864e-4
-1.102, -9.895e-4
-1.101, -9.864e-4
-1.100, -9.895e-4
-1.099, -9.864e-4
-1.098, -9.834e-4
-1.097, -9.834e-4
-1.096, -9.834e-4
-1.095, -9.864e-4
-1.094, -9.834e-4
-1.093, -9.834e-4
-1.092, -9.803e-4
-1.091, -9.803e-4
-1.090, -9.803e-4
-1.089, -9.772e-4
-1.088, -9.772e-4
-1.087, -9.772e-4
-1.086, -9.772e-4
-1.085, -9.772e-4
-1.084, -9.772e-4
-1.083, -9.772e-4
-1.082, -9.772e-4
-1.081, -9.772e-4
-1.080, -9.772e-4
-1.079, -9.772e-4
-1.078, -9.772e-4
-1.077, -9.772e-4
-1.076, -9.772e-4
-1.075, -9.803e-4
-1.074, -9.803e-4
-1.073, -9.803e-4
-1.072, -9.803e-4
-1.071, -9.803e-4
-1.070, -9.803e-4
-1.069, -9.803e-4
-1.068, -9.834e-4
-1.067, -9.834e-4
-1.066, -9.834e-4
-1.065, -9.834e-4
-1.064, -9.834e-4
-1.063, -9.834e-4
-1.062, -9.864e-4
-1.061, -9.864e-4
-1.060, -9.895e-4
-1.059, -9.926e-4
-1.058, -9.926e-4
-1.057, -9.957e-4
-1.056, -9.957e-4
-1.055, -9.988e-4
-1.054, -1.002e-3
-1.053, -1.005e-3
-1.052, -1.008e-3
-1.051, -1.011e-3
-1.050, -1.011e-3
-1.049, -1.017e-3
-1.048, -1.017e-3
-1.047, -1.020e-3
-1.046, -1.023e-3
-1.045, -1.027e-3
-1.044, -1.030e-3
-1.043, -1.033e-3
-1.042, -1.036e-3
-1.041, -1.039e-3
-1.040, -1.045e-3
-1.039, -1.048e-3
-1.038, -1.051e-3
-1.037, -1.057e-3
-1.036, -1.060e-3
-1.035, -1.067e-3
-1.034, -1.070e-3
-1.033, -1.073e-3
-1.032, -1.079e-3
-1.031, -1.079e-3
-1.030, -1.085e-3
-1.029, -1.088e-3
-1.028, -1.091e-3
-1.027, -1.097e-3
-1.026, -1.101e-3
-1.025, -1.104e-3
-1.024, -1.107e-3
-1.023, -1.110e-3
-1.022, -1.116e-3
-1.021, -1.116e-3
-1.020, -1.122e-3
-1.019, -1.128e-3
-1.018, -1.131e-3
-1.017, -1.134e-3
-1.016, -1.138e-3
-1.015, -1.141e-3
-1.014, -1.144e-3
-1.013, -1.144e-3
-1.012, -1.147e-3
-1.011, -1.150e-3
-1.010, -1.153e-3
-1.009, -1.156e-3
-1.008, -1.156e-3
-1.007, -1.159e-3
-1.006, -1.159e-3
-1.005, -1.162e-3
-1.004, -1.165e-3
-1.003, -1.168e-3
-1.002, -1.168e-3
-1.001, -1.175e-3
