Potential V vs RHE, Current mA cm-2
0.013299999999999867,1.6990682711379093
0.012299999999999978,-0.2202705493889862
0.011299999999999866,-2.008890045808352
0.010299999999999976,-3.7093730282461257
0.009299999999999864,-5.367414671687949
0.008299999999999974,-6.93774421453814
0.007299999999999862,-8.464217707092514
0.006299999999999972,-9.946835149351072
0.00529999999999986,-11.385596541313816
0.0042999999999999705,-12.781916594280606
0.0032999999999998586,-14.090524546655764
0.0022999999999999687,-15.3920589425316
0.0012999999999998568,-16.622857773414182
0.00029999999999996696,-17.839509491298113
-0.000700000000000145,-18.97127853119014
-0.0017000000000000348,-20.10304757108217
-0.0027000000000001467,-21.2065223849769
-0.0037000000000000366,-22.33829142486893
-0.0047000000000001485,-23.385177786769056
-0.005700000000000038,-24.432064148669184
-0.00670000000000015,-25.521391849565262
-0.00770000000000004,-26.525836872469437
-0.008700000000000152,-27.530281895373616
-0.009700000000000042,-28.53472691827779
-0.010700000000000154,-29.482583489187363
-0.011700000000000044,-30.402145834099635
-0.012700000000000156,-31.27926684001596
-0.013700000000000045,-32.184682071929586
-0.014700000000000157,-33.01936173884996
-0.015700000000000047,-33.85404140577033
-0.01670000000000016,-34.67457395969205
-0.01770000000000005,-35.50925362661242
-0.01870000000000016,-36.28734484153819
-0.01970000000000005,-37.07958316946261
-0.020700000000000163,-37.85767438438838
-0.021700000000000053,-38.6499127123128
-0.022700000000000164,-39.42800392723857
-0.023700000000000054,-40.135359577171094
-0.024700000000000166,-40.95589213109281
-0.025700000000000056,-41.66324778102533
-0.026700000000000168,-42.39889765695515
-0.027700000000000058,-43.04966485489307
-0.02870000000000017,-43.70043205283099
-0.02970000000000006,-44.4077877027635
-0.03070000000000017,-45.05855490070142
-0.03170000000000006,-45.666880759643384
-0.03270000000000017,-46.3176479575813
-0.03370000000000006,-46.94012092952192
-0.034700000000000175,-47.590888127459834
-0.035700000000000065,-48.1992139864018
-0.03670000000000018,-48.84998118433972
-0.03770000000000007,-49.458307043281685
-0.03870000000000018,-50.12322135421825
-0.03970000000000007,-50.68910587416426
-0.04070000000000018,-51.25499039411028
-0.04170000000000007,-51.82087491405629
-0.04270000000000018,-52.34431809500636
-0.04370000000000007,-52.86776127595642
-0.044700000000000184,-53.348763117910536
-0.045700000000000074,-53.82976495986464
-0.046700000000000186,-54.31076680181876
-0.047700000000000076,-54.73518019177827
-0.04870000000000019,-55.21618203373238
-0.04970000000000008,-55.65474253669055
-0.05070000000000019,-56.13574437864466
-0.05170000000000008,-56.65918755959472
-0.05270000000000019,-57.14018940154883
-0.05370000000000008,-57.62119124350295
-0.05470000000000019,-58.10219308545706
-0.05570000000000008,-58.54075358841522
-0.056700000000000195,-58.97931409137338
-0.057700000000000085,-59.36128614233694
-0.058700000000000196,-59.757405306299155
-0.059700000000000086,-60.15352447026136
-0.0607000000000002,-60.54964363422357
-0.06170000000000009,-60.889174346191176
-0.0627000000000002,-61.242852171157445
-0.06370000000000009,-61.5965299961237
-0.0647000000000002,-61.936060708091304
-0.06570000000000009,-62.33217987205352
-0.0667000000000002,-62.68585769701977
-0.0677000000000001,-63.06782974798333
-0.0687000000000002,-63.421507572949594
-0.0697000000000001,-63.81762673691181
-0.07070000000000021,-64.19959878787537
-0.0717000000000001,-64.59571795183757
-0.07270000000000021,-64.94939577680383
-0.0737000000000001,-65.3030736017701
-0.07470000000000021,-65.60016297474175
-0.0757000000000001,-65.95384079970802
-0.07670000000000021,-66.20848883368372
-0.0777000000000001,-66.56216665864997
-0.07870000000000021,-66.91584448361623
-0.0797000000000001,-67.21293385658788
-0.08070000000000022,-67.52417034255821
-0.0817000000000001,-67.86370105452582
-0.08270000000000022,-68.17493754049613
-0.08370000000000011,-68.52861536546239
-0.08470000000000022,-68.82570473843404
-0.08570000000000011,-69.0944998854084
-0.08670000000000022,-69.3491479193841
-0.08770000000000011,-69.57550172736251
-0.08870000000000022,-69.78770842234226
-0.08970000000000011,-70.01406223032066
-0.09070000000000022,-70.18382758630447
-0.09170000000000011,-70.35359294228827
-0.09270000000000023,-70.53750541127073
-0.09370000000000012,-70.74971210625048
-0.09470000000000023,-70.91947746223428
-0.09570000000000012,-71.06094859222078
-0.09670000000000023,-71.2307139482046
-0.09770000000000012,-71.35803796519245
-0.09870000000000023,-71.48536198218031
-0.09970000000000012,-71.66927445116276
-0.10070000000000023,-71.75415712915466
-0.10170000000000012,-71.83903980714656
-0.10270000000000024,-71.83903980714656
-0.10370000000000013,-71.8814811461425
-0.10470000000000024,-71.92392248513846
-0.10570000000000013,-71.96636382413442
-0.10670000000000024,-71.96636382413442
-0.10770000000000013,-72.00880516313036
-0.10870000000000024,-72.05124650212633
-0.10970000000000013,-72.05124650212633
-0.11070000000000024,-72.10783495412092
-0.11170000000000013,-72.10783495412092
-0.11270000000000002,-72.15027629311687
-0.11370000000000013,-72.19271763211282
-0.11470000000000002,-72.32004164910067
-0.11570000000000014,-72.40492432709259
-0.11670000000000003,-72.48980700508447
-0.11770000000000014,-72.57468968307639
-0.11870000000000003,-72.67371947406694
-0.11970000000000014,-72.80104349105478
-0.12070000000000003,-72.8859261690467
-0.12170000000000014,-72.92836750804264
-0.12270000000000003,-73.0556915250305
-0.12370000000000014,-73.197162655017
-0.12470000000000003,-73.2820453330089
-0.12570000000000014,-73.40936934999675
-0.12670000000000003,-73.53669336698461
-0.12770000000000015,-73.6781644969711
-0.12870000000000004,-73.80548851395896
-0.12970000000000015,-73.89037119195086
-0.13070000000000004,-74.0176952089387
-0.13170000000000015,-74.06013654793468
-0.13270000000000004,-74.10257788693062
-0.13370000000000015,-74.14501922592657
-0.13470000000000004,-74.20160767792116
-0.13570000000000015,-74.20160767792116
-0.13670000000000004,-74.20160767792116
-0.13770000000000016,-74.24404901691713
-0.13870000000000005,-74.24404901691713
-0.13970000000000016,-74.20160767792116
-0.14070000000000005,-74.14501922592657
-0.14170000000000016,-74.10257788693062
-0.14270000000000005,-74.06013654793468
-0.14370000000000016,-73.93281253094682
-0.14470000000000005,-73.8479298529549
-0.14570000000000016,-73.76304717496302
-0.14670000000000005,-73.62157604497652
-0.14770000000000016,-73.49425202798865
-0.14870000000000005,-73.2820453330089
-0.14970000000000017,-73.09813286402644
-0.15070000000000006,-72.92836750804264
-0.15170000000000017,-72.75860215205884
-0.15270000000000006,-72.57468968307639
-0.15370000000000017,-72.40492432709259
-0.15470000000000006,-72.23515897110877
-0.15570000000000017,-72.10783495412092
-0.15670000000000006,-71.92392248513846
-0.15770000000000017,-71.75415712915466
-0.15870000000000006,-71.6268331121668
-0.15970000000000018,-71.48536198218031
-0.16070000000000007,-71.35803796519245
-0.16170000000000018,-71.2307139482046
-0.16270000000000007,-71.06094859222078
-0.16370000000000018,-70.91947746223428
-0.16470000000000007,-70.8345947842424
-0.16570000000000018,-70.74971210625048
-0.16670000000000007,-70.66482942825859
-0.16770000000000018,-70.62238808926263
-0.16870000000000007,-70.62238808926263
-0.16970000000000018,-70.57994675026669
-0.17070000000000007,-70.57994675026669
-0.17170000000000019,-70.57994675026669
-0.17270000000000008,-70.57994675026669
-0.1737000000000002,-70.53750541127073
-0.17470000000000008,-70.57994675026669
-0.1757000000000002,-70.53750541127073
-0.17670000000000008,-70.53750541127073
-0.1777000000000002,-70.48091695927613
-0.17870000000000008,-70.48091695927613
-0.1797000000000002,-70.43847562028017
-0.18070000000000008,-70.39603428128423
-0.1817000000000002,-70.31115160329232
-0.18270000000000008,-70.31115160329232
-0.1837000000000002,-70.26871026429637
-0.1847000000000001,-70.26871026429637
-0.1857000000000002,-70.22626892530042
-0.1867000000000001,-70.22626892530042
-0.1877000000000002,-70.18382758630447
-0.1887000000000001,-70.14138624730852
-0.1897000000000002,-70.09894490831257
-0.1907000000000001,-70.05650356931662
-0.1917000000000001,-69.95747377832606
-0.19269999999999998,-69.87259110033416
-0.1937000000000001,-69.74526708334632
-0.19469999999999998,-69.61794306635846
-0.1957000000000001,-69.43403059737601
-0.19669999999999999,-69.30670658038814
-0.1977000000000001,-69.13694122440434
-0.1987,-68.96717586842054
-0.1997000000000001,-68.78326339943808
-0.2007,-68.65593938245023
-0.2017000000000001,-68.57105670445833
-0.2027,-68.44373268747047
-0.2037000000000001,-68.34470289647993
-0.2047,-68.21737887949207
-0.2057000000000001,-68.13249620150016
-0.2067,-67.96273084551636
-0.2077000000000001,-67.7788183765339
-0.2087,-67.6090530205501
-0.2097000000000001,-67.39684632557035
-0.2107,-67.17049251759194
-0.2117000000000001,-67.04316850060408
-0.2127,-66.9582858226122
-0.2137000000000001,-66.77437335362974
-0.2147,-66.64704933664189
-0.2157000000000001,-66.60460799764593
-0.2167,-66.47728398065809
-0.21770000000000012,-66.34995996367022
-0.2187,-66.16604749468777
-0.21970000000000012,-66.03872347769992
-0.2207,-65.86895812171612
-0.22170000000000012,-65.68504565273366
-0.2227,-65.4728389577539
-0.22370000000000012,-65.2464851497755
-0.2247,-65.03427845479574
-0.22570000000000012,-64.86451309881193
-0.2267,-64.72304196882543
-0.22770000000000012,-64.63815929083353
-0.22870000000000001,-64.55327661284163
-0.22970000000000013,-64.55327661284163
-0.23070000000000002,-64.55327661284163
-0.23170000000000013,-64.59571795183757
-0.23270000000000002,-64.63815929083353
-0.23370000000000013,-64.63815929083353
-0.23470000000000002,-64.68060062982947
-0.23570000000000013,-64.77963042082003
-0.23670000000000002,-64.82207175981598
-0.2376999999999999,-64.82207175981598
-0.23870000000000002,-64.82207175981598
-0.2396999999999999,-64.72304196882543
-0.24070000000000003,-64.68060062982947
-0.24169999999999991,-64.59571795183757
-0.24270000000000003,-64.51083527384567
-0.24369999999999992,-64.51083527384567
-0.24470000000000003,-64.42595259585376
-0.24569999999999992,-64.42595259585376
-0.24670000000000003,-64.38351125685783
-0.24769999999999992,-64.25618723986996
-0.24870000000000003,-64.15715744887942
-0.24969999999999992,-64.0722747708875
-0.25070000000000003,-63.944950753899654
-0.2516999999999999,-63.860068075907755
-0.25270000000000004,-63.732744058919906
-0.2536999999999999,-63.59127292893339
-0.25470000000000004,-63.421507572949594
-0.2556999999999999,-63.20930087796983
-0.25670000000000004,-62.98294706999144
-0.25769999999999993,-62.81318171400764
-0.25870000000000004,-62.64341635802381
-0.25969999999999993,-62.501945228037314
-0.26070000000000004,-62.37462121104946
-0.26169999999999993,-62.24729719406162
-0.26270000000000004,-62.11997317707376
-0.26369999999999993,-61.97850204708726
-0.26470000000000005,-61.89361936909536
-0.26569999999999994,-61.7662953521075
-0.26670000000000005,-61.6814126741156
-0.26769999999999994,-61.5965299961237
-0.26870000000000005,-61.49750020513315
-0.26969999999999994,-61.412617527141244
-0.27070000000000005,-61.28529351015339
-0.27169999999999994,-61.20041083216149
-0.27270000000000005,-61.15796949316553
-0.27369999999999994,-61.11552815416958
-0.27470000000000006,-61.11552815416958
-0.27569999999999995,-61.20041083216149
-0.27670000000000006,-61.242852171157445
-0.27769999999999995,-61.37017618814529
-0.27870000000000006,-61.455058866137186
-0.27969999999999995,-61.5965299961237
-0.28070000000000006,-61.72385401311155
-0.28169999999999995,-61.851178030099405
-0.28270000000000006,-61.936060708091304
-0.28369999999999995,-62.06338472507916
-0.28470000000000006,-62.16241451606972
-0.28569999999999995,-62.24729719406162
-0.28670000000000007,-62.28973853305756
-0.28769999999999996,-62.37462121104946
-0.28870000000000007,-62.459503889041365
-0.28969999999999996,-62.501945228037314
-0.29070000000000007,-62.58682790602922
-0.29169999999999996,-62.68585769701977
-0.29270000000000007,-62.72829903601572
-0.29369999999999996,-62.77074037501168
-0.2947000000000001,-62.81318171400764
-0.29569999999999996,-62.855623053003576
-0.2967000000000001,-62.855623053003576
-0.29769999999999996,-62.81318171400764
-0.2987000000000001,-62.72829903601572
-0.29969999999999997,-62.68585769701977
-0.3007000000000001,-62.501945228037314
-0.30169999999999997,-62.37462121104946
-0.3027000000000001,-62.24729719406162
-0.30369999999999997,-62.06338472507916
-0.3047000000000001,-61.936060708091304
-0.30569999999999997,-61.7662953521075
-0.3067000000000001,-61.5965299961237
-0.3077,-61.412617527141244
-0.3087000000000001,-61.242852171157445
-0.3097,-61.07308681517363
-0.3107000000000001,-60.84673300719523
-0.3117,-60.67696765121143
-0.3127000000000001,-60.45061384323302
-0.3137,-60.28084848724921
-0.3147000000000001,-60.02620045327351
-0.3157,-59.7998466452951
-0.3167000000000001,-59.587639950315335
-0.3177,-59.36128614233694
-0.3187000000000001,-59.23396212534908
-0.3197,-59.06419676936528
-0.3207000000000001,-58.97931409137338
-0.3217,-58.880284300382826
-0.3227000000000001,-58.83784296138688
-0.3237,-58.79540162239092
-0.3247000000000001,-58.79540162239092
-0.3257,-58.83784296138688
-0.3267000000000001,-58.880284300382826
-0.3277,-58.92272563937878
-0.3287000000000001,-59.02175543036933
-0.3297,-59.10663810836124
-0.3307000000000001,-59.19152078635314
-0.3317,-59.27640346434504
-0.3327000000000001,-59.403727481332886
-0.3337,-59.54519861131939
-0.3347000000000001,-59.67252262830725
-0.3357,-59.842287984291055
-0.3367000000000001,-59.9696120012789
-0.3377,-60.11108313126541
-0.3387000000000001,-60.19596580925731
-0.3397,-60.36573116524111
-0.3407000000000001,-60.45061384323302
-0.3417,-60.59208497321952
-0.3427000000000001,-60.63452631221547
-0.3437,-60.67696765121143
-0.3447000000000001,-60.71940899020737
-0.3457,-60.67696765121143
-0.3467000000000001,-60.67696765121143
-0.3477,-60.67696765121143
-0.3487000000000001,-60.63452631221547
-0.3497,-60.59208497321952
-0.3507000000000001,-60.54964363422357
-0.3517,-60.45061384323302
-0.3527000000000001,-60.40817250423707
-0.3537,-60.32328982624517
-0.3547000000000001,-60.19596580925731
-0.3557,-60.15352447026136
-0.35670000000000013,-60.06864179226946
-0.3577,-59.92717066228296
-0.35870000000000013,-59.7998466452951
-0.3597,-59.67252262830725
-0.36070000000000013,-59.54519861131939
-0.3617,-59.36128614233694
-0.3626999999999999,-59.23396212534908
-0.3637,-59.14907944735718
-0.3646999999999999,-59.02175543036933
-0.3657,-58.92272563937878
-0.3666999999999999,-58.880284300382826
-0.3677,-58.79540162239092
-0.3686999999999999,-58.79540162239092
-0.36970000000000003,-58.83784296138688
-0.3706999999999999,-58.79540162239092
-0.37170000000000003,-58.83784296138688
-0.3726999999999999,-58.880284300382826
-0.37370000000000003,-58.92272563937878
-0.3746999999999999,-59.02175543036933
-0.37570000000000003,-59.06419676936528
-0.3766999999999999,-59.14907944735718
-0.37770000000000004,-59.27640346434504
-0.3786999999999999,-59.44616882032884
-0.37970000000000004,-59.67252262830725
-0.3806999999999999,-59.842287984291055
-0.38170000000000004,-60.11108313126541
-0.38269999999999993,-60.32328982624517
-0.38370000000000004,-60.54964363422357
-0.38469999999999993,-60.761850329203334
-0.38570000000000004,-60.974057024183075
-0.38669999999999993,-61.15796949316553
-0.38770000000000004,-61.327734849149344
-0.38869999999999993,-61.455058866137186
-0.38970000000000005,-61.63897133511965
-0.39069999999999994,-61.72385401311155
-0.39170000000000005,-61.80873669110345
-0.39269999999999994,-61.89361936909536
-0.39370000000000005,-61.97850204708726
-0.39469999999999994,-62.06338472507916
-0.39570000000000005,-62.16241451606972
-0.39669999999999994,-62.24729719406162
-0.39770000000000005,-62.33217987205352
-0.39869999999999994,-62.459503889041365
-0.39970000000000006,-62.544386567033264
-0.40069999999999995,-62.64341635802381
-0.40170000000000006,-62.77074037501168
-0.40269999999999995,-62.855623053003576
-0.40370000000000006,-62.94050573099548
-0.40469999999999995,-63.02538840898739
-0.40570000000000006,-63.11027108697928
-0.40669999999999995,-63.20930087796983
-0.40770000000000006,-63.3366248949577
-0.40869999999999995,-63.421507572949594
-0.40970000000000006,-63.54883158993744
-0.41069999999999995,-63.732744058919906
-0.41170000000000007,-63.902509414903705
-0.41269999999999996,-64.0722747708875
-0.41370000000000007,-64.25618723986996
-0.41469999999999996,-64.46839393484973
-0.41570000000000007,-64.63815929083353
-0.41669999999999996,-64.86451309881193
-0.41770000000000007,-65.03427845479574
-0.41869999999999996,-65.20404381077954
-0.4197000000000001,-65.38795627976201
-0.42069999999999996,-65.51528029674984
-0.4217000000000001,-65.64260431373769
-0.42269999999999996,-65.86895812171612
-0.4237000000000001,-66.03872347769992
-0.42469999999999997,-66.25093017267966
-0.4257000000000001,-66.47728398065809
-0.42669999999999997,-66.68949067563783
-0.4277000000000001,-66.9582858226122
-0.42869999999999997,-67.21293385658788
-0.4297000000000001,-67.43928766456631
-0.43069999999999997,-67.693935698542
-0.4317000000000001,-67.9202895065204
-0.4327,-68.17493754049613
-0.4337000000000001,-68.38714423547587
-0.4347,-68.57105670445833
-0.4357000000000001,-68.78326339943808
-0.4367,-69.0096172074165
-0.4377000000000001,-69.22182390239624
-0.4387,-69.4906190493706
-0.4397000000000001,-69.70282574435035
-0.4407,-69.95747377832606
-0.4417000000000001,-70.22626892530042
-0.4427,-70.48091695927613
-0.4437000000000001,-70.74971210625048
-0.4447,-71.06094859222078
-0.4457000000000001,-71.31559662619651
-0.4467,-71.6268331121668
-0.4477000000000001,-71.8814811461425
-0.4487,-72.15027629311687
-0.4497000000000001,-72.40492432709259
-0.4507,-72.67371947406694
-0.4517000000000001,-72.97080884703858
-0.4527,-73.2820453330089
-0.4537000000000001,-73.62157604497652
-0.4547,-73.97525386994278
-0.4557000000000001,-74.37137303390499
-0.4567,-74.80993353686314
-0.4577000000000001,-75.2484940398213
-0.4587,-75.6729074297808
-0.4597000000000001,-76.15390927173492
-0.4607,-76.5924697746931
-0.4617000000000001,-77.0734716166472
-0.4627,-77.55447345860131
-0.4637000000000001,-78.07791663955136
-0.4647,-78.55891848150549
-0.4657000000000001,-79.0399203234596
-0.4667,-79.52092216541372
-0.4677000000000001,-80.00192400736783
-0.4687,-80.52536718831789
-0.4697000000000001,-81.04881036926795
-0.4707,-81.57225355021802
-0.4717000000000001,-82.09569673116808
-0.4727,-82.61913991211814
-0.4737000000000001,-83.14258309306821
-0.4747,-83.60943782202366
-0.4757000000000001,-84.13288100297372
-0.4767,-84.61388284492786
-0.4777000000000001,-85.09488468688197
-0.4787,-85.49100385084417
-0.4797000000000001,-85.92956435380233
-0.4807,-86.36812485676049
-0.48170000000000013,-86.75009690772404
-0.4827,-87.18865741068221
-0.48370000000000013,-87.62721791364037
-0.4847,-88.02333707760259
-0.48570000000000013,-88.5043389195567
-0.4867,-87.49989389665252
-0.48570000000000013,-84.13288100297372
-0.4847,-81.04881036926795
-0.48370000000000013,-78.16279931754329
-0.4827,-75.46070073480107
-0.48170000000000013,-72.97080884703858
-0.4807,-70.57994675026669
-0.4797000000000001,-68.30226155748396
-0.4787,-66.12360615569182
-0.4777000000000001,-64.0722747708875
-0.4767,-62.11997317707376
-0.4757000000000001,-60.28084848724921
-0.4747,-58.54075358841522
-0.4737000000000001,-56.82895291557852
-0.4727,-55.21618203373238
-0.4717000000000001,-53.68829382987814
-0.4707,-52.2169940780185
-0.4697000000000001,-50.85887123014807
-0.4687,-49.50074838227763
-0.4677000000000001,-48.1992139864018
-0.4667,-46.982562268517874
-0.4657000000000001,-45.70932209863933
-0.4647,-44.535111719751356
-0.4637000000000001,-43.36090134086337
-0.4627,-42.229132300971344
-0.4617000000000001,-41.04077480908471
-0.4607,-39.95144710818864
-0.4597000000000001,-38.86211940729255
-0.4587,-37.81523304539243
