Mar. 31, 2025   12:02:54
Cyclic Voltammetry
File: c:/users/guazh/data/banditlqround7_x0exp518_r20/2025-03-28-exp999\exp999-2025-03-31t11_51_53-arkoh\exp999_cv_sr_500mvs_efin_-1500mv.bin
Data Source:  Experiment
Instrument Model:  CHI760E
Header: CV ran at 500 mVs
Note: 

Init E (V) = -1
High E (V) = -1
Low E (V) = -1.5
Final E (V) = -1
Init P/N = N
Scan Rate (V/s) = 0.5
Segment = 3
Sample Interval (V) = 0.001
Quiet Time (sec) = 2
Sensitivity (A/V) = 0.01
Comp R (ohm) = 1.9

Results:

Channel 1:
Segment 1:

Segment 2:

Segment 3:

Potential/V, Current/A

-1.000, 3.407e-5
-1.001, 1.111e-4
-1.002, 1.543e-4
-1.003, 1.851e-4
-1.004, 2.036e-4
-1.005, 2.191e-4
-1.006, 2.314e-4
-1.007, 2.406e-4
-1.008, 2.437e-4
-1.009, 2.468e-4
-1.010, 2.468e-4
-1.011, 2.468e-4
-1.012, 2.468e-4
-1.013, 2.499e-4
-1.014, 2.530e-4
-1.015, 2.561e-4
-1.016, 2.561e-4
-1.017, 2.561e-4
-1.018, 2.530e-4
-1.019, 2.499e-4
-1.020, 2.499e-4
-1.021, 2.499e-4
-1.022, 2.530e-4
-1.023, 2.561e-4
-1.024, 2.561e-4
-1.025, 2.561e-4
-1.026, 2.530e-4
-1.027, 2.530e-4
-1.028, 2.530e-4
-1.029, 2.499e-4
-1.030, 2.530e-4
-1.031, 2.561e-4
-1.032, 2.561e-4
-1.033, 2.561e-4
-1.034, 2.561e-4
-1.035, 2.530e-4
-1.036, 2.530e-4
-1.037, 2.499e-4
-1.038, 2.530e-4
-1.039, 2.561e-4
-1.040, 2.591e-4
-1.041, 2.591e-4
-1.042, 2.561e-4
-1.043, 2.561e-4
-1.044, 2.530e-4
-1.045, 2.530e-4
-1.046, 2.530e-4
-1.047, 2.561e-4
-1.048, 2.561e-4
-1.049, 2.591e-4
-1.050, 2.561e-4
-1.051, 2.561e-4
-1.052, 2.530e-4
-1.053, 2.499e-4
-1.054, 2.499e-4
-1.055, 2.530e-4
-1.056, 2.561e-4
-1.057, 2.561e-4
-1.058, 2.561e-4
-1.059, 2.561e-4
-1.060, 2.530e-4
-1.061, 2.530e-4
-1.062, 2.530e-4
-1.063, 2.530e-4
-1.064, 2.561e-4
-1.065, 2.591e-4
-1.066, 2.591e-4
-1.067, 2.591e-4
-1.068, 2.561e-4
-1.069, 2.530e-4
-1.070, 2.530e-4
-1.071, 2.530e-4
-1.072, 2.561e-4
-1.073, 2.591e-4
-1.074, 2.591e-4
-1.075, 2.591e-4
-1.076, 2.561e-4
-1.077, 2.530e-4
-1.078, 2.530e-4
-1.079, 2.530e-4
-1.080, 2.530e-4
-1.081, 2.561e-4
-1.082, 2.561e-4
-1.083, 2.561e-4
-1.084, 2.561e-4
-1.085, 2.530e-4
-1.086, 2.499e-4
-1.087, 2.530e-4
-1.088, 2.530e-4
-1.089, 2.561e-4
-1.090, 2.591e-4
-1.091, 2.591e-4
-1.092, 2.561e-4
-1.093, 2.561e-4
-1.094, 2.530e-4
-1.095, 2.530e-4
-1.096, 2.530e-4
-1.097, 2.561e-4
-1.098, 2.591e-4
-1.099, 2.591e-4
-1.100, 2.591e-4
-1.101, 2.561e-4
-1.102, 2.561e-4
-1.103, 2.530e-4
-1.104, 2.530e-4
-1.105, 2.530e-4
-1.106, 2.561e-4
-1.107, 2.591e-4
-1.108, 2.591e-4
-1.109, 2.561e-4
-1.110, 2.561e-4
-1.111, 2.530e-4
-1.112, 2.499e-4
-1.113, 2.530e-4
-1.114, 2.530e-4
-1.115, 2.591e-4
-1.116, 2.591e-4
-1.117, 2.561e-4
-1.118, 2.530e-4
-1.119, 2.530e-4
-1.120, 2.530e-4
-1.121, 2.530e-4
-1.122, 2.561e-4
-1.123, 2.591e-4
-1.124, 2.591e-4
-1.125, 2.591e-4
-1.126, 2.561e-4
-1.127, 2.561e-4
-1.128, 2.530e-4
-1.129, 2.530e-4
-1.130, 2.561e-4
-1.131, 2.591e-4
-1.132, 2.591e-4
-1.133, 2.591e-4
-1.134, 2.591e-4
-1.135, 2.561e-4
-1.136, 2.561e-4
-1.137, 2.561e-4
-1.138, 2.561e-4
-1.139, 2.591e-4
-1.140, 2.591e-4
-1.141, 2.622e-4
-1.142, 2.622e-4
-1.143, 2.591e-4
-1.144, 2.561e-4
-1.145, 2.561e-4
-1.146, 2.561e-4
-1.147, 2.591e-4
-1.148, 2.622e-4
-1.149, 2.622e-4
-1.150, 2.622e-4
-1.151, 2.622e-4
-1.152, 2.591e-4
-1.153, 2.591e-4
-1.154, 2.591e-4
-1.155, 2.591e-4
-1.156, 2.653e-4
-1.157, 2.653e-4
-1.158, 2.653e-4
-1.159, 2.653e-4
-1.160, 2.622e-4
-1.161, 2.591e-4
-1.162, 2.591e-4
-1.163, 2.622e-4
-1.164, 2.653e-4
-1.165, 2.684e-4
-1.166, 2.684e-4
-1.167, 2.684e-4
-1.168, 2.653e-4
-1.169, 2.622e-4
-1.170, 2.622e-4
-1.171, 2.622e-4
-1.172, 2.684e-4
-1.173, 2.715e-4
-1.174, 2.715e-4
-1.175, 2.715e-4
-1.176, 2.684e-4
-1.177, 2.684e-4
-1.178, 2.684e-4
-1.179, 2.684e-4
-1.180, 2.715e-4
-1.181, 2.746e-4
-1.182, 2.746e-4
-1.183, 2.746e-4
-1.184, 2.746e-4
-1.185, 2.746e-4
-1.186, 2.715e-4
-1.187, 2.715e-4
-1.188, 2.746e-4
-1.189, 2.776e-4
-1.190, 2.807e-4
-1.191, 2.838e-4
-1.192, 2.807e-4
-1.193, 2.807e-4
-1.194, 2.807e-4
-1.195, 2.807e-4
-1.196, 2.807e-4
-1.197, 2.838e-4
-1.198, 2.900e-4
-1.199, 2.900e-4
-1.200, 2.900e-4
-1.201, 2.900e-4
-1.202, 2.900e-4
-1.203, 2.900e-4
-1.204, 2.900e-4
-1.205, 2.931e-4
-1.206, 2.961e-4
-1.207, 2.992e-4
-1.208, 2.992e-4
-1.209, 2.992e-4
-1.210, 2.992e-4
-1.211, 2.961e-4
-1.212, 2.992e-4
-1.213, 2.992e-4
-1.214, 3.054e-4
-1.215, 3.085e-4
-1.216, 3.085e-4
-1.217, 3.115e-4
-1.218, 3.115e-4
-1.219, 3.115e-4
-1.220, 3.115e-4
-1.221, 3.146e-4
-1.222, 3.208e-4
-1.223, 3.239e-4
-1.224, 3.270e-4
-1.225, 3.270e-4
-1.226, 3.270e-4
-1.227, 3.270e-4
-1.228, 3.300e-4
-1.229, 3.331e-4
-1.230, 3.362e-4
-1.231, 3.424e-4
-1.232, 3.424e-4
-1.233, 3.485e-4
-1.234, 3.485e-4
-1.235, 3.485e-4
-1.236, 3.516e-4
-1.237, 3.516e-4
-1.238, 3.578e-4
-1.239, 3.609e-4
-1.240, 3.670e-4
-1.241, 3.701e-4
-1.242, 3.732e-4
-1.243, 3.732e-4
-1.244, 3.763e-4
-1.245, 3.794e-4
-1.246, 3.825e-4
-1.247, 3.886e-4
-1.248, 3.948e-4
-1.249, 4.010e-4
-1.250, 4.040e-4
-1.251, 4.040e-4
-1.252, 4.071e-4
-1.253, 4.102e-4
-1.254, 4.133e-4
-1.255, 4.195e-4
-1.256, 4.256e-4
-1.257, 4.318e-4
-1.258, 4.380e-4
-1.259, 4.410e-4
-1.260, 4.441e-4
-1.261, 4.472e-4
-1.262, 4.503e-4
-1.263, 4.595e-4
-1.264, 4.657e-4
-1.265, 4.750e-4
-1.266, 4.811e-4
-1.267, 4.842e-4
-1.268, 4.873e-4
-1.269, 4.935e-4
-1.270, 4.965e-4
-1.271, 5.058e-4
-1.272, 5.150e-4
-1.273, 5.243e-4
-1.274, 5.305e-4
-1.275, 5.366e-4
-1.276, 5.428e-4
-1.277, 5.459e-4
-1.278, 5.520e-4
-1.279, 5.582e-4
-1.280, 5.705e-4
-1.281, 5.798e-4
-1.282, 5.890e-4
-1.283, 5.983e-4
-1.284, 6.044e-4
-1.285, 6.137e-4
-1.286, 6.168e-4
-1.287, 6.291e-4
-1.288, 6.384e-4
-1.289, 6.507e-4
-1.290, 6.630e-4
-1.291, 6.754e-4
-1.292, 6.846e-4
-1.293, 6.908e-4
-1.294, 7.000e-4
-1.295, 7.093e-4
-1.296, 7.216e-4
-1.297, 7.339e-4
-1.298, 7.463e-4
-1.299, 7.586e-4
-1.300, 7.709e-4
-1.301, 7.833e-4
-1.302, 7.925e-4
-1.303, 8.018e-4
-1.304, 8.141e-4
-1.305, 8.326e-4
-1.306, 8.449e-4
-1.307, 8.603e-4
-1.308, 8.727e-4
-1.309, 8.850e-4
-1.310, 8.973e-4
-1.311, 9.097e-4
-1.312, 9.251e-4
-1.313, 9.436e-4
-1.314, 9.590e-4
-1.315, 9.775e-4
-1.316, 9.960e-4
-1.317, 1.008e-3
-1.318, 1.024e-3
-1.319, 1.036e-3
-1.320, 1.051e-3
-1.321, 1.070e-3
-1.322, 1.092e-3
-1.323, 1.110e-3
-1.324, 1.132e-3
-1.325, 1.150e-3
-1.326, 1.169e-3
-1.327, 1.184e-3
-1.328, 1.203e-3
-1.329, 1.221e-3
-1.330, 1.243e-3
-1.331, 1.264e-3
-1.332, 1.286e-3
-1.333, 1.307e-3
-1.334, 1.329e-3
-1.335, 1.347e-3
-1.336, 1.366e-3
-1.337, 1.388e-3
-1.338, 1.412e-3
-1.339, 1.437e-3
-1.340, 1.462e-3
-1.341, 1.486e-3
-1.342, 1.508e-3
-1.343, 1.532e-3
-1.344, 1.554e-3
-1.345, 1.582e-3
-1.346, 1.610e-3
-1.347, 1.637e-3
-1.348, 1.668e-3
-1.349, 1.696e-3
-1.350, 1.724e-3
-1.351, 1.751e-3
-1.352, 1.779e-3
-1.353, 1.807e-3
-1.354, 1.835e-3
-1.355, 1.865e-3
-1.356, 1.896e-3
-1.357, 1.927e-3
-1.358, 1.961e-3
-1.359, 1.989e-3
-1.360, 2.017e-3
-1.361, 2.047e-3
-1.362, 2.078e-3
-1.363, 2.112e-3
-1.364, 2.146e-3
-1.365, 2.177e-3
-1.366, 2.211e-3
-1.367, 2.245e-3
-1.368, 2.275e-3
-1.369, 2.306e-3
-1.370, 2.337e-3
-1.371, 2.374e-3
-1.372, 2.411e-3
-1.373, 2.445e-3
-1.374, 2.482e-3
-1.375, 2.522e-3
-1.376, 2.556e-3
-1.377, 2.593e-3
-1.378, 2.630e-3
-1.379, 2.670e-3
-1.380, 2.710e-3
-1.381, 2.753e-3
-1.382, 2.797e-3
-1.383, 2.837e-3
-1.384, 2.877e-3
-1.385, 2.920e-3
-1.386, 2.960e-3
-1.387, 3.003e-3
-1.388, 3.046e-3
-1.389, 3.093e-3
-1.390, 3.139e-3
-1.391, 3.182e-3
-1.392, 3.225e-3
-1.393, 3.265e-3
-1.394, 3.305e-3
-1.395, 3.348e-3
-1.396, 3.388e-3
-1.397, 3.435e-3
-1.398, 3.481e-3
-1.399, 3.527e-3
-1.400, 3.573e-3
-1.401, 3.620e-3
-1.402, 3.666e-3
-1.403, 3.715e-3
-1.404, 3.768e-3
-1.405, 3.820e-3
-1.406, 3.869e-3
-1.407, 3.919e-3
-1.408, 3.968e-3
-1.409, 4.017e-3
-1.410, 4.064e-3
-1.411, 4.110e-3
-1.412, 4.162e-3
-1.413, 4.212e-3
-1.414, 4.264e-3
-1.415, 4.317e-3
-1.416, 4.369e-3
-1.417, 4.418e-3
-1.418, 4.471e-3
-1.419, 4.523e-3
-1.420, 4.579e-3
-1.421, 4.631e-3
-1.422, 4.690e-3
-1.423, 4.748e-3
-1.424, 4.807e-3
-1.425, 4.859e-3
-1.426, 4.915e-3
-1.427, 4.970e-3
-1.428, 5.026e-3
-1.429, 5.084e-3
-1.430, 5.143e-3
-1.431, 5.201e-3
-1.432, 5.260e-3
-1.433, 5.319e-3
-1.434, 5.371e-3
-1.435, 5.426e-3
-1.436, 5.482e-3
-1.437, 5.537e-3
-1.438, 5.599e-3
-1.439, 5.658e-3
-1.440, 5.716e-3
-1.441, 5.772e-3
-1.442, 5.830e-3
-1.443, 5.886e-3
-1.444, 5.944e-3
-1.445, 6.003e-3
-1.446, 6.065e-3
-1.447, 6.129e-3
-1.448, 6.194e-3
-1.449, 6.259e-3
-1.450, 6.327e-3
-1.451, 6.395e-3
-1.452, 6.462e-3
-1.453, 6.530e-3
-1.454, 6.604e-3
-1.455, 6.675e-3
-1.456, 6.746e-3
-1.457, 6.817e-3
-1.458, 6.885e-3
-1.459, 6.949e-3
-1.460, 7.008e-3
-1.461, 7.070e-3
-1.462, 7.131e-3
-1.463, 7.193e-3
-1.464, 7.252e-3
-1.465, 7.304e-3
-1.466, 7.363e-3
-1.467, 7.421e-3
-1.468, 7.474e-3
-1.469, 7.526e-3
-1.470, 7.578e-3
-1.471, 7.634e-3
-1.472, 7.689e-3
-1.473, 7.754e-3
-1.474, 7.822e-3
-1.475, 7.890e-3
-1.476, 7.967e-3
-1.477, 8.041e-3
-1.478, 8.112e-3
-1.479, 8.183e-3
-1.480, 8.254e-3
-1.481, 8.321e-3
-1.482, 8.392e-3
-1.483, 8.460e-3
-1.484, 8.534e-3
-1.485, 8.602e-3
-1.486, 8.673e-3
-1.487, 8.741e-3
-1.488, 8.809e-3
-1.489, 8.873e-3
-1.490, 8.938e-3
-1.491, 9.003e-3
-1.492, 9.068e-3
-1.493, 9.132e-3
-1.494, 9.197e-3
-1.495, 9.265e-3
-1.496, 9.339e-3
-1.497, 9.428e-3
-1.498, 9.493e-3
-1.499, 9.555e-3
-1.500, 9.542e-3
-1.499, 9.428e-3
-1.498, 9.336e-3
-1.497, 9.246e-3
-1.496, 9.169e-3
-1.495, 9.098e-3
-1.494, 9.028e-3
-1.493, 8.960e-3
-1.492, 8.895e-3
-1.491, 8.827e-3
-1.490, 8.759e-3
-1.489, 8.685e-3
-1.488, 8.621e-3
-1.487, 8.556e-3
-1.486, 8.485e-3
-1.485, 8.408e-3
-1.484, 8.334e-3
-1.483, 8.275e-3
-1.482, 8.201e-3
-1.481, 8.112e-3
-1.480, 8.044e-3
-1.479, 7.976e-3
-1.478, 7.899e-3
-1.477, 7.819e-3
-1.476, 7.748e-3
-1.475, 7.674e-3
-1.474, 7.588e-3
-1.473, 7.514e-3
-1.472, 7.449e-3
-1.471, 7.393e-3
-1.470, 7.335e-3
-1.469, 7.273e-3
-1.468, 7.205e-3
-1.467, 7.159e-3
-1.466, 7.101e-3
-1.465, 7.023e-3
-1.464, 6.962e-3
-1.463, 6.894e-3
-1.462, 6.832e-3
-1.461, 6.761e-3
-1.460, 6.694e-3
-1.459, 6.632e-3
-1.458, 6.561e-3
-1.457, 6.490e-3
-1.456, 6.428e-3
-1.455, 6.370e-3
-1.454, 6.308e-3
-1.453, 6.243e-3
-1.452, 6.210e-3
-1.451, 6.154e-3
-1.450, 6.080e-3
-1.449, 6.021e-3
-1.448, 5.954e-3
-1.447, 5.901e-3
-1.446, 5.833e-3
-1.445, 5.753e-3
-1.444, 5.692e-3
-1.443, 5.630e-3
-1.442, 5.562e-3
-1.441, 5.473e-3
-1.440, 5.408e-3
-1.439, 5.346e-3
-1.438, 5.269e-3
-1.437, 5.208e-3
-1.436, 5.152e-3
-1.435, 5.100e-3
-1.434, 5.050e-3
-1.433, 5.007e-3
-1.432, 4.949e-3
-1.431, 4.899e-3
-1.430, 4.841e-3
-1.429, 4.804e-3
-1.428, 4.754e-3
-1.427, 4.708e-3
-1.426, 4.662e-3
-1.425, 4.609e-3
-1.424, 4.563e-3
-1.423, 4.514e-3
-1.422, 4.452e-3
-1.421, 4.403e-3
-1.420, 4.360e-3
-1.419, 4.310e-3
-1.418, 4.258e-3
-1.417, 4.202e-3
-1.416, 4.135e-3
-1.415, 4.085e-3
-1.414, 4.036e-3
-1.413, 3.977e-3
-1.412, 3.925e-3
-1.411, 3.879e-3
-1.410, 3.836e-3
-1.409, 3.786e-3
-1.408, 3.731e-3
-1.407, 3.681e-3
-1.406, 3.629e-3
-1.405, 3.583e-3
-1.404, 3.540e-3
-1.403, 3.499e-3
-1.402, 3.459e-3
-1.401, 3.413e-3
-1.400, 3.376e-3
-1.399, 3.336e-3
-1.398, 3.296e-3
-1.397, 3.241e-3
-1.396, 3.188e-3
-1.395, 3.154e-3
-1.394, 3.111e-3
-1.393, 3.065e-3
-1.392, 3.022e-3
-1.391, 2.975e-3
-1.390, 2.923e-3
-1.389, 2.877e-3
-1.388, 2.834e-3
-1.387, 2.793e-3
-1.386, 2.753e-3
-1.385, 2.710e-3
-1.384, 2.673e-3
-1.383, 2.630e-3
-1.382, 2.587e-3
-1.381, 2.547e-3
-1.380, 2.504e-3
-1.379, 2.460e-3
-1.378, 2.423e-3
-1.377, 2.393e-3
-1.376, 2.353e-3
-1.375, 2.312e-3
-1.374, 2.279e-3
-1.373, 2.242e-3
-1.372, 2.205e-3
-1.371, 2.171e-3
-1.370, 2.137e-3
-1.369, 2.106e-3
-1.368, 2.072e-3
-1.367, 2.035e-3
-1.366, 1.998e-3
-1.365, 1.961e-3
-1.364, 1.927e-3
-1.363, 1.893e-3
-1.362, 1.865e-3
-1.361, 1.832e-3
-1.360, 1.798e-3
-1.359, 1.764e-3
-1.358, 1.730e-3
-1.357, 1.693e-3
-1.356, 1.659e-3
-1.355, 1.628e-3
-1.354, 1.600e-3
-1.353, 1.566e-3
-1.352, 1.542e-3
-1.351, 1.511e-3
-1.350, 1.480e-3
-1.349, 1.452e-3
-1.348, 1.421e-3
-1.347, 1.391e-3
-1.346, 1.363e-3
-1.345, 1.338e-3
-1.344, 1.314e-3
-1.343, 1.286e-3
-1.342, 1.258e-3
-1.341, 1.230e-3
-1.340, 1.203e-3
-1.339, 1.178e-3
-1.338, 1.150e-3
-1.337, 1.125e-3
-1.336, 1.101e-3
-1.335, 1.079e-3
-1.334, 1.051e-3
-1.333, 1.030e-3
-1.332, 1.005e-3
-1.331, 9.775e-4
-1.330, 9.559e-4
-1.329, 9.313e-4
-1.328, 9.097e-4
-1.327, 8.881e-4
-1.326, 8.665e-4
-1.325, 8.449e-4
-1.324, 8.203e-4
-1.323, 7.956e-4
-1.322, 7.740e-4
-1.321, 7.555e-4
-1.320, 7.370e-4
-1.319, 7.154e-4
-1.318, 7.000e-4
-1.317, 6.815e-4
-1.316, 6.569e-4
-1.315, 6.384e-4
-1.314, 6.199e-4
-1.313, 6.014e-4
-1.312, 5.829e-4
-1.311, 5.674e-4
-1.310, 5.520e-4
-1.309, 5.335e-4
-1.308, 5.150e-4
-1.307, 4.965e-4
-1.306, 4.780e-4
-1.305, 4.595e-4
-1.304, 4.472e-4
-1.303, 4.318e-4
-1.302, 4.195e-4
-1.301, 4.040e-4
-1.300, 3.886e-4
-1.299, 3.732e-4
-1.298, 3.547e-4
-1.297, 3.393e-4
-1.296, 3.270e-4
-1.295, 3.146e-4
-1.294, 3.023e-4
-1.293, 2.900e-4
-1.292, 2.776e-4
-1.291, 2.622e-4
-1.290, 2.468e-4
-1.289, 2.314e-4
-1.288, 2.191e-4
-1.287, 2.098e-4
-1.286, 1.975e-4
-1.285, 1.882e-4
-1.284, 1.759e-4
-1.283, 1.666e-4
-1.282, 1.543e-4
-1.281, 1.389e-4
-1.280, 1.266e-4
-1.279, 1.173e-4
-1.278, 1.081e-4
-1.277, 1.019e-4
-1.276, 9.265e-5
-1.275, 8.340e-5
-1.274, 7.107e-5
-1.273, 5.873e-5
-1.272, 4.949e-5
-1.271, 4.024e-5
-1.270, 3.099e-5
-1.269, 2.790e-5
-1.268, 1.865e-5
-1.267, 9.405e-6
-1.266, 1.559e-7
-1.265, -1.218e-5
-1.264, -1.834e-5
-1.263, -2.759e-5
-1.262, -3.068e-5
-1.261, -3.684e-5
-1.260, -4.301e-5
-1.259, -4.917e-5
-1.258, -5.842e-5
-1.257, -6.767e-5
-1.256, -7.692e-5
-1.255, -8.309e-5
-1.254, -8.617e-5
-1.253, -9.234e-5
-1.252, -9.542e-5
-1.251, -1.016e-4
-1.250, -1.078e-4
-1.249, -1.170e-4
-1.248, -1.232e-4
-1.247, -1.293e-4
-1.246, -1.324e-4
-1.245, -1.355e-4
-1.244, -1.386e-4
-1.243, -1.417e-4
-1.242, -1.478e-4
-1.241, -1.540e-4
-1.240, -1.632e-4
-1.239, -1.694e-4
-1.238, -1.725e-4
-1.237, -1.756e-4
-1.236, -1.756e-4
-1.235, -1.787e-4
-1.234, -1.817e-4
-1.233, -1.910e-4
-1.232, -1.941e-4
-1.231, -2.002e-4
-1.230, -2.033e-4
-1.229, -2.064e-4
-1.228, -2.095e-4
-1.227, -2.095e-4
-1.226, -2.126e-4
-1.225, -2.157e-4
-1.224, -2.218e-4
-1.223, -2.249e-4
-1.222, -2.311e-4
-1.221, -2.342e-4
-1.220, -2.342e-4
-1.219, -2.342e-4
-1.218, -2.372e-4
-1.217, -2.372e-4
-1.216, -2.434e-4
-1.215, -2.465e-4
-1.214, -2.527e-4
-1.213, -2.527e-4
-1.212, -2.557e-4
-1.211, -2.527e-4
-1.210, -2.527e-4
-1.209, -2.557e-4
-1.208, -2.588e-4
-1.207, -2.619e-4
-1.206, -2.681e-4
-1.205, -2.712e-4
-1.204, -2.681e-4
-1.203, -2.712e-4
-1.202, -2.681e-4
-1.201, -2.712e-4
-1.200, -2.742e-4
-1.199, -2.773e-4
-1.198, -2.804e-4
-1.197, -2.835e-4
-1.196, -2.835e-4
-1.195, -2.835e-4
-1.194, -2.804e-4
-1.193, -2.835e-4
-1.192, -2.835e-4
-1.191, -2.866e-4
-1.190, -2.897e-4
-1.189, -2.927e-4
-1.188, -2.927e-4
-1.187, -2.927e-4
-1.186, -2.927e-4
-1.185, -2.927e-4
-1.184, -2.927e-4
-1.183, -2.958e-4
-1.182, -2.989e-4
-1.181, -3.020e-4
-1.180, -3.051e-4
-1.179, -3.020e-4
-1.178, -3.020e-4
-1.177, -3.020e-4
-1.176, -3.020e-4
-1.175, -3.051e-4
-1.174, -3.051e-4
-1.173, -3.082e-4
-1.172, -3.112e-4
-1.171, -3.112e-4
-1.170, -3.082e-4
-1.169, -3.082e-4
-1.168, -3.082e-4
-1.167, -3.082e-4
-1.166, -3.112e-4
-1.165, -3.143e-4
-1.164, -3.143e-4
-1.163, -3.143e-4
-1.162, -3.143e-4
-1.161, -3.112e-4
-1.160, -3.112e-4
-1.159, -3.112e-4
-1.158, -3.143e-4
-1.157, -3.143e-4
-1.156, -3.174e-4
-1.155, -3.174e-4
-1.154, -3.174e-4
-1.153, -3.174e-4
-1.152, -3.143e-4
-1.151, -3.143e-4
-1.150, -3.174e-4
-1.149, -3.174e-4
-1.148, -3.236e-4
-1.147, -3.236e-4
-1.146, -3.236e-4
-1.145, -3.236e-4
-1.144, -3.174e-4
-1.143, -3.174e-4
-1.142, -3.205e-4
-1.141, -3.205e-4
-1.140, -3.236e-4
-1.139, -3.267e-4
-1.138, -3.267e-4
-1.137, -3.236e-4
-1.136, -3.205e-4
-1.135, -3.205e-4
-1.134, -3.236e-4
-1.133, -3.236e-4
-1.132, -3.267e-4
-1.131, -3.267e-4
-1.130, -3.297e-4
-1.129, -3.267e-4
-1.128, -3.236e-4
-1.127, -3.236e-4
-1.126, -3.236e-4
-1.125, -3.236e-4
-1.124, -3.236e-4
-1.123, -3.267e-4
-1.122, -3.297e-4
-1.121, -3.297e-4
-1.120, -3.267e-4
-1.119, -3.236e-4
-1.118, -3.236e-4
-1.117, -3.236e-4
-1.116, -3.236e-4
-1.115, -3.297e-4
-1.114, -3.297e-4
-1.113, -3.297e-4
-1.112, -3.297e-4
-1.111, -3.267e-4
-1.110, -3.267e-4
-1.109, -3.236e-4
-1.108, -3.267e-4
-1.107, -3.297e-4
-1.106, -3.297e-4
-1.105, -3.328e-4
-1.104, -3.328e-4
-1.103, -3.297e-4
-1.102, -3.267e-4
-1.101, -3.267e-4
-1.100, -3.297e-4
-1.099, -3.328e-4
-1.098, -3.328e-4
-1.097, -3.328e-4
-1.096, -3.328e-4
-1.095, -3.297e-4
-1.094, -3.297e-4
-1.093, -3.267e-4
-1.092, -3.267e-4
-1.091, -3.297e-4
-1.090, -3.328e-4
-1.089, -3.328e-4
-1.088, -3.328e-4
-1.087, -3.297e-4
-1.086, -3.297e-4
-1.085, -3.297e-4
-1.084, -3.267e-4
-1.083, -3.297e-4
-1.082, -3.328e-4
-1.081, -3.328e-4
-1.080, -3.328e-4
-1.079, -3.328e-4
-1.078, -3.328e-4
-1.077, -3.297e-4
-1.076, -3.297e-4
-1.075, -3.328e-4
-1.074, -3.328e-4
-1.073, -3.328e-4
-1.072, -3.359e-4
-1.071, -3.328e-4
-1.070, -3.328e-4
-1.069, -3.297e-4
-1.068, -3.297e-4
-1.067, -3.328e-4
-1.066, -3.328e-4
-1.065, -3.359e-4
-1.064, -3.359e-4
-1.063, -3.359e-4
-1.062, -3.328e-4
-1.061, -3.328e-4
-1.060, -3.328e-4
-1.059, -3.328e-4
-1.058, -3.328e-4
-1.057, -3.359e-4
-1.056, -3.390e-4
-1.055, -3.390e-4
-1.054, -3.390e-4
-1.053, -3.359e-4
-1.052, -3.359e-4
-1.051, -3.328e-4
-1.050, -3.359e-4
-1.049, -3.390e-4
-1.048, -3.390e-4
-1.047, -3.390e-4
-1.046, -3.390e-4
-1.045, -3.359e-4
-1.044, -3.359e-4
-1.043, -3.328e-4
-1.042, -3.359e-4
-1.041, -3.359e-4
-1.040, -3.390e-4
-1.039, -3.390e-4
-1.038, -3.390e-4
-1.037, -3.359e-4
-1.036, -3.359e-4
-1.035, -3.359e-4
-1.034, -3.359e-4
-1.033, -3.359e-4
-1.032, -3.390e-4
-1.031, -3.390e-4
-1.030, -3.421e-4
-1.029, -3.390e-4
-1.028, -3.390e-4
-1.027, -3.359e-4
-1.026, -3.359e-4
-1.025, -3.359e-4
-1.024, -3.390e-4
-1.023, -3.421e-4
-1.022, -3.452e-4
-1.021, -3.482e-4
-1.020, -3.452e-4
-1.019, -3.390e-4
-1.018, -3.390e-4
-1.017, -3.390e-4
-1.016, -3.390e-4
-1.015, -3.421e-4
-1.014, -3.452e-4
-1.013, -3.452e-4
-1.012, -3.421e-4
-1.011, -3.421e-4
-1.010, -3.390e-4
-1.009, -3.421e-4
-1.008, -3.421e-4
-1.007, -3.452e-4
-1.006, -3.452e-4
-1.005, -3.452e-4
-1.004, -3.452e-4
-1.003, -3.452e-4
-1.002, -3.421e-4
-1.001, -3.421e-4
