July 15, 2024   02:44:31
Cyclic Voltammetry
File: c:/users/guazh/data/20240709_batch67/2024-07-10-exp48\exp48-2024-07-15t02_39_35-h2koh\exp48_cv_50mvs_efin_-1400mv.bin
Data Source:  Experiment
Instrument Model:  CHI760E
Header: CV ran at 50 mVs
Note: 

Init E (V) = -1
High E (V) = -1
Low E (V) = -1.4
Final E (V) = -1
Init P/N = N
Scan Rate (V/s) = 0.05
Segment = 7
Sample Interval (V) = 0.001
Quiet Time (sec) = 60
Sensitivity (A/V) = 0.001
Comp R (ohm) = 621.7

Results:

Channel 1:
Segment 1:

Segment 2:

Segment 3:

Segment 4:

Segment 5:

Segment 6:

Segment 7:

Potential/V, Current/A

-1.000, -8.899e-8
-1.001, -2.577e-7
-1.002, -2.320e-7
-1.003, -6.038e-8
-1.004, 2.841e-8
-1.005, -7.123e-8
-1.006, -2.360e-7
-1.007, -2.123e-7
-1.008, -3.769e-8
-1.009, 5.407e-8
-1.010, -6.235e-8
-1.011, -2.143e-7
-1.012, -1.965e-7
-1.013, -1.993e-8
-1.014, 6.393e-8
-1.015, -5.446e-8
-1.016, -2.143e-7
-1.017, -1.788e-7
-1.018, -1.598e-8
-1.019, 8.662e-8
-1.020, -2.782e-8
-1.021, -1.906e-7
-1.022, -1.659e-7
-1.023, 2.762e-9
-1.024, 1.083e-7
-1.025, -5.130e-9
-1.026, -1.729e-7
-1.027, -1.502e-7
-1.028, 3.039e-8
-1.029, 1.212e-7
-1.030, 1.657e-8
-1.031, -1.590e-7
-1.032, -1.324e-7
-1.033, 4.124e-8
-1.034, 1.369e-7
-1.035, 3.335e-8
-1.036, -1.452e-7
-1.037, -1.206e-7
-1.038, 5.012e-8
-1.039, 1.567e-7
-1.040, 4.124e-8
-1.041, -1.215e-7
-1.042, -1.077e-7
-1.043, 7.577e-8
-1.044, 1.725e-7
-1.045, 5.900e-8
-1.046, -1.127e-7
-1.047, -8.406e-8
-1.048, 6.985e-8
-1.049, 1.942e-7
-1.050, 8.564e-8
-1.051, -8.504e-8
-1.052, -7.222e-8
-1.053, 9.846e-8
-1.054, 2.129e-7
-1.055, 1.004e-7
-1.056, -6.137e-8
-1.057, -6.038e-8
-1.058, 1.113e-7
-1.059, 2.178e-7
-1.060, 1.182e-7
-1.061, -6.531e-8
-1.062, -3.670e-8
-1.063, 1.320e-7
-1.064, 2.356e-7
-1.065, 1.340e-7
-1.066, -4.065e-8
-1.067, -2.782e-8
-1.068, 1.498e-7
-1.069, 2.524e-7
-1.070, 1.379e-7
-1.071, -2.585e-8
-1.072, -1.105e-8
-1.073, 1.547e-7
-1.074, 2.672e-7
-1.075, 1.596e-7
-1.076, -8.090e-9
-1.077, 9.669e-9
-1.078, 1.843e-7
-1.079, 2.879e-7
-1.080, 1.725e-7
-1.081, 8.682e-9
-1.082, 2.249e-8
-1.083, 1.981e-7
-1.084, 2.968e-7
-1.085, 1.863e-7
-1.086, 2.151e-8
-1.087, 2.743e-8
-1.088, 2.159e-7
-1.089, 3.204e-7
-1.090, 2.040e-7
-1.091, 4.025e-8
-1.092, 5.111e-8
-1.093, 2.149e-7
-1.094, 3.362e-7
-1.095, 2.257e-7
-1.096, 5.900e-8
-1.097, 6.294e-8
-1.098, 2.445e-7
-1.099, 3.481e-7
-1.100, 2.336e-7
-1.101, 7.972e-8
-1.102, 8.268e-8
-1.103, 2.563e-7
-1.104, 3.698e-7
-1.105, 2.573e-7
-1.106, 8.761e-8
-1.107, 1.103e-7
-1.108, 2.721e-7
-1.109, 3.816e-7
-1.110, 2.790e-7
-1.111, 1.034e-7
-1.112, 1.123e-7
-1.113, 2.830e-7
-1.114, 3.974e-7
-1.115, 2.899e-7
-1.116, 1.379e-7
-1.117, 1.300e-7
-1.118, 2.928e-7
-1.119, 4.102e-7
-1.120, 3.175e-7
-1.121, 1.350e-7
-1.122, 1.438e-7
-1.123, 3.135e-7
-1.124, 4.240e-7
-1.125, 3.244e-7
-1.126, 1.537e-7
-1.127, 1.646e-7
-1.128, 3.343e-7
-1.129, 4.438e-7
-1.130, 3.372e-7
-1.131, 1.734e-7
-1.132, 1.734e-7
-1.133, 3.530e-7
-1.134, 4.615e-7
-1.135, 3.471e-7
-1.136, 1.794e-7
-1.137, 1.882e-7
-1.138, 3.560e-7
-1.139, 4.832e-7
-1.140, 3.727e-7
-1.141, 1.991e-7
-1.142, 2.129e-7
-1.143, 3.826e-7
-1.144, 4.921e-7
-1.145, 3.885e-7
-1.146, 2.198e-7
-1.147, 2.257e-7
-1.148, 3.905e-7
-1.149, 5.040e-7
-1.150, 4.083e-7
-1.151, 2.257e-7
-1.152, 2.395e-7
-1.153, 4.073e-7
-1.154, 5.286e-7
-1.155, 4.221e-7
-1.156, 2.534e-7
-1.157, 2.514e-7
-1.158, 4.201e-7
-1.159, 5.424e-7
-1.160, 4.398e-7
-1.161, 2.672e-7
-1.162, 2.593e-7
-1.163, 4.309e-7
-1.164, 5.513e-7
-1.165, 4.665e-7
-1.166, 2.849e-7
-1.167, 2.879e-7
-1.168, 4.457e-7
-1.169, 5.691e-7
-1.170, 4.714e-7
-1.171, 2.978e-7
-1.172, 2.997e-7
-1.173, 4.576e-7
-1.174, 5.809e-7
-1.175, 4.803e-7
-1.176, 3.135e-7
-1.177, 3.106e-7
-1.178, 4.901e-7
-1.179, 5.987e-7
-1.180, 5.099e-7
-1.181, 3.392e-7
-1.182, 3.313e-7
-1.183, 4.980e-7
-1.184, 6.243e-7
-1.185, 5.286e-7
-1.186, 3.520e-7
-1.187, 3.451e-7
-1.188, 5.128e-7
-1.189, 6.233e-7
-1.190, 5.375e-7
-1.191, 3.717e-7
-1.192, 3.609e-7
-1.193, 5.336e-7
-1.194, 6.510e-7
-1.195, 5.553e-7
-1.196, 3.796e-7
-1.197, 3.747e-7
-1.198, 5.385e-7
-1.199, 6.618e-7
-1.200, 5.691e-7
-1.201, 4.004e-7
-1.202, 3.856e-7
-1.203, 5.572e-7
-1.204, 6.855e-7
-1.205, 5.878e-7
-1.206, 4.083e-7
-1.207, 4.033e-7
-1.208, 5.770e-7
-1.209, 6.894e-7
-1.210, 6.036e-7
-1.211, 4.329e-7
-1.212, 4.171e-7
-1.213, 5.888e-7
-1.214, 7.151e-7
-1.215, 6.145e-7
-1.216, 4.497e-7
-1.217, 4.270e-7
-1.218, 5.997e-7
-1.219, 7.289e-7
-1.220, 6.293e-7
-1.221, 4.576e-7
-1.222, 4.566e-7
-1.223, 6.115e-7
-1.224, 7.447e-7
-1.225, 6.470e-7
-1.226, 4.734e-7
-1.227, 4.615e-7
-1.228, 6.391e-7
-1.229, 7.684e-7
-1.230, 6.707e-7
-1.231, 4.970e-7
-1.232, 4.882e-7
-1.233, 6.500e-7
-1.234, 7.772e-7
-1.235, 6.825e-7
-1.236, 5.138e-7
-1.237, 5.000e-7
-1.238, 6.638e-7
-1.239, 7.851e-7
-1.240, 7.023e-7
-1.241, 5.306e-7
-1.242, 5.237e-7
-1.243, 6.825e-7
-1.244, 8.137e-7
-1.245, 7.210e-7
-1.246, 5.414e-7
-1.247, 5.296e-7
-1.248, 7.052e-7
-1.249, 8.266e-7
-1.250, 7.397e-7
-1.251, 5.503e-7
-1.252, 5.395e-7
-1.253, 7.072e-7
-1.254, 8.394e-7
-1.255, 7.615e-7
-1.256, 5.661e-7
-1.257, 5.622e-7
-1.258, 7.309e-7
-1.259, 8.611e-7
-1.260, 7.654e-7
-1.261, 5.947e-7
-1.262, 5.809e-7
-1.263, 7.378e-7
-1.264, 8.769e-7
-1.265, 7.782e-7
-1.266, 6.046e-7
-1.267, 5.927e-7
-1.268, 7.545e-7
-1.269, 8.798e-7
-1.270, 7.999e-7
-1.271, 6.233e-7
-1.272, 6.036e-7
-1.273, 7.644e-7
-1.274, 9.006e-7
-1.275, 8.128e-7
-1.276, 6.273e-7
-1.277, 6.233e-7
-1.278, 7.822e-7
-1.279, 9.065e-7
-1.280, 8.384e-7
-1.281, 6.618e-7
-1.282, 6.342e-7
-1.283, 7.940e-7
-1.284, 9.302e-7
-1.285, 8.443e-7
-1.286, 6.687e-7
-1.287, 6.510e-7
-1.288, 8.187e-7
-1.289, 9.390e-7
-1.290, 8.572e-7
-1.291, 6.796e-7
-1.292, 6.687e-7
-1.293, 8.354e-7
-1.294, 9.677e-7
-1.295, 8.690e-7
-1.296, 6.884e-7
-1.297, 6.796e-7
-1.298, 8.502e-7
-1.299, 9.667e-7
-1.300, 8.838e-7
-1.301, 7.131e-7
-1.302, 6.954e-7
-1.303, 8.611e-7
-1.304, 9.864e-7
-1.305, 9.104e-7
-1.306, 7.328e-7
-1.307, 7.131e-7
-1.308, 8.739e-7
-1.309, 1.009e-6
-1.310, 9.262e-7
-1.311, 7.486e-7
-1.312, 7.230e-7
-1.313, 8.877e-7
-1.314, 1.025e-6
-1.315, 9.292e-7
-1.316, 7.575e-7
-1.317, 7.368e-7
-1.318, 9.045e-7
-1.319, 1.037e-6
-1.320, 9.538e-7
-1.321, 7.782e-7
-1.322, 7.565e-7
-1.323, 9.193e-7
-1.324, 1.048e-6
-1.325, 9.716e-7
-1.326, 7.841e-7
-1.327, 7.753e-7
-1.328, 9.331e-7
-1.329, 1.060e-6
-1.330, 9.864e-7
-1.331, 8.049e-7
-1.332, 7.832e-7
-1.333, 9.450e-7
-1.334, 1.081e-6
-1.335, 1.002e-6
-1.336, 8.147e-7
-1.337, 8.068e-7
-1.338, 9.657e-7
-1.339, 1.088e-6
-1.340, 1.014e-6
-1.341, 8.374e-7
-1.342, 8.137e-7
-1.343, 9.785e-7
-1.344, 1.109e-6
-1.345, 1.030e-6
-1.346, 8.522e-7
-1.347, 8.335e-7
-1.348, 9.903e-7
-1.349, 1.129e-6
-1.350, 1.050e-6
-1.351, 8.670e-7
-1.352, 8.483e-7
-1.353, 1.005e-6
-1.354, 1.143e-6
-1.355, 1.066e-6
-1.356, 8.710e-7
-1.357, 8.690e-7
-1.358, 1.031e-6
-1.359, 1.155e-6
-1.360, 1.084e-6
-1.361, 8.966e-7
-1.362, 8.808e-7
-1.363, 1.039e-6
-1.364, 1.182e-6
-1.365, 1.094e-6
-1.366, 9.124e-7
-1.367, 8.907e-7
-1.368, 1.060e-6
-1.369, 1.191e-6
-1.370, 1.111e-6
-1.371, 9.272e-7
-1.372, 9.085e-7
-1.373, 1.066e-6
-1.374, 1.200e-6
-1.375, 1.124e-6
-1.376, 9.450e-7
-1.377, 9.233e-7
-1.378, 1.081e-6
-1.379, 1.220e-6
-1.380, 1.139e-6
-1.381, 9.637e-7
-1.382, 9.341e-7
-1.383, 1.099e-6
-1.384, 1.239e-6
-1.385, 1.157e-6
-1.386, 9.795e-7
-1.387, 9.489e-7
-1.388, 1.111e-6
-1.389, 1.255e-6
-1.390, 1.178e-6
-1.391, 9.953e-7
-1.392, 9.607e-7
-1.393, 1.114e-6
-1.394, 1.262e-6
-1.395, 1.190e-6
-1.396, 1.013e-6
-1.397, 9.755e-7
-1.398, 1.138e-6
-1.399, 1.280e-6
-1.400, 1.178e-6
-1.399, 9.894e-7
-1.398, 9.499e-7
-1.397, 1.102e-6
-1.396, 1.233e-6
-1.395, 1.161e-6
-1.394, 9.755e-7
-1.393, 9.381e-7
-1.392, 1.088e-6
-1.391, 1.221e-6
-1.390, 1.146e-6
-1.389, 9.548e-7
-1.388, 9.173e-7
-1.387, 1.072e-6
-1.386, 1.203e-6
-1.385, 1.134e-6
-1.384, 9.361e-7
-1.383, 9.075e-7
-1.382, 1.055e-6
-1.381, 1.190e-6
-1.380, 1.108e-6
-1.379, 9.262e-7
-1.378, 8.828e-7
-1.377, 1.036e-6
-1.376, 1.179e-6
-1.375, 1.085e-6
-1.374, 9.065e-7
-1.373, 8.759e-7
-1.372, 1.019e-6
-1.371, 1.163e-6
-1.370, 1.081e-6
-1.369, 8.848e-7
-1.368, 8.552e-7
-1.367, 1.008e-6
-1.366, 1.145e-6
-1.365, 1.067e-6
-1.364, 8.720e-7
-1.363, 8.315e-7
-1.362, 1.003e-6
-1.361, 1.141e-6
-1.360, 1.051e-6
-1.359, 8.601e-7
-1.358, 8.236e-7
-1.357, 9.736e-7
-1.356, 1.110e-6
-1.355, 1.034e-6
-1.354, 8.483e-7
-1.353, 8.108e-7
-1.352, 9.607e-7
-1.351, 1.091e-6
-1.350, 1.016e-6
-1.349, 8.335e-7
-1.348, 7.911e-7
-1.347, 9.430e-7
-1.346, 1.082e-6
-1.345, 1.007e-6
-1.344, 8.019e-7
-1.343, 7.743e-7
-1.342, 9.233e-7
-1.341, 1.061e-6
-1.340, 9.884e-7
-1.339, 7.980e-7
-1.338, 7.664e-7
-1.337, 9.094e-7
-1.336, 1.049e-6
-1.335, 9.706e-7
-1.334, 7.861e-7
-1.333, 7.575e-7
-1.332, 8.976e-7
-1.331, 1.032e-6
-1.330, 9.538e-7
-1.329, 7.644e-7
-1.328, 7.319e-7
-1.327, 8.808e-7
-1.326, 1.014e-6
-1.325, 9.440e-7
-1.324, 7.467e-7
-1.323, 7.121e-7
-1.322, 8.572e-7
-1.321, 1.005e-6
-1.320, 9.302e-7
-1.319, 7.378e-7
-1.318, 6.954e-7
-1.317, 8.433e-7
-1.316, 9.874e-7
-1.315, 9.134e-7
-1.314, 7.151e-7
-1.313, 6.884e-7
-1.312, 8.256e-7
-1.311, 9.755e-7
-1.310, 9.016e-7
-1.309, 7.102e-7
-1.308, 6.697e-7
-1.307, 8.187e-7
-1.306, 9.519e-7
-1.305, 8.710e-7
-1.304, 6.865e-7
-1.303, 6.510e-7
-1.302, 7.999e-7
-1.301, 9.371e-7
-1.300, 8.670e-7
-1.299, 6.658e-7
-1.298, 6.362e-7
-1.297, 7.851e-7
-1.296, 9.154e-7
-1.295, 8.453e-7
-1.294, 6.667e-7
-1.293, 6.204e-7
-1.292, 7.644e-7
-1.291, 9.045e-7
-1.290, 8.305e-7
-1.289, 6.411e-7
-1.288, 6.016e-7
-1.287, 7.545e-7
-1.286, 8.798e-7
-1.285, 8.216e-7
-1.284, 6.352e-7
-1.283, 5.908e-7
-1.282, 7.338e-7
-1.281, 8.808e-7
-1.280, 7.999e-7
-1.279, 6.115e-7
-1.278, 5.770e-7
-1.277, 7.230e-7
-1.276, 8.552e-7
-1.275, 8.009e-7
-1.274, 5.967e-7
-1.273, 5.523e-7
-1.272, 7.111e-7
-1.271, 8.404e-7
-1.270, 7.723e-7
-1.269, 5.878e-7
-1.268, 5.345e-7
-1.267, 6.855e-7
-1.266, 8.305e-7
-1.265, 7.605e-7
-1.264, 5.730e-7
-1.263, 5.247e-7
-1.262, 6.756e-7
-1.261, 8.147e-7
-1.260, 7.338e-7
-1.259, 5.483e-7
-1.258, 5.128e-7
-1.257, 6.618e-7
-1.256, 8.039e-7
-1.255, 7.250e-7
-1.254, 5.355e-7
-1.253, 4.961e-7
-1.252, 6.431e-7
-1.251, 7.753e-7
-1.250, 7.121e-7
-1.249, 5.178e-7
-1.248, 4.753e-7
-1.247, 6.273e-7
-1.246, 7.674e-7
-1.245, 6.954e-7
-1.244, 4.961e-7
-1.243, 4.586e-7
-1.242, 6.056e-7
-1.241, 7.486e-7
-1.240, 6.865e-7
-1.239, 4.892e-7
-1.238, 4.477e-7
-1.237, 6.036e-7
-1.236, 7.388e-7
-1.235, 6.727e-7
-1.234, 4.842e-7
-1.233, 4.448e-7
-1.232, 5.770e-7
-1.231, 7.250e-7
-1.230, 6.579e-7
-1.229, 4.517e-7
-1.228, 4.053e-7
-1.227, 5.592e-7
-1.226, 6.954e-7
-1.225, 6.293e-7
-1.224, 4.507e-7
-1.223, 4.004e-7
-1.222, 5.474e-7
-1.221, 6.855e-7
-1.220, 6.145e-7
-1.219, 4.221e-7
-1.218, 3.787e-7
-1.217, 5.286e-7
-1.216, 6.648e-7
-1.215, 5.977e-7
-1.214, 4.112e-7
-1.213, 3.658e-7
-1.212, 5.138e-7
-1.211, 6.490e-7
-1.210, 5.849e-7
-1.209, 3.925e-7
-1.208, 3.422e-7
-1.207, 4.980e-7
-1.206, 6.352e-7
-1.205, 5.789e-7
-1.204, 3.836e-7
-1.203, 3.343e-7
-1.202, 4.803e-7
-1.201, 6.184e-7
-1.200, 5.572e-7
-1.199, 3.698e-7
-1.198, 3.224e-7
-1.197, 4.615e-7
-1.196, 5.937e-7
-1.195, 5.454e-7
-1.194, 3.540e-7
-1.193, 3.056e-7
-1.192, 4.448e-7
-1.191, 5.799e-7
-1.190, 5.247e-7
-1.189, 3.343e-7
-1.188, 2.889e-7
-1.187, 4.349e-7
-1.186, 5.641e-7
-1.185, 5.089e-7
-1.184, 3.224e-7
-1.183, 2.760e-7
-1.182, 4.142e-7
-1.181, 5.582e-7
-1.180, 4.951e-7
-1.179, 3.106e-7
-1.178, 2.494e-7
-1.177, 3.994e-7
-1.176, 5.345e-7
-1.175, 4.822e-7
-1.174, 2.918e-7
-1.173, 2.376e-7
-1.172, 3.846e-7
-1.171, 5.257e-7
-1.170, 4.605e-7
-1.169, 2.682e-7
-1.168, 2.267e-7
-1.167, 3.678e-7
-1.166, 5.069e-7
-1.165, 4.507e-7
-1.164, 2.573e-7
-1.163, 2.099e-7
-1.162, 3.491e-7
-1.161, 4.901e-7
-1.160, 4.408e-7
-1.159, 2.435e-7
-1.158, 1.892e-7
-1.157, 3.352e-7
-1.156, 4.813e-7
-1.155, 4.181e-7
-1.154, 2.395e-7
-1.153, 1.794e-7
-1.152, 3.155e-7
-1.151, 4.576e-7
-1.150, 4.083e-7
-1.149, 2.198e-7
-1.148, 1.596e-7
-1.147, 3.066e-7
-1.146, 4.507e-7
-1.145, 3.954e-7
-1.144, 2.021e-7
-1.143, 1.448e-7
-1.142, 2.849e-7
-1.141, 4.428e-7
-1.140, 3.875e-7
-1.139, 1.882e-7
-1.138, 1.310e-7
-1.137, 2.672e-7
-1.136, 4.201e-7
-1.135, 3.668e-7
-1.134, 1.705e-7
-1.133, 1.142e-7
-1.132, 2.465e-7
-1.131, 4.023e-7
-1.130, 3.530e-7
-1.129, 1.626e-7
-1.128, 1.034e-7
-1.127, 2.415e-7
-1.126, 3.787e-7
-1.125, 3.343e-7
-1.124, 1.429e-7
-1.123, 7.972e-8
-1.122, 2.139e-7
-1.121, 3.708e-7
-1.120, 3.135e-7
-1.119, 1.221e-7
-1.118, 6.985e-8
-1.117, 2.070e-7
-1.116, 3.520e-7
-1.115, 3.056e-7
-1.114, 1.152e-7
-1.113, 5.407e-8
-1.112, 1.853e-7
-1.111, 3.303e-7
-1.110, 2.839e-7
-1.109, 1.083e-7
-1.108, 4.223e-8
-1.107, 1.665e-7
-1.106, 3.254e-7
-1.105, 2.770e-7
-1.104, 8.366e-8
-1.103, 2.052e-8
-1.102, 1.646e-7
-1.101, 3.037e-7
-1.100, 2.563e-7
-1.099, 6.196e-8
-1.098, 5.722e-9
-1.097, 1.429e-7
-1.096, 2.830e-7
-1.095, 2.435e-7
-1.094, 6.294e-8
-1.093, -9.077e-9
-1.092, 1.212e-7
-1.091, 2.741e-7
-1.090, 2.356e-7
-1.089, 4.913e-8
-1.088, -2.486e-8
-1.087, 9.649e-8
-1.086, 2.524e-7
-1.085, 2.169e-7
-1.084, 2.151e-8
-1.083, -3.670e-8
-1.082, 9.156e-8
-1.081, 2.494e-7
-1.080, 2.060e-7
-1.079, 1.756e-8
-1.078, -4.953e-8
-1.077, 7.972e-8
-1.076, 2.336e-7
-1.075, 1.794e-7
-1.074, -3.157e-9
-1.073, -7.814e-8
-1.072, 6.097e-8
-1.071, 2.040e-7
-1.070, 1.754e-7
-1.069, -8.090e-9
-1.068, -8.208e-8
-1.067, 4.716e-8
-1.066, 1.951e-7
-1.065, 1.685e-7
-1.064, -2.881e-8
-1.063, -9.491e-8
-1.062, 2.052e-8
-1.061, 1.823e-7
-1.060, 1.389e-7
-1.059, -4.854e-8
-1.058, -1.117e-7
-1.057, 1.362e-8
-1.056, 1.705e-7
-1.055, 1.300e-7
-1.054, -5.446e-8
-1.053, -1.186e-7
-1.052, 7.893e-10
-1.051, 1.567e-7
-1.050, 1.142e-7
-1.049, -7.715e-8
-1.048, -1.472e-7
-1.047, -1.598e-8
-1.046, 1.409e-7
-1.045, 1.103e-7
-1.044, -8.603e-8
-1.043, -1.590e-7
-1.042, -3.670e-8
-1.041, 1.241e-7
-1.040, 8.564e-8
-1.039, -1.058e-7
-1.038, -1.719e-7
-1.037, -5.249e-8
-1.036, 1.034e-7
-1.035, 7.182e-8
-1.034, -1.215e-7
-1.033, -1.936e-7
-1.032, -6.038e-8
-1.031, 9.649e-8
-1.030, 5.407e-8
-1.029, -1.354e-7
-1.028, -2.015e-7
-1.027, -7.715e-8
-1.026, 8.564e-8
-1.025, 3.927e-8
-1.024, -1.669e-7
-1.023, -2.281e-7
-1.022, -9.886e-8
-1.021, 5.703e-8
-1.020, 2.545e-8
-1.019, -1.620e-7
-1.018, -2.370e-7
-1.017, -1.107e-7
-1.016, 3.433e-8
-1.015, 1.460e-8
-1.014, -1.719e-7
-1.013, -2.587e-7
-1.012, -1.324e-7
-1.011, 1.362e-8
-1.010, -5.130e-9
-1.009, -1.936e-7
-1.008, -2.774e-7
-1.007, -1.482e-7
-1.006, 1.855e-8
-1.005, -1.697e-8
-1.004, -2.044e-7
-1.003, -2.834e-7
-1.002, -1.571e-7
-1.001, -3.157e-9
-1.000, -9.077e-9
-1.001, -1.867e-7
-1.002, -2.538e-7
-1.003, -1.186e-7
-1.004, 4.124e-8
-1.005, 1.362e-8
-1.006, -1.729e-7
-1.007, -2.409e-7
-1.008, -1.117e-7
-1.009, 5.111e-8
-1.010, 3.236e-8
-1.011, -1.462e-7
-1.012, -2.192e-7
-1.013, -9.491e-8
-1.014, 6.788e-8
-1.015, 4.815e-8
-1.016, -1.403e-7
-1.017, -2.153e-7
-1.018, -8.406e-8
-1.019, 7.774e-8
-1.020, 5.505e-8
-1.021, -1.225e-7
-1.022, -1.955e-7
-1.023, -7.025e-8
-1.024, 9.846e-8
-1.025, 9.156e-8
-1.026, -9.195e-8
-1.027, -1.768e-7
-1.028, -4.854e-8
-1.029, 1.212e-7
-1.030, 1.024e-7
-1.031, -8.307e-8
-1.032, -1.581e-7
-1.033, -3.275e-8
-1.034, 1.281e-7
-1.035, 1.202e-7
-1.036, -6.038e-8
-1.037, -1.492e-7
-1.038, -1.697e-8
-1.039, 1.438e-7
-1.040, 1.369e-7
-1.041, -4.854e-8
-1.042, -1.285e-7
-1.043, -5.130e-9
-1.044, 1.675e-7
-1.045, 1.448e-7
-1.046, -2.980e-8
-1.047, -1.117e-7
-1.048, 8.682e-9
-1.049, 1.695e-7
-1.050, 1.626e-7
-1.051, -1.006e-8
-1.052, -9.195e-8
-1.053, 2.841e-8
-1.054, 1.981e-7
-1.055, 1.764e-7
-1.056, 1.776e-9
-1.057, -6.926e-8
-1.058, 4.420e-8
-1.059, 2.090e-7
-1.060, 2.001e-7
-1.061, 1.559e-8
-1.062, -6.137e-8
-1.063, 5.505e-8
-1.064, 2.297e-7
-1.065, 2.139e-7
-1.066, 3.335e-8
-1.067, -5.051e-8
-1.068, 7.380e-8
-1.069, 2.425e-7
-1.070, 2.336e-7
-1.071, 4.519e-8
-1.072, -3.670e-8
-1.073, 8.366e-8
-1.074, 2.603e-7
-1.075, 2.553e-7
-1.076, 7.084e-8
-1.077, -2.092e-8
-1.078, 1.024e-7
-1.079, 2.741e-7
-1.080, 2.662e-7
-1.081, 7.676e-8
-1.082, -1.184e-9
-1.083, 1.182e-7
-1.084, 2.958e-7
-1.085, 2.839e-7
-1.086, 1.004e-7
-1.087, 9.669e-9
-1.088, 1.379e-7
-1.089, 3.047e-7
-1.090, 2.928e-7
-1.091, 1.142e-7
-1.092, 3.137e-8
-1.093, 1.429e-7
-1.094, 3.175e-7
-1.095, 3.116e-7
-1.096, 1.350e-7
-1.097, 5.012e-8
-1.098, 1.606e-7
-1.099, 3.313e-7
-1.100, 3.352e-7
-1.101, 1.567e-7
-1.102, 5.801e-8
-1.103, 1.764e-7
-1.104, 3.481e-7
-1.105, 3.471e-7
-1.106, 1.705e-7
-1.107, 7.873e-8
-1.108, 1.951e-7
-1.109, 3.639e-7
-1.110, 3.658e-7
-1.111, 1.892e-7
-1.112, 8.860e-8
-1.113, 2.040e-7
-1.114, 3.747e-7
-1.115, 3.757e-7
-1.116, 2.011e-7
-1.117, 1.073e-7
-1.118, 2.198e-7
-1.119, 3.954e-7
-1.120, 3.925e-7
-1.121, 2.129e-7
-1.122, 1.202e-7
-1.123, 2.356e-7
-1.124, 4.073e-7
-1.125, 4.092e-7
-1.126, 2.297e-7
-1.127, 1.379e-7
-1.128, 2.553e-7
-1.129, 4.201e-7
-1.130, 4.221e-7
-1.131, 2.474e-7
-1.132, 1.537e-7
-1.133, 2.682e-7
-1.134, 4.369e-7
-1.135, 4.438e-7
-1.136, 2.603e-7
-1.137, 1.656e-7
-1.138, 2.859e-7
-1.139, 4.596e-7
-1.140, 4.625e-7
-1.141, 2.830e-7
-1.142, 1.833e-7
-1.143, 2.968e-7
-1.144, 4.724e-7
-1.145, 4.744e-7
-1.146, 3.027e-7
-1.147, 2.080e-7
-1.148, 3.145e-7
-1.149, 4.852e-7
-1.150, 4.813e-7
-1.151, 3.126e-7
-1.152, 2.169e-7
-1.153, 3.362e-7
-1.154, 5.059e-7
-1.155, 5.079e-7
-1.156, 3.313e-7
-1.157, 2.366e-7
-1.158, 3.392e-7
-1.159, 5.148e-7
-1.160, 5.109e-7
-1.161, 3.500e-7
-1.162, 2.465e-7
-1.163, 3.520e-7
-1.164, 5.296e-7
-1.165, 5.414e-7
-1.166, 3.609e-7
-1.167, 2.642e-7
-1.168, 3.717e-7
-1.169, 5.474e-7
-1.170, 5.523e-7
-1.171, 3.777e-7
-1.172, 2.770e-7
-1.173, 3.865e-7
-1.174, 5.631e-7
-1.175, 5.691e-7
-1.176, 3.865e-7
-1.177, 2.918e-7
-1.178, 4.122e-7
-1.179, 5.829e-7
-1.180, 5.839e-7
-1.181, 4.181e-7
-1.182, 3.195e-7
-1.183, 4.122e-7
-1.184, 5.898e-7
-1.185, 6.066e-7
-1.186, 4.152e-7
-1.187, 3.254e-7
-1.188, 4.309e-7
-1.189, 6.095e-7
-1.190, 6.135e-7
-1.191, 4.428e-7
-1.192, 3.412e-7
-1.193, 4.497e-7
-1.194, 6.253e-7
-1.195, 6.332e-7
-1.196, 4.576e-7
-1.197, 3.589e-7
-1.198, 4.556e-7
-1.199, 6.342e-7
-1.200, 6.480e-7
-1.201, 4.714e-7
-1.202, 3.777e-7
-1.203, 4.665e-7
-1.204, 6.519e-7
-1.205, 6.677e-7
-1.206, 4.970e-7
-1.207, 3.915e-7
-1.208, 4.901e-7
-1.209, 6.717e-7
-1.210, 6.776e-7
-1.211, 5.030e-7
-1.212, 4.043e-7
-1.213, 5.069e-7
-1.214, 6.776e-7
-1.215, 6.944e-7
-1.216, 5.276e-7
-1.217, 4.152e-7
-1.218, 5.158e-7
-1.219, 7.013e-7
-1.220, 7.111e-7
-1.221, 5.414e-7
-1.222, 4.349e-7
-1.223, 5.375e-7
-1.224, 7.092e-7
-1.225, 7.220e-7
-1.226, 5.641e-7
-1.227, 4.536e-7
-1.228, 5.483e-7
-1.229, 7.328e-7
-1.230, 7.457e-7
-1.231, 5.809e-7
-1.232, 4.753e-7
-1.233, 5.701e-7
-1.234, 7.388e-7
-1.235, 7.763e-7
-1.236, 5.997e-7
-1.237, 4.842e-7
-1.238, 5.789e-7
-1.239, 7.585e-7
-1.240, 7.822e-7
-1.241, 6.125e-7
-1.242, 5.109e-7
-1.243, 6.046e-7
-1.244, 7.713e-7
-1.245, 8.019e-7
-1.246, 6.283e-7
-1.247, 5.138e-7
-1.248, 6.204e-7
-1.249, 7.989e-7
-1.250, 8.118e-7
-1.251, 6.391e-7
-1.252, 5.365e-7
-1.253, 6.243e-7
-1.254, 8.088e-7
-1.255, 8.276e-7
-1.256, 6.677e-7
-1.257, 5.483e-7
-1.258, 6.510e-7
-1.259, 8.246e-7
-1.260, 8.433e-7
-1.261, 6.815e-7
-1.262, 5.622e-7
-1.263, 6.579e-7
-1.264, 8.414e-7
-1.265, 8.670e-7
-1.266, 6.914e-7
-1.267, 5.849e-7
-1.268, 6.776e-7
-1.269, 8.562e-7
-1.270, 8.798e-7
-1.271, 7.042e-7
-1.272, 5.908e-7
-1.273, 6.914e-7
-1.274, 8.729e-7
-1.275, 8.956e-7
-1.276, 7.190e-7
-1.277, 6.075e-7
-1.278, 7.032e-7
-1.279, 8.818e-7
-1.280, 9.134e-7
-1.281, 7.417e-7
-1.282, 6.263e-7
-1.283, 7.190e-7
-1.284, 9.065e-7
-1.285, 9.302e-7
-1.286, 7.536e-7
-1.287, 6.371e-7
-1.288, 7.378e-7
-1.289, 9.104e-7
-1.290, 9.440e-7
-1.291, 7.763e-7
-1.292, 6.519e-7
-1.293, 7.467e-7
-1.294, 9.341e-7
-1.295, 9.617e-7
-1.296, 7.970e-7
-1.297, 6.717e-7
-1.298, 7.624e-7
-1.299, 9.489e-7
-1.300, 9.815e-7
-1.301, 7.960e-7
-1.302, 6.875e-7
-1.303, 7.684e-7
-1.304, 9.647e-7
-1.305, 9.903e-7
-1.306, 8.305e-7
-1.307, 7.062e-7
-1.308, 7.901e-7
-1.309, 9.755e-7
-1.310, 1.011e-6
-1.311, 8.364e-7
-1.312, 7.161e-7
-1.313, 7.989e-7
-1.314, 9.834e-7
-1.315, 1.016e-6
-1.316, 8.542e-7
-1.317, 7.309e-7
-1.318, 8.147e-7
-1.319, 9.953e-7
-1.320, 1.040e-6
-1.321, 8.729e-7
-1.322, 7.506e-7
-1.323, 8.295e-7
-1.324, 1.019e-6
-1.325, 1.054e-6
-1.326, 8.818e-7
-1.327, 7.624e-7
-1.328, 8.473e-7
-1.329, 1.033e-6
-1.330, 1.067e-6
-1.331, 9.104e-7
-1.332, 7.881e-7
-1.333, 8.611e-7
-1.334, 1.050e-6
-1.335, 1.089e-6
-1.336, 9.203e-7
-1.337, 7.950e-7
-1.338, 8.808e-7
-1.339, 1.060e-6
-1.340, 1.099e-6
-1.341, 9.311e-7
-1.342, 8.088e-7
-1.343, 8.897e-7
-1.344, 1.076e-6
-1.345, 1.114e-6
-1.346, 9.558e-7
-1.347, 8.256e-7
-1.348, 9.114e-7
-1.349, 1.087e-6
-1.350, 1.127e-6
-1.351, 9.716e-7
-1.352, 8.433e-7
-1.353, 9.163e-7
-1.354, 1.092e-6
-1.355, 1.144e-6
-1.356, 9.815e-7
-1.357, 8.572e-7
-1.358, 9.321e-7
-1.359, 1.118e-6
-1.360, 1.167e-6
-1.361, 9.982e-7
-1.362, 8.690e-7
-1.363, 9.519e-7
-1.364, 1.130e-6
-1.365, 1.176e-6
-1.366, 1.023e-6
-1.367, 8.789e-7
-1.368, 9.578e-7
-1.369, 1.142e-6
-1.370, 1.194e-6
-1.371, 1.034e-6
-1.372, 9.045e-7
-1.373, 9.755e-7
-1.374, 1.164e-6
-1.375, 1.204e-6
-1.376, 1.050e-6
-1.377, 9.104e-7
-1.378, 9.844e-7
-1.379, 1.176e-6
-1.380, 1.217e-6
-1.381, 1.062e-6
-1.382, 9.282e-7
-1.383, 1.012e-6
-1.384, 1.194e-6
-1.385, 1.232e-6
-1.386, 1.085e-6
-1.387, 9.509e-7
-1.388, 1.015e-6
-1.389, 1.208e-6
-1.390, 1.253e-6
-1.391, 1.097e-6
-1.392, 9.667e-7
-1.393, 1.038e-6
-1.394, 1.215e-6
-1.395, 1.265e-6
-1.396, 1.110e-6
-1.397, 9.815e-7
-1.398, 1.046e-6
-1.399, 1.235e-6
-1.400, 1.262e-6
-1.399, 1.084e-6
-1.398, 9.568e-7
-1.397, 1.022e-6
-1.396, 1.196e-6
-1.395, 1.244e-6
-1.394, 1.068e-6
-1.393, 9.292e-7
-1.392, 9.973e-7
-1.391, 1.175e-6
-1.390, 1.230e-6
-1.389, 1.056e-6
-1.388, 9.193e-7
-1.387, 9.903e-7
-1.386, 1.167e-6
-1.385, 1.214e-6
-1.384, 1.040e-6
-1.383, 8.966e-7
-1.382, 9.578e-7
-1.381, 1.141e-6
-1.380, 1.195e-6
-1.379, 1.029e-6
-1.378, 8.887e-7
-1.377, 9.459e-7
-1.376, 1.121e-6
-1.375, 1.180e-6
-1.374, 1.012e-6
-1.373, 8.739e-7
-1.372, 9.400e-7
-1.371, 1.112e-6
-1.370, 1.155e-6
-1.369, 9.953e-7
-1.368, 8.532e-7
-1.367, 9.193e-7
-1.366, 1.090e-6
-1.365, 1.153e-6
-1.364, 9.913e-7
-1.363, 8.404e-7
-1.362, 9.025e-7
-1.361, 1.071e-6
-1.360, 1.131e-6
-1.359, 9.785e-7
-1.358, 8.246e-7
-1.357, 8.808e-7
-1.356, 1.055e-6
-1.355, 1.116e-6
-1.354, 9.548e-7
-1.353, 8.108e-7
-1.352, 8.710e-7
-1.351, 1.040e-6
-1.350, 1.102e-6
-1.349, 9.410e-7
-1.348, 7.940e-7
-1.347, 8.532e-7
-1.346, 1.031e-6
-1.345, 1.084e-6
-1.344, 9.134e-7
-1.343, 7.802e-7
-1.342, 8.404e-7
-1.341, 1.012e-6
-1.340, 1.067e-6
-1.339, 9.144e-7
-1.338, 7.644e-7
-1.337, 8.177e-7
-1.336, 9.973e-7
-1.335, 1.054e-6
-1.334, 8.946e-7
-1.333, 7.486e-7
-1.332, 8.029e-7
-1.331, 9.716e-7
-1.330, 1.037e-6
-1.329, 8.789e-7
-1.328, 7.289e-7
-1.327, 7.851e-7
-1.326, 9.617e-7
-1.325, 1.018e-6
-1.324, 8.710e-7
-1.323, 7.151e-7
-1.322, 7.703e-7
-1.321, 9.489e-7
-1.320, 1.005e-6
-1.319, 8.572e-7
-1.318, 6.954e-7
-1.317, 7.467e-7
-1.316, 9.252e-7
-1.315, 9.874e-7
-1.314, 8.364e-7
-1.313, 6.845e-7
-1.312, 7.289e-7
-1.311, 9.124e-7
-1.310, 9.765e-7
-1.309, 8.256e-7
-1.308, 6.628e-7
-1.307, 7.190e-7
-1.306, 8.966e-7
-1.305, 9.568e-7
-1.304, 8.098e-7
-1.303, 6.480e-7
-1.302, 6.875e-7
-1.301, 8.739e-7
-1.300, 9.469e-7
-1.299, 7.940e-7
-1.298, 6.371e-7
-1.297, 6.904e-7
-1.296, 8.572e-7
-1.295, 9.311e-7
-1.294, 7.822e-7
-1.293, 6.322e-7
-1.292, 6.658e-7
-1.291, 8.512e-7
-1.290, 9.104e-7
-1.289, 7.634e-7
-1.288, 6.135e-7
-1.287, 6.588e-7
-1.286, 8.305e-7
-1.285, 8.976e-7
-1.284, 7.467e-7
-1.283, 5.947e-7
-1.282, 6.371e-7
-1.281, 8.246e-7
-1.280, 8.858e-7
-1.279, 7.309e-7
-1.278, 5.750e-7
-1.277, 6.204e-7
-1.276, 7.930e-7
-1.275, 8.779e-7
-1.274, 7.220e-7
-1.273, 5.582e-7
-1.272, 6.036e-7
-1.271, 7.851e-7
-1.270, 8.552e-7
-1.269, 7.042e-7
-1.268, 5.533e-7
-1.267, 5.858e-7
-1.266, 7.703e-7
-1.265, 8.335e-7
-1.264, 6.904e-7
-1.263, 5.336e-7
-1.262, 5.770e-7
-1.261, 7.506e-7
-1.260, 8.305e-7
-1.259, 6.815e-7
-1.258, 5.168e-7
-1.257, 5.582e-7
-1.256, 7.338e-7
-1.255, 7.989e-7
-1.254, 6.598e-7
-1.253, 5.000e-7
-1.252, 5.464e-7
-1.251, 7.151e-7
-1.250, 7.871e-7
-1.249, 6.519e-7
-1.248, 4.862e-7
-1.247, 5.266e-7
-1.246, 6.983e-7
-1.245, 7.693e-7
-1.244, 6.253e-7
-1.243, 4.645e-7
-1.242, 5.089e-7
-1.241, 6.746e-7
-1.240, 7.545e-7
-1.239, 6.174e-7
-1.238, 4.497e-7
-1.237, 4.872e-7
-1.236, 6.638e-7
-1.235, 7.407e-7
-1.234, 6.105e-7
-1.233, 4.526e-7
-1.232, 4.803e-7
-1.231, 6.569e-7
-1.230, 7.319e-7
-1.229, 5.809e-7
-1.228, 4.201e-7
-1.227, 4.517e-7
-1.226, 6.332e-7
-1.225, 7.111e-7
-1.224, 5.691e-7
-1.223, 4.083e-7
-1.222, 4.388e-7
-1.221, 6.135e-7
-1.220, 6.954e-7
-1.219, 5.533e-7
-1.218, 3.925e-7
-1.217, 4.231e-7
-1.216, 5.908e-7
-1.215, 6.717e-7
-1.214, 5.405e-7
-1.213, 3.777e-7
-1.212, 4.023e-7
-1.211, 5.779e-7
-1.210, 6.677e-7
-1.209, 5.306e-7
-1.208, 3.619e-7
-1.207, 3.875e-7
-1.206, 5.612e-7
-1.205, 6.470e-7
-1.204, 5.188e-7
-1.203, 3.461e-7
-1.202, 3.737e-7
-1.201, 5.454e-7
-1.200, 6.283e-7
-1.199, 5.010e-7
-1.198, 3.333e-7
-1.197, 3.550e-7
-1.196, 5.286e-7
-1.195, 6.184e-7
-1.194, 4.773e-7
-1.193, 3.224e-7
-1.192, 3.461e-7
-1.191, 5.138e-7
-1.190, 5.957e-7
-1.189, 4.655e-7
-1.188, 2.948e-7
-1.187, 3.293e-7
-1.186, 5.049e-7
-1.185, 5.878e-7
-1.184, 4.536e-7
-1.183, 2.869e-7
-1.182, 3.165e-7
-1.181, 4.813e-7
-1.180, 5.701e-7
-1.179, 4.438e-7
-1.178, 2.682e-7
-1.177, 2.879e-7
-1.176, 4.536e-7
-1.175, 5.474e-7
-1.174, 4.280e-7
-1.173, 2.494e-7
-1.172, 2.751e-7
-1.171, 4.448e-7
-1.170, 5.375e-7
-1.169, 4.132e-7
-1.168, 2.425e-7
-1.167, 2.613e-7
-1.166, 4.329e-7
-1.165, 5.188e-7
-1.164, 3.974e-7
-1.163, 2.149e-7
-1.162, 2.455e-7
-1.161, 4.240e-7
-1.160, 5.069e-7
-1.159, 3.826e-7
-1.158, 2.090e-7
-1.157, 2.317e-7
-1.156, 3.964e-7
-1.155, 4.941e-7
-1.154, 3.688e-7
-1.153, 1.961e-7
-1.152, 2.109e-7
-1.151, 3.757e-7
-1.150, 4.753e-7
-1.149, 3.560e-7
-1.148, 1.784e-7
-1.147, 1.912e-7
-1.146, 3.648e-7
-1.145, 4.566e-7
-1.144, 3.412e-7
-1.143, 1.606e-7
-1.142, 1.833e-7
-1.141, 3.461e-7
-1.140, 4.388e-7
-1.139, 3.283e-7
-1.138, 1.517e-7
-1.137, 1.665e-7
-1.136, 3.343e-7
-1.135, 4.349e-7
-1.134, 3.086e-7
-1.133, 1.389e-7
-1.132, 1.517e-7
-1.131, 3.214e-7
-1.130, 4.211e-7
-1.129, 2.997e-7
-1.128, 1.300e-7
-1.127, 1.290e-7
-1.126, 2.978e-7
-1.125, 3.954e-7
-1.124, 2.800e-7
-1.123, 1.123e-7
-1.122, 1.182e-7
-1.121, 2.889e-7
-1.120, 3.816e-7
-1.119, 2.701e-7
-1.118, 9.649e-8
-1.117, 9.945e-8
-1.116, 2.731e-7
-1.115, 3.757e-7
-1.114, 2.524e-7
-1.113, 7.380e-8
-1.112, 8.268e-8
-1.111, 2.543e-7
-1.110, 3.540e-7
-1.109, 2.405e-7
-1.108, 6.492e-8
-1.107, 6.097e-8
-1.106, 2.405e-7
-1.105, 3.372e-7
-1.104, 2.346e-7
-1.103, 5.407e-8
-1.102, 5.505e-8
-1.101, 2.188e-7
-1.100, 3.224e-7
-1.099, 2.060e-7
-1.098, 3.335e-8
-1.097, 3.927e-8
-1.096, 2.021e-7
-1.095, 3.145e-7
-1.094, 1.892e-7
-1.093, 1.855e-8
-1.092, 2.348e-8
-1.091, 1.942e-7
-1.090, 2.948e-7
-1.089, 1.813e-7
-1.088, 3.749e-9
-1.087, 1.066e-8
-1.086, 1.715e-7
-1.085, 2.751e-7
-1.084, 1.725e-7
-1.083, -7.103e-9
-1.082, -8.090e-9
-1.081, 1.537e-7
-1.080, 2.632e-7
-1.079, 1.586e-7
-1.078, -1.697e-8
-1.077, -1.697e-8
-1.076, 1.448e-7
-1.075, 2.376e-7
-1.074, 1.419e-7
-1.073, -3.078e-8
-1.072, -4.459e-8
-1.071, 1.241e-7
-1.070, 2.415e-7
-1.069, 1.142e-7
-1.068, -4.657e-8
-1.067, -5.347e-8
-1.066, 9.945e-8
-1.065, 2.159e-7
-1.064, 1.192e-7
-1.063, -6.630e-8
-1.062, -7.123e-8
-1.061, 8.761e-8
-1.060, 2.011e-7
-1.059, 9.748e-8
-1.058, -7.912e-8
-1.057, -9.392e-8
-1.056, 7.380e-8
-1.055, 1.853e-7
-1.054, 8.860e-8
-1.053, -9.491e-8
-1.052, -1.038e-7
-1.051, 5.703e-8
-1.050, 1.725e-7
-1.049, 6.590e-8
-1.048, -1.117e-7
-1.047, -1.107e-7
-1.046, 3.828e-8
-1.045, 1.527e-7
-1.044, 6.097e-8
-1.043, -1.255e-7
-1.042, -1.354e-7
-1.041, 2.841e-8
-1.040, 1.468e-7
-1.039, 4.913e-8
-1.038, -1.403e-7
-1.037, -1.561e-7
-1.036, -1.973e-10
-1.035, 1.251e-7
-1.034, 3.039e-8
-1.033, -1.541e-7
-1.032, -1.620e-7
-1.031, -6.117e-9
-1.030, 1.083e-7
-1.029, 2.249e-8
-1.028, -1.561e-7
-1.027, -1.807e-7
-1.026, -1.697e-8
-1.025, 9.945e-8
-1.024, -9.077e-9
-1.023, -1.936e-7
-1.022, -2.034e-7
-1.021, -4.953e-8
-1.020, 7.676e-8
-1.019, -2.289e-8
-1.018, -2.005e-7
-1.017, -2.094e-7
-1.016, -5.742e-8
-1.015, 6.196e-8
-1.014, -2.980e-8
-1.013, -2.024e-7
-1.012, -2.311e-7
-1.011, -7.123e-8
-1.010, 4.420e-8
-1.009, -4.361e-8
-1.008, -2.301e-7
-1.007, -2.538e-7
-1.006, -9.195e-8
-1.005, 3.137e-8
-1.004, -7.419e-8
-1.003, -2.449e-7
-1.002, -2.646e-7
-1.001, -1.087e-7
-1.000, 4.124e-8
-1.001, -2.980e-8
-1.002, -2.133e-7
-1.003, -2.370e-7
-1.004, -6.334e-8
-1.005, 5.505e-8
-1.006, -2.486e-8
-1.007, -2.034e-7
-1.008, -2.103e-7
-1.009, -5.643e-8
-1.010, 7.084e-8
-1.011, -3.157e-9
-1.012, -1.827e-7
-1.013, -1.975e-7
-1.014, -4.163e-8
-1.015, 9.748e-8
-1.016, 9.669e-9
-1.017, -1.630e-7
-1.018, -1.906e-7
-1.019, -2.092e-8
-1.020, 1.024e-7
-1.021, 2.743e-8
-1.022, -1.610e-7
-1.023, -1.699e-7
-1.024, -1.500e-8
-1.025, 1.271e-7
-1.026, 4.716e-8
-1.027, -1.235e-7
-1.028, -1.462e-7
-1.029, 3.749e-9
-1.030, 1.419e-7
-1.031, 6.492e-8
-1.032, -1.097e-7
-1.033, -1.275e-7
-1.034, 2.249e-8
-1.035, 1.567e-7
-1.036, 8.958e-8
-1.037, -8.899e-8
-1.038, -1.156e-7
-1.039, 3.335e-8
-1.040, 1.665e-7
-1.041, 1.044e-7
-1.042, -7.715e-8
-1.043, -1.097e-7
-1.044, 4.913e-8
-1.045, 1.833e-7
-1.046, 1.152e-7
-1.047, -6.433e-8
-1.048, -8.998e-8
-1.049, 5.801e-8
-1.050, 2.159e-7
-1.051, 1.458e-7
-1.052, -3.769e-8
-1.053, -7.025e-8
-1.054, 8.662e-8
-1.055, 2.198e-7
-1.056, 1.646e-7
-1.057, -2.782e-8
-1.058, -6.827e-8
-1.059, 9.353e-8
-1.060, 2.336e-7
-1.061, 1.596e-7
-1.062, -1.302e-8
-1.063, -3.769e-8
-1.064, 1.113e-7
-1.065, 2.514e-7
-1.066, 1.863e-7
-1.067, 7.893e-10
-1.068, -3.275e-8
-1.069, 1.221e-7
-1.070, 2.731e-7
-1.071, 1.991e-7
-1.072, 2.545e-8
-1.073, -1.598e-8
-1.074, 1.399e-7
-1.075, 2.830e-7
-1.076, 2.238e-7
-1.077, 4.321e-8
-1.078, 8.682e-9
-1.079, 1.508e-7
-1.080, 3.047e-7
-1.081, 2.386e-7
-1.082, 5.998e-8
-1.083, 1.066e-8
-1.084, 1.685e-7
-1.085, 3.096e-7
-1.086, 2.583e-7
-1.087, 7.676e-8
-1.088, 3.927e-8
-1.089, 1.951e-7
-1.090, 3.333e-7
-1.091, 2.800e-7
-1.092, 8.958e-8
-1.093, 5.407e-8
-1.094, 1.932e-7
-1.095, 3.392e-7
-1.096, 2.908e-7
-1.097, 1.034e-7
-1.098, 6.689e-8
-1.099, 2.030e-7
-1.100, 3.500e-7
-1.101, 2.948e-7
-1.102, 1.261e-7
-1.103, 6.689e-8
-1.104, 2.277e-7
-1.105, 3.727e-7
-1.106, 3.076e-7
-1.107, 1.419e-7
-1.108, 9.156e-8
-1.109, 2.405e-7
-1.110, 3.856e-7
-1.111, 3.333e-7
-1.112, 1.547e-7
-1.113, 1.093e-7
-1.114, 2.642e-7
-1.115, 4.043e-7
-1.116, 3.570e-7
-1.117, 1.734e-7
-1.118, 1.202e-7
-1.119, 2.770e-7
-1.120, 4.231e-7
-1.121, 3.648e-7
-1.122, 1.863e-7
-1.123, 1.438e-7
-1.124, 2.869e-7
-1.125, 4.260e-7
-1.126, 3.846e-7
-1.127, 2.030e-7
-1.128, 1.567e-7
-1.129, 2.987e-7
-1.130, 4.576e-7
-1.131, 4.033e-7
-1.132, 2.198e-7
-1.133, 1.744e-7
-1.134, 3.116e-7
-1.135, 4.674e-7
-1.136, 4.211e-7
-1.137, 2.326e-7
-1.138, 1.784e-7
-1.139, 3.313e-7
-1.140, 4.961e-7
-1.141, 4.418e-7
-1.142, 2.494e-7
-1.143, 1.971e-7
-1.144, 3.402e-7
-1.145, 4.941e-7
-1.146, 4.576e-7
-1.147, 2.721e-7
-1.148, 2.109e-7
-1.149, 3.540e-7
-1.150, 5.099e-7
-1.151, 4.596e-7
-1.152, 2.869e-7
-1.153, 2.336e-7
-1.154, 3.629e-7
-1.155, 5.227e-7
-1.156, 4.901e-7
-1.157, 3.037e-7
-1.158, 2.445e-7
-1.159, 3.865e-7
-1.160, 5.365e-7
-1.161, 5.000e-7
-1.162, 3.224e-7
-1.163, 2.672e-7
-1.164, 3.984e-7
-1.165, 5.602e-7
-1.166, 5.168e-7
-1.167, 3.441e-7
-1.168, 2.701e-7
-1.169, 4.142e-7
-1.170, 5.750e-7
-1.171, 5.434e-7
-1.172, 3.481e-7
-1.173, 2.997e-7
-1.174, 4.319e-7
-1.175, 5.898e-7
-1.176, 5.474e-7
-1.177, 3.698e-7
-1.178, 3.047e-7
-1.179, 4.428e-7
-1.180, 6.105e-7
-1.181, 5.730e-7
-1.182, 3.856e-7
-1.183, 3.175e-7
-1.184, 4.665e-7
-1.185, 6.194e-7
-1.186, 5.829e-7
-1.187, 4.013e-7
-1.188, 3.303e-7
-1.189, 4.674e-7
-1.190, 6.371e-7
-1.191, 6.075e-7
-1.192, 4.240e-7
-1.193, 3.550e-7
-1.194, 4.872e-7
-1.195, 6.480e-7
-1.196, 6.174e-7
-1.197, 4.388e-7
-1.198, 3.757e-7
-1.199, 4.931e-7
-1.200, 6.618e-7
-1.201, 6.352e-7
-1.202, 4.546e-7
-1.203, 3.935e-7
-1.204, 5.217e-7
-1.205, 6.786e-7
-1.206, 6.608e-7
-1.207, 4.615e-7
-1.208, 4.023e-7
-1.209, 5.355e-7
-1.210, 6.983e-7
-1.211, 6.598e-7
-1.212, 4.793e-7
-1.213, 4.181e-7
-1.214, 5.503e-7
-1.215, 7.121e-7
-1.216, 6.835e-7
-1.217, 5.049e-7
-1.218, 4.359e-7
-1.219, 5.631e-7
-1.220, 7.259e-7
-1.221, 6.954e-7
-1.222, 5.158e-7
-1.223, 4.526e-7
-1.224, 5.760e-7
-1.225, 7.427e-7
-1.226, 7.082e-7
-1.227, 5.296e-7
-1.228, 4.586e-7
-1.229, 6.046e-7
-1.230, 7.693e-7
-1.231, 7.328e-7
-1.232, 5.503e-7
-1.233, 4.872e-7
-1.234, 6.056e-7
-1.235, 7.772e-7
-1.236, 7.595e-7
-1.237, 5.799e-7
-1.238, 4.961e-7
-1.239, 6.263e-7
-1.240, 7.920e-7
-1.241, 7.753e-7
-1.242, 5.937e-7
-1.243, 5.148e-7
-1.244, 6.381e-7
-1.245, 8.118e-7
-1.246, 7.891e-7
-1.247, 6.154e-7
-1.248, 5.237e-7
-1.249, 6.529e-7
-1.250, 8.187e-7
-1.251, 7.999e-7
-1.252, 6.194e-7
-1.253, 5.424e-7
-1.254, 6.727e-7
-1.255, 8.354e-7
-1.256, 8.206e-7
-1.257, 6.421e-7
-1.258, 5.553e-7
-1.259, 6.776e-7
-1.260, 8.512e-7
-1.261, 8.384e-7
-1.262, 6.510e-7
-1.263, 5.750e-7
-1.264, 6.944e-7
-1.265, 8.700e-7
-1.266, 8.433e-7
-1.267, 6.677e-7
-1.268, 5.967e-7
-1.269, 7.141e-7
-1.270, 8.808e-7
-1.271, 8.690e-7
-1.272, 6.855e-7
-1.273, 6.066e-7
-1.274, 7.240e-7
-1.275, 8.956e-7
-1.276, 8.848e-7
-1.277, 6.954e-7
-1.278, 6.214e-7
-1.279, 7.338e-7
-1.280, 9.094e-7
-1.281, 9.025e-7
-1.282, 7.220e-7
-1.283, 6.391e-7
-1.284, 7.526e-7
-1.285, 9.203e-7
-1.286, 9.154e-7
-1.287, 7.358e-7
-1.288, 6.500e-7
-1.289, 7.624e-7
-1.290, 9.430e-7
-1.291, 9.272e-7
-1.292, 7.447e-7
-1.293, 6.677e-7
-1.294, 7.832e-7
-1.295, 9.548e-7
-1.296, 9.459e-7
-1.297, 7.723e-7
-1.298, 6.736e-7
-1.299, 8.009e-7
-1.300, 9.686e-7
-1.301, 9.617e-7
-1.302, 7.792e-7
-1.303, 6.993e-7
-1.304, 8.059e-7
-1.305, 9.736e-7
-1.306, 9.795e-7
-1.307, 8.049e-7
-1.308, 7.131e-7
-1.309, 8.226e-7
-1.310, 9.913e-7
-1.311, 9.973e-7
-1.312, 8.059e-7
-1.313, 7.220e-7
-1.314, 8.364e-7
-1.315, 1.008e-6
-1.316, 1.008e-6
-1.317, 8.276e-7
-1.318, 7.378e-7
-1.319, 8.502e-7
-1.320, 1.021e-6
-1.321, 1.041e-6
-1.322, 8.453e-7
-1.323, 7.496e-7
-1.324, 8.650e-7
-1.325, 1.041e-6
-1.326, 1.036e-6
-1.327, 8.572e-7
-1.328, 7.664e-7
-1.329, 8.818e-7
-1.330, 1.058e-6
-1.331, 1.056e-6
-1.332, 8.877e-7
-1.333, 7.841e-7
-1.334, 8.907e-7
-1.335, 1.071e-6
-1.336, 1.084e-6
-1.337, 8.946e-7
-1.338, 8.009e-7
-1.339, 9.094e-7
-1.340, 1.082e-6
-1.341, 1.090e-6
-1.342, 9.144e-7
-1.343, 8.187e-7
-1.344, 9.272e-7
-1.345, 1.098e-6
-1.346, 1.114e-6
-1.347, 9.302e-7
-1.348, 8.216e-7
-1.349, 9.400e-7
-1.350, 1.113e-6
-1.351, 1.120e-6
-1.352, 9.420e-7
-1.353, 8.502e-7
-1.354, 9.499e-7
-1.355, 1.122e-6
-1.356, 1.130e-6
-1.357, 9.598e-7
-1.358, 8.611e-7
-1.359, 9.637e-7
-1.360, 1.147e-6
-1.361, 1.159e-6
-1.362, 9.716e-7
-1.363, 8.769e-7
-1.364, 9.775e-7
-1.365, 1.148e-6
-1.366, 1.173e-6
-1.367, 9.963e-7
-1.368, 8.789e-7
-1.369, 9.913e-7
-1.370, 1.175e-6
-1.371, 1.179e-6
-1.372, 1.008e-6
-1.373, 9.016e-7
-1.374, 9.973e-7
-1.375, 1.192e-6
-1.376, 1.199e-6
-1.377, 1.018e-6
-1.378, 9.213e-7
-1.379, 1.024e-6
-1.380, 1.203e-6
-1.381, 1.208e-6
-1.382, 1.038e-6
-1.383, 9.479e-7
-1.384, 1.039e-6
-1.385, 1.211e-6
-1.386, 1.236e-6
-1.387, 1.049e-6
-1.388, 9.519e-7
-1.389, 1.058e-6
-1.390, 1.234e-6
-1.391, 1.244e-6
-1.392, 1.070e-6
-1.393, 9.637e-7
-1.394, 1.056e-6
-1.395, 1.245e-6
-1.396, 1.270e-6
-1.397, 1.079e-6
-1.398, 9.726e-7
-1.399, 1.077e-6
-1.400, 1.237e-6
-1.399, 1.246e-6
-1.398, 1.059e-6
-1.397, 9.469e-7
-1.396, 1.043e-6
-1.395, 1.208e-6
-1.394, 1.223e-6
-1.393, 1.052e-6
-1.392, 9.203e-7
-1.391, 1.025e-6
-1.390, 1.200e-6
-1.389, 1.214e-6
-1.388, 1.032e-6
-1.387, 9.114e-7
-1.386, 1.009e-6
-1.385, 1.185e-6
-1.384, 1.198e-6
-1.383, 1.011e-6
-1.382, 8.966e-7
-1.381, 9.775e-7
-1.380, 1.162e-6
-1.379, 1.179e-6
-1.378, 1.002e-6
-1.377, 8.848e-7
-1.376, 9.677e-7
-1.375, 1.148e-6
-1.374, 1.159e-6
-1.373, 9.785e-7
-1.372, 8.601e-7
-1.371, 9.499e-7
-1.370, 1.125e-6
-1.369, 1.145e-6
-1.368, 9.795e-7
-1.367, 8.433e-7
-1.366, 9.400e-7
-1.365, 1.112e-6
-1.364, 1.135e-6
-1.363, 9.568e-7
-1.362, 8.404e-7
-1.361, 9.282e-7
-1.360, 1.089e-6
-1.359, 1.112e-6
-1.358, 9.420e-7
-1.357, 8.226e-7
-1.356, 9.035e-7
-1.355, 1.075e-6
-1.354, 1.104e-6
-1.353, 9.193e-7
-1.352, 8.059e-7
-1.351, 8.808e-7
-1.350, 1.056e-6
-1.349, 1.090e-6
-1.348, 9.114e-7
-1.347, 7.901e-7
-1.346, 8.729e-7
-1.345, 1.052e-6
-1.344, 1.069e-6
-1.343, 8.966e-7
-1.342, 7.723e-7
-1.341, 8.591e-7
-1.340, 1.030e-6
-1.339, 1.058e-6
-1.338, 8.729e-7
-1.337, 7.565e-7
-1.336, 8.384e-7
-1.335, 1.013e-6
-1.334, 1.042e-6
-1.333, 8.739e-7
-1.332, 7.368e-7
-1.331, 8.108e-7
-1.330, 1.000e-6
-1.329, 1.023e-6
-1.328, 8.473e-7
-1.327, 7.269e-7
-1.326, 8.039e-7
-1.325, 9.795e-7
-1.324, 1.007e-6
-1.323, 8.325e-7
-1.322, 7.062e-7
-1.321, 7.989e-7
-1.320, 9.617e-7
-1.319, 9.894e-7
-1.318, 8.266e-7
-1.317, 6.914e-7
-1.316, 7.713e-7
-1.315, 9.479e-7
-1.314, 9.834e-7
-1.313, 8.128e-7
-1.312, 6.786e-7
-1.311, 7.536e-7
-1.310, 9.262e-7
-1.309, 9.519e-7
-1.308, 7.930e-7
-1.307, 6.707e-7
-1.306, 7.407e-7
-1.305, 9.124e-7
-1.304, 9.400e-7
-1.303, 7.792e-7
-1.302, 6.421e-7
-1.301, 7.200e-7
-1.300, 8.996e-7
-1.299, 9.331e-7
-1.298, 7.555e-7
-1.297, 6.332e-7
-1.296, 7.032e-7
-1.295, 8.868e-7
-1.294, 9.144e-7
-1.293, 7.467e-7
-1.292, 6.095e-7
-1.291, 6.963e-7
-1.290, 8.670e-7
-1.289, 9.075e-7
-1.288, 7.328e-7
-1.287, 5.997e-7
-1.286, 6.707e-7
-1.285, 8.502e-7
-1.284, 8.937e-7
-1.283, 7.161e-7
-1.282, 5.918e-7
-1.281, 6.588e-7
-1.280, 8.374e-7
-1.279, 8.650e-7
-1.278, 7.023e-7
-1.277, 5.631e-7
-1.276, 6.421e-7
-1.275, 8.177e-7
-1.274, 8.581e-7
-1.273, 6.875e-7
-1.272, 5.553e-7
-1.271, 6.283e-7
-1.270, 7.989e-7
-1.269, 8.384e-7
-1.268, 6.796e-7
-1.267, 5.345e-7
-1.266, 6.125e-7
-1.265, 7.832e-7
-1.264, 8.226e-7
-1.263, 6.519e-7
-1.262, 5.207e-7
-1.261, 5.967e-7
-1.260, 7.684e-7
-1.259, 8.078e-7
-1.258, 6.440e-7
-1.257, 5.128e-7
-1.256, 5.740e-7
-1.255, 7.545e-7
-1.254, 7.970e-7
-1.253, 6.283e-7
-1.252, 4.872e-7
-1.251, 5.553e-7
-1.250, 7.407e-7
-1.249, 7.753e-7
-1.248, 6.164e-7
-1.247, 4.783e-7
-1.246, 5.434e-7
-1.245, 7.250e-7
-1.244, 7.644e-7
-1.243, 6.036e-7
-1.242, 4.605e-7
-1.241, 5.217e-7
-1.240, 7.003e-7
-1.239, 7.516e-7
-1.238, 5.888e-7
-1.237, 4.497e-7
-1.236, 5.089e-7
-1.235, 6.875e-7
-1.234, 7.397e-7
-1.233, 5.691e-7
-1.232, 4.359e-7
-1.231, 4.901e-7
-1.230, 6.766e-7
-1.229, 7.171e-7
-1.228, 5.493e-7
-1.227, 4.102e-7
-1.226, 4.665e-7
-1.225, 6.539e-7
-1.224, 6.954e-7
-1.223, 5.326e-7
-1.222, 3.935e-7
-1.221, 4.576e-7
-1.220, 6.342e-7
-1.219, 6.796e-7
-1.218, 5.227e-7
-1.217, 3.787e-7
-1.216, 4.388e-7
-1.215, 6.145e-7
-1.214, 6.628e-7
-1.213, 4.980e-7
-1.212, 3.688e-7
-1.211, 4.260e-7
-1.210, 6.085e-7
-1.209, 6.480e-7
-1.208, 4.921e-7
-1.207, 3.471e-7
-1.206, 4.073e-7
-1.205, 5.977e-7
-1.204, 6.391e-7
-1.203, 4.704e-7
-1.202, 3.303e-7
-1.201, 3.944e-7
-1.200, 5.691e-7
-1.199, 6.233e-7
-1.198, 4.734e-7
-1.197, 3.224e-7
-1.196, 3.688e-7
-1.195, 5.493e-7
-1.194, 6.105e-7
-1.193, 4.576e-7
-1.192, 3.037e-7
-1.191, 3.639e-7
-1.190, 5.197e-7
-1.189, 5.997e-7
-1.188, 4.379e-7
-1.187, 2.849e-7
-1.186, 3.382e-7
-1.185, 5.207e-7
-1.184, 5.730e-7
-1.183, 4.191e-7
-1.182, 2.800e-7
-1.181, 3.372e-7
-1.180, 5.118e-7
-1.179, 5.592e-7
-1.178, 3.964e-7
-1.177, 2.524e-7
-1.176, 3.066e-7
-1.175, 4.911e-7
-1.174, 5.434e-7
-1.173, 3.856e-7
-1.172, 2.405e-7
-1.171, 3.076e-7
-1.170, 4.684e-7
-1.169, 5.326e-7
-1.168, 3.708e-7
-1.167, 2.247e-7
-1.166, 2.849e-7
-1.165, 4.615e-7
-1.164, 5.138e-7
-1.163, 3.579e-7
-1.162, 2.149e-7
-1.161, 2.691e-7
-1.160, 4.369e-7
-1.159, 5.040e-7
-1.158, 3.500e-7
-1.157, 1.991e-7
-1.156, 2.435e-7
-1.155, 4.240e-7
-1.154, 4.872e-7
-1.153, 3.392e-7
-1.152, 1.764e-7
-1.151, 2.297e-7
-1.150, 4.013e-7
-1.149, 4.724e-7
-1.148, 3.214e-7
-1.147, 1.734e-7
-1.146, 2.159e-7
-1.145, 3.944e-7
-1.144, 4.586e-7
-1.143, 3.145e-7
-1.142, 1.478e-7
-1.141, 2.011e-7
-1.140, 3.708e-7
-1.139, 4.339e-7
-1.138, 2.968e-7
-1.137, 1.281e-7
-1.136, 1.922e-7
-1.135, 3.500e-7
-1.134, 4.250e-7
-1.133, 2.790e-7
-1.132, 1.152e-7
-1.131, 1.705e-7
-1.130, 3.540e-7
-1.129, 4.112e-7
-1.128, 2.622e-7
-1.127, 1.103e-7
-1.126, 1.468e-7
-1.125, 3.293e-7
-1.124, 3.836e-7
-1.123, 2.514e-7
-1.122, 8.761e-8
-1.121, 1.389e-7
-1.120, 3.116e-7
-1.119, 3.796e-7
-1.118, 2.317e-7
-1.117, 7.380e-8
-1.116, 1.182e-7
-1.115, 2.958e-7
-1.114, 3.668e-7
-1.113, 2.119e-7
-1.112, 6.689e-8
-1.111, 1.054e-7
-1.110, 2.701e-7
-1.109, 3.530e-7
-1.108, 2.070e-7
-1.107, 4.716e-8
-1.106, 9.057e-8
-1.105, 2.622e-7
-1.104, 3.362e-7
-1.103, 1.951e-7
-1.102, 3.828e-8
-1.101, 7.380e-8
-1.100, 2.376e-7
-1.099, 3.224e-7
-1.098, 1.744e-7
-1.097, 2.052e-8
-1.096, 5.209e-8
-1.095, 2.326e-7
-1.094, 3.076e-7
-1.093, 1.596e-7
-1.092, 2.762e-9
-1.091, 4.124e-8
-1.090, 2.090e-7
-1.089, 2.938e-7
-1.088, 1.369e-7
-1.087, -2.684e-8
-1.086, 2.348e-8
-1.085, 1.961e-7
-1.084, 2.721e-7
-1.083, 1.350e-7
-1.082, -3.275e-8
-1.081, 6.709e-9
-1.080, 1.774e-7
-1.079, 2.603e-7
-1.078, 1.221e-7
-1.077, -3.275e-8
-1.076, -6.117e-9
-1.075, 1.656e-7
-1.074, 2.425e-7
-1.073, 1.054e-7
-1.072, -6.235e-8
-1.071, -2.881e-8
-1.070, 1.478e-7
-1.069, 2.228e-7
-1.068, 8.564e-8
-1.067, -6.827e-8
-1.066, -4.262e-8
-1.065, 1.310e-7
-1.064, 2.188e-7
-1.063, 7.972e-8
-1.062, -8.998e-8
-1.061, -5.446e-8
-1.060, 1.172e-7
-1.059, 1.942e-7
-1.058, 6.689e-8
-1.057, -1.077e-7
-1.056, -7.419e-8
-1.055, 9.846e-8
-1.054, 1.833e-7
-1.053, 4.617e-8
-1.052, -1.137e-7
-1.051, -8.208e-8
-1.050, 8.366e-8
-1.049, 1.616e-7
-1.048, 3.532e-8
-1.047, -1.324e-7
-1.046, -1.038e-7
-1.045, 6.590e-8
-1.044, 1.527e-7
-1.043, 1.756e-8
-1.042, -1.482e-7
-1.041, -1.206e-7
-1.040, 4.913e-8
-1.039, 1.409e-7
-1.038, 4.736e-9
-1.037, -1.620e-7
-1.036, -1.354e-7
-1.035, 2.644e-8
-1.034, 1.212e-7
-1.033, -7.103e-9
-1.032, -1.768e-7
-1.031, -1.472e-7
-1.030, 2.052e-8
-1.029, 1.142e-7
-1.028, -1.401e-8
-1.027, -1.847e-7
-1.026, -1.669e-7
-1.025, 3.749e-9
-1.024, 8.761e-8
-1.023, -4.854e-8
-1.022, -2.074e-7
-1.021, -1.886e-7
-1.020, -1.993e-8
-1.019, 7.577e-8
-1.018, -5.249e-8
-1.017, -2.222e-7
-1.016, -1.995e-7
-1.015, -3.374e-8
-1.014, 6.393e-8
-1.013, -6.038e-8
-1.012, -2.380e-7
-1.011, -2.202e-7
-1.010, -5.446e-8
-1.009, 3.927e-8
-1.008, -8.208e-8
-1.007, -2.538e-7
-1.006, -2.222e-7
-1.005, -6.827e-8
-1.004, 2.545e-8
-1.003, -9.787e-8
-1.002, -2.557e-7
-1.001, -2.429e-7
