Potential V vs RHE, Current mA cm-2
0.013299999999999867,-0.1766974413531431
0.012299999999999978,-0.48199213986401795
0.011299999999999866,-0.7001406223032067
0.010299999999999976,-0.7872868383748929
0.009299999999999864,-0.8745745255765657
0.008299999999999974,-0.9617207416482519
0.007299999999999862,-1.0054353208140816
0.006299999999999972,-1.0490084288499246
0.00529999999999986,-1.0925815368857679
0.0042999999999999705,-1.1362961160515976
0.0032999999999998586,-1.1798692240874404
0.0022999999999999687,-1.2234423321232837
0.0012999999999998568,-1.2671569112891135
0.00029999999999996696,-1.3107300193249565
-0.000700000000000145,-1.3107300193249565
-0.0017000000000000348,-1.3543031273607997
-0.0027000000000001467,-1.3980177065266295
-0.0037000000000000366,-1.3980177065266295
-0.0047000000000001485,-1.3980177065266295
-0.005700000000000038,-1.4415908145624723
-0.00670000000000015,-1.4415908145624723
-0.00770000000000004,-1.4854468648582886
-0.008700000000000152,-1.5293029151541047
-0.009700000000000042,-1.5293029151541047
-0.010700000000000154,-1.5717442541500557
-0.011700000000000044,-1.6156003044458718
-0.012700000000000156,-1.6594563547416883
-0.013700000000000045,-1.7033124050375041
-0.014700000000000157,-1.7033124050375041
-0.015700000000000047,-1.7033124050375041
-0.01670000000000016,-1.7471684553333202
-0.01770000000000005,-1.7471684553333202
-0.01870000000000016,-1.7910245056291363
-0.01970000000000005,-1.8334658446250875
-0.020700000000000163,-1.8334658446250875
-0.021700000000000053,-1.8773218949209036
-0.022700000000000164,-1.92117794521672
-0.023700000000000054,-1.92117794521672
-0.024700000000000166,-2.008890045808352
-0.025700000000000056,-2.008890045808352
-0.026700000000000168,-2.052746096104168
-0.027700000000000058,-2.095187435100119
-0.02870000000000017,-2.1390434853959355
-0.02970000000000006,-2.1390434853959355
-0.03070000000000017,-2.1828995356917518
-0.03170000000000006,-2.226755585987568
-0.03270000000000017,-2.226755585987568
-0.03370000000000006,-2.2706116362833835
-0.034700000000000175,-2.3144676865791998
-0.035700000000000065,-2.3569090255751513
-0.03670000000000018,-2.4007650758709675
-0.03770000000000007,-2.4446211261667834
-0.03870000000000018,-2.532333226758415
-0.03970000000000007,-2.576189277054232
-0.04070000000000018,-2.576189277054232
-0.04170000000000007,-2.618630616050183
-0.04270000000000018,-2.662486666345999
-0.04370000000000007,-2.706342716641815
-0.044700000000000184,-2.7501987669376318
-0.045700000000000074,-2.7501987669376318
-0.046700000000000186,-2.794054817233447
-0.047700000000000076,-2.8379108675292635
-0.04870000000000019,-2.8803522065252145
-0.04970000000000008,-2.924208256821031
-0.05070000000000019,-3.0119203574126634
-0.05170000000000008,-3.055776407708479
-0.05270000000000019,-3.1420737970002466
-0.05370000000000008,-3.1420737970002466
-0.05470000000000019,-3.2297858975918787
-0.05570000000000008,-3.2297858975918787
-0.056700000000000195,-3.317497998183511
-0.057700000000000085,-3.317497998183511
-0.058700000000000196,-3.361354048479327
-0.059700000000000086,-3.403795387475278
-0.0607000000000002,-3.447651437771094
-0.06170000000000009,-3.4915074880669104
-0.0627000000000002,-3.579219588658543
-0.06370000000000009,-3.623075638954359
-0.0647000000000002,-3.7093730282461257
-0.06570000000000009,-3.7532290785419424
-0.0667000000000002,-3.7970851288377587
-0.0677000000000001,-3.840941179133574
-0.0687000000000002,-3.884797229429391
-0.0697000000000001,-3.927238568425342
-0.07070000000000021,-3.971094618721158
-0.0717000000000001,-4.014950669016974
-0.07270000000000021,-4.0588067193127895
-0.0737000000000001,-4.102662769608606
-0.07470000000000021,-4.146518819904423
-0.0757000000000001,-4.1889601589003735
-0.07670000000000021,-4.276672259492005
-0.0777000000000001,-4.364384360083638
-0.07870000000000021,-4.406825699079589
-0.0797000000000001,-4.450681749375406
-0.08070000000000022,-4.494537799671222
-0.0817000000000001,-4.538393849967037
-0.08270000000000022,-4.582249900262854
-0.08370000000000011,-4.626105950558669
-0.08470000000000022,-4.668547289554621
-0.08570000000000011,-4.712403339850438
-0.08670000000000022,-4.756259390146253
-0.08770000000000011,-4.800115440442069
-0.08870000000000022,-4.843971490737885
-0.08970000000000011,-4.887827541033701
-0.09070000000000022,-4.974124930325469
-0.09170000000000011,-5.017980980621284
-0.09270000000000023,-5.105693081212917
-0.09370000000000012,-5.149549131508733
-0.09470000000000023,-5.235846520800501
-0.09570000000000012,-5.235846520800501
-0.09670000000000023,-5.323558621392133
-0.09770000000000012,-5.323558621392133
-0.09870000000000023,-5.411270721983764
-0.09970000000000012,-5.411270721983764
-0.10070000000000023,-5.453712060979717
-0.10170000000000012,-5.497568111275533
-0.10270000000000024,-5.5414241615713475
-0.10370000000000013,-5.629136262162981
-0.10470000000000024,-5.672992312458796
-0.10570000000000013,-5.715433651454749
-0.10670000000000024,-5.759289701750564
-0.10770000000000013,-5.847001802342197
-0.10870000000000024,-5.847001802342197
-0.10970000000000013,-5.890857852638012
-0.11070000000000024,-5.9347139029338285
-0.11170000000000013,-5.977155241929781
-0.11270000000000002,-6.021011292225596
-0.11370000000000013,-6.064867342521412
-0.11470000000000002,-6.108723392817228
-0.11570000000000014,-6.196435493408861
-0.11670000000000003,-6.238876832404812
-0.11770000000000014,-6.326588932996443
-0.11870000000000003,-6.37044498329226
-0.11970000000000014,-6.414301033588076
-0.12070000000000003,-6.500598422879844
-0.12170000000000014,-6.54445447317566
-0.12270000000000003,-6.54445447317566
-0.12370000000000014,-6.588310523471475
-0.12470000000000003,-6.632166573767292
-0.12570000000000014,-6.6760226240631075
-0.12670000000000003,-6.719878674358924
-0.12770000000000015,-6.762320013354876
-0.12870000000000004,-6.850032113946507
-0.12970000000000015,-6.893888164242324
-0.13070000000000004,-6.981600264833956
-0.13170000000000015,-7.067897654125724
-0.13270000000000004,-7.111753704421539
-0.13370000000000015,-7.155609754717355
-0.13470000000000004,-7.243321855308987
-0.13570000000000015,-7.28576319430494
-0.13670000000000004,-7.37347529489657
-0.13770000000000016,-7.4173313451923875
-0.13870000000000005,-7.461187395488204
-0.13970000000000016,-7.50504344578402
-0.14070000000000005,-7.5474847847799715
-0.14170000000000016,-7.591340835075788
-0.14270000000000005,-7.679052935667419
-0.14370000000000016,-7.722908985963235
-0.14470000000000005,-7.809206375255003
-0.14570000000000016,-7.896918475846635
-0.14670000000000005,-7.984630576438266
-0.14770000000000016,-8.027071915434218
-0.14870000000000005,-8.070927965730034
-0.14970000000000017,-8.070927965730034
-0.15070000000000006,-8.11478401602585
-0.15170000000000017,-8.158640066321666
-0.15270000000000006,-8.158640066321666
-0.15370000000000017,-8.246352166913299
-0.15470000000000006,-8.288793505909249
-0.15570000000000017,-8.332649556205066
-0.15670000000000006,-8.4203616567967
-0.15770000000000017,-8.55051509638428
-0.15870000000000006,-8.638227196975913
-0.15970000000000018,-8.68208324727173
-0.16070000000000007,-8.769795347863363
-0.16170000000000018,-8.85609273715513
-0.16270000000000007,-8.943804837746763
-0.16370000000000018,-8.987660888042578
-0.16470000000000007,-9.031516938338395
-0.16570000000000018,-9.073958277334345
-0.16670000000000007,-9.161670377925978
-0.16770000000000018,-9.205526428221793
-0.16870000000000007,-9.24938247851761
-0.16970000000000018,-9.335679867809377
-0.17070000000000007,-9.379535918105192
-0.17170000000000019,-9.467248018696827
-0.17270000000000008,-9.55496011928846
-0.1737000000000002,-9.59740145828441
-0.17470000000000008,-9.685113558876042
-0.1757000000000002,-9.728969609171857
-0.17670000000000008,-9.772825659467674
-0.1777000000000002,-9.81668170976349
-0.17870000000000008,-9.902979099055257
-0.1797000000000002,-9.946835149351072
-0.18070000000000008,-9.99069119964689
-0.1817000000000002,-10.078403300238522
-0.18270000000000008,-10.120844639234473
-0.1837000000000002,-10.208556739826104
-0.1847000000000001,-10.296268840417738
-0.1857000000000002,-10.382566229709504
-0.1867000000000001,-10.42642228000532
-0.1877000000000002,-10.514134380596953
-0.1887000000000001,-10.601846481188586
-0.1897000000000002,-10.644287820184536
-0.1907000000000001,-10.688143870480351
-0.1917000000000001,-10.775855971071984
-0.19269999999999998,-10.775855971071984
-0.1937000000000001,-10.819712021367803
-0.19469999999999998,-10.863568071663616
-0.1957000000000001,-10.949865460955383
-0.19669999999999999,-11.037577561547016
-0.1977000000000001,-11.123874950838783
-0.1987,-11.1677310011346
-0.1997000000000001,-11.255443101726232
-0.2007,-11.385596541313816
-0.2017000000000001,-11.42945259160963
-0.2027,-11.473308641905447
-0.2037000000000001,-11.517164692201263
-0.2047,-11.56102074249708
-0.2057000000000001,-11.604876792792895
-0.2067,-11.647318131788847
-0.2077000000000001,-11.647318131788847
-0.2087,-11.73503023238048
-0.2097000000000001,-11.73503023238048
-0.2107,-11.778886282676295
-0.2117000000000001,-11.82274233297211
-0.2127,-11.86659838326793
-0.2137000000000001,-11.909039722263879
-0.2147,-11.952895772559694
-0.2157000000000001,-11.952895772559694
-0.2167,-12.040607873151327
-0.21770000000000012,-12.084463923447142
-0.2187,-12.084463923447142
-0.21970000000000012,-12.12831997374296
-0.2207,-12.170761312738911
-0.22170000000000012,-12.214617363034726
-0.2227,-12.214617363034726
-0.22370000000000012,-12.302329463626359
-0.2247,-12.346185513922174
-0.22570000000000012,-12.390041564217992
-0.2267,-12.390041564217992
-0.22770000000000012,-12.476338953509758
-0.22870000000000001,-12.476338953509758
-0.22970000000000013,-12.476338953509758
-0.23070000000000002,-12.432482903213943
-0.23170000000000013,-12.476338953509758
-0.23270000000000002,-12.432482903213943
-0.23370000000000013,-12.432482903213943
-0.23470000000000002,-12.432482903213943
-0.23570000000000013,-12.432482903213943
-0.23670000000000002,-12.432482903213943
-0.2376999999999999,-12.432482903213943
-0.23870000000000002,-12.476338953509758
-0.2396999999999999,-12.432482903213943
-0.24070000000000003,-12.432482903213943
-0.24169999999999991,-12.432482903213943
-0.24270000000000003,-12.390041564217992
-0.24369999999999992,-12.346185513922174
-0.24470000000000003,-12.302329463626359
-0.24569999999999992,-12.258473413330542
-0.24670000000000003,-12.258473413330542
-0.24769999999999992,-12.214617363034726
-0.24870000000000003,-12.214617363034726
-0.24969999999999992,-12.170761312738911
-0.25070000000000003,-12.170761312738911
-0.2516999999999999,-12.12831997374296
-0.25270000000000004,-12.12831997374296
-0.2536999999999999,-12.084463923447142
-0.25470000000000004,-12.084463923447142
-0.2556999999999999,-12.040607873151327
-0.25670000000000004,-11.996751822855511
-0.25769999999999993,-11.952895772559694
-0.25870000000000004,-11.909039722263879
-0.25969999999999993,-11.86659838326793
-0.26070000000000004,-11.778886282676295
-0.26169999999999993,-11.691174182084664
-0.26270000000000004,-11.647318131788847
-0.26369999999999993,-11.56102074249708
-0.26470000000000005,-11.517164692201263
-0.26569999999999994,-11.473308641905447
-0.26670000000000005,-11.385596541313816
-0.26769999999999994,-11.343155202317865
-0.26870000000000005,-11.211587051430415
-0.26969999999999994,-11.1677310011346
-0.27070000000000005,-11.037577561547016
-0.27169999999999994,-10.993721511251199
-0.27270000000000005,-10.863568071663616
-0.27369999999999994,-10.775855971071984
-0.27470000000000006,-10.688143870480351
-0.27569999999999995,-10.644287820184536
-0.27670000000000006,-10.601846481188586
-0.27769999999999995,-10.514134380596953
-0.27870000000000006,-10.470278330301136
-0.27969999999999995,-10.382566229709504
-0.28070000000000006,-10.340124890713554
-0.28169999999999995,-10.25241279012192
-0.28270000000000006,-10.164700689530287
-0.28369999999999995,-10.034547249942705
-0.28470000000000006,-9.946835149351072
-0.28569999999999995,-9.81668170976349
-0.28670000000000007,-9.728969609171857
-0.28769999999999996,-9.59740145828441
-0.28870000000000007,-9.511104068992642
-0.28969999999999996,-9.423391968401008
-0.29070000000000007,-9.335679867809377
-0.29169999999999996,-9.293238528813426
-0.29270000000000007,-9.205526428221793
-0.29369999999999996,-9.11781432763016
-0.2947000000000001,-8.987660888042578
-0.29569999999999996,-8.943804837746763
-0.2967000000000001,-8.812236686859313
-0.29769999999999996,-8.725939297567548
-0.2987000000000001,-8.638227196975913
-0.29969999999999997,-8.55051509638428
-0.3007000000000001,-8.4203616567967
-0.30169999999999997,-8.332649556205066
-0.3027000000000001,-8.246352166913299
-0.30369999999999997,-8.158640066321666
-0.3047000000000001,-8.070927965730034
-0.30569999999999997,-8.027071915434218
-0.3067000000000001,-7.940774526142452
-0.3077,-7.853062425550818
-0.3087000000000001,-7.722908985963235
-0.3097,-7.635196885371603
-0.3107000000000001,-7.591340835075788
-0.3117,-7.461187395488204
-0.3127000000000001,-7.4173313451923875
-0.3137,-7.329619244600755
-0.3147000000000001,-7.243321855308987
-0.3157,-7.199465805013171
-0.3167000000000001,-7.155609754717355
-0.3177,-7.067897654125724
-0.3187000000000001,-7.067897654125724
-0.3197,-6.981600264833956
-0.3207000000000001,-6.893888164242324
-0.3217,-6.806176063650692
-0.3227000000000001,-6.762320013354876
-0.3237,-6.6760226240631075
-0.3247000000000001,-6.588310523471475
-0.3257,-6.500598422879844
-0.3267000000000001,-6.458157083883892
-0.3277,-6.37044498329226
-0.3287000000000001,-6.326588932996443
-0.3297,-6.326588932996443
-0.3307000000000001,-6.238876832404812
-0.3317,-6.238876832404812
-0.3327000000000001,-6.196435493408861
-0.3337,-6.196435493408861
-0.3347000000000001,-6.152579443113044
-0.3357,-6.108723392817228
-0.3367000000000001,-6.064867342521412
-0.3377,-6.021011292225596
-0.3387000000000001,-5.9347139029338285
-0.3397,-5.890857852638012
-0.3407000000000001,-5.890857852638012
-0.3417,-5.80314575204638
-0.3427000000000001,-5.80314575204638
-0.3437,-5.759289701750564
-0.3447000000000001,-5.759289701750564
-0.3457,-5.759289701750564
-0.3467000000000001,-5.759289701750564
-0.3477,-5.759289701750564
-0.3487000000000001,-5.715433651454749
-0.3497,-5.672992312458796
-0.3507000000000001,-5.672992312458796
-0.3517,-5.672992312458796
-0.3527000000000001,-5.629136262162981
-0.3537,-5.585280211867165
-0.3547000000000001,-5.585280211867165
-0.3557,-5.5414241615713475
-0.35670000000000013,-5.5414241615713475
-0.3577,-5.5414241615713475
-0.35870000000000013,-5.585280211867165
-0.3597,-5.585280211867165
-0.36070000000000013,-5.585280211867165
-0.3617,-5.585280211867165
-0.3626999999999999,-5.585280211867165
-0.3637,-5.585280211867165
-0.3646999999999999,-5.585280211867165
-0.3657,-5.5414241615713475
-0.3666999999999999,-5.585280211867165
-0.3677,-5.585280211867165
-0.3686999999999999,-5.585280211867165
-0.36970000000000003,-5.585280211867165
-0.3706999999999999,-5.629136262162981
-0.37170000000000003,-5.629136262162981
-0.3726999999999999,-5.672992312458796
-0.37370000000000003,-5.672992312458796
-0.3746999999999999,-5.672992312458796
-0.37570000000000003,-5.672992312458796
-0.3766999999999999,-5.672992312458796
-0.37770000000000004,-5.672992312458796
-0.3786999999999999,-5.672992312458796
-0.37970000000000004,-5.715433651454749
-0.3806999999999999,-5.715433651454749
-0.38170000000000004,-5.715433651454749
-0.38269999999999993,-5.759289701750564
-0.38370000000000004,-5.80314575204638
-0.38469999999999993,-5.847001802342197
-0.38570000000000004,-5.890857852638012
-0.38669999999999993,-5.890857852638012
-0.38770000000000004,-5.9347139029338285
-0.38869999999999993,-5.977155241929781
-0.38970000000000005,-5.977155241929781
-0.39069999999999994,-5.977155241929781
-0.39170000000000005,-6.021011292225596
-0.39269999999999994,-6.021011292225596
-0.39370000000000005,-6.021011292225596
-0.39469999999999994,-6.064867342521412
-0.39570000000000005,-6.064867342521412
-0.39669999999999994,-6.108723392817228
-0.39770000000000005,-6.152579443113044
-0.39869999999999994,-6.196435493408861
-0.39970000000000006,-6.282732882700628
-0.40069999999999995,-6.282732882700628
-0.40170000000000006,-6.326588932996443
-0.40269999999999995,-6.37044498329226
-0.40370000000000006,-6.37044498329226
-0.40469999999999995,-6.414301033588076
-0.40570000000000006,-6.458157083883892
-0.40669999999999995,-6.500598422879844
-0.40770000000000006,-6.500598422879844
-0.40869999999999995,-6.54445447317566
-0.40970000000000006,-6.588310523471475
-0.41069999999999995,-6.632166573767292
-0.41170000000000007,-6.6760226240631075
-0.41269999999999996,-6.719878674358924
-0.41370000000000007,-6.719878674358924
-0.41469999999999996,-6.762320013354876
-0.41570000000000007,-6.806176063650692
-0.41669999999999996,-6.893888164242324
-0.41770000000000007,-6.893888164242324
-0.41869999999999996,-6.93774421453814
-0.4197000000000001,-6.981600264833956
-0.42069999999999996,-7.024041603829907
-0.4217000000000001,-7.067897654125724
-0.42269999999999996,-7.155609754717355
-0.4237000000000001,-7.199465805013171
-0.42469999999999997,-7.28576319430494
-0.4257000000000001,-7.28576319430494
-0.42669999999999997,-7.28576319430494
-0.4277000000000001,-7.329619244600755
-0.42869999999999997,-7.329619244600755
-0.4297000000000001,-7.37347529489657
-0.43069999999999997,-7.37347529489657
-0.4317000000000001,-7.4173313451923875
-0.4327,-7.4173313451923875
-0.4337000000000001,-7.461187395488204
-0.4347,-7.50504344578402
-0.4357000000000001,-7.591340835075788
-0.4367,-7.635196885371603
-0.4377000000000001,-7.722908985963235
-0.4387,-7.7653503249591855
-0.4397000000000001,-7.809206375255003
-0.4407,-7.809206375255003
-0.4417000000000001,-7.853062425550818
-0.4427,-7.896918475846635
-0.4437000000000001,-7.940774526142452
-0.4447,-8.027071915434218
-0.4457000000000001,-8.027071915434218
-0.4467,-8.070927965730034
-0.4477000000000001,-8.070927965730034
-0.4487,-8.11478401602585
-0.4497000000000001,-8.158640066321666
-0.4507,-8.202496116617484
-0.4517000000000001,-8.202496116617484
-0.4527,-8.288793505909249
-0.4537000000000001,-8.288793505909249
-0.4547,-8.376505606500881
-0.4557000000000001,-8.376505606500881
-0.4567,-8.376505606500881
-0.4577000000000001,-8.4203616567967
-0.4587,-8.4203616567967
-0.4597000000000001,-8.464217707092514
-0.4607,-8.464217707092514
-0.4617000000000001,-8.508073757388331
-0.4627,-8.55051509638428
-0.4637000000000001,-8.594371146680096
-0.4647,-8.638227196975913
-0.4657000000000001,-8.68208324727173
-0.4667,-8.68208324727173
-0.4677000000000001,-8.725939297567548
-0.4687,-8.725939297567548
-0.4697000000000001,-8.769795347863363
-0.4707,-8.769795347863363
-0.4717000000000001,-8.812236686859313
-0.4727,-8.769795347863363
-0.4737000000000001,-8.812236686859313
-0.4747,-8.812236686859313
-0.4757000000000001,-8.85609273715513
-0.4767,-8.85609273715513
-0.4777000000000001,-8.899948787450944
-0.4787,-8.899948787450944
-0.4797000000000001,-8.943804837746763
-0.4807,-8.987660888042578
-0.48170000000000013,-8.987660888042578
-0.4827,-9.031516938338395
-0.48370000000000013,-9.031516938338395
-0.4847,-9.031516938338395
-0.48570000000000013,-9.031516938338395
-0.4867,-9.073958277334345
-0.4876999999999999,-9.073958277334345
-0.4887,-9.11781432763016
-0.4896999999999999,-9.11781432763016
-0.4907,-9.161670377925978
-0.4916999999999999,-9.161670377925978
-0.4927,-9.205526428221793
-0.4936999999999999,-9.205526428221793
-0.49470000000000003,-9.24938247851761
-0.4956999999999999,-9.24938247851761
-0.49670000000000003,-9.293238528813426
-0.4976999999999999,-9.293238528813426
-0.49870000000000003,-9.335679867809377
-0.4996999999999999,-9.335679867809377
-0.5007,-9.379535918105192
-0.5016999999999999,-9.423391968401008
-0.5027,-9.467248018696827
-0.5036999999999999,-9.55496011928846
-0.5047,-9.641257508580225
-0.5056999999999999,-9.685113558876042
-0.5067,-9.728969609171857
-0.5076999999999999,-9.81668170976349
-0.5087,-9.85912304875944
-0.5096999999999999,-9.902979099055257
-0.5107,-9.99069119964689
