Potential V vs RHE, Current mA cm-2
0.05339999999999995,-0.0738196356269576
0.05239999999999995,-0.07555973052579161
0.051399999999999946,-0.07622464483672817
0.050399999999999945,-0.0767339409046796
0.049399999999999944,-0.07722908985963235
0.04839999999999994,-0.07768179747558916
0.04739999999999994,-0.07814865220454463
0.04639999999999994,-0.07855891848150548
0.04539999999999994,-0.0789550376454677
0.04439999999999994,-0.07939359814842585
0.04339999999999994,-0.07974727597339212
0.04239999999999994,-0.08015754225035297
0.04139999999999994,-0.08056780852731382
0.040399999999999936,-0.0808931921262828
0.039399999999999935,-0.08124686995124906
0.038399999999999934,-0.08162884200221261
0.03739999999999993,-0.08198251982717887
0.03639999999999993,-0.08233619765214513
0.03539999999999993,-0.0826615812511141
0.03439999999999993,-0.083029406189079
0.03339999999999993,-0.0833972311270439
0.03239999999999993,-0.08376505606500882
0.03139999999999993,-0.08404799832498183
0.030399999999999927,-0.08430264635895754
0.029399999999999926,-0.08461388284492784
0.028399999999999925,-0.08495341355689547
0.027399999999999924,-0.08526465004286575
0.026399999999999924,-0.08553344518984012
0.025399999999999923,-0.08581638744981313
0.024399999999999922,-0.08608518259678749
0.02339999999999992,-0.08641056619575643
0.02239999999999992,-0.08672180268172675
0.02139999999999992,-0.0869905978287011
0.020399999999999918,-0.08728768720167276
0.019399999999999917,-0.08754233523564847
0.018399999999999916,-0.08775454193062822
0.017399999999999916,-0.08800918996460394
0.016399999999999915,-0.08823554377258234
0.015399999999999914,-0.08847604469355938
0.014399999999999913,-0.08873069272753512
0.013399999999999912,-0.0889570465355135
0.012399999999999911,-0.08919754745649056
0.01139999999999991,-0.08940975415147032
0.01039999999999991,-0.08965025507244738
0.009399999999999908,-0.08989075599342443
0.008399999999999908,-0.09010296268840419
0.007399999999999907,-0.09034346360938124
0.006399999999999906,-0.090555670304361
0.005399999999999905,-0.09073958277334346
0.004399999999999904,-0.0909517894683232
0.003399999999999903,-0.091121554824307
0.002399999999999902,-0.09131961440628812
0.0013999999999999013,-0.09150352687527057
0.00039999999999990044,-0.09172988068324898
-0.0006000000000001005,-0.09194208737822873
-0.0016000000000001013,-0.09211185273421253
-0.0026000000000001022,-0.0922674709771977
-0.003600000000000103,-0.09245138344618015
-0.004600000000000104,-0.09257870746316801
-0.005600000000000105,-0.0927767670451491
-0.006600000000000106,-0.09293238528813427
-0.007600000000000107,-0.0930880035311194
-0.008600000000000108,-0.09325776888710322
-0.009600000000000108,-0.09334265156509512
-0.01060000000000011,-0.09351241692107892
-0.01160000000000011,-0.09371047650306003
-0.012600000000000111,-0.09389438897204248
-0.013600000000000112,-0.09396512453703573
-0.014600000000000113,-0.0940641543280263
-0.015600000000000114,-0.09416318411901684
-0.016600000000000115,-0.09431880236200199
-0.017600000000000116,-0.0944036850399939
-0.018600000000000116,-0.09450271483098445
-0.019600000000000117,-0.09458759750897636
-0.020600000000000118,-0.0946583330739696
-0.02160000000000012,-0.09475736286496016
-0.02260000000000012,-0.09484224554295206
-0.02360000000000012,-0.09491298110794531
-0.024600000000000122,-0.09502615801193452
-0.025600000000000123,-0.09509689357692777
-0.026600000000000124,-0.09515348202892236
-0.027600000000000124,-0.09522421759391562
-0.028600000000000125,-0.09526665893291157
-0.029600000000000126,-0.09533739449790483
-0.030600000000000127,-0.09542227717589671
-0.03160000000000013,-0.09547886562789133
-0.03260000000000013,-0.09557789541888188
-0.03360000000000013,-0.09560618964487919
-0.03460000000000002,-0.09560618964487919
-0.03560000000000002,-0.09570521943586972
-0.03660000000000002,-0.09573351366186703
-0.03760000000000002,-0.0958608376788549
-0.03860000000000002,-0.09591742613084948
-0.039600000000000024,-0.09590327901785084
-0.040600000000000025,-0.09598816169584275
-0.041600000000000026,-0.09601645592184005
-0.04260000000000003,-0.096058897260836
-0.04360000000000003,-0.0960871914868333
-0.04460000000000003,-0.09607304437383464
-0.04560000000000003,-0.09607304437383464
-0.04660000000000003,-0.09610133859983194
-0.04760000000000003,-0.09612963282582924
-0.04860000000000003,-0.09611548571283059
-0.04960000000000003,-0.0960871914868333
-0.050600000000000034,-0.09611548571283059
-0.051600000000000035,-0.09611548571283059
-0.052600000000000036,-0.0960871914868333
-0.053600000000000037,-0.096058897260836
-0.05460000000000004,-0.09607304437383464
-0.05560000000000004,-0.09607304437383464
-0.05660000000000004,-0.09610133859983194
-0.05760000000000004,-0.09610133859983194
-0.05860000000000004,-0.096058897260836
-0.05960000000000004,-0.096058897260836
-0.06060000000000004,-0.09604475014783734
-0.061600000000000044,-0.09604475014783734
-0.06260000000000004,-0.09601645592184005
-0.06360000000000005,-0.09597401458284409
-0.06460000000000005,-0.09595986746984543
-0.06560000000000005,-0.09594572035684679
-0.06660000000000005,-0.09591742613084948
-0.06760000000000005,-0.09588913190485218
-0.06860000000000005,-0.09583254345285759
-0.06960000000000005,-0.09577595500086299
-0.07060000000000005,-0.09580424922686027
-0.07160000000000005,-0.09577595500086299
-0.07260000000000005,-0.09577595500086299
-0.07360000000000005,-0.09570521943586972
-0.07460000000000006,-0.09567692520987243
-0.07560000000000006,-0.09564863098387513
-0.07660000000000006,-0.09562033675787783
-0.07760000000000006,-0.09560618964487919
-0.07860000000000006,-0.09554960119288458
-0.07960000000000006,-0.09545057140189403
-0.08060000000000006,-0.09542227717589671
-0.08160000000000006,-0.09542227717589671
-0.08260000000000006,-0.09532324738490616
-0.08360000000000006,-0.09526665893291157
-0.08460000000000006,-0.09522421759391562
-0.08560000000000006,-0.09532324738490616
-0.08660000000000007,-0.09528080604591022
-0.08760000000000007,-0.09522421759391562
-0.08860000000000007,-0.09519592336791832
-0.08960000000000007,-0.09512518780292507
-0.09060000000000007,-0.09509689357692777
-0.09160000000000007,-0.09508274646392911
-0.09260000000000007,-0.09501201089893586
-0.09360000000000007,-0.09492712822094396
-0.09460000000000007,-0.09485639265595071
-0.09560000000000007,-0.09484224554295206
-0.09660000000000007,-0.09479980420395612
-0.09760000000000008,-0.09472906863896285
-0.09860000000000008,-0.09464418596097096
-0.09960000000000008,-0.09455930328297905
-0.10060000000000008,-0.09447442060498715
-0.10160000000000008,-0.09441783215299256
-0.10260000000000008,-0.09438953792699524
-0.10360000000000008,-0.09433294947500065
-0.10460000000000008,-0.09430465524900335
-0.10560000000000008,-0.0942622139100074
-0.10660000000000008,-0.09421977257101144
-0.10760000000000008,-0.0941773312320155
-0.10860000000000009,-0.09407830144102494
-0.10960000000000009,-0.09405000721502763
-0.11060000000000009,-0.09402171298903034
-0.11160000000000009,-0.09393683031103843
-0.11260000000000009,-0.0939226831980398
-0.11360000000000009,-0.09385194763304654
-0.11460000000000009,-0.09380950629405059
-0.11560000000000009,-0.09379535918105193
-0.11660000000000009,-0.09375291784205599
-0.1176000000000001,-0.09368218227706274
-0.1186000000000001,-0.09361144671206949
-0.1196000000000001,-0.09352656403407757
-0.1206000000000001,-0.09351241692107892
-0.1216000000000001,-0.09344168135608567
-0.1226000000000001,-0.09338509290409107
-0.1236000000000001,-0.09328606311310052
-0.1246000000000001,-0.09322947466110591
-0.1256000000000001,-0.09318703332210997
-0.1266000000000001,-0.09317288620911131
-0.1276000000000001,-0.09314459198311402
-0.1286000000000001,-0.0930880035311194
-0.1296000000000001,-0.09304556219212347
-0.1306000000000001,-0.09300312085312752
-0.1316000000000001,-0.09298897374012885
-0.1326000000000001,-0.09293238528813427
-0.1336000000000001,-0.09288994394913831
-0.1346000000000001,-0.09287579683613965
-0.1356000000000001,-0.09284750261014235
-0.1366000000000001,-0.09284750261014235
-0.1376000000000001,-0.0928050612711464
-0.1386000000000001,-0.09273432570615316
-0.1396000000000001,-0.09276261993215046
-0.1406000000000001,-0.09267773725415854
-0.14160000000000011,-0.09260700168916529
-0.14260000000000012,-0.09255041323717071
-0.14360000000000012,-0.09245138344618015
-0.14460000000000012,-0.09239479499418554
-0.14560000000000012,-0.0923523536551896
-0.14660000000000012,-0.09232405942919229
-0.14760000000000012,-0.09232405942919229
-0.14860000000000012,-0.0922674709771977
-0.14960000000000012,-0.09225332386419903
-0.15060000000000012,-0.09219673541220444
-0.15160000000000012,-0.09214014696020983
-0.15260000000000012,-0.09212599984721119
-0.15360000000000013,-0.09204111716921928
-0.15460000000000013,-0.092012822943222
-0.15560000000000013,-0.09199867583022334
-0.15660000000000013,-0.09195623449122738
-0.15760000000000013,-0.09191379315223143
-0.15860000000000013,-0.09187135181323548
-0.15960000000000002,-0.09185720470023684
-0.16060000000000002,-0.09182891047423952
-0.16160000000000002,-0.09167329223125438
-0.16260000000000002,-0.09163085089225843
-0.16360000000000002,-0.09163085089225843
-0.16460000000000002,-0.09158840955326249
-0.16560000000000002,-0.09160255666626112
-0.16660000000000003,-0.09164499800525706
-0.16760000000000003,-0.09158840955326249
-0.16860000000000003,-0.09160255666626112
-0.16960000000000003,-0.09158840955326249
-0.17060000000000003,-0.09158840955326249
-0.17160000000000003,-0.09158840955326249
-0.17260000000000003,-0.09160255666626112
-0.17360000000000003,-0.09161670377925978
-0.17460000000000003,-0.09167329223125438
-0.17560000000000003,-0.09170158645725168
-0.17660000000000003,-0.09172988068324898
-0.17760000000000004,-0.09172988068324898
-0.17860000000000004,-0.09170158645725168
-0.17960000000000004,-0.09170158645725168
-0.18060000000000004,-0.09165914511825574
-0.18160000000000004,-0.09160255666626112
-0.18260000000000004,-0.09157426244026382
-0.18360000000000004,-0.09156011532726518
-0.18460000000000004,-0.09160255666626112
-0.18560000000000004,-0.09163085089225843
-0.18660000000000004,-0.09161670377925978
-0.18760000000000004,-0.09163085089225843
-0.18860000000000005,-0.09160255666626112
-0.18960000000000005,-0.09163085089225843
-0.19060000000000005,-0.09164499800525706
-0.19160000000000005,-0.09168743934425302
-0.19260000000000005,-0.09170158645725168
-0.19360000000000005,-0.09163085089225843
-0.19460000000000005,-0.09165914511825574
-0.19560000000000005,-0.09167329223125438
-0.19660000000000005,-0.09165914511825574
-0.19760000000000005,-0.09168743934425302
-0.19860000000000005,-0.09167329223125438
-0.19960000000000006,-0.09167329223125438
-0.20060000000000006,-0.09168743934425302
-0.20160000000000006,-0.09165914511825574
-0.20260000000000006,-0.09164499800525706
-0.20360000000000006,-0.09165914511825574
-0.20460000000000006,-0.09168743934425302
-0.20560000000000006,-0.09168743934425302
-0.20660000000000006,-0.09170158645725168
-0.20760000000000006,-0.09171573357025031
-0.20860000000000006,-0.09168743934425302
-0.20960000000000006,-0.09172988068324898
-0.21060000000000006,-0.09180061624824223
-0.21160000000000007,-0.09185720470023684
-0.21260000000000007,-0.09185720470023684
-0.21360000000000007,-0.09185720470023684
-0.21460000000000007,-0.09189964603923279
-0.21560000000000007,-0.09191379315223143
-0.21660000000000007,-0.09195623449122738
-0.21760000000000007,-0.09198452871722468
-0.21860000000000007,-0.09198452871722468
-0.21960000000000007,-0.09204111716921928
-0.22060000000000007,-0.09205526428221794
-0.22160000000000007,-0.09212599984721119
-0.22260000000000008,-0.09216844118620715
-0.22360000000000008,-0.09222502963820174
-0.22460000000000008,-0.0922674709771977
-0.22560000000000008,-0.09230991231619365
-0.22660000000000008,-0.09236650076818824
-0.22760000000000008,-0.0924372363331815
-0.22860000000000008,-0.09246553055917879
-0.22960000000000008,-0.09255041323717071
-0.23060000000000008,-0.09259285457616664
-0.23160000000000008,-0.09262114880216396
-0.23260000000000008,-0.09266359014115991
-0.23360000000000009,-0.09270603148015585
-0.2346000000000001,-0.0927767670451491
-0.2356000000000001,-0.09286164972314101
-0.2366000000000001,-0.0929465324011329
-0.2376000000000001,-0.09304556219212347
-0.2386000000000001,-0.0930880035311194
-0.2396000000000001,-0.09314459198311402
-0.2406000000000001,-0.09320118043510862
-0.2416000000000001,-0.09328606311310052
-0.2426000000000001,-0.09342753424308703
-0.2436000000000001,-0.09351241692107892
-0.2446000000000001,-0.09359729959907082
-0.2456000000000001,-0.09371047650306003
-0.2466000000000001,-0.09382365340704923
-0.2476000000000001,-0.09393683031103843
-0.2486000000000001,-0.09402171298903034
-0.2496000000000001,-0.09413488989301955
-0.2506000000000001,-0.0942622139100074
-0.2516000000000001,-0.0944036850399939
-0.2526000000000001,-0.0944885677179858
-0.2536000000000001,-0.09461589173497365
-0.2546000000000001,-0.09475736286496016
-0.2556000000000001,-0.09487053976894937
-0.2566000000000001,-0.09498371667293856
-0.2576000000000001,-0.09508274646392911
-0.2586000000000001,-0.09522421759391562
-0.2596000000000001,-0.09540813006289808
-0.2606000000000001,-0.09550715985388863
-0.2616000000000001,-0.09564863098387513
-0.2626000000000001,-0.09579010211386164
-0.2636000000000001,-0.09593157324384814
-0.2646000000000001,-0.09607304437383464
-0.2656000000000001,-0.09624280972981844
-0.2666000000000001,-0.09634183952080899
-0.2676000000000001,-0.0964267221988009
-0.2686000000000001,-0.09656819332878741
-0.2696000000000001,-0.09675210579776986
-0.2706000000000001,-0.09692187115375367
-0.2716000000000001,-0.09711993073573477
-0.2726000000000001,-0.09723310763972397
-0.2736000000000001,-0.09738872588270912
-0.2746000000000001,-0.09760093257768888
-0.2756000000000001,-0.09779899215966999
-0.2766000000000001,-0.09794046328965648
-0.2776000000000001,-0.09811022864564029
-0.2786000000000001,-0.0983082882276214
-0.2796000000000001,-0.09846390647060656
-0.2806000000000001,-0.09866196605258765
-0.28160000000000013,-0.09887417274756742
-0.28260000000000013,-0.09907223232954852
-0.28360000000000013,-0.09925614479853098
-0.2846,-0.09944005726751343
-0.2856,-0.09965226396249319
-0.2866,-0.09987861777047159
-0.2876,-0.1000766773524527
-0.2886,-0.10028888404743246
-0.2896,-0.10045864940341626
-0.2906,-0.10067085609839602
-0.2916,-0.10091135701937308
-0.2926,-0.10108112237535687
-0.2936,-0.10132162329633393
-0.29460000000000003,-0.10153382999131368
-0.29560000000000003,-0.1017601837992921
-0.29660000000000003,-0.1020148318332678
-0.29760000000000003,-0.1022411856412462
-0.29860000000000003,-0.10246753944922461
-0.29960000000000003,-0.1027221874832003
-0.30060000000000003,-0.10294854129117871
-0.30160000000000003,-0.10318904221215577
-0.30260000000000004,-0.10342954313313284
-0.30360000000000004,-0.10367004405410989
-0.30460000000000004,-0.10391054497508695
-0.30560000000000004,-0.104151045896064
-0.30660000000000004,-0.10441984104303836
-0.30760000000000004,-0.10464619485101677
-0.30860000000000004,-0.1048866957719938
-0.30960000000000004,-0.10518378514496549
-0.31060000000000004,-0.10545258029193984
-0.31160000000000004,-0.10574966966491149
-0.31260000000000004,-0.10604675903788315
-0.31360000000000005,-0.10632970129785616
-0.31460000000000005,-0.10664093778382645
-0.31560000000000005,-0.10689558581780217
-0.31660000000000005,-0.10722096941677112
-0.31760000000000005,-0.10751805878974278
-0.31860000000000005,-0.1078010010497158
-0.31960000000000005,-0.1081405317616834
-0.32060000000000005,-0.10843762113465506
-0.32160000000000005,-0.10870641628162941
-0.32260000000000005,-0.10897521142860378
-0.32360000000000005,-0.10924400657557813
-0.32460000000000006,-0.10958353728754573
-0.32560000000000006,-0.10988062666051741
-0.32660000000000006,-0.11014942180749175
-0.32760000000000006,-0.11044651118046342
-0.32860000000000006,-0.11074360055343507
-0.32960000000000006,-0.11109727837840132
-0.33060000000000006,-0.11145095620336758
-0.33160000000000006,-0.1117904869153352
-0.33260000000000006,-0.11208757628830686
-0.33360000000000006,-0.11242710700027447
-0.33460000000000006,-0.11285152039023398
-0.33560000000000006,-0.11314860976320563
-0.33660000000000007,-0.11347399336217459
-0.33760000000000007,-0.1137569356221476
-0.33860000000000007,-0.11411061344711387
-0.33960000000000007,-0.11450673261107608
-0.34060000000000007,-0.11490285177503827
-0.34160000000000007,-0.11524238248700588
-0.34260000000000007,-0.11558191319897348
-0.34360000000000007,-0.1159780323629357
-0.3446000000000001,-0.11643073997889253
-0.3456000000000001,-0.11679856491685743
-0.3466000000000001,-0.11716638985482233
-0.34759999999999996,-0.11753421479278725
-0.3486000000000001,-0.11787374550475484
-0.34959999999999997,-0.11829815889471437
-0.3506000000000001,-0.11869427805867658
-0.35159999999999997,-0.1190621029966415
-0.3526000000000001,-0.11951481061259829
-0.35359999999999997,-0.11989678266356185
-0.3546000000000001,-0.12033534316652002
-0.35559999999999997,-0.12075975655647953
-0.3566000000000001,-0.12121246417243635
-0.3576,-0.12163687756239586
-0.3586000000000001,-0.12204714383935672
-0.3596,-0.12244326300331891
-0.3606000000000001,-0.1229101177322744
-0.3616,-0.1233062368962366
-0.3626000000000001,-0.12373065028619613
-0.3636,-0.12414091656315696
-0.3646000000000001,-0.12457947706611515
-0.3656,-0.12503218468207195
-0.3666000000000001,-0.12548489229802873
-0.3676,-0.12589515857498962
-0.3686000000000001,-0.12637616041694374
-0.3696,-0.12685716225889784
-0.3706000000000001,-0.12733816410085197
-0.3716,-0.12786160728180201
-0.3726000000000001,-0.12828602067176154
-0.3736,-0.128752875400717
-0.3746000000000001,-0.12920558301667381
-0.3756,-0.12972902619762386
-0.3766000000000001,-0.13022417515257662
-0.3776,-0.13067688276853343
-0.3786000000000001,-0.1311437374974889
-0.3796,-0.13172376913043357
-0.3806000000000001,-0.13223306519838499
-0.3816,-0.13267162570134314
-0.3826000000000001,-0.13309603909130266
-0.3836,-0.13361948227225273
-0.3846000000000001,-0.13414292545320278
-0.3856,-0.13465222152115416
-0.3866000000000001,-0.13514737047610695
-0.3876,-0.13565666654405836
-0.3886000000000001,-0.13612352127301383
-0.3896,-0.1365903760019693
-0.3906000000000001,-0.13705723073092474
-0.3916,-0.13753823257287887
-0.3926000000000001,-0.13804752864083028
-0.3936,-0.1386417073867736
-0.3946000000000001,-0.13910856211572906
-0.3956,-0.13957541684468452
-0.3966000000000001,-0.14011300713863326
-0.3976,-0.14060815609358598
-0.3986000000000001,-0.14111745216153743
-0.3996,-0.14161260111649018
-0.4006000000000001,-0.1421784856364362
-0.4016,-0.1426028990263957
-0.4026000000000001,-0.14302731241635522
-0.4036,-0.1435931969363012
-0.4046000000000001,-0.14401761032626076
-0.4056,-0.14444202371622025
-0.40660000000000013,-0.14500790823616627
-0.4076,-0.14543232162612577
-0.40860000000000013,-0.14599820614607179
-0.4096,-0.14642261953603128
-0.41060000000000013,-0.14684703292599083
-0.4116,-0.14727144631595032
-0.41260000000000013,-0.14769585970590982
-0.4136,-0.14812027309586934
-0.41460000000000014,-0.14854468648582883
-0.4156,-0.14911057100577488
-0.41660000000000014,-0.14953498439573437
-0.4176,-0.1499593977856939
-0.41860000000000014,-0.1502423400456669
-0.41960000000000003,-0.1508082245656129
-0.42060000000000014,-0.1512326379555724
-0.42160000000000003,-0.15165705134553195
-0.42260000000000014,-0.15208146473549145
-0.42360000000000003,-0.15250587812545094
-0.42460000000000014,-0.15293029151541046
-0.42560000000000003,-0.15335470490536995
-0.42660000000000015,-0.15377911829532948
-0.42760000000000004,-0.154203531685289
-0.42860000000000015,-0.15462794507524852
-0.42960000000000004,-0.155052358465208
-0.43060000000000015,-0.155335300725181
-0.43160000000000004,-0.15575971411514053
-0.43260000000000015,-0.15618412750510002
-0.43360000000000004,-0.15646706976507307
-0.43460000000000015,-0.15689148315503257
-0.43560000000000004,-0.15717442541500556
-0.43660000000000015,-0.1574573676749786
-0.43760000000000004,-0.15788178106493808
