Jan. 15, 2025   10:34:10
Cyclic Voltammetry
File: c:/users/guazh/data/banditlqround7_x0exp772_r5/2025-01-10-exp852\exp852-2025-01-15t10_25_40-h2koh\exp852_cv_50mvs_efin_-1500mv.bin
Data Source:  Experiment
Instrument Model:  CHI760E
Header: CV ran at 50 mVs
Note: 

Init E (V) = -1
High E (V) = -1
Low E (V) = -1.5
Final E (V) = -1
Init P/N = N
Scan Rate (V/s) = 0.05
Segment = 7
Sample Interval (V) = 0.001
Quiet Time (sec) = 60
Sensitivity (A/V) = 0.001
Comp R (ohm) = 1.5

Results:

Channel 1:
Segment 1:
Ep = -1.250V
ip = 6.975e-4A
Ah = 1.386e-3C

Segment 2:

Segment 3:

Segment 4:

Segment 5:

Segment 6:

Segment 7:

Potential/V, Current/A

-1.000, 9.229e-6
-1.001, 6.307e-5
-1.002, 9.050e-5
-1.003, 1.093e-4
-1.004, 1.262e-4
-1.005, 1.396e-4
-1.006, 1.494e-4
-1.007, 1.566e-4
-1.008, 1.631e-4
-1.009, 1.717e-4
-1.010, 1.802e-4
-1.011, 1.857e-4
-1.012, 1.897e-4
-1.013, 1.943e-4
-1.014, 2.004e-4
-1.015, 2.076e-4
-1.016, 2.111e-4
-1.017, 2.141e-4
-1.018, 2.179e-4
-1.019, 2.229e-4
-1.020, 2.298e-4
-1.021, 2.330e-4
-1.022, 2.350e-4
-1.023, 2.386e-4
-1.024, 2.441e-4
-1.025, 2.497e-4
-1.026, 2.526e-4
-1.027, 2.538e-4
-1.028, 2.567e-4
-1.029, 2.621e-4
-1.030, 2.687e-4
-1.031, 2.721e-4
-1.032, 2.729e-4
-1.033, 2.763e-4
-1.034, 2.808e-4
-1.035, 2.863e-4
-1.036, 2.898e-4
-1.037, 2.917e-4
-1.038, 2.949e-4
-1.039, 3.002e-4
-1.040, 3.060e-4
-1.041, 3.095e-4
-1.042, 3.117e-4
-1.043, 3.145e-4
-1.044, 3.203e-4
-1.045, 3.257e-4
-1.046, 3.292e-4
-1.047, 3.315e-4
-1.048, 3.345e-4
-1.049, 3.400e-4
-1.050, 3.468e-4
-1.051, 3.509e-4
-1.052, 3.534e-4
-1.053, 3.569e-4
-1.054, 3.625e-4
-1.055, 3.680e-4
-1.056, 3.710e-4
-1.057, 3.746e-4
-1.058, 3.792e-4
-1.059, 3.850e-4
-1.060, 3.923e-4
-1.061, 3.959e-4
-1.062, 3.991e-4
-1.063, 4.035e-4
-1.064, 4.097e-4
-1.065, 4.174e-4
-1.066, 4.218e-4
-1.067, 4.246e-4
-1.068, 4.282e-4
-1.069, 4.345e-4
-1.070, 4.423e-4
-1.071, 4.472e-4
-1.072, 4.511e-4
-1.073, 4.573e-4
-1.074, 4.642e-4
-1.075, 4.718e-4
-1.076, 4.749e-4
-1.077, 4.791e-4
-1.078, 4.850e-4
-1.079, 4.941e-4
-1.080, 5.014e-4
-1.081, 5.065e-4
-1.082, 5.113e-4
-1.083, 5.159e-4
-1.084, 5.238e-4
-1.085, 5.318e-4
-1.086, 5.372e-4
-1.087, 5.420e-4
-1.088, 5.473e-4
-1.089, 5.555e-4
-1.090, 5.641e-4
-1.091, 5.705e-4
-1.092, 5.755e-4
-1.093, 5.813e-4
-1.094, 5.888e-4
-1.095, 5.962e-4
-1.096, 6.038e-4
-1.097, 6.116e-4
-1.098, 6.173e-4
-1.099, 6.256e-4
-1.100, 6.349e-4
-1.101, 6.408e-4
-1.102, 6.458e-4
-1.103, 6.528e-4
-1.104, 6.611e-4
-1.105, 6.707e-4
-1.106, 6.780e-4
-1.107, 6.842e-4
-1.108, 6.913e-4
-1.109, 7.000e-4
-1.110, 7.099e-4
-1.111, 7.177e-4
-1.112, 7.235e-4
-1.113, 7.273e-4
-1.114, 7.342e-4
-1.115, 7.485e-4
-1.116, 7.571e-4
-1.117, 7.626e-4
-1.118, 7.702e-4
-1.119, 7.796e-4
-1.120, 7.891e-4
-1.121, 7.971e-4
-1.122, 8.036e-4
-1.123, 8.112e-4
-1.124, 8.221e-4
-1.125, 8.322e-4
-1.126, 8.401e-4
-1.127, 8.466e-4
-1.128, 8.540e-4
-1.129, 8.644e-4
-1.130, 8.742e-4
-1.131, 8.818e-4
-1.132, 8.893e-4
-1.133, 8.959e-4
-1.134, 9.073e-4
-1.135, 9.187e-4
-1.136, 9.263e-4
-1.137, 9.331e-4
-1.138, 9.416e-4
-1.139, 9.520e-4
-1.140, 9.643e-4
-1.141, 9.728e-4
-1.142, 9.790e-4
-1.143, 9.873e-4
-1.144, 9.965e-4
-1.145, 1.008e-3
-1.146, 1.017e-3
-1.147, 1.024e-3
-1.148, 1.033e-3
-1.149, 1.044e-3
-1.150, 1.056e-3
-1.151, 1.064e-3
-1.152, 1.067e-3
-1.153, 1.075e-3
-1.154, 1.088e-3
-1.155, 1.100e-3
-1.156, 1.109e-3
-1.157, 1.116e-3
-1.158, 1.127e-3
-1.159, 1.139e-3
-1.160, 1.150e-3
-1.161, 1.158e-3
-1.162, 1.162e-3
-1.163, 1.169e-3
-1.164, 1.181e-3
-1.165, 1.193e-3
-1.166, 1.202e-3
-1.167, 1.211e-3
-1.168, 1.221e-3
-1.169, 1.232e-3
-1.170, 1.243e-3
-1.171, 1.251e-3
-1.172, 1.259e-3
-1.173, 1.267e-3
-1.174, 1.279e-3
-1.175, 1.291e-3
-1.176, 1.301e-3
-1.177, 1.310e-3
-1.178, 1.319e-3
-1.179, 1.330e-3
-1.180, 1.341e-3
-1.181, 1.349e-3
-1.182, 1.356e-3
-1.183, 1.365e-3
-1.184, 1.376e-3
-1.185, 1.388e-3
-1.186, 1.398e-3
-1.187, 1.405e-3
-1.188, 1.415e-3
-1.189, 1.424e-3
-1.190, 1.433e-3
-1.191, 1.443e-3
-1.192, 1.453e-3
-1.193, 1.462e-3
-1.194, 1.476e-3
-1.195, 1.488e-3
-1.196, 1.495e-3
-1.197, 1.499e-3
-1.198, 1.508e-3
-1.199, 1.520e-3
-1.200, 1.529e-3
-1.201, 1.537e-3
-1.202, 1.543e-3
-1.203, 1.552e-3
-1.204, 1.565e-3
-1.205, 1.576e-3
-1.206, 1.586e-3
-1.207, 1.592e-3
-1.208, 1.598e-3
-1.209, 1.609e-3
-1.210, 1.620e-3
-1.211, 1.628e-3
-1.212, 1.635e-3
-1.213, 1.641e-3
-1.214, 1.648e-3
-1.215, 1.658e-3
-1.216, 1.667e-3
-1.217, 1.673e-3
-1.218, 1.681e-3
-1.219, 1.689e-3
-1.220, 1.698e-3
-1.221, 1.705e-3
-1.222, 1.710e-3
-1.223, 1.717e-3
-1.224, 1.726e-3
-1.225, 1.735e-3
-1.226, 1.740e-3
-1.227, 1.745e-3
-1.228, 1.751e-3
-1.229, 1.760e-3
-1.230, 1.766e-3
-1.231, 1.769e-3
-1.232, 1.772e-3
-1.233, 1.780e-3
-1.234, 1.785e-3
-1.235, 1.791e-3
-1.236, 1.794e-3
-1.237, 1.794e-3
-1.238, 1.798e-3
-1.239, 1.801e-3
-1.240, 1.803e-3
-1.241, 1.804e-3
-1.242, 1.806e-3
-1.243, 1.808e-3
-1.244, 1.813e-3
-1.245, 1.817e-3
-1.246, 1.818e-3
-1.247, 1.817e-3
-1.248, 1.816e-3
-1.249, 1.818e-3
-1.250, 1.821e-3
-1.251, 1.821e-3
-1.252, 1.818e-3
-1.253, 1.817e-3
-1.254, 1.817e-3
-1.255, 1.816e-3
-1.256, 1.814e-3
-1.257, 1.811e-3
-1.258, 1.809e-3
-1.259, 1.809e-3
-1.260, 1.808e-3
-1.261, 1.806e-3
-1.262, 1.801e-3
-1.263, 1.797e-3
-1.264, 1.798e-3
-1.265, 1.793e-3
-1.266, 1.784e-3
-1.267, 1.779e-3
-1.268, 1.778e-3
-1.269, 1.774e-3
-1.270, 1.772e-3
-1.271, 1.765e-3
-1.272, 1.753e-3
-1.273, 1.744e-3
-1.274, 1.741e-3
-1.275, 1.739e-3
-1.276, 1.734e-3
-1.277, 1.725e-3
-1.278, 1.718e-3
-1.279, 1.713e-3
-1.280, 1.708e-3
-1.281, 1.700e-3
-1.282, 1.691e-3
-1.283, 1.683e-3
-1.284, 1.678e-3
-1.285, 1.673e-3
-1.286, 1.664e-3
-1.287, 1.653e-3
-1.288, 1.645e-3
-1.289, 1.640e-3
-1.290, 1.635e-3
-1.291, 1.627e-3
-1.292, 1.618e-3
-1.293, 1.609e-3
-1.294, 1.603e-3
-1.295, 1.598e-3
-1.296, 1.590e-3
-1.297, 1.582e-3
-1.298, 1.574e-3
-1.299, 1.571e-3
-1.300, 1.567e-3
-1.301, 1.559e-3
-1.302, 1.550e-3
-1.303, 1.545e-3
-1.304, 1.542e-3
-1.305, 1.538e-3
-1.306, 1.531e-3
-1.307, 1.521e-3
-1.308, 1.515e-3
-1.309, 1.511e-3
-1.310, 1.510e-3
-1.311, 1.506e-3
-1.312, 1.499e-3
-1.313, 1.494e-3
-1.314, 1.491e-3
-1.315, 1.490e-3
-1.316, 1.487e-3
-1.317, 1.481e-3
-1.318, 1.480e-3
-1.319, 1.480e-3
-1.320, 1.481e-3
-1.321, 1.480e-3
-1.322, 1.477e-3
-1.323, 1.476e-3
-1.324, 1.479e-3
-1.325, 1.482e-3
-1.326, 1.485e-3
-1.327, 1.482e-3
-1.328, 1.481e-3
-1.329, 1.491e-3
-1.330, 1.500e-3
-1.331, 1.500e-3
-1.332, 1.500e-3
-1.333, 1.504e-3
-1.334, 1.511e-3
-1.335, 1.521e-3
-1.336, 1.526e-3
-1.337, 1.531e-3
-1.338, 1.540e-3
-1.339, 1.551e-3
-1.340, 1.561e-3
-1.341, 1.567e-3
-1.342, 1.575e-3
-1.343, 1.584e-3
-1.344, 1.598e-3
-1.345, 1.612e-3
-1.346, 1.623e-3
-1.347, 1.633e-3
-1.348, 1.646e-3
-1.349, 1.662e-3
-1.350, 1.678e-3
-1.351, 1.692e-3
-1.352, 1.705e-3
-1.353, 1.720e-3
-1.354, 1.738e-3
-1.355, 1.757e-3
-1.356, 1.774e-3
-1.357, 1.791e-3
-1.358, 1.808e-3
-1.359, 1.831e-3
-1.360, 1.852e-3
-1.361, 1.871e-3
-1.362, 1.889e-3
-1.363, 1.911e-3
-1.364, 1.935e-3
-1.365, 1.960e-3
-1.366, 1.983e-3
-1.367, 2.006e-3
-1.368, 2.028e-3
-1.369, 2.054e-3
-1.370, 2.082e-3
-1.371, 2.110e-3
-1.372, 2.135e-3
-1.373, 2.160e-3
-1.374, 2.188e-3
-1.375, 2.219e-3
-1.376, 2.248e-3
-1.377, 2.274e-3
-1.378, 2.303e-3
-1.379, 2.335e-3
-1.380, 2.375e-3
-1.381, 2.408e-3
-1.382, 2.440e-3
-1.383, 2.472e-3
-1.384, 2.503e-3
-1.385, 2.540e-3
-1.386, 2.574e-3
-1.387, 2.605e-3
-1.388, 2.635e-3
-1.389, 2.672e-3
-1.390, 2.714e-3
-1.391, 2.754e-3
-1.392, 2.790e-3
-1.393, 2.827e-3
-1.394, 2.865e-3
-1.395, 2.908e-3
-1.396, 2.952e-3
-1.397, 2.991e-3
-1.398, 3.028e-3
-1.399, 3.065e-3
-1.400, 3.108e-3
-1.401, 3.151e-3
-1.402, 3.193e-3
-1.403, 3.237e-3
-1.404, 3.283e-3
-1.405, 3.333e-3
-1.406, 3.379e-3
-1.407, 3.419e-3
-1.408, 3.467e-3
-1.409, 3.521e-3
-1.410, 3.572e-3
-1.411, 3.620e-3
-1.412, 3.667e-3
-1.413, 3.713e-3
-1.414, 3.765e-3
-1.415, 3.803e-3
-1.416, 3.847e-3
-1.417, 3.893e-3
-1.418, 3.949e-3
-1.419, 4.011e-3
-1.420, 4.068e-3
-1.421, 4.116e-3
-1.422, 4.166e-3
-1.423, 4.219e-3
-1.424, 4.262e-3
-1.425, 4.315e-3
-1.426, 4.375e-3
-1.427, 4.427e-3
-1.428, 4.485e-3
-1.429, 4.544e-3
-1.430, 4.604e-3
-1.431, 4.663e-3
-1.432, 4.718e-3
-1.433, 4.778e-3
-1.434, 4.842e-3
-1.435, 4.903e-3
-1.436, 4.966e-3
-1.437, 5.017e-3
-1.438, 5.079e-3
-1.439, 5.142e-3
-1.440, 5.205e-3
-1.441, 5.270e-3
-1.442, 5.324e-3
-1.443, 5.379e-3
-1.444, 5.447e-3
-1.445, 5.521e-3
-1.446, 5.573e-3
-1.447, 5.632e-3
-1.448, 5.698e-3
-1.449, 5.772e-3
-1.450, 5.836e-3
-1.451, 5.895e-3
-1.452, 5.960e-3
-1.453, 6.025e-3
-1.454, 6.077e-3
-1.455, 6.139e-3
-1.456, 6.207e-3
-1.457, 6.274e-3
-1.458, 6.344e-3
-1.459, 6.416e-3
-1.460, 6.499e-3
-1.461, 6.558e-3
-1.462, 6.615e-3
-1.463, 6.685e-3
-1.464, 6.753e-3
-1.465, 6.825e-3
-1.466, 6.871e-3
-1.467, 6.922e-3
-1.468, 6.992e-3
-1.469, 7.080e-3
-1.470, 7.146e-3
-1.471, 7.218e-3
-1.472, 7.277e-3
-1.473, 7.353e-3
-1.474, 7.430e-3
-1.475, 7.477e-3
-1.476, 7.522e-3
-1.477, 7.623e-3
-1.478, 7.713e-3
-1.479, 7.779e-3
-1.480, 7.841e-3
-1.481, 7.890e-3
-1.482, 7.964e-3
-1.483, 8.017e-3
-1.484, 8.111e-3
-1.485, 8.171e-3
-1.486, 8.257e-3
-1.487, 8.357e-3
-1.488, 8.432e-3
-1.489, 8.494e-3
-1.490, 8.536e-3
-1.491, 8.621e-3
-1.492, 8.715e-3
-1.493, 8.761e-3
-1.494, 8.822e-3
-1.495, 8.911e-3
-1.496, 8.996e-3
-1.497, 9.073e-3
-1.498, 9.130e-3
-1.499, 9.212e-3
-1.500, 9.163e-3
-1.499, 9.047e-3
-1.498, 8.958e-3
-1.497, 8.872e-3
-1.496, 8.768e-3
-1.495, 8.678e-3
-1.494, 8.596e-3
-1.493, 8.491e-3
-1.492, 8.426e-3
-1.491, 8.351e-3
-1.490, 8.225e-3
-1.489, 8.090e-3
-1.488, 7.987e-3
-1.487, 7.904e-3
-1.486, 7.842e-3
-1.485, 7.756e-3
-1.484, 7.655e-3
-1.483, 7.572e-3
-1.482, 7.467e-3
-1.481, 7.404e-3
-1.480, 7.314e-3
-1.479, 7.233e-3
-1.478, 7.163e-3
-1.477, 7.088e-3
-1.476, 6.985e-3
-1.475, 6.906e-3
-1.474, 6.825e-3
-1.473, 6.724e-3
-1.472, 6.650e-3
-1.471, 6.589e-3
-1.470, 6.492e-3
-1.469, 6.420e-3
-1.468, 6.332e-3
-1.467, 6.243e-3
-1.466, 6.218e-3
-1.465, 6.143e-3
-1.464, 6.060e-3
-1.463, 5.975e-3
-1.462, 5.883e-3
-1.461, 5.819e-3
-1.460, 5.761e-3
-1.459, 5.683e-3
-1.458, 5.612e-3
-1.457, 5.551e-3
-1.456, 5.477e-3
-1.455, 5.399e-3
-1.454, 5.349e-3
-1.453, 5.275e-3
-1.452, 5.198e-3
-1.451, 5.142e-3
-1.450, 5.079e-3
-1.449, 5.011e-3
-1.448, 4.938e-3
-1.447, 4.877e-3
-1.446, 4.808e-3
-1.445, 4.750e-3
-1.444, 4.660e-3
-1.443, 4.599e-3
-1.442, 4.540e-3
-1.441, 4.499e-3
-1.440, 4.435e-3
-1.439, 4.362e-3
-1.438, 4.302e-3
-1.437, 4.228e-3
-1.436, 4.187e-3
-1.435, 4.149e-3
-1.434, 4.082e-3
-1.433, 4.026e-3
-1.432, 3.958e-3
-1.431, 3.905e-3
-1.430, 3.847e-3
-1.429, 3.782e-3
-1.428, 3.751e-3
-1.427, 3.692e-3
-1.426, 3.639e-3
-1.425, 3.593e-3
-1.424, 3.539e-3
-1.423, 3.492e-3
-1.422, 3.436e-3
-1.421, 3.387e-3
-1.420, 3.334e-3
-1.419, 3.296e-3
-1.418, 3.229e-3
-1.417, 3.174e-3
-1.416, 3.125e-3
-1.415, 3.070e-3
-1.414, 3.023e-3
-1.413, 2.988e-3
-1.412, 2.944e-3
-1.411, 2.894e-3
-1.410, 2.844e-3
-1.409, 2.798e-3
-1.408, 2.759e-3
-1.407, 2.706e-3
-1.406, 2.672e-3
-1.405, 2.628e-3
-1.404, 2.579e-3
-1.403, 2.537e-3
-1.402, 2.511e-3
-1.401, 2.468e-3
-1.400, 2.431e-3
-1.399, 2.388e-3
-1.398, 2.347e-3
-1.397, 2.307e-3
-1.396, 2.274e-3
-1.395, 2.226e-3
-1.394, 2.183e-3
-1.393, 2.148e-3
-1.392, 2.111e-3
-1.391, 2.081e-3
-1.390, 2.040e-3
-1.389, 2.001e-3
-1.388, 1.963e-3
-1.387, 1.927e-3
-1.386, 1.895e-3
-1.385, 1.859e-3
-1.384, 1.824e-3
-1.383, 1.786e-3
-1.382, 1.751e-3
-1.381, 1.725e-3
-1.380, 1.696e-3
-1.379, 1.662e-3
-1.378, 1.627e-3
-1.377, 1.580e-3
-1.376, 1.551e-3
-1.375, 1.527e-3
-1.374, 1.493e-3
-1.373, 1.463e-3
-1.372, 1.434e-3
-1.371, 1.407e-3
-1.370, 1.380e-3
-1.369, 1.357e-3
-1.368, 1.324e-3
-1.367, 1.297e-3
-1.366, 1.272e-3
-1.365, 1.249e-3
-1.364, 1.219e-3
-1.363, 1.190e-3
-1.362, 1.162e-3
-1.361, 1.137e-3
-1.360, 1.115e-3
-1.359, 1.091e-3
-1.358, 1.065e-3
-1.357, 1.038e-3
-1.356, 1.015e-3
-1.355, 9.931e-4
-1.354, 9.782e-4
-1.353, 9.505e-4
-1.352, 9.268e-4
-1.351, 9.071e-4
-1.350, 8.872e-4
-1.349, 8.652e-4
-1.348, 8.433e-4
-1.347, 8.228e-4
-1.346, 8.042e-4
-1.345, 7.863e-4
-1.344, 7.660e-4
-1.343, 7.431e-4
-1.342, 7.234e-4
-1.341, 7.094e-4
-1.340, 6.917e-4
-1.339, 6.730e-4
-1.338, 6.530e-4
-1.337, 6.344e-4
-1.336, 6.193e-4
-1.335, 6.038e-4
-1.334, 5.882e-4
-1.333, 5.702e-4
-1.332, 5.518e-4
-1.331, 5.385e-4
-1.330, 5.244e-4
-1.329, 5.079e-4
-1.328, 4.925e-4
-1.327, 4.766e-4
-1.326, 4.637e-4
-1.325, 4.519e-4
-1.324, 4.368e-4
-1.323, 4.214e-4
-1.322, 4.079e-4
-1.321, 3.962e-4
-1.320, 3.855e-4
-1.319, 3.704e-4
-1.318, 3.553e-4
-1.317, 3.430e-4
-1.316, 3.322e-4
-1.315, 3.225e-4
-1.314, 3.102e-4
-1.313, 2.966e-4
-1.312, 2.853e-4
-1.311, 2.754e-4
-1.310, 2.662e-4
-1.309, 2.562e-4
-1.308, 2.424e-4
-1.307, 2.316e-4
-1.306, 2.225e-4
-1.305, 2.142e-4
-1.304, 2.045e-4
-1.303, 1.917e-4
-1.302, 1.814e-4
-1.301, 1.745e-4
-1.300, 1.677e-4
-1.299, 1.579e-4
-1.298, 1.472e-4
-1.297, 1.376e-4
-1.296, 1.304e-4
-1.295, 1.237e-4
-1.294, 1.151e-4
-1.293, 1.056e-4
-1.292, 9.623e-5
-1.291, 9.010e-5
-1.290, 8.454e-5
-1.289, 7.613e-5
-1.288, 6.706e-5
-1.287, 5.880e-5
-1.286, 5.281e-5
-1.285, 4.813e-5
-1.284, 4.039e-5
-1.283, 3.176e-5
-1.282, 2.435e-5
-1.281, 1.880e-5
-1.280, 1.352e-5
-1.279, 6.891e-6
-1.278, -1.529e-6
-1.277, -7.885e-6
-1.276, -1.274e-5
-1.275, -1.682e-5
-1.274, -2.343e-5
-1.273, -3.119e-5
-1.272, -3.739e-5
-1.271, -4.147e-5
-1.270, -4.538e-5
-1.269, -5.113e-5
-1.268, -5.868e-5
-1.267, -6.510e-5
-1.266, -6.849e-5
-1.265, -7.200e-5
-1.264, -7.667e-5
-1.263, -8.431e-5
-1.262, -9.035e-5
-1.261, -9.340e-5
-1.260, -9.646e-5
-1.259, -1.017e-4
-1.258, -1.079e-4
-1.257, -1.138e-4
-1.256, -1.164e-4
-1.255, -1.192e-4
-1.254, -1.247e-4
-1.253, -1.303e-4
-1.252, -1.357e-4
-1.251, -1.384e-4
-1.250, -1.403e-4
-1.249, -1.456e-4
-1.248, -1.509e-4
-1.247, -1.569e-4
-1.246, -1.591e-4
-1.245, -1.603e-4
-1.244, -1.651e-4
-1.243, -1.709e-4
-1.242, -1.754e-4
-1.241, -1.781e-4
-1.240, -1.796e-4
-1.239, -1.836e-4
-1.238, -1.895e-4
-1.237, -1.940e-4
-1.236, -1.956e-4
-1.235, -1.973e-4
-1.234, -1.965e-4
-1.233, -2.044e-4
-1.232, -2.115e-4
-1.231, -2.139e-4
-1.230, -2.149e-4
-1.229, -2.205e-4
-1.228, -2.215e-4
-1.227, -2.185e-4
-1.226, -2.176e-4
-1.225, -2.187e-4
-1.224, -2.211e-4
-1.223, -2.262e-4
-1.222, -2.306e-4
-1.221, -2.319e-4
-1.220, -2.331e-4
-1.219, -2.367e-4
-1.218, -2.409e-4
-1.217, -2.457e-4
-1.216, -2.482e-4
-1.215, -2.503e-4
-1.214, -2.545e-4
-1.213, -2.582e-4
-1.212, -2.617e-4
-1.211, -2.628e-4
-1.210, -2.635e-4
-1.209, -2.673e-4
-1.208, -2.715e-4
-1.207, -2.758e-4
-1.206, -2.771e-4
-1.205, -2.774e-4
-1.204, -2.812e-4
-1.203, -2.856e-4
-1.202, -2.891e-4
-1.201, -2.911e-4
-1.200, -2.912e-4
-1.199, -2.950e-4
-1.198, -2.996e-4
-1.197, -3.036e-4
-1.196, -3.055e-4
-1.195, -3.059e-4
-1.194, -3.092e-4
-1.193, -3.145e-4
-1.192, -3.179e-4
-1.191, -3.197e-4
-1.190, -3.208e-4
-1.189, -3.238e-4
-1.188, -3.289e-4
-1.187, -3.329e-4
-1.186, -3.341e-4
-1.185, -3.376e-4
-1.184, -3.417e-4
-1.183, -3.454e-4
-1.182, -3.488e-4
-1.181, -3.480e-4
-1.180, -3.496e-4
-1.179, -3.544e-4
-1.178, -3.602e-4
-1.177, -3.641e-4
-1.176, -3.651e-4
-1.175, -3.663e-4
-1.174, -3.702e-4
-1.173, -3.751e-4
-1.172, -3.798e-4
-1.171, -3.815e-4
-1.170, -3.832e-4
-1.169, -3.872e-4
-1.168, -3.921e-4
-1.167, -3.965e-4
-1.166, -3.992e-4
-1.165, -4.006e-4
-1.164, -4.049e-4
-1.163, -4.107e-4
-1.162, -4.145e-4
-1.161, -4.170e-4
-1.160, -4.180e-4
-1.159, -4.228e-4
-1.158, -4.291e-4
-1.157, -4.337e-4
-1.156, -4.364e-4
-1.155, -4.377e-4
-1.154, -4.417e-4
-1.153, -4.480e-4
-1.152, -4.531e-4
-1.151, -4.560e-4
-1.150, -4.583e-4
-1.149, -4.623e-4
-1.148, -4.694e-4
-1.147, -4.747e-4
-1.146, -4.778e-4
-1.145, -4.807e-4
-1.144, -4.845e-4
-1.143, -4.916e-4
-1.142, -4.971e-4
-1.141, -5.000e-4
-1.140, -5.029e-4
-1.139, -5.093e-4
-1.138, -5.157e-4
-1.137, -5.207e-4
-1.136, -5.264e-4
-1.135, -5.263e-4
-1.134, -5.340e-4
-1.133, -5.423e-4
-1.132, -5.485e-4
-1.131, -5.517e-4
-1.130, -5.551e-4
-1.129, -5.618e-4
-1.128, -5.692e-4
-1.127, -5.763e-4
-1.126, -5.805e-4
-1.125, -5.838e-4
-1.124, -5.955e-4
-1.123, -6.001e-4
-1.122, -6.065e-4
-1.121, -6.138e-4
-1.120, -6.167e-4
-1.119, -6.222e-4
-1.118, -6.328e-4
-1.117, -6.395e-4
-1.116, -6.449e-4
-1.115, -6.503e-4
-1.114, -6.583e-4
-1.113, -6.679e-4
-1.112, -6.750e-4
-1.111, -6.808e-4
-1.110, -6.865e-4
-1.109, -6.940e-4
-1.108, -7.042e-4
-1.107, -7.129e-4
-1.106, -7.189e-4
-1.105, -7.249e-4
-1.104, -7.327e-4
-1.103, -7.424e-4
-1.102, -7.522e-4
-1.101, -7.594e-4
-1.100, -7.662e-4
-1.099, -7.746e-4
-1.098, -7.848e-4
-1.097, -7.950e-4
-1.096, -8.026e-4
-1.095, -8.102e-4
-1.094, -8.194e-4
-1.093, -8.293e-4
-1.092, -8.394e-4
-1.091, -8.472e-4
-1.090, -8.538e-4
-1.089, -8.639e-4
-1.088, -8.745e-4
-1.087, -8.844e-4
-1.086, -8.919e-4
-1.085, -8.979e-4
-1.084, -9.085e-4
-1.083, -9.209e-4
-1.082, -9.324e-4
-1.081, -9.397e-4
-1.080, -9.464e-4
-1.079, -9.566e-4
-1.078, -9.679e-4
-1.077, -9.768e-4
-1.076, -9.848e-4
-1.075, -9.926e-4
-1.074, -1.001e-3
-1.073, -1.011e-3
-1.072, -1.025e-3
-1.071, -1.036e-3
-1.070, -1.042e-3
-1.069, -1.049e-3
-1.068, -1.058e-3
-1.067, -1.068e-3
-1.066, -1.077e-3
-1.065, -1.084e-3
-1.064, -1.094e-3
-1.063, -1.106e-3
-1.062, -1.116e-3
-1.061, -1.124e-3
-1.060, -1.131e-3
-1.059, -1.140e-3
-1.058, -1.151e-3
-1.057, -1.162e-3
-1.056, -1.169e-3
-1.055, -1.176e-3
-1.054, -1.185e-3
-1.053, -1.195e-3
-1.052, -1.206e-3
-1.051, -1.213e-3
-1.050, -1.220e-3
-1.049, -1.230e-3
-1.048, -1.240e-3
-1.047, -1.250e-3
-1.046, -1.257e-3
-1.045, -1.262e-3
-1.044, -1.271e-3
-1.043, -1.282e-3
-1.042, -1.293e-3
-1.041, -1.301e-3
-1.040, -1.307e-3
-1.039, -1.314e-3
-1.038, -1.323e-3
-1.037, -1.333e-3
-1.036, -1.341e-3
-1.035, -1.344e-3
-1.034, -1.352e-3
-1.033, -1.360e-3
-1.032, -1.372e-3
-1.031, -1.380e-3
-1.030, -1.387e-3
-1.029, -1.394e-3
-1.028, -1.404e-3
-1.027, -1.413e-3
-1.026, -1.419e-3
-1.025, -1.423e-3
-1.024, -1.431e-3
-1.023, -1.441e-3
-1.022, -1.450e-3
-1.021, -1.455e-3
-1.020, -1.462e-3
-1.019, -1.469e-3
-1.018, -1.474e-3
-1.017, -1.484e-3
-1.016, -1.493e-3
-1.015, -1.500e-3
-1.014, -1.507e-3
-1.013, -1.513e-3
-1.012, -1.520e-3
-1.011, -1.525e-3
-1.010, -1.530e-3
-1.009, -1.538e-3
-1.008, -1.548e-3
-1.007, -1.557e-3
-1.006, -1.562e-3
-1.005, -1.566e-3
-1.004, -1.573e-3
-1.003, -1.581e-3
-1.002, -1.588e-3
-1.001, -1.593e-3
-1.000, -1.503e-3
-1.001, -1.362e-3
-1.002, -1.260e-3
-1.003, -1.176e-3
-1.004, -1.098e-3
-1.005, -1.027e-3
-1.006, -9.620e-4
-1.007, -9.039e-4
-1.008, -8.502e-4
-1.009, -7.960e-4
-1.010, -7.445e-4
-1.011, -6.977e-4
-1.012, -6.546e-4
-1.013, -6.135e-4
-1.014, -5.718e-4
-1.015, -5.311e-4
-1.016, -4.946e-4
-1.017, -4.613e-4
-1.018, -4.288e-4
-1.019, -3.965e-4
-1.020, -3.656e-4
-1.021, -3.377e-4
-1.022, -3.116e-4
-1.023, -2.852e-4
-1.024, -2.584e-4
-1.025, -2.324e-4
-1.026, -2.088e-4
-1.027, -1.886e-4
-1.028, -1.679e-4
-1.029, -1.467e-4
-1.030, -1.247e-4
-1.031, -1.052e-4
-1.032, -8.937e-5
-1.033, -7.254e-5
-1.034, -5.406e-5
-1.035, -3.583e-5
-1.036, -1.971e-5
-1.037, -6.787e-6
-1.038, 6.642e-6
-1.039, 2.244e-5
-1.040, 3.769e-5
-1.041, 5.139e-5
-1.042, 6.220e-5
-1.043, 7.325e-5
-1.044, 8.668e-5
-1.045, 1.002e-4
-1.046, 1.118e-4
-1.047, 1.211e-4
-1.048, 1.299e-4
-1.049, 1.418e-4
-1.050, 1.540e-4
-1.051, 1.631e-4
-1.052, 1.712e-4
-1.053, 1.789e-4
-1.054, 1.889e-4
-1.055, 2.002e-4
-1.056, 2.084e-4
-1.057, 2.151e-4
-1.058, 2.220e-4
-1.059, 2.310e-4
-1.060, 2.411e-4
-1.061, 2.485e-4
-1.062, 2.542e-4
-1.063, 2.601e-4
-1.064, 2.679e-4
-1.065, 2.773e-4
-1.066, 2.842e-4
-1.067, 2.892e-4
-1.068, 2.948e-4
-1.069, 3.023e-4
-1.070, 3.105e-4
-1.071, 3.173e-4
-1.072, 3.214e-4
-1.073, 3.265e-4
-1.074, 3.332e-4
-1.075, 3.418e-4
-1.076, 3.483e-4
-1.077, 3.519e-4
-1.078, 3.554e-4
-1.079, 3.610e-4
-1.080, 3.669e-4
-1.081, 3.734e-4
-1.082, 3.782e-4
-1.083, 3.818e-4
-1.084, 3.883e-4
-1.085, 3.955e-4
-1.086, 4.027e-4
-1.087, 4.062e-4
-1.088, 4.094e-4
-1.089, 4.147e-4
-1.090, 4.205e-4
-1.091, 4.261e-4
-1.092, 4.300e-4
-1.093, 4.338e-4
-1.094, 4.396e-4
-1.095, 4.470e-4
-1.096, 4.515e-4
-1.097, 4.545e-4
-1.098, 4.579e-4
-1.099, 4.638e-4
-1.100, 4.715e-4
-1.101, 4.758e-4
-1.102, 4.788e-4
-1.103, 4.819e-4
-1.104, 4.872e-4
-1.105, 4.940e-4
-1.106, 4.988e-4
-1.107, 5.017e-4
-1.108, 5.051e-4
-1.109, 5.099e-4
-1.110, 5.174e-4
-1.111, 5.219e-4
-1.112, 5.228e-4
-1.113, 5.271e-4
-1.114, 5.325e-4
-1.115, 5.389e-4
-1.116, 5.433e-4
-1.117, 5.453e-4
-1.118, 5.486e-4
-1.119, 5.540e-4
-1.120, 5.595e-4
-1.121, 5.642e-4
-1.122, 5.669e-4
-1.123, 5.697e-4
-1.124, 5.751e-4
-1.125, 5.808e-4
-1.126, 5.851e-4
-1.127, 5.875e-4
-1.128, 5.903e-4
-1.129, 5.954e-4
-1.130, 6.010e-4
-1.131, 6.058e-4
-1.132, 6.081e-4
-1.133, 6.103e-4
-1.134, 6.152e-4
-1.135, 6.222e-4
-1.136, 6.267e-4
-1.137, 6.265e-4
-1.138, 6.291e-4
-1.139, 6.353e-4
-1.140, 6.392e-4
-1.141, 6.440e-4
-1.142, 6.458e-4
-1.143, 6.514e-4
-1.144, 6.554e-4
-1.145, 6.602e-4
-1.146, 6.637e-4
-1.147, 6.651e-4
-1.148, 6.698e-4
-1.149, 6.721e-4
-1.150, 6.753e-4
-1.151, 6.781e-4
-1.152, 6.813e-4
-1.153, 6.829e-4
-1.154, 6.870e-4
-1.155, 6.922e-4
-1.156, 6.971e-4
-1.157, 6.978e-4
-1.158, 6.999e-4
-1.159, 7.050e-4
-1.160, 7.113e-4
-1.161, 7.117e-4
-1.162, 7.105e-4
-1.163, 7.153e-4
-1.164, 7.212e-4
-1.165, 7.265e-4
-1.166, 7.295e-4
-1.167, 7.298e-4
-1.168, 7.311e-4
-1.169, 7.347e-4
-1.170, 7.387e-4
-1.171, 7.411e-4
-1.172, 7.416e-4
-1.173, 7.436e-4
-1.174, 7.468e-4
-1.175, 7.513e-4
-1.176, 7.545e-4
-1.177, 7.555e-4
-1.178, 7.559e-4
-1.179, 7.578e-4
-1.180, 7.623e-4
-1.181, 7.650e-4
-1.182, 7.661e-4
-1.183, 7.665e-4
-1.184, 7.694e-4
-1.185, 7.734e-4
-1.186, 7.746e-4
-1.187, 7.748e-4
-1.188, 7.755e-4
-1.189, 7.773e-4
-1.190, 7.812e-4
-1.191, 7.838e-4
-1.192, 7.823e-4
-1.193, 7.828e-4
-1.194, 7.855e-4
-1.195, 7.879e-4
-1.196, 7.887e-4
-1.197, 7.858e-4
-1.198, 7.842e-4
-1.199, 7.852e-4
-1.200, 7.916e-4
-1.201, 7.947e-4
-1.202, 7.922e-4
-1.203, 7.901e-4
-1.204, 7.905e-4
-1.205, 7.922e-4
-1.206, 7.929e-4
-1.207, 7.907e-4
-1.208, 7.891e-4
-1.209, 7.896e-4
-1.210, 7.916e-4
-1.211, 7.953e-4
-1.212, 7.917e-4
-1.213, 7.882e-4
-1.214, 7.882e-4
-1.215, 7.895e-4
-1.216, 7.885e-4
-1.217, 7.857e-4
-1.218, 7.838e-4
-1.219, 7.837e-4
-1.220, 7.849e-4
-1.221, 7.842e-4
-1.222, 7.806e-4
-1.223, 7.774e-4
-1.224, 7.763e-4
-1.225, 7.766e-4
-1.226, 7.755e-4
-1.227, 7.715e-4
-1.228, 7.701e-4
-1.229, 7.703e-4
-1.230, 7.694e-4
-1.231, 7.692e-4
-1.232, 7.633e-4
-1.233, 7.585e-4
-1.234, 7.577e-4
-1.235, 7.582e-4
-1.236, 7.577e-4
-1.237, 7.538e-4
-1.238, 7.498e-4
-1.239, 7.483e-4
-1.240, 7.478e-4
-1.241, 7.458e-4
-1.242, 7.408e-4
-1.243, 7.369e-4
-1.244, 7.358e-4
-1.245, 7.357e-4
-1.246, 7.339e-4
-1.247, 7.301e-4
-1.248, 7.266e-4
-1.249, 7.258e-4
-1.250, 7.245e-4
-1.251, 7.222e-4
-1.252, 7.184e-4
-1.253, 7.145e-4
-1.254, 7.126e-4
-1.255, 7.137e-4
-1.256, 7.117e-4
-1.257, 7.072e-4
-1.258, 7.045e-4
-1.259, 7.037e-4
-1.260, 7.038e-4
-1.261, 7.024e-4
-1.262, 6.984e-4
-1.263, 6.948e-4
-1.264, 6.936e-4
-1.265, 6.947e-4
-1.266, 6.942e-4
-1.267, 6.909e-4
-1.268, 6.884e-4
-1.269, 6.870e-4
-1.270, 6.875e-4
-1.271, 6.875e-4
-1.272, 6.841e-4
-1.273, 6.813e-4
-1.274, 6.812e-4
-1.275, 6.812e-4
-1.276, 6.812e-4
-1.277, 6.792e-4
-1.278, 6.781e-4
-1.279, 6.785e-4
-1.280, 6.795e-4
-1.281, 6.802e-4
-1.282, 6.775e-4
-1.283, 6.757e-4
-1.284, 6.770e-4
-1.285, 6.796e-4
-1.286, 6.804e-4
-1.287, 6.794e-4
-1.288, 6.782e-4
-1.289, 6.798e-4
-1.290, 6.835e-4
-1.291, 6.854e-4
-1.292, 6.853e-4
-1.293, 6.839e-4
-1.294, 6.864e-4
-1.295, 6.904e-4
-1.296, 6.935e-4
-1.297, 6.937e-4
-1.298, 6.949e-4
-1.299, 6.997e-4
-1.300, 7.028e-4
-1.301, 7.056e-4
-1.302, 7.075e-4
-1.303, 7.108e-4
-1.304, 7.132e-4
-1.305, 7.196e-4
-1.306, 7.258e-4
-1.307, 7.272e-4
-1.308, 7.295e-4
-1.309, 7.351e-4
-1.310, 7.413e-4
-1.311, 7.475e-4
-1.312, 7.513e-4
-1.313, 7.557e-4
-1.314, 7.622e-4
-1.315, 7.699e-4
-1.316, 7.773e-4
-1.317, 7.818e-4
-1.318, 7.870e-4
-1.319, 7.956e-4
-1.320, 8.044e-4
-1.321, 8.124e-4
-1.322, 8.178e-4
-1.323, 8.250e-4
-1.324, 8.338e-4
-1.325, 8.435e-4
-1.326, 8.542e-4
-1.327, 8.625e-4
-1.328, 8.704e-4
-1.329, 8.813e-4
-1.330, 8.954e-4
-1.331, 9.056e-4
-1.332, 9.120e-4
-1.333, 9.182e-4
-1.334, 9.296e-4
-1.335, 9.445e-4
-1.336, 9.575e-4
-1.337, 9.683e-4
-1.338, 9.792e-4
-1.339, 9.935e-4
-1.340, 1.010e-3
-1.341, 1.024e-3
-1.342, 1.036e-3
-1.343, 1.048e-3
-1.344, 1.062e-3
-1.345, 1.079e-3
-1.346, 1.096e-3
-1.347, 1.109e-3
-1.348, 1.124e-3
-1.349, 1.139e-3
-1.350, 1.159e-3
-1.351, 1.178e-3
-1.352, 1.195e-3
-1.353, 1.211e-3
-1.354, 1.229e-3
-1.355, 1.249e-3
-1.356, 1.270e-3
-1.357, 1.287e-3
-1.358, 1.302e-3
-1.359, 1.324e-3
-1.360, 1.344e-3
-1.361, 1.365e-3
-1.362, 1.388e-3
-1.363, 1.409e-3
-1.364, 1.432e-3
-1.365, 1.457e-3
-1.366, 1.480e-3
-1.367, 1.502e-3
-1.368, 1.523e-3
-1.369, 1.547e-3
-1.370, 1.575e-3
-1.371, 1.601e-3
-1.372, 1.624e-3
-1.373, 1.649e-3
-1.374, 1.674e-3
-1.375, 1.705e-3
-1.376, 1.735e-3
-1.377, 1.760e-3
-1.378, 1.787e-3
-1.379, 1.815e-3
-1.380, 1.848e-3
-1.381, 1.878e-3
-1.382, 1.907e-3
-1.383, 1.935e-3
-1.384, 1.967e-3
-1.385, 1.999e-3
-1.386, 2.031e-3
-1.387, 2.061e-3
-1.388, 2.089e-3
-1.389, 2.116e-3
-1.390, 2.161e-3
-1.391, 2.197e-3
-1.392, 2.230e-3
-1.393, 2.269e-3
-1.394, 2.304e-3
-1.395, 2.329e-3
-1.396, 2.374e-3
-1.397, 2.415e-3
-1.398, 2.445e-3
-1.399, 2.479e-3
-1.400, 2.523e-3
-1.401, 2.565e-3
-1.402, 2.598e-3
-1.403, 2.632e-3
-1.404, 2.674e-3
-1.405, 2.717e-3
-1.406, 2.755e-3
-1.407, 2.794e-3
-1.408, 2.832e-3
-1.409, 2.873e-3
-1.410, 2.923e-3
-1.411, 2.966e-3
-1.412, 2.998e-3
-1.413, 3.047e-3
-1.414, 3.099e-3
-1.415, 3.141e-3
-1.416, 3.190e-3
-1.417, 3.234e-3
-1.418, 3.275e-3
-1.419, 3.326e-3
-1.420, 3.375e-3
-1.421, 3.417e-3
-1.422, 3.463e-3
-1.423, 3.514e-3
-1.424, 3.564e-3
-1.425, 3.617e-3
-1.426, 3.663e-3
-1.427, 3.710e-3
-1.428, 3.757e-3
-1.429, 3.811e-3
-1.430, 3.856e-3
-1.431, 3.915e-3
-1.432, 3.972e-3
-1.433, 4.026e-3
-1.434, 4.073e-3
-1.435, 4.132e-3
-1.436, 4.185e-3
-1.437, 4.237e-3
-1.438, 4.286e-3
-1.439, 4.337e-3
-1.440, 4.393e-3
-1.441, 4.454e-3
-1.442, 4.506e-3
-1.443, 4.551e-3
-1.444, 4.609e-3
-1.445, 4.664e-3
-1.446, 4.726e-3
-1.447, 4.781e-3
-1.448, 4.841e-3
-1.449, 4.894e-3
-1.450, 4.951e-3
-1.451, 5.011e-3
-1.452, 5.065e-3
-1.453, 5.114e-3
-1.454, 5.186e-3
-1.455, 5.251e-3
-1.456, 5.300e-3
-1.457, 5.358e-3
-1.458, 5.414e-3
-1.459, 5.467e-3
-1.460, 5.543e-3
-1.461, 5.593e-3
-1.462, 5.640e-3
-1.463, 5.690e-3
-1.464, 5.758e-3
-1.465, 5.819e-3
-1.466, 5.896e-3
-1.467, 5.961e-3
-1.468, 6.017e-3
-1.469, 6.070e-3
-1.470, 6.122e-3
-1.471, 6.184e-3
-1.472, 6.249e-3
-1.473, 6.323e-3
-1.474, 6.389e-3
-1.475, 6.452e-3
-1.476, 6.515e-3
-1.477, 6.572e-3
-1.478, 6.633e-3
-1.479, 6.744e-3
-1.480, 6.818e-3
-1.481, 6.873e-3
-1.482, 6.933e-3
-1.483, 7.031e-3
-1.484, 7.104e-3
-1.485, 7.117e-3
-1.486, 7.207e-3
-1.487, 7.272e-3
-1.488, 7.327e-3
-1.489, 7.363e-3
-1.490, 7.422e-3
-1.491, 7.512e-3
-1.492, 7.553e-3
-1.493, 7.608e-3
-1.494, 7.667e-3
-1.495, 7.746e-3
-1.496, 7.847e-3
-1.497, 7.909e-3
-1.498, 7.969e-3
-1.499, 8.047e-3
-1.500, 8.026e-3
-1.499, 7.929e-3
-1.498, 7.836e-3
-1.497, 7.747e-3
-1.496, 7.652e-3
-1.495, 7.560e-3
-1.494, 7.484e-3
-1.493, 7.404e-3
-1.492, 7.324e-3
-1.491, 7.238e-3
-1.490, 7.165e-3
-1.489, 7.085e-3
-1.488, 7.008e-3
-1.487, 6.909e-3
-1.486, 6.848e-3
-1.485, 6.786e-3
-1.484, 6.708e-3
-1.483, 6.637e-3
-1.482, 6.521e-3
-1.481, 6.431e-3
-1.480, 6.363e-3
-1.479, 6.275e-3
-1.478, 6.196e-3
-1.477, 6.128e-3
-1.476, 6.062e-3
-1.475, 5.994e-3
-1.474, 5.926e-3
-1.473, 5.856e-3
-1.472, 5.776e-3
-1.471, 5.705e-3
-1.470, 5.639e-3
-1.469, 5.567e-3
-1.468, 5.491e-3
-1.467, 5.446e-3
-1.466, 5.370e-3
-1.465, 5.299e-3
-1.464, 5.232e-3
-1.463, 5.164e-3
-1.462, 5.099e-3
-1.461, 5.041e-3
-1.460, 4.976e-3
-1.459, 4.911e-3
-1.458, 4.856e-3
-1.457, 4.789e-3
-1.456, 4.722e-3
-1.455, 4.667e-3
-1.454, 4.640e-3
-1.453, 4.580e-3
-1.452, 4.518e-3
-1.451, 4.477e-3
-1.450, 4.417e-3
-1.449, 4.337e-3
-1.448, 4.266e-3
-1.447, 4.208e-3
-1.446, 4.145e-3
-1.445, 4.077e-3
-1.444, 4.032e-3
-1.443, 3.976e-3
-1.442, 3.922e-3
-1.441, 3.867e-3
-1.440, 3.806e-3
-1.439, 3.772e-3
-1.438, 3.711e-3
-1.437, 3.658e-3
-1.436, 3.599e-3
-1.435, 3.540e-3
-1.434, 3.493e-3
-1.433, 3.441e-3
-1.432, 3.393e-3
-1.431, 3.339e-3
-1.430, 3.283e-3
-1.429, 3.240e-3
-1.428, 3.200e-3
-1.427, 3.148e-3
-1.426, 3.095e-3
-1.425, 3.051e-3
-1.424, 3.009e-3
-1.423, 2.967e-3
-1.422, 2.911e-3
-1.421, 2.867e-3
-1.420, 2.826e-3
-1.419, 2.780e-3
-1.418, 2.733e-3
-1.417, 2.690e-3
-1.416, 2.643e-3
-1.415, 2.604e-3
-1.414, 2.572e-3
-1.413, 2.518e-3
-1.412, 2.477e-3
-1.411, 2.435e-3
-1.410, 2.398e-3
-1.409, 2.362e-3
-1.408, 2.321e-3
-1.407, 2.273e-3
-1.406, 2.234e-3
-1.405, 2.200e-3
-1.404, 2.164e-3
-1.403, 2.126e-3
-1.402, 2.085e-3
-1.401, 2.047e-3
-1.400, 2.013e-3
-1.399, 1.977e-3
-1.398, 1.941e-3
-1.397, 1.915e-3
-1.396, 1.878e-3
-1.395, 1.840e-3
-1.394, 1.811e-3
-1.393, 1.781e-3
-1.392, 1.749e-3
-1.391, 1.715e-3
-1.390, 1.678e-3
-1.389, 1.646e-3
-1.388, 1.615e-3
-1.387, 1.582e-3
-1.386, 1.550e-3
-1.385, 1.522e-3
-1.384, 1.494e-3
-1.383, 1.463e-3
-1.382, 1.434e-3
-1.381, 1.407e-3
-1.380, 1.378e-3
-1.379, 1.351e-3
-1.378, 1.326e-3
-1.377, 1.305e-3
-1.376, 1.270e-3
-1.375, 1.244e-3
-1.374, 1.220e-3
-1.373, 1.194e-3
-1.372, 1.168e-3
-1.371, 1.142e-3
-1.370, 1.122e-3
-1.369, 1.098e-3
-1.368, 1.077e-3
-1.367, 1.050e-3
-1.366, 1.025e-3
-1.365, 1.004e-3
-1.364, 9.833e-4
-1.363, 9.599e-4
-1.362, 9.369e-4
-1.361, 9.162e-4
-1.360, 8.959e-4
-1.359, 8.744e-4
-1.358, 8.499e-4
-1.357, 8.291e-4
-1.356, 8.099e-4
-1.355, 7.984e-4
-1.354, 7.790e-4
-1.353, 7.561e-4
-1.352, 7.358e-4
-1.351, 7.172e-4
-1.350, 7.019e-4
-1.349, 6.849e-4
-1.348, 6.664e-4
-1.347, 6.475e-4
-1.346, 6.311e-4
-1.345, 6.169e-4
-1.344, 6.006e-4
-1.343, 5.838e-4
-1.342, 5.670e-4
-1.341, 5.533e-4
-1.340, 5.388e-4
-1.339, 5.254e-4
-1.338, 5.091e-4
-1.337, 4.924e-4
-1.336, 4.792e-4
-1.335, 4.665e-4
-1.334, 4.538e-4
-1.333, 4.409e-4
-1.332, 4.267e-4
-1.331, 4.134e-4
-1.330, 4.010e-4
-1.329, 3.909e-4
-1.328, 3.773e-4
-1.327, 3.636e-4
-1.326, 3.514e-4
-1.325, 3.430e-4
-1.324, 3.317e-4
-1.323, 3.196e-4
-1.322, 3.067e-4
-1.321, 2.958e-4
-1.320, 2.870e-4
-1.319, 2.779e-4
-1.318, 2.657e-4
-1.317, 2.516e-4
-1.316, 2.429e-4
-1.315, 2.348e-4
-1.314, 2.288e-4
-1.313, 2.184e-4
-1.312, 2.075e-4
-1.311, 1.984e-4
-1.310, 1.915e-4
-1.309, 1.846e-4
-1.308, 1.750e-4
-1.307, 1.647e-4
-1.306, 1.567e-4
-1.305, 1.500e-4
-1.304, 1.439e-4
-1.303, 1.350e-4
-1.302, 1.253e-4
-1.301, 1.184e-4
-1.300, 1.127e-4
-1.299, 1.065e-4
-1.298, 9.874e-5
-1.297, 8.945e-5
-1.296, 8.334e-5
-1.295, 7.835e-5
-1.294, 7.254e-5
-1.293, 6.536e-5
-1.292, 5.695e-5
-1.291, 5.093e-5
-1.290, 4.663e-5
-1.289, 4.166e-5
-1.288, 3.511e-5
-1.287, 2.736e-5
-1.286, 2.133e-5
-1.285, 1.778e-5
-1.284, 1.350e-5
-1.283, 6.888e-6
-1.282, -4.361e-8
-1.281, -5.730e-6
-1.280, -9.346e-6
-1.279, -1.300e-5
-1.278, -1.912e-5
-1.277, -2.548e-5
-1.276, -3.005e-5
-1.275, -3.331e-5
-1.274, -3.627e-5
-1.273, -4.266e-5
-1.272, -4.840e-5
-1.271, -5.297e-5
-1.270, -5.573e-5
-1.269, -5.853e-5
-1.268, -6.410e-5
-1.267, -6.989e-5
-1.266, -7.383e-5
-1.265, -7.670e-5
-1.264, -7.898e-5
-1.263, -8.421e-5
-1.262, -9.027e-5
-1.261, -9.350e-5
-1.260, -9.661e-5
-1.259, -9.943e-5
-1.258, -1.042e-4
-1.257, -1.095e-4
-1.256, -1.127e-4
-1.255, -1.150e-4
-1.254, -1.172e-4
-1.253, -1.206e-4
-1.252, -1.263e-4
-1.251, -1.298e-4
-1.250, -1.316e-4
-1.249, -1.340e-4
-1.248, -1.378e-4
-1.247, -1.428e-4
-1.246, -1.457e-4
-1.245, -1.466e-4
-1.244, -1.490e-4
-1.243, -1.531e-4
-1.242, -1.582e-4
-1.241, -1.612e-4
-1.240, -1.622e-4
-1.239, -1.639e-4
-1.238, -1.682e-4
-1.237, -1.725e-4
-1.236, -1.756e-4
-1.235, -1.768e-4
-1.234, -1.782e-4
-1.233, -1.823e-4
-1.232, -1.862e-4
-1.231, -1.915e-4
-1.230, -1.919e-4
-1.229, -1.943e-4
-1.228, -1.970e-4
-1.227, -2.011e-4
-1.226, -2.031e-4
-1.225, -2.043e-4
-1.224, -2.052e-4
-1.223, -2.090e-4
-1.222, -2.133e-4
-1.221, -2.156e-4
-1.220, -2.163e-4
-1.219, -2.178e-4
-1.218, -2.214e-4
-1.217, -2.262e-4
-1.216, -2.286e-4
-1.215, -2.293e-4
-1.214, -2.305e-4
-1.213, -2.335e-4
-1.212, -2.380e-4
-1.211, -2.404e-4
-1.210, -2.413e-4
-1.209, -2.426e-4
-1.208, -2.456e-4
-1.207, -2.504e-4
-1.206, -2.531e-4
-1.205, -2.536e-4
-1.204, -2.547e-4
-1.203, -2.583e-4
-1.202, -2.628e-4
-1.201, -2.653e-4
-1.200, -2.649e-4
-1.199, -2.664e-4
-1.198, -2.714e-4
-1.197, -2.751e-4
-1.196, -2.778e-4
-1.195, -2.783e-4
-1.194, -2.789e-4
-1.193, -2.835e-4
-1.192, -2.879e-4
-1.191, -2.898e-4
-1.190, -2.911e-4
-1.189, -2.904e-4
-1.188, -2.961e-4
-1.187, -3.012e-4
-1.186, -3.031e-4
-1.185, -3.037e-4
-1.184, -3.041e-4
-1.183, -3.079e-4
-1.182, -3.131e-4
-1.181, -3.157e-4
-1.180, -3.169e-4
-1.179, -3.180e-4
-1.178, -3.222e-4
-1.177, -3.273e-4
-1.176, -3.294e-4
-1.175, -3.304e-4
-1.174, -3.323e-4
-1.173, -3.362e-4
-1.172, -3.412e-4
-1.171, -3.440e-4
-1.170, -3.450e-4
-1.169, -3.470e-4
-1.168, -3.502e-4
-1.167, -3.552e-4
-1.166, -3.588e-4
-1.165, -3.594e-4
-1.164, -3.622e-4
-1.163, -3.658e-4
-1.162, -3.705e-4
-1.161, -3.748e-4
-1.160, -3.765e-4
-1.159, -3.780e-4
-1.158, -3.817e-4
-1.157, -3.867e-4
-1.156, -3.903e-4
-1.155, -3.911e-4
-1.154, -3.945e-4
-1.153, -3.983e-4
-1.152, -4.037e-4
-1.151, -4.078e-4
-1.150, -4.104e-4
-1.149, -4.117e-4
-1.148, -4.166e-4
-1.147, -4.225e-4
-1.146, -4.265e-4
-1.145, -4.291e-4
-1.144, -4.321e-4
-1.143, -4.367e-4
-1.142, -4.425e-4
-1.141, -4.466e-4
-1.140, -4.489e-4
-1.139, -4.523e-4
-1.138, -4.614e-4
-1.137, -4.666e-4
-1.136, -4.683e-4
-1.135, -4.717e-4
-1.134, -4.742e-4
-1.133, -4.802e-4
-1.132, -4.869e-4
-1.131, -4.903e-4
-1.130, -4.936e-4
-1.129, -4.981e-4
-1.128, -5.037e-4
-1.127, -5.110e-4
-1.126, -5.172e-4
-1.125, -5.202e-4
-1.124, -5.243e-4
-1.123, -5.302e-4
-1.122, -5.375e-4
-1.121, -5.433e-4
-1.120, -5.466e-4
-1.119, -5.523e-4
-1.118, -5.584e-4
-1.117, -5.656e-4
-1.116, -5.723e-4
-1.115, -5.768e-4
-1.114, -5.818e-4
-1.113, -5.894e-4
-1.112, -5.970e-4
-1.111, -6.040e-4
-1.110, -6.094e-4
-1.109, -6.137e-4
-1.108, -6.213e-4
-1.107, -6.294e-4
-1.106, -6.361e-4
-1.105, -6.421e-4
-1.104, -6.472e-4
-1.103, -6.547e-4
-1.102, -6.641e-4
-1.101, -6.720e-4
-1.100, -6.781e-4
-1.099, -6.846e-4
-1.098, -6.917e-4
-1.097, -7.017e-4
-1.096, -7.089e-4
-1.095, -7.164e-4
-1.094, -7.240e-4
-1.093, -7.309e-4
-1.092, -7.413e-4
-1.091, -7.497e-4
-1.090, -7.569e-4
-1.089, -7.629e-4
-1.088, -7.700e-4
-1.087, -7.802e-4
-1.086, -7.892e-4
-1.085, -7.968e-4
-1.084, -8.039e-4
-1.083, -8.215e-4
-1.082, -8.311e-4
-1.081, -8.373e-4
-1.080, -8.427e-4
-1.079, -8.503e-4
-1.078, -8.558e-4
-1.077, -8.674e-4
-1.076, -8.803e-4
-1.075, -8.852e-4
-1.074, -8.908e-4
-1.073, -8.996e-4
-1.072, -9.124e-4
-1.071, -9.216e-4
-1.070, -9.287e-4
-1.069, -9.353e-4
-1.068, -9.436e-4
-1.067, -9.543e-4
-1.066, -9.623e-4
-1.065, -9.695e-4
-1.064, -9.762e-4
-1.063, -9.879e-4
-1.062, -9.992e-4
-1.061, -1.007e-3
-1.060, -1.014e-3
-1.059, -1.020e-3
-1.058, -1.029e-3
-1.057, -1.040e-3
-1.056, -1.049e-3
-1.055, -1.056e-3
-1.054, -1.064e-3
-1.053, -1.071e-3
-1.052, -1.081e-3
-1.051, -1.090e-3
-1.050, -1.097e-3
-1.049, -1.106e-3
-1.048, -1.114e-3
-1.047, -1.124e-3
-1.046, -1.133e-3
-1.045, -1.140e-3
-1.044, -1.147e-3
-1.043, -1.155e-3
-1.042, -1.165e-3
-1.041, -1.175e-3
-1.040, -1.182e-3
-1.039, -1.189e-3
-1.038, -1.199e-3
-1.037, -1.210e-3
-1.036, -1.220e-3
-1.035, -1.226e-3
-1.034, -1.232e-3
-1.033, -1.242e-3
-1.032, -1.252e-3
-1.031, -1.261e-3
-1.030, -1.267e-3
-1.029, -1.274e-3
-1.028, -1.283e-3
-1.027, -1.293e-3
-1.026, -1.301e-3
-1.025, -1.308e-3
-1.024, -1.316e-3
-1.023, -1.324e-3
-1.022, -1.335e-3
-1.021, -1.343e-3
-1.020, -1.351e-3
-1.019, -1.358e-3
-1.018, -1.368e-3
-1.017, -1.380e-3
-1.016, -1.387e-3
-1.015, -1.394e-3
-1.014, -1.400e-3
-1.013, -1.410e-3
-1.012, -1.420e-3
-1.011, -1.428e-3
-1.010, -1.436e-3
-1.009, -1.445e-3
-1.008, -1.452e-3
-1.007, -1.469e-3
-1.006, -1.475e-3
-1.005, -1.481e-3
-1.004, -1.483e-3
-1.003, -1.490e-3
-1.002, -1.501e-3
-1.001, -1.509e-3
-1.000, -1.420e-3
-1.001, -1.281e-3
-1.002, -1.185e-3
-1.003, -1.105e-3
-1.004, -1.035e-3
-1.005, -9.656e-4
-1.006, -9.020e-4
-1.007, -8.452e-4
-1.008, -7.923e-4
-1.009, -7.423e-4
-1.010, -6.930e-4
-1.011, -6.464e-4
-1.012, -6.031e-4
-1.013, -5.651e-4
-1.014, -5.277e-4
-1.015, -4.884e-4
-1.016, -4.539e-4
-1.017, -4.210e-4
-1.018, -3.897e-4
-1.019, -3.613e-4
-1.020, -3.296e-4
-1.021, -3.000e-4
-1.022, -2.744e-4
-1.023, -2.512e-4
-1.024, -2.271e-4
-1.025, -2.019e-4
-1.026, -1.777e-4
-1.027, -1.569e-4
-1.028, -1.376e-4
-1.029, -1.192e-4
-1.030, -9.821e-5
-1.031, -7.724e-5
-1.032, -6.087e-5
-1.033, -4.554e-5
-1.034, -3.024e-5
-1.035, -1.317e-5
-1.036, 4.228e-6
-1.037, 1.784e-5
-1.038, 3.046e-5
-1.039, 4.317e-5
-1.040, 5.786e-5
-1.041, 7.247e-5
-1.042, 8.427e-5
-1.043, 9.425e-5
-1.044, 1.053e-4
-1.045, 1.172e-4
-1.046, 1.297e-4
-1.047, 1.398e-4
-1.048, 1.479e-4
-1.049, 1.572e-4
-1.050, 1.681e-4
-1.051, 1.793e-4
-1.052, 1.883e-4
-1.053, 1.950e-4
-1.054, 2.020e-4
-1.055, 2.112e-4
-1.056, 2.217e-4
-1.057, 2.293e-4
-1.058, 2.346e-4
-1.059, 2.410e-4
-1.060, 2.505e-4
-1.061, 2.588e-4
-1.062, 2.656e-4
-1.063, 2.708e-4
-1.064, 2.759e-4
-1.065, 2.837e-4
-1.066, 2.924e-4
-1.067, 2.980e-4
-1.068, 3.024e-4
-1.069, 3.073e-4
-1.070, 3.143e-4
-1.071, 3.225e-4
-1.072, 3.274e-4
-1.073, 3.318e-4
-1.074, 3.364e-4
-1.075, 3.437e-4
-1.076, 3.515e-4
-1.077, 3.556e-4
-1.078, 3.590e-4
-1.079, 3.631e-4
-1.080, 3.693e-4
-1.081, 3.764e-4
-1.082, 3.809e-4
-1.083, 3.837e-4
-1.084, 3.884e-4
-1.085, 3.947e-4
-1.086, 3.994e-4
-1.087, 4.058e-4
-1.088, 4.096e-4
-1.089, 4.122e-4
-1.090, 4.172e-4
-1.091, 4.235e-4
-1.092, 4.279e-4
-1.093, 4.301e-4
-1.094, 4.334e-4
-1.095, 4.400e-4
-1.096, 4.459e-4
-1.097, 4.501e-4
-1.098, 4.527e-4
-1.099, 4.554e-4
-1.100, 4.612e-4
-1.101, 4.671e-4
-1.102, 4.712e-4
-1.103, 4.737e-4
-1.104, 4.765e-4
-1.105, 4.833e-4
-1.106, 4.877e-4
-1.107, 4.889e-4
-1.108, 4.929e-4
-1.109, 4.978e-4
-1.110, 5.027e-4
-1.111, 5.079e-4
-1.112, 5.115e-4
-1.113, 5.140e-4
-1.114, 5.172e-4
-1.115, 5.218e-4
-1.116, 5.277e-4
-1.117, 5.300e-4
-1.118, 5.322e-4
-1.119, 5.348e-4
-1.120, 5.393e-4
-1.121, 5.454e-4
-1.122, 5.487e-4
-1.123, 5.504e-4
-1.124, 5.532e-4
-1.125, 5.574e-4
-1.126, 5.632e-4
-1.127, 5.666e-4
-1.128, 5.679e-4
-1.129, 5.709e-4
-1.130, 5.749e-4
-1.131, 5.808e-4
-1.132, 5.814e-4
-1.133, 5.816e-4
-1.134, 5.877e-4
-1.135, 5.942e-4
-1.136, 5.994e-4
-1.137, 5.998e-4
-1.138, 5.976e-4
-1.139, 6.017e-4
-1.140, 6.071e-4
-1.141, 6.127e-4
-1.142, 6.148e-4
-1.143, 6.163e-4
-1.144, 6.178e-4
-1.145, 6.205e-4
-1.146, 6.248e-4
-1.147, 6.282e-4
-1.148, 6.305e-4
-1.149, 6.319e-4
-1.150, 6.358e-4
-1.151, 6.405e-4
-1.152, 6.426e-4
-1.153, 6.438e-4
-1.154, 6.444e-4
-1.155, 6.492e-4
-1.156, 6.540e-4
-1.157, 6.552e-4
-1.158, 6.556e-4
-1.159, 6.565e-4
-1.160, 6.600e-4
-1.161, 6.650e-4
-1.162, 6.678e-4
-1.163, 6.683e-4
-1.164, 6.692e-4
-1.165, 6.772e-4
-1.166, 6.780e-4
-1.167, 6.775e-4
-1.168, 6.751e-4
-1.169, 6.780e-4
-1.170, 6.814e-4
-1.171, 6.850e-4
-1.172, 6.873e-4
-1.173, 6.871e-4
-1.174, 6.872e-4
-1.175, 6.902e-4
-1.176, 6.932e-4
-1.177, 6.960e-4
-1.178, 6.958e-4
-1.179, 6.955e-4
-1.180, 6.979e-4
-1.181, 6.999e-4
-1.182, 7.029e-4
-1.183, 7.026e-4
-1.184, 6.976e-4
-1.185, 7.031e-4
-1.186, 7.068e-4
-1.187, 7.062e-4
-1.188, 7.056e-4
-1.189, 7.043e-4
-1.190, 7.065e-4
-1.191, 7.097e-4
-1.192, 7.095e-4
-1.193, 7.077e-4
-1.194, 7.069e-4
-1.195, 7.088e-4
-1.196, 7.113e-4
-1.197, 7.106e-4
-1.198, 7.087e-4
-1.199, 7.072e-4
-1.200, 7.076e-4
-1.201, 7.098e-4
-1.202, 7.103e-4
-1.203, 7.077e-4
-1.204, 7.067e-4
-1.205, 7.070e-4
-1.206, 7.080e-4
-1.207, 7.081e-4
-1.208, 7.062e-4
-1.209, 7.052e-4
-1.210, 7.052e-4
-1.211, 7.045e-4
-1.212, 7.038e-4
-1.213, 7.007e-4
-1.214, 6.996e-4
-1.215, 6.992e-4
-1.216, 6.997e-4
-1.217, 6.983e-4
-1.218, 6.953e-4
-1.219, 6.929e-4
-1.220, 6.899e-4
-1.221, 6.895e-4
-1.222, 6.902e-4
-1.223, 6.892e-4
-1.224, 6.867e-4
-1.225, 6.851e-4
-1.226, 6.849e-4
-1.227, 6.829e-4
-1.228, 6.808e-4
-1.229, 6.786e-4
-1.230, 6.771e-4
-1.231, 6.765e-4
-1.232, 6.735e-4
-1.233, 6.712e-4
-1.234, 6.674e-4
-1.235, 6.661e-4
-1.236, 6.663e-4
-1.237, 6.641e-4
-1.238, 6.608e-4
-1.239, 6.575e-4
-1.240, 6.562e-4
-1.241, 6.570e-4
-1.242, 6.547e-4
-1.243, 6.506e-4
-1.244, 6.476e-4
-1.245, 6.466e-4
-1.246, 6.448e-4
-1.247, 6.455e-4
-1.248, 6.436e-4
-1.249, 6.395e-4
-1.250, 6.371e-4
-1.251, 6.368e-4
-1.252, 6.356e-4
-1.253, 6.320e-4
-1.254, 6.292e-4
-1.255, 6.283e-4
-1.256, 6.282e-4
-1.257, 6.266e-4
-1.258, 6.233e-4
-1.259, 6.205e-4
-1.260, 6.206e-4
-1.261, 6.210e-4
-1.262, 6.198e-4
-1.263, 6.170e-4
-1.264, 6.134e-4
-1.265, 6.135e-4
-1.266, 6.141e-4
-1.267, 6.126e-4
-1.268, 6.116e-4
-1.269, 6.083e-4
-1.270, 6.079e-4
-1.271, 6.084e-4
-1.272, 6.071e-4
-1.273, 6.046e-4
-1.274, 6.058e-4
-1.275, 6.070e-4
-1.276, 6.074e-4
-1.277, 6.058e-4
-1.278, 6.043e-4
-1.279, 6.031e-4
-1.280, 6.037e-4
-1.281, 6.059e-4
-1.282, 6.061e-4
-1.283, 6.048e-4
-1.284, 6.046e-4
-1.285, 6.057e-4
-1.286, 6.084e-4
-1.287, 6.096e-4
-1.288, 6.080e-4
-1.289, 6.084e-4
-1.290, 6.097e-4
-1.291, 6.129e-4
-1.292, 6.155e-4
-1.293, 6.149e-4
-1.294, 6.161e-4
-1.295, 6.194e-4
-1.296, 6.228e-4
-1.297, 6.253e-4
-1.298, 6.262e-4
-1.299, 6.280e-4
-1.300, 6.320e-4
-1.301, 6.365e-4
-1.302, 6.398e-4
-1.303, 6.414e-4
-1.304, 6.434e-4
-1.305, 6.476e-4
-1.306, 6.536e-4
-1.307, 6.584e-4
-1.308, 6.613e-4
-1.309, 6.636e-4
-1.310, 6.693e-4
-1.311, 6.766e-4
-1.312, 6.823e-4
-1.313, 6.836e-4
-1.314, 6.866e-4
-1.315, 6.948e-4
-1.316, 7.061e-4
-1.317, 7.123e-4
-1.318, 7.155e-4
-1.319, 7.203e-4
-1.320, 7.276e-4
-1.321, 7.368e-4
-1.322, 7.434e-4
-1.323, 7.516e-4
-1.324, 7.585e-4
-1.325, 7.650e-4
-1.326, 7.756e-4
-1.327, 7.861e-4
-1.328, 7.934e-4
-1.329, 8.012e-4
-1.330, 8.114e-4
-1.331, 8.232e-4
-1.332, 8.330e-4
-1.333, 8.411e-4
-1.334, 8.505e-4
-1.335, 8.632e-4
-1.336, 8.777e-4
-1.337, 8.876e-4
-1.338, 8.942e-4
-1.339, 9.071e-4
-1.340, 9.216e-4
-1.341, 9.353e-4
-1.342, 9.480e-4
-1.343, 9.590e-4
-1.344, 9.712e-4
-1.345, 9.876e-4
-1.346, 1.004e-3
-1.347, 1.015e-3
-1.348, 1.029e-3
-1.349, 1.046e-3
-1.350, 1.062e-3
-1.351, 1.079e-3
-1.352, 1.095e-3
-1.353, 1.110e-3
-1.354, 1.126e-3
-1.355, 1.143e-3
-1.356, 1.163e-3
-1.357, 1.181e-3
-1.358, 1.199e-3
-1.359, 1.216e-3
-1.360, 1.236e-3
-1.361, 1.258e-3
-1.362, 1.277e-3
-1.363, 1.296e-3
-1.364, 1.315e-3
-1.365, 1.336e-3
-1.366, 1.360e-3
-1.367, 1.383e-3
-1.368, 1.403e-3
-1.369, 1.424e-3
-1.370, 1.448e-3
-1.371, 1.473e-3
-1.372, 1.497e-3
-1.373, 1.519e-3
-1.374, 1.542e-3
-1.375, 1.569e-3
-1.376, 1.596e-3
-1.377, 1.626e-3
-1.378, 1.658e-3
-1.379, 1.675e-3
-1.380, 1.701e-3
-1.381, 1.733e-3
-1.382, 1.767e-3
-1.383, 1.793e-3
-1.384, 1.818e-3
-1.385, 1.848e-3
-1.386, 1.879e-3
-1.387, 1.909e-3
-1.388, 1.938e-3
-1.389, 1.968e-3
-1.390, 2.002e-3
-1.391, 2.035e-3
-1.392, 2.069e-3
-1.393, 2.100e-3
-1.394, 2.132e-3
-1.395, 2.167e-3
-1.396, 2.204e-3
-1.397, 2.238e-3
-1.398, 2.272e-3
-1.399, 2.306e-3
-1.400, 2.341e-3
-1.401, 2.380e-3
-1.402, 2.417e-3
-1.403, 2.452e-3
-1.404, 2.490e-3
-1.405, 2.528e-3
-1.406, 2.567e-3
-1.407, 2.607e-3
-1.408, 2.646e-3
-1.409, 2.684e-3
-1.410, 2.725e-3
-1.411, 2.761e-3
-1.412, 2.799e-3
-1.413, 2.851e-3
-1.414, 2.897e-3
-1.415, 2.942e-3
-1.416, 2.988e-3
-1.417, 3.029e-3
-1.418, 3.072e-3
-1.419, 3.115e-3
-1.420, 3.157e-3
-1.421, 3.204e-3
-1.422, 3.253e-3
-1.423, 3.298e-3
-1.424, 3.342e-3
-1.425, 3.391e-3
-1.426, 3.434e-3
-1.427, 3.481e-3
-1.428, 3.530e-3
-1.429, 3.576e-3
-1.430, 3.624e-3
-1.431, 3.681e-3
-1.432, 3.730e-3
-1.433, 3.780e-3
-1.434, 3.817e-3
-1.435, 3.860e-3
-1.436, 3.921e-3
-1.437, 3.978e-3
-1.438, 4.028e-3
-1.439, 4.074e-3
-1.440, 4.130e-3
-1.441, 4.187e-3
-1.442, 4.239e-3
-1.443, 4.283e-3
-1.444, 4.332e-3
-1.445, 4.388e-3
-1.446, 4.447e-3
-1.447, 4.502e-3
-1.448, 4.561e-3
-1.449, 4.614e-3
-1.450, 4.670e-3
-1.451, 4.724e-3
-1.452, 4.787e-3
-1.453, 4.841e-3
-1.454, 4.887e-3
-1.455, 4.954e-3
-1.456, 5.072e-3
-1.457, 5.110e-3
-1.458, 5.133e-3
-1.459, 5.197e-3
-1.460, 5.246e-3
-1.461, 5.307e-3
-1.462, 5.363e-3
-1.463, 5.430e-3
-1.464, 5.498e-3
-1.465, 5.566e-3
-1.466, 5.620e-3
-1.467, 5.671e-3
-1.468, 5.725e-3
-1.469, 5.788e-3
-1.470, 5.850e-3
-1.471, 5.917e-3
-1.472, 5.988e-3
-1.473, 6.042e-3
-1.474, 6.098e-3
-1.475, 6.155e-3
-1.476, 6.222e-3
-1.477, 6.292e-3
-1.478, 6.352e-3
-1.479, 6.411e-3
-1.480, 6.468e-3
-1.481, 6.541e-3
-1.482, 6.603e-3
-1.483, 6.678e-3
-1.484, 6.748e-3
-1.485, 6.797e-3
-1.486, 6.852e-3
-1.487, 6.916e-3
-1.488, 6.963e-3
-1.489, 7.031e-3
-1.490, 7.103e-3
-1.491, 7.194e-3
-1.492, 7.254e-3
-1.493, 7.321e-3
-1.494, 7.376e-3
-1.495, 7.438e-3
-1.496, 7.505e-3
-1.497, 7.559e-3
-1.498, 7.631e-3
-1.499, 7.670e-3
-1.500, 7.637e-3
-1.499, 7.569e-3
-1.498, 7.506e-3
-1.497, 7.422e-3
-1.496, 7.330e-3
-1.495, 7.241e-3
-1.494, 7.144e-3
-1.493, 7.064e-3
-1.492, 7.007e-3
-1.491, 6.952e-3
-1.490, 6.865e-3
-1.489, 6.790e-3
-1.488, 6.714e-3
-1.487, 6.635e-3
-1.486, 6.561e-3
-1.485, 6.482e-3
-1.484, 6.406e-3
-1.483, 6.300e-3
-1.482, 6.181e-3
-1.481, 6.106e-3
-1.480, 6.024e-3
-1.479, 5.975e-3
-1.478, 5.928e-3
-1.477, 5.852e-3
-1.476, 5.766e-3
-1.475, 5.716e-3
-1.474, 5.652e-3
-1.473, 5.584e-3
-1.472, 5.520e-3
-1.471, 5.446e-3
-1.470, 5.375e-3
-1.469, 5.312e-3
-1.468, 5.238e-3
-1.467, 5.171e-3
-1.466, 5.110e-3
-1.465, 5.049e-3
-1.464, 4.981e-3
-1.463, 4.916e-3
-1.462, 4.847e-3
-1.461, 4.797e-3
-1.460, 4.766e-3
-1.459, 4.728e-3
-1.458, 4.687e-3
-1.457, 4.639e-3
-1.456, 4.580e-3
-1.455, 4.530e-3
-1.454, 4.463e-3
-1.453, 4.417e-3
-1.452, 4.367e-3
-1.451, 4.322e-3
-1.450, 4.267e-3
-1.449, 4.204e-3
-1.448, 4.156e-3
-1.447, 4.097e-3
-1.446, 4.041e-3
-1.445, 3.998e-3
-1.444, 3.948e-3
-1.443, 3.896e-3
-1.442, 3.833e-3
-1.441, 3.769e-3
-1.440, 3.706e-3
-1.439, 3.662e-3
-1.438, 3.614e-3
-1.437, 3.562e-3
-1.436, 3.516e-3
-1.435, 3.453e-3
-1.434, 3.398e-3
-1.433, 3.341e-3
-1.432, 3.304e-3
-1.431, 3.245e-3
-1.430, 3.197e-3
-1.429, 3.149e-3
-1.428, 3.105e-3
-1.427, 3.057e-3
-1.426, 3.009e-3
-1.425, 2.947e-3
-1.424, 2.892e-3
-1.423, 2.857e-3
-1.422, 2.822e-3
-1.421, 2.793e-3
-1.420, 2.742e-3
-1.419, 2.684e-3
-1.418, 2.637e-3
-1.417, 2.590e-3
-1.416, 2.546e-3
-1.415, 2.506e-3
-1.414, 2.467e-3
-1.413, 2.426e-3
-1.412, 2.382e-3
-1.411, 2.336e-3
-1.410, 2.297e-3
-1.409, 2.262e-3
-1.408, 2.222e-3
-1.407, 2.179e-3
-1.406, 2.160e-3
-1.405, 2.132e-3
-1.404, 2.086e-3
-1.403, 2.050e-3
-1.402, 2.002e-3
-1.401, 1.958e-3
-1.400, 1.921e-3
-1.399, 1.890e-3
-1.398, 1.854e-3
-1.397, 1.823e-3
-1.396, 1.784e-3
-1.395, 1.752e-3
-1.394, 1.720e-3
-1.393, 1.689e-3
-1.392, 1.654e-3
-1.391, 1.622e-3
-1.390, 1.591e-3
-1.389, 1.562e-3
-1.388, 1.533e-3
-1.387, 1.501e-3
-1.386, 1.469e-3
-1.385, 1.437e-3
-1.384, 1.408e-3
-1.383, 1.381e-3
-1.382, 1.351e-3
-1.381, 1.332e-3
-1.380, 1.305e-3
-1.379, 1.277e-3
-1.378, 1.249e-3
-1.377, 1.221e-3
-1.376, 1.195e-3
-1.375, 1.169e-3
-1.374, 1.143e-3
-1.373, 1.120e-3
-1.372, 1.092e-3
-1.371, 1.065e-3
-1.370, 1.042e-3
-1.369, 1.026e-3
-1.368, 1.007e-3
-1.367, 9.796e-4
-1.366, 9.562e-4
-1.365, 9.342e-4
-1.364, 9.133e-4
-1.363, 8.943e-4
-1.362, 8.715e-4
-1.361, 8.484e-4
-1.360, 8.288e-4
-1.359, 8.104e-4
-1.358, 7.923e-4
-1.357, 7.795e-4
-1.356, 7.554e-4
-1.355, 7.342e-4
-1.354, 7.143e-4
-1.353, 6.986e-4
-1.352, 6.801e-4
-1.351, 6.619e-4
-1.350, 6.436e-4
-1.349, 6.287e-4
-1.348, 6.135e-4
-1.347, 5.958e-4
-1.346, 5.790e-4
-1.345, 5.627e-4
-1.344, 5.497e-4
-1.343, 5.359e-4
-1.342, 5.200e-4
-1.341, 5.037e-4
-1.340, 4.885e-4
-1.339, 4.759e-4
-1.338, 4.674e-4
-1.337, 4.537e-4
-1.336, 4.358e-4
-1.335, 4.211e-4
-1.334, 4.105e-4
-1.333, 4.004e-4
-1.332, 3.862e-4
-1.331, 3.716e-4
-1.330, 3.601e-4
-1.329, 3.503e-4
-1.328, 3.404e-4
-1.327, 3.275e-4
-1.326, 3.149e-4
-1.325, 3.049e-4
-1.324, 2.960e-4
-1.323, 2.862e-4
-1.322, 2.751e-4
-1.321, 2.625e-4
-1.320, 2.530e-4
-1.319, 2.452e-4
-1.318, 2.372e-4
-1.317, 2.274e-4
-1.316, 2.158e-4
-1.315, 2.067e-4
-1.314, 2.009e-4
-1.313, 1.932e-4
-1.312, 1.835e-4
-1.311, 1.729e-4
-1.310, 1.643e-4
-1.309, 1.587e-4
-1.308, 1.516e-4
-1.307, 1.430e-4
-1.306, 1.336e-4
-1.305, 1.261e-4
-1.304, 1.212e-4
-1.303, 1.153e-4
-1.302, 1.067e-4
-1.301, 9.832e-5
-1.300, 9.127e-5
-1.299, 8.656e-5
-1.298, 8.096e-5
-1.297, 7.377e-5
-1.296, 6.622e-5
-1.295, 5.975e-5
-1.294, 5.536e-5
-1.293, 5.080e-5
-1.292, 4.394e-5
-1.291, 3.629e-5
-1.290, 3.077e-5
-1.289, 2.694e-5
-1.288, 2.295e-5
-1.287, 1.643e-5
-1.286, 9.198e-6
-1.285, 4.446e-6
-1.284, 1.011e-6
-1.283, -2.737e-6
-1.282, -8.252e-6
-1.281, -1.570e-5
-1.280, -2.094e-5
-1.279, -2.326e-5
-1.278, -2.661e-5
-1.277, -3.154e-5
-1.276, -3.808e-5
-1.275, -4.235e-5
-1.274, -4.487e-5
-1.273, -4.786e-5
-1.272, -5.271e-5
-1.271, -5.862e-5
-1.270, -6.320e-5
-1.269, -6.496e-5
-1.268, -6.755e-5
-1.267, -7.209e-5
-1.266, -7.774e-5
-1.265, -8.193e-5
-1.264, -8.373e-5
-1.263, -8.625e-5
-1.262, -9.050e-5
-1.261, -9.591e-5
-1.260, -9.979e-5
-1.259, -1.014e-4
-1.258, -1.033e-4
-1.257, -1.079e-4
-1.256, -1.125e-4
-1.255, -1.163e-4
-1.254, -1.178e-4
-1.253, -1.191e-4
-1.252, -1.231e-4
-1.251, -1.282e-4
-1.250, -1.313e-4
-1.249, -1.331e-4
-1.248, -1.339e-4
-1.247, -1.382e-4
-1.246, -1.415e-4
-1.245, -1.433e-4
-1.244, -1.437e-4
-1.243, -1.446e-4
-1.242, -1.488e-4
-1.241, -1.569e-4
-1.240, -1.601e-4
-1.239, -1.613e-4
-1.238, -1.625e-4
-1.237, -1.661e-4
-1.236, -1.704e-4
-1.235, -1.724e-4
-1.234, -1.726e-4
-1.233, -1.746e-4
-1.232, -1.778e-4
-1.231, -1.823e-4
-1.230, -1.852e-4
-1.229, -1.875e-4
-1.228, -1.874e-4
-1.227, -1.907e-4
-1.226, -1.951e-4
-1.225, -1.976e-4
-1.224, -1.977e-4
-1.223, -1.987e-4
-1.222, -2.021e-4
-1.221, -2.062e-4
-1.220, -2.089e-4
-1.219, -2.099e-4
-1.218, -2.109e-4
-1.217, -2.136e-4
-1.216, -2.169e-4
-1.215, -2.202e-4
-1.214, -2.211e-4
-1.213, -2.218e-4
-1.212, -2.244e-4
-1.211, -2.287e-4
-1.210, -2.310e-4
-1.209, -2.320e-4
-1.208, -2.324e-4
-1.207, -2.360e-4
-1.206, -2.404e-4
-1.205, -2.424e-4
-1.204, -2.429e-4
-1.203, -2.436e-4
-1.202, -2.467e-4
-1.201, -2.517e-4
-1.200, -2.539e-4
-1.199, -2.547e-4
-1.198, -2.556e-4
-1.197, -2.578e-4
-1.196, -2.625e-4
-1.195, -2.667e-4
-1.194, -2.659e-4
-1.193, -2.658e-4
-1.192, -2.691e-4
-1.191, -2.736e-4
-1.190, -2.761e-4
-1.189, -2.780e-4
-1.188, -2.785e-4
-1.187, -2.817e-4
-1.186, -2.857e-4
-1.185, -2.887e-4
-1.184, -2.887e-4
-1.183, -2.900e-4
-1.182, -2.919e-4
-1.181, -2.969e-4
-1.180, -3.004e-4
-1.179, -3.006e-4
-1.178, -3.034e-4
-1.177, -3.054e-4
-1.176, -3.107e-4
-1.175, -3.137e-4
-1.174, -3.146e-4
-1.173, -3.157e-4
-1.172, -3.193e-4
-1.171, -3.239e-4
-1.170, -3.278e-4
-1.169, -3.284e-4
-1.168, -3.271e-4
-1.167, -3.322e-4
-1.166, -3.386e-4
-1.165, -3.414e-4
-1.164, -3.425e-4
-1.163, -3.441e-4
-1.162, -3.472e-4
-1.161, -3.522e-4
-1.160, -3.549e-4
-1.159, -3.562e-4
-1.158, -3.584e-4
-1.157, -3.623e-4
-1.156, -3.680e-4
-1.155, -3.712e-4
-1.154, -3.731e-4
-1.153, -3.760e-4
-1.152, -3.787e-4
-1.151, -3.840e-4
-1.150, -3.881e-4
-1.149, -3.898e-4
-1.148, -3.917e-4
-1.147, -3.964e-4
-1.146, -4.021e-4
-1.145, -4.065e-4
-1.144, -4.074e-4
-1.143, -4.101e-4
-1.142, -4.157e-4
-1.141, -4.208e-4
-1.140, -4.250e-4
-1.139, -4.275e-4
-1.138, -4.297e-4
-1.137, -4.343e-4
-1.136, -4.399e-4
-1.135, -4.445e-4
-1.134, -4.467e-4
-1.133, -4.492e-4
-1.132, -4.545e-4
-1.131, -4.648e-4
-1.130, -4.687e-4
-1.129, -4.660e-4
-1.128, -4.738e-4
-1.127, -4.795e-4
-1.126, -4.867e-4
-1.125, -4.901e-4
-1.124, -4.936e-4
-1.123, -4.980e-4
-1.122, -5.034e-4
-1.121, -5.113e-4
-1.120, -5.165e-4
-1.119, -5.208e-4
-1.118, -5.250e-4
-1.117, -5.316e-4
-1.116, -5.390e-4
-1.115, -5.444e-4
-1.114, -5.479e-4
-1.113, -5.524e-4
-1.112, -5.587e-4
-1.111, -5.670e-4
-1.110, -5.735e-4
-1.109, -5.779e-4
-1.108, -5.834e-4
-1.107, -5.897e-4
-1.106, -5.982e-4
-1.105, -6.050e-4
-1.104, -6.096e-4
-1.103, -6.152e-4
-1.102, -6.238e-4
-1.101, -6.329e-4
-1.100, -6.405e-4
-1.099, -6.453e-4
-1.098, -6.506e-4
-1.097, -6.581e-4
-1.096, -6.662e-4
-1.095, -6.737e-4
-1.094, -6.797e-4
-1.093, -6.878e-4
-1.092, -6.940e-4
-1.091, -7.011e-4
-1.090, -7.093e-4
-1.089, -7.195e-4
-1.088, -7.282e-4
-1.087, -7.344e-4
-1.086, -7.424e-4
-1.085, -7.489e-4
-1.084, -7.541e-4
-1.083, -7.419e-4
-1.082, -7.526e-4
-1.081, -7.664e-4
-1.080, -7.761e-4
-1.079, -7.838e-4
-1.078, -7.935e-4
-1.077, -8.024e-4
-1.076, -8.123e-4
-1.075, -8.212e-4
-1.074, -8.273e-4
-1.073, -8.351e-4
-1.072, -8.421e-4
-1.071, -8.526e-4
-1.070, -8.618e-4
-1.069, -8.676e-4
-1.068, -8.749e-4
-1.067, -8.849e-4
-1.066, -8.936e-4
-1.065, -9.026e-4
-1.064, -9.078e-4
-1.063, -9.151e-4
-1.062, -9.232e-4
-1.061, -9.323e-4
-1.060, -9.428e-4
-1.059, -9.538e-4
-1.058, -9.599e-4
-1.057, -9.678e-4
-1.056, -9.779e-4
-1.055, -9.826e-4
-1.054, -9.878e-4
-1.053, -9.967e-4
-1.052, -1.005e-3
-1.051, -1.020e-3
-1.050, -1.032e-3
-1.049, -1.039e-3
-1.048, -1.040e-3
-1.047, -1.051e-3
-1.046, -1.068e-3
-1.045, -1.076e-3
-1.044, -1.078e-3
-1.043, -1.092e-3
-1.042, -1.104e-3
-1.041, -1.113e-3
-1.040, -1.121e-3
-1.039, -1.131e-3
-1.038, -1.129e-3
-1.037, -1.133e-3
-1.036, -1.138e-3
-1.035, -1.145e-3
-1.034, -1.155e-3
-1.033, -1.162e-3
-1.032, -1.171e-3
-1.031, -1.184e-3
-1.030, -1.194e-3
-1.029, -1.199e-3
-1.028, -1.205e-3
-1.027, -1.216e-3
-1.026, -1.225e-3
-1.025, -1.238e-3
-1.024, -1.244e-3
-1.023, -1.260e-3
-1.022, -1.261e-3
-1.021, -1.274e-3
-1.020, -1.286e-3
-1.019, -1.294e-3
-1.018, -1.305e-3
-1.017, -1.314e-3
-1.016, -1.324e-3
-1.015, -1.332e-3
-1.014, -1.339e-3
-1.013, -1.342e-3
-1.012, -1.350e-3
-1.011, -1.361e-3
-1.010, -1.370e-3
-1.009, -1.382e-3
-1.008, -1.388e-3
-1.007, -1.397e-3
-1.006, -1.409e-3
-1.005, -1.420e-3
-1.004, -1.426e-3
-1.003, -1.431e-3
-1.002, -1.440e-3
-1.001, -1.451e-3
