Jan. 15, 2025   10:35:44
Cyclic Voltammetry
File: c:/users/guazh/data/banditlqround7_x0exp772_r5/2025-01-10-exp852\exp852-2025-01-15t10_25_40-h2koh\exp852_cv_sr_200mvs_efin_-1500mv.bin
Data Source:  Experiment
Instrument Model:  CHI760E
Header: CV ran at 200 mVs
Note: 

Init E (V) = -1
High E (V) = -1
Low E (V) = -1.5
Final E (V) = -1
Init P/N = N
Scan Rate (V/s) = 0.2
Segment = 3
Sample Interval (V) = 0.001
Quiet Time (sec) = 2
Sensitivity (A/V) = 0.01
Comp R (ohm) = 1.5

Results:

Channel 1:
Segment 1:

Segment 2:

Segment 3:

Potential/V, Current/A

-1.000, -2.725e-4
-1.001, -1.924e-4
-1.002, -1.461e-4
-1.003, -9.475e-5
-1.004, -4.546e-5
-1.005, -1.881e-5
-1.006, 1.102e-5
-1.007, 5.257e-5
-1.008, 7.643e-5
-1.009, 9.373e-5
-1.010, 1.274e-4
-1.011, 1.536e-4
-1.012, 1.641e-4
-1.013, 1.884e-4
-1.014, 2.173e-4
-1.015, 2.273e-4
-1.016, 2.424e-4
-1.017, 2.714e-4
-1.018, 2.852e-4
-1.019, 2.937e-4
-1.020, 3.201e-4
-1.021, 3.389e-4
-1.022, 3.445e-4
-1.023, 3.642e-4
-1.024, 3.885e-4
-1.025, 3.950e-4
-1.026, 4.065e-4
-1.027, 4.309e-4
-1.028, 4.413e-4
-1.029, 4.459e-4
-1.030, 4.687e-4
-1.031, 4.853e-4
-1.032, 4.874e-4
-1.033, 5.044e-4
-1.034, 5.256e-4
-1.035, 5.293e-4
-1.036, 5.377e-4
-1.037, 5.615e-4
-1.038, 5.700e-4
-1.039, 5.735e-4
-1.040, 5.937e-4
-1.041, 6.082e-4
-1.042, 6.069e-4
-1.043, 6.211e-4
-1.044, 6.408e-4
-1.045, 6.428e-4
-1.046, 6.516e-4
-1.047, 6.743e-4
-1.048, 6.802e-4
-1.049, 6.808e-4
-1.050, 6.988e-4
-1.051, 7.125e-4
-1.052, 7.130e-4
-1.053, 7.276e-4
-1.054, 7.461e-4
-1.055, 7.464e-4
-1.056, 7.531e-4
-1.057, 7.739e-4
-1.058, 7.798e-4
-1.059, 7.804e-4
-1.060, 8.001e-4
-1.061, 8.138e-4
-1.062, 8.137e-4
-1.063, 8.284e-4
-1.064, 8.469e-4
-1.065, 8.474e-4
-1.066, 8.533e-4
-1.067, 8.731e-4
-1.068, 8.804e-4
-1.069, 8.805e-4
-1.070, 8.951e-4
-1.071, 9.054e-4
-1.072, 9.017e-4
-1.073, 9.149e-4
-1.074, 9.308e-4
-1.075, 9.327e-4
-1.076, 9.411e-4
-1.077, 9.605e-4
-1.078, 9.660e-4
-1.079, 9.659e-4
-1.080, 9.844e-4
-1.081, 1.001e-3
-1.082, 1.001e-3
-1.083, 1.012e-3
-1.084, 1.029e-3
-1.085, 1.032e-3
-1.086, 1.043e-3
-1.087, 1.061e-3
-1.088, 1.068e-3
-1.089, 1.068e-3
-1.090, 1.083e-3
-1.091, 1.092e-3
-1.092, 1.090e-3
-1.093, 1.103e-3
-1.094, 1.120e-3
-1.095, 1.113e-3
-1.096, 1.122e-3
-1.097, 1.147e-3
-1.098, 1.154e-3
-1.099, 1.153e-3
-1.100, 1.176e-3
-1.101, 1.190e-3
-1.102, 1.188e-3
-1.103, 1.199e-3
-1.104, 1.216e-3
-1.105, 1.215e-3
-1.106, 1.214e-3
-1.107, 1.224e-3
-1.108, 1.235e-3
-1.109, 1.235e-3
-1.110, 1.245e-3
-1.111, 1.258e-3
-1.112, 1.256e-3
-1.113, 1.268e-3
-1.114, 1.285e-3
-1.115, 1.286e-3
-1.116, 1.291e-3
-1.117, 1.308e-3
-1.118, 1.317e-3
-1.119, 1.323e-3
-1.120, 1.344e-3
-1.121, 1.357e-3
-1.122, 1.355e-3
-1.123, 1.369e-3
-1.124, 1.389e-3
-1.125, 1.386e-3
-1.126, 1.389e-3
-1.127, 1.406e-3
-1.128, 1.414e-3
-1.129, 1.413e-3
-1.130, 1.428e-3
-1.131, 1.441e-3
-1.132, 1.438e-3
-1.133, 1.453e-3
-1.134, 1.471e-3
-1.135, 1.472e-3
-1.136, 1.480e-3
-1.137, 1.501e-3
-1.138, 1.502e-3
-1.139, 1.496e-3
-1.140, 1.514e-3
-1.141, 1.527e-3
-1.142, 1.526e-3
-1.143, 1.539e-3
-1.144, 1.556e-3
-1.145, 1.556e-3
-1.146, 1.561e-3
-1.147, 1.581e-3
-1.148, 1.586e-3
-1.149, 1.586e-3
-1.150, 1.603e-3
-1.151, 1.613e-3
-1.152, 1.607e-3
-1.153, 1.620e-3
-1.154, 1.637e-3
-1.155, 1.636e-3
-1.156, 1.641e-3
-1.157, 1.659e-3
-1.158, 1.662e-3
-1.159, 1.661e-3
-1.160, 1.677e-3
-1.161, 1.690e-3
-1.162, 1.688e-3
-1.163, 1.701e-3
-1.164, 1.718e-3
-1.165, 1.716e-3
-1.166, 1.720e-3
-1.167, 1.739e-3
-1.168, 1.743e-3
-1.169, 1.743e-3
-1.170, 1.763e-3
-1.171, 1.777e-3
-1.172, 1.772e-3
-1.173, 1.785e-3
-1.174, 1.802e-3
-1.175, 1.798e-3
-1.176, 1.799e-3
-1.177, 1.818e-3
-1.178, 1.818e-3
-1.179, 1.815e-3
-1.180, 1.832e-3
-1.181, 1.843e-3
-1.182, 1.840e-3
-1.183, 1.853e-3
-1.184, 1.869e-3
-1.185, 1.867e-3
-1.186, 1.870e-3
-1.187, 1.888e-3
-1.188, 1.892e-3
-1.189, 1.892e-3
-1.190, 1.911e-3
-1.191, 1.920e-3
-1.192, 1.913e-3
-1.193, 1.923e-3
-1.194, 1.936e-3
-1.195, 1.932e-3
-1.196, 1.939e-3
-1.197, 1.959e-3
-1.198, 1.964e-3
-1.199, 1.967e-3
-1.200, 1.982e-3
-1.201, 1.992e-3
-1.202, 1.989e-3
-1.203, 2.000e-3
-1.204, 2.015e-3
-1.205, 2.011e-3
-1.206, 2.018e-3
-1.207, 2.033e-3
-1.208, 2.031e-3
-1.209, 2.031e-3
-1.210, 2.051e-3
-1.211, 2.057e-3
-1.212, 2.046e-3
-1.213, 2.045e-3
-1.214, 2.067e-3
-1.215, 2.073e-3
-1.216, 2.067e-3
-1.217, 2.080e-3
-1.218, 2.074e-3
-1.219, 2.049e-3
-1.220, 2.058e-3
-1.221, 2.075e-3
-1.222, 2.066e-3
-1.223, 2.076e-3
-1.224, 2.093e-3
-1.225, 2.105e-3
-1.226, 2.124e-3
-1.227, 2.146e-3
-1.228, 2.156e-3
-1.229, 2.154e-3
-1.230, 2.160e-3
-1.231, 2.156e-3
-1.232, 2.149e-3
-1.233, 2.157e-3
-1.234, 2.177e-3
-1.235, 2.185e-3
-1.236, 2.192e-3
-1.237, 2.211e-3
-1.238, 2.216e-3
-1.239, 2.216e-3
-1.240, 2.231e-3
-1.241, 2.242e-3
-1.242, 2.228e-3
-1.243, 2.224e-3
-1.244, 2.235e-3
-1.245, 2.227e-3
-1.246, 2.229e-3
-1.247, 2.244e-3
-1.248, 2.243e-3
-1.249, 2.238e-3
-1.250, 2.255e-3
-1.251, 2.268e-3
-1.252, 2.261e-3
-1.253, 2.276e-3
-1.254, 2.291e-3
-1.255, 2.290e-3
-1.256, 2.287e-3
-1.257, 2.297e-3
-1.258, 2.300e-3
-1.259, 2.295e-3
-1.260, 2.310e-3
-1.261, 2.313e-3
-1.262, 2.302e-3
-1.263, 2.312e-3
-1.264, 2.323e-3
-1.265, 2.319e-3
-1.266, 2.322e-3
-1.267, 2.338e-3
-1.268, 2.337e-3
-1.269, 2.332e-3
-1.270, 2.345e-3
-1.271, 2.352e-3
-1.272, 2.346e-3
-1.273, 2.356e-3
-1.274, 2.368e-3
-1.275, 2.363e-3
-1.276, 2.365e-3
-1.277, 2.380e-3
-1.278, 2.380e-3
-1.279, 2.379e-3
-1.280, 2.398e-3
-1.281, 2.404e-3
-1.282, 2.394e-3
-1.283, 2.398e-3
-1.284, 2.410e-3
-1.285, 2.402e-3
-1.286, 2.400e-3
-1.287, 2.413e-3
-1.288, 2.407e-3
-1.289, 2.392e-3
-1.290, 2.399e-3
-1.291, 2.399e-3
-1.292, 2.389e-3
-1.293, 2.385e-3
-1.294, 2.389e-3
-1.295, 2.376e-3
-1.296, 2.372e-3
-1.297, 2.386e-3
-1.298, 2.382e-3
-1.299, 2.375e-3
-1.300, 2.388e-3
-1.301, 2.389e-3
-1.302, 2.371e-3
-1.303, 2.387e-3
-1.304, 2.411e-3
-1.305, 2.411e-3
-1.306, 2.397e-3
-1.307, 2.397e-3
-1.308, 2.380e-3
-1.309, 2.340e-3
-1.310, 2.328e-3
-1.311, 2.321e-3
-1.312, 2.303e-3
-1.313, 2.307e-3
-1.314, 2.313e-3
-1.315, 2.301e-3
-1.316, 2.321e-3
-1.317, 2.350e-3
-1.318, 2.358e-3
-1.319, 2.375e-3
-1.320, 2.381e-3
-1.321, 2.381e-3
-1.322, 2.355e-3
-1.323, 2.354e-3
-1.324, 2.375e-3
-1.325, 2.336e-3
-1.326, 2.328e-3
-1.327, 2.338e-3
-1.328, 2.330e-3
-1.329, 2.319e-3
-1.330, 2.325e-3
-1.331, 2.332e-3
-1.332, 2.343e-3
-1.333, 2.329e-3
-1.334, 2.335e-3
-1.335, 2.316e-3
-1.336, 2.317e-3
-1.337, 2.331e-3
-1.338, 2.316e-3
-1.339, 2.305e-3
-1.340, 2.312e-3
-1.341, 2.304e-3
-1.342, 2.287e-3
-1.343, 2.288e-3
-1.344, 2.294e-3
-1.345, 2.290e-3
-1.346, 2.291e-3
-1.347, 2.306e-3
-1.348, 2.304e-3
-1.349, 2.294e-3
-1.350, 2.303e-3
-1.351, 2.307e-3
-1.352, 2.297e-3
-1.353, 2.306e-3
-1.354, 2.316e-3
-1.355, 2.302e-3
-1.356, 2.295e-3
-1.357, 2.302e-3
-1.358, 2.293e-3
-1.359, 2.284e-3
-1.360, 2.291e-3
-1.361, 2.297e-3
-1.362, 2.289e-3
-1.363, 2.299e-3
-1.364, 2.315e-3
-1.365, 2.307e-3
-1.366, 2.315e-3
-1.367, 2.336e-3
-1.368, 2.339e-3
-1.369, 2.342e-3
-1.370, 2.360e-3
-1.371, 2.370e-3
-1.372, 2.367e-3
-1.373, 2.376e-3
-1.374, 2.393e-3
-1.375, 2.392e-3
-1.376, 2.398e-3
-1.377, 2.420e-3
-1.378, 2.422e-3
-1.379, 2.421e-3
-1.380, 2.438e-3
-1.381, 2.448e-3
-1.382, 2.448e-3
-1.383, 2.464e-3
-1.384, 2.484e-3
-1.385, 2.486e-3
-1.386, 2.495e-3
-1.387, 2.520e-3
-1.388, 2.528e-3
-1.389, 2.538e-3
-1.390, 2.562e-3
-1.391, 2.579e-3
-1.392, 2.580e-3
-1.393, 2.600e-3
-1.394, 2.625e-3
-1.395, 2.630e-3
-1.396, 2.645e-3
-1.397, 2.670e-3
-1.398, 2.683e-3
-1.399, 2.690e-3
-1.400, 2.717e-3
-1.401, 2.737e-3
-1.402, 2.744e-3
-1.403, 2.766e-3
-1.404, 2.792e-3
-1.405, 2.800e-3
-1.406, 2.816e-3
-1.407, 2.849e-3
-1.408, 2.866e-3
-1.409, 2.881e-3
-1.410, 2.911e-3
-1.411, 2.933e-3
-1.412, 2.946e-3
-1.413, 2.976e-3
-1.414, 3.006e-3
-1.415, 3.020e-3
-1.416, 3.042e-3
-1.417, 3.080e-3
-1.418, 3.097e-3
-1.419, 3.102e-3
-1.420, 3.124e-3
-1.421, 3.156e-3
-1.422, 3.167e-3
-1.423, 3.201e-3
-1.424, 3.236e-3
-1.425, 3.244e-3
-1.426, 3.280e-3
-1.427, 3.338e-3
-1.428, 3.378e-3
-1.429, 3.412e-3
-1.430, 3.458e-3
-1.431, 3.488e-3
-1.432, 3.499e-3
-1.433, 3.515e-3
-1.434, 3.549e-3
-1.435, 3.567e-3
-1.436, 3.600e-3
-1.437, 3.647e-3
-1.438, 3.681e-3
-1.439, 3.707e-3
-1.440, 3.740e-3
-1.441, 3.781e-3
-1.442, 3.827e-3
-1.443, 3.886e-3
-1.444, 3.924e-3
-1.445, 3.937e-3
-1.446, 3.972e-3
-1.447, 4.017e-3
-1.448, 4.064e-3
-1.449, 4.110e-3
-1.450, 4.156e-3
-1.451, 4.196e-3
-1.452, 4.225e-3
-1.453, 4.263e-3
-1.454, 4.312e-3
-1.455, 4.346e-3
-1.456, 4.386e-3
-1.457, 4.440e-3
-1.458, 4.477e-3
-1.459, 4.509e-3
-1.460, 4.559e-3
-1.461, 4.602e-3
-1.462, 4.640e-3
-1.463, 4.705e-3
-1.464, 4.766e-3
-1.465, 4.814e-3
-1.466, 4.863e-3
-1.467, 4.918e-3
-1.468, 4.960e-3
-1.469, 5.007e-3
-1.470, 5.071e-3
-1.471, 5.127e-3
-1.472, 5.166e-3
-1.473, 5.215e-3
-1.474, 5.265e-3
-1.475, 5.301e-3
-1.476, 5.349e-3
-1.477, 5.412e-3
-1.478, 5.458e-3
-1.479, 5.504e-3
-1.480, 5.566e-3
-1.481, 5.624e-3
-1.482, 5.670e-3
-1.483, 5.730e-3
-1.484, 5.791e-3
-1.485, 5.838e-3
-1.486, 5.892e-3
-1.487, 5.960e-3
-1.488, 6.008e-3
-1.489, 6.061e-3
-1.490, 6.100e-3
-1.491, 6.155e-3
-1.492, 6.210e-3
-1.493, 6.293e-3
-1.494, 6.361e-3
-1.495, 6.410e-3
-1.496, 6.435e-3
-1.497, 6.518e-3
-1.498, 6.588e-3
-1.499, 6.632e-3
-1.500, 6.607e-3
-1.499, 6.492e-3
-1.498, 6.397e-3
-1.497, 6.329e-3
-1.496, 6.281e-3
-1.495, 6.211e-3
-1.494, 6.132e-3
-1.493, 6.046e-3
-1.492, 5.971e-3
-1.491, 5.906e-3
-1.490, 5.858e-3
-1.489, 5.805e-3
-1.488, 5.737e-3
-1.487, 5.677e-3
-1.486, 5.597e-3
-1.485, 5.526e-3
-1.484, 5.463e-3
-1.483, 5.399e-3
-1.482, 5.327e-3
-1.481, 5.259e-3
-1.480, 5.197e-3
-1.479, 5.162e-3
-1.478, 5.092e-3
-1.477, 5.035e-3
-1.476, 4.974e-3
-1.475, 4.911e-3
-1.474, 4.847e-3
-1.473, 4.794e-3
-1.472, 4.744e-3
-1.471, 4.689e-3
-1.470, 4.621e-3
-1.469, 4.576e-3
-1.468, 4.515e-3
-1.467, 4.454e-3
-1.466, 4.407e-3
-1.465, 4.353e-3
-1.464, 4.303e-3
-1.463, 4.264e-3
-1.462, 4.207e-3
-1.461, 4.147e-3
-1.460, 4.102e-3
-1.459, 4.038e-3
-1.458, 3.979e-3
-1.457, 3.932e-3
-1.456, 3.892e-3
-1.455, 3.829e-3
-1.454, 3.770e-3
-1.453, 3.732e-3
-1.452, 3.667e-3
-1.451, 3.614e-3
-1.450, 3.580e-3
-1.449, 3.530e-3
-1.448, 3.453e-3
-1.447, 3.407e-3
-1.446, 3.366e-3
-1.445, 3.307e-3
-1.444, 3.255e-3
-1.443, 3.213e-3
-1.442, 3.157e-3
-1.441, 3.102e-3
-1.440, 3.078e-3
-1.439, 3.052e-3
-1.438, 3.001e-3
-1.437, 2.961e-3
-1.436, 2.929e-3
-1.435, 2.878e-3
-1.434, 2.835e-3
-1.433, 2.780e-3
-1.432, 2.755e-3
-1.431, 2.708e-3
-1.430, 2.675e-3
-1.429, 2.639e-3
-1.428, 2.588e-3
-1.427, 2.544e-3
-1.426, 2.509e-3
-1.425, 2.456e-3
-1.424, 2.414e-3
-1.423, 2.386e-3
-1.422, 2.362e-3
-1.421, 2.326e-3
-1.420, 2.275e-3
-1.419, 2.246e-3
-1.418, 2.207e-3
-1.417, 2.160e-3
-1.416, 2.125e-3
-1.415, 2.083e-3
-1.414, 2.060e-3
-1.413, 2.036e-3
-1.412, 1.999e-3
-1.411, 1.958e-3
-1.410, 1.937e-3
-1.409, 1.903e-3
-1.408, 1.860e-3
-1.407, 1.834e-3
-1.406, 1.811e-3
-1.405, 1.770e-3
-1.404, 1.738e-3
-1.403, 1.717e-3
-1.402, 1.684e-3
-1.401, 1.644e-3
-1.400, 1.626e-3
-1.399, 1.595e-3
-1.398, 1.553e-3
-1.397, 1.529e-3
-1.396, 1.504e-3
-1.395, 1.467e-3
-1.394, 1.434e-3
-1.393, 1.409e-3
-1.392, 1.379e-3
-1.391, 1.341e-3
-1.390, 1.325e-3
-1.389, 1.298e-3
-1.388, 1.260e-3
-1.387, 1.240e-3
-1.386, 1.222e-3
-1.385, 1.189e-3
-1.384, 1.161e-3
-1.383, 1.147e-3
-1.382, 1.116e-3
-1.381, 1.085e-3
-1.380, 1.067e-3
-1.379, 1.043e-3
-1.378, 1.010e-3
-1.377, 9.935e-4
-1.376, 9.782e-4
-1.375, 9.453e-4
-1.374, 9.221e-4
-1.373, 9.079e-4
-1.372, 8.821e-4
-1.371, 8.573e-4
-1.370, 8.440e-4
-1.369, 8.206e-4
-1.368, 7.838e-4
-1.367, 7.632e-4
-1.366, 7.464e-4
-1.365, 7.067e-4
-1.364, 6.877e-4
-1.363, 6.847e-4
-1.362, 6.601e-4
-1.361, 6.320e-4
-1.360, 6.213e-4
-1.359, 6.040e-4
-1.358, 5.723e-4
-1.357, 5.600e-4
-1.356, 5.492e-4
-1.355, 5.226e-4
-1.354, 5.055e-4
-1.353, 4.996e-4
-1.352, 4.752e-4
-1.351, 4.474e-4
-1.350, 4.446e-4
-1.349, 4.310e-4
-1.348, 4.021e-4
-1.347, 3.901e-4
-1.346, 3.789e-4
-1.345, 3.468e-4
-1.344, 3.298e-4
-1.343, 3.244e-4
-1.342, 3.021e-4
-1.341, 2.821e-4
-1.340, 2.777e-4
-1.339, 2.642e-4
-1.338, 2.398e-4
-1.337, 2.316e-4
-1.336, 2.275e-4
-1.335, 2.087e-4
-1.334, 1.962e-4
-1.333, 1.963e-4
-1.332, 1.798e-4
-1.331, 1.610e-4
-1.330, 1.582e-4
-1.329, 1.472e-4
-1.328, 1.258e-4
-1.327, 1.221e-4
-1.326, 1.193e-4
-1.325, 9.926e-5
-1.324, 8.591e-5
-1.323, 8.425e-5
-1.322, 6.708e-5
-1.321, 4.831e-5
-1.320, 4.712e-5
-1.319, 3.672e-5
-1.318, 1.474e-5
-1.317, 9.933e-6
-1.316, 6.283e-6
-1.315, -1.349e-5
-1.314, -2.424e-5
-1.313, -2.420e-5
-1.312, -3.904e-5
-1.311, -5.748e-5
-1.310, -5.742e-5
-1.309, -6.672e-5
-1.308, -8.677e-5
-1.307, -8.997e-5
-1.306, -9.260e-5
-1.305, -1.114e-4
-1.304, -1.209e-4
-1.303, -1.195e-4
-1.302, -1.333e-4
-1.301, -1.487e-4
-1.300, -1.467e-4
-1.299, -1.543e-4
-1.298, -1.719e-4
-1.297, -1.752e-4
-1.296, -1.757e-4
-1.295, -1.928e-4
-1.294, -2.018e-4
-1.293, -1.982e-4
-1.292, -2.114e-4
-1.291, -2.256e-4
-1.290, -2.236e-4
-1.289, -2.304e-4
-1.288, -2.461e-4
-1.287, -2.478e-4
-1.286, -2.484e-4
-1.285, -2.657e-4
-1.284, -2.747e-4
-1.283, -2.711e-4
-1.282, -2.842e-4
-1.281, -2.984e-4
-1.280, -2.970e-4
-1.279, -3.028e-4
-1.278, -3.198e-4
-1.277, -3.205e-4
-1.276, -3.207e-4
-1.275, -3.363e-4
-1.274, -3.429e-4
-1.273, -3.384e-4
-1.272, -3.499e-4
-1.271, -3.633e-4
-1.270, -3.590e-4
-1.269, -3.630e-4
-1.268, -3.789e-4
-1.267, -3.789e-4
-1.266, -3.765e-4
-1.265, -3.919e-4
-1.264, -3.978e-4
-1.263, -3.936e-4
-1.262, -4.060e-4
-1.261, -4.190e-4
-1.260, -4.148e-4
-1.259, -4.197e-4
-1.258, -4.348e-4
-1.257, -4.348e-4
-1.256, -4.329e-4
-1.255, -4.489e-4
-1.254, -4.563e-4
-1.253, -4.496e-4
-1.252, -4.588e-4
-1.251, -4.687e-4
-1.250, -4.639e-4
-1.249, -4.689e-4
-1.248, -4.838e-4
-1.247, -4.841e-4
-1.246, -4.836e-4
-1.245, -4.978e-4
-1.244, -5.044e-4
-1.243, -4.998e-4
-1.242, -5.094e-4
-1.241, -5.216e-4
-1.240, -5.165e-4
-1.239, -5.199e-4
-1.238, -5.363e-4
-1.237, -5.313e-4
-1.236, -5.284e-4
-1.235, -5.445e-4
-1.234, -5.505e-4
-1.233, -5.453e-4
-1.232, -5.550e-4
-1.231, -5.665e-4
-1.230, -5.610e-4
-1.229, -5.669e-4
-1.228, -5.813e-4
-1.227, -5.793e-4
-1.226, -5.756e-4
-1.225, -5.907e-4
-1.224, -5.977e-4
-1.223, -5.910e-4
-1.222, -6.006e-4
-1.221, -6.117e-4
-1.220, -6.052e-4
-1.219, -6.093e-4
-1.218, -6.237e-4
-1.217, -6.228e-4
-1.216, -6.209e-4
-1.215, -6.355e-4
-1.214, -6.414e-4
-1.213, -6.340e-4
-1.212, -6.447e-4
-1.211, -6.558e-4
-1.210, -6.500e-4
-1.209, -6.543e-4
-1.208, -6.692e-4
-1.207, -6.677e-4
-1.206, -6.658e-4
-1.205, -6.793e-4
-1.204, -6.848e-4
-1.203, -6.790e-4
-1.202, -6.897e-4
-1.201, -7.018e-4
-1.200, -6.957e-4
-1.199, -6.990e-4
-1.198, -7.133e-4
-1.197, -7.112e-4
-1.196, -7.091e-4
-1.195, -7.228e-4
-1.194, -7.265e-4
-1.193, -7.179e-4
-1.192, -7.236e-4
-1.191, -7.330e-4
-1.190, -7.257e-4
-1.189, -7.295e-4
-1.188, -7.446e-4
-1.187, -7.412e-4
-1.186, -7.371e-4
-1.185, -7.509e-4
-1.184, -7.572e-4
-1.183, -7.539e-4
-1.182, -7.619e-4
-1.181, -7.756e-4
-1.180, -7.728e-4
-1.179, -7.811e-4
-1.178, -8.008e-4
-1.177, -8.062e-4
-1.176, -8.079e-4
-1.175, -8.229e-4
-1.174, -8.276e-4
-1.173, -8.124e-4
-1.172, -8.193e-4
-1.171, -8.203e-4
-1.170, -8.157e-4
-1.169, -8.201e-4
-1.168, -8.372e-4
-1.167, -8.380e-4
-1.166, -8.411e-4
-1.165, -8.573e-4
-1.164, -8.619e-4
-1.163, -8.501e-4
-1.162, -8.455e-4
-1.161, -8.488e-4
-1.160, -8.421e-4
-1.159, -8.438e-4
-1.158, -8.611e-4
-1.157, -8.637e-4
-1.156, -8.669e-4
-1.155, -9.008e-4
-1.154, -9.236e-4
-1.153, -9.240e-4
-1.152, -9.385e-4
-1.151, -9.554e-4
-1.150, -9.554e-4
-1.149, -9.632e-4
-1.148, -9.809e-4
-1.147, -9.817e-4
-1.146, -9.812e-4
-1.145, -9.983e-4
-1.144, -1.006e-3
-1.143, -1.003e-3
-1.142, -1.015e-3
-1.141, -1.028e-3
-1.140, -1.025e-3
-1.139, -1.029e-3
-1.138, -1.045e-3
-1.137, -1.046e-3
-1.136, -1.046e-3
-1.135, -1.064e-3
-1.134, -1.073e-3
-1.133, -1.072e-3
-1.132, -1.086e-3
-1.131, -1.101e-3
-1.130, -1.099e-3
-1.129, -1.106e-3
-1.128, -1.124e-3
-1.127, -1.127e-3
-1.126, -1.128e-3
-1.125, -1.146e-3
-1.124, -1.157e-3
-1.123, -1.155e-3
-1.122, -1.167e-3
-1.121, -1.184e-3
-1.120, -1.182e-3
-1.119, -1.191e-3
-1.118, -1.211e-3
-1.117, -1.216e-3
-1.116, -1.218e-3
-1.115, -1.238e-3
-1.114, -1.246e-3
-1.113, -1.246e-3
-1.112, -1.260e-3
-1.111, -1.279e-3
-1.110, -1.279e-3
-1.109, -1.289e-3
-1.108, -1.311e-3
-1.107, -1.315e-3
-1.106, -1.316e-3
-1.105, -1.336e-3
-1.104, -1.346e-3
-1.103, -1.345e-3
-1.102, -1.361e-3
-1.101, -1.376e-3
-1.100, -1.377e-3
-1.099, -1.387e-3
-1.098, -1.409e-3
-1.097, -1.415e-3
-1.096, -1.417e-3
-1.095, -1.439e-3
-1.094, -1.455e-3
-1.093, -1.454e-3
-1.092, -1.470e-3
-1.091, -1.486e-3
-1.090, -1.485e-3
-1.089, -1.496e-3
-1.088, -1.520e-3
-1.087, -1.528e-3
-1.086, -1.532e-3
-1.085, -1.551e-3
-1.084, -1.563e-3
-1.083, -1.565e-3
-1.082, -1.584e-3
-1.081, -1.606e-3
-1.080, -1.610e-3
-1.079, -1.622e-3
-1.078, -1.644e-3
-1.077, -1.651e-3
-1.076, -1.655e-3
-1.075, -1.679e-3
-1.074, -1.693e-3
-1.073, -1.695e-3
-1.072, -1.713e-3
-1.071, -1.733e-3
-1.070, -1.735e-3
-1.069, -1.745e-3
-1.068, -1.766e-3
-1.067, -1.773e-3
-1.066, -1.778e-3
-1.065, -1.801e-3
-1.064, -1.813e-3
-1.063, -1.813e-3
-1.062, -1.831e-3
-1.061, -1.851e-3
-1.060, -1.854e-3
-1.059, -1.865e-3
-1.058, -1.888e-3
-1.057, -1.896e-3
-1.056, -1.901e-3
-1.055, -1.925e-3
-1.054, -1.939e-3
-1.053, -1.939e-3
-1.052, -1.957e-3
-1.051, -1.976e-3
-1.050, -1.976e-3
-1.049, -1.987e-3
-1.048, -2.009e-3
-1.047, -2.016e-3
-1.046, -2.021e-3
-1.045, -2.045e-3
-1.044, -2.060e-3
-1.043, -2.061e-3
-1.042, -2.078e-3
-1.041, -2.099e-3
-1.040, -2.103e-3
-1.039, -2.115e-3
-1.038, -2.133e-3
-1.037, -2.136e-3
-1.036, -2.145e-3
-1.035, -2.169e-3
-1.034, -2.186e-3
-1.033, -2.190e-3
-1.032, -2.210e-3
-1.031, -2.222e-3
-1.030, -2.220e-3
-1.029, -2.228e-3
-1.028, -2.244e-3
-1.027, -2.248e-3
-1.026, -2.243e-3
-1.025, -2.268e-3
-1.024, -2.287e-3
-1.023, -2.288e-3
-1.022, -2.309e-3
-1.021, -2.333e-3
-1.020, -2.357e-3
-1.019, -2.390e-3
-1.018, -2.405e-3
-1.017, -2.404e-3
-1.016, -2.412e-3
-1.015, -2.424e-3
-1.014, -2.433e-3
-1.013, -2.438e-3
-1.012, -2.460e-3
-1.011, -2.480e-3
-1.010, -2.478e-3
-1.009, -2.483e-3
-1.008, -2.502e-3
-1.007, -2.507e-3
-1.006, -2.513e-3
-1.005, -2.536e-3
-1.004, -2.551e-3
-1.003, -2.553e-3
-1.002, -2.567e-3
-1.001, -2.592e-3
