May 4, 2025   17:53:10
Cyclic Voltammetry
File: c:/users/guazh/data/banditlqround7_x0exp1108_r5/2025-04-30-exp1240\exp1240-2025-05-04t17_34_39-h2koh\exp1240_cv_sr_300mvs_efin_-1700mv.bin
Data Source:  Experiment
Instrument Model:  CHI760E
Header: CV ran at 300 mVs
Note: 

Init E (V) = -1
High E (V) = -1
Low E (V) = -1.7
Final E (V) = -1
Init P/N = N
Scan Rate (V/s) = 0.3
Segment = 3
Sample Interval (V) = 0.001
Quiet Time (sec) = 2
Sensitivity (A/V) = 0.01
Comp R (ohm) = 1.2

Results:

Channel 1:
Segment 1:

Segment 2:

Segment 3:

Potential/V, Current/A

-1.000, 3.670e-4
-1.001, 3.948e-4
-1.002, 4.071e-4
-1.003, 4.225e-4
-1.004, 4.349e-4
-1.005, 4.441e-4
-1.006, 4.503e-4
-1.007, 4.565e-4
-1.008, 4.626e-4
-1.009, 4.750e-4
-1.010, 4.780e-4
-1.011, 4.842e-4
-1.012, 4.873e-4
-1.013, 4.935e-4
-1.014, 5.027e-4
-1.015, 5.058e-4
-1.016, 5.120e-4
-1.017, 5.150e-4
-1.018, 5.181e-4
-1.019, 5.274e-4
-1.020, 5.305e-4
-1.021, 5.305e-4
-1.022, 5.335e-4
-1.023, 5.366e-4
-1.024, 5.428e-4
-1.025, 5.489e-4
-1.026, 5.489e-4
-1.027, 5.520e-4
-1.028, 5.551e-4
-1.029, 5.613e-4
-1.030, 5.644e-4
-1.031, 5.644e-4
-1.032, 5.674e-4
-1.033, 5.705e-4
-1.034, 5.767e-4
-1.035, 5.798e-4
-1.036, 5.829e-4
-1.037, 5.859e-4
-1.038, 5.890e-4
-1.039, 5.952e-4
-1.040, 5.983e-4
-1.041, 5.983e-4
-1.042, 6.014e-4
-1.043, 6.044e-4
-1.044, 6.106e-4
-1.045, 6.137e-4
-1.046, 6.137e-4
-1.047, 6.168e-4
-1.048, 6.199e-4
-1.049, 6.260e-4
-1.050, 6.291e-4
-1.051, 6.291e-4
-1.052, 6.322e-4
-1.053, 6.322e-4
-1.054, 6.384e-4
-1.055, 6.414e-4
-1.056, 6.414e-4
-1.057, 6.445e-4
-1.058, 6.476e-4
-1.059, 6.507e-4
-1.060, 6.569e-4
-1.061, 6.538e-4
-1.062, 6.569e-4
-1.063, 6.599e-4
-1.064, 6.630e-4
-1.065, 6.661e-4
-1.066, 6.661e-4
-1.067, 6.692e-4
-1.068, 6.723e-4
-1.069, 6.784e-4
-1.070, 6.784e-4
-1.071, 6.815e-4
-1.072, 6.815e-4
-1.073, 6.846e-4
-1.074, 6.908e-4
-1.075, 6.939e-4
-1.076, 6.939e-4
-1.077, 6.939e-4
-1.078, 6.969e-4
-1.079, 7.000e-4
-1.080, 7.031e-4
-1.081, 7.031e-4
-1.082, 7.062e-4
-1.083, 7.093e-4
-1.084, 7.124e-4
-1.085, 7.154e-4
-1.086, 7.154e-4
-1.087, 7.154e-4
-1.088, 7.185e-4
-1.089, 7.247e-4
-1.090, 7.278e-4
-1.091, 7.278e-4
-1.092, 7.309e-4
-1.093, 7.339e-4
-1.094, 7.401e-4
-1.095, 7.401e-4
-1.096, 7.401e-4
-1.097, 7.432e-4
-1.098, 7.463e-4
-1.099, 7.494e-4
-1.100, 7.524e-4
-1.101, 7.524e-4
-1.102, 7.555e-4
-1.103, 7.586e-4
-1.104, 7.648e-4
-1.105, 7.679e-4
-1.106, 7.679e-4
-1.107, 7.679e-4
-1.108, 7.709e-4
-1.109, 7.771e-4
-1.110, 7.802e-4
-1.111, 7.802e-4
-1.112, 7.802e-4
-1.113, 7.833e-4
-1.114, 7.863e-4
-1.115, 7.894e-4
-1.116, 7.925e-4
-1.117, 7.956e-4
-1.118, 7.987e-4
-1.119, 8.018e-4
-1.120, 8.048e-4
-1.121, 8.079e-4
-1.122, 8.079e-4
-1.123, 8.110e-4
-1.124, 8.172e-4
-1.125, 8.203e-4
-1.126, 8.203e-4
-1.127, 8.203e-4
-1.128, 8.233e-4
-1.129, 8.295e-4
-1.130, 8.326e-4
-1.131, 8.326e-4
-1.132, 8.357e-4
-1.133, 8.388e-4
-1.134, 8.418e-4
-1.135, 8.480e-4
-1.136, 8.480e-4
-1.137, 8.511e-4
-1.138, 8.573e-4
-1.139, 8.603e-4
-1.140, 8.665e-4
-1.141, 8.665e-4
-1.142, 8.665e-4
-1.143, 8.727e-4
-1.144, 8.758e-4
-1.145, 8.819e-4
-1.146, 8.819e-4
-1.147, 8.819e-4
-1.148, 8.881e-4
-1.149, 8.943e-4
-1.150, 8.973e-4
-1.151, 8.973e-4
-1.152, 9.004e-4
-1.153, 9.035e-4
-1.154, 9.097e-4
-1.155, 9.128e-4
-1.156, 9.128e-4
-1.157, 9.158e-4
-1.158, 9.189e-4
-1.159, 9.282e-4
-1.160, 9.313e-4
-1.161, 9.343e-4
-1.162, 9.343e-4
-1.163, 9.405e-4
-1.164, 9.467e-4
-1.165, 9.498e-4
-1.166, 9.528e-4
-1.167, 9.559e-4
-1.168, 9.590e-4
-1.169, 9.652e-4
-1.170, 9.683e-4
-1.171, 9.713e-4
-1.172, 9.744e-4
-1.173, 9.775e-4
-1.174, 9.837e-4
-1.175, 9.868e-4
-1.176, 9.868e-4
-1.177, 9.898e-4
-1.178, 9.960e-4
-1.179, 1.002e-3
-1.180, 1.005e-3
-1.181, 1.008e-3
-1.182, 1.011e-3
-1.183, 1.014e-3
-1.184, 1.021e-3
-1.185, 1.024e-3
-1.186, 1.027e-3
-1.187, 1.030e-3
-1.188, 1.033e-3
-1.189, 1.039e-3
-1.190, 1.045e-3
-1.191, 1.048e-3
-1.192, 1.051e-3
-1.193, 1.055e-3
-1.194, 1.064e-3
-1.195, 1.067e-3
-1.196, 1.070e-3
-1.197, 1.070e-3
-1.198, 1.076e-3
-1.199, 1.082e-3
-1.200, 1.088e-3
-1.201, 1.092e-3
-1.202, 1.092e-3
-1.203, 1.098e-3
-1.204, 1.104e-3
-1.205, 1.107e-3
-1.206, 1.110e-3
-1.207, 1.113e-3
-1.208, 1.116e-3
-1.209, 1.125e-3
-1.210, 1.129e-3
-1.211, 1.132e-3
-1.212, 1.135e-3
-1.213, 1.141e-3
-1.214, 1.147e-3
-1.215, 1.153e-3
-1.216, 1.153e-3
-1.217, 1.156e-3
-1.218, 1.162e-3
-1.219, 1.169e-3
-1.220, 1.175e-3
-1.221, 1.178e-3
-1.222, 1.178e-3
-1.223, 1.184e-3
-1.224, 1.190e-3
-1.225, 1.196e-3
-1.226, 1.199e-3
-1.227, 1.199e-3
-1.228, 1.206e-3
-1.229, 1.212e-3
-1.230, 1.215e-3
-1.231, 1.215e-3
-1.232, 1.218e-3
-1.233, 1.224e-3
-1.234, 1.227e-3
-1.235, 1.233e-3
-1.236, 1.236e-3
-1.237, 1.240e-3
-1.238, 1.246e-3
-1.239, 1.252e-3
-1.240, 1.255e-3
-1.241, 1.258e-3
-1.242, 1.258e-3
-1.243, 1.264e-3
-1.244, 1.270e-3
-1.245, 1.277e-3
-1.246, 1.277e-3
-1.247, 1.280e-3
-1.248, 1.286e-3
-1.249, 1.292e-3
-1.250, 1.295e-3
-1.251, 1.298e-3
-1.252, 1.301e-3
-1.253, 1.304e-3
-1.254, 1.310e-3
-1.255, 1.317e-3
-1.256, 1.317e-3
-1.257, 1.320e-3
-1.258, 1.326e-3
-1.259, 1.332e-3
-1.260, 1.338e-3
-1.261, 1.338e-3
-1.262, 1.341e-3
-1.263, 1.344e-3
-1.264, 1.351e-3
-1.265, 1.354e-3
-1.266, 1.357e-3
-1.267, 1.357e-3
-1.268, 1.363e-3
-1.269, 1.366e-3
-1.270, 1.372e-3
-1.271, 1.372e-3
-1.272, 1.372e-3
-1.273, 1.378e-3
-1.274, 1.381e-3
-1.275, 1.388e-3
-1.276, 1.388e-3
-1.277, 1.391e-3
-1.278, 1.394e-3
-1.279, 1.400e-3
-1.280, 1.406e-3
-1.281, 1.406e-3
-1.282, 1.406e-3
-1.283, 1.412e-3
-1.284, 1.418e-3
-1.285, 1.421e-3
-1.286, 1.421e-3
-1.287, 1.425e-3
-1.288, 1.428e-3
-1.289, 1.434e-3
-1.290, 1.437e-3
-1.291, 1.434e-3
-1.292, 1.437e-3
-1.293, 1.440e-3
-1.294, 1.446e-3
-1.295, 1.449e-3
-1.296, 1.449e-3
-1.297, 1.449e-3
-1.298, 1.455e-3
-1.299, 1.458e-3
-1.300, 1.465e-3
-1.301, 1.465e-3
-1.302, 1.465e-3
-1.303, 1.468e-3
-1.304, 1.474e-3
-1.305, 1.477e-3
-1.306, 1.480e-3
-1.307, 1.480e-3
-1.308, 1.483e-3
-1.309, 1.486e-3
-1.310, 1.489e-3
-1.311, 1.489e-3
-1.312, 1.489e-3
-1.313, 1.492e-3
-1.314, 1.499e-3
-1.315, 1.499e-3
-1.316, 1.499e-3
-1.317, 1.502e-3
-1.318, 1.505e-3
-1.319, 1.508e-3
-1.320, 1.511e-3
-1.321, 1.514e-3
-1.322, 1.517e-3
-1.323, 1.517e-3
-1.324, 1.523e-3
-1.325, 1.526e-3
-1.326, 1.529e-3
-1.327, 1.529e-3
-1.328, 1.536e-3
-1.329, 1.542e-3
-1.330, 1.545e-3
-1.331, 1.545e-3
-1.332, 1.548e-3
-1.333, 1.551e-3
-1.334, 1.560e-3
-1.335, 1.563e-3
-1.336, 1.563e-3
-1.337, 1.566e-3
-1.338, 1.569e-3
-1.339, 1.576e-3
-1.340, 1.582e-3
-1.341, 1.585e-3
-1.342, 1.588e-3
-1.343, 1.591e-3
-1.344, 1.597e-3
-1.345, 1.603e-3
-1.346, 1.606e-3
-1.347, 1.610e-3
-1.348, 1.616e-3
-1.349, 1.619e-3
-1.350, 1.625e-3
-1.351, 1.628e-3
-1.352, 1.631e-3
-1.353, 1.634e-3
-1.354, 1.643e-3
-1.355, 1.650e-3
-1.356, 1.653e-3
-1.357, 1.659e-3
-1.358, 1.665e-3
-1.359, 1.674e-3
-1.360, 1.677e-3
-1.361, 1.680e-3
-1.362, 1.684e-3
-1.363, 1.690e-3
-1.364, 1.696e-3
-1.365, 1.705e-3
-1.366, 1.708e-3
-1.367, 1.714e-3
-1.368, 1.721e-3
-1.369, 1.727e-3
-1.370, 1.736e-3
-1.371, 1.739e-3
-1.372, 1.742e-3
-1.373, 1.748e-3
-1.374, 1.761e-3
-1.375, 1.767e-3
-1.376, 1.773e-3
-1.377, 1.779e-3
-1.378, 1.785e-3
-1.379, 1.795e-3
-1.380, 1.801e-3
-1.381, 1.807e-3
-1.382, 1.813e-3
-1.383, 1.819e-3
-1.384, 1.828e-3
-1.385, 1.835e-3
-1.386, 1.841e-3
-1.387, 1.847e-3
-1.388, 1.853e-3
-1.389, 1.862e-3
-1.390, 1.869e-3
-1.391, 1.875e-3
-1.392, 1.878e-3
-1.393, 1.887e-3
-1.394, 1.899e-3
-1.395, 1.906e-3
-1.396, 1.912e-3
-1.397, 1.918e-3
-1.398, 1.924e-3
-1.399, 1.933e-3
-1.400, 1.943e-3
-1.401, 1.949e-3
-1.402, 1.955e-3
-1.403, 1.964e-3
-1.404, 1.973e-3
-1.405, 1.983e-3
-1.406, 1.989e-3
-1.407, 1.995e-3
-1.408, 2.004e-3
-1.409, 2.013e-3
-1.410, 2.023e-3
-1.411, 2.029e-3
-1.412, 2.038e-3
-1.413, 2.047e-3
-1.414, 2.057e-3
-1.415, 2.066e-3
-1.416, 2.072e-3
-1.417, 2.078e-3
-1.418, 2.084e-3
-1.419, 2.097e-3
-1.420, 2.106e-3
-1.421, 2.112e-3
-1.422, 2.121e-3
-1.423, 2.134e-3
-1.424, 2.146e-3
-1.425, 2.155e-3
-1.426, 2.164e-3
-1.427, 2.171e-3
-1.428, 2.180e-3
-1.429, 2.192e-3
-1.430, 2.201e-3
-1.431, 2.208e-3
-1.432, 2.214e-3
-1.433, 2.226e-3
-1.434, 2.238e-3
-1.435, 2.248e-3
-1.436, 2.254e-3
-1.437, 2.257e-3
-1.438, 2.266e-3
-1.439, 2.279e-3
-1.440, 2.291e-3
-1.441, 2.300e-3
-1.442, 2.306e-3
-1.443, 2.316e-3
-1.444, 2.328e-3
-1.445, 2.340e-3
-1.446, 2.349e-3
-1.447, 2.359e-3
-1.448, 2.371e-3
-1.449, 2.383e-3
-1.450, 2.396e-3
-1.451, 2.402e-3
-1.452, 2.414e-3
-1.453, 2.423e-3
-1.454, 2.436e-3
-1.455, 2.451e-3
-1.456, 2.460e-3
-1.457, 2.470e-3
-1.458, 2.479e-3
-1.459, 2.491e-3
-1.460, 2.504e-3
-1.461, 2.513e-3
-1.462, 2.525e-3
-1.463, 2.538e-3
-1.464, 2.550e-3
-1.465, 2.559e-3
-1.466, 2.571e-3
-1.467, 2.581e-3
-1.468, 2.596e-3
-1.469, 2.612e-3
-1.470, 2.624e-3
-1.471, 2.636e-3
-1.472, 2.645e-3
-1.473, 2.658e-3
-1.474, 2.673e-3
-1.475, 2.689e-3
-1.476, 2.701e-3
-1.477, 2.713e-3
-1.478, 2.726e-3
-1.479, 2.744e-3
-1.480, 2.760e-3
-1.481, 2.772e-3
-1.482, 2.781e-3
-1.483, 2.797e-3
-1.484, 2.812e-3
-1.485, 2.827e-3
-1.486, 2.840e-3
-1.487, 2.852e-3
-1.488, 2.867e-3
-1.489, 2.883e-3
-1.490, 2.898e-3
-1.491, 2.911e-3
-1.492, 2.926e-3
-1.493, 2.941e-3
-1.494, 2.960e-3
-1.495, 2.975e-3
-1.496, 2.991e-3
-1.497, 3.003e-3
-1.498, 3.019e-3
-1.499, 3.037e-3
-1.500, 3.052e-3
-1.501, 3.065e-3
-1.502, 3.080e-3
-1.503, 3.096e-3
-1.504, 3.114e-3
-1.505, 3.136e-3
-1.506, 3.148e-3
-1.507, 3.163e-3
-1.508, 3.182e-3
-1.509, 3.200e-3
-1.510, 3.219e-3
-1.511, 3.237e-3
-1.512, 3.253e-3
-1.513, 3.274e-3
-1.514, 3.296e-3
-1.515, 3.314e-3
-1.516, 3.333e-3
-1.517, 3.348e-3
-1.518, 3.367e-3
-1.519, 3.388e-3
-1.520, 3.407e-3
-1.521, 3.425e-3
-1.522, 3.444e-3
-1.523, 3.466e-3
-1.524, 3.487e-3
-1.525, 3.512e-3
-1.526, 3.533e-3
-1.527, 3.552e-3
-1.528, 3.570e-3
-1.529, 3.595e-3
-1.530, 3.614e-3
-1.531, 3.632e-3
-1.532, 3.651e-3
-1.533, 3.669e-3
-1.534, 3.697e-3
-1.535, 3.721e-3
-1.536, 3.743e-3
-1.537, 3.765e-3
-1.538, 3.786e-3
-1.539, 3.811e-3
-1.540, 3.836e-3
-1.541, 3.857e-3
-1.542, 3.879e-3
-1.543, 3.903e-3
-1.544, 3.931e-3
-1.545, 3.959e-3
-1.546, 3.984e-3
-1.547, 4.008e-3
-1.548, 4.036e-3
-1.549, 4.064e-3
-1.550, 4.088e-3
-1.551, 4.113e-3
-1.552, 4.135e-3
-1.553, 4.162e-3
-1.554, 4.193e-3
-1.555, 4.221e-3
-1.556, 4.249e-3
-1.557, 4.276e-3
-1.558, 4.304e-3
-1.559, 4.335e-3
-1.560, 4.366e-3
-1.561, 4.394e-3
-1.562, 4.421e-3
-1.563, 4.449e-3
-1.564, 4.483e-3
-1.565, 4.514e-3
-1.566, 4.542e-3
-1.567, 4.572e-3
-1.568, 4.603e-3
-1.569, 4.637e-3
-1.570, 4.671e-3
-1.571, 4.705e-3
-1.572, 4.736e-3
-1.573, 4.770e-3
-1.574, 4.807e-3
-1.575, 4.841e-3
-1.576, 4.875e-3
-1.577, 4.908e-3
-1.578, 4.945e-3
-1.579, 4.979e-3
-1.580, 5.016e-3
-1.581, 5.050e-3
-1.582, 5.081e-3
-1.583, 5.118e-3
-1.584, 5.155e-3
-1.585, 5.189e-3
-1.586, 5.226e-3
-1.587, 5.263e-3
-1.588, 5.300e-3
-1.589, 5.340e-3
-1.590, 5.380e-3
-1.591, 5.420e-3
-1.592, 5.454e-3
-1.593, 5.494e-3
-1.594, 5.544e-3
-1.595, 5.587e-3
-1.596, 5.630e-3
-1.597, 5.670e-3
-1.598, 5.713e-3
-1.599, 5.762e-3
-1.600, 5.806e-3
-1.601, 5.846e-3
-1.602, 5.889e-3
-1.603, 5.935e-3
-1.604, 5.978e-3
-1.605, 6.025e-3
-1.606, 6.065e-3
-1.607, 6.105e-3
-1.608, 6.151e-3
-1.609, 6.200e-3
-1.610, 6.250e-3
-1.611, 6.296e-3
-1.612, 6.342e-3
-1.613, 6.391e-3
-1.614, 6.444e-3
-1.615, 6.490e-3
-1.616, 6.539e-3
-1.617, 6.583e-3
-1.618, 6.629e-3
-1.619, 6.684e-3
-1.620, 6.737e-3
-1.621, 6.789e-3
-1.622, 6.842e-3
-1.623, 6.900e-3
-1.624, 6.959e-3
-1.625, 7.020e-3
-1.626, 7.073e-3
-1.627, 7.122e-3
-1.628, 7.175e-3
-1.629, 7.230e-3
-1.630, 7.286e-3
-1.631, 7.344e-3
-1.632, 7.397e-3
-1.633, 7.458e-3
-1.634, 7.517e-3
-1.635, 7.575e-3
-1.636, 7.634e-3
-1.637, 7.683e-3
-1.638, 7.745e-3
-1.639, 7.810e-3
-1.640, 7.871e-3
-1.641, 7.936e-3
-1.642, 7.998e-3
-1.643, 8.050e-3
-1.644, 8.118e-3
-1.645, 8.186e-3
-1.646, 8.251e-3
-1.647, 8.315e-3
-1.648, 8.386e-3
-1.649, 8.457e-3
-1.650, 8.528e-3
-1.651, 8.599e-3
-1.652, 8.664e-3
-1.653, 8.738e-3
-1.654, 8.815e-3
-1.655, 8.886e-3
-1.656, 8.950e-3
-1.657, 9.015e-3
-1.658, 9.080e-3
-1.659, 9.151e-3
-1.660, 9.219e-3
-1.661, 9.286e-3
-1.662, 9.348e-3
-1.663, 9.407e-3
-1.664, 9.481e-3
-1.665, 9.558e-3
-1.666, 9.632e-3
-1.667, 9.703e-3
-1.668, 9.774e-3
-1.669, 9.848e-3
-1.670, 9.922e-3
-1.671, 9.993e-3
-1.672, 1.007e-2
-1.673, 1.015e-2
-1.674, 1.023e-2
-1.675, 1.032e-2
-1.676, 1.041e-2
-1.677, 1.048e-2
-1.678, 1.057e-2
-1.679, 1.065e-2
-1.680, 1.073e-2
-1.681, 1.080e-2
-1.682, 1.087e-2
-1.683, 1.095e-2
-1.684, 1.103e-2
-1.685, 1.111e-2
-1.686, 1.119e-2
-1.687, 1.127e-2
-1.688, 1.135e-2
-1.689, 1.144e-2
-1.690, 1.152e-2
-1.691, 1.160e-2
-1.692, 1.167e-2
-1.693, 1.174e-2
-1.694, 1.184e-2
-1.695, 1.192e-2
-1.696, 1.199e-2
-1.697, 1.206e-2
-1.698, 1.214e-2
-1.699, 1.223e-2
-1.700, 1.226e-2
-1.699, 1.218e-2
-1.698, 1.211e-2
-1.697, 1.203e-2
-1.696, 1.195e-2
-1.695, 1.187e-2
-1.694, 1.180e-2
-1.693, 1.172e-2
-1.692, 1.165e-2
-1.691, 1.158e-2
-1.690, 1.152e-2
-1.689, 1.144e-2
-1.688, 1.137e-2
-1.687, 1.130e-2
-1.686, 1.124e-2
-1.685, 1.116e-2
-1.684, 1.107e-2
-1.683, 1.099e-2
-1.682, 1.092e-2
-1.681, 1.087e-2
-1.680, 1.078e-2
-1.679, 1.070e-2
-1.678, 1.062e-2
-1.677, 1.056e-2
-1.676, 1.049e-2
-1.675, 1.041e-2
-1.674, 1.032e-2
-1.673, 1.022e-2
-1.672, 1.016e-2
-1.671, 1.009e-2
-1.670, 1.003e-2
-1.669, 9.952e-3
-1.668, 9.875e-3
-1.667, 9.801e-3
-1.666, 9.727e-3
-1.665, 9.647e-3
-1.664, 9.567e-3
-1.663, 9.490e-3
-1.662, 9.413e-3
-1.661, 9.336e-3
-1.660, 9.259e-3
-1.659, 9.188e-3
-1.658, 9.114e-3
-1.657, 9.049e-3
-1.656, 8.978e-3
-1.655, 8.910e-3
-1.654, 8.833e-3
-1.653, 8.762e-3
-1.652, 8.688e-3
-1.651, 8.624e-3
-1.650, 8.562e-3
-1.649, 8.491e-3
-1.648, 8.414e-3
-1.647, 8.346e-3
-1.646, 8.288e-3
-1.645, 8.220e-3
-1.644, 8.149e-3
-1.643, 8.072e-3
-1.642, 8.001e-3
-1.641, 7.939e-3
-1.640, 7.878e-3
-1.639, 7.791e-3
-1.638, 7.730e-3
-1.637, 7.668e-3
-1.636, 7.612e-3
-1.635, 7.557e-3
-1.634, 7.498e-3
-1.633, 7.437e-3
-1.632, 7.375e-3
-1.631, 7.313e-3
-1.630, 7.255e-3
-1.629, 7.193e-3
-1.628, 7.131e-3
-1.627, 7.064e-3
-1.626, 6.999e-3
-1.625, 6.943e-3
-1.624, 6.882e-3
-1.623, 6.817e-3
-1.622, 6.761e-3
-1.621, 6.712e-3
-1.620, 6.660e-3
-1.619, 6.598e-3
-1.618, 6.536e-3
-1.617, 6.469e-3
-1.616, 6.413e-3
-1.615, 6.354e-3
-1.614, 6.293e-3
-1.613, 6.231e-3
-1.612, 6.173e-3
-1.611, 6.120e-3
-1.610, 6.068e-3
-1.609, 6.012e-3
-1.608, 5.951e-3
-1.607, 5.895e-3
-1.606, 5.849e-3
-1.605, 5.799e-3
-1.604, 5.753e-3
-1.603, 5.713e-3
-1.602, 5.670e-3
-1.601, 5.630e-3
-1.600, 5.590e-3
-1.599, 5.537e-3
-1.598, 5.491e-3
-1.597, 5.448e-3
-1.596, 5.402e-3
-1.595, 5.352e-3
-1.594, 5.300e-3
-1.593, 5.241e-3
-1.592, 5.189e-3
-1.591, 5.140e-3
-1.590, 5.087e-3
-1.589, 5.035e-3
-1.588, 4.979e-3
-1.587, 4.930e-3
-1.586, 4.887e-3
-1.585, 4.844e-3
-1.584, 4.801e-3
-1.583, 4.751e-3
-1.582, 4.702e-3
-1.581, 4.662e-3
-1.580, 4.619e-3
-1.579, 4.575e-3
-1.578, 4.529e-3
-1.577, 4.486e-3
-1.576, 4.446e-3
-1.575, 4.412e-3
-1.574, 4.369e-3
-1.573, 4.326e-3
-1.572, 4.280e-3
-1.571, 4.243e-3
-1.570, 4.206e-3
-1.569, 4.165e-3
-1.568, 4.125e-3
-1.567, 4.085e-3
-1.566, 4.051e-3
-1.565, 4.017e-3
-1.564, 3.980e-3
-1.563, 3.940e-3
-1.562, 3.900e-3
-1.561, 3.866e-3
-1.560, 3.829e-3
-1.559, 3.789e-3
-1.558, 3.749e-3
-1.557, 3.715e-3
-1.556, 3.678e-3
-1.555, 3.644e-3
-1.554, 3.604e-3
-1.553, 3.567e-3
-1.552, 3.533e-3
-1.551, 3.499e-3
-1.550, 3.459e-3
-1.549, 3.419e-3
-1.548, 3.385e-3
-1.547, 3.351e-3
-1.546, 3.324e-3
-1.545, 3.293e-3
-1.544, 3.259e-3
-1.543, 3.225e-3
-1.542, 3.194e-3
-1.541, 3.163e-3
-1.540, 3.136e-3
-1.539, 3.123e-3
-1.538, 3.083e-3
-1.537, 3.046e-3
-1.536, 3.019e-3
-1.535, 2.991e-3
-1.534, 2.960e-3
-1.533, 2.923e-3
-1.532, 2.895e-3
-1.531, 2.871e-3
-1.530, 2.843e-3
-1.529, 2.812e-3
-1.528, 2.781e-3
-1.527, 2.753e-3
-1.526, 2.732e-3
-1.525, 2.704e-3
-1.524, 2.676e-3
-1.523, 2.649e-3
-1.522, 2.624e-3
-1.521, 2.599e-3
-1.520, 2.578e-3
-1.519, 2.544e-3
-1.518, 2.516e-3
-1.517, 2.491e-3
-1.516, 2.467e-3
-1.515, 2.445e-3
-1.514, 2.417e-3
-1.513, 2.390e-3
-1.512, 2.368e-3
-1.511, 2.349e-3
-1.510, 2.325e-3
-1.509, 2.300e-3
-1.508, 2.275e-3
-1.507, 2.254e-3
-1.506, 2.238e-3
-1.505, 2.238e-3
-1.504, 2.214e-3
-1.503, 2.186e-3
-1.502, 2.161e-3
-1.501, 2.143e-3
-1.500, 2.124e-3
-1.499, 2.100e-3
-1.498, 2.075e-3
-1.497, 2.044e-3
-1.496, 2.029e-3
-1.495, 2.010e-3
-1.494, 1.989e-3
-1.493, 1.967e-3
-1.492, 1.952e-3
-1.491, 1.933e-3
-1.490, 1.915e-3
-1.489, 1.893e-3
-1.488, 1.869e-3
-1.487, 1.850e-3
-1.486, 1.835e-3
-1.485, 1.819e-3
-1.484, 1.798e-3
-1.483, 1.779e-3
-1.482, 1.761e-3
-1.481, 1.745e-3
-1.480, 1.730e-3
-1.479, 1.711e-3
-1.478, 1.693e-3
-1.477, 1.674e-3
-1.476, 1.659e-3
-1.475, 1.643e-3
-1.474, 1.625e-3
-1.473, 1.610e-3
-1.472, 1.591e-3
-1.471, 1.576e-3
-1.470, 1.560e-3
-1.469, 1.542e-3
-1.468, 1.523e-3
-1.467, 1.511e-3
-1.466, 1.495e-3
-1.465, 1.483e-3
-1.464, 1.465e-3
-1.463, 1.446e-3
-1.462, 1.431e-3
-1.461, 1.421e-3
-1.460, 1.406e-3
-1.459, 1.391e-3
-1.458, 1.375e-3
-1.457, 1.360e-3
-1.456, 1.351e-3
-1.455, 1.335e-3
-1.454, 1.320e-3
-1.453, 1.307e-3
-1.452, 1.295e-3
-1.451, 1.283e-3
-1.450, 1.270e-3
-1.449, 1.258e-3
-1.448, 1.240e-3
-1.447, 1.196e-3
-1.446, 1.190e-3
-1.445, 1.184e-3
-1.444, 1.172e-3
-1.443, 1.159e-3
-1.442, 1.150e-3
-1.441, 1.141e-3
-1.440, 1.132e-3
-1.439, 1.119e-3
-1.438, 1.104e-3
-1.437, 1.095e-3
-1.436, 1.088e-3
-1.435, 1.076e-3
-1.434, 1.064e-3
-1.433, 1.048e-3
-1.432, 1.036e-3
-1.431, 1.027e-3
-1.430, 1.021e-3
-1.429, 1.011e-3
-1.428, 9.991e-4
-1.427, 9.898e-4
-1.426, 9.929e-4
-1.425, 9.960e-4
-1.424, 9.837e-4
-1.423, 9.683e-4
-1.422, 9.590e-4
-1.421, 9.498e-4
-1.420, 9.374e-4
-1.419, 9.251e-4
-1.418, 9.128e-4
-1.417, 9.035e-4
-1.416, 8.943e-4
-1.415, 8.850e-4
-1.414, 8.727e-4
-1.413, 8.634e-4
-1.412, 8.542e-4
-1.411, 8.449e-4
-1.410, 8.357e-4
-1.409, 8.233e-4
-1.408, 8.141e-4
-1.407, 8.048e-4
-1.406, 7.987e-4
-1.405, 7.894e-4
-1.404, 7.802e-4
-1.403, 7.709e-4
-1.402, 7.648e-4
-1.401, 7.586e-4
-1.400, 7.524e-4
-1.399, 7.432e-4
-1.398, 7.339e-4
-1.397, 7.278e-4
-1.396, 7.216e-4
-1.395, 7.124e-4
-1.394, 7.031e-4
-1.393, 6.908e-4
-1.392, 6.846e-4
-1.391, 6.784e-4
-1.390, 6.723e-4
-1.389, 6.630e-4
-1.388, 6.538e-4
-1.387, 6.445e-4
-1.386, 6.414e-4
-1.385, 6.353e-4
-1.384, 6.260e-4
-1.383, 6.168e-4
-1.382, 6.106e-4
-1.381, 6.044e-4
-1.380, 5.983e-4
-1.379, 5.921e-4
-1.378, 5.829e-4
-1.377, 5.767e-4
-1.376, 5.705e-4
-1.375, 5.644e-4
-1.374, 5.551e-4
-1.373, 5.489e-4
-1.372, 5.428e-4
-1.371, 5.397e-4
-1.370, 5.335e-4
-1.369, 5.274e-4
-1.368, 5.181e-4
-1.367, 5.120e-4
-1.366, 5.089e-4
-1.365, 5.027e-4
-1.364, 4.935e-4
-1.363, 4.873e-4
-1.362, 4.811e-4
-1.361, 4.780e-4
-1.360, 4.750e-4
-1.359, 4.657e-4
-1.358, 4.595e-4
-1.357, 4.534e-4
-1.356, 4.503e-4
-1.355, 4.441e-4
-1.354, 4.380e-4
-1.353, 4.287e-4
-1.352, 4.256e-4
-1.351, 4.195e-4
-1.350, 4.164e-4
-1.349, 4.071e-4
-1.348, 4.010e-4
-1.347, 3.979e-4
-1.346, 3.948e-4
-1.345, 3.917e-4
-1.344, 3.855e-4
-1.343, 3.794e-4
-1.342, 3.732e-4
-1.341, 3.701e-4
-1.340, 3.640e-4
-1.339, 3.578e-4
-1.338, 3.516e-4
-1.337, 3.485e-4
-1.336, 3.455e-4
-1.335, 3.424e-4
-1.334, 3.362e-4
-1.333, 3.270e-4
-1.332, 3.239e-4
-1.331, 3.208e-4
-1.330, 3.177e-4
-1.329, 3.115e-4
-1.328, 3.054e-4
-1.327, 3.023e-4
-1.326, 2.992e-4
-1.325, 2.961e-4
-1.324, 2.900e-4
-1.323, 2.838e-4
-1.322, 2.776e-4
-1.321, 2.776e-4
-1.320, 2.746e-4
-1.319, 2.684e-4
-1.318, 2.622e-4
-1.317, 2.561e-4
-1.316, 2.530e-4
-1.315, 2.499e-4
-1.314, 2.437e-4
-1.313, 2.406e-4
-1.312, 2.376e-4
-1.311, 2.345e-4
-1.310, 2.314e-4
-1.309, 2.252e-4
-1.308, 2.191e-4
-1.307, 2.160e-4
-1.306, 2.129e-4
-1.305, 2.129e-4
-1.304, 2.067e-4
-1.303, 2.006e-4
-1.302, 1.975e-4
-1.301, 1.975e-4
-1.300, 1.913e-4
-1.299, 1.882e-4
-1.298, 1.821e-4
-1.297, 1.790e-4
-1.296, 1.790e-4
-1.295, 1.759e-4
-1.294, 1.728e-4
-1.293, 1.666e-4
-1.292, 1.636e-4
-1.291, 1.605e-4
-1.290, 1.574e-4
-1.289, 1.543e-4
-1.288, 1.481e-4
-1.287, 1.451e-4
-1.286, 1.420e-4
-1.285, 1.327e-4
-1.284, 1.235e-4
-1.283, 1.204e-4
-1.282, 1.204e-4
-1.281, 1.173e-4
-1.280, 1.142e-4
-1.279, 1.111e-4
-1.278, 1.081e-4
-1.277, 1.050e-4
-1.276, 1.050e-4
-1.275, 1.019e-4
-1.274, 9.573e-5
-1.273, 9.265e-5
-1.272, 8.957e-5
-1.271, 8.648e-5
-1.270, 8.340e-5
-1.269, 8.032e-5
-1.268, 8.032e-5
-1.267, 7.723e-5
-1.266, 7.723e-5
-1.265, 7.415e-5
-1.264, 7.107e-5
-1.263, 6.490e-5
-1.262, 6.490e-5
-1.261, 6.490e-5
-1.260, 6.182e-5
-1.259, 5.565e-5
-1.258, 4.949e-5
-1.257, 4.640e-5
-1.256, 4.640e-5
-1.255, 4.332e-5
-1.254, 4.024e-5
-1.253, 3.407e-5
-1.252, 2.790e-5
-1.251, 2.790e-5
-1.250, 2.790e-5
-1.249, 2.174e-5
-1.248, 1.557e-5
-1.247, 1.557e-5
-1.246, 1.249e-5
-1.245, 1.249e-5
-1.244, 9.405e-6
-1.243, 3.239e-6
-1.242, 1.559e-7
-1.241, 3.239e-6
-1.240, 1.559e-7
-1.239, -2.927e-6
-1.238, -6.010e-6
-1.237, -6.010e-6
-1.236, -6.010e-6
-1.235, -9.093e-6
-1.234, -1.218e-5
-1.233, -1.834e-5
-1.232, -1.834e-5
-1.231, -2.143e-5
-1.230, -2.451e-5
-1.229, -3.068e-5
-1.228, -3.376e-5
-1.227, -3.684e-5
-1.226, -3.684e-5
-1.225, -3.684e-5
-1.224, -3.992e-5
-1.223, -4.609e-5
-1.222, -4.917e-5
-1.221, -5.226e-5
-1.220, -5.226e-5
-1.219, -5.534e-5
-1.218, -5.842e-5
-1.217, -6.151e-5
-1.216, -5.842e-5
-1.215, -6.151e-5
-1.214, -6.459e-5
-1.213, -6.767e-5
-1.212, -7.076e-5
-1.211, -7.384e-5
-1.210, -7.384e-5
-1.209, -8.000e-5
-1.208, -8.309e-5
-1.207, -8.617e-5
-1.206, -8.617e-5
-1.205, -8.617e-5
-1.204, -8.925e-5
-1.203, -9.542e-5
-1.202, -9.850e-5
-1.201, -9.542e-5
-1.200, -9.850e-5
-1.199, -1.047e-4
-1.198, -1.078e-4
-1.197, -1.108e-4
-1.196, -1.108e-4
-1.195, -1.108e-4
-1.194, -1.170e-4
-1.193, -1.201e-4
-1.192, -1.201e-4
-1.191, -1.232e-4
-1.190, -1.232e-4
-1.189, -1.263e-4
-1.188, -1.324e-4
-1.187, -1.355e-4
-1.186, -1.355e-4
-1.185, -1.417e-4
-1.184, -1.417e-4
-1.183, -1.448e-4
-1.182, -1.448e-4
-1.181, -1.448e-4
-1.180, -1.478e-4
-1.179, -1.509e-4
-1.178, -1.540e-4
-1.177, -1.571e-4
-1.176, -1.571e-4
-1.175, -1.602e-4
-1.174, -1.663e-4
-1.173, -1.694e-4
-1.172, -1.725e-4
-1.171, -1.725e-4
-1.170, -1.725e-4
-1.169, -1.787e-4
-1.168, -1.848e-4
-1.167, -1.879e-4
-1.166, -1.910e-4
-1.165, -1.910e-4
-1.164, -1.941e-4
-1.163, -1.972e-4
-1.162, -2.002e-4
-1.161, -2.002e-4
-1.160, -2.033e-4
-1.159, -2.064e-4
-1.158, -2.095e-4
-1.157, -2.095e-4
-1.156, -2.095e-4
-1.155, -2.126e-4
-1.154, -2.157e-4
-1.153, -2.187e-4
-1.152, -2.187e-4
-1.151, -2.187e-4
-1.150, -2.218e-4
-1.149, -2.280e-4
-1.148, -2.342e-4
-1.147, -2.372e-4
-1.146, -2.403e-4
-1.145, -2.434e-4
-1.144, -2.496e-4
-1.143, -2.527e-4
-1.142, -2.557e-4
-1.141, -2.588e-4
-1.140, -2.588e-4
-1.139, -2.619e-4
-1.138, -2.650e-4
-1.137, -2.681e-4
-1.136, -2.681e-4
-1.135, -2.712e-4
-1.134, -2.773e-4
-1.133, -2.804e-4
-1.132, -2.835e-4
-1.131, -2.835e-4
-1.130, -2.835e-4
-1.129, -2.897e-4
-1.128, -2.927e-4
-1.127, -2.958e-4
-1.126, -2.958e-4
-1.125, -2.989e-4
-1.124, -3.020e-4
-1.123, -3.082e-4
-1.122, -3.112e-4
-1.121, -3.112e-4
-1.120, -3.143e-4
-1.119, -3.174e-4
-1.118, -3.236e-4
-1.117, -3.236e-4
-1.116, -3.267e-4
-1.115, -3.297e-4
-1.114, -3.328e-4
-1.113, -3.390e-4
-1.112, -3.421e-4
-1.111, -3.421e-4
-1.110, -3.452e-4
-1.109, -3.482e-4
-1.108, -3.544e-4
-1.107, -3.575e-4
-1.106, -3.575e-4
-1.105, -3.575e-4
-1.104, -3.637e-4
-1.103, -3.698e-4
-1.102, -3.729e-4
-1.101, -3.729e-4
-1.100, -3.760e-4
-1.099, -3.791e-4
-1.098, -3.821e-4
-1.097, -3.883e-4
-1.096, -3.883e-4
-1.095, -3.883e-4
-1.094, -3.945e-4
-1.093, -4.006e-4
-1.092, -4.006e-4
-1.091, -4.037e-4
-1.090, -4.037e-4
-1.089, -4.099e-4
-1.088, -4.161e-4
-1.087, -4.161e-4
-1.086, -4.191e-4
-1.085, -4.191e-4
-1.084, -4.253e-4
-1.083, -4.315e-4
-1.082, -4.346e-4
-1.081, -4.346e-4
-1.080, -4.376e-4
-1.079, -4.438e-4
-1.078, -4.469e-4
-1.077, -4.500e-4
-1.076, -4.500e-4
-1.075, -4.531e-4
-1.074, -4.592e-4
-1.073, -4.623e-4
-1.072, -4.654e-4
-1.071, -4.654e-4
-1.070, -4.685e-4
-1.069, -4.746e-4
-1.068, -4.777e-4
-1.067, -4.808e-4
-1.066, -4.808e-4
-1.065, -4.839e-4
-1.064, -4.901e-4
-1.063, -4.962e-4
-1.062, -4.993e-4
-1.061, -4.993e-4
-1.060, -5.024e-4
-1.059, -5.086e-4
-1.058, -5.116e-4
-1.057, -5.147e-4
-1.056, -5.147e-4
-1.055, -5.178e-4
-1.054, -5.209e-4
-1.053, -5.271e-4
-1.052, -5.301e-4
-1.051, -5.301e-4
-1.050, -5.332e-4
-1.049, -5.394e-4
-1.048, -5.456e-4
-1.047, -5.456e-4
-1.046, -5.486e-4
-1.045, -5.486e-4
-1.044, -5.517e-4
-1.043, -5.579e-4
-1.042, -5.610e-4
-1.041, -5.579e-4
-1.040, -5.610e-4
-1.039, -5.641e-4
-1.038, -5.702e-4
-1.037, -5.702e-4
-1.036, -5.702e-4
-1.035, -5.733e-4
-1.034, -5.795e-4
-1.033, -5.856e-4
-1.032, -5.856e-4
-1.031, -5.887e-4
-1.030, -5.918e-4
-1.029, -5.980e-4
-1.028, -6.041e-4
-1.027, -6.072e-4
-1.026, -6.072e-4
-1.025, -6.103e-4
-1.024, -6.134e-4
-1.023, -6.195e-4
-1.022, -6.226e-4
-1.021, -6.195e-4
-1.020, -6.226e-4
-1.019, -6.257e-4
-1.018, -6.288e-4
-1.017, -6.319e-4
-1.016, -6.319e-4
-1.015, -6.350e-4
-1.014, -6.380e-4
-1.013, -6.442e-4
-1.012, -6.473e-4
-1.011, -6.473e-4
-1.010, -6.473e-4
-1.009, -6.535e-4
-1.008, -6.565e-4
-1.007, -6.596e-4
-1.006, -6.565e-4
-1.005, -6.596e-4
-1.004, -6.627e-4
-1.003, -6.689e-4
-1.002, -6.689e-4
-1.001, -6.689e-4
