Potential V vs RHE, Current mA cm-2
0.013299999999999867,-5.191990470504685
0.012299999999999978,-5.759289701750564
0.011299999999999866,-6.064867342521412
0.010299999999999976,-6.282732882700628
0.009299999999999864,-6.54445447317566
0.008299999999999974,-6.6760226240631075
0.007299999999999862,-6.850032113946507
0.006299999999999972,-6.981600264833956
0.00529999999999986,-7.067897654125724
0.0042999999999999705,-7.199465805013171
0.0032999999999998586,-7.28576319430494
0.0022999999999999687,-7.37347529489657
0.0012999999999998568,-7.50504344578402
0.00029999999999996696,-7.635196885371603
-0.000700000000000145,-7.722908985963235
-0.0017000000000000348,-7.809206375255003
-0.0027000000000001467,-7.896918475846635
-0.0037000000000000366,-7.984630576438266
-0.0047000000000001485,-8.027071915434218
-0.005700000000000038,-8.070927965730034
-0.00670000000000015,-8.158640066321666
-0.00770000000000004,-8.246352166913299
-0.008700000000000152,-8.332649556205066
-0.009700000000000042,-8.4203616567967
-0.010700000000000154,-8.508073757388331
-0.011700000000000044,-8.594371146680096
-0.012700000000000156,-8.638227196975913
-0.013700000000000045,-8.68208324727173
-0.014700000000000157,-8.769795347863363
-0.015700000000000047,-8.812236686859313
-0.01670000000000016,-8.85609273715513
-0.01770000000000005,-8.899948787450944
-0.01870000000000016,-8.987660888042578
-0.01970000000000005,-9.073958277334345
-0.020700000000000163,-9.161670377925978
-0.021700000000000053,-9.205526428221793
-0.022700000000000164,-9.293238528813426
-0.023700000000000054,-9.335679867809377
-0.024700000000000166,-9.379535918105192
-0.025700000000000056,-9.423391968401008
-0.026700000000000168,-9.467248018696827
-0.027700000000000058,-9.511104068992642
-0.02870000000000017,-9.59740145828441
-0.02970000000000006,-9.641257508580225
-0.03070000000000017,-9.728969609171857
-0.03170000000000006,-9.772825659467674
-0.03270000000000017,-9.85912304875944
-0.03370000000000006,-9.85912304875944
-0.034700000000000175,-9.902979099055257
-0.035700000000000065,-9.946835149351072
-0.03670000000000018,-10.034547249942705
-0.03770000000000007,-10.078403300238522
-0.03870000000000018,-10.120844639234473
-0.03970000000000007,-10.208556739826104
-0.04070000000000018,-10.25241279012192
-0.04170000000000007,-10.340124890713554
-0.04270000000000018,-10.382566229709504
-0.04370000000000007,-10.382566229709504
-0.044700000000000184,-10.42642228000532
-0.045700000000000074,-10.470278330301136
-0.046700000000000186,-10.514134380596953
-0.047700000000000076,-10.557990430892769
-0.04870000000000019,-10.601846481188586
-0.04970000000000008,-10.644287820184536
-0.05070000000000019,-10.731999920776168
-0.05170000000000008,-10.775855971071984
-0.05270000000000019,-10.819712021367803
-0.05370000000000008,-10.863568071663616
-0.05470000000000019,-10.906009410659568
-0.05570000000000008,-10.949865460955383
-0.056700000000000195,-10.993721511251199
-0.057700000000000085,-11.037577561547016
-0.058700000000000196,-11.123874950838783
-0.059700000000000086,-11.1677310011346
-0.0607000000000002,-11.211587051430415
-0.06170000000000009,-11.299299152022046
-0.0627000000000002,-11.385596541313816
-0.06370000000000009,-11.385596541313816
-0.0647000000000002,-11.42945259160963
-0.06570000000000009,-11.473308641905447
-0.0667000000000002,-11.517164692201263
-0.0677000000000001,-11.56102074249708
-0.0687000000000002,-11.604876792792895
-0.0697000000000001,-11.691174182084664
-0.07070000000000021,-11.778886282676295
-0.0717000000000001,-11.82274233297211
-0.07270000000000021,-11.86659838326793
-0.0737000000000001,-11.909039722263879
-0.07470000000000021,-11.952895772559694
-0.0757000000000001,-11.996751822855511
-0.07670000000000021,-12.040607873151327
-0.0777000000000001,-12.084463923447142
-0.07870000000000021,-12.170761312738911
-0.0797000000000001,-12.214617363034726
-0.08070000000000022,-12.258473413330542
-0.0817000000000001,-12.346185513922174
-0.08270000000000022,-12.390041564217992
-0.08370000000000011,-12.476338953509758
-0.08470000000000022,-12.476338953509758
-0.08570000000000011,-12.520195003805576
-0.08670000000000022,-12.56405105410139
-0.08770000000000011,-12.651763154693022
-0.08870000000000022,-12.694204493688973
-0.08970000000000011,-12.781916594280606
-0.09070000000000022,-12.825772644576423
-0.09170000000000011,-12.913484745168056
-0.09270000000000023,-12.955926084164007
-0.09370000000000012,-12.99978213445982
-0.09470000000000023,-13.043638184755638
-0.09570000000000012,-13.087494235051453
-0.09670000000000023,-13.175206335643086
-0.09770000000000012,-13.217647674639037
-0.09870000000000023,-13.30535977523067
-0.09970000000000012,-13.349215825526485
-0.10070000000000023,-13.436927926118118
-0.10170000000000012,-13.523225315409885
-0.10270000000000024,-13.567081365705702
-0.10370000000000013,-13.610937416001518
-0.10470000000000024,-13.698649516593148
-0.10570000000000013,-13.741090855589102
-0.10670000000000024,-13.784946905884919
-0.10770000000000013,-13.872659006476551
-0.10870000000000024,-13.960371107068182
-0.10970000000000013,-14.046668496359947
-0.11070000000000024,-14.13438059695158
-0.11170000000000013,-14.175407224647667
-0.11270000000000002,-14.26028990263957
-0.11370000000000013,-14.30273124163552
-0.11470000000000002,-14.401761032626075
-0.11570000000000014,-14.444202371622024
-0.11670000000000003,-14.486643710617974
-0.11770000000000014,-14.57152638860988
-0.11870000000000003,-14.65640906660178
-0.11970000000000014,-14.741291744593681
-0.12070000000000003,-14.826174422585586
-0.12170000000000014,-14.925204213576137
-0.12270000000000003,-15.01008689156804
-0.12370000000000014,-15.094969569559943
-0.12470000000000003,-15.137410908555893
-0.12570000000000014,-15.222293586547794
-0.12670000000000003,-15.307176264539699
-0.12770000000000015,-15.349617603535648
-0.12870000000000004,-15.491088733522153
-0.12970000000000015,-15.575971411514052
-0.13070000000000004,-15.660854089505953
-0.13170000000000015,-15.74573676749786
-0.13270000000000004,-15.830619445489761
-0.13370000000000015,-15.91550212348166
-0.13470000000000004,-15.972090575476265
-0.13570000000000015,-16.056973253468165
-0.13670000000000004,-16.141855931460068
-0.13770000000000016,-16.22673860945197
-0.13870000000000005,-16.311621287443874
-0.13970000000000016,-16.396503965435777
-0.14070000000000005,-16.53797509542228
-0.14170000000000016,-16.622857773414182
-0.14270000000000005,-16.750181790402035
-0.14370000000000016,-16.835064468393938
-0.14470000000000005,-16.919947146385837
-0.14570000000000016,-17.018976937376394
-0.14670000000000005,-17.103859615368293
-0.14770000000000016,-17.188742293360193
-0.14870000000000005,-17.2736249713521
-0.14970000000000017,-17.40094898833995
-0.15070000000000006,-17.542420118326454
-0.15170000000000017,-17.627302796318357
-0.15270000000000006,-17.71218547431026
-0.15370000000000017,-17.839509491298113
-0.15470000000000006,-17.924392169290012
-0.15570000000000017,-18.009274847281915
-0.15670000000000006,-18.10830463827247
-0.15770000000000017,-18.23562865526032
-0.15870000000000006,-18.362952672248177
-0.15970000000000018,-18.44783535024008
-0.16070000000000007,-18.589306480226583
-0.16170000000000018,-18.716630497214435
-0.16270000000000007,-18.843954514202288
-0.16370000000000018,-18.92883719219419
-0.16470000000000007,-19.056161209182044
-0.16570000000000018,-19.155191000172596
-0.16670000000000007,-19.28251501716045
-0.16770000000000018,-19.367397695152352
-0.16870000000000007,-19.49472171214021
-0.16970000000000018,-19.678634181122664
-0.17070000000000007,-19.763516859114564
-0.17170000000000019,-19.93328221509837
-0.17270000000000008,-20.01816489309027
-0.1737000000000002,-20.159636023076775
-0.17470000000000008,-20.244518701068674
-0.1757000000000002,-20.371842718056527
-0.17670000000000008,-20.499166735044383
-0.1777000000000002,-20.584049413036283
-0.17870000000000008,-20.72552054302279
-0.1797000000000002,-20.89528589900659
-0.18070000000000008,-21.022609915994444
-0.1817000000000002,-21.149933932982297
-0.18270000000000008,-21.333846401964752
-0.1837000000000002,-21.418729079956652
-0.1847000000000001,-21.54605309694451
-0.1857000000000002,-21.67337711393236
-0.1867000000000001,-21.814848243918867
-0.1877000000000002,-21.94217226090672
-0.1887000000000001,-22.111937616890522
-0.1897000000000002,-22.253408746877028
-0.1907000000000001,-22.42317410286083
-0.1917000000000001,-22.550498119848687
-0.19269999999999998,-22.67782213683654
-0.1937000000000001,-22.819293266823045
-0.19469999999999998,-22.946617283810895
-0.1957000000000001,-23.073941300798747
-0.19669999999999999,-23.2012653177866
-0.1977000000000001,-23.342736447773106
-0.1987,-23.51250180375691
-0.1997000000000001,-23.639825820744765
-0.2007,-23.823738289727217
-0.2017000000000001,-23.993503645711023
-0.2027,-24.120827662698876
-0.2037000000000001,-24.24815167968673
-0.2047,-24.389622809673234
-0.2057000000000001,-24.516946826661083
-0.2067,-24.64427084364894
-0.2077000000000001,-24.771594860636792
-0.2087,-24.95550732961925
-0.2097000000000001,-25.12527268560305
-0.2107,-25.252596702590903
-0.2117000000000001,-25.43650917157336
-0.2127,-25.563833188561212
-0.2137000000000001,-25.691157205549064
-0.2147,-25.81848122253692
-0.2157000000000001,-25.959952352523427
-0.2167,-26.087276369511276
-0.21770000000000012,-26.21460038649913
-0.2187,-26.34192440348698
-0.21970000000000012,-26.525836872469437
-0.2207,-26.65316088945729
-0.22170000000000012,-26.822926245441096
-0.2227,-26.9643973754276
-0.22370000000000012,-27.091721392415455
-0.2247,-27.219045409403304
-0.22570000000000012,-27.34636942639116
-0.2267,-27.38881076538711
-0.22770000000000012,-27.530281895373616
-0.22870000000000001,-27.65760591236147
-0.22970000000000013,-27.827371268345274
-0.23070000000000002,-27.954695285333123
-0.23170000000000013,-28.09616641531963
-0.23270000000000002,-28.22349043230748
-0.23370000000000013,-28.350814449295335
-0.23470000000000002,-28.478138466283188
-0.23570000000000013,-28.577168257273744
-0.23670000000000002,-28.662050935265643
-0.2376999999999999,-28.789374952253496
-0.23870000000000002,-28.91669896924135
-0.2396999999999999,-29.058170099227848
-0.24070000000000003,-29.18549411621571
-0.24169999999999991,-29.31281813320356
-0.24270000000000003,-29.39770081119546
-0.24369999999999992,-29.525024828183312
-0.24470000000000003,-29.581613280177915
-0.24569999999999992,-29.708937297165768
-0.24670000000000003,-29.751378636161718
-0.24769999999999992,-29.836261314153624
-0.24870000000000003,-29.96358533114148
-0.24969999999999992,-30.04846800913338
-0.25070000000000003,-30.189939139119886
-0.2516999999999999,-30.274821817111786
-0.25270000000000004,-30.359704495103685
-0.2536999999999999,-30.444587173095588
-0.25470000000000004,-30.529469851087494
-0.2556999999999999,-30.571911190083444
-0.25670000000000004,-30.670940981073993
-0.25769999999999993,-30.7558236590659
-0.25870000000000004,-30.8407063370578
-0.25969999999999993,-30.925589015049702
-0.26070000000000004,-31.010471693041605
-0.26169999999999993,-31.095354371033505
-0.26270000000000004,-31.137795710029454
-0.26369999999999993,-31.23682550102001
-0.26470000000000005,-31.27926684001596
-0.26569999999999994,-31.321708179011907
-0.26670000000000005,-31.36414951800786
-0.26769999999999994,-31.449032195999767
-0.26870000000000005,-31.49147353499572
-0.26969999999999994,-31.533914873991666
-0.27070000000000005,-31.618797551983565
-0.27169999999999994,-31.717827342974125
-0.27270000000000005,-31.76026868197007
-0.27369999999999994,-31.802710020966025
-0.27470000000000006,-31.84515135996197
-0.27569999999999995,-31.84515135996197
-0.27670000000000006,-31.887592698957924
-0.27769999999999995,-31.930034037953877
-0.27870000000000006,-31.972475376949827
-0.27969999999999995,-31.972475376949827
-0.28070000000000006,-32.05735805494172
-0.28169999999999995,-32.09979939393769
-0.28270000000000006,-32.14224073293363
-0.28369999999999995,-32.14224073293363
-0.28470000000000006,-32.14224073293363
-0.28569999999999995,-32.14224073293363
-0.28670000000000007,-32.184682071929586
-0.28769999999999996,-32.184682071929586
-0.28870000000000007,-32.184682071929586
-0.28969999999999996,-32.24127052392419
-0.29070000000000007,-32.24127052392419
-0.29169999999999996,-32.283711862920136
-0.29270000000000007,-32.32615320191609
-0.29369999999999996,-32.32615320191609
-0.2947000000000001,-32.32615320191609
-0.29569999999999996,-32.32615320191609
-0.2967000000000001,-32.32615320191609
-0.29769999999999996,-32.32615320191609
-0.2987000000000001,-32.32615320191609
-0.29969999999999997,-32.32615320191609
-0.3007000000000001,-32.368594540912035
-0.30169999999999997,-32.41103587990799
-0.3027000000000001,-32.41103587990799
-0.30369999999999997,-32.41103587990799
-0.3047000000000001,-32.368594540912035
-0.30569999999999997,-32.368594540912035
-0.3067000000000001,-32.32615320191609
-0.3077,-32.368594540912035
-0.3087000000000001,-32.368594540912035
-0.3097,-32.368594540912035
-0.3107000000000001,-32.41103587990799
-0.3117,-32.45347721890394
-0.3127000000000001,-32.45347721890394
-0.3137,-32.45347721890394
-0.3147000000000001,-32.45347721890394
-0.3157,-32.41103587990799
-0.3167000000000001,-32.41103587990799
-0.3177,-32.45347721890394
-0.3187000000000001,-32.45347721890394
-0.3197,-32.49591855789989
-0.3207000000000001,-32.49591855789989
-0.3217,-32.58080123589179
-0.3227000000000001,-32.58080123589179
-0.3237,-32.58080123589179
-0.3247000000000001,-32.58080123589179
-0.3257,-32.58080123589179
-0.3267000000000001,-32.58080123589179
-0.3277,-32.62324257488775
-0.3287000000000001,-32.66568391388369
-0.3297,-32.66568391388369
-0.3307000000000001,-32.70812525287965
-0.3317,-32.764713704874254
-0.3327000000000001,-32.807155043870196
-0.3337,-32.807155043870196
-0.3347000000000001,-32.84959638286615
-0.3357,-32.84959638286615
-0.3367000000000001,-32.892037721862096
-0.3377,-32.93447906085806
-0.3387000000000001,-32.97692039985401
-0.3397,-33.01936173884996
-0.3407000000000001,-33.10424441684186
-0.3417,-33.18912709483376
-0.3427000000000001,-33.231568433829715
-0.3437,-33.288156885824314
-0.3447000000000001,-33.330598224820264
-0.3457,-33.373039563816214
-0.3467000000000001,-33.41548090281216
-0.3477,-33.45792224180811
-0.3487000000000001,-33.54280491980002
-0.3497,-33.58524625879597
-0.3507000000000001,-33.670128936787876
-0.3517,-33.755011614779775
-0.3527000000000001,-33.81160006677438
-0.3537,-33.89648274476628
-0.3547000000000001,-33.93892408376223
-0.3557,-33.98136542275818
-0.35670000000000013,-34.06624810075008
-0.3577,-34.15113077874198
-0.35870000000000013,-34.236013456733886
-0.3597,-34.33504324772444
-0.36070000000000013,-34.41992592571634
-0.3617,-34.5472499427042
-0.3626999999999999,-34.632132620696105
-0.3637,-34.717015298688004
-0.3646999999999999,-34.8018979766799
-0.3657,-34.85848642867451
-0.3666999999999999,-34.94336910666641
-0.3677,-35.02825178465831
-0.3686999999999999,-35.11313446265021
-0.36970000000000003,-35.240458479638065
-0.3706999999999999,-35.38192960962457
-0.37170000000000003,-35.46681228761647
-0.3726999999999999,-35.594136304604326
-0.37370000000000003,-35.679018982596226
-0.3746999999999999,-35.763901660588125
-0.37570000000000003,-35.848784338580025
-0.3766999999999999,-35.94781412957058
-0.37770000000000004,-36.03269680756248
-0.3786999999999999,-36.16002082455034
-0.37970000000000004,-36.28734484153819
-0.3806999999999999,-36.4288159715247
-0.38170000000000004,-36.55613998851254
-0.38269999999999993,-36.64102266650445
-0.38370000000000004,-36.768346683492304
-0.38469999999999993,-36.8532293614842
-0.38570000000000004,-36.99470049147071
-0.38669999999999993,-37.122024508458566
-0.38770000000000004,-37.249348525446415
-0.38869999999999993,-37.376672542434264
-0.38970000000000005,-37.47570233342482
-0.39069999999999994,-37.645467689408626
-0.39170000000000005,-37.77279170639648
-0.39269999999999994,-37.90011572338433
-0.39370000000000005,-38.04158685337084
-0.39469999999999994,-38.12646953136274
-0.39570000000000005,-38.253793548350586
-0.39669999999999994,-38.33867622634249
-0.39770000000000005,-38.46600024333035
-0.39869999999999994,-38.607471373316855
-0.39970000000000006,-38.734795390304704
-0.40069999999999995,-38.86211940729255
-0.40170000000000006,-38.98944342428042
-0.40269999999999995,-39.08847321527096
-0.40370000000000006,-39.21579723225882
-0.40469999999999995,-39.30067991025072
-0.40570000000000006,-39.42800392723857
-0.40669999999999995,-39.51288660523048
-0.40770000000000006,-39.654357735216976
-0.40869999999999995,-39.739240413208876
-0.40970000000000006,-39.86656443019674
-0.41069999999999995,-39.99388844718459
-0.41170000000000007,-40.177800916167044
-0.41269999999999996,-40.26268359415894
-0.41370000000000007,-40.3900076111468
-0.41469999999999996,-40.4748902891387
-0.41570000000000007,-40.616361419125205
-0.41669999999999996,-40.701244097117105
-0.41770000000000007,-40.87100945310091
-0.41869999999999996,-40.99833347008877
-0.4197000000000001,-41.139804600075266
-0.42069999999999996,-41.30956995605907
-0.4217000000000001,-41.43689397304693
-0.42269999999999996,-41.56421799003478
-0.4237000000000001,-41.70568912002128
-0.42469999999999997,-41.83301313700913
-0.4257000000000001,-41.96033715399699
-0.42669999999999997,-42.04521983198889
-0.4277000000000001,-42.186690961975394
-0.42869999999999997,-42.31401497896325
-0.4297000000000001,-42.4413389959511
-0.43069999999999997,-42.6111043519349
-0.4317000000000001,-42.752575481921404
-0.4327,-42.87989949890926
-0.4337000000000001,-43.04966485489307
-0.4347,-43.134547532884966
-0.4357000000000001,-43.27601866287147
-0.4367,-43.36090134086337
-0.4377000000000001,-43.48822535785123
-0.4387,-43.657990713835034
-0.4397000000000001,-43.79946184382153
-0.4407,-43.92678586080939
-0.4417000000000001,-44.096551216793195
-0.4427,-44.223875233781044
-0.4437000000000001,-44.36534636376755
-0.4447,-44.4926703807554
-0.4457000000000001,-44.619994397743255
-0.4467,-44.74731841473111
-0.4477000000000001,-44.93123088371356
-0.4487,-45.05855490070142
-0.4497000000000001,-45.22832025668522
-0.4507,-45.412232725667685
-0.4517000000000001,-45.581998081651484
-0.4527,-45.75176343763528
-0.4537000000000001,-45.89323456762179
-0.4547,-46.062999923605595
-0.4557000000000001,-46.19032394059345
-0.4567,-46.3176479575813
-0.4577000000000001,-46.501560426563756
-0.4587,-46.67132578254756
-0.4597000000000001,-46.88353247752732
-0.4607,-47.067444946509774
-0.4617000000000001,-47.23721030249357
-0.4627,-47.36453431948143
-0.4637000000000001,-47.54844678846388
-0.4647,-47.67577080545174
-0.4657000000000001,-47.80309482243959
-0.4667,-47.93041883942744
-0.4677000000000001,-48.114331308409895
-0.4687,-48.2840966643937
-0.4697000000000001,-48.45386202037751
-0.4707,-48.68021582835591
-0.4717000000000001,-48.89242252333566
-0.4727,-49.076334992318124
-0.4737000000000001,-49.28854168729788
-0.4747,-49.41586570428573
-0.4757000000000001,-49.642219512264134
-0.4767,-49.81198486824794
-0.4777000000000001,-49.98175022423175
-0.4787,-50.1656626932142
-0.4797000000000001,-50.335428049198
-0.4807,-50.547634744177756
-0.48170000000000013,-50.77398855215617
-0.4827,-50.943753908139975
-0.48370000000000013,-51.127666377122424
-0.4847,-51.29743173310623
-0.48570000000000013,-51.509638428085985
-0.4867,-51.69355089706845
-0.4876999999999999,-51.86331625305225
-0.4887,-52.11796428702795
-0.4896999999999999,-52.30187675601041
-0.4907,-52.59896612898206
-0.4916999999999999,-52.82531993696047
-0.4927,-53.03752663194023
-0.4936999999999999,-53.26388043991864
-0.49470000000000003,-53.476087134898386
-0.4956999999999999,-53.68829382987814
-0.49670000000000003,-53.91464763785655
-0.4976999999999999,-54.16929567183226
-0.49870000000000003,-54.39564947981066
-0.4996999999999999,-54.60785617479041
-0.5007,-54.876651321764776
-0.5016999999999999,-55.13129935574048
-0.5027,-55.400094502714836
-0.5036999999999999,-55.612301197694585
-0.5047,-55.838655005673
-0.5056999999999999,-56.093303039648696
-0.5067,-56.30550973462846
-0.5076999999999999,-56.57430488160282
