May 4, 2025   17:55:03
Cyclic Voltammetry
File: c:/users/guazh/data/banditlqround7_x0exp1108_r5/2025-04-30-exp1240\exp1240-2025-05-04t17_34_39-h2koh\exp1240_cv_sr_800mvs_efin_-1700mv.bin
Data Source:  Experiment
Instrument Model:  CHI760E
Header: CV ran at 800 mVs
Note: 

Init E (V) = -1
High E (V) = -1
Low E (V) = -1.7
Final E (V) = -1
Init P/N = N
Scan Rate (V/s) = 0.8
Segment = 3
Sample Interval (V) = 0.001
Quiet Time (sec) = 2
Sensitivity (A/V) = 0.01
Comp R (ohm) = 1.2

Results:

Channel 1:
Segment 1:
Ep = -1.305V
ip = 1.120e-3A
Ah = 1.387e-4C

Segment 2:

Segment 3:

Potential/V, Current/A

-1.000, 3.516e-4
-1.001, 4.010e-4
-1.002, 4.256e-4
-1.003, 4.410e-4
-1.004, 4.565e-4
-1.005, 4.688e-4
-1.006, 4.780e-4
-1.007, 4.904e-4
-1.008, 4.996e-4
-1.009, 5.089e-4
-1.010, 5.181e-4
-1.011, 5.274e-4
-1.012, 5.366e-4
-1.013, 5.428e-4
-1.014, 5.520e-4
-1.015, 5.582e-4
-1.016, 5.644e-4
-1.017, 5.705e-4
-1.018, 5.767e-4
-1.019, 5.829e-4
-1.020, 5.890e-4
-1.021, 5.921e-4
-1.022, 5.983e-4
-1.023, 6.044e-4
-1.024, 6.106e-4
-1.025, 6.168e-4
-1.026, 6.229e-4
-1.027, 6.260e-4
-1.028, 6.322e-4
-1.029, 6.353e-4
-1.030, 6.414e-4
-1.031, 6.445e-4
-1.032, 6.476e-4
-1.033, 6.538e-4
-1.034, 6.569e-4
-1.035, 6.599e-4
-1.036, 6.661e-4
-1.037, 6.723e-4
-1.038, 6.784e-4
-1.039, 6.815e-4
-1.040, 6.846e-4
-1.041, 6.908e-4
-1.042, 6.939e-4
-1.043, 6.969e-4
-1.044, 7.000e-4
-1.045, 7.031e-4
-1.046, 7.062e-4
-1.047, 7.093e-4
-1.048, 7.154e-4
-1.049, 7.185e-4
-1.050, 7.216e-4
-1.051, 7.278e-4
-1.052, 7.339e-4
-1.053, 7.370e-4
-1.054, 7.401e-4
-1.055, 7.432e-4
-1.056, 7.463e-4
-1.057, 7.494e-4
-1.058, 7.524e-4
-1.059, 7.555e-4
-1.060, 7.586e-4
-1.061, 7.648e-4
-1.062, 7.679e-4
-1.063, 7.740e-4
-1.064, 7.771e-4
-1.065, 7.833e-4
-1.066, 7.863e-4
-1.067, 7.894e-4
-1.068, 7.956e-4
-1.069, 7.956e-4
-1.070, 7.987e-4
-1.071, 8.048e-4
-1.072, 8.079e-4
-1.073, 8.110e-4
-1.074, 8.141e-4
-1.075, 8.172e-4
-1.076, 8.233e-4
-1.077, 8.264e-4
-1.078, 8.326e-4
-1.079, 8.388e-4
-1.080, 8.418e-4
-1.081, 8.449e-4
-1.082, 8.480e-4
-1.083, 8.511e-4
-1.084, 8.573e-4
-1.085, 8.573e-4
-1.086, 8.634e-4
-1.087, 8.665e-4
-1.088, 8.696e-4
-1.089, 8.758e-4
-1.090, 8.819e-4
-1.091, 8.850e-4
-1.092, 8.912e-4
-1.093, 8.943e-4
-1.094, 9.004e-4
-1.095, 9.035e-4
-1.096, 9.066e-4
-1.097, 9.128e-4
-1.098, 9.158e-4
-1.099, 9.189e-4
-1.100, 9.220e-4
-1.101, 9.282e-4
-1.102, 9.343e-4
-1.103, 9.405e-4
-1.104, 9.436e-4
-1.105, 9.498e-4
-1.106, 9.559e-4
-1.107, 9.590e-4
-1.108, 9.652e-4
-1.109, 9.683e-4
-1.110, 9.713e-4
-1.111, 9.775e-4
-1.112, 9.837e-4
-1.113, 9.868e-4
-1.114, 9.929e-4
-1.115, 9.960e-4
-1.116, 1.002e-3
-1.117, 1.008e-3
-1.118, 1.018e-3
-1.119, 1.024e-3
-1.120, 1.027e-3
-1.121, 1.036e-3
-1.122, 1.039e-3
-1.123, 1.045e-3
-1.124, 1.051e-3
-1.125, 1.055e-3
-1.126, 1.061e-3
-1.127, 1.067e-3
-1.128, 1.073e-3
-1.129, 1.079e-3
-1.130, 1.085e-3
-1.131, 1.095e-3
-1.132, 1.101e-3
-1.133, 1.107e-3
-1.134, 1.113e-3
-1.135, 1.122e-3
-1.136, 1.125e-3
-1.137, 1.135e-3
-1.138, 1.141e-3
-1.139, 1.144e-3
-1.140, 1.153e-3
-1.141, 1.159e-3
-1.142, 1.166e-3
-1.143, 1.172e-3
-1.144, 1.181e-3
-1.145, 1.190e-3
-1.146, 1.199e-3
-1.147, 1.206e-3
-1.148, 1.212e-3
-1.149, 1.218e-3
-1.150, 1.227e-3
-1.151, 1.233e-3
-1.152, 1.243e-3
-1.153, 1.249e-3
-1.154, 1.258e-3
-1.155, 1.264e-3
-1.156, 1.277e-3
-1.157, 1.283e-3
-1.158, 1.295e-3
-1.159, 1.301e-3
-1.160, 1.310e-3
-1.161, 1.320e-3
-1.162, 1.329e-3
-1.163, 1.338e-3
-1.164, 1.347e-3
-1.165, 1.354e-3
-1.166, 1.363e-3
-1.167, 1.372e-3
-1.168, 1.381e-3
-1.169, 1.394e-3
-1.170, 1.403e-3
-1.171, 1.415e-3
-1.172, 1.425e-3
-1.173, 1.434e-3
-1.174, 1.446e-3
-1.175, 1.455e-3
-1.176, 1.465e-3
-1.177, 1.474e-3
-1.178, 1.483e-3
-1.179, 1.495e-3
-1.180, 1.505e-3
-1.181, 1.517e-3
-1.182, 1.526e-3
-1.183, 1.539e-3
-1.184, 1.551e-3
-1.185, 1.563e-3
-1.186, 1.576e-3
-1.187, 1.588e-3
-1.188, 1.600e-3
-1.189, 1.610e-3
-1.190, 1.622e-3
-1.191, 1.634e-3
-1.192, 1.643e-3
-1.193, 1.656e-3
-1.194, 1.668e-3
-1.195, 1.677e-3
-1.196, 1.693e-3
-1.197, 1.705e-3
-1.198, 1.721e-3
-1.199, 1.733e-3
-1.200, 1.745e-3
-1.201, 1.761e-3
-1.202, 1.773e-3
-1.203, 1.785e-3
-1.204, 1.798e-3
-1.205, 1.810e-3
-1.206, 1.822e-3
-1.207, 1.838e-3
-1.208, 1.847e-3
-1.209, 1.862e-3
-1.210, 1.878e-3
-1.211, 1.890e-3
-1.212, 1.909e-3
-1.213, 1.921e-3
-1.214, 1.933e-3
-1.215, 1.949e-3
-1.216, 1.961e-3
-1.217, 1.973e-3
-1.218, 1.989e-3
-1.219, 2.001e-3
-1.220, 2.013e-3
-1.221, 2.026e-3
-1.222, 2.038e-3
-1.223, 2.054e-3
-1.224, 2.069e-3
-1.225, 2.084e-3
-1.226, 2.100e-3
-1.227, 2.112e-3
-1.228, 2.128e-3
-1.229, 2.143e-3
-1.230, 2.155e-3
-1.231, 2.168e-3
-1.232, 2.180e-3
-1.233, 2.195e-3
-1.234, 2.208e-3
-1.235, 2.220e-3
-1.236, 2.235e-3
-1.237, 2.251e-3
-1.238, 2.266e-3
-1.239, 2.279e-3
-1.240, 2.291e-3
-1.241, 2.306e-3
-1.242, 2.319e-3
-1.243, 2.334e-3
-1.244, 2.343e-3
-1.245, 2.356e-3
-1.246, 2.368e-3
-1.247, 2.380e-3
-1.248, 2.396e-3
-1.249, 2.408e-3
-1.250, 2.420e-3
-1.251, 2.433e-3
-1.252, 2.448e-3
-1.253, 2.464e-3
-1.254, 2.473e-3
-1.255, 2.485e-3
-1.256, 2.497e-3
-1.257, 2.510e-3
-1.258, 2.519e-3
-1.259, 2.531e-3
-1.260, 2.541e-3
-1.261, 2.553e-3
-1.262, 2.562e-3
-1.263, 2.575e-3
-1.264, 2.587e-3
-1.265, 2.599e-3
-1.266, 2.612e-3
-1.267, 2.621e-3
-1.268, 2.630e-3
-1.269, 2.639e-3
-1.270, 2.649e-3
-1.271, 2.658e-3
-1.272, 2.667e-3
-1.273, 2.673e-3
-1.274, 2.682e-3
-1.275, 2.692e-3
-1.276, 2.701e-3
-1.277, 2.710e-3
-1.278, 2.716e-3
-1.279, 2.726e-3
-1.280, 2.735e-3
-1.281, 2.741e-3
-1.282, 2.747e-3
-1.283, 2.753e-3
-1.284, 2.760e-3
-1.285, 2.763e-3
-1.286, 2.769e-3
-1.287, 2.775e-3
-1.288, 2.778e-3
-1.289, 2.784e-3
-1.290, 2.787e-3
-1.291, 2.790e-3
-1.292, 2.797e-3
-1.293, 2.803e-3
-1.294, 2.806e-3
-1.295, 2.809e-3
-1.296, 2.812e-3
-1.297, 2.812e-3
-1.298, 2.812e-3
-1.299, 2.815e-3
-1.300, 2.815e-3
-1.301, 2.815e-3
-1.302, 2.815e-3
-1.303, 2.815e-3
-1.304, 2.815e-3
-1.305, 2.818e-3
-1.306, 2.815e-3
-1.307, 2.815e-3
-1.308, 2.815e-3
-1.309, 2.812e-3
-1.310, 2.812e-3
-1.311, 2.806e-3
-1.312, 2.803e-3
-1.313, 2.800e-3
-1.314, 2.797e-3
-1.315, 2.793e-3
-1.316, 2.793e-3
-1.317, 2.790e-3
-1.318, 2.787e-3
-1.319, 2.787e-3
-1.320, 2.784e-3
-1.321, 2.781e-3
-1.322, 2.781e-3
-1.323, 2.778e-3
-1.324, 2.775e-3
-1.325, 2.772e-3
-1.326, 2.769e-3
-1.327, 2.769e-3
-1.328, 2.763e-3
-1.329, 2.766e-3
-1.330, 2.763e-3
-1.331, 2.763e-3
-1.332, 2.760e-3
-1.333, 2.760e-3
-1.334, 2.756e-3
-1.335, 2.753e-3
-1.336, 2.750e-3
-1.337, 2.747e-3
-1.338, 2.744e-3
-1.339, 2.741e-3
-1.340, 2.741e-3
-1.341, 2.738e-3
-1.342, 2.738e-3
-1.343, 2.738e-3
-1.344, 2.735e-3
-1.345, 2.738e-3
-1.346, 2.741e-3
-1.347, 2.741e-3
-1.348, 2.741e-3
-1.349, 2.741e-3
-1.350, 2.741e-3
-1.351, 2.744e-3
-1.352, 2.744e-3
-1.353, 2.744e-3
-1.354, 2.747e-3
-1.355, 2.750e-3
-1.356, 2.753e-3
-1.357, 2.756e-3
-1.358, 2.760e-3
-1.359, 2.766e-3
-1.360, 2.769e-3
-1.361, 2.772e-3
-1.362, 2.775e-3
-1.363, 2.778e-3
-1.364, 2.781e-3
-1.365, 2.784e-3
-1.366, 2.787e-3
-1.367, 2.790e-3
-1.368, 2.793e-3
-1.369, 2.800e-3
-1.370, 2.806e-3
-1.371, 2.812e-3
-1.372, 2.821e-3
-1.373, 2.827e-3
-1.374, 2.834e-3
-1.375, 2.840e-3
-1.376, 2.843e-3
-1.377, 2.849e-3
-1.378, 2.855e-3
-1.379, 2.864e-3
-1.380, 2.871e-3
-1.381, 2.877e-3
-1.382, 2.886e-3
-1.383, 2.892e-3
-1.384, 2.901e-3
-1.385, 2.911e-3
-1.386, 2.920e-3
-1.387, 2.926e-3
-1.388, 2.935e-3
-1.389, 2.941e-3
-1.390, 2.951e-3
-1.391, 2.957e-3
-1.392, 2.966e-3
-1.393, 2.975e-3
-1.394, 2.982e-3
-1.395, 2.988e-3
-1.396, 3.000e-3
-1.397, 3.009e-3
-1.398, 3.019e-3
-1.399, 3.028e-3
-1.400, 3.037e-3
-1.401, 3.046e-3
-1.402, 3.056e-3
-1.403, 3.062e-3
-1.404, 3.071e-3
-1.405, 3.077e-3
-1.406, 3.086e-3
-1.407, 3.096e-3
-1.408, 3.105e-3
-1.409, 3.117e-3
-1.410, 3.126e-3
-1.411, 3.136e-3
-1.412, 3.145e-3
-1.413, 3.157e-3
-1.414, 3.167e-3
-1.415, 3.176e-3
-1.416, 3.185e-3
-1.417, 3.197e-3
-1.418, 3.204e-3
-1.419, 3.213e-3
-1.420, 3.225e-3
-1.421, 3.234e-3
-1.422, 3.244e-3
-1.423, 3.256e-3
-1.424, 3.265e-3
-1.425, 3.274e-3
-1.426, 3.287e-3
-1.427, 3.299e-3
-1.428, 3.308e-3
-1.429, 3.318e-3
-1.430, 3.327e-3
-1.431, 3.336e-3
-1.432, 3.345e-3
-1.433, 3.355e-3
-1.434, 3.367e-3
-1.435, 3.376e-3
-1.436, 3.385e-3
-1.437, 3.395e-3
-1.438, 3.410e-3
-1.439, 3.419e-3
-1.440, 3.432e-3
-1.441, 3.438e-3
-1.442, 3.450e-3
-1.443, 3.459e-3
-1.444, 3.469e-3
-1.445, 3.475e-3
-1.446, 3.487e-3
-1.447, 3.496e-3
-1.448, 3.506e-3
-1.449, 3.518e-3
-1.450, 3.530e-3
-1.451, 3.540e-3
-1.452, 3.552e-3
-1.453, 3.561e-3
-1.454, 3.570e-3
-1.455, 3.583e-3
-1.456, 3.592e-3
-1.457, 3.601e-3
-1.458, 3.610e-3
-1.459, 3.623e-3
-1.460, 3.635e-3
-1.461, 3.644e-3
-1.462, 3.654e-3
-1.463, 3.666e-3
-1.464, 3.675e-3
-1.465, 3.688e-3
-1.466, 3.700e-3
-1.467, 3.709e-3
-1.468, 3.725e-3
-1.469, 3.731e-3
-1.470, 3.743e-3
-1.471, 3.752e-3
-1.472, 3.762e-3
-1.473, 3.771e-3
-1.474, 3.780e-3
-1.475, 3.789e-3
-1.476, 3.805e-3
-1.477, 3.814e-3
-1.478, 3.826e-3
-1.479, 3.839e-3
-1.480, 3.848e-3
-1.481, 3.860e-3
-1.482, 3.869e-3
-1.483, 3.879e-3
-1.484, 3.891e-3
-1.485, 3.900e-3
-1.486, 3.910e-3
-1.487, 3.922e-3
-1.488, 3.934e-3
-1.489, 3.943e-3
-1.490, 3.956e-3
-1.491, 3.971e-3
-1.492, 3.984e-3
-1.493, 3.996e-3
-1.494, 4.008e-3
-1.495, 4.021e-3
-1.496, 4.036e-3
-1.497, 4.045e-3
-1.498, 4.058e-3
-1.499, 4.070e-3
-1.500, 4.082e-3
-1.501, 4.095e-3
-1.502, 4.107e-3
-1.503, 4.122e-3
-1.504, 4.135e-3
-1.505, 4.150e-3
-1.506, 4.165e-3
-1.507, 4.178e-3
-1.508, 4.193e-3
-1.509, 4.206e-3
-1.510, 4.218e-3
-1.511, 4.230e-3
-1.512, 4.246e-3
-1.513, 4.255e-3
-1.514, 4.270e-3
-1.515, 4.286e-3
-1.516, 4.301e-3
-1.517, 4.313e-3
-1.518, 4.329e-3
-1.519, 4.347e-3
-1.520, 4.363e-3
-1.521, 4.378e-3
-1.522, 4.394e-3
-1.523, 4.406e-3
-1.524, 4.424e-3
-1.525, 4.440e-3
-1.526, 4.455e-3
-1.527, 4.471e-3
-1.528, 4.486e-3
-1.529, 4.508e-3
-1.530, 4.523e-3
-1.531, 4.542e-3
-1.532, 4.560e-3
-1.533, 4.582e-3
-1.534, 4.600e-3
-1.535, 4.619e-3
-1.536, 4.634e-3
-1.537, 4.653e-3
-1.538, 4.671e-3
-1.539, 4.690e-3
-1.540, 4.708e-3
-1.541, 4.730e-3
-1.542, 4.748e-3
-1.543, 4.770e-3
-1.544, 4.791e-3
-1.545, 4.810e-3
-1.546, 4.831e-3
-1.547, 4.853e-3
-1.548, 4.875e-3
-1.549, 4.893e-3
-1.550, 4.915e-3
-1.551, 4.933e-3
-1.552, 4.955e-3
-1.553, 4.973e-3
-1.554, 4.998e-3
-1.555, 5.019e-3
-1.556, 5.044e-3
-1.557, 5.066e-3
-1.558, 5.090e-3
-1.559, 5.112e-3
-1.560, 5.140e-3
-1.561, 5.164e-3
-1.562, 5.189e-3
-1.563, 5.211e-3
-1.564, 5.238e-3
-1.565, 5.260e-3
-1.566, 5.285e-3
-1.567, 5.309e-3
-1.568, 5.334e-3
-1.569, 5.362e-3
-1.570, 5.389e-3
-1.571, 5.414e-3
-1.572, 5.445e-3
-1.573, 5.473e-3
-1.574, 5.500e-3
-1.575, 5.531e-3
-1.576, 5.559e-3
-1.577, 5.587e-3
-1.578, 5.618e-3
-1.579, 5.645e-3
-1.580, 5.676e-3
-1.581, 5.704e-3
-1.582, 5.735e-3
-1.583, 5.766e-3
-1.584, 5.796e-3
-1.585, 5.830e-3
-1.586, 5.864e-3
-1.587, 5.895e-3
-1.588, 5.929e-3
-1.589, 5.960e-3
-1.590, 5.991e-3
-1.591, 6.028e-3
-1.592, 6.058e-3
-1.593, 6.095e-3
-1.594, 6.129e-3
-1.595, 6.163e-3
-1.596, 6.200e-3
-1.597, 6.240e-3
-1.598, 6.274e-3
-1.599, 6.314e-3
-1.600, 6.351e-3
-1.601, 6.391e-3
-1.602, 6.428e-3
-1.603, 6.465e-3
-1.604, 6.506e-3
-1.605, 6.543e-3
-1.606, 6.580e-3
-1.607, 6.620e-3
-1.608, 6.660e-3
-1.609, 6.700e-3
-1.610, 6.740e-3
-1.611, 6.783e-3
-1.612, 6.823e-3
-1.613, 6.866e-3
-1.614, 6.912e-3
-1.615, 6.956e-3
-1.616, 6.996e-3
-1.617, 7.039e-3
-1.618, 7.082e-3
-1.619, 7.128e-3
-1.620, 7.171e-3
-1.621, 7.218e-3
-1.622, 7.264e-3
-1.623, 7.310e-3
-1.624, 7.356e-3
-1.625, 7.409e-3
-1.626, 7.458e-3
-1.627, 7.504e-3
-1.628, 7.554e-3
-1.629, 7.603e-3
-1.630, 7.649e-3
-1.631, 7.699e-3
-1.632, 7.745e-3
-1.633, 7.794e-3
-1.634, 7.847e-3
-1.635, 7.896e-3
-1.636, 7.951e-3
-1.637, 8.004e-3
-1.638, 8.062e-3
-1.639, 8.115e-3
-1.640, 8.167e-3
-1.641, 8.220e-3
-1.642, 8.275e-3
-1.643, 8.325e-3
-1.644, 8.380e-3
-1.645, 8.432e-3
-1.646, 8.485e-3
-1.647, 8.540e-3
-1.648, 8.596e-3
-1.649, 8.654e-3
-1.650, 8.713e-3
-1.651, 8.769e-3
-1.652, 8.830e-3
-1.653, 8.889e-3
-1.654, 8.950e-3
-1.655, 9.009e-3
-1.656, 9.068e-3
-1.657, 9.126e-3
-1.658, 9.185e-3
-1.659, 9.243e-3
-1.660, 9.305e-3
-1.661, 9.364e-3
-1.662, 9.425e-3
-1.663, 9.490e-3
-1.664, 9.555e-3
-1.665, 9.623e-3
-1.666, 9.687e-3
-1.667, 9.752e-3
-1.668, 9.820e-3
-1.669, 9.885e-3
-1.670, 9.949e-3
-1.671, 1.002e-2
-1.672, 1.008e-2
-1.673, 1.015e-2
-1.674, 1.022e-2
-1.675, 1.029e-2
-1.676, 1.036e-2
-1.677, 1.043e-2
-1.678, 1.050e-2
-1.679, 1.058e-2
-1.680, 1.065e-2
-1.681, 1.072e-2
-1.682, 1.079e-2
-1.683, 1.087e-2
-1.684, 1.094e-2
-1.685, 1.101e-2
-1.686, 1.109e-2
-1.687, 1.116e-2
-1.688, 1.124e-2
-1.689, 1.131e-2
-1.690, 1.139e-2
-1.691, 1.146e-2
-1.692, 1.154e-2
-1.693, 1.162e-2
-1.694, 1.169e-2
-1.695, 1.177e-2
-1.696, 1.185e-2
-1.697, 1.193e-2
-1.698, 1.200e-2
-1.699, 1.208e-2
-1.700, 1.208e-2
-1.699, 1.199e-2
-1.698, 1.191e-2
-1.697, 1.184e-2
-1.696, 1.176e-2
-1.695, 1.169e-2
-1.694, 1.161e-2
-1.693, 1.154e-2
-1.692, 1.146e-2
-1.691, 1.139e-2
-1.690, 1.131e-2
-1.689, 1.123e-2
-1.688, 1.116e-2
-1.687, 1.108e-2
-1.686, 1.101e-2
-1.685, 1.093e-2
-1.684, 1.086e-2
-1.683, 1.079e-2
-1.682, 1.072e-2
-1.681, 1.065e-2
-1.680, 1.058e-2
-1.679, 1.050e-2
-1.678, 1.043e-2
-1.677, 1.036e-2
-1.676, 1.029e-2
-1.675, 1.022e-2
-1.674, 1.014e-2
-1.673, 1.007e-2
-1.672, 1.000e-2
-1.671, 9.937e-3
-1.670, 9.866e-3
-1.669, 9.798e-3
-1.668, 9.727e-3
-1.667, 9.663e-3
-1.666, 9.595e-3
-1.665, 9.527e-3
-1.664, 9.459e-3
-1.663, 9.388e-3
-1.662, 9.317e-3
-1.661, 9.253e-3
-1.660, 9.185e-3
-1.659, 9.126e-3
-1.658, 9.061e-3
-1.657, 9.000e-3
-1.656, 8.938e-3
-1.655, 8.876e-3
-1.654, 8.815e-3
-1.653, 8.753e-3
-1.652, 8.691e-3
-1.651, 8.627e-3
-1.650, 8.559e-3
-1.649, 8.491e-3
-1.648, 8.426e-3
-1.647, 8.358e-3
-1.646, 8.297e-3
-1.645, 8.235e-3
-1.644, 8.183e-3
-1.643, 8.115e-3
-1.642, 8.050e-3
-1.641, 7.988e-3
-1.640, 7.930e-3
-1.639, 7.865e-3
-1.638, 7.800e-3
-1.637, 7.739e-3
-1.636, 7.674e-3
-1.635, 7.612e-3
-1.634, 7.548e-3
-1.633, 7.492e-3
-1.632, 7.434e-3
-1.631, 7.381e-3
-1.630, 7.323e-3
-1.629, 7.267e-3
-1.628, 7.212e-3
-1.627, 7.159e-3
-1.626, 7.101e-3
-1.625, 7.045e-3
-1.624, 6.986e-3
-1.623, 6.925e-3
-1.622, 6.872e-3
-1.621, 6.817e-3
-1.620, 6.758e-3
-1.619, 6.706e-3
-1.618, 6.650e-3
-1.617, 6.595e-3
-1.616, 6.543e-3
-1.615, 6.490e-3
-1.614, 6.438e-3
-1.613, 6.385e-3
-1.612, 6.333e-3
-1.611, 6.277e-3
-1.610, 6.225e-3
-1.609, 6.173e-3
-1.608, 6.123e-3
-1.607, 6.071e-3
-1.606, 6.015e-3
-1.605, 5.966e-3
-1.604, 5.920e-3
-1.603, 5.870e-3
-1.602, 5.821e-3
-1.601, 5.772e-3
-1.600, 5.725e-3
-1.599, 5.670e-3
-1.598, 5.621e-3
-1.597, 5.565e-3
-1.596, 5.513e-3
-1.595, 5.463e-3
-1.594, 5.417e-3
-1.593, 5.371e-3
-1.592, 5.325e-3
-1.591, 5.278e-3
-1.590, 5.235e-3
-1.589, 5.192e-3
-1.588, 5.149e-3
-1.587, 5.109e-3
-1.586, 5.060e-3
-1.585, 5.019e-3
-1.584, 4.976e-3
-1.583, 4.930e-3
-1.582, 4.890e-3
-1.581, 4.844e-3
-1.580, 4.801e-3
-1.579, 4.757e-3
-1.578, 4.714e-3
-1.577, 4.674e-3
-1.576, 4.637e-3
-1.575, 4.597e-3
-1.574, 4.551e-3
-1.573, 4.511e-3
-1.572, 4.474e-3
-1.571, 4.434e-3
-1.570, 4.391e-3
-1.569, 4.354e-3
-1.568, 4.310e-3
-1.567, 4.267e-3
-1.566, 4.224e-3
-1.565, 4.184e-3
-1.564, 4.150e-3
-1.563, 4.113e-3
-1.562, 4.079e-3
-1.561, 4.045e-3
-1.560, 4.014e-3
-1.559, 3.974e-3
-1.558, 3.940e-3
-1.557, 3.906e-3
-1.556, 3.869e-3
-1.555, 3.832e-3
-1.554, 3.799e-3
-1.553, 3.762e-3
-1.552, 3.728e-3
-1.551, 3.694e-3
-1.550, 3.663e-3
-1.549, 3.629e-3
-1.548, 3.595e-3
-1.547, 3.564e-3
-1.546, 3.533e-3
-1.545, 3.503e-3
-1.544, 3.469e-3
-1.543, 3.438e-3
-1.542, 3.407e-3
-1.541, 3.373e-3
-1.540, 3.342e-3
-1.539, 3.311e-3
-1.538, 3.281e-3
-1.537, 3.247e-3
-1.536, 3.219e-3
-1.535, 3.191e-3
-1.534, 3.160e-3
-1.533, 3.133e-3
-1.532, 3.105e-3
-1.531, 3.077e-3
-1.530, 3.046e-3
-1.529, 3.019e-3
-1.528, 2.988e-3
-1.527, 2.960e-3
-1.526, 2.929e-3
-1.525, 2.904e-3
-1.524, 2.877e-3
-1.523, 2.849e-3
-1.522, 2.824e-3
-1.521, 2.797e-3
-1.520, 2.772e-3
-1.519, 2.747e-3
-1.518, 2.723e-3
-1.517, 2.695e-3
-1.516, 2.667e-3
-1.515, 2.642e-3
-1.514, 2.615e-3
-1.513, 2.590e-3
-1.512, 2.562e-3
-1.511, 2.538e-3
-1.510, 2.513e-3
-1.509, 2.485e-3
-1.508, 2.457e-3
-1.507, 2.436e-3
-1.506, 2.411e-3
-1.505, 2.386e-3
-1.504, 2.362e-3
-1.503, 2.337e-3
-1.502, 2.312e-3
-1.501, 2.288e-3
-1.500, 2.266e-3
-1.499, 2.242e-3
-1.498, 2.217e-3
-1.497, 2.195e-3
-1.496, 2.171e-3
-1.495, 2.152e-3
-1.494, 2.131e-3
-1.493, 2.109e-3
-1.492, 2.091e-3
-1.491, 2.066e-3
-1.490, 2.047e-3
-1.489, 2.023e-3
-1.488, 2.004e-3
-1.487, 1.983e-3
-1.486, 1.964e-3
-1.485, 1.943e-3
-1.484, 1.921e-3
-1.483, 1.902e-3
-1.482, 1.884e-3
-1.481, 1.865e-3
-1.480, 1.847e-3
-1.479, 1.828e-3
-1.478, 1.810e-3
-1.477, 1.791e-3
-1.476, 1.770e-3
-1.475, 1.751e-3
-1.474, 1.733e-3
-1.473, 1.714e-3
-1.472, 1.696e-3
-1.471, 1.677e-3
-1.470, 1.662e-3
-1.469, 1.643e-3
-1.468, 1.628e-3
-1.467, 1.613e-3
-1.466, 1.594e-3
-1.465, 1.579e-3
-1.464, 1.560e-3
-1.463, 1.545e-3
-1.462, 1.526e-3
-1.461, 1.511e-3
-1.460, 1.492e-3
-1.459, 1.477e-3
-1.458, 1.462e-3
-1.457, 1.446e-3
-1.456, 1.431e-3
-1.455, 1.415e-3
-1.454, 1.403e-3
-1.453, 1.388e-3
-1.452, 1.372e-3
-1.451, 1.357e-3
-1.450, 1.341e-3
-1.449, 1.326e-3
-1.448, 1.310e-3
-1.447, 1.292e-3
-1.446, 1.280e-3
-1.445, 1.264e-3
-1.444, 1.249e-3
-1.443, 1.236e-3
-1.442, 1.224e-3
-1.441, 1.212e-3
-1.440, 1.196e-3
-1.439, 1.184e-3
-1.438, 1.172e-3
-1.437, 1.156e-3
-1.436, 1.141e-3
-1.435, 1.129e-3
-1.434, 1.113e-3
-1.433, 1.098e-3
-1.432, 1.085e-3
-1.431, 1.073e-3
-1.430, 1.064e-3
-1.429, 1.051e-3
-1.428, 1.036e-3
-1.427, 1.024e-3
-1.426, 1.011e-3
-1.425, 9.991e-4
-1.424, 9.868e-4
-1.423, 9.713e-4
-1.422, 9.590e-4
-1.421, 9.467e-4
-1.420, 9.343e-4
-1.419, 9.189e-4
-1.418, 9.066e-4
-1.417, 8.943e-4
-1.416, 8.850e-4
-1.415, 8.758e-4
-1.414, 8.634e-4
-1.413, 8.542e-4
-1.412, 8.388e-4
-1.411, 8.295e-4
-1.410, 8.172e-4
-1.409, 8.048e-4
-1.408, 7.925e-4
-1.407, 7.802e-4
-1.406, 7.709e-4
-1.405, 7.617e-4
-1.404, 7.494e-4
-1.403, 7.370e-4
-1.402, 7.278e-4
-1.401, 7.185e-4
-1.400, 7.093e-4
-1.399, 6.969e-4
-1.398, 6.877e-4
-1.397, 6.754e-4
-1.396, 6.661e-4
-1.395, 6.538e-4
-1.394, 6.414e-4
-1.393, 6.322e-4
-1.392, 6.229e-4
-1.391, 6.137e-4
-1.390, 6.044e-4
-1.389, 5.921e-4
-1.388, 5.859e-4
-1.387, 5.736e-4
-1.386, 5.644e-4
-1.385, 5.551e-4
-1.384, 5.459e-4
-1.383, 5.335e-4
-1.382, 5.243e-4
-1.381, 5.150e-4
-1.380, 5.058e-4
-1.379, 4.935e-4
-1.378, 4.842e-4
-1.377, 4.750e-4
-1.376, 4.688e-4
-1.375, 4.595e-4
-1.374, 4.534e-4
-1.373, 4.441e-4
-1.372, 4.349e-4
-1.371, 4.256e-4
-1.370, 4.164e-4
-1.369, 4.071e-4
-1.368, 4.010e-4
-1.367, 3.886e-4
-1.366, 3.825e-4
-1.365, 3.732e-4
-1.364, 3.670e-4
-1.363, 3.578e-4
-1.362, 3.485e-4
-1.361, 3.424e-4
-1.360, 3.331e-4
-1.359, 3.270e-4
-1.358, 3.177e-4
-1.357, 3.085e-4
-1.356, 2.992e-4
-1.355, 2.900e-4
-1.354, 2.807e-4
-1.353, 2.715e-4
-1.352, 2.653e-4
-1.351, 2.561e-4
-1.350, 2.499e-4
-1.349, 2.437e-4
-1.348, 2.345e-4
-1.347, 2.283e-4
-1.346, 2.191e-4
-1.345, 2.129e-4
-1.344, 2.036e-4
-1.343, 1.944e-4
-1.342, 1.882e-4
-1.341, 1.790e-4
-1.340, 1.697e-4
-1.339, 1.636e-4
-1.338, 1.543e-4
-1.337, 1.481e-4
-1.336, 1.420e-4
-1.335, 1.358e-4
-1.334, 1.266e-4
-1.333, 1.204e-4
-1.332, 1.111e-4
-1.331, 1.050e-4
-1.330, 9.573e-5
-1.329, 8.957e-5
-1.328, 8.032e-5
-1.327, 7.415e-5
-1.326, 6.798e-5
-1.325, 5.873e-5
-1.324, 5.257e-5
-1.323, 4.640e-5
-1.322, 4.024e-5
-1.321, 3.407e-5
-1.320, 2.790e-5
-1.319, 1.865e-5
-1.318, 1.249e-5
-1.317, 3.239e-6
-1.316, -2.927e-6
-1.315, -1.218e-5
-1.314, -1.834e-5
-1.313, -2.451e-5
-1.312, -3.376e-5
-1.311, -3.992e-5
-1.310, -4.609e-5
-1.309, -4.917e-5
-1.308, -5.534e-5
-1.307, -6.151e-5
-1.306, -7.076e-5
-1.305, -7.384e-5
-1.304, -8.309e-5
-1.303, -8.925e-5
-1.302, -9.542e-5
-1.301, -1.016e-4
-1.300, -1.108e-4
-1.299, -1.170e-4
-1.298, -1.232e-4
-1.297, -1.293e-4
-1.296, -1.355e-4
-1.295, -1.386e-4
-1.294, -1.448e-4
-1.293, -1.509e-4
-1.292, -1.602e-4
-1.291, -1.632e-4
-1.290, -1.694e-4
-1.289, -1.787e-4
-1.288, -1.817e-4
-1.287, -1.910e-4
-1.286, -1.972e-4
-1.285, -2.033e-4
-1.284, -2.095e-4
-1.283, -2.126e-4
-1.282, -2.187e-4
-1.281, -2.218e-4
-1.280, -2.311e-4
-1.279, -2.342e-4
-1.278, -2.403e-4
-1.277, -2.465e-4
-1.276, -2.527e-4
-1.275, -2.619e-4
-1.274, -2.681e-4
-1.273, -2.742e-4
-1.272, -2.773e-4
-1.271, -2.866e-4
-1.270, -2.897e-4
-1.269, -2.927e-4
-1.268, -2.989e-4
-1.267, -3.020e-4
-1.266, -3.082e-4
-1.265, -3.143e-4
-1.264, -3.205e-4
-1.263, -3.267e-4
-1.262, -3.297e-4
-1.261, -3.359e-4
-1.260, -3.421e-4
-1.259, -3.482e-4
-1.258, -3.544e-4
-1.257, -3.606e-4
-1.256, -3.637e-4
-1.255, -3.667e-4
-1.254, -3.729e-4
-1.253, -3.791e-4
-1.252, -3.821e-4
-1.251, -3.883e-4
-1.250, -3.945e-4
-1.249, -4.006e-4
-1.248, -4.068e-4
-1.247, -4.130e-4
-1.246, -4.191e-4
-1.245, -4.222e-4
-1.244, -4.315e-4
-1.243, -4.346e-4
-1.242, -4.376e-4
-1.241, -4.407e-4
-1.240, -4.469e-4
-1.239, -4.531e-4
-1.238, -4.561e-4
-1.237, -4.623e-4
-1.236, -4.685e-4
-1.235, -4.746e-4
-1.234, -4.808e-4
-1.233, -4.839e-4
-1.232, -4.901e-4
-1.231, -4.962e-4
-1.230, -4.993e-4
-1.229, -5.055e-4
-1.228, -5.086e-4
-1.227, -5.116e-4
-1.226, -5.147e-4
-1.225, -5.209e-4
-1.224, -5.271e-4
-1.223, -5.301e-4
-1.222, -5.363e-4
-1.221, -5.425e-4
-1.220, -5.486e-4
-1.219, -5.517e-4
-1.218, -5.579e-4
-1.217, -5.610e-4
-1.216, -5.641e-4
-1.215, -5.671e-4
-1.214, -5.733e-4
-1.213, -5.764e-4
-1.212, -5.826e-4
-1.211, -5.887e-4
-1.210, -5.949e-4
-1.209, -6.011e-4
-1.208, -6.072e-4
-1.207, -6.134e-4
-1.206, -6.195e-4
-1.205, -6.257e-4
-1.204, -6.257e-4
-1.203, -6.288e-4
-1.202, -6.319e-4
-1.201, -6.350e-4
-1.200, -6.380e-4
-1.199, -6.442e-4
-1.198, -6.473e-4
-1.197, -6.535e-4
-1.196, -6.565e-4
-1.195, -6.596e-4
-1.194, -6.658e-4
-1.193, -6.689e-4
-1.192, -6.750e-4
-1.191, -6.781e-4
-1.190, -6.812e-4
-1.189, -6.843e-4
-1.188, -6.874e-4
-1.187, -6.905e-4
-1.186, -6.935e-4
-1.185, -6.997e-4
-1.184, -7.028e-4
-1.183, -7.090e-4
-1.182, -7.120e-4
-1.181, -7.182e-4
-1.180, -7.213e-4
-1.179, -7.244e-4
-1.178, -7.336e-4
-1.177, -7.336e-4
-1.176, -7.367e-4
-1.175, -7.398e-4
-1.174, -7.460e-4
-1.173, -7.490e-4
-1.172, -7.521e-4
-1.171, -7.583e-4
-1.170, -7.645e-4
-1.169, -7.675e-4
-1.168, -7.737e-4
-1.167, -7.799e-4
-1.166, -7.830e-4
-1.165, -7.891e-4
-1.164, -7.922e-4
-1.163, -7.953e-4
-1.162, -7.984e-4
-1.161, -8.015e-4
-1.160, -8.076e-4
-1.159, -8.107e-4
-1.158, -8.169e-4
-1.157, -8.200e-4
-1.156, -8.261e-4
-1.155, -8.323e-4
-1.154, -8.385e-4
-1.153, -8.415e-4
-1.152, -8.477e-4
-1.151, -8.508e-4
-1.150, -8.569e-4
-1.149, -8.600e-4
-1.148, -8.631e-4
-1.147, -8.662e-4
-1.146, -8.724e-4
-1.145, -8.754e-4
-1.144, -8.816e-4
-1.143, -8.878e-4
-1.142, -8.909e-4
-1.141, -8.970e-4
-1.140, -9.032e-4
-1.139, -9.094e-4
-1.138, -9.124e-4
-1.137, -9.186e-4
-1.136, -9.217e-4
-1.135, -9.248e-4
-1.134, -9.279e-4
-1.133, -9.340e-4
-1.132, -9.402e-4
-1.131, -9.464e-4
-1.130, -9.525e-4
-1.129, -9.587e-4
-1.128, -9.618e-4
-1.127, -9.679e-4
-1.126, -9.741e-4
-1.125, -9.803e-4
-1.124, -9.834e-4
-1.123, -9.895e-4
-1.122, -9.926e-4
-1.121, -9.988e-4
-1.120, -1.002e-3
-1.119, -1.008e-3
-1.118, -1.014e-3
-1.117, -1.020e-3
-1.116, -1.027e-3
-1.115, -1.033e-3
-1.114, -1.042e-3
-1.113, -1.045e-3
-1.112, -1.054e-3
-1.111, -1.060e-3
-1.110, -1.064e-3
-1.109, -1.070e-3
-1.108, -1.076e-3
-1.107, -1.079e-3
-1.106, -1.085e-3
-1.105, -1.091e-3
-1.104, -1.101e-3
-1.103, -1.107e-3
-1.102, -1.113e-3
-1.101, -1.119e-3
-1.100, -1.128e-3
-1.099, -1.134e-3
-1.098, -1.141e-3
-1.097, -1.147e-3
-1.096, -1.150e-3
-1.095, -1.159e-3
-1.094, -1.165e-3
-1.093, -1.171e-3
-1.092, -1.178e-3
-1.091, -1.184e-3
-1.090, -1.190e-3
-1.089, -1.196e-3
-1.088, -1.205e-3
-1.087, -1.212e-3
-1.086, -1.218e-3
-1.085, -1.227e-3
-1.084, -1.233e-3
-1.083, -1.236e-3
-1.082, -1.245e-3
-1.081, -1.252e-3
-1.080, -1.258e-3
-1.079, -1.264e-3
-1.078, -1.270e-3
-1.077, -1.279e-3
-1.076, -1.286e-3
-1.075, -1.295e-3
-1.074, -1.304e-3
-1.073, -1.310e-3
-1.072, -1.313e-3
-1.071, -1.322e-3
-1.070, -1.329e-3
-1.069, -1.335e-3
-1.068, -1.341e-3
-1.067, -1.347e-3
-1.066, -1.353e-3
-1.065, -1.363e-3
-1.064, -1.369e-3
-1.063, -1.375e-3
-1.062, -1.384e-3
-1.061, -1.390e-3
-1.060, -1.400e-3
-1.059, -1.406e-3
-1.058, -1.412e-3
-1.057, -1.421e-3
-1.056, -1.424e-3
-1.055, -1.430e-3
-1.054, -1.437e-3
-1.053, -1.443e-3
-1.052, -1.452e-3
-1.051, -1.458e-3
-1.050, -1.464e-3
-1.049, -1.474e-3
-1.048, -1.480e-3
-1.047, -1.489e-3
-1.046, -1.495e-3
-1.045, -1.501e-3
-1.044, -1.507e-3
-1.043, -1.514e-3
-1.042, -1.520e-3
-1.041, -1.526e-3
-1.040, -1.532e-3
-1.039, -1.538e-3
-1.038, -1.544e-3
-1.037, -1.551e-3
-1.036, -1.560e-3
-1.035, -1.566e-3
-1.034, -1.572e-3
-1.033, -1.578e-3
-1.032, -1.585e-3
-1.031, -1.591e-3
-1.030, -1.597e-3
-1.029, -1.603e-3
-1.028, -1.606e-3
-1.027, -1.612e-3
-1.026, -1.618e-3
-1.025, -1.622e-3
-1.024, -1.631e-3
-1.023, -1.637e-3
-1.022, -1.643e-3
-1.021, -1.649e-3
-1.020, -1.655e-3
-1.019, -1.662e-3
-1.018, -1.665e-3
-1.017, -1.671e-3
-1.016, -1.674e-3
-1.015, -1.680e-3
-1.014, -1.683e-3
-1.013, -1.689e-3
-1.012, -1.692e-3
-1.011, -1.699e-3
-1.010, -1.705e-3
-1.009, -1.711e-3
-1.008, -1.714e-3
-1.007, -1.720e-3
-1.006, -1.726e-3
-1.005, -1.733e-3
-1.004, -1.736e-3
-1.003, -1.739e-3
-1.002, -1.742e-3
-1.001, -1.745e-3
