Potential V vs RHE, Current mA cm-2
0.4132999999999999,0.004197448426699564
0.4122999999999999,0.002273441058883114
0.4112999999999999,0.0017514125892329154
0.4102999999999999,0.001465640906660178
0.4092999999999999,0.0011573753144195867
0.4082999999999999,0.0009368218227706272
0.4072999999999999,0.0007652173420969984
0.4062999999999999,0.0006395909786689831
0.4052999999999999,0.0004650156042656376
0.4042999999999999,0.0002389447385472047
0.4032999999999999,7.704517739064989e-05
0.4022999999999999,-5.4155148558833596e-05
0.4012999999999999,-0.00014911057100577488
0.4002999999999999,-0.0002523844958959225
0.3992999999999999,-0.00046586443104555653
0.3982999999999999,-0.0006166726556111695
0.3972999999999999,-0.0006766564147254471
0.3962999999999999,-0.0007659246977469308
0.3952999999999999,-0.0008832042645057424
0.3942999999999999,-0.0010325977777714903
0.39329999999999987,-0.0011777471571376428
0.39229999999999987,-0.0012349014936521904
0.39129999999999987,-0.0013354874670725946
0.39029999999999987,-0.0014359319693630123
0.38929999999999987,-0.001575988388049651
0.38829999999999987,-0.0017273624971352096
0.38729999999999987,-0.0017514125892329154
0.38629999999999987,-0.0018433688237241427
0.38529999999999986,-0.001919763233916855
0.38429999999999986,-0.002049916673504438
0.38329999999999986,-0.0021956319373905367
0.38229999999999986,-0.002225340874687703
0.38129999999999986,-0.002280514615382439
0.38029999999999986,-0.002383788540272587
0.37929999999999986,-0.002506868423360845
0.37829999999999986,-0.0026356071516485634
0.37729999999999986,-0.0026893661810434345
0.37629999999999986,-0.0027204898296404657
0.37529999999999986,-0.002812446064131693
0.37429999999999986,-0.0029383553698196807
0.37329999999999985,-0.003058605830308209
0.37229999999999985,-0.003102461880604026
0.37129999999999985,-0.0031406590857003813
0.37029999999999985,-0.0032297858975918786
0.36929999999999985,-0.003367012893678787
0.36829999999999985,-0.0034674573959692047
0.36729999999999985,-0.0035127281575648866
0.36629999999999985,-0.003556584207860702
0.36529999999999985,-0.0036244903502542234
0.36429999999999985,-0.003747570233342482
0.36329999999999985,-0.00383952646783371
0.36229999999999984,-0.003893285497228581
0.36129999999999984,-0.003941385681423992
0.36029999999999984,-0.004019194802916569
0.35929999999999984,-0.004138030552105233
0.35829999999999984,-0.004220083807497404
0.35729999999999984,-0.00424979274479457
0.35629999999999984,-0.004302137062889576
0.35529999999999984,-0.004350237247084989
0.35429999999999984,-0.004488878954471762
0.35329999999999984,-0.004590738168062044
0.35229999999999984,-0.004611958837560019
0.35129999999999983,-0.004647326620056645
0.35029999999999983,-0.004723721030249358
0.34929999999999983,-0.004834068511638831
0.34829999999999983,-0.004901974654032352
0.34729999999999983,-0.004959977817326819
0.34629999999999983,-0.004981198486824794
0.34529999999999983,-0.005040616361419126
0.34429999999999983,-0.005155207976708194
0.3432999999999998,-0.0052400906547000956
0.3422999999999998,-0.005272629014596992
0.3412999999999998,-0.005312240930993212
0.3402999999999998,-0.005377317650787005
0.3392999999999998,-0.005483420998276882
0.3382999999999998,-0.0055612301197694594
0.3372999999999998,-0.00558952434576676
0.3362999999999998,-0.00559235376836649
0.3352999999999998,-0.005678651157658257
0.3342999999999998,-0.005796072195547055
0.3332999999999998,-0.005876710739639361
0.3322999999999998,-0.005913493233435853
0.3312999999999998,-0.005930469769034234
0.3302999999999998,-0.005991302354928431
0.3292999999999998,-0.006090332145918982
0.3282999999999998,-0.006172385401311155
0.3272999999999998,-0.006203509049908186
0.3262999999999998,-0.006210582606407511
0.3252999999999999,-0.006261512213202652
0.3242999999999999,-0.006374689117191856
0.3232999999999999,-0.0064397658369856475
0.3222999999999999,-0.006475133619482273
0.3212999999999999,-0.006506257268079304
0.3202999999999999,-0.006537380916676334
0.3192999999999999,-0.006678852046662838
0.3182999999999999,-0.00672695223085825
0.3172999999999999,-0.006749587611656089
0.3162999999999999,-0.006783540682852852
0.3152999999999999,-0.0067991025071513665
0.3142999999999999,-0.006905205854641244
0.3132999999999999,-0.007007065068231527
0.3122999999999999,-0.007011309202131121
0.3112999999999999,-0.007035359294228827
0.3102999999999999,-0.007073556499325183
0.3092999999999999,-0.007186733403314387
0.3082999999999999,-0.007282933771705209
0.3072999999999999,-0.007280104349105479
0.3062999999999999,-0.007292836750804264
0.3052999999999999,-0.007355084047998325
0.3042999999999999,-0.007439966725990228
0.3032999999999999,-0.007537581805680916
0.3022999999999999,-0.0075446553621802415
0.3012999999999999,-0.0075743642994774065
0.3002999999999999,-0.007630952751472007
0.2992999999999999,-0.00770168831646526
0.2982999999999999,-0.007804962241355407
0.2972999999999999,-0.007812035797854733
0.2962999999999999,-0.007830427044752978
0.2952999999999999,-0.007875697806348659
0.2942999999999999,-0.007978971731238807
0.2932999999999999,-0.008042633739732736
0.2922999999999999,-0.008055366141431519
0.2912999999999999,-0.008073757388329763
0.2902999999999999,-0.00811761343862558
0.2892999999999999,-0.008208154961816943
0.2882999999999999,-0.00828030523811006
0.2872999999999999,-0.008284549372009654
0.2862999999999999,-0.00830011119630817
0.2852999999999999,-0.008334064267504932
0.2842999999999999,-0.008444411748894404
0.2832999999999999,-0.008523635581686846
0.2822999999999999,-0.00852505029298671
0.2812999999999999,-0.008547685673784552
0.2802999999999999,-0.008581638744981314
0.2792999999999999,-0.008689156803771055
0.2782999999999999,-0.008751404100965117
0.2772999999999999,-0.008752818812264982
0.2762999999999999,-0.008779698326962418
0.2752999999999999,-0.008802333707760259
0.2742999999999999,-0.008929657724748111
0.2732999999999999,-0.008996149155841768
0.2722999999999999,-0.008991905021942173
0.2712999999999999,-0.00902161395923934
0.2702999999999999,-0.009066884720835021
0.2692999999999999,-0.009148937976227192
0.26829999999999987,-0.00923523536551896
0.26729999999999987,-0.009233820654219094
0.26629999999999987,-0.00923240594291923
0.26529999999999987,-0.0092861649723141
0.26429999999999987,-0.009378121206805328
0.26329999999999987,-0.009453100905698175
0.26229999999999987,-0.009470077441296555
0.26129999999999987,-0.00948563926559507
0.26029999999999986,-0.009560618964487917
0.25929999999999986,-0.00963984279728036
0.25829999999999986,-0.009679454713676582
0.25729999999999986,-0.009699260671874693
0.25629999999999986,-0.009696431249274962
0.25529999999999986,-0.00975726383516916
0.25429999999999986,-0.009860537760059306
0.25329999999999986,-0.009919955634653638
0.25229999999999986,-0.009929858613752693
0.25129999999999986,-0.009911467366854446
0.25029999999999986,-0.009969470530148914
0.24929999999999986,-0.010061426764640141
0.24829999999999985,-0.010125088773134068
0.24729999999999985,-0.010119429927934607
0.24629999999999985,-0.010130747618333527
0.24529999999999985,-0.01020997145112597
0.24429999999999985,-0.010293439417818007
0.24329999999999985,-0.010341539602013419
0.24229999999999985,-0.010350027869812609
0.24129999999999985,-0.010365589694111124
0.24029999999999985,-0.010413689878306535
0.23929999999999985,-0.010529696204895468
0.23829999999999985,-0.010593358213389395
0.23729999999999984,-0.010584869945590204
0.23629999999999984,-0.010599017058588853
0.23529999999999984,-0.010627311284586155
0.23429999999999984,-0.010780100104971579
0.23329999999999984,-0.01079424721797023
0.23229999999999984,-0.010781514816271445
0.23129999999999984,-0.010829615000466855
0.23029999999999984,-0.010863568071663617
0.22929999999999984,-0.010952694883555115
0.22829999999999984,-0.011026259871148096
0.22729999999999984,-0.011014942180749176
0.22629999999999983,-0.011037577561547015
0.22529999999999983,-0.011082848323142698
0.22429999999999983,-0.011171975135034195
0.22329999999999983,-0.011229978298328662
0.22229999999999983,-0.011232807720928393
0.22129999999999983,-0.011269590214724881
0.22029999999999983,-0.011357302315316514
0.21929999999999983,-0.011416720189910844
0.21829999999999983,-0.011471893930605584
0.21729999999999983,-0.011487455754904098
0.21629999999999983,-0.011514335269601533
0.21529999999999982,-0.01155253247469789
0.21429999999999982,-0.01162609746229087
0.21329999999999982,-0.011688344759484933
0.21229999999999982,-0.011715224274182368
0.21129999999999982,-0.011730786098480885
0.21029999999999982,-0.011776056860076566
0.20929999999999982,-0.011873671939767252
0.20829999999999982,-0.011914698567463338
0.20729999999999982,-0.011938748659561044
0.20629999999999982,-0.011947236927360235
0.20529999999999982,-0.011991092977656052
0.20429999999999982,-0.012094366902546198
0.20329999999999981,-0.012141052375441745
0.2022999999999998,-0.01217359073533864
0.2012999999999998,-0.012176420157938371
0.20029999999999992,-0.012233008609932972
0.19929999999999992,-0.012316476576625008
0.19829999999999992,-0.012380138585118937
0.19729999999999992,-0.012391456275517855
0.19629999999999992,-0.012409847522416103
0.19529999999999992,-0.012439556459713268
0.19429999999999992,-0.012607907104397208
0.19329999999999992,-0.01268430151458992
0.19229999999999992,-0.012646104309493564
0.19129999999999991,-0.012657421999892483
0.1902999999999999,-0.012681472091990189
0.1892999999999999,-0.012790404862079796
0.1882999999999999,-0.012859725715773183
0.1872999999999999,-0.012865384560972644
0.1862999999999999,-0.012900752343469268
0.1852999999999999,-0.0129318759920663
0.1842999999999999,-0.013033735205656581
0.1832999999999999,-0.013087494235051454
0.1822999999999999,-0.013066273565553479
0.1812999999999999,-0.013101641348050105
0.1802999999999999,-0.013175206335643086
0.1792999999999999,-0.013250186034535932
0.1782999999999999,-0.013318092176929456
0.1772999999999999,-0.013336483423827702
0.1762999999999999,-0.013337898135127564
0.1752999999999999,-0.013404389566221224
0.1742999999999999,-0.013497760512012314
0.1732999999999999,-0.013554348964006917
0.1722999999999999,-0.013569910788305434
0.1712999999999999,-0.013575569633504894
0.1702999999999999,-0.013640646353298685
0.1692999999999999,-0.013734017299089777
0.1682999999999999,-0.013804752864083029
0.1672999999999999,-0.013804752864083029
0.1662999999999999,-0.013825973533581002
0.1652999999999999,-0.013879732562975875
0.1642999999999999,-0.013981591776566157
0.1632999999999999,-0.014031106672061432
0.1622999999999999,-0.014039594939860626
0.1612999999999999,-0.014067889165857925
0.1602999999999999,-0.014094768680555363
0.1592999999999999,-0.014203701450644968
0.15829999999999989,-0.01424614278964092
0.15729999999999988,-0.01427443701563822
0.15629999999999988,-0.01430273124163552
0.15529999999999988,-0.014359319693630123
0.15429999999999988,-0.014444202371622025
0.15329999999999988,-0.014514937936615275
0.15229999999999988,-0.014514937936615275
0.15129999999999988,-0.014543232162612576
0.15029999999999988,-0.014585673501608528
0.14929999999999988,-0.014684703292599082
0.14829999999999988,-0.014769585970590984
0.14729999999999988,-0.014741291744593682
0.14629999999999987,-0.014783733083589632
0.14529999999999987,-0.014854468648582884
0.14429999999999987,-0.014939351326574786
0.14329999999999987,-0.015024234004566688
0.14229999999999987,-0.01503838111756534
0.14129999999999987,-0.01503838111756534
0.14029999999999987,-0.015109116682558592
0.13929999999999987,-0.015208146473549147
0.13829999999999987,-0.015264734925543746
0.13729999999999987,-0.015278882038542396
0.13629999999999987,-0.015293029151541045
0.13529999999999986,-0.015349617603535646
0.13429999999999986,-0.01543450028152755
0.13329999999999986,-0.015491088733522153
0.13229999999999986,-0.015505235846520802
0.13129999999999986,-0.015519382959519455
0.13029999999999986,-0.015575971411514053
0.12929999999999986,-0.01568914831550326
0.12829999999999986,-0.01573158965449921
0.12729999999999986,-0.01573158965449921
0.12629999999999986,-0.01575988388049651
0.12529999999999986,-0.01580232521949246
0.12429999999999986,-0.015929649236480315
0.12329999999999985,-0.01597209057547626
0.12229999999999985,-0.015986237688474913
0.12129999999999985,-0.016014531914472215
0.12029999999999985,-0.016071120366466816
0.11929999999999985,-0.01618429727045602
0.11829999999999985,-0.016226738609451972
0.11729999999999985,-0.01624088572245062
0.11629999999999985,-0.016269179948447923
0.11529999999999985,-0.016311621287443873
0.11429999999999985,-0.016424798191433075
0.11329999999999985,-0.01648138664342768
0.11229999999999984,-0.016495533756426328
0.11129999999999984,-0.016537975095422278
0.11029999999999984,-0.01658041643441823
0.10929999999999984,-0.016693593338407434
0.10829999999999984,-0.016764328903400686
0.10729999999999984,-0.016764328903400686
0.10629999999999984,-0.016792623129397985
0.10529999999999984,-0.016849211581392583
0.10429999999999984,-0.016962388485381792
0.10329999999999984,-0.017047271163373692
0.10229999999999984,-0.01703312405037504
0.10129999999999983,-0.01706141827637234
0.10029999999999983,-0.017132153841365592
0.09929999999999983,-0.017231183632356147
0.09829999999999983,-0.01728777208435075
0.09729999999999983,-0.0173019191973494
0.09629999999999983,-0.0173019191973494
0.09529999999999983,-0.017400948988339954
0.09429999999999983,-0.017499978779330502
0.09329999999999983,-0.017542420118326456
0.09229999999999983,-0.017584861457322406
0.09129999999999983,-0.017599008570321057
0.09029999999999982,-0.01766974413531431
0.08929999999999982,-0.017754626813306213
0.08829999999999982,-0.017825362378299462
0.08729999999999982,-0.01785365660429676
0.08629999999999982,-0.017881950830294063
0.08529999999999982,-0.017938539282288665
0.08429999999999982,-0.018065863299276518
0.08329999999999982,-0.018108304638272472
0.08229999999999982,-0.018150745977268422
0.08129999999999982,-0.01816489309026707
0.08029999999999982,-0.018221481542261674
0.07929999999999982,-0.018348805559249524
0.07829999999999981,-0.018419541124242777
0.07729999999999981,-0.018419541124242777
0.07629999999999981,-0.01847612957623738
0.07529999999999992,-0.01851857091523333
0.07429999999999992,-0.018645894932221182
0.07329999999999992,-0.018716630497214438
0.07229999999999992,-0.018716630497214438
0.07129999999999992,-0.018744924723211737
0.07029999999999992,-0.018815660288204986
0.06929999999999992,-0.018942984305192843
0.06829999999999992,-0.019027866983184743
0.06729999999999992,-0.019027866983184743
0.06629999999999991,-0.019070308322180696
0.06529999999999991,-0.0191551910001726
0.06429999999999991,-0.019240073678164497
0.06329999999999991,-0.01933910346915505
0.06229999999999991,-0.019353250582153703
0.06129999999999991,-0.019367397695152354
0.06029999999999991,-0.019452280373144254
0.05929999999999991,-0.019537163051136158
0.05829999999999991,-0.01963619284212671
0.05729999999999991,-0.01965033995512536
0.056299999999999906,-0.01969278129412131
0.055299999999999905,-0.019777663972113214
0.054299999999999904,-0.019862546650105117
0.0532999999999999,-0.01997572355409432
0.0522999999999999,-0.02000401778009162
0.0512999999999999,-0.02000401778009162
0.0502999999999999,-0.020103047571082173
0.0492999999999999,-0.02020207736207272
0.0482999999999999,-0.020286960040064625
0.0472999999999999,-0.020315254266061927
0.0462999999999999,-0.020343548492059226
0.045299999999999896,-0.02041428405705248
0.044299999999999895,-0.02052746096104168
0.043299999999999894,-0.020598196526034934
0.04229999999999989,-0.020626490752032236
0.04129999999999989,-0.020668932091028186
0.04029999999999989,-0.02078210899501739
0.03929999999999989,-0.020909433012005242
0.03829999999999989,-0.020966021463999843
0.03729999999999989,-0.020994315689997142
0.03629999999999989,-0.021050904141991744
0.03529999999999989,-0.021093345480987697
0.034299999999999886,-0.02124896372397285
0.033299999999999885,-0.021305552175967454
0.032299999999999884,-0.021319699288966102
0.031299999999999883,-0.021376287740960703
0.030299999999999883,-0.021461170418952607
0.02929999999999988,-0.02158849443594046
0.02829999999999988,-0.02167337711393236
0.02729999999999988,-0.021715818452928314
0.02629999999999988,-0.021772406904922915
0.025299999999999878,-0.021843142469916164
0.024299999999999877,-0.021956319373905367
0.023299999999999876,-0.022069496277894573
0.022299999999999875,-0.02208364339089322
0.021299999999999875,-0.022126084729889174
0.020299999999999874,-0.022225114520879725
0.019299999999999873,-0.022338291424868928
0.018299999999999872,-0.022437321215859483
0.01729999999999987,-0.022465615441856785
0.01629999999999987,-0.022522203893851383
0.01529999999999987,-0.022621233684841938
0.014299999999999868,-0.02273441058883114
0.013299999999999867,-0.02280514615382439
0.012299999999999978,-0.022847587492820343
0.011299999999999866,-0.02287588171881764
0.010299999999999976,-0.022974911509808196
0.009299999999999864,-0.02310223552679605
0.008299999999999974,-0.023172971091789302
0.007299999999999862,-0.023257853769781203
0.006299999999999972,-0.023300295108777156
0.00529999999999986,-0.02338517778676906
0.0042999999999999705,-0.023512501803756906
0.0032999999999998586,-0.023583237368750162
0.0022999999999999687,-0.02365397293374341
0.0012999999999998568,-0.023724708498736664
0.00029999999999996696,-0.023767149837732617
-0.000700000000000145,-0.02395106230671507
-0.0017000000000000348,-0.023993503645711022
-0.0027000000000001467,-0.024035944984706972
-0.0037000000000000366,-0.024106680549700225
-0.0047000000000001485,-0.02417741611469348
-0.005700000000000038,-0.024318887244679982
-0.00670000000000015,-0.024417917035670533
-0.00770000000000004,-0.024432064148669184
-0.008700000000000152,-0.024502799713662437
-0.009700000000000042,-0.024587682391654337
-0.010700000000000154,-0.024771594860636792
-0.011700000000000044,-0.024856477538628696
-0.012700000000000156,-0.024884771764625994
-0.013700000000000045,-0.0249413602166206
-0.014700000000000157,-0.025040390007611147
-0.015700000000000047,-0.02515356691160035
-0.01670000000000016,-0.025252596702590904
-0.01770000000000005,-0.025280890928588207
-0.01870000000000016,-0.025337479380582808
-0.01970000000000005,-0.02545065628457201
-0.020700000000000163,-0.025563833188561213
-0.021700000000000053,-0.025662862979551764
-0.022700000000000164,-0.025705304318547718
-0.023700000000000054,-0.02576189277054232
-0.024700000000000166,-0.025860922561532867
-0.025700000000000056,-0.025988246578520724
-0.026700000000000168,-0.026101423482509926
-0.027700000000000058,-0.02614386482150588
-0.02870000000000017,-0.026186306160501827
-0.02970000000000006,-0.026313630177489684
-0.03070000000000017,-0.026440954194477534
-0.03170000000000006,-0.02649754264647214
-0.03270000000000017,-0.02656827821146539
-0.03370000000000006,-0.02662486666345999
-0.034700000000000175,-0.026709749341451892
-0.035700000000000065,-0.026851220471438397
-0.03670000000000018,-0.02695025026242895
-0.03770000000000007,-0.026978544488426247
-0.03870000000000018,-0.02703513294042085
-0.03970000000000007,-0.027120015618412752
-0.04070000000000018,-0.02727563386139791
-0.04170000000000007,-0.02734636942639116
-0.04270000000000018,-0.02736051653938981
-0.04370000000000007,-0.027445399217381712
-0.044700000000000184,-0.027530281895373616
-0.045700000000000074,-0.027671753025360117
-0.046700000000000186,-0.02774248859035337
-0.047700000000000076,-0.02775663570335202
-0.04870000000000019,-0.027869812607341227
-0.04970000000000008,-0.027954695285333123
-0.05070000000000019,-0.02806787218932233
-0.05170000000000008,-0.028166901980312884
-0.05270000000000019,-0.02820934331930883
-0.05370000000000008,-0.028265931771303435
-0.05470000000000019,-0.028350814449295336
-0.05570000000000008,-0.02849228557928184
-0.056700000000000195,-0.028563021144275093
-0.057700000000000085,-0.02860546248327104
-0.058700000000000196,-0.028662050935265648
-0.059700000000000086,-0.028775227839254847
-0.0607000000000002,-0.0289025518562427
-0.06170000000000009,-0.029001581647233248
-0.0627000000000002,-0.029058170099227856
