Dec. 28, 2024   08:02:11
Linear Sweep Voltammetry
File: c:/users/guazh/data/banditlqround7_x0exp136_r20/2024-12-24-exp765\1acid_2ac-2024-12-28t07_58_57-lsvinphos\1acid_2ac_lsv_50mvs_efin_-2300mv.bin
Data Source:  Experiment
Instrument Model:  CHI760E
Header: LSV ran at 50 mVs with Efin at -2300mV
Note: 

Init E (V) = -0.6
Final E (V) = -2.3
Scan Rate (V/s) = 0.05
Sample Interval (V) = 0.001
Quiet Time (sec) = 2
Sensitivity (A/V) = 1e-4
Comp R (ohm) = 9.5

Results:

Channel 1:
Ep = -1.218V
ip = 6.491e-5A
Ah = 7.654e-5C

Ep = -1.579V
ip = 5.427e-4A
Ah = 1.133e-3C

Potential/V, Current/A

-0.600, 8.392e-5
-0.601, 8.471e-5
-0.602, 8.514e-5
-0.603, 8.533e-5
-0.604, 8.538e-5
-0.605, 8.537e-5
-0.606, 8.534e-5
-0.607, 8.531e-5
-0.608, 8.527e-5
-0.609, 8.518e-5
-0.610, 8.508e-5
-0.611, 8.499e-5
-0.612, 8.487e-5
-0.613, 8.480e-5
-0.614, 8.476e-5
-0.615, 8.465e-5
-0.616, 8.455e-5
-0.617, 8.445e-5
-0.618, 8.431e-5
-0.619, 8.417e-5
-0.620, 8.406e-5
-0.621, 8.396e-5
-0.622, 8.391e-5
-0.623, 8.387e-5
-0.624, 8.379e-5
-0.625, 8.361e-5
-0.626, 8.345e-5
-0.627, 8.332e-5
-0.628, 8.322e-5
-0.629, 8.310e-5
-0.630, 8.295e-5
-0.631, 8.281e-5
-0.632, 8.270e-5
-0.633, 8.255e-5
-0.634, 8.244e-5
-0.635, 8.228e-5
-0.636, 8.215e-5
-0.637, 8.203e-5
-0.638, 8.195e-5
-0.639, 8.184e-5
-0.640, 8.168e-5
-0.641, 8.151e-5
-0.642, 8.137e-5
-0.643, 8.129e-5
-0.644, 8.119e-5
-0.645, 8.104e-5
-0.646, 8.091e-5
-0.647, 8.076e-5
-0.648, 8.063e-5
-0.649, 8.049e-5
-0.650, 8.033e-5
-0.651, 8.022e-5
-0.652, 8.017e-5
-0.653, 8.003e-5
-0.654, 7.993e-5
-0.655, 7.978e-5
-0.656, 7.958e-5
-0.657, 7.943e-5
-0.658, 7.933e-5
-0.659, 7.923e-5
-0.660, 7.911e-5
-0.661, 7.893e-5
-0.662, 7.880e-5
-0.663, 7.867e-5
-0.664, 7.856e-5
-0.665, 7.842e-5
-0.666, 7.831e-5
-0.667, 7.818e-5
-0.668, 7.807e-5
-0.669, 7.795e-5
-0.670, 7.780e-5
-0.671, 7.768e-5
-0.672, 7.756e-5
-0.673, 7.749e-5
-0.674, 7.735e-5
-0.675, 7.722e-5
-0.676, 7.706e-5
-0.677, 7.690e-5
-0.678, 7.679e-5
-0.679, 7.668e-5
-0.680, 7.652e-5
-0.681, 7.639e-5
-0.682, 7.630e-5
-0.683, 7.623e-5
-0.684, 7.607e-5
-0.685, 7.593e-5
-0.686, 7.578e-5
-0.687, 7.564e-5
-0.688, 7.554e-5
-0.689, 7.541e-5
-0.690, 7.528e-5
-0.691, 7.516e-5
-0.692, 7.507e-5
-0.693, 7.498e-5
-0.694, 7.486e-5
-0.695, 7.474e-5
-0.696, 7.458e-5
-0.697, 7.446e-5
-0.698, 7.435e-5
-0.699, 7.426e-5
-0.700, 7.412e-5
-0.701, 7.399e-5
-0.702, 7.389e-5
-0.703, 7.379e-5
-0.704, 7.367e-5
-0.705, 7.359e-5
-0.706, 7.344e-5
-0.707, 7.333e-5
-0.708, 7.325e-5
-0.709, 7.313e-5
-0.710, 7.298e-5
-0.711, 7.286e-5
-0.712, 7.275e-5
-0.713, 7.267e-5
-0.714, 7.257e-5
-0.715, 7.246e-5
-0.716, 7.234e-5
-0.717, 7.223e-5
-0.718, 7.212e-5
-0.719, 7.200e-5
-0.720, 7.187e-5
-0.721, 7.170e-5
-0.722, 7.158e-5
-0.723, 7.150e-5
-0.724, 7.144e-5
-0.725, 7.130e-5
-0.726, 7.117e-5
-0.727, 7.105e-5
-0.728, 7.096e-5
-0.729, 7.091e-5
-0.730, 7.080e-5
-0.731, 7.066e-5
-0.732, 7.056e-5
-0.733, 7.043e-5
-0.734, 7.033e-5
-0.735, 7.020e-5
-0.736, 7.011e-5
-0.737, 7.002e-5
-0.738, 6.991e-5
-0.739, 6.980e-5
-0.740, 6.968e-5
-0.741, 6.957e-5
-0.742, 6.944e-5
-0.743, 6.937e-5
-0.744, 6.928e-5
-0.745, 6.923e-5
-0.746, 6.910e-5
-0.747, 6.902e-5
-0.748, 6.890e-5
-0.749, 6.882e-5
-0.750, 6.875e-5
-0.751, 6.865e-5
-0.752, 6.854e-5
-0.753, 6.847e-5
-0.754, 6.839e-5
-0.755, 6.828e-5
-0.756, 6.815e-5
-0.757, 6.804e-5
-0.758, 6.796e-5
-0.759, 6.789e-5
-0.760, 6.782e-5
-0.761, 6.779e-5
-0.762, 6.773e-5
-0.763, 6.765e-5
-0.764, 6.760e-5
-0.765, 6.758e-5
-0.766, 6.748e-5
-0.767, 6.740e-5
-0.768, 6.731e-5
-0.769, 6.719e-5
-0.770, 6.709e-5
-0.771, 6.698e-5
-0.772, 6.688e-5
-0.773, 6.678e-5
-0.774, 6.671e-5
-0.775, 6.661e-5
-0.776, 6.649e-5
-0.777, 6.639e-5
-0.778, 6.629e-5
-0.779, 6.617e-5
-0.780, 6.606e-5
-0.781, 6.594e-5
-0.782, 6.586e-5
-0.783, 6.581e-5
-0.784, 6.575e-5
-0.785, 6.564e-5
-0.786, 6.553e-5
-0.787, 6.544e-5
-0.788, 6.536e-5
-0.789, 6.528e-5
-0.790, 6.521e-5
-0.791, 6.511e-5
-0.792, 6.501e-5
-0.793, 6.497e-5
-0.794, 6.490e-5
-0.795, 6.479e-5
-0.796, 6.471e-5
-0.797, 6.458e-5
-0.798, 6.452e-5
-0.799, 6.447e-5
-0.800, 6.438e-5
-0.801, 6.429e-5
-0.802, 6.417e-5
-0.803, 6.409e-5
-0.804, 6.402e-5
-0.805, 6.392e-5
-0.806, 6.382e-5
-0.807, 6.375e-5
-0.808, 6.370e-5
-0.809, 6.363e-5
-0.810, 6.353e-5
-0.811, 6.342e-5
-0.812, 6.335e-5
-0.813, 6.329e-5
-0.814, 6.322e-5
-0.815, 6.313e-5
-0.816, 6.303e-5
-0.817, 6.296e-5
-0.818, 6.287e-5
-0.819, 6.283e-5
-0.820, 6.274e-5
-0.821, 6.264e-5
-0.822, 6.258e-5
-0.823, 6.249e-5
-0.824, 6.241e-5
-0.825, 6.234e-5
-0.826, 6.223e-5
-0.827, 6.218e-5
-0.828, 6.210e-5
-0.829, 6.205e-5
-0.830, 6.197e-5
-0.831, 6.186e-5
-0.832, 6.181e-5
-0.833, 6.178e-5
-0.834, 6.172e-5
-0.835, 6.165e-5
-0.836, 6.156e-5
-0.837, 6.148e-5
-0.838, 6.141e-5
-0.839, 6.135e-5
-0.840, 6.129e-5
-0.841, 6.119e-5
-0.842, 6.111e-5
-0.843, 6.108e-5
-0.844, 6.100e-5
-0.845, 6.092e-5
-0.846, 6.087e-5
-0.847, 6.085e-5
-0.848, 6.078e-5
-0.849, 6.072e-5
-0.850, 6.063e-5
-0.851, 6.058e-5
-0.852, 6.053e-5
-0.853, 6.045e-5
-0.854, 6.039e-5
-0.855, 6.033e-5
-0.856, 6.020e-5
-0.857, 6.013e-5
-0.858, 6.011e-5
-0.859, 6.008e-5
-0.860, 6.001e-5
-0.861, 5.996e-5
-0.862, 5.990e-5
-0.863, 5.986e-5
-0.864, 5.981e-5
-0.865, 5.974e-5
-0.866, 5.966e-5
-0.867, 5.961e-5
-0.868, 5.958e-5
-0.869, 5.954e-5
-0.870, 5.950e-5
-0.871, 5.943e-5
-0.872, 5.938e-5
-0.873, 5.936e-5
-0.874, 5.933e-5
-0.875, 5.926e-5
-0.876, 5.919e-5
-0.877, 5.917e-5
-0.878, 5.915e-5
-0.879, 5.915e-5
-0.880, 5.909e-5
-0.881, 5.904e-5
-0.882, 5.901e-5
-0.883, 5.899e-5
-0.884, 5.898e-5
-0.885, 5.893e-5
-0.886, 5.889e-5
-0.887, 5.887e-5
-0.888, 5.881e-5
-0.889, 5.880e-5
-0.890, 5.878e-5
-0.891, 5.872e-5
-0.892, 5.868e-5
-0.893, 5.867e-5
-0.894, 5.865e-5
-0.895, 5.863e-5
-0.896, 5.860e-5
-0.897, 5.860e-5
-0.898, 5.856e-5
-0.899, 5.855e-5
-0.900, 5.854e-5
-0.901, 5.852e-5
-0.902, 5.852e-5
-0.903, 5.851e-5
-0.904, 5.849e-5
-0.905, 5.849e-5
-0.906, 5.850e-5
-0.907, 5.857e-5
-0.908, 5.855e-5
-0.909, 5.851e-5
-0.910, 5.851e-5
-0.911, 5.849e-5
-0.912, 5.855e-5
-0.913, 5.858e-5
-0.914, 5.860e-5
-0.915, 5.862e-5
-0.916, 5.862e-5
-0.917, 5.866e-5
-0.918, 5.869e-5
-0.919, 5.873e-5
-0.920, 5.872e-5
-0.921, 5.877e-5
-0.922, 5.880e-5
-0.923, 5.884e-5
-0.924, 5.890e-5
-0.925, 5.893e-5
-0.926, 5.897e-5
-0.927, 5.903e-5
-0.928, 5.913e-5
-0.929, 5.923e-5
-0.930, 5.928e-5
-0.931, 5.933e-5
-0.932, 5.940e-5
-0.933, 5.951e-5
-0.934, 5.965e-5
-0.935, 5.974e-5
-0.936, 5.984e-5
-0.937, 5.997e-5
-0.938, 6.011e-5
-0.939, 6.027e-5
-0.940, 6.043e-5
-0.941, 6.055e-5
-0.942, 6.069e-5
-0.943, 6.085e-5
-0.944, 6.105e-5
-0.945, 6.126e-5
-0.946, 6.145e-5
-0.947, 6.164e-5
-0.948, 6.181e-5
-0.949, 6.202e-5
-0.950, 6.225e-5
-0.951, 6.245e-5
-0.952, 6.270e-5
-0.953, 6.297e-5
-0.954, 6.323e-5
-0.955, 6.350e-5
-0.956, 6.375e-5
-0.957, 6.401e-5
-0.958, 6.430e-5
-0.959, 6.460e-5
-0.960, 6.489e-5
-0.961, 6.519e-5
-0.962, 6.546e-5
-0.963, 6.579e-5
-0.964, 6.613e-5
-0.965, 6.642e-5
-0.966, 6.670e-5
-0.967, 6.700e-5
-0.968, 6.733e-5
-0.969, 6.771e-5
-0.970, 6.801e-5
-0.971, 6.832e-5
-0.972, 6.863e-5
-0.973, 6.895e-5
-0.974, 6.927e-5
-0.975, 6.961e-5
-0.976, 6.993e-5
-0.977, 7.022e-5
-0.978, 7.054e-5
-0.979, 7.086e-5
-0.980, 7.115e-5
-0.981, 7.145e-5
-0.982, 7.177e-5
-0.983, 7.210e-5
-0.984, 7.241e-5
-0.985, 7.269e-5
-0.986, 7.295e-5
-0.987, 7.324e-5
-0.988, 7.355e-5
-0.989, 7.384e-5
-0.990, 7.410e-5
-0.991, 7.434e-5
-0.992, 7.464e-5
-0.993, 7.492e-5
-0.994, 7.518e-5
-0.995, 7.539e-5
-0.996, 7.560e-5
-0.997, 7.583e-5
-0.998, 7.610e-5
-0.999, 7.632e-5
-1.000, 7.655e-5
-1.001, 7.675e-5
-1.002, 7.694e-5
-1.003, 7.718e-5
-1.004, 7.742e-5
-1.005, 7.762e-5
-1.006, 7.780e-5
-1.007, 7.801e-5
-1.008, 7.820e-5
-1.009, 7.841e-5
-1.010, 7.861e-5
-1.011, 7.878e-5
-1.012, 7.899e-5
-1.013, 7.917e-5
-1.014, 7.938e-5
-1.015, 7.957e-5
-1.016, 7.976e-5
-1.017, 8.000e-5
-1.018, 8.016e-5
-1.019, 8.036e-5
-1.020, 8.053e-5
-1.021, 8.067e-5
-1.022, 8.085e-5
-1.023, 8.103e-5
-1.024, 8.123e-5
-1.025, 8.142e-5
-1.026, 8.163e-5
-1.027, 8.180e-5
-1.028, 8.198e-5
-1.029, 8.214e-5
-1.030, 8.233e-5
-1.031, 8.251e-5
-1.032, 8.270e-5
-1.033, 8.290e-5
-1.034, 8.313e-5
-1.035, 8.335e-5
-1.036, 8.358e-5
-1.037, 8.380e-5
-1.038, 8.409e-5
-1.039, 8.433e-5
-1.040, 8.456e-5
-1.041, 8.475e-5
-1.042, 8.498e-5
-1.043, 8.524e-5
-1.044, 8.549e-5
-1.045, 8.574e-5
-1.046, 8.597e-5
-1.047, 8.622e-5
-1.048, 8.655e-5
-1.049, 8.684e-5
-1.050, 8.709e-5
-1.051, 8.736e-5
-1.052, 8.768e-5
-1.053, 8.800e-5
-1.054, 8.833e-5
-1.055, 8.863e-5
-1.056, 8.897e-5
-1.057, 8.931e-5
-1.058, 8.964e-5
-1.059, 8.998e-5
-1.060, 9.031e-5
-1.061, 9.062e-5
-1.062, 9.098e-5
-1.063, 9.136e-5
-1.064, 9.176e-5
-1.065, 9.211e-5
-1.066, 9.249e-5
-1.067, 9.287e-5
-1.068, 9.325e-5
-1.069, 9.363e-5
-1.070, 9.400e-5
-1.071, 9.437e-5
-1.072, 9.477e-5
-1.073, 9.518e-5
-1.074, 9.558e-5
-1.075, 9.596e-5
-1.076, 9.633e-5
-1.077, 9.674e-5
-1.078, 9.714e-5
-1.079, 9.755e-5
-1.080, 9.794e-5
-1.081, 9.832e-5
-1.082, 9.870e-5
-1.083, 9.908e-5
-1.084, 9.948e-5
-1.085, 9.985e-5
-1.086, 1.002e-4
-1.087, 1.006e-4
-1.088, 1.009e-4
-1.089, 1.013e-4
-1.090, 1.017e-4
-1.091, 1.021e-4
-1.092, 1.025e-4
-1.093, 1.028e-4
-1.094, 1.032e-4
-1.095, 1.035e-4
-1.096, 1.038e-4
-1.097, 1.041e-4
-1.098, 1.045e-4
-1.099, 1.049e-4
-1.100, 1.052e-4
-1.101, 1.055e-4
-1.102, 1.058e-4
-1.103, 1.061e-4
-1.104, 1.065e-4
-1.105, 1.068e-4
-1.106, 1.071e-4
-1.107, 1.074e-4
-1.108, 1.078e-4
-1.109, 1.081e-4
-1.110, 1.084e-4
-1.111, 1.087e-4
-1.112, 1.090e-4
-1.113, 1.093e-4
-1.114, 1.097e-4
-1.115, 1.100e-4
-1.116, 1.103e-4
-1.117, 1.106e-4
-1.118, 1.109e-4
-1.119, 1.113e-4
-1.120, 1.116e-4
-1.121, 1.121e-4
-1.122, 1.124e-4
-1.123, 1.127e-4
-1.124, 1.131e-4
-1.125, 1.134e-4
-1.126, 1.137e-4
-1.127, 1.141e-4
-1.128, 1.145e-4
-1.129, 1.148e-4
-1.130, 1.152e-4
-1.131, 1.155e-4
-1.132, 1.159e-4
-1.133, 1.163e-4
-1.134, 1.167e-4
-1.135, 1.172e-4
-1.136, 1.175e-4
-1.137, 1.180e-4
-1.138, 1.184e-4
-1.139, 1.189e-4
-1.140, 1.193e-4
-1.141, 1.197e-4
-1.142, 1.202e-4
-1.143, 1.207e-4
-1.144, 1.212e-4
-1.145, 1.216e-4
-1.146, 1.221e-4
-1.147, 1.226e-4
-1.148, 1.232e-4
-1.149, 1.237e-4
-1.150, 1.242e-4
-1.151, 1.248e-4
-1.152, 1.254e-4
-1.153, 1.260e-4
-1.154, 1.266e-4
-1.155, 1.272e-4
-1.156, 1.279e-4
-1.157, 1.285e-4
-1.158, 1.292e-4
-1.159, 1.299e-4
-1.160, 1.307e-4
-1.161, 1.314e-4
-1.162, 1.321e-4
-1.163, 1.329e-4
-1.164, 1.338e-4
-1.165, 1.346e-4
-1.166, 1.354e-4
-1.167, 1.363e-4
-1.168, 1.372e-4
-1.169, 1.380e-4
-1.170, 1.389e-4
-1.171, 1.398e-4
-1.172, 1.408e-4
-1.173, 1.418e-4
-1.174, 1.428e-4
-1.175, 1.438e-4
-1.176, 1.448e-4
-1.177, 1.459e-4
-1.178, 1.470e-4
-1.179, 1.481e-4
-1.180, 1.492e-4
-1.181, 1.503e-4
-1.182, 1.514e-4
-1.183, 1.526e-4
-1.184, 1.537e-4
-1.185, 1.549e-4
-1.186, 1.560e-4
-1.187, 1.572e-4
-1.188, 1.584e-4
-1.189, 1.596e-4
-1.190, 1.608e-4
-1.191, 1.620e-4
-1.192, 1.631e-4
-1.193, 1.643e-4
-1.194, 1.655e-4
-1.195, 1.666e-4
-1.196, 1.678e-4
-1.197, 1.690e-4
-1.198, 1.701e-4
-1.199, 1.712e-4
-1.200, 1.723e-4
-1.201, 1.733e-4
-1.202, 1.743e-4
-1.203, 1.753e-4
-1.204, 1.763e-4
-1.205, 1.772e-4
-1.206, 1.780e-4
-1.207, 1.788e-4
-1.208, 1.796e-4
-1.209, 1.803e-4
-1.210, 1.809e-4
-1.211, 1.815e-4
-1.212, 1.820e-4
-1.213, 1.825e-4
-1.214, 1.828e-4
-1.215, 1.831e-4
-1.216, 1.833e-4
-1.217, 1.834e-4
-1.218, 1.834e-4
-1.219, 1.834e-4
-1.220, 1.833e-4
-1.221, 1.831e-4
-1.222, 1.829e-4
-1.223, 1.826e-4
-1.224, 1.822e-4
-1.225, 1.818e-4
-1.226, 1.813e-4
-1.227, 1.808e-4
-1.228, 1.802e-4
-1.229, 1.797e-4
-1.230, 1.790e-4
-1.231, 1.783e-4
-1.232, 1.776e-4
-1.233, 1.770e-4
-1.234, 1.763e-4
-1.235, 1.756e-4
-1.236, 1.749e-4
-1.237, 1.743e-4
-1.238, 1.738e-4
-1.239, 1.733e-4
-1.240, 1.727e-4
-1.241, 1.722e-4
-1.242, 1.717e-4
-1.243, 1.713e-4
-1.244, 1.709e-4
-1.245, 1.706e-4
-1.246, 1.702e-4
-1.247, 1.700e-4
-1.248, 1.698e-4
-1.249, 1.696e-4
-1.250, 1.694e-4
-1.251, 1.693e-4
-1.252, 1.692e-4
-1.253, 1.691e-4
-1.254, 1.691e-4
-1.255, 1.691e-4
-1.256, 1.690e-4
-1.257, 1.690e-4
-1.258, 1.690e-4
-1.259, 1.689e-4
-1.260, 1.690e-4
-1.261, 1.690e-4
-1.262, 1.690e-4
-1.263, 1.691e-4
-1.264, 1.692e-4
-1.265, 1.693e-4
-1.266, 1.694e-4
-1.267, 1.695e-4
-1.268, 1.697e-4
-1.269, 1.699e-4
-1.270, 1.700e-4
-1.271, 1.702e-4
-1.272, 1.703e-4
-1.273, 1.705e-4
-1.274, 1.707e-4
-1.275, 1.709e-4
-1.276, 1.710e-4
-1.277, 1.712e-4
-1.278, 1.714e-4
-1.279, 1.716e-4
-1.280, 1.718e-4
-1.281, 1.720e-4
-1.282, 1.721e-4
-1.283, 1.723e-4
-1.284, 1.725e-4
-1.285, 1.727e-4
-1.286, 1.728e-4
-1.287, 1.730e-4
-1.288, 1.732e-4
-1.289, 1.733e-4
-1.290, 1.735e-4
-1.291, 1.737e-4
-1.292, 1.739e-4
-1.293, 1.741e-4
-1.294, 1.742e-4
-1.295, 1.744e-4
-1.296, 1.746e-4
-1.297, 1.747e-4
-1.298, 1.749e-4
-1.299, 1.751e-4
-1.300, 1.752e-4
-1.301, 1.753e-4
-1.302, 1.755e-4
-1.303, 1.757e-4
-1.304, 1.758e-4
-1.305, 1.759e-4
-1.306, 1.760e-4
-1.307, 1.762e-4
-1.308, 1.763e-4
-1.309, 1.764e-4
-1.310, 1.766e-4
-1.311, 1.768e-4
-1.312, 1.769e-4
-1.313, 1.770e-4
-1.314, 1.771e-4
-1.315, 1.771e-4
-1.316, 1.772e-4
-1.317, 1.773e-4
-1.318, 1.774e-4
-1.319, 1.775e-4
-1.320, 1.775e-4
-1.321, 1.776e-4
-1.322, 1.776e-4
-1.323, 1.777e-4
-1.324, 1.778e-4
-1.325, 1.779e-4
-1.326, 1.780e-4
-1.327, 1.780e-4
-1.328, 1.780e-4
-1.329, 1.782e-4
-1.330, 1.783e-4
-1.331, 1.785e-4
-1.332, 1.787e-4
-1.333, 1.789e-4
-1.334, 1.791e-4
-1.335, 1.792e-4
-1.336, 1.794e-4
-1.337, 1.796e-4
-1.338, 1.799e-4
-1.339, 1.801e-4
-1.340, 1.804e-4
-1.341, 1.808e-4
-1.342, 1.811e-4
-1.343, 1.815e-4
-1.344, 1.818e-4
-1.345, 1.822e-4
-1.346, 1.826e-4
-1.347, 1.831e-4
-1.348, 1.837e-4
-1.349, 1.843e-4
-1.350, 1.848e-4
-1.351, 1.853e-4
-1.352, 1.859e-4
-1.353, 1.864e-4
-1.354, 1.870e-4
-1.355, 1.875e-4
-1.356, 1.880e-4
-1.357, 1.885e-4
-1.358, 1.892e-4
-1.359, 1.900e-4
-1.360, 1.907e-4
-1.361, 1.916e-4
-1.362, 1.924e-4
-1.363, 1.933e-4
-1.364, 1.939e-4
-1.365, 1.945e-4
-1.366, 1.953e-4
-1.367, 1.959e-4
-1.368, 1.967e-4
-1.369, 1.976e-4
-1.370, 1.984e-4
-1.371, 1.991e-4
-1.372, 2.000e-4
-1.373, 2.009e-4
-1.374, 2.017e-4
-1.375, 2.026e-4
-1.376, 2.035e-4
-1.377, 2.043e-4
-1.378, 2.053e-4
-1.379, 2.065e-4
-1.380, 2.074e-4
-1.381, 2.084e-4
-1.382, 2.093e-4
-1.383, 2.103e-4
-1.384, 2.113e-4
-1.385, 2.123e-4
-1.386, 2.138e-4
-1.387, 2.151e-4
-1.388, 2.163e-4
-1.389, 2.175e-4
-1.390, 2.187e-4
-1.391, 2.199e-4
-1.392, 2.213e-4
-1.393, 2.226e-4
-1.394, 2.239e-4
-1.395, 2.253e-4
-1.396, 2.267e-4
-1.397, 2.280e-4
-1.398, 2.291e-4
-1.399, 2.305e-4
-1.400, 2.320e-4
-1.401, 2.335e-4
-1.402, 2.349e-4
-1.403, 2.363e-4
-1.404, 2.378e-4
-1.405, 2.393e-4
-1.406, 2.409e-4
-1.407, 2.424e-4
-1.408, 2.441e-4
-1.409, 2.458e-4
-1.410, 2.477e-4
-1.411, 2.495e-4
-1.412, 2.515e-4
-1.413, 2.534e-4
-1.414, 2.552e-4
-1.415, 2.572e-4
-1.416, 2.593e-4
-1.417, 2.612e-4
-1.418, 2.636e-4
-1.419, 2.660e-4
-1.420, 2.682e-4
-1.421, 2.704e-4
-1.422, 2.727e-4
-1.423, 2.750e-4
-1.424, 2.772e-4
-1.425, 2.794e-4
-1.426, 2.819e-4
-1.427, 2.845e-4
-1.428, 2.869e-4
-1.429, 2.896e-4
-1.430, 2.921e-4
-1.431, 2.948e-4
-1.432, 2.974e-4
-1.433, 3.000e-4
-1.434, 3.030e-4
-1.435, 3.061e-4
-1.436, 3.092e-4
-1.437, 3.119e-4
-1.438, 3.150e-4
-1.439, 3.181e-4
-1.440, 3.213e-4
-1.441, 3.242e-4
-1.442, 3.274e-4
-1.443, 3.311e-4
-1.444, 3.346e-4
-1.445, 3.380e-4
-1.446, 3.411e-4
-1.447, 3.448e-4
-1.448, 3.494e-4
-1.449, 3.540e-4
-1.450, 3.581e-4
-1.451, 3.621e-4
-1.452, 3.657e-4
-1.453, 3.692e-4
-1.454, 3.729e-4
-1.455, 3.762e-4
-1.456, 3.800e-4
-1.457, 3.841e-4
-1.458, 3.880e-4
-1.459, 3.917e-4
-1.460, 3.953e-4
-1.461, 3.992e-4
-1.462, 4.035e-4
-1.463, 4.075e-4
-1.464, 4.114e-4
-1.465, 4.155e-4
-1.466, 4.197e-4
-1.467, 4.241e-4
-1.468, 4.285e-4
-1.469, 4.326e-4
-1.470, 4.366e-4
-1.471, 4.405e-4
-1.472, 4.445e-4
-1.473, 4.488e-4
-1.474, 4.530e-4
-1.475, 4.571e-4
-1.476, 4.614e-4
-1.477, 4.654e-4
-1.478, 4.700e-4
-1.479, 4.746e-4
-1.480, 4.784e-4
-1.481, 4.829e-4
-1.482, 4.871e-4
-1.483, 4.915e-4
-1.484, 4.962e-4
-1.485, 5.009e-4
-1.486, 5.050e-4
-1.487, 5.094e-4
-1.488, 5.136e-4
-1.489, 5.176e-4
-1.490, 5.219e-4
-1.491, 5.260e-4
-1.492, 5.307e-4
-1.493, 5.353e-4
-1.494, 5.393e-4
-1.495, 5.435e-4
-1.496, 5.479e-4
-1.497, 5.522e-4
-1.498, 5.567e-4
-1.499, 5.614e-4
-1.500, 5.655e-4
-1.501, 5.692e-4
-1.502, 5.738e-4
-1.503, 5.782e-4
-1.504, 5.821e-4
-1.505, 5.854e-4
-1.506, 5.895e-4
-1.507, 5.936e-4
-1.508, 5.976e-4
-1.509, 6.012e-4
-1.510, 6.046e-4
-1.511, 6.082e-4
-1.512, 6.123e-4
-1.513, 6.162e-4
-1.514, 6.206e-4
-1.515, 6.248e-4
-1.516, 6.285e-4
-1.517, 6.321e-4
-1.518, 6.360e-4
-1.519, 6.395e-4
-1.520, 6.426e-4
-1.521, 6.464e-4
-1.522, 6.497e-4
-1.523, 6.531e-4
-1.524, 6.568e-4
-1.525, 6.602e-4
-1.526, 6.634e-4
-1.527, 6.666e-4
-1.528, 6.701e-4
-1.529, 6.726e-4
-1.530, 6.751e-4
-1.531, 6.784e-4
-1.532, 6.815e-4
-1.533, 6.852e-4
-1.534, 6.882e-4
-1.535, 6.905e-4
-1.536, 6.939e-4
-1.537, 6.957e-4
-1.538, 6.984e-4
-1.539, 7.018e-4
-1.540, 7.043e-4
-1.541, 7.063e-4
-1.542, 7.079e-4
-1.543, 7.098e-4
-1.544, 7.128e-4
-1.545, 7.151e-4
-1.546, 7.173e-4
-1.547, 7.203e-4
-1.548, 7.229e-4
-1.549, 7.246e-4
-1.550, 7.264e-4
-1.551, 7.287e-4
-1.552, 7.308e-4
-1.553, 7.332e-4
-1.554, 7.353e-4
-1.555, 7.368e-4
-1.556, 7.391e-4
-1.557, 7.400e-4
-1.558, 7.413e-4
-1.559, 7.423e-4
-1.560, 7.437e-4
-1.561, 7.446e-4
-1.562, 7.460e-4
-1.563, 7.469e-4
-1.564, 7.483e-4
-1.565, 7.493e-4
-1.566, 7.504e-4
-1.567, 7.503e-4
-1.568, 7.511e-4
-1.569, 7.523e-4
-1.570, 7.529e-4
-1.571, 7.534e-4
-1.572, 7.545e-4
-1.573, 7.557e-4
-1.574, 7.557e-4
-1.575, 7.551e-4
-1.576, 7.554e-4
-1.577, 7.574e-4
-1.578, 7.581e-4
-1.579, 7.582e-4
-1.580, 7.579e-4
-1.581, 7.578e-4
-1.582, 7.571e-4
-1.583, 7.565e-4
-1.584, 7.551e-4
-1.585, 7.544e-4
-1.586, 7.532e-4
-1.587, 7.529e-4
-1.588, 7.523e-4
-1.589, 7.515e-4
-1.590, 7.510e-4
-1.591, 7.491e-4
-1.592, 7.477e-4
-1.593, 7.475e-4
-1.594, 7.461e-4
-1.595, 7.438e-4
-1.596, 7.414e-4
-1.597, 7.408e-4
-1.598, 7.394e-4
-1.599, 7.378e-4
-1.600, 7.370e-4
-1.601, 7.353e-4
-1.602, 7.338e-4
-1.603, 7.312e-4
-1.604, 7.278e-4
-1.605, 7.260e-4
-1.606, 7.239e-4
-1.607, 7.218e-4
-1.608, 7.197e-4
-1.609, 7.174e-4
-1.610, 7.150e-4
-1.611, 7.119e-4
-1.612, 7.097e-4
-1.613, 7.081e-4
-1.614, 7.052e-4
-1.615, 7.026e-4
-1.616, 6.998e-4
-1.617, 6.962e-4
-1.618, 6.936e-4
-1.619, 6.921e-4
-1.620, 6.886e-4
-1.621, 6.858e-4
-1.622, 6.822e-4
-1.623, 6.785e-4
-1.624, 6.756e-4
-1.625, 6.738e-4
-1.626, 6.696e-4
-1.627, 6.651e-4
-1.628, 6.599e-4
-1.629, 6.569e-4
-1.630, 6.552e-4
-1.631, 6.510e-4
-1.632, 6.466e-4
-1.633, 6.453e-4
-1.634, 6.418e-4
-1.635, 6.361e-4
-1.636, 6.322e-4
-1.637, 6.294e-4
-1.638, 6.235e-4
-1.639, 6.197e-4
-1.640, 6.173e-4
-1.641, 6.120e-4
-1.642, 6.089e-4
-1.643, 6.057e-4
-1.644, 6.037e-4
-1.645, 6.010e-4
-1.646, 5.980e-4
-1.647, 5.950e-4
-1.648, 5.922e-4
-1.649, 5.876e-4
-1.650, 5.839e-4
-1.651, 5.823e-4
-1.652, 5.788e-4
-1.653, 5.749e-4
-1.654, 5.724e-4
-1.655, 5.726e-4
-1.656, 5.703e-4
-1.657, 5.669e-4
-1.658, 5.652e-4
-1.659, 5.618e-4
-1.660, 5.602e-4
-1.661, 5.582e-4
-1.662, 5.571e-4
-1.663, 5.543e-4
-1.664, 5.523e-4
-1.665, 5.505e-4
-1.666, 5.482e-4
-1.667, 5.458e-4
-1.668, 5.445e-4
-1.669, 5.418e-4
-1.670, 5.388e-4
-1.671, 5.377e-4
-1.672, 5.373e-4
-1.673, 5.374e-4
-1.674, 5.350e-4
-1.675, 5.335e-4
-1.676, 5.318e-4
-1.677, 5.303e-4
-1.678, 5.301e-4
-1.679, 5.309e-4
-1.680, 5.301e-4
-1.681, 5.286e-4
-1.682, 5.274e-4
-1.683, 5.270e-4
-1.684, 5.264e-4
-1.685, 5.275e-4
-1.686, 5.275e-4
-1.687, 5.271e-4
-1.688, 5.258e-4
-1.689, 5.278e-4
-1.690, 5.270e-4
-1.691, 5.270e-4
-1.692, 5.282e-4
-1.693, 5.304e-4
-1.694, 5.303e-4
-1.695, 5.310e-4
-1.696, 5.314e-4
-1.697, 5.325e-4
-1.698, 5.348e-4
-1.699, 5.373e-4
-1.700, 5.380e-4
-1.701, 5.379e-4
-1.702, 5.392e-4
-1.703, 5.421e-4
-1.704, 5.431e-4
-1.705, 5.449e-4
-1.706, 5.460e-4
-1.707, 5.487e-4
-1.708, 5.502e-4
-1.709, 5.526e-4
-1.710, 5.539e-4
-1.711, 5.570e-4
-1.712, 5.585e-4
-1.713, 5.613e-4
-1.714, 5.666e-4
-1.715, 5.692e-4
-1.716, 5.715e-4
-1.717, 5.755e-4
-1.718, 5.778e-4
-1.719, 5.797e-4
-1.720, 5.837e-4
-1.721, 5.872e-4
-1.722, 5.909e-4
-1.723, 5.942e-4
-1.724, 5.993e-4
-1.725, 6.033e-4
-1.726, 6.079e-4
-1.727, 6.117e-4
-1.728, 6.172e-4
-1.729, 6.206e-4
-1.730, 6.234e-4
-1.731, 6.276e-4
-1.732, 6.306e-4
-1.733, 6.356e-4
-1.734, 6.422e-4
-1.735, 6.480e-4
-1.736, 6.565e-4
-1.737, 6.609e-4
-1.738, 6.647e-4
-1.739, 6.672e-4
-1.740, 6.713e-4
-1.741, 6.770e-4
-1.742, 6.819e-4
-1.743, 6.883e-4
-1.744, 6.949e-4
-1.745, 7.022e-4
-1.746, 7.076e-4
-1.747, 7.141e-4
-1.748, 7.203e-4
-1.749, 7.262e-4
-1.750, 7.316e-4
-1.751, 7.383e-4
-1.752, 7.447e-4
-1.753, 7.525e-4
-1.754, 7.593e-4
-1.755, 7.670e-4
-1.756, 7.736e-4
-1.757, 7.802e-4
-1.758, 7.876e-4
-1.759, 7.954e-4
-1.760, 8.034e-4
-1.761, 8.115e-4
-1.762, 8.188e-4
-1.763, 8.262e-4
-1.764, 8.339e-4
-1.765, 8.428e-4
-1.766, 8.512e-4
-1.767, 8.600e-4
-1.768, 8.685e-4
-1.769, 8.779e-4
-1.770, 8.863e-4
-1.771, 8.951e-4
-1.772, 9.042e-4
-1.773, 9.132e-4
-1.774, 9.226e-4
-1.775, 9.311e-4
-1.776, 9.393e-4
-1.777, 9.500e-4
-1.778, 9.597e-4
-1.779, 9.693e-4
-1.780, 9.790e-4
-1.781, 9.876e-4
-1.782, 9.966e-4
-1.783, 1.006e-3
-1.784, 1.011e-3
-1.785, 1.011e-3
-1.786, 1.011e-3
-1.787, 1.011e-3
-1.788, 1.011e-3
-1.789, 1.011e-3
-1.790, 1.011e-3
-1.791, 1.011e-3
-1.792, 1.011e-3
-1.793, 1.011e-3
-1.794, 1.011e-3
-1.795, 1.011e-3
-1.796, 1.011e-3
-1.797, 1.011e-3
-1.798, 1.011e-3
-1.799, 1.011e-3
-1.800, 1.011e-3
-1.801, 1.011e-3
-1.802, 1.011e-3
-1.803, 1.011e-3
-1.804, 1.011e-3
-1.805, 1.011e-3
-1.806, 1.011e-3
-1.807, 1.011e-3
-1.808, 1.011e-3
-1.809, 1.011e-3
-1.810, 1.011e-3
-1.811, 1.011e-3
-1.812, 1.011e-3
-1.813, 1.011e-3
-1.814, 1.011e-3
-1.815, 1.011e-3
-1.816, 1.011e-3
-1.817, 1.011e-3
-1.818, 1.011e-3
-1.819, 1.011e-3
-1.820, 1.011e-3
-1.821, 1.011e-3
-1.822, 1.011e-3
-1.823, 1.011e-3
-1.824, 1.011e-3
-1.825, 1.011e-3
-1.826, 1.011e-3
-1.827, 1.011e-3
-1.828, 1.011e-3
-1.829, 1.011e-3
-1.830, 1.011e-3
-1.831, 1.011e-3
-1.832, 1.011e-3
-1.833, 1.011e-3
-1.834, 1.011e-3
-1.835, 1.011e-3
-1.836, 1.011e-3
-1.837, 1.011e-3
-1.838, 1.011e-3
-1.839, 1.011e-3
-1.840, 1.011e-3
-1.841, 1.011e-3
-1.842, 1.011e-3
-1.843, 1.011e-3
-1.844, 1.011e-3
-1.845, 1.011e-3
-1.846, 1.011e-3
-1.847, 1.011e-3
-1.848, 1.011e-3
-1.849, 1.011e-3
-1.850, 1.011e-3
-1.851, 1.011e-3
-1.852, 1.011e-3
-1.853, 1.011e-3
-1.854, 1.011e-3
-1.855, 1.011e-3
-1.856, 1.011e-3
-1.857, 1.011e-3
-1.858, 1.011e-3
-1.859, 1.011e-3
-1.860, 1.011e-3
-1.861, 1.011e-3
-1.862, 1.011e-3
-1.863, 1.011e-3
-1.864, 1.011e-3
-1.865, 1.011e-3
-1.866, 1.011e-3
-1.867, 1.011e-3
-1.868, 1.011e-3
-1.869, 1.011e-3
-1.870, 1.011e-3
-1.871, 1.011e-3
-1.872, 1.011e-3
-1.873, 1.011e-3
-1.874, 1.011e-3
-1.875, 1.011e-3
-1.876, 1.011e-3
-1.877, 1.011e-3
-1.878, 1.011e-3
-1.879, 1.011e-3
-1.880, 1.011e-3
-1.881, 1.011e-3
-1.882, 1.011e-3
-1.883, 1.011e-3
-1.884, 1.011e-3
-1.885, 1.011e-3
-1.886, 1.011e-3
-1.887, 1.011e-3
-1.888, 1.011e-3
-1.889, 1.011e-3
-1.890, 1.011e-3
-1.891, 1.011e-3
-1.892, 1.011e-3
-1.893, 1.011e-3
-1.894, 1.011e-3
-1.895, 1.011e-3
-1.896, 1.011e-3
-1.897, 1.011e-3
-1.898, 1.011e-3
-1.899, 1.011e-3
-1.900, 1.011e-3
-1.901, 1.011e-3
-1.902, 1.011e-3
-1.903, 1.011e-3
-1.904, 1.011e-3
-1.905, 1.011e-3
-1.906, 1.011e-3
-1.907, 1.011e-3
-1.908, 1.011e-3
-1.909, 1.011e-3
-1.910, 1.011e-3
-1.911, 1.011e-3
-1.912, 1.011e-3
-1.913, 1.011e-3
-1.914, 1.011e-3
-1.915, 1.011e-3
-1.916, 1.011e-3
-1.917, 1.011e-3
-1.918, 1.011e-3
-1.919, 1.011e-3
-1.920, 1.011e-3
-1.921, 1.011e-3
-1.922, 1.011e-3
-1.923, 1.011e-3
-1.924, 1.011e-3
-1.925, 1.011e-3
-1.926, 1.011e-3
-1.927, 1.011e-3
-1.928, 1.011e-3
-1.929, 1.011e-3
-1.930, 1.011e-3
-1.931, 1.011e-3
-1.932, 1.011e-3
-1.933, 1.011e-3
-1.934, 1.011e-3
-1.935, 1.011e-3
-1.936, 1.011e-3
-1.937, 1.011e-3
-1.938, 1.011e-3
-1.939, 1.011e-3
-1.940, 1.011e-3
-1.941, 1.011e-3
-1.942, 1.011e-3
-1.943, 1.011e-3
-1.944, 1.011e-3
-1.945, 1.011e-3
-1.946, 1.011e-3
-1.947, 1.011e-3
-1.948, 1.011e-3
-1.949, 1.011e-3
-1.950, 1.011e-3
-1.951, 1.011e-3
-1.952, 1.011e-3
-1.953, 1.011e-3
-1.954, 1.011e-3
-1.955, 1.011e-3
-1.956, 1.011e-3
-1.957, 1.011e-3
-1.958, 1.011e-3
-1.959, 1.011e-3
-1.960, 1.011e-3
-1.961, 1.011e-3
-1.962, 1.011e-3
-1.963, 1.011e-3
-1.964, 1.011e-3
-1.965, 1.011e-3
-1.966, 1.011e-3
-1.967, 1.011e-3
-1.968, 1.011e-3
-1.969, 1.011e-3
-1.970, 1.011e-3
-1.971, 1.011e-3
-1.972, 1.011e-3
-1.973, 1.011e-3
-1.974, 1.011e-3
-1.975, 1.011e-3
-1.976, 1.011e-3
-1.977, 1.011e-3
-1.978, 1.011e-3
-1.979, 1.011e-3
-1.980, 1.011e-3
-1.981, 1.011e-3
-1.982, 1.011e-3
-1.983, 1.011e-3
-1.984, 1.011e-3
-1.985, 1.011e-3
-1.986, 1.011e-3
-1.987, 1.011e-3
-1.988, 1.011e-3
-1.989, 1.011e-3
-1.990, 1.011e-3
-1.991, 1.011e-3
-1.992, 1.011e-3
-1.993, 1.011e-3
-1.994, 1.011e-3
-1.995, 1.011e-3
-1.996, 1.011e-3
-1.997, 1.011e-3
-1.998, 1.011e-3
-1.999, 1.011e-3
-2.000, 1.011e-3
-2.001, 1.011e-3
-2.002, 1.011e-3
-2.003, 1.011e-3
-2.004, 1.011e-3
-2.005, 1.011e-3
-2.006, 1.011e-3
-2.007, 1.011e-3
-2.008, 1.011e-3
-2.009, 1.011e-3
-2.010, 1.011e-3
-2.011, 1.011e-3
-2.012, 1.011e-3
-2.013, 1.011e-3
-2.014, 1.011e-3
-2.015, 1.011e-3
-2.016, 1.011e-3
-2.017, 1.011e-3
-2.018, 1.011e-3
-2.019, 1.011e-3
-2.020, 1.011e-3
-2.021, 1.011e-3
-2.022, 1.011e-3
-2.023, 1.011e-3
-2.024, 1.011e-3
-2.025, 1.011e-3
-2.026, 1.011e-3
-2.027, 1.011e-3
-2.028, 1.011e-3
-2.029, 1.011e-3
-2.030, 1.011e-3
-2.031, 1.011e-3
-2.032, 1.011e-3
-2.033, 1.011e-3
-2.034, 1.011e-3
-2.035, 1.011e-3
-2.036, 1.011e-3
-2.037, 1.011e-3
-2.038, 1.011e-3
-2.039, 1.011e-3
-2.040, 1.011e-3
-2.041, 1.011e-3
-2.042, 1.011e-3
-2.043, 1.011e-3
-2.044, 1.011e-3
-2.045, 1.011e-3
-2.046, 1.011e-3
-2.047, 1.011e-3
-2.048, 1.011e-3
-2.049, 1.011e-3
-2.050, 1.011e-3
-2.051, 1.011e-3
-2.052, 1.011e-3
-2.053, 1.011e-3
-2.054, 1.011e-3
-2.055, 1.011e-3
-2.056, 1.011e-3
-2.057, 1.011e-3
-2.058, 1.011e-3
-2.059, 1.011e-3
-2.060, 1.011e-3
-2.061, 1.011e-3
-2.062, 1.011e-3
-2.063, 1.011e-3
-2.064, 1.011e-3
-2.065, 1.011e-3
-2.066, 1.011e-3
-2.067, 1.011e-3
-2.068, 1.011e-3
-2.069, 1.011e-3
-2.070, 1.011e-3
-2.071, 1.011e-3
-2.072, 1.011e-3
-2.073, 1.011e-3
-2.074, 1.011e-3
-2.075, 1.011e-3
-2.076, 1.011e-3
-2.077, 1.011e-3
-2.078, 1.011e-3
-2.079, 1.011e-3
-2.080, 1.011e-3
-2.081, 1.011e-3
-2.082, 1.011e-3
-2.083, 1.011e-3
-2.084, 1.011e-3
-2.085, 1.011e-3
-2.086, 1.011e-3
-2.087, 1.011e-3
-2.088, 1.011e-3
-2.089, 1.011e-3
-2.090, 1.011e-3
-2.091, 1.011e-3
-2.092, 1.011e-3
-2.093, 1.011e-3
-2.094, 1.011e-3
-2.095, 1.011e-3
-2.096, 1.011e-3
-2.097, 1.011e-3
-2.098, 1.011e-3
-2.099, 1.011e-3
-2.100, 1.011e-3
-2.101, 1.011e-3
-2.102, 1.011e-3
-2.103, 1.011e-3
-2.104, 1.011e-3
-2.105, 1.011e-3
-2.106, 1.011e-3
-2.107, 1.011e-3
-2.108, 1.011e-3
-2.109, 1.011e-3
-2.110, 1.011e-3
-2.111, 1.011e-3
-2.112, 1.011e-3
-2.113, 1.011e-3
-2.114, 1.011e-3
-2.115, 1.011e-3
-2.116, 1.011e-3
-2.117, 1.011e-3
-2.118, 1.011e-3
-2.119, 1.011e-3
-2.120, 1.011e-3
-2.121, 1.011e-3
-2.122, 1.011e-3
-2.123, 1.011e-3
-2.124, 1.011e-3
-2.125, 1.011e-3
-2.126, 1.011e-3
-2.127, 1.011e-3
-2.128, 1.011e-3
-2.129, 1.011e-3
-2.130, 1.011e-3
-2.131, 1.011e-3
-2.132, 1.011e-3
-2.133, 1.011e-3
-2.134, 1.011e-3
-2.135, 1.011e-3
-2.136, 1.011e-3
-2.137, 1.011e-3
-2.138, 1.011e-3
-2.139, 1.011e-3
-2.140, 1.011e-3
-2.141, 1.011e-3
-2.142, 1.011e-3
-2.143, 1.011e-3
-2.144, 1.011e-3
-2.145, 1.011e-3
-2.146, 1.011e-3
-2.147, 1.011e-3
-2.148, 1.011e-3
-2.149, 1.011e-3
-2.150, 1.011e-3
-2.151, 1.011e-3
-2.152, 1.011e-3
-2.153, 1.011e-3
-2.154, 1.011e-3
-2.155, 1.011e-3
-2.156, 1.011e-3
-2.157, 1.011e-3
-2.158, 1.011e-3
-2.159, 1.011e-3
-2.160, 1.011e-3
-2.161, 1.011e-3
-2.162, 1.011e-3
-2.163, 1.011e-3
-2.164, 1.011e-3
-2.165, 1.011e-3
-2.166, 1.011e-3
-2.167, 1.011e-3
-2.168, 1.011e-3
-2.169, 1.011e-3
-2.170, 1.011e-3
-2.171, 1.011e-3
-2.172, 1.011e-3
-2.173, 1.011e-3
-2.174, 1.011e-3
-2.175, 1.011e-3
-2.176, 1.011e-3
-2.177, 1.011e-3
-2.178, 1.011e-3
-2.179, 1.011e-3
-2.180, 1.011e-3
-2.181, 1.011e-3
-2.182, 1.011e-3
-2.183, 1.011e-3
-2.184, 1.011e-3
-2.185, 1.011e-3
-2.186, 1.011e-3
-2.187, 1.011e-3
-2.188, 1.011e-3
-2.189, 1.011e-3
-2.190, 1.011e-3
-2.191, 1.011e-3
-2.192, 1.011e-3
-2.193, 1.011e-3
-2.194, 1.011e-3
-2.195, 1.011e-3
-2.196, 1.011e-3
-2.197, 1.011e-3
-2.198, 1.011e-3
-2.199, 1.011e-3
-2.200, 1.011e-3
-2.201, 1.011e-3
-2.202, 1.011e-3
-2.203, 1.011e-3
-2.204, 1.011e-3
-2.205, 1.011e-3
-2.206, 1.011e-3
-2.207, 1.011e-3
-2.208, 1.011e-3
-2.209, 1.011e-3
-2.210, 1.011e-3
-2.211, 1.011e-3
-2.212, 1.011e-3
-2.213, 1.011e-3
-2.214, 1.011e-3
-2.215, 1.011e-3
-2.216, 1.011e-3
-2.217, 1.011e-3
-2.218, 1.011e-3
-2.219, 1.011e-3
-2.220, 1.011e-3
-2.221, 1.011e-3
-2.222, 1.011e-3
-2.223, 1.011e-3
-2.224, 1.011e-3
-2.225, 1.011e-3
-2.226, 1.011e-3
-2.227, 1.011e-3
-2.228, 1.011e-3
-2.229, 1.011e-3
-2.230, 1.011e-3
-2.231, 1.011e-3
-2.232, 1.011e-3
-2.233, 1.011e-3
-2.234, 1.011e-3
-2.235, 1.011e-3
-2.236, 1.011e-3
-2.237, 1.011e-3
-2.238, 1.011e-3
-2.239, 1.011e-3
-2.240, 1.011e-3
-2.241, 1.011e-3
-2.242, 1.011e-3
-2.243, 1.011e-3
-2.244, 1.011e-3
-2.245, 1.011e-3
-2.246, 1.011e-3
-2.247, 1.011e-3
-2.248, 1.011e-3
-2.249, 1.011e-3
-2.250, 1.011e-3
-2.251, 1.011e-3
-2.252, 1.011e-3
-2.253, 1.011e-3
-2.254, 1.011e-3
-2.255, 1.011e-3
-2.256, 1.011e-3
-2.257, 1.011e-3
-2.258, 1.011e-3
-2.259, 1.011e-3
-2.260, 1.011e-3
-2.261, 1.011e-3
-2.262, 1.011e-3
-2.263, 1.011e-3
-2.264, 1.011e-3
-2.265, 1.011e-3
-2.266, 1.011e-3
-2.267, 1.011e-3
-2.268, 1.011e-3
-2.269, 1.011e-3
-2.270, 1.011e-3
-2.271, 1.011e-3
-2.272, 1.011e-3
-2.273, 1.011e-3
-2.274, 1.011e-3
-2.275, 1.011e-3
-2.276, 1.011e-3
-2.277, 1.011e-3
-2.278, 1.011e-3
-2.279, 1.011e-3
-2.280, 1.011e-3
-2.281, 1.011e-3
-2.282, 1.011e-3
-2.283, 1.011e-3
-2.284, 1.011e-3
-2.285, 1.011e-3
-2.286, 1.011e-3
-2.287, 1.011e-3
-2.288, 1.011e-3
-2.289, 1.011e-3
-2.290, 1.011e-3
-2.291, 1.011e-3
-2.292, 1.011e-3
-2.293, 1.011e-3
-2.294, 1.011e-3
-2.295, 1.011e-3
-2.296, 1.011e-3
-2.297, 1.011e-3
-2.298, 1.011e-3
-2.299, 1.011e-3
