Potential V vs RHE, Current mA cm-2
0.013299999999999867,-0.3511313446265021
0.012299999999999978,-1.0490084288499246
0.011299999999999866,-1.4854468648582886
0.010299999999999976,-1.8334658446250875
0.009299999999999864,-2.095187435100119
0.008299999999999974,-2.2706116362833835
0.007299999999999862,-2.4007650758709675
0.006299999999999972,-2.4884771764625997
0.00529999999999986,-2.576189277054232
0.0042999999999999705,-2.706342716641815
0.0032999999999998586,-2.7501987669376318
0.0022999999999999687,-2.794054817233447
0.0012999999999998568,-2.8379108675292635
0.00029999999999996696,-2.8803522065252145
-0.000700000000000145,-2.924208256821031
-0.0017000000000000348,-2.968064307116847
-0.0027000000000001467,-2.968064307116847
-0.0037000000000000366,-3.0119203574126634
-0.0047000000000001485,-3.0119203574126634
-0.005700000000000038,-3.055776407708479
-0.00670000000000015,-3.055776407708479
-0.00770000000000004,-3.055776407708479
-0.008700000000000152,-3.055776407708479
-0.009700000000000042,-3.0996324580042955
-0.010700000000000154,-3.0996324580042955
-0.011700000000000044,-3.1420737970002466
-0.012700000000000156,-3.1420737970002466
-0.013700000000000045,-3.1420737970002466
-0.014700000000000157,-3.1859298472960624
-0.015700000000000047,-3.2297858975918787
-0.01670000000000016,-3.2297858975918787
-0.01770000000000005,-3.2297858975918787
-0.01870000000000016,-3.1859298472960624
-0.01970000000000005,-3.1859298472960624
-0.020700000000000163,-3.1859298472960624
-0.021700000000000053,-3.1859298472960624
-0.022700000000000164,-3.1859298472960624
-0.023700000000000054,-3.1420737970002466
-0.024700000000000166,-3.2297858975918787
-0.025700000000000056,-3.273641947887695
-0.026700000000000168,-3.273641947887695
-0.027700000000000058,-3.317497998183511
-0.02870000000000017,-3.273641947887695
-0.02970000000000006,-3.273641947887695
-0.03070000000000017,-3.273641947887695
-0.03170000000000006,-3.273641947887695
-0.03270000000000017,-3.2297858975918787
-0.03370000000000006,-3.1859298472960624
-0.034700000000000175,-3.1859298472960624
-0.035700000000000065,-3.2297858975918787
-0.03670000000000018,-3.2297858975918787
-0.03770000000000007,-3.2297858975918787
-0.03870000000000018,-3.273641947887695
-0.03970000000000007,-3.317497998183511
-0.04070000000000018,-3.361354048479327
-0.04170000000000007,-3.361354048479327
-0.04270000000000018,-3.317497998183511
-0.04370000000000007,-3.273641947887695
-0.044700000000000184,-3.273641947887695
-0.045700000000000074,-3.273641947887695
-0.046700000000000186,-3.273641947887695
-0.047700000000000076,-3.2297858975918787
-0.04870000000000019,-3.2297858975918787
-0.04970000000000008,-3.273641947887695
-0.05070000000000019,-3.317497998183511
-0.05170000000000008,-3.317497998183511
-0.05270000000000019,-3.317497998183511
-0.05370000000000008,-3.273641947887695
-0.05470000000000019,-3.317497998183511
-0.05570000000000008,-3.317497998183511
-0.056700000000000195,-3.317497998183511
-0.057700000000000085,-3.273641947887695
-0.058700000000000196,-3.273641947887695
-0.059700000000000086,-3.273641947887695
-0.0607000000000002,-3.273641947887695
-0.06170000000000009,-3.273641947887695
-0.0627000000000002,-3.2297858975918787
-0.06370000000000009,-3.2297858975918787
-0.0647000000000002,-3.2297858975918787
-0.06570000000000009,-3.273641947887695
-0.0667000000000002,-3.273641947887695
-0.0677000000000001,-3.273641947887695
-0.0687000000000002,-3.273641947887695
-0.0697000000000001,-3.317497998183511
-0.07070000000000021,-3.317497998183511
-0.0717000000000001,-3.317497998183511
-0.07270000000000021,-3.273641947887695
-0.0737000000000001,-3.273641947887695
-0.07470000000000021,-3.273641947887695
-0.0757000000000001,-3.273641947887695
-0.07670000000000021,-3.273641947887695
-0.0777000000000001,-3.2297858975918787
-0.07870000000000021,-3.2297858975918787
-0.0797000000000001,-3.2297858975918787
-0.08070000000000022,-3.273641947887695
-0.0817000000000001,-3.273641947887695
-0.08270000000000022,-3.273641947887695
-0.08370000000000011,-3.2297858975918787
-0.08470000000000022,-3.273641947887695
-0.08570000000000011,-3.273641947887695
-0.08670000000000022,-3.317497998183511
-0.08770000000000011,-3.273641947887695
-0.08870000000000022,-3.2297858975918787
-0.08970000000000011,-3.273641947887695
-0.09070000000000022,-3.273641947887695
-0.09170000000000011,-3.2297858975918787
-0.09270000000000023,-3.2297858975918787
-0.09370000000000012,-3.1859298472960624
-0.09470000000000023,-3.1859298472960624
-0.09570000000000012,-3.2297858975918787
-0.09670000000000023,-3.2297858975918787
-0.09770000000000012,-3.2297858975918787
-0.09870000000000023,-3.2297858975918787
-0.09970000000000012,-3.2297858975918787
-0.10070000000000023,-3.273641947887695
-0.10170000000000012,-3.2297858975918787
-0.10270000000000024,-3.1859298472960624
-0.10370000000000013,-3.1420737970002466
-0.10470000000000024,-3.1420737970002466
-0.10570000000000013,-3.1859298472960624
-0.10670000000000024,-3.1859298472960624
-0.10770000000000013,-3.1859298472960624
-0.10870000000000024,-3.1859298472960624
-0.10970000000000013,-3.2297858975918787
-0.11070000000000024,-3.2297858975918787
-0.11170000000000013,-3.2297858975918787
-0.11270000000000002,-3.2297858975918787
-0.11370000000000013,-3.2297858975918787
-0.11470000000000002,-3.2297858975918787
-0.11570000000000014,-3.2297858975918787
-0.11670000000000003,-3.1859298472960624
-0.11770000000000014,-3.1859298472960624
-0.11870000000000003,-3.1420737970002466
-0.11970000000000014,-3.1420737970002466
-0.12070000000000003,-3.1420737970002466
-0.12170000000000014,-3.1420737970002466
-0.12270000000000003,-3.1420737970002466
-0.12370000000000014,-3.1859298472960624
-0.12470000000000003,-3.1859298472960624
-0.12570000000000014,-3.1859298472960624
-0.12670000000000003,-3.1859298472960624
-0.12770000000000015,-3.1859298472960624
-0.12870000000000004,-3.1420737970002466
-0.12970000000000015,-3.1420737970002466
-0.13070000000000004,-3.1420737970002466
-0.13170000000000015,-3.1420737970002466
-0.13270000000000004,-3.0996324580042955
-0.13370000000000015,-3.0996324580042955
-0.13470000000000004,-3.1420737970002466
-0.13570000000000015,-3.1420737970002466
-0.13670000000000004,-3.1859298472960624
-0.13770000000000016,-3.1420737970002466
-0.13870000000000005,-3.1420737970002466
-0.13970000000000016,-3.1420737970002466
-0.14070000000000005,-3.1420737970002466
-0.14170000000000016,-3.1420737970002466
-0.14270000000000005,-3.0996324580042955
-0.14370000000000016,-3.055776407708479
-0.14470000000000005,-3.055776407708479
-0.14570000000000016,-3.0996324580042955
-0.14670000000000005,-3.0996324580042955
-0.14770000000000016,-3.0996324580042955
-0.14870000000000005,-3.0996324580042955
-0.14970000000000017,-3.1420737970002466
-0.15070000000000006,-3.1420737970002466
-0.15170000000000017,-3.1420737970002466
-0.15270000000000006,-3.0996324580042955
-0.15370000000000017,-3.055776407708479
-0.15470000000000006,-3.0996324580042955
-0.15570000000000017,-3.055776407708479
-0.15670000000000006,-3.055776407708479
-0.15770000000000017,-3.0119203574126634
-0.15870000000000006,-3.0119203574126634
-0.15970000000000018,-3.0119203574126634
-0.16070000000000007,-3.0119203574126634
-0.16170000000000018,-3.055776407708479
-0.16270000000000007,-3.0119203574126634
-0.16370000000000018,-3.0119203574126634
-0.16470000000000007,-3.055776407708479
-0.16570000000000018,-3.055776407708479
-0.16670000000000007,-3.055776407708479
-0.16770000000000018,-3.0119203574126634
-0.16870000000000007,-2.968064307116847
-0.16970000000000018,-3.0119203574126634
-0.17070000000000007,-3.0119203574126634
-0.17170000000000019,-3.0119203574126634
-0.17270000000000008,-2.968064307116847
-0.1737000000000002,-2.968064307116847
-0.17470000000000008,-2.968064307116847
-0.1757000000000002,-2.968064307116847
-0.17670000000000008,-2.968064307116847
-0.1777000000000002,-2.968064307116847
-0.17870000000000008,-2.924208256821031
-0.1797000000000002,-2.968064307116847
-0.18070000000000008,-2.968064307116847
-0.1817000000000002,-2.968064307116847
-0.18270000000000008,-2.924208256821031
-0.1837000000000002,-2.8803522065252145
-0.1847000000000001,-2.8803522065252145
-0.1857000000000002,-2.8803522065252145
-0.1867000000000001,-2.8803522065252145
-0.1877000000000002,-2.8803522065252145
-0.1887000000000001,-2.8803522065252145
-0.1897000000000002,-2.8803522065252145
-0.1907000000000001,-2.924208256821031
-0.1917000000000001,-2.924208256821031
-0.19269999999999998,-2.8803522065252145
-0.1937000000000001,-2.8379108675292635
-0.19469999999999998,-2.8379108675292635
-0.1957000000000001,-2.8803522065252145
-0.19669999999999999,-2.8379108675292635
-0.1977000000000001,-2.8379108675292635
-0.1987,-2.794054817233447
-0.1997000000000001,-2.794054817233447
-0.2007,-2.794054817233447
-0.2017000000000001,-2.7501987669376318
-0.2027,-2.7501987669376318
-0.2037000000000001,-2.7501987669376318
-0.2047,-2.794054817233447
-0.2057000000000001,-2.794054817233447
-0.2067,-2.794054817233447
-0.2077000000000001,-2.794054817233447
-0.2087,-2.7501987669376318
-0.2097000000000001,-2.794054817233447
-0.2107,-2.794054817233447
-0.2117000000000001,-2.7501987669376318
-0.2127,-2.7501987669376318
-0.2137000000000001,-2.706342716641815
-0.2147,-2.7501987669376318
-0.2157000000000001,-2.7501987669376318
-0.2167,-2.7501987669376318
-0.21770000000000012,-2.662486666345999
-0.2187,-2.662486666345999
-0.21970000000000012,-2.662486666345999
-0.2207,-2.662486666345999
-0.22170000000000012,-2.662486666345999
-0.2227,-2.662486666345999
-0.22370000000000012,-2.662486666345999
-0.2247,-2.706342716641815
-0.22570000000000012,-2.706342716641815
-0.2267,-2.706342716641815
-0.22770000000000012,-2.662486666345999
-0.22870000000000001,-2.618630616050183
-0.22970000000000013,-2.618630616050183
-0.23070000000000002,-2.618630616050183
-0.23170000000000013,-2.618630616050183
-0.23270000000000002,-2.618630616050183
-0.23370000000000013,-2.618630616050183
-0.23470000000000002,-2.618630616050183
-0.23570000000000013,-2.618630616050183
-0.23670000000000002,-2.618630616050183
-0.2376999999999999,-2.576189277054232
-0.23870000000000002,-2.576189277054232
-0.2396999999999999,-2.576189277054232
-0.24070000000000003,-2.618630616050183
-0.24169999999999991,-2.618630616050183
-0.24270000000000003,-2.618630616050183
-0.24369999999999992,-2.576189277054232
-0.24470000000000003,-2.576189277054232
-0.24569999999999992,-2.576189277054232
-0.24670000000000003,-2.576189277054232
-0.24769999999999992,-2.532333226758415
-0.24870000000000003,-2.532333226758415
-0.24969999999999992,-2.576189277054232
-0.25070000000000003,-2.576189277054232
-0.2516999999999999,-2.576189277054232
-0.25270000000000004,-2.576189277054232
-0.2536999999999999,-2.576189277054232
-0.25470000000000004,-2.576189277054232
-0.2556999999999999,-2.576189277054232
-0.25670000000000004,-2.576189277054232
-0.25769999999999993,-2.576189277054232
-0.25870000000000004,-2.576189277054232
-0.25969999999999993,-2.576189277054232
-0.26070000000000004,-2.576189277054232
-0.26169999999999993,-2.576189277054232
-0.26270000000000004,-2.576189277054232
-0.26369999999999993,-2.532333226758415
-0.26470000000000005,-2.532333226758415
-0.26569999999999994,-2.576189277054232
-0.26670000000000005,-2.576189277054232
-0.26769999999999994,-2.576189277054232
-0.26870000000000005,-2.576189277054232
-0.26969999999999994,-2.618630616050183
-0.27070000000000005,-2.618630616050183
-0.27169999999999994,-2.618630616050183
-0.27270000000000005,-2.618630616050183
-0.27369999999999994,-2.576189277054232
-0.27470000000000006,-2.618630616050183
-0.27569999999999995,-2.662486666345999
-0.27670000000000006,-2.662486666345999
-0.27769999999999995,-2.662486666345999
-0.27870000000000006,-2.618630616050183
-0.27969999999999995,-2.618630616050183
-0.28070000000000006,-2.618630616050183
-0.28169999999999995,-2.618630616050183
-0.28270000000000006,-2.618630616050183
-0.28369999999999995,-2.618630616050183
-0.28470000000000006,-2.706342716641815
-0.28569999999999995,-2.7501987669376318
-0.28670000000000007,-2.7501987669376318
-0.28769999999999996,-2.7501987669376318
-0.28870000000000007,-2.7501987669376318
-0.28969999999999996,-2.7501987669376318
-0.29070000000000007,-2.794054817233447
-0.29169999999999996,-2.7501987669376318
-0.29270000000000007,-2.7501987669376318
-0.29369999999999996,-2.7501987669376318
-0.2947000000000001,-2.794054817233447
-0.29569999999999996,-2.794054817233447
-0.2967000000000001,-2.8379108675292635
-0.29769999999999996,-2.8379108675292635
-0.2987000000000001,-2.8379108675292635
-0.29969999999999997,-2.8803522065252145
-0.3007000000000001,-2.968064307116847
-0.30169999999999997,-2.968064307116847
-0.3027000000000001,-2.924208256821031
-0.30369999999999997,-2.924208256821031
-0.3047000000000001,-2.968064307116847
-0.30569999999999997,-2.968064307116847
-0.3067000000000001,-2.968064307116847
-0.3077,-2.968064307116847
-0.3087000000000001,-2.968064307116847
-0.3097,-3.0119203574126634
-0.3107000000000001,-3.0996324580042955
-0.3117,-3.1420737970002466
-0.3127000000000001,-3.1420737970002466
-0.3137,-3.1420737970002466
-0.3147000000000001,-3.1859298472960624
-0.3157,-3.2297858975918787
-0.3167000000000001,-3.2297858975918787
-0.3177,-3.2297858975918787
-0.3187000000000001,-3.2297858975918787
-0.3197,-3.2297858975918787
-0.3207000000000001,-3.273641947887695
-0.3217,-3.317497998183511
-0.3227000000000001,-3.317497998183511
-0.3237,-3.361354048479327
-0.3247000000000001,-3.447651437771094
-0.3257,-3.4915074880669104
-0.3267000000000001,-3.5353635383627267
-0.3277,-3.5353635383627267
-0.3287000000000001,-3.579219588658543
-0.3297,-3.623075638954359
-0.3307000000000001,-3.623075638954359
-0.3317,-3.6655169779503103
-0.3327000000000001,-3.6655169779503103
-0.3337,-3.7093730282461257
-0.3347000000000001,-3.7532290785419424
-0.3357,-3.7970851288377587
-0.3367000000000001,-3.840941179133574
-0.3377,-3.884797229429391
-0.3387000000000001,-3.927238568425342
-0.3397,-3.971094618721158
-0.3407000000000001,-4.0588067193127895
-0.3417,-4.0588067193127895
-0.3427000000000001,-4.102662769608606
-0.3437,-4.146518819904423
-0.3447000000000001,-4.1889601589003735
-0.3457,-4.276672259492005
-0.3467000000000001,-4.3205283097878215
-0.3477,-4.364384360083638
-0.3487000000000001,-4.364384360083638
-0.3497,-4.450681749375406
-0.3507000000000001,-4.494537799671222
-0.3517,-4.538393849967037
-0.3527000000000001,-4.582249900262854
-0.3537,-4.668547289554621
-0.3547000000000001,-4.712403339850438
-0.3557,-4.800115440442069
-0.35670000000000013,-4.843971490737885
-0.3577,-4.887827541033701
-0.35870000000000013,-4.974124930325469
-0.3597,-5.017980980621284
-0.36070000000000013,-5.105693081212917
-0.3617,-5.191990470504685
-0.3626999999999999,-5.235846520800501
-0.3637,-5.279702571096316
-0.3646999999999999,-5.367414671687949
-0.3657,-5.411270721983764
-0.3666999999999999,-5.497568111275533
-0.3677,-5.5414241615713475
-0.3686999999999999,-5.629136262162981
-0.36970000000000003,-5.759289701750564
-0.3706999999999999,-5.890857852638012
-0.37170000000000003,-5.977155241929781
-0.3726999999999999,-6.064867342521412
-0.37370000000000003,-6.108723392817228
-0.3746999999999999,-6.196435493408861
-0.37570000000000003,-6.282732882700628
-0.3766999999999999,-6.37044498329226
-0.37770000000000004,-6.414301033588076
-0.3786999999999999,-6.54445447317566
-0.37970000000000004,-6.632166573767292
-0.3806999999999999,-6.762320013354876
-0.38170000000000004,-6.850032113946507
-0.38269999999999993,-7.024041603829907
-0.38370000000000004,-7.111753704421539
-0.38469999999999993,-7.243321855308987
-0.38570000000000004,-7.37347529489657
-0.38669999999999993,-7.50504344578402
-0.38770000000000004,-7.635196885371603
-0.38869999999999993,-7.679052935667419
-0.38970000000000005,-7.809206375255003
-0.39069999999999994,-7.896918475846635
-0.39170000000000005,-7.984630576438266
-0.39269999999999994,-8.070927965730034
-0.39370000000000005,-8.202496116617484
-0.39469999999999994,-8.376505606500881
-0.39570000000000005,-8.594371146680096
-0.39669999999999994,-8.769795347863363
-0.39770000000000005,-8.943804837746763
-0.39869999999999994,-9.11781432763016
-0.39970000000000006,-9.24938247851761
-0.40069999999999995,-9.379535918105192
-0.40170000000000006,-9.511104068992642
-0.40269999999999995,-9.59740145828441
-0.40370000000000006,-9.772825659467674
-0.40469999999999995,-9.99069119964689
-0.40570000000000006,-10.208556739826104
-0.40669999999999995,-10.42642228000532
-0.40770000000000006,-10.644287820184536
-0.40869999999999995,-10.819712021367803
-0.40970000000000006,-11.037577561547016
-0.41069999999999995,-11.255443101726232
-0.41170000000000007,-11.385596541313816
-0.41269999999999996,-11.473308641905447
-0.41370000000000007,-11.604876792792895
-0.41469999999999996,-11.82274233297211
-0.41570000000000007,-12.084463923447142
-0.41669999999999996,-12.346185513922174
-0.41770000000000007,-12.607907104397206
-0.41869999999999996,-12.955926084164007
-0.4197000000000001,-13.30535977523067
-0.42069999999999996,-13.610937416001518
-0.4217000000000001,-13.828802956180734
-0.42269999999999996,-14.002812446064135
-0.4237000000000001,-14.175407224647667
-0.42469999999999997,-14.345172580631472
-0.4257000000000001,-14.61396772760583
-0.42669999999999997,-14.868615761581536
-0.4277000000000001,-15.137410908555893
-0.42869999999999997,-15.3920589425316
-0.4297000000000001,-15.74573676749786
-0.43069999999999997,-16.184297270456018
-0.4317000000000001,-16.580416434418233
-0.4327,-16.962388485381787
-0.4337000000000001,-17.231183632356142
-0.4347,-17.48583166633185
-0.4357000000000001,-17.71218547431026
-0.4367,-17.924392169290012
-0.4377000000000001,-18.15074597726842
-0.4387,-18.44783535024008
-0.4397000000000001,-18.759071836210385
-0.4407,-19.155191000172596
-0.4417000000000001,-19.579604390132108
-0.4427,-20.01816489309027
-0.4437000000000001,-20.584049413036283
-0.4447,-21.107492593986347
-0.4457000000000001,-21.67337711393236
-0.4467,-22.069496277894572
-0.4477000000000001,-22.38073276386488
-0.4487,-22.63538079784059
-0.4497000000000001,-22.904175944814945
-0.4507,-23.2012653177866
-0.4517000000000001,-23.51250180375691
-0.4527,-23.908620967719123
-0.4537000000000001,-24.34718147067728
-0.4547,-24.870624651627345
-0.4557000000000001,-25.337479380582806
-0.4567,-25.86092256153287
-0.4577000000000001,-26.525836872469437
-0.4587,-27.134162731411404
-0.4597000000000001,-27.78492992934932
-0.4607,-28.265931771303435
-0.4617000000000001,-28.619609596269694
-0.4627,-28.959140308237306
-0.4637000000000001,-29.31281813320356
-0.4647,-29.878702653149578
-0.4657000000000001,-30.444587173095588
-0.4667,-31.010471693041605
-0.4677000000000001,-31.533914873991666
-0.4687,-32.05735805494172
-0.4697000000000001,-32.764713704874254
-0.4707,-33.45792224180811
-0.4717000000000001,-34.02380676175414
-0.4727,-34.58969128170015
-0.4737000000000001,-35.11313446265021
-0.4747,-35.679018982596226
-0.4757000000000001,-36.37222751953009
-0.4767,-36.99470049147071
-0.4777000000000001,-37.56058501141672
-0.4787,-38.08402819236679
-0.4797000000000001,-38.522588695324956
-0.4807,-39.08847321527096
-0.48170000000000013,-39.696799074212926
-0.4827,-40.34756627215084
-0.48370000000000013,-40.99833347008877
-0.4847,-41.91789581500104
-0.48570000000000013,-42.87989949890926
-0.4867,-43.79946184382153
-0.4876999999999999,-44.4926703807554
-0.4887,-45.01611356170547
-0.4896999999999999,-45.497115403659585
-0.4907,-46.02055858460964
-0.4916999999999999,-46.586443104555656
-0.4927,-47.23721030249357
-0.4936999999999999,-47.8879775004315
-0.49470000000000003,-48.55289181136806
-0.4956999999999999,-49.24610034830193
-0.49670000000000003,-50.12322135421825
-0.4976999999999999,-51.071077925127824
-0.49870000000000003,-52.075522948032
-0.4996999999999999,-52.86776127595642
-0.5007,-53.68829382987814
-0.5016999999999999,-54.52297349679851
-0.5027,-55.357653163718886
-0.5036999999999999,-56.1781857176406
-0.5047,-56.97042404556503
-0.5056999999999999,-57.62119124350295
-0.5067,-58.05975174646111
-0.5076999999999999,-58.54075358841522
