Mar. 5, 2025   07:07:57
Cyclic Voltammetry
File: c:/users/guazh/data/banditlqround7_x0exp169_r20_3/2025-03-03-exp875\exp875-2025-03-05t06_52_06-arkoh\exp875_cv_sr_800mvs_efin_-1600mv.bin
Data Source:  Experiment
Instrument Model:  CHI760E
Header: CV ran at 800 mVs
Note: 

Init E (V) = -1
High E (V) = -1
Low E (V) = -1.6
Final E (V) = -1
Init P/N = N
Scan Rate (V/s) = 0.8
Segment = 3
Sample Interval (V) = 0.001
Quiet Time (sec) = 2
Sensitivity (A/V) = 0.01
Comp R (ohm) = 1.4

Results:

Channel 1:
Segment 1:

Segment 2:

Segment 3:

Potential/V, Current/A

-1.000, 2.482e-5
-1.001, 9.882e-5
-1.002, 1.543e-4
-1.003, 2.006e-4
-1.004, 2.406e-4
-1.005, 2.746e-4
-1.006, 3.023e-4
-1.007, 3.270e-4
-1.008, 3.485e-4
-1.009, 3.701e-4
-1.010, 3.855e-4
-1.011, 3.979e-4
-1.012, 4.102e-4
-1.013, 4.225e-4
-1.014, 4.349e-4
-1.015, 4.441e-4
-1.016, 4.534e-4
-1.017, 4.657e-4
-1.018, 4.719e-4
-1.019, 4.780e-4
-1.020, 4.873e-4
-1.021, 4.904e-4
-1.022, 4.965e-4
-1.023, 4.996e-4
-1.024, 5.058e-4
-1.025, 5.089e-4
-1.026, 5.120e-4
-1.027, 5.150e-4
-1.028, 5.181e-4
-1.029, 5.212e-4
-1.030, 5.243e-4
-1.031, 5.305e-4
-1.032, 5.305e-4
-1.033, 5.366e-4
-1.034, 5.366e-4
-1.035, 5.428e-4
-1.036, 5.459e-4
-1.037, 5.459e-4
-1.038, 5.489e-4
-1.039, 5.520e-4
-1.040, 5.551e-4
-1.041, 5.582e-4
-1.042, 5.582e-4
-1.043, 5.613e-4
-1.044, 5.613e-4
-1.045, 5.644e-4
-1.046, 5.644e-4
-1.047, 5.674e-4
-1.048, 5.705e-4
-1.049, 5.736e-4
-1.050, 5.767e-4
-1.051, 5.767e-4
-1.052, 5.767e-4
-1.053, 5.798e-4
-1.054, 5.829e-4
-1.055, 5.829e-4
-1.056, 5.859e-4
-1.057, 5.859e-4
-1.058, 5.859e-4
-1.059, 5.829e-4
-1.060, 5.859e-4
-1.061, 5.829e-4
-1.062, 5.829e-4
-1.063, 5.798e-4
-1.064, 5.798e-4
-1.065, 5.767e-4
-1.066, 5.767e-4
-1.067, 5.767e-4
-1.068, 5.767e-4
-1.069, 5.736e-4
-1.070, 5.767e-4
-1.071, 5.767e-4
-1.072, 5.767e-4
-1.073, 5.767e-4
-1.074, 5.767e-4
-1.075, 5.767e-4
-1.076, 5.767e-4
-1.077, 5.767e-4
-1.078, 5.736e-4
-1.079, 5.736e-4
-1.080, 5.736e-4
-1.081, 5.798e-4
-1.082, 5.767e-4
-1.083, 5.798e-4
-1.084, 5.798e-4
-1.085, 5.798e-4
-1.086, 5.798e-4
-1.087, 5.829e-4
-1.088, 5.829e-4
-1.089, 5.859e-4
-1.090, 5.859e-4
-1.091, 5.859e-4
-1.092, 5.859e-4
-1.093, 5.859e-4
-1.094, 5.859e-4
-1.095, 5.859e-4
-1.096, 5.859e-4
-1.097, 5.859e-4
-1.098, 5.859e-4
-1.099, 5.829e-4
-1.100, 5.829e-4
-1.101, 5.829e-4
-1.102, 5.798e-4
-1.103, 5.798e-4
-1.104, 5.767e-4
-1.105, 5.767e-4
-1.106, 5.767e-4
-1.107, 5.736e-4
-1.108, 5.736e-4
-1.109, 5.736e-4
-1.110, 5.736e-4
-1.111, 5.736e-4
-1.112, 5.736e-4
-1.113, 5.736e-4
-1.114, 5.736e-4
-1.115, 5.705e-4
-1.116, 5.705e-4
-1.117, 5.705e-4
-1.118, 5.705e-4
-1.119, 5.705e-4
-1.120, 5.736e-4
-1.121, 5.736e-4
-1.122, 5.736e-4
-1.123, 5.767e-4
-1.124, 5.767e-4
-1.125, 5.767e-4
-1.126, 5.798e-4
-1.127, 5.798e-4
-1.128, 5.767e-4
-1.129, 5.767e-4
-1.130, 5.736e-4
-1.131, 5.736e-4
-1.132, 5.705e-4
-1.133, 5.705e-4
-1.134, 5.705e-4
-1.135, 5.674e-4
-1.136, 5.674e-4
-1.137, 5.705e-4
-1.138, 5.674e-4
-1.139, 5.674e-4
-1.140, 5.674e-4
-1.141, 5.644e-4
-1.142, 5.644e-4
-1.143, 5.613e-4
-1.144, 5.582e-4
-1.145, 5.582e-4
-1.146, 5.551e-4
-1.147, 5.520e-4
-1.148, 5.520e-4
-1.149, 5.489e-4
-1.150, 5.489e-4
-1.151, 5.520e-4
-1.152, 5.489e-4
-1.153, 5.489e-4
-1.154, 5.489e-4
-1.155, 5.489e-4
-1.156, 5.489e-4
-1.157, 5.489e-4
-1.158, 5.489e-4
-1.159, 5.489e-4
-1.160, 5.489e-4
-1.161, 5.520e-4
-1.162, 5.520e-4
-1.163, 5.551e-4
-1.164, 5.582e-4
-1.165, 5.582e-4
-1.166, 5.613e-4
-1.167, 5.613e-4
-1.168, 5.613e-4
-1.169, 5.644e-4
-1.170, 5.613e-4
-1.171, 5.613e-4
-1.172, 5.613e-4
-1.173, 5.582e-4
-1.174, 5.582e-4
-1.175, 5.551e-4
-1.176, 5.551e-4
-1.177, 5.520e-4
-1.178, 5.551e-4
-1.179, 5.520e-4
-1.180, 5.489e-4
-1.181, 5.459e-4
-1.182, 5.428e-4
-1.183, 5.428e-4
-1.184, 5.397e-4
-1.185, 5.366e-4
-1.186, 5.335e-4
-1.187, 5.305e-4
-1.188, 5.305e-4
-1.189, 5.305e-4
-1.190, 5.305e-4
-1.191, 5.274e-4
-1.192, 5.274e-4
-1.193, 5.274e-4
-1.194, 5.274e-4
-1.195, 5.243e-4
-1.196, 5.274e-4
-1.197, 5.243e-4
-1.198, 5.243e-4
-1.199, 5.243e-4
-1.200, 5.243e-4
-1.201, 5.243e-4
-1.202, 5.243e-4
-1.203, 5.274e-4
-1.204, 5.274e-4
-1.205, 5.274e-4
-1.206, 5.274e-4
-1.207, 5.274e-4
-1.208, 5.274e-4
-1.209, 5.243e-4
-1.210, 5.212e-4
-1.211, 5.181e-4
-1.212, 5.150e-4
-1.213, 5.150e-4
-1.214, 5.120e-4
-1.215, 5.150e-4
-1.216, 5.120e-4
-1.217, 5.120e-4
-1.218, 5.150e-4
-1.219, 5.120e-4
-1.220, 5.120e-4
-1.221, 5.089e-4
-1.222, 5.089e-4
-1.223, 5.027e-4
-1.224, 5.027e-4
-1.225, 4.996e-4
-1.226, 4.965e-4
-1.227, 4.935e-4
-1.228, 4.935e-4
-1.229, 4.935e-4
-1.230, 4.935e-4
-1.231, 4.904e-4
-1.232, 4.904e-4
-1.233, 4.904e-4
-1.234, 4.873e-4
-1.235, 4.873e-4
-1.236, 4.873e-4
-1.237, 4.842e-4
-1.238, 4.842e-4
-1.239, 4.811e-4
-1.240, 4.811e-4
-1.241, 4.811e-4
-1.242, 4.780e-4
-1.243, 4.780e-4
-1.244, 4.780e-4
-1.245, 4.750e-4
-1.246, 4.750e-4
-1.247, 4.750e-4
-1.248, 4.719e-4
-1.249, 4.719e-4
-1.250, 4.719e-4
-1.251, 4.688e-4
-1.252, 4.688e-4
-1.253, 4.657e-4
-1.254, 4.657e-4
-1.255, 4.657e-4
-1.256, 4.626e-4
-1.257, 4.595e-4
-1.258, 4.595e-4
-1.259, 4.565e-4
-1.260, 4.565e-4
-1.261, 4.534e-4
-1.262, 4.503e-4
-1.263, 4.503e-4
-1.264, 4.503e-4
-1.265, 4.503e-4
-1.266, 4.472e-4
-1.267, 4.472e-4
-1.268, 4.503e-4
-1.269, 4.503e-4
-1.270, 4.472e-4
-1.271, 4.472e-4
-1.272, 4.472e-4
-1.273, 4.472e-4
-1.274, 4.441e-4
-1.275, 4.441e-4
-1.276, 4.410e-4
-1.277, 4.380e-4
-1.278, 4.380e-4
-1.279, 4.349e-4
-1.280, 4.349e-4
-1.281, 4.349e-4
-1.282, 4.349e-4
-1.283, 4.349e-4
-1.284, 4.349e-4
-1.285, 4.349e-4
-1.286, 4.318e-4
-1.287, 4.318e-4
-1.288, 4.318e-4
-1.289, 4.318e-4
-1.290, 4.318e-4
-1.291, 4.287e-4
-1.292, 4.287e-4
-1.293, 4.287e-4
-1.294, 4.287e-4
-1.295, 4.287e-4
-1.296, 4.287e-4
-1.297, 4.287e-4
-1.298, 4.287e-4
-1.299, 4.287e-4
-1.300, 4.318e-4
-1.301, 4.287e-4
-1.302, 4.287e-4
-1.303, 4.287e-4
-1.304, 4.287e-4
-1.305, 4.287e-4
-1.306, 4.287e-4
-1.307, 4.287e-4
-1.308, 4.287e-4
-1.309, 4.318e-4
-1.310, 4.349e-4
-1.311, 4.349e-4
-1.312, 4.380e-4
-1.313, 4.380e-4
-1.314, 4.349e-4
-1.315, 4.349e-4
-1.316, 4.349e-4
-1.317, 4.349e-4
-1.318, 4.349e-4
-1.319, 4.318e-4
-1.320, 4.318e-4
-1.321, 4.318e-4
-1.322, 4.318e-4
-1.323, 4.318e-4
-1.324, 4.349e-4
-1.325, 4.318e-4
-1.326, 4.318e-4
-1.327, 4.318e-4
-1.328, 4.318e-4
-1.329, 4.318e-4
-1.330, 4.318e-4
-1.331, 4.318e-4
-1.332, 4.349e-4
-1.333, 4.349e-4
-1.334, 4.349e-4
-1.335, 4.410e-4
-1.336, 4.410e-4
-1.337, 4.441e-4
-1.338, 4.472e-4
-1.339, 4.503e-4
-1.340, 4.534e-4
-1.341, 4.565e-4
-1.342, 4.565e-4
-1.343, 4.626e-4
-1.344, 4.657e-4
-1.345, 4.688e-4
-1.346, 4.719e-4
-1.347, 4.750e-4
-1.348, 4.780e-4
-1.349, 4.811e-4
-1.350, 4.842e-4
-1.351, 4.904e-4
-1.352, 4.904e-4
-1.353, 4.904e-4
-1.354, 4.935e-4
-1.355, 4.935e-4
-1.356, 4.935e-4
-1.357, 4.965e-4
-1.358, 4.965e-4
-1.359, 4.965e-4
-1.360, 4.965e-4
-1.361, 5.027e-4
-1.362, 5.027e-4
-1.363, 5.058e-4
-1.364, 5.089e-4
-1.365, 5.150e-4
-1.366, 5.181e-4
-1.367, 5.212e-4
-1.368, 5.243e-4
-1.369, 5.274e-4
-1.370, 5.305e-4
-1.371, 5.335e-4
-1.372, 5.366e-4
-1.373, 5.397e-4
-1.374, 5.459e-4
-1.375, 5.520e-4
-1.376, 5.582e-4
-1.377, 5.644e-4
-1.378, 5.674e-4
-1.379, 5.736e-4
-1.380, 5.798e-4
-1.381, 5.859e-4
-1.382, 5.890e-4
-1.383, 5.952e-4
-1.384, 5.983e-4
-1.385, 6.044e-4
-1.386, 6.075e-4
-1.387, 6.137e-4
-1.388, 6.199e-4
-1.389, 6.260e-4
-1.390, 6.322e-4
-1.391, 6.384e-4
-1.392, 6.414e-4
-1.393, 6.476e-4
-1.394, 6.538e-4
-1.395, 6.569e-4
-1.396, 6.630e-4
-1.397, 6.692e-4
-1.398, 6.723e-4
-1.399, 6.784e-4
-1.400, 6.846e-4
-1.401, 6.908e-4
-1.402, 6.969e-4
-1.403, 7.062e-4
-1.404, 7.124e-4
-1.405, 7.185e-4
-1.406, 7.247e-4
-1.407, 7.309e-4
-1.408, 7.370e-4
-1.409, 7.463e-4
-1.410, 7.524e-4
-1.411, 7.617e-4
-1.412, 7.740e-4
-1.413, 7.863e-4
-1.414, 7.956e-4
-1.415, 8.079e-4
-1.416, 8.203e-4
-1.417, 8.357e-4
-1.418, 8.480e-4
-1.419, 8.603e-4
-1.420, 8.727e-4
-1.421, 8.819e-4
-1.422, 8.912e-4
-1.423, 9.004e-4
-1.424, 9.097e-4
-1.425, 9.189e-4
-1.426, 9.313e-4
-1.427, 9.374e-4
-1.428, 9.498e-4
-1.429, 9.559e-4
-1.430, 9.683e-4
-1.431, 9.806e-4
-1.432, 9.898e-4
-1.433, 1.002e-3
-1.434, 1.014e-3
-1.435, 1.024e-3
-1.436, 1.036e-3
-1.437, 1.048e-3
-1.438, 1.061e-3
-1.439, 1.073e-3
-1.440, 1.085e-3
-1.441, 1.101e-3
-1.442, 1.116e-3
-1.443, 1.132e-3
-1.444, 1.150e-3
-1.445, 1.166e-3
-1.446, 1.184e-3
-1.447, 1.203e-3
-1.448, 1.218e-3
-1.449, 1.240e-3
-1.450, 1.261e-3
-1.451, 1.280e-3
-1.452, 1.301e-3
-1.453, 1.323e-3
-1.454, 1.344e-3
-1.455, 1.366e-3
-1.456, 1.388e-3
-1.457, 1.409e-3
-1.458, 1.431e-3
-1.459, 1.452e-3
-1.460, 1.474e-3
-1.461, 1.495e-3
-1.462, 1.517e-3
-1.463, 1.536e-3
-1.464, 1.557e-3
-1.465, 1.579e-3
-1.466, 1.600e-3
-1.467, 1.622e-3
-1.468, 1.643e-3
-1.469, 1.665e-3
-1.470, 1.687e-3
-1.471, 1.711e-3
-1.472, 1.730e-3
-1.473, 1.754e-3
-1.474, 1.776e-3
-1.475, 1.798e-3
-1.476, 1.822e-3
-1.477, 1.847e-3
-1.478, 1.872e-3
-1.479, 1.899e-3
-1.480, 1.924e-3
-1.481, 1.952e-3
-1.482, 1.980e-3
-1.483, 2.010e-3
-1.484, 2.038e-3
-1.485, 2.072e-3
-1.486, 2.112e-3
-1.487, 2.155e-3
-1.488, 2.195e-3
-1.489, 2.235e-3
-1.490, 2.275e-3
-1.491, 2.316e-3
-1.492, 2.356e-3
-1.493, 2.396e-3
-1.494, 2.436e-3
-1.495, 2.476e-3
-1.496, 2.510e-3
-1.497, 2.547e-3
-1.498, 2.584e-3
-1.499, 2.618e-3
-1.500, 2.661e-3
-1.501, 2.698e-3
-1.502, 2.735e-3
-1.503, 2.772e-3
-1.504, 2.806e-3
-1.505, 2.846e-3
-1.506, 2.883e-3
-1.507, 2.920e-3
-1.508, 2.960e-3
-1.509, 2.997e-3
-1.510, 3.037e-3
-1.511, 3.074e-3
-1.512, 3.111e-3
-1.513, 3.151e-3
-1.514, 3.191e-3
-1.515, 3.228e-3
-1.516, 3.271e-3
-1.517, 3.314e-3
-1.518, 3.361e-3
-1.519, 3.410e-3
-1.520, 3.456e-3
-1.521, 3.509e-3
-1.522, 3.558e-3
-1.523, 3.610e-3
-1.524, 3.666e-3
-1.525, 3.718e-3
-1.526, 3.777e-3
-1.527, 3.832e-3
-1.528, 3.888e-3
-1.529, 3.943e-3
-1.530, 4.002e-3
-1.531, 4.064e-3
-1.532, 4.122e-3
-1.533, 4.184e-3
-1.534, 4.243e-3
-1.535, 4.301e-3
-1.536, 4.357e-3
-1.537, 4.415e-3
-1.538, 4.471e-3
-1.539, 4.523e-3
-1.540, 4.575e-3
-1.541, 4.622e-3
-1.542, 4.671e-3
-1.543, 4.717e-3
-1.544, 4.767e-3
-1.545, 4.819e-3
-1.546, 4.871e-3
-1.547, 4.924e-3
-1.548, 4.976e-3
-1.549, 5.029e-3
-1.550, 5.081e-3
-1.551, 5.134e-3
-1.552, 5.183e-3
-1.553, 5.238e-3
-1.554, 5.291e-3
-1.555, 5.340e-3
-1.556, 5.396e-3
-1.557, 5.454e-3
-1.558, 5.525e-3
-1.559, 5.602e-3
-1.560, 5.682e-3
-1.561, 5.762e-3
-1.562, 5.846e-3
-1.563, 5.926e-3
-1.564, 6.009e-3
-1.565, 6.092e-3
-1.566, 6.173e-3
-1.567, 6.247e-3
-1.568, 6.314e-3
-1.569, 6.379e-3
-1.570, 6.444e-3
-1.571, 6.502e-3
-1.572, 6.564e-3
-1.573, 6.626e-3
-1.574, 6.687e-3
-1.575, 6.749e-3
-1.576, 6.814e-3
-1.577, 6.879e-3
-1.578, 6.943e-3
-1.579, 7.005e-3
-1.580, 7.070e-3
-1.581, 7.131e-3
-1.582, 7.190e-3
-1.583, 7.249e-3
-1.584, 7.304e-3
-1.585, 7.353e-3
-1.586, 7.409e-3
-1.587, 7.461e-3
-1.588, 7.529e-3
-1.589, 7.597e-3
-1.590, 7.671e-3
-1.591, 7.754e-3
-1.592, 7.834e-3
-1.593, 7.924e-3
-1.594, 8.016e-3
-1.595, 8.109e-3
-1.596, 8.198e-3
-1.597, 8.281e-3
-1.598, 8.362e-3
-1.599, 8.442e-3
-1.600, 8.466e-3
-1.599, 8.414e-3
-1.598, 8.368e-3
-1.597, 8.331e-3
-1.596, 8.288e-3
-1.595, 8.241e-3
-1.594, 8.195e-3
-1.593, 8.143e-3
-1.592, 8.087e-3
-1.591, 8.029e-3
-1.590, 7.967e-3
-1.589, 7.902e-3
-1.588, 7.834e-3
-1.587, 7.767e-3
-1.586, 7.699e-3
-1.585, 7.628e-3
-1.584, 7.560e-3
-1.583, 7.492e-3
-1.582, 7.421e-3
-1.581, 7.366e-3
-1.580, 7.313e-3
-1.579, 7.264e-3
-1.578, 7.218e-3
-1.577, 7.181e-3
-1.576, 7.144e-3
-1.575, 7.104e-3
-1.574, 7.067e-3
-1.573, 7.030e-3
-1.572, 6.990e-3
-1.571, 6.953e-3
-1.570, 6.912e-3
-1.569, 6.869e-3
-1.568, 6.829e-3
-1.567, 6.789e-3
-1.566, 6.746e-3
-1.565, 6.700e-3
-1.564, 6.654e-3
-1.563, 6.604e-3
-1.562, 6.552e-3
-1.561, 6.493e-3
-1.560, 6.438e-3
-1.559, 6.376e-3
-1.558, 6.314e-3
-1.557, 6.247e-3
-1.556, 6.194e-3
-1.555, 6.151e-3
-1.554, 6.080e-3
-1.553, 6.012e-3
-1.552, 5.947e-3
-1.551, 5.886e-3
-1.550, 5.827e-3
-1.549, 5.769e-3
-1.548, 5.716e-3
-1.547, 5.664e-3
-1.546, 5.618e-3
-1.545, 5.571e-3
-1.544, 5.525e-3
-1.543, 5.482e-3
-1.542, 5.442e-3
-1.541, 5.399e-3
-1.540, 5.359e-3
-1.539, 5.309e-3
-1.538, 5.266e-3
-1.537, 5.229e-3
-1.536, 5.192e-3
-1.535, 5.161e-3
-1.534, 5.130e-3
-1.533, 5.093e-3
-1.532, 5.053e-3
-1.531, 5.016e-3
-1.530, 4.976e-3
-1.529, 4.939e-3
-1.528, 4.890e-3
-1.527, 4.838e-3
-1.526, 4.782e-3
-1.525, 4.730e-3
-1.524, 4.674e-3
-1.523, 4.619e-3
-1.522, 4.566e-3
-1.521, 4.511e-3
-1.520, 4.458e-3
-1.519, 4.403e-3
-1.518, 4.357e-3
-1.517, 4.304e-3
-1.516, 4.252e-3
-1.515, 4.199e-3
-1.514, 4.150e-3
-1.513, 4.098e-3
-1.512, 4.042e-3
-1.511, 3.984e-3
-1.510, 3.931e-3
-1.509, 3.885e-3
-1.508, 3.845e-3
-1.507, 3.811e-3
-1.506, 3.777e-3
-1.505, 3.743e-3
-1.504, 3.718e-3
-1.503, 3.688e-3
-1.502, 3.654e-3
-1.501, 3.623e-3
-1.500, 3.589e-3
-1.499, 3.549e-3
-1.498, 3.509e-3
-1.497, 3.466e-3
-1.496, 3.425e-3
-1.495, 3.382e-3
-1.494, 3.339e-3
-1.493, 3.299e-3
-1.492, 3.253e-3
-1.491, 3.213e-3
-1.490, 3.170e-3
-1.489, 3.126e-3
-1.488, 3.089e-3
-1.487, 3.046e-3
-1.486, 3.000e-3
-1.485, 2.957e-3
-1.484, 2.914e-3
-1.483, 2.871e-3
-1.482, 2.827e-3
-1.481, 2.784e-3
-1.480, 2.747e-3
-1.479, 2.704e-3
-1.478, 2.667e-3
-1.477, 2.630e-3
-1.476, 2.596e-3
-1.475, 2.562e-3
-1.474, 2.525e-3
-1.473, 2.494e-3
-1.472, 2.460e-3
-1.471, 2.430e-3
-1.470, 2.399e-3
-1.469, 2.368e-3
-1.468, 2.337e-3
-1.467, 2.303e-3
-1.466, 2.269e-3
-1.465, 2.242e-3
-1.464, 2.211e-3
-1.463, 2.183e-3
-1.462, 2.155e-3
-1.461, 2.128e-3
-1.460, 2.100e-3
-1.459, 2.072e-3
-1.458, 2.041e-3
-1.457, 2.013e-3
-1.456, 1.980e-3
-1.455, 1.946e-3
-1.454, 1.912e-3
-1.453, 1.884e-3
-1.452, 1.847e-3
-1.451, 1.816e-3
-1.450, 1.782e-3
-1.449, 1.748e-3
-1.448, 1.717e-3
-1.447, 1.684e-3
-1.446, 1.653e-3
-1.445, 1.622e-3
-1.444, 1.591e-3
-1.443, 1.560e-3
-1.442, 1.529e-3
-1.441, 1.502e-3
-1.440, 1.474e-3
-1.439, 1.446e-3
-1.438, 1.418e-3
-1.437, 1.394e-3
-1.436, 1.369e-3
-1.435, 1.344e-3
-1.434, 1.323e-3
-1.433, 1.301e-3
-1.432, 1.280e-3
-1.431, 1.255e-3
-1.430, 1.233e-3
-1.429, 1.209e-3
-1.428, 1.187e-3
-1.427, 1.166e-3
-1.426, 1.144e-3
-1.425, 1.125e-3
-1.424, 1.107e-3
-1.423, 1.085e-3
-1.422, 1.067e-3
-1.421, 1.045e-3
-1.420, 1.027e-3
-1.419, 1.008e-3
-1.418, 9.837e-4
-1.417, 9.652e-4
-1.416, 9.405e-4
-1.415, 9.189e-4
-1.414, 8.973e-4
-1.413, 8.758e-4
-1.412, 8.573e-4
-1.411, 8.357e-4
-1.410, 8.172e-4
-1.409, 7.987e-4
-1.408, 7.771e-4
-1.407, 7.586e-4
-1.406, 7.370e-4
-1.405, 7.185e-4
-1.404, 6.969e-4
-1.403, 6.815e-4
-1.402, 6.630e-4
-1.401, 6.445e-4
-1.400, 6.291e-4
-1.399, 6.137e-4
-1.398, 5.983e-4
-1.397, 5.859e-4
-1.396, 5.705e-4
-1.395, 5.582e-4
-1.394, 5.428e-4
-1.393, 5.305e-4
-1.392, 5.181e-4
-1.391, 5.027e-4
-1.390, 4.904e-4
-1.389, 4.750e-4
-1.388, 4.626e-4
-1.387, 4.503e-4
-1.386, 4.349e-4
-1.385, 4.225e-4
-1.384, 4.102e-4
-1.383, 4.010e-4
-1.382, 3.886e-4
-1.381, 3.763e-4
-1.380, 3.640e-4
-1.379, 3.516e-4
-1.378, 3.393e-4
-1.377, 3.270e-4
-1.376, 3.146e-4
-1.375, 3.023e-4
-1.374, 2.900e-4
-1.373, 2.776e-4
-1.372, 2.684e-4
-1.371, 2.591e-4
-1.370, 2.468e-4
-1.369, 2.376e-4
-1.368, 2.283e-4
-1.367, 2.191e-4
-1.366, 2.098e-4
-1.365, 1.975e-4
-1.364, 1.882e-4
-1.363, 1.790e-4
-1.362, 1.728e-4
-1.361, 1.636e-4
-1.360, 1.543e-4
-1.359, 1.481e-4
-1.358, 1.389e-4
-1.357, 1.327e-4
-1.356, 1.266e-4
-1.355, 1.173e-4
-1.354, 1.111e-4
-1.353, 1.050e-4
-1.352, 9.882e-5
-1.351, 8.957e-5
-1.350, 8.340e-5
-1.349, 7.415e-5
-1.348, 6.798e-5
-1.347, 6.182e-5
-1.346, 5.565e-5
-1.345, 4.949e-5
-1.344, 4.332e-5
-1.343, 3.715e-5
-1.342, 3.099e-5
-1.341, 2.482e-5
-1.340, 1.865e-5
-1.339, 1.249e-5
-1.338, 6.322e-6
-1.337, 1.559e-7
-1.336, -6.010e-6
-1.335, -1.218e-5
-1.334, -1.834e-5
-1.333, -2.143e-5
-1.332, -2.759e-5
-1.331, -3.068e-5
-1.330, -3.376e-5
-1.329, -3.992e-5
-1.328, -4.301e-5
-1.327, -4.609e-5
-1.326, -5.226e-5
-1.325, -5.842e-5
-1.324, -6.151e-5
-1.323, -6.767e-5
-1.322, -7.076e-5
-1.321, -7.384e-5
-1.320, -8.000e-5
-1.319, -8.309e-5
-1.318, -8.617e-5
-1.317, -8.925e-5
-1.316, -9.234e-5
-1.315, -9.542e-5
-1.314, -9.850e-5
-1.313, -1.047e-4
-1.312, -1.078e-4
-1.311, -1.139e-4
-1.310, -1.170e-4
-1.309, -1.201e-4
-1.308, -1.232e-4
-1.307, -1.263e-4
-1.306, -1.293e-4
-1.305, -1.324e-4
-1.304, -1.324e-4
-1.303, -1.355e-4
-1.302, -1.386e-4
-1.301, -1.386e-4
-1.300, -1.417e-4
-1.299, -1.448e-4
-1.298, -1.478e-4
-1.297, -1.509e-4
-1.296, -1.540e-4
-1.295, -1.571e-4
-1.294, -1.602e-4
-1.293, -1.632e-4
-1.292, -1.663e-4
-1.291, -1.694e-4
-1.290, -1.694e-4
-1.289, -1.725e-4
-1.288, -1.725e-4
-1.287, -1.756e-4
-1.286, -1.787e-4
-1.285, -1.817e-4
-1.284, -1.848e-4
-1.283, -1.848e-4
-1.282, -1.879e-4
-1.281, -1.910e-4
-1.280, -1.941e-4
-1.279, -1.941e-4
-1.278, -1.972e-4
-1.277, -1.972e-4
-1.276, -1.972e-4
-1.275, -2.002e-4
-1.274, -2.002e-4
-1.273, -2.033e-4
-1.272, -2.033e-4
-1.271, -2.064e-4
-1.270, -2.095e-4
-1.269, -2.126e-4
-1.268, -2.157e-4
-1.267, -2.157e-4
-1.266, -2.187e-4
-1.265, -2.187e-4
-1.264, -2.218e-4
-1.263, -2.218e-4
-1.262, -2.249e-4
-1.261, -2.249e-4
-1.260, -2.280e-4
-1.259, -2.280e-4
-1.258, -2.311e-4
-1.257, -2.342e-4
-1.256, -2.342e-4
-1.255, -2.342e-4
-1.254, -2.403e-4
-1.253, -2.403e-4
-1.252, -2.403e-4
-1.251, -2.403e-4
-1.250, -2.434e-4
-1.249, -2.434e-4
-1.248, -2.465e-4
-1.247, -2.465e-4
-1.246, -2.496e-4
-1.245, -2.496e-4
-1.244, -2.527e-4
-1.243, -2.527e-4
-1.242, -2.527e-4
-1.241, -2.557e-4
-1.240, -2.557e-4
-1.239, -2.588e-4
-1.238, -2.588e-4
-1.237, -2.588e-4
-1.236, -2.619e-4
-1.235, -2.619e-4
-1.234, -2.650e-4
-1.233, -2.650e-4
-1.232, -2.681e-4
-1.231, -2.712e-4
-1.230, -2.712e-4
-1.229, -2.742e-4
-1.228, -2.742e-4
-1.227, -2.773e-4
-1.226, -2.773e-4
-1.225, -2.804e-4
-1.224, -2.804e-4
-1.223, -2.804e-4
-1.222, -2.835e-4
-1.221, -2.835e-4
-1.220, -2.866e-4
-1.219, -2.866e-4
-1.218, -2.897e-4
-1.217, -2.897e-4
-1.216, -2.927e-4
-1.215, -2.927e-4
-1.214, -2.958e-4
-1.213, -2.958e-4
-1.212, -2.958e-4
-1.211, -2.958e-4
-1.210, -2.958e-4
-1.209, -2.958e-4
-1.208, -2.989e-4
-1.207, -2.989e-4
-1.206, -3.020e-4
-1.205, -3.051e-4
-1.204, -3.082e-4
-1.203, -3.082e-4
-1.202, -3.112e-4
-1.201, -3.112e-4
-1.200, -3.143e-4
-1.199, -3.143e-4
-1.198, -3.174e-4
-1.197, -3.174e-4
-1.196, -3.174e-4
-1.195, -3.205e-4
-1.194, -3.236e-4
-1.193, -3.267e-4
-1.192, -3.267e-4
-1.191, -3.297e-4
-1.190, -3.328e-4
-1.189, -3.359e-4
-1.188, -3.390e-4
-1.187, -3.390e-4
-1.186, -3.421e-4
-1.185, -3.452e-4
-1.184, -3.452e-4
-1.183, -3.482e-4
-1.182, -3.482e-4
-1.181, -3.482e-4
-1.180, -3.513e-4
-1.179, -3.513e-4
-1.178, -3.513e-4
-1.177, -3.544e-4
-1.176, -3.575e-4
-1.175, -3.575e-4
-1.174, -3.575e-4
-1.173, -3.606e-4
-1.172, -3.606e-4
-1.171, -3.606e-4
-1.170, -3.606e-4
-1.169, -3.606e-4
-1.168, -3.637e-4
-1.167, -3.637e-4
-1.166, -3.667e-4
-1.165, -3.698e-4
-1.164, -3.698e-4
-1.163, -3.729e-4
-1.162, -3.760e-4
-1.161, -3.760e-4
-1.160, -3.791e-4
-1.159, -3.821e-4
-1.158, -3.852e-4
-1.157, -3.852e-4
-1.156, -3.883e-4
-1.155, -3.914e-4
-1.154, -3.945e-4
-1.153, -3.976e-4
-1.152, -4.006e-4
-1.151, -4.037e-4
-1.150, -4.068e-4
-1.149, -4.099e-4
-1.148, -4.130e-4
-1.147, -4.161e-4
-1.146, -4.161e-4
-1.145, -4.161e-4
-1.144, -4.191e-4
-1.143, -4.161e-4
-1.142, -4.191e-4
-1.141, -4.191e-4
-1.140, -4.191e-4
-1.139, -4.222e-4
-1.138, -4.222e-4
-1.137, -4.222e-4
-1.136, -4.253e-4
-1.135, -4.284e-4
-1.134, -4.284e-4
-1.133, -4.315e-4
-1.132, -4.315e-4
-1.131, -4.315e-4
-1.130, -4.315e-4
-1.129, -4.346e-4
-1.128, -4.346e-4
-1.127, -4.376e-4
-1.126, -4.407e-4
-1.125, -4.438e-4
-1.124, -4.500e-4
-1.123, -4.531e-4
-1.122, -4.561e-4
-1.121, -4.623e-4
-1.120, -4.654e-4
-1.119, -4.716e-4
-1.118, -4.716e-4
-1.117, -4.746e-4
-1.116, -4.777e-4
-1.115, -4.777e-4
-1.114, -4.777e-4
-1.113, -4.808e-4
-1.112, -4.808e-4
-1.111, -4.839e-4
-1.110, -4.839e-4
-1.109, -4.870e-4
-1.108, -4.870e-4
-1.107, -4.870e-4
-1.106, -4.870e-4
-1.105, -4.870e-4
-1.104, -4.870e-4
-1.103, -4.870e-4
-1.102, -4.870e-4
-1.101, -4.901e-4
-1.100, -4.901e-4
-1.099, -4.931e-4
-1.098, -4.962e-4
-1.097, -4.993e-4
-1.096, -5.024e-4
-1.095, -5.055e-4
-1.094, -5.086e-4
-1.093, -5.147e-4
-1.092, -5.178e-4
-1.091, -5.209e-4
-1.090, -5.240e-4
-1.089, -5.271e-4
-1.088, -5.301e-4
-1.087, -5.332e-4
-1.086, -5.332e-4
-1.085, -5.363e-4
-1.084, -5.394e-4
-1.083, -5.425e-4
-1.082, -5.456e-4
-1.081, -5.456e-4
-1.080, -5.486e-4
-1.079, -5.486e-4
-1.078, -5.486e-4
-1.077, -5.486e-4
-1.076, -5.486e-4
-1.075, -5.486e-4
-1.074, -5.486e-4
-1.073, -5.486e-4
-1.072, -5.486e-4
-1.071, -5.517e-4
-1.070, -5.517e-4
-1.069, -5.517e-4
-1.068, -5.548e-4
-1.067, -5.548e-4
-1.066, -5.548e-4
-1.065, -5.548e-4
-1.064, -5.579e-4
-1.063, -5.579e-4
-1.062, -5.641e-4
-1.061, -5.641e-4
-1.060, -5.671e-4
-1.059, -5.702e-4
-1.058, -5.702e-4
-1.057, -5.764e-4
-1.056, -5.795e-4
-1.055, -5.826e-4
-1.054, -5.826e-4
-1.053, -5.856e-4
-1.052, -5.887e-4
-1.051, -5.887e-4
-1.050, -5.918e-4
-1.049, -5.949e-4
-1.048, -5.980e-4
-1.047, -6.011e-4
-1.046, -6.011e-4
-1.045, -6.072e-4
-1.044, -6.103e-4
-1.043, -6.103e-4
-1.042, -6.103e-4
-1.041, -6.134e-4
-1.040, -6.103e-4
-1.039, -6.103e-4
-1.038, -6.103e-4
-1.037, -6.072e-4
-1.036, -6.072e-4
-1.035, -6.072e-4
-1.034, -6.041e-4
-1.033, -6.041e-4
-1.032, -6.041e-4
-1.031, -6.041e-4
-1.030, -6.041e-4
-1.029, -6.041e-4
-1.028, -6.072e-4
-1.027, -6.072e-4
-1.026, -6.072e-4
-1.025, -6.072e-4
-1.024, -6.103e-4
-1.023, -6.103e-4
-1.022, -6.134e-4
-1.021, -6.165e-4
-1.020, -6.195e-4
-1.019, -6.226e-4
-1.018, -6.257e-4
-1.017, -6.319e-4
-1.016, -6.350e-4
-1.015, -6.380e-4
-1.014, -6.411e-4
-1.013, -6.411e-4
-1.012, -6.442e-4
-1.011, -6.442e-4
-1.010, -6.473e-4
-1.009, -6.504e-4
-1.008, -6.504e-4
-1.007, -6.535e-4
-1.006, -6.565e-4
-1.005, -6.596e-4
-1.004, -6.627e-4
-1.003, -6.627e-4
-1.002, -6.658e-4
-1.001, -6.658e-4
