Mar. 5, 2025   07:05:58
Cyclic Voltammetry
File: c:/users/guazh/data/banditlqround7_x0exp169_r20_3/2025-03-03-exp875\exp875-2025-03-05t06_52_06-arkoh\exp875_cv_sr_200mvs_efin_-1600mv.bin
Data Source:  Experiment
Instrument Model:  CHI760E
Header: CV ran at 200 mVs
Note: 

Init E (V) = -1
High E (V) = -1
Low E (V) = -1.6
Final E (V) = -1
Init P/N = N
Scan Rate (V/s) = 0.2
Segment = 3
Sample Interval (V) = 0.001
Quiet Time (sec) = 2
Sensitivity (A/V) = 0.01
Comp R (ohm) = 1.4

Results:

Channel 1:
Segment 1:

Segment 2:

Segment 3:

Potential/V, Current/A

-1.000, 2.542e-5
-1.001, 6.626e-5
-1.002, 8.834e-5
-1.003, 1.061e-4
-1.004, 1.176e-4
-1.005, 1.216e-4
-1.006, 1.261e-4
-1.007, 1.308e-4
-1.008, 1.314e-4
-1.009, 1.340e-4
-1.010, 1.392e-4
-1.011, 1.424e-4
-1.012, 1.434e-4
-1.013, 1.458e-4
-1.014, 1.464e-4
-1.015, 1.445e-4
-1.016, 1.445e-4
-1.017, 1.473e-4
-1.018, 1.481e-4
-1.019, 1.499e-4
-1.020, 1.531e-4
-1.021, 1.515e-4
-1.022, 1.493e-4
-1.023, 1.507e-4
-1.024, 1.516e-4
-1.025, 1.511e-4
-1.026, 1.535e-4
-1.027, 1.563e-4
-1.028, 1.562e-4
-1.029, 1.555e-4
-1.030, 1.576e-4
-1.031, 1.551e-4
-1.032, 1.510e-4
-1.033, 1.527e-4
-1.034, 1.535e-4
-1.035, 1.537e-4
-1.036, 1.581e-4
-1.037, 1.617e-4
-1.038, 1.595e-4
-1.039, 1.573e-4
-1.040, 1.573e-4
-1.041, 1.565e-4
-1.042, 1.544e-4
-1.043, 1.569e-4
-1.044, 1.588e-4
-1.045, 1.574e-4
-1.046, 1.588e-4
-1.047, 1.611e-4
-1.048, 1.592e-4
-1.049, 1.578e-4
-1.050, 1.594e-4
-1.051, 1.580e-4
-1.052, 1.562e-4
-1.053, 1.590e-4
-1.054, 1.608e-4
-1.055, 1.597e-4
-1.056, 1.593e-4
-1.057, 1.592e-4
-1.058, 1.568e-4
-1.059, 1.558e-4
-1.060, 1.577e-4
-1.061, 1.587e-4
-1.062, 1.599e-4
-1.063, 1.631e-4
-1.064, 1.623e-4
-1.065, 1.588e-4
-1.066, 1.582e-4
-1.067, 1.590e-4
-1.068, 1.576e-4
-1.069, 1.583e-4
-1.070, 1.617e-4
-1.071, 1.606e-4
-1.072, 1.583e-4
-1.073, 1.609e-4
-1.074, 1.614e-4
-1.075, 1.587e-4
-1.076, 1.578e-4
-1.077, 1.585e-4
-1.078, 1.576e-4
-1.079, 1.582e-4
-1.080, 1.620e-4
-1.081, 1.616e-4
-1.082, 1.589e-4
-1.083, 1.592e-4
-1.084, 1.594e-4
-1.085, 1.569e-4
-1.086, 1.577e-4
-1.087, 1.588e-4
-1.088, 1.563e-4
-1.089, 1.554e-4
-1.090, 1.578e-4
-1.091, 1.580e-4
-1.092, 1.577e-4
-1.093, 1.605e-4
-1.094, 1.626e-4
-1.095, 1.610e-4
-1.096, 1.599e-4
-1.097, 1.595e-4
-1.098, 1.560e-4
-1.099, 1.532e-4
-1.100, 1.555e-4
-1.101, 1.559e-4
-1.102, 1.566e-4
-1.103, 1.593e-4
-1.104, 1.599e-4
-1.105, 1.593e-4
-1.106, 1.599e-4
-1.107, 1.604e-4
-1.108, 1.573e-4
-1.109, 1.548e-4
-1.110, 1.564e-4
-1.111, 1.551e-4
-1.112, 1.540e-4
-1.113, 1.568e-4
-1.114, 1.573e-4
-1.115, 1.559e-4
-1.116, 1.572e-4
-1.117, 1.583e-4
-1.118, 1.557e-4
-1.119, 1.536e-4
-1.120, 1.548e-4
-1.121, 1.545e-4
-1.122, 1.544e-4
-1.123, 1.576e-4
-1.124, 1.589e-4
-1.125, 1.559e-4
-1.126, 1.554e-4
-1.127, 1.558e-4
-1.128, 1.529e-4
-1.129, 1.527e-4
-1.130, 1.563e-4
-1.131, 1.561e-4
-1.132, 1.546e-4
-1.133, 1.547e-4
-1.134, 1.543e-4
-1.135, 1.523e-4
-1.136, 1.528e-4
-1.137, 1.557e-4
-1.138, 1.557e-4
-1.139, 1.552e-4
-1.140, 1.562e-4
-1.141, 1.530e-4
-1.142, 1.494e-4
-1.143, 1.507e-4
-1.144, 1.520e-4
-1.145, 1.526e-4
-1.146, 1.553e-4
-1.147, 1.563e-4
-1.148, 1.534e-4
-1.149, 1.505e-4
-1.150, 1.514e-4
-1.151, 1.501e-4
-1.152, 1.486e-4
-1.153, 1.512e-4
-1.154, 1.540e-4
-1.155, 1.529e-4
-1.156, 1.539e-4
-1.157, 1.537e-4
-1.158, 1.500e-4
-1.159, 1.480e-4
-1.160, 1.493e-4
-1.161, 1.494e-4
-1.162, 1.492e-4
-1.163, 1.519e-4
-1.164, 1.525e-4
-1.165, 1.502e-4
-1.166, 1.506e-4
-1.167, 1.515e-4
-1.168, 1.483e-4
-1.169, 1.460e-4
-1.170, 1.474e-4
-1.171, 1.468e-4
-1.172, 1.452e-4
-1.173, 1.488e-4
-1.174, 1.506e-4
-1.175, 1.487e-4
-1.176, 1.479e-4
-1.177, 1.488e-4
-1.178, 1.469e-4
-1.179, 1.451e-4
-1.180, 1.471e-4
-1.181, 1.463e-4
-1.182, 1.452e-4
-1.183, 1.464e-4
-1.184, 1.464e-4
-1.185, 1.446e-4
-1.186, 1.447e-4
-1.187, 1.452e-4
-1.188, 1.433e-4
-1.189, 1.425e-4
-1.190, 1.445e-4
-1.191, 1.446e-4
-1.192, 1.432e-4
-1.193, 1.450e-4
-1.194, 1.440e-4
-1.195, 1.404e-4
-1.196, 1.406e-4
-1.197, 1.413e-4
-1.198, 1.398e-4
-1.199, 1.402e-4
-1.200, 1.430e-4
-1.201, 1.424e-4
-1.202, 1.393e-4
-1.203, 1.413e-4
-1.204, 1.423e-4
-1.205, 1.396e-4
-1.206, 1.393e-4
-1.207, 1.396e-4
-1.208, 1.373e-4
-1.209, 1.362e-4
-1.210, 1.379e-4
-1.211, 1.371e-4
-1.212, 1.362e-4
-1.213, 1.379e-4
-1.214, 1.383e-4
-1.215, 1.372e-4
-1.216, 1.377e-4
-1.217, 1.378e-4
-1.218, 1.342e-4
-1.219, 1.329e-4
-1.220, 1.351e-4
-1.221, 1.348e-4
-1.222, 1.344e-4
-1.223, 1.372e-4
-1.224, 1.362e-4
-1.225, 1.327e-4
-1.226, 1.322e-4
-1.227, 1.332e-4
-1.228, 1.320e-4
-1.229, 1.336e-4
-1.230, 1.360e-4
-1.231, 1.347e-4
-1.232, 1.314e-4
-1.233, 1.318e-4
-1.234, 1.312e-4
-1.235, 1.294e-4
-1.236, 1.307e-4
-1.237, 1.336e-4
-1.238, 1.337e-4
-1.239, 1.329e-4
-1.240, 1.329e-4
-1.241, 1.308e-4
-1.242, 1.283e-4
-1.243, 1.291e-4
-1.244, 1.297e-4
-1.245, 1.294e-4
-1.246, 1.315e-4
-1.247, 1.323e-4
-1.248, 1.305e-4
-1.249, 1.305e-4
-1.250, 1.321e-4
-1.251, 1.296e-4
-1.252, 1.273e-4
-1.253, 1.287e-4
-1.254, 1.294e-4
-1.255, 1.288e-4
-1.256, 1.297e-4
-1.257, 1.316e-4
-1.258, 1.312e-4
-1.259, 1.305e-4
-1.260, 1.319e-4
-1.261, 1.299e-4
-1.262, 1.282e-4
-1.263, 1.295e-4
-1.264, 1.296e-4
-1.265, 1.291e-4
-1.266, 1.307e-4
-1.267, 1.332e-4
-1.268, 1.325e-4
-1.269, 1.316e-4
-1.270, 1.331e-4
-1.271, 1.317e-4
-1.272, 1.294e-4
-1.273, 1.313e-4
-1.274, 1.323e-4
-1.275, 1.321e-4
-1.276, 1.343e-4
-1.277, 1.356e-4
-1.278, 1.335e-4
-1.279, 1.327e-4
-1.280, 1.351e-4
-1.281, 1.341e-4
-1.282, 1.337e-4
-1.283, 1.376e-4
-1.284, 1.394e-4
-1.285, 1.368e-4
-1.286, 1.369e-4
-1.287, 1.378e-4
-1.288, 1.365e-4
-1.289, 1.367e-4
-1.290, 1.399e-4
-1.291, 1.420e-4
-1.292, 1.424e-4
-1.293, 1.436e-4
-1.294, 1.428e-4
-1.295, 1.410e-4
-1.296, 1.414e-4
-1.297, 1.436e-4
-1.298, 1.447e-4
-1.299, 1.470e-4
-1.300, 1.502e-4
-1.301, 1.485e-4
-1.302, 1.463e-4
-1.303, 1.486e-4
-1.304, 1.494e-4
-1.305, 1.489e-4
-1.306, 1.523e-4
-1.307, 1.570e-4
-1.308, 1.567e-4
-1.309, 1.560e-4
-1.310, 1.576e-4
-1.311, 1.568e-4
-1.312, 1.566e-4
-1.313, 1.595e-4
-1.314, 1.618e-4
-1.315, 1.635e-4
-1.316, 1.662e-4
-1.317, 1.670e-4
-1.318, 1.655e-4
-1.319, 1.664e-4
-1.320, 1.698e-4
-1.321, 1.703e-4
-1.322, 1.729e-4
-1.323, 1.781e-4
-1.324, 1.794e-4
-1.325, 1.773e-4
-1.326, 1.780e-4
-1.327, 1.803e-4
-1.328, 1.802e-4
-1.329, 1.827e-4
-1.330, 1.881e-4
-1.331, 1.898e-4
-1.332, 1.910e-4
-1.333, 1.946e-4
-1.334, 1.965e-4
-1.335, 1.959e-4
-1.336, 1.970e-4
-1.337, 2.002e-4
-1.338, 2.015e-4
-1.339, 2.040e-4
-1.340, 2.100e-4
-1.341, 2.119e-4
-1.342, 2.130e-4
-1.343, 2.170e-4
-1.344, 2.188e-4
-1.345, 2.191e-4
-1.346, 2.215e-4
-1.347, 2.240e-4
-1.348, 2.250e-4
-1.349, 2.299e-4
-1.350, 2.361e-4
-1.351, 2.391e-4
-1.352, 2.402e-4
-1.353, 2.437e-4
-1.354, 2.462e-4
-1.355, 2.474e-4
-1.356, 2.512e-4
-1.357, 2.567e-4
-1.358, 2.602e-4
-1.359, 2.650e-4
-1.360, 2.687e-4
-1.361, 2.712e-4
-1.362, 2.747e-4
-1.363, 2.797e-4
-1.364, 2.824e-4
-1.365, 2.833e-4
-1.366, 2.890e-4
-1.367, 2.961e-4
-1.368, 2.996e-4
-1.369, 3.048e-4
-1.370, 3.116e-4
-1.371, 3.135e-4
-1.372, 3.170e-4
-1.373, 3.237e-4
-1.374, 3.280e-4
-1.375, 3.290e-4
-1.376, 3.340e-4
-1.377, 3.421e-4
-1.378, 3.473e-4
-1.379, 3.538e-4
-1.380, 3.629e-4
-1.381, 3.707e-4
-1.382, 3.770e-4
-1.383, 3.836e-4
-1.384, 3.870e-4
-1.385, 3.884e-4
-1.386, 3.923e-4
-1.387, 3.982e-4
-1.388, 4.047e-4
-1.389, 4.136e-4
-1.390, 4.286e-4
-1.391, 4.399e-4
-1.392, 4.459e-4
-1.393, 4.531e-4
-1.394, 4.589e-4
-1.395, 4.629e-4
-1.396, 4.698e-4
-1.397, 4.796e-4
-1.398, 4.890e-4
-1.399, 4.981e-4
-1.400, 5.080e-4
-1.401, 5.195e-4
-1.402, 5.309e-4
-1.403, 5.409e-4
-1.404, 5.476e-4
-1.405, 5.533e-4
-1.406, 5.642e-4
-1.407, 5.766e-4
-1.408, 5.868e-4
-1.409, 6.009e-4
-1.410, 6.145e-4
-1.411, 6.262e-4
-1.412, 6.387e-4
-1.413, 6.535e-4
-1.414, 6.645e-4
-1.415, 6.717e-4
-1.416, 6.809e-4
-1.417, 6.958e-4
-1.418, 7.099e-4
-1.419, 7.247e-4
-1.420, 7.489e-4
-1.421, 7.698e-4
-1.422, 7.828e-4
-1.423, 7.952e-4
-1.424, 8.071e-4
-1.425, 8.188e-4
-1.426, 8.331e-4
-1.427, 8.514e-4
-1.428, 8.710e-4
-1.429, 8.887e-4
-1.430, 9.066e-4
-1.431, 9.275e-4
-1.432, 9.493e-4
-1.433, 9.704e-4
-1.434, 9.834e-4
-1.435, 9.976e-4
-1.436, 1.018e-3
-1.437, 1.042e-3
-1.438, 1.069e-3
-1.439, 1.096e-3
-1.440, 1.118e-3
-1.441, 1.133e-3
-1.442, 1.147e-3
-1.443, 1.172e-3
-1.444, 1.199e-3
-1.445, 1.222e-3
-1.446, 1.257e-3
-1.447, 1.293e-3
-1.448, 1.316e-3
-1.449, 1.330e-3
-1.450, 1.347e-3
-1.451, 1.367e-3
-1.452, 1.388e-3
-1.453, 1.433e-3
-1.454, 1.484e-3
-1.455, 1.518e-3
-1.456, 1.541e-3
-1.457, 1.562e-3
-1.458, 1.580e-3
-1.459, 1.598e-3
-1.460, 1.628e-3
-1.461, 1.667e-3
-1.462, 1.719e-3
-1.463, 1.766e-3
-1.464, 1.800e-3
-1.465, 1.823e-3
-1.466, 1.846e-3
-1.467, 1.869e-3
-1.468, 1.903e-3
-1.469, 1.938e-3
-1.470, 1.988e-3
-1.471, 2.048e-3
-1.472, 2.091e-3
-1.473, 2.116e-3
-1.474, 2.137e-3
-1.475, 2.168e-3
-1.476, 2.206e-3
-1.477, 2.250e-3
-1.478, 2.303e-3
-1.479, 2.350e-3
-1.480, 2.406e-3
-1.481, 2.450e-3
-1.482, 2.481e-3
-1.483, 2.516e-3
-1.484, 2.558e-3
-1.485, 2.603e-3
-1.486, 2.650e-3
-1.487, 2.703e-3
-1.488, 2.758e-3
-1.489, 2.802e-3
-1.490, 2.852e-3
-1.491, 2.908e-3
-1.492, 2.961e-3
-1.493, 3.002e-3
-1.494, 3.030e-3
-1.495, 3.064e-3
-1.496, 3.114e-3
-1.497, 3.165e-3
-1.498, 3.226e-3
-1.499, 3.290e-3
-1.500, 3.352e-3
-1.501, 3.393e-3
-1.502, 3.451e-3
-1.503, 3.531e-3
-1.504, 3.590e-3
-1.505, 3.620e-3
-1.506, 3.642e-3
-1.507, 3.687e-3
-1.508, 3.733e-3
-1.509, 3.776e-3
-1.510, 3.845e-3
-1.511, 3.934e-3
-1.512, 4.008e-3
-1.513, 4.060e-3
-1.514, 4.141e-3
-1.515, 4.209e-3
-1.516, 4.242e-3
-1.517, 4.252e-3
-1.518, 4.277e-3
-1.519, 4.306e-3
-1.520, 4.348e-3
-1.521, 4.407e-3
-1.522, 4.489e-3
-1.523, 4.570e-3
-1.524, 4.668e-3
-1.525, 4.779e-3
-1.526, 4.865e-3
-1.527, 4.910e-3
-1.528, 4.927e-3
-1.529, 4.928e-3
-1.530, 4.932e-3
-1.531, 4.957e-3
-1.532, 5.015e-3
-1.533, 5.113e-3
-1.534, 5.224e-3
-1.535, 5.302e-3
-1.536, 5.372e-3
-1.537, 5.478e-3
-1.538, 5.548e-3
-1.539, 5.557e-3
-1.540, 5.545e-3
-1.541, 5.548e-3
-1.542, 5.561e-3
-1.543, 5.617e-3
-1.544, 5.694e-3
-1.545, 5.792e-3
-1.546, 5.901e-3
-1.547, 5.973e-3
-1.548, 6.025e-3
-1.549, 6.077e-3
-1.550, 6.127e-3
-1.551, 6.162e-3
-1.552, 6.177e-3
-1.553, 6.271e-3
-1.554, 6.346e-3
-1.555, 6.391e-3
-1.556, 6.433e-3
-1.557, 6.490e-3
-1.558, 6.561e-3
-1.559, 6.621e-3
-1.560, 6.681e-3
-1.561, 6.750e-3
-1.562, 6.799e-3
-1.563, 6.801e-3
-1.564, 6.858e-3
-1.565, 6.941e-3
-1.566, 6.992e-3
-1.567, 7.014e-3
-1.568, 7.031e-3
-1.569, 7.084e-3
-1.570, 7.151e-3
-1.571, 7.222e-3
-1.572, 7.301e-3
-1.573, 7.391e-3
-1.574, 7.451e-3
-1.575, 7.524e-3
-1.576, 7.623e-3
-1.577, 7.673e-3
-1.578, 7.674e-3
-1.579, 7.659e-3
-1.580, 7.673e-3
-1.581, 7.700e-3
-1.582, 7.781e-3
-1.583, 7.915e-3
-1.584, 8.026e-3
-1.585, 8.105e-3
-1.586, 8.165e-3
-1.587, 8.206e-3
-1.588, 8.247e-3
-1.589, 8.267e-3
-1.590, 8.268e-3
-1.591, 8.345e-3
-1.592, 8.470e-3
-1.593, 8.518e-3
-1.594, 8.540e-3
-1.595, 8.558e-3
-1.596, 8.597e-3
-1.597, 8.674e-3
-1.598, 8.758e-3
-1.599, 8.869e-3
-1.600, 8.901e-3
-1.599, 8.878e-3
-1.598, 8.825e-3
-1.597, 8.739e-3
-1.596, 8.624e-3
-1.595, 8.487e-3
-1.594, 8.372e-3
-1.593, 8.302e-3
-1.592, 8.233e-3
-1.591, 8.154e-3
-1.590, 8.164e-3
-1.589, 8.189e-3
-1.588, 8.147e-3
-1.587, 8.068e-3
-1.586, 7.990e-3
-1.585, 7.900e-3
-1.584, 7.824e-3
-1.583, 7.714e-3
-1.582, 7.670e-3
-1.581, 7.640e-3
-1.580, 7.560e-3
-1.579, 7.518e-3
-1.578, 7.536e-3
-1.577, 7.540e-3
-1.576, 7.493e-3
-1.575, 7.400e-3
-1.574, 7.322e-3
-1.573, 7.236e-3
-1.572, 7.130e-3
-1.571, 7.056e-3
-1.570, 7.006e-3
-1.569, 6.959e-3
-1.568, 6.929e-3
-1.567, 6.934e-3
-1.566, 6.907e-3
-1.565, 6.814e-3
-1.564, 6.692e-3
-1.563, 6.575e-3
-1.562, 6.510e-3
-1.561, 6.426e-3
-1.560, 6.400e-3
-1.559, 6.412e-3
-1.558, 6.383e-3
-1.557, 6.323e-3
-1.556, 6.262e-3
-1.555, 6.201e-3
-1.554, 6.134e-3
-1.553, 6.067e-3
-1.552, 5.992e-3
-1.551, 6.001e-3
-1.550, 5.990e-3
-1.549, 5.928e-3
-1.548, 5.851e-3
-1.547, 5.785e-3
-1.546, 5.726e-3
-1.545, 5.676e-3
-1.544, 5.635e-3
-1.543, 5.606e-3
-1.542, 5.591e-3
-1.541, 5.519e-3
-1.540, 5.466e-3
-1.539, 5.420e-3
-1.538, 5.347e-3
-1.537, 5.274e-3
-1.536, 5.197e-3
-1.535, 5.147e-3
-1.534, 5.110e-3
-1.533, 5.090e-3
-1.532, 5.093e-3
-1.531, 5.069e-3
-1.530, 5.059e-3
-1.529, 4.962e-3
-1.528, 4.861e-3
-1.527, 4.791e-3
-1.526, 4.729e-3
-1.525, 4.676e-3
-1.524, 4.653e-3
-1.523, 4.645e-3
-1.522, 4.614e-3
-1.521, 4.555e-3
-1.520, 4.487e-3
-1.519, 4.431e-3
-1.518, 4.365e-3
-1.517, 4.312e-3
-1.516, 4.285e-3
-1.515, 4.299e-3
-1.514, 4.306e-3
-1.513, 4.245e-3
-1.512, 4.156e-3
-1.511, 4.075e-3
-1.510, 4.009e-3
-1.509, 3.968e-3
-1.508, 3.915e-3
-1.507, 3.890e-3
-1.506, 3.870e-3
-1.505, 3.830e-3
-1.504, 3.795e-3
-1.503, 3.756e-3
-1.502, 3.697e-3
-1.501, 3.631e-3
-1.500, 3.560e-3
-1.499, 3.499e-3
-1.498, 3.442e-3
-1.497, 3.415e-3
-1.496, 3.409e-3
-1.495, 3.379e-3
-1.494, 3.339e-3
-1.493, 3.304e-3
-1.492, 3.261e-3
-1.491, 3.220e-3
-1.490, 3.165e-3
-1.489, 3.112e-3
-1.488, 3.085e-3
-1.487, 3.071e-3
-1.486, 3.044e-3
-1.485, 2.994e-3
-1.484, 2.947e-3
-1.483, 2.897e-3
-1.482, 2.841e-3
-1.481, 2.819e-3
-1.480, 2.806e-3
-1.479, 2.776e-3
-1.478, 2.731e-3
-1.477, 2.677e-3
-1.476, 2.623e-3
-1.475, 2.574e-3
-1.474, 2.531e-3
-1.473, 2.508e-3
-1.472, 2.483e-3
-1.471, 2.464e-3
-1.470, 2.452e-3
-1.469, 2.423e-3
-1.468, 2.377e-3
-1.467, 2.333e-3
-1.466, 2.284e-3
-1.465, 2.238e-3
-1.464, 2.208e-3
-1.463, 2.197e-3
-1.462, 2.174e-3
-1.461, 2.133e-3
-1.460, 2.090e-3
-1.459, 2.056e-3
-1.458, 2.024e-3
-1.457, 1.999e-3
-1.456, 1.972e-3
-1.455, 1.942e-3
-1.454, 1.915e-3
-1.453, 1.900e-3
-1.452, 1.878e-3
-1.451, 1.841e-3
-1.450, 1.795e-3
-1.449, 1.752e-3
-1.448, 1.713e-3
-1.447, 1.689e-3
-1.446, 1.678e-3
-1.445, 1.665e-3
-1.444, 1.641e-3
-1.443, 1.609e-3
-1.442, 1.570e-3
-1.441, 1.538e-3
-1.440, 1.513e-3
-1.439, 1.488e-3
-1.438, 1.467e-3
-1.437, 1.448e-3
-1.436, 1.425e-3
-1.435, 1.396e-3
-1.434, 1.365e-3
-1.433, 1.337e-3
-1.432, 1.302e-3
-1.431, 1.281e-3
-1.430, 1.279e-3
-1.429, 1.262e-3
-1.428, 1.234e-3
-1.427, 1.205e-3
-1.426, 1.181e-3
-1.425, 1.152e-3
-1.424, 1.126e-3
-1.423, 1.114e-3
-1.422, 1.099e-3
-1.421, 1.085e-3
-1.420, 1.062e-3
-1.419, 1.048e-3
-1.418, 1.027e-3
-1.417, 9.991e-4
-1.416, 9.718e-4
-1.415, 9.465e-4
-1.414, 9.274e-4
-1.413, 9.172e-4
-1.412, 9.079e-4
-1.411, 8.912e-4
-1.410, 8.715e-4
-1.409, 8.460e-4
-1.408, 8.244e-4
-1.407, 8.067e-4
-1.406, 7.973e-4
-1.405, 7.889e-4
-1.404, 7.732e-4
-1.403, 7.564e-4
-1.402, 7.345e-4
-1.401, 7.142e-4
-1.400, 6.982e-4
-1.399, 6.848e-4
-1.398, 6.725e-4
-1.397, 6.625e-4
-1.396, 6.498e-4
-1.395, 6.382e-4
-1.394, 6.274e-4
-1.393, 6.109e-4
-1.392, 5.879e-4
-1.391, 5.686e-4
-1.390, 5.560e-4
-1.389, 5.484e-4
-1.388, 5.448e-4
-1.387, 5.383e-4
-1.386, 5.237e-4
-1.385, 5.056e-4
-1.384, 4.898e-4
-1.383, 4.787e-4
-1.382, 4.678e-4
-1.381, 4.591e-4
-1.380, 4.515e-4
-1.379, 4.396e-4
-1.378, 4.278e-4
-1.377, 4.209e-4
-1.376, 4.125e-4
-1.375, 3.979e-4
-1.374, 3.855e-4
-1.373, 3.768e-4
-1.372, 3.682e-4
-1.371, 3.603e-4
-1.370, 3.569e-4
-1.369, 3.487e-4
-1.368, 3.370e-4
-1.367, 3.269e-4
-1.366, 3.175e-4
-1.365, 3.071e-4
-1.364, 3.001e-4
-1.363, 2.967e-4
-1.362, 2.914e-4
-1.361, 2.823e-4
-1.360, 2.754e-4
-1.359, 2.660e-4
-1.358, 2.566e-4
-1.357, 2.506e-4
-1.356, 2.455e-4
-1.355, 2.397e-4
-1.354, 2.338e-4
-1.353, 2.278e-4
-1.352, 2.214e-4
-1.351, 2.145e-4
-1.350, 2.072e-4
-1.349, 1.995e-4
-1.348, 1.937e-4
-1.347, 1.907e-4
-1.346, 1.875e-4
-1.345, 1.824e-4
-1.344, 1.766e-4
-1.343, 1.703e-4
-1.342, 1.625e-4
-1.341, 1.571e-4
-1.340, 1.554e-4
-1.339, 1.509e-4
-1.338, 1.459e-4
-1.337, 1.424e-4
-1.336, 1.385e-4
-1.335, 1.326e-4
-1.334, 1.279e-4
-1.333, 1.241e-4
-1.332, 1.181e-4
-1.331, 1.140e-4
-1.330, 1.125e-4
-1.329, 1.092e-4
-1.328, 1.051e-4
-1.327, 1.017e-4
-1.326, 9.782e-5
-1.325, 9.244e-5
-1.324, 8.858e-5
-1.323, 8.651e-5
-1.322, 8.300e-5
-1.321, 7.993e-5
-1.320, 7.899e-5
-1.319, 7.459e-5
-1.318, 6.943e-5
-1.317, 6.721e-5
-1.316, 6.413e-5
-1.315, 6.103e-5
-1.314, 5.990e-5
-1.313, 5.781e-5
-1.312, 5.377e-5
-1.311, 5.016e-5
-1.310, 4.855e-5
-1.309, 4.597e-5
-1.308, 4.221e-5
-1.307, 4.139e-5
-1.306, 3.936e-5
-1.305, 3.560e-5
-1.304, 3.435e-5
-1.303, 3.263e-5
-1.302, 2.860e-5
-1.301, 2.570e-5
-1.300, 2.554e-5
-1.299, 2.307e-5
-1.298, 1.960e-5
-1.297, 1.879e-5
-1.296, 1.755e-5
-1.295, 1.380e-5
-1.294, 1.246e-5
-1.293, 1.188e-5
-1.292, 8.877e-6
-1.291, 6.371e-6
-1.290, 6.223e-6
-1.289, 4.053e-6
-1.288, 1.823e-6
-1.287, 1.024e-6
-1.286, -2.190e-7
-1.285, -3.090e-6
-1.284, -4.353e-6
-1.283, -4.807e-6
-1.282, -6.898e-6
-1.281, -9.256e-6
-1.280, -9.454e-6
-1.279, -1.106e-5
-1.278, -1.349e-5
-1.277, -1.371e-5
-1.276, -1.487e-5
-1.275, -1.750e-5
-1.274, -1.783e-5
-1.273, -1.832e-5
-1.272, -2.081e-5
-1.271, -2.290e-5
-1.270, -2.233e-5
-1.269, -2.337e-5
-1.268, -2.594e-5
-1.267, -2.524e-5
-1.266, -2.619e-5
-1.265, -2.937e-5
-1.264, -3.001e-5
-1.263, -3.010e-5
-1.262, -3.218e-5
-1.261, -3.325e-5
-1.260, -3.249e-5
-1.259, -3.423e-5
-1.258, -3.702e-5
-1.257, -3.665e-5
-1.256, -3.700e-5
-1.255, -3.983e-5
-1.254, -4.067e-5
-1.253, -3.966e-5
-1.252, -4.125e-5
-1.251, -4.256e-5
-1.250, -4.190e-5
-1.249, -4.392e-5
-1.248, -4.607e-5
-1.247, -4.569e-5
-1.246, -4.649e-5
-1.245, -4.869e-5
-1.244, -4.895e-5
-1.243, -4.812e-5
-1.242, -4.983e-5
-1.241, -5.097e-5
-1.240, -5.012e-5
-1.239, -5.156e-5
-1.238, -5.425e-5
-1.237, -5.376e-5
-1.236, -5.370e-5
-1.235, -5.658e-5
-1.234, -5.721e-5
-1.233, -5.660e-5
-1.232, -5.779e-5
-1.231, -5.866e-5
-1.230, -5.772e-5
-1.229, -6.000e-5
-1.228, -6.163e-5
-1.227, -6.120e-5
-1.226, -6.130e-5
-1.225, -6.358e-5
-1.224, -6.400e-5
-1.223, -6.421e-5
-1.222, -6.571e-5
-1.221, -6.658e-5
-1.220, -6.479e-5
-1.219, -6.574e-5
-1.218, -6.789e-5
-1.217, -6.762e-5
-1.216, -6.768e-5
-1.215, -7.023e-5
-1.214, -7.136e-5
-1.213, -7.101e-5
-1.212, -7.264e-5
-1.211, -7.334e-5
-1.210, -7.145e-5
-1.209, -7.244e-5
-1.208, -7.406e-5
-1.207, -7.461e-5
-1.206, -7.573e-5
-1.205, -7.803e-5
-1.204, -7.831e-5
-1.203, -7.740e-5
-1.202, -7.862e-5
-1.201, -7.950e-5
-1.200, -7.780e-5
-1.199, -7.874e-5
-1.198, -8.123e-5
-1.197, -8.187e-5
-1.196, -8.245e-5
-1.195, -8.404e-5
-1.194, -8.354e-5
-1.193, -8.271e-5
-1.192, -8.385e-5
-1.191, -8.496e-5
-1.190, -8.457e-5
-1.189, -8.570e-5
-1.188, -8.933e-5
-1.187, -8.924e-5
-1.186, -8.858e-5
-1.185, -8.991e-5
-1.184, -8.945e-5
-1.183, -8.872e-5
-1.182, -9.016e-5
-1.181, -9.234e-5
-1.180, -9.234e-5
-1.179, -9.441e-5
-1.178, -9.637e-5
-1.177, -9.475e-5
-1.176, -9.362e-5
-1.175, -9.530e-5
-1.174, -9.594e-5
-1.173, -9.546e-5
-1.172, -9.845e-5
-1.171, -1.006e-4
-1.170, -9.943e-5
-1.169, -1.001e-4
-1.168, -1.013e-4
-1.167, -9.959e-5
-1.166, -9.981e-5
-1.165, -1.016e-4
-1.164, -1.037e-4
-1.163, -1.044e-4
-1.162, -1.067e-4
-1.161, -1.078e-4
-1.160, -1.053e-4
-1.159, -1.061e-4
-1.158, -1.078e-4
-1.157, -1.069e-4
-1.156, -1.077e-4
-1.155, -1.103e-4
-1.154, -1.105e-4
-1.153, -1.109e-4
-1.152, -1.133e-4
-1.151, -1.144e-4
-1.150, -1.128e-4
-1.149, -1.129e-4
-1.148, -1.157e-4
-1.147, -1.155e-4
-1.146, -1.154e-4
-1.145, -1.181e-4
-1.144, -1.180e-4
-1.143, -1.171e-4
-1.142, -1.197e-4
-1.141, -1.215e-4
-1.140, -1.206e-4
-1.139, -1.206e-4
-1.138, -1.219e-4
-1.137, -1.215e-4
-1.136, -1.218e-4
-1.135, -1.256e-4
-1.134, -1.269e-4
-1.133, -1.253e-4
-1.132, -1.267e-4
-1.131, -1.275e-4
-1.130, -1.260e-4
-1.129, -1.273e-4
-1.128, -1.307e-4
-1.127, -1.313e-4
-1.126, -1.307e-4
-1.125, -1.318e-4
-1.124, -1.321e-4
-1.123, -1.308e-4
-1.122, -1.331e-4
-1.121, -1.355e-4
-1.120, -1.352e-4
-1.119, -1.366e-4
-1.118, -1.391e-4
-1.117, -1.386e-4
-1.116, -1.387e-4
-1.115, -1.399e-4
-1.114, -1.391e-4
-1.113, -1.371e-4
-1.112, -1.385e-4
-1.111, -1.402e-4
-1.110, -1.413e-4
-1.109, -1.447e-4
-1.108, -1.473e-4
-1.107, -1.455e-4
-1.106, -1.442e-4
-1.105, -1.467e-4
-1.104, -1.464e-4
-1.103, -1.456e-4
-1.102, -1.477e-4
-1.101, -1.489e-4
-1.100, -1.482e-4
-1.099, -1.496e-4
-1.098, -1.522e-4
-1.097, -1.512e-4
-1.096, -1.507e-4
-1.095, -1.524e-4
-1.094, -1.533e-4
-1.093, -1.530e-4
-1.092, -1.558e-4
-1.091, -1.572e-4
-1.090, -1.560e-4
-1.089, -1.565e-4
-1.088, -1.587e-4
-1.087, -1.574e-4
-1.086, -1.563e-4
-1.085, -1.572e-4
-1.084, -1.578e-4
-1.083, -1.577e-4
-1.082, -1.613e-4
-1.081, -1.644e-4
-1.080, -1.624e-4
-1.079, -1.621e-4
-1.078, -1.637e-4
-1.077, -1.621e-4
-1.076, -1.623e-4
-1.075, -1.661e-4
-1.074, -1.669e-4
-1.073, -1.652e-4
-1.072, -1.650e-4
-1.071, -1.671e-4
-1.070, -1.659e-4
-1.069, -1.666e-4
-1.068, -1.708e-4
-1.067, -1.714e-4
-1.066, -1.706e-4
-1.065, -1.717e-4
-1.064, -1.702e-4
-1.063, -1.678e-4
-1.062, -1.687e-4
-1.061, -1.713e-4
-1.060, -1.722e-4
-1.059, -1.736e-4
-1.058, -1.752e-4
-1.057, -1.734e-4
-1.056, -1.720e-4
-1.055, -1.735e-4
-1.054, -1.750e-4
-1.053, -1.757e-4
-1.052, -1.782e-4
-1.051, -1.786e-4
-1.050, -1.748e-4
-1.049, -1.743e-4
-1.048, -1.761e-4
-1.047, -1.762e-4
-1.046, -1.773e-4
-1.045, -1.806e-4
-1.044, -1.822e-4
-1.043, -1.810e-4
-1.042, -1.835e-4
-1.041, -1.852e-4
-1.040, -1.819e-4
-1.039, -1.804e-4
-1.038, -1.804e-4
-1.037, -1.791e-4
-1.036, -1.789e-4
-1.035, -1.829e-4
-1.034, -1.842e-4
-1.033, -1.845e-4
-1.032, -1.876e-4
-1.031, -1.901e-4
-1.030, -1.873e-4
-1.029, -1.854e-4
-1.028, -1.865e-4
-1.027, -1.840e-4
-1.026, -1.832e-4
-1.025, -1.863e-4
-1.024, -1.881e-4
-1.023, -1.892e-4
-1.022, -1.927e-4
-1.021, -1.966e-4
-1.020, -1.959e-4
-1.019, -1.937e-4
-1.018, -1.929e-4
-1.017, -1.900e-4
-1.016, -1.882e-4
-1.015, -1.907e-4
-1.014, -1.927e-4
-1.013, -1.917e-4
-1.012, -1.936e-4
-1.011, -1.966e-4
-1.010, -1.965e-4
-1.009, -1.957e-4
-1.008, -1.953e-4
-1.007, -1.926e-4
-1.006, -1.916e-4
-1.005, -1.942e-4
-1.004, -1.964e-4
-1.003, -1.970e-4
-1.002, -1.990e-4
-1.001, -1.995e-4
