Potential V vs RHE, Current mA cm-2
0.013299999999999867,-5.411270721983764
0.012299999999999978,-9.55496011928846
0.011299999999999866,-12.346185513922174
0.010299999999999976,-14.217848563643619
0.009299999999999864,-15.533530072518102
0.008299999999999974,-16.495533756426326
0.007299999999999862,-17.358507649344002
0.006299999999999972,-18.19318731626437
0.00529999999999986,-18.92883719219419
0.0042999999999999705,-19.49472171214021
0.0032999999999998586,-19.805958198110513
0.0022999999999999687,-19.97572355409432
0.0012999999999998568,-20.202077362072725
0.00029999999999996696,-20.584049413036283
-0.000700000000000145,-20.980168576998494
-0.0017000000000000348,-21.376287740960702
-0.0027000000000001467,-21.58849443594046
-0.0037000000000000366,-21.67337711393236
-0.0047000000000001485,-21.67337711393236
-0.005700000000000038,-21.899730921910766
-0.00670000000000015,-22.196820294882425
-0.00770000000000004,-22.46561544185678
-0.008700000000000152,-22.776851927827092
-0.009700000000000042,-22.861734605818995
-0.010700000000000154,-22.904175944814945
-0.011700000000000044,-22.904175944814945
-0.012700000000000156,-23.031499961802798
-0.013700000000000045,-23.342736447773106
-0.014700000000000157,-23.639825820744765
-0.015700000000000047,-23.767149837732617
-0.01670000000000016,-23.86617962872317
-0.01770000000000005,-23.767149837732617
-0.01870000000000016,-23.767149837732617
-0.01970000000000005,-23.993503645711023
-0.020700000000000163,-24.24815167968673
-0.021700000000000053,-24.516946826661083
-0.022700000000000164,-24.729153521640843
-0.023700000000000054,-24.729153521640843
-0.024700000000000166,-24.729153521640843
-0.025700000000000056,-24.771594860636792
-0.026700000000000168,-25.04039000761115
-0.027700000000000058,-25.337479380582806
-0.02870000000000017,-25.60627452755716
-0.02970000000000006,-25.648715866553115
-0.03070000000000017,-25.60627452755716
-0.03170000000000006,-25.60627452755716
-0.03270000000000017,-25.73359854454502
-0.03370000000000006,-25.959952352523427
-0.034700000000000175,-26.29948306449103
-0.035700000000000065,-26.440954194477534
-0.03670000000000018,-26.483395533473487
-0.03770000000000007,-26.440954194477534
-0.03870000000000018,-26.483395533473487
-0.03970000000000007,-26.65316088945729
-0.04070000000000018,-26.9643973754276
-0.04170000000000007,-27.261486748399253
-0.04270000000000018,-27.38881076538711
-0.04370000000000007,-27.34636942639116
-0.044700000000000184,-27.303928087395207
-0.045700000000000074,-27.38881076538711
-0.046700000000000186,-27.615164573365515
-0.047700000000000076,-27.912253946337174
-0.04870000000000019,-28.18104909331153
-0.04970000000000008,-28.22349043230748
-0.05070000000000019,-28.18104909331153
-0.05170000000000008,-28.22349043230748
-0.05270000000000019,-28.350814449295335
-0.05370000000000008,-28.619609596269694
-0.05470000000000019,-28.959140308237306
-0.05570000000000008,-29.14305277721976
-0.056700000000000195,-29.18549411621571
-0.057700000000000085,-29.14305277721976
-0.058700000000000196,-29.18549411621571
-0.059700000000000086,-29.39770081119546
-0.0607000000000002,-29.66649595816982
-0.06170000000000009,-30.00602667013743
-0.0627000000000002,-30.147497800123933
-0.06370000000000009,-30.147497800123933
-0.0647000000000002,-30.10505646112798
-0.06570000000000009,-30.189939139119886
-0.0667000000000002,-30.402145834099635
-0.0677000000000001,-30.7558236590659
-0.0687000000000002,-31.052913032037555
-0.0697000000000001,-31.19438416202406
-0.07070000000000021,-31.23682550102001
-0.0717000000000001,-31.27926684001596
-0.07270000000000021,-31.449032195999767
-0.0737000000000001,-31.802710020966025
-0.07470000000000021,-32.14224073293363
-0.0757000000000001,-32.368594540912035
-0.07670000000000021,-32.41103587990799
-0.0777000000000001,-32.368594540912035
-0.07870000000000021,-32.45347721890394
-0.0797000000000001,-32.66568391388369
-0.08070000000000022,-32.93447906085806
-0.0817000000000001,-33.231568433829715
-0.08270000000000022,-33.373039563816214
-0.08370000000000011,-33.41548090281216
-0.08470000000000022,-33.373039563816214
-0.08570000000000011,-33.54280491980002
-0.08670000000000022,-33.85404140577033
-0.08770000000000011,-34.15113077874198
-0.08870000000000022,-34.50480860370825
-0.08970000000000011,-34.632132620696105
-0.09070000000000022,-34.632132620696105
-0.09170000000000011,-34.67457395969205
-0.09270000000000023,-34.8018979766799
-0.09370000000000012,-35.11313446265021
-0.09470000000000023,-35.50925362661242
-0.09570000000000012,-35.679018982596226
-0.09670000000000023,-35.763901660588125
-0.09770000000000012,-35.721460321592176
-0.09870000000000023,-35.848784338580025
-0.09970000000000012,-36.11757948555439
-0.10070000000000023,-36.47125731052064
-0.10170000000000012,-36.768346683492304
-0.10270000000000024,-37.037141830466666
-0.10370000000000013,-37.07958316946261
-0.10470000000000024,-37.164465847454515
-0.10570000000000013,-37.334231203438314
-0.10670000000000024,-37.687909028404576
-0.10770000000000013,-38.12646953136274
-0.10870000000000024,-38.38111756533845
-0.10970000000000013,-38.5650300343209
-0.11070000000000024,-38.607471373316855
-0.11170000000000013,-38.6499127123128
-0.11270000000000002,-38.86211940729255
-0.11370000000000013,-39.21579723225882
-0.11470000000000002,-39.61191639622103
-0.11570000000000014,-39.86656443019674
-0.11670000000000003,-39.95144710818864
-0.11770000000000014,-39.99388844718459
-0.11870000000000003,-40.177800916167044
-0.11970000000000014,-40.43244895014274
-0.12070000000000003,-40.828568114104954
-0.12170000000000014,-41.182245939071215
-0.12270000000000003,-41.39445263405098
-0.12370000000000014,-41.52177665103883
-0.12470000000000003,-41.56421799003478
-0.12570000000000014,-41.79057179801318
-0.12670000000000003,-42.130102509980794
-0.12770000000000015,-42.568663012938956
-0.12870000000000004,-42.92234083790521
-0.12970000000000015,-43.09210619388902
-0.13070000000000004,-43.134547532884966
-0.13170000000000015,-43.27601866287147
-0.13270000000000004,-43.44578401885527
-0.13370000000000015,-43.79946184382153
-0.13470000000000004,-44.28046368577565
-0.13570000000000015,-44.535111719751356
-0.13670000000000004,-44.66243573673921
-0.13770000000000016,-44.74731841473111
-0.13870000000000005,-44.88878954471762
-0.13970000000000016,-45.27076159568118
-0.14070000000000005,-45.70932209863933
-0.14170000000000016,-46.10544126260155
-0.14270000000000005,-46.41667774857186
-0.14370000000000016,-46.501560426563756
-0.14470000000000005,-46.628884443551605
-0.14570000000000016,-46.84109113853137
-0.14670000000000005,-47.19476896349763
-0.14770000000000016,-47.71821214444768
-0.14870000000000005,-48.071889969413945
-0.14970000000000017,-48.24165532539775
-0.15070000000000006,-48.36897934238561
-0.15170000000000017,-48.51045047237211
-0.15270000000000006,-48.80753984534376
-0.15370000000000017,-49.20365900930597
-0.15470000000000006,-49.68466085126009
-0.15570000000000017,-49.98175022423175
-0.15670000000000006,-50.20810403221015
-0.15770000000000017,-50.335428049198
-0.15870000000000006,-50.547634744177756
-0.15970000000000018,-50.943753908139975
-0.16070000000000007,-51.424755750094086
-0.16170000000000018,-51.90575759204819
-0.16270000000000007,-52.17455273902255
-0.16370000000000018,-52.386759434002315
-0.16470000000000007,-52.514083450990164
-0.16570000000000018,-52.78287859796452
-0.16670000000000007,-53.22143910092268
-0.16770000000000018,-53.68829382987814
-0.16870000000000007,-54.08441299384035
-0.16970000000000018,-54.35320814081471
-0.17070000000000007,-54.52297349679851
-0.17170000000000019,-54.73518019177827
-0.17270000000000008,-55.003975338752625
-0.1737000000000002,-55.442535841710786
-0.17470000000000008,-55.96597902266086
-0.1757000000000002,-56.26306839563251
-0.17670000000000008,-56.53186354260687
-0.1777000000000002,-56.74407023758662
-0.17870000000000008,-57.012865384560975
-0.1797000000000002,-57.493867226515086
-0.18070000000000008,-58.017310407465146
-0.1817000000000002,-58.498312249419264
-0.18270000000000008,-58.880284300382826
-0.1837000000000002,-59.06419676936528
-0.1847000000000001,-59.23396212534908
-0.1857000000000002,-59.54519861131939
-0.1867000000000001,-59.9696120012789
-0.1877000000000002,-60.49305518222897
-0.1887000000000001,-60.93161568518713
-0.1897000000000002,-61.20041083216149
-0.1907000000000001,-61.327734849149344
-0.1917000000000001,-61.53994154412909
-0.19269999999999998,-61.80873669110345
-0.1937000000000001,-62.28973853305756
-0.19469999999999998,-62.77074037501168
-0.1957000000000001,-63.15271242597524
-0.19669999999999999,-63.37906623395363
-0.1977000000000001,-63.59127292893339
-0.1987,-63.944950753899654
-0.1997000000000001,-64.34106991786187
-0.2007,-64.86451309881193
-0.2017000000000001,-65.38795627976201
-0.2027,-65.76992833072556
-0.2037000000000001,-65.99628213870396
-0.2047,-66.16604749468777
-0.2057000000000001,-66.51972531965401
-0.2067,-67.00072716160814
-0.2077000000000001,-67.56661168155415
-0.2087,-68.0051721845123
-0.2097000000000001,-68.34470289647993
-0.2107,-68.52861536546239
-0.2117000000000001,-68.82570473843404
-0.2127,-69.22182390239624
-0.2137000000000001,-69.74526708334632
-0.2147,-70.35359294228827
-0.2157000000000001,-70.8345947842424
-0.2167,-71.10338993121674
-0.21770000000000012,-71.27315528720055
-0.2187,-71.52780332117625
-0.21970000000000012,-71.96636382413442
-0.2207,-72.44736566608852
-0.22170000000000012,-72.92836750804264
-0.2227,-73.2820453330089
-0.22370000000000012,-73.40936934999675
-0.2247,-73.57913470598055
-0.22570000000000012,-73.8479298529549
-0.2267,-74.32893169490903
-0.22770000000000012,-74.89481621485504
-0.22870000000000001,-75.33337671781321
-0.22970000000000013,-75.6729074297808
-0.23070000000000002,-75.8992612377592
-0.23170000000000013,-76.19635061073087
-0.23270000000000002,-76.5924697746931
-0.23370000000000013,-77.1583542946391
-0.23470000000000002,-77.7242388145851
-0.23570000000000013,-78.20524065653922
-0.23670000000000002,-78.43159446451764
-0.2376999999999999,-78.68624249849334
-0.23870000000000002,-78.99747898446365
-0.2396999999999999,-79.37945103542721
-0.24070000000000003,-79.94533555537322
-0.24169999999999991,-80.46877873632329
-0.24270000000000003,-80.82245656128954
-0.24369999999999992,-81.13369304725985
-0.24470000000000003,-81.3458997422396
-0.24569999999999992,-81.69957756720586
-0.24670000000000003,-82.26546208715187
-0.24769999999999992,-82.8313466070979
-0.24870000000000003,-83.39723112704392
-0.24969999999999992,-83.75090895201016
-0.25070000000000003,-84.00555698598588
-0.2516999999999999,-84.27435213296022
-0.25270000000000004,-84.61388284492786
-0.2536999999999999,-85.13732602587791
-0.25470000000000004,-85.70321054582392
-0.2556999999999999,-86.05688837079018
-0.25670000000000004,-86.32568351776455
-0.25769999999999993,-86.5378902127443
-0.25870000000000004,-86.80668535971866
-0.25969999999999993,-87.27354008867411
-0.26070000000000004,-87.79698326962418
-0.26169999999999993,-88.37701490256885
-0.26270000000000004,-88.8438696315243
-0.26369999999999993,-89.11266477849867
-0.26470000000000005,-89.36731281247435
-0.26569999999999994,-89.80587331543254
-0.26670000000000005,-90.41419917437449
-0.26769999999999994,-91.03667214631511
-0.26870000000000005,-91.60255666626112
-0.26969999999999994,-91.89964603923279
-0.27070000000000005,-92.2108825252031
-0.27169999999999994,-92.50797189817473
-0.27270000000000005,-92.94653240113291
-0.27369999999999994,-93.46997558208298
-0.27470000000000006,-94.03586010202899
-0.27569999999999995,-94.5168619439831
-0.27670000000000006,-94.8280984299534
-0.27769999999999995,-95.08274646392913
-0.27870000000000006,-95.39398294989942
-0.27969999999999995,-95.87498479185354
-0.28070000000000006,-96.52575198979144
-0.28169999999999995,-97.09163650973747
-0.28270000000000006,-97.53019701269562
-0.28369999999999995,-97.84143349866595
-0.28470000000000006,-98.09608153264163
-0.28569999999999995,-98.5346420355998
-0.28670000000000007,-99.14296789454177
-0.28769999999999996,-99.7937350924797
-0.28870000000000007,-100.35961961242569
-0.28969999999999996,-100.75573877638791
-0.29070000000000007,-101.02453392336226
-0.29169999999999996,-101.3640646353299
-0.29270000000000007,-101.71774246029614
-0.29369999999999996,-102.28362698024215
-0.2947000000000001,-102.93439417818009
-0.29569999999999996,-103.33051334214227
-0.2967000000000001,-103.64174982811258
-0.29769999999999996,-103.89639786208829
-0.2987000000000001,-104.2925170260505
-0.29969999999999997,-104.81596020700057
-0.3007000000000001,-105.42428606594254
-0.30169999999999997,-106.07505326388046
-0.3027000000000001,-106.55605510583456
-0.30369999999999997,-106.90973293080083
-0.3047000000000001,-107.30585209476303
-0.30569999999999997,-107.8292952757131
-0.3067000000000001,-108.43762113465506
-0.3077,-109.13082967158894
-0.3087000000000001,-109.73915553053091
-0.3097,-110.1352746944931
-0.3107000000000001,-110.4465111804634
-0.3117,-110.82848323142699
-0.3127000000000001,-111.35192641237703
-0.3137,-111.96025227131899
-0.3147000000000001,-112.66760792125153
-0.3157,-113.27593378019348
-0.3167000000000001,-113.71449428315165
-0.3177,-114.1530547861098
-0.3187000000000001,-114.71893930605583
-0.3197,-115.4121478429897
-0.3207000000000001,-116.28926884890602
-0.3217,-117.06736006383179
-0.3227000000000001,-117.77471571376431
-0.3237,-118.29815889471436
-0.3247000000000001,-118.72257228467387
-0.3257,-119.3450452566145
-0.3267000000000001,-120.16557781053622
-0.3277,-120.95781613846064
-0.3287000000000001,-121.69346601439047
-0.3297,-122.25935053433648
-0.3307000000000001,-122.74035237629057
-0.3317,-123.34867823523254
-0.3327000000000001,-124.05603388516508
-0.3337,-124.9614491170787
-0.3347000000000001,-126.00833547897882
-0.3357,-126.88545648489513
-0.3367000000000001,-127.66354769982091
-0.3377,-128.32846201075745
-0.3387000000000001,-129.1489945646792
-0.3397,-130.19588092657932
-0.3407000000000001,-131.24276728847948
-0.3417,-132.2896536503796
-0.3427000000000001,-133.20921599529186
-0.3437,-133.94486587122168
-0.3447000000000001,-134.73710419914607
-0.3457,-135.6142252050624
-0.3467000000000001,-136.66111156696255
-0.3477,-137.75043926785864
-0.3487000000000001,-138.79732562975875
-0.3497,-139.6602995226764
-0.3507000000000001,-140.4949791895968
-0.3517,-141.3155117435185
-0.3527000000000001,-142.31995676642268
-0.3537,-143.5931969363012
-0.3547000000000001,-144.86643710617977
-0.3557,-145.9982061460718
-0.35670000000000013,-146.9885040559773
-0.3577,-147.97880196588284
-0.35870000000000013,-149.1105710057749
-0.3597,-150.38381117565342
-0.36070000000000013,-151.7985224755184
-0.3617,-153.07176264539694
-0.3626999999999999,-154.3450028152755
-0.3637,-155.47677185516753
-0.3646999999999999,-156.46706976507306
-0.3657,-157.59883880496508
-0.3666999999999999,-159.01355010483013
-0.3677,-160.42826140469515
-0.3686999999999999,-161.84297270456022
-0.36970000000000003,-163.11621287443873
-0.3706999999999999,-164.24798191433075
-0.37170000000000003,-165.3797509542228
-0.3726999999999999,-166.79446225408785
-0.37370000000000003,-168.35064468393938
-0.3746999999999999,-169.9068271137909
-0.37570000000000003,-171.18006728366944
-0.3766999999999999,-172.59477858353446
-0.37770000000000004,-173.86801875341303
-0.3786999999999999,-175.14125892329156
-0.37970000000000004,-176.6974413531431
-0.3806999999999999,-178.25362378299462
-0.38170000000000004,-179.80980621284618
-0.38269999999999993,-181.36598864269772
-0.38370000000000004,-182.78069994256273
-0.38469999999999993,-184.19541124242778
-0.38570000000000004,-185.6101225422928
-0.38669999999999993,-183.62952672248176
-0.38570000000000004,-176.6974413531431
-0.38469999999999993,-171.60448067362896
-0.38370000000000004,-167.21887564404733
-0.38269999999999993,-163.25768400442522
-0.38170000000000004,-159.86237688474912
-0.3806999999999999,-156.75001202504606
-0.37970000000000004,-153.920589425316
-0.3786999999999999,-151.37410908555893
-0.37770000000000004,-148.54468648582886
-0.3766999999999999,-145.7152638860988
-0.37570000000000003,-142.8858412863687
-0.3746999999999999,-140.325213833613
-0.37370000000000003,-137.9626459628384
-0.3726999999999999,-135.74154922205025
-0.37170000000000003,-133.4214226902716
-0.3706999999999999,-130.98811925450374
-0.36970000000000003,-128.4982273667413
-0.3686999999999999,-125.92345280098691
-0.3677,-123.6174733822069
-0.3666999999999999,-121.48125931941068
-0.3657,-119.47236927360234
-0.3646999999999999,-117.42103788879804
-0.3637,-115.15749980901398
-0.3626999999999999,-112.87981461623129
-0.3617,-110.70115921443913
-0.36070000000000013,-108.64982782963483
-0.3597,-106.73996757481702
-0.35870000000000013,-104.85840154599651
-0.3577,-102.93439417818009
-0.35670000000000013,-100.92550413237171
-0.3557,-98.83173140857146
-0.3547000000000001,-96.87942981475771
-0.3537,-95.04030512493317
-0.3527000000000001,-93.38509290409107
-0.3517,-91.64499800525708
-0.3507000000000001,-89.80587331543254
-0.3497,-87.89601306061473
-0.3487000000000001,-85.92956435380233
-0.3477,-84.18946945496833
-0.3467000000000001,-82.6615812511141
-0.3457,-81.1761343862558
-0.3447000000000001,-79.64824618240156
-0.3437,-77.99303396155948
-0.3427000000000001,-76.15390927173492
-0.3417,-74.54113838988879
-0.3407000000000001,-73.0556915250305
-0.3397,-71.58439177317086
-0.3387000000000001,-70.26871026429637
-0.3377,-68.86814607742998
-0.3367000000000001,-67.2978165345798
-0.3357,-65.68504565273366
-0.3347000000000001,-64.11471610988345
-0.3337,-62.72829903601572
-0.3327000000000001,-61.455058866137186
-0.3317,-60.23840714825326
-0.3307000000000001,-58.79540162239092
-0.3297,-57.26751341853669
-0.3287000000000001,-55.73962521468245
-0.3277,-54.39564947981066
-0.3267000000000001,-53.22143910092268
-0.3257,-52.11796428702795
-0.3247000000000001,-50.943753908139975
-0.3237,-49.59977817326819
-0.3227000000000001,-48.1992139864018
-0.3217,-46.84109113853137
-0.3207000000000001,-45.70932209863933
-0.3197,-44.704877075735155
-0.3187000000000001,-43.70043205283099
-0.3177,-42.6111043519349
-0.3167000000000001,-41.30956995605907
-0.3157,-40.03632978618054
-0.3147000000000001,-38.81967806829661
-0.3137,-37.77279170639648
-0.3127000000000001,-36.89567070048016
-0.3117,-35.99025546856653
-0.3107000000000001,-34.85848642867451
-0.3097,-33.712570275783825
-0.3087000000000001,-32.53835989689585
-0.3077,-31.449032195999767
-0.3067000000000001,-30.71338232006995
-0.30569999999999997,-29.878702653149578
-0.3047000000000001,-28.959140308237306
-0.30369999999999997,-27.954695285333123
-0.3027000000000001,-26.780484906445146
-0.30169999999999997,-25.77603988354097
-0.3007000000000001,-24.997948668615198
-0.29969999999999997,-24.24815167968673
-0.2987000000000001,-23.55494314275286
-0.29769999999999996,-22.67782213683654
-0.2967000000000001,-21.67337711393236
-0.29569999999999996,-20.683079204026836
-0.2947000000000001,-19.721075520118614
-0.29369999999999996,-18.97127853119014
-0.29270000000000007,-18.320511333252224
-0.29169999999999996,-17.669744135314307
-0.29070000000000007,-16.877505807389888
-0.28969999999999996,-15.972090575476265
-0.28870000000000007,-15.01008689156804
-0.28769999999999996,-14.26028990263957
-0.28670000000000007,-13.698649516593148
-0.28569999999999995,-13.087494235051453
-0.28470000000000006,-12.432482903213943
-0.28369999999999995,-11.604876792792895
-0.28270000000000006,-10.775855971071984
-0.28169999999999995,-10.034547249942705
-0.28070000000000006,-9.335679867809377
-0.27969999999999995,-8.812236686859313
-0.27870000000000006,-8.288793505909249
-0.27769999999999995,-7.679052935667419
-0.27670000000000006,-6.893888164242324
-0.27569999999999995,-6.064867342521412
-0.27470000000000006,-5.411270721983764
-0.27369999999999994,-4.887827541033701
-0.27270000000000005,-4.406825699079589
-0.27169999999999994,-3.971094618721158
-0.27070000000000005,-3.361354048479327
-0.26969999999999994,-2.662486666345999
-0.26870000000000005,-1.9650339955125358
-0.26769999999999994,-1.3107300193249565
-0.26670000000000005,-0.8745745255765657
