May 6, 2025   07:14:57
Cyclic Voltammetry
File: c:/users/guazh/data/banditlqround7_x0exp1108_r5/2025-04-30-exp1256\exp1256-2025-05-06t07_06_27-arkoh\exp1256_cv_sr_800mvs_efin_-1400mv.bin
Data Source:  Experiment
Instrument Model:  CHI760E
Header: CV ran at 800 mVs
Note: 

Init E (V) = -1
High E (V) = -1
Low E (V) = -1.4
Final E (V) = -1
Init P/N = N
Scan Rate (V/s) = 0.8
Segment = 3
Sample Interval (V) = 0.001
Quiet Time (sec) = 2
Sensitivity (A/V) = 0.01
Comp R (ohm) = 1.0

Results:

Channel 1:
Segment 1:

Segment 2:

Segment 3:

Potential/V, Current/A

-1.000, 4.287e-4
-1.001, 7.617e-4
-1.002, 1.030e-3
-1.003, 1.246e-3
-1.004, 1.428e-3
-1.005, 1.582e-3
-1.006, 1.708e-3
-1.007, 1.822e-3
-1.008, 1.924e-3
-1.009, 2.010e-3
-1.010, 2.091e-3
-1.011, 2.168e-3
-1.012, 2.232e-3
-1.013, 2.297e-3
-1.014, 2.353e-3
-1.015, 2.399e-3
-1.016, 2.433e-3
-1.017, 2.470e-3
-1.018, 2.497e-3
-1.019, 2.525e-3
-1.020, 2.547e-3
-1.021, 2.575e-3
-1.022, 2.596e-3
-1.023, 2.627e-3
-1.024, 2.658e-3
-1.025, 2.692e-3
-1.026, 2.713e-3
-1.027, 2.741e-3
-1.028, 2.769e-3
-1.029, 2.784e-3
-1.030, 2.803e-3
-1.031, 2.815e-3
-1.032, 2.824e-3
-1.033, 2.837e-3
-1.034, 2.849e-3
-1.035, 2.867e-3
-1.036, 2.886e-3
-1.037, 2.901e-3
-1.038, 2.923e-3
-1.039, 2.941e-3
-1.040, 2.966e-3
-1.041, 2.982e-3
-1.042, 2.997e-3
-1.043, 3.006e-3
-1.044, 3.019e-3
-1.045, 3.028e-3
-1.046, 3.034e-3
-1.047, 3.043e-3
-1.048, 3.056e-3
-1.049, 3.068e-3
-1.050, 3.089e-3
-1.051, 3.108e-3
-1.052, 3.130e-3
-1.053, 3.154e-3
-1.054, 3.173e-3
-1.055, 3.188e-3
-1.056, 3.204e-3
-1.057, 3.213e-3
-1.058, 3.225e-3
-1.059, 3.234e-3
-1.060, 3.237e-3
-1.061, 3.247e-3
-1.062, 3.259e-3
-1.063, 3.281e-3
-1.064, 3.293e-3
-1.065, 3.318e-3
-1.066, 3.333e-3
-1.067, 3.358e-3
-1.068, 3.373e-3
-1.069, 3.392e-3
-1.070, 3.401e-3
-1.071, 3.410e-3
-1.072, 3.413e-3
-1.073, 3.425e-3
-1.074, 3.438e-3
-1.075, 3.453e-3
-1.076, 3.469e-3
-1.077, 3.487e-3
-1.078, 3.509e-3
-1.079, 3.527e-3
-1.080, 3.549e-3
-1.081, 3.570e-3
-1.082, 3.589e-3
-1.083, 3.595e-3
-1.084, 3.604e-3
-1.085, 3.607e-3
-1.086, 3.620e-3
-1.087, 3.629e-3
-1.088, 3.641e-3
-1.089, 3.657e-3
-1.090, 3.672e-3
-1.091, 3.691e-3
-1.092, 3.715e-3
-1.093, 3.737e-3
-1.094, 3.755e-3
-1.095, 3.771e-3
-1.096, 3.783e-3
-1.097, 3.795e-3
-1.098, 3.808e-3
-1.099, 3.817e-3
-1.100, 3.829e-3
-1.101, 3.842e-3
-1.102, 3.857e-3
-1.103, 3.882e-3
-1.104, 3.903e-3
-1.105, 3.928e-3
-1.106, 3.947e-3
-1.107, 3.974e-3
-1.108, 3.996e-3
-1.109, 4.011e-3
-1.110, 4.033e-3
-1.111, 4.042e-3
-1.112, 4.054e-3
-1.113, 4.067e-3
-1.114, 4.082e-3
-1.115, 4.101e-3
-1.116, 4.122e-3
-1.117, 4.144e-3
-1.118, 4.165e-3
-1.119, 4.190e-3
-1.120, 4.215e-3
-1.121, 4.239e-3
-1.122, 4.258e-3
-1.123, 4.273e-3
-1.124, 4.286e-3
-1.125, 4.298e-3
-1.126, 4.313e-3
-1.127, 4.329e-3
-1.128, 4.344e-3
-1.129, 4.363e-3
-1.130, 4.384e-3
-1.131, 4.412e-3
-1.132, 4.440e-3
-1.133, 4.471e-3
-1.134, 4.495e-3
-1.135, 4.520e-3
-1.136, 4.542e-3
-1.137, 4.563e-3
-1.138, 4.579e-3
-1.139, 4.597e-3
-1.140, 4.616e-3
-1.141, 4.634e-3
-1.142, 4.656e-3
-1.143, 4.683e-3
-1.144, 4.711e-3
-1.145, 4.742e-3
-1.146, 4.770e-3
-1.147, 4.804e-3
-1.148, 4.831e-3
-1.149, 4.853e-3
-1.150, 4.881e-3
-1.151, 4.896e-3
-1.152, 4.918e-3
-1.153, 4.930e-3
-1.154, 4.952e-3
-1.155, 4.973e-3
-1.156, 5.001e-3
-1.157, 5.026e-3
-1.158, 5.060e-3
-1.159, 5.084e-3
-1.160, 5.121e-3
-1.161, 5.152e-3
-1.162, 5.177e-3
-1.163, 5.198e-3
-1.164, 5.220e-3
-1.165, 5.241e-3
-1.166, 5.263e-3
-1.167, 5.282e-3
-1.168, 5.312e-3
-1.169, 5.337e-3
-1.170, 5.368e-3
-1.171, 5.402e-3
-1.172, 5.442e-3
-1.173, 5.479e-3
-1.174, 5.513e-3
-1.175, 5.547e-3
-1.176, 5.574e-3
-1.177, 5.602e-3
-1.178, 5.627e-3
-1.179, 5.655e-3
-1.180, 5.676e-3
-1.181, 5.701e-3
-1.182, 5.729e-3
-1.183, 5.766e-3
-1.184, 5.799e-3
-1.185, 5.840e-3
-1.186, 5.873e-3
-1.187, 5.914e-3
-1.188, 5.944e-3
-1.189, 5.978e-3
-1.190, 6.003e-3
-1.191, 6.034e-3
-1.192, 6.055e-3
-1.193, 6.083e-3
-1.194, 6.111e-3
-1.195, 6.148e-3
-1.196, 6.182e-3
-1.197, 6.219e-3
-1.198, 6.259e-3
-1.199, 6.299e-3
-1.200, 6.345e-3
-1.201, 6.388e-3
-1.202, 6.425e-3
-1.203, 6.459e-3
-1.204, 6.493e-3
-1.205, 6.524e-3
-1.206, 6.555e-3
-1.207, 6.589e-3
-1.208, 6.626e-3
-1.209, 6.663e-3
-1.210, 6.706e-3
-1.211, 6.749e-3
-1.212, 6.798e-3
-1.213, 6.842e-3
-1.214, 6.888e-3
-1.215, 6.928e-3
-1.216, 6.965e-3
-1.217, 6.999e-3
-1.218, 7.036e-3
-1.219, 7.067e-3
-1.220, 7.097e-3
-1.221, 7.134e-3
-1.222, 7.171e-3
-1.223, 7.215e-3
-1.224, 7.261e-3
-1.225, 7.304e-3
-1.226, 7.347e-3
-1.227, 7.393e-3
-1.228, 7.434e-3
-1.229, 7.486e-3
-1.230, 7.520e-3
-1.231, 7.554e-3
-1.232, 7.582e-3
-1.233, 7.615e-3
-1.234, 7.649e-3
-1.235, 7.689e-3
-1.236, 7.730e-3
-1.237, 7.776e-3
-1.238, 7.819e-3
-1.239, 7.865e-3
-1.240, 7.911e-3
-1.241, 7.958e-3
-1.242, 8.004e-3
-1.243, 8.041e-3
-1.244, 8.075e-3
-1.245, 8.112e-3
-1.246, 8.146e-3
-1.247, 8.186e-3
-1.248, 8.226e-3
-1.249, 8.269e-3
-1.250, 8.312e-3
-1.251, 8.362e-3
-1.252, 8.411e-3
-1.253, 8.463e-3
-1.254, 8.510e-3
-1.255, 8.559e-3
-1.256, 8.596e-3
-1.257, 8.639e-3
-1.258, 8.673e-3
-1.259, 8.713e-3
-1.260, 8.744e-3
-1.261, 8.787e-3
-1.262, 8.821e-3
-1.263, 8.870e-3
-1.264, 8.917e-3
-1.265, 8.960e-3
-1.266, 9.009e-3
-1.267, 9.058e-3
-1.268, 9.101e-3
-1.269, 9.142e-3
-1.270, 9.182e-3
-1.271, 9.216e-3
-1.272, 9.249e-3
-1.273, 9.286e-3
-1.274, 9.323e-3
-1.275, 9.367e-3
-1.276, 9.416e-3
-1.277, 9.456e-3
-1.278, 9.508e-3
-1.279, 9.558e-3
-1.280, 9.616e-3
-1.281, 9.663e-3
-1.282, 9.709e-3
-1.283, 9.746e-3
-1.284, 9.786e-3
-1.285, 9.823e-3
-1.286, 9.860e-3
-1.287, 9.900e-3
-1.288, 9.940e-3
-1.289, 9.980e-3
-1.290, 1.003e-2
-1.291, 1.007e-2
-1.292, 1.012e-2
-1.293, 1.017e-2
-1.294, 1.022e-2
-1.295, 1.027e-2
-1.296, 1.030e-2
-1.297, 1.034e-2
-1.298, 1.037e-2
-1.299, 1.041e-2
-1.300, 1.044e-2
-1.301, 1.048e-2
-1.302, 1.051e-2
-1.303, 1.056e-2
-1.304, 1.061e-2
-1.305, 1.066e-2
-1.306, 1.070e-2
-1.307, 1.075e-2
-1.308, 1.079e-2
-1.309, 1.084e-2
-1.310, 1.088e-2
-1.311, 1.092e-2
-1.312, 1.095e-2
-1.313, 1.100e-2
-1.314, 1.103e-2
-1.315, 1.108e-2
-1.316, 1.112e-2
-1.317, 1.117e-2
-1.318, 1.123e-2
-1.319, 1.128e-2
-1.320, 1.133e-2
-1.321, 1.138e-2
-1.322, 1.143e-2
-1.323, 1.147e-2
-1.324, 1.151e-2
-1.325, 1.155e-2
-1.326, 1.158e-2
-1.327, 1.162e-2
-1.328, 1.167e-2
-1.329, 1.171e-2
-1.330, 1.176e-2
-1.331, 1.180e-2
-1.332, 1.186e-2
-1.333, 1.191e-2
-1.334, 1.196e-2
-1.335, 1.201e-2
-1.336, 1.206e-2
-1.337, 1.210e-2
-1.338, 1.214e-2
-1.339, 1.218e-2
-1.340, 1.222e-2
-1.341, 1.227e-2
-1.342, 1.231e-2
-1.343, 1.237e-2
-1.344, 1.243e-2
-1.345, 1.249e-2
-1.346, 1.254e-2
-1.347, 1.260e-2
-1.348, 1.265e-2
-1.349, 1.270e-2
-1.350, 1.275e-2
-1.351, 1.280e-2
-1.352, 1.285e-2
-1.353, 1.290e-2
-1.354, 1.296e-2
-1.355, 1.301e-2
-1.356, 1.308e-2
-1.357, 1.314e-2
-1.358, 1.321e-2
-1.359, 1.327e-2
-1.360, 1.334e-2
-1.361, 1.341e-2
-1.362, 1.348e-2
-1.363, 1.354e-2
-1.364, 1.360e-2
-1.365, 1.366e-2
-1.366, 1.372e-2
-1.367, 1.378e-2
-1.368, 1.385e-2
-1.369, 1.391e-2
-1.370, 1.399e-2
-1.371, 1.406e-2
-1.372, 1.414e-2
-1.373, 1.422e-2
-1.374, 1.429e-2
-1.375, 1.437e-2
-1.376, 1.444e-2
-1.377, 1.451e-2
-1.378, 1.458e-2
-1.379, 1.465e-2
-1.380, 1.472e-2
-1.381, 1.479e-2
-1.382, 1.487e-2
-1.383, 1.496e-2
-1.384, 1.504e-2
-1.385, 1.513e-2
-1.386, 1.522e-2
-1.387, 1.531e-2
-1.388, 1.540e-2
-1.389, 1.549e-2
-1.390, 1.558e-2
-1.391, 1.566e-2
-1.392, 1.575e-2
-1.393, 1.584e-2
-1.394, 1.593e-2
-1.395, 1.603e-2
-1.396, 1.613e-2
-1.397, 1.623e-2
-1.398, 1.634e-2
-1.399, 1.644e-2
-1.400, 1.628e-2
-1.399, 1.570e-2
-1.398, 1.522e-2
-1.397, 1.479e-2
-1.396, 1.440e-2
-1.395, 1.405e-2
-1.394, 1.373e-2
-1.393, 1.341e-2
-1.392, 1.313e-2
-1.391, 1.285e-2
-1.390, 1.259e-2
-1.389, 1.234e-2
-1.388, 1.209e-2
-1.387, 1.186e-2
-1.386, 1.163e-2
-1.385, 1.140e-2
-1.384, 1.118e-2
-1.383, 1.095e-2
-1.382, 1.073e-2
-1.381, 1.052e-2
-1.380, 1.030e-2
-1.379, 1.010e-2
-1.378, 9.897e-3
-1.377, 9.700e-3
-1.376, 9.521e-3
-1.375, 9.333e-3
-1.374, 9.154e-3
-1.373, 8.978e-3
-1.372, 8.799e-3
-1.371, 8.624e-3
-1.370, 8.445e-3
-1.369, 8.266e-3
-1.368, 8.093e-3
-1.367, 7.918e-3
-1.366, 7.751e-3
-1.365, 7.588e-3
-1.364, 7.427e-3
-1.363, 7.276e-3
-1.362, 7.131e-3
-1.361, 6.983e-3
-1.360, 6.845e-3
-1.359, 6.697e-3
-1.358, 6.555e-3
-1.357, 6.404e-3
-1.356, 6.256e-3
-1.355, 6.108e-3
-1.354, 5.963e-3
-1.353, 5.818e-3
-1.352, 5.685e-3
-1.351, 5.547e-3
-1.350, 5.420e-3
-1.349, 5.291e-3
-1.348, 5.171e-3
-1.347, 5.056e-3
-1.346, 4.933e-3
-1.345, 4.804e-3
-1.344, 4.683e-3
-1.343, 4.557e-3
-1.342, 4.437e-3
-1.341, 4.317e-3
-1.340, 4.196e-3
-1.339, 4.082e-3
-1.338, 3.962e-3
-1.337, 3.860e-3
-1.336, 3.758e-3
-1.335, 3.657e-3
-1.334, 3.555e-3
-1.333, 3.456e-3
-1.332, 3.355e-3
-1.331, 3.253e-3
-1.330, 3.148e-3
-1.329, 3.043e-3
-1.328, 2.935e-3
-1.327, 2.830e-3
-1.326, 2.732e-3
-1.325, 2.639e-3
-1.324, 2.547e-3
-1.323, 2.460e-3
-1.322, 2.374e-3
-1.321, 2.291e-3
-1.320, 2.214e-3
-1.319, 2.124e-3
-1.318, 2.044e-3
-1.317, 1.955e-3
-1.316, 1.859e-3
-1.315, 1.773e-3
-1.314, 1.684e-3
-1.313, 1.597e-3
-1.312, 1.517e-3
-1.311, 1.437e-3
-1.310, 1.363e-3
-1.309, 1.298e-3
-1.308, 1.224e-3
-1.307, 1.162e-3
-1.306, 1.095e-3
-1.305, 1.021e-3
-1.304, 9.498e-4
-1.303, 8.758e-4
-1.302, 8.018e-4
-1.301, 7.247e-4
-1.300, 6.476e-4
-1.299, 5.767e-4
-1.298, 5.089e-4
-1.297, 4.472e-4
-1.296, 3.886e-4
-1.295, 3.300e-4
-1.294, 2.746e-4
-1.293, 2.129e-4
-1.292, 1.543e-4
-1.291, 9.265e-5
-1.290, 3.407e-5
-1.289, -3.376e-5
-1.288, -9.850e-5
-1.287, -1.694e-4
-1.286, -2.249e-4
-1.285, -2.866e-4
-1.284, -3.390e-4
-1.283, -3.883e-4
-1.282, -4.346e-4
-1.281, -4.870e-4
-1.280, -5.332e-4
-1.279, -5.887e-4
-1.278, -6.319e-4
-1.277, -6.874e-4
-1.276, -7.429e-4
-1.275, -7.953e-4
-1.274, -8.539e-4
-1.273, -9.063e-4
-1.272, -9.525e-4
-1.271, -1.002e-3
-1.270, -1.045e-3
-1.269, -1.082e-3
-1.268, -1.128e-3
-1.267, -1.162e-3
-1.266, -1.202e-3
-1.265, -1.245e-3
-1.264, -1.292e-3
-1.263, -1.338e-3
-1.262, -1.387e-3
-1.261, -1.433e-3
-1.260, -1.486e-3
-1.259, -1.523e-3
-1.258, -1.569e-3
-1.257, -1.606e-3
-1.256, -1.640e-3
-1.255, -1.674e-3
-1.254, -1.705e-3
-1.253, -1.736e-3
-1.252, -1.776e-3
-1.251, -1.810e-3
-1.250, -1.853e-3
-1.249, -1.896e-3
-1.248, -1.939e-3
-1.247, -1.985e-3
-1.246, -2.022e-3
-1.245, -2.056e-3
-1.244, -2.093e-3
-1.243, -2.118e-3
-1.242, -2.149e-3
-1.241, -2.183e-3
-1.240, -2.204e-3
-1.239, -2.235e-3
-1.238, -2.269e-3
-1.237, -2.306e-3
-1.236, -2.343e-3
-1.235, -2.386e-3
-1.234, -2.426e-3
-1.233, -2.460e-3
-1.232, -2.494e-3
-1.231, -2.525e-3
-1.230, -2.553e-3
-1.229, -2.587e-3
-1.228, -2.614e-3
-1.227, -2.636e-3
-1.226, -2.661e-3
-1.225, -2.688e-3
-1.224, -2.722e-3
-1.223, -2.756e-3
-1.222, -2.790e-3
-1.221, -2.824e-3
-1.220, -2.861e-3
-1.219, -2.889e-3
-1.218, -2.920e-3
-1.217, -2.950e-3
-1.216, -2.969e-3
-1.215, -2.990e-3
-1.214, -3.009e-3
-1.213, -3.031e-3
-1.212, -3.064e-3
-1.211, -3.089e-3
-1.210, -3.120e-3
-1.209, -3.151e-3
-1.208, -3.185e-3
-1.207, -3.222e-3
-1.206, -3.256e-3
-1.205, -3.283e-3
-1.204, -3.311e-3
-1.203, -3.333e-3
-1.202, -3.357e-3
-1.201, -3.382e-3
-1.200, -3.397e-3
-1.199, -3.425e-3
-1.198, -3.453e-3
-1.197, -3.484e-3
-1.196, -3.521e-3
-1.195, -3.549e-3
-1.194, -3.582e-3
-1.193, -3.616e-3
-1.192, -3.644e-3
-1.191, -3.675e-3
-1.190, -3.696e-3
-1.189, -3.718e-3
-1.188, -3.740e-3
-1.187, -3.758e-3
-1.186, -3.783e-3
-1.185, -3.807e-3
-1.184, -3.835e-3
-1.183, -3.869e-3
-1.182, -3.903e-3
-1.181, -3.934e-3
-1.180, -3.968e-3
-1.179, -3.992e-3
-1.178, -4.029e-3
-1.177, -4.054e-3
-1.176, -4.073e-3
-1.175, -4.094e-3
-1.174, -4.113e-3
-1.173, -4.134e-3
-1.172, -4.156e-3
-1.171, -4.184e-3
-1.170, -4.211e-3
-1.169, -4.245e-3
-1.168, -4.279e-3
-1.167, -4.316e-3
-1.166, -4.341e-3
-1.165, -4.369e-3
-1.164, -4.396e-3
-1.163, -4.418e-3
-1.162, -4.440e-3
-1.161, -4.464e-3
-1.160, -4.483e-3
-1.159, -4.510e-3
-1.158, -4.532e-3
-1.157, -4.563e-3
-1.156, -4.591e-3
-1.155, -4.625e-3
-1.154, -4.658e-3
-1.153, -4.689e-3
-1.152, -4.720e-3
-1.151, -4.748e-3
-1.150, -4.769e-3
-1.149, -4.788e-3
-1.148, -4.813e-3
-1.147, -4.825e-3
-1.146, -4.850e-3
-1.145, -4.871e-3
-1.144, -4.902e-3
-1.143, -4.930e-3
-1.142, -4.957e-3
-1.141, -4.988e-3
-1.140, -5.025e-3
-1.139, -5.050e-3
-1.138, -5.078e-3
-1.137, -5.099e-3
-1.136, -5.115e-3
-1.135, -5.136e-3
-1.134, -5.155e-3
-1.133, -5.170e-3
-1.132, -5.201e-3
-1.131, -5.223e-3
-1.130, -5.250e-3
-1.129, -5.281e-3
-1.128, -5.312e-3
-1.127, -5.346e-3
-1.126, -5.374e-3
-1.125, -5.401e-3
-1.124, -5.423e-3
-1.123, -5.445e-3
-1.122, -5.469e-3
-1.121, -5.488e-3
-1.120, -5.500e-3
-1.119, -5.525e-3
-1.118, -5.549e-3
-1.117, -5.574e-3
-1.116, -5.605e-3
-1.115, -5.636e-3
-1.114, -5.667e-3
-1.113, -5.694e-3
-1.112, -5.719e-3
-1.111, -5.744e-3
-1.110, -5.762e-3
-1.109, -5.781e-3
-1.108, -5.799e-3
-1.107, -5.812e-3
-1.106, -5.830e-3
-1.105, -5.849e-3
-1.104, -5.870e-3
-1.103, -5.898e-3
-1.102, -5.922e-3
-1.101, -5.947e-3
-1.100, -5.981e-3
-1.099, -6.000e-3
-1.098, -6.027e-3
-1.097, -6.040e-3
-1.096, -6.055e-3
-1.095, -6.070e-3
-1.094, -6.080e-3
-1.093, -6.095e-3
-1.092, -6.114e-3
-1.091, -6.132e-3
-1.090, -6.157e-3
-1.089, -6.178e-3
-1.088, -6.203e-3
-1.087, -6.231e-3
-1.086, -6.252e-3
-1.085, -6.271e-3
-1.084, -6.289e-3
-1.083, -6.299e-3
-1.082, -6.308e-3
-1.081, -6.326e-3
-1.080, -6.329e-3
-1.079, -6.345e-3
-1.078, -6.357e-3
-1.077, -6.376e-3
-1.076, -6.397e-3
-1.075, -6.419e-3
-1.074, -6.440e-3
-1.073, -6.456e-3
-1.072, -6.468e-3
-1.071, -6.481e-3
-1.070, -6.487e-3
-1.069, -6.490e-3
-1.068, -6.496e-3
-1.067, -6.496e-3
-1.066, -6.502e-3
-1.065, -6.511e-3
-1.064, -6.521e-3
-1.063, -6.539e-3
-1.062, -6.551e-3
-1.061, -6.564e-3
-1.060, -6.579e-3
-1.059, -6.588e-3
-1.058, -6.598e-3
-1.057, -6.607e-3
-1.056, -6.607e-3
-1.055, -6.610e-3
-1.054, -6.607e-3
-1.053, -6.610e-3
-1.052, -6.616e-3
-1.051, -6.619e-3
-1.050, -6.629e-3
-1.049, -6.641e-3
-1.048, -6.650e-3
-1.047, -6.662e-3
-1.046, -6.669e-3
-1.045, -6.672e-3
-1.044, -6.672e-3
-1.043, -6.666e-3
-1.042, -6.662e-3
-1.041, -6.653e-3
-1.040, -6.647e-3
-1.039, -6.644e-3
-1.038, -6.641e-3
-1.037, -6.638e-3
-1.036, -6.641e-3
-1.035, -6.644e-3
-1.034, -6.650e-3
-1.033, -6.647e-3
-1.032, -6.641e-3
-1.031, -6.638e-3
-1.030, -6.629e-3
-1.029, -6.616e-3
-1.028, -6.604e-3
-1.027, -6.588e-3
-1.026, -6.579e-3
-1.025, -6.567e-3
-1.024, -6.567e-3
-1.023, -6.564e-3
-1.022, -6.564e-3
-1.021, -6.558e-3
-1.020, -6.558e-3
-1.019, -6.548e-3
-1.018, -6.545e-3
-1.017, -6.533e-3
-1.016, -6.511e-3
-1.015, -6.499e-3
-1.014, -6.477e-3
-1.013, -6.462e-3
-1.012, -6.450e-3
-1.011, -6.440e-3
-1.010, -6.428e-3
-1.009, -6.422e-3
-1.008, -6.410e-3
-1.007, -6.410e-3
-1.006, -6.394e-3
-1.005, -6.385e-3
-1.004, -6.366e-3
-1.003, -6.345e-3
-1.002, -6.323e-3
-1.001, -6.305e-3
