May 6, 2025   07:14:36
Cyclic Voltammetry
File: c:/users/guazh/data/banditlqround7_x0exp1108_r5/2025-04-30-exp1256\exp1256-2025-05-06t07_06_27-arkoh\exp1256_cv_sr_700mvs_efin_-1400mv.bin
Data Source:  Experiment
Instrument Model:  CHI760E
Header: CV ran at 700 mVs
Note: 

Init E (V) = -1
High E (V) = -1
Low E (V) = -1.4
Final E (V) = -1
Init P/N = N
Scan Rate (V/s) = 0.7
Segment = 3
Sample Interval (V) = 0.001
Quiet Time (sec) = 2
Sensitivity (A/V) = 0.01
Comp R (ohm) = 1.0

Results:

Channel 1:
Segment 1:

Segment 2:

Segment 3:

Potential/V, Current/A

-1.000, 4.380e-4
-1.001, 7.524e-4
-1.002, 9.960e-4
-1.003, 1.203e-3
-1.004, 1.369e-3
-1.005, 1.514e-3
-1.006, 1.637e-3
-1.007, 1.748e-3
-1.008, 1.841e-3
-1.009, 1.924e-3
-1.010, 1.986e-3
-1.011, 2.041e-3
-1.012, 2.091e-3
-1.013, 2.128e-3
-1.014, 2.161e-3
-1.015, 2.195e-3
-1.016, 2.226e-3
-1.017, 2.266e-3
-1.018, 2.300e-3
-1.019, 2.334e-3
-1.020, 2.368e-3
-1.021, 2.393e-3
-1.022, 2.411e-3
-1.023, 2.430e-3
-1.024, 2.442e-3
-1.025, 2.457e-3
-1.026, 2.470e-3
-1.027, 2.482e-3
-1.028, 2.504e-3
-1.029, 2.525e-3
-1.030, 2.547e-3
-1.031, 2.571e-3
-1.032, 2.590e-3
-1.033, 2.608e-3
-1.034, 2.621e-3
-1.035, 2.627e-3
-1.036, 2.636e-3
-1.037, 2.642e-3
-1.038, 2.655e-3
-1.039, 2.664e-3
-1.040, 2.682e-3
-1.041, 2.704e-3
-1.042, 2.723e-3
-1.043, 2.747e-3
-1.044, 2.763e-3
-1.045, 2.778e-3
-1.046, 2.790e-3
-1.047, 2.800e-3
-1.048, 2.806e-3
-1.049, 2.812e-3
-1.050, 2.824e-3
-1.051, 2.834e-3
-1.052, 2.855e-3
-1.053, 2.871e-3
-1.054, 2.892e-3
-1.055, 2.914e-3
-1.056, 2.929e-3
-1.057, 2.941e-3
-1.058, 2.951e-3
-1.059, 2.957e-3
-1.060, 2.960e-3
-1.061, 2.966e-3
-1.062, 2.978e-3
-1.063, 2.994e-3
-1.064, 3.009e-3
-1.065, 3.031e-3
-1.066, 3.049e-3
-1.067, 3.071e-3
-1.068, 3.086e-3
-1.069, 3.099e-3
-1.070, 3.102e-3
-1.071, 3.111e-3
-1.072, 3.111e-3
-1.073, 3.123e-3
-1.074, 3.133e-3
-1.075, 3.151e-3
-1.076, 3.176e-3
-1.077, 3.194e-3
-1.078, 3.219e-3
-1.079, 3.237e-3
-1.080, 3.253e-3
-1.081, 3.265e-3
-1.082, 3.271e-3
-1.083, 3.278e-3
-1.084, 3.281e-3
-1.085, 3.293e-3
-1.086, 3.308e-3
-1.087, 3.330e-3
-1.088, 3.348e-3
-1.089, 3.370e-3
-1.090, 3.392e-3
-1.091, 3.407e-3
-1.092, 3.425e-3
-1.093, 3.432e-3
-1.094, 3.444e-3
-1.095, 3.453e-3
-1.096, 3.462e-3
-1.097, 3.478e-3
-1.098, 3.496e-3
-1.099, 3.518e-3
-1.100, 3.543e-3
-1.101, 3.567e-3
-1.102, 3.589e-3
-1.103, 3.607e-3
-1.104, 3.620e-3
-1.105, 3.632e-3
-1.106, 3.638e-3
-1.107, 3.651e-3
-1.108, 3.666e-3
-1.109, 3.681e-3
-1.110, 3.706e-3
-1.111, 3.731e-3
-1.112, 3.752e-3
-1.113, 3.783e-3
-1.114, 3.799e-3
-1.115, 3.820e-3
-1.116, 3.832e-3
-1.117, 3.845e-3
-1.118, 3.857e-3
-1.119, 3.866e-3
-1.120, 3.882e-3
-1.121, 3.900e-3
-1.122, 3.922e-3
-1.123, 3.947e-3
-1.124, 3.974e-3
-1.125, 3.996e-3
-1.126, 4.021e-3
-1.127, 4.039e-3
-1.128, 4.054e-3
-1.129, 4.067e-3
-1.130, 4.076e-3
-1.131, 4.091e-3
-1.132, 4.113e-3
-1.133, 4.135e-3
-1.134, 4.162e-3
-1.135, 4.187e-3
-1.136, 4.215e-3
-1.137, 4.243e-3
-1.138, 4.264e-3
-1.139, 4.283e-3
-1.140, 4.301e-3
-1.141, 4.313e-3
-1.142, 4.329e-3
-1.143, 4.350e-3
-1.144, 4.369e-3
-1.145, 4.400e-3
-1.146, 4.424e-3
-1.147, 4.452e-3
-1.148, 4.486e-3
-1.149, 4.508e-3
-1.150, 4.535e-3
-1.151, 4.554e-3
-1.152, 4.572e-3
-1.153, 4.588e-3
-1.154, 4.600e-3
-1.155, 4.622e-3
-1.156, 4.646e-3
-1.157, 4.677e-3
-1.158, 4.708e-3
-1.159, 4.736e-3
-1.160, 4.767e-3
-1.161, 4.797e-3
-1.162, 4.819e-3
-1.163, 4.841e-3
-1.164, 4.862e-3
-1.165, 4.881e-3
-1.166, 4.905e-3
-1.167, 4.927e-3
-1.168, 4.955e-3
-1.169, 4.986e-3
-1.170, 5.019e-3
-1.171, 5.056e-3
-1.172, 5.087e-3
-1.173, 5.121e-3
-1.174, 5.149e-3
-1.175, 5.174e-3
-1.176, 5.192e-3
-1.177, 5.217e-3
-1.178, 5.241e-3
-1.179, 5.269e-3
-1.180, 5.300e-3
-1.181, 5.337e-3
-1.182, 5.368e-3
-1.183, 5.411e-3
-1.184, 5.439e-3
-1.185, 5.473e-3
-1.186, 5.497e-3
-1.187, 5.519e-3
-1.188, 5.544e-3
-1.189, 5.565e-3
-1.190, 5.596e-3
-1.191, 5.624e-3
-1.192, 5.664e-3
-1.193, 5.701e-3
-1.194, 5.741e-3
-1.195, 5.781e-3
-1.196, 5.818e-3
-1.197, 5.849e-3
-1.198, 5.880e-3
-1.199, 5.907e-3
-1.200, 5.932e-3
-1.201, 5.960e-3
-1.202, 5.991e-3
-1.203, 6.025e-3
-1.204, 6.068e-3
-1.205, 6.105e-3
-1.206, 6.151e-3
-1.207, 6.188e-3
-1.208, 6.231e-3
-1.209, 6.265e-3
-1.210, 6.296e-3
-1.211, 6.321e-3
-1.212, 6.348e-3
-1.213, 6.376e-3
-1.214, 6.410e-3
-1.215, 6.450e-3
-1.216, 6.490e-3
-1.217, 6.530e-3
-1.218, 6.573e-3
-1.219, 6.607e-3
-1.220, 6.647e-3
-1.221, 6.675e-3
-1.222, 6.706e-3
-1.223, 6.737e-3
-1.224, 6.764e-3
-1.225, 6.798e-3
-1.226, 6.835e-3
-1.227, 6.879e-3
-1.228, 6.922e-3
-1.229, 6.974e-3
-1.230, 7.020e-3
-1.231, 7.054e-3
-1.232, 7.091e-3
-1.233, 7.125e-3
-1.234, 7.153e-3
-1.235, 7.181e-3
-1.236, 7.215e-3
-1.237, 7.252e-3
-1.238, 7.295e-3
-1.239, 7.338e-3
-1.240, 7.384e-3
-1.241, 7.434e-3
-1.242, 7.474e-3
-1.243, 7.517e-3
-1.244, 7.551e-3
-1.245, 7.575e-3
-1.246, 7.609e-3
-1.247, 7.637e-3
-1.248, 7.674e-3
-1.249, 7.708e-3
-1.250, 7.751e-3
-1.251, 7.791e-3
-1.252, 7.834e-3
-1.253, 7.881e-3
-1.254, 7.924e-3
-1.255, 7.964e-3
-1.256, 7.995e-3
-1.257, 8.035e-3
-1.258, 8.066e-3
-1.259, 8.096e-3
-1.260, 8.136e-3
-1.261, 8.177e-3
-1.262, 8.223e-3
-1.263, 8.266e-3
-1.264, 8.315e-3
-1.265, 8.362e-3
-1.266, 8.405e-3
-1.267, 8.439e-3
-1.268, 8.479e-3
-1.269, 8.510e-3
-1.270, 8.543e-3
-1.271, 8.584e-3
-1.272, 8.621e-3
-1.273, 8.667e-3
-1.274, 8.713e-3
-1.275, 8.756e-3
-1.276, 8.806e-3
-1.277, 8.846e-3
-1.278, 8.889e-3
-1.279, 8.926e-3
-1.280, 8.960e-3
-1.281, 8.991e-3
-1.282, 9.018e-3
-1.283, 9.052e-3
-1.284, 9.086e-3
-1.285, 9.123e-3
-1.286, 9.172e-3
-1.287, 9.219e-3
-1.288, 9.265e-3
-1.289, 9.308e-3
-1.290, 9.348e-3
-1.291, 9.385e-3
-1.292, 9.425e-3
-1.293, 9.456e-3
-1.294, 9.490e-3
-1.295, 9.530e-3
-1.296, 9.570e-3
-1.297, 9.619e-3
-1.298, 9.663e-3
-1.299, 9.712e-3
-1.300, 9.755e-3
-1.301, 9.798e-3
-1.302, 9.841e-3
-1.303, 9.878e-3
-1.304, 9.915e-3
-1.305, 9.952e-3
-1.306, 9.989e-3
-1.307, 1.003e-2
-1.308, 1.007e-2
-1.309, 1.011e-2
-1.310, 1.016e-2
-1.311, 1.020e-2
-1.312, 1.025e-2
-1.313, 1.029e-2
-1.314, 1.033e-2
-1.315, 1.036e-2
-1.316, 1.039e-2
-1.317, 1.041e-2
-1.318, 1.045e-2
-1.319, 1.049e-2
-1.320, 1.054e-2
-1.321, 1.058e-2
-1.322, 1.063e-2
-1.323, 1.069e-2
-1.324, 1.073e-2
-1.325, 1.078e-2
-1.326, 1.082e-2
-1.327, 1.086e-2
-1.328, 1.089e-2
-1.329, 1.093e-2
-1.330, 1.097e-2
-1.331, 1.102e-2
-1.332, 1.106e-2
-1.333, 1.111e-2
-1.334, 1.117e-2
-1.335, 1.123e-2
-1.336, 1.128e-2
-1.337, 1.132e-2
-1.338, 1.137e-2
-1.339, 1.140e-2
-1.340, 1.144e-2
-1.341, 1.148e-2
-1.342, 1.153e-2
-1.343, 1.158e-2
-1.344, 1.163e-2
-1.345, 1.169e-2
-1.346, 1.174e-2
-1.347, 1.179e-2
-1.348, 1.184e-2
-1.349, 1.189e-2
-1.350, 1.194e-2
-1.351, 1.198e-2
-1.352, 1.203e-2
-1.353, 1.208e-2
-1.354, 1.213e-2
-1.355, 1.219e-2
-1.356, 1.226e-2
-1.357, 1.232e-2
-1.358, 1.240e-2
-1.359, 1.246e-2
-1.360, 1.252e-2
-1.361, 1.258e-2
-1.362, 1.263e-2
-1.363, 1.269e-2
-1.364, 1.275e-2
-1.365, 1.281e-2
-1.366, 1.288e-2
-1.367, 1.296e-2
-1.368, 1.303e-2
-1.369, 1.311e-2
-1.370, 1.319e-2
-1.371, 1.326e-2
-1.372, 1.333e-2
-1.373, 1.339e-2
-1.374, 1.346e-2
-1.375, 1.353e-2
-1.376, 1.360e-2
-1.377, 1.367e-2
-1.378, 1.374e-2
-1.379, 1.382e-2
-1.380, 1.390e-2
-1.381, 1.399e-2
-1.382, 1.407e-2
-1.383, 1.416e-2
-1.384, 1.424e-2
-1.385, 1.432e-2
-1.386, 1.440e-2
-1.387, 1.448e-2
-1.388, 1.457e-2
-1.389, 1.466e-2
-1.390, 1.476e-2
-1.391, 1.485e-2
-1.392, 1.496e-2
-1.393, 1.506e-2
-1.394, 1.516e-2
-1.395, 1.526e-2
-1.396, 1.535e-2
-1.397, 1.545e-2
-1.398, 1.555e-2
-1.399, 1.565e-2
-1.400, 1.549e-2
-1.399, 1.493e-2
-1.398, 1.448e-2
-1.397, 1.409e-2
-1.396, 1.374e-2
-1.395, 1.342e-2
-1.394, 1.312e-2
-1.393, 1.284e-2
-1.392, 1.256e-2
-1.391, 1.230e-2
-1.390, 1.204e-2
-1.389, 1.180e-2
-1.388, 1.156e-2
-1.387, 1.134e-2
-1.386, 1.112e-2
-1.385, 1.091e-2
-1.384, 1.071e-2
-1.383, 1.051e-2
-1.382, 1.031e-2
-1.381, 1.011e-2
-1.380, 9.909e-3
-1.379, 9.715e-3
-1.378, 9.524e-3
-1.377, 9.336e-3
-1.376, 9.154e-3
-1.375, 8.978e-3
-1.374, 8.812e-3
-1.373, 8.648e-3
-1.372, 8.488e-3
-1.371, 8.325e-3
-1.370, 8.158e-3
-1.369, 7.995e-3
-1.368, 7.828e-3
-1.367, 7.668e-3
-1.366, 7.504e-3
-1.365, 7.353e-3
-1.364, 7.205e-3
-1.363, 7.064e-3
-1.362, 6.922e-3
-1.361, 6.783e-3
-1.360, 6.647e-3
-1.359, 6.502e-3
-1.358, 6.364e-3
-1.357, 6.219e-3
-1.356, 6.077e-3
-1.355, 5.935e-3
-1.354, 5.799e-3
-1.353, 5.667e-3
-1.352, 5.541e-3
-1.351, 5.417e-3
-1.350, 5.297e-3
-1.349, 5.186e-3
-1.348, 5.060e-3
-1.347, 4.945e-3
-1.346, 4.819e-3
-1.345, 4.696e-3
-1.344, 4.569e-3
-1.343, 4.443e-3
-1.342, 4.329e-3
-1.341, 4.215e-3
-1.340, 4.107e-3
-1.339, 3.999e-3
-1.338, 3.897e-3
-1.337, 3.795e-3
-1.336, 3.697e-3
-1.335, 3.589e-3
-1.334, 3.481e-3
-1.333, 3.376e-3
-1.332, 3.268e-3
-1.331, 3.163e-3
-1.330, 3.062e-3
-1.329, 2.966e-3
-1.328, 2.877e-3
-1.327, 2.790e-3
-1.326, 2.704e-3
-1.325, 2.621e-3
-1.324, 2.538e-3
-1.323, 2.448e-3
-1.322, 2.359e-3
-1.321, 2.266e-3
-1.320, 2.177e-3
-1.319, 2.091e-3
-1.318, 2.007e-3
-1.317, 1.930e-3
-1.316, 1.856e-3
-1.315, 1.788e-3
-1.314, 1.721e-3
-1.313, 1.647e-3
-1.312, 1.576e-3
-1.311, 1.502e-3
-1.310, 1.418e-3
-1.309, 1.338e-3
-1.308, 1.261e-3
-1.307, 1.193e-3
-1.306, 1.122e-3
-1.305, 1.058e-3
-1.304, 9.991e-4
-1.303, 9.374e-4
-1.302, 8.788e-4
-1.301, 8.203e-4
-1.300, 7.524e-4
-1.299, 6.846e-4
-1.298, 6.199e-4
-1.297, 5.489e-4
-1.296, 4.842e-4
-1.295, 4.225e-4
-1.294, 3.640e-4
-1.293, 3.115e-4
-1.292, 2.561e-4
-1.291, 2.098e-4
-1.290, 1.574e-4
-1.289, 1.050e-4
-1.288, 4.949e-5
-1.287, -1.218e-5
-1.286, -7.076e-5
-1.285, -1.324e-4
-1.284, -1.879e-4
-1.283, -2.434e-4
-1.282, -2.897e-4
-1.281, -3.359e-4
-1.280, -3.760e-4
-1.279, -4.191e-4
-1.278, -4.623e-4
-1.277, -5.055e-4
-1.276, -5.579e-4
-1.275, -6.072e-4
-1.274, -6.627e-4
-1.273, -7.151e-4
-1.272, -7.614e-4
-1.271, -8.076e-4
-1.270, -8.477e-4
-1.269, -8.847e-4
-1.268, -9.248e-4
-1.267, -9.556e-4
-1.266, -9.957e-4
-1.265, -1.036e-3
-1.264, -1.082e-3
-1.263, -1.128e-3
-1.262, -1.175e-3
-1.261, -1.221e-3
-1.260, -1.264e-3
-1.259, -1.298e-3
-1.258, -1.332e-3
-1.257, -1.366e-3
-1.256, -1.390e-3
-1.255, -1.424e-3
-1.254, -1.458e-3
-1.253, -1.492e-3
-1.252, -1.538e-3
-1.251, -1.575e-3
-1.250, -1.622e-3
-1.249, -1.659e-3
-1.248, -1.692e-3
-1.247, -1.729e-3
-1.246, -1.754e-3
-1.245, -1.782e-3
-1.244, -1.807e-3
-1.243, -1.834e-3
-1.242, -1.862e-3
-1.241, -1.899e-3
-1.240, -1.933e-3
-1.239, -1.973e-3
-1.238, -2.013e-3
-1.237, -2.044e-3
-1.236, -2.081e-3
-1.235, -2.099e-3
-1.234, -2.127e-3
-1.233, -2.152e-3
-1.232, -2.170e-3
-1.231, -2.201e-3
-1.230, -2.232e-3
-1.229, -2.272e-3
-1.228, -2.309e-3
-1.227, -2.346e-3
-1.226, -2.380e-3
-1.225, -2.408e-3
-1.224, -2.432e-3
-1.223, -2.457e-3
-1.222, -2.479e-3
-1.221, -2.497e-3
-1.220, -2.519e-3
-1.219, -2.543e-3
-1.218, -2.574e-3
-1.217, -2.605e-3
-1.216, -2.639e-3
-1.215, -2.676e-3
-1.214, -2.707e-3
-1.213, -2.735e-3
-1.212, -2.759e-3
-1.211, -2.778e-3
-1.210, -2.799e-3
-1.209, -2.815e-3
-1.208, -2.836e-3
-1.207, -2.861e-3
-1.206, -2.892e-3
-1.205, -2.923e-3
-1.204, -2.957e-3
-1.203, -2.990e-3
-1.202, -3.018e-3
-1.201, -3.043e-3
-1.200, -3.064e-3
-1.199, -3.083e-3
-1.198, -3.101e-3
-1.197, -3.117e-3
-1.196, -3.145e-3
-1.195, -3.169e-3
-1.194, -3.200e-3
-1.193, -3.234e-3
-1.192, -3.265e-3
-1.191, -3.299e-3
-1.190, -3.330e-3
-1.189, -3.348e-3
-1.188, -3.373e-3
-1.187, -3.388e-3
-1.186, -3.404e-3
-1.185, -3.425e-3
-1.184, -3.447e-3
-1.183, -3.475e-3
-1.182, -3.499e-3
-1.181, -3.527e-3
-1.180, -3.564e-3
-1.179, -3.586e-3
-1.178, -3.619e-3
-1.177, -3.641e-3
-1.176, -3.656e-3
-1.175, -3.672e-3
-1.174, -3.687e-3
-1.173, -3.706e-3
-1.172, -3.730e-3
-1.171, -3.758e-3
-1.170, -3.789e-3
-1.169, -3.823e-3
-1.168, -3.854e-3
-1.167, -3.881e-3
-1.166, -3.909e-3
-1.165, -3.928e-3
-1.164, -3.946e-3
-1.163, -3.965e-3
-1.162, -3.980e-3
-1.161, -4.005e-3
-1.160, -4.029e-3
-1.159, -4.057e-3
-1.158, -4.088e-3
-1.157, -4.116e-3
-1.156, -4.150e-3
-1.155, -4.174e-3
-1.154, -4.196e-3
-1.153, -4.218e-3
-1.152, -4.233e-3
-1.151, -4.255e-3
-1.150, -4.270e-3
-1.149, -4.292e-3
-1.148, -4.316e-3
-1.147, -4.344e-3
-1.146, -4.372e-3
-1.145, -4.406e-3
-1.144, -4.424e-3
-1.143, -4.455e-3
-1.142, -4.473e-3
-1.141, -4.489e-3
-1.140, -4.507e-3
-1.139, -4.517e-3
-1.138, -4.544e-3
-1.137, -4.563e-3
-1.136, -4.591e-3
-1.135, -4.621e-3
-1.134, -4.652e-3
-1.133, -4.683e-3
-1.132, -4.711e-3
-1.131, -4.736e-3
-1.130, -4.754e-3
-1.129, -4.772e-3
-1.128, -4.788e-3
-1.127, -4.806e-3
-1.126, -4.828e-3
-1.125, -4.850e-3
-1.124, -4.880e-3
-1.123, -4.908e-3
-1.122, -4.939e-3
-1.121, -4.967e-3
-1.120, -4.991e-3
-1.119, -5.013e-3
-1.118, -5.028e-3
-1.117, -5.044e-3
-1.116, -5.059e-3
-1.115, -5.075e-3
-1.114, -5.090e-3
-1.113, -5.118e-3
-1.112, -5.139e-3
-1.111, -5.170e-3
-1.110, -5.198e-3
-1.109, -5.220e-3
-1.108, -5.247e-3
-1.107, -5.266e-3
-1.106, -5.278e-3
-1.105, -5.294e-3
-1.104, -5.303e-3
-1.103, -5.327e-3
-1.102, -5.346e-3
-1.101, -5.371e-3
-1.100, -5.398e-3
-1.099, -5.426e-3
-1.098, -5.454e-3
-1.097, -5.472e-3
-1.096, -5.494e-3
-1.095, -5.509e-3
-1.094, -5.525e-3
-1.093, -5.537e-3
-1.092, -5.546e-3
-1.091, -5.565e-3
-1.090, -5.580e-3
-1.089, -5.608e-3
-1.088, -5.627e-3
-1.087, -5.654e-3
-1.086, -5.676e-3
-1.085, -5.694e-3
-1.084, -5.710e-3
-1.083, -5.716e-3
-1.082, -5.725e-3
-1.081, -5.731e-3
-1.080, -5.741e-3
-1.079, -5.753e-3
-1.078, -5.768e-3
-1.077, -5.790e-3
-1.076, -5.812e-3
-1.075, -5.836e-3
-1.074, -5.852e-3
-1.073, -5.870e-3
-1.072, -5.873e-3
-1.071, -5.886e-3
-1.070, -5.889e-3
-1.069, -5.892e-3
-1.068, -5.904e-3
-1.067, -5.910e-3
-1.066, -5.926e-3
-1.065, -5.944e-3
-1.064, -5.959e-3
-1.063, -5.981e-3
-1.062, -5.990e-3
-1.061, -6.000e-3
-1.060, -6.006e-3
-1.059, -6.006e-3
-1.058, -6.006e-3
-1.057, -6.006e-3
-1.056, -6.009e-3
-1.055, -6.018e-3
-1.054, -6.027e-3
-1.053, -6.043e-3
-1.052, -6.049e-3
-1.051, -6.058e-3
-1.050, -6.061e-3
-1.049, -6.064e-3
-1.048, -6.061e-3
-1.047, -6.058e-3
-1.046, -6.049e-3
-1.045, -6.046e-3
-1.044, -6.046e-3
-1.043, -6.046e-3
-1.042, -6.055e-3
-1.041, -6.061e-3
-1.040, -6.067e-3
-1.039, -6.070e-3
-1.038, -6.070e-3
-1.037, -6.067e-3
-1.036, -6.058e-3
-1.035, -6.049e-3
-1.034, -6.037e-3
-1.033, -6.033e-3
-1.032, -6.024e-3
-1.031, -6.027e-3
-1.030, -6.024e-3
-1.029, -6.021e-3
-1.028, -6.030e-3
-1.027, -6.018e-3
-1.026, -6.012e-3
-1.025, -6.000e-3
-1.024, -5.993e-3
-1.023, -5.975e-3
-1.022, -5.959e-3
-1.021, -5.947e-3
-1.020, -5.938e-3
-1.019, -5.929e-3
-1.018, -5.929e-3
-1.017, -5.922e-3
-1.016, -5.916e-3
-1.015, -5.910e-3
-1.014, -5.892e-3
-1.013, -5.873e-3
-1.012, -5.855e-3
-1.011, -5.830e-3
-1.010, -5.815e-3
-1.009, -5.799e-3
-1.008, -5.790e-3
-1.007, -5.784e-3
-1.006, -5.778e-3
-1.005, -5.771e-3
-1.004, -5.762e-3
-1.003, -5.750e-3
-1.002, -5.734e-3
-1.001, -5.713e-3
