Potential V vs RHE, Current mA cm-2
0.013299999999999867,-5.672992312458796
0.012299999999999978,-8.987660888042578
0.011299999999999866,-11.123874950838783
0.010299999999999976,-12.781916594280606
0.009299999999999864,-14.046668496359947
0.008299999999999974,-14.741291744593681
0.007299999999999862,-15.094969569559943
0.006299999999999972,-15.448647394526201
0.00529999999999986,-16.014531914472215
0.0042999999999999705,-16.580416434418233
0.0032999999999998586,-16.750181790402035
0.0022999999999999687,-16.792623129397985
0.0012999999999998568,-16.962388485381787
0.00029999999999996696,-17.316066310348052
-0.000700000000000145,-17.75462681330621
-0.0017000000000000348,-17.839509491298113
-0.0027000000000001467,-17.75462681330621
-0.0037000000000000366,-17.839509491298113
-0.0047000000000001485,-18.10830463827247
-0.005700000000000038,-18.44783535024008
-0.00670000000000015,-18.589306480226583
-0.00770000000000004,-18.44783535024008
-0.008700000000000152,-18.49027668923603
-0.009700000000000042,-18.80151317520634
-0.010700000000000154,-19.155191000172596
-0.011700000000000044,-19.197632339168546
-0.012700000000000156,-19.155191000172596
-0.013700000000000045,-19.197632339168546
-0.014700000000000157,-19.452280373144255
-0.015700000000000047,-19.763516859114564
-0.01670000000000016,-19.805958198110513
-0.01770000000000005,-19.721075520118614
-0.01870000000000016,-19.721075520118614
-0.01970000000000005,-19.97572355409432
-0.020700000000000163,-20.286960040064624
-0.021700000000000053,-20.371842718056527
-0.022700000000000164,-20.286960040064624
-0.023700000000000054,-20.286960040064624
-0.024700000000000166,-20.499166735044383
-0.025700000000000056,-20.85284456001064
-0.026700000000000168,-20.93772723800254
-0.027700000000000058,-20.89528589900659
-0.02870000000000017,-20.89528589900659
-0.02970000000000006,-21.149933932982297
-0.03070000000000017,-21.503611757948562
-0.03170000000000006,-21.503611757948562
-0.03270000000000017,-21.418729079956652
-0.03370000000000006,-21.418729079956652
-0.034700000000000175,-21.729965565926964
-0.035700000000000065,-22.069496277894572
-0.03670000000000018,-22.15437895588647
-0.03770000000000007,-22.027054938898623
-0.03870000000000018,-22.027054938898623
-0.03970000000000007,-22.33829142486893
-0.04070000000000018,-22.67782213683654
-0.04170000000000007,-22.776851927827092
-0.04270000000000018,-22.63538079784059
-0.04370000000000007,-22.72026347583249
-0.044700000000000184,-22.904175944814945
-0.045700000000000074,-23.2012653177866
-0.046700000000000186,-23.300295108777156
-0.047700000000000076,-23.2012653177866
-0.04870000000000019,-23.24370665678255
-0.04970000000000008,-23.55494314275286
-0.05070000000000019,-23.86617962872317
-0.05170000000000008,-23.951062306715073
-0.05270000000000019,-23.823738289727217
-0.05370000000000008,-23.908620967719123
-0.05470000000000019,-24.24815167968673
-0.05570000000000008,-24.516946826661083
-0.056700000000000195,-24.559388165657033
-0.057700000000000085,-24.474505487665134
-0.058700000000000196,-24.516946826661083
-0.059700000000000086,-24.870624651627345
-0.0607000000000002,-25.167714024599
-0.06170000000000009,-25.295038041586857
-0.0627000000000002,-25.210155363594954
-0.06370000000000009,-25.210155363594954
-0.0647000000000002,-25.563833188561212
-0.06570000000000009,-25.86092256153287
-0.0667000000000002,-25.91751101352747
-0.0677000000000001,-25.81848122253692
-0.0687000000000002,-25.959952352523427
-0.0697000000000001,-26.257041725495082
-0.07070000000000021,-26.61071955046134
-0.0717000000000001,-26.65316088945729
-0.07270000000000021,-26.568278211465387
-0.0737000000000001,-26.61071955046134
-0.07470000000000021,-26.907808923433
-0.0757000000000001,-27.303928087395207
-0.07670000000000021,-27.34636942639116
-0.0777000000000001,-27.261486748399253
-0.07870000000000021,-27.34636942639116
-0.0797000000000001,-27.615164573365515
-0.08070000000000022,-28.011283737327723
-0.0817000000000001,-28.13860775431558
-0.08270000000000022,-28.09616641531963
-0.08370000000000011,-28.13860775431558
-0.08470000000000022,-28.393255788291288
-0.08570000000000011,-28.746933613257543
-0.08670000000000022,-28.831816291249446
-0.08770000000000011,-28.789374952253496
-0.08870000000000022,-28.831816291249446
-0.08970000000000011,-29.14305277721976
-0.09070000000000022,-29.525024828183312
-0.09170000000000011,-29.62405461917387
-0.09270000000000023,-29.62405461917387
-0.09370000000000012,-29.62405461917387
-0.09470000000000023,-30.00602667013743
-0.09570000000000012,-30.402145834099635
-0.09670000000000023,-30.529469851087494
-0.09770000000000012,-30.487028512091538
-0.09870000000000023,-30.487028512091538
-0.09970000000000012,-30.8407063370578
-0.10070000000000023,-31.19438416202406
-0.10170000000000012,-31.36414951800786
-0.10270000000000024,-31.27926684001596
-0.10370000000000013,-31.321708179011907
-0.10470000000000024,-31.717827342974125
-0.10570000000000013,-32.09979939393769
-0.10670000000000024,-32.184682071929586
-0.10770000000000013,-32.184682071929586
-0.10870000000000024,-32.283711862920136
-0.10970000000000013,-32.66568391388369
-0.11070000000000024,-33.10424441684186
-0.11170000000000013,-33.14668575583781
-0.11270000000000002,-33.10424441684186
-0.11370000000000013,-33.231568433829715
-0.11470000000000002,-33.58524625879597
-0.11570000000000014,-34.02380676175414
-0.11670000000000003,-34.15113077874198
-0.11770000000000014,-34.10868943974604
-0.11870000000000003,-34.236013456733886
-0.11970000000000014,-34.58969128170015
-0.12070000000000003,-35.02825178465831
-0.12170000000000014,-35.11313446265021
-0.12270000000000003,-35.11313446265021
-0.12370000000000014,-35.32534115762997
-0.12470000000000003,-35.679018982596226
-0.12570000000000014,-36.07513814655844
-0.12670000000000003,-36.244903502542236
-0.12770000000000015,-36.16002082455034
-0.12870000000000004,-36.329786180534136
-0.12970000000000015,-36.6834640055004
-0.13070000000000004,-37.07958316946261
-0.13170000000000015,-37.249348525446415
-0.13270000000000004,-37.249348525446415
-0.13370000000000015,-37.376672542434264
-0.13470000000000004,-37.77279170639648
-0.13570000000000015,-38.211352209354644
-0.13670000000000004,-38.42355890433439
-0.13770000000000016,-38.42355890433439
-0.13870000000000005,-38.607471373316855
-0.13970000000000016,-38.98944342428042
-0.14070000000000005,-39.42800392723857
-0.14170000000000016,-39.56947505722508
-0.14270000000000005,-39.56947505722508
-0.14370000000000016,-39.78168175220483
-0.14470000000000005,-40.220242255162994
-0.14570000000000016,-40.65880275812115
-0.14670000000000005,-40.828568114104954
-0.14770000000000016,-40.87100945310091
-0.14870000000000005,-40.95589213109281
-0.14970000000000017,-41.39445263405098
-0.15070000000000006,-41.91789581500104
-0.15170000000000017,-42.186690961975394
-0.15270000000000006,-42.229132300971344
-0.15370000000000017,-42.4413389959511
-0.15470000000000006,-42.837458159913304
-0.15570000000000017,-43.44578401885527
-0.15670000000000006,-43.57310803584313
-0.15770000000000017,-43.57310803584313
-0.15870000000000006,-43.84190318281749
-0.15970000000000018,-44.223875233781044
-0.16070000000000007,-44.66243573673921
-0.16170000000000018,-44.88878954471762
-0.16270000000000007,-44.84634820572166
-0.16370000000000018,-45.05855490070142
-0.16470000000000007,-45.53955674265553
-0.16570000000000018,-45.97811724561369
-0.16670000000000007,-46.147882601597495
-0.16770000000000018,-46.10544126260155
-0.16870000000000007,-46.27520661858535
-0.16970000000000018,-46.628884443551605
-0.17070000000000007,-47.10988628550572
-0.17170000000000019,-47.32209298048547
-0.17270000000000008,-47.36453431948143
-0.1737000000000002,-47.633329466455784
-0.17470000000000008,-48.071889969413945
-0.1757000000000002,-48.55289181136806
-0.17670000000000008,-48.80753984534376
-0.1777000000000002,-48.80753984534376
-0.17870000000000008,-49.03389365332217
-0.1797000000000002,-49.50074838227763
-0.18070000000000008,-49.939308885235796
-0.1817000000000002,-50.20810403221015
-0.18270000000000008,-50.29298671020206
-0.1837000000000002,-50.46275206618586
-0.1847000000000001,-50.98619524713592
-0.1857000000000002,-51.594521106077885
-0.1867000000000001,-51.86331625305225
-0.1877000000000002,-51.948198931044146
-0.1887000000000001,-52.25943541701445
-0.1897000000000002,-52.74043725896857
-0.1907000000000001,-53.26388043991864
-0.1917000000000001,-53.476087134898386
-0.19269999999999998,-53.518528473894335
-0.1937000000000001,-53.74488228187274
-0.19469999999999998,-54.16929567183226
-0.1957000000000001,-54.60785617479041
-0.19669999999999999,-54.834209982768826
-0.1977000000000001,-54.876651321764776
-0.1987,-55.13129935574048
-0.1997000000000001,-55.612301197694585
-0.2007,-56.1781857176406
-0.2017000000000001,-56.404539525619015
-0.2027,-56.44698086461496
-0.2037000000000001,-56.65918755959472
-0.2047,-57.097748062552874
-0.2057000000000001,-57.57874990450699
-0.2067,-57.87583927747865
-0.2077000000000001,-57.974869068469204
-0.2087,-58.22951710244491
-0.2097000000000001,-58.75296028339497
-0.2107,-59.27640346434504
-0.2117000000000001,-59.6300812893113
-0.2127,-59.757405306299155
-0.2137000000000001,-60.06864179226946
-0.2147,-60.59208497321952
-0.2157000000000001,-61.242852171157445
-0.2167,-61.455058866137186
-0.21770000000000012,-61.53994154412909
-0.2187,-61.72385401311155
-0.21970000000000012,-62.24729719406162
-0.2207,-62.77074037501168
-0.22170000000000012,-62.98294706999144
-0.2227,-63.06782974798333
-0.22370000000000012,-63.29418355596174
-0.2247,-63.77518539791585
-0.22570000000000012,-64.29862857886593
-0.2267,-64.55327661284163
-0.22770000000000012,-64.63815929083353
-0.22870000000000001,-64.94939577680383
-0.22970000000000013,-65.43039761875795
-0.23070000000000002,-66.03872347769992
-0.23170000000000013,-66.25093017267966
-0.23270000000000002,-66.34995996367022
-0.23370000000000013,-66.60460799764593
-0.23470000000000002,-67.04316850060408
-0.23570000000000013,-67.56661168155415
-0.23670000000000002,-67.82125971552985
-0.2376999999999999,-67.9202895065204
-0.23870000000000002,-68.13249620150016
-0.2396999999999999,-68.69838072144618
-0.24070000000000003,-69.26426524139221
-0.24169999999999991,-69.57550172736251
-0.24270000000000003,-69.6603844053544
-0.24369999999999992,-69.91503243933012
-0.24470000000000003,-70.39603428128423
-0.24569999999999992,-70.91947746223428
-0.24670000000000003,-71.18827260920865
-0.24769999999999992,-71.2307139482046
-0.24870000000000003,-71.52780332117625
-0.24969999999999992,-72.05124650212633
-0.25070000000000003,-72.57468968307639
-0.2516999999999999,-72.92836750804264
-0.25270000000000004,-73.01325018603454
-0.2536999999999999,-73.3669280110008
-0.25470000000000004,-73.97525386994278
-0.2556999999999999,-74.62602106788069
-0.25670000000000004,-74.89481621485504
-0.25769999999999993,-75.02214023184291
-0.25870000000000004,-75.2484940398213
-0.25969999999999993,-75.77193722077136
-0.26070000000000004,-76.29538040172143
-0.26169999999999993,-76.63491111368903
-0.26270000000000004,-76.7622351306769
-0.26369999999999993,-77.03103027765125
-0.26470000000000005,-77.59691479759726
-0.26569999999999994,-78.16279931754329
-0.26670000000000005,-78.55891848150549
-0.26769999999999994,-78.68624249849334
-0.26870000000000005,-78.99747898446365
-0.26969999999999994,-79.64824618240156
-0.27070000000000005,-80.21413070234757
-0.27169999999999994,-80.46877873632329
-0.27270000000000005,-80.61024986630979
-0.27369999999999994,-80.90733923928146
-0.27470000000000006,-81.43078242023151
-0.27569999999999995,-82.03910827917348
-0.27670000000000006,-82.26546208715187
-0.27769999999999995,-82.39278610413973
-0.27870000000000006,-82.6615812511141
-0.27969999999999995,-83.18502443206415
-0.28070000000000006,-83.75090895201016
-0.28169999999999995,-84.04799832498183
-0.28270000000000006,-84.18946945496833
-0.28369999999999995,-84.52900016693594
-0.28470000000000006,-85.09488468688197
-0.28569999999999995,-85.70321054582392
-0.28670000000000007,-86.05688837079018
-0.28769999999999996,-86.18421238777805
-0.28870000000000007,-86.5378902127443
-0.28969999999999996,-87.10377473269031
-0.29070000000000007,-87.75454193062824
-0.29169999999999996,-88.15066109459043
-0.29270000000000007,-88.37701490256885
-0.29369999999999996,-88.80142829252836
-0.2947000000000001,-89.36731281247435
-0.29569999999999996,-89.98978578441499
-0.2967000000000001,-90.37175783537855
-0.29769999999999996,-90.55567030436099
-0.2987000000000001,-90.85275967733266
-0.29969999999999997,-91.46108553627462
-0.3007000000000001,-92.04111716921928
-0.30169999999999997,-92.3806478811869
-0.3027000000000001,-92.56456035016936
-0.30369999999999997,-92.94653240113291
-0.3047000000000001,-93.65388805106544
-0.30569999999999997,-94.34709658799929
-0.3067000000000001,-94.78565709095746
-0.3077,-95.12518780292505
-0.3087000000000001,-95.56374830588322
-0.3097,-96.31354529481169
-0.3107000000000001,-97.04919517074151
-0.3117,-97.53019701269562
-0.3127000000000001,-97.84143349866595
-0.3137,-98.3082882276214
-0.3147000000000001,-99.05808521654988
-0.3157,-99.7937350924797
-0.3167000000000001,-100.2747369344338
-0.3177,-100.670856098396
-0.3187000000000001,-101.23674061834203
-0.3197,-102.11386162425833
-0.3207000000000001,-103.01927685617197
-0.3217,-103.64174982811258
-0.3227000000000001,-104.06616321807209
-0.3237,-104.68863619001272
-0.3247000000000001,-105.46672740493848
-0.3257,-106.34384841085482
-0.3267000000000001,-106.95217426979677
-0.3277,-107.34829343375898
-0.3287000000000001,-107.99906063169689
-0.3297,-108.91862297660917
-0.3307000000000001,-109.8240382085228
-0.3317,-110.48895251945936
-0.3327000000000001,-111.09727837840134
-0.3337,-111.8753695933271
-0.3347000000000001,-112.92225595522721
-0.3357,-114.0115836561233
-0.3367000000000001,-114.84626332304367
-0.3377,-115.4970305209816
-0.3387000000000001,-116.33171018790196
-0.3397,-117.3785965498021
-0.3407000000000001,-118.42548291170223
-0.3417,-119.2884568046199
-0.3427000000000001,-120.03825379354835
-0.3437,-120.85878634747009
-0.3447000000000001,-121.96226116136481
-0.3457,-123.2213542182447
-0.3467000000000001,-124.14091656315696
-0.3477,-124.9614491170787
-0.3487000000000001,-125.92345280098691
-0.3497,-127.19669297086547
-0.3507000000000001,-128.45578602774532
-0.3517,-129.41778971165354
-0.3527000000000001,-130.23832226557528
-0.3537,-131.32764996647134
-0.3547000000000001,-132.64333147534586
-0.3557,-134.04389566221224
-0.35670000000000013,-135.1332233631083
-0.3577,-136.08107993401788
-0.35870000000000013,-137.1845547479126
-0.3597,-138.52853048278442
-0.36070000000000013,-139.97153600864672
-0.3617,-141.14574638753473
-0.3626999999999999,-142.17848563643616
-0.3637,-143.3102546763282
-0.3646999999999999,-144.72496597619326
-0.3657,-146.28114840604482
-0.3666999999999999,-147.4129174459368
-0.3677,-148.40321535584232
-0.3686999999999999,-149.6764555257209
-0.36970000000000003,-151.23263795557244
-0.3706999999999999,-152.78882038542397
-0.37170000000000003,-154.203531685289
-0.3726999999999999,-155.33530072518104
-0.37370000000000003,-156.75001202504606
-0.3746999999999999,-158.4476655848841
-0.37570000000000003,-160.14531914472215
-0.3766999999999999,-161.5600304445872
-0.37770000000000004,-162.97474174445222
-0.3786999999999999,-164.38945304431726
-0.37970000000000004,-166.0871066041553
-0.3806999999999999,-167.78476016399335
-0.38170000000000004,-169.3409425938449
-0.38269999999999993,-170.61418276372342
-0.38370000000000004,-172.17036519357498
-0.38469999999999993,-173.86801875341303
-0.38570000000000004,-175.70714344323756
-0.38669999999999993,-173.86801875341303
-0.38570000000000004,-167.36034677403384
-0.38469999999999993,-162.8332706144657
-0.38370000000000004,-159.29649236480313
-0.38269999999999993,-156.04265637511355
-0.38170000000000004,-153.07176264539694
-0.3806999999999999,-150.1008689156804
-0.37970000000000004,-147.27144631595033
-0.3786999999999999,-144.86643710617977
-0.37770000000000004,-142.4614278964092
-0.3766999999999999,-139.84421199165885
-0.37570000000000003,-137.22699608690854
-0.3746999999999999,-134.73710419914607
-0.37370000000000003,-132.6857728143418
-0.3726999999999999,-130.67688276853346
-0.37170000000000003,-128.45578602774532
-0.3706999999999999,-126.09321815697072
-0.36970000000000003,-123.78723873819072
-0.3686999999999999,-121.73590735338641
-0.3677,-119.81189998556997
-0.3666999999999999,-117.59080324478184
-0.3657,-115.32726516499778
-0.3646999999999999,-113.14860976320564
-0.3637,-111.22460239538917
-0.3626999999999999,-109.4845074965552
-0.3617,-107.47561745074682
-0.36070000000000013,-105.33940338795064
-0.3597,-103.37295468113824
-0.35870000000000013,-101.6753011213002
-0.3577,-100.10497157844999
-0.35670000000000013,-98.2234055496295
-0.3557,-96.21451550382113
-0.3547000000000001,-94.38953792699526
-0.3537,-92.86164972314101
-0.3527000000000001,-91.24887884129487
-0.3517,-89.55122528145681
-0.3507000000000001,-87.54233523564847
-0.3497,-85.75979899781852
-0.3487000000000001,-84.27435213296022
-0.3477,-82.78890526810196
-0.3467000000000001,-81.13369304725985
-0.3457,-79.33700969643127
-0.3447000000000001,-77.68179747558916
-0.3437,-76.33782174071737
-0.3427000000000001,-74.97969889284694
-0.3417,-73.45181068899271
-0.3407000000000001,-71.7965984681506
-0.3397,-70.31115160329232
-0.3387000000000001,-69.0944998854084
-0.3377,-67.86370105452582
-0.3367000000000001,-66.34995996367022
-0.3357,-64.68060062982947
-0.3347000000000001,-63.20930087796983
-0.3337,-62.02094338608321
-0.3327000000000001,-60.93161568518713
-0.3317,-59.54519861131939
-0.3307000000000001,-58.017310407465146
-0.3297,-56.65918755959472
-0.3287000000000001,-55.612301197694585
-0.3277,-54.56541483579447
-0.3267000000000001,-53.26388043991864
-0.3257,-51.82087491405629
-0.3247000000000001,-50.60422319617236
-0.3237,-49.557336834272235
-0.3227000000000001,-48.59533315036401
-0.3217,-47.32209298048547
-0.3207000000000001,-45.93567590661774
-0.3197,-44.74731841473111
-0.3187000000000001,-43.84190318281749
-0.3177,-42.96478217690117
-0.3167000000000001,-41.83301313700913
-0.3157,-40.559772967130606
-0.3147000000000001,-39.47044526623452
-0.3137,-38.6499127123128
-0.3127000000000001,-37.81523304539243
-0.3117,-36.725905344496354
-0.3107000000000001,-35.46681228761647
-0.3097,-34.462367264712285
-0.3087000000000001,-33.627687597791926
-0.3077,-32.93447906085806
-0.3067000000000001,-31.887592698957924
-0.30569999999999997,-30.71338232006995
-0.3047000000000001,-29.793819975157668
-0.30369999999999997,-29.100611438223805
-0.3027000000000001,-28.393255788291288
-0.30169999999999997,-27.530281895373616
-0.3007000000000001,-26.440954194477534
-0.29969999999999997,-25.521391849565262
-0.2987000000000001,-24.9130659906233
-0.29769999999999996,-24.24815167968673
-0.2967000000000001,-23.300295108777156
-0.29569999999999996,-22.33829142486893
-0.2947000000000001,-21.461170418952605
-0.29369999999999996,-20.89528589900659
-0.29270000000000007,-20.286960040064624
-0.29169999999999996,-19.452280373144255
-0.29070000000000007,-18.53271802823198
-0.28969999999999996,-17.75462681330621
-0.28870000000000007,-17.2736249713521
-0.28769999999999996,-16.750181790402035
-0.28670000000000007,-15.972090575476265
-0.28569999999999995,-15.05252823056399
-0.28470000000000006,-14.345172580631472
-0.28369999999999995,-13.872659006476551
-0.28270000000000006,-13.436927926118118
-0.28169999999999995,-12.651763154693022
-0.28070000000000006,-11.778886282676295
-0.27969999999999995,-11.081433611842833
-0.27870000000000006,-10.601846481188586
-0.27769999999999995,-10.164700689530287
-0.27670000000000006,-9.467248018696827
-0.27569999999999995,-8.638227196975913
-0.27470000000000006,-7.984630576438266
-0.27369999999999994,-7.591340835075788
-0.27270000000000005,-7.199465805013171
-0.27169999999999994,-6.632166573767292
-0.27070000000000005,-5.890857852638012
-0.26969999999999994,-5.279702571096316
-0.26870000000000005,-4.9302688800296535
-0.26769999999999994,-4.668547289554621
-0.26670000000000005,-4.014950669016974
