Potential V vs RHE, Current mA cm-2
0.05339999999999995,-0.2392276808071777
0.05239999999999995,-0.2420571034069078
0.051399999999999946,-0.24248151679686727
0.050399999999999945,-0.24248151679686727
0.049399999999999944,-0.24219857453689428
0.04839999999999994,-0.24177416114693479
0.04739999999999994,-0.24120827662698877
0.04639999999999994,-0.24064239210704275
0.04539999999999994,-0.24035944984706975
0.04439999999999994,-0.2399350364571102
0.04339999999999994,-0.2393691519371642
0.04239999999999994,-0.2386617962872317
0.04139999999999994,-0.2382373828972722
0.040399999999999936,-0.23767149837732615
0.039399999999999935,-0.23738855611735316
0.038399999999999934,-0.23668120046742064
0.03739999999999993,-0.2359738448174881
0.03639999999999993,-0.2354079602975421
0.03539999999999993,-0.23498354690758255
0.03439999999999993,-0.2345591335176231
0.03339999999999993,-0.23399324899767707
0.03239999999999993,-0.23328589334774452
0.03139999999999993,-0.23272000882779853
0.030399999999999927,-0.23229559543783898
0.029399999999999926,-0.23187118204787951
0.028399999999999925,-0.23116382639794697
0.027399999999999924,-0.23059794187800098
0.026399999999999924,-0.23003205735805496
0.025399999999999923,-0.22960764396809544
0.024399999999999922,-0.22918323057813594
0.02339999999999992,-0.22890028831816295
0.02239999999999992,-0.2281929326682304
0.02139999999999992,-0.22748557701829786
0.020399999999999918,-0.22691969249835187
0.019399999999999917,-0.22649527910839237
0.018399999999999916,-0.22592939458844638
0.017399999999999916,-0.22536351006850036
0.016399999999999915,-0.22479762554855431
0.015399999999999914,-0.22437321215859482
0.014399999999999913,-0.2239487987686353
0.013399999999999912,-0.22338291424868928
0.012399999999999911,-0.2229585008587298
0.01139999999999991,-0.22239261633878374
0.01039999999999991,-0.22210967407881074
0.009399999999999908,-0.22168526068885125
0.008399999999999908,-0.22111937616890526
0.007399999999999907,-0.22055349164895924
0.006399999999999906,-0.2199876071290132
0.005399999999999905,-0.21970466486904017
0.004399999999999904,-0.21942172260906717
0.003399999999999903,-0.21885583808912115
0.002399999999999902,-0.21828995356917516
0.0013999999999999013,-0.21786554017921567
0.00039999999999990044,-0.21758259791924262
-0.0006000000000001005,-0.21729965565926962
-0.0016000000000001013,-0.21687524226931013
-0.0026000000000001022,-0.2164508288793506
-0.003600000000000103,-0.21630935774936413
-0.004600000000000104,-0.2181484824391887
-0.005600000000000105,-0.21800701130920216
-0.006600000000000106,-0.2160264154893911
-0.007600000000000107,-0.2151775887094721
-0.008600000000000108,-0.21475317531951257
-0.009600000000000108,-0.21432876192955308
-0.01060000000000011,-0.21404581966958006
-0.01160000000000011,-0.21376287740960703
-0.012600000000000111,-0.21333846401964754
-0.013600000000000112,-0.21291405062968802
-0.014600000000000113,-0.21263110836971502
-0.015600000000000114,-0.21248963723972852
-0.016600000000000115,-0.21220669497975553
-0.017600000000000116,-0.211782281589796
-0.018600000000000116,-0.21149933932982298
-0.019600000000000117,-0.21135786819983648
-0.020600000000000118,-0.21107492593986346
-0.02160000000000012,-0.21093345480987696
-0.02260000000000012,-0.21050904141991747
-0.02360000000000012,-0.21022609915994445
-0.024600000000000122,-0.21008462802995795
-0.025600000000000123,-0.20994315689997145
-0.026600000000000124,-0.20980168576998495
-0.027600000000000124,-0.20937727238002546
-0.028600000000000125,-0.20923580125003893
-0.029600000000000126,-0.20909433012005244
-0.030600000000000127,-0.20909433012005244
-0.03160000000000013,-0.2088113878600794
-0.03260000000000013,-0.20852844560010642
-0.03360000000000013,-0.20838697447011992
-0.03460000000000002,-0.20838697447011992
-0.03560000000000002,-0.20838697447011992
-0.03660000000000002,-0.2081040322101469
-0.03760000000000002,-0.2079625610801604
-0.03860000000000002,-0.2078210899501739
-0.039600000000000024,-0.2078210899501739
-0.040600000000000025,-0.2079625610801604
-0.041600000000000026,-0.2078210899501739
-0.04260000000000003,-0.2078210899501739
-0.04360000000000003,-0.2086699167300929
-0.04460000000000003,-0.21135786819983648
-0.04560000000000003,-0.21347993514963404
-0.04660000000000003,-0.20966021463999845
-0.04760000000000003,-0.2086699167300929
-0.04860000000000003,-0.20838697447011992
-0.04960000000000003,-0.2082455033401334
-0.050600000000000034,-0.2082455033401334
-0.051600000000000035,-0.2081040322101469
-0.052600000000000036,-0.2079625610801604
-0.053600000000000037,-0.2078210899501739
-0.05460000000000004,-0.2079625610801604
-0.05560000000000004,-0.2081040322101469
-0.05660000000000004,-0.2081040322101469
-0.05760000000000004,-0.2079625610801604
-0.05860000000000004,-0.2079625610801604
-0.05960000000000004,-0.2081040322101469
-0.06060000000000004,-0.2082455033401334
-0.061600000000000044,-0.2082455033401334
-0.06260000000000004,-0.2081040322101469
-0.06360000000000005,-0.2082455033401334
-0.06460000000000005,-0.20838697447011992
-0.06560000000000005,-0.20852844560010642
-0.06660000000000005,-0.2086699167300929
-0.06760000000000005,-0.2086699167300929
-0.06860000000000005,-0.2086699167300929
-0.06960000000000005,-0.2088113878600794
-0.07060000000000005,-0.20909433012005244
-0.07160000000000005,-0.20909433012005244
-0.07260000000000005,-0.20923580125003893
-0.07360000000000005,-0.20923580125003893
-0.07460000000000006,-0.20951874351001196
-0.07560000000000006,-0.20980168576998495
-0.07660000000000006,-0.20994315689997145
-0.07760000000000006,-0.20994315689997145
-0.07860000000000006,-0.21008462802995795
-0.07960000000000006,-0.21022609915994445
-0.08060000000000006,-0.21065051254990397
-0.08160000000000006,-0.21079198367989047
-0.08260000000000006,-0.21079198367989047
-0.08360000000000006,-0.21093345480987696
-0.08460000000000006,-0.21121639706985
-0.08560000000000006,-0.2116408104598095
-0.08660000000000007,-0.211782281589796
-0.08760000000000007,-0.2119237527197825
-0.08860000000000007,-0.212065223849769
-0.08960000000000007,-0.21234816610974203
-0.09060000000000007,-0.21277257949970152
-0.09160000000000007,-0.21291405062968802
-0.09260000000000007,-0.21305552175967452
-0.09360000000000007,-0.21319699288966104
-0.09460000000000007,-0.21362140627962053
-0.09560000000000007,-0.21390434853959353
-0.09660000000000007,-0.21418729079956658
-0.09760000000000008,-0.21432876192955308
-0.09860000000000008,-0.21461170418952608
-0.09960000000000008,-0.21489464644949907
-0.10060000000000008,-0.2153190598394586
-0.10160000000000008,-0.2156020020994316
-0.10260000000000008,-0.2157434732294181
-0.10360000000000008,-0.2160264154893911
-0.10460000000000008,-0.21630935774936413
-0.10560000000000008,-0.2167337711393236
-0.10660000000000008,-0.21701671339929662
-0.10760000000000008,-0.21729965565926962
-0.10860000000000009,-0.21744112678925615
-0.10960000000000009,-0.21786554017921567
-0.11060000000000009,-0.21828995356917516
-0.11160000000000009,-0.21871436695913468
-0.11260000000000009,-0.21885583808912115
-0.11360000000000009,-0.21913878034909418
-0.11460000000000009,-0.2195631937390537
-0.11560000000000009,-0.22012907825899972
-0.11660000000000009,-0.2204120205189727
-0.1176000000000001,-0.2206949627789457
-0.1186000000000001,-0.22097790503891873
-0.1196000000000001,-0.22140231842887825
-0.1206000000000001,-0.22182673181883775
-0.1216000000000001,-0.22225114520879727
-0.1226000000000001,-0.22253408746877026
-0.1236000000000001,-0.2228170297287433
-0.1246000000000001,-0.2232414431187028
-0.1256000000000001,-0.22380732763864883
-0.1266000000000001,-0.22409026989862182
-0.1276000000000001,-0.2245146832885813
-0.1286000000000001,-0.22479762554855431
-0.1296000000000001,-0.22522203893851384
-0.1306000000000001,-0.22578792345845985
-0.1316000000000001,-0.22621233684841938
-0.1326000000000001,-0.22649527910839237
-0.1336000000000001,-0.22691969249835187
-0.1346000000000001,-0.22748557701829786
-0.1356000000000001,-0.22805146153824393
-0.1366000000000001,-0.2284758749282034
-0.1376000000000001,-0.22875881718817642
-0.1386000000000001,-0.22918323057813594
-0.1396000000000001,-0.22974911509808196
-0.1406000000000001,-0.23031499961802795
-0.14160000000000011,-0.2307394130079875
-0.14260000000000012,-0.23116382639794697
-0.14360000000000012,-0.23144676865792
-0.14460000000000012,-0.23201265317786599
-0.14560000000000012,-0.23272000882779853
-0.14660000000000012,-0.23314442221775805
-0.14760000000000012,-0.23356883560771755
-0.14860000000000012,-0.23399324899767707
-0.14960000000000012,-0.2345591335176231
-0.15060000000000012,-0.23526648916755558
-0.15160000000000012,-0.2356909025575151
-0.15260000000000012,-0.23611531594747462
-0.15360000000000013,-0.2365397293374341
-0.15460000000000013,-0.23724708498736666
-0.15560000000000013,-0.23795444063729917
-0.15660000000000013,-0.23837885402725867
-0.15760000000000013,-0.2388032674172182
-0.15860000000000013,-0.2393691519371642
-0.15960000000000002,-0.2399350364571102
-0.16060000000000002,-0.24064239210704275
-0.16160000000000002,-0.24120827662698877
-0.16260000000000002,-0.24177416114693479
-0.16360000000000002,-0.24219857453689428
-0.16460000000000002,-0.2429059301868268
-0.16560000000000002,-0.2437547569667458
-0.16660000000000003,-0.24446211261667833
-0.16760000000000003,-0.24488652600663782
-0.16860000000000003,-0.24545241052658387
-0.16960000000000003,-0.2460182950465299
-0.17060000000000003,-0.24672565069646235
-0.17160000000000003,-0.2474330063463949
-0.17260000000000003,-0.24799889086634092
-0.17360000000000003,-0.2485647753862869
-0.17460000000000003,-0.24927213103621945
-0.17560000000000003,-0.25012095781613847
-0.17660000000000003,-0.25068684233608446
-0.17760000000000004,-0.2512527268560305
-0.17860000000000004,-0.251960082505963
-0.17960000000000004,-0.2526674381558955
-0.18060000000000004,-0.25337479380582806
-0.18160000000000004,-0.25422362058574705
-0.18260000000000004,-0.2547895051056931
-0.18360000000000004,-0.25535538962563914
-0.18460000000000004,-0.2560627452755716
-0.18560000000000004,-0.25691157205549064
-0.18660000000000004,-0.2577603988354097
-0.18760000000000004,-0.2583262833553557
-0.18860000000000005,-0.2588921678753017
-0.18960000000000005,-0.25974099465522077
-0.19060000000000005,-0.26058982143513976
-0.19160000000000005,-0.2614386482150588
-0.19260000000000005,-0.2621460038649913
-0.19360000000000005,-0.2627118883849373
-0.19460000000000005,-0.26356071516485635
-0.19560000000000005,-0.26455101307476186
-0.19660000000000005,-0.2653998398546809
-0.19760000000000005,-0.2661071955046134
-0.19860000000000005,-0.26681455115454594
-0.19960000000000006,-0.26766337793446493
-0.20060000000000006,-0.2686536758443705
-0.20160000000000006,-0.269361031494303
-0.20260000000000006,-0.2700683871442355
-0.20360000000000006,-0.2709172139241546
-0.20460000000000006,-0.27176604070407356
-0.20560000000000006,-0.2727563386139791
-0.20660000000000006,-0.2736051653938981
-0.20760000000000006,-0.27445399217381716
-0.20860000000000006,-0.2751613478237496
-0.20960000000000006,-0.27615164573365514
-0.21060000000000006,-0.2771419436435607
-0.21160000000000007,-0.2781322415534663
-0.21260000000000007,-0.27883959720339874
-0.21360000000000007,-0.2796884239833177
-0.21460000000000007,-0.2806787218932233
-0.21560000000000007,-0.2816690198031288
-0.21660000000000007,-0.2826593177130343
-0.21760000000000007,-0.28350814449295336
-0.21860000000000007,-0.2843569712728724
-0.21960000000000007,-0.28534726918277786
-0.22060000000000007,-0.28647903822266996
-0.22160000000000007,-0.2874693361325754
-0.22260000000000008,-0.2883181629124945
-0.22360000000000008,-0.28930846082239997
-0.22460000000000008,-0.29029875873230554
-0.22560000000000008,-0.2914305277721975
-0.22660000000000008,-0.29256229681208956
-0.22760000000000008,-0.29355259472199513
-0.22860000000000008,-0.2944014215019141
-0.22960000000000008,-0.2955331905418062
-0.23060000000000008,-0.2966649595816982
-0.23160000000000008,-0.29779672862159023
-0.23260000000000008,-0.29878702653149575
-0.23360000000000009,-0.29977732444140126
-0.2346000000000001,-0.3009090934812933
-0.2356000000000001,-0.3021823336511718
-0.2366000000000001,-0.3033141026910639
-0.2376000000000001,-0.3044458717309559
-0.2386000000000001,-0.30543616964086145
-0.2396000000000001,-0.30656793868075344
-0.2406000000000001,-0.30784117885063195
-0.2416000000000001,-0.3091144190205105
-0.2426000000000001,-0.310104716930416
-0.2436000000000001,-0.31123648597030806
-0.2446000000000001,-0.31236825501020005
-0.2456000000000001,-0.31378296631006514
-0.2466000000000001,-0.3149147353499572
-0.2476000000000001,-0.31604650438984916
-0.2486000000000001,-0.3171782734297412
-0.2496000000000001,-0.3184515135996197
-0.2506000000000001,-0.32000769602947127
-0.2516000000000001,-0.3214224073293363
-0.2526000000000001,-0.32241270523924187
-0.2536000000000001,-0.3236859454091204
-0.2546000000000001,-0.3249591855789989
-0.2556000000000001,-0.326373896878864
-0.2566000000000001,-0.32778860817872896
-0.2576000000000001,-0.328920377218621
-0.2586000000000001,-0.33019361738849956
-0.2596000000000001,-0.3316083286883646
-0.2606000000000001,-0.33302303998822963
-0.2616000000000001,-0.3344377512880947
-0.2626000000000001,-0.33585246258795975
-0.2636000000000001,-0.33712570275783826
-0.2646000000000001,-0.3385404140577033
-0.2656000000000001,-0.34023806761754133
-0.2666000000000001,-0.3416527789174064
-0.2676000000000001,-0.3430674902172714
-0.2686000000000001,-0.34434073038714996
-0.2696000000000001,-0.3458969128170015
-0.2706000000000001,-0.347453095246853
-0.2716000000000001,-0.34900927767670453
-0.2726000000000001,-0.35042398897656957
-0.2736000000000001,-0.35183870027643466
-0.2746000000000001,-0.3535363538362727
-0.2756000000000001,-0.3552340073961107
-0.2766000000000001,-0.3567901898259622
-0.2776000000000001,-0.3583463722558138
-0.2786000000000001,-0.3597610835556788
-0.2796000000000001,-0.3614587371155169
-0.2806000000000001,-0.36315639067535493
-0.28160000000000013,-0.36485404423519296
-0.28260000000000013,-0.36641022666504447
-0.28360000000000013,-0.36796640909489603
-0.2846,-0.36966406265473406
-0.2856,-0.3715031873445586
-0.2866,-0.3732008409043967
-0.2876,-0.37489849446423473
-0.2886,-0.37659614802407276
-0.2896,-0.37829380158391085
-0.2906,-0.38013292627373535
-0.2916,-0.38211352209354643
-0.2926,-0.3838111756533844
-0.2936,-0.3855088292132225
-0.29460000000000003,-0.3874894250330335
-0.29560000000000003,-0.3893285497228581
-0.29660000000000003,-0.3913091455426691
-0.29760000000000003,-0.3930067991025072
-0.29860000000000003,-0.3948459237923317
-0.29960000000000003,-0.39668504848215624
-0.30060000000000003,-0.3988071154319538
-0.30160000000000003,-0.4007877112517649
-0.30260000000000004,-0.4027683070715759
-0.30360000000000004,-0.40460743176140046
-0.30460000000000004,-0.406729498711198
-0.30560000000000004,-0.4088515656609956
-0.30660000000000004,-0.4109736326107932
-0.30760000000000004,-0.41295422843060425
-0.30860000000000004,-0.4149348242504153
-0.30960000000000004,-0.41719836233019936
-0.31060000000000004,-0.4194619004099834
-0.31160000000000004,-0.42158396735978093
-0.31260000000000004,-0.4237060343095785
-0.31360000000000005,-0.42568663012938956
-0.31460000000000005,-0.4279501682091736
-0.31560000000000005,-0.4303551774189442
-0.31660000000000005,-0.43261871549872827
-0.31760000000000005,-0.4348822535785123
-0.31860000000000005,-0.4371457916582963
-0.31960000000000005,-0.43955080086806686
-0.32060000000000005,-0.44195581007783746
-0.32160000000000005,-0.444360819287608
-0.32260000000000005,-0.44662435736739203
-0.32360000000000005,-0.4490293665771626
-0.32460000000000006,-0.4514343757869332
-0.32560000000000006,-0.45398085612669026
-0.32660000000000006,-0.45652733646644733
-0.32760000000000006,-0.4589323456762179
-0.32860000000000006,-0.4613373548859885
-0.32960000000000006,-0.46388383522574556
-0.33060000000000006,-0.4664303155655025
-0.33160000000000006,-0.4691182670352462
-0.33260000000000006,-0.4715232762450167
-0.33360000000000006,-0.4740697565847738
-0.33460000000000006,-0.47675770805451734
-0.33560000000000006,-0.47944565952426094
-0.33660000000000007,-0.48213361099400454
-0.33760000000000007,-0.4846800913337616
-0.33860000000000007,-0.4872265716735187
-0.33960000000000007,-0.4900559942732487
-0.34060000000000007,-0.4927439457429922
-0.34160000000000007,-0.4957148394727089
-0.34260000000000007,-0.49826131981246585
-0.34360000000000007,-0.5009492712822095
-0.3446000000000001,-0.503920165011926
-0.3456000000000001,-0.5067495876116561
-0.3466000000000001,-0.5095790102113862
-0.34759999999999996,-0.5124084328111163
-0.3486000000000001,-0.5150963842808599
-0.34959999999999997,-0.5180672780105765
-0.3506000000000001,-0.521038171740293
-0.35159999999999997,-0.5240090654700096
-0.3526000000000001,-0.5269799591997262
-0.35359999999999997,-0.5298093817994564
-0.3546000000000001,-0.5327802755291728
-0.35559999999999997,-0.535892640388876
-0.3566000000000001,-0.5388635341185926
-0.3576,-0.5419758989782956
-0.3586000000000001,-0.5449467927080122
-0.3596,-0.5479176864377286
-0.3606000000000001,-0.5511715224274183
-0.3616,-0.5542838872871214
-0.3626000000000001,-0.5573962521468245
-0.3636,-0.5603671458765411
-0.3646000000000001,-0.5636209818662306
-0.3656,-0.5668748178559202
-0.3666000000000001,-0.5701286538456097
-0.3676,-0.5732410187053129
-0.3686000000000001,-0.576353383565016
-0.3696,-0.5794657484247191
-0.3706000000000001,-0.582861055544395
-0.3716,-0.5862563626640712
-0.3726000000000001,-0.5893687275237742
-0.3736,-0.5924810923834773
-0.3746000000000001,-0.5958763995031535
-0.3756,-0.5992717066228296
-0.3766000000000001,-0.6026670137425056
-0.3776,-0.6057793786022087
-0.3786000000000001,-0.6090332145918983
-0.3796,-0.6124285217115744
-0.3806000000000001,-0.6158238288312504
-0.3816,-0.6190776648209401
-0.3826000000000001,-0.6223315008106296
-0.3836,-0.6257268079303058
-0.3846000000000001,-0.6291221150499817
-0.3856,-0.6325174221696578
-0.3866000000000001,-0.6360542004193205
-0.3876,-0.6394495075389965
-0.3886000000000001,-0.6427033435286861
-0.3896,-0.6460986506483622
-0.3906000000000001,-0.6496354288980248
-0.3916,-0.6531722071476874
-0.3926000000000001,-0.6565675142673635
-0.3936,-0.659821350257053
-0.3946000000000001,-0.6633581285067156
-0.3956,-0.6668949067563783
-0.3966000000000001,-0.6704316850060409
-0.3976,-0.6739684632557035
-0.3986000000000001,-0.6773637703753796
-0.3996,-0.6809005486250422
-0.4006000000000001,-0.6844373268747048
-0.4016,-0.6879741051243674
-0.4026000000000001,-0.69151088337403
-0.4036,-0.694906190493706
-0.4046000000000001,-0.6984429687433686
-0.4056,-0.7019797469930312
-0.40660000000000013,-0.7055165252426938
-0.4076,-0.7090533034923564
-0.40860000000000013,-0.7124486106120325
-0.4096,-0.715985388861695
-0.41060000000000013,-0.7196636382413442
-0.4116,-0.7232004164910067
-0.41260000000000013,-0.7265957236106829
-0.4136,-0.729991030730359
-0.41460000000000014,-0.7335278089800216
-0.4156,-0.7372060583596707
-0.41660000000000014,-0.7407428366093332
-0.4176,-0.7441381437290092
-0.41860000000000014,-0.7476749219786718
-0.41960000000000003,-0.751070229098348
-0.42060000000000014,-0.7547484784779971
-0.42160000000000003,-0.7584267278576461
-0.42260000000000014,-0.7619635061073088
-0.42360000000000003,-0.7652173420969983
-0.42460000000000014,-0.7687541203466609
-0.42560000000000003,-0.77243236972631
-0.42660000000000015,-0.7759691479759726
-0.42760000000000004,-0.7795059262256352
-0.42860000000000015,-0.7827597622153247
-0.42960000000000004,-0.7865794827249604
-0.43060000000000015,-0.790965087754542
-0.43160000000000004,-0.794643337134191
-0.43260000000000015,-0.7981801153838536
-0.43360000000000004,-0.8015754225035298
-0.43460000000000015,-0.8051122007531923
-0.43560000000000004,-0.8087904501328415
-0.43660000000000015,-0.812327228382504
-0.43760000000000004,-0.8157225355021802
-0.43860000000000016,-0.8189763714918699
-0.43960000000000005,-0.8225131497415324
-0.44060000000000016,-0.826049927991195
-0.44160000000000005,-0.8295867062408576
-0.44260000000000016,-0.8329820133605336
