Mar. 15, 2025   04:37:51
Cyclic Voltammetry
File: c:/users/guazh/data/banditlqround7_x0exp891_r5/2025-03-03-exp899\exp899-2025-03-15t04_29_20-arkoh\exp899_cv_sr_800mvs_efin_-1400mv.bin
Data Source:  Experiment
Instrument Model:  CHI760E
Header: CV ran at 800 mVs
Note: 

Init E (V) = -1
High E (V) = -1
Low E (V) = -1.4
Final E (V) = -1
Init P/N = N
Scan Rate (V/s) = 0.8
Segment = 3
Sample Interval (V) = 0.001
Quiet Time (sec) = 2
Sensitivity (A/V) = 0.01
Comp R (ohm) = 2.0

Results:

Channel 1:
Segment 1:

Segment 2:

Segment 3:

Potential/V, Current/A

-1.000, 4.640e-5
-1.001, 1.389e-4
-1.002, 1.944e-4
-1.003, 2.345e-4
-1.004, 2.622e-4
-1.005, 2.807e-4
-1.006, 2.961e-4
-1.007, 3.054e-4
-1.008, 3.146e-4
-1.009, 3.208e-4
-1.010, 3.239e-4
-1.011, 3.300e-4
-1.012, 3.331e-4
-1.013, 3.362e-4
-1.014, 3.393e-4
-1.015, 3.424e-4
-1.016, 3.424e-4
-1.017, 3.455e-4
-1.018, 3.455e-4
-1.019, 3.424e-4
-1.020, 3.455e-4
-1.021, 3.424e-4
-1.022, 3.424e-4
-1.023, 3.455e-4
-1.024, 3.455e-4
-1.025, 3.455e-4
-1.026, 3.455e-4
-1.027, 3.455e-4
-1.028, 3.485e-4
-1.029, 3.485e-4
-1.030, 3.485e-4
-1.031, 3.485e-4
-1.032, 3.455e-4
-1.033, 3.455e-4
-1.034, 3.455e-4
-1.035, 3.455e-4
-1.036, 3.455e-4
-1.037, 3.455e-4
-1.038, 3.455e-4
-1.039, 3.485e-4
-1.040, 3.485e-4
-1.041, 3.485e-4
-1.042, 3.485e-4
-1.043, 3.485e-4
-1.044, 3.485e-4
-1.045, 3.485e-4
-1.046, 3.485e-4
-1.047, 3.455e-4
-1.048, 3.455e-4
-1.049, 3.455e-4
-1.050, 3.455e-4
-1.051, 3.485e-4
-1.052, 3.485e-4
-1.053, 3.485e-4
-1.054, 3.485e-4
-1.055, 3.516e-4
-1.056, 3.516e-4
-1.057, 3.516e-4
-1.058, 3.516e-4
-1.059, 3.516e-4
-1.060, 3.485e-4
-1.061, 3.485e-4
-1.062, 3.485e-4
-1.063, 3.516e-4
-1.064, 3.516e-4
-1.065, 3.547e-4
-1.066, 3.516e-4
-1.067, 3.547e-4
-1.068, 3.547e-4
-1.069, 3.547e-4
-1.070, 3.578e-4
-1.071, 3.547e-4
-1.072, 3.547e-4
-1.073, 3.578e-4
-1.074, 3.547e-4
-1.075, 3.547e-4
-1.076, 3.578e-4
-1.077, 3.578e-4
-1.078, 3.578e-4
-1.079, 3.609e-4
-1.080, 3.609e-4
-1.081, 3.640e-4
-1.082, 3.640e-4
-1.083, 3.640e-4
-1.084, 3.640e-4
-1.085, 3.640e-4
-1.086, 3.670e-4
-1.087, 3.670e-4
-1.088, 3.640e-4
-1.089, 3.670e-4
-1.090, 3.640e-4
-1.091, 3.670e-4
-1.092, 3.701e-4
-1.093, 3.701e-4
-1.094, 3.732e-4
-1.095, 3.763e-4
-1.096, 3.763e-4
-1.097, 3.763e-4
-1.098, 3.763e-4
-1.099, 3.763e-4
-1.100, 3.763e-4
-1.101, 3.763e-4
-1.102, 3.794e-4
-1.103, 3.794e-4
-1.104, 3.794e-4
-1.105, 3.825e-4
-1.106, 3.825e-4
-1.107, 3.855e-4
-1.108, 3.886e-4
-1.109, 3.886e-4
-1.110, 3.886e-4
-1.111, 3.886e-4
-1.112, 3.917e-4
-1.113, 3.917e-4
-1.114, 3.917e-4
-1.115, 3.917e-4
-1.116, 3.917e-4
-1.117, 3.917e-4
-1.118, 3.948e-4
-1.119, 3.979e-4
-1.120, 3.979e-4
-1.121, 4.010e-4
-1.122, 4.010e-4
-1.123, 4.040e-4
-1.124, 4.040e-4
-1.125, 4.040e-4
-1.126, 4.040e-4
-1.127, 4.071e-4
-1.128, 4.071e-4
-1.129, 4.071e-4
-1.130, 4.071e-4
-1.131, 4.102e-4
-1.132, 4.133e-4
-1.133, 4.133e-4
-1.134, 4.164e-4
-1.135, 4.195e-4
-1.136, 4.195e-4
-1.137, 4.195e-4
-1.138, 4.195e-4
-1.139, 4.225e-4
-1.140, 4.225e-4
-1.141, 4.225e-4
-1.142, 4.225e-4
-1.143, 4.256e-4
-1.144, 4.256e-4
-1.145, 4.287e-4
-1.146, 4.287e-4
-1.147, 4.318e-4
-1.148, 4.349e-4
-1.149, 4.349e-4
-1.150, 4.349e-4
-1.151, 4.380e-4
-1.152, 4.380e-4
-1.153, 4.380e-4
-1.154, 4.410e-4
-1.155, 4.410e-4
-1.156, 4.410e-4
-1.157, 4.410e-4
-1.158, 4.441e-4
-1.159, 4.472e-4
-1.160, 4.503e-4
-1.161, 4.503e-4
-1.162, 4.534e-4
-1.163, 4.534e-4
-1.164, 4.565e-4
-1.165, 4.565e-4
-1.166, 4.565e-4
-1.167, 4.565e-4
-1.168, 4.595e-4
-1.169, 4.595e-4
-1.170, 4.595e-4
-1.171, 4.626e-4
-1.172, 4.657e-4
-1.173, 4.657e-4
-1.174, 4.688e-4
-1.175, 4.719e-4
-1.176, 4.719e-4
-1.177, 4.750e-4
-1.178, 4.750e-4
-1.179, 4.750e-4
-1.180, 4.780e-4
-1.181, 4.780e-4
-1.182, 4.780e-4
-1.183, 4.780e-4
-1.184, 4.811e-4
-1.185, 4.842e-4
-1.186, 4.842e-4
-1.187, 4.873e-4
-1.188, 4.904e-4
-1.189, 4.904e-4
-1.190, 4.935e-4
-1.191, 4.935e-4
-1.192, 4.935e-4
-1.193, 4.935e-4
-1.194, 4.965e-4
-1.195, 4.965e-4
-1.196, 4.996e-4
-1.197, 4.996e-4
-1.198, 5.027e-4
-1.199, 5.027e-4
-1.200, 5.058e-4
-1.201, 5.089e-4
-1.202, 5.120e-4
-1.203, 5.120e-4
-1.204, 5.120e-4
-1.205, 5.120e-4
-1.206, 5.150e-4
-1.207, 5.150e-4
-1.208, 5.150e-4
-1.209, 5.181e-4
-1.210, 5.181e-4
-1.211, 5.212e-4
-1.212, 5.243e-4
-1.213, 5.243e-4
-1.214, 5.274e-4
-1.215, 5.305e-4
-1.216, 5.305e-4
-1.217, 5.335e-4
-1.218, 5.335e-4
-1.219, 5.335e-4
-1.220, 5.335e-4
-1.221, 5.366e-4
-1.222, 5.366e-4
-1.223, 5.366e-4
-1.224, 5.397e-4
-1.225, 5.397e-4
-1.226, 5.428e-4
-1.227, 5.459e-4
-1.228, 5.459e-4
-1.229, 5.520e-4
-1.230, 5.520e-4
-1.231, 5.520e-4
-1.232, 5.520e-4
-1.233, 5.520e-4
-1.234, 5.520e-4
-1.235, 5.520e-4
-1.236, 5.582e-4
-1.237, 5.551e-4
-1.238, 5.613e-4
-1.239, 5.613e-4
-1.240, 5.613e-4
-1.241, 5.674e-4
-1.242, 5.674e-4
-1.243, 5.674e-4
-1.244, 5.705e-4
-1.245, 5.705e-4
-1.246, 5.705e-4
-1.247, 5.705e-4
-1.248, 5.705e-4
-1.249, 5.736e-4
-1.250, 5.705e-4
-1.251, 5.736e-4
-1.252, 5.767e-4
-1.253, 5.798e-4
-1.254, 5.798e-4
-1.255, 5.829e-4
-1.256, 5.829e-4
-1.257, 5.859e-4
-1.258, 5.859e-4
-1.259, 5.859e-4
-1.260, 5.890e-4
-1.261, 5.859e-4
-1.262, 5.890e-4
-1.263, 5.890e-4
-1.264, 5.890e-4
-1.265, 5.921e-4
-1.266, 5.952e-4
-1.267, 5.952e-4
-1.268, 5.983e-4
-1.269, 5.983e-4
-1.270, 6.014e-4
-1.271, 6.014e-4
-1.272, 6.014e-4
-1.273, 6.044e-4
-1.274, 6.044e-4
-1.275, 6.044e-4
-1.276, 6.075e-4
-1.277, 6.075e-4
-1.278, 6.075e-4
-1.279, 6.106e-4
-1.280, 6.168e-4
-1.281, 6.168e-4
-1.282, 6.168e-4
-1.283, 6.199e-4
-1.284, 6.229e-4
-1.285, 6.229e-4
-1.286, 6.229e-4
-1.287, 6.229e-4
-1.288, 6.229e-4
-1.289, 6.260e-4
-1.290, 6.260e-4
-1.291, 6.291e-4
-1.292, 6.322e-4
-1.293, 6.353e-4
-1.294, 6.353e-4
-1.295, 6.414e-4
-1.296, 6.414e-4
-1.297, 6.445e-4
-1.298, 6.445e-4
-1.299, 6.445e-4
-1.300, 6.476e-4
-1.301, 6.507e-4
-1.302, 6.507e-4
-1.303, 6.538e-4
-1.304, 6.569e-4
-1.305, 6.599e-4
-1.306, 6.599e-4
-1.307, 6.661e-4
-1.308, 6.692e-4
-1.309, 6.692e-4
-1.310, 6.754e-4
-1.311, 6.754e-4
-1.312, 6.784e-4
-1.313, 6.815e-4
-1.314, 6.815e-4
-1.315, 6.846e-4
-1.316, 6.877e-4
-1.317, 6.908e-4
-1.318, 6.969e-4
-1.319, 7.000e-4
-1.320, 7.031e-4
-1.321, 7.093e-4
-1.322, 7.124e-4
-1.323, 7.154e-4
-1.324, 7.185e-4
-1.325, 7.216e-4
-1.326, 7.278e-4
-1.327, 7.278e-4
-1.328, 7.339e-4
-1.329, 7.339e-4
-1.330, 7.401e-4
-1.331, 7.463e-4
-1.332, 7.494e-4
-1.333, 7.555e-4
-1.334, 7.617e-4
-1.335, 7.679e-4
-1.336, 7.709e-4
-1.337, 7.771e-4
-1.338, 7.802e-4
-1.339, 7.863e-4
-1.340, 7.925e-4
-1.341, 7.956e-4
-1.342, 8.018e-4
-1.343, 8.079e-4
-1.344, 8.110e-4
-1.345, 8.203e-4
-1.346, 8.264e-4
-1.347, 8.357e-4
-1.348, 8.418e-4
-1.349, 8.480e-4
-1.350, 8.542e-4
-1.351, 8.634e-4
-1.352, 8.696e-4
-1.353, 8.758e-4
-1.354, 8.819e-4
-1.355, 8.881e-4
-1.356, 8.973e-4
-1.357, 9.035e-4
-1.358, 9.128e-4
-1.359, 9.220e-4
-1.360, 9.282e-4
-1.361, 9.405e-4
-1.362, 9.467e-4
-1.363, 9.590e-4
-1.364, 9.683e-4
-1.365, 9.744e-4
-1.366, 9.837e-4
-1.367, 9.960e-4
-1.368, 1.002e-3
-1.369, 1.014e-3
-1.370, 1.027e-3
-1.371, 1.036e-3
-1.372, 1.051e-3
-1.373, 1.061e-3
-1.374, 1.073e-3
-1.375, 1.088e-3
-1.376, 1.098e-3
-1.377, 1.113e-3
-1.378, 1.125e-3
-1.379, 1.138e-3
-1.380, 1.153e-3
-1.381, 1.169e-3
-1.382, 1.184e-3
-1.383, 1.203e-3
-1.384, 1.218e-3
-1.385, 1.233e-3
-1.386, 1.252e-3
-1.387, 1.273e-3
-1.388, 1.295e-3
-1.389, 1.314e-3
-1.390, 1.338e-3
-1.391, 1.360e-3
-1.392, 1.384e-3
-1.393, 1.409e-3
-1.394, 1.437e-3
-1.395, 1.462e-3
-1.396, 1.492e-3
-1.397, 1.523e-3
-1.398, 1.560e-3
-1.399, 1.594e-3
-1.400, 1.551e-3
-1.399, 1.428e-3
-1.398, 1.363e-3
-1.397, 1.320e-3
-1.396, 1.289e-3
-1.395, 1.267e-3
-1.394, 1.252e-3
-1.393, 1.233e-3
-1.392, 1.221e-3
-1.391, 1.209e-3
-1.390, 1.203e-3
-1.389, 1.193e-3
-1.388, 1.190e-3
-1.387, 1.184e-3
-1.386, 1.181e-3
-1.385, 1.178e-3
-1.384, 1.178e-3
-1.383, 1.175e-3
-1.382, 1.175e-3
-1.381, 1.172e-3
-1.380, 1.175e-3
-1.379, 1.178e-3
-1.378, 1.181e-3
-1.377, 1.187e-3
-1.376, 1.190e-3
-1.375, 1.196e-3
-1.374, 1.206e-3
-1.373, 1.212e-3
-1.372, 1.221e-3
-1.371, 1.230e-3
-1.370, 1.240e-3
-1.369, 1.246e-3
-1.368, 1.255e-3
-1.367, 1.261e-3
-1.366, 1.267e-3
-1.365, 1.270e-3
-1.364, 1.273e-3
-1.363, 1.280e-3
-1.362, 1.280e-3
-1.361, 1.283e-3
-1.360, 1.280e-3
-1.359, 1.280e-3
-1.358, 1.273e-3
-1.357, 1.270e-3
-1.356, 1.261e-3
-1.355, 1.252e-3
-1.354, 1.243e-3
-1.353, 1.233e-3
-1.352, 1.221e-3
-1.351, 1.209e-3
-1.350, 1.196e-3
-1.349, 1.184e-3
-1.348, 1.166e-3
-1.347, 1.150e-3
-1.346, 1.135e-3
-1.345, 1.119e-3
-1.344, 1.101e-3
-1.343, 1.082e-3
-1.342, 1.064e-3
-1.341, 1.042e-3
-1.340, 1.021e-3
-1.339, 1.002e-3
-1.338, 9.806e-4
-1.337, 9.590e-4
-1.336, 9.374e-4
-1.335, 9.189e-4
-1.334, 8.973e-4
-1.333, 8.758e-4
-1.332, 8.573e-4
-1.331, 8.326e-4
-1.330, 8.110e-4
-1.329, 7.894e-4
-1.328, 7.679e-4
-1.327, 7.463e-4
-1.326, 7.247e-4
-1.325, 7.031e-4
-1.324, 6.815e-4
-1.323, 6.599e-4
-1.322, 6.384e-4
-1.321, 6.199e-4
-1.320, 6.014e-4
-1.319, 5.798e-4
-1.318, 5.613e-4
-1.317, 5.397e-4
-1.316, 5.181e-4
-1.315, 4.996e-4
-1.314, 4.811e-4
-1.313, 4.595e-4
-1.312, 4.410e-4
-1.311, 4.225e-4
-1.310, 4.040e-4
-1.309, 3.855e-4
-1.308, 3.701e-4
-1.307, 3.516e-4
-1.306, 3.362e-4
-1.305, 3.208e-4
-1.304, 3.023e-4
-1.303, 2.869e-4
-1.302, 2.715e-4
-1.301, 2.561e-4
-1.300, 2.376e-4
-1.299, 2.221e-4
-1.298, 2.067e-4
-1.297, 1.944e-4
-1.296, 1.790e-4
-1.295, 1.666e-4
-1.294, 1.512e-4
-1.293, 1.389e-4
-1.292, 1.266e-4
-1.291, 1.142e-4
-1.290, 1.019e-4
-1.289, 8.957e-5
-1.288, 7.723e-5
-1.287, 6.490e-5
-1.286, 5.257e-5
-1.285, 4.024e-5
-1.284, 2.790e-5
-1.283, 1.865e-5
-1.282, 9.405e-6
-1.281, -2.927e-6
-1.280, -9.093e-6
-1.279, -2.143e-5
-1.278, -3.068e-5
-1.277, -3.684e-5
-1.276, -4.609e-5
-1.275, -5.842e-5
-1.274, -6.767e-5
-1.273, -7.692e-5
-1.272, -8.617e-5
-1.271, -9.234e-5
-1.270, -1.016e-4
-1.269, -1.078e-4
-1.268, -1.139e-4
-1.267, -1.201e-4
-1.266, -1.263e-4
-1.265, -1.355e-4
-1.264, -1.417e-4
-1.263, -1.478e-4
-1.262, -1.540e-4
-1.261, -1.632e-4
-1.260, -1.694e-4
-1.259, -1.756e-4
-1.258, -1.817e-4
-1.257, -1.879e-4
-1.256, -1.910e-4
-1.255, -1.972e-4
-1.254, -2.033e-4
-1.253, -2.064e-4
-1.252, -2.126e-4
-1.251, -2.157e-4
-1.250, -2.218e-4
-1.249, -2.280e-4
-1.248, -2.311e-4
-1.247, -2.372e-4
-1.246, -2.434e-4
-1.245, -2.465e-4
-1.244, -2.527e-4
-1.243, -2.557e-4
-1.242, -2.619e-4
-1.241, -2.619e-4
-1.240, -2.650e-4
-1.239, -2.712e-4
-1.238, -2.742e-4
-1.237, -2.773e-4
-1.236, -2.804e-4
-1.235, -2.866e-4
-1.234, -2.897e-4
-1.233, -2.927e-4
-1.232, -2.989e-4
-1.231, -3.020e-4
-1.230, -3.051e-4
-1.229, -3.082e-4
-1.228, -3.112e-4
-1.227, -3.143e-4
-1.226, -3.143e-4
-1.225, -3.174e-4
-1.224, -3.205e-4
-1.223, -3.236e-4
-1.222, -3.267e-4
-1.221, -3.328e-4
-1.220, -3.359e-4
-1.219, -3.390e-4
-1.218, -3.390e-4
-1.217, -3.421e-4
-1.216, -3.452e-4
-1.215, -3.482e-4
-1.214, -3.482e-4
-1.213, -3.513e-4
-1.212, -3.513e-4
-1.211, -3.544e-4
-1.210, -3.575e-4
-1.209, -3.606e-4
-1.208, -3.637e-4
-1.207, -3.667e-4
-1.206, -3.698e-4
-1.205, -3.729e-4
-1.204, -3.760e-4
-1.203, -3.760e-4
-1.202, -3.791e-4
-1.201, -3.791e-4
-1.200, -3.821e-4
-1.199, -3.821e-4
-1.198, -3.852e-4
-1.197, -3.852e-4
-1.196, -3.883e-4
-1.195, -3.914e-4
-1.194, -3.945e-4
-1.193, -3.976e-4
-1.192, -3.976e-4
-1.191, -4.006e-4
-1.190, -4.037e-4
-1.189, -4.037e-4
-1.188, -4.068e-4
-1.187, -4.068e-4
-1.186, -4.068e-4
-1.185, -4.099e-4
-1.184, -4.099e-4
-1.183, -4.099e-4
-1.182, -4.130e-4
-1.181, -4.161e-4
-1.180, -4.191e-4
-1.179, -4.222e-4
-1.178, -4.222e-4
-1.177, -4.253e-4
-1.176, -4.253e-4
-1.175, -4.284e-4
-1.174, -4.284e-4
-1.173, -4.284e-4
-1.172, -4.315e-4
-1.171, -4.315e-4
-1.170, -4.315e-4
-1.169, -4.346e-4
-1.168, -4.346e-4
-1.167, -4.376e-4
-1.166, -4.407e-4
-1.165, -4.407e-4
-1.164, -4.438e-4
-1.163, -4.438e-4
-1.162, -4.438e-4
-1.161, -4.469e-4
-1.160, -4.469e-4
-1.159, -4.469e-4
-1.158, -4.469e-4
-1.157, -4.469e-4
-1.156, -4.500e-4
-1.155, -4.531e-4
-1.154, -4.531e-4
-1.153, -4.561e-4
-1.152, -4.561e-4
-1.151, -4.592e-4
-1.150, -4.592e-4
-1.149, -4.592e-4
-1.148, -4.623e-4
-1.147, -4.592e-4
-1.146, -4.592e-4
-1.145, -4.592e-4
-1.144, -4.592e-4
-1.143, -4.623e-4
-1.142, -4.623e-4
-1.141, -4.623e-4
-1.140, -4.654e-4
-1.139, -4.654e-4
-1.138, -4.685e-4
-1.137, -4.685e-4
-1.136, -4.685e-4
-1.135, -4.685e-4
-1.134, -4.654e-4
-1.133, -4.685e-4
-1.132, -4.685e-4
-1.131, -4.685e-4
-1.130, -4.685e-4
-1.129, -4.685e-4
-1.128, -4.716e-4
-1.127, -4.716e-4
-1.126, -4.716e-4
-1.125, -4.746e-4
-1.124, -4.746e-4
-1.123, -4.746e-4
-1.122, -4.746e-4
-1.121, -4.746e-4
-1.120, -4.746e-4
-1.119, -4.716e-4
-1.118, -4.716e-4
-1.117, -4.716e-4
-1.116, -4.716e-4
-1.115, -4.746e-4
-1.114, -4.746e-4
-1.113, -4.746e-4
-1.112, -4.746e-4
-1.111, -4.746e-4
-1.110, -4.746e-4
-1.109, -4.746e-4
-1.108, -4.746e-4
-1.107, -4.716e-4
-1.106, -4.716e-4
-1.105, -4.716e-4
-1.104, -4.716e-4
-1.103, -4.716e-4
-1.102, -4.716e-4
-1.101, -4.716e-4
-1.100, -4.746e-4
-1.099, -4.746e-4
-1.098, -4.716e-4
-1.097, -4.746e-4
-1.096, -4.746e-4
-1.095, -4.716e-4
-1.094, -4.716e-4
-1.093, -4.685e-4
-1.092, -4.685e-4
-1.091, -4.685e-4
-1.090, -4.654e-4
-1.089, -4.685e-4
-1.088, -4.685e-4
-1.087, -4.685e-4
-1.086, -4.685e-4
-1.085, -4.685e-4
-1.084, -4.685e-4
-1.083, -4.685e-4
-1.082, -4.685e-4
-1.081, -4.685e-4
-1.080, -4.654e-4
-1.079, -4.654e-4
-1.078, -4.654e-4
-1.077, -4.623e-4
-1.076, -4.623e-4
-1.075, -4.623e-4
-1.074, -4.654e-4
-1.073, -4.654e-4
-1.072, -4.654e-4
-1.071, -4.654e-4
-1.070, -4.654e-4
-1.069, -4.623e-4
-1.068, -4.654e-4
-1.067, -4.623e-4
-1.066, -4.623e-4
-1.065, -4.623e-4
-1.064, -4.592e-4
-1.063, -4.592e-4
-1.062, -4.592e-4
-1.061, -4.623e-4
-1.060, -4.623e-4
-1.059, -4.623e-4
-1.058, -4.623e-4
-1.057, -4.623e-4
-1.056, -4.623e-4
-1.055, -4.623e-4
-1.054, -4.623e-4
-1.053, -4.592e-4
-1.052, -4.592e-4
-1.051, -4.623e-4
-1.050, -4.592e-4
-1.049, -4.623e-4
-1.048, -4.623e-4
-1.047, -4.654e-4
-1.046, -4.654e-4
-1.045, -4.654e-4
-1.044, -4.654e-4
-1.043, -4.654e-4
-1.042, -4.654e-4
-1.041, -4.685e-4
-1.040, -4.654e-4
-1.039, -4.654e-4
-1.038, -4.654e-4
-1.037, -4.654e-4
-1.036, -4.654e-4
-1.035, -4.685e-4
-1.034, -4.685e-4
-1.033, -4.716e-4
-1.032, -4.716e-4
-1.031, -4.716e-4
-1.030, -4.746e-4
-1.029, -4.746e-4
-1.028, -4.746e-4
-1.027, -4.746e-4
-1.026, -4.746e-4
-1.025, -4.746e-4
-1.024, -4.746e-4
-1.023, -4.777e-4
-1.022, -4.777e-4
-1.021, -4.808e-4
-1.020, -4.808e-4
-1.019, -4.839e-4
-1.018, -4.870e-4
-1.017, -4.870e-4
-1.016, -4.870e-4
-1.015, -4.901e-4
-1.014, -4.870e-4
-1.013, -4.901e-4
-1.012, -4.901e-4
-1.011, -4.901e-4
-1.010, -4.931e-4
-1.009, -4.962e-4
-1.008, -4.962e-4
-1.007, -4.993e-4
-1.006, -4.993e-4
-1.005, -5.055e-4
-1.004, -5.055e-4
-1.003, -5.055e-4
-1.002, -5.086e-4
-1.001, -5.086e-4
