Potential V vs RHE, Current mA cm-2
0.013299999999999867,-0.30755823659065895
0.012299999999999978,-0.9181476336124089
0.011299999999999866,-1.1798692240874404
0.010299999999999976,-1.3543031273607997
0.009299999999999864,-1.4415908145624723
0.008299999999999974,-1.5717442541500557
0.007299999999999862,-1.6156003044458718
0.006299999999999972,-1.7033124050375041
0.00529999999999986,-1.7910245056291363
0.0042999999999999705,-1.8773218949209036
0.0032999999999998586,-1.92117794521672
0.0022999999999999687,-1.9650339955125358
0.0012999999999998568,-2.052746096104168
0.00029999999999996696,-2.095187435100119
-0.000700000000000145,-2.1390434853959355
-0.0017000000000000348,-2.1828995356917518
-0.0027000000000001467,-2.2706116362833835
-0.0037000000000000366,-2.3144676865791998
-0.0047000000000001485,-2.3569090255751513
-0.005700000000000038,-2.4007650758709675
-0.00670000000000015,-2.4446211261667834
-0.00770000000000004,-2.4884771764625997
-0.008700000000000152,-2.532333226758415
-0.009700000000000042,-2.618630616050183
-0.010700000000000154,-2.662486666345999
-0.011700000000000044,-2.706342716641815
-0.012700000000000156,-2.7501987669376318
-0.013700000000000045,-2.794054817233447
-0.014700000000000157,-2.8379108675292635
-0.015700000000000047,-2.8803522065252145
-0.01670000000000016,-2.924208256821031
-0.01770000000000005,-2.968064307116847
-0.01870000000000016,-3.055776407708479
-0.01970000000000005,-3.0996324580042955
-0.020700000000000163,-3.1420737970002466
-0.021700000000000053,-3.1859298472960624
-0.022700000000000164,-3.273641947887695
-0.023700000000000054,-3.273641947887695
-0.024700000000000166,-3.361354048479327
-0.025700000000000056,-3.447651437771094
-0.026700000000000168,-3.4915074880669104
-0.027700000000000058,-3.579219588658543
-0.02870000000000017,-3.6655169779503103
-0.02970000000000006,-3.7093730282461257
-0.03070000000000017,-3.7970851288377587
-0.03170000000000006,-3.840941179133574
-0.03270000000000017,-3.971094618721158
-0.03370000000000006,-4.0588067193127895
-0.034700000000000175,-4.146518819904423
-0.035700000000000065,-4.23281620919619
-0.03670000000000018,-4.3205283097878215
-0.03770000000000007,-4.450681749375406
-0.03870000000000018,-4.538393849967037
-0.03970000000000007,-4.626105950558669
-0.04070000000000018,-4.756259390146253
-0.04170000000000007,-4.887827541033701
-0.04270000000000018,-4.974124930325469
-0.04370000000000007,-5.149549131508733
-0.044700000000000184,-5.235846520800501
-0.045700000000000074,-5.367414671687949
-0.046700000000000186,-5.497568111275533
-0.047700000000000076,-5.629136262162981
-0.04870000000000019,-5.759289701750564
-0.04970000000000008,-5.890857852638012
-0.05070000000000019,-6.021011292225596
-0.05170000000000008,-6.152579443113044
-0.05270000000000019,-6.326588932996443
-0.05370000000000008,-6.458157083883892
-0.05470000000000019,-6.588310523471475
-0.05570000000000008,-6.719878674358924
-0.056700000000000195,-6.893888164242324
-0.057700000000000085,-7.024041603829907
-0.058700000000000196,-7.111753704421539
-0.059700000000000086,-7.243321855308987
-0.0607000000000002,-7.329619244600755
-0.06170000000000009,-7.461187395488204
-0.0627000000000002,-7.591340835075788
-0.06370000000000009,-7.679052935667419
-0.0647000000000002,-7.809206375255003
-0.06570000000000009,-7.853062425550818
-0.0667000000000002,-7.984630576438266
-0.0677000000000001,-8.070927965730034
-0.0687000000000002,-8.11478401602585
-0.0697000000000001,-8.202496116617484
-0.07070000000000021,-8.288793505909249
-0.0717000000000001,-8.332649556205066
-0.07270000000000021,-8.4203616567967
-0.0737000000000001,-8.464217707092514
-0.07470000000000021,-8.508073757388331
-0.0757000000000001,-8.55051509638428
-0.07670000000000021,-8.594371146680096
-0.0777000000000001,-8.594371146680096
-0.07870000000000021,-8.638227196975913
-0.0797000000000001,-8.68208324727173
-0.08070000000000022,-8.725939297567548
-0.0817000000000001,-8.769795347863363
-0.08270000000000022,-8.769795347863363
-0.08370000000000011,-8.769795347863363
-0.08470000000000022,-8.769795347863363
-0.08570000000000011,-8.812236686859313
-0.08670000000000022,-8.85609273715513
-0.08770000000000011,-8.85609273715513
-0.08870000000000022,-8.85609273715513
-0.08970000000000011,-8.85609273715513
-0.09070000000000022,-8.85609273715513
-0.09170000000000011,-8.85609273715513
-0.09270000000000023,-8.899948787450944
-0.09370000000000012,-8.899948787450944
-0.09470000000000023,-8.899948787450944
-0.09570000000000012,-8.899948787450944
-0.09670000000000023,-8.899948787450944
-0.09770000000000012,-8.899948787450944
-0.09870000000000023,-8.899948787450944
-0.09970000000000012,-8.899948787450944
-0.10070000000000023,-8.899948787450944
-0.10170000000000012,-8.943804837746763
-0.10270000000000024,-8.899948787450944
-0.10370000000000013,-8.943804837746763
-0.10470000000000024,-8.899948787450944
-0.10570000000000013,-8.899948787450944
-0.10670000000000024,-8.899948787450944
-0.10770000000000013,-8.899948787450944
-0.10870000000000024,-8.899948787450944
-0.10970000000000013,-8.899948787450944
-0.11070000000000024,-8.899948787450944
-0.11170000000000013,-8.899948787450944
-0.11270000000000002,-8.899948787450944
-0.11370000000000013,-8.899948787450944
-0.11470000000000002,-8.899948787450944
-0.11570000000000014,-8.899948787450944
-0.11670000000000003,-8.899948787450944
-0.11770000000000014,-8.899948787450944
-0.11870000000000003,-8.899948787450944
-0.11970000000000014,-8.899948787450944
-0.12070000000000003,-8.899948787450944
-0.12170000000000014,-8.899948787450944
-0.12270000000000003,-8.899948787450944
-0.12370000000000014,-8.899948787450944
-0.12470000000000003,-8.899948787450944
-0.12570000000000014,-8.899948787450944
-0.12670000000000003,-8.899948787450944
-0.12770000000000015,-8.899948787450944
-0.12870000000000004,-8.899948787450944
-0.12970000000000015,-8.899948787450944
-0.13070000000000004,-8.899948787450944
-0.13170000000000015,-8.899948787450944
-0.13270000000000004,-8.899948787450944
-0.13370000000000015,-8.899948787450944
-0.13470000000000004,-8.899948787450944
-0.13570000000000015,-8.899948787450944
-0.13670000000000004,-8.899948787450944
-0.13770000000000016,-8.899948787450944
-0.13870000000000005,-8.899948787450944
-0.13970000000000016,-8.899948787450944
-0.14070000000000005,-8.899948787450944
-0.14170000000000016,-8.899948787450944
-0.14270000000000005,-8.899948787450944
-0.14370000000000016,-8.899948787450944
-0.14470000000000005,-8.899948787450944
-0.14570000000000016,-8.899948787450944
-0.14670000000000005,-8.85609273715513
-0.14770000000000016,-8.899948787450944
-0.14870000000000005,-8.899948787450944
-0.14970000000000017,-8.899948787450944
-0.15070000000000006,-8.899948787450944
-0.15170000000000017,-8.85609273715513
-0.15270000000000006,-8.899948787450944
-0.15370000000000017,-8.899948787450944
-0.15470000000000006,-8.85609273715513
-0.15570000000000017,-8.85609273715513
-0.15670000000000006,-8.899948787450944
-0.15770000000000017,-8.899948787450944
-0.15870000000000006,-8.85609273715513
-0.15970000000000018,-8.899948787450944
-0.16070000000000007,-8.899948787450944
-0.16170000000000018,-8.899948787450944
-0.16270000000000007,-8.899948787450944
-0.16370000000000018,-8.899948787450944
-0.16470000000000007,-8.899948787450944
-0.16570000000000018,-8.899948787450944
-0.16670000000000007,-8.899948787450944
-0.16770000000000018,-8.899948787450944
-0.16870000000000007,-8.899948787450944
-0.16970000000000018,-8.899948787450944
-0.17070000000000007,-8.899948787450944
-0.17170000000000019,-8.943804837746763
-0.17270000000000008,-8.899948787450944
-0.1737000000000002,-8.899948787450944
-0.17470000000000008,-8.943804837746763
-0.1757000000000002,-8.943804837746763
-0.17670000000000008,-8.943804837746763
-0.1777000000000002,-8.987660888042578
-0.17870000000000008,-8.943804837746763
-0.1797000000000002,-8.943804837746763
-0.18070000000000008,-8.943804837746763
-0.1817000000000002,-8.943804837746763
-0.18270000000000008,-8.943804837746763
-0.1837000000000002,-8.943804837746763
-0.1847000000000001,-8.943804837746763
-0.1857000000000002,-8.987660888042578
-0.1867000000000001,-8.987660888042578
-0.1877000000000002,-8.987660888042578
-0.1887000000000001,-9.031516938338395
-0.1897000000000002,-8.987660888042578
-0.1907000000000001,-9.031516938338395
-0.1917000000000001,-9.031516938338395
-0.19269999999999998,-9.031516938338395
-0.1937000000000001,-9.031516938338395
-0.19469999999999998,-9.031516938338395
-0.1957000000000001,-9.031516938338395
-0.19669999999999999,-9.031516938338395
-0.1977000000000001,-9.031516938338395
-0.1987,-9.073958277334345
-0.1997000000000001,-9.031516938338395
-0.2007,-9.073958277334345
-0.2017000000000001,-9.073958277334345
-0.2027,-9.073958277334345
-0.2037000000000001,-9.11781432763016
-0.2047,-9.073958277334345
-0.2057000000000001,-9.11781432763016
-0.2067,-9.11781432763016
-0.2077000000000001,-9.11781432763016
-0.2087,-9.161670377925978
-0.2097000000000001,-9.161670377925978
-0.2107,-9.161670377925978
-0.2117000000000001,-9.161670377925978
-0.2127,-9.205526428221793
-0.2137000000000001,-9.205526428221793
-0.2147,-9.205526428221793
-0.2157000000000001,-9.24938247851761
-0.2167,-9.293238528813426
-0.21770000000000012,-9.293238528813426
-0.2187,-9.293238528813426
-0.21970000000000012,-9.293238528813426
-0.2207,-9.335679867809377
-0.22170000000000012,-9.335679867809377
-0.2227,-9.335679867809377
-0.22370000000000012,-9.379535918105192
-0.2247,-9.379535918105192
-0.22570000000000012,-9.423391968401008
-0.2267,-9.423391968401008
-0.22770000000000012,-9.423391968401008
-0.22870000000000001,-9.467248018696827
-0.22970000000000013,-9.467248018696827
-0.23070000000000002,-9.511104068992642
-0.23170000000000013,-9.511104068992642
-0.23270000000000002,-9.55496011928846
-0.23370000000000013,-9.55496011928846
-0.23470000000000002,-9.59740145828441
-0.23570000000000013,-9.59740145828441
-0.23670000000000002,-9.641257508580225
-0.2376999999999999,-9.641257508580225
-0.23870000000000002,-9.685113558876042
-0.2396999999999999,-9.685113558876042
-0.24070000000000003,-9.728969609171857
-0.24169999999999991,-9.772825659467674
-0.24270000000000003,-9.772825659467674
-0.24369999999999992,-9.772825659467674
-0.24470000000000003,-9.81668170976349
-0.24569999999999992,-9.81668170976349
-0.24670000000000003,-9.902979099055257
-0.24769999999999992,-9.902979099055257
-0.24870000000000003,-9.946835149351072
-0.24969999999999992,-9.946835149351072
-0.25070000000000003,-9.99069119964689
-0.2516999999999999,-10.034547249942705
-0.25270000000000004,-10.078403300238522
-0.2536999999999999,-10.120844639234473
-0.25470000000000004,-10.120844639234473
-0.2556999999999999,-10.164700689530287
-0.25670000000000004,-10.164700689530287
-0.25769999999999993,-10.208556739826104
-0.25870000000000004,-10.25241279012192
-0.25969999999999993,-10.296268840417738
-0.26070000000000004,-10.340124890713554
-0.26169999999999993,-10.382566229709504
-0.26270000000000004,-10.382566229709504
-0.26369999999999993,-10.42642228000532
-0.26470000000000005,-10.470278330301136
-0.26569999999999994,-10.514134380596953
-0.26670000000000005,-10.601846481188586
-0.26769999999999994,-10.644287820184536
-0.26870000000000005,-10.688143870480351
-0.26969999999999994,-10.731999920776168
-0.27070000000000005,-10.775855971071984
-0.27169999999999994,-10.819712021367803
-0.27270000000000005,-10.863568071663616
-0.27369999999999994,-10.906009410659568
-0.27470000000000006,-10.949865460955383
-0.27569999999999995,-10.993721511251199
-0.27670000000000006,-11.081433611842833
-0.27769999999999995,-11.123874950838783
-0.27870000000000006,-11.1677310011346
-0.27969999999999995,-11.211587051430415
-0.28070000000000006,-11.255443101726232
-0.28169999999999995,-11.343155202317865
-0.28270000000000006,-11.385596541313816
-0.28369999999999995,-11.42945259160963
-0.28470000000000006,-11.517164692201263
-0.28569999999999995,-11.56102074249708
-0.28670000000000007,-11.604876792792895
-0.28769999999999996,-11.691174182084664
-0.28870000000000007,-11.73503023238048
-0.28969999999999996,-11.82274233297211
-0.29070000000000007,-11.86659838326793
-0.29169999999999996,-11.952895772559694
-0.29270000000000007,-11.996751822855511
-0.29369999999999996,-12.084463923447142
-0.2947000000000001,-12.170761312738911
-0.29569999999999996,-12.214617363034726
-0.2967000000000001,-12.302329463626359
-0.29769999999999996,-12.390041564217992
-0.2987000000000001,-12.432482903213943
-0.29969999999999997,-12.476338953509758
-0.3007000000000001,-12.56405105410139
-0.30169999999999997,-12.651763154693022
-0.3027000000000001,-12.694204493688973
-0.30369999999999997,-12.781916594280606
-0.3047000000000001,-12.869628694872238
-0.30569999999999997,-12.955926084164007
-0.3067000000000001,-13.043638184755638
-0.3077,-13.13135028534727
-0.3087000000000001,-13.217647674639037
-0.3097,-13.30535977523067
-0.3107000000000001,-13.3930718758223
-0.3117,-13.47936926511407
-0.3127000000000001,-13.567081365705702
-0.3137,-13.698649516593148
-0.3147000000000001,-13.784946905884919
-0.3157,-13.916515056772363
-0.3167000000000001,-14.002812446064135
-0.3177,-14.090524546655764
-0.3187000000000001,-14.217848563643619
-0.3197,-14.30273124163552
-0.3207000000000001,-14.444202371622024
-0.3217,-14.529085049613924
-0.3227000000000001,-14.65640906660178
-0.3237,-14.741291744593681
-0.3247000000000001,-14.868615761581536
-0.3257,-14.967645552572087
-0.3267000000000001,-15.137410908555893
-0.3277,-15.222293586547794
-0.3287000000000001,-15.349617603535648
-0.3297,-15.491088733522153
-0.3307000000000001,-15.618412750510005
-0.3317,-15.70329542850191
-0.3327000000000001,-15.830619445489761
-0.3337,-16.014531914472215
-0.3347000000000001,-16.141855931460068
-0.3357,-16.22673860945197
-0.3367000000000001,-16.396503965435777
-0.3377,-16.53797509542228
-0.3387000000000001,-16.665299112410132
-0.3397,-16.835064468393938
-0.3407000000000001,-16.962388485381787
-0.3417,-17.103859615368293
-0.3427000000000001,-17.2736249713521
-0.3437,-17.40094898833995
-0.3447000000000001,-17.542420118326454
-0.3457,-17.71218547431026
-0.3467000000000001,-17.839509491298113
-0.3477,-18.009274847281915
-0.3487000000000001,-18.15074597726842
-0.3497,-18.320511333252224
-0.3507000000000001,-18.49027668923603
-0.3517,-18.674189158218486
-0.3527000000000001,-18.80151317520634
-0.3537,-18.97127853119014
-0.3547000000000001,-19.197632339168546
-0.3557,-19.367397695152352
-0.35670000000000013,-19.537163051136158
-0.3577,-19.721075520118614
-0.35870000000000013,-19.890840876102416
-0.3597,-20.10304757108217
-0.36070000000000013,-20.286960040064624
-0.3617,-20.456725396048434
-0.3626999999999999,-20.626490752032236
-0.3637,-20.85284456001064
-0.3646999999999999,-21.065051254990397
-0.3657,-21.248963723972853
-0.3666999999999999,-21.461170418952605
-0.3677,-21.63093577493641
-0.3686999999999999,-21.899730921910766
-0.36970000000000003,-22.111937616890522
-0.3706999999999999,-22.33829142486893
-0.37170000000000003,-22.550498119848687
-0.3726999999999999,-22.776851927827092
-0.37370000000000003,-22.989058622806844
-0.3746999999999999,-23.2012653177866
-0.37570000000000003,-23.427619125765005
-0.3766999999999999,-23.639825820744765
-0.37770000000000004,-23.86617962872317
-0.3786999999999999,-24.078386323702922
-0.37970000000000004,-24.34718147067728
-0.3806999999999999,-24.559388165657033
-0.38170000000000004,-24.814036199632742
-0.38269999999999993,-25.0828313466071
-0.38370000000000004,-25.295038041586857
-0.38469999999999993,-25.563833188561212
-0.38570000000000004,-25.77603988354097
-0.38669999999999993,-26.044835030515326
-0.38770000000000004,-26.29948306449103
-0.38869999999999993,-26.568278211465387
-0.38970000000000005,-26.822926245441096
-0.39069999999999994,-27.049280053419505
-0.39170000000000005,-27.303928087395207
-0.39269999999999994,-27.572723234369565
-0.39370000000000005,-27.827371268345274
-0.39469999999999994,-28.05372507632368
-0.39570000000000005,-28.350814449295335
-0.39669999999999994,-28.619609596269694
-0.39770000000000005,-28.8742576302454
-0.39869999999999994,-29.14305277721976
-0.39970000000000006,-29.39770081119546
-0.40069999999999995,-29.708937297165768
-0.40170000000000006,-29.96358533114148
-0.40269999999999995,-30.232380478115836
-0.40370000000000006,-30.529469851087494
-0.40469999999999995,-30.79826499806185
-0.40570000000000006,-31.095354371033505
-0.40669999999999995,-31.36414951800786
-0.40770000000000006,-31.661238890979522
-0.40869999999999995,-31.972475376949827
-0.40970000000000006,-32.283711862920136
-0.41069999999999995,-32.53835989689585
-0.41170000000000007,-32.892037721862096
-0.41269999999999996,-33.18912709483376
-0.41370000000000007,-33.50036358080407
-0.41469999999999996,-33.85404140577033
-0.41570000000000007,-34.15113077874198
-0.41669999999999996,-34.50480860370825
-0.41770000000000007,-34.85848642867451
-0.41869999999999996,-35.15557580164616
-0.4197000000000001,-35.46681228761647
-0.42069999999999996,-35.806342999584075
-0.4217000000000001,-36.11757948555439
-0.42269999999999996,-36.47125731052064
-0.4237000000000001,-36.768346683492304
-0.42469999999999997,-37.122024508458566
-0.4257000000000001,-37.47570233342482
-0.42669999999999997,-37.77279170639648
-0.4277000000000001,-38.16891087035869
-0.42869999999999997,-38.46600024333035
-0.4297000000000001,-38.81967806829661
-0.43069999999999997,-39.173355893262865
-0.4317000000000001,-39.51288660523048
-0.4327,-39.86656443019674
-0.4337000000000001,-40.220242255162994
-0.4347,-40.559772967130606
-0.4357000000000001,-40.91345079209687
-0.4367,-41.267128617063115
-0.4377000000000001,-41.66324778102533
-0.4387,-42.00277849299294
-0.4397000000000001,-42.3564563179592
-0.4407,-42.71013414292546
-0.4417000000000001,-43.09210619388902
-0.4427,-43.44578401885527
-0.4437000000000001,-43.84190318281749
-0.4447,-44.181433894785094
-0.4457000000000001,-44.577553058747306
-0.4467,-44.97367222270952
-0.4477000000000001,-45.36979138667173
-0.4487,-45.70932209863933
-0.4497000000000001,-46.10544126260155
-0.4507,-46.45911908756781
-0.4517000000000001,-46.84109113853137
-0.4527,-47.23721030249357
-0.4537000000000001,-47.633329466455784
-0.4547,-47.987007291422046
-0.4557000000000001,-48.36897934238561
-0.4567,-48.80753984534376
-0.4577000000000001,-49.20365900930597
-0.4587,-49.59977817326819
-0.4597000000000001,-50.024191563227696
-0.4607,-50.42031072718991
-0.4617000000000001,-50.81642989115212
-0.4627,-51.25499039411028
-0.4637000000000001,-51.69355089706845
-0.4647,-52.075522948032
-0.4657000000000001,-52.514083450990164
-0.4667,-52.95264395394832
-0.4677000000000001,-53.39120445690648
-0.4687,-53.7873236208687
-0.4697000000000001,-54.2117370108282
-0.4707,-54.65029751378637
-0.4717000000000001,-55.13129935574048
-0.4727,-55.527418519702685
-0.4737000000000001,-55.96597902266086
-0.4747,-56.404539525619015
-0.4757000000000001,-56.88554136757313
-0.4767,-57.30995475753264
-0.4777000000000001,-57.7485152604908
-0.4787,-58.18707576344896
-0.4797000000000001,-58.62563626640712
-0.4807,-59.06419676936528
-0.48170000000000013,-59.502757272323436
-0.4827,-59.92717066228296
-0.48370000000000013,-60.36573116524111
-0.4847,-60.80429166819927
-0.48570000000000013,-61.28529351015339
-0.4867,-61.6814126741156
-0.4876999999999999,-62.16241451606972
-0.4887,-62.544386567033264
-0.4896999999999999,-63.02538840898739
-0.4907,-63.46394891194555
-0.4916999999999999,-63.902509414903705
-0.4927,-64.34106991786187
-0.4936999999999999,-64.77963042082003
-0.49470000000000003,-65.20404381077954
-0.4956999999999999,-65.64260431373769
-0.49670000000000003,-66.08116481669586
-0.4976999999999999,-66.51972531965401
-0.49870000000000003,-66.91584448361623
-0.4996999999999999,-67.39684632557035
-0.5007,-67.82125971552985
-0.5016999999999999,-68.25982021848802
-0.5027,-68.69838072144618
-0.5036999999999999,-69.13694122440434
-0.5047,-69.61794306635846
-0.5056999999999999,-70.01406223032066
-0.5067,-70.48091695927613
-0.5076999999999999,-70.91947746223428
-0.5087,-71.4004793041884
-0.5096999999999999,-71.7965984681506
-0.5107,-72.27760031010472
