Aug. 16, 2024   23:35:15
Cyclic Voltammetry
File: c:/users/guazh/data/20240813_batch_94_500/2024-08-15-exp108\exp108-2024-08-16t23_19_21-h2koh\exp108_cv_sr_800mvs_efin_-1600mv.bin
Data Source:  Experiment
Instrument Model:  CHI760E
Header: CV ran at 800 mVs
Note: 

Init E (V) = -1
High E (V) = -1
Low E (V) = -1.6
Final E (V) = -1
Init P/N = N
Scan Rate (V/s) = 0.8
Segment = 3
Sample Interval (V) = 0.001
Quiet Time (sec) = 2
Sensitivity (A/V) = 0.01
Comp R (ohm) = 1.6

Results:

Channel 1:
Segment 1:

Segment 2:

Segment 3:

Potential/V, Current/A

-1.000, 2.174e-5
-1.001, 5.873e-5
-1.002, 7.415e-5
-1.003, 8.340e-5
-1.004, 9.265e-5
-1.005, 9.882e-5
-1.006, 1.050e-4
-1.007, 1.111e-4
-1.008, 1.142e-4
-1.009, 1.173e-4
-1.010, 1.235e-4
-1.011, 1.266e-4
-1.012, 1.296e-4
-1.013, 1.327e-4
-1.014, 1.389e-4
-1.015, 1.420e-4
-1.016, 1.451e-4
-1.017, 1.481e-4
-1.018, 1.512e-4
-1.019, 1.543e-4
-1.020, 1.574e-4
-1.021, 1.605e-4
-1.022, 1.666e-4
-1.023, 1.666e-4
-1.024, 1.728e-4
-1.025, 1.759e-4
-1.026, 1.790e-4
-1.027, 1.821e-4
-1.028, 1.882e-4
-1.029, 1.882e-4
-1.030, 1.944e-4
-1.031, 1.975e-4
-1.032, 2.006e-4
-1.033, 2.006e-4
-1.034, 2.067e-4
-1.035, 2.098e-4
-1.036, 2.160e-4
-1.037, 2.160e-4
-1.038, 2.221e-4
-1.039, 2.252e-4
-1.040, 2.314e-4
-1.041, 2.376e-4
-1.042, 2.406e-4
-1.043, 2.468e-4
-1.044, 2.499e-4
-1.045, 2.561e-4
-1.046, 2.591e-4
-1.047, 2.684e-4
-1.048, 2.715e-4
-1.049, 2.776e-4
-1.050, 2.869e-4
-1.051, 2.931e-4
-1.052, 3.023e-4
-1.053, 3.085e-4
-1.054, 3.146e-4
-1.055, 3.239e-4
-1.056, 3.331e-4
-1.057, 3.393e-4
-1.058, 3.485e-4
-1.059, 3.547e-4
-1.060, 3.640e-4
-1.061, 3.701e-4
-1.062, 3.825e-4
-1.063, 3.886e-4
-1.064, 4.010e-4
-1.065, 4.071e-4
-1.066, 4.164e-4
-1.067, 4.256e-4
-1.068, 4.349e-4
-1.069, 4.441e-4
-1.070, 4.503e-4
-1.071, 4.595e-4
-1.072, 4.657e-4
-1.073, 4.750e-4
-1.074, 4.811e-4
-1.075, 4.904e-4
-1.076, 4.996e-4
-1.077, 5.027e-4
-1.078, 5.089e-4
-1.079, 5.150e-4
-1.080, 5.212e-4
-1.081, 5.274e-4
-1.082, 5.305e-4
-1.083, 5.335e-4
-1.084, 5.366e-4
-1.085, 5.428e-4
-1.086, 5.459e-4
-1.087, 5.459e-4
-1.088, 5.489e-4
-1.089, 5.520e-4
-1.090, 5.551e-4
-1.091, 5.551e-4
-1.092, 5.582e-4
-1.093, 5.613e-4
-1.094, 5.613e-4
-1.095, 5.644e-4
-1.096, 5.644e-4
-1.097, 5.674e-4
-1.098, 5.674e-4
-1.099, 5.674e-4
-1.100, 5.674e-4
-1.101, 5.705e-4
-1.102, 5.705e-4
-1.103, 5.705e-4
-1.104, 5.705e-4
-1.105, 5.705e-4
-1.106, 5.705e-4
-1.107, 5.736e-4
-1.108, 5.705e-4
-1.109, 5.705e-4
-1.110, 5.705e-4
-1.111, 5.736e-4
-1.112, 5.705e-4
-1.113, 5.705e-4
-1.114, 5.736e-4
-1.115, 5.705e-4
-1.116, 5.736e-4
-1.117, 5.705e-4
-1.118, 5.705e-4
-1.119, 5.736e-4
-1.120, 5.705e-4
-1.121, 5.705e-4
-1.122, 5.705e-4
-1.123, 5.705e-4
-1.124, 5.705e-4
-1.125, 5.705e-4
-1.126, 5.705e-4
-1.127, 5.705e-4
-1.128, 5.705e-4
-1.129, 5.674e-4
-1.130, 5.705e-4
-1.131, 5.705e-4
-1.132, 5.705e-4
-1.133, 5.674e-4
-1.134, 5.705e-4
-1.135, 5.674e-4
-1.136, 5.674e-4
-1.137, 5.674e-4
-1.138, 5.674e-4
-1.139, 5.674e-4
-1.140, 5.674e-4
-1.141, 5.674e-4
-1.142, 5.674e-4
-1.143, 5.674e-4
-1.144, 5.674e-4
-1.145, 5.674e-4
-1.146, 5.674e-4
-1.147, 5.674e-4
-1.148, 5.674e-4
-1.149, 5.674e-4
-1.150, 5.674e-4
-1.151, 5.674e-4
-1.152, 5.674e-4
-1.153, 5.674e-4
-1.154, 5.674e-4
-1.155, 5.674e-4
-1.156, 5.674e-4
-1.157, 5.674e-4
-1.158, 5.674e-4
-1.159, 5.674e-4
-1.160, 5.674e-4
-1.161, 5.705e-4
-1.162, 5.674e-4
-1.163, 5.674e-4
-1.164, 5.674e-4
-1.165, 5.674e-4
-1.166, 5.674e-4
-1.167, 5.674e-4
-1.168, 5.674e-4
-1.169, 5.674e-4
-1.170, 5.674e-4
-1.171, 5.674e-4
-1.172, 5.674e-4
-1.173, 5.674e-4
-1.174, 5.674e-4
-1.175, 5.674e-4
-1.176, 5.674e-4
-1.177, 5.674e-4
-1.178, 5.674e-4
-1.179, 5.674e-4
-1.180, 5.674e-4
-1.181, 5.674e-4
-1.182, 5.705e-4
-1.183, 5.674e-4
-1.184, 5.674e-4
-1.185, 5.705e-4
-1.186, 5.674e-4
-1.187, 5.705e-4
-1.188, 5.705e-4
-1.189, 5.705e-4
-1.190, 5.705e-4
-1.191, 5.705e-4
-1.192, 5.705e-4
-1.193, 5.705e-4
-1.194, 5.705e-4
-1.195, 5.705e-4
-1.196, 5.705e-4
-1.197, 5.736e-4
-1.198, 5.736e-4
-1.199, 5.736e-4
-1.200, 5.705e-4
-1.201, 5.736e-4
-1.202, 5.736e-4
-1.203, 5.736e-4
-1.204, 5.736e-4
-1.205, 5.736e-4
-1.206, 5.767e-4
-1.207, 5.767e-4
-1.208, 5.767e-4
-1.209, 5.767e-4
-1.210, 5.767e-4
-1.211, 5.798e-4
-1.212, 5.798e-4
-1.213, 5.798e-4
-1.214, 5.798e-4
-1.215, 5.798e-4
-1.216, 5.798e-4
-1.217, 5.829e-4
-1.218, 5.829e-4
-1.219, 5.829e-4
-1.220, 5.829e-4
-1.221, 5.829e-4
-1.222, 5.829e-4
-1.223, 5.859e-4
-1.224, 5.859e-4
-1.225, 5.859e-4
-1.226, 5.859e-4
-1.227, 5.890e-4
-1.228, 5.921e-4
-1.229, 5.921e-4
-1.230, 5.921e-4
-1.231, 5.952e-4
-1.232, 5.952e-4
-1.233, 5.952e-4
-1.234, 5.983e-4
-1.235, 5.983e-4
-1.236, 6.014e-4
-1.237, 5.983e-4
-1.238, 6.014e-4
-1.239, 6.044e-4
-1.240, 6.044e-4
-1.241, 6.044e-4
-1.242, 6.044e-4
-1.243, 6.075e-4
-1.244, 6.106e-4
-1.245, 6.106e-4
-1.246, 6.106e-4
-1.247, 6.137e-4
-1.248, 6.137e-4
-1.249, 6.168e-4
-1.250, 6.168e-4
-1.251, 6.199e-4
-1.252, 6.199e-4
-1.253, 6.229e-4
-1.254, 6.229e-4
-1.255, 6.260e-4
-1.256, 6.291e-4
-1.257, 6.291e-4
-1.258, 6.322e-4
-1.259, 6.322e-4
-1.260, 6.353e-4
-1.261, 6.384e-4
-1.262, 6.384e-4
-1.263, 6.384e-4
-1.264, 6.414e-4
-1.265, 6.445e-4
-1.266, 6.445e-4
-1.267, 6.476e-4
-1.268, 6.538e-4
-1.269, 6.538e-4
-1.270, 6.569e-4
-1.271, 6.569e-4
-1.272, 6.599e-4
-1.273, 6.630e-4
-1.274, 6.661e-4
-1.275, 6.692e-4
-1.276, 6.723e-4
-1.277, 6.723e-4
-1.278, 6.784e-4
-1.279, 6.815e-4
-1.280, 6.815e-4
-1.281, 6.908e-4
-1.282, 6.908e-4
-1.283, 6.939e-4
-1.284, 6.969e-4
-1.285, 7.000e-4
-1.286, 7.031e-4
-1.287, 7.062e-4
-1.288, 7.093e-4
-1.289, 7.154e-4
-1.290, 7.154e-4
-1.291, 7.216e-4
-1.292, 7.247e-4
-1.293, 7.278e-4
-1.294, 7.339e-4
-1.295, 7.370e-4
-1.296, 7.370e-4
-1.297, 7.432e-4
-1.298, 7.463e-4
-1.299, 7.524e-4
-1.300, 7.524e-4
-1.301, 7.586e-4
-1.302, 7.648e-4
-1.303, 7.679e-4
-1.304, 7.709e-4
-1.305, 7.771e-4
-1.306, 7.802e-4
-1.307, 7.863e-4
-1.308, 7.894e-4
-1.309, 7.925e-4
-1.310, 8.018e-4
-1.311, 8.048e-4
-1.312, 8.079e-4
-1.313, 8.141e-4
-1.314, 8.203e-4
-1.315, 8.264e-4
-1.316, 8.326e-4
-1.317, 8.357e-4
-1.318, 8.418e-4
-1.319, 8.511e-4
-1.320, 8.573e-4
-1.321, 8.634e-4
-1.322, 8.665e-4
-1.323, 8.758e-4
-1.324, 8.819e-4
-1.325, 8.850e-4
-1.326, 8.943e-4
-1.327, 9.004e-4
-1.328, 9.066e-4
-1.329, 9.158e-4
-1.330, 9.189e-4
-1.331, 9.282e-4
-1.332, 9.374e-4
-1.333, 9.436e-4
-1.334, 9.498e-4
-1.335, 9.590e-4
-1.336, 9.683e-4
-1.337, 9.744e-4
-1.338, 9.837e-4
-1.339, 9.898e-4
-1.340, 9.991e-4
-1.341, 1.005e-3
-1.342, 1.014e-3
-1.343, 1.024e-3
-1.344, 1.033e-3
-1.345, 1.042e-3
-1.346, 1.048e-3
-1.347, 1.061e-3
-1.348, 1.070e-3
-1.349, 1.079e-3
-1.350, 1.088e-3
-1.351, 1.098e-3
-1.352, 1.107e-3
-1.353, 1.119e-3
-1.354, 1.129e-3
-1.355, 1.138e-3
-1.356, 1.150e-3
-1.357, 1.159e-3
-1.358, 1.172e-3
-1.359, 1.181e-3
-1.360, 1.193e-3
-1.361, 1.206e-3
-1.362, 1.215e-3
-1.363, 1.224e-3
-1.364, 1.236e-3
-1.365, 1.249e-3
-1.366, 1.261e-3
-1.367, 1.273e-3
-1.368, 1.286e-3
-1.369, 1.301e-3
-1.370, 1.314e-3
-1.371, 1.329e-3
-1.372, 1.344e-3
-1.373, 1.360e-3
-1.374, 1.369e-3
-1.375, 1.381e-3
-1.376, 1.397e-3
-1.377, 1.409e-3
-1.378, 1.421e-3
-1.379, 1.434e-3
-1.380, 1.449e-3
-1.381, 1.462e-3
-1.382, 1.477e-3
-1.383, 1.492e-3
-1.384, 1.505e-3
-1.385, 1.520e-3
-1.386, 1.536e-3
-1.387, 1.551e-3
-1.388, 1.566e-3
-1.389, 1.582e-3
-1.390, 1.597e-3
-1.391, 1.613e-3
-1.392, 1.628e-3
-1.393, 1.643e-3
-1.394, 1.662e-3
-1.395, 1.677e-3
-1.396, 1.696e-3
-1.397, 1.711e-3
-1.398, 1.730e-3
-1.399, 1.745e-3
-1.400, 1.764e-3
-1.401, 1.782e-3
-1.402, 1.798e-3
-1.403, 1.816e-3
-1.404, 1.835e-3
-1.405, 1.850e-3
-1.406, 1.872e-3
-1.407, 1.890e-3
-1.408, 1.906e-3
-1.409, 1.924e-3
-1.410, 1.943e-3
-1.411, 1.964e-3
-1.412, 1.983e-3
-1.413, 2.001e-3
-1.414, 2.023e-3
-1.415, 2.041e-3
-1.416, 2.060e-3
-1.417, 2.081e-3
-1.418, 2.100e-3
-1.419, 2.121e-3
-1.420, 2.143e-3
-1.421, 2.161e-3
-1.422, 2.183e-3
-1.423, 2.201e-3
-1.424, 2.223e-3
-1.425, 2.248e-3
-1.426, 2.266e-3
-1.427, 2.288e-3
-1.428, 2.309e-3
-1.429, 2.328e-3
-1.430, 2.349e-3
-1.431, 2.371e-3
-1.432, 2.393e-3
-1.433, 2.414e-3
-1.434, 2.439e-3
-1.435, 2.460e-3
-1.436, 2.482e-3
-1.437, 2.504e-3
-1.438, 2.525e-3
-1.439, 2.550e-3
-1.440, 2.571e-3
-1.441, 2.596e-3
-1.442, 2.615e-3
-1.443, 2.639e-3
-1.444, 2.664e-3
-1.445, 2.689e-3
-1.446, 2.713e-3
-1.447, 2.738e-3
-1.448, 2.763e-3
-1.449, 2.787e-3
-1.450, 2.812e-3
-1.451, 2.840e-3
-1.452, 2.864e-3
-1.453, 2.889e-3
-1.454, 2.917e-3
-1.455, 2.941e-3
-1.456, 2.969e-3
-1.457, 2.994e-3
-1.458, 3.022e-3
-1.459, 3.046e-3
-1.460, 3.074e-3
-1.461, 3.099e-3
-1.462, 3.130e-3
-1.463, 3.154e-3
-1.464, 3.182e-3
-1.465, 3.210e-3
-1.466, 3.237e-3
-1.467, 3.265e-3
-1.468, 3.293e-3
-1.469, 3.321e-3
-1.470, 3.351e-3
-1.471, 3.376e-3
-1.472, 3.404e-3
-1.473, 3.432e-3
-1.474, 3.462e-3
-1.475, 3.490e-3
-1.476, 3.518e-3
-1.477, 3.546e-3
-1.478, 3.577e-3
-1.479, 3.607e-3
-1.480, 3.635e-3
-1.481, 3.663e-3
-1.482, 3.694e-3
-1.483, 3.725e-3
-1.484, 3.752e-3
-1.485, 3.783e-3
-1.486, 3.814e-3
-1.487, 3.842e-3
-1.488, 3.873e-3
-1.489, 3.903e-3
-1.490, 3.931e-3
-1.491, 3.962e-3
-1.492, 3.993e-3
-1.493, 4.024e-3
-1.494, 4.051e-3
-1.495, 4.082e-3
-1.496, 4.116e-3
-1.497, 4.144e-3
-1.498, 4.178e-3
-1.499, 4.209e-3
-1.500, 4.236e-3
-1.501, 4.267e-3
-1.502, 4.301e-3
-1.503, 4.332e-3
-1.504, 4.363e-3
-1.505, 4.391e-3
-1.506, 4.421e-3
-1.507, 4.452e-3
-1.508, 4.486e-3
-1.509, 4.514e-3
-1.510, 4.545e-3
-1.511, 4.575e-3
-1.512, 4.606e-3
-1.513, 4.637e-3
-1.514, 4.665e-3
-1.515, 4.696e-3
-1.516, 4.727e-3
-1.517, 4.754e-3
-1.518, 4.785e-3
-1.519, 4.816e-3
-1.520, 4.847e-3
-1.521, 4.881e-3
-1.522, 4.905e-3
-1.523, 4.936e-3
-1.524, 4.967e-3
-1.525, 4.995e-3
-1.526, 5.019e-3
-1.527, 5.047e-3
-1.528, 5.075e-3
-1.529, 5.106e-3
-1.530, 5.130e-3
-1.531, 5.158e-3
-1.532, 5.189e-3
-1.533, 5.214e-3
-1.534, 5.241e-3
-1.535, 5.269e-3
-1.536, 5.297e-3
-1.537, 5.328e-3
-1.538, 5.359e-3
-1.539, 5.383e-3
-1.540, 5.417e-3
-1.541, 5.445e-3
-1.542, 5.476e-3
-1.543, 5.507e-3
-1.544, 5.537e-3
-1.545, 5.571e-3
-1.546, 5.602e-3
-1.547, 5.633e-3
-1.548, 5.667e-3
-1.549, 5.698e-3
-1.550, 5.732e-3
-1.551, 5.762e-3
-1.552, 5.796e-3
-1.553, 5.830e-3
-1.554, 5.867e-3
-1.555, 5.898e-3
-1.556, 5.932e-3
-1.557, 5.966e-3
-1.558, 6.003e-3
-1.559, 6.037e-3
-1.560, 6.074e-3
-1.561, 6.111e-3
-1.562, 6.145e-3
-1.563, 6.182e-3
-1.564, 6.219e-3
-1.565, 6.253e-3
-1.566, 6.293e-3
-1.567, 6.330e-3
-1.568, 6.364e-3
-1.569, 6.401e-3
-1.570, 6.438e-3
-1.571, 6.475e-3
-1.572, 6.512e-3
-1.573, 6.549e-3
-1.574, 6.586e-3
-1.575, 6.623e-3
-1.576, 6.663e-3
-1.577, 6.700e-3
-1.578, 6.737e-3
-1.579, 6.777e-3
-1.580, 6.817e-3
-1.581, 6.857e-3
-1.582, 6.897e-3
-1.583, 6.937e-3
-1.584, 6.980e-3
-1.585, 7.020e-3
-1.586, 7.067e-3
-1.587, 7.110e-3
-1.588, 7.153e-3
-1.589, 7.196e-3
-1.590, 7.239e-3
-1.591, 7.282e-3
-1.592, 7.326e-3
-1.593, 7.369e-3
-1.594, 7.412e-3
-1.595, 7.455e-3
-1.596, 7.498e-3
-1.597, 7.541e-3
-1.598, 7.585e-3
-1.599, 7.631e-3
-1.600, 7.606e-3
-1.599, 7.486e-3
-1.598, 7.378e-3
-1.597, 7.286e-3
-1.596, 7.199e-3
-1.595, 7.119e-3
-1.594, 7.036e-3
-1.593, 6.962e-3
-1.592, 6.888e-3
-1.591, 6.814e-3
-1.590, 6.743e-3
-1.589, 6.672e-3
-1.588, 6.601e-3
-1.587, 6.533e-3
-1.586, 6.465e-3
-1.585, 6.398e-3
-1.584, 6.330e-3
-1.583, 6.265e-3
-1.582, 6.194e-3
-1.581, 6.129e-3
-1.580, 6.065e-3
-1.579, 6.003e-3
-1.578, 5.941e-3
-1.577, 5.877e-3
-1.576, 5.818e-3
-1.575, 5.756e-3
-1.574, 5.698e-3
-1.573, 5.636e-3
-1.572, 5.581e-3
-1.571, 5.525e-3
-1.570, 5.470e-3
-1.569, 5.411e-3
-1.568, 5.356e-3
-1.567, 5.300e-3
-1.566, 5.248e-3
-1.565, 5.195e-3
-1.564, 5.143e-3
-1.563, 5.090e-3
-1.562, 5.038e-3
-1.561, 4.986e-3
-1.560, 4.936e-3
-1.559, 4.887e-3
-1.558, 4.838e-3
-1.557, 4.788e-3
-1.556, 4.739e-3
-1.555, 4.693e-3
-1.554, 4.643e-3
-1.553, 4.597e-3
-1.552, 4.551e-3
-1.551, 4.501e-3
-1.550, 4.458e-3
-1.549, 4.415e-3
-1.548, 4.372e-3
-1.547, 4.329e-3
-1.546, 4.286e-3
-1.545, 4.243e-3
-1.544, 4.196e-3
-1.543, 4.156e-3
-1.542, 4.113e-3
-1.541, 4.070e-3
-1.540, 4.024e-3
-1.539, 3.980e-3
-1.538, 3.940e-3
-1.537, 3.900e-3
-1.536, 3.857e-3
-1.535, 3.817e-3
-1.534, 3.777e-3
-1.533, 3.737e-3
-1.532, 3.697e-3
-1.531, 3.657e-3
-1.530, 3.620e-3
-1.529, 3.583e-3
-1.528, 3.543e-3
-1.527, 3.506e-3
-1.526, 3.472e-3
-1.525, 3.450e-3
-1.524, 3.462e-3
-1.523, 3.435e-3
-1.522, 3.388e-3
-1.521, 3.348e-3
-1.520, 3.308e-3
-1.519, 3.281e-3
-1.518, 3.241e-3
-1.517, 3.207e-3
-1.516, 3.167e-3
-1.515, 3.133e-3
-1.514, 3.096e-3
-1.513, 3.062e-3
-1.512, 3.028e-3
-1.511, 2.994e-3
-1.510, 2.960e-3
-1.509, 2.929e-3
-1.508, 2.895e-3
-1.507, 2.861e-3
-1.506, 2.830e-3
-1.505, 2.800e-3
-1.504, 2.784e-3
-1.503, 2.760e-3
-1.502, 2.726e-3
-1.501, 2.692e-3
-1.500, 2.658e-3
-1.499, 2.627e-3
-1.498, 2.593e-3
-1.497, 2.562e-3
-1.496, 2.528e-3
-1.495, 2.501e-3
-1.494, 2.467e-3
-1.493, 2.439e-3
-1.492, 2.408e-3
-1.491, 2.377e-3
-1.490, 2.349e-3
-1.489, 2.319e-3
-1.488, 2.291e-3
-1.487, 2.260e-3
-1.486, 2.235e-3
-1.485, 2.205e-3
-1.484, 2.180e-3
-1.483, 2.158e-3
-1.482, 2.140e-3
-1.481, 2.115e-3
-1.480, 2.087e-3
-1.479, 2.060e-3
-1.478, 2.032e-3
-1.477, 2.004e-3
-1.476, 1.976e-3
-1.475, 1.952e-3
-1.474, 1.927e-3
-1.473, 1.899e-3
-1.472, 1.875e-3
-1.471, 1.850e-3
-1.470, 1.825e-3
-1.469, 1.801e-3
-1.468, 1.776e-3
-1.467, 1.751e-3
-1.466, 1.730e-3
-1.465, 1.705e-3
-1.464, 1.680e-3
-1.463, 1.656e-3
-1.462, 1.631e-3
-1.461, 1.610e-3
-1.460, 1.588e-3
-1.459, 1.566e-3
-1.458, 1.542e-3
-1.457, 1.520e-3
-1.456, 1.499e-3
-1.455, 1.474e-3
-1.454, 1.452e-3
-1.453, 1.428e-3
-1.452, 1.409e-3
-1.451, 1.384e-3
-1.450, 1.363e-3
-1.449, 1.341e-3
-1.448, 1.320e-3
-1.447, 1.298e-3
-1.446, 1.277e-3
-1.445, 1.258e-3
-1.444, 1.240e-3
-1.443, 1.218e-3
-1.442, 1.203e-3
-1.441, 1.190e-3
-1.440, 1.172e-3
-1.439, 1.150e-3
-1.438, 1.125e-3
-1.437, 1.110e-3
-1.436, 1.088e-3
-1.435, 1.067e-3
-1.434, 1.048e-3
-1.433, 1.030e-3
-1.432, 1.011e-3
-1.431, 9.929e-4
-1.430, 9.713e-4
-1.429, 9.559e-4
-1.428, 9.374e-4
-1.427, 9.220e-4
-1.426, 9.004e-4
-1.425, 8.850e-4
-1.424, 8.696e-4
-1.423, 8.511e-4
-1.422, 8.357e-4
-1.421, 8.172e-4
-1.420, 8.018e-4
-1.419, 7.863e-4
-1.418, 7.679e-4
-1.417, 7.524e-4
-1.416, 7.370e-4
-1.415, 7.216e-4
-1.414, 7.062e-4
-1.413, 6.939e-4
-1.412, 6.784e-4
-1.411, 6.630e-4
-1.410, 6.507e-4
-1.409, 6.322e-4
-1.408, 6.199e-4
-1.407, 6.044e-4
-1.406, 5.921e-4
-1.405, 5.798e-4
-1.404, 5.644e-4
-1.403, 5.520e-4
-1.402, 5.397e-4
-1.401, 5.274e-4
-1.400, 5.120e-4
-1.399, 5.027e-4
-1.398, 4.904e-4
-1.397, 4.780e-4
-1.396, 4.657e-4
-1.395, 4.534e-4
-1.394, 4.441e-4
-1.393, 4.318e-4
-1.392, 4.195e-4
-1.391, 4.102e-4
-1.390, 4.010e-4
-1.389, 3.886e-4
-1.388, 3.794e-4
-1.387, 3.701e-4
-1.386, 3.578e-4
-1.385, 3.485e-4
-1.384, 3.362e-4
-1.383, 3.270e-4
-1.382, 3.177e-4
-1.381, 3.115e-4
-1.380, 3.023e-4
-1.379, 2.931e-4
-1.378, 2.838e-4
-1.377, 2.746e-4
-1.376, 2.653e-4
-1.375, 2.591e-4
-1.374, 2.499e-4
-1.373, 2.437e-4
-1.372, 2.345e-4
-1.371, 2.252e-4
-1.370, 2.191e-4
-1.369, 2.098e-4
-1.368, 2.036e-4
-1.367, 1.944e-4
-1.366, 1.882e-4
-1.365, 1.821e-4
-1.364, 1.728e-4
-1.363, 1.666e-4
-1.362, 1.605e-4
-1.361, 1.512e-4
-1.360, 1.481e-4
-1.359, 1.389e-4
-1.358, 1.327e-4
-1.357, 1.266e-4
-1.356, 1.204e-4
-1.355, 1.142e-4
-1.354, 1.081e-4
-1.353, 1.019e-4
-1.352, 9.573e-5
-1.351, 8.957e-5
-1.350, 8.340e-5
-1.349, 7.723e-5
-1.348, 7.107e-5
-1.347, 6.490e-5
-1.346, 6.182e-5
-1.345, 5.257e-5
-1.344, 4.949e-5
-1.343, 4.332e-5
-1.342, 3.715e-5
-1.341, 3.099e-5
-1.340, 2.482e-5
-1.339, 2.174e-5
-1.338, 1.557e-5
-1.337, 9.405e-6
-1.336, 6.322e-6
-1.335, 1.559e-7
-1.334, -9.093e-6
-1.333, -1.218e-5
-1.332, -1.526e-5
-1.331, -2.143e-5
-1.330, -2.759e-5
-1.329, -3.376e-5
-1.328, -3.992e-5
-1.327, -4.301e-5
-1.326, -4.917e-5
-1.325, -5.226e-5
-1.324, -5.842e-5
-1.323, -6.151e-5
-1.322, -6.459e-5
-1.321, -7.076e-5
-1.320, -7.384e-5
-1.319, -8.000e-5
-1.318, -8.617e-5
-1.317, -8.925e-5
-1.316, -9.850e-5
-1.315, -1.016e-4
-1.314, -1.047e-4
-1.313, -1.108e-4
-1.312, -1.139e-4
-1.311, -1.201e-4
-1.310, -1.232e-4
-1.309, -1.293e-4
-1.308, -1.355e-4
-1.307, -1.386e-4
-1.306, -1.448e-4
-1.305, -1.478e-4
-1.304, -1.540e-4
-1.303, -1.571e-4
-1.302, -1.632e-4
-1.301, -1.663e-4
-1.300, -1.725e-4
-1.299, -1.787e-4
-1.298, -1.817e-4
-1.297, -1.848e-4
-1.296, -1.910e-4
-1.295, -1.972e-4
-1.294, -2.002e-4
-1.293, -2.033e-4
-1.292, -2.095e-4
-1.291, -2.126e-4
-1.290, -2.157e-4
-1.289, -2.187e-4
-1.288, -2.249e-4
-1.287, -2.280e-4
-1.286, -2.311e-4
-1.285, -2.342e-4
-1.284, -2.372e-4
-1.283, -2.403e-4
-1.282, -2.434e-4
-1.281, -2.434e-4
-1.280, -2.465e-4
-1.279, -2.496e-4
-1.278, -2.527e-4
-1.277, -2.557e-4
-1.276, -2.557e-4
-1.275, -2.588e-4
-1.274, -2.619e-4
-1.273, -2.650e-4
-1.272, -2.650e-4
-1.271, -2.681e-4
-1.270, -2.712e-4
-1.269, -2.712e-4
-1.268, -2.712e-4
-1.267, -2.742e-4
-1.266, -2.742e-4
-1.265, -2.773e-4
-1.264, -2.773e-4
-1.263, -2.804e-4
-1.262, -2.804e-4
-1.261, -2.835e-4
-1.260, -2.835e-4
-1.259, -2.835e-4
-1.258, -2.866e-4
-1.257, -2.897e-4
-1.256, -2.866e-4
-1.255, -2.897e-4
-1.254, -2.927e-4
-1.253, -2.927e-4
-1.252, -2.927e-4
-1.251, -2.927e-4
-1.250, -2.958e-4
-1.249, -2.989e-4
-1.248, -2.989e-4
-1.247, -2.989e-4
-1.246, -2.989e-4
-1.245, -2.989e-4
-1.244, -3.020e-4
-1.243, -3.020e-4
-1.242, -3.020e-4
-1.241, -3.020e-4
-1.240, -3.020e-4
-1.239, -3.020e-4
-1.238, -3.051e-4
-1.237, -3.051e-4
-1.236, -3.082e-4
-1.235, -3.082e-4
-1.234, -3.082e-4
-1.233, -3.082e-4
-1.232, -3.082e-4
-1.231, -3.112e-4
-1.230, -3.112e-4
-1.229, -3.112e-4
-1.228, -3.143e-4
-1.227, -3.143e-4
-1.226, -3.143e-4
-1.225, -3.174e-4
-1.224, -3.174e-4
-1.223, -3.205e-4
-1.222, -3.205e-4
-1.221, -3.205e-4
-1.220, -3.236e-4
-1.219, -3.267e-4
-1.218, -3.267e-4
-1.217, -3.267e-4
-1.216, -3.297e-4
-1.215, -3.328e-4
-1.214, -3.359e-4
-1.213, -3.390e-4
-1.212, -3.421e-4
-1.211, -3.452e-4
-1.210, -3.482e-4
-1.209, -3.513e-4
-1.208, -3.575e-4
-1.207, -3.606e-4
-1.206, -3.637e-4
-1.205, -3.637e-4
-1.204, -3.698e-4
-1.203, -3.729e-4
-1.202, -3.760e-4
-1.201, -3.791e-4
-1.200, -3.821e-4
-1.199, -3.883e-4
-1.198, -3.945e-4
-1.197, -3.976e-4
-1.196, -4.037e-4
-1.195, -4.099e-4
-1.194, -4.161e-4
-1.193, -4.222e-4
-1.192, -4.284e-4
-1.191, -4.346e-4
-1.190, -4.407e-4
-1.189, -4.438e-4
-1.188, -4.500e-4
-1.187, -4.561e-4
-1.186, -4.623e-4
-1.185, -4.685e-4
-1.184, -4.716e-4
-1.183, -4.777e-4
-1.182, -4.839e-4
-1.181, -4.931e-4
-1.180, -4.962e-4
-1.179, -5.024e-4
-1.178, -5.086e-4
-1.177, -5.147e-4
-1.176, -5.209e-4
-1.175, -5.240e-4
-1.174, -5.301e-4
-1.173, -5.363e-4
-1.172, -5.394e-4
-1.171, -5.425e-4
-1.170, -5.486e-4
-1.169, -5.548e-4
-1.168, -5.579e-4
-1.167, -5.641e-4
-1.166, -5.671e-4
-1.165, -5.702e-4
-1.164, -5.764e-4
-1.163, -5.795e-4
-1.162, -5.826e-4
-1.161, -5.887e-4
-1.160, -5.887e-4
-1.159, -5.918e-4
-1.158, -6.011e-4
-1.157, -6.011e-4
-1.156, -6.072e-4
-1.155, -6.072e-4
-1.154, -6.103e-4
-1.153, -6.134e-4
-1.152, -6.195e-4
-1.151, -6.195e-4
-1.150, -6.226e-4
-1.149, -6.257e-4
-1.148, -6.288e-4
-1.147, -6.319e-4
-1.146, -6.319e-4
-1.145, -6.350e-4
-1.144, -6.411e-4
-1.143, -6.411e-4
-1.142, -6.442e-4
-1.141, -6.473e-4
-1.140, -6.504e-4
-1.139, -6.535e-4
-1.138, -6.535e-4
-1.137, -6.565e-4
-1.136, -6.596e-4
-1.135, -6.596e-4
-1.134, -6.627e-4
-1.133, -6.627e-4
-1.132, -6.658e-4
-1.131, -6.689e-4
-1.130, -6.720e-4
-1.129, -6.720e-4
-1.128, -6.750e-4
-1.127, -6.750e-4
-1.126, -6.781e-4
-1.125, -6.781e-4
-1.124, -6.812e-4
-1.123, -6.843e-4
-1.122, -6.843e-4
-1.121, -6.843e-4
-1.120, -6.874e-4
-1.119, -6.874e-4
-1.118, -6.905e-4
-1.117, -6.905e-4
-1.116, -6.935e-4
-1.115, -6.966e-4
-1.114, -6.935e-4
-1.113, -6.966e-4
-1.112, -6.966e-4
-1.111, -6.997e-4
-1.110, -6.966e-4
-1.109, -6.997e-4
-1.108, -6.997e-4
-1.107, -6.997e-4
-1.106, -6.997e-4
-1.105, -7.028e-4
-1.104, -7.028e-4
-1.103, -7.028e-4
-1.102, -7.059e-4
-1.101, -7.059e-4
-1.100, -7.059e-4
-1.099, -7.090e-4
-1.098, -7.090e-4
-1.097, -7.090e-4
-1.096, -7.090e-4
-1.095, -7.090e-4
-1.094, -7.120e-4
-1.093, -7.120e-4
-1.092, -7.120e-4
-1.091, -7.151e-4
-1.090, -7.151e-4
-1.089, -7.151e-4
-1.088, -7.151e-4
-1.087, -7.182e-4
-1.086, -7.182e-4
-1.085, -7.182e-4
-1.084, -7.182e-4
-1.083, -7.182e-4
-1.082, -7.213e-4
-1.081, -7.213e-4
-1.080, -7.213e-4
-1.079, -7.182e-4
-1.078, -7.213e-4
-1.077, -7.244e-4
-1.076, -7.244e-4
-1.075, -7.244e-4
-1.074, -7.244e-4
-1.073, -7.244e-4
-1.072, -7.275e-4
-1.071, -7.244e-4
-1.070, -7.244e-4
-1.069, -7.244e-4
-1.068, -7.275e-4
-1.067, -7.275e-4
-1.066, -7.275e-4
-1.065, -7.305e-4
-1.064, -7.275e-4
-1.063, -7.275e-4
-1.062, -7.305e-4
-1.061, -7.305e-4
-1.060, -7.336e-4
-1.059, -7.305e-4
-1.058, -7.305e-4
-1.057, -7.336e-4
-1.056, -7.336e-4
-1.055, -7.336e-4
-1.054, -7.336e-4
-1.053, -7.367e-4
-1.052, -7.367e-4
-1.051, -7.367e-4
-1.050, -7.367e-4
-1.049, -7.398e-4
-1.048, -7.398e-4
-1.047, -7.398e-4
-1.046, -7.398e-4
-1.045, -7.398e-4
-1.044, -7.429e-4
-1.043, -7.429e-4
-1.042, -7.429e-4
-1.041, -7.429e-4
-1.040, -7.460e-4
-1.039, -7.460e-4
-1.038, -7.460e-4
-1.037, -7.460e-4
-1.036, -7.490e-4
-1.035, -7.490e-4
-1.034, -7.490e-4
-1.033, -7.490e-4
-1.032, -7.521e-4
-1.031, -7.521e-4
-1.030, -7.521e-4
-1.029, -7.521e-4
-1.028, -7.521e-4
-1.027, -7.552e-4
-1.026, -7.521e-4
-1.025, -7.552e-4
-1.024, -7.552e-4
-1.023, -7.583e-4
-1.022, -7.583e-4
-1.021, -7.583e-4
-1.020, -7.583e-4
-1.019, -7.614e-4
-1.018, -7.614e-4
-1.017, -7.614e-4
-1.016, -7.614e-4
-1.015, -7.645e-4
-1.014, -7.645e-4
-1.013, -7.645e-4
-1.012, -7.645e-4
-1.011, -7.675e-4
-1.010, -7.675e-4
-1.009, -7.706e-4
-1.008, -7.706e-4
-1.007, -7.737e-4
-1.006, -7.737e-4
-1.005, -7.737e-4
-1.004, -7.737e-4
-1.003, -7.768e-4
-1.002, -7.768e-4
-1.001, -7.799e-4
