Potential V vs RHE, Current mA cm-2
0.4132999999999999,0.00421018082839835
0.4122999999999999,0.0021857289582914814
0.4112999999999999,0.0014100427525754822
0.4102999999999999,0.00100387913838423
0.4092999999999999,0.0006715634540459329
0.4082999999999999,0.00042172543848976746
0.4072999999999999,0.00021376287740960706
0.4062999999999999,1.2841334468874937e-05
0.4052999999999999,-0.0001615600304445872
0.4042999999999999,-0.0003584878433858003
0.4032999999999999,-0.0005245749499899556
0.4022999999999999,-0.0006473718908182409
0.4012999999999999,-0.0007868624249849334
0.4002999999999999,-0.0009041419917437449
0.3992999999999999,-0.0010828200289166989
0.3982999999999999,-0.001216793189013918
0.3972999999999999,-0.0013033735205656583
0.3962999999999999,-0.001399715360086467
0.3952999999999999,-0.0015024234004566688
0.3942999999999999,-0.0016382356852437125
0.39329999999999987,-0.0017627302796318356
0.39229999999999987,-0.0018263922881257626
0.39129999999999987,-0.00191551910001726
0.39029999999999987,-0.001998987066709297
0.38929999999999987,-0.00212631108369715
0.38829999999999987,-0.0022324144311870278
0.38729999999999987,-0.002269196924983519
0.38629999999999987,-0.002358323736875016
0.38529999999999986,-0.002427644590568403
0.38429999999999986,-0.0025464803397570656
0.38329999999999986,-0.002634192440348698
0.38229999999999986,-0.002692195603643165
0.38129999999999986,-0.002751613478237496
0.38029999999999986,-0.0028548874031276436
0.37929999999999986,-0.0029369406585198162
0.37829999999999986,-0.0030246527591114482
0.37729999999999986,-0.00308124121110605
0.37629999999999986,-0.0031095354371033506
0.37529999999999986,-0.0032014916715945784
0.37429999999999986,-0.0033019361738849955
0.37329999999999985,-0.003395307119676088
0.37229999999999985,-0.0034504808603708246
0.37129999999999985,-0.0034943369106666404
0.37029999999999985,-0.003579219588658543
0.36929999999999985,-0.00366834640055004
0.36829999999999985,-0.0037305936977441016
0.36729999999999985,-0.0037730350367400534
0.36629999999999985,-0.003812646953136274
0.36529999999999985,-0.0038763089616302006
0.36429999999999985,-0.003962606350921968
0.36329999999999985,-0.004048903740213735
0.36229999999999984,-0.004091345079209686
0.36129999999999984,-0.004153592376403748
0.36029999999999984,-0.004214424962297944
0.35929999999999984,-0.004313454753288497
0.35829999999999984,-0.0043403342679859324
0.35729999999999984,-0.004364384360083638
0.35629999999999984,-0.004403996276479858
0.35529999999999984,-0.004436534636376755
0.35429999999999984,-0.004535564427367307
0.35329999999999984,-0.004611958837560019
0.35229999999999984,-0.0046062999923605595
0.35129999999999983,-0.004668547289554621
0.35029999999999983,-0.004701085649451517
0.34929999999999983,-0.004784553616143553
0.34829999999999983,-0.004839727356838291
0.34729999999999983,-0.004883583407134106
0.34629999999999983,-0.004899145231432623
0.34529999999999983,-0.004937342436528979
0.34429999999999983,-0.005019395691921149
0.3432999999999998,-0.005078813566515482
0.3422999999999998,-0.005078813566515482
0.3412999999999998,-0.0051240843281111625
0.3402999999999998,-0.005182087491405629
0.3392999999999998,-0.005235846520800501
0.3382999999999998,-0.005289605550195372
0.3372999999999998,-0.005307996797093618
0.3362999999999998,-0.005329217466591592
0.3352999999999998,-0.005380147073386734
0.3342999999999998,-0.005463615040078772
0.3332999999999998,-0.005500397533875262
0.3322999999999998,-0.005517374069473643
0.3312999999999998,-0.005530106471172428
0.3302999999999998,-0.00558103607796757
0.3292999999999998,-0.005646112797761361
0.3282999999999998,-0.0056942129819567725
0.3272999999999998,-0.005711189517555153
0.3262999999999998,-0.005733824898352994
0.3252999999999999,-0.005777680948648809
0.3242999999999999,-0.005851245936241792
0.3232999999999999,-0.005892272563937878
0.3222999999999999,-0.005914907944735718
0.3212999999999999,-0.005944616882032884
0.3202999999999999,-0.005967252262830724
0.3192999999999999,-0.006057793786022087
0.3182999999999999,-0.006101649836317904
0.3172999999999999,-0.006107308681517363
0.3162999999999999,-0.006151164731813179
0.3152999999999999,-0.006172385401311155
0.3142999999999999,-0.006227559142005892
0.3132999999999999,-0.006268585769701978
0.3122999999999999,-0.006284147594000493
0.3112999999999999,-0.0063067829747983336
0.3102999999999999,-0.006325174221696579
0.3092999999999999,-0.006421374590087401
0.3082999999999999,-0.006462401217783488
0.3072999999999999,-0.0064524982386844325
0.3062999999999999,-0.0064906954437807885
0.3052999999999999,-0.006510501401978899
0.3042999999999999,-0.006588310523471475
0.3032999999999999,-0.0065953840799708
0.3022999999999999,-0.006622263594668237
0.3012999999999999,-0.006632166573767292
0.3002999999999999,-0.006688755025761894
0.2992999999999999,-0.006717049251759194
0.2982999999999999,-0.006772222992453929
0.2972999999999999,-0.006784955394152717
0.2962999999999999,-0.006793443661951905
0.2952999999999999,-0.006844373268747047
0.2942999999999999,-0.006861349804345428
0.2932999999999999,-0.006919352967639895
0.2922999999999999,-0.006934914791938409
0.2912999999999999,-0.006929255946738949
0.2902999999999999,-0.006984429687433686
0.2892999999999999,-0.007041018139428288
0.2882999999999999,-0.007079215344524643
0.2872999999999999,-0.007089118323623698
0.2862999999999999,-0.007097606591422889
0.2852999999999999,-0.007117412549620999
0.2842999999999999,-0.007193806959813712
0.2832999999999999,-0.007234833587509797
0.2822999999999999,-0.007236248298809663
0.2812999999999999,-0.007236248298809663
0.2802999999999999,-0.007270201370006423
0.2792999999999999,-0.007346595780199136
0.2782999999999999,-0.007360742893197786
0.2772999999999999,-0.007372060583596706
0.2762999999999999,-0.007397525386994277
0.2752999999999999,-0.0074201607677921175
0.2742999999999999,-0.00748523748758591
0.2732999999999999,-0.007520605270082535
0.2722999999999999,-0.00750504344578402
0.2712999999999999,-0.007536167094381051
0.2702999999999999,-0.007588511412476056
0.2692999999999999,-0.007632367462771873
0.26829999999999987,-0.007669149956568363
0.26729999999999987,-0.007639441019271198
0.26629999999999987,-0.007666320533968632
0.26529999999999987,-0.00771583542946391
0.26429999999999987,-0.007780912149257702
0.26329999999999987,-0.007793644550956487
0.26229999999999987,-0.007790815128356756
0.26129999999999987,-0.007820524065653924
0.26029999999999986,-0.007860135982050145
0.25929999999999986,-0.007903992032345961
0.25829999999999986,-0.007961995195640427
0.25729999999999986,-0.00795775106174083
0.25629999999999986,-0.00795775106174083
0.25529999999999986,-0.008003021823336513
0.25429999999999986,-0.008051122007531924
0.25329999999999986,-0.00807800152222936
0.25229999999999986,-0.00808083094482909
0.25129999999999986,-0.00809497805782774
0.25029999999999986,-0.008137419396823692
0.24929999999999986,-0.008186934292318968
0.24829999999999985,-0.008202496116617483
0.24729999999999985,-0.008209569673116807
0.24629999999999985,-0.008202496116617483
0.24529999999999985,-0.008256255146012354
0.24429999999999985,-0.00832557599970574
0.24329999999999985,-0.00832840542230547
0.24229999999999985,-0.00834538195790385
0.24129999999999985,-0.008359529070902502
0.24029999999999985,-0.008380749740400477
0.23929999999999985,-0.008452900016693595
0.23829999999999985,-0.008461388284492785
0.23729999999999984,-0.008471291263591838
0.23629999999999984,-0.008457144150593189
0.23529999999999984,-0.00848543837659049
0.23429999999999984,-0.008563247498083066
0.23329999999999984,-0.008587297590180771
0.23229999999999984,-0.008573150477182122
0.23129999999999984,-0.00860002999187956
0.23029999999999984,-0.008624080083977264
0.22929999999999984,-0.008677839113372134
0.22829999999999984,-0.008724524586267681
0.22729999999999984,-0.00869057151507092
0.22629999999999983,-0.008725939297567546
0.22529999999999983,-0.008740086410566197
0.22429999999999983,-0.008798089573860664
0.22329999999999983,-0.008829213222457694
0.22229999999999983,-0.008817895532058775
0.22129999999999983,-0.00883062793375756
0.22029999999999983,-0.008874483984053376
0.21929999999999983,-0.008931072436047977
0.21829999999999983,-0.008959366662045278
0.21729999999999983,-0.008950878394246088
0.21629999999999983,-0.008962196084645007
0.21529999999999982,-0.009004637423640958
0.21429999999999982,-0.009048493473936775
0.21329999999999982,-0.009079617122533806
0.21229999999999982,-0.009078202411233941
0.21129999999999982,-0.009092349524232591
0.21029999999999982,-0.009122058461529756
0.20929999999999982,-0.009163085089225842
0.20829999999999982,-0.009206941139521658
0.20729999999999982,-0.009222502963820173
0.20629999999999982,-0.009223917675120038
0.20529999999999982,-0.00926918843671572
0.20429999999999982,-0.009321532754810725
0.20329999999999981,-0.009331435733909783
0.2022999999999998,-0.009335679867809378
0.2012999999999998,-0.009339924001708973
0.20029999999999992,-0.009362559382506812
0.19929999999999992,-0.009447442060498716
0.19829999999999992,-0.009468662729996689
0.19729999999999992,-0.0094601744621975
0.19629999999999992,-0.009471492152596421
0.19529999999999992,-0.009498371667293856
0.19429999999999992,-0.009610133859983196
0.19329999999999992,-0.00963984279728036
0.19229999999999992,-0.009600230880884138
0.19129999999999991,-0.009615792705182655
0.1902999999999999,-0.00964833106507955
0.1892999999999999,-0.009697845960574828
0.1882999999999999,-0.009737457876971048
0.1872999999999999,-0.009733213743071453
0.1862999999999999,-0.00975726383516916
0.1852999999999999,-0.009774240370767538
0.1842999999999999,-0.00982234055496295
0.1832999999999999,-0.009840731801861194
0.1822999999999999,-0.00982234055496295
0.1812999999999999,-0.009852049492260116
0.1802999999999999,-0.009897320253855797
0.1792999999999999,-0.009936932170252018
0.1782999999999999,-0.009959567551049858
0.1772999999999999,-0.009958152839749995
0.1762999999999999,-0.009948249860650939
0.1752999999999999,-0.010009082446545133
0.1742999999999999,-0.010054353208140816
0.1732999999999999,-0.010075573877638792
0.1722999999999999,-0.010085476856737845
0.1712999999999999,-0.010075573877638792
0.1702999999999999,-0.010106697526235822
0.1692999999999999,-0.010168944823429884
0.1682999999999999,-0.01020997145112597
0.1672999999999999,-0.01018167722512867
0.1662999999999999,-0.010208556739826105
0.1652999999999999,-0.01024675394492246
0.1642999999999999,-0.010304757108216926
0.1632999999999999,-0.010309001242116523
0.1622999999999999,-0.010327392489014767
0.1612999999999999,-0.01033588075681396
0.1602999999999999,-0.010367004405410989
0.1592999999999999,-0.010422178146105724
0.15829999999999989,-0.010441984104303836
0.15729999999999988,-0.010446228238203431
0.15629999999999988,-0.010454716506002621
0.15529999999999988,-0.010501401978898168
0.15429999999999988,-0.010550916874393444
0.15329999999999988,-0.010573552255191285
0.15229999999999988,-0.010576381677791015
0.15129999999999988,-0.01058628465689007
0.15029999999999988,-0.010607505326388047
0.14929999999999988,-0.010672582046181836
0.14829999999999988,-0.010723511652976978
0.14729999999999988,-0.010717852807777517
0.14629999999999987,-0.010737658765975629
0.14529999999999987,-0.01076878241457266
0.14429999999999987,-0.010828200289166992
0.14329999999999987,-0.010848006247365101
0.14229999999999987,-0.010873471050762671
0.14129999999999987,-0.010856494515164291
0.14029999999999987,-0.010901765276759973
0.13929999999999987,-0.010959768440054439
0.13829999999999987,-0.010997965645150794
0.13729999999999987,-0.010969671419153495
0.13629999999999987,-0.01099089208865147
0.13529999999999986,-0.011037577561547015
0.13429999999999986,-0.011087092457042293
0.13329999999999986,-0.011113971971739729
0.13229999999999986,-0.011109727837840132
0.13129999999999986,-0.011119630816939188
0.13029999999999986,-0.011180463402833385
0.12929999999999986,-0.011244125411327311
0.12829999999999986,-0.011259687235625827
0.12729999999999986,-0.011266760792125153
0.12629999999999986,-0.01125827252432596
0.12529999999999986,-0.011303543285921643
0.12429999999999986,-0.011382767118714086
0.12329999999999985,-0.011398328943012601
0.12229999999999985,-0.011398328943012601
0.12129999999999985,-0.011423793746410171
0.12029999999999985,-0.011466235085406123
0.11929999999999985,-0.011548288340798294
0.11829999999999985,-0.011559606031197215
0.11729999999999985,-0.011582241411995054
0.11629999999999985,-0.01159497381369384
0.11529999999999985,-0.011634585730090062
0.11429999999999985,-0.011684100625585338
0.11329999999999985,-0.011699662449883852
0.11229999999999984,-0.011701077161183718
0.11129999999999984,-0.011744933211479534
0.11029999999999984,-0.01176898330357724
0.10929999999999984,-0.011831230600771302
0.10829999999999984,-0.011846792425069818
0.10729999999999984,-0.011860939538068467
0.10629999999999984,-0.011872257228467388
0.10529999999999984,-0.011904795588364284
0.10429999999999984,-0.011988263555056321
0.10329999999999984,-0.012015143069753757
0.10229999999999984,-0.012012313647154027
0.10129999999999983,-0.012006654801954566
0.10029999999999983,-0.012066072676548897
0.09929999999999983,-0.012101440459045524
0.09829999999999983,-0.01214812593194107
0.09729999999999983,-0.01216510246753945
0.09629999999999983,-0.012170761312738912
0.09529999999999983,-0.012217446785634457
0.09429999999999983,-0.012276864660228788
0.09329999999999983,-0.012295255907127035
0.09229999999999983,-0.012317891287924874
0.09129999999999983,-0.012334867823523254
0.09029999999999982,-0.01237306502861961
0.08929999999999982,-0.012432482903213941
0.08829999999999982,-0.012462191840511108
0.08729999999999982,-0.012476338953509757
0.08629999999999982,-0.012476338953509757
0.08529999999999982,-0.012540000962003686
0.08429999999999982,-0.012609321815697072
0.08329999999999982,-0.012612151238296801
0.08229999999999982,-0.012641860175593968
0.08129999999999982,-0.012658836711192348
0.08029999999999982,-0.0127012780501883
0.07929999999999982,-0.012773428326481416
0.07829999999999981,-0.012796063707279256
0.07729999999999981,-0.012825772644576423
0.07629999999999981,-0.012830016778476018
0.07529999999999992,-0.01286396984967278
0.07429999999999992,-0.01294319368246522
0.07329999999999992,-0.012965829063263061
0.07229999999999992,-0.012978561464961846
0.07129999999999992,-0.013012514536158608
0.07029999999999992,-0.013028076360457124
0.06929999999999992,-0.0131058854819497
0.06829999999999992,-0.013138423841846596
0.06729999999999992,-0.013132764996647135
0.06629999999999991,-0.013172376913043356
0.06529999999999991,-0.013234624210237416
0.06429999999999991,-0.013311018620430128
0.06329999999999991,-0.013359118804625541
0.06229999999999991,-0.013377510051523787
0.06129999999999991,-0.013393071875822303
0.06029999999999991,-0.013452489750416635
0.05929999999999991,-0.013509078202411234
0.05829999999999991,-0.013524640026709752
0.05729999999999991,-0.013520395892810155
0.056299999999999906,-0.013543031273607994
0.055299999999999905,-0.01360810799340179
0.054299999999999904,-0.013674599424495443
0.0532999999999999,-0.013717040763491397
0.0522999999999999,-0.013725529031290587
0.0512999999999999,-0.013735432010389643
0.0502999999999999,-0.01379202046238424
0.0492999999999999,-0.01386417073867736
0.0482999999999999,-0.01387548842907628
0.0472999999999999,-0.013908026788973175
0.0462999999999999,-0.013926418035871422
0.045299999999999896,-0.013991494755665213
0.044299999999999895,-0.014057986186758867
0.043299999999999894,-0.014070718588457654
0.04229999999999989,-0.01407213329975752
0.04129999999999989,-0.01411457463875347
0.04029999999999989,-0.014203701450644968
0.03929999999999989,-0.01426028990263957
0.03829999999999989,-0.01427443701563822
0.03729999999999989,-0.014288584128636872
0.03629999999999989,-0.014331025467632824
0.03529999999999989,-0.014373466806628774
0.034299999999999886,-0.014472496597619325
0.033299999999999885,-0.014500790823616624
0.032299999999999884,-0.014500790823616624
0.031299999999999883,-0.014529085049613928
0.030299999999999883,-0.014585673501608528
0.02929999999999988,-0.01465640906660178
0.02829999999999988,-0.01469885040559773
0.02729999999999988,-0.01469885040559773
0.02629999999999988,-0.014741291744593682
0.025299999999999878,-0.014797880196588285
0.024299999999999877,-0.014882762874580187
0.023299999999999876,-0.014911057100577486
0.022299999999999875,-0.014911057100577486
0.021299999999999875,-0.014953498439573438
0.020299999999999874,-0.01501008689156804
0.019299999999999873,-0.015080822456561293
0.018299999999999872,-0.015109116682558592
0.01729999999999987,-0.015151558021554544
0.01629999999999987,-0.015179852247551842
0.01529999999999987,-0.015250587812545097
0.014299999999999868,-0.015321323377538347
0.013299999999999867,-0.015349617603535646
0.012299999999999978,-0.015377911829532949
0.011299999999999866,-0.015392058942531598
0.010299999999999976,-0.01546279450752485
0.009299999999999864,-0.015533530072518101
0.008299999999999974,-0.015561824298515404
0.007299999999999862,-0.015590118524512706
0.006299999999999972,-0.015618412750510005
0.00529999999999986,-0.015675001202504608
0.0042999999999999705,-0.01575988388049651
0.0032999999999998586,-0.015774030993495156
0.0022999999999999687,-0.01580232521949246
0.0012999999999998568,-0.01585891367148706
0.00029999999999996696,-0.015929649236480315
-0.000700000000000145,-0.016000384801473564
-0.0017000000000000348,-0.016028679027470863
-0.0027000000000001467,-0.016042826140469518
-0.0037000000000000366,-0.016071120366466816
-0.0047000000000001485,-0.01611356170546277
-0.005700000000000038,-0.016226738609451972
-0.00670000000000015,-0.01625503283544927
-0.00770000000000004,-0.01625503283544927
-0.008700000000000152,-0.01629747417444522
-0.009700000000000042,-0.016354062626439823
-0.010700000000000154,-0.016453092417430374
-0.011700000000000044,-0.016495533756426328
-0.012700000000000156,-0.016495533756426328
-0.013700000000000045,-0.016537975095422278
-0.014700000000000157,-0.01660871066041553
-0.015700000000000047,-0.016679446225408782
-0.01670000000000016,-0.01673603467740338
-0.01770000000000005,-0.01673603467740338
-0.01870000000000016,-0.016778476016399334
-0.01970000000000005,-0.016863358694391237
-0.020700000000000163,-0.01693409425938449
-0.021700000000000053,-0.01697653559838044
-0.022700000000000164,-0.01697653559838044
-0.023700000000000054,-0.017018976937376393
-0.024700000000000166,-0.017118006728366945
-0.025700000000000056,-0.017174595180361543
-0.026700000000000168,-0.017202889406358845
-0.027700000000000058,-0.0172453307453548
-0.02870000000000017,-0.017259477858353446
-0.02970000000000006,-0.0173302134233467
-0.03070000000000017,-0.0174150961013386
-0.03170000000000006,-0.017443390327335904
-0.03270000000000017,-0.017457537440334552
-0.03370000000000006,-0.01748583166633185
-0.034700000000000175,-0.017570714344323755
-0.035700000000000065,-0.01766974413531431
-0.03670000000000018,-0.01769803836131161
-0.03770000000000007,-0.01772633258730891
-0.03870000000000018,-0.017754626813306213
-0.03970000000000007,-0.01781121526530081
-0.04070000000000018,-0.017896097943292714
-0.04170000000000007,-0.017910245056291362
-0.04270000000000018,-0.017938539282288665
-0.04370000000000007,-0.017966833508285963
-0.044700000000000184,-0.018023421960280565
-0.045700000000000074,-0.018108304638272472
-0.046700000000000186,-0.01816489309026707
-0.047700000000000076,-0.01817904020326572
-0.04870000000000019,-0.018221481542261674
-0.04970000000000008,-0.018292217107254923
-0.05070000000000019,-0.018362952672248176
-0.05170000000000008,-0.018405394011244126
-0.05270000000000019,-0.018405394011244126
-0.05370000000000008,-0.018447835350240076
-0.05470000000000019,-0.01851857091523333
-0.05570000000000008,-0.01858930648022658
-0.056700000000000195,-0.018645894932221182
-0.057700000000000085,-0.018660042045219833
-0.058700000000000196,-0.018688336271217135
-0.059700000000000086,-0.018759071836210388
-0.0607000000000002,-0.01882980740120364
-0.06170000000000009,-0.018886395853198238
