Dec. 28, 2024   19:59:36
Linear Sweep Voltammetry
File: c:/users/guazh/data/banditlqround7_x0exp136_r20/2024-12-24-exp770\1acid_2ac-2024-12-28t19_56_25-lsvinphos\1acid_2ac_lsv_50mvs_efin_-2300mv.bin
Data Source:  Experiment
Instrument Model:  CHI760E
Header: LSV ran at 50 mVs with Efin at -2300mV
Note: 

Init E (V) = -0.6
Final E (V) = -2.3
Scan Rate (V/s) = 0.05
Sample Interval (V) = 0.001
Quiet Time (sec) = 2
Sensitivity (A/V) = 1e-4
Comp R (ohm) = 9.8

Results:

Channel 1:
Ep = -1.736V
ip = 7.295e-4A
Ah = 8.824e-4C

Potential/V, Current/A

-0.600, 6.883e-6
-0.601, 7.071e-6
-0.602, 7.131e-6
-0.603, 7.214e-6
-0.604, 7.225e-6
-0.605, 7.255e-6
-0.606, 7.288e-6
-0.607, 7.282e-6
-0.608, 7.332e-6
-0.609, 7.383e-6
-0.610, 7.417e-6
-0.611, 7.476e-6
-0.612, 7.494e-6
-0.613, 7.519e-6
-0.614, 7.540e-6
-0.615, 7.626e-6
-0.616, 7.811e-6
-0.617, 7.761e-6
-0.618, 7.701e-6
-0.619, 7.846e-6
-0.620, 7.961e-6
-0.621, 7.973e-6
-0.622, 7.938e-6
-0.623, 7.941e-6
-0.624, 7.992e-6
-0.625, 8.020e-6
-0.626, 8.044e-6
-0.627, 8.094e-6
-0.628, 8.133e-6
-0.629, 8.197e-6
-0.630, 8.218e-6
-0.631, 8.237e-6
-0.632, 8.214e-6
-0.633, 8.316e-6
-0.634, 8.394e-6
-0.635, 8.443e-6
-0.636, 8.440e-6
-0.637, 8.426e-6
-0.638, 8.472e-6
-0.639, 8.497e-6
-0.640, 8.566e-6
-0.641, 8.595e-6
-0.642, 8.594e-6
-0.643, 8.638e-6
-0.644, 8.683e-6
-0.645, 8.711e-6
-0.646, 8.760e-6
-0.647, 8.894e-6
-0.648, 8.944e-6
-0.649, 8.940e-6
-0.650, 8.948e-6
-0.651, 8.936e-6
-0.652, 8.971e-6
-0.653, 8.992e-6
-0.654, 9.011e-6
-0.655, 9.056e-6
-0.656, 9.123e-6
-0.657, 9.158e-6
-0.658, 9.215e-6
-0.659, 9.264e-6
-0.660, 9.316e-6
-0.661, 9.343e-6
-0.662, 9.377e-6
-0.663, 9.422e-6
-0.664, 9.467e-6
-0.665, 9.488e-6
-0.666, 9.510e-6
-0.667, 9.509e-6
-0.668, 9.547e-6
-0.669, 9.635e-6
-0.670, 9.677e-6
-0.671, 9.672e-6
-0.672, 9.694e-6
-0.673, 9.713e-6
-0.674, 9.761e-6
-0.675, 9.847e-6
-0.676, 9.865e-6
-0.677, 9.886e-6
-0.678, 9.882e-6
-0.679, 9.931e-6
-0.680, 9.956e-6
-0.681, 9.955e-6
-0.682, 9.980e-6
-0.683, 9.989e-6
-0.684, 1.004e-5
-0.685, 1.009e-5
-0.686, 1.012e-5
-0.687, 1.014e-5
-0.688, 1.016e-5
-0.689, 1.016e-5
-0.690, 1.012e-5
-0.691, 1.014e-5
-0.692, 1.015e-5
-0.693, 1.014e-5
-0.694, 1.016e-5
-0.695, 1.019e-5
-0.696, 1.027e-5
-0.697, 1.024e-5
-0.698, 1.026e-5
-0.699, 1.030e-5
-0.700, 1.031e-5
-0.701, 1.035e-5
-0.702, 1.030e-5
-0.703, 1.028e-5
-0.704, 1.029e-5
-0.705, 1.031e-5
-0.706, 1.034e-5
-0.707, 1.032e-5
-0.708, 1.034e-5
-0.709, 1.035e-5
-0.710, 1.038e-5
-0.711, 1.036e-5
-0.712, 1.039e-5
-0.713, 1.040e-5
-0.714, 1.043e-5
-0.715, 1.043e-5
-0.716, 1.044e-5
-0.717, 1.042e-5
-0.718, 1.046e-5
-0.719, 1.051e-5
-0.720, 1.048e-5
-0.721, 1.052e-5
-0.722, 1.048e-5
-0.723, 1.051e-5
-0.724, 1.049e-5
-0.725, 1.053e-5
-0.726, 1.053e-5
-0.727, 1.056e-5
-0.728, 1.049e-5
-0.729, 1.044e-5
-0.730, 1.037e-5
-0.731, 1.036e-5
-0.732, 1.036e-5
-0.733, 1.037e-5
-0.734, 1.036e-5
-0.735, 1.035e-5
-0.736, 1.038e-5
-0.737, 1.045e-5
-0.738, 1.041e-5
-0.739, 1.043e-5
-0.740, 1.047e-5
-0.741, 1.047e-5
-0.742, 1.047e-5
-0.743, 1.046e-5
-0.744, 1.052e-5
-0.745, 1.060e-5
-0.746, 1.057e-5
-0.747, 1.055e-5
-0.748, 1.050e-5
-0.749, 1.051e-5
-0.750, 1.053e-5
-0.751, 1.055e-5
-0.752, 1.055e-5
-0.753, 1.059e-5
-0.754, 1.063e-5
-0.755, 1.064e-5
-0.756, 1.065e-5
-0.757, 1.064e-5
-0.758, 1.065e-5
-0.759, 1.067e-5
-0.760, 1.067e-5
-0.761, 1.064e-5
-0.762, 1.066e-5
-0.763, 1.068e-5
-0.764, 1.070e-5
-0.765, 1.072e-5
-0.766, 1.075e-5
-0.767, 1.075e-5
-0.768, 1.075e-5
-0.769, 1.075e-5
-0.770, 1.073e-5
-0.771, 1.074e-5
-0.772, 1.075e-5
-0.773, 1.074e-5
-0.774, 1.077e-5
-0.775, 1.077e-5
-0.776, 1.075e-5
-0.777, 1.072e-5
-0.778, 1.072e-5
-0.779, 1.072e-5
-0.780, 1.073e-5
-0.781, 1.070e-5
-0.782, 1.071e-5
-0.783, 1.071e-5
-0.784, 1.076e-5
-0.785, 1.077e-5
-0.786, 1.073e-5
-0.787, 1.076e-5
-0.788, 1.080e-5
-0.789, 1.077e-5
-0.790, 1.079e-5
-0.791, 1.076e-5
-0.792, 1.075e-5
-0.793, 1.074e-5
-0.794, 1.072e-5
-0.795, 1.073e-5
-0.796, 1.070e-5
-0.797, 1.067e-5
-0.798, 1.071e-5
-0.799, 1.071e-5
-0.800, 1.076e-5
-0.801, 1.077e-5
-0.802, 1.079e-5
-0.803, 1.076e-5
-0.804, 1.077e-5
-0.805, 1.078e-5
-0.806, 1.079e-5
-0.807, 1.077e-5
-0.808, 1.079e-5
-0.809, 1.081e-5
-0.810, 1.084e-5
-0.811, 1.085e-5
-0.812, 1.088e-5
-0.813, 1.093e-5
-0.814, 1.092e-5
-0.815, 1.092e-5
-0.816, 1.094e-5
-0.817, 1.095e-5
-0.818, 1.098e-5
-0.819, 1.101e-5
-0.820, 1.101e-5
-0.821, 1.097e-5
-0.822, 1.097e-5
-0.823, 1.100e-5
-0.824, 1.105e-5
-0.825, 1.105e-5
-0.826, 1.105e-5
-0.827, 1.106e-5
-0.828, 1.107e-5
-0.829, 1.110e-5
-0.830, 1.115e-5
-0.831, 1.117e-5
-0.832, 1.117e-5
-0.833, 1.121e-5
-0.834, 1.113e-5
-0.835, 1.110e-5
-0.836, 1.112e-5
-0.837, 1.113e-5
-0.838, 1.114e-5
-0.839, 1.115e-5
-0.840, 1.116e-5
-0.841, 1.116e-5
-0.842, 1.113e-5
-0.843, 1.115e-5
-0.844, 1.118e-5
-0.845, 1.122e-5
-0.846, 1.122e-5
-0.847, 1.122e-5
-0.848, 1.120e-5
-0.849, 1.122e-5
-0.850, 1.127e-5
-0.851, 1.127e-5
-0.852, 1.130e-5
-0.853, 1.131e-5
-0.854, 1.130e-5
-0.855, 1.134e-5
-0.856, 1.135e-5
-0.857, 1.130e-5
-0.858, 1.133e-5
-0.859, 1.138e-5
-0.860, 1.141e-5
-0.861, 1.138e-5
-0.862, 1.139e-5
-0.863, 1.142e-5
-0.864, 1.141e-5
-0.865, 1.141e-5
-0.866, 1.140e-5
-0.867, 1.142e-5
-0.868, 1.145e-5
-0.869, 1.146e-5
-0.870, 1.150e-5
-0.871, 1.155e-5
-0.872, 1.152e-5
-0.873, 1.151e-5
-0.874, 1.152e-5
-0.875, 1.149e-5
-0.876, 1.152e-5
-0.877, 1.156e-5
-0.878, 1.155e-5
-0.879, 1.160e-5
-0.880, 1.172e-5
-0.881, 1.180e-5
-0.882, 1.180e-5
-0.883, 1.181e-5
-0.884, 1.184e-5
-0.885, 1.185e-5
-0.886, 1.185e-5
-0.887, 1.186e-5
-0.888, 1.185e-5
-0.889, 1.187e-5
-0.890, 1.190e-5
-0.891, 1.196e-5
-0.892, 1.197e-5
-0.893, 1.199e-5
-0.894, 1.200e-5
-0.895, 1.202e-5
-0.896, 1.200e-5
-0.897, 1.200e-5
-0.898, 1.201e-5
-0.899, 1.203e-5
-0.900, 1.209e-5
-0.901, 1.214e-5
-0.902, 1.214e-5
-0.903, 1.214e-5
-0.904, 1.217e-5
-0.905, 1.220e-5
-0.906, 1.223e-5
-0.907, 1.226e-5
-0.908, 1.229e-5
-0.909, 1.231e-5
-0.910, 1.233e-5
-0.911, 1.234e-5
-0.912, 1.232e-5
-0.913, 1.236e-5
-0.914, 1.242e-5
-0.915, 1.246e-5
-0.916, 1.249e-5
-0.917, 1.252e-5
-0.918, 1.253e-5
-0.919, 1.252e-5
-0.920, 1.259e-5
-0.921, 1.263e-5
-0.922, 1.270e-5
-0.923, 1.274e-5
-0.924, 1.281e-5
-0.925, 1.285e-5
-0.926, 1.293e-5
-0.927, 1.296e-5
-0.928, 1.301e-5
-0.929, 1.303e-5
-0.930, 1.314e-5
-0.931, 1.324e-5
-0.932, 1.325e-5
-0.933, 1.331e-5
-0.934, 1.334e-5
-0.935, 1.338e-5
-0.936, 1.345e-5
-0.937, 1.349e-5
-0.938, 1.351e-5
-0.939, 1.358e-5
-0.940, 1.365e-5
-0.941, 1.374e-5
-0.942, 1.380e-5
-0.943, 1.392e-5
-0.944, 1.400e-5
-0.945, 1.403e-5
-0.946, 1.406e-5
-0.947, 1.418e-5
-0.948, 1.430e-5
-0.949, 1.433e-5
-0.950, 1.440e-5
-0.951, 1.450e-5
-0.952, 1.456e-5
-0.953, 1.462e-5
-0.954, 1.470e-5
-0.955, 1.474e-5
-0.956, 1.477e-5
-0.957, 1.485e-5
-0.958, 1.497e-5
-0.959, 1.501e-5
-0.960, 1.517e-5
-0.961, 1.516e-5
-0.962, 1.508e-5
-0.963, 1.508e-5
-0.964, 1.512e-5
-0.965, 1.512e-5
-0.966, 1.513e-5
-0.967, 1.516e-5
-0.968, 1.518e-5
-0.969, 1.531e-5
-0.970, 1.537e-5
-0.971, 1.537e-5
-0.972, 1.532e-5
-0.973, 1.530e-5
-0.974, 1.531e-5
-0.975, 1.536e-5
-0.976, 1.539e-5
-0.977, 1.543e-5
-0.978, 1.546e-5
-0.979, 1.549e-5
-0.980, 1.563e-5
-0.981, 1.593e-5
-0.982, 1.605e-5
-0.983, 1.619e-5
-0.984, 1.615e-5
-0.985, 1.629e-5
-0.986, 1.643e-5
-0.987, 1.650e-5
-0.988, 1.663e-5
-0.989, 1.668e-5
-0.990, 1.677e-5
-0.991, 1.659e-5
-0.992, 1.658e-5
-0.993, 1.664e-5
-0.994, 1.694e-5
-0.995, 1.692e-5
-0.996, 1.697e-5
-0.997, 1.745e-5
-0.998, 1.790e-5
-0.999, 1.815e-5
-1.000, 1.838e-5
-1.001, 1.847e-5
-1.002, 1.858e-5
-1.003, 1.869e-5
-1.004, 1.876e-5
-1.005, 1.908e-5
-1.006, 1.908e-5
-1.007, 1.910e-5
-1.008, 1.927e-5
-1.009, 1.944e-5
-1.010, 1.965e-5
-1.011, 1.991e-5
-1.012, 2.005e-5
-1.013, 1.995e-5
-1.014, 1.991e-5
-1.015, 2.004e-5
-1.016, 2.010e-5
-1.017, 2.023e-5
-1.018, 2.040e-5
-1.019, 2.047e-5
-1.020, 2.095e-5
-1.021, 2.179e-5
-1.022, 2.207e-5
-1.023, 2.225e-5
-1.024, 2.254e-5
-1.025, 2.268e-5
-1.026, 2.263e-5
-1.027, 2.238e-5
-1.028, 2.235e-5
-1.029, 2.230e-5
-1.030, 2.251e-5
-1.031, 2.254e-5
-1.032, 2.259e-5
-1.033, 2.261e-5
-1.034, 2.264e-5
-1.035, 2.272e-5
-1.036, 2.307e-5
-1.037, 2.315e-5
-1.038, 2.273e-5
-1.039, 2.293e-5
-1.040, 2.301e-5
-1.041, 2.286e-5
-1.042, 2.357e-5
-1.043, 2.378e-5
-1.044, 2.345e-5
-1.045, 2.359e-5
-1.046, 2.395e-5
-1.047, 2.404e-5
-1.048, 2.408e-5
-1.049, 2.412e-5
-1.050, 2.418e-5
-1.051, 2.410e-5
-1.052, 2.414e-5
-1.053, 2.410e-5
-1.054, 2.401e-5
-1.055, 2.352e-5
-1.056, 2.343e-5
-1.057, 2.344e-5
-1.058, 2.342e-5
-1.059, 2.343e-5
-1.060, 2.347e-5
-1.061, 2.352e-5
-1.062, 2.358e-5
-1.063, 2.361e-5
-1.064, 2.364e-5
-1.065, 2.368e-5
-1.066, 2.372e-5
-1.067, 2.376e-5
-1.068, 2.382e-5
-1.069, 2.388e-5
-1.070, 2.398e-5
-1.071, 2.401e-5
-1.072, 2.404e-5
-1.073, 2.410e-5
-1.074, 2.416e-5
-1.075, 2.417e-5
-1.076, 2.420e-5
-1.077, 2.428e-5
-1.078, 2.436e-5
-1.079, 2.445e-5
-1.080, 2.457e-5
-1.081, 2.467e-5
-1.082, 2.475e-5
-1.083, 2.496e-5
-1.084, 2.514e-5
-1.085, 2.523e-5
-1.086, 2.532e-5
-1.087, 2.542e-5
-1.088, 2.547e-5
-1.089, 2.551e-5
-1.090, 2.549e-5
-1.091, 2.549e-5
-1.092, 2.545e-5
-1.093, 2.542e-5
-1.094, 2.543e-5
-1.095, 2.546e-5
-1.096, 2.549e-5
-1.097, 2.550e-5
-1.098, 2.559e-5
-1.099, 2.569e-5
-1.100, 2.585e-5
-1.101, 2.607e-5
-1.102, 2.627e-5
-1.103, 2.632e-5
-1.104, 2.637e-5
-1.105, 2.643e-5
-1.106, 2.648e-5
-1.107, 2.654e-5
-1.108, 2.665e-5
-1.109, 2.663e-5
-1.110, 2.664e-5
-1.111, 2.667e-5
-1.112, 2.670e-5
-1.113, 2.674e-5
-1.114, 2.673e-5
-1.115, 2.678e-5
-1.116, 2.684e-5
-1.117, 2.687e-5
-1.118, 2.690e-5
-1.119, 2.701e-5
-1.120, 2.712e-5
-1.121, 2.718e-5
-1.122, 2.725e-5
-1.123, 2.732e-5
-1.124, 2.737e-5
-1.125, 2.747e-5
-1.126, 2.751e-5
-1.127, 2.756e-5
-1.128, 2.765e-5
-1.129, 2.776e-5
-1.130, 2.788e-5
-1.131, 2.799e-5
-1.132, 2.806e-5
-1.133, 2.818e-5
-1.134, 2.825e-5
-1.135, 2.835e-5
-1.136, 2.844e-5
-1.137, 2.858e-5
-1.138, 2.872e-5
-1.139, 2.877e-5
-1.140, 2.884e-5
-1.141, 2.897e-5
-1.142, 2.911e-5
-1.143, 2.921e-5
-1.144, 2.930e-5
-1.145, 2.933e-5
-1.146, 2.944e-5
-1.147, 2.954e-5
-1.148, 2.964e-5
-1.149, 2.976e-5
-1.150, 2.994e-5
-1.151, 3.013e-5
-1.152, 3.021e-5
-1.153, 3.027e-5
-1.154, 3.034e-5
-1.155, 3.046e-5
-1.156, 3.055e-5
-1.157, 3.065e-5
-1.158, 3.075e-5
-1.159, 3.086e-5
-1.160, 3.098e-5
-1.161, 3.109e-5
-1.162, 3.120e-5
-1.163, 3.137e-5
-1.164, 3.151e-5
-1.165, 3.165e-5
-1.166, 3.178e-5
-1.167, 3.188e-5
-1.168, 3.201e-5
-1.169, 3.213e-5
-1.170, 3.224e-5
-1.171, 3.234e-5
-1.172, 3.243e-5
-1.173, 3.253e-5
-1.174, 3.268e-5
-1.175, 3.283e-5
-1.176, 3.297e-5
-1.177, 3.313e-5
-1.178, 3.338e-5
-1.179, 3.360e-5
-1.180, 3.377e-5
-1.181, 3.394e-5
-1.182, 3.406e-5
-1.183, 3.426e-5
-1.184, 3.445e-5
-1.185, 3.467e-5
-1.186, 3.481e-5
-1.187, 3.492e-5
-1.188, 3.506e-5
-1.189, 3.518e-5
-1.190, 3.532e-5
-1.191, 3.546e-5
-1.192, 3.560e-5
-1.193, 3.569e-5
-1.194, 3.586e-5
-1.195, 3.605e-5
-1.196, 3.622e-5
-1.197, 3.643e-5
-1.198, 3.651e-5
-1.199, 3.658e-5
-1.200, 3.671e-5
-1.201, 3.684e-5
-1.202, 3.691e-5
-1.203, 3.697e-5
-1.204, 3.708e-5
-1.205, 3.721e-5
-1.206, 3.742e-5
-1.207, 3.752e-5
-1.208, 3.767e-5
-1.209, 3.776e-5
-1.210, 3.789e-5
-1.211, 3.803e-5
-1.212, 3.813e-5
-1.213, 3.823e-5
-1.214, 3.838e-5
-1.215, 3.850e-5
-1.216, 3.858e-5
-1.217, 3.870e-5
-1.218, 3.882e-5
-1.219, 3.895e-5
-1.220, 3.911e-5
-1.221, 3.922e-5
-1.222, 3.934e-5
-1.223, 3.943e-5
-1.224, 3.950e-5
-1.225, 3.962e-5
-1.226, 3.974e-5
-1.227, 3.985e-5
-1.228, 3.995e-5
-1.229, 4.009e-5
-1.230, 4.022e-5
-1.231, 4.033e-5
-1.232, 4.043e-5
-1.233, 4.054e-5
-1.234, 4.067e-5
-1.235, 4.077e-5
-1.236, 4.086e-5
-1.237, 4.097e-5
-1.238, 4.110e-5
-1.239, 4.122e-5
-1.240, 4.140e-5
-1.241, 4.166e-5
-1.242, 4.174e-5
-1.243, 4.184e-5
-1.244, 4.193e-5
-1.245, 4.200e-5
-1.246, 4.207e-5
-1.247, 4.214e-5
-1.248, 4.224e-5
-1.249, 4.455e-5
-1.250, 4.612e-5
-1.251, 4.593e-5
-1.252, 4.595e-5
-1.253, 4.610e-5
-1.254, 4.621e-5
-1.255, 4.617e-5
-1.256, 4.605e-5
-1.257, 4.597e-5
-1.258, 4.567e-5
-1.259, 4.536e-5
-1.260, 4.515e-5
-1.261, 4.501e-5
-1.262, 4.491e-5
-1.263, 4.494e-5
-1.264, 4.508e-5
-1.265, 4.516e-5
-1.266, 4.522e-5
-1.267, 4.533e-5
-1.268, 4.547e-5
-1.269, 4.556e-5
-1.270, 4.565e-5
-1.271, 4.580e-5
-1.272, 4.603e-5
-1.273, 4.636e-5
-1.274, 4.645e-5
-1.275, 4.656e-5
-1.276, 4.657e-5
-1.277, 4.667e-5
-1.278, 4.681e-5
-1.279, 4.709e-5
-1.280, 4.727e-5
-1.281, 4.739e-5
-1.282, 4.750e-5
-1.283, 4.766e-5
-1.284, 4.781e-5
-1.285, 4.790e-5
-1.286, 4.813e-5
-1.287, 4.835e-5
-1.288, 4.846e-5
-1.289, 4.861e-5
-1.290, 4.879e-5
-1.291, 4.890e-5
-1.292, 4.901e-5
-1.293, 4.917e-5
-1.294, 4.931e-5
-1.295, 4.946e-5
-1.296, 4.960e-5
-1.297, 4.972e-5
-1.298, 4.988e-5
-1.299, 5.004e-5
-1.300, 5.019e-5
-1.301, 5.033e-5
-1.302, 5.047e-5
-1.303, 5.054e-5
-1.304, 5.070e-5
-1.305, 5.086e-5
-1.306, 5.073e-5
-1.307, 5.070e-5
-1.308, 5.092e-5
-1.309, 5.100e-5
-1.310, 5.108e-5
-1.311, 5.117e-5
-1.312, 5.130e-5
-1.313, 5.141e-5
-1.314, 5.156e-5
-1.315, 5.170e-5
-1.316, 5.183e-5
-1.317, 5.195e-5
-1.318, 5.213e-5
-1.319, 5.230e-5
-1.320, 5.244e-5
-1.321, 5.264e-5
-1.322, 5.283e-5
-1.323, 5.294e-5
-1.324, 5.304e-5
-1.325, 5.319e-5
-1.326, 5.331e-5
-1.327, 5.346e-5
-1.328, 5.376e-5
-1.329, 5.405e-5
-1.330, 5.424e-5
-1.331, 5.435e-5
-1.332, 5.446e-5
-1.333, 5.457e-5
-1.334, 5.474e-5
-1.335, 5.495e-5
-1.336, 5.518e-5
-1.337, 5.538e-5
-1.338, 5.557e-5
-1.339, 5.581e-5
-1.340, 5.622e-5
-1.341, 5.660e-5
-1.342, 5.673e-5
-1.343, 5.679e-5
-1.344, 5.703e-5
-1.345, 5.730e-5
-1.346, 5.742e-5
-1.347, 5.762e-5
-1.348, 5.788e-5
-1.349, 5.806e-5
-1.350, 5.820e-5
-1.351, 5.833e-5
-1.352, 5.881e-5
-1.353, 5.909e-5
-1.354, 5.927e-5
-1.355, 5.946e-5
-1.356, 5.964e-5
-1.357, 5.984e-5
-1.358, 6.005e-5
-1.359, 6.026e-5
-1.360, 6.053e-5
-1.361, 6.065e-5
-1.362, 6.068e-5
-1.363, 6.074e-5
-1.364, 6.089e-5
-1.365, 6.110e-5
-1.366, 6.131e-5
-1.367, 6.144e-5
-1.368, 6.156e-5
-1.369, 6.172e-5
-1.370, 6.198e-5
-1.371, 6.234e-5
-1.372, 6.267e-5
-1.373, 6.285e-5
-1.374, 6.297e-5
-1.375, 6.308e-5
-1.376, 6.323e-5
-1.377, 6.334e-5
-1.378, 6.342e-5
-1.379, 6.362e-5
-1.380, 6.388e-5
-1.381, 6.417e-5
-1.382, 6.437e-5
-1.383, 6.452e-5
-1.384, 6.471e-5
-1.385, 6.494e-5
-1.386, 6.520e-5
-1.387, 6.536e-5
-1.388, 6.550e-5
-1.389, 6.567e-5
-1.390, 6.586e-5
-1.391, 6.616e-5
-1.392, 6.636e-5
-1.393, 6.651e-5
-1.394, 6.668e-5
-1.395, 6.681e-5
-1.396, 6.698e-5
-1.397, 6.709e-5
-1.398, 6.721e-5
-1.399, 6.740e-5
-1.400, 6.764e-5
-1.401, 6.785e-5
-1.402, 6.802e-5
-1.403, 6.825e-5
-1.404, 6.868e-5
-1.405, 6.884e-5
-1.406, 6.898e-5
-1.407, 6.913e-5
-1.408, 6.927e-5
-1.409, 6.948e-5
-1.410, 6.974e-5
-1.411, 7.001e-5
-1.412, 7.035e-5
-1.413, 7.073e-5
-1.414, 7.121e-5
-1.415, 7.158e-5
-1.416, 7.199e-5
-1.417, 7.260e-5
-1.418, 7.272e-5
-1.419, 7.274e-5
-1.420, 7.281e-5
-1.421, 7.308e-5
-1.422, 7.332e-5
-1.423, 7.359e-5
-1.424, 7.406e-5
-1.425, 7.461e-5
-1.426, 7.492e-5
-1.427, 7.497e-5
-1.428, 7.507e-5
-1.429, 7.521e-5
-1.430, 7.662e-5
-1.431, 7.735e-5
-1.432, 7.747e-5
-1.433, 7.722e-5
-1.434, 7.752e-5
-1.435, 7.798e-5
-1.436, 7.955e-5
-1.437, 7.940e-5
-1.438, 7.853e-5
-1.439, 7.882e-5
-1.440, 7.918e-5
-1.441, 7.943e-5
-1.442, 7.977e-5
-1.443, 8.016e-5
-1.444, 8.063e-5
-1.445, 8.114e-5
-1.446, 8.143e-5
-1.447, 8.174e-5
-1.448, 8.215e-5
-1.449, 8.257e-5
-1.450, 8.298e-5
-1.451, 8.341e-5
-1.452, 8.380e-5
-1.453, 8.421e-5
-1.454, 8.458e-5
-1.455, 8.487e-5
-1.456, 8.521e-5
-1.457, 8.553e-5
-1.458, 8.592e-5
-1.459, 8.644e-5
-1.460, 8.703e-5
-1.461, 8.742e-5
-1.462, 8.788e-5
-1.463, 8.850e-5
-1.464, 8.895e-5
-1.465, 8.946e-5
-1.466, 8.995e-5
-1.467, 9.037e-5
-1.468, 9.079e-5
-1.469, 9.125e-5
-1.470, 9.181e-5
-1.471, 9.235e-5
-1.472, 9.278e-5
-1.473, 9.326e-5
-1.474, 9.370e-5
-1.475, 9.411e-5
-1.476, 9.452e-5
-1.477, 9.493e-5
-1.478, 9.527e-5
-1.479, 9.578e-5
-1.480, 9.631e-5
-1.481, 9.683e-5
-1.482, 9.746e-5
-1.483, 9.804e-5
-1.484, 9.849e-5
-1.485, 9.907e-5
-1.486, 9.969e-5
-1.487, 1.009e-4
-1.488, 1.017e-4
-1.489, 1.023e-4
-1.490, 1.027e-4
-1.491, 1.033e-4
-1.492, 1.040e-4
-1.493, 1.044e-4
-1.494, 1.050e-4
-1.495, 1.057e-4
-1.496, 1.064e-4
-1.497, 1.070e-4
-1.498, 1.075e-4
-1.499, 1.081e-4
-1.500, 1.087e-4
-1.501, 1.095e-4
-1.502, 1.102e-4
-1.503, 1.107e-4
-1.504, 1.113e-4
-1.505, 1.120e-4
-1.506, 1.127e-4
-1.507, 1.134e-4
-1.508, 1.141e-4
-1.509, 1.147e-4
-1.510, 1.156e-4
-1.511, 1.163e-4
-1.512, 1.172e-4
-1.513, 1.181e-4
-1.514, 1.189e-4
-1.515, 1.201e-4
-1.516, 1.213e-4
-1.517, 1.224e-4
-1.518, 1.233e-4
-1.519, 1.236e-4
-1.520, 1.246e-4
-1.521, 1.255e-4
-1.522, 1.266e-4
-1.523, 1.278e-4
-1.524, 1.285e-4
-1.525, 1.295e-4
-1.526, 1.304e-4
-1.527, 1.313e-4
-1.528, 1.323e-4
-1.529, 1.334e-4
-1.530, 1.347e-4
-1.531, 1.371e-4
-1.532, 1.387e-4
-1.533, 1.392e-4
-1.534, 1.398e-4
-1.535, 1.407e-4
-1.536, 1.422e-4
-1.537, 1.434e-4
-1.538, 1.443e-4
-1.539, 1.451e-4
-1.540, 1.460e-4
-1.541, 1.477e-4
-1.542, 1.495e-4
-1.543, 1.503e-4
-1.544, 1.514e-4
-1.545, 1.524e-4
-1.546, 1.535e-4
-1.547, 1.546e-4
-1.548, 1.557e-4
-1.549, 1.568e-4
-1.550, 1.581e-4
-1.551, 1.598e-4
-1.552, 1.610e-4
-1.553, 1.619e-4
-1.554, 1.631e-4
-1.555, 1.645e-4
-1.556, 1.660e-4
-1.557, 1.676e-4
-1.558, 1.692e-4
-1.559, 1.708e-4
-1.560, 1.723e-4
-1.561, 1.737e-4
-1.562, 1.751e-4
-1.563, 1.764e-4
-1.564, 1.778e-4
-1.565, 1.793e-4
-1.566, 1.809e-4
-1.567, 1.824e-4
-1.568, 1.839e-4
-1.569, 1.853e-4
-1.570, 1.868e-4
-1.571, 1.883e-4
-1.572, 1.897e-4
-1.573, 1.911e-4
-1.574, 1.928e-4
-1.575, 1.948e-4
-1.576, 1.967e-4
-1.577, 1.981e-4
-1.578, 1.998e-4
-1.579, 2.016e-4
-1.580, 2.035e-4
-1.581, 2.054e-4
-1.582, 2.074e-4
-1.583, 2.092e-4
-1.584, 2.112e-4
-1.585, 2.130e-4
-1.586, 2.149e-4
-1.587, 2.171e-4
-1.588, 2.198e-4
-1.589, 2.221e-4
-1.590, 2.242e-4
-1.591, 2.261e-4
-1.592, 2.283e-4
-1.593, 2.304e-4
-1.594, 2.324e-4
-1.595, 2.343e-4
-1.596, 2.361e-4
-1.597, 2.380e-4
-1.598, 2.401e-4
-1.599, 2.416e-4
-1.600, 2.435e-4
-1.601, 2.455e-4
-1.602, 2.477e-4
-1.603, 2.501e-4
-1.604, 2.526e-4
-1.605, 2.551e-4
-1.606, 2.574e-4
-1.607, 2.599e-4
-1.608, 2.623e-4
-1.609, 2.647e-4
-1.610, 2.672e-4
-1.611, 2.698e-4
-1.612, 2.725e-4
-1.613, 2.751e-4
-1.614, 2.779e-4
-1.615, 2.807e-4
-1.616, 2.836e-4
-1.617, 2.863e-4
-1.618, 2.888e-4
-1.619, 2.912e-4
-1.620, 2.937e-4
-1.621, 2.965e-4
-1.622, 2.993e-4
-1.623, 3.023e-4
-1.624, 3.055e-4
-1.625, 3.083e-4
-1.626, 3.115e-4
-1.627, 3.154e-4
-1.628, 3.174e-4
-1.629, 3.202e-4
-1.630, 3.233e-4
-1.631, 3.267e-4
-1.632, 3.301e-4
-1.633, 3.335e-4
-1.634, 3.371e-4
-1.635, 3.408e-4
-1.636, 3.445e-4
-1.637, 3.481e-4
-1.638, 3.517e-4
-1.639, 3.555e-4
-1.640, 3.593e-4
-1.641, 3.632e-4
-1.642, 3.671e-4
-1.643, 3.712e-4
-1.644, 3.752e-4
-1.645, 3.792e-4
-1.646, 3.833e-4
-1.647, 3.875e-4
-1.648, 3.920e-4
-1.649, 3.965e-4
-1.650, 4.007e-4
-1.651, 4.051e-4
-1.652, 4.094e-4
-1.653, 4.140e-4
-1.654, 4.186e-4
-1.655, 4.233e-4
-1.656, 4.281e-4
-1.657, 4.329e-4
-1.658, 4.376e-4
-1.659, 4.425e-4
-1.660, 4.477e-4
-1.661, 4.531e-4
-1.662, 4.583e-4
-1.663, 4.633e-4
-1.664, 4.684e-4
-1.665, 4.736e-4
-1.666, 4.788e-4
-1.667, 4.842e-4
-1.668, 4.900e-4
-1.669, 4.958e-4
-1.670, 5.015e-4
-1.671, 5.068e-4
-1.672, 5.124e-4
-1.673, 5.183e-4
-1.674, 5.243e-4
-1.675, 5.306e-4
-1.676, 5.368e-4
-1.677, 5.429e-4
-1.678, 5.490e-4
-1.679, 5.551e-4
-1.680, 5.613e-4
-1.681, 5.676e-4
-1.682, 5.741e-4
-1.683, 5.806e-4
-1.684, 5.872e-4
-1.685, 5.937e-4
-1.686, 6.004e-4
-1.687, 6.072e-4
-1.688, 6.142e-4
-1.689, 6.211e-4
-1.690, 6.282e-4
-1.691, 6.353e-4
-1.692, 6.420e-4
-1.693, 6.493e-4
-1.694, 6.567e-4
-1.695, 6.643e-4
-1.696, 6.725e-4
-1.697, 6.801e-4
-1.698, 6.872e-4
-1.699, 6.943e-4
-1.700, 7.021e-4
-1.701, 7.101e-4
-1.702, 7.182e-4
-1.703, 7.260e-4
-1.704, 7.341e-4
-1.705, 7.423e-4
-1.706, 7.505e-4
-1.707, 7.585e-4
-1.708, 7.668e-4
-1.709, 7.750e-4
-1.710, 7.833e-4
-1.711, 7.916e-4
-1.712, 7.999e-4
-1.713, 8.081e-4
-1.714, 8.163e-4
-1.715, 8.256e-4
-1.716, 8.348e-4
-1.717, 8.438e-4
-1.718, 8.527e-4
-1.719, 8.618e-4
-1.720, 8.711e-4
-1.721, 8.800e-4
-1.722, 8.891e-4
-1.723, 8.983e-4
-1.724, 9.075e-4
-1.725, 9.171e-4
-1.726, 9.266e-4
-1.727, 9.361e-4
-1.728, 9.455e-4
-1.729, 9.543e-4
-1.730, 9.630e-4
-1.731, 9.720e-4
-1.732, 9.812e-4
-1.733, 9.906e-4
-1.734, 9.998e-4
-1.735, 1.009e-3
-1.736, 1.011e-3
-1.737, 1.011e-3
-1.738, 1.011e-3
-1.739, 1.011e-3
-1.740, 1.011e-3
-1.741, 1.011e-3
-1.742, 1.011e-3
-1.743, 1.011e-3
-1.744, 1.011e-3
-1.745, 1.011e-3
-1.746, 1.011e-3
-1.747, 1.011e-3
-1.748, 1.011e-3
-1.749, 1.011e-3
-1.750, 1.011e-3
-1.751, 1.011e-3
-1.752, 1.011e-3
-1.753, 1.011e-3
-1.754, 1.011e-3
-1.755, 1.011e-3
-1.756, 1.011e-3
-1.757, 1.011e-3
-1.758, 1.011e-3
-1.759, 1.011e-3
-1.760, 1.011e-3
-1.761, 1.011e-3
-1.762, 1.011e-3
-1.763, 1.011e-3
-1.764, 1.011e-3
-1.765, 1.011e-3
-1.766, 1.011e-3
-1.767, 1.011e-3
-1.768, 1.011e-3
-1.769, 1.011e-3
-1.770, 1.011e-3
-1.771, 1.011e-3
-1.772, 1.011e-3
-1.773, 1.011e-3
-1.774, 1.011e-3
-1.775, 1.011e-3
-1.776, 1.011e-3
-1.777, 1.011e-3
-1.778, 1.011e-3
-1.779, 1.011e-3
-1.780, 1.011e-3
-1.781, 1.011e-3
-1.782, 1.011e-3
-1.783, 1.011e-3
-1.784, 1.011e-3
-1.785, 1.011e-3
-1.786, 1.011e-3
-1.787, 1.011e-3
-1.788, 1.011e-3
-1.789, 1.011e-3
-1.790, 1.011e-3
-1.791, 1.011e-3
-1.792, 1.011e-3
-1.793, 1.011e-3
-1.794, 1.011e-3
-1.795, 1.011e-3
-1.796, 1.011e-3
-1.797, 1.011e-3
-1.798, 1.011e-3
-1.799, 1.011e-3
-1.800, 1.011e-3
-1.801, 1.011e-3
-1.802, 1.011e-3
-1.803, 1.011e-3
-1.804, 1.011e-3
-1.805, 1.011e-3
-1.806, 1.011e-3
-1.807, 1.011e-3
-1.808, 1.011e-3
-1.809, 1.011e-3
-1.810, 1.011e-3
-1.811, 1.011e-3
-1.812, 1.011e-3
-1.813, 1.011e-3
-1.814, 1.011e-3
-1.815, 1.011e-3
-1.816, 1.011e-3
-1.817, 1.011e-3
-1.818, 1.011e-3
-1.819, 1.011e-3
-1.820, 1.011e-3
-1.821, 1.011e-3
-1.822, 1.011e-3
-1.823, 1.011e-3
-1.824, 1.011e-3
-1.825, 1.011e-3
-1.826, 1.011e-3
-1.827, 1.011e-3
-1.828, 1.011e-3
-1.829, 1.011e-3
-1.830, 1.011e-3
-1.831, 1.011e-3
-1.832, 1.011e-3
-1.833, 1.011e-3
-1.834, 1.011e-3
-1.835, 1.011e-3
-1.836, 1.011e-3
-1.837, 1.011e-3
-1.838, 1.011e-3
-1.839, 1.011e-3
-1.840, 1.011e-3
-1.841, 1.011e-3
-1.842, 1.011e-3
-1.843, 1.011e-3
-1.844, 1.011e-3
-1.845, 1.011e-3
-1.846, 1.011e-3
-1.847, 1.011e-3
-1.848, 1.011e-3
-1.849, 1.011e-3
-1.850, 1.011e-3
-1.851, 1.011e-3
-1.852, 1.011e-3
-1.853, 1.011e-3
-1.854, 1.011e-3
-1.855, 1.011e-3
-1.856, 1.011e-3
-1.857, 1.011e-3
-1.858, 1.011e-3
-1.859, 1.011e-3
-1.860, 1.011e-3
-1.861, 1.011e-3
-1.862, 1.011e-3
-1.863, 1.011e-3
-1.864, 1.011e-3
-1.865, 1.011e-3
-1.866, 1.011e-3
-1.867, 1.011e-3
-1.868, 1.011e-3
-1.869, 1.011e-3
-1.870, 1.011e-3
-1.871, 1.011e-3
-1.872, 1.011e-3
-1.873, 1.011e-3
-1.874, 1.011e-3
-1.875, 1.011e-3
-1.876, 1.011e-3
-1.877, 1.011e-3
-1.878, 1.011e-3
-1.879, 1.011e-3
-1.880, 1.011e-3
-1.881, 1.011e-3
-1.882, 1.011e-3
-1.883, 1.011e-3
-1.884, 1.011e-3
-1.885, 1.011e-3
-1.886, 1.011e-3
-1.887, 1.011e-3
-1.888, 1.011e-3
-1.889, 1.011e-3
-1.890, 1.011e-3
-1.891, 1.011e-3
-1.892, 1.011e-3
-1.893, 1.011e-3
-1.894, 1.011e-3
-1.895, 1.011e-3
-1.896, 1.011e-3
-1.897, 1.011e-3
-1.898, 1.011e-3
-1.899, 1.011e-3
-1.900, 1.011e-3
-1.901, 1.011e-3
-1.902, 1.011e-3
-1.903, 1.011e-3
-1.904, 1.011e-3
-1.905, 1.011e-3
-1.906, 1.011e-3
-1.907, 1.011e-3
-1.908, 1.011e-3
-1.909, 1.011e-3
-1.910, 1.011e-3
-1.911, 1.011e-3
-1.912, 1.011e-3
-1.913, 1.011e-3
-1.914, 1.011e-3
-1.915, 1.011e-3
-1.916, 1.011e-3
-1.917, 1.011e-3
-1.918, 1.011e-3
-1.919, 1.011e-3
-1.920, 1.011e-3
-1.921, 1.011e-3
-1.922, 1.011e-3
-1.923, 1.011e-3
-1.924, 1.011e-3
-1.925, 1.011e-3
-1.926, 1.011e-3
-1.927, 1.011e-3
-1.928, 1.011e-3
-1.929, 1.011e-3
-1.930, 1.011e-3
-1.931, 1.011e-3
-1.932, 1.011e-3
-1.933, 1.011e-3
-1.934, 1.011e-3
-1.935, 1.011e-3
-1.936, 1.011e-3
-1.937, 1.011e-3
-1.938, 1.011e-3
-1.939, 1.011e-3
-1.940, 1.011e-3
-1.941, 1.011e-3
-1.942, 1.011e-3
-1.943, 1.011e-3
-1.944, 1.011e-3
-1.945, 1.011e-3
-1.946, 1.011e-3
-1.947, 1.011e-3
-1.948, 1.011e-3
-1.949, 1.011e-3
-1.950, 1.011e-3
-1.951, 1.011e-3
-1.952, 1.011e-3
-1.953, 1.011e-3
-1.954, 1.011e-3
-1.955, 1.011e-3
-1.956, 1.011e-3
-1.957, 1.011e-3
-1.958, 1.011e-3
-1.959, 1.011e-3
-1.960, 1.011e-3
-1.961, 1.011e-3
-1.962, 1.011e-3
-1.963, 1.011e-3
-1.964, 1.011e-3
-1.965, 1.011e-3
-1.966, 1.011e-3
-1.967, 1.011e-3
-1.968, 1.011e-3
-1.969, 1.011e-3
-1.970, 1.011e-3
-1.971, 1.011e-3
-1.972, 1.011e-3
-1.973, 1.011e-3
-1.974, 1.011e-3
-1.975, 1.011e-3
-1.976, 1.011e-3
-1.977, 1.011e-3
-1.978, 1.011e-3
-1.979, 1.011e-3
-1.980, 1.011e-3
-1.981, 1.011e-3
-1.982, 1.011e-3
-1.983, 1.011e-3
-1.984, 1.011e-3
-1.985, 1.011e-3
-1.986, 1.011e-3
-1.987, 1.011e-3
-1.988, 1.011e-3
-1.989, 1.011e-3
-1.990, 1.011e-3
-1.991, 1.011e-3
-1.992, 1.011e-3
-1.993, 1.011e-3
-1.994, 1.011e-3
-1.995, 1.011e-3
-1.996, 1.011e-3
-1.997, 1.011e-3
-1.998, 1.011e-3
-1.999, 1.011e-3
-2.000, 1.011e-3
-2.001, 1.011e-3
-2.002, 1.011e-3
-2.003, 1.011e-3
-2.004, 1.011e-3
-2.005, 1.011e-3
-2.006, 1.011e-3
-2.007, 1.011e-3
-2.008, 1.011e-3
-2.009, 1.011e-3
-2.010, 1.011e-3
-2.011, 1.011e-3
-2.012, 1.011e-3
-2.013, 1.011e-3
-2.014, 1.011e-3
-2.015, 1.011e-3
-2.016, 1.011e-3
-2.017, 1.011e-3
-2.018, 1.011e-3
-2.019, 1.011e-3
-2.020, 1.011e-3
-2.021, 1.011e-3
-2.022, 1.011e-3
-2.023, 1.011e-3
-2.024, 1.011e-3
-2.025, 1.011e-3
-2.026, 1.011e-3
-2.027, 1.011e-3
-2.028, 1.011e-3
-2.029, 1.011e-3
-2.030, 1.011e-3
-2.031, 1.011e-3
-2.032, 1.011e-3
-2.033, 1.011e-3
-2.034, 1.011e-3
-2.035, 1.011e-3
-2.036, 1.011e-3
-2.037, 1.011e-3
-2.038, 1.011e-3
-2.039, 1.011e-3
-2.040, 1.011e-3
-2.041, 1.011e-3
-2.042, 1.011e-3
-2.043, 1.011e-3
-2.044, 1.011e-3
-2.045, 1.011e-3
-2.046, 1.011e-3
-2.047, 1.011e-3
-2.048, 1.011e-3
-2.049, 1.011e-3
-2.050, 1.011e-3
-2.051, 1.011e-3
-2.052, 1.011e-3
-2.053, 1.011e-3
-2.054, 1.011e-3
-2.055, 1.011e-3
-2.056, 1.011e-3
-2.057, 1.011e-3
-2.058, 1.011e-3
-2.059, 1.011e-3
-2.060, 1.011e-3
-2.061, 1.011e-3
-2.062, 1.011e-3
-2.063, 1.011e-3
-2.064, 1.011e-3
-2.065, 1.011e-3
-2.066, 1.011e-3
-2.067, 1.011e-3
-2.068, 1.011e-3
-2.069, 1.011e-3
-2.070, 1.011e-3
-2.071, 1.011e-3
-2.072, 1.011e-3
-2.073, 1.011e-3
-2.074, 1.011e-3
-2.075, 1.011e-3
-2.076, 1.011e-3
-2.077, 1.011e-3
-2.078, 1.011e-3
-2.079, 1.011e-3
-2.080, 1.011e-3
-2.081, 1.011e-3
-2.082, 1.011e-3
-2.083, 1.011e-3
-2.084, 1.011e-3
-2.085, 1.011e-3
-2.086, 1.011e-3
-2.087, 1.011e-3
-2.088, 1.011e-3
-2.089, 1.011e-3
-2.090, 1.011e-3
-2.091, 1.011e-3
-2.092, 1.011e-3
-2.093, 1.011e-3
-2.094, 1.011e-3
-2.095, 1.011e-3
-2.096, 1.011e-3
-2.097, 1.011e-3
-2.098, 1.011e-3
-2.099, 1.011e-3
-2.100, 1.011e-3
-2.101, 1.011e-3
-2.102, 1.011e-3
-2.103, 1.011e-3
-2.104, 1.011e-3
-2.105, 1.011e-3
-2.106, 1.011e-3
-2.107, 1.011e-3
-2.108, 1.011e-3
-2.109, 1.011e-3
-2.110, 1.011e-3
-2.111, 1.011e-3
-2.112, 1.011e-3
-2.113, 1.011e-3
-2.114, 1.011e-3
-2.115, 1.011e-3
-2.116, 1.011e-3
-2.117, 1.011e-3
-2.118, 1.011e-3
-2.119, 1.011e-3
-2.120, 1.011e-3
-2.121, 1.011e-3
-2.122, 1.011e-3
-2.123, 1.011e-3
-2.124, 1.011e-3
-2.125, 1.011e-3
-2.126, 1.011e-3
-2.127, 1.011e-3
-2.128, 1.011e-3
-2.129, 1.011e-3
-2.130, 1.011e-3
-2.131, 1.011e-3
-2.132, 1.011e-3
-2.133, 1.011e-3
-2.134, 1.011e-3
-2.135, 1.011e-3
-2.136, 1.011e-3
-2.137, 1.011e-3
-2.138, 1.011e-3
-2.139, 1.011e-3
-2.140, 1.011e-3
-2.141, 1.011e-3
-2.142, 1.011e-3
-2.143, 1.011e-3
-2.144, 1.011e-3
-2.145, 1.011e-3
-2.146, 1.011e-3
-2.147, 1.011e-3
-2.148, 1.011e-3
-2.149, 1.011e-3
-2.150, 1.011e-3
-2.151, 1.011e-3
-2.152, 1.011e-3
-2.153, 1.011e-3
-2.154, 1.011e-3
-2.155, 1.011e-3
-2.156, 1.011e-3
-2.157, 1.011e-3
-2.158, 1.011e-3
-2.159, 1.011e-3
-2.160, 1.011e-3
-2.161, 1.011e-3
-2.162, 1.011e-3
-2.163, 1.011e-3
-2.164, 1.011e-3
-2.165, 1.011e-3
-2.166, 1.011e-3
-2.167, 1.011e-3
-2.168, 1.011e-3
-2.169, 1.011e-3
-2.170, 1.011e-3
-2.171, 1.011e-3
-2.172, 1.011e-3
-2.173, 1.011e-3
-2.174, 1.011e-3
-2.175, 1.011e-3
-2.176, 1.011e-3
-2.177, 1.011e-3
-2.178, 1.011e-3
-2.179, 1.011e-3
-2.180, 1.011e-3
-2.181, 1.011e-3
-2.182, 1.011e-3
-2.183, 1.011e-3
-2.184, 1.011e-3
-2.185, 1.011e-3
-2.186, 1.011e-3
-2.187, 1.011e-3
-2.188, 1.011e-3
-2.189, 1.011e-3
-2.190, 1.011e-3
-2.191, 1.011e-3
-2.192, 1.011e-3
-2.193, 1.011e-3
-2.194, 1.011e-3
-2.195, 1.011e-3
-2.196, 1.011e-3
-2.197, 1.011e-3
-2.198, 1.011e-3
-2.199, 1.011e-3
-2.200, 1.011e-3
-2.201, 1.011e-3
-2.202, 1.011e-3
-2.203, 1.011e-3
-2.204, 1.011e-3
-2.205, 1.011e-3
-2.206, 1.011e-3
-2.207, 1.011e-3
-2.208, 1.011e-3
-2.209, 1.011e-3
-2.210, 1.011e-3
-2.211, 1.011e-3
-2.212, 1.011e-3
-2.213, 1.011e-3
-2.214, 1.011e-3
-2.215, 1.011e-3
-2.216, 1.011e-3
-2.217, 1.011e-3
-2.218, 1.011e-3
-2.219, 1.011e-3
-2.220, 1.011e-3
-2.221, 1.011e-3
-2.222, 1.011e-3
-2.223, 1.011e-3
-2.224, 1.011e-3
-2.225, 1.011e-3
-2.226, 1.011e-3
-2.227, 1.011e-3
-2.228, 1.011e-3
-2.229, 1.011e-3
-2.230, 1.011e-3
-2.231, 1.011e-3
-2.232, 1.011e-3
-2.233, 1.011e-3
-2.234, 1.011e-3
-2.235, 1.011e-3
-2.236, 1.011e-3
-2.237, 1.011e-3
-2.238, 1.011e-3
-2.239, 1.011e-3
-2.240, 1.011e-3
-2.241, 1.011e-3
-2.242, 1.011e-3
-2.243, 1.011e-3
-2.244, 1.011e-3
-2.245, 1.011e-3
-2.246, 1.011e-3
-2.247, 1.011e-3
-2.248, 1.011e-3
-2.249, 1.011e-3
-2.250, 1.011e-3
-2.251, 1.011e-3
-2.252, 1.011e-3
-2.253, 1.011e-3
-2.254, 1.011e-3
-2.255, 1.011e-3
-2.256, 1.011e-3
-2.257, 1.011e-3
-2.258, 1.011e-3
-2.259, 1.011e-3
-2.260, 1.011e-3
-2.261, 1.011e-3
-2.262, 1.011e-3
-2.263, 1.011e-3
-2.264, 1.011e-3
-2.265, 1.011e-3
-2.266, 1.011e-3
-2.267, 1.011e-3
-2.268, 1.011e-3
-2.269, 1.011e-3
-2.270, 1.011e-3
-2.271, 1.011e-3
-2.272, 1.011e-3
-2.273, 1.011e-3
-2.274, 1.011e-3
-2.275, 1.011e-3
-2.276, 1.011e-3
-2.277, 1.011e-3
-2.278, 1.011e-3
-2.279, 1.011e-3
-2.280, 1.011e-3
-2.281, 1.011e-3
-2.282, 1.011e-3
-2.283, 1.011e-3
-2.284, 1.011e-3
-2.285, 1.011e-3
-2.286, 1.011e-3
-2.287, 1.011e-3
-2.288, 1.011e-3
-2.289, 1.011e-3
-2.290, 1.011e-3
-2.291, 1.011e-3
-2.292, 1.011e-3
-2.293, 1.011e-3
-2.294, 1.011e-3
-2.295, 1.011e-3
-2.296, 1.011e-3
-2.297, 1.011e-3
-2.298, 1.011e-3
-2.299, 1.011e-3
