Potential V vs RHE, Current mA cm-2
0.05339999999999995,-0.0712307139482046
0.05239999999999995,-0.07301325018603454
0.051399999999999946,-0.07408843077393197
0.050399999999999945,-0.07486652198885775
0.049399999999999944,-0.07554558341279295
0.04839999999999994,-0.07622464483672817
0.04739999999999994,-0.07679052935667419
0.04639999999999994,-0.07742714944161345
0.04539999999999994,-0.07806376952655272
0.04439999999999994,-0.07854477136850684
0.04339999999999994,-0.0791248030014515
0.04239999999999994,-0.07961995195640426
0.04139999999999994,-0.08015754225035297
0.040399999999999936,-0.08075172099629631
0.039399999999999935,-0.08136004685523826
0.038399999999999934,-0.08182690158419371
0.03739999999999993,-0.08233619765214513
0.03639999999999993,-0.08285964083309519
0.03539999999999993,-0.08332649556205066
0.03439999999999993,-0.08380749740400478
0.03339999999999993,-0.0842884992459589
0.03239999999999993,-0.08481194242690895
0.03139999999999993,-0.08536367983385632
0.030399999999999927,-0.08574565188481988
0.029399999999999926,-0.08626909506576994
0.028399999999999925,-0.08691986226370785
0.027399999999999924,-0.08735842276666603
0.026399999999999924,-0.08783942460862013
0.025399999999999923,-0.08827798511157829
0.024399999999999922,-0.08871654561453644
0.02339999999999992,-0.08926828302148382
0.02239999999999992,-0.08982002042843118
0.02139999999999992,-0.09038590494837719
0.020399999999999918,-0.09089520101632861
0.019399999999999917,-0.09144693842327598
0.018399999999999916,-0.09192794026523009
0.017399999999999916,-0.0923523536551896
0.016399999999999915,-0.0927767670451491
0.015399999999999914,-0.09328606311310052
0.014399999999999913,-0.09386609474604518
0.013399999999999912,-0.09436124370099794
0.012399999999999911,-0.09485639265595071
0.01139999999999991,-0.09535154161090346
0.01039999999999991,-0.09581839633985893
0.009399999999999908,-0.09634183952080899
0.008399999999999908,-0.09696431249274962
0.007399999999999907,-0.09748775567369967
0.006399999999999906,-0.0979121690636592
0.005399999999999905,-0.0983365824536187
0.004399999999999904,-0.09888831986056607
0.003399999999999903,-0.09931273325052556
0.002399999999999902,-0.09973714664048508
0.0013999999999999013,-0.10026058982143515
0.00039999999999990044,-0.10089720990637441
-0.0006000000000001005,-0.10149138865231773
-0.0016000000000001013,-0.10187336070328129
-0.0026000000000001022,-0.10239680388423136
-0.003600000000000103,-0.10296268840417737
-0.004600000000000104,-0.10354272003712203
-0.005600000000000105,-0.10413689878306535
-0.006600000000000106,-0.10461790062501947
-0.007600000000000107,-0.10504231401497897
-0.008600000000000108,-0.10553746296993173
-0.009600000000000108,-0.10599017058588855
-0.01060000000000011,-0.1064004368628494
-0.01160000000000011,-0.10702290983479003
-0.012600000000000111,-0.1075463530157401
-0.013600000000000112,-0.1080556490836915
-0.014600000000000113,-0.10857909226464157
-0.015600000000000114,-0.10903179988059837
-0.016600000000000115,-0.1094562132705579
-0.017600000000000116,-0.10995136222551065
-0.018600000000000116,-0.11047480540646071
-0.019600000000000117,-0.11102654281340808
-0.020600000000000118,-0.11171975135034196
-0.02160000000000012,-0.11222904741829336
-0.02260000000000012,-0.11275249059924342
-0.02360000000000012,-0.1131910511022016
-0.024600000000000122,-0.11368620005715435
-0.025600000000000123,-0.11411061344711387
-0.026600000000000124,-0.11467649796705988
-0.027600000000000124,-0.11515749980901398
-0.028600000000000125,-0.11565264876396675
-0.029600000000000126,-0.11609120926692493
-0.030600000000000127,-0.11665709378687093
-0.03160000000000013,-0.11722297830681694
-0.03260000000000013,-0.11774642148776701
-0.03360000000000013,-0.11812839353873056
-0.03460000000000002,-0.11858110115468738
-0.03560000000000002,-0.11901966165764555
-0.03660000000000002,-0.11950066349959966
-0.03760000000000002,-0.12015143069753757
-0.03860000000000002,-0.12063243253949167
-0.039600000000000024,-0.12105684592945118
-0.040600000000000025,-0.12160858333639855
-0.041600000000000026,-0.12199055538736212
-0.04260000000000003,-0.12249985145531352
-0.04360000000000003,-0.12298085329726763
-0.04460000000000003,-0.1234477080262231
-0.04560000000000003,-0.12392870986817722
-0.04660000000000003,-0.12442385882312997
-0.04760000000000003,-0.12483412510009084
-0.04860000000000003,-0.12517365581205844
-0.04960000000000003,-0.125555627863022
-0.050600000000000034,-0.12605077681797475
-0.051600000000000035,-0.12648933732093293
-0.052600000000000036,-0.1268996035978938
-0.053600000000000037,-0.12742304677884386
-0.05460000000000004,-0.12783331305580473
-0.05560000000000004,-0.12827187355876288
-0.05660000000000004,-0.12876702251371563
-0.05760000000000004,-0.1292904656946657
-0.05860000000000004,-0.12964414351963197
-0.05960000000000004,-0.13004026268359417
-0.06060000000000004,-0.13050711741254964
-0.061600000000000044,-0.13090323657651182
-0.06260000000000004,-0.13132764996647137
-0.06360000000000005,-0.13172376913043357
-0.06460000000000005,-0.13196427005141062
-0.06560000000000005,-0.13237453632837148
-0.06660000000000005,-0.13275650837933503
-0.06760000000000005,-0.1331384804302986
-0.06860000000000005,-0.13335068712527834
-0.06960000000000005,-0.13384583608023112
-0.07060000000000005,-0.13428439658318927
-0.07160000000000005,-0.13463807440815556
-0.07260000000000005,-0.13511907625010966
-0.07360000000000005,-0.1352181060411002
-0.07460000000000006,-0.13562837231806107
-0.07560000000000006,-0.13579813767404486
-0.07660000000000006,-0.1361659626120098
-0.07760000000000006,-0.13650549332397738
-0.07860000000000006,-0.13680258269694906
-0.07960000000000006,-0.13715626052191532
-0.08060000000000006,-0.13760896813787213
-0.08160000000000006,-0.1384012064657965
-0.08260000000000006,-0.1388114727427574
-0.08360000000000006,-0.13868414872576956
-0.08460000000000006,-0.13919344479372098
-0.08560000000000006,-0.13968859374867373
-0.08660000000000007,-0.14012715425163189
-0.08760000000000007,-0.14052327341559406
-0.08860000000000007,-0.1409759810315509
-0.08960000000000007,-0.14113159927453606
-0.09060000000000007,-0.14127307040452258
-0.09160000000000007,-0.14113159927453606
-0.09260000000000007,-0.14134380596951582
-0.09360000000000007,-0.14147112998650369
-0.09460000000000007,-0.14189554337646318
-0.09560000000000007,-0.1421784856364362
-0.09660000000000007,-0.1423199567664227
-0.09760000000000008,-0.1424614278964092
-0.09860000000000008,-0.1426028990263957
-0.09960000000000008,-0.1426028990263957
-0.10060000000000008,-0.1428858412863687
-0.10160000000000008,-0.1428858412863687
-0.10260000000000008,-0.14316878354634172
-0.10360000000000008,-0.1434517258063147
-0.10460000000000008,-0.1437346680662877
-0.10560000000000008,-0.14387613919627423
-0.10660000000000008,-0.14387613919627423
-0.10760000000000008,-0.14415908145624726
-0.10860000000000009,-0.14430055258623375
-0.10960000000000009,-0.14430055258623375
-0.11060000000000009,-0.14444202371622025
-0.11160000000000009,-0.14472496597619325
-0.11260000000000009,-0.14486643710617977
-0.11360000000000009,-0.14500790823616627
-0.11460000000000009,-0.14514937936615277
-0.11560000000000009,-0.14529085049613927
-0.11660000000000009,-0.14529085049613927
-0.1176000000000001,-0.14543232162612577
-0.1186000000000001,-0.14557379275611226
-0.1196000000000001,-0.14557379275611226
-0.1206000000000001,-0.14557379275611226
-0.1216000000000001,-0.1458567350160853
-0.1226000000000001,-0.1458567350160853
-0.1236000000000001,-0.14599820614607179
-0.1246000000000001,-0.14599820614607179
-0.1256000000000001,-0.14628114840604478
-0.1266000000000001,-0.14628114840604478
-0.1276000000000001,-0.14642261953603128
-0.1286000000000001,-0.14755438857592332
-0.1296000000000001,-0.14684703292599083
-0.1306000000000001,-0.1467055617960043
-0.1316000000000001,-0.1467055617960043
-0.1326000000000001,-0.1465640906660178
-0.1336000000000001,-0.1465640906660178
-0.1346000000000001,-0.1465640906660178
-0.1356000000000001,-0.1465640906660178
-0.1366000000000001,-0.14628114840604478
-0.1376000000000001,-0.14642261953603128
-0.1386000000000001,-0.14642261953603128
-0.1396000000000001,-0.14642261953603128
-0.1406000000000001,-0.14628114840604478
-0.14160000000000011,-0.14628114840604478
-0.14260000000000012,-0.14628114840604478
-0.14360000000000012,-0.14628114840604478
-0.14460000000000012,-0.14628114840604478
-0.14560000000000012,-0.14628114840604478
-0.14660000000000012,-0.14628114840604478
-0.14760000000000012,-0.14628114840604478
-0.14860000000000012,-0.14613967727605828
-0.14960000000000012,-0.14599820614607179
-0.15060000000000012,-0.1458567350160853
-0.15160000000000012,-0.1458567350160853
-0.15260000000000012,-0.1458567350160853
-0.15360000000000013,-0.14571526388609876
-0.15460000000000013,-0.14571526388609876
-0.15560000000000013,-0.14571526388609876
-0.15660000000000013,-0.14557379275611226
-0.15760000000000013,-0.14557379275611226
-0.15860000000000013,-0.14557379275611226
-0.15960000000000002,-0.14543232162612577
-0.16060000000000002,-0.14543232162612577
-0.16160000000000002,-0.14529085049613927
-0.16260000000000002,-0.14529085049613927
-0.16360000000000002,-0.14514937936615277
-0.16460000000000002,-0.14514937936615277
-0.16560000000000002,-0.14514937936615277
-0.16660000000000003,-0.14486643710617977
-0.16760000000000003,-0.14472496597619325
-0.16860000000000003,-0.14458349484620675
-0.16960000000000003,-0.14458349484620675
-0.17060000000000003,-0.14458349484620675
-0.17160000000000003,-0.14458349484620675
-0.17260000000000003,-0.14444202371622025
-0.17360000000000003,-0.14430055258623375
-0.17460000000000003,-0.14415908145624726
-0.17560000000000003,-0.14415908145624726
-0.17660000000000003,-0.14401761032626076
-0.17760000000000004,-0.14401761032626076
-0.17860000000000004,-0.14387613919627423
-0.17960000000000004,-0.1437346680662877
-0.18060000000000004,-0.1435931969363012
-0.18160000000000004,-0.1433102546763282
-0.18260000000000004,-0.1433102546763282
-0.18360000000000004,-0.1433102546763282
-0.18460000000000004,-0.14316878354634172
-0.18560000000000004,-0.14316878354634172
-0.18660000000000004,-0.14302731241635522
-0.18760000000000004,-0.14316878354634172
-0.18860000000000005,-0.14302731241635522
-0.18960000000000005,-0.1428858412863687
-0.19060000000000005,-0.1427443701563822
-0.19160000000000005,-0.1426028990263957
-0.19260000000000005,-0.1426028990263957
-0.19360000000000005,-0.1423199567664227
-0.19460000000000005,-0.1423199567664227
-0.19560000000000005,-0.1421784856364362
-0.19660000000000005,-0.1421784856364362
-0.19760000000000005,-0.1420370145064497
-0.19860000000000005,-0.14189554337646318
-0.19960000000000006,-0.14175407224647668
-0.20060000000000006,-0.14175407224647668
-0.20160000000000006,-0.14175407224647668
-0.20260000000000006,-0.14161260111649018
-0.20360000000000006,-0.14161260111649018
-0.20460000000000006,-0.14147112998650369
-0.20560000000000006,-0.14138624730851176
-0.20660000000000006,-0.14127307040452258
-0.20760000000000006,-0.14113159927453606
-0.20860000000000006,-0.1409759810315509
-0.20960000000000006,-0.14090524546655764
-0.21060000000000006,-0.1408628041275617
-0.21160000000000007,-0.14079206856256846
-0.21260000000000007,-0.1406930387715779
-0.21360000000000007,-0.14070718588457654
-0.21460000000000007,-0.14059400898058735
-0.21560000000000007,-0.1404949791895968
-0.21660000000000007,-0.1403676551726089
-0.21760000000000007,-0.14031106672061433
-0.21860000000000007,-0.14028277249461704
-0.21960000000000007,-0.14025447826861975
-0.22060000000000007,-0.1402261840426224
-0.22160000000000007,-0.1402261840426224
-0.22260000000000008,-0.14015544847762917
-0.22360000000000008,-0.14005641868663865
-0.22460000000000008,-0.13992909466965078
-0.22560000000000008,-0.1399008004436535
-0.22660000000000008,-0.1398866533306548
-0.22760000000000008,-0.13980177065266292
-0.22860000000000008,-0.13977347642666563
-0.22960000000000008,-0.13964615240967776
-0.23060000000000008,-0.13958956395768318
-0.23160000000000008,-0.13956126973168587
-0.23260000000000008,-0.13957541684468452
-0.23360000000000009,-0.13949053416669263
-0.2346000000000001,-0.1393207688107088
-0.2356000000000001,-0.1392641803587142
-0.2366000000000001,-0.13925003324571555
-0.2376000000000001,-0.13927832747171287
-0.2386000000000001,-0.1391792976807223
-0.2396000000000001,-0.1390944150027304
-0.2406000000000001,-0.13913685634172637
-0.2416000000000001,-0.13913685634172637
-0.2426000000000001,-0.13916515056772363
-0.2436000000000001,-0.1390944150027304
-0.2446000000000001,-0.1390378265507358
-0.2456000000000001,-0.13893879675974524
-0.2466000000000001,-0.13891050253374798
-0.2476000000000001,-0.1389529438727439
-0.2486000000000001,-0.13888220830775064
-0.2496000000000001,-0.13891050253374798
-0.2506000000000001,-0.13891050253374798
-0.2516000000000001,-0.138868061194752
-0.2526000000000001,-0.13885391408175335
-0.2536000000000001,-0.138868061194752
-0.2546000000000001,-0.1388114727427574
-0.2556000000000001,-0.13879732562975874
-0.2566000000000001,-0.13891050253374798
-0.2576000000000001,-0.13893879675974524
-0.2586000000000001,-0.13893879675974524
-0.2596000000000001,-0.13893879675974524
-0.2606000000000001,-0.13892464964674658
-0.2616000000000001,-0.13893879675974524
-0.2626000000000001,-0.13898123809874122
-0.2636000000000001,-0.13902367943773714
-0.2646000000000001,-0.13908026788973174
-0.2656000000000001,-0.13906612077673314
-0.2666000000000001,-0.139151003454725
-0.2676000000000001,-0.13919344479372098
-0.2686000000000001,-0.1391792976807223
-0.2696000000000001,-0.13920759190671964
-0.2706000000000001,-0.13920759190671964
-0.2716000000000001,-0.1392641803587142
-0.2726000000000001,-0.1392641803587142
-0.2736000000000001,-0.13934906303670613
-0.2746000000000001,-0.13947638705369397
-0.2756000000000001,-0.13954712261868724
-0.2766000000000001,-0.13964615240967776
-0.2776000000000001,-0.13966029952267642
-0.2786000000000001,-0.13970274086167236
-0.2796000000000001,-0.13977347642666563
-0.2806000000000001,-0.13991494755665213
-0.28160000000000013,-0.14001397734764268
-0.28260000000000013,-0.14002812446064133
-0.28360000000000013,-0.14005641868663865
-0.2846,-0.14015544847762917
-0.2856,-0.14024033115562107
-0.2866,-0.1403676551726089
-0.2876,-0.14048083207659814
-0.2886,-0.14048083207659814
-0.2896,-0.14062230320658464
-0.2906,-0.14070718588457654
-0.2916,-0.14090524546655764
-0.2926,-0.14117404061353203
-0.2936,-0.14131551174351853
-0.29460000000000003,-0.14140039442151042
-0.29560000000000003,-0.14147112998650369
-0.29660000000000003,-0.14175407224647668
-0.29760000000000003,-0.14175407224647668
-0.29860000000000003,-0.1420370145064497
-0.29960000000000003,-0.1421784856364362
-0.30060000000000003,-0.1423199567664227
-0.30160000000000003,-0.1424614278964092
-0.30260000000000004,-0.1427443701563822
-0.30360000000000004,-0.1428858412863687
-0.30460000000000004,-0.14302731241635522
-0.30560000000000004,-0.1433102546763282
-0.30660000000000004,-0.1434517258063147
-0.30760000000000004,-0.1435931969363012
-0.30860000000000004,-0.1437346680662877
-0.30960000000000004,-0.14387613919627423
-0.31060000000000004,-0.14401761032626076
-0.31160000000000004,-0.14415908145624726
-0.31260000000000004,-0.14415908145624726
-0.31360000000000005,-0.14430055258623375
-0.31460000000000005,-0.14430055258623375
-0.31560000000000005,-0.14444202371622025
-0.31660000000000005,-0.14472496597619325
-0.31760000000000005,-0.14500790823616627
-0.31860000000000005,-0.14514937936615277
-0.31960000000000005,-0.14529085049613927
-0.32060000000000005,-0.14529085049613927
-0.32160000000000005,-0.14571526388609876
-0.32260000000000005,-0.14599820614607179
-0.32360000000000005,-0.14599820614607179
-0.32460000000000006,-0.14628114840604478
-0.32560000000000006,-0.1465640906660178
-0.32660000000000006,-0.14684703292599083
-0.32760000000000006,-0.14698850405597733
-0.32860000000000006,-0.14727144631595032
-0.32960000000000006,-0.14755438857592332
-0.33060000000000006,-0.14783733083589634
-0.33160000000000006,-0.14812027309586934
-0.33260000000000006,-0.14826174422585583
-0.33360000000000006,-0.14854468648582883
-0.33460000000000006,-0.14882762874580185
-0.33560000000000006,-0.14882762874580185
-0.33660000000000007,-0.14911057100577488
-0.33760000000000007,-0.14939351326574787
-0.33860000000000007,-0.14953498439573437
-0.33960000000000007,-0.1498179266557074
-0.34060000000000007,-0.1501008689156804
-0.34160000000000007,-0.1502423400456669
-0.34260000000000007,-0.1503838111756534
-0.34360000000000007,-0.1508082245656129
-0.3446000000000001,-0.1510911668255859
-0.3456000000000001,-0.1513741090855589
-0.3466000000000001,-0.15151558021554543
-0.34759999999999996,-0.15165705134553195
-0.3486000000000001,-0.15179852247551845
-0.34959999999999997,-0.15193999360550495
-0.3506000000000001,-0.15208146473549145
-0.35159999999999997,-0.15222293586547794
-0.3526000000000001,-0.15222293586547794
-0.35359999999999997,-0.15222293586547794
-0.3546000000000001,-0.15236440699546444
-0.35559999999999997,-0.15250587812545094
-0.3566000000000001,-0.15278882038542396
-0.3576,-0.15307176264539696
-0.3586000000000001,-0.15335470490536995
-0.3596,-0.15335470490536995
-0.3606000000000001,-0.15377911829532948
-0.3616,-0.1540620605553025
-0.3626000000000001,-0.154203531685289
-0.3636,-0.1543450028152755
-0.3646000000000001,-0.15476941620523502
-0.3656,-0.155052358465208
-0.3666000000000001,-0.155052358465208
-0.3676,-0.155335300725181
-0.3686000000000001,-0.15575971411514053
-0.3696,-0.15590118524512703
-0.3706000000000001,-0.15618412750510002
-0.3716,-0.15660854089505957
-0.3726000000000001,-0.15689148315503257
-0.3736,-0.15717442541500556
-0.3746000000000001,-0.1574573676749786
-0.3756,-0.15774030993495158
-0.3766000000000001,-0.15788178106493808
-0.3776,-0.1583061944548976
-0.3786000000000001,-0.1585891367148706
-0.3796,-0.15901355010483012
-0.3806000000000001,-0.15915502123481662
-0.3816,-0.15929649236480314
-0.3826000000000001,-0.15957943462477614
-0.3836,-0.15972090575476264
-0.3846000000000001,-0.15986237688474914
-0.3856,-0.15986237688474914
-0.3866000000000001,-0.16000384801473563
-0.3876,-0.16014531914472213
-0.3886000000000001,-0.16042826140469515
-0.3896,-0.16071120366466815
-0.3906000000000001,-0.16071120366466815
-0.3916,-0.16099414592464115
-0.3926000000000001,-0.16099414592464115
-0.3936,-0.16127708818461417
-0.3946000000000001,-0.1615600304445872
-0.3956,-0.1617015015745737
-0.3966000000000001,-0.1618429727045602
-0.3976,-0.1619844438345467
-0.3986000000000001,-0.16212591496453319
-0.3996,-0.1624088572245062
-0.4006000000000001,-0.1625503283544927
-0.4016,-0.1626917994844792
-0.4026000000000001,-0.1628332706144657
-0.4036,-0.16311621287443873
-0.4046000000000001,-0.16339915513441172
-0.4056,-0.16368209739438472
-0.40660000000000013,-0.16382356852437122
-0.4076,-0.16339915513441172
-0.40860000000000013,-0.16354062626439822
-0.4096,-0.16382356852437122
-0.41060000000000013,-0.16396503965435774
-0.4116,-0.16410651078434427
-0.41260000000000013,-0.16410651078434427
-0.4136,-0.16424798191433077
-0.41460000000000014,-0.16453092417430376
-0.4156,-0.16467239530429026
-0.41660000000000014,-0.16481386643427676
-0.4176,-0.16481386643427676
-0.41860000000000014,-0.16495533756426325
-0.41960000000000003,-0.16509680869424978
-0.42060000000000014,-0.16509680869424978
-0.42160000000000003,-0.16509680869424978
-0.42260000000000014,-0.16537975095422278
-0.42360000000000003,-0.1656626932141958
-0.42460000000000014,-0.1659456354741688
-0.42560000000000003,-0.16608710660415532
-0.42660000000000015,-0.16608710660415532
-0.42760000000000004,-0.16637004886412832
-0.42860000000000015,-0.16651151999411481
-0.42960000000000004,-0.1667944622540878
-0.43060000000000015,-0.1669359333840743
-0.43160000000000004,-0.16721887564404736
-0.43260000000000015,-0.16750181790402036
-0.43360000000000004,-0.16764328903400685
-0.43460000000000015,-0.16778476016399335
-0.43560000000000004,-0.16764328903400685
-0.43660000000000015,-0.16792623129397988
-0.43760000000000004,-0.16820917355395287
-0.43860000000000016,-0.16863358694391237
