Sept. 29, 2024   12:16:13
Cyclic Voltammetry
File: c:/users/guazh/data/20240922_batch_417_500/2024-09-22-exp481\exp481-2024-09-29t11_54_28-arkoh\exp481_cv_sr_700mvs_efin_-1900mv.bin
Data Source:  Experiment
Instrument Model:  CHI760E
Header: CV ran at 700 mVs
Note: 

Init E (V) = -1
High E (V) = -1
Low E (V) = -1.9
Final E (V) = -1
Init P/N = N
Scan Rate (V/s) = 0.7
Segment = 3
Sample Interval (V) = 0.001
Quiet Time (sec) = 2
Sensitivity (A/V) = 0.01
Comp R (ohm) = 2.1

Results:

Channel 1:
Segment 1:
Ep = -1.104V
ip = 6.107e-6A
Ah = 2.653e-7C

Segment 2:

Segment 3:

Potential/V, Current/A

-1.000, 3.239e-6
-1.001, 3.239e-6
-1.002, 3.239e-6
-1.003, 3.239e-6
-1.004, 3.239e-6
-1.005, 3.239e-6
-1.006, 3.239e-6
-1.007, 3.239e-6
-1.008, 3.239e-6
-1.009, 3.239e-6
-1.010, 3.239e-6
-1.011, 3.239e-6
-1.012, 3.239e-6
-1.013, 3.239e-6
-1.014, 3.239e-6
-1.015, 3.239e-6
-1.016, 3.239e-6
-1.017, 3.239e-6
-1.018, 3.239e-6
-1.019, 3.239e-6
-1.020, 3.239e-6
-1.021, 3.239e-6
-1.022, 3.239e-6
-1.023, 3.239e-6
-1.024, 3.239e-6
-1.025, 3.239e-6
-1.026, 3.239e-6
-1.027, 3.239e-6
-1.028, 3.239e-6
-1.029, 6.322e-6
-1.030, 3.239e-6
-1.031, 6.322e-6
-1.032, 3.239e-6
-1.033, 3.239e-6
-1.034, 6.322e-6
-1.035, 3.239e-6
-1.036, 6.322e-6
-1.037, 6.322e-6
-1.038, 3.239e-6
-1.039, 3.239e-6
-1.040, 3.239e-6
-1.041, 6.322e-6
-1.042, 6.322e-6
-1.043, 6.322e-6
-1.044, 3.239e-6
-1.045, 3.239e-6
-1.046, 3.239e-6
-1.047, 6.322e-6
-1.048, 6.322e-6
-1.049, 3.239e-6
-1.050, 3.239e-6
-1.051, 3.239e-6
-1.052, 6.322e-6
-1.053, 3.239e-6
-1.054, 6.322e-6
-1.055, 3.239e-6
-1.056, 6.322e-6
-1.057, 6.322e-6
-1.058, 6.322e-6
-1.059, 6.322e-6
-1.060, 6.322e-6
-1.061, 6.322e-6
-1.062, 6.322e-6
-1.063, 6.322e-6
-1.064, 6.322e-6
-1.065, 6.322e-6
-1.066, 6.322e-6
-1.067, 6.322e-6
-1.068, 6.322e-6
-1.069, 6.322e-6
-1.070, 6.322e-6
-1.071, 3.239e-6
-1.072, 6.322e-6
-1.073, 6.322e-6
-1.074, 6.322e-6
-1.075, 6.322e-6
-1.076, 6.322e-6
-1.077, 6.322e-6
-1.078, 6.322e-6
-1.079, 6.322e-6
-1.080, 6.322e-6
-1.081, 6.322e-6
-1.082, 6.322e-6
-1.083, 6.322e-6
-1.084, 6.322e-6
-1.085, 6.322e-6
-1.086, 6.322e-6
-1.087, 6.322e-6
-1.088, 6.322e-6
-1.089, 6.322e-6
-1.090, 6.322e-6
-1.091, 6.322e-6
-1.092, 6.322e-6
-1.093, 6.322e-6
-1.094, 6.322e-6
-1.095, 6.322e-6
-1.096, 6.322e-6
-1.097, 6.322e-6
-1.098, 6.322e-6
-1.099, 6.322e-6
-1.100, 6.322e-6
-1.101, 6.322e-6
-1.102, 6.322e-6
-1.103, 6.322e-6
-1.104, 9.405e-6
-1.105, 6.322e-6
-1.106, 6.322e-6
-1.107, 6.322e-6
-1.108, 6.322e-6
-1.109, 6.322e-6
-1.110, 6.322e-6
-1.111, 6.322e-6
-1.112, 6.322e-6
-1.113, 6.322e-6
-1.114, 6.322e-6
-1.115, 6.322e-6
-1.116, 6.322e-6
-1.117, 6.322e-6
-1.118, 6.322e-6
-1.119, 6.322e-6
-1.120, 6.322e-6
-1.121, 6.322e-6
-1.122, 6.322e-6
-1.123, 6.322e-6
-1.124, 6.322e-6
-1.125, 6.322e-6
-1.126, 6.322e-6
-1.127, 6.322e-6
-1.128, 6.322e-6
-1.129, 6.322e-6
-1.130, 6.322e-6
-1.131, 6.322e-6
-1.132, 6.322e-6
-1.133, 6.322e-6
-1.134, 6.322e-6
-1.135, 6.322e-6
-1.136, 6.322e-6
-1.137, 6.322e-6
-1.138, 6.322e-6
-1.139, 6.322e-6
-1.140, 6.322e-6
-1.141, 6.322e-6
-1.142, 6.322e-6
-1.143, 6.322e-6
-1.144, 6.322e-6
-1.145, 6.322e-6
-1.146, 6.322e-6
-1.147, 6.322e-6
-1.148, 6.322e-6
-1.149, 6.322e-6
-1.150, 6.322e-6
-1.151, 6.322e-6
-1.152, 6.322e-6
-1.153, 6.322e-6
-1.154, 6.322e-6
-1.155, 6.322e-6
-1.156, 6.322e-6
-1.157, 6.322e-6
-1.158, 9.405e-6
-1.159, 9.405e-6
-1.160, 9.405e-6
-1.161, 9.405e-6
-1.162, 6.322e-6
-1.163, 9.405e-6
-1.164, 6.322e-6
-1.165, 9.405e-6
-1.166, 9.405e-6
-1.167, 6.322e-6
-1.168, 9.405e-6
-1.169, 9.405e-6
-1.170, 6.322e-6
-1.171, 9.405e-6
-1.172, 9.405e-6
-1.173, 9.405e-6
-1.174, 6.322e-6
-1.175, 9.405e-6
-1.176, 6.322e-6
-1.177, 9.405e-6
-1.178, 9.405e-6
-1.179, 9.405e-6
-1.180, 9.405e-6
-1.181, 9.405e-6
-1.182, 9.405e-6
-1.183, 9.405e-6
-1.184, 9.405e-6
-1.185, 6.322e-6
-1.186, 9.405e-6
-1.187, 6.322e-6
-1.188, 6.322e-6
-1.189, 6.322e-6
-1.190, 9.405e-6
-1.191, 9.405e-6
-1.192, 9.405e-6
-1.193, 9.405e-6
-1.194, 9.405e-6
-1.195, 9.405e-6
-1.196, 9.405e-6
-1.197, 9.405e-6
-1.198, 9.405e-6
-1.199, 9.405e-6
-1.200, 9.405e-6
-1.201, 9.405e-6
-1.202, 9.405e-6
-1.203, 9.405e-6
-1.204, 9.405e-6
-1.205, 9.405e-6
-1.206, 9.405e-6
-1.207, 9.405e-6
-1.208, 9.405e-6
-1.209, 9.405e-6
-1.210, 9.405e-6
-1.211, 9.405e-6
-1.212, 9.405e-6
-1.213, 9.405e-6
-1.214, 9.405e-6
-1.215, 9.405e-6
-1.216, 9.405e-6
-1.217, 9.405e-6
-1.218, 9.405e-6
-1.219, 9.405e-6
-1.220, 9.405e-6
-1.221, 9.405e-6
-1.222, 9.405e-6
-1.223, 9.405e-6
-1.224, 9.405e-6
-1.225, 9.405e-6
-1.226, 9.405e-6
-1.227, 9.405e-6
-1.228, 9.405e-6
-1.229, 9.405e-6
-1.230, 9.405e-6
-1.231, 9.405e-6
-1.232, 9.405e-6
-1.233, 9.405e-6
-1.234, 9.405e-6
-1.235, 9.405e-6
-1.236, 9.405e-6
-1.237, 9.405e-6
-1.238, 9.405e-6
-1.239, 9.405e-6
-1.240, 9.405e-6
-1.241, 9.405e-6
-1.242, 9.405e-6
-1.243, 9.405e-6
-1.244, 9.405e-6
-1.245, 9.405e-6
-1.246, 9.405e-6
-1.247, 9.405e-6
-1.248, 9.405e-6
-1.249, 9.405e-6
-1.250, 9.405e-6
-1.251, 9.405e-6
-1.252, 9.405e-6
-1.253, 9.405e-6
-1.254, 9.405e-6
-1.255, 9.405e-6
-1.256, 9.405e-6
-1.257, 9.405e-6
-1.258, 9.405e-6
-1.259, 9.405e-6
-1.260, 9.405e-6
-1.261, 9.405e-6
-1.262, 9.405e-6
-1.263, 9.405e-6
-1.264, 1.249e-5
-1.265, 9.405e-6
-1.266, 9.405e-6
-1.267, 9.405e-6
-1.268, 9.405e-6
-1.269, 9.405e-6
-1.270, 1.249e-5
-1.271, 1.249e-5
-1.272, 9.405e-6
-1.273, 1.249e-5
-1.274, 9.405e-6
-1.275, 9.405e-6
-1.276, 9.405e-6
-1.277, 1.249e-5
-1.278, 9.405e-6
-1.279, 9.405e-6
-1.280, 9.405e-6
-1.281, 9.405e-6
-1.282, 9.405e-6
-1.283, 9.405e-6
-1.284, 1.249e-5
-1.285, 1.249e-5
-1.286, 1.249e-5
-1.287, 1.249e-5
-1.288, 9.405e-6
-1.289, 1.249e-5
-1.290, 1.249e-5
-1.291, 1.249e-5
-1.292, 9.405e-6
-1.293, 9.405e-6
-1.294, 1.249e-5
-1.295, 9.405e-6
-1.296, 1.249e-5
-1.297, 1.249e-5
-1.298, 1.249e-5
-1.299, 9.405e-6
-1.300, 1.249e-5
-1.301, 1.249e-5
-1.302, 1.249e-5
-1.303, 1.249e-5
-1.304, 9.405e-6
-1.305, 1.249e-5
-1.306, 1.249e-5
-1.307, 1.249e-5
-1.308, 1.249e-5
-1.309, 1.249e-5
-1.310, 1.249e-5
-1.311, 1.249e-5
-1.312, 1.249e-5
-1.313, 1.249e-5
-1.314, 1.249e-5
-1.315, 1.249e-5
-1.316, 1.249e-5
-1.317, 1.249e-5
-1.318, 1.249e-5
-1.319, 1.249e-5
-1.320, 1.249e-5
-1.321, 1.249e-5
-1.322, 1.249e-5
-1.323, 1.249e-5
-1.324, 1.249e-5
-1.325, 1.249e-5
-1.326, 1.249e-5
-1.327, 1.249e-5
-1.328, 1.249e-5
-1.329, 9.405e-6
-1.330, 1.249e-5
-1.331, 1.249e-5
-1.332, 1.249e-5
-1.333, 1.249e-5
-1.334, 1.249e-5
-1.335, 1.249e-5
-1.336, 1.249e-5
-1.337, 1.249e-5
-1.338, 1.249e-5
-1.339, 1.249e-5
-1.340, 1.249e-5
-1.341, 1.249e-5
-1.342, 1.249e-5
-1.343, 1.249e-5
-1.344, 1.249e-5
-1.345, 1.249e-5
-1.346, 1.249e-5
-1.347, 1.249e-5
-1.348, 1.249e-5
-1.349, 1.249e-5
-1.350, 1.249e-5
-1.351, 1.249e-5
-1.352, 1.249e-5
-1.353, 1.249e-5
-1.354, 1.249e-5
-1.355, 1.249e-5
-1.356, 1.249e-5
-1.357, 1.249e-5
-1.358, 1.249e-5
-1.359, 1.249e-5
-1.360, 1.249e-5
-1.361, 1.249e-5
-1.362, 1.249e-5
-1.363, 1.249e-5
-1.364, 1.249e-5
-1.365, 1.249e-5
-1.366, 1.249e-5
-1.367, 1.249e-5
-1.368, 1.249e-5
-1.369, 1.249e-5
-1.370, 1.557e-5
-1.371, 1.249e-5
-1.372, 1.249e-5
-1.373, 1.557e-5
-1.374, 1.249e-5
-1.375, 1.249e-5
-1.376, 1.249e-5
-1.377, 1.249e-5
-1.378, 1.249e-5
-1.379, 1.557e-5
-1.380, 1.557e-5
-1.381, 1.249e-5
-1.382, 1.557e-5
-1.383, 1.249e-5
-1.384, 1.557e-5
-1.385, 1.249e-5
-1.386, 1.249e-5
-1.387, 1.249e-5
-1.388, 1.249e-5
-1.389, 1.557e-5
-1.390, 1.249e-5
-1.391, 1.557e-5
-1.392, 1.249e-5
-1.393, 1.557e-5
-1.394, 1.557e-5
-1.395, 1.557e-5
-1.396, 1.557e-5
-1.397, 1.557e-5
-1.398, 1.557e-5
-1.399, 1.249e-5
-1.400, 1.557e-5
-1.401, 1.557e-5
-1.402, 1.557e-5
-1.403, 1.557e-5
-1.404, 1.557e-5
-1.405, 1.557e-5
-1.406, 1.557e-5
-1.407, 1.557e-5
-1.408, 1.557e-5
-1.409, 1.249e-5
-1.410, 1.557e-5
-1.411, 1.557e-5
-1.412, 1.557e-5
-1.413, 1.557e-5
-1.414, 1.557e-5
-1.415, 1.557e-5
-1.416, 1.557e-5
-1.417, 1.557e-5
-1.418, 1.557e-5
-1.419, 1.557e-5
-1.420, 1.557e-5
-1.421, 1.557e-5
-1.422, 1.557e-5
-1.423, 1.557e-5
-1.424, 1.557e-5
-1.425, 1.557e-5
-1.426, 1.557e-5
-1.427, 1.557e-5
-1.428, 1.557e-5
-1.429, 1.557e-5
-1.430, 1.557e-5
-1.431, 1.557e-5
-1.432, 1.865e-5
-1.433, 1.557e-5
-1.434, 1.557e-5
-1.435, 1.557e-5
-1.436, 1.557e-5
-1.437, 1.865e-5
-1.438, 1.865e-5
-1.439, 1.865e-5
-1.440, 1.865e-5
-1.441, 1.557e-5
-1.442, 1.865e-5
-1.443, 1.865e-5
-1.444, 1.865e-5
-1.445, 1.865e-5
-1.446, 1.865e-5
-1.447, 1.557e-5
-1.448, 1.865e-5
-1.449, 1.865e-5
-1.450, 1.865e-5
-1.451, 1.865e-5
-1.452, 1.865e-5
-1.453, 1.865e-5
-1.454, 1.865e-5
-1.455, 1.865e-5
-1.456, 1.865e-5
-1.457, 1.865e-5
-1.458, 1.865e-5
-1.459, 1.865e-5
-1.460, 1.865e-5
-1.461, 1.865e-5
-1.462, 1.865e-5
-1.463, 1.865e-5
-1.464, 1.865e-5
-1.465, 1.865e-5
-1.466, 1.865e-5
-1.467, 1.865e-5
-1.468, 1.865e-5
-1.469, 1.865e-5
-1.470, 1.865e-5
-1.471, 1.865e-5
-1.472, 1.865e-5
-1.473, 1.865e-5
-1.474, 1.865e-5
-1.475, 1.865e-5
-1.476, 2.174e-5
-1.477, 2.174e-5
-1.478, 2.174e-5
-1.479, 1.865e-5
-1.480, 2.174e-5
-1.481, 2.174e-5
-1.482, 1.865e-5
-1.483, 2.174e-5
-1.484, 1.865e-5
-1.485, 2.174e-5
-1.486, 1.865e-5
-1.487, 2.174e-5
-1.488, 2.174e-5
-1.489, 2.174e-5
-1.490, 2.174e-5
-1.491, 2.174e-5
-1.492, 2.174e-5
-1.493, 2.174e-5
-1.494, 2.174e-5
-1.495, 2.174e-5
-1.496, 2.174e-5
-1.497, 2.174e-5
-1.498, 2.174e-5
-1.499, 2.174e-5
-1.500, 2.174e-5
-1.501, 2.174e-5
-1.502, 2.174e-5
-1.503, 2.174e-5
-1.504, 2.174e-5
-1.505, 2.174e-5
-1.506, 2.174e-5
-1.507, 2.482e-5
-1.508, 2.482e-5
-1.509, 2.174e-5
-1.510, 2.482e-5
-1.511, 2.482e-5
-1.512, 2.482e-5
-1.513, 2.482e-5
-1.514, 2.482e-5
-1.515, 2.482e-5
-1.516, 2.482e-5
-1.517, 2.482e-5
-1.518, 2.482e-5
-1.519, 2.482e-5
-1.520, 2.482e-5
-1.521, 2.482e-5
-1.522, 2.482e-5
-1.523, 2.482e-5
-1.524, 2.790e-5
-1.525, 2.790e-5
-1.526, 2.482e-5
-1.527, 2.482e-5
-1.528, 2.482e-5
-1.529, 2.482e-5
-1.530, 2.790e-5
-1.531, 2.790e-5
-1.532, 2.790e-5
-1.533, 2.790e-5
-1.534, 2.790e-5
-1.535, 2.790e-5
-1.536, 2.790e-5
-1.537, 2.790e-5
-1.538, 2.790e-5
-1.539, 2.790e-5
-1.540, 2.790e-5
-1.541, 2.790e-5
-1.542, 3.099e-5
-1.543, 3.099e-5
-1.544, 3.099e-5
-1.545, 3.099e-5
-1.546, 3.099e-5
-1.547, 3.099e-5
-1.548, 3.099e-5
-1.549, 3.099e-5
-1.550, 3.099e-5
-1.551, 3.099e-5
-1.552, 3.099e-5
-1.553, 3.099e-5
-1.554, 3.099e-5
-1.555, 3.099e-5
-1.556, 3.099e-5
-1.557, 3.099e-5
-1.558, 3.407e-5
-1.559, 3.407e-5
-1.560, 3.407e-5
-1.561, 3.407e-5
-1.562, 3.407e-5
-1.563, 3.407e-5
-1.564, 3.407e-5
-1.565, 3.715e-5
-1.566, 3.407e-5
-1.567, 3.715e-5
-1.568, 3.715e-5
-1.569, 3.715e-5
-1.570, 3.715e-5
-1.571, 3.715e-5
-1.572, 3.715e-5
-1.573, 3.715e-5
-1.574, 4.024e-5
-1.575, 3.715e-5
-1.576, 4.024e-5
-1.577, 4.024e-5
-1.578, 4.024e-5
-1.579, 4.024e-5
-1.580, 4.024e-5
-1.581, 4.332e-5
-1.582, 4.332e-5
-1.583, 4.332e-5
-1.584, 4.332e-5
-1.585, 4.332e-5
-1.586, 4.332e-5
-1.587, 4.332e-5
-1.588, 4.640e-5
-1.589, 4.640e-5
-1.590, 4.640e-5
-1.591, 4.640e-5
-1.592, 4.640e-5
-1.593, 4.640e-5
-1.594, 4.949e-5
-1.595, 4.949e-5
-1.596, 4.949e-5
-1.597, 5.257e-5
-1.598, 5.257e-5
-1.599, 5.257e-5
-1.600, 5.257e-5
-1.601, 5.257e-5
-1.602, 5.257e-5
-1.603, 5.565e-5
-1.604, 5.565e-5
-1.605, 5.565e-5
-1.606, 5.873e-5
-1.607, 5.873e-5
-1.608, 5.873e-5
-1.609, 5.873e-5
-1.610, 6.182e-5
-1.611, 6.182e-5
-1.612, 6.490e-5
-1.613, 6.490e-5
-1.614, 6.490e-5
-1.615, 6.798e-5
-1.616, 6.798e-5
-1.617, 6.798e-5
-1.618, 7.107e-5
-1.619, 7.107e-5
-1.620, 7.107e-5
-1.621, 7.415e-5
-1.622, 7.415e-5
-1.623, 7.415e-5
-1.624, 7.723e-5
-1.625, 7.723e-5
-1.626, 8.032e-5
-1.627, 8.340e-5
-1.628, 8.340e-5
-1.629, 8.648e-5
-1.630, 8.648e-5
-1.631, 8.648e-5
-1.632, 8.957e-5
-1.633, 9.265e-5
-1.634, 9.265e-5
-1.635, 9.573e-5
-1.636, 9.573e-5
-1.637, 9.882e-5
-1.638, 1.019e-4
-1.639, 1.019e-4
-1.640, 1.050e-4
-1.641, 1.081e-4
-1.642, 1.111e-4
-1.643, 1.111e-4
-1.644, 1.142e-4
-1.645, 1.142e-4
-1.646, 1.173e-4
-1.647, 1.204e-4
-1.648, 1.235e-4
-1.649, 1.266e-4
-1.650, 1.296e-4
-1.651, 1.327e-4
-1.652, 1.358e-4
-1.653, 1.389e-4
-1.654, 1.420e-4
-1.655, 1.451e-4
-1.656, 1.481e-4
-1.657, 1.512e-4
-1.658, 1.543e-4
-1.659, 1.574e-4
-1.660, 1.636e-4
-1.661, 1.636e-4
-1.662, 1.666e-4
-1.663, 1.728e-4
-1.664, 1.759e-4
-1.665, 1.821e-4
-1.666, 1.851e-4
-1.667, 1.882e-4
-1.668, 1.944e-4
-1.669, 1.975e-4
-1.670, 2.036e-4
-1.671, 2.067e-4
-1.672, 2.129e-4
-1.673, 2.160e-4
-1.674, 2.221e-4
-1.675, 2.283e-4
-1.676, 2.345e-4
-1.677, 2.406e-4
-1.678, 2.468e-4
-1.679, 2.530e-4
-1.680, 2.561e-4
-1.681, 2.622e-4
-1.682, 2.715e-4
-1.683, 2.776e-4
-1.684, 2.838e-4
-1.685, 2.900e-4
-1.686, 2.961e-4
-1.687, 3.054e-4
-1.688, 3.115e-4
-1.689, 3.177e-4
-1.690, 3.300e-4
-1.691, 3.362e-4
-1.692, 3.424e-4
-1.693, 3.516e-4
-1.694, 3.609e-4
-1.695, 3.701e-4
-1.696, 3.794e-4
-1.697, 3.886e-4
-1.698, 3.979e-4
-1.699, 4.071e-4
-1.700, 4.195e-4
-1.701, 4.287e-4
-1.702, 4.380e-4
-1.703, 4.503e-4
-1.704, 4.595e-4
-1.705, 4.719e-4
-1.706, 4.842e-4
-1.707, 4.935e-4
-1.708, 5.058e-4
-1.709, 5.181e-4
-1.710, 5.305e-4
-1.711, 5.459e-4
-1.712, 5.582e-4
-1.713, 5.736e-4
-1.714, 5.859e-4
-1.715, 5.983e-4
-1.716, 6.137e-4
-1.717, 6.260e-4
-1.718, 6.414e-4
-1.719, 6.569e-4
-1.720, 6.723e-4
-1.721, 6.877e-4
-1.722, 7.062e-4
-1.723, 7.216e-4
-1.724, 7.370e-4
-1.725, 7.555e-4
-1.726, 7.709e-4
-1.727, 7.894e-4
-1.728, 8.079e-4
-1.729, 8.264e-4
-1.730, 8.449e-4
-1.731, 8.634e-4
-1.732, 8.850e-4
-1.733, 9.035e-4
-1.734, 9.251e-4
-1.735, 9.467e-4
-1.736, 9.652e-4
-1.737, 9.868e-4
-1.738, 1.008e-3
-1.739, 1.030e-3
-1.740, 1.051e-3
-1.741, 1.073e-3
-1.742, 1.098e-3
-1.743, 1.119e-3
-1.744, 1.144e-3
-1.745, 1.169e-3
-1.746, 1.193e-3
-1.747, 1.218e-3
-1.748, 1.240e-3
-1.749, 1.264e-3
-1.750, 1.292e-3
-1.751, 1.317e-3
-1.752, 1.344e-3
-1.753, 1.369e-3
-1.754, 1.397e-3
-1.755, 1.425e-3
-1.756, 1.452e-3
-1.757, 1.480e-3
-1.758, 1.508e-3
-1.759, 1.539e-3
-1.760, 1.566e-3
-1.761, 1.597e-3
-1.762, 1.625e-3
-1.763, 1.656e-3
-1.764, 1.687e-3
-1.765, 1.717e-3
-1.766, 1.748e-3
-1.767, 1.779e-3
-1.768, 1.813e-3
-1.769, 1.844e-3
-1.770, 1.878e-3
-1.771, 1.912e-3
-1.772, 1.946e-3
-1.773, 1.976e-3
-1.774, 2.010e-3
-1.775, 2.044e-3
-1.776, 2.078e-3
-1.777, 2.112e-3
-1.778, 2.146e-3
-1.779, 2.183e-3
-1.780, 2.220e-3
-1.781, 2.257e-3
-1.782, 2.294e-3
-1.783, 2.328e-3
-1.784, 2.365e-3
-1.785, 2.402e-3
-1.786, 2.439e-3
-1.787, 2.476e-3
-1.788, 2.513e-3
-1.789, 2.553e-3
-1.790, 2.590e-3
-1.791, 2.630e-3
-1.792, 2.670e-3
-1.793, 2.710e-3
-1.794, 2.747e-3
-1.795, 2.787e-3
-1.796, 2.824e-3
-1.797, 2.864e-3
-1.798, 2.904e-3
-1.799, 2.945e-3
-1.800, 2.988e-3
-1.801, 3.031e-3
-1.802, 3.071e-3
-1.803, 3.111e-3
-1.804, 3.154e-3
-1.805, 3.197e-3
-1.806, 3.237e-3
-1.807, 3.284e-3
-1.808, 3.324e-3
-1.809, 3.367e-3
-1.810, 3.410e-3
-1.811, 3.453e-3
-1.812, 3.499e-3
-1.813, 3.543e-3
-1.814, 3.586e-3
-1.815, 3.629e-3
-1.816, 3.675e-3
-1.817, 3.718e-3
-1.818, 3.765e-3
-1.819, 3.811e-3
-1.820, 3.857e-3
-1.821, 3.900e-3
-1.822, 3.947e-3
-1.823, 3.990e-3
-1.824, 4.036e-3
-1.825, 4.082e-3
-1.826, 4.128e-3
-1.827, 4.175e-3
-1.828, 4.224e-3
-1.829, 4.270e-3
-1.830, 4.320e-3
-1.831, 4.366e-3
-1.832, 4.412e-3
-1.833, 4.458e-3
-1.834, 4.505e-3
-1.835, 4.551e-3
-1.836, 4.597e-3
-1.837, 4.646e-3
-1.838, 4.696e-3
-1.839, 4.748e-3
-1.840, 4.797e-3
-1.841, 4.847e-3
-1.842, 4.896e-3
-1.843, 4.945e-3
-1.844, 4.992e-3
-1.845, 5.038e-3
-1.846, 5.084e-3
-1.847, 5.137e-3
-1.848, 5.186e-3
-1.849, 5.238e-3
-1.850, 5.294e-3
-1.851, 5.343e-3
-1.852, 5.396e-3
-1.853, 5.442e-3
-1.854, 5.491e-3
-1.855, 5.541e-3
-1.856, 5.590e-3
-1.857, 5.642e-3
-1.858, 5.692e-3
-1.859, 5.744e-3
-1.860, 5.796e-3
-1.861, 5.849e-3
-1.862, 5.901e-3
-1.863, 5.951e-3
-1.864, 6.003e-3
-1.865, 6.052e-3
-1.866, 6.105e-3
-1.867, 6.154e-3
-1.868, 6.206e-3
-1.869, 6.262e-3
-1.870, 6.314e-3
-1.871, 6.364e-3
-1.872, 6.419e-3
-1.873, 6.472e-3
-1.874, 6.524e-3
-1.875, 6.576e-3
-1.876, 6.629e-3
-1.877, 6.684e-3
-1.878, 6.737e-3
-1.879, 6.789e-3
-1.880, 6.845e-3
-1.881, 6.897e-3
-1.882, 6.949e-3
-1.883, 6.999e-3
-1.884, 7.054e-3
-1.885, 7.107e-3
-1.886, 7.162e-3
-1.887, 7.218e-3
-1.888, 7.273e-3
-1.889, 7.332e-3
-1.890, 7.384e-3
-1.891, 7.437e-3
-1.892, 7.489e-3
-1.893, 7.538e-3
-1.894, 7.591e-3
-1.895, 7.646e-3
-1.896, 7.702e-3
-1.897, 7.760e-3
-1.898, 7.819e-3
-1.899, 7.874e-3
-1.900, 7.899e-3
-1.899, 7.868e-3
-1.898, 7.834e-3
-1.897, 7.797e-3
-1.896, 7.760e-3
-1.895, 7.726e-3
-1.894, 7.693e-3
-1.893, 7.659e-3
-1.892, 7.625e-3
-1.891, 7.591e-3
-1.890, 7.551e-3
-1.889, 7.511e-3
-1.888, 7.474e-3
-1.887, 7.430e-3
-1.886, 7.390e-3
-1.885, 7.350e-3
-1.884, 7.310e-3
-1.883, 7.276e-3
-1.882, 7.236e-3
-1.881, 7.196e-3
-1.880, 7.156e-3
-1.879, 7.116e-3
-1.878, 7.076e-3
-1.877, 7.033e-3
-1.876, 6.993e-3
-1.875, 6.949e-3
-1.874, 6.909e-3
-1.873, 6.872e-3
-1.872, 6.829e-3
-1.871, 6.789e-3
-1.870, 6.749e-3
-1.869, 6.706e-3
-1.868, 6.666e-3
-1.867, 6.623e-3
-1.866, 6.583e-3
-1.865, 6.543e-3
-1.864, 6.502e-3
-1.863, 6.462e-3
-1.862, 6.419e-3
-1.861, 6.379e-3
-1.860, 6.336e-3
-1.859, 6.293e-3
-1.858, 6.253e-3
-1.857, 6.213e-3
-1.856, 6.173e-3
-1.855, 6.132e-3
-1.854, 6.092e-3
-1.853, 6.052e-3
-1.852, 6.012e-3
-1.851, 5.969e-3
-1.850, 5.926e-3
-1.849, 5.883e-3
-1.848, 5.843e-3
-1.847, 5.803e-3
-1.846, 5.762e-3
-1.845, 5.725e-3
-1.844, 5.685e-3
-1.843, 5.648e-3
-1.842, 5.605e-3
-1.841, 5.565e-3
-1.840, 5.522e-3
-1.839, 5.482e-3
-1.838, 5.442e-3
-1.837, 5.399e-3
-1.836, 5.359e-3
-1.835, 5.322e-3
-1.834, 5.282e-3
-1.833, 5.241e-3
-1.832, 5.204e-3
-1.831, 5.164e-3
-1.830, 5.124e-3
-1.829, 5.084e-3
-1.828, 5.041e-3
-1.827, 5.004e-3
-1.826, 4.964e-3
-1.825, 4.927e-3
-1.824, 4.887e-3
-1.823, 4.850e-3
-1.822, 4.813e-3
-1.821, 4.773e-3
-1.820, 4.736e-3
-1.819, 4.696e-3
-1.818, 4.656e-3
-1.817, 4.619e-3
-1.816, 4.579e-3
-1.815, 4.542e-3
-1.814, 4.501e-3
-1.813, 4.464e-3
-1.812, 4.428e-3
-1.811, 4.391e-3
-1.810, 4.354e-3
-1.809, 4.320e-3
-1.808, 4.283e-3
-1.807, 4.243e-3
-1.806, 4.206e-3
-1.805, 4.169e-3
-1.804, 4.132e-3
-1.803, 4.095e-3
-1.802, 4.058e-3
-1.801, 4.024e-3
-1.800, 3.987e-3
-1.799, 3.950e-3
-1.798, 3.916e-3
-1.797, 3.879e-3
-1.796, 3.845e-3
-1.795, 3.808e-3
-1.794, 3.771e-3
-1.793, 3.737e-3
-1.792, 3.700e-3
-1.791, 3.666e-3
-1.790, 3.632e-3
-1.789, 3.595e-3
-1.788, 3.561e-3
-1.787, 3.527e-3
-1.786, 3.496e-3
-1.785, 3.462e-3
-1.784, 3.429e-3
-1.783, 3.395e-3
-1.782, 3.361e-3
-1.781, 3.327e-3
-1.780, 3.290e-3
-1.779, 3.256e-3
-1.778, 3.225e-3
-1.777, 3.191e-3
-1.776, 3.157e-3
-1.775, 3.130e-3
-1.774, 3.096e-3
-1.773, 3.065e-3
-1.772, 3.034e-3
-1.771, 3.000e-3
-1.770, 2.966e-3
-1.769, 2.935e-3
-1.768, 2.904e-3
-1.767, 2.871e-3
-1.766, 2.843e-3
-1.765, 2.812e-3
-1.764, 2.781e-3
-1.763, 2.753e-3
-1.762, 2.723e-3
-1.761, 2.692e-3
-1.760, 2.661e-3
-1.759, 2.633e-3
-1.758, 2.602e-3
-1.757, 2.571e-3
-1.756, 2.544e-3
-1.755, 2.513e-3
-1.754, 2.485e-3
-1.753, 2.457e-3
-1.752, 2.430e-3
-1.751, 2.399e-3
-1.750, 2.371e-3
-1.749, 2.343e-3
-1.748, 2.316e-3
-1.747, 2.288e-3
-1.746, 2.260e-3
-1.745, 2.232e-3
-1.744, 2.205e-3
-1.743, 2.180e-3
-1.742, 2.152e-3
-1.741, 2.128e-3
-1.740, 2.100e-3
-1.739, 2.075e-3
-1.738, 2.047e-3
-1.737, 2.023e-3
-1.736, 1.998e-3
-1.735, 1.970e-3
-1.734, 1.946e-3
-1.733, 1.921e-3
-1.732, 1.893e-3
-1.731, 1.869e-3
-1.730, 1.847e-3
-1.729, 1.822e-3
-1.728, 1.798e-3
-1.727, 1.776e-3
-1.726, 1.751e-3
-1.725, 1.727e-3
-1.724, 1.705e-3
-1.723, 1.680e-3
-1.722, 1.659e-3
-1.721, 1.634e-3
-1.720, 1.613e-3
-1.719, 1.588e-3
-1.718, 1.566e-3
-1.717, 1.548e-3
-1.716, 1.526e-3
-1.715, 1.505e-3
-1.714, 1.483e-3
-1.713, 1.462e-3
-1.712, 1.440e-3
-1.711, 1.418e-3
-1.710, 1.400e-3
-1.709, 1.378e-3
-1.708, 1.360e-3
-1.707, 1.338e-3
-1.706, 1.320e-3
-1.705, 1.298e-3
-1.704, 1.280e-3
-1.703, 1.261e-3
-1.702, 1.243e-3
-1.701, 1.224e-3
-1.700, 1.206e-3
-1.699, 1.187e-3
-1.698, 1.169e-3
-1.697, 1.150e-3
-1.696, 1.132e-3
-1.695, 1.116e-3
-1.694, 1.098e-3
-1.693, 1.082e-3
-1.692, 1.064e-3
-1.691, 1.048e-3
-1.690, 1.030e-3
-1.689, 1.011e-3
-1.688, 9.960e-4
-1.687, 9.806e-4
-1.686, 9.652e-4
-1.685, 9.498e-4
-1.684, 9.343e-4
-1.683, 9.189e-4
-1.682, 9.035e-4
-1.681, 8.881e-4
-1.680, 8.727e-4
-1.679, 8.603e-4
-1.678, 8.449e-4
-1.677, 8.295e-4
-1.676, 8.141e-4
-1.675, 8.018e-4
-1.674, 7.863e-4
-1.673, 7.740e-4
-1.672, 7.617e-4
-1.671, 7.463e-4
-1.670, 7.339e-4
-1.669, 7.216e-4
-1.668, 7.093e-4
-1.667, 6.939e-4
-1.666, 6.846e-4
-1.665, 6.723e-4
-1.664, 6.599e-4
-1.663, 6.476e-4
-1.662, 6.353e-4
-1.661, 6.260e-4
-1.660, 6.106e-4
-1.659, 6.014e-4
-1.658, 5.921e-4
-1.657, 5.798e-4
-1.656, 5.705e-4
-1.655, 5.582e-4
-1.654, 5.489e-4
-1.653, 5.397e-4
-1.652, 5.274e-4
-1.651, 5.181e-4
-1.650, 5.089e-4
-1.649, 4.996e-4
-1.648, 4.904e-4
-1.647, 4.811e-4
-1.646, 4.719e-4
-1.645, 4.626e-4
-1.644, 4.503e-4
-1.643, 4.441e-4
-1.642, 4.349e-4
-1.641, 4.256e-4
-1.640, 4.195e-4
-1.639, 4.102e-4
-1.638, 4.010e-4
-1.637, 3.917e-4
-1.636, 3.855e-4
-1.635, 3.763e-4
-1.634, 3.701e-4
-1.633, 3.640e-4
-1.632, 3.547e-4
-1.631, 3.485e-4
-1.630, 3.424e-4
-1.629, 3.362e-4
-1.628, 3.270e-4
-1.627, 3.208e-4
-1.626, 3.115e-4
-1.625, 3.085e-4
-1.624, 2.992e-4
-1.623, 2.961e-4
-1.622, 2.900e-4
-1.621, 2.807e-4
-1.620, 2.746e-4
-1.619, 2.684e-4
-1.618, 2.653e-4
-1.617, 2.591e-4
-1.616, 2.530e-4
-1.615, 2.468e-4
-1.614, 2.406e-4
-1.613, 2.376e-4
-1.612, 2.314e-4
-1.611, 2.283e-4
-1.610, 2.221e-4
-1.609, 2.160e-4
-1.608, 2.129e-4
-1.607, 2.067e-4
-1.606, 2.036e-4
-1.605, 2.006e-4
-1.604, 1.944e-4
-1.603, 1.882e-4
-1.602, 1.851e-4
-1.601, 1.821e-4
-1.600, 1.790e-4
-1.599, 1.759e-4
-1.598, 1.697e-4
-1.597, 1.666e-4
-1.596, 1.605e-4
-1.595, 1.574e-4
-1.594, 1.543e-4
-1.593, 1.512e-4
-1.592, 1.481e-4
-1.591, 1.420e-4
-1.590, 1.420e-4
-1.589, 1.358e-4
-1.588, 1.358e-4
-1.587, 1.327e-4
-1.586, 1.296e-4
-1.585, 1.266e-4
-1.584, 1.204e-4
-1.583, 1.204e-4
-1.582, 1.173e-4
-1.581, 1.142e-4
-1.580, 1.111e-4
-1.579, 1.081e-4
-1.578, 1.050e-4
-1.577, 1.050e-4
-1.576, 1.019e-4
-1.575, 9.882e-5
-1.574, 9.573e-5
-1.573, 9.265e-5
-1.572, 9.265e-5
-1.571, 8.957e-5
-1.570, 8.648e-5
-1.569, 8.648e-5
-1.568, 8.340e-5
-1.567, 8.032e-5
-1.566, 7.723e-5
-1.565, 7.723e-5
-1.564, 7.415e-5
-1.563, 7.415e-5
-1.562, 7.107e-5
-1.561, 7.107e-5
-1.560, 6.798e-5
-1.559, 6.490e-5
-1.558, 6.490e-5
-1.557, 6.182e-5
-1.556, 6.182e-5
-1.555, 5.873e-5
-1.554, 5.873e-5
-1.553, 5.565e-5
-1.552, 5.565e-5
-1.551, 5.565e-5
-1.550, 5.257e-5
-1.549, 5.257e-5
-1.548, 4.949e-5
-1.547, 4.949e-5
-1.546, 4.640e-5
-1.545, 4.640e-5
-1.544, 4.640e-5
-1.543, 4.332e-5
-1.542, 4.332e-5
-1.541, 4.332e-5
-1.540, 4.024e-5
-1.539, 4.024e-5
-1.538, 4.024e-5
-1.537, 3.715e-5
-1.536, 3.715e-5
-1.535, 3.407e-5
-1.534, 3.407e-5
-1.533, 3.407e-5
-1.532, 3.099e-5
-1.531, 3.099e-5
-1.530, 3.099e-5
-1.529, 3.099e-5
-1.528, 2.790e-5
-1.527, 2.790e-5
-1.526, 2.790e-5
-1.525, 2.790e-5
-1.524, 2.790e-5
-1.523, 2.482e-5
-1.522, 2.482e-5
-1.521, 2.482e-5
-1.520, 2.482e-5
-1.519, 2.174e-5
-1.518, 2.174e-5
-1.517, 2.174e-5
-1.516, 1.865e-5
-1.515, 1.865e-5
-1.514, 1.865e-5
-1.513, 1.865e-5
-1.512, 1.865e-5
-1.511, 1.865e-5
-1.510, 1.865e-5
-1.509, 1.557e-5
-1.508, 1.557e-5
-1.507, 1.557e-5
-1.506, 1.557e-5
-1.505, 1.557e-5
-1.504, 1.249e-5
-1.503, 1.557e-5
-1.502, 1.249e-5
-1.501, 1.249e-5
-1.500, 1.249e-5
-1.499, 1.249e-5
-1.498, 1.249e-5
-1.497, 9.405e-6
-1.496, 1.249e-5
-1.495, 9.405e-6
-1.494, 9.405e-6
-1.493, 9.405e-6
-1.492, 9.405e-6
-1.491, 9.405e-6
-1.490, 9.405e-6
-1.489, 9.405e-6
-1.488, 9.405e-6
-1.487, 9.405e-6
-1.486, 6.322e-6
-1.485, 6.322e-6
-1.484, 6.322e-6
-1.483, 6.322e-6
-1.482, 6.322e-6
-1.481, 6.322e-6
-1.480, 6.322e-6
-1.479, 6.322e-6
-1.478, 6.322e-6
-1.477, 6.322e-6
-1.476, 6.322e-6
-1.475, 6.322e-6
-1.474, 3.239e-6
-1.473, 3.239e-6
-1.472, 3.239e-6
-1.471, 3.239e-6
-1.470, 3.239e-6
-1.469, 3.239e-6
-1.468, 3.239e-6
-1.467, 3.239e-6
-1.466, 3.239e-6
-1.465, 3.239e-6
-1.464, 3.239e-6
-1.463, 3.239e-6
-1.462, 3.239e-6
-1.461, 1.559e-7
-1.460, 3.239e-6
-1.459, 1.559e-7
-1.458, 3.239e-6
-1.457, 1.559e-7
-1.456, 1.559e-7
-1.455, 1.559e-7
-1.454, 1.559e-7
-1.453, 1.559e-7
-1.452, 1.559e-7
-1.451, 1.559e-7
-1.450, 1.559e-7
-1.449, 1.559e-7
-1.448, 1.559e-7
-1.447, 1.559e-7
-1.446, 1.559e-7
-1.445, 1.559e-7
-1.444, 1.559e-7
-1.443, 1.559e-7
-1.442, 1.559e-7
-1.441, 1.559e-7
-1.440, 1.559e-7
-1.439, -2.927e-6
-1.438, 1.559e-7
-1.437, 1.559e-7
-1.436, 1.559e-7
-1.435, 1.559e-7
-1.434, -2.927e-6
-1.433, 1.559e-7
-1.432, -2.927e-6
-1.431, -2.927e-6
-1.430, 1.559e-7
-1.429, -2.927e-6
-1.428, -2.927e-6
-1.427, -2.927e-6
-1.426, 1.559e-7
-1.425, -2.927e-6
-1.424, -2.927e-6
-1.423, -2.927e-6
-1.422, -2.927e-6
-1.421, -2.927e-6
-1.420, -2.927e-6
-1.419, -2.927e-6
-1.418, -2.927e-6
-1.417, -2.927e-6
-1.416, -2.927e-6
-1.415, -2.927e-6
-1.414, -2.927e-6
-1.413, -2.927e-6
-1.412, -2.927e-6
-1.411, -2.927e-6
-1.410, -2.927e-6
-1.409, -2.927e-6
-1.408, -2.927e-6
-1.407, -2.927e-6
-1.406, -2.927e-6
-1.405, -2.927e-6
-1.404, -2.927e-6
-1.403, -2.927e-6
-1.402, -2.927e-6
-1.401, -2.927e-6
-1.400, -2.927e-6
-1.399, -2.927e-6
-1.398, -2.927e-6
-1.397, -2.927e-6
-1.396, -2.927e-6
-1.395, -2.927e-6
-1.394, -2.927e-6
-1.393, -2.927e-6
-1.392, -2.927e-6
-1.391, -2.927e-6
-1.390, -2.927e-6
-1.389, -2.927e-6
-1.388, -2.927e-6
-1.387, -2.927e-6
-1.386, -2.927e-6
-1.385, -2.927e-6
-1.384, -6.010e-6
-1.383, -2.927e-6
-1.382, -2.927e-6
-1.381, -2.927e-6
-1.380, -6.010e-6
-1.379, -2.927e-6
-1.378, -2.927e-6
-1.377, -2.927e-6
-1.376, -2.927e-6
-1.375, -2.927e-6
-1.374, -6.010e-6
-1.373, -6.010e-6
-1.372, -6.010e-6
-1.371, -2.927e-6
-1.370, -2.927e-6
-1.369, -2.927e-6
-1.368, -6.010e-6
-1.367, -6.010e-6
-1.366, -6.010e-6
-1.365, -2.927e-6
-1.364, -6.010e-6
-1.363, -6.010e-6
-1.362, -6.010e-6
-1.361, -6.010e-6
-1.360, -6.010e-6
-1.359, -6.010e-6
-1.358, -2.927e-6
-1.357, -6.010e-6
-1.356, -6.010e-6
-1.355, -6.010e-6
-1.354, -2.927e-6
-1.353, -2.927e-6
-1.352, -6.010e-6
-1.351, -2.927e-6
-1.350, -6.010e-6
-1.349, -6.010e-6
-1.348, -6.010e-6
-1.347, -6.010e-6
-1.346, -6.010e-6
-1.345, -6.010e-6
-1.344, -6.010e-6
-1.343, -6.010e-6
-1.342, -2.927e-6
-1.341, -6.010e-6
-1.340, -6.010e-6
-1.339, -6.010e-6
-1.338, -6.010e-6
-1.337, -6.010e-6
-1.336, -6.010e-6
-1.335, -2.927e-6
-1.334, -6.010e-6
-1.333, -6.010e-6
-1.332, -6.010e-6
-1.331, -6.010e-6
-1.330, -6.010e-6
-1.329, -6.010e-6
-1.328, -6.010e-6
-1.327, -6.010e-6
-1.326, -6.010e-6
-1.325, -6.010e-6
-1.324, -6.010e-6
-1.323, -6.010e-6
-1.322, -6.010e-6
-1.321, -2.927e-6
-1.320, -6.010e-6
-1.319, -2.927e-6
-1.318, -6.010e-6
-1.317, -6.010e-6
-1.316, -6.010e-6
-1.315, -6.010e-6
-1.314, -6.010e-6
-1.313, -6.010e-6
-1.312, -6.010e-6
-1.311, -6.010e-6
-1.310, -6.010e-6
-1.309, -6.010e-6
-1.308, -6.010e-6
-1.307, -2.927e-6
-1.306, -6.010e-6
-1.305, -6.010e-6
-1.304, -6.010e-6
-1.303, -6.010e-6
-1.302, -6.010e-6
-1.301, -2.927e-6
-1.300, -6.010e-6
-1.299, -6.010e-6
-1.298, -6.010e-6
-1.297, -6.010e-6
-1.296, -6.010e-6
-1.295, -6.010e-6
-1.294, -6.010e-6
-1.293, -6.010e-6
-1.292, -6.010e-6
-1.291, -6.010e-6
-1.290, -6.010e-6
-1.289, -6.010e-6
-1.288, -6.010e-6
-1.287, -6.010e-6
-1.286, -6.010e-6
-1.285, -6.010e-6
-1.284, -6.010e-6
-1.283, -6.010e-6
-1.282, -6.010e-6
-1.281, -6.010e-6
-1.280, -6.010e-6
-1.279, -6.010e-6
-1.278, -6.010e-6
-1.277, -6.010e-6
-1.276, -6.010e-6
-1.275, -6.010e-6
-1.274, -6.010e-6
-1.273, -6.010e-6
-1.272, -2.927e-6
-1.271, -6.010e-6
-1.270, -6.010e-6
-1.269, -6.010e-6
-1.268, -6.010e-6
-1.267, -6.010e-6
-1.266, -6.010e-6
-1.265, -6.010e-6
-1.264, -6.010e-6
-1.263, -6.010e-6
-1.262, -6.010e-6
-1.261, -6.010e-6
-1.260, -6.010e-6
-1.259, -6.010e-6
-1.258, -6.010e-6
-1.257, -6.010e-6
-1.256, -6.010e-6
-1.255, -6.010e-6
-1.254, -6.010e-6
-1.253, -6.010e-6
-1.252, -6.010e-6
-1.251, -6.010e-6
-1.250, -6.010e-6
-1.249, -6.010e-6
-1.248, -6.010e-6
-1.247, -6.010e-6
-1.246, -6.010e-6
-1.245, -6.010e-6
-1.244, -6.010e-6
-1.243, -6.010e-6
-1.242, -6.010e-6
-1.241, -6.010e-6
-1.240, -6.010e-6
-1.239, -6.010e-6
-1.238, -6.010e-6
-1.237, -6.010e-6
-1.236, -6.010e-6
-1.235, -6.010e-6
-1.234, -6.010e-6
-1.233, -6.010e-6
-1.232, -6.010e-6
-1.231, -6.010e-6
-1.230, -6.010e-6
-1.229, -6.010e-6
-1.228, -6.010e-6
-1.227, -6.010e-6
-1.226, -6.010e-6
-1.225, -6.010e-6
-1.224, -6.010e-6
-1.223, -6.010e-6
-1.222, -6.010e-6
-1.221, -6.010e-6
-1.220, -6.010e-6
-1.219, -6.010e-6
-1.218, -6.010e-6
-1.217, -6.010e-6
-1.216, -6.010e-6
-1.215, -6.010e-6
-1.214, -6.010e-6
-1.213, -6.010e-6
-1.212, -6.010e-6
-1.211, -6.010e-6
-1.210, -6.010e-6
-1.209, -6.010e-6
-1.208, -6.010e-6
-1.207, -6.010e-6
-1.206, -6.010e-6
-1.205, -6.010e-6
-1.204, -6.010e-6
-1.203, -6.010e-6
-1.202, -6.010e-6
-1.201, -6.010e-6
-1.200, -6.010e-6
-1.199, -6.010e-6
-1.198, -6.010e-6
-1.197, -6.010e-6
-1.196, -6.010e-6
-1.195, -6.010e-6
-1.194, -6.010e-6
-1.193, -6.010e-6
-1.192, -6.010e-6
-1.191, -6.010e-6
-1.190, -6.010e-6
-1.189, -6.010e-6
-1.188, -6.010e-6
-1.187, -6.010e-6
-1.186, -6.010e-6
-1.185, -6.010e-6
-1.184, -6.010e-6
-1.183, -6.010e-6
-1.182, -6.010e-6
-1.181, -6.010e-6
-1.180, -6.010e-6
-1.179, -6.010e-6
-1.178, -6.010e-6
-1.177, -6.010e-6
-1.176, -6.010e-6
-1.175, -6.010e-6
-1.174, -6.010e-6
-1.173, -6.010e-6
-1.172, -6.010e-6
-1.171, -6.010e-6
-1.170, -6.010e-6
-1.169, -6.010e-6
-1.168, -9.093e-6
-1.167, -6.010e-6
-1.166, -6.010e-6
-1.165, -6.010e-6
-1.164, -6.010e-6
-1.163, -6.010e-6
-1.162, -6.010e-6
-1.161, -6.010e-6
-1.160, -6.010e-6
-1.159, -6.010e-6
-1.158, -6.010e-6
-1.157, -6.010e-6
-1.156, -6.010e-6
-1.155, -6.010e-6
-1.154, -6.010e-6
-1.153, -6.010e-6
-1.152, -9.093e-6
-1.151, -9.093e-6
-1.150, -6.010e-6
-1.149, -6.010e-6
-1.148, -6.010e-6
-1.147, -6.010e-6
-1.146, -6.010e-6
-1.145, -6.010e-6
-1.144, -6.010e-6
-1.143, -6.010e-6
-1.142, -6.010e-6
-1.141, -6.010e-6
-1.140, -6.010e-6
-1.139, -6.010e-6
-1.138, -6.010e-6
-1.137, -6.010e-6
-1.136, -6.010e-6
-1.135, -6.010e-6
-1.134, -6.010e-6
-1.133, -6.010e-6
-1.132, -6.010e-6
-1.131, -6.010e-6
-1.130, -6.010e-6
-1.129, -6.010e-6
-1.128, -6.010e-6
-1.127, -6.010e-6
-1.126, -6.010e-6
-1.125, -6.010e-6
-1.124, -6.010e-6
-1.123, -6.010e-6
-1.122, -6.010e-6
-1.121, -6.010e-6
-1.120, -6.010e-6
-1.119, -6.010e-6
-1.118, -6.010e-6
-1.117, -6.010e-6
-1.116, -6.010e-6
-1.115, -6.010e-6
-1.114, -6.010e-6
-1.113, -6.010e-6
-1.112, -9.093e-6
-1.111, -6.010e-6
-1.110, -6.010e-6
-1.109, -6.010e-6
-1.108, -6.010e-6
-1.107, -6.010e-6
-1.106, -6.010e-6
-1.105, -6.010e-6
-1.104, -6.010e-6
-1.103, -6.010e-6
-1.102, -6.010e-6
-1.101, -9.093e-6
-1.100, -9.093e-6
-1.099, -6.010e-6
-1.098, -6.010e-6
-1.097, -9.093e-6
-1.096, -6.010e-6
-1.095, -9.093e-6
-1.094, -6.010e-6
-1.093, -6.010e-6
-1.092, -9.093e-6
-1.091, -6.010e-6
-1.090, -6.010e-6
-1.089, -6.010e-6
-1.088, -9.093e-6
-1.087, -9.093e-6
-1.086, -6.010e-6
-1.085, -6.010e-6
-1.084, -6.010e-6
-1.083, -9.093e-6
-1.082, -6.010e-6
-1.081, -6.010e-6
-1.080, -9.093e-6
-1.079, -6.010e-6
-1.078, -6.010e-6
-1.077, -6.010e-6
-1.076, -9.093e-6
-1.075, -9.093e-6
-1.074, -9.093e-6
-1.073, -6.010e-6
-1.072, -9.093e-6
-1.071, -6.010e-6
-1.070, -9.093e-6
-1.069, -9.093e-6
-1.068, -6.010e-6
-1.067, -6.010e-6
-1.066, -6.010e-6
-1.065, -9.093e-6
-1.064, -6.010e-6
-1.063, -9.093e-6
-1.062, -6.010e-6
-1.061, -9.093e-6
-1.060, -9.093e-6
-1.059, -9.093e-6
-1.058, -9.093e-6
-1.057, -9.093e-6
-1.056, -9.093e-6
-1.055, -6.010e-6
-1.054, -9.093e-6
-1.053, -6.010e-6
-1.052, -9.093e-6
-1.051, -9.093e-6
-1.050, -6.010e-6
-1.049, -9.093e-6
-1.048, -6.010e-6
-1.047, -9.093e-6
-1.046, -9.093e-6
-1.045, -9.093e-6
-1.044, -6.010e-6
-1.043, -9.093e-6
-1.042, -9.093e-6
-1.041, -6.010e-6
-1.040, -9.093e-6
-1.039, -6.010e-6
-1.038, -9.093e-6
-1.037, -9.093e-6
-1.036, -9.093e-6
-1.035, -9.093e-6
-1.034, -9.093e-6
-1.033, -9.093e-6
-1.032, -9.093e-6
-1.031, -9.093e-6
-1.030, -9.093e-6
-1.029, -9.093e-6
-1.028, -9.093e-6
-1.027, -9.093e-6
-1.026, -9.093e-6
-1.025, -9.093e-6
-1.024, -9.093e-6
-1.023, -9.093e-6
-1.022, -9.093e-6
-1.021, -6.010e-6
-1.020, -9.093e-6
-1.019, -9.093e-6
-1.018, -9.093e-6
-1.017, -9.093e-6
-1.016, -9.093e-6
-1.015, -9.093e-6
-1.014, -9.093e-6
-1.013, -9.093e-6
-1.012, -9.093e-6
-1.011, -9.093e-6
-1.010, -9.093e-6
-1.009, -9.093e-6
-1.008, -9.093e-6
-1.007, -9.093e-6
-1.006, -9.093e-6
-1.005, -9.093e-6
-1.004, -9.093e-6
-1.003, -9.093e-6
-1.002, -9.093e-6
-1.001, -9.093e-6
