Potential V vs RHE, Current mA cm-2
0.013299999999999867,-0.5255652478998613
0.012299999999999978,-2.008890045808352
0.011299999999999866,-3.0996324580042955
0.010299999999999976,-3.971094618721158
0.009299999999999864,-4.626105950558669
0.008299999999999974,-5.149549131508733
0.007299999999999862,-5.585280211867165
0.006299999999999972,-5.9347139029338285
0.00529999999999986,-6.196435493408861
0.0042999999999999705,-6.414301033588076
0.0032999999999998586,-6.632166573767292
0.0022999999999999687,-6.806176063650692
0.0012999999999998568,-6.93774421453814
0.00029999999999996696,-7.067897654125724
-0.000700000000000145,-7.155609754717355
-0.0017000000000000348,-7.243321855308987
-0.0027000000000001467,-7.28576319430494
-0.0037000000000000366,-7.329619244600755
-0.0047000000000001485,-7.37347529489657
-0.005700000000000038,-7.37347529489657
-0.00670000000000015,-7.37347529489657
-0.00770000000000004,-7.4173313451923875
-0.008700000000000152,-7.4173313451923875
-0.009700000000000042,-7.461187395488204
-0.010700000000000154,-7.461187395488204
-0.011700000000000044,-7.50504344578402
-0.012700000000000156,-7.5474847847799715
-0.013700000000000045,-7.591340835075788
-0.014700000000000157,-7.591340835075788
-0.015700000000000047,-7.591340835075788
-0.01670000000000016,-7.591340835075788
-0.01770000000000005,-7.591340835075788
-0.01870000000000016,-7.591340835075788
-0.01970000000000005,-7.5474847847799715
-0.020700000000000163,-7.591340835075788
-0.021700000000000053,-7.5474847847799715
-0.022700000000000164,-7.5474847847799715
-0.023700000000000054,-7.5474847847799715
-0.024700000000000166,-7.5474847847799715
-0.025700000000000056,-7.591340835075788
-0.026700000000000168,-7.591340835075788
-0.027700000000000058,-7.635196885371603
-0.02870000000000017,-7.635196885371603
-0.02970000000000006,-7.635196885371603
-0.03070000000000017,-7.635196885371603
-0.03170000000000006,-7.635196885371603
-0.03270000000000017,-7.635196885371603
-0.03370000000000006,-7.591340835075788
-0.034700000000000175,-7.591340835075788
-0.035700000000000065,-7.591340835075788
-0.03670000000000018,-7.5474847847799715
-0.03770000000000007,-7.5474847847799715
-0.03870000000000018,-7.5474847847799715
-0.03970000000000007,-7.5474847847799715
-0.04070000000000018,-7.5474847847799715
-0.04170000000000007,-7.591340835075788
-0.04270000000000018,-7.591340835075788
-0.04370000000000007,-7.635196885371603
-0.044700000000000184,-7.591340835075788
-0.045700000000000074,-7.635196885371603
-0.046700000000000186,-7.635196885371603
-0.047700000000000076,-7.635196885371603
-0.04870000000000019,-7.591340835075788
-0.04970000000000008,-7.5474847847799715
-0.05070000000000019,-7.5474847847799715
-0.05170000000000008,-7.50504344578402
-0.05270000000000019,-7.5474847847799715
-0.05370000000000008,-7.50504344578402
-0.05470000000000019,-7.5474847847799715
-0.05570000000000008,-7.5474847847799715
-0.056700000000000195,-7.5474847847799715
-0.057700000000000085,-7.591340835075788
-0.058700000000000196,-7.591340835075788
-0.059700000000000086,-7.591340835075788
-0.0607000000000002,-7.635196885371603
-0.06170000000000009,-7.635196885371603
-0.0627000000000002,-7.635196885371603
-0.06370000000000009,-7.591340835075788
-0.0647000000000002,-7.591340835075788
-0.06570000000000009,-7.5474847847799715
-0.0667000000000002,-7.50504344578402
-0.0677000000000001,-7.5474847847799715
-0.0687000000000002,-7.50504344578402
-0.0697000000000001,-7.5474847847799715
-0.07070000000000021,-7.5474847847799715
-0.0717000000000001,-7.591340835075788
-0.07270000000000021,-7.591340835075788
-0.0737000000000001,-7.591340835075788
-0.07470000000000021,-7.591340835075788
-0.0757000000000001,-7.591340835075788
-0.07670000000000021,-7.591340835075788
-0.0777000000000001,-7.591340835075788
-0.07870000000000021,-7.5474847847799715
-0.0797000000000001,-7.5474847847799715
-0.08070000000000022,-7.5474847847799715
-0.0817000000000001,-7.50504344578402
-0.08270000000000022,-7.5474847847799715
-0.08370000000000011,-7.5474847847799715
-0.08470000000000022,-7.5474847847799715
-0.08570000000000011,-7.5474847847799715
-0.08670000000000022,-7.591340835075788
-0.08770000000000011,-7.591340835075788
-0.08870000000000022,-7.591340835075788
-0.08970000000000011,-7.635196885371603
-0.09070000000000022,-7.591340835075788
-0.09170000000000011,-7.635196885371603
-0.09270000000000023,-7.591340835075788
-0.09370000000000012,-7.5474847847799715
-0.09470000000000023,-7.5474847847799715
-0.09570000000000012,-7.50504344578402
-0.09670000000000023,-7.50504344578402
-0.09770000000000012,-7.50504344578402
-0.09870000000000023,-7.50504344578402
-0.09970000000000012,-7.5474847847799715
-0.10070000000000023,-7.5474847847799715
-0.10170000000000012,-7.591340835075788
-0.10270000000000024,-7.591340835075788
-0.10370000000000013,-7.635196885371603
-0.10470000000000024,-7.635196885371603
-0.10570000000000013,-7.635196885371603
-0.10670000000000024,-7.635196885371603
-0.10770000000000013,-7.635196885371603
-0.10870000000000024,-7.591340835075788
-0.10970000000000013,-7.591340835075788
-0.11070000000000024,-7.5474847847799715
-0.11170000000000013,-7.5474847847799715
-0.11270000000000002,-7.5474847847799715
-0.11370000000000013,-7.5474847847799715
-0.11470000000000002,-7.5474847847799715
-0.11570000000000014,-7.591340835075788
-0.11670000000000003,-7.591340835075788
-0.11770000000000014,-7.635196885371603
-0.11870000000000003,-7.635196885371603
-0.11970000000000014,-7.635196885371603
-0.12070000000000003,-7.679052935667419
-0.12170000000000014,-7.679052935667419
-0.12270000000000003,-7.635196885371603
-0.12370000000000014,-7.635196885371603
-0.12470000000000003,-7.591340835075788
-0.12570000000000014,-7.591340835075788
-0.12670000000000003,-7.5474847847799715
-0.12770000000000015,-7.591340835075788
-0.12870000000000004,-7.5474847847799715
-0.12970000000000015,-7.591340835075788
-0.13070000000000004,-7.591340835075788
-0.13170000000000015,-7.635196885371603
-0.13270000000000004,-7.635196885371603
-0.13370000000000015,-7.679052935667419
-0.13470000000000004,-7.722908985963235
-0.13570000000000015,-7.679052935667419
-0.13670000000000004,-7.722908985963235
-0.13770000000000016,-7.679052935667419
-0.13870000000000005,-7.679052935667419
-0.13970000000000016,-7.679052935667419
-0.14070000000000005,-7.635196885371603
-0.14170000000000016,-7.591340835075788
-0.14270000000000005,-7.591340835075788
-0.14370000000000016,-7.591340835075788
-0.14470000000000005,-7.591340835075788
-0.14570000000000016,-7.635196885371603
-0.14670000000000005,-7.635196885371603
-0.14770000000000016,-7.635196885371603
-0.14870000000000005,-7.679052935667419
-0.14970000000000017,-7.679052935667419
-0.15070000000000006,-7.722908985963235
-0.15170000000000017,-7.722908985963235
-0.15270000000000006,-7.722908985963235
-0.15370000000000017,-7.722908985963235
-0.15470000000000006,-7.722908985963235
-0.15570000000000017,-7.722908985963235
-0.15670000000000006,-7.679052935667419
-0.15770000000000017,-7.679052935667419
-0.15870000000000006,-7.679052935667419
-0.15970000000000018,-7.679052935667419
-0.16070000000000007,-7.679052935667419
-0.16170000000000018,-7.679052935667419
-0.16270000000000007,-7.679052935667419
-0.16370000000000018,-7.722908985963235
-0.16470000000000007,-7.722908985963235
-0.16570000000000018,-7.722908985963235
-0.16670000000000007,-7.7653503249591855
-0.16770000000000018,-7.7653503249591855
-0.16870000000000007,-7.7653503249591855
-0.16970000000000018,-7.7653503249591855
-0.17070000000000007,-7.7653503249591855
-0.17170000000000019,-7.722908985963235
-0.17270000000000008,-7.722908985963235
-0.1737000000000002,-7.722908985963235
-0.17470000000000008,-7.7653503249591855
-0.1757000000000002,-7.7653503249591855
-0.17670000000000008,-7.7653503249591855
-0.1777000000000002,-7.7653503249591855
-0.17870000000000008,-7.809206375255003
-0.1797000000000002,-7.809206375255003
-0.18070000000000008,-7.809206375255003
-0.1817000000000002,-7.809206375255003
-0.18270000000000008,-7.809206375255003
-0.1837000000000002,-7.7653503249591855
-0.1847000000000001,-7.7653503249591855
-0.1857000000000002,-7.7653503249591855
-0.1867000000000001,-7.722908985963235
-0.1877000000000002,-7.7653503249591855
-0.1887000000000001,-7.7653503249591855
-0.1897000000000002,-7.809206375255003
-0.1907000000000001,-7.809206375255003
-0.1917000000000001,-7.809206375255003
-0.19269999999999998,-7.896918475846635
-0.1937000000000001,-7.896918475846635
-0.19469999999999998,-7.940774526142452
-0.1957000000000001,-7.940774526142452
-0.19669999999999999,-7.940774526142452
-0.1977000000000001,-7.940774526142452
-0.1987,-7.940774526142452
-0.1997000000000001,-7.896918475846635
-0.2007,-7.896918475846635
-0.2017000000000001,-7.896918475846635
-0.2027,-7.896918475846635
-0.2037000000000001,-7.896918475846635
-0.2047,-7.896918475846635
-0.2057000000000001,-7.940774526142452
-0.2067,-7.940774526142452
-0.2077000000000001,-7.940774526142452
-0.2087,-8.027071915434218
-0.2097000000000001,-7.984630576438266
-0.2107,-8.027071915434218
-0.2117000000000001,-8.027071915434218
-0.2127,-8.027071915434218
-0.2137000000000001,-8.027071915434218
-0.2147,-8.027071915434218
-0.2157000000000001,-8.070927965730034
-0.2167,-8.027071915434218
-0.21770000000000012,-8.027071915434218
-0.2187,-8.027071915434218
-0.21970000000000012,-8.070927965730034
-0.2207,-8.11478401602585
-0.22170000000000012,-8.11478401602585
-0.2227,-8.158640066321666
-0.22370000000000012,-8.158640066321666
-0.2247,-8.202496116617484
-0.22570000000000012,-8.202496116617484
-0.2267,-8.202496116617484
-0.22770000000000012,-8.202496116617484
-0.22870000000000001,-8.202496116617484
-0.22970000000000013,-8.202496116617484
-0.23070000000000002,-8.202496116617484
-0.23170000000000013,-8.202496116617484
-0.23270000000000002,-8.202496116617484
-0.23370000000000013,-8.202496116617484
-0.23470000000000002,-8.246352166913299
-0.23570000000000013,-8.288793505909249
-0.23670000000000002,-8.332649556205066
-0.2376999999999999,-8.332649556205066
-0.23870000000000002,-8.376505606500881
-0.2396999999999999,-8.4203616567967
-0.24070000000000003,-8.4203616567967
-0.24169999999999991,-8.464217707092514
-0.24270000000000003,-8.464217707092514
-0.24369999999999992,-8.464217707092514
-0.24470000000000003,-8.464217707092514
-0.24569999999999992,-8.464217707092514
-0.24670000000000003,-8.464217707092514
-0.24769999999999992,-8.464217707092514
-0.24870000000000003,-8.464217707092514
-0.24969999999999992,-8.508073757388331
-0.25070000000000003,-8.55051509638428
-0.2516999999999999,-8.594371146680096
-0.25270000000000004,-8.638227196975913
-0.2536999999999999,-8.68208324727173
-0.25470000000000004,-8.725939297567548
-0.2556999999999999,-8.725939297567548
-0.25670000000000004,-8.812236686859313
-0.25769999999999993,-8.812236686859313
-0.25870000000000004,-8.769795347863363
-0.25969999999999993,-8.812236686859313
-0.26070000000000004,-8.85609273715513
-0.26169999999999993,-8.85609273715513
-0.26270000000000004,-8.85609273715513
-0.26369999999999993,-8.899948787450944
-0.26470000000000005,-8.987660888042578
-0.26569999999999994,-9.031516938338395
-0.26670000000000005,-9.073958277334345
-0.26769999999999994,-9.11781432763016
-0.26870000000000005,-9.161670377925978
-0.26969999999999994,-9.205526428221793
-0.27070000000000005,-9.24938247851761
-0.27169999999999994,-9.24938247851761
-0.27270000000000005,-9.335679867809377
-0.27369999999999994,-9.335679867809377
-0.27470000000000006,-9.379535918105192
-0.27569999999999995,-9.379535918105192
-0.27670000000000006,-9.423391968401008
-0.27769999999999995,-9.423391968401008
-0.27870000000000006,-9.511104068992642
-0.27969999999999995,-9.55496011928846
-0.28070000000000006,-9.59740145828441
-0.28169999999999995,-9.685113558876042
-0.28270000000000006,-9.772825659467674
-0.28369999999999995,-9.81668170976349
-0.28470000000000006,-9.85912304875944
-0.28569999999999995,-9.946835149351072
-0.28670000000000007,-10.034547249942705
-0.28769999999999996,-10.034547249942705
-0.28870000000000007,-10.078403300238522
-0.28969999999999996,-10.120844639234473
-0.29070000000000007,-10.164700689530287
-0.29169999999999996,-10.208556739826104
-0.29270000000000007,-10.25241279012192
-0.29369999999999996,-10.340124890713554
-0.2947000000000001,-10.382566229709504
-0.29569999999999996,-10.514134380596953
-0.2967000000000001,-10.601846481188586
-0.29769999999999996,-10.688143870480351
-0.2987000000000001,-10.731999920776168
-0.29969999999999997,-10.863568071663616
-0.3007000000000001,-10.906009410659568
-0.30169999999999997,-10.993721511251199
-0.3027000000000001,-11.081433611842833
-0.30369999999999997,-11.123874950838783
-0.3047000000000001,-11.1677310011346
-0.30569999999999997,-11.255443101726232
-0.3067000000000001,-11.343155202317865
-0.3077,-11.42945259160963
-0.3087000000000001,-11.517164692201263
-0.3097,-11.647318131788847
-0.3107000000000001,-11.778886282676295
-0.3117,-11.86659838326793
-0.3127000000000001,-11.996751822855511
-0.3137,-12.12831997374296
-0.3147000000000001,-12.214617363034726
-0.3157,-12.346185513922174
-0.3167000000000001,-12.432482903213943
-0.3177,-12.56405105410139
-0.3187000000000001,-12.651763154693022
-0.3197,-12.694204493688973
-0.3207000000000001,-12.781916594280606
-0.3217,-12.913484745168056
-0.3227000000000001,-12.99978213445982
-0.3237,-13.13135028534727
-0.3247000000000001,-13.30535977523067
-0.3257,-13.47936926511407
-0.3267000000000001,-13.610937416001518
-0.3277,-13.784946905884919
-0.3287000000000001,-13.960371107068182
-0.3297,-14.046668496359947
-0.3307000000000001,-14.175407224647667
-0.3317,-14.345172580631472
-0.3327000000000001,-14.444202371622024
-0.3337,-14.529085049613924
-0.3347000000000001,-14.65640906660178
-0.3357,-14.741291744593681
-0.3367000000000001,-14.868615761581536
-0.3377,-15.05252823056399
-0.3387000000000001,-15.179852247551842
-0.3397,-15.3920589425316
-0.3407000000000001,-15.618412750510005
-0.3417,-15.830619445489761
-0.3427000000000001,-16.056973253468165
-0.3437,-16.311621287443874
-0.3447000000000001,-16.53797509542228
-0.3457,-16.70774045140608
-0.3467000000000001,-16.919947146385837
-0.3477,-17.103859615368293
-0.3487000000000001,-17.231183632356142
-0.3497,-17.358507649344002
-0.3507000000000001,-17.542420118326454
-0.3517,-17.669744135314307
-0.3527000000000001,-17.881950830294063
-0.3537,-18.06586329927652
-0.3547000000000001,-18.27806999425627
-0.3557,-18.49027668923603
-0.35670000000000013,-18.759071836210385
-0.3577,-18.97127853119014
-0.35870000000000013,-19.28251501716045
-0.3597,-19.537163051136158
-0.36070000000000013,-19.805958198110513
-0.3617,-20.06060623208622
-0.3626999999999999,-20.329401379060574
-0.3637,-20.584049413036283
-0.3646999999999999,-20.810403221014692
-0.3657,-21.065051254990397
-0.3666999999999999,-21.291405062968803
-0.3677,-21.54605309694451
-0.3686999999999999,-21.814848243918867
-0.36970000000000003,-22.111937616890522
-0.3706999999999999,-22.38073276386488
-0.37170000000000003,-22.67782213683654
-0.3726999999999999,-22.946617283810895
-0.37370000000000003,-23.24370665678255
-0.3746999999999999,-23.55494314275286
-0.37570000000000003,-23.823738289727217
-0.3766999999999999,-24.16326900169483
-0.37770000000000004,-24.474505487665134
-0.3786999999999999,-24.771594860636792
-0.37970000000000004,-25.0828313466071
-0.3806999999999999,-25.39406783257741
-0.38170000000000004,-25.691157205549064
-0.38269999999999993,-26.002393691519377
-0.38370000000000004,-26.34192440348698
-0.38469999999999993,-26.69560222845324
-0.38570000000000004,-27.049280053419505
-0.38669999999999993,-27.38881076538711
-0.38770000000000004,-27.78492992934932
-0.38869999999999993,-28.18104909331153
-0.38970000000000005,-28.53472691827779
-0.39069999999999994,-28.91669896924135
-0.39170000000000005,-29.27037679420761
-0.39269999999999994,-29.62405461917387
-0.39370000000000005,-30.00602667013743
-0.39469999999999994,-30.359704495103685
-0.39570000000000005,-30.7558236590659
-0.39669999999999994,-31.137795710029454
-0.39770000000000005,-31.533914873991666
-0.39869999999999994,-31.930034037953877
-0.39970000000000006,-32.368594540912035
-0.40069999999999995,-32.807155043870196
-0.40170000000000006,-33.288156885824314
-0.40269999999999995,-33.712570275783825
-0.40370000000000006,-34.193572117737936
-0.40469999999999995,-34.58969128170015
-0.40570000000000006,-35.02825178465831
-0.40669999999999995,-35.46681228761647
-0.40770000000000006,-35.848784338580025
-0.40869999999999995,-36.28734484153819
-0.40970000000000006,-36.6834640055004
-0.41069999999999995,-37.122024508458566
-0.41170000000000007,-37.56058501141672
-0.41269999999999996,-37.99914551437489
-0.41370000000000007,-38.46600024333035
-0.41469999999999996,-38.98944342428042
-0.41570000000000007,-39.47044526623452
-0.41669999999999996,-40.03632978618054
-0.41770000000000007,-40.559772967130606
-0.41869999999999996,-41.083216148080666
-0.4197000000000001,-41.70568912002128
-0.42069999999999996,-42.229132300971344
-0.4217000000000001,-42.79501682091736
-0.42269999999999996,-43.31846000186743
-0.4237000000000001,-43.84190318281749
-0.42469999999999997,-44.36534636376755
-0.4257000000000001,-44.88878954471762
-0.42669999999999997,-45.36979138667173
-0.4277000000000001,-45.85079322862584
-0.42869999999999997,-46.37423640957591
-0.4297000000000001,-46.84109113853137
-0.43069999999999997,-47.36453431948143
-0.4317000000000001,-47.8879775004315
-0.4327,-48.51045047237211
-0.4337000000000001,-49.076334992318124
-0.4347,-49.68466085126009
-0.4357000000000001,-50.29298671020206
-0.4367,-50.90131256914402
-0.4377000000000001,-51.509638428085985
-0.4387,-52.17455273902255
-0.4397000000000001,-52.78287859796452
-0.4407,-53.476087134898386
-0.4417000000000001,-54.08441299384035
-0.4427,-54.69273885278232
-0.4437000000000001,-55.31521182472294
-0.4447,-55.96597902266086
-0.4457000000000001,-56.61674622059877
-0.4467,-57.22507207954074
-0.4477000000000001,-57.8333979384827
-0.4487,-58.54075358841522
-0.4497000000000001,-59.14907944735718
-0.4507,-59.757405306299155
-0.4517000000000001,-60.40817250423707
-0.4527,-61.07308681517363
-0.4537000000000001,-61.72385401311155
-0.4547,-62.33217987205352
-0.4557000000000001,-63.02538840898739
-0.4567,-63.732744058919906
-0.4577000000000001,-64.42595259585376
-0.4587,-65.16160247178358
-0.4597000000000001,-65.91139946071206
-0.4607,-66.64704933664189
-0.4617000000000001,-67.39684632557035
-0.4627,-68.17493754049613
-0.4637000000000001,-68.91058741642594
-0.4647,-69.6603844053544
-0.4657000000000001,-70.35359294228827
-0.4667,-71.10338993121674
-0.4677000000000001,-71.83903980714656
-0.4687,-72.57468968307639
-0.4697000000000001,-73.32448667200485
-0.4707,-74.06013654793468
-0.4717000000000001,-74.8523748758591
-0.4727,-75.5880247517889
-0.4737000000000001,-76.38026307971333
-0.4747,-77.11591295564315
-0.4757000000000001,-77.95059262256353
-0.4767,-78.77112517648524
-0.4777000000000001,-79.56336350440966
-0.4787,-80.34145471933543
-0.4797000000000001,-81.13369304725985
-0.4807,-81.91178426218562
-0.48170000000000013,-82.746463929106
-0.4827,-83.56699648302772
-0.48370000000000013,-84.35923481095215
-0.4847,-85.13732602587791
-0.48570000000000013,-85.97200569279828
-0.4867,-85.49100385084417
-0.48570000000000013,-83.18502443206415
-0.4847,-81.3458997422396
-0.48370000000000013,-79.81801153838538
-0.4827,-78.55891848150549
-0.48170000000000013,-77.38470810261751
-0.4807,-76.33782174071737
-0.4797000000000001,-75.33337671781321
-0.4787,-74.32893169490903
-0.4777000000000001,-73.3669280110008
-0.4767,-72.40492432709259
-0.4757000000000001,-71.4004793041884
-0.4747,-70.43847562028017
-0.4737000000000001,-69.4906190493706
-0.4727,-68.52861536546239
-0.4717000000000001,-67.52417034255821
-0.4707,-66.56216665864997
-0.4697000000000001,-65.64260431373769
-0.4687,-64.68060062982947
-0.4677000000000001,-63.81762673691181
-0.4667,-62.94050573099548
-0.4657000000000001,-62.11997317707376
-0.4647,-61.37017618814529
-0.4637000000000001,-60.54964363422357
-0.4627,-59.7149639673032
-0.4617000000000001,-58.92272563937878
-0.4607,-58.10219308545706
