Aug. 20, 2024   04:16:28
Chronoamperometry
File: c:/users/guazh/data/20240813_batch_94_500/2024-08-15-exp137\pre-regen-2024-08-20t03_52_34-lsvinphos\ca_2024-08-20t04_13_21.bin
Data Source:  Experiment
Instrument Model:  CHI760E
Header: CA
Note: 

Init E (V) = 1
High E (V) = 1
Low E (V) = -1.5
Init P/N = N
Step = 181
Pulse Width (sec) = 1
Sample Interval (s) = 0.1
Quiet Time (sec) = 2
Sensitivity (A/V) = 0.001

Results:

Channel 1:
Forward:
Slp = 4.885e-3
Int = -3.778e-3
Cor = 0.98785

Reverse:
Slp = -4.037e-3
Int = -1.186e-3
Cor = -0.99273

Time/sec, Current/A

1.000e-1, 6.582e-3
2.000e-1, 6.099e-3
3.000e-1, 5.410e-3
4.000e-1, 3.923e-3
5.000e-1, 2.844e-3
6.000e-1, 2.271e-3
7.000e-1, 1.931e-3
8.000e-1, 1.698e-3
9.000e-1, 1.510e-3
1.000e+0, 1.379e-3
1.100e+0, -7.238e-3
1.200e+0, -5.412e-3
1.300e+0, -4.847e-3
1.400e+0, -4.351e-3
1.500e+0, -3.702e-3
1.600e+0, -3.187e-3
1.700e+0, -2.896e-3
1.800e+0, -2.700e-3
1.900e+0, -2.500e-3
2.000e+0, -2.283e-3
2.100e+0, 6.595e-3
2.200e+0, 6.141e-3
2.300e+0, 5.332e-3
2.400e+0, 4.032e-3
2.500e+0, 2.670e-3
2.600e+0, 2.014e-3
2.700e+0, 1.730e-3
2.800e+0, 1.554e-3
2.900e+0, 1.426e-3
3.000e+0, 1.318e-3
3.100e+0, -6.756e-3
3.200e+0, -4.784e-3
3.300e+0, -3.935e-3
3.400e+0, -3.256e-3
3.500e+0, -2.686e-3
3.600e+0, -2.289e-3
3.700e+0, -2.001e-3
3.800e+0, -1.786e-3
3.900e+0, -1.621e-3
4.000e+0, -1.491e-3
4.100e+0, 5.652e-3
4.200e+0, 5.070e-3
4.300e+0, 4.726e-3
4.400e+0, 3.346e-3
4.500e+0, 2.195e-3
4.600e+0, 1.647e-3
4.700e+0, 1.405e-3
4.800e+0, 1.276e-3
4.900e+0, 1.173e-3
5.000e+0, 1.086e-3
5.100e+0, -6.460e-3
5.200e+0, -4.024e-3
5.300e+0, -2.752e-3
5.400e+0, -2.138e-3
5.500e+0, -1.834e-3
5.600e+0, -1.606e-3
5.700e+0, -1.445e-3
5.800e+0, -1.325e-3
5.900e+0, -1.229e-3
6.000e+0, -1.152e-3
6.100e+0, 4.835e-3
6.200e+0, 4.761e-3
6.300e+0, 3.860e-3
6.400e+0, 2.519e-3
6.500e+0, 1.629e-3
6.600e+0, 1.337e-3
6.700e+0, 1.175e-3
6.800e+0, 1.061e-3
6.900e+0, 9.785e-4
7.000e+0, 9.054e-4
7.100e+0, -6.120e-3
7.200e+0, -3.326e-3
7.300e+0, -2.037e-3
7.400e+0, -1.651e-3
7.500e+0, -1.440e-3
7.600e+0, -1.285e-3
7.700e+0, -1.170e-3
7.800e+0, -1.087e-3
7.900e+0, -1.014e-3
8.000e+0, -9.590e-4
8.100e+0, 4.466e-3
8.200e+0, 4.272e-3
8.300e+0, 2.885e-3
8.400e+0, 1.915e-3
8.500e+0, 1.401e-3
8.600e+0, 1.155e-3
8.700e+0, 1.010e-3
8.800e+0, 9.140e-4
8.900e+0, 8.367e-4
9.000e+0, 7.850e-4
9.100e+0, -5.865e-3
9.200e+0, -2.902e-3
9.300e+0, -1.782e-3
9.400e+0, -1.427e-3
9.500e+0, -1.236e-3
9.600e+0, -1.108e-3
9.700e+0, -1.008e-3
9.800e+0, -9.221e-4
9.900e+0, -8.502e-4
1.000e+1, -7.942e-4
1.010e+1, 4.394e-3
1.020e+1, 3.750e-3
1.030e+1, 2.258e-3
1.040e+1, 1.613e-3
1.050e+1, 1.250e-3
1.060e+1, 1.027e-3
1.070e+1, 8.969e-4
1.080e+1, 8.163e-4
1.090e+1, 7.658e-4
1.100e+1, 7.336e-4
1.110e+1, -5.774e-3
1.120e+1, -2.754e-3
1.130e+1, -1.589e-3
1.140e+1, -1.248e-3
1.150e+1, -1.085e-3
1.160e+1, -9.693e-4
1.170e+1, -8.689e-4
1.180e+1, -7.900e-4
1.190e+1, -7.294e-4
1.200e+1, -6.794e-4
1.210e+1, 4.246e-3
1.220e+1, 3.340e-3
1.230e+1, 2.002e-3
1.240e+1, 1.454e-3
1.250e+1, 1.147e-3
1.260e+1, 9.586e-4
1.270e+1, 8.449e-4
1.280e+1, 7.803e-4
1.290e+1, 7.330e-4
1.300e+1, 6.968e-4
1.310e+1, -5.603e-3
1.320e+1, -2.425e-3
1.330e+1, -1.313e-3
1.340e+1, -1.036e-3
1.350e+1, -8.951e-4
1.360e+1, -7.970e-4
1.370e+1, -7.191e-4
1.380e+1, -6.540e-4
1.390e+1, -6.014e-4
1.400e+1, -5.571e-4
1.410e+1, 4.053e-3
1.420e+1, 2.849e-3
1.430e+1, 1.748e-3
1.440e+1, 1.305e-3
1.450e+1, 1.049e-3
1.460e+1, 8.935e-4
1.470e+1, 7.945e-4
1.480e+1, 7.317e-4
1.490e+1, 6.970e-4
1.500e+1, 6.732e-4
1.510e+1, -5.499e-3
1.520e+1, -1.907e-3
1.530e+1, -1.016e-3
1.540e+1, -8.519e-4
1.550e+1, -7.552e-4
1.560e+1, -6.800e-4
1.570e+1, -6.093e-4
1.580e+1, -5.559e-4
1.590e+1, -5.157e-4
1.600e+1, -4.812e-4
1.610e+1, 3.798e-3
1.620e+1, 2.469e-3
1.630e+1, 1.580e-3
1.640e+1, 1.202e-3
1.650e+1, 9.700e-4
1.660e+1, 8.363e-4
1.670e+1, 7.579e-4
1.680e+1, 7.126e-4
1.690e+1, 6.790e-4
1.700e+1, 6.597e-4
1.710e+1, -5.442e-3
1.720e+1, -1.566e-3
1.730e+1, -8.721e-4
1.740e+1, -7.378e-4
1.750e+1, -6.546e-4
1.760e+1, -5.975e-4
1.770e+1, -5.505e-4
1.780e+1, -5.097e-4
1.790e+1, -4.770e-4
1.800e+1, -4.472e-4
1.810e+1, 3.581e-3
1.820e+1, 2.280e-3
1.830e+1, 1.506e-3
1.840e+1, 1.136e-3
1.850e+1, 9.191e-4
1.860e+1, 7.950e-4
1.870e+1, 7.241e-4
1.880e+1, 6.836e-4
1.890e+1, 6.637e-4
1.900e+1, 6.472e-4
1.910e+1, -5.430e-3
1.920e+1, -1.384e-3
1.930e+1, -8.196e-4
1.940e+1, -7.048e-4
1.950e+1, -6.395e-4
1.960e+1, -5.880e-4
1.970e+1, -5.439e-4
1.980e+1, -5.128e-4
1.990e+1, -4.805e-4
2.000e+1, -4.479e-4
2.010e+1, 3.495e-3
2.020e+1, 2.260e-3
2.030e+1, 1.491e-3
2.040e+1, 1.117e-3
2.050e+1, 9.006e-4
2.060e+1, 7.794e-4
2.070e+1, 7.115e-4
2.080e+1, 6.758e-4
2.090e+1, 6.599e-4
2.100e+1, 6.441e-4
2.110e+1, -5.419e-3
2.120e+1, -1.351e-3
2.130e+1, -7.875e-4
2.140e+1, -6.797e-4
2.150e+1, -6.197e-4
2.160e+1, -5.768e-4
2.170e+1, -5.414e-4
2.180e+1, -5.110e-4
2.190e+1, -4.788e-4
2.200e+1, -4.490e-4
2.210e+1, 3.429e-3
2.220e+1, 2.248e-3
2.230e+1, 1.500e-3
2.240e+1, 1.114e-3
2.250e+1, 8.919e-4
2.260e+1, 7.655e-4
2.270e+1, 7.049e-4
2.280e+1, 6.776e-4
2.290e+1, 6.586e-4
2.300e+1, 6.464e-4
2.310e+1, -5.494e-3
2.320e+1, -1.411e-3
2.330e+1, -7.975e-4
2.340e+1, -6.846e-4
2.350e+1, -6.237e-4
2.360e+1, -5.815e-4
2.370e+1, -5.434e-4
2.380e+1, -5.037e-4
2.390e+1, -4.704e-4
2.400e+1, -4.409e-4
2.410e+1, 3.372e-3
2.420e+1, 2.301e-3
2.430e+1, 1.535e-3
2.440e+1, 1.125e-3
2.450e+1, 8.966e-4
2.460e+1, 7.688e-4
2.470e+1, 7.078e-4
2.480e+1, 6.772e-4
2.490e+1, 6.576e-4
2.500e+1, 6.431e-4
2.510e+1, -5.496e-3
2.520e+1, -1.435e-3
2.530e+1, -7.855e-4
2.540e+1, -6.724e-4
2.550e+1, -6.094e-4
2.560e+1, -5.625e-4
2.570e+1, -5.251e-4
2.580e+1, -4.986e-4
2.590e+1, -4.734e-4
2.600e+1, -4.524e-4
2.610e+1, 3.388e-3
2.620e+1, 2.259e-3
2.630e+1, 1.521e-3
2.640e+1, 1.129e-3
2.650e+1, 8.963e-4
2.660e+1, 7.698e-4
2.670e+1, 7.087e-4
2.680e+1, 6.828e-4
2.690e+1, 6.683e-4
2.700e+1, 6.591e-4
2.710e+1, -5.596e-3
2.720e+1, -1.577e-3
2.730e+1, -8.378e-4
2.740e+1, -7.187e-4
2.750e+1, -6.535e-4
2.760e+1, -5.989e-4
2.770e+1, -5.566e-4
2.780e+1, -5.225e-4
2.790e+1, -4.915e-4
2.800e+1, -4.666e-4
2.810e+1, 3.527e-3
2.820e+1, 2.369e-3
2.830e+1, 1.565e-3
2.840e+1, 1.144e-3
2.850e+1, 9.045e-4
2.860e+1, 7.760e-4
2.870e+1, 7.155e-4
2.880e+1, 6.909e-4
2.890e+1, 6.769e-4
2.900e+1, 6.679e-4
2.910e+1, -5.620e-3
2.920e+1, -1.679e-3
2.930e+1, -8.901e-4
2.940e+1, -7.586e-4
2.950e+1, -6.863e-4
2.960e+1, -6.301e-4
2.970e+1, -5.879e-4
2.980e+1, -5.540e-4
2.990e+1, -5.240e-4
3.000e+1, -4.965e-4
3.010e+1, 3.659e-3
3.020e+1, 2.463e-3
3.030e+1, 1.615e-3
3.040e+1, 1.167e-3
3.050e+1, 9.210e-4
3.060e+1, 7.910e-4
3.070e+1, 7.311e-4
3.080e+1, 7.036e-4
3.090e+1, 6.836e-4
3.100e+1, 6.691e-4
3.110e+1, -5.676e-3
3.120e+1, -1.820e-3
3.130e+1, -9.323e-4
3.140e+1, -7.790e-4
3.150e+1, -6.933e-4
3.160e+1, -6.390e-4
3.170e+1, -5.960e-4
3.180e+1, -5.655e-4
3.190e+1, -5.367e-4
3.200e+1, -5.108e-4
3.210e+1, 3.739e-3
3.220e+1, 2.552e-3
3.230e+1, 1.626e-3
3.240e+1, 1.171e-3
3.250e+1, 9.259e-4
3.260e+1, 7.968e-4
3.270e+1, 7.341e-4
3.280e+1, 7.047e-4
3.290e+1, 6.855e-4
3.300e+1, 6.747e-4
3.310e+1, -5.708e-3
3.320e+1, -1.941e-3
3.330e+1, -9.860e-4
3.340e+1, -8.180e-4
3.350e+1, -7.252e-4
3.360e+1, -6.649e-4
3.370e+1, -6.219e-4
3.380e+1, -5.868e-4
3.390e+1, -5.561e-4
3.400e+1, -5.311e-4
3.410e+1, 3.823e-3
3.420e+1, 2.663e-3
3.430e+1, 1.687e-3
3.440e+1, 1.204e-3
3.450e+1, 9.472e-4
3.460e+1, 8.160e-4
3.470e+1, 7.527e-4
3.480e+1, 7.201e-4
3.490e+1, 7.021e-4
3.500e+1, 6.895e-4
3.510e+1, -5.767e-3
3.520e+1, -2.050e-3
3.530e+1, -1.032e-3
3.540e+1, -8.420e-4
3.550e+1, -7.454e-4
3.560e+1, -6.817e-4
3.570e+1, -6.385e-4
3.580e+1, -6.037e-4
3.590e+1, -5.727e-4
3.600e+1, -5.459e-4
3.610e+1, 3.879e-3
3.620e+1, 2.775e-3
3.630e+1, 1.739e-3
3.640e+1, 1.213e-3
3.650e+1, 9.519e-4
3.660e+1, 8.194e-4
3.670e+1, 7.585e-4
3.680e+1, 7.254e-4
3.690e+1, 7.047e-4
3.700e+1, 6.952e-4
3.710e+1, -5.775e-3
3.720e+1, -2.138e-3
3.730e+1, -1.093e-3
3.740e+1, -8.845e-4
3.750e+1, -7.756e-4
3.760e+1, -7.047e-4
3.770e+1, -6.571e-4
3.780e+1, -6.159e-4
3.790e+1, -5.866e-4
3.800e+1, -5.603e-4
3.810e+1, 3.929e-3
3.820e+1, 2.842e-3
3.830e+1, 1.776e-3
3.840e+1, 1.238e-3
3.850e+1, 9.713e-4
3.860e+1, 8.371e-4
3.870e+1, 7.697e-4
3.880e+1, 7.399e-4
3.890e+1, 7.235e-4
3.900e+1, 7.103e-4
3.910e+1, -5.842e-3
3.920e+1, -2.328e-3
3.930e+1, -1.187e-3
3.940e+1, -9.403e-4
3.950e+1, -8.151e-4
3.960e+1, -7.395e-4
3.970e+1, -6.841e-4
3.980e+1, -6.391e-4
3.990e+1, -6.017e-4
4.000e+1, -5.672e-4
4.010e+1, 3.968e-3
4.020e+1, 2.961e-3
4.030e+1, 1.844e-3
4.040e+1, 1.275e-3
4.050e+1, 9.966e-4
4.060e+1, 8.614e-4
4.070e+1, 7.841e-4
4.080e+1, 7.456e-4
4.090e+1, 7.239e-4
4.100e+1, 7.116e-4
4.110e+1, -5.843e-3
4.120e+1, -2.431e-3
4.130e+1, -1.240e-3
4.140e+1, -9.710e-4
4.150e+1, -8.374e-4
4.160e+1, -7.469e-4
4.170e+1, -6.775e-4
4.180e+1, -6.248e-4
4.190e+1, -5.859e-4
4.200e+1, -5.502e-4
4.210e+1, 3.953e-3
4.220e+1, 3.004e-3
4.230e+1, 1.882e-3
4.240e+1, 1.292e-3
4.250e+1, 1.005e-3
4.260e+1, 8.654e-4
4.270e+1, 7.936e-4
4.280e+1, 7.556e-4
4.290e+1, 7.368e-4
4.300e+1, 7.255e-4
4.310e+1, -5.887e-3
4.320e+1, -2.569e-3
4.330e+1, -1.276e-3
4.340e+1, -9.805e-4
4.350e+1, -8.319e-4
4.360e+1, -7.320e-4
4.370e+1, -6.599e-4
4.380e+1, -6.076e-4
4.390e+1, -5.643e-4
4.400e+1, -5.278e-4
4.410e+1, 3.898e-3
4.420e+1, 3.016e-3
4.430e+1, 1.910e-3
4.440e+1, 1.311e-3
4.450e+1, 1.019e-3
4.460e+1, 8.717e-4
4.470e+1, 7.991e-4
4.480e+1, 7.600e-4
4.490e+1, 7.395e-4
4.500e+1, 7.236e-4
4.510e+1, -5.907e-3
4.520e+1, -2.624e-3
4.530e+1, -1.263e-3
4.540e+1, -9.685e-4
4.550e+1, -8.190e-4
4.560e+1, -7.215e-4
4.570e+1, -6.546e-4
4.580e+1, -6.013e-4
4.590e+1, -5.602e-4
4.600e+1, -5.260e-4
4.610e+1, 3.842e-3
4.620e+1, 3.017e-3
4.630e+1, 1.936e-3
4.640e+1, 1.330e-3
4.650e+1, 1.037e-3
4.660e+1, 8.805e-4
4.670e+1, 8.007e-4
4.680e+1, 7.631e-4
4.690e+1, 7.432e-4
4.700e+1, 7.314e-4
4.710e+1, -5.916e-3
4.720e+1, -2.701e-3
4.730e+1, -1.271e-3
4.740e+1, -9.654e-4
4.750e+1, -8.096e-4
4.760e+1, -7.098e-4
4.770e+1, -6.399e-4
4.780e+1, -5.897e-4
4.790e+1, -5.511e-4
4.800e+1, -5.185e-4
4.810e+1, 3.798e-3
4.820e+1, 3.026e-3
4.830e+1, 1.950e-3
4.840e+1, 1.338e-3
4.850e+1, 1.035e-3
4.860e+1, 8.810e-4
4.870e+1, 8.042e-4
4.880e+1, 7.662e-4
4.890e+1, 7.456e-4
4.900e+1, 7.330e-4
4.910e+1, -5.898e-3
4.920e+1, -2.694e-3
4.930e+1, -1.256e-3
4.940e+1, -9.489e-4
4.950e+1, -7.992e-4
4.960e+1, -7.050e-4
4.970e+1, -6.378e-4
4.980e+1, -5.886e-4
4.990e+1, -5.475e-4
5.000e+1, -5.143e-4
5.010e+1, 3.770e-3
5.020e+1, 3.033e-3
5.030e+1, 1.959e-3
5.040e+1, 1.349e-3
5.050e+1, 1.038e-3
5.060e+1, 8.727e-4
5.070e+1, 7.925e-4
5.080e+1, 7.558e-4
5.090e+1, 7.402e-4
5.100e+1, 7.297e-4
5.110e+1, -5.905e-3
5.120e+1, -2.712e-3
5.130e+1, -1.279e-3
5.140e+1, -9.694e-4
5.150e+1, -8.159e-4
5.160e+1, -7.187e-4
5.170e+1, -6.504e-4
5.180e+1, -5.937e-4
5.190e+1, -5.504e-4
5.200e+1, -5.141e-4
5.210e+1, 3.753e-3
5.220e+1, 3.026e-3
5.230e+1, 1.987e-3
5.240e+1, 1.355e-3
5.250e+1, 1.041e-3
5.260e+1, 8.816e-4
5.270e+1, 8.009e-4
5.280e+1, 7.640e-4
5.290e+1, 7.479e-4
5.300e+1, 7.360e-4
5.310e+1, -5.882e-3
5.320e+1, -2.680e-3
5.330e+1, -1.270e-3
5.340e+1, -9.641e-4
5.350e+1, -8.099e-4
5.360e+1, -7.057e-4
5.370e+1, -6.362e-4
5.380e+1, -5.796e-4
5.390e+1, -5.356e-4
5.400e+1, -5.006e-4
5.410e+1, 3.700e-3
5.420e+1, 3.026e-3
5.430e+1, 1.993e-3
5.440e+1, 1.357e-3
5.450e+1, 1.039e-3
5.460e+1, 8.769e-4
5.470e+1, 7.991e-4
5.480e+1, 7.634e-4
5.490e+1, 7.481e-4
5.500e+1, 7.410e-4
5.510e+1, -5.885e-3
5.520e+1, -2.754e-3
5.530e+1, -1.304e-3
5.540e+1, -9.584e-4
5.550e+1, -7.970e-4
5.560e+1, -6.945e-4
5.570e+1, -6.158e-4
5.580e+1, -5.566e-4
5.590e+1, -5.158e-4
5.600e+1, -4.809e-4
5.610e+1, 3.626e-3
5.620e+1, 3.012e-3
5.630e+1, 1.995e-3
5.640e+1, 1.362e-3
5.650e+1, 1.049e-3
5.660e+1, 8.922e-4
5.670e+1, 8.080e-4
5.680e+1, 7.676e-4
5.690e+1, 7.472e-4
5.700e+1, 7.379e-4
5.710e+1, -5.803e-3
5.720e+1, -2.751e-3
5.730e+1, -1.326e-3
5.740e+1, -9.740e-4
5.750e+1, -8.018e-4
5.760e+1, -6.899e-4
5.770e+1, -6.136e-4
5.780e+1, -5.588e-4
5.790e+1, -5.156e-4
5.800e+1, -4.793e-4
5.810e+1, 3.589e-3
5.820e+1, 3.020e-3
5.830e+1, 2.010e-3
5.840e+1, 1.373e-3
5.850e+1, 1.048e-3
5.860e+1, 8.839e-4
5.870e+1, 8.060e-4
5.880e+1, 7.732e-4
5.890e+1, 7.559e-4
5.900e+1, 7.405e-4
5.910e+1, -5.803e-3
5.920e+1, -2.771e-3
5.930e+1, -1.324e-3
5.940e+1, -9.595e-4
5.950e+1, -7.836e-4
5.960e+1, -6.744e-4
5.970e+1, -6.009e-4
5.980e+1, -5.483e-4
5.990e+1, -5.068e-4
6.000e+1, -4.712e-4
6.010e+1, 3.537e-3
6.020e+1, 3.001e-3
6.030e+1, 2.003e-3
6.040e+1, 1.368e-3
6.050e+1, 1.043e-3
6.060e+1, 8.818e-4
6.070e+1, 7.989e-4
6.080e+1, 7.636e-4
6.090e+1, 7.465e-4
6.100e+1, 7.379e-4
6.110e+1, -5.744e-3
6.120e+1, -2.675e-3
6.130e+1, -1.290e-3
6.140e+1, -9.432e-4
6.150e+1, -7.709e-4
6.160e+1, -6.608e-4
6.170e+1, -5.867e-4
6.180e+1, -5.316e-4
6.190e+1, -4.876e-4
6.200e+1, -4.539e-4
6.210e+1, 3.466e-3
6.220e+1, 2.918e-3
6.230e+1, 1.961e-3
6.240e+1, 1.359e-3
6.250e+1, 1.047e-3
6.260e+1, 8.905e-4
6.270e+1, 8.097e-4
6.280e+1, 7.683e-4
6.290e+1, 7.511e-4
6.300e+1, 7.425e-4
6.310e+1, -5.708e-3
6.320e+1, -2.623e-3
6.330e+1, -1.267e-3
6.340e+1, -9.138e-4
6.350e+1, -7.482e-4
6.360e+1, -6.422e-4
6.370e+1, -5.730e-4
6.380e+1, -5.186e-4
6.390e+1, -4.765e-4
6.400e+1, -4.446e-4
6.410e+1, 3.391e-3
6.420e+1, 2.868e-3
6.430e+1, 1.936e-3
6.440e+1, 1.347e-3
6.450e+1, 1.040e-3
6.460e+1, 8.786e-4
6.470e+1, 8.016e-4
6.480e+1, 7.700e-4
6.490e+1, 7.582e-4
6.500e+1, 7.501e-4
6.510e+1, -5.701e-3
6.520e+1, -2.610e-3
6.530e+1, -1.264e-3
6.540e+1, -9.176e-4
6.550e+1, -7.452e-4
6.560e+1, -6.387e-4
6.570e+1, -5.697e-4
6.580e+1, -5.191e-4
6.590e+1, -4.792e-4
6.600e+1, -4.437e-4
6.610e+1, 3.353e-3
6.620e+1, 2.850e-3
6.630e+1, 1.930e-3
6.640e+1, 1.343e-3
6.650e+1, 1.031e-3
6.660e+1, 8.734e-4
6.670e+1, 7.987e-4
6.680e+1, 7.708e-4
6.690e+1, 7.547e-4
6.700e+1, 7.471e-4
6.710e+1, -5.613e-3
6.720e+1, -2.566e-3
6.730e+1, -1.279e-3
6.740e+1, -9.312e-4
6.750e+1, -7.575e-4
6.760e+1, -6.516e-4
6.770e+1, -5.773e-4
6.780e+1, -5.200e-4
6.790e+1, -4.783e-4
6.800e+1, -4.440e-4
6.810e+1, 3.352e-3
6.820e+1, 2.835e-3
6.830e+1, 1.922e-3
6.840e+1, 1.343e-3
6.850e+1, 1.034e-3
6.860e+1, 8.757e-4
6.870e+1, 7.996e-4
6.880e+1, 7.675e-4
6.890e+1, 7.521e-4
6.900e+1, 7.435e-4
6.910e+1, -5.575e-3
6.920e+1, -2.565e-3
6.930e+1, -1.282e-3
6.940e+1, -9.256e-4
6.950e+1, -7.485e-4
6.960e+1, -6.389e-4
6.970e+1, -5.637e-4
6.980e+1, -5.102e-4
6.990e+1, -4.675e-4
7.000e+1, -4.336e-4
7.010e+1, 3.331e-3
7.020e+1, 2.788e-3
7.030e+1, 1.899e-3
7.040e+1, 1.337e-3
7.050e+1, 1.031e-3
7.060e+1, 8.733e-4
7.070e+1, 7.953e-4
7.080e+1, 7.653e-4
7.090e+1, 7.528e-4
7.100e+1, 7.483e-4
7.110e+1, -5.551e-3
7.120e+1, -2.568e-3
7.130e+1, -1.295e-3
7.140e+1, -9.225e-4
7.150e+1, -7.377e-4
7.160e+1, -6.260e-4
7.170e+1, -5.505e-4
7.180e+1, -4.966e-4
7.190e+1, -4.553e-4
7.200e+1, -4.233e-4
7.210e+1, 3.281e-3
7.220e+1, 2.765e-3
7.230e+1, 1.894e-3
7.240e+1, 1.330e-3
7.250e+1, 1.027e-3
7.260e+1, 8.729e-4
7.270e+1, 7.973e-4
7.280e+1, 7.641e-4
7.290e+1, 7.499e-4
7.300e+1, 7.442e-4
7.310e+1, -5.494e-3
7.320e+1, -2.521e-3
7.330e+1, -1.271e-3
7.340e+1, -9.156e-4
7.350e+1, -7.293e-4
7.360e+1, -6.222e-4
7.370e+1, -5.523e-4
7.380e+1, -4.963e-4
7.390e+1, -4.526e-4
7.400e+1, -4.185e-4
7.410e+1, 3.243e-3
7.420e+1, 2.725e-3
7.430e+1, 1.862e-3
7.440e+1, 1.315e-3
7.450e+1, 1.025e-3
7.460e+1, 8.775e-4
7.470e+1, 7.999e-4
7.480e+1, 7.670e-4
7.490e+1, 7.562e-4
7.500e+1, 7.521e-4
7.510e+1, -5.473e-3
7.520e+1, -2.494e-3
7.530e+1, -1.267e-3
7.540e+1, -9.177e-4
7.550e+1, -7.333e-4
7.560e+1, -6.205e-4
7.570e+1, -5.434e-4
7.580e+1, -4.846e-4
7.590e+1, -4.428e-4
7.600e+1, -4.112e-4
7.610e+1, 3.181e-3
7.620e+1, 2.722e-3
7.630e+1, 1.861e-3
7.640e+1, 1.312e-3
7.650e+1, 1.021e-3
7.660e+1, 8.701e-4
7.670e+1, 7.974e-4
7.680e+1, 7.674e-4
7.690e+1, 7.521e-4
7.700e+1, 7.483e-4
7.710e+1, -5.419e-3
7.720e+1, -2.473e-3
7.730e+1, -1.272e-3
7.740e+1, -9.170e-4
7.750e+1, -7.333e-4
7.760e+1, -6.220e-4
7.770e+1, -5.444e-4
7.780e+1, -4.917e-4
7.790e+1, -4.461e-4
7.800e+1, -4.087e-4
7.810e+1, 3.145e-3
7.820e+1, 2.684e-3
7.830e+1, 1.866e-3
7.840e+1, 1.324e-3
7.850e+1, 1.025e-3
7.860e+1, 8.709e-4
7.870e+1, 7.997e-4
7.880e+1, 7.739e-4
7.890e+1, 7.636e-4
7.900e+1, 7.581e-4
7.910e+1, -5.404e-3
7.920e+1, -2.459e-3
7.930e+1, -1.251e-3
7.940e+1, -8.988e-4
7.950e+1, -7.204e-4
7.960e+1, -6.085e-4
7.970e+1, -5.320e-4
7.980e+1, -4.751e-4
7.990e+1, -4.308e-4
8.000e+1, -3.930e-4
8.010e+1, 3.092e-3
8.020e+1, 2.622e-3
8.030e+1, 1.836e-3
8.040e+1, 1.315e-3
8.050e+1, 1.027e-3
8.060e+1, 8.786e-4
8.070e+1, 8.105e-4
8.080e+1, 7.773e-4
8.090e+1, 7.658e-4
8.100e+1, 7.588e-4
8.110e+1, -5.341e-3
8.120e+1, -2.388e-3
8.130e+1, -1.259e-3
8.140e+1, -9.101e-4
8.150e+1, -7.244e-4
8.160e+1, -6.101e-4
8.170e+1, -5.334e-4
8.180e+1, -4.776e-4
8.190e+1, -4.319e-4
8.200e+1, -3.927e-4
8.210e+1, 3.062e-3
8.220e+1, 2.623e-3
8.230e+1, 1.835e-3
8.240e+1, 1.320e-3
8.250e+1, 1.027e-3
8.260e+1, 8.735e-4
8.270e+1, 8.010e-4
8.280e+1, 7.737e-4
8.290e+1, 7.658e-4
8.300e+1, 7.644e-4
8.310e+1, -5.357e-3
8.320e+1, -2.420e-3
8.330e+1, -1.286e-3
8.340e+1, -9.297e-4
8.350e+1, -7.431e-4
8.360e+1, -6.211e-4
8.370e+1, -5.356e-4
8.380e+1, -4.739e-4
8.390e+1, -4.249e-4
8.400e+1, -3.889e-4
8.410e+1, 3.051e-3
8.420e+1, 2.614e-3
8.430e+1, 1.841e-3
8.440e+1, 1.319e-3
8.450e+1, 1.034e-3
8.460e+1, 8.829e-4
8.470e+1, 8.083e-4
8.480e+1, 7.787e-4
8.490e+1, 7.704e-4
8.500e+1, 7.623e-4
8.510e+1, -5.277e-3
8.520e+1, -2.341e-3
8.530e+1, -1.285e-3
8.540e+1, -9.378e-4
8.550e+1, -7.429e-4
8.560e+1, -6.210e-4
8.570e+1, -5.277e-4
8.580e+1, -4.663e-4
8.590e+1, -4.188e-4
8.600e+1, -3.808e-4
8.610e+1, 3.026e-3
8.620e+1, 2.561e-3
8.630e+1, 1.832e-3
8.640e+1, 1.306e-3
8.650e+1, 1.021e-3
8.660e+1, 8.784e-4
8.670e+1, 8.126e-4
8.680e+1, 7.828e-4
8.690e+1, 7.707e-4
8.700e+1, 7.718e-4
8.710e+1, -5.277e-3
8.720e+1, -2.339e-3
8.730e+1, -1.280e-3
8.740e+1, -9.199e-4
8.750e+1, -7.182e-4
8.760e+1, -5.970e-4
8.770e+1, -5.176e-4
8.780e+1, -4.553e-4
8.790e+1, -4.104e-4
8.800e+1, -3.724e-4
8.810e+1, 2.970e-3
8.820e+1, 2.540e-3
8.830e+1, 1.816e-3
8.840e+1, 1.300e-3
8.850e+1, 1.022e-3
8.860e+1, 8.805e-4
8.870e+1, 8.125e-4
8.880e+1, 7.820e-4
8.890e+1, 7.704e-4
8.900e+1, 7.686e-4
8.910e+1, -5.242e-3
8.920e+1, -2.343e-3
8.930e+1, -1.291e-3
8.940e+1, -9.340e-4
8.950e+1, -7.392e-4
8.960e+1, -6.100e-4
8.970e+1, -5.253e-4
8.980e+1, -4.630e-4
8.990e+1, -4.144e-4
9.000e+1, -3.754e-4
9.010e+1, 2.978e-3
9.020e+1, 2.549e-3
9.030e+1, 1.816e-3
9.040e+1, 1.300e-3
9.050e+1, 1.017e-3
9.060e+1, 8.767e-4
9.070e+1, 8.058e-4
9.080e+1, 7.800e-4
9.090e+1, 7.695e-4
9.100e+1, 7.682e-4
9.110e+1, -5.237e-3
9.120e+1, -2.351e-3
9.130e+1, -1.295e-3
9.140e+1, -9.286e-4
9.150e+1, -7.297e-4
9.160e+1, -6.014e-4
9.170e+1, -5.159e-4
9.180e+1, -4.597e-4
9.190e+1, -4.118e-4
9.200e+1, -3.697e-4
9.210e+1, 2.941e-3
9.220e+1, 2.535e-3
9.230e+1, 1.814e-3
9.240e+1, 1.302e-3
9.250e+1, 1.025e-3
9.260e+1, 8.820e-4
9.270e+1, 8.125e-4
9.280e+1, 7.865e-4
9.290e+1, 7.776e-4
9.300e+1, 7.754e-4
9.310e+1, -5.228e-3
9.320e+1, -2.376e-3
9.330e+1, -1.297e-3
9.340e+1, -9.415e-4
9.350e+1, -7.357e-4
9.360e+1, -6.080e-4
9.370e+1, -5.176e-4
9.380e+1, -4.519e-4
9.390e+1, -4.017e-4
9.400e+1, -3.624e-4
9.410e+1, 2.934e-3
9.420e+1, 2.538e-3
9.430e+1, 1.810e-3
9.440e+1, 1.298e-3
9.450e+1, 1.019e-3
9.460e+1, 8.828e-4
9.470e+1, 8.162e-4
9.480e+1, 7.871e-4
9.490e+1, 7.796e-4
9.500e+1, 7.758e-4
9.510e+1, -5.246e-3
9.520e+1, -2.420e-3
9.530e+1, -1.312e-3
9.540e+1, -9.265e-4
9.550e+1, -7.231e-4
9.560e+1, -5.908e-4
9.570e+1, -5.009e-4
9.580e+1, -4.320e-4
9.590e+1, -3.840e-4
9.600e+1, -3.477e-4
9.610e+1, 2.908e-3
9.620e+1, 2.514e-3
9.630e+1, 1.807e-3
9.640e+1, 1.304e-3
9.650e+1, 1.032e-3
9.660e+1, 8.912e-4
9.670e+1, 8.164e-4
9.680e+1, 7.890e-4
9.690e+1, 7.837e-4
9.700e+1, 7.832e-4
9.710e+1, -5.258e-3
9.720e+1, -2.463e-3
9.730e+1, -1.323e-3
9.740e+1, -9.209e-4
9.750e+1, -7.123e-4
9.760e+1, -5.794e-4
9.770e+1, -4.919e-4
9.780e+1, -4.291e-4
9.790e+1, -3.793e-4
9.800e+1, -3.420e-4
9.810e+1, 2.869e-3
9.820e+1, 2.509e-3
9.830e+1, 1.812e-3
9.840e+1, 1.320e-3
9.850e+1, 1.036e-3
9.860e+1, 8.882e-4
9.870e+1, 8.184e-4
9.880e+1, 7.850e-4
9.890e+1, 7.754e-4
9.900e+1, 7.737e-4
9.910e+1, -5.211e-3
9.920e+1, -2.426e-3
9.930e+1, -1.307e-3
9.940e+1, -9.146e-4
9.950e+1, -7.049e-4
9.960e+1, -5.708e-4
9.970e+1, -4.894e-4
9.980e+1, -4.245e-4
9.990e+1, -3.764e-4
1.000e+2, -3.346e-4
1.001e+2, 2.826e-3
1.002e+2, 2.457e-3
1.003e+2, 1.807e-3
1.004e+2, 1.317e-3
1.005e+2, 1.026e-3
1.006e+2, 8.836e-4
1.007e+2, 8.143e-4
1.008e+2, 7.872e-4
1.009e+2, 7.781e-4
1.010e+2, 7.761e-4
1.011e+2, -5.240e-3
1.012e+2, -2.461e-3
1.013e+2, -1.319e-3
1.014e+2, -9.170e-4
1.015e+2, -7.069e-4
1.016e+2, -5.714e-4
1.017e+2, -4.822e-4
1.018e+2, -4.174e-4
1.019e+2, -3.667e-4
1.020e+2, -3.267e-4
1.021e+2, 2.797e-3
1.022e+2, 2.428e-3
1.023e+2, 1.815e-3
1.024e+2, 1.326e-3
1.025e+2, 1.029e-3
1.026e+2, 8.810e-4
1.027e+2, 8.110e-4
1.028e+2, 7.838e-4
1.029e+2, 7.758e-4
1.030e+2, 7.751e-4
1.031e+2, -5.154e-3
1.032e+2, -2.416e-3
1.033e+2, -1.319e-3
1.034e+2, -9.265e-4
1.035e+2, -7.099e-4
1.036e+2, -5.729e-4
1.037e+2, -4.795e-4
1.038e+2, -4.140e-4
1.039e+2, -3.645e-4
1.040e+2, -3.253e-4
1.041e+2, 2.794e-3
1.042e+2, 2.389e-3
1.043e+2, 1.803e-3
1.044e+2, 1.343e-3
1.045e+2, 1.044e-3
1.046e+2, 8.845e-4
1.047e+2, 8.133e-4
1.048e+2, 7.852e-4
1.049e+2, 7.795e-4
1.050e+2, 7.771e-4
1.051e+2, -5.175e-3
1.052e+2, -2.438e-3
1.053e+2, -1.324e-3
1.054e+2, -9.266e-4
1.055e+2, -7.075e-4
1.056e+2, -5.664e-4
1.057e+2, -4.747e-4
1.058e+2, -4.049e-4
1.059e+2, -3.531e-4
1.060e+2, -3.117e-4
1.061e+2, 2.748e-3
1.062e+2, 2.364e-3
1.063e+2, 1.791e-3
1.064e+2, 1.328e-3
1.065e+2, 1.038e-3
1.066e+2, 8.864e-4
1.067e+2, 8.108e-4
1.068e+2, 7.835e-4
1.069e+2, 7.749e-4
1.070e+2, 7.736e-4
1.071e+2, -5.109e-3
1.072e+2, -2.402e-3
1.073e+2, -1.327e-3
1.074e+2, -9.387e-4
1.075e+2, -7.163e-4
1.076e+2, -5.750e-4
1.077e+2, -4.764e-4
1.078e+2, -4.087e-4
1.079e+2, -3.574e-4
1.080e+2, -3.179e-4
1.081e+2, 2.762e-3
1.082e+2, 2.385e-3
1.083e+2, 1.805e-3
1.084e+2, 1.337e-3
1.085e+2, 1.041e-3
1.086e+2, 8.883e-4
1.087e+2, 8.143e-4
1.088e+2, 7.830e-4
1.089e+2, 7.740e-4
1.090e+2, 7.772e-4
1.091e+2, -5.116e-3
1.092e+2, -2.383e-3
1.093e+2, -1.322e-3
1.094e+2, -9.368e-4
1.095e+2, -7.170e-4
1.096e+2, -5.718e-4
1.097e+2, -4.721e-4
1.098e+2, -4.034e-4
1.099e+2, -3.533e-4
1.100e+2, -3.188e-4
1.101e+2, 2.742e-3
1.102e+2, 2.376e-3
1.103e+2, 1.800e-3
1.104e+2, 1.340e-3
1.105e+2, 1.038e-3
1.106e+2, 8.780e-4
1.107e+2, 8.072e-4
1.108e+2, 7.811e-4
1.109e+2, 7.780e-4
1.110e+2, 7.794e-4
1.111e+2, -5.083e-3
1.112e+2, -2.395e-3
1.113e+2, -1.345e-3
1.114e+2, -9.462e-4
1.115e+2, -7.161e-4
1.116e+2, -5.718e-4
1.117e+2, -4.778e-4
1.118e+2, -4.058e-4
1.119e+2, -3.538e-4
1.120e+2, -3.115e-4
1.121e+2, 2.737e-3
1.122e+2, 2.376e-3
1.123e+2, 1.797e-3
1.124e+2, 1.333e-3
1.125e+2, 1.031e-3
1.126e+2, 8.806e-4
1.127e+2, 8.113e-4
1.128e+2, 7.839e-4
1.129e+2, 7.827e-4
1.130e+2, 7.812e-4
1.131e+2, -5.064e-3
1.132e+2, -2.414e-3
1.133e+2, -1.342e-3
1.134e+2, -9.282e-4
1.135e+2, -7.000e-4
1.136e+2, -5.598e-4
1.137e+2, -4.655e-4
1.138e+2, -3.995e-4
1.139e+2, -3.493e-4
1.140e+2, -3.114e-4
1.141e+2, 2.743e-3
1.142e+2, 2.362e-3
1.143e+2, 1.790e-3
1.144e+2, 1.326e-3
1.145e+2, 1.037e-3
1.146e+2, 8.895e-4
1.147e+2, 8.141e-4
1.148e+2, 7.875e-4
1.149e+2, 7.813e-4
1.150e+2, 7.809e-4
1.151e+2, -5.073e-3
1.152e+2, -2.412e-3
1.153e+2, -1.336e-3
1.154e+2, -9.236e-4
1.155e+2, -6.951e-4
1.156e+2, -5.540e-4
1.157e+2, -4.620e-4
1.158e+2, -3.963e-4
1.159e+2, -3.499e-4
1.160e+2, -3.137e-4
1.161e+2, 2.753e-3
1.162e+2, 2.362e-3
1.163e+2, 1.783e-3
1.164e+2, 1.322e-3
1.165e+2, 1.030e-3
1.166e+2, 8.848e-4
1.167e+2, 8.158e-4
1.168e+2, 7.880e-4
1.169e+2, 7.803e-4
1.170e+2, 7.816e-4
1.171e+2, -5.038e-3
1.172e+2, -2.397e-3
1.173e+2, -1.328e-3
1.174e+2, -9.140e-4
1.175e+2, -6.924e-4
1.176e+2, -5.562e-4
1.177e+2, -4.694e-4
1.178e+2, -4.069e-4
1.179e+2, -3.591e-4
1.180e+2, -3.182e-4
1.181e+2, 2.776e-3
1.182e+2, 2.365e-3
1.183e+2, 1.764e-3
1.184e+2, 1.296e-3
1.185e+2, 1.012e-3
1.186e+2, 8.786e-4
1.187e+2, 8.171e-4
1.188e+2, 7.895e-4
1.189e+2, 7.838e-4
1.190e+2, 7.864e-4
1.191e+2, -5.079e-3
1.192e+2, -2.432e-3
1.193e+2, -1.346e-3
1.194e+2, -9.291e-4
1.195e+2, -6.966e-4
1.196e+2, -5.557e-4
1.197e+2, -4.618e-4
1.198e+2, -3.952e-4
1.199e+2, -3.457e-4
1.200e+2, -3.094e-4
1.201e+2, 2.773e-3
1.202e+2, 2.375e-3
1.203e+2, 1.772e-3
1.204e+2, 1.298e-3
1.205e+2, 1.025e-3
1.206e+2, 8.903e-4
1.207e+2, 8.224e-4
1.208e+2, 7.931e-4
1.209e+2, 7.869e-4
1.210e+2, 7.856e-4
1.211e+2, -5.021e-3
1.212e+2, -2.398e-3
1.213e+2, -1.322e-3
1.214e+2, -9.132e-4
1.215e+2, -6.917e-4
1.216e+2, -5.597e-4
1.217e+2, -4.704e-4
1.218e+2, -4.049e-4
1.219e+2, -3.561e-4
1.220e+2, -3.177e-4
1.221e+2, 2.801e-3
1.222e+2, 2.377e-3
1.223e+2, 1.769e-3
1.224e+2, 1.287e-3
1.225e+2, 1.021e-3
1.226e+2, 8.831e-4
1.227e+2, 8.199e-4
1.228e+2, 7.935e-4
1.229e+2, 7.899e-4
1.230e+2, 7.891e-4
1.231e+2, -5.063e-3
1.232e+2, -2.413e-3
1.233e+2, -1.319e-3
1.234e+2, -9.088e-4
1.235e+2, -6.955e-4
1.236e+2, -5.590e-4
1.237e+2, -4.643e-4
1.238e+2, -3.973e-4
1.239e+2, -3.489e-4
1.240e+2, -3.117e-4
1.241e+2, 2.796e-3
1.242e+2, 2.385e-3
1.243e+2, 1.760e-3
1.244e+2, 1.277e-3
1.245e+2, 1.014e-3
1.246e+2, 8.792e-4
1.247e+2, 8.161e-4
1.248e+2, 7.938e-4
1.249e+2, 7.882e-4
1.250e+2, 7.896e-4
1.251e+2, -5.062e-3
1.252e+2, -2.443e-3
1.253e+2, -1.332e-3
1.254e+2, -9.193e-4
1.255e+2, -6.924e-4
1.256e+2, -5.520e-4
1.257e+2, -4.587e-4
1.258e+2, -3.924e-4
1.259e+2, -3.423e-4
1.260e+2, -3.058e-4
1.261e+2, 2.811e-3
1.262e+2, 2.379e-3
1.263e+2, 1.753e-3
1.264e+2, 1.272e-3
1.265e+2, 1.014e-3
1.266e+2, 8.812e-4
1.267e+2, 8.173e-4
1.268e+2, 7.973e-4
1.269e+2, 7.934e-4
1.270e+2, 7.935e-4
1.271e+2, -5.067e-3
1.272e+2, -2.450e-3
1.273e+2, -1.329e-3
1.274e+2, -9.088e-4
1.275e+2, -6.837e-4
1.276e+2, -5.440e-4
1.277e+2, -4.521e-4
1.278e+2, -3.862e-4
1.279e+2, -3.381e-4
1.280e+2, -3.019e-4
1.281e+2, 2.776e-3
1.282e+2, 2.379e-3
1.283e+2, 1.745e-3
1.284e+2, 1.267e-3
1.285e+2, 1.018e-3
1.286e+2, 8.837e-4
1.287e+2, 8.189e-4
1.288e+2, 7.981e-4
1.289e+2, 7.922e-4
1.290e+2, 7.957e-4
1.291e+2, -5.047e-3
1.292e+2, -2.424e-3
1.293e+2, -1.316e-3
1.294e+2, -9.070e-4
1.295e+2, -6.824e-4
1.296e+2, -5.522e-4
1.297e+2, -4.608e-4
1.298e+2, -3.950e-4
1.299e+2, -3.459e-4
1.300e+2, -3.073e-4
1.301e+2, 2.788e-3
1.302e+2, 2.369e-3
1.303e+2, 1.733e-3
1.304e+2, 1.261e-3
1.305e+2, 1.009e-3
1.306e+2, 8.821e-4
1.307e+2, 8.215e-4
1.308e+2, 7.978e-4
1.309e+2, 7.942e-4
1.310e+2, 7.969e-4
1.311e+2, -5.052e-3
1.312e+2, -2.426e-3
1.313e+2, -1.310e-3
1.314e+2, -8.995e-4
1.315e+2, -6.838e-4
1.316e+2, -5.428e-4
1.317e+2, -4.459e-4
1.318e+2, -3.808e-4
1.319e+2, -3.365e-4
1.320e+2, -3.018e-4
1.321e+2, 2.747e-3
1.322e+2, 2.360e-3
1.323e+2, 1.729e-3
1.324e+2, 1.262e-3
1.325e+2, 1.017e-3
1.326e+2, 8.841e-4
1.327e+2, 8.233e-4
1.328e+2, 8.018e-4
1.329e+2, 7.954e-4
1.330e+2, 7.948e-4
1.331e+2, -5.055e-3
1.332e+2, -2.446e-3
1.333e+2, -1.332e-3
1.334e+2, -9.095e-4
1.335e+2, -6.817e-4
1.336e+2, -5.411e-4
1.337e+2, -4.491e-4
1.338e+2, -3.816e-4
1.339e+2, -3.333e-4
1.340e+2, -2.936e-4
1.341e+2, 2.769e-3
1.342e+2, 2.395e-3
1.343e+2, 1.744e-3
1.344e+2, 1.270e-3
1.345e+2, 1.018e-3
1.346e+2, 8.861e-4
1.347e+2, 8.251e-4
1.348e+2, 8.020e-4
1.349e+2, 7.989e-4
1.350e+2, 7.975e-4
1.351e+2, -5.055e-3
1.352e+2, -2.461e-3
1.353e+2, -1.346e-3
1.354e+2, -9.185e-4
1.355e+2, -6.907e-4
1.356e+2, -5.474e-4
1.357e+2, -4.488e-4
1.358e+2, -3.849e-4
1.359e+2, -3.377e-4
1.360e+2, -3.013e-4
1.361e+2, 2.739e-3
1.362e+2, 2.387e-3
1.363e+2, 1.741e-3
1.364e+2, 1.275e-3
1.365e+2, 1.026e-3
1.366e+2, 8.954e-4
1.367e+2, 8.298e-4
1.368e+2, 8.050e-4
1.369e+2, 7.985e-4
1.370e+2, 8.015e-4
1.371e+2, -5.032e-3
1.372e+2, -2.441e-3
1.373e+2, -1.339e-3
1.374e+2, -9.056e-4
1.375e+2, -6.774e-4
1.376e+2, -5.383e-4
1.377e+2, -4.445e-4
1.378e+2, -3.807e-4
1.379e+2, -3.342e-4
1.380e+2, -3.004e-4
1.381e+2, 2.748e-3
1.382e+2, 2.396e-3
1.383e+2, 1.731e-3
1.384e+2, 1.257e-3
1.385e+2, 1.015e-3
1.386e+2, 8.873e-4
1.387e+2, 8.280e-4
1.388e+2, 8.059e-4
1.389e+2, 8.004e-4
1.390e+2, 8.053e-4
1.391e+2, -5.045e-3
1.392e+2, -2.473e-3
1.393e+2, -1.359e-3
1.394e+2, -9.109e-4
1.395e+2, -6.745e-4
1.396e+2, -5.347e-4
1.397e+2, -4.455e-4
1.398e+2, -3.816e-4
1.399e+2, -3.349e-4
1.400e+2, -2.964e-4
1.401e+2, 2.758e-3
1.402e+2, 2.402e-3
1.403e+2, 1.726e-3
1.404e+2, 1.261e-3
1.405e+2, 1.017e-3
1.406e+2, 8.833e-4
1.407e+2, 8.256e-4
1.408e+2, 8.039e-4
1.409e+2, 8.008e-4
1.410e+2, 8.033e-4
1.411e+2, -5.020e-3
1.412e+2, -2.453e-3
1.413e+2, -1.358e-3
1.414e+2, -9.218e-4
1.415e+2, -6.897e-4
1.416e+2, -5.408e-4
1.417e+2, -4.495e-4
1.418e+2, -3.831e-4
1.419e+2, -3.312e-4
1.420e+2, -2.913e-4
1.421e+2, 2.742e-3
1.422e+2, 2.399e-3
1.423e+2, 1.738e-3
1.424e+2, 1.258e-3
1.425e+2, 1.008e-3
1.426e+2, 8.795e-4
1.427e+2, 8.198e-4
1.428e+2, 8.009e-4
1.429e+2, 8.008e-4
1.430e+2, 8.028e-4
1.431e+2, -5.030e-3
1.432e+2, -2.458e-3
1.433e+2, -1.359e-3
1.434e+2, -9.184e-4
1.435e+2, -6.839e-4
1.436e+2, -5.415e-4
1.437e+2, -4.445e-4
1.438e+2, -3.754e-4
1.439e+2, -3.272e-4
1.440e+2, -2.912e-4
1.441e+2, 2.728e-3
1.442e+2, 2.381e-3
1.443e+2, 1.735e-3
1.444e+2, 1.266e-3
1.445e+2, 1.016e-3
1.446e+2, 8.884e-4
1.447e+2, 8.349e-4
1.448e+2, 8.108e-4
1.449e+2, 8.030e-4
1.450e+2, 8.035e-4
1.451e+2, -5.045e-3
1.452e+2, -2.502e-3
1.453e+2, -1.372e-3
1.454e+2, -9.332e-4
1.455e+2, -6.948e-4
1.456e+2, -5.430e-4
1.457e+2, -4.427e-4
1.458e+2, -3.740e-4
1.459e+2, -3.214e-4
1.460e+2, -2.834e-4
1.461e+2, 2.725e-3
1.462e+2, 2.387e-3
1.463e+2, 1.733e-3
1.464e+2, 1.264e-3
1.465e+2, 1.016e-3
1.466e+2, 8.897e-4
1.467e+2, 8.278e-4
1.468e+2, 8.066e-4
1.469e+2, 8.029e-4
1.470e+2, 8.058e-4
1.471e+2, -5.069e-3
1.472e+2, -2.526e-3
1.473e+2, -1.366e-3
1.474e+2, -9.189e-4
1.475e+2, -6.786e-4
1.476e+2, -5.325e-4
1.477e+2, -4.344e-4
1.478e+2, -3.693e-4
1.479e+2, -3.241e-4
1.480e+2, -2.844e-4
1.481e+2, 2.721e-3
1.482e+2, 2.379e-3
1.483e+2, 1.743e-3
1.484e+2, 1.260e-3
1.485e+2, 1.006e-3
1.486e+2, 8.790e-4
1.487e+2, 8.235e-4
1.488e+2, 8.047e-4
1.489e+2, 7.999e-4
1.490e+2, 8.011e-4
1.491e+2, -5.044e-3
1.492e+2, -2.507e-3
1.493e+2, -1.370e-3
1.494e+2, -9.205e-4
1.495e+2, -6.815e-4
1.496e+2, -5.363e-4
1.497e+2, -4.379e-4
1.498e+2, -3.718e-4
1.499e+2, -3.229e-4
1.500e+2, -2.849e-4
1.501e+2, 2.726e-3
1.502e+2, 2.383e-3
1.503e+2, 1.739e-3
1.504e+2, 1.259e-3
1.505e+2, 1.003e-3
1.506e+2, 8.801e-4
1.507e+2, 8.190e-4
1.508e+2, 7.979e-4
1.509e+2, 7.951e-4
1.510e+2, 8.009e-4
1.511e+2, -5.077e-3
1.512e+2, -2.568e-3
1.513e+2, -1.392e-3
1.514e+2, -9.269e-4
1.515e+2, -6.776e-4
1.516e+2, -5.253e-4
1.517e+2, -4.299e-4
1.518e+2, -3.611e-4
1.519e+2, -3.108e-4
1.520e+2, -2.741e-4
1.521e+2, 2.712e-3
1.522e+2, 2.367e-3
1.523e+2, 1.728e-3
1.524e+2, 1.266e-3
1.525e+2, 1.005e-3
1.526e+2, 8.759e-4
1.527e+2, 8.176e-4
1.528e+2, 8.026e-4
1.529e+2, 7.990e-4
1.530e+2, 8.014e-4
1.531e+2, -5.052e-3
1.532e+2, -2.585e-3
1.533e+2, -1.392e-3
1.534e+2, -9.197e-4
1.535e+2, -6.702e-4
1.536e+2, -5.194e-4
1.537e+2, -4.232e-4
1.538e+2, -3.574e-4
1.539e+2, -3.088e-4
1.540e+2, -2.736e-4
1.541e+2, 2.716e-3
1.542e+2, 2.373e-3
1.543e+2, 1.719e-3
1.544e+2, 1.255e-3
1.545e+2, 1.001e-3
1.546e+2, 8.774e-4
1.547e+2, 8.218e-4
1.548e+2, 8.013e-4
1.549e+2, 7.946e-4
1.550e+2, 7.967e-4
1.551e+2, -5.032e-3
1.552e+2, -2.584e-3
1.553e+2, -1.390e-3
1.554e+2, -9.245e-4
1.555e+2, -6.726e-4
1.556e+2, -5.243e-4
1.557e+2, -4.275e-4
1.558e+2, -3.632e-4
1.559e+2, -3.140e-4
1.560e+2, -2.769e-4
1.561e+2, 2.728e-3
1.562e+2, 2.366e-3
1.563e+2, 1.716e-3
1.564e+2, 1.251e-3
1.565e+2, 1.001e-3
1.566e+2, 8.813e-4
1.567e+2, 8.282e-4
1.568e+2, 8.102e-4
1.569e+2, 8.065e-4
1.570e+2, 8.062e-4
1.571e+2, -5.046e-3
1.572e+2, -2.610e-3
1.573e+2, -1.402e-3
1.574e+2, -9.242e-4
1.575e+2, -6.696e-4
1.576e+2, -5.183e-4
1.577e+2, -4.216e-4
1.578e+2, -3.569e-4
1.579e+2, -3.109e-4
1.580e+2, -2.727e-4
1.581e+2, 2.715e-3
1.582e+2, 2.353e-3
1.583e+2, 1.728e-3
1.584e+2, 1.256e-3
1.585e+2, 1.004e-3
1.586e+2, 8.812e-4
1.587e+2, 8.228e-4
1.588e+2, 8.028e-4
1.589e+2, 7.992e-4
1.590e+2, 8.038e-4
1.591e+2, -5.045e-3
1.592e+2, -2.646e-3
1.593e+2, -1.408e-3
1.594e+2, -9.275e-4
1.595e+2, -6.715e-4
1.596e+2, -5.216e-4
1.597e+2, -4.262e-4
1.598e+2, -3.579e-4
1.599e+2, -3.097e-4
1.600e+2, -2.693e-4
1.601e+2, 2.728e-3
1.602e+2, 2.365e-3
1.603e+2, 1.742e-3
1.604e+2, 1.259e-3
1.605e+2, 1.010e-3
1.606e+2, 8.875e-4
1.607e+2, 8.267e-4
1.608e+2, 8.046e-4
1.609e+2, 7.996e-4
1.610e+2, 8.017e-4
1.611e+2, -5.034e-3
1.612e+2, -2.663e-3
1.613e+2, -1.422e-3
1.614e+2, -9.411e-4
1.615e+2, -6.798e-4
1.616e+2, -5.244e-4
1.617e+2, -4.229e-4
1.618e+2, -3.529e-4
1.619e+2, -3.021e-4
1.620e+2, -2.641e-4
1.621e+2, 2.712e-3
1.622e+2, 2.359e-3
1.623e+2, 1.750e-3
1.624e+2, 1.269e-3
1.625e+2, 1.009e-3
1.626e+2, 8.824e-4
1.627e+2, 8.242e-4
1.628e+2, 8.045e-4
1.629e+2, 7.986e-4
1.630e+2, 8.007e-4
1.631e+2, -5.037e-3
1.632e+2, -2.691e-3
1.633e+2, -1.418e-3
1.634e+2, -9.282e-4
1.635e+2, -6.737e-4
1.636e+2, -5.225e-4
1.637e+2, -4.192e-4
1.638e+2, -3.441e-4
1.639e+2, -2.962e-4
1.640e+2, -2.607e-4
1.641e+2, 2.697e-3
1.642e+2, 2.344e-3
1.643e+2, 1.759e-3
1.644e+2, 1.293e-3
1.645e+2, 1.025e-3
1.646e+2, 8.950e-4
1.647e+2, 8.320e-4
1.648e+2, 8.051e-4
1.649e+2, 8.008e-4
1.650e+2, 8.047e-4
1.651e+2, -5.032e-3
1.652e+2, -2.691e-3
1.653e+2, -1.407e-3
1.654e+2, -9.234e-4
1.655e+2, -6.735e-4
1.656e+2, -5.206e-4
1.657e+2, -4.188e-4
1.658e+2, -3.449e-4
1.659e+2, -2.934e-4
1.660e+2, -2.534e-4
1.661e+2, 2.665e-3
1.662e+2, 2.313e-3
1.663e+2, 1.750e-3
1.664e+2, 1.292e-3
1.665e+2, 1.025e-3
1.666e+2, 8.915e-4
1.667e+2, 8.295e-4
1.668e+2, 8.084e-4
1.669e+2, 8.011e-4
1.670e+2, 8.054e-4
1.671e+2, -5.052e-3
1.672e+2, -2.709e-3
1.673e+2, -1.417e-3
1.674e+2, -9.299e-4
1.675e+2, -6.746e-4
1.676e+2, -5.143e-4
1.677e+2, -4.068e-4
1.678e+2, -3.318e-4
1.679e+2, -2.824e-4
1.680e+2, -2.482e-4
1.681e+2, 2.646e-3
1.682e+2, 2.278e-3
1.683e+2, 1.757e-3
1.684e+2, 1.315e-3
1.685e+2, 1.036e-3
1.686e+2, 8.996e-4
1.687e+2, 8.335e-4
1.688e+2, 8.102e-4
1.689e+2, 8.037e-4
1.690e+2, 8.035e-4
1.691e+2, -5.002e-3
1.692e+2, -2.679e-3
1.693e+2, -1.422e-3
1.694e+2, -9.251e-4
1.695e+2, -6.698e-4
1.696e+2, -5.070e-4
1.697e+2, -4.032e-4
1.698e+2, -3.321e-4
1.699e+2, -2.828e-4
1.700e+2, -2.445e-4
1.701e+2, 2.637e-3
1.702e+2, 2.247e-3
1.703e+2, 1.728e-3
1.704e+2, 1.303e-3
1.705e+2, 1.030e-3
1.706e+2, 8.896e-4
1.707e+2, 8.253e-4
1.708e+2, 8.054e-4
1.709e+2, 8.010e-4
1.710e+2, 8.033e-4
1.711e+2, -4.961e-3
1.712e+2, -2.633e-3
1.713e+2, -1.412e-3
1.714e+2, -9.296e-4
1.715e+2, -6.758e-4
1.716e+2, -5.153e-4
1.717e+2, -4.070e-4
1.718e+2, -3.317e-4
1.719e+2, -2.775e-4
1.720e+2, -2.410e-4
1.721e+2, 2.615e-3
1.722e+2, 2.222e-3
1.723e+2, 1.703e-3
1.724e+2, 1.288e-3
1.725e+2, 1.034e-3
1.726e+2, 8.918e-4
1.727e+2, 8.277e-4
1.728e+2, 8.023e-4
1.729e+2, 8.003e-4
1.730e+2, 8.061e-4
1.731e+2, -4.933e-3
1.732e+2, -2.564e-3
1.733e+2, -1.396e-3
1.734e+2, -9.319e-4
1.735e+2, -6.731e-4
1.736e+2, -5.207e-4
1.737e+2, -4.129e-4
1.738e+2, -3.354e-4
1.739e+2, -2.782e-4
1.740e+2, -2.357e-4
1.741e+2, 2.624e-3
1.742e+2, 2.223e-3
1.743e+2, 1.709e-3
1.744e+2, 1.294e-3
1.745e+2, 1.040e-3
1.746e+2, 8.986e-4
1.747e+2, 8.287e-4
1.748e+2, 8.063e-4
1.749e+2, 8.027e-4
1.750e+2, 8.093e-4
1.751e+2, -4.933e-3
1.752e+2, -2.548e-3
1.753e+2, -1.390e-3
1.754e+2, -9.379e-4
1.755e+2, -6.830e-4
1.756e+2, -5.210e-4
1.757e+2, -4.131e-4
1.758e+2, -3.335e-4
1.759e+2, -2.758e-4
1.760e+2, -2.364e-4
1.761e+2, 2.629e-3
1.762e+2, 2.193e-3
1.763e+2, 1.688e-3
1.764e+2, 1.294e-3
1.765e+2, 1.039e-3
1.766e+2, 9.019e-4
1.767e+2, 8.362e-4
1.768e+2, 8.123e-4
1.769e+2, 8.087e-4
1.770e+2, 8.073e-4
1.771e+2, -4.910e-3
1.772e+2, -2.534e-3
1.773e+2, -1.382e-3
1.774e+2, -9.326e-4
1.775e+2, -6.861e-4
1.776e+2, -5.238e-4
1.777e+2, -4.156e-4
1.778e+2, -3.353e-4
1.779e+2, -2.764e-4
1.780e+2, -2.324e-4
1.781e+2, 2.623e-3
1.782e+2, 2.193e-3
1.783e+2, 1.686e-3
1.784e+2, 1.277e-3
1.785e+2, 1.024e-3
1.786e+2, 8.867e-4
1.787e+2, 8.284e-4
1.788e+2, 8.112e-4
1.789e+2, 8.091e-4
1.790e+2, 8.090e-4
1.791e+2, -4.902e-3
1.792e+2, -2.522e-3
1.793e+2, -1.374e-3
1.794e+2, -9.218e-4
1.795e+2, -6.777e-4
1.796e+2, -5.209e-4
1.797e+2, -4.068e-4
1.798e+2, -3.295e-4
1.799e+2, -2.724e-4
1.800e+2, -2.315e-4
1.801e+2, 2.594e-3
1.802e+2, 2.165e-3
1.803e+2, 1.679e-3
1.804e+2, 1.291e-3
1.805e+2, 1.037e-3
1.806e+2, 8.967e-4
1.807e+2, 8.322e-4
1.808e+2, 8.092e-4
1.809e+2, 8.053e-4
1.810e+2, 8.097e-4
