Dec. 21, 2024   11:20:40
Linear Sweep Voltammetry
File: c:/users/guazh/data/banditlqround7_x0exp667_r5/2024-12-16-exp720\regeneratedgce-2024-12-21t11_14_22-lsvinkoh\regeneratedgce_lsv_50mvs_efin_-2100mv.bin
Data Source:  Experiment
Instrument Model:  CHI760E
Header: LSV ran at 50 mVs with Efin at -2100mV
Note: 

Init E (V) = -0.6
Final E (V) = -2.1
Scan Rate (V/s) = 0.05
Sample Interval (V) = 0.001
Quiet Time (sec) = 2
Sensitivity (A/V) = 1e-4
Comp R (ohm) = 1.4

Results:

Channel 1:
Ep = -2.027V
ip = 9.435e-4A
Ah = 7.456e-4C

Potential/V, Current/A

-0.600, -4.887e-7
-0.601, -3.683e-7
-0.602, -3.323e-7
-0.603, -3.110e-7
-0.604, -2.908e-7
-0.605, -2.720e-7
-0.606, -2.578e-7
-0.607, -2.459e-7
-0.608, -2.329e-7
-0.609, -2.185e-7
-0.610, -2.045e-7
-0.611, -1.933e-7
-0.612, -1.830e-7
-0.613, -1.737e-7
-0.614, -1.593e-7
-0.615, -1.453e-7
-0.616, -1.370e-7
-0.617, -1.296e-7
-0.618, -1.224e-7
-0.619, -1.088e-7
-0.620, -9.720e-8
-0.621, -9.108e-8
-0.622, -8.358e-8
-0.623, -7.609e-8
-0.624, -6.484e-8
-0.625, -5.339e-8
-0.626, -4.718e-8
-0.627, -3.830e-8
-0.628, -3.060e-8
-0.629, -2.232e-8
-0.630, -1.235e-8
-0.631, -5.249e-9
-0.632, 7.893e-11
-0.633, 8.169e-9
-0.634, 1.547e-8
-0.635, 2.652e-8
-0.636, 3.352e-8
-0.637, 3.806e-8
-0.638, 4.457e-8
-0.639, 5.296e-8
-0.640, 6.273e-8
-0.641, 6.944e-8
-0.642, 7.388e-8
-0.643, 8.098e-8
-0.644, 8.966e-8
-0.645, 9.755e-8
-0.646, 1.038e-7
-0.647, 1.086e-7
-0.648, 1.148e-7
-0.649, 1.219e-7
-0.650, 1.307e-7
-0.651, 1.381e-7
-0.652, 1.410e-7
-0.653, 1.461e-7
-0.654, 1.536e-7
-0.655, 1.629e-7
-0.656, 1.680e-7
-0.657, 1.711e-7
-0.658, 1.766e-7
-0.659, 1.836e-7
-0.660, 1.914e-7
-0.661, 1.956e-7
-0.662, 2.013e-7
-0.663, 2.062e-7
-0.664, 2.135e-7
-0.665, 2.215e-7
-0.666, 2.268e-7
-0.667, 2.314e-7
-0.668, 2.352e-7
-0.669, 2.420e-7
-0.670, 2.504e-7
-0.671, 2.547e-7
-0.672, 2.584e-7
-0.673, 2.637e-7
-0.674, 2.686e-7
-0.675, 2.761e-7
-0.676, 2.818e-7
-0.677, 2.854e-7
-0.678, 2.915e-7
-0.679, 2.957e-7
-0.680, 3.036e-7
-0.681, 3.086e-7
-0.682, 3.104e-7
-0.683, 3.134e-7
-0.684, 3.215e-7
-0.685, 3.270e-7
-0.686, 3.318e-7
-0.687, 3.335e-7
-0.688, 3.387e-7
-0.689, 3.450e-7
-0.690, 3.512e-7
-0.691, 3.559e-7
-0.692, 3.601e-7
-0.693, 3.630e-7
-0.694, 3.688e-7
-0.695, 3.752e-7
-0.696, 3.785e-7
-0.697, 3.827e-7
-0.698, 3.856e-7
-0.699, 3.926e-7
-0.700, 3.994e-7
-0.701, 4.023e-7
-0.702, 4.047e-7
-0.703, 4.081e-7
-0.704, 4.160e-7
-0.705, 4.217e-7
-0.706, 4.237e-7
-0.707, 4.272e-7
-0.708, 4.309e-7
-0.709, 4.364e-7
-0.710, 4.434e-7
-0.711, 4.453e-7
-0.712, 4.484e-7
-0.713, 4.524e-7
-0.714, 4.573e-7
-0.715, 4.629e-7
-0.716, 4.677e-7
-0.717, 4.702e-7
-0.718, 4.736e-7
-0.719, 4.782e-7
-0.720, 4.833e-7
-0.721, 4.880e-7
-0.722, 4.893e-7
-0.723, 4.951e-7
-0.724, 5.010e-7
-0.725, 5.058e-7
-0.726, 5.088e-7
-0.727, 5.119e-7
-0.728, 5.149e-7
-0.729, 5.206e-7
-0.730, 5.286e-7
-0.731, 5.304e-7
-0.732, 5.316e-7
-0.733, 5.351e-7
-0.734, 5.404e-7
-0.735, 5.457e-7
-0.736, 5.488e-7
-0.737, 5.527e-7
-0.738, 5.561e-7
-0.739, 5.616e-7
-0.740, 5.664e-7
-0.741, 5.689e-7
-0.742, 5.713e-7
-0.743, 5.742e-7
-0.744, 5.792e-7
-0.745, 5.866e-7
-0.746, 5.896e-7
-0.747, 5.911e-7
-0.748, 5.930e-7
-0.749, 5.982e-7
-0.750, 6.045e-7
-0.751, 6.065e-7
-0.752, 6.093e-7
-0.753, 6.129e-7
-0.754, 6.173e-7
-0.755, 6.247e-7
-0.756, 6.277e-7
-0.757, 6.294e-7
-0.758, 6.336e-7
-0.759, 6.368e-7
-0.760, 6.430e-7
-0.761, 6.471e-7
-0.762, 6.473e-7
-0.763, 6.506e-7
-0.764, 6.565e-7
-0.765, 6.621e-7
-0.766, 6.641e-7
-0.767, 6.670e-7
-0.768, 6.720e-7
-0.769, 6.774e-7
-0.770, 6.817e-7
-0.771, 6.852e-7
-0.772, 6.856e-7
-0.773, 6.886e-7
-0.774, 6.969e-7
-0.775, 7.022e-7
-0.776, 7.035e-7
-0.777, 7.075e-7
-0.778, 7.086e-7
-0.779, 7.143e-7
-0.780, 7.196e-7
-0.781, 7.226e-7
-0.782, 7.256e-7
-0.783, 7.284e-7
-0.784, 7.332e-7
-0.785, 7.390e-7
-0.786, 7.410e-7
-0.787, 7.448e-7
-0.788, 7.469e-7
-0.789, 7.523e-7
-0.790, 7.592e-7
-0.791, 7.619e-7
-0.792, 7.628e-7
-0.793, 7.669e-7
-0.794, 7.713e-7
-0.795, 7.771e-7
-0.796, 7.799e-7
-0.797, 7.809e-7
-0.798, 7.857e-7
-0.799, 7.908e-7
-0.800, 7.964e-7
-0.801, 7.991e-7
-0.802, 8.003e-7
-0.803, 8.039e-7
-0.804, 8.109e-7
-0.805, 8.146e-7
-0.806, 8.181e-7
-0.807, 8.203e-7
-0.808, 8.233e-7
-0.809, 8.291e-7
-0.810, 8.340e-7
-0.811, 8.366e-7
-0.812, 8.372e-7
-0.813, 8.418e-7
-0.814, 8.475e-7
-0.815, 8.531e-7
-0.816, 8.558e-7
-0.817, 8.586e-7
-0.818, 8.609e-7
-0.819, 8.693e-7
-0.820, 8.755e-7
-0.821, 8.750e-7
-0.822, 8.779e-7
-0.823, 8.810e-7
-0.824, 8.869e-7
-0.825, 8.929e-7
-0.826, 8.927e-7
-0.827, 8.955e-7
-0.828, 8.990e-7
-0.829, 9.046e-7
-0.830, 9.102e-7
-0.831, 9.113e-7
-0.832, 9.148e-7
-0.833, 9.201e-7
-0.834, 9.243e-7
-0.835, 9.296e-7
-0.836, 9.320e-7
-0.837, 9.328e-7
-0.838, 9.383e-7
-0.839, 9.437e-7
-0.840, 9.480e-7
-0.841, 9.527e-7
-0.842, 9.539e-7
-0.843, 9.562e-7
-0.844, 9.624e-7
-0.845, 9.667e-7
-0.846, 9.704e-7
-0.847, 9.721e-7
-0.848, 9.743e-7
-0.849, 9.806e-7
-0.850, 9.863e-7
-0.851, 9.888e-7
-0.852, 9.908e-7
-0.853, 9.944e-7
-0.854, 1.001e-6
-0.855, 1.006e-6
-0.856, 1.007e-6
-0.857, 1.011e-6
-0.858, 1.015e-6
-0.859, 1.020e-6
-0.860, 1.027e-6
-0.861, 1.029e-6
-0.862, 1.031e-6
-0.863, 1.035e-6
-0.864, 1.040e-6
-0.865, 1.046e-6
-0.866, 1.047e-6
-0.867, 1.050e-6
-0.868, 1.054e-6
-0.869, 1.059e-6
-0.870, 1.066e-6
-0.871, 1.070e-6
-0.872, 1.072e-6
-0.873, 1.075e-6
-0.874, 1.080e-6
-0.875, 1.085e-6
-0.876, 1.088e-6
-0.877, 1.090e-6
-0.878, 1.094e-6
-0.879, 1.099e-6
-0.880, 1.106e-6
-0.881, 1.109e-6
-0.882, 1.111e-6
-0.883, 1.115e-6
-0.884, 1.120e-6
-0.885, 1.125e-6
-0.886, 1.127e-6
-0.887, 1.130e-6
-0.888, 1.133e-6
-0.889, 1.139e-6
-0.890, 1.143e-6
-0.891, 1.146e-6
-0.892, 1.149e-6
-0.893, 1.151e-6
-0.894, 1.158e-6
-0.895, 1.164e-6
-0.896, 1.168e-6
-0.897, 1.172e-6
-0.898, 1.173e-6
-0.899, 1.179e-6
-0.900, 1.184e-6
-0.901, 1.187e-6
-0.902, 1.190e-6
-0.903, 1.193e-6
-0.904, 1.200e-6
-0.905, 1.204e-6
-0.906, 1.207e-6
-0.907, 1.210e-6
-0.908, 1.213e-6
-0.909, 1.219e-6
-0.910, 1.224e-6
-0.911, 1.225e-6
-0.912, 1.228e-6
-0.913, 1.233e-6
-0.914, 1.239e-6
-0.915, 1.246e-6
-0.916, 1.248e-6
-0.917, 1.250e-6
-0.918, 1.254e-6
-0.919, 1.260e-6
-0.920, 1.265e-6
-0.921, 1.268e-6
-0.922, 1.271e-6
-0.923, 1.274e-6
-0.924, 1.280e-6
-0.925, 1.286e-6
-0.926, 1.289e-6
-0.927, 1.291e-6
-0.928, 1.295e-6
-0.929, 1.304e-6
-0.930, 1.307e-6
-0.931, 1.310e-6
-0.932, 1.313e-6
-0.933, 1.316e-6
-0.934, 1.323e-6
-0.935, 1.330e-6
-0.936, 1.332e-6
-0.937, 1.336e-6
-0.938, 1.340e-6
-0.939, 1.347e-6
-0.940, 1.353e-6
-0.941, 1.356e-6
-0.942, 1.360e-6
-0.943, 1.363e-6
-0.944, 1.369e-6
-0.945, 1.375e-6
-0.946, 1.376e-6
-0.947, 1.382e-6
-0.948, 1.386e-6
-0.949, 1.392e-6
-0.950, 1.399e-6
-0.951, 1.401e-6
-0.952, 1.404e-6
-0.953, 1.407e-6
-0.954, 1.413e-6
-0.955, 1.420e-6
-0.956, 1.423e-6
-0.957, 1.427e-6
-0.958, 1.431e-6
-0.959, 1.437e-6
-0.960, 1.444e-6
-0.961, 1.448e-6
-0.962, 1.451e-6
-0.963, 1.455e-6
-0.964, 1.462e-6
-0.965, 1.467e-6
-0.966, 1.471e-6
-0.967, 1.475e-6
-0.968, 1.480e-6
-0.969, 1.486e-6
-0.970, 1.491e-6
-0.971, 1.495e-6
-0.972, 1.498e-6
-0.973, 1.505e-6
-0.974, 1.510e-6
-0.975, 1.516e-6
-0.976, 1.519e-6
-0.977, 1.522e-6
-0.978, 1.527e-6
-0.979, 1.536e-6
-0.980, 1.542e-6
-0.981, 1.545e-6
-0.982, 1.550e-6
-0.983, 1.553e-6
-0.984, 1.561e-6
-0.985, 1.567e-6
-0.986, 1.571e-6
-0.987, 1.575e-6
-0.988, 1.580e-6
-0.989, 1.589e-6
-0.990, 1.596e-6
-0.991, 1.599e-6
-0.992, 1.604e-6
-0.993, 1.609e-6
-0.994, 1.613e-6
-0.995, 1.620e-6
-0.996, 1.624e-6
-0.997, 1.628e-6
-0.998, 1.635e-6
-0.999, 1.641e-6
-1.000, 1.646e-6
-1.001, 1.653e-6
-1.002, 1.655e-6
-1.003, 1.660e-6
-1.004, 1.668e-6
-1.005, 1.675e-6
-1.006, 1.679e-6
-1.007, 1.682e-6
-1.008, 1.687e-6
-1.009, 1.697e-6
-1.010, 1.702e-6
-1.011, 1.707e-6
-1.012, 1.712e-6
-1.013, 1.716e-6
-1.014, 1.726e-6
-1.015, 1.731e-6
-1.016, 1.736e-6
-1.017, 1.741e-6
-1.018, 1.746e-6
-1.019, 1.753e-6
-1.020, 1.761e-6
-1.021, 1.765e-6
-1.022, 1.767e-6
-1.023, 1.773e-6
-1.024, 1.785e-6
-1.025, 1.793e-6
-1.026, 1.799e-6
-1.027, 1.807e-6
-1.028, 1.812e-6
-1.029, 1.820e-6
-1.030, 1.827e-6
-1.031, 1.833e-6
-1.032, 1.839e-6
-1.033, 1.846e-6
-1.034, 1.855e-6
-1.035, 1.861e-6
-1.036, 1.865e-6
-1.037, 1.871e-6
-1.038, 1.878e-6
-1.039, 1.887e-6
-1.040, 1.893e-6
-1.041, 1.895e-6
-1.042, 1.899e-6
-1.043, 1.908e-6
-1.044, 1.918e-6
-1.045, 1.923e-6
-1.046, 1.930e-6
-1.047, 1.935e-6
-1.048, 1.941e-6
-1.049, 1.952e-6
-1.050, 1.957e-6
-1.051, 1.961e-6
-1.052, 1.968e-6
-1.053, 1.974e-6
-1.054, 1.983e-6
-1.055, 1.992e-6
-1.056, 1.996e-6
-1.057, 2.003e-6
-1.058, 2.008e-6
-1.059, 2.016e-6
-1.060, 2.025e-6
-1.061, 2.029e-6
-1.062, 2.036e-6
-1.063, 2.043e-6
-1.064, 2.053e-6
-1.065, 2.061e-6
-1.066, 2.065e-6
-1.067, 2.071e-6
-1.068, 2.077e-6
-1.069, 2.086e-6
-1.070, 2.094e-6
-1.071, 2.099e-6
-1.072, 2.105e-6
-1.073, 2.112e-6
-1.074, 2.121e-6
-1.075, 2.129e-6
-1.076, 2.134e-6
-1.077, 2.139e-6
-1.078, 2.148e-6
-1.079, 2.157e-6
-1.080, 2.165e-6
-1.081, 2.170e-6
-1.082, 2.173e-6
-1.083, 2.180e-6
-1.084, 2.188e-6
-1.085, 2.194e-6
-1.086, 2.200e-6
-1.087, 2.205e-6
-1.088, 2.212e-6
-1.089, 2.221e-6
-1.090, 2.228e-6
-1.091, 2.234e-6
-1.092, 2.237e-6
-1.093, 2.244e-6
-1.094, 2.252e-6
-1.095, 2.259e-6
-1.096, 2.264e-6
-1.097, 2.270e-6
-1.098, 2.277e-6
-1.099, 2.287e-6
-1.100, 2.293e-6
-1.101, 2.298e-6
-1.102, 2.305e-6
-1.103, 2.311e-6
-1.104, 2.319e-6
-1.105, 2.328e-6
-1.106, 2.332e-6
-1.107, 2.339e-6
-1.108, 2.346e-6
-1.109, 2.357e-6
-1.110, 2.365e-6
-1.111, 2.368e-6
-1.112, 2.373e-6
-1.113, 2.380e-6
-1.114, 2.390e-6
-1.115, 2.398e-6
-1.116, 2.403e-6
-1.117, 2.410e-6
-1.118, 2.417e-6
-1.119, 2.425e-6
-1.120, 2.433e-6
-1.121, 2.439e-6
-1.122, 2.443e-6
-1.123, 2.450e-6
-1.124, 2.457e-6
-1.125, 2.465e-6
-1.126, 2.471e-6
-1.127, 2.478e-6
-1.128, 2.485e-6
-1.129, 2.495e-6
-1.130, 2.502e-6
-1.131, 2.507e-6
-1.132, 2.513e-6
-1.133, 2.520e-6
-1.134, 2.529e-6
-1.135, 2.536e-6
-1.136, 2.542e-6
-1.137, 2.549e-6
-1.138, 2.555e-6
-1.139, 2.566e-6
-1.140, 2.576e-6
-1.141, 2.581e-6
-1.142, 2.586e-6
-1.143, 2.591e-6
-1.144, 2.600e-6
-1.145, 2.606e-6
-1.146, 2.612e-6
-1.147, 2.619e-6
-1.148, 2.625e-6
-1.149, 2.635e-6
-1.150, 2.643e-6
-1.151, 2.647e-6
-1.152, 2.655e-6
-1.153, 2.662e-6
-1.154, 2.672e-6
-1.155, 2.682e-6
-1.156, 2.689e-6
-1.157, 2.694e-6
-1.158, 2.701e-6
-1.159, 2.708e-6
-1.160, 2.717e-6
-1.161, 2.724e-6
-1.162, 2.730e-6
-1.163, 2.737e-6
-1.164, 2.746e-6
-1.165, 2.753e-6
-1.166, 2.758e-6
-1.167, 2.763e-6
-1.168, 2.770e-6
-1.169, 2.781e-6
-1.170, 2.788e-6
-1.171, 2.796e-6
-1.172, 2.802e-6
-1.173, 2.809e-6
-1.174, 2.818e-6
-1.175, 2.826e-6
-1.176, 2.830e-6
-1.177, 2.836e-6
-1.178, 2.844e-6
-1.179, 2.854e-6
-1.180, 2.861e-6
-1.181, 2.867e-6
-1.182, 2.874e-6
-1.183, 2.881e-6
-1.184, 2.890e-6
-1.185, 2.897e-6
-1.186, 2.900e-6
-1.187, 2.908e-6
-1.188, 2.915e-6
-1.189, 2.924e-6
-1.190, 2.934e-6
-1.191, 2.939e-6
-1.192, 2.944e-6
-1.193, 2.952e-6
-1.194, 2.960e-6
-1.195, 2.968e-6
-1.196, 2.973e-6
-1.197, 2.978e-6
-1.198, 2.986e-6
-1.199, 2.996e-6
-1.200, 3.004e-6
-1.201, 3.008e-6
-1.202, 3.011e-6
-1.203, 3.021e-6
-1.204, 3.030e-6
-1.205, 3.037e-6
-1.206, 3.045e-6
-1.207, 3.052e-6
-1.208, 3.059e-6
-1.209, 3.067e-6
-1.210, 3.073e-6
-1.211, 3.078e-6
-1.212, 3.084e-6
-1.213, 3.091e-6
-1.214, 3.100e-6
-1.215, 3.108e-6
-1.216, 3.114e-6
-1.217, 3.120e-6
-1.218, 3.126e-6
-1.219, 3.137e-6
-1.220, 3.144e-6
-1.221, 3.145e-6
-1.222, 3.152e-6
-1.223, 3.158e-6
-1.224, 3.168e-6
-1.225, 3.176e-6
-1.226, 3.178e-6
-1.227, 3.185e-6
-1.228, 3.193e-6
-1.229, 3.206e-6
-1.230, 3.211e-6
-1.231, 3.212e-6
-1.232, 3.217e-6
-1.233, 3.224e-6
-1.234, 3.231e-6
-1.235, 3.238e-6
-1.236, 3.244e-6
-1.237, 3.249e-6
-1.238, 3.256e-6
-1.239, 3.263e-6
-1.240, 3.267e-6
-1.241, 3.273e-6
-1.242, 3.276e-6
-1.243, 3.281e-6
-1.244, 3.290e-6
-1.245, 3.295e-6
-1.246, 3.299e-6
-1.247, 3.303e-6
-1.248, 3.310e-6
-1.249, 3.319e-6
-1.250, 3.322e-6
-1.251, 3.326e-6
-1.252, 3.329e-6
-1.253, 3.334e-6
-1.254, 3.343e-6
-1.255, 3.347e-6
-1.256, 3.350e-6
-1.257, 3.354e-6
-1.258, 3.357e-6
-1.259, 3.364e-6
-1.260, 3.369e-6
-1.261, 3.370e-6
-1.262, 3.372e-6
-1.263, 3.375e-6
-1.264, 3.383e-6
-1.265, 3.387e-6
-1.266, 3.386e-6
-1.267, 3.389e-6
-1.268, 3.393e-6
-1.269, 3.400e-6
-1.270, 3.404e-6
-1.271, 3.403e-6
-1.272, 3.406e-6
-1.273, 3.407e-6
-1.274, 3.409e-6
-1.275, 3.412e-6
-1.276, 3.414e-6
-1.277, 3.415e-6
-1.278, 3.419e-6
-1.279, 3.423e-6
-1.280, 3.428e-6
-1.281, 3.428e-6
-1.282, 3.426e-6
-1.283, 3.430e-6
-1.284, 3.434e-6
-1.285, 3.436e-6
-1.286, 3.437e-6
-1.287, 3.436e-6
-1.288, 3.438e-6
-1.289, 3.443e-6
-1.290, 3.443e-6
-1.291, 3.443e-6
-1.292, 3.443e-6
-1.293, 3.446e-6
-1.294, 3.451e-6
-1.295, 3.451e-6
-1.296, 3.451e-6
-1.297, 3.452e-6
-1.298, 3.452e-6
-1.299, 3.457e-6
-1.300, 3.457e-6
-1.301, 3.456e-6
-1.302, 3.456e-6
-1.303, 3.458e-6
-1.304, 3.462e-6
-1.305, 3.464e-6
-1.306, 3.462e-6
-1.307, 3.463e-6
-1.308, 3.464e-6
-1.309, 3.468e-6
-1.310, 3.469e-6
-1.311, 3.466e-6
-1.312, 3.466e-6
-1.313, 3.469e-6
-1.314, 3.471e-6
-1.315, 3.474e-6
-1.316, 3.472e-6
-1.317, 3.472e-6
-1.318, 3.479e-6
-1.319, 3.484e-6
-1.320, 3.485e-6
-1.321, 3.486e-6
-1.322, 3.484e-6
-1.323, 3.487e-6
-1.324, 3.491e-6
-1.325, 3.491e-6
-1.326, 3.491e-6
-1.327, 3.493e-6
-1.328, 3.497e-6
-1.329, 3.502e-6
-1.330, 3.504e-6
-1.331, 3.506e-6
-1.332, 3.506e-6
-1.333, 3.509e-6
-1.334, 3.516e-6
-1.335, 3.516e-6
-1.336, 3.517e-6
-1.337, 3.520e-6
-1.338, 3.524e-6
-1.339, 3.529e-6
-1.340, 3.531e-6
-1.341, 3.532e-6
-1.342, 3.534e-6
-1.343, 3.537e-6
-1.344, 3.546e-6
-1.345, 3.551e-6
-1.346, 3.550e-6
-1.347, 3.551e-6
-1.348, 3.558e-6
-1.349, 3.565e-6
-1.350, 3.570e-6
-1.351, 3.569e-6
-1.352, 3.572e-6
-1.353, 3.576e-6
-1.354, 3.584e-6
-1.355, 3.590e-6
-1.356, 3.595e-6
-1.357, 3.599e-6
-1.358, 3.605e-6
-1.359, 3.612e-6
-1.360, 3.618e-6
-1.361, 3.623e-6
-1.362, 3.625e-6
-1.363, 3.634e-6
-1.364, 3.642e-6
-1.365, 3.648e-6
-1.366, 3.653e-6
-1.367, 3.656e-6
-1.368, 3.663e-6
-1.369, 3.675e-6
-1.370, 3.680e-6
-1.371, 3.685e-6
-1.372, 3.689e-6
-1.373, 3.696e-6
-1.374, 3.708e-6
-1.375, 3.716e-6
-1.376, 3.720e-6
-1.377, 3.727e-6
-1.378, 3.733e-6
-1.379, 3.744e-6
-1.380, 3.750e-6
-1.381, 3.754e-6
-1.382, 3.762e-6
-1.383, 3.773e-6
-1.384, 3.783e-6
-1.385, 3.792e-6
-1.386, 3.795e-6
-1.387, 3.801e-6
-1.388, 3.810e-6
-1.389, 3.822e-6
-1.390, 3.832e-6
-1.391, 3.835e-6
-1.392, 3.841e-6
-1.393, 3.851e-6
-1.394, 3.860e-6
-1.395, 3.870e-6
-1.396, 3.877e-6
-1.397, 3.886e-6
-1.398, 3.897e-6
-1.399, 3.906e-6
-1.400, 3.914e-6
-1.401, 3.920e-6
-1.402, 3.924e-6
-1.403, 3.936e-6
-1.404, 3.949e-6
-1.405, 3.955e-6
-1.406, 3.962e-6
-1.407, 3.965e-6
-1.408, 3.976e-6
-1.409, 3.987e-6
-1.410, 3.994e-6
-1.411, 3.998e-6
-1.412, 4.001e-6
-1.413, 4.010e-6
-1.414, 4.024e-6
-1.415, 4.031e-6
-1.416, 4.038e-6
-1.417, 4.044e-6
-1.418, 4.047e-6
-1.419, 4.055e-6
-1.420, 4.060e-6
-1.421, 4.062e-6
-1.422, 4.069e-6
-1.423, 4.073e-6
-1.424, 4.082e-6
-1.425, 4.089e-6
-1.426, 4.090e-6
-1.427, 4.095e-6
-1.428, 4.100e-6
-1.429, 4.106e-6
-1.430, 4.109e-6
-1.431, 4.108e-6
-1.432, 4.109e-6
-1.433, 4.116e-6
-1.434, 4.124e-6
-1.435, 4.127e-6
-1.436, 4.128e-6
-1.437, 4.128e-6
-1.438, 4.133e-6
-1.439, 4.138e-6
-1.440, 4.140e-6
-1.441, 4.139e-6
-1.442, 4.139e-6
-1.443, 4.144e-6
-1.444, 4.152e-6
-1.445, 4.153e-6
-1.446, 4.154e-6
-1.447, 4.156e-6
-1.448, 4.160e-6
-1.449, 4.166e-6
-1.450, 4.167e-6
-1.451, 4.168e-6
-1.452, 4.168e-6
-1.453, 4.173e-6
-1.454, 4.181e-6
-1.455, 4.182e-6
-1.456, 4.182e-6
-1.457, 4.183e-6
-1.458, 4.186e-6
-1.459, 4.195e-6
-1.460, 4.198e-6
-1.461, 4.198e-6
-1.462, 4.198e-6
-1.463, 4.203e-6
-1.464, 4.208e-6
-1.465, 4.212e-6
-1.466, 4.210e-6
-1.467, 4.211e-6
-1.468, 4.214e-6
-1.469, 4.221e-6
-1.470, 4.229e-6
-1.471, 4.229e-6
-1.472, 4.233e-6
-1.473, 4.240e-6
-1.474, 4.246e-6
-1.475, 4.246e-6
-1.476, 4.249e-6
-1.477, 4.249e-6
-1.478, 4.256e-6
-1.479, 4.263e-6
-1.480, 4.267e-6
-1.481, 4.269e-6
-1.482, 4.271e-6
-1.483, 4.280e-6
-1.484, 4.286e-6
-1.485, 4.291e-6
-1.486, 4.291e-6
-1.487, 4.292e-6
-1.488, 4.300e-6
-1.489, 4.312e-6
-1.490, 4.313e-6
-1.491, 4.317e-6
-1.492, 4.321e-6
-1.493, 4.326e-6
-1.494, 4.336e-6
-1.495, 4.339e-6
-1.496, 4.341e-6
-1.497, 4.346e-6
-1.498, 4.355e-6
-1.499, 4.366e-6
-1.500, 4.373e-6
-1.501, 4.372e-6
-1.502, 4.378e-6
-1.503, 4.385e-6
-1.504, 4.398e-6
-1.505, 4.406e-6
-1.506, 4.408e-6
-1.507, 4.417e-6
-1.508, 4.426e-6
-1.509, 4.435e-6
-1.510, 4.443e-6
-1.511, 4.448e-6
-1.512, 4.455e-6
-1.513, 4.465e-6
-1.514, 4.475e-6
-1.515, 4.484e-6
-1.516, 4.487e-6
-1.517, 4.496e-6
-1.518, 4.510e-6
-1.519, 4.521e-6
-1.520, 4.529e-6
-1.521, 4.537e-6
-1.522, 4.542e-6
-1.523, 4.555e-6
-1.524, 4.569e-6
-1.525, 4.579e-6
-1.526, 4.589e-6
-1.527, 4.595e-6
-1.528, 4.609e-6
-1.529, 4.624e-6
-1.530, 4.632e-6
-1.531, 4.640e-6
-1.532, 4.650e-6
-1.533, 4.663e-6
-1.534, 4.682e-6
-1.535, 4.691e-6
-1.536, 4.700e-6
-1.537, 4.712e-6
-1.538, 4.725e-6
-1.539, 4.744e-6
-1.540, 4.756e-6
-1.541, 4.765e-6
-1.542, 4.777e-6
-1.543, 4.792e-6
-1.544, 4.812e-6
-1.545, 4.825e-6
-1.546, 4.834e-6
-1.547, 4.848e-6
-1.548, 4.866e-6
-1.549, 4.885e-6
-1.550, 4.900e-6
-1.551, 4.911e-6
-1.552, 4.924e-6
-1.553, 4.945e-6
-1.554, 4.963e-6
-1.555, 4.981e-6
-1.556, 4.995e-6
-1.557, 5.008e-6
-1.558, 5.030e-6
-1.559, 5.051e-6
-1.560, 5.069e-6
-1.561, 5.084e-6
-1.562, 5.101e-6
-1.563, 5.122e-6
-1.564, 5.147e-6
-1.565, 5.164e-6
-1.566, 5.182e-6
-1.567, 5.200e-6
-1.568, 5.224e-6
-1.569, 5.249e-6
-1.570, 5.269e-6
-1.571, 5.287e-6
-1.572, 5.306e-6
-1.573, 5.329e-6
-1.574, 5.357e-6
-1.575, 5.378e-6
-1.576, 5.395e-6
-1.577, 5.419e-6
-1.578, 5.444e-6
-1.579, 5.473e-6
-1.580, 5.497e-6
-1.581, 5.518e-6
-1.582, 5.543e-6
-1.583, 5.571e-6
-1.584, 5.602e-6
-1.585, 5.629e-6
-1.586, 5.650e-6
-1.587, 5.678e-6
-1.588, 5.710e-6
-1.589, 5.739e-6
-1.590, 5.769e-6
-1.591, 5.791e-6
-1.592, 5.817e-6
-1.593, 5.851e-6
-1.594, 5.880e-6
-1.595, 5.909e-6
-1.596, 5.935e-6
-1.597, 5.959e-6
-1.598, 5.997e-6
-1.599, 6.031e-6
-1.600, 6.065e-6
-1.601, 6.094e-6
-1.602, 6.123e-6
-1.603, 6.160e-6
-1.604, 6.198e-6
-1.605, 6.228e-6
-1.606, 6.261e-6
-1.607, 6.292e-6
-1.608, 6.330e-6
-1.609, 6.372e-6
-1.610, 6.405e-6
-1.611, 6.441e-6
-1.612, 6.474e-6
-1.613, 6.515e-6
-1.614, 6.560e-6
-1.615, 6.595e-6
-1.616, 6.630e-6
-1.617, 6.669e-6
-1.618, 6.709e-6
-1.619, 6.757e-6
-1.620, 6.800e-6
-1.621, 6.837e-6
-1.622, 6.877e-6
-1.623, 6.919e-6
-1.624, 6.967e-6
-1.625, 7.012e-6
-1.626, 7.050e-6
-1.627, 7.094e-6
-1.628, 7.143e-6
-1.629, 7.191e-6
-1.630, 7.237e-6
-1.631, 7.276e-6
-1.632, 7.320e-6
-1.633, 7.371e-6
-1.634, 7.418e-6
-1.635, 7.466e-6
-1.636, 7.510e-6
-1.637, 7.559e-6
-1.638, 7.621e-6
-1.639, 7.687e-6
-1.640, 7.727e-6
-1.641, 7.772e-6
-1.642, 7.819e-6
-1.643, 7.872e-6
-1.644, 7.926e-6
-1.645, 7.978e-6
-1.646, 8.028e-6
-1.647, 8.083e-6
-1.648, 8.143e-6
-1.649, 8.202e-6
-1.650, 8.246e-6
-1.651, 8.290e-6
-1.652, 8.338e-6
-1.653, 8.393e-6
-1.654, 8.448e-6
-1.655, 8.490e-6
-1.656, 8.527e-6
-1.657, 8.567e-6
-1.658, 8.613e-6
-1.659, 8.668e-6
-1.660, 8.720e-6
-1.661, 8.772e-6
-1.662, 8.833e-6
-1.663, 8.893e-6
-1.664, 8.960e-6
-1.665, 9.022e-6
-1.666, 9.075e-6
-1.667, 9.138e-6
-1.668, 9.196e-6
-1.669, 9.263e-6
-1.670, 9.327e-6
-1.671, 9.383e-6
-1.672, 9.443e-6
-1.673, 9.511e-6
-1.674, 9.580e-6
-1.675, 9.643e-6
-1.676, 9.704e-6
-1.677, 9.768e-6
-1.678, 9.837e-6
-1.679, 9.901e-6
-1.680, 9.965e-6
-1.681, 1.003e-5
-1.682, 1.009e-5
-1.683, 1.016e-5
-1.684, 1.023e-5
-1.685, 1.030e-5
-1.686, 1.036e-5
-1.687, 1.042e-5
-1.688, 1.049e-5
-1.689, 1.056e-5
-1.690, 1.064e-5
-1.691, 1.071e-5
-1.692, 1.078e-5
-1.693, 1.086e-5
-1.694, 1.094e-5
-1.695, 1.101e-5
-1.696, 1.108e-5
-1.697, 1.116e-5
-1.698, 1.125e-5
-1.699, 1.134e-5
-1.700, 1.142e-5
-1.701, 1.149e-5
-1.702, 1.158e-5
-1.703, 1.166e-5
-1.704, 1.174e-5
-1.705, 1.182e-5
-1.706, 1.190e-5
-1.707, 1.199e-5
-1.708, 1.205e-5
-1.709, 1.213e-5
-1.710, 1.221e-5
-1.711, 1.228e-5
-1.712, 1.236e-5
-1.713, 1.244e-5
-1.714, 1.253e-5
-1.715, 1.263e-5
-1.716, 1.272e-5
-1.717, 1.282e-5
-1.718, 1.294e-5
-1.719, 1.304e-5
-1.720, 1.314e-5
-1.721, 1.324e-5
-1.722, 1.334e-5
-1.723, 1.345e-5
-1.724, 1.358e-5
-1.725, 1.371e-5
-1.726, 1.381e-5
-1.727, 1.391e-5
-1.728, 1.403e-5
-1.729, 1.413e-5
-1.730, 1.423e-5
-1.731, 1.433e-5
-1.732, 1.444e-5
-1.733, 1.454e-5
-1.734, 1.462e-5
-1.735, 1.472e-5
-1.736, 1.482e-5
-1.737, 1.493e-5
-1.738, 1.504e-5
-1.739, 1.516e-5
-1.740, 1.526e-5
-1.741, 1.533e-5
-1.742, 1.543e-5
-1.743, 1.555e-5
-1.744, 1.568e-5
-1.745, 1.579e-5
-1.746, 1.588e-5
-1.747, 1.600e-5
-1.748, 1.613e-5
-1.749, 1.626e-5
-1.750, 1.640e-5
-1.751, 1.653e-5
-1.752, 1.667e-5
-1.753, 1.679e-5
-1.754, 1.691e-5
-1.755, 1.707e-5
-1.756, 1.722e-5
-1.757, 1.736e-5
-1.758, 1.752e-5
-1.759, 1.767e-5
-1.760, 1.779e-5
-1.761, 1.789e-5
-1.762, 1.798e-5
-1.763, 1.807e-5
-1.764, 1.816e-5
-1.765, 1.824e-5
-1.766, 1.833e-5
-1.767, 1.844e-5
-1.768, 1.855e-5
-1.769, 1.871e-5
-1.770, 1.885e-5
-1.771, 1.896e-5
-1.772, 1.904e-5
-1.773, 1.913e-5
-1.774, 1.925e-5
-1.775, 1.941e-5
-1.776, 1.960e-5
-1.777, 1.977e-5
-1.778, 1.994e-5
-1.779, 2.010e-5
-1.780, 2.028e-5
-1.781, 2.040e-5
-1.782, 2.057e-5
-1.783, 2.075e-5
-1.784, 2.093e-5
-1.785, 2.113e-5
-1.786, 2.128e-5
-1.787, 2.140e-5
-1.788, 2.150e-5
-1.789, 2.162e-5
-1.790, 2.177e-5
-1.791, 2.192e-5
-1.792, 2.212e-5
-1.793, 2.230e-5
-1.794, 2.249e-5
-1.795, 2.273e-5
-1.796, 2.293e-5
-1.797, 2.316e-5
-1.798, 2.338e-5
-1.799, 2.355e-5
-1.800, 2.376e-5
-1.801, 2.396e-5
-1.802, 2.412e-5
-1.803, 2.431e-5
-1.804, 2.451e-5
-1.805, 2.471e-5
-1.806, 2.492e-5
-1.807, 2.513e-5
-1.808, 2.539e-5
-1.809, 2.566e-5
-1.810, 2.596e-5
-1.811, 2.624e-5
-1.812, 2.645e-5
-1.813, 2.670e-5
-1.814, 2.694e-5
-1.815, 2.720e-5
-1.816, 2.742e-5
-1.817, 2.764e-5
-1.818, 2.787e-5
-1.819, 2.809e-5
-1.820, 2.831e-5
-1.821, 2.850e-5
-1.822, 2.870e-5
-1.823, 2.895e-5
-1.824, 2.925e-5
-1.825, 2.957e-5
-1.826, 2.982e-5
-1.827, 3.011e-5
-1.828, 3.041e-5
-1.829, 3.071e-5
-1.830, 3.096e-5
-1.831, 3.126e-5
-1.832, 3.163e-5
-1.833, 3.203e-5
-1.834, 3.240e-5
-1.835, 3.269e-5
-1.836, 3.301e-5
-1.837, 3.335e-5
-1.838, 3.368e-5
-1.839, 3.407e-5
-1.840, 3.448e-5
-1.841, 3.483e-5
-1.842, 3.518e-5
-1.843, 3.557e-5
-1.844, 3.591e-5
-1.845, 3.630e-5
-1.846, 3.670e-5
-1.847, 3.709e-5
-1.848, 3.753e-5
-1.849, 3.797e-5
-1.850, 3.840e-5
-1.851, 3.876e-5
-1.852, 3.918e-5
-1.853, 3.961e-5
-1.854, 4.011e-5
-1.855, 4.060e-5
-1.856, 4.113e-5
-1.857, 4.168e-5
-1.858, 4.217e-5
-1.859, 4.270e-5
-1.860, 4.319e-5
-1.861, 4.360e-5
-1.862, 4.405e-5
-1.863, 4.454e-5
-1.864, 4.510e-5
-1.865, 4.571e-5
-1.866, 4.626e-5
-1.867, 4.679e-5
-1.868, 4.732e-5
-1.869, 4.805e-5
-1.870, 4.869e-5
-1.871, 4.934e-5
-1.872, 5.004e-5
-1.873, 5.062e-5
-1.874, 5.127e-5
-1.875, 5.196e-5
-1.876, 5.265e-5
-1.877, 5.342e-5
-1.878, 5.416e-5
-1.879, 5.486e-5
-1.880, 5.552e-5
-1.881, 5.627e-5
-1.882, 5.713e-5
-1.883, 5.796e-5
-1.884, 5.879e-5
-1.885, 5.962e-5
-1.886, 6.051e-5
-1.887, 6.132e-5
-1.888, 6.216e-5
-1.889, 6.303e-5
-1.890, 6.393e-5
-1.891, 6.483e-5
-1.892, 6.577e-5
-1.893, 6.677e-5
-1.894, 6.776e-5
-1.895, 6.871e-5
-1.896, 6.964e-5
-1.897, 7.070e-5
-1.898, 7.184e-5
-1.899, 7.298e-5
-1.900, 7.420e-5
-1.901, 7.535e-5
-1.902, 7.646e-5
-1.903, 7.761e-5
-1.904, 7.883e-5
-1.905, 8.002e-5
-1.906, 8.112e-5
-1.907, 8.234e-5
-1.908, 8.363e-5
-1.909, 8.493e-5
-1.910, 8.629e-5
-1.911, 8.771e-5
-1.912, 8.913e-5
-1.913, 9.060e-5
-1.914, 9.213e-5
-1.915, 9.381e-5
-1.916, 9.540e-5
-1.917, 9.698e-5
-1.918, 9.853e-5
-1.919, 1.002e-4
-1.920, 1.018e-4
-1.921, 1.035e-4
-1.922, 1.053e-4
-1.923, 1.071e-4
-1.924, 1.092e-4
-1.925, 1.113e-4
-1.926, 1.133e-4
-1.927, 1.153e-4
-1.928, 1.173e-4
-1.929, 1.194e-4
-1.930, 1.216e-4
-1.931, 1.237e-4
-1.932, 1.260e-4
-1.933, 1.282e-4
-1.934, 1.305e-4
-1.935, 1.330e-4
-1.936, 1.355e-4
-1.937, 1.381e-4
-1.938, 1.409e-4
-1.939, 1.436e-4
-1.940, 1.466e-4
-1.941, 1.497e-4
-1.942, 1.527e-4
-1.943, 1.557e-4
-1.944, 1.588e-4
-1.945, 1.621e-4
-1.946, 1.653e-4
-1.947, 1.686e-4
-1.948, 1.720e-4
-1.949, 1.756e-4
-1.950, 1.792e-4
-1.951, 1.829e-4
-1.952, 1.866e-4
-1.953, 1.905e-4
-1.954, 1.946e-4
-1.955, 1.987e-4
-1.956, 2.028e-4
-1.957, 2.070e-4
-1.958, 2.113e-4
-1.959, 2.157e-4
-1.960, 2.201e-4
-1.961, 2.249e-4
-1.962, 2.300e-4
-1.963, 2.351e-4
-1.964, 2.403e-4
-1.965, 2.456e-4
-1.966, 2.514e-4
-1.967, 2.569e-4
-1.968, 2.627e-4
-1.969, 2.687e-4
-1.970, 2.749e-4
-1.971, 2.811e-4
-1.972, 2.875e-4
-1.973, 2.938e-4
-1.974, 3.005e-4
-1.975, 3.073e-4
-1.976, 3.144e-4
-1.977, 3.218e-4
-1.978, 3.292e-4
-1.979, 3.370e-4
-1.980, 3.448e-4
-1.981, 3.528e-4
-1.982, 3.611e-4
-1.983, 3.697e-4
-1.984, 3.785e-4
-1.985, 3.876e-4
-1.986, 3.969e-4
-1.987, 4.060e-4
-1.988, 4.157e-4
-1.989, 4.258e-4
-1.990, 4.359e-4
-1.991, 4.467e-4
-1.992, 4.574e-4
-1.993, 4.680e-4
-1.994, 4.792e-4
-1.995, 4.908e-4
-1.996, 5.026e-4
-1.997, 5.146e-4
-1.998, 5.270e-4
-1.999, 5.396e-4
-2.000, 5.523e-4
-2.001, 5.657e-4
-2.002, 5.794e-4
-2.003, 5.934e-4
-2.004, 6.076e-4
-2.005, 6.224e-4
-2.006, 6.373e-4
-2.007, 6.525e-4
-2.008, 6.679e-4
-2.009, 6.839e-4
-2.010, 7.005e-4
-2.011, 7.170e-4
-2.012, 7.338e-4
-2.013, 7.511e-4
-2.014, 7.690e-4
-2.015, 7.870e-4
-2.016, 8.057e-4
-2.017, 8.246e-4
-2.018, 8.437e-4
-2.019, 8.634e-4
-2.020, 8.836e-4
-2.021, 9.041e-4
-2.022, 9.249e-4
-2.023, 9.461e-4
-2.024, 9.680e-4
-2.025, 9.903e-4
-2.026, 1.009e-3
-2.027, 1.011e-3
-2.028, 1.011e-3
-2.029, 1.011e-3
-2.030, 1.011e-3
-2.031, 1.011e-3
-2.032, 1.011e-3
-2.033, 1.011e-3
-2.034, 1.011e-3
-2.035, 1.011e-3
-2.036, 1.011e-3
-2.037, 1.011e-3
-2.038, 1.011e-3
-2.039, 1.011e-3
-2.040, 1.011e-3
-2.041, 1.011e-3
-2.042, 1.011e-3
-2.043, 1.011e-3
-2.044, 1.011e-3
-2.045, 1.011e-3
-2.046, 1.011e-3
-2.047, 1.011e-3
-2.048, 1.011e-3
-2.049, 1.011e-3
-2.050, 1.011e-3
-2.051, 1.011e-3
-2.052, 1.011e-3
-2.053, 1.011e-3
-2.054, 1.011e-3
-2.055, 1.011e-3
-2.056, 1.011e-3
-2.057, 1.011e-3
-2.058, 1.011e-3
-2.059, 1.011e-3
-2.060, 1.011e-3
-2.061, 1.011e-3
-2.062, 1.011e-3
-2.063, 1.011e-3
-2.064, 1.011e-3
-2.065, 1.011e-3
-2.066, 1.011e-3
-2.067, 1.011e-3
-2.068, 1.011e-3
-2.069, 1.011e-3
-2.070, 1.011e-3
-2.071, 1.011e-3
-2.072, 1.011e-3
-2.073, 1.011e-3
-2.074, 1.011e-3
-2.075, 1.011e-3
-2.076, 1.011e-3
-2.077, 1.011e-3
-2.078, 1.011e-3
-2.079, 1.011e-3
-2.080, 1.011e-3
-2.081, 1.011e-3
-2.082, 1.011e-3
-2.083, 1.011e-3
-2.084, 1.011e-3
-2.085, 1.011e-3
-2.086, 1.011e-3
-2.087, 1.011e-3
-2.088, 1.011e-3
-2.089, 1.011e-3
-2.090, 1.011e-3
-2.091, 1.011e-3
-2.092, 1.011e-3
-2.093, 1.011e-3
-2.094, 1.011e-3
-2.095, 1.011e-3
-2.096, 1.011e-3
-2.097, 1.011e-3
-2.098, 1.011e-3
-2.099, 1.011e-3
