Potential V vs RHE, Current mA cm-2
0.013299999999999867,2.004645911908757
0.012299999999999978,0.6956135461436386
0.011299999999999866,-0.4384190318281749
0.010299999999999976,-1.4854468648582886
0.009299999999999864,-2.4007650758709675
0.008299999999999974,-3.273641947887695
0.007299999999999862,-4.102662769608606
0.006299999999999972,-4.843971490737885
0.00529999999999986,-5.5414241615713475
0.0042999999999999705,-6.238876832404812
0.0032999999999998586,-6.893888164242324
0.0022999999999999687,-7.5474847847799715
0.0012999999999998568,-8.202496116617484
0.00029999999999996696,-8.812236686859313
-0.000700000000000145,-9.379535918105192
-0.0017000000000000348,-9.99069119964689
-0.0027000000000001467,-10.514134380596953
-0.0037000000000000366,-11.037577561547016
-0.0047000000000001485,-11.56102074249708
-0.005700000000000038,-12.084463923447142
-0.00670000000000015,-12.520195003805576
-0.00770000000000004,-12.99978213445982
-0.008700000000000152,-13.436927926118118
-0.009700000000000042,-13.872659006476551
-0.010700000000000154,-14.30273124163552
-0.011700000000000044,-14.69885040559773
-0.012700000000000156,-15.179852247551842
-0.013700000000000045,-15.618412750510005
-0.014700000000000157,-16.014531914472215
-0.015700000000000047,-16.438945304431726
-0.01670000000000016,-16.877505807389888
-0.01770000000000005,-17.231183632356142
-0.01870000000000016,-17.669744135314307
-0.01970000000000005,-18.06586329927652
-0.020700000000000163,-18.44783535024008
-0.021700000000000053,-18.759071836210385
-0.022700000000000164,-19.197632339168546
-0.023700000000000054,-19.49472171214021
-0.024700000000000166,-19.890840876102416
-0.025700000000000056,-20.244518701068674
-0.026700000000000168,-20.584049413036283
-0.027700000000000058,-20.980168576998494
-0.02870000000000017,-21.376287740960702
-0.02970000000000006,-21.772406904922917
-0.03070000000000017,-22.15437895588647
-0.03170000000000006,-22.550498119848687
-0.03270000000000017,-22.946617283810895
-0.03370000000000006,-23.342736447773106
-0.034700000000000175,-23.682267159740714
-0.035700000000000065,-24.078386323702922
-0.03670000000000018,-24.432064148669184
-0.03770000000000007,-24.814036199632742
-0.03870000000000018,-25.210155363594954
-0.03970000000000007,-25.60627452755716
-0.04070000000000018,-25.959952352523427
-0.04170000000000007,-26.34192440348698
-0.04270000000000018,-26.738043567449193
-0.04370000000000007,-27.134162731411404
-0.044700000000000184,-27.530281895373616
-0.045700000000000074,-27.954695285333123
-0.046700000000000186,-28.350814449295335
-0.047700000000000076,-28.789374952253496
-0.04870000000000019,-29.22793545521166
-0.04970000000000008,-29.66649595816982
-0.05070000000000019,-30.00602667013743
-0.05170000000000008,-30.444587173095588
-0.05270000000000019,-30.8407063370578
-0.05370000000000008,-31.27926684001596
-0.05470000000000019,-31.661238890979522
-0.05570000000000008,-32.05735805494172
-0.056700000000000195,-32.45347721890394
-0.057700000000000085,-32.892037721862096
-0.058700000000000196,-33.330598224820264
-0.059700000000000086,-33.755011614779775
-0.0607000000000002,-34.236013456733886
-0.06170000000000009,-34.67457395969205
-0.0627000000000002,-35.15557580164616
-0.06370000000000009,-35.594136304604326
-0.0647000000000002,-36.03269680756248
-0.06570000000000009,-36.4288159715247
-0.0667000000000002,-36.8532293614842
-0.0677000000000001,-37.291789864442364
-0.0687000000000002,-37.73035036740053
-0.0697000000000001,-38.12646953136274
-0.07070000000000021,-38.5650300343209
-0.0717000000000001,-38.94700208528445
-0.07270000000000021,-39.38556258824262
-0.0737000000000001,-39.82412309120078
-0.07470000000000021,-40.30512493315489
-0.0757000000000001,-40.743685436113054
-0.07670000000000021,-41.22468727806717
-0.0777000000000001,-41.70568912002128
-0.07870000000000021,-42.130102509980794
-0.0797000000000001,-42.6111043519349
-0.08070000000000022,-43.09210619388902
-0.0817000000000001,-43.57310803584313
-0.08270000000000022,-44.011668538801295
-0.08370000000000011,-44.45022904175945
-0.08470000000000022,-44.88878954471762
-0.08570000000000011,-45.36979138667173
-0.08670000000000022,-45.79420477663124
-0.08770000000000011,-46.27520661858535
-0.08870000000000022,-46.75620846053947
-0.08970000000000011,-47.23721030249357
-0.09070000000000022,-47.71821214444768
-0.09170000000000011,-48.24165532539775
-0.09270000000000023,-48.72265716735186
-0.09370000000000012,-49.20365900930597
-0.09470000000000023,-49.72710219025603
-0.09570000000000012,-50.20810403221015
-0.09670000000000023,-50.73154721316022
-0.09770000000000012,-51.17010771611838
-0.09870000000000023,-51.65110955807249
-0.09970000000000012,-52.075522948032
-0.10070000000000023,-52.59896612898206
-0.10170000000000012,-53.03752663194023
-0.10270000000000024,-53.56096981289029
-0.10370000000000013,-53.999530315848446
-0.10470000000000024,-54.480532157802564
-0.10570000000000013,-54.961533999756675
-0.10670000000000024,-55.442535841710786
-0.10770000000000013,-55.96597902266086
-0.10870000000000024,-56.44698086461496
-0.10970000000000013,-56.927982706569075
-0.11070000000000024,-57.408984548523186
-0.11170000000000013,-57.87583927747865
-0.11270000000000002,-58.31439978043681
-0.11370000000000013,-58.75296028339497
-0.11470000000000002,-59.14907944735718
-0.11570000000000014,-59.6300812893113
-0.11670000000000003,-60.02620045327351
-0.11770000000000014,-60.49305518222897
-0.11870000000000003,-60.974057024183075
-0.11970000000000014,-61.412617527141244
-0.12070000000000003,-61.89361936909536
-0.12170000000000014,-62.41706255004542
-0.12270000000000003,-62.89806439199953
-0.12370000000000014,-63.3366248949577
-0.12470000000000003,-63.81762673691181
-0.12570000000000014,-64.29862857886593
-0.12670000000000003,-64.77963042082003
-0.12770000000000015,-65.20404381077954
-0.12870000000000004,-65.64260431373769
-0.12970000000000015,-66.08116481669586
-0.13070000000000004,-66.51972531965401
-0.13170000000000015,-66.9582858226122
-0.13270000000000004,-67.39684632557035
-0.13370000000000015,-67.86370105452582
-0.13470000000000004,-68.34470289647993
-0.13570000000000015,-68.78326339943808
-0.13670000000000004,-69.26426524139221
-0.13770000000000016,-69.74526708334632
-0.13870000000000005,-70.22626892530042
-0.13970000000000016,-70.70727076725453
-0.14070000000000005,-71.1458312702127
-0.14170000000000016,-71.6268331121668
-0.14270000000000005,-72.05124650212633
-0.14370000000000016,-72.44736566608852
-0.14470000000000005,-72.84348483005074
-0.14570000000000016,-73.2820453330089
-0.14670000000000005,-73.6781644969711
-0.14770000000000016,-74.06013654793468
-0.14870000000000005,-74.49869705089283
-0.14970000000000017,-74.93725755385098
-0.15070000000000006,-75.37581805680915
-0.15170000000000017,-75.81437855976732
-0.15270000000000006,-76.23879194972683
-0.15370000000000017,-76.67735245268499
-0.15470000000000006,-77.11591295564315
-0.15570000000000017,-77.55447345860131
-0.15670000000000006,-77.95059262256353
-0.15770000000000017,-78.38915312552167
-0.15870000000000006,-78.8135665154812
-0.15970000000000018,-79.20968567944341
-0.16070000000000007,-79.60580484340561
-0.16170000000000018,-79.94533555537322
-0.16270000000000007,-80.34145471933543
-0.16370000000000018,-80.73757388329766
-0.16470000000000007,-81.13369304725985
-0.16570000000000018,-81.47322375922747
-0.16670000000000007,-81.86934292318966
-0.16770000000000018,-82.26546208715187
-0.16870000000000007,-82.6615812511141
-0.16970000000000018,-83.08599464107361
-0.17070000000000007,-83.52455514403178
-0.17170000000000019,-84.00555698598588
-0.17270000000000008,-84.44411748894404
-0.1737000000000002,-84.92511933089816
-0.17470000000000008,-85.36367983385631
-0.1757000000000002,-85.80224033681448
-0.17670000000000008,-86.18421238777805
-0.1777000000000002,-86.66521422973216
-0.17870000000000008,-87.01889205469841
-0.1797000000000002,-87.45745255765657
-0.18070000000000008,-87.89601306061473
-0.1817000000000002,-88.27798511157829
-0.18270000000000008,-88.71654561453644
-0.1837000000000002,-89.11266477849867
-0.1847000000000001,-89.50878394246087
-0.1857000000000002,-89.89075599342443
-0.1867000000000001,-90.24443381839069
-0.1877000000000002,-90.59811164335694
-0.1887000000000001,-90.89520101632861
-0.1897000000000002,-91.24887884129487
-0.1907000000000001,-91.56011532726518
-0.1917000000000001,-91.85720470023682
-0.19269999999999998,-92.25332386419905
-0.1937000000000001,-92.6070016891653
-0.19469999999999998,-92.90409106213696
-0.1957000000000001,-93.38509290409107
-0.19669999999999999,-93.78121206805329
-0.1977000000000001,-94.03586010202899
-0.1987,-94.30465524900335
-0.1997000000000001,-94.55930328297906
-0.2007,-94.87053976894937
-0.2017000000000001,-95.26665893291157
-0.2027,-95.60618964487918
-0.2037000000000001,-96.00230880884139
-0.2047,-96.21451550382113
-0.2057000000000001,-96.3984279728036
-0.2067,-96.5681933287874
-0.2077000000000001,-96.87942981475771
-0.2087,-97.21896052672531
-0.2097000000000001,-97.57263835169158
-0.2107,-97.88387483766188
-0.2117000000000001,-98.2234055496295
-0.2127,-98.57708337459576
-0.2137000000000001,-98.88831986056607
-0.2147,-99.27029191152963
-0.2157000000000001,-99.75129375348374
-0.2167,-100.10497157844999
-0.21770000000000012,-100.45864940341626
-0.2187,-100.71329743739196
-0.21970000000000012,-100.92550413237171
-0.2207,-101.19429927934607
-0.22170000000000012,-101.44894731332178
-0.2227,-101.76018379929208
-0.22370000000000012,-102.02897894626645
-0.2247,-102.28362698024215
-0.22570000000000012,-102.5524221272165
-0.2267,-102.84951150018817
-0.22770000000000012,-103.16074798615847
-0.22870000000000001,-103.41539602013418
-0.22970000000000013,-103.64174982811258
-0.23070000000000002,-103.85395652309235
-0.23170000000000013,-104.06616321807209
-0.23270000000000002,-104.25007568705455
-0.23370000000000013,-104.46228238203432
-0.23470000000000002,-104.64619485101677
-0.23570000000000013,-104.85840154599651
-0.23670000000000002,-104.94328422398843
-0.2376999999999999,-105.16963803196683
-0.23870000000000002,-105.33940338795064
-0.2396999999999999,-105.5516100829304
-0.24070000000000003,-105.7779638909088
-0.24169999999999991,-106.0326119248845
-0.24270000000000003,-106.30140707185885
-0.24369999999999992,-106.51361376683862
-0.24470000000000003,-106.78240891381296
-0.24569999999999992,-106.99461560879273
-0.24670000000000003,-107.20682230377247
-0.24769999999999992,-107.4331761117509
-0.24870000000000003,-107.6029414677347
-0.24969999999999992,-107.8292952757131
-0.25070000000000003,-107.99906063169689
-0.2516999999999999,-108.1688259876807
-0.25270000000000004,-108.35273845666316
-0.2536999999999999,-108.48006247365102
-0.25470000000000004,-108.64982782963483
-0.2556999999999999,-108.83374029861727
-0.25670000000000004,-109.04594699359701
-0.25769999999999993,-109.21571234958083
-0.25870000000000004,-109.39962481856328
-0.25969999999999993,-109.56939017454708
-0.26070000000000004,-109.69671419153494
-0.26169999999999993,-109.78159686952685
-0.26270000000000004,-109.9655093385093
-0.26369999999999993,-110.05039201650122
-0.26470000000000005,-110.1352746944931
-0.26569999999999994,-110.26259871148096
-0.26670000000000005,-110.40406984146746
-0.26769999999999994,-110.4465111804634
-0.26870000000000005,-110.57383519745127
-0.26969999999999994,-110.70115921443913
-0.27070000000000005,-110.82848323142699
-0.27169999999999994,-110.96995436141347
-0.27270000000000005,-111.09727837840134
-0.27369999999999994,-111.22460239538917
-0.27470000000000006,-111.35192641237703
-0.27569999999999995,-111.49339754236355
-0.27670000000000006,-111.6207215593514
-0.27769999999999995,-111.7904869153352
-0.27870000000000006,-111.91781093232305
-0.27969999999999995,-112.05928206230955
-0.28070000000000006,-112.27148875728932
-0.28169999999999995,-112.39881277427718
-0.28270000000000006,-112.54028390426367
-0.28369999999999995,-112.66760792125153
-0.28470000000000006,-112.75249059924342
-0.28569999999999995,-112.83737327723534
-0.28670000000000007,-112.96469729422319
-0.28769999999999996,-113.06372708521374
-0.28870000000000007,-113.14860976320564
-0.28969999999999996,-113.27593378019348
-0.29070000000000007,-113.27593378019348
-0.29169999999999996,-113.31837511918944
-0.29270000000000007,-113.36081645818538
-0.29369999999999996,-113.40325779718134
-0.2947000000000001,-113.44569913617728
-0.29569999999999996,-113.44569913617728
-0.2967000000000001,-113.48814047517324
-0.29769999999999996,-113.53058181416918
-0.2987000000000001,-113.53058181416918
-0.29969999999999997,-113.53058181416918
-0.3007000000000001,-113.58717026616378
-0.30169999999999997,-113.53058181416918
-0.3027000000000001,-113.44569913617728
-0.30369999999999997,-113.36081645818538
-0.3047000000000001,-113.31837511918944
-0.30569999999999997,-113.27593378019348
-0.3067000000000001,-113.14860976320564
-0.3077,-113.10616842420968
-0.3087000000000001,-113.06372708521374
-0.3097,-112.92225595522721
-0.3107000000000001,-112.83737327723534
-0.3117,-112.75249059924342
-0.3127000000000001,-112.71004926024747
-0.3137,-112.62516658225556
-0.3147000000000001,-112.54028390426367
-0.3157,-112.48369545226906
-0.3167000000000001,-112.44125411327312
-0.3177,-112.39881277427718
-0.3187000000000001,-112.3563714352812
-0.3197,-112.22904741829338
-0.3207000000000001,-112.14416474030146
-0.3217,-112.05928206230955
-0.3227000000000001,-111.91781093232305
-0.3237,-111.7904869153352
-0.3247000000000001,-111.66316289834735
-0.3257,-111.5358388813595
-0.3267000000000001,-111.394367751373
-0.3277,-111.26704373438514
-0.3287000000000001,-111.18216105639323
-0.3297,-111.01239570040943
-0.3307000000000001,-110.87092457042293
-0.3317,-110.78604189243102
-0.3327000000000001,-110.6162765364472
-0.3337,-110.4465111804634
-0.3347000000000001,-110.3050400504769
-0.3357,-110.1352746944931
-0.3367000000000001,-109.9655093385093
-0.3377,-109.73915553053091
-0.3387000000000001,-109.52694883555114
-0.3397,-109.30059502757274
-0.3407000000000001,-109.08838833259297
-0.3417,-108.87618163761321
-0.3427000000000001,-108.64982782963483
-0.3437,-108.52250381264696
-0.3447000000000001,-108.3102971176672
-0.3457,-108.12638464868475
-0.3467000000000001,-107.914177953705
-0.3477,-107.68782414572658
-0.3487000000000001,-107.4331761117509
-0.3497,-107.20682230377247
-0.3507000000000001,-107.03705694778867
-0.3517,-106.86729159180487
-0.3527000000000001,-106.68337912282242
-0.3537,-106.51361376683862
-0.3547000000000001,-106.34384841085482
-0.3557,-106.15993594187235
-0.35670000000000013,-105.99017058588855
-0.3577,-105.7779638909088
-0.35870000000000013,-105.63649276092228
-0.3597,-105.42428606594254
-0.36070000000000013,-105.25452070995874
-0.3617,-105.07060824097626
-0.3626999999999999,-104.85840154599651
-0.3637,-104.68863619001272
-0.3646999999999999,-104.46228238203432
-0.3657,-104.25007568705455
-0.3666999999999999,-104.06616321807209
-0.3677,-103.85395652309235
-0.3686999999999999,-103.68419116710854
-0.36970000000000003,-103.50027869812607
-0.3706999999999999,-103.33051334214227
-0.37170000000000003,-103.20318932515443
-0.3726999999999999,-103.07586530816658
-0.37370000000000003,-102.93439417818009
-0.3746999999999999,-102.76462882219626
-0.37570000000000003,-102.63730480520842
-0.3766999999999999,-102.45339233622596
-0.37770000000000004,-102.28362698024215
-0.3786999999999999,-102.07142028526239
-0.37970000000000004,-101.84506647728399
-0.3806999999999999,-101.6753011213002
-0.38170000000000004,-101.44894731332178
-0.38269999999999993,-101.27918195733798
-0.38370000000000004,-101.10941660135417
-0.38469999999999993,-100.92550413237171
-0.38570000000000004,-100.75573877638791
-0.38669999999999993,-100.62841475940007
-0.38770000000000004,-100.5010907424122
-0.38869999999999993,-100.40206095142165
-0.38970000000000005,-100.31717827342976
-0.39069999999999994,-100.23229559543785
-0.39170000000000005,-100.14741291744595
-0.39269999999999994,-100.06253023945405
-0.39370000000000005,-99.93520622246619
-0.39469999999999994,-99.83617643147564
-0.39570000000000005,-99.70885241448778
-0.39669999999999994,-99.62396973649588
-0.39770000000000005,-99.49664571950804
-0.39869999999999994,-99.41176304151614
-0.39970000000000006,-99.27029191152963
-0.40069999999999995,-99.18540923353773
-0.40170000000000006,-99.05808521654988
-0.40269999999999995,-99.01564387755391
-0.40370000000000006,-98.93076119956201
-0.40469999999999995,-98.88831986056607
-0.40570000000000006,-98.88831986056607
-0.40669999999999995,-98.88831986056607
-0.40770000000000006,-98.88831986056607
-0.40869999999999995,-98.97320253855796
-0.40970000000000006,-98.97320253855796
-0.41069999999999995,-99.01564387755391
-0.41170000000000007,-99.05808521654988
-0.41269999999999996,-99.05808521654988
-0.41370000000000007,-99.05808521654988
-0.41469999999999996,-99.05808521654988
-0.41570000000000007,-99.01564387755391
-0.41669999999999996,-98.97320253855796
-0.41770000000000007,-98.93076119956201
-0.41869999999999996,-98.88831986056607
-0.4197000000000001,-98.83173140857146
-0.42069999999999996,-98.83173140857146
-0.4217000000000001,-98.88831986056607
-0.42269999999999996,-98.93076119956201
-0.4237000000000001,-98.97320253855796
-0.42469999999999997,-99.05808521654988
-0.4257000000000001,-99.18540923353773
-0.42669999999999997,-99.31273325052557
-0.4277000000000001,-99.49664571950804
-0.42869999999999997,-99.62396973649588
-0.4297000000000001,-99.75129375348374
-0.43069999999999997,-99.83617643147564
-0.4317000000000001,-99.87861777047159
-0.4327,-99.93520622246619
-0.4337000000000001,-99.93520622246619
-0.4347,-99.93520622246619
-0.4357000000000001,-99.93520622246619
-0.4367,-99.93520622246619
-0.4377000000000001,-99.97764756146215
-0.4387,-100.02008890045809
-0.4397000000000001,-99.97764756146215
-0.4407,-99.93520622246619
-0.4417000000000001,-99.87861777047159
-0.4427,-99.93520622246619
-0.4437000000000001,-100.10497157844999
-0.4447,-100.31717827342976
-0.4457000000000001,-100.54353208140815
-0.4467,-100.71329743739196
-0.4477000000000001,-100.92550413237171
-0.4487,-101.19429927934607
-0.4497000000000001,-101.44894731332178
-0.4507,-101.6753011213002
-0.4517000000000001,-101.97239049427183
-0.4527,-102.19874430225026
-0.4537000000000001,-102.3260683192381
-0.4547,-102.36850965823406
-0.4557000000000001,-102.41095099723
-0.4567,-102.41095099723
-0.4577000000000001,-102.45339233622596
-0.4587,-102.4958336752219
-0.4597000000000001,-102.59486346621246
-0.4607,-102.72218748320032
-0.4617000000000001,-102.89195283918411
-0.4627,-103.07586530816658
-0.4637000000000001,-103.24563066415038
-0.4647,-103.41539602013418
-0.4657000000000001,-103.59930848911664
-0.4667,-103.7266325061045
-0.4677000000000001,-103.81151518409638
-0.4687,-103.85395652309235
-0.4697000000000001,-103.85395652309235
-0.4707,-103.85395652309235
-0.4717000000000001,-103.89639786208829
-0.4727,-103.98128054008019
-0.4737000000000001,-104.12275167006669
-0.4747,-104.2925170260505
-0.4757000000000001,-104.5471650600262
-0.4767,-104.77351886800463
-0.4777000000000001,-105.02816690198033
-0.4787,-105.29696204895468
-0.4797000000000001,-105.50916874393444
-0.4807,-105.73552255191284
-0.48170000000000013,-105.94772924689259
-0.4827,-106.11749460287639
-0.48370000000000013,-106.38628974985076
-0.4847,-106.59849644483052
-0.48570000000000013,-106.82485025280893
-0.4867,-105.90528790789664
-0.48570000000000013,-103.11830664716253
-0.4847,-100.58597342040412
-0.48370000000000013,-98.18096421063355
-0.4827,-95.95986746984543
-0.48170000000000013,-93.78121206805329
-0.4807,-91.77232202224494
-0.4797000000000001,-89.84831465442848
-0.4787,-87.98089573860662
-0.4777000000000001,-86.18421238777805
-0.4767,-84.48655882793999
-0.4757000000000001,-82.8313466070979
-0.4747,-81.21857572525175
-0.4737000000000001,-79.64824618240156
-0.4727,-78.07791663955136
-0.4717000000000001,-76.55002843569714
-0.4707,-75.06458157083884
-0.4697000000000001,-73.62157604497652
-0.4687,-72.19271763211282
-0.4677000000000001,-70.8345947842424
-0.4667,-69.43403059737601
-0.4657000000000001,-68.17493754049613
-0.4647,-66.87340314462028
