Potential V vs RHE, Current mA cm-2
0.013299999999999867,2.4842330425630044
0.012299999999999978,1.3063444142953748
0.011299999999999866,0.3467457395969205
0.010299999999999976,-0.4384190318281749
0.009299999999999864,-1.0925815368857679
0.008299999999999974,-1.7033124050375041
0.007299999999999862,-2.3144676865791998
0.006299999999999972,-2.8803522065252145
0.00529999999999986,-3.361354048479327
0.0042999999999999705,-3.7093730282461257
0.0032999999999998586,-4.146518819904423
0.0022999999999999687,-4.626105950558669
0.0012999999999998568,-5.0618370309171015
0.00029999999999996696,-5.367414671687949
-0.000700000000000145,-5.715433651454749
-0.0017000000000000348,-6.021011292225596
-0.0027000000000001467,-6.414301033588076
-0.0037000000000000366,-6.762320013354876
-0.0047000000000001485,-7.024041603829907
-0.005700000000000038,-7.28576319430494
-0.00670000000000015,-7.591340835075788
-0.00770000000000004,-7.896918475846635
-0.008700000000000152,-8.202496116617484
-0.009700000000000042,-8.464217707092514
-0.010700000000000154,-8.68208324727173
-0.011700000000000044,-8.943804837746763
-0.012700000000000156,-9.293238528813426
-0.013700000000000045,-9.55496011928846
-0.014700000000000157,-9.81668170976349
-0.015700000000000047,-9.99069119964689
-0.01670000000000016,-10.296268840417738
-0.01770000000000005,-10.601846481188586
-0.01870000000000016,-10.819712021367803
-0.01970000000000005,-11.037577561547016
-0.020700000000000163,-11.211587051430415
-0.021700000000000053,-11.473308641905447
-0.022700000000000164,-11.778886282676295
-0.023700000000000054,-12.084463923447142
-0.024700000000000166,-12.302329463626359
-0.025700000000000056,-12.476338953509758
-0.026700000000000168,-12.73806054398479
-0.027700000000000058,-13.043638184755638
-0.02870000000000017,-13.349215825526485
-0.02970000000000006,-13.567081365705702
-0.03070000000000017,-13.784946905884919
-0.03170000000000006,-14.046668496359947
-0.03270000000000017,-14.30273124163552
-0.03370000000000006,-14.61396772760583
-0.034700000000000175,-14.783733083589633
-0.035700000000000065,-15.01008689156804
-0.03670000000000018,-15.264734925543747
-0.03770000000000007,-15.575971411514052
-0.03870000000000018,-15.91550212348166
-0.03970000000000007,-16.184297270456018
-0.04070000000000018,-16.354062626439823
-0.04170000000000007,-16.622857773414182
-0.04270000000000018,-16.962388485381787
-0.04370000000000007,-17.2736249713521
-0.044700000000000184,-17.48583166633185
-0.045700000000000074,-17.71218547431026
-0.046700000000000186,-17.966833508285966
-0.047700000000000076,-18.27806999425627
-0.04870000000000019,-18.589306480226583
-0.04970000000000008,-18.843954514202288
-0.05070000000000019,-19.056161209182044
-0.05170000000000008,-19.367397695152352
-0.05270000000000019,-19.636192842126707
-0.05370000000000008,-19.93328221509837
-0.05470000000000019,-20.202077362072725
-0.05570000000000008,-20.456725396048434
-0.056700000000000195,-20.76796188201874
-0.057700000000000085,-21.065051254990397
-0.058700000000000196,-21.376287740960702
-0.059700000000000086,-21.67337711393236
-0.0607000000000002,-21.94217226090672
-0.06170000000000009,-22.196820294882425
-0.0627000000000002,-22.550498119848687
-0.06370000000000009,-22.861734605818995
-0.0647000000000002,-23.1163826397947
-0.06570000000000009,-23.385177786769056
-0.0667000000000002,-23.682267159740714
-0.0677000000000001,-24.035944984706973
-0.0687000000000002,-24.389622809673234
-0.0697000000000001,-24.64427084364894
-0.07070000000000021,-24.814036199632742
-0.0717000000000001,-25.12527268560305
-0.07270000000000021,-25.478950510569312
-0.0737000000000001,-25.81848122253692
-0.07470000000000021,-26.129717708507226
-0.0757000000000001,-26.34192440348698
-0.07670000000000021,-26.568278211465387
-0.0777000000000001,-26.907808923433
-0.07870000000000021,-27.219045409403304
-0.0797000000000001,-27.487840556377662
-0.08070000000000022,-27.742488590353368
-0.0817000000000001,-28.05372507632368
-0.08270000000000022,-28.393255788291288
-0.08370000000000011,-28.746933613257543
-0.08470000000000022,-28.959140308237306
-0.08570000000000011,-29.22793545521166
-0.08670000000000022,-29.581613280177915
-0.08770000000000011,-29.878702653149578
-0.08870000000000022,-30.147497800123933
-0.08970000000000011,-30.402145834099635
-0.09070000000000022,-30.614352529079397
-0.09170000000000011,-30.925589015049702
-0.09270000000000023,-31.27926684001596
-0.09370000000000012,-31.57635621298762
-0.09470000000000023,-31.802710020966025
-0.09570000000000012,-32.01491671594578
-0.09670000000000023,-32.24127052392419
-0.09770000000000012,-32.49591855789989
-0.09870000000000023,-32.807155043870196
-0.09970000000000012,-33.10424441684186
-0.10070000000000023,-33.373039563816214
-0.10170000000000012,-33.627687597791926
-0.10270000000000024,-33.85404140577033
-0.10370000000000013,-34.06624810075008
-0.10470000000000024,-34.33504324772444
-0.10570000000000013,-34.50480860370825
-0.10670000000000024,-34.75945663768395
-0.10770000000000013,-35.02825178465831
-0.10870000000000024,-35.282899818634014
-0.10970000000000013,-35.50925362661242
-0.11070000000000024,-35.679018982596226
-0.11170000000000013,-35.99025546856653
-0.11270000000000002,-36.329786180534136
-0.11370000000000013,-36.55613998851254
-0.11470000000000002,-36.768346683492304
-0.11570000000000014,-36.99470049147071
-0.11670000000000003,-37.249348525446415
-0.11770000000000014,-37.56058501141672
-0.11870000000000003,-37.81523304539243
-0.11970000000000014,-37.99914551437489
-0.12070000000000003,-38.12646953136274
-0.12170000000000014,-38.38111756533845
-0.12270000000000003,-38.692354051308754
-0.12370000000000014,-38.94700208528445
-0.12470000000000003,-39.173355893262865
-0.12570000000000014,-39.38556258824262
-0.12670000000000003,-39.654357735216976
-0.12770000000000015,-39.95144710818864
-0.12870000000000004,-40.26268359415894
-0.12970000000000015,-40.43244895014274
-0.13070000000000004,-40.559772967130606
-0.13170000000000015,-40.78612677510901
-0.13270000000000004,-41.04077480908471
-0.13370000000000015,-41.22468727806717
-0.13470000000000004,-41.39445263405098
-0.13570000000000015,-41.52177665103883
-0.13670000000000004,-41.74813045901723
-0.13770000000000016,-42.00277849299294
-0.13870000000000005,-42.3564563179592
-0.13970000000000016,-42.6111043519349
-0.14070000000000005,-42.837458159913304
-0.14170000000000016,-43.04966485489307
-0.14270000000000005,-43.36090134086337
-0.14370000000000016,-43.53066669684718
-0.14470000000000005,-43.61554937483908
-0.14570000000000016,-43.75702050482558
-0.14670000000000005,-43.92678586080939
-0.14770000000000016,-44.181433894785094
-0.14870000000000005,-44.4077877027635
-0.14970000000000017,-44.619994397743255
-0.15070000000000006,-44.88878954471762
-0.15170000000000017,-45.10099623969737
-0.15270000000000006,-45.36979138667173
-0.15370000000000017,-45.624439420647434
-0.15470000000000006,-45.75176343763528
-0.15570000000000017,-45.93567590661774
-0.15670000000000006,-46.10544126260155
-0.15770000000000017,-46.3176479575813
-0.15870000000000006,-46.544001765559706
-0.15970000000000018,-46.628884443551605
-0.16070000000000007,-46.75620846053947
-0.16170000000000018,-46.88353247752732
-0.16270000000000007,-47.15232762450167
-0.16370000000000018,-47.46356411047198
-0.16470000000000007,-47.590888127459834
-0.16570000000000018,-47.67577080545174
-0.16670000000000007,-47.80309482243959
-0.16770000000000018,-47.93041883942744
-0.16870000000000007,-48.071889969413945
-0.16970000000000018,-48.114331308409895
-0.17070000000000007,-48.156772647405845
-0.17170000000000019,-48.2840966643937
-0.17270000000000008,-48.51045047237211
-0.1737000000000002,-48.72265716735186
-0.17470000000000008,-48.89242252333566
-0.1757000000000002,-49.03389365332217
-0.17670000000000008,-49.24610034830193
-0.1777000000000002,-49.41586570428573
-0.17870000000000008,-49.557336834272235
-0.1797000000000002,-49.642219512264134
-0.18070000000000008,-49.72710219025603
-0.1817000000000002,-49.85442620724389
-0.18270000000000008,-50.024191563227696
-0.1837000000000002,-50.2505453712061
-0.1847000000000001,-50.37786938819396
-0.1857000000000002,-50.50519340518181
-0.1867000000000001,-50.68910587416426
-0.1877000000000002,-50.943753908139975
-0.1887000000000001,-51.21254905511432
-0.1897000000000002,-51.38231441109813
-0.1907000000000001,-51.46719708909004
-0.1917000000000001,-51.55207976708194
-0.19269999999999998,-51.73599223606439
-0.1937000000000001,-51.948198931044146
-0.19469999999999998,-52.033081609036046
-0.1957000000000001,-52.17455273902255
-0.19669999999999999,-52.25943541701445
-0.1977000000000001,-52.42920077299826
-0.1987,-52.59896612898206
-0.1997000000000001,-52.69799591997262
-0.2007,-52.74043725896857
-0.2017000000000001,-52.78287859796452
-0.2027,-52.86776127595642
-0.2037000000000001,-52.995085292944275
-0.2047,-53.079967970936174
-0.2057000000000001,-53.16485064892808
-0.2067,-53.26388043991864
-0.2077000000000001,-53.433645795902436
-0.2087,-53.56096981289029
-0.2097000000000001,-53.603411151886235
-0.2107,-53.603411151886235
-0.2117000000000001,-53.68829382987814
-0.2127,-53.82976495986464
-0.2137000000000001,-53.91464763785655
-0.2147,-53.9570889768525
-0.2157000000000001,-53.999530315848446
-0.2167,-54.08441299384035
-0.21770000000000012,-54.16929567183226
-0.2187,-54.31076680181876
-0.21970000000000012,-54.35320814081471
-0.2207,-54.31076680181876
-0.22170000000000012,-54.31076680181876
-0.2227,-54.35320814081471
-0.22370000000000012,-54.31076680181876
-0.2247,-54.26832546282281
-0.22570000000000012,-54.2117370108282
-0.2267,-54.26832546282281
-0.22770000000000012,-54.31076680181876
-0.22870000000000001,-54.39564947981066
-0.22970000000000013,-54.43809081880661
-0.23070000000000002,-54.35320814081471
-0.23170000000000013,-54.16929567183226
-0.23270000000000002,-54.16929567183226
-0.23370000000000013,-54.16929567183226
-0.23470000000000002,-54.08441299384035
-0.23570000000000013,-53.999530315848446
-0.23670000000000002,-53.91464763785655
-0.2376999999999999,-53.91464763785655
-0.23870000000000002,-53.91464763785655
-0.2396999999999999,-53.74488228187274
-0.24070000000000003,-53.603411151886235
-0.24169999999999991,-53.603411151886235
-0.24270000000000003,-53.68829382987814
-0.24369999999999992,-53.7873236208687
-0.24470000000000003,-53.68829382987814
-0.24569999999999992,-53.603411151886235
-0.24670000000000003,-53.603411151886235
-0.24769999999999992,-53.56096981289029
-0.24870000000000003,-53.518528473894335
-0.24969999999999992,-53.348763117910536
-0.25070000000000003,-53.22143910092268
-0.2516999999999999,-53.16485064892808
-0.25270000000000004,-53.16485064892808
-0.2536999999999999,-53.22143910092268
-0.25470000000000004,-53.12240930993213
-0.2556999999999999,-52.995085292944275
-0.25670000000000004,-52.91020261495237
-0.25769999999999993,-52.78287859796452
-0.25870000000000004,-52.74043725896857
-0.25969999999999993,-52.64140746797801
-0.26070000000000004,-52.386759434002315
-0.26169999999999993,-52.25943541701445
-0.26270000000000004,-52.30187675601041
-0.26369999999999993,-52.2169940780185
-0.26470000000000005,-52.075522948032
-0.26569999999999994,-51.948198931044146
-0.26670000000000005,-51.86331625305225
-0.26769999999999994,-51.73599223606439
-0.26870000000000005,-51.509638428085985
-0.26969999999999994,-51.17010771611838
-0.27070000000000005,-50.943753908139975
-0.27169999999999994,-50.81642989115212
-0.27270000000000005,-50.73154721316022
-0.27369999999999994,-50.60422319617236
-0.27470000000000006,-50.335428049198
-0.27569999999999995,-50.12322135421825
-0.27670000000000006,-50.0807800152223
-0.27769999999999995,-50.0807800152223
-0.27870000000000006,-50.024191563227696
-0.27969999999999995,-49.89686754623985
-0.28070000000000006,-49.72710219025603
-0.28169999999999995,-49.50074838227763
-0.28270000000000006,-49.373424365289786
-0.28369999999999995,-49.24610034830193
-0.28470000000000006,-49.118776331314066
-0.28569999999999995,-48.93486386233162
-0.28670000000000007,-48.76509850634781
-0.28769999999999996,-48.68021582835591
-0.28870000000000007,-48.59533315036401
-0.28969999999999996,-48.41142068138156
-0.29070000000000007,-48.156772647405845
-0.29169999999999996,-48.029448630417996
-0.29270000000000007,-47.987007291422046
-0.29369999999999996,-47.8879775004315
-0.2947000000000001,-47.67577080545174
-0.29569999999999996,-47.46356411047198
-0.2967000000000001,-47.36453431948143
-0.29769999999999996,-47.32209298048547
-0.2987000000000001,-47.27965164148953
-0.29969999999999997,-47.10988628550572
-0.3007000000000001,-46.982562268517874
-0.30169999999999997,-46.94012092952192
-0.3027000000000001,-46.88353247752732
-0.30369999999999997,-46.713767121543505
-0.3047000000000001,-46.45911908756781
-0.30569999999999997,-46.147882601597495
-0.3067000000000001,-46.02055858460964
-0.3077,-46.02055858460964
-0.3087000000000001,-45.97811724561369
-0.3097,-45.93567590661774
-0.3107000000000001,-45.79420477663124
-0.3117,-45.75176343763528
-0.3127000000000001,-45.75176343763528
-0.3137,-45.666880759643384
-0.3147000000000001,-45.53955674265553
-0.3157,-45.412232725667685
-0.3167000000000001,-45.412232725667685
-0.3177,-45.53955674265553
-0.3187000000000001,-45.53955674265553
-0.3197,-45.45467406466363
-0.3207000000000001,-45.32735004767578
-0.3217,-45.22832025668522
-0.3227000000000001,-45.18587891768927
-0.3237,-45.18587891768927
-0.3247000000000001,-45.143437578693316
-0.3257,-45.143437578693316
-0.3267000000000001,-45.18587891768927
-0.3277,-45.27076159568118
-0.3287000000000001,-45.36979138667173
-0.3297,-45.32735004767578
-0.3307000000000001,-45.27076159568118
-0.3317,-45.27076159568118
-0.3327000000000001,-45.412232725667685
-0.3337,-45.45467406466363
-0.3347000000000001,-45.412232725667685
-0.3357,-45.27076159568118
-0.3367000000000001,-45.32735004767578
-0.3377,-45.36979138667173
-0.3387000000000001,-45.45467406466363
-0.3397,-45.45467406466363
-0.3407000000000001,-45.412232725667685
-0.3417,-45.45467406466363
-0.3427000000000001,-45.497115403659585
-0.3437,-45.581998081651484
-0.3447000000000001,-45.581998081651484
-0.3457,-45.581998081651484
-0.3467000000000001,-45.624439420647434
-0.3477,-45.70932209863933
-0.3487000000000001,-45.75176343763528
-0.3497,-45.79420477663124
-0.3507000000000001,-45.85079322862584
-0.3517,-45.89323456762179
-0.3527000000000001,-46.10544126260155
-0.3537,-46.147882601597495
-0.3547000000000001,-46.062999923605595
-0.3557,-46.19032394059345
-0.35670000000000013,-46.37423640957591
-0.3577,-46.41667774857186
-0.35870000000000013,-46.544001765559706
-0.3597,-46.67132578254756
-0.36070000000000013,-46.544001765559706
-0.3617,-46.544001765559706
-0.3626999999999999,-46.67132578254756
-0.3637,-46.84109113853137
-0.3646999999999999,-46.982562268517874
-0.3657,-47.10988628550572
-0.3666999999999999,-47.40697565847737
-0.3677,-47.71821214444768
-0.3686999999999999,-47.84553616143554
-0.36970000000000003,-47.80309482243959
-0.3706999999999999,-47.67577080545174
-0.37170000000000003,-47.76065348344364
-0.3726999999999999,-47.93041883942744
-0.37370000000000003,-48.114331308409895
-0.3746999999999999,-48.2840966643937
-0.37570000000000003,-48.36897934238561
-0.3766999999999999,-48.51045047237211
-0.37770000000000004,-48.68021582835591
-0.3786999999999999,-48.80753984534376
-0.37970000000000004,-48.84998118433972
-0.3806999999999999,-48.89242252333566
-0.38170000000000004,-48.97730520132757
-0.38269999999999993,-49.16121767031002
-0.38370000000000004,-49.33098302629383
-0.38469999999999993,-49.41586570428573
-0.38570000000000004,-49.41586570428573
-0.38669999999999993,-49.50074838227763
-0.38770000000000004,-49.72710219025603
-0.38869999999999993,-49.89686754623985
-0.38970000000000005,-49.98175022423175
-0.39069999999999994,-50.024191563227696
-0.39170000000000005,-50.0807800152223
-0.39269999999999994,-50.1656626932142
-0.39370000000000005,-50.2505453712061
-0.39469999999999994,-50.335428049198
-0.39570000000000005,-50.42031072718991
-0.39669999999999994,-50.50519340518181
-0.39770000000000005,-50.60422319617236
-0.39869999999999994,-50.73154721316022
-0.39970000000000006,-50.85887123014807
-0.40069999999999995,-50.98619524713592
-0.40170000000000006,-51.25499039411028
-0.40269999999999995,-51.46719708909004
-0.40370000000000006,-51.65110955807249
-0.40469999999999995,-51.69355089706845
-0.40570000000000006,-51.65110955807249
-0.40669999999999995,-51.73599223606439
-0.40770000000000006,-51.82087491405629
-0.40869999999999995,-51.990640270040096
-0.40970000000000006,-52.17455273902255
-0.41069999999999995,-52.17455273902255
-0.41170000000000007,-52.25943541701445
-0.41269999999999996,-52.471642111994214
-0.41370000000000007,-52.59896612898206
-0.41469999999999996,-52.64140746797801
-0.41570000000000007,-52.59896612898206
-0.41669999999999996,-52.55652478998611
-0.41770000000000007,-52.59896612898206
-0.41869999999999996,-52.69799591997262
-0.4197000000000001,-52.69799591997262
-0.42069999999999996,-52.59896612898206
-0.4217000000000001,-52.64140746797801
-0.42269999999999996,-52.82531993696047
-0.4237000000000001,-52.995085292944275
-0.42469999999999997,-52.995085292944275
-0.4257000000000001,-52.995085292944275
-0.42669999999999997,-52.95264395394832
-0.4277000000000001,-52.995085292944275
-0.42869999999999997,-53.12240930993213
-0.4297000000000001,-53.22143910092268
-0.43069999999999997,-53.26388043991864
-0.4317000000000001,-53.30632177891458
-0.4327,-53.39120445690648
-0.4337000000000001,-53.433645795902436
-0.4347,-53.39120445690648
-0.4357000000000001,-53.39120445690648
-0.4367,-53.518528473894335
-0.4377000000000001,-53.68829382987814
-0.4387,-53.74488228187274
-0.4397000000000001,-53.64585249088219
-0.4407,-53.603411151886235
-0.4417000000000001,-53.68829382987814
-0.4427,-53.82976495986464
-0.4437000000000001,-53.9570889768525
-0.4447,-53.9570889768525
-0.4457000000000001,-53.999530315848446
-0.4467,-54.08441299384035
-0.4477000000000001,-54.2117370108282
-0.4487,-54.39564947981066
-0.4497000000000001,-54.56541483579447
-0.4507,-54.69273885278232
-0.4517000000000001,-54.876651321764776
-0.4527,-54.961533999756675
-0.4537000000000001,-55.046416677748574
-0.4547,-55.13129935574048
-0.4557000000000001,-55.31521182472294
-0.4567,-55.527418519702685
-0.4577000000000001,-55.838655005673
-0.4587,-56.1781857176406
-0.4597000000000001,-56.44698086461496
-0.4607,-56.70162889859067
-0.4617000000000001,-57.05530672355693
-0.4627,-57.408984548523186
-0.4637000000000001,-57.70607392149485
-0.4647,-58.05975174646111
-0.4657000000000001,-58.35684111943277
-0.4667,-58.75296028339497
-0.4677000000000001,-59.27640346434504
-0.4687,-59.884729323287
-0.4697000000000001,-60.49305518222897
-0.4707,-61.11552815416958
-0.4717000000000001,-61.89361936909536
-0.4727,-62.77074037501168
-0.4737000000000001,-63.6761556069253
-0.4747,-64.51083527384567
-0.4757000000000001,-65.34551494076604
-0.4767,-66.29337151167562
-0.4777000000000001,-67.39684632557035
-0.4787,-68.57105670445833
-0.4797000000000001,-69.70282574435035
-0.4807,-70.79215344524643
-0.48170000000000013,-72.00880516313036
-0.4827,-73.45181068899271
-0.48370000000000013,-74.89481621485504
-0.4847,-76.33782174071737
-0.48570000000000013,-77.80912149257702
-0.4867,-78.33256467352709
-0.48570000000000013,-77.42714944161345
-0.4847,-76.9037062606634
-0.48370000000000013,-76.55002843569714
-0.4827,-76.33782174071737
-0.48170000000000013,-76.15390927173492
-0.4807,-76.11146793273898
-0.4797000000000001,-76.02658525474708
-0.4787,-75.98414391575112
-0.4777000000000001,-76.02658525474708
-0.4767,-76.11146793273898
-0.4757000000000001,-76.29538040172143
-0.4747,-76.38026307971333
-0.4737000000000001,-76.46514575770523
-0.4727,-76.50758709670117
-0.4717000000000001,-76.5924697746931
-0.4707,-76.7622351306769
-0.4697000000000001,-76.86126492166746
-0.4687,-76.94614759965934
-0.4677000000000001,-76.98858893865528
-0.4667,-77.03103027765125
-0.4657000000000001,-77.11591295564315
-0.4647,-77.20079563363505
-0.4637000000000001,-77.243236972631
-0.4627,-77.243236972631
-0.4617000000000001,-77.20079563363505
