Potential V vs RHE, Current mA cm-2
0.013299999999999867,0.5211796428702795
0.012299999999999978,-1.3543031273607997
0.011299999999999866,-2.924208256821031
0.010299999999999976,-4.3205283097878215
0.009299999999999864,-5.5414241615713475
0.008299999999999974,-6.54445447317566
0.007299999999999862,-7.50504344578402
0.006299999999999972,-8.332649556205066
0.00529999999999986,-9.11781432763016
0.0042999999999999705,-9.85912304875944
0.0032999999999998586,-10.601846481188586
0.0022999999999999687,-11.343155202317865
0.0012999999999998568,-11.996751822855511
0.00029999999999996696,-12.651763154693022
-0.000700000000000145,-13.30535977523067
-0.0017000000000000348,-13.828802956180734
-0.0027000000000001467,-14.345172580631472
-0.0037000000000000366,-14.783733083589633
-0.0047000000000001485,-15.179852247551842
-0.005700000000000038,-15.533530072518102
-0.00670000000000015,-15.87306078448571
-0.00770000000000004,-16.141855931460068
-0.008700000000000152,-16.495533756426326
-0.009700000000000042,-16.792623129397985
-0.010700000000000154,-17.146300954364243
-0.011700000000000044,-17.48583166633185
-0.012700000000000156,-17.839509491298113
-0.013700000000000045,-18.19318731626437
-0.014700000000000157,-18.49027668923603
-0.015700000000000047,-18.759071836210385
-0.01670000000000016,-19.01371987018609
-0.01770000000000005,-19.197632339168546
-0.01870000000000016,-19.367397695152352
-0.01970000000000005,-19.537163051136158
-0.020700000000000163,-19.636192842126707
-0.021700000000000053,-19.848399537106463
-0.022700000000000164,-20.01816489309027
-0.023700000000000054,-20.202077362072725
-0.024700000000000166,-20.456725396048434
-0.025700000000000056,-20.683079204026836
-0.026700000000000168,-20.93772723800254
-0.027700000000000058,-21.149933932982297
-0.02870000000000017,-21.376287740960702
-0.02970000000000006,-21.58849443594046
-0.03070000000000017,-21.729965565926964
-0.03170000000000006,-21.814848243918867
-0.03270000000000017,-21.94217226090672
-0.03370000000000006,-21.98461359990267
-0.034700000000000175,-22.111937616890522
-0.035700000000000065,-22.253408746877028
-0.03670000000000018,-22.38073276386488
-0.03770000000000007,-22.592939458844636
-0.03870000000000018,-22.776851927827092
-0.03970000000000007,-22.989058622806844
-0.04070000000000018,-23.24370665678255
-0.04170000000000007,-23.427619125765005
-0.04270000000000018,-23.597384481748815
-0.04370000000000007,-23.724708498736668
-0.044700000000000184,-23.767149837732617
-0.045700000000000074,-23.908620967719123
-0.046700000000000186,-23.993503645711023
-0.047700000000000076,-24.078386323702922
-0.04870000000000019,-24.20571034069078
-0.04970000000000008,-24.290593018682678
-0.05070000000000019,-24.474505487665134
-0.05170000000000008,-24.729153521640843
-0.05270000000000019,-24.95550732961925
-0.05370000000000008,-25.167714024599
-0.05470000000000019,-25.337479380582806
-0.05570000000000008,-25.521391849565262
-0.056700000000000195,-25.648715866553115
-0.057700000000000085,-25.77603988354097
-0.058700000000000196,-25.86092256153287
-0.059700000000000086,-26.002393691519377
-0.0607000000000002,-26.002393691519377
-0.06170000000000009,-26.17215904750318
-0.0627000000000002,-26.29948306449103
-0.06370000000000009,-26.440954194477534
-0.0647000000000002,-26.65316088945729
-0.06570000000000009,-26.86536758443705
-0.0667000000000002,-27.049280053419505
-0.0677000000000001,-27.261486748399253
-0.0687000000000002,-27.38881076538711
-0.0697000000000001,-27.572723234369565
-0.07070000000000021,-27.700047251357418
-0.0717000000000001,-27.742488590353368
-0.07270000000000021,-27.78492992934932
-0.0737000000000001,-27.869812607341224
-0.07470000000000021,-27.912253946337174
-0.0757000000000001,-28.05372507632368
-0.07670000000000021,-28.13860775431558
-0.0777000000000001,-28.350814449295335
-0.07870000000000021,-28.478138466283188
-0.0797000000000001,-28.662050935265643
-0.08070000000000022,-28.8742576302454
-0.0817000000000001,-29.058170099227848
-0.08270000000000022,-29.18549411621571
-0.08370000000000011,-29.31281813320356
-0.08470000000000022,-29.35525947219951
-0.08570000000000011,-29.440142150191413
-0.08670000000000022,-29.525024828183312
-0.08770000000000011,-29.581613280177915
-0.08870000000000022,-29.66649595816982
-0.08970000000000011,-29.751378636161718
-0.09070000000000022,-29.921143992145527
-0.09170000000000011,-30.10505646112798
-0.09270000000000023,-30.274821817111786
-0.09370000000000012,-30.487028512091538
-0.09470000000000023,-30.614352529079397
-0.09570000000000012,-30.79826499806185
-0.09670000000000023,-30.925589015049702
-0.09770000000000012,-31.010471693041605
-0.09870000000000023,-31.095354371033505
-0.09970000000000012,-31.137795710029454
-0.10070000000000023,-31.19438416202406
-0.10170000000000012,-31.27926684001596
-0.10270000000000024,-31.36414951800786
-0.10370000000000013,-31.49147353499572
-0.10470000000000024,-31.661238890979522
-0.10570000000000013,-31.802710020966025
-0.10670000000000024,-31.972475376949827
-0.10770000000000013,-32.184682071929586
-0.10870000000000024,-32.32615320191609
-0.10970000000000013,-32.45347721890394
-0.11070000000000024,-32.53835989689585
-0.11170000000000013,-32.53835989689585
-0.11270000000000002,-32.58080123589179
-0.11370000000000013,-32.62324257488775
-0.11470000000000002,-32.66568391388369
-0.11570000000000014,-32.764713704874254
-0.11670000000000003,-32.892037721862096
-0.11770000000000014,-32.97692039985401
-0.11870000000000003,-33.14668575583781
-0.11970000000000014,-33.330598224820264
-0.12070000000000003,-33.54280491980002
-0.12170000000000014,-33.627687597791926
-0.12270000000000003,-33.81160006677438
-0.12370000000000014,-33.85404140577033
-0.12470000000000003,-33.89648274476628
-0.12570000000000014,-33.93892408376223
-0.12670000000000003,-33.98136542275818
-0.12770000000000015,-33.98136542275818
-0.12870000000000004,-34.10868943974604
-0.12970000000000015,-34.10868943974604
-0.13070000000000004,-34.236013456733886
-0.13170000000000015,-34.377484586720385
-0.13270000000000004,-34.5472499427042
-0.13370000000000015,-34.717015298688004
-0.13470000000000004,-34.8018979766799
-0.13570000000000015,-34.94336910666641
-0.13670000000000004,-35.02825178465831
-0.13770000000000016,-35.07069312365426
-0.13870000000000005,-35.11313446265021
-0.13970000000000016,-35.07069312365426
-0.14070000000000005,-35.07069312365426
-0.14170000000000016,-35.11313446265021
-0.14270000000000005,-35.15557580164616
-0.14370000000000016,-35.240458479638065
-0.14470000000000005,-35.38192960962457
-0.14570000000000016,-35.50925362661242
-0.14670000000000005,-35.594136304604326
-0.14770000000000016,-35.721460321592176
-0.14870000000000005,-35.763901660588125
-0.14970000000000017,-35.848784338580025
-0.15070000000000006,-35.90537279057463
-0.15170000000000017,-35.848784338580025
-0.15270000000000006,-35.848784338580025
-0.15370000000000017,-35.806342999584075
-0.15470000000000006,-35.806342999584075
-0.15570000000000017,-35.806342999584075
-0.15670000000000006,-35.848784338580025
-0.15770000000000017,-35.99025546856653
-0.15870000000000006,-36.07513814655844
-0.15970000000000018,-36.11757948555439
-0.16070000000000007,-36.244903502542236
-0.16170000000000018,-36.28734484153819
-0.16270000000000007,-36.37222751953009
-0.16370000000000018,-36.37222751953009
-0.16470000000000007,-36.37222751953009
-0.16570000000000018,-36.329786180534136
-0.16670000000000007,-36.329786180534136
-0.16770000000000018,-36.244903502542236
-0.16870000000000007,-36.244903502542236
-0.16970000000000018,-36.244903502542236
-0.17070000000000007,-36.28734484153819
-0.17170000000000019,-36.37222751953009
-0.17270000000000008,-36.47125731052064
-0.1737000000000002,-36.55613998851254
-0.17470000000000008,-36.5985813275085
-0.1757000000000002,-36.5985813275085
-0.17670000000000008,-36.5985813275085
-0.1777000000000002,-36.5985813275085
-0.17870000000000008,-36.55613998851254
-0.1797000000000002,-36.5136986495166
-0.18070000000000008,-36.4288159715247
-0.1817000000000002,-36.4288159715247
-0.18270000000000008,-36.37222751953009
-0.1837000000000002,-36.4288159715247
-0.1847000000000001,-36.5136986495166
-0.1857000000000002,-36.55613998851254
-0.1867000000000001,-36.64102266650445
-0.1877000000000002,-36.725905344496354
-0.1887000000000001,-36.725905344496354
-0.1897000000000002,-36.81078802248826
-0.1907000000000001,-36.81078802248826
-0.1917000000000001,-36.725905344496354
-0.19269999999999998,-36.6834640055004
-0.1937000000000001,-36.5985813275085
-0.19469999999999998,-36.55613998851254
-0.1957000000000001,-36.55613998851254
-0.19669999999999999,-36.55613998851254
-0.1977000000000001,-36.5985813275085
-0.1987,-36.64102266650445
-0.1997000000000001,-36.6834640055004
-0.2007,-36.81078802248826
-0.2017000000000001,-36.8532293614842
-0.2027,-36.89567070048016
-0.2037000000000001,-36.8532293614842
-0.2047,-36.768346683492304
-0.2057000000000001,-36.725905344496354
-0.2067,-36.64102266650445
-0.2077000000000001,-36.5985813275085
-0.2087,-36.55613998851254
-0.2097000000000001,-36.5136986495166
-0.2107,-36.55613998851254
-0.2117000000000001,-36.5985813275085
-0.2127,-36.6834640055004
-0.2137000000000001,-36.725905344496354
-0.2147,-36.768346683492304
-0.2157000000000001,-36.8532293614842
-0.2167,-36.8532293614842
-0.21770000000000012,-36.81078802248826
-0.2187,-36.768346683492304
-0.21970000000000012,-36.6834640055004
-0.2207,-36.5985813275085
-0.22170000000000012,-36.55613998851254
-0.2227,-36.5985813275085
-0.22370000000000012,-36.5985813275085
-0.2247,-36.6834640055004
-0.22570000000000012,-36.725905344496354
-0.2267,-36.81078802248826
-0.22770000000000012,-36.89567070048016
-0.22870000000000001,-36.95225915247476
-0.22970000000000013,-36.95225915247476
-0.23070000000000002,-36.99470049147071
-0.23170000000000013,-36.95225915247476
-0.23270000000000002,-36.8532293614842
-0.23370000000000013,-36.81078802248826
-0.23470000000000002,-36.81078802248826
-0.23570000000000013,-36.81078802248826
-0.23670000000000002,-36.81078802248826
-0.2376999999999999,-36.8532293614842
-0.23870000000000002,-36.95225915247476
-0.2396999999999999,-37.037141830466666
-0.24070000000000003,-37.164465847454515
-0.24169999999999991,-37.206907186450465
-0.24270000000000003,-37.291789864442364
-0.24369999999999992,-37.291789864442364
-0.24470000000000003,-37.291789864442364
-0.24569999999999992,-37.291789864442364
-0.24670000000000003,-37.291789864442364
-0.24769999999999992,-37.249348525446415
-0.24870000000000003,-37.249348525446415
-0.24969999999999992,-37.291789864442364
-0.25070000000000003,-37.376672542434264
-0.2516999999999999,-37.51814367242077
-0.25270000000000004,-37.645467689408626
-0.2536999999999999,-37.81523304539243
-0.25470000000000004,-37.90011572338433
-0.2556999999999999,-38.04158685337084
-0.25670000000000004,-38.08402819236679
-0.25769999999999993,-38.12646953136274
-0.25870000000000004,-38.16891087035869
-0.25969999999999993,-38.16891087035869
-0.26070000000000004,-38.16891087035869
-0.26169999999999993,-38.211352209354644
-0.26270000000000004,-38.253793548350586
-0.26369999999999993,-38.38111756533845
-0.26470000000000005,-38.5650300343209
-0.26569999999999994,-38.692354051308754
-0.26670000000000005,-38.86211940729255
-0.26769999999999994,-39.046031876275016
-0.26870000000000005,-39.130914554266916
-0.26969999999999994,-39.258238571254765
-0.27070000000000005,-39.30067991025072
-0.27169999999999994,-39.34312124924667
-0.27270000000000005,-39.38556258824262
-0.27369999999999994,-39.38556258824262
-0.27470000000000006,-39.47044526623452
-0.27569999999999995,-39.51288660523048
-0.27670000000000006,-39.654357735216976
-0.27769999999999995,-39.82412309120078
-0.27870000000000006,-39.95144710818864
-0.27969999999999995,-40.135359577171094
-0.28070000000000006,-40.3900076111468
-0.28169999999999995,-40.4748902891387
-0.28270000000000006,-40.616361419125205
-0.28369999999999995,-40.701244097117105
-0.28470000000000006,-40.78612677510901
-0.28569999999999995,-40.828568114104954
-0.28670000000000007,-40.95589213109281
-0.28769999999999996,-40.99833347008877
-0.28870000000000007,-41.083216148080666
-0.28969999999999996,-41.22468727806717
-0.29070000000000007,-41.352011295055014
-0.29169999999999996,-41.56421799003478
-0.29270000000000007,-41.79057179801318
-0.29369999999999996,-42.00277849299294
-0.2947000000000001,-42.2715736399673
-0.29569999999999996,-42.483780334947056
-0.2967000000000001,-42.653545690930855
-0.29769999999999996,-42.837458159913304
-0.2987000000000001,-43.04966485489307
-0.29969999999999997,-43.27601866287147
-0.3007000000000001,-43.40334267985933
-0.30169999999999997,-43.61554937483908
-0.3027000000000001,-43.84190318281749
-0.30369999999999997,-44.054109877797245
-0.3047000000000001,-44.28046368577565
-0.30569999999999997,-44.535111719751356
-0.3067000000000001,-44.74731841473111
-0.3077,-45.05855490070142
-0.3087000000000001,-45.27076159568118
-0.3097,-45.53955674265553
-0.3107000000000001,-45.70932209863933
-0.3117,-45.89323456762179
-0.3127000000000001,-46.062999923605595
-0.3137,-46.19032394059345
-0.3147000000000001,-46.45911908756781
-0.3157,-46.67132578254756
-0.3167000000000001,-46.94012092952192
-0.3177,-47.23721030249357
-0.3187000000000001,-47.590888127459834
-0.3197,-47.8879775004315
-0.3207000000000001,-48.2840966643937
-0.3217,-48.59533315036401
-0.3227000000000001,-48.93486386233162
-0.3237,-49.20365900930597
-0.3247000000000001,-49.458307043281685
-0.3257,-49.72710219025603
-0.3267000000000001,-50.024191563227696
-0.3277,-50.2505453712061
-0.3287000000000001,-50.547634744177756
-0.3297,-50.81642989115212
-0.3307000000000001,-51.17010771611838
-0.3317,-51.55207976708194
-0.3327000000000001,-51.948198931044146
-0.3337,-52.386759434002315
-0.3347000000000001,-52.78287859796452
-0.3357,-53.12240930993213
-0.3367000000000001,-53.518528473894335
-0.3377,-53.7873236208687
-0.3387000000000001,-54.08441299384035
-0.3397,-54.39564947981066
-0.3407000000000001,-54.65029751378637
-0.3417,-54.961533999756675
-0.3427000000000001,-55.31521182472294
-0.3437,-55.73962521468245
-0.3447000000000001,-56.13574437864466
-0.3457,-56.57430488160282
-0.3467000000000001,-57.012865384560975
-0.3477,-57.493867226515086
-0.3487000000000001,-57.93242772947325
-0.3497,-58.35684111943277
-0.3507000000000001,-58.75296028339497
-0.3517,-59.10663810836124
-0.3527000000000001,-59.44616882032884
-0.3537,-59.7998466452951
-0.3547000000000001,-60.23840714825326
-0.3557,-60.67696765121143
-0.35670000000000013,-61.11552815416958
-0.3577,-61.5965299961237
-0.35870000000000013,-62.06338472507916
-0.3597,-62.58682790602922
-0.36070000000000013,-63.20930087796983
-0.3617,-63.732744058919906
-0.3626999999999999,-64.25618723986996
-0.3637,-64.72304196882543
-0.3646999999999999,-65.20404381077954
-0.3657,-65.68504565273366
-0.3666999999999999,-66.16604749468777
-0.3677,-66.64704933664189
-0.3686999999999999,-67.128051178596
-0.36970000000000003,-67.65149435954605
-0.3706999999999999,-68.25982021848802
-0.37170000000000003,-68.91058741642594
-0.3726999999999999,-69.53306038836655
-0.37370000000000003,-70.18382758630447
-0.3746999999999999,-70.74971210625048
-0.37570000000000003,-71.35803796519245
-0.3766999999999999,-71.92392248513846
-0.37770000000000004,-72.48980700508447
-0.3786999999999999,-73.0556915250305
-0.37970000000000004,-73.62157604497652
-0.3806999999999999,-74.14501922592657
-0.38170000000000004,-74.76749219786718
-0.38269999999999993,-75.37581805680915
-0.38370000000000004,-75.98414391575112
-0.38469999999999993,-76.67735245268499
-0.38570000000000004,-77.34226676362155
-0.38669999999999993,-76.63491111368903
-0.38570000000000004,-73.72060583596706
-0.38469999999999993,-71.18827260920865
-0.38370000000000004,-68.96717586842054
-0.38269999999999993,-66.77437335362974
-0.38170000000000004,-64.82207175981598
-0.3806999999999999,-62.94050573099548
-0.37970000000000004,-61.20041083216149
-0.3786999999999999,-59.6300812893113
-0.37770000000000004,-58.05975174646111
-0.3766999999999999,-56.57430488160282
-0.37570000000000003,-55.17374069473642
-0.3746999999999999,-53.872206298860604
-0.37370000000000003,-52.59896612898206
-0.3726999999999999,-51.424755750094086
-0.37170000000000003,-50.20810403221015
-0.3706999999999999,-49.076334992318124
-0.36970000000000003,-47.80309482243959
-0.3686999999999999,-46.628884443551605
-0.3677,-45.412232725667685
-0.3666999999999999,-44.28046368577565
-0.3657,-43.134547532884966
-0.3646999999999999,-42.087661170984845
-0.3637,-40.99833347008877
-0.3626999999999999,-40.03632978618054
-0.3617,-39.130914554266916
-0.36070000000000013,-38.253793548350586
-0.3597,-37.376672542434264
-0.35870000000000013,-36.47125731052064
-0.3577,-35.594136304604326
-0.35670000000000013,-34.632132620696105
-0.3557,-33.670128936787876
-0.3547000000000001,-32.764713704874254
-0.3537,-31.802710020966025
-0.3527000000000001,-30.88314767605375
-0.3517,-29.96358533114148
-0.3507000000000001,-29.058170099227848
-0.3497,-28.308373110299385
-0.3487000000000001,-27.530281895373616
-0.3477,-26.738043567449193
-0.3467000000000001,-26.044835030515326
-0.3457,-25.252596702590903
-0.3447000000000001,-24.516946826661083
-0.3437,-23.767149837732617
-0.3427000000000001,-22.989058622806844
-0.3417,-22.196820294882425
-0.3407000000000001,-21.418729079956652
-0.3397,-20.584049413036283
-0.3387000000000001,-19.848399537106463
-0.3377,-19.112749661176647
-0.3367000000000001,-18.362952672248177
-0.3357,-17.71218547431026
-0.3347000000000001,-17.061418276372343
-0.3337,-16.438945304431726
-0.3327000000000001,-15.87306078448571
-0.3317,-15.222293586547794
-0.3307000000000001,-14.61396772760583
-0.3297,-13.916515056772363
-0.3287000000000001,-13.217647674639037
-0.3277,-12.520195003805576
-0.3267000000000001,-11.86659838326793
-0.3257,-11.1677310011346
-0.3247000000000001,-10.514134380596953
-0.3237,-9.902979099055257
-0.3227000000000001,-9.335679867809377
-0.3217,-8.769795347863363
-0.3207000000000001,-8.288793505909249
-0.3197,-7.7653503249591855
-0.3187000000000001,-7.243321855308987
-0.3177,-6.6760226240631075
-0.3167000000000001,-6.108723392817228
-0.3157,-5.5414241615713475
-0.3147000000000001,-4.974124930325469
-0.3137,-4.364384360083638
-0.3127000000000001,-3.7093730282461257
-0.3117,-3.1859298472960624
-0.3107000000000001,-2.618630616050183
-0.3097,-2.1390434853959355
-0.3087000000000001,-1.7033124050375041
-0.3077,-1.2671569112891135
-0.3067000000000001,-0.8308599464107361
-0.30569999999999997,-0.3947044526623452
-0.3047000000000001,0.08502414912188871
-0.30369999999999997,0.5211796428702795
-0.3027000000000001,1.0010497157844997
-0.30169999999999997,1.5250587812545096
-0.3007000000000001,2.048501962204573
-0.29969999999999997,2.5705304318547717
-0.2987000000000001,3.0515322738088844
-0.29769999999999996,3.5311194044631313
-0.2967000000000001,3.922994434525747
-0.29569999999999996,4.316284175888227
-0.2947000000000001,4.708159205950842
-0.29369999999999996,5.057592897017507
-0.29270000000000007,5.3631705377883545
-0.29169999999999996,5.7111895175551535
-0.29070000000000007,6.060623208621817
-0.28969999999999996,6.540210339276065
-0.28870000000000007,6.933500080638546
-0.28769999999999996,7.369231160996977
-0.28670000000000007,7.804962241355407
-0.28569999999999995,8.242108033013702
-0.28470000000000006,8.63398306307632
-0.28369999999999995,9.025858093138934
-0.28270000000000006,9.331435733909782
-0.28169999999999995,9.63701337468063
-0.28070000000000006,9.942591015451477
-0.27969999999999995,10.20431260592651
-0.27870000000000006,10.509890246697358
-0.27769999999999995,10.815467887468206
-0.27670000000000006,11.163486867235004
-0.27569999999999995,11.51292055830167
-0.27470000000000006,11.862354249368334
-0.27369999999999994,12.254229279430946
-0.27270000000000005,12.646104309493563
-0.27169999999999994,12.95168195026441
-0.27070000000000005,13.344971691626892
-0.26969999999999994,13.562837231806107
-0.26870000000000005,13.780702771985322
-0.26769999999999994,13.998568312164537
-0.26670000000000005,14.26028990263957
-0.26569999999999994,14.472496597619326
-0.26470000000000005,14.69885040559773
