Potential V vs RHE, Current mA cm-2
0.013299999999999867,0.6956135461436386
0.012299999999999978,-1.1798692240874404
0.011299999999999866,-2.662486666345999
0.010299999999999976,-3.927238568425342
0.009299999999999864,-4.9302688800296535
0.008299999999999974,-5.80314575204638
0.007299999999999862,-6.588310523471475
0.006299999999999972,-7.28576319430494
0.00529999999999986,-7.984630576438266
0.0042999999999999705,-8.638227196975913
0.0032999999999998586,-9.293238528813426
0.0022999999999999687,-9.902979099055257
0.0012999999999998568,-10.470278330301136
0.00029999999999996696,-10.906009410659568
-0.000700000000000145,-11.299299152022046
-0.0017000000000000348,-11.604876792792895
-0.0027000000000001467,-11.86659838326793
-0.0037000000000000366,-12.170761312738911
-0.0047000000000001485,-12.476338953509758
-0.005700000000000038,-12.825772644576423
-0.00670000000000015,-13.175206335643086
-0.00770000000000004,-13.567081365705702
-0.008700000000000152,-13.872659006476551
-0.009700000000000042,-14.13438059695158
-0.010700000000000154,-14.345172580631472
-0.011700000000000044,-14.486643710617974
-0.012700000000000156,-14.57152638860988
-0.013700000000000045,-14.741291744593681
-0.014700000000000157,-14.925204213576137
-0.015700000000000047,-15.179852247551842
-0.01670000000000016,-15.448647394526201
-0.01770000000000005,-15.70329542850191
-0.01870000000000016,-15.91550212348166
-0.01970000000000005,-16.141855931460068
-0.020700000000000163,-16.22673860945197
-0.021700000000000053,-16.311621287443874
-0.022700000000000164,-16.396503965435777
-0.023700000000000054,-16.53797509542228
-0.024700000000000166,-16.665299112410132
-0.025700000000000056,-16.835064468393938
-0.026700000000000168,-17.061418276372343
-0.027700000000000058,-17.316066310348052
-0.02870000000000017,-17.48583166633185
-0.02970000000000006,-17.669744135314307
-0.03070000000000017,-17.75462681330621
-0.03170000000000006,-17.797068152302163
-0.03270000000000017,-17.839509491298113
-0.03370000000000006,-17.966833508285966
-0.034700000000000175,-18.06586329927652
-0.035700000000000065,-18.23562865526032
-0.03670000000000018,-18.44783535024008
-0.03770000000000007,-18.674189158218486
-0.03870000000000018,-18.843954514202288
-0.03970000000000007,-18.97127853119014
-0.04070000000000018,-19.056161209182044
-0.04170000000000007,-19.112749661176647
-0.04270000000000018,-19.112749661176647
-0.04370000000000007,-19.197632339168546
-0.044700000000000184,-19.3249563561564
-0.045700000000000074,-19.49472171214021
-0.046700000000000186,-19.678634181122664
-0.047700000000000076,-19.890840876102416
-0.04870000000000019,-20.06060623208622
-0.04970000000000008,-20.244518701068674
-0.05070000000000019,-20.329401379060574
-0.05170000000000008,-20.371842718056527
-0.05270000000000019,-20.371842718056527
-0.05370000000000008,-20.456725396048434
-0.05470000000000019,-20.584049413036283
-0.05570000000000008,-20.76796188201874
-0.056700000000000195,-20.980168576998494
-0.057700000000000085,-21.2065223849769
-0.058700000000000196,-21.376287740960702
-0.059700000000000086,-21.54605309694451
-0.0607000000000002,-21.63093577493641
-0.06170000000000009,-21.67337711393236
-0.0627000000000002,-21.729965565926964
-0.06370000000000009,-21.814848243918867
-0.0647000000000002,-21.899730921910766
-0.06570000000000009,-22.111937616890522
-0.0667000000000002,-22.253408746877028
-0.0677000000000001,-22.508056780852733
-0.0687000000000002,-22.67782213683654
-0.0697000000000001,-22.819293266823045
-0.07070000000000021,-22.861734605818995
-0.0717000000000001,-22.904175944814945
-0.07270000000000021,-22.904175944814945
-0.0737000000000001,-22.989058622806844
-0.07470000000000021,-23.073941300798747
-0.0757000000000001,-23.24370665678255
-0.07670000000000021,-23.427619125765005
-0.0777000000000001,-23.639825820744765
-0.07870000000000021,-23.823738289727217
-0.0797000000000001,-23.951062306715073
-0.08070000000000022,-23.993503645711023
-0.0817000000000001,-24.035944984706973
-0.08270000000000022,-24.035944984706973
-0.08370000000000011,-24.120827662698876
-0.08470000000000022,-24.16326900169483
-0.08570000000000011,-24.34718147067728
-0.08670000000000022,-24.559388165657033
-0.08770000000000011,-24.729153521640843
-0.08870000000000022,-24.9130659906233
-0.08970000000000011,-25.04039000761115
-0.09070000000000022,-25.0828313466071
-0.09170000000000011,-25.12527268560305
-0.09270000000000023,-25.0828313466071
-0.09370000000000012,-25.167714024599
-0.09470000000000023,-25.252596702590903
-0.09570000000000012,-25.43650917157336
-0.09670000000000023,-25.60627452755716
-0.09770000000000012,-25.77603988354097
-0.09870000000000023,-25.959952352523427
-0.09970000000000012,-26.087276369511276
-0.10070000000000023,-26.129717708507226
-0.10170000000000012,-26.17215904750318
-0.10270000000000024,-26.17215904750318
-0.10370000000000013,-26.21460038649913
-0.10470000000000024,-26.29948306449103
-0.10570000000000013,-26.483395533473487
-0.10670000000000024,-26.65316088945729
-0.10770000000000013,-26.907808923433
-0.10870000000000024,-27.00683871442355
-0.10970000000000013,-27.134162731411404
-0.11070000000000024,-27.219045409403304
-0.11170000000000013,-27.219045409403304
-0.11270000000000002,-27.219045409403304
-0.11370000000000013,-27.261486748399253
-0.11470000000000002,-27.303928087395207
-0.11570000000000014,-27.43125210438306
-0.11670000000000003,-27.615164573365515
-0.11770000000000014,-27.78492992934932
-0.11870000000000003,-27.869812607341224
-0.11970000000000014,-28.011283737327723
-0.12070000000000003,-28.011283737327723
-0.12170000000000014,-28.011283737327723
-0.12270000000000003,-27.954695285333123
-0.12370000000000014,-28.011283737327723
-0.12470000000000003,-28.011283737327723
-0.12570000000000014,-28.13860775431558
-0.12670000000000003,-28.308373110299385
-0.12770000000000015,-28.435697127287238
-0.12870000000000004,-28.53472691827779
-0.12970000000000015,-28.619609596269694
-0.13070000000000004,-28.619609596269694
-0.13170000000000015,-28.577168257273744
-0.13270000000000004,-28.53472691827779
-0.13370000000000015,-28.53472691827779
-0.13470000000000004,-28.577168257273744
-0.13570000000000015,-28.662050935265643
-0.13670000000000004,-28.789374952253496
-0.13770000000000016,-28.91669896924135
-0.13870000000000005,-29.001581647233255
-0.13970000000000016,-29.058170099227848
-0.14070000000000005,-29.058170099227848
-0.14170000000000016,-29.001581647233255
-0.14270000000000005,-28.959140308237306
-0.14370000000000016,-28.959140308237306
-0.14470000000000005,-28.959140308237306
-0.14570000000000016,-29.100611438223805
-0.14670000000000005,-29.18549411621571
-0.14770000000000016,-29.31281813320356
-0.14870000000000005,-29.39770081119546
-0.14970000000000017,-29.482583489187363
-0.15070000000000006,-29.440142150191413
-0.15170000000000017,-29.39770081119546
-0.15270000000000006,-29.31281813320356
-0.15370000000000017,-29.31281813320356
-0.15470000000000006,-29.31281813320356
-0.15570000000000017,-29.39770081119546
-0.15670000000000006,-29.482583489187363
-0.15770000000000017,-29.62405461917387
-0.15870000000000006,-29.708937297165768
-0.15970000000000018,-29.708937297165768
-0.16070000000000007,-29.66649595816982
-0.16170000000000018,-29.62405461917387
-0.16270000000000007,-29.525024828183312
-0.16370000000000018,-29.525024828183312
-0.16470000000000007,-29.482583489187363
-0.16570000000000018,-29.525024828183312
-0.16670000000000007,-29.62405461917387
-0.16770000000000018,-29.751378636161718
-0.16870000000000007,-29.751378636161718
-0.16970000000000018,-29.793819975157668
-0.17070000000000007,-29.708937297165768
-0.17170000000000019,-29.62405461917387
-0.17270000000000008,-29.482583489187363
-0.1737000000000002,-29.440142150191413
-0.17470000000000008,-29.440142150191413
-0.1757000000000002,-29.482583489187363
-0.17670000000000008,-29.525024828183312
-0.1777000000000002,-29.66649595816982
-0.17870000000000008,-29.66649595816982
-0.1797000000000002,-29.66649595816982
-0.18070000000000008,-29.62405461917387
-0.1817000000000002,-29.482583489187363
-0.18270000000000008,-29.39770081119546
-0.1837000000000002,-29.35525947219951
-0.1847000000000001,-29.35525947219951
-0.1857000000000002,-29.35525947219951
-0.1867000000000001,-29.39770081119546
-0.1877000000000002,-29.482583489187363
-0.1887000000000001,-29.525024828183312
-0.1897000000000002,-29.525024828183312
-0.1907000000000001,-29.482583489187363
-0.1917000000000001,-29.35525947219951
-0.19269999999999998,-29.27037679420761
-0.1937000000000001,-29.18549411621571
-0.19469999999999998,-29.14305277721976
-0.1957000000000001,-29.22793545521166
-0.19669999999999999,-29.27037679420761
-0.1977000000000001,-29.35525947219951
-0.1987,-29.39770081119546
-0.1997000000000001,-29.440142150191413
-0.2007,-29.39770081119546
-0.2017000000000001,-29.31281813320356
-0.2027,-29.22793545521166
-0.2037000000000001,-29.18549411621571
-0.2047,-29.14305277721976
-0.2057000000000001,-29.22793545521166
-0.2067,-29.31281813320356
-0.2077000000000001,-29.39770081119546
-0.2087,-29.440142150191413
-0.2097000000000001,-29.482583489187363
-0.2107,-29.440142150191413
-0.2117000000000001,-29.39770081119546
-0.2127,-29.27037679420761
-0.2137000000000001,-29.27037679420761
-0.2147,-29.22793545521166
-0.2157000000000001,-29.31281813320356
-0.2167,-29.39770081119546
-0.21770000000000012,-29.482583489187363
-0.2187,-29.482583489187363
-0.21970000000000012,-29.525024828183312
-0.2207,-29.440142150191413
-0.22170000000000012,-29.35525947219951
-0.2227,-29.27037679420761
-0.22370000000000012,-29.22793545521166
-0.2247,-29.22793545521166
-0.22570000000000012,-29.27037679420761
-0.2267,-29.35525947219951
-0.22770000000000012,-29.440142150191413
-0.22870000000000001,-29.525024828183312
-0.22970000000000013,-29.581613280177915
-0.23070000000000002,-29.525024828183312
-0.23170000000000013,-29.482583489187363
-0.23270000000000002,-29.39770081119546
-0.23370000000000013,-29.39770081119546
-0.23470000000000002,-29.35525947219951
-0.23570000000000013,-29.440142150191413
-0.23670000000000002,-29.525024828183312
-0.2376999999999999,-29.66649595816982
-0.23870000000000002,-29.708937297165768
-0.2396999999999999,-29.751378636161718
-0.24070000000000003,-29.751378636161718
-0.24169999999999991,-29.708937297165768
-0.24270000000000003,-29.62405461917387
-0.24369999999999992,-29.62405461917387
-0.24470000000000003,-29.62405461917387
-0.24569999999999992,-29.751378636161718
-0.24670000000000003,-29.878702653149578
-0.24769999999999992,-30.00602667013743
-0.24870000000000003,-30.10505646112798
-0.24969999999999992,-30.189939139119886
-0.25070000000000003,-30.189939139119886
-0.2516999999999999,-30.189939139119886
-0.25270000000000004,-30.147497800123933
-0.2536999999999999,-30.189939139119886
-0.25470000000000004,-30.232380478115836
-0.2556999999999999,-30.317263156107735
-0.25670000000000004,-30.487028512091538
-0.25769999999999993,-30.670940981073993
-0.25870000000000004,-30.7558236590659
-0.25969999999999993,-30.88314767605375
-0.26070000000000004,-30.968030354045652
-0.26169999999999993,-31.010471693041605
-0.26270000000000004,-31.010471693041605
-0.26369999999999993,-31.095354371033505
-0.26470000000000005,-31.19438416202406
-0.26569999999999994,-31.36414951800786
-0.26670000000000005,-31.57635621298762
-0.26769999999999994,-31.76026868197007
-0.26870000000000005,-31.887592698957924
-0.26969999999999994,-32.01491671594578
-0.27070000000000005,-32.05735805494172
-0.27169999999999994,-32.05735805494172
-0.27270000000000005,-32.05735805494172
-0.27369999999999994,-32.09979939393769
-0.27470000000000006,-32.14224073293363
-0.27569999999999995,-32.368594540912035
-0.27670000000000006,-32.53835989689585
-0.27769999999999995,-32.764713704874254
-0.27870000000000006,-32.93447906085806
-0.27969999999999995,-33.06180307784591
-0.28070000000000006,-33.14668575583781
-0.28169999999999995,-33.18912709483376
-0.28270000000000006,-33.18912709483376
-0.28369999999999995,-33.330598224820264
-0.28470000000000006,-33.41548090281216
-0.28569999999999995,-33.58524625879597
-0.28670000000000007,-33.85404140577033
-0.28769999999999996,-34.06624810075008
-0.28870000000000007,-34.236013456733886
-0.28969999999999996,-34.41992592571634
-0.29070000000000007,-34.5472499427042
-0.29169999999999996,-34.67457395969205
-0.29270000000000007,-34.75945663768395
-0.29369999999999996,-34.90092776767045
-0.2947000000000001,-35.07069312365426
-0.29569999999999996,-35.32534115762997
-0.2967000000000001,-35.636577643600276
-0.29769999999999996,-35.94781412957058
-0.2987000000000001,-36.20246216354629
-0.29969999999999997,-36.4288159715247
-0.3007000000000001,-36.5985813275085
-0.30169999999999997,-36.6834640055004
-0.3027000000000001,-36.81078802248826
-0.30369999999999997,-36.99470049147071
-0.3047000000000001,-37.206907186450465
-0.30569999999999997,-37.51814367242077
-0.3067000000000001,-37.85767438438838
-0.3077,-38.211352209354644
-0.3087000000000001,-38.46600024333035
-0.3097,-38.734795390304704
-0.3107000000000001,-38.94700208528445
-0.3117,-39.130914554266916
-0.3127000000000001,-39.258238571254765
-0.3137,-39.47044526623452
-0.3147000000000001,-39.696799074212926
-0.3157,-39.99388844718459
-0.3167000000000001,-40.34756627215084
-0.3177,-40.743685436113054
-0.3187000000000001,-41.083216148080666
-0.3197,-41.39445263405098
-0.3207000000000001,-41.606659329030734
-0.3217,-41.87545447600508
-0.3227000000000001,-42.04521983198889
-0.3237,-42.2715736399673
-0.3247000000000001,-42.526221673943
-0.3257,-42.87989949890926
-0.3267000000000001,-43.27601866287147
-0.3277,-43.70043205283099
-0.3287000000000001,-44.096551216793195
-0.3297,-44.45022904175945
-0.3307000000000001,-44.74731841473111
-0.3317,-45.05855490070142
-0.3327000000000001,-45.27076159568118
-0.3337,-45.666880759643384
-0.3347000000000001,-46.02055858460964
-0.3357,-46.41667774857186
-0.3367000000000001,-46.88353247752732
-0.3377,-47.36453431948143
-0.3387000000000001,-47.76065348344364
-0.3397,-48.1992139864018
-0.3407000000000001,-48.55289181136806
-0.3417,-48.89242252333566
-0.3427000000000001,-49.16121767031002
-0.3437,-49.557336834272235
-0.3447000000000001,-49.939308885235796
-0.3457,-50.42031072718991
-0.3467000000000001,-50.90131256914402
-0.3477,-51.46719708909004
-0.3487000000000001,-51.948198931044146
-0.3497,-52.42920077299826
-0.3507000000000001,-52.86776127595642
-0.3517,-53.22143910092268
-0.3527000000000001,-53.603411151886235
-0.3537,-54.08441299384035
-0.3547000000000001,-54.56541483579447
-0.3557,-55.13129935574048
-0.35670000000000013,-55.6971838756865
-0.3577,-56.30550973462846
-0.35870000000000013,-56.88554136757313
-0.3597,-57.408984548523186
-0.36070000000000013,-57.87583927747865
-0.3617,-58.27195844144086
-0.3626999999999999,-58.71051894439902
-0.3637,-59.19152078635314
-0.3646999999999999,-59.67252262830725
-0.3657,-60.28084848724921
-0.3666999999999999,-60.84673300719523
-0.3677,-61.49750020513315
-0.3686999999999999,-62.02094338608321
-0.36970000000000003,-62.58682790602922
-0.3706999999999999,-63.06782974798333
-0.37170000000000003,-63.54883158993744
-0.3726999999999999,-63.98739209289561
-0.37370000000000003,-64.55327661284163
-0.3746999999999999,-65.11916113278764
-0.37570000000000003,-65.76992833072556
-0.3766999999999999,-66.47728398065809
-0.37770000000000004,-67.17049251759194
-0.3786999999999999,-67.82125971552985
-0.37970000000000004,-68.48617402646643
-0.3806999999999999,-69.0944998854084
-0.38170000000000004,-69.6603844053544
-0.38269999999999993,-70.18382758630447
-0.38370000000000004,-70.79215344524643
-0.38469999999999993,-71.4004793041884
-0.38570000000000004,-72.15027629311687
-0.38669999999999993,-71.52780332117625
-0.38570000000000004,-68.78326339943808
-0.38469999999999993,-66.43484264166212
-0.38370000000000004,-64.34106991786187
-0.38269999999999993,-62.37462121104946
-0.38170000000000004,-60.59208497321952
-0.3806999999999999,-58.880284300382826
-0.37970000000000004,-57.352396096528594
-0.3786999999999999,-55.9235376836649
-0.37770000000000004,-54.60785617479041
-0.3766999999999999,-53.433645795902436
-0.37570000000000003,-52.30187675601041
-0.3746999999999999,-51.127666377122424
-0.37370000000000003,-50.024191563227696
-0.3726999999999999,-48.84998118433972
-0.37170000000000003,-47.71821214444768
-0.3706999999999999,-46.544001765559706
-0.36970000000000003,-45.45467406466363
-0.3686999999999999,-44.4077877027635
-0.3677,-43.44578401885527
-0.3666999999999999,-42.568663012938956
-0.3657,-41.70568912002128
-0.3646999999999999,-40.78612677510901
-0.3637,-39.90900576919269
-0.3626999999999999,-38.94700208528445
-0.3617,-37.94255706238028
-0.36070000000000013,-36.95225915247476
-0.3597,-36.03269680756248
-0.35870000000000013,-35.15557580164616
-0.3577,-34.33504324772444
-0.35670000000000013,-33.54280491980002
-0.3557,-32.807155043870196
-0.3547000000000001,-32.01491671594578
-0.3537,-31.19438416202406
-0.3527000000000001,-30.317263156107735
-0.3517,-29.440142150191413
-0.3507000000000001,-28.53472691827779
-0.3497,-27.742488590353368
-0.3487000000000001,-26.9643973754276
-0.3477,-26.21460038649913
-0.3467000000000001,-25.563833188561212
-0.3457,-24.95550732961925
-0.3447000000000001,-24.24815167968673
-0.3437,-23.55494314275286
-0.3427000000000001,-22.776851927827092
-0.3417,-21.98461359990267
-0.3407000000000001,-21.2065223849769
-0.3397,-20.456725396048434
-0.3387000000000001,-19.805958198110513
-0.3377,-19.197632339168546
-0.3367000000000001,-18.589306480226583
-0.3357,-18.06586329927652
-0.3347000000000001,-17.4433903273359
-0.3337,-16.835064468393938
-0.3327000000000001,-16.184297270456018
-0.3317,-15.491088733522153
-0.3307000000000001,-14.783733083589633
-0.3297,-14.175407224647667
-0.3287000000000001,-13.567081365705702
-0.3277,-13.043638184755638
-0.3267000000000001,-12.520195003805576
-0.3257,-12.084463923447142
-0.3247000000000001,-11.517164692201263
-0.3237,-10.993721511251199
-0.3227000000000001,-10.382566229709504
-0.3217,-9.772825659467674
-0.3207000000000001,-9.161670377925978
-0.3197,-8.594371146680096
-0.3187000000000001,-8.027071915434218
-0.3177,-7.5474847847799715
-0.3167000000000001,-7.111753704421539
-0.3157,-6.719878674358924
-0.3147000000000001,-6.282732882700628
-0.3137,-5.80314575204638
-0.3127000000000001,-5.279702571096316
-0.3117,-4.712403339850438
-0.3107000000000001,-4.102662769608606
-0.3097,-3.623075638954359
-0.3087000000000001,-3.1420737970002466
-0.3077,-2.7501987669376318
-0.3067000000000001,-2.4007650758709675
-0.30569999999999997,-2.052746096104168
-0.3047000000000001,-1.6594563547416883
-0.30369999999999997,-1.2234423321232837
-0.3027000000000001,-0.7437137303390498
-0.30169999999999997,-0.2202705493889862
-0.3007000000000001,0.3031726315610774
-0.29969999999999997,0.7393281253094681
-0.2987000000000001,1.1317690398920295
-0.29769999999999996,1.4812027309586933
-0.2967000000000001,1.7867803717295414
-0.29569999999999996,2.0909433012005243
-0.2947000000000001,2.4403769922671885
-0.29369999999999996,2.7898106833338523
-0.29270000000000007,3.1816857133964676
-0.29169999999999996,3.6174167937548987
-0.29070000000000007,4.098418635709011
-0.28969999999999996,4.490293665771627
-0.28870000000000007,4.883583407134107
-0.28769999999999996,5.145304997609139
-0.28670000000000007,5.405611876784305
-0.28569999999999995,5.624892128263387
-0.28470000000000006,5.929055057734368
-0.28369999999999995,6.1907766482094
-0.28270000000000006,6.540210339276065
-0.28169999999999995,6.933500080638546
-0.28070000000000006,7.369231160996977
-0.27969999999999995,7.7186648520636405
-0.27870000000000006,8.022827781534623
-0.27769999999999995,8.284549372009655
-0.27670000000000006,8.459973573192919
-0.27569999999999995,8.677839113372134
-0.27470000000000006,8.89570465355135
-0.27369999999999994,9.157426244026382
-0.27270000000000005,9.506859935093045
-0.27169999999999994,9.811022864564029
-0.27070000000000005,10.20431260592651
-0.26969999999999994,10.509890246697358
-0.26870000000000005,10.771611837172388
-0.26769999999999994,10.989477377351605
-0.26670000000000005,11.163486867235004
-0.26569999999999994,11.33891106841827
