Potential V vs RHE, Current mA cm-2
0.013299999999999867,-0.1330535977523067
0.012299999999999978,-1.3107300193249565
0.011299999999999866,-2.095187435100119
0.010299999999999976,-2.8379108675292635
0.009299999999999864,-3.579219588658543
0.008299999999999974,-4.23281620919619
0.007299999999999862,-4.626105950558669
0.006299999999999972,-4.756259390146253
0.00529999999999986,-4.800115440442069
0.0042999999999999705,-4.887827541033701
0.0032999999999998586,-5.235846520800501
0.0022999999999999687,-5.5414241615713475
0.0012999999999998568,-5.847001802342197
0.00029999999999996696,-5.9347139029338285
-0.000700000000000145,-5.890857852638012
-0.0017000000000000348,-5.759289701750564
-0.0027000000000001467,-5.80314575204638
-0.0037000000000000366,-6.064867342521412
-0.0047000000000001485,-6.37044498329226
-0.005700000000000038,-6.500598422879844
-0.00670000000000015,-6.458157083883892
-0.00770000000000004,-6.37044498329226
-0.008700000000000152,-6.282732882700628
-0.009700000000000042,-6.326588932996443
-0.010700000000000154,-6.54445447317566
-0.011700000000000044,-6.850032113946507
-0.012700000000000156,-6.93774421453814
-0.013700000000000045,-6.850032113946507
-0.014700000000000157,-6.632166573767292
-0.015700000000000047,-6.588310523471475
-0.01670000000000016,-6.762320013354876
-0.01770000000000005,-6.981600264833956
-0.01870000000000016,-7.199465805013171
-0.01970000000000005,-7.243321855308987
-0.020700000000000163,-7.024041603829907
-0.021700000000000053,-6.850032113946507
-0.022700000000000164,-6.850032113946507
-0.023700000000000054,-7.067897654125724
-0.024700000000000166,-7.28576319430494
-0.025700000000000056,-7.4173313451923875
-0.026700000000000168,-7.329619244600755
-0.027700000000000058,-7.199465805013171
-0.02870000000000017,-7.024041603829907
-0.02970000000000006,-7.067897654125724
-0.03070000000000017,-7.329619244600755
-0.03170000000000006,-7.5474847847799715
-0.03270000000000017,-7.635196885371603
-0.03370000000000006,-7.50504344578402
-0.034700000000000175,-7.28576319430494
-0.035700000000000065,-7.243321855308987
-0.03670000000000018,-7.37347529489657
-0.03770000000000007,-7.591340835075788
-0.03870000000000018,-7.7653503249591855
-0.03970000000000007,-7.809206375255003
-0.04070000000000018,-7.635196885371603
-0.04170000000000007,-7.4173313451923875
-0.04270000000000018,-7.4173313451923875
-0.04370000000000007,-7.591340835075788
-0.044700000000000184,-7.809206375255003
-0.045700000000000074,-7.940774526142452
-0.046700000000000186,-7.853062425550818
-0.047700000000000076,-7.679052935667419
-0.04870000000000019,-7.591340835075788
-0.04970000000000008,-7.591340835075788
-0.05070000000000019,-7.809206375255003
-0.05170000000000008,-8.070927965730034
-0.05270000000000019,-8.11478401602585
-0.05370000000000008,-7.940774526142452
-0.05470000000000019,-7.7653503249591855
-0.05570000000000008,-7.679052935667419
-0.056700000000000195,-7.809206375255003
-0.057700000000000085,-8.027071915434218
-0.058700000000000196,-8.202496116617484
-0.059700000000000086,-8.202496116617484
-0.0607000000000002,-8.027071915434218
-0.06170000000000009,-7.853062425550818
-0.0627000000000002,-7.853062425550818
-0.06370000000000009,-8.027071915434218
-0.0647000000000002,-8.246352166913299
-0.06570000000000009,-8.376505606500881
-0.0667000000000002,-8.288793505909249
-0.0677000000000001,-8.158640066321666
-0.0687000000000002,-7.984630576438266
-0.0697000000000001,-8.027071915434218
-0.07070000000000021,-8.246352166913299
-0.0717000000000001,-8.464217707092514
-0.07270000000000021,-8.508073757388331
-0.0737000000000001,-8.376505606500881
-0.07470000000000021,-8.158640066321666
-0.0757000000000001,-8.070927965730034
-0.07670000000000021,-8.202496116617484
-0.0777000000000001,-8.4203616567967
-0.07870000000000021,-8.594371146680096
-0.0797000000000001,-8.638227196975913
-0.08070000000000022,-8.4203616567967
-0.0817000000000001,-8.246352166913299
-0.08270000000000022,-8.246352166913299
-0.08370000000000011,-8.4203616567967
-0.08470000000000022,-8.638227196975913
-0.08570000000000011,-8.769795347863363
-0.08670000000000022,-8.68208324727173
-0.08770000000000011,-8.55051509638428
-0.08870000000000022,-8.4203616567967
-0.08970000000000011,-8.4203616567967
-0.09070000000000022,-8.638227196975913
-0.09170000000000011,-8.899948787450944
-0.09270000000000023,-8.987660888042578
-0.09370000000000012,-8.812236686859313
-0.09470000000000023,-8.638227196975913
-0.09570000000000012,-8.55051509638428
-0.09670000000000023,-8.68208324727173
-0.09770000000000012,-8.899948787450944
-0.09870000000000023,-9.073958277334345
-0.09970000000000012,-9.073958277334345
-0.10070000000000023,-8.899948787450944
-0.10170000000000012,-8.725939297567548
-0.10270000000000024,-8.725939297567548
-0.10370000000000013,-8.899948787450944
-0.10470000000000024,-9.11781432763016
-0.10570000000000013,-9.24938247851761
-0.10670000000000024,-9.161670377925978
-0.10770000000000013,-9.031516938338395
-0.10870000000000024,-8.899948787450944
-0.10970000000000013,-8.943804837746763
-0.11070000000000024,-9.11781432763016
-0.11170000000000013,-9.379535918105192
-0.11270000000000002,-9.423391968401008
-0.11370000000000013,-9.335679867809377
-0.11470000000000002,-9.073958277334345
-0.11570000000000014,-9.031516938338395
-0.11670000000000003,-9.161670377925978
-0.11770000000000014,-9.335679867809377
-0.11870000000000003,-9.55496011928846
-0.11970000000000014,-9.55496011928846
-0.12070000000000003,-9.379535918105192
-0.12170000000000014,-9.205526428221793
-0.12270000000000003,-9.205526428221793
-0.12370000000000014,-9.423391968401008
-0.12470000000000003,-9.641257508580225
-0.12570000000000014,-9.81668170976349
-0.12670000000000003,-9.685113558876042
-0.12770000000000015,-9.55496011928846
-0.12870000000000004,-9.423391968401008
-0.12970000000000015,-9.423391968401008
-0.13070000000000004,-9.641257508580225
-0.13170000000000015,-9.902979099055257
-0.13270000000000004,-9.946835149351072
-0.13370000000000015,-9.81668170976349
-0.13470000000000004,-9.641257508580225
-0.13570000000000015,-9.55496011928846
-0.13670000000000004,-9.685113558876042
-0.13770000000000016,-9.902979099055257
-0.13870000000000005,-10.120844639234473
-0.13970000000000016,-10.164700689530287
-0.14070000000000005,-9.99069119964689
-0.14170000000000016,-9.81668170976349
-0.14270000000000005,-9.81668170976349
-0.14370000000000016,-9.99069119964689
-0.14470000000000005,-10.296268840417738
-0.14570000000000016,-10.382566229709504
-0.14670000000000005,-10.296268840417738
-0.14770000000000016,-10.164700689530287
-0.14870000000000005,-10.078403300238522
-0.14970000000000017,-10.120844639234473
-0.15070000000000006,-10.340124890713554
-0.15170000000000017,-10.601846481188586
-0.15270000000000006,-10.644287820184536
-0.15370000000000017,-10.514134380596953
-0.15470000000000006,-10.296268840417738
-0.15570000000000017,-10.25241279012192
-0.15670000000000006,-10.382566229709504
-0.15770000000000017,-10.644287820184536
-0.15870000000000006,-10.819712021367803
-0.15970000000000018,-10.863568071663616
-0.16070000000000007,-10.731999920776168
-0.16170000000000018,-10.514134380596953
-0.16270000000000007,-10.557990430892769
-0.16370000000000018,-10.731999920776168
-0.16470000000000007,-11.037577561547016
-0.16570000000000018,-11.1677310011346
-0.16670000000000007,-11.123874950838783
-0.16770000000000018,-10.949865460955383
-0.16870000000000007,-10.863568071663616
-0.16970000000000018,-10.906009410659568
-0.17070000000000007,-11.123874950838783
-0.17170000000000019,-11.42945259160963
-0.17270000000000008,-11.473308641905447
-0.1737000000000002,-11.385596541313816
-0.17470000000000008,-11.211587051430415
-0.1757000000000002,-11.123874950838783
-0.17670000000000008,-11.299299152022046
-0.1777000000000002,-11.517164692201263
-0.17870000000000008,-11.691174182084664
-0.1797000000000002,-11.73503023238048
-0.18070000000000008,-11.604876792792895
-0.1817000000000002,-11.473308641905447
-0.18270000000000008,-11.473308641905447
-0.1837000000000002,-11.691174182084664
-0.1847000000000001,-11.952895772559694
-0.1857000000000002,-12.12831997374296
-0.1867000000000001,-12.084463923447142
-0.1877000000000002,-11.952895772559694
-0.1887000000000001,-11.82274233297211
-0.1897000000000002,-11.909039722263879
-0.1907000000000001,-12.170761312738911
-0.1917000000000001,-12.432482903213943
-0.19269999999999998,-12.56405105410139
-0.1937000000000001,-12.432482903213943
-0.19469999999999998,-12.258473413330542
-0.1957000000000001,-12.214617363034726
-0.19669999999999999,-12.390041564217992
-0.1977000000000001,-12.607907104397206
-0.1987,-12.825772644576423
-0.1997000000000001,-12.869628694872238
-0.2007,-12.781916594280606
-0.2017000000000001,-12.651763154693022
-0.2027,-12.651763154693022
-0.2037000000000001,-12.869628694872238
-0.2047,-13.175206335643086
-0.2057000000000001,-13.349215825526485
-0.2067,-13.30535977523067
-0.2077000000000001,-13.175206335643086
-0.2087,-13.13135028534727
-0.2097000000000001,-13.217647674639037
-0.2107,-13.47936926511407
-0.2117000000000001,-13.784946905884919
-0.2127,-13.872659006476551
-0.2137000000000001,-13.784946905884919
-0.2147,-13.654793466297335
-0.2157000000000001,-13.654793466297335
-0.2167,-13.784946905884919
-0.21770000000000012,-14.046668496359947
-0.2187,-14.26028990263957
-0.21970000000000012,-14.345172580631472
-0.2207,-14.26028990263957
-0.22170000000000012,-14.13438059695158
-0.2227,-14.175407224647667
-0.22370000000000012,-14.401761032626075
-0.2247,-14.741291744593681
-0.22570000000000012,-14.925204213576137
-0.2267,-14.868615761581536
-0.22770000000000012,-14.783733083589633
-0.22870000000000001,-14.741291744593681
-0.22970000000000013,-14.826174422585586
-0.23070000000000002,-15.094969569559943
-0.23170000000000013,-15.448647394526201
-0.23270000000000002,-15.533530072518102
-0.23370000000000013,-15.491088733522153
-0.23470000000000002,-15.349617603535648
-0.23570000000000013,-15.307176264539699
-0.23670000000000002,-15.533530072518102
-0.2376999999999999,-15.74573676749786
-0.23870000000000002,-16.056973253468165
-0.2396999999999999,-16.099414592464115
-0.24070000000000003,-16.056973253468165
-0.24169999999999991,-15.91550212348166
-0.24270000000000003,-15.972090575476265
-0.24369999999999992,-16.269179948447924
-0.24470000000000003,-16.580416434418233
-0.24569999999999992,-16.750181790402035
-0.24670000000000003,-16.750181790402035
-0.24769999999999992,-16.70774045140608
-0.24870000000000003,-16.622857773414182
-0.24969999999999992,-16.750181790402035
-0.25070000000000003,-17.061418276372343
-0.2516999999999999,-17.358507649344002
-0.25270000000000004,-17.542420118326454
-0.2536999999999999,-17.4433903273359
-0.25470000000000004,-17.358507649344002
-0.2556999999999999,-17.316066310348052
-0.25670000000000004,-17.542420118326454
-0.25769999999999993,-17.797068152302163
-0.25870000000000004,-18.009274847281915
-0.25969999999999993,-18.15074597726842
-0.26070000000000004,-18.06586329927652
-0.26169999999999993,-17.966833508285966
-0.26270000000000004,-18.06586329927652
-0.26369999999999993,-18.320511333252224
-0.26470000000000005,-18.674189158218486
-0.26569999999999994,-18.88639585319824
-0.26670000000000005,-18.92883719219419
-0.26769999999999994,-18.843954514202288
-0.26870000000000005,-18.80151317520634
-0.26969999999999994,-18.92883719219419
-0.27070000000000005,-19.28251501716045
-0.27169999999999994,-19.579604390132108
-0.27270000000000005,-19.763516859114564
-0.27369999999999994,-19.763516859114564
-0.27470000000000006,-19.579604390132108
-0.27569999999999995,-19.636192842126707
-0.27670000000000006,-19.848399537106463
-0.27769999999999995,-20.159636023076775
-0.27870000000000006,-20.414284057052477
-0.27969999999999995,-20.541608074040333
-0.28070000000000006,-20.499166735044383
-0.28169999999999995,-20.456725396048434
-0.28270000000000006,-20.541608074040333
-0.28369999999999995,-20.85284456001064
-0.28470000000000006,-21.248963723972853
-0.28569999999999995,-21.461170418952605
-0.28670000000000007,-21.54605309694451
-0.28769999999999996,-21.503611757948562
-0.28870000000000007,-21.54605309694451
-0.28969999999999996,-21.729965565926964
-0.29070000000000007,-22.027054938898623
-0.29169999999999996,-22.46561544185678
-0.29270000000000007,-22.63538079784059
-0.29369999999999996,-22.63538079784059
-0.2947000000000001,-22.592939458844636
-0.29569999999999996,-22.63538079784059
-0.2967000000000001,-22.904175944814945
-0.29769999999999996,-23.24370665678255
-0.2987000000000001,-23.597384481748815
-0.29969999999999997,-23.767149837732617
-0.3007000000000001,-23.823738289727217
-0.30169999999999997,-23.767149837732617
-0.3027000000000001,-23.951062306715073
-0.30369999999999997,-24.34718147067728
-0.3047000000000001,-24.771594860636792
-0.30569999999999997,-25.0828313466071
-0.3067000000000001,-25.210155363594954
-0.3077,-25.295038041586857
-0.3087000000000001,-25.337479380582806
-0.3097,-25.60627452755716
-0.3107000000000001,-26.002393691519377
-0.3117,-26.38436574248293
-0.3127000000000001,-26.65316088945729
-0.3137,-26.738043567449193
-0.3147000000000001,-26.738043567449193
-0.3157,-26.907808923433
-0.3167000000000001,-27.261486748399253
-0.3177,-27.700047251357418
-0.3187000000000001,-28.13860775431558
-0.3197,-28.393255788291288
-0.3207000000000001,-28.478138466283188
-0.3217,-28.577168257273744
-0.3227000000000001,-28.789374952253496
-0.3237,-29.22793545521166
-0.3247000000000001,-29.751378636161718
-0.3257,-30.10505646112798
-0.3267000000000001,-30.317263156107735
-0.3277,-30.402145834099635
-0.3287000000000001,-30.487028512091538
-0.3297,-30.7558236590659
-0.3307000000000001,-31.23682550102001
-0.3317,-31.76026868197007
-0.3327000000000001,-32.09979939393769
-0.3337,-32.283711862920136
-0.3347000000000001,-32.41103587990799
-0.3357,-32.62324257488775
-0.3367000000000001,-33.01936173884996
-0.3377,-33.54280491980002
-0.3387000000000001,-34.06624810075008
-0.3397,-34.41992592571634
-0.3407000000000001,-34.58969128170015
-0.3417,-34.75945663768395
-0.3427000000000001,-35.11313446265021
-0.3437,-35.636577643600276
-0.3447000000000001,-36.20246216354629
-0.3457,-36.64102266650445
-0.3467000000000001,-36.89567070048016
-0.3477,-37.037141830466666
-0.3487000000000001,-37.206907186450465
-0.3497,-37.60302635041268
-0.3507000000000001,-38.12646953136274
-0.3517,-38.692354051308754
-0.3527000000000001,-39.130914554266916
-0.3537,-39.34312124924667
-0.3547000000000001,-39.56947505722508
-0.3557,-39.86656443019674
-0.35670000000000013,-40.34756627215084
-0.3577,-40.95589213109281
-0.35870000000000013,-41.56421799003478
-0.3597,-42.00277849299294
-0.36070000000000013,-42.2715736399673
-0.3617,-42.483780334947056
-0.3626999999999999,-42.87989949890926
-0.3637,-43.48822535785123
-0.3646999999999999,-44.181433894785094
-0.3657,-44.80390686672572
-0.3666999999999999,-45.143437578693316
-0.3677,-45.45467406466363
-0.3686999999999999,-45.75176343763528
-0.36970000000000003,-46.19032394059345
-0.3706999999999999,-46.79864979953541
-0.37170000000000003,-47.46356411047198
-0.3726999999999999,-47.93041883942744
-0.37370000000000003,-48.24165532539775
-0.3746999999999999,-48.51045047237211
-0.37570000000000003,-48.84998118433972
-0.3766999999999999,-49.458307043281685
-0.37770000000000004,-50.12322135421825
-0.3786999999999999,-50.77398855215617
-0.37970000000000004,-51.33987307210218
-0.3806999999999999,-51.69355089706845
-0.38170000000000004,-52.033081609036046
-0.38269999999999993,-52.55652478998611
-0.38370000000000004,-53.22143910092268
-0.38469999999999993,-53.9570889768525
-0.38570000000000004,-54.60785617479041
-0.38669999999999993,-53.872206298860604
-0.38570000000000004,-51.33987307210218
-0.38469999999999993,-49.50074838227763
-0.38370000000000004,-48.156772647405845
-0.38269999999999993,-47.15232762450167
-0.38170000000000004,-46.37423640957591
-0.3806999999999999,-45.45467406466363
-0.37970000000000004,-44.4926703807554
-0.3786999999999999,-43.48822535785123
-0.37770000000000004,-42.653545690930855
-0.3766999999999999,-42.04521983198889
-0.37570000000000003,-41.56421799003478
-0.3746999999999999,-41.04077480908471
-0.37370000000000003,-40.43244895014274
-0.3726999999999999,-39.61191639622103
-0.37170000000000003,-38.734795390304704
-0.3706999999999999,-38.08402819236679
-0.36970000000000003,-37.56058501141672
-0.3686999999999999,-37.122024508458566
-0.3677,-36.64102266650445
-0.3666999999999999,-35.90537279057463
-0.3657,-35.11313446265021
-0.3646999999999999,-34.377484586720385
-0.3637,-33.755011614779775
-0.3626999999999999,-33.373039563816214
-0.3617,-33.01936173884996
-0.36070000000000013,-32.53835989689585
-0.3597,-31.84515135996197
-0.35870000000000013,-31.095354371033505
-0.3577,-30.487028512091538
-0.35670000000000013,-30.10505646112798
-0.3557,-29.751378636161718
-0.3547000000000001,-29.39770081119546
-0.3537,-28.91669896924135
-0.3527000000000001,-28.265931771303435
-0.3517,-27.572723234369565
-0.3507000000000001,-27.049280053419505
-0.3497,-26.780484906445146
-0.3487000000000001,-26.483395533473487
-0.3477,-26.129717708507226
-0.3467000000000001,-25.563833188561212
-0.3457,-24.870624651627345
-0.3447000000000001,-24.20571034069078
-0.3437,-23.767149837732617
-0.3427000000000001,-23.51250180375691
-0.3417,-23.300295108777156
-0.3407000000000001,-22.904175944814945
-0.3397,-22.33829142486893
-0.3387000000000001,-21.729965565926964
-0.3377,-21.2065223849769
-0.3367000000000001,-20.89528589900659
-0.3357,-20.683079204026836
-0.3347000000000001,-20.456725396048434
-0.3337,-20.06060623208622
-0.3327000000000001,-19.537163051136158
-0.3317,-18.92883719219419
-0.3307000000000001,-18.53271802823198
-0.3297,-18.27806999425627
-0.3287000000000001,-18.15074597726842
-0.3277,-17.839509491298113
-0.3267000000000001,-17.40094898833995
-0.3257,-16.835064468393938
-0.3247000000000001,-16.311621287443874
-0.3237,-15.972090575476265
-0.3227000000000001,-15.78817810649381
-0.3217,-15.660854089505953
-0.3207000000000001,-15.3920589425316
-0.3197,-14.868615761581536
-0.3187000000000001,-14.345172580631472
-0.3177,-13.916515056772363
-0.3167000000000001,-13.741090855589102
-0.3157,-13.567081365705702
-0.3147000000000001,-13.47936926511407
-0.3137,-13.13135028534727
-0.3127000000000001,-12.651763154693022
-0.3117,-12.12831997374296
-0.3107000000000001,-11.82274233297211
-0.3097,-11.691174182084664
-0.3087000000000001,-11.604876792792895
-0.3077,-11.42945259160963
-0.3067000000000001,-10.993721511251199
-0.30569999999999997,-10.514134380596953
-0.3047000000000001,-10.078403300238522
-0.30369999999999997,-9.81668170976349
-0.3027000000000001,-9.685113558876042
-0.30169999999999997,-9.685113558876042
-0.3007000000000001,-9.423391968401008
-0.29969999999999997,-9.031516938338395
-0.2987000000000001,-8.55051509638428
-0.29769999999999996,-8.202496116617484
-0.2967000000000001,-8.070927965730034
-0.29569999999999996,-8.027071915434218
-0.2947000000000001,-7.940774526142452
-0.29369999999999996,-7.679052935667419
-0.29270000000000007,-7.28576319430494
-0.29169999999999996,-6.850032113946507
-0.29070000000000007,-6.588310523471475
-0.28969999999999996,-6.500598422879844
-0.28870000000000007,-6.458157083883892
-0.28769999999999996,-6.37044498329226
-0.28670000000000007,-6.021011292225596
-0.28569999999999995,-5.629136262162981
-0.28470000000000006,-5.235846520800501
-0.28369999999999995,-5.0618370309171015
-0.28270000000000006,-5.017980980621284
-0.28169999999999995,-5.017980980621284
-0.28070000000000006,-4.843971490737885
-0.27969999999999995,-4.494537799671222
-0.27870000000000006,-4.0588067193127895
-0.27769999999999995,-3.7532290785419424
-0.27670000000000006,-3.6655169779503103
-0.27569999999999995,-3.6655169779503103
-0.27470000000000006,-3.6655169779503103
-0.27369999999999994,-3.4915074880669104
-0.27270000000000005,-3.0996324580042955
-0.27169999999999994,-2.7501987669376318
-0.27070000000000005,-2.4884771764625997
-0.26969999999999994,-2.4884771764625997
-0.26870000000000005,-2.532333226758415
-0.26769999999999994,-2.4446211261667834
-0.26670000000000005,-2.1390434853959355
-0.26569999999999994,-1.7910245056291363
