Apr. 17, 2025   03:14:10
Cyclic Voltammetry
File: c:/users/guazh/data/banditlqround7_x0exp590_r20/2025-04-16-exp1104\exp1104-2025-04-17t03_00_42-arkoh\exp1104_cv_sr_100mvs_efin_-1600mv.bin
Data Source:  Experiment
Instrument Model:  CHI760E
Header: CV ran at 100 mVs
Note: 

Init E (V) = -1
High E (V) = -1
Low E (V) = -1.6
Final E (V) = -1
Init P/N = N
Scan Rate (V/s) = 0.1
Segment = 3
Sample Interval (V) = 0.001
Quiet Time (sec) = 2
Sensitivity (A/V) = 0.01
Comp R (ohm) = 1.5

Results:

Channel 1:
Segment 1:

Segment 2:

Segment 3:

Potential/V, Current/A

-1.000, 5.720e-6
-1.001, 1.121e-5
-1.002, 1.037e-5
-1.003, 1.153e-5
-1.004, 1.286e-5
-1.005, 1.146e-5
-1.006, 1.400e-5
-1.007, 1.255e-5
-1.008, 1.358e-5
-1.009, 1.437e-5
-1.010, 1.322e-5
-1.011, 1.556e-5
-1.012, 1.387e-5
-1.013, 1.483e-5
-1.014, 1.582e-5
-1.015, 1.426e-5
-1.016, 1.643e-5
-1.017, 1.474e-5
-1.018, 1.619e-5
-1.019, 1.670e-5
-1.020, 1.508e-5
-1.021, 1.746e-5
-1.022, 1.558e-5
-1.023, 1.676e-5
-1.024, 1.760e-5
-1.025, 1.588e-5
-1.026, 1.818e-5
-1.027, 1.659e-5
-1.028, 1.727e-5
-1.029, 1.809e-5
-1.030, 1.634e-5
-1.031, 1.890e-5
-1.032, 1.708e-5
-1.033, 1.804e-5
-1.034, 1.869e-5
-1.035, 1.689e-5
-1.036, 1.934e-5
-1.037, 1.774e-5
-1.038, 1.855e-5
-1.039, 1.947e-5
-1.040, 1.736e-5
-1.041, 2.004e-5
-1.042, 1.834e-5
-1.043, 1.905e-5
-1.044, 1.979e-5
-1.045, 1.796e-5
-1.046, 2.041e-5
-1.047, 1.868e-5
-1.048, 1.951e-5
-1.049, 2.029e-5
-1.050, 1.861e-5
-1.051, 2.079e-5
-1.052, 1.920e-5
-1.053, 2.009e-5
-1.054, 2.088e-5
-1.055, 1.889e-5
-1.056, 2.120e-5
-1.057, 1.968e-5
-1.058, 2.046e-5
-1.059, 2.116e-5
-1.060, 1.931e-5
-1.061, 2.183e-5
-1.062, 1.998e-5
-1.063, 2.089e-5
-1.064, 2.173e-5
-1.065, 1.952e-5
-1.066, 2.220e-5
-1.067, 2.033e-5
-1.068, 2.098e-5
-1.069, 2.204e-5
-1.070, 2.011e-5
-1.071, 2.256e-5
-1.072, 2.073e-5
-1.073, 2.146e-5
-1.074, 2.242e-5
-1.075, 2.053e-5
-1.076, 2.285e-5
-1.077, 2.134e-5
-1.078, 2.202e-5
-1.079, 2.270e-5
-1.080, 2.078e-5
-1.081, 2.317e-5
-1.082, 2.158e-5
-1.083, 2.231e-5
-1.084, 2.313e-5
-1.085, 2.115e-5
-1.086, 2.357e-5
-1.087, 2.197e-5
-1.088, 2.257e-5
-1.089, 2.331e-5
-1.090, 2.164e-5
-1.091, 2.388e-5
-1.092, 2.208e-5
-1.093, 2.286e-5
-1.094, 2.383e-5
-1.095, 2.184e-5
-1.096, 2.413e-5
-1.097, 2.254e-5
-1.098, 2.314e-5
-1.099, 2.392e-5
-1.100, 2.198e-5
-1.101, 2.457e-5
-1.102, 2.301e-5
-1.103, 2.334e-5
-1.104, 2.431e-5
-1.105, 2.232e-5
-1.106, 2.497e-5
-1.107, 2.315e-5
-1.108, 2.397e-5
-1.109, 2.476e-5
-1.110, 2.254e-5
-1.111, 2.509e-5
-1.112, 2.354e-5
-1.113, 2.408e-5
-1.114, 2.505e-5
-1.115, 2.304e-5
-1.116, 2.550e-5
-1.117, 2.398e-5
-1.118, 2.442e-5
-1.119, 2.532e-5
-1.120, 2.348e-5
-1.121, 2.563e-5
-1.122, 2.432e-5
-1.123, 2.471e-5
-1.124, 2.584e-5
-1.125, 2.365e-5
-1.126, 2.598e-5
-1.127, 2.481e-5
-1.128, 2.518e-5
-1.129, 2.578e-5
-1.130, 2.403e-5
-1.131, 2.647e-5
-1.132, 2.480e-5
-1.133, 2.557e-5
-1.134, 2.634e-5
-1.135, 2.475e-5
-1.136, 2.673e-5
-1.137, 2.517e-5
-1.138, 2.580e-5
-1.139, 2.662e-5
-1.140, 2.488e-5
-1.141, 2.715e-5
-1.142, 2.559e-5
-1.143, 2.622e-5
-1.144, 2.700e-5
-1.145, 2.503e-5
-1.146, 2.770e-5
-1.147, 2.583e-5
-1.148, 2.645e-5
-1.149, 2.747e-5
-1.150, 2.548e-5
-1.151, 2.787e-5
-1.152, 2.624e-5
-1.153, 2.675e-5
-1.154, 2.813e-5
-1.155, 2.592e-5
-1.156, 2.832e-5
-1.157, 2.677e-5
-1.158, 2.723e-5
-1.159, 2.852e-5
-1.160, 2.610e-5
-1.161, 2.865e-5
-1.162, 2.734e-5
-1.163, 2.776e-5
-1.164, 2.882e-5
-1.165, 2.695e-5
-1.166, 2.916e-5
-1.167, 2.806e-5
-1.168, 2.819e-5
-1.169, 2.943e-5
-1.170, 2.741e-5
-1.171, 2.977e-5
-1.172, 2.844e-5
-1.173, 2.905e-5
-1.174, 2.969e-5
-1.175, 2.814e-5
-1.176, 3.031e-5
-1.177, 2.892e-5
-1.178, 2.959e-5
-1.179, 3.069e-5
-1.180, 2.879e-5
-1.181, 3.103e-5
-1.182, 2.984e-5
-1.183, 3.020e-5
-1.184, 3.133e-5
-1.185, 2.931e-5
-1.186, 3.191e-5
-1.187, 3.032e-5
-1.188, 3.118e-5
-1.189, 3.207e-5
-1.190, 3.023e-5
-1.191, 3.269e-5
-1.192, 3.132e-5
-1.193, 3.166e-5
-1.194, 3.322e-5
-1.195, 3.120e-5
-1.196, 3.357e-5
-1.197, 3.241e-5
-1.198, 3.277e-5
-1.199, 3.421e-5
-1.200, 3.203e-5
-1.201, 3.463e-5
-1.202, 3.348e-5
-1.203, 3.390e-5
-1.204, 3.535e-5
-1.205, 3.353e-5
-1.206, 3.594e-5
-1.207, 3.489e-5
-1.208, 3.540e-5
-1.209, 3.647e-5
-1.210, 3.481e-5
-1.211, 3.724e-5
-1.212, 3.623e-5
-1.213, 3.686e-5
-1.214, 3.811e-5
-1.215, 3.650e-5
-1.216, 3.885e-5
-1.217, 3.783e-5
-1.218, 3.849e-5
-1.219, 3.978e-5
-1.220, 3.819e-5
-1.221, 4.073e-5
-1.222, 3.956e-5
-1.223, 4.042e-5
-1.224, 4.179e-5
-1.225, 3.978e-5
-1.226, 4.271e-5
-1.227, 4.167e-5
-1.228, 4.264e-5
-1.229, 4.424e-5
-1.230, 4.219e-5
-1.231, 4.521e-5
-1.232, 4.412e-5
-1.233, 4.479e-5
-1.234, 4.667e-5
-1.235, 4.492e-5
-1.236, 4.774e-5
-1.237, 4.674e-5
-1.238, 4.742e-5
-1.239, 4.921e-5
-1.240, 4.778e-5
-1.241, 5.037e-5
-1.242, 4.992e-5
-1.243, 5.039e-5
-1.244, 5.231e-5
-1.245, 5.109e-5
-1.246, 5.374e-5
-1.247, 5.324e-5
-1.248, 5.396e-5
-1.249, 5.593e-5
-1.250, 5.455e-5
-1.251, 5.748e-5
-1.252, 5.689e-5
-1.253, 5.784e-5
-1.254, 5.989e-5
-1.255, 5.866e-5
-1.256, 6.167e-5
-1.257, 6.108e-5
-1.258, 6.221e-5
-1.259, 6.422e-5
-1.260, 6.318e-5
-1.261, 6.621e-5
-1.262, 6.593e-5
-1.263, 6.697e-5
-1.264, 6.929e-5
-1.265, 6.821e-5
-1.266, 7.142e-5
-1.267, 7.120e-5
-1.268, 7.245e-5
-1.269, 7.496e-5
-1.270, 7.382e-5
-1.271, 7.760e-5
-1.272, 7.710e-5
-1.273, 7.851e-5
-1.274, 8.109e-5
-1.275, 8.032e-5
-1.276, 8.380e-5
-1.277, 8.390e-5
-1.278, 8.542e-5
-1.279, 8.804e-5
-1.280, 8.760e-5
-1.281, 9.127e-5
-1.282, 9.160e-5
-1.283, 9.313e-5
-1.284, 9.594e-5
-1.285, 9.571e-5
-1.286, 9.920e-5
-1.287, 9.993e-5
-1.288, 1.015e-4
-1.289, 1.046e-4
-1.290, 1.044e-4
-1.291, 1.083e-4
-1.292, 1.090e-4
-1.293, 1.110e-4
-1.294, 1.143e-4
-1.295, 1.144e-4
-1.296, 1.185e-4
-1.297, 1.192e-4
-1.298, 1.215e-4
-1.299, 1.250e-4
-1.300, 1.253e-4
-1.301, 1.297e-4
-1.302, 1.305e-4
-1.303, 1.332e-4
-1.304, 1.368e-4
-1.305, 1.372e-4
-1.306, 1.422e-4
-1.307, 1.432e-4
-1.308, 1.464e-4
-1.309, 1.500e-4
-1.310, 1.509e-4
-1.311, 1.561e-4
-1.312, 1.575e-4
-1.313, 1.604e-4
-1.314, 1.649e-4
-1.315, 1.657e-4
-1.316, 1.711e-4
-1.317, 1.730e-4
-1.318, 1.763e-4
-1.319, 1.812e-4
-1.320, 1.824e-4
-1.321, 1.878e-4
-1.322, 1.904e-4
-1.323, 1.939e-4
-1.324, 1.988e-4
-1.325, 2.005e-4
-1.326, 2.065e-4
-1.327, 2.093e-4
-1.328, 2.132e-4
-1.329, 2.184e-4
-1.330, 2.205e-4
-1.331, 2.268e-4
-1.332, 2.297e-4
-1.333, 2.342e-4
-1.334, 2.397e-4
-1.335, 2.421e-4
-1.336, 2.488e-4
-1.337, 2.521e-4
-1.338, 2.573e-4
-1.339, 2.628e-4
-1.340, 2.662e-4
-1.341, 2.734e-4
-1.342, 2.770e-4
-1.343, 2.823e-4
-1.344, 2.888e-4
-1.345, 2.920e-4
-1.346, 3.000e-4
-1.347, 3.038e-4
-1.348, 3.100e-4
-1.349, 3.167e-4
-1.350, 3.205e-4
-1.351, 3.288e-4
-1.352, 3.331e-4
-1.353, 3.394e-4
-1.354, 3.468e-4
-1.355, 3.512e-4
-1.356, 3.596e-4
-1.357, 3.649e-4
-1.358, 3.716e-4
-1.359, 3.794e-4
-1.360, 3.842e-4
-1.361, 3.932e-4
-1.362, 3.989e-4
-1.363, 4.057e-4
-1.364, 4.138e-4
-1.365, 4.189e-4
-1.366, 4.281e-4
-1.367, 4.343e-4
-1.368, 4.419e-4
-1.369, 4.506e-4
-1.370, 4.565e-4
-1.371, 4.665e-4
-1.372, 4.729e-4
-1.373, 4.812e-4
-1.374, 4.901e-4
-1.375, 4.965e-4
-1.376, 5.069e-4
-1.377, 5.137e-4
-1.378, 5.226e-4
-1.379, 5.318e-4
-1.380, 5.387e-4
-1.381, 5.495e-4
-1.382, 5.572e-4
-1.383, 5.667e-4
-1.384, 5.764e-4
-1.385, 5.837e-4
-1.386, 5.950e-4
-1.387, 6.026e-4
-1.388, 6.124e-4
-1.389, 6.226e-4
-1.390, 6.304e-4
-1.391, 6.424e-4
-1.392, 6.507e-4
-1.393, 6.607e-4
-1.394, 6.718e-4
-1.395, 6.800e-4
-1.396, 6.925e-4
-1.397, 7.011e-4
-1.398, 7.121e-4
-1.399, 7.235e-4
-1.400, 7.319e-4
-1.401, 7.446e-4
-1.402, 7.537e-4
-1.403, 7.652e-4
-1.404, 7.772e-4
-1.405, 7.865e-4
-1.406, 7.997e-4
-1.407, 8.097e-4
-1.408, 8.215e-4
-1.409, 8.344e-4
-1.410, 8.442e-4
-1.411, 8.582e-4
-1.412, 8.683e-4
-1.413, 8.803e-4
-1.414, 8.928e-4
-1.415, 9.033e-4
-1.416, 9.174e-4
-1.417, 9.282e-4
-1.418, 9.413e-4
-1.419, 9.545e-4
-1.420, 9.651e-4
-1.421, 9.800e-4
-1.422, 9.911e-4
-1.423, 1.005e-3
-1.424, 1.018e-3
-1.425, 1.030e-3
-1.426, 1.045e-3
-1.427, 1.057e-3
-1.428, 1.072e-3
-1.429, 1.086e-3
-1.430, 1.098e-3
-1.431, 1.114e-3
-1.432, 1.126e-3
-1.433, 1.141e-3
-1.434, 1.156e-3
-1.435, 1.169e-3
-1.436, 1.186e-3
-1.437, 1.198e-3
-1.438, 1.212e-3
-1.439, 1.227e-3
-1.440, 1.241e-3
-1.441, 1.259e-3
-1.442, 1.272e-3
-1.443, 1.288e-3
-1.444, 1.305e-3
-1.445, 1.319e-3
-1.446, 1.338e-3
-1.447, 1.352e-3
-1.448, 1.369e-3
-1.449, 1.386e-3
-1.450, 1.401e-3
-1.451, 1.419e-3
-1.452, 1.434e-3
-1.453, 1.452e-3
-1.454, 1.470e-3
-1.455, 1.485e-3
-1.456, 1.505e-3
-1.457, 1.521e-3
-1.458, 1.539e-3
-1.459, 1.558e-3
-1.460, 1.575e-3
-1.461, 1.596e-3
-1.462, 1.613e-3
-1.463, 1.632e-3
-1.464, 1.651e-3
-1.465, 1.668e-3
-1.466, 1.690e-3
-1.467, 1.707e-3
-1.468, 1.728e-3
-1.469, 1.748e-3
-1.470, 1.766e-3
-1.471, 1.789e-3
-1.472, 1.807e-3
-1.473, 1.829e-3
-1.474, 1.850e-3
-1.475, 1.870e-3
-1.476, 1.894e-3
-1.477, 1.913e-3
-1.478, 1.936e-3
-1.479, 1.958e-3
-1.480, 1.979e-3
-1.481, 2.003e-3
-1.482, 2.025e-3
-1.483, 2.048e-3
-1.484, 2.072e-3
-1.485, 2.094e-3
-1.486, 2.120e-3
-1.487, 2.142e-3
-1.488, 2.166e-3
-1.489, 2.191e-3
-1.490, 2.214e-3
-1.491, 2.243e-3
-1.492, 2.267e-3
-1.493, 2.293e-3
-1.494, 2.320e-3
-1.495, 2.345e-3
-1.496, 2.374e-3
-1.497, 2.399e-3
-1.498, 2.428e-3
-1.499, 2.456e-3
-1.500, 2.482e-3
-1.501, 2.513e-3
-1.502, 2.539e-3
-1.503, 2.569e-3
-1.504, 2.597e-3
-1.505, 2.625e-3
-1.506, 2.657e-3
-1.507, 2.685e-3
-1.508, 2.717e-3
-1.509, 2.748e-3
-1.510, 2.778e-3
-1.511, 2.811e-3
-1.512, 2.841e-3
-1.513, 2.875e-3
-1.514, 2.909e-3
-1.515, 2.939e-3
-1.516, 2.976e-3
-1.517, 3.007e-3
-1.518, 3.043e-3
-1.519, 3.078e-3
-1.520, 3.111e-3
-1.521, 3.149e-3
-1.522, 3.182e-3
-1.523, 3.221e-3
-1.524, 3.258e-3
-1.525, 3.294e-3
-1.526, 3.334e-3
-1.527, 3.369e-3
-1.528, 3.410e-3
-1.529, 3.451e-3
-1.530, 3.490e-3
-1.531, 3.531e-3
-1.532, 3.567e-3
-1.533, 3.610e-3
-1.534, 3.653e-3
-1.535, 3.695e-3
-1.536, 3.742e-3
-1.537, 3.781e-3
-1.538, 3.825e-3
-1.539, 3.866e-3
-1.540, 3.909e-3
-1.541, 3.958e-3
-1.542, 4.003e-3
-1.543, 4.051e-3
-1.544, 4.096e-3
-1.545, 4.142e-3
-1.546, 4.193e-3
-1.547, 4.238e-3
-1.548, 4.291e-3
-1.549, 4.342e-3
-1.550, 4.390e-3
-1.551, 4.443e-3
-1.552, 4.492e-3
-1.553, 4.547e-3
-1.554, 4.599e-3
-1.555, 4.651e-3
-1.556, 4.709e-3
-1.557, 4.763e-3
-1.558, 4.822e-3
-1.559, 4.879e-3
-1.560, 4.935e-3
-1.561, 4.997e-3
-1.562, 5.053e-3
-1.563, 5.114e-3
-1.564, 5.174e-3
-1.565, 5.233e-3
-1.566, 5.295e-3
-1.567, 5.355e-3
-1.568, 5.420e-3
-1.569, 5.484e-3
-1.570, 5.547e-3
-1.571, 5.615e-3
-1.572, 5.677e-3
-1.573, 5.744e-3
-1.574, 5.809e-3
-1.575, 5.877e-3
-1.576, 5.946e-3
-1.577, 6.009e-3
-1.578, 6.081e-3
-1.579, 6.150e-3
-1.580, 6.220e-3
-1.581, 6.298e-3
-1.582, 6.368e-3
-1.583, 6.446e-3
-1.584, 6.521e-3
-1.585, 6.591e-3
-1.586, 6.666e-3
-1.587, 6.738e-3
-1.588, 6.819e-3
-1.589, 6.896e-3
-1.590, 6.977e-3
-1.591, 7.061e-3
-1.592, 7.144e-3
-1.593, 7.235e-3
-1.594, 7.316e-3
-1.595, 7.401e-3
-1.596, 7.491e-3
-1.597, 7.564e-3
-1.598, 7.648e-3
-1.599, 7.734e-3
-1.600, 7.734e-3
-1.599, 7.654e-3
-1.598, 7.562e-3
-1.597, 7.477e-3
-1.596, 7.389e-3
-1.595, 7.301e-3
-1.594, 7.219e-3
-1.593, 7.132e-3
-1.592, 7.050e-3
-1.591, 6.966e-3
-1.590, 6.886e-3
-1.589, 6.811e-3
-1.588, 6.728e-3
-1.587, 6.651e-3
-1.586, 6.574e-3
-1.585, 6.493e-3
-1.584, 6.422e-3
-1.583, 6.344e-3
-1.582, 6.267e-3
-1.581, 6.191e-3
-1.580, 6.115e-3
-1.579, 6.041e-3
-1.578, 5.962e-3
-1.577, 5.893e-3
-1.576, 5.818e-3
-1.575, 5.743e-3
-1.574, 5.674e-3
-1.573, 5.600e-3
-1.572, 5.532e-3
-1.571, 5.465e-3
-1.570, 5.398e-3
-1.569, 5.333e-3
-1.568, 5.264e-3
-1.567, 5.199e-3
-1.566, 5.134e-3
-1.565, 5.070e-3
-1.564, 5.006e-3
-1.563, 4.939e-3
-1.562, 4.879e-3
-1.561, 4.818e-3
-1.560, 4.753e-3
-1.559, 4.694e-3
-1.558, 4.630e-3
-1.557, 4.573e-3
-1.556, 4.514e-3
-1.555, 4.452e-3
-1.554, 4.395e-3
-1.553, 4.335e-3
-1.552, 4.280e-3
-1.551, 4.223e-3
-1.550, 4.165e-3
-1.549, 4.114e-3
-1.548, 4.058e-3
-1.547, 4.010e-3
-1.546, 3.956e-3
-1.545, 3.900e-3
-1.544, 3.852e-3
-1.543, 3.797e-3
-1.542, 3.748e-3
-1.541, 3.699e-3
-1.540, 3.647e-3
-1.539, 3.600e-3
-1.538, 3.548e-3
-1.537, 3.500e-3
-1.536, 3.452e-3
-1.535, 3.403e-3
-1.534, 3.360e-3
-1.533, 3.312e-3
-1.532, 3.266e-3
-1.531, 3.222e-3
-1.530, 3.177e-3
-1.529, 3.137e-3
-1.528, 3.091e-3
-1.527, 3.049e-3
-1.526, 3.008e-3
-1.525, 2.966e-3
-1.524, 2.928e-3
-1.523, 2.885e-3
-1.522, 2.846e-3
-1.521, 2.806e-3
-1.520, 2.766e-3
-1.519, 2.730e-3
-1.518, 2.689e-3
-1.517, 2.653e-3
-1.516, 2.616e-3
-1.515, 2.577e-3
-1.514, 2.544e-3
-1.513, 2.506e-3
-1.512, 2.472e-3
-1.511, 2.437e-3
-1.510, 2.400e-3
-1.509, 2.369e-3
-1.508, 2.332e-3
-1.507, 2.300e-3
-1.506, 2.268e-3
-1.505, 2.234e-3
-1.504, 2.205e-3
-1.503, 2.172e-3
-1.502, 2.141e-3
-1.501, 2.112e-3
-1.500, 2.080e-3
-1.499, 2.053e-3
-1.498, 2.022e-3
-1.497, 1.993e-3
-1.496, 1.965e-3
-1.495, 1.935e-3
-1.494, 1.909e-3
-1.493, 1.879e-3
-1.492, 1.852e-3
-1.491, 1.825e-3
-1.490, 1.797e-3
-1.489, 1.774e-3
-1.488, 1.746e-3
-1.487, 1.722e-3
-1.486, 1.697e-3
-1.485, 1.670e-3
-1.484, 1.648e-3
-1.483, 1.622e-3
-1.482, 1.598e-3
-1.481, 1.576e-3
-1.480, 1.551e-3
-1.479, 1.531e-3
-1.478, 1.506e-3
-1.477, 1.484e-3
-1.476, 1.464e-3
-1.475, 1.440e-3
-1.474, 1.421e-3
-1.473, 1.398e-3
-1.472, 1.378e-3
-1.471, 1.359e-3
-1.470, 1.337e-3
-1.469, 1.320e-3
-1.468, 1.299e-3
-1.467, 1.279e-3
-1.466, 1.262e-3
-1.465, 1.241e-3
-1.464, 1.225e-3
-1.463, 1.205e-3
-1.462, 1.188e-3
-1.461, 1.172e-3
-1.460, 1.152e-3
-1.459, 1.137e-3
-1.458, 1.119e-3
-1.457, 1.102e-3
-1.456, 1.087e-3
-1.455, 1.068e-3
-1.454, 1.055e-3
-1.453, 1.037e-3
-1.452, 1.021e-3
-1.451, 1.008e-3
-1.450, 9.906e-4
-1.449, 9.773e-4
-1.448, 9.613e-4
-1.447, 9.465e-4
-1.446, 9.330e-4
-1.445, 9.169e-4
-1.444, 9.048e-4
-1.443, 8.894e-4
-1.442, 8.755e-4
-1.441, 8.633e-4
-1.440, 8.478e-4
-1.439, 8.369e-4
-1.438, 8.225e-4
-1.437, 8.095e-4
-1.436, 7.984e-4
-1.435, 7.837e-4
-1.434, 7.733e-4
-1.433, 7.596e-4
-1.432, 7.474e-4
-1.431, 7.374e-4
-1.430, 7.236e-4
-1.429, 7.146e-4
-1.428, 7.021e-4
-1.427, 6.905e-4
-1.426, 6.812e-4
-1.425, 6.679e-4
-1.424, 6.591e-4
-1.423, 6.476e-4
-1.422, 6.365e-4
-1.421, 6.282e-4
-1.420, 6.160e-4
-1.419, 6.081e-4
-1.418, 5.975e-4
-1.417, 5.873e-4
-1.416, 5.797e-4
-1.415, 5.677e-4
-1.414, 5.606e-4
-1.413, 5.503e-4
-1.412, 5.408e-4
-1.411, 5.334e-4
-1.410, 5.227e-4
-1.409, 5.156e-4
-1.408, 5.063e-4
-1.407, 4.971e-4
-1.406, 4.905e-4
-1.405, 4.803e-4
-1.404, 4.741e-4
-1.403, 4.651e-4
-1.402, 4.567e-4
-1.401, 4.506e-4
-1.400, 4.409e-4
-1.399, 4.351e-4
-1.398, 4.269e-4
-1.397, 4.190e-4
-1.396, 4.139e-4
-1.395, 4.043e-4
-1.394, 3.995e-4
-1.393, 3.915e-4
-1.392, 3.843e-4
-1.391, 3.795e-4
-1.390, 3.703e-4
-1.389, 3.657e-4
-1.388, 3.583e-4
-1.387, 3.512e-4
-1.386, 3.470e-4
-1.385, 3.382e-4
-1.384, 3.344e-4
-1.383, 3.271e-4
-1.382, 3.208e-4
-1.381, 3.169e-4
-1.380, 3.087e-4
-1.379, 3.048e-4
-1.378, 2.985e-4
-1.377, 2.922e-4
-1.376, 2.888e-4
-1.375, 2.813e-4
-1.374, 2.773e-4
-1.373, 2.719e-4
-1.372, 2.659e-4
-1.371, 2.627e-4
-1.370, 2.556e-4
-1.369, 2.522e-4
-1.368, 2.468e-4
-1.367, 2.412e-4
-1.366, 2.386e-4
-1.365, 2.319e-4
-1.364, 2.291e-4
-1.363, 2.239e-4
-1.362, 2.189e-4
-1.361, 2.165e-4
-1.360, 2.101e-4
-1.359, 2.076e-4
-1.358, 2.025e-4
-1.357, 1.978e-4
-1.356, 1.958e-4
-1.355, 1.895e-4
-1.354, 1.873e-4
-1.353, 1.828e-4
-1.352, 1.785e-4
-1.351, 1.764e-4
-1.350, 1.706e-4
-1.349, 1.687e-4
-1.348, 1.647e-4
-1.347, 1.600e-4
-1.346, 1.588e-4
-1.345, 1.529e-4
-1.344, 1.513e-4
-1.343, 1.476e-4
-1.342, 1.431e-4
-1.341, 1.422e-4
-1.340, 1.367e-4
-1.339, 1.350e-4
-1.338, 1.317e-4
-1.337, 1.277e-4
-1.336, 1.269e-4
-1.335, 1.219e-4
-1.334, 1.205e-4
-1.333, 1.176e-4
-1.332, 1.138e-4
-1.331, 1.127e-4
-1.330, 1.082e-4
-1.329, 1.069e-4
-1.328, 1.041e-4
-1.327, 1.008e-4
-1.326, 1.000e-4
-1.325, 9.567e-5
-1.324, 9.483e-5
-1.323, 9.211e-5
-1.322, 8.862e-5
-1.321, 8.826e-5
-1.320, 8.408e-5
-1.319, 8.336e-5
-1.318, 8.057e-5
-1.317, 7.739e-5
-1.316, 7.729e-5
-1.315, 7.300e-5
-1.314, 7.261e-5
-1.313, 7.035e-5
-1.312, 6.717e-5
-1.311, 6.747e-5
-1.310, 6.294e-5
-1.309, 6.286e-5
-1.308, 6.070e-5
-1.307, 5.773e-5
-1.306, 5.792e-5
-1.305, 5.409e-5
-1.304, 5.403e-5
-1.303, 5.211e-5
-1.302, 4.931e-5
-1.301, 4.963e-5
-1.300, 4.603e-5
-1.299, 4.570e-5
-1.298, 4.427e-5
-1.297, 4.131e-5
-1.296, 4.209e-5
-1.295, 3.820e-5
-1.294, 3.827e-5
-1.293, 3.688e-5
-1.292, 3.415e-5
-1.291, 3.457e-5
-1.290, 3.122e-5
-1.289, 3.131e-5
-1.288, 3.000e-5
-1.287, 2.747e-5
-1.286, 2.793e-5
-1.285, 2.483e-5
-1.284, 2.514e-5
-1.283, 2.382e-5
-1.282, 2.144e-5
-1.281, 2.228e-5
-1.280, 1.875e-5
-1.279, 1.947e-5
-1.278, 1.794e-5
-1.277, 1.592e-5
-1.276, 1.700e-5
-1.275, 1.374e-5
-1.274, 1.403e-5
-1.273, 1.288e-5
-1.272, 1.082e-5
-1.271, 1.209e-5
-1.270, 8.621e-6
-1.269, 9.617e-6
-1.268, 8.769e-6
-1.267, 6.263e-6
-1.266, 7.634e-6
-1.265, 4.369e-6
-1.264, 5.533e-6
-1.263, 4.576e-6
-1.262, 2.317e-6
-1.261, 3.836e-6
-1.260, 8.169e-7
-1.259, 1.458e-6
-1.258, 8.860e-7
-1.257, -1.087e-6
-1.256, 3.828e-7
-1.255, -2.666e-6
-1.254, -1.975e-6
-1.253, -2.459e-6
-1.252, -4.432e-6
-1.251, -3.060e-6
-1.250, -5.922e-6
-1.249, -5.191e-6
-1.248, -5.497e-6
-1.247, -7.628e-6
-1.246, -6.277e-6
-1.245, -8.812e-6
-1.244, -7.727e-6
-1.243, -8.575e-6
-1.242, -1.034e-5
-1.241, -8.635e-6
-1.240, -1.110e-5
-1.239, -1.027e-5
-1.238, -1.100e-5
-1.237, -1.259e-5
-1.236, -1.103e-5
-1.235, -1.363e-5
-1.234, -1.279e-5
-1.233, -1.307e-5
-1.232, -1.489e-5
-1.231, -1.306e-5
-1.230, -1.562e-5
-1.229, -1.483e-5
-1.228, -1.522e-5
-1.227, -1.692e-5
-1.226, -1.478e-5
-1.225, -1.749e-5
-1.224, -1.627e-5
-1.223, -1.641e-5
-1.222, -1.853e-5
-1.221, -1.652e-5
-1.220, -1.892e-5
-1.219, -1.809e-5
-1.218, -1.832e-5
-1.217, -1.988e-5
-1.216, -1.814e-5
-1.215, -2.032e-5
-1.214, -1.932e-5
-1.213, -1.973e-5
-1.212, -2.108e-5
-1.211, -1.944e-5
-1.210, -2.150e-5
-1.209, -2.086e-5
-1.208, -2.061e-5
-1.207, -2.227e-5
-1.206, -2.062e-5
-1.205, -2.284e-5
-1.204, -2.129e-5
-1.203, -2.209e-5
-1.202, -2.340e-5
-1.201, -2.153e-5
-1.200, -2.397e-5
-1.199, -2.280e-5
-1.198, -2.299e-5
-1.197, -2.437e-5
-1.196, -2.249e-5
-1.195, -2.487e-5
-1.194, -2.378e-5
-1.193, -2.381e-5
-1.192, -2.540e-5
-1.191, -2.348e-5
-1.190, -2.595e-5
-1.189, -2.463e-5
-1.188, -2.460e-5
-1.187, -2.639e-5
-1.186, -2.422e-5
-1.185, -2.631e-5
-1.184, -2.523e-5
-1.183, -2.533e-5
-1.182, -2.699e-5
-1.181, -2.490e-5
-1.180, -2.704e-5
-1.179, -2.614e-5
-1.178, -2.639e-5
-1.177, -2.786e-5
-1.176, -2.567e-5
-1.175, -2.774e-5
-1.174, -2.686e-5
-1.173, -2.674e-5
-1.172, -2.814e-5
-1.171, -2.645e-5
-1.170, -2.833e-5
-1.169, -2.731e-5
-1.168, -2.722e-5
-1.167, -2.865e-5
-1.166, -2.694e-5
-1.165, -2.893e-5
-1.164, -2.785e-5
-1.163, -2.801e-5
-1.162, -2.945e-5
-1.161, -2.724e-5
-1.160, -2.935e-5
-1.159, -2.833e-5
-1.158, -2.872e-5
-1.157, -2.978e-5
-1.156, -2.794e-5
-1.155, -3.010e-5
-1.154, -2.880e-5
-1.153, -2.892e-5
-1.152, -3.024e-5
-1.151, -2.819e-5
-1.150, -3.061e-5
-1.149, -2.930e-5
-1.148, -2.920e-5
-1.147, -3.092e-5
-1.146, -2.867e-5
-1.145, -3.097e-5
-1.144, -2.979e-5
-1.143, -2.961e-5
-1.142, -3.157e-5
-1.141, -2.913e-5
-1.140, -3.146e-5
-1.139, -3.040e-5
-1.138, -3.038e-5
-1.137, -3.192e-5
-1.136, -2.985e-5
-1.135, -3.190e-5
-1.134, -3.100e-5
-1.133, -3.056e-5
-1.132, -3.238e-5
-1.131, -3.032e-5
-1.130, -3.210e-5
-1.129, -3.119e-5
-1.128, -3.117e-5
-1.127, -3.254e-5
-1.126, -3.100e-5
-1.125, -3.281e-5
-1.124, -3.155e-5
-1.123, -3.170e-5
-1.122, -3.300e-5
-1.121, -3.111e-5
-1.120, -3.320e-5
-1.119, -3.223e-5
-1.118, -3.212e-5
-1.117, -3.358e-5
-1.116, -3.155e-5
-1.115, -3.367e-5
-1.114, -3.255e-5
-1.113, -3.258e-5
-1.112, -3.398e-5
-1.111, -3.197e-5
-1.110, -3.436e-5
-1.109, -3.290e-5
-1.108, -3.297e-5
-1.107, -3.462e-5
-1.106, -3.244e-5
-1.105, -3.464e-5
-1.104, -3.342e-5
-1.103, -3.317e-5
-1.102, -3.505e-5
-1.101, -3.288e-5
-1.100, -3.510e-5
-1.099, -3.407e-5
-1.098, -3.373e-5
-1.097, -3.554e-5
-1.096, -3.339e-5
-1.095, -3.550e-5
-1.094, -3.456e-5
-1.093, -3.415e-5
-1.092, -3.582e-5
-1.091, -3.378e-5
-1.090, -3.614e-5
-1.089, -3.492e-5
-1.088, -3.472e-5
-1.087, -3.630e-5
-1.086, -3.456e-5
-1.085, -3.644e-5
-1.084, -3.545e-5
-1.083, -3.546e-5
-1.082, -3.680e-5
-1.081, -3.510e-5
-1.080, -3.695e-5
-1.079, -3.581e-5
-1.078, -3.596e-5
-1.077, -3.730e-5
-1.076, -3.537e-5
-1.075, -3.782e-5
-1.074, -3.663e-5
-1.073, -3.640e-5
-1.072, -3.817e-5
-1.071, -3.585e-5
-1.070, -3.822e-5
-1.069, -3.690e-5
-1.068, -3.706e-5
-1.067, -3.861e-5
-1.066, -3.663e-5
-1.065, -3.875e-5
-1.064, -3.771e-5
-1.063, -3.740e-5
-1.062, -3.914e-5
-1.061, -3.721e-5
-1.060, -3.919e-5
-1.059, -3.831e-5
-1.058, -3.805e-5
-1.057, -3.976e-5
-1.056, -3.763e-5
-1.055, -3.992e-5
-1.054, -3.879e-5
-1.053, -3.874e-5
-1.052, -4.025e-5
-1.051, -3.815e-5
-1.050, -4.061e-5
-1.049, -3.948e-5
-1.048, -3.919e-5
-1.047, -4.084e-5
-1.046, -3.908e-5
-1.045, -4.119e-5
-1.044, -3.992e-5
-1.043, -4.008e-5
-1.042, -4.142e-5
-1.041, -3.962e-5
-1.040, -4.167e-5
-1.039, -4.051e-5
-1.038, -4.078e-5
-1.037, -4.191e-5
-1.036, -4.005e-5
-1.035, -4.239e-5
-1.034, -4.124e-5
-1.033, -4.115e-5
-1.032, -4.283e-5
-1.031, -4.074e-5
-1.030, -4.312e-5
-1.029, -4.190e-5
-1.028, -4.181e-5
-1.027, -4.375e-5
-1.026, -4.143e-5
-1.025, -4.376e-5
-1.024, -4.285e-5
-1.023, -4.220e-5
-1.022, -4.454e-5
-1.021, -4.213e-5
-1.020, -4.449e-5
-1.019, -4.348e-5
-1.018, -4.300e-5
-1.017, -4.508e-5
-1.016, -4.285e-5
-1.015, -4.497e-5
-1.014, -4.395e-5
-1.013, -4.383e-5
-1.012, -4.571e-5
-1.011, -4.385e-5
-1.010, -4.593e-5
-1.009, -4.491e-5
-1.008, -4.459e-5
-1.007, -4.651e-5
-1.006, -4.456e-5
-1.005, -4.665e-5
-1.004, -4.571e-5
-1.003, -4.572e-5
-1.002, -4.719e-5
-1.001, -4.520e-5
