Sept. 28, 2024   12:43:36
Cyclic Voltammetry
File: c:/users/guazh/data/20240922_batch_417_500/2024-09-22-exp472\exp472-2024-09-28t12_22_53-arkoh\exp472_cv_sr_500mvs_efin_-1900mv.bin
Data Source:  Experiment
Instrument Model:  CHI760E
Header: CV ran at 500 mVs
Note: 

Init E (V) = -1
High E (V) = -1
Low E (V) = -1.9
Final E (V) = -1
Init P/N = N
Scan Rate (V/s) = 0.5
Segment = 3
Sample Interval (V) = 0.001
Quiet Time (sec) = 2
Sensitivity (A/V) = 0.01
Comp R (ohm) = 2.0

Results:

Channel 1:
Segment 1:

Segment 2:

Segment 3:

Potential/V, Current/A

-1.000, 3.239e-6
-1.001, 3.239e-6
-1.002, 3.239e-6
-1.003, 3.239e-6
-1.004, 3.239e-6
-1.005, 3.239e-6
-1.006, 3.239e-6
-1.007, 3.239e-6
-1.008, 3.239e-6
-1.009, 3.239e-6
-1.010, 3.239e-6
-1.011, 3.239e-6
-1.012, 3.239e-6
-1.013, 3.239e-6
-1.014, 3.239e-6
-1.015, 3.239e-6
-1.016, 3.239e-6
-1.017, 3.239e-6
-1.018, 3.239e-6
-1.019, 3.239e-6
-1.020, 3.239e-6
-1.021, 3.239e-6
-1.022, 3.239e-6
-1.023, 3.239e-6
-1.024, 3.239e-6
-1.025, 3.239e-6
-1.026, 3.239e-6
-1.027, 3.239e-6
-1.028, 3.239e-6
-1.029, 3.239e-6
-1.030, 3.239e-6
-1.031, 6.322e-6
-1.032, 3.239e-6
-1.033, 3.239e-6
-1.034, 3.239e-6
-1.035, 6.322e-6
-1.036, 3.239e-6
-1.037, 3.239e-6
-1.038, 3.239e-6
-1.039, 3.239e-6
-1.040, 6.322e-6
-1.041, 3.239e-6
-1.042, 3.239e-6
-1.043, 6.322e-6
-1.044, 3.239e-6
-1.045, 6.322e-6
-1.046, 3.239e-6
-1.047, 3.239e-6
-1.048, 6.322e-6
-1.049, 3.239e-6
-1.050, 3.239e-6
-1.051, 3.239e-6
-1.052, 6.322e-6
-1.053, 6.322e-6
-1.054, 6.322e-6
-1.055, 3.239e-6
-1.056, 6.322e-6
-1.057, 6.322e-6
-1.058, 6.322e-6
-1.059, 3.239e-6
-1.060, 6.322e-6
-1.061, 3.239e-6
-1.062, 3.239e-6
-1.063, 6.322e-6
-1.064, 6.322e-6
-1.065, 6.322e-6
-1.066, 3.239e-6
-1.067, 6.322e-6
-1.068, 6.322e-6
-1.069, 3.239e-6
-1.070, 6.322e-6
-1.071, 3.239e-6
-1.072, 6.322e-6
-1.073, 6.322e-6
-1.074, 6.322e-6
-1.075, 3.239e-6
-1.076, 6.322e-6
-1.077, 6.322e-6
-1.078, 6.322e-6
-1.079, 6.322e-6
-1.080, 6.322e-6
-1.081, 6.322e-6
-1.082, 6.322e-6
-1.083, 6.322e-6
-1.084, 6.322e-6
-1.085, 6.322e-6
-1.086, 6.322e-6
-1.087, 6.322e-6
-1.088, 6.322e-6
-1.089, 6.322e-6
-1.090, 6.322e-6
-1.091, 6.322e-6
-1.092, 6.322e-6
-1.093, 6.322e-6
-1.094, 6.322e-6
-1.095, 6.322e-6
-1.096, 6.322e-6
-1.097, 6.322e-6
-1.098, 6.322e-6
-1.099, 6.322e-6
-1.100, 6.322e-6
-1.101, 6.322e-6
-1.102, 6.322e-6
-1.103, 6.322e-6
-1.104, 6.322e-6
-1.105, 6.322e-6
-1.106, 6.322e-6
-1.107, 6.322e-6
-1.108, 6.322e-6
-1.109, 6.322e-6
-1.110, 6.322e-6
-1.111, 6.322e-6
-1.112, 6.322e-6
-1.113, 6.322e-6
-1.114, 6.322e-6
-1.115, 6.322e-6
-1.116, 6.322e-6
-1.117, 6.322e-6
-1.118, 6.322e-6
-1.119, 6.322e-6
-1.120, 6.322e-6
-1.121, 6.322e-6
-1.122, 6.322e-6
-1.123, 6.322e-6
-1.124, 6.322e-6
-1.125, 6.322e-6
-1.126, 6.322e-6
-1.127, 6.322e-6
-1.128, 6.322e-6
-1.129, 6.322e-6
-1.130, 6.322e-6
-1.131, 6.322e-6
-1.132, 6.322e-6
-1.133, 6.322e-6
-1.134, 6.322e-6
-1.135, 6.322e-6
-1.136, 6.322e-6
-1.137, 6.322e-6
-1.138, 6.322e-6
-1.139, 6.322e-6
-1.140, 6.322e-6
-1.141, 6.322e-6
-1.142, 6.322e-6
-1.143, 6.322e-6
-1.144, 6.322e-6
-1.145, 6.322e-6
-1.146, 6.322e-6
-1.147, 6.322e-6
-1.148, 6.322e-6
-1.149, 6.322e-6
-1.150, 6.322e-6
-1.151, 6.322e-6
-1.152, 9.405e-6
-1.153, 6.322e-6
-1.154, 6.322e-6
-1.155, 6.322e-6
-1.156, 6.322e-6
-1.157, 6.322e-6
-1.158, 6.322e-6
-1.159, 6.322e-6
-1.160, 6.322e-6
-1.161, 6.322e-6
-1.162, 6.322e-6
-1.163, 6.322e-6
-1.164, 6.322e-6
-1.165, 6.322e-6
-1.166, 9.405e-6
-1.167, 6.322e-6
-1.168, 6.322e-6
-1.169, 6.322e-6
-1.170, 6.322e-6
-1.171, 6.322e-6
-1.172, 6.322e-6
-1.173, 6.322e-6
-1.174, 6.322e-6
-1.175, 9.405e-6
-1.176, 6.322e-6
-1.177, 6.322e-6
-1.178, 6.322e-6
-1.179, 6.322e-6
-1.180, 6.322e-6
-1.181, 6.322e-6
-1.182, 6.322e-6
-1.183, 6.322e-6
-1.184, 6.322e-6
-1.185, 9.405e-6
-1.186, 6.322e-6
-1.187, 6.322e-6
-1.188, 9.405e-6
-1.189, 9.405e-6
-1.190, 9.405e-6
-1.191, 9.405e-6
-1.192, 6.322e-6
-1.193, 9.405e-6
-1.194, 9.405e-6
-1.195, 6.322e-6
-1.196, 9.405e-6
-1.197, 6.322e-6
-1.198, 9.405e-6
-1.199, 9.405e-6
-1.200, 9.405e-6
-1.201, 9.405e-6
-1.202, 6.322e-6
-1.203, 9.405e-6
-1.204, 9.405e-6
-1.205, 9.405e-6
-1.206, 9.405e-6
-1.207, 9.405e-6
-1.208, 9.405e-6
-1.209, 9.405e-6
-1.210, 9.405e-6
-1.211, 9.405e-6
-1.212, 9.405e-6
-1.213, 9.405e-6
-1.214, 9.405e-6
-1.215, 9.405e-6
-1.216, 6.322e-6
-1.217, 9.405e-6
-1.218, 9.405e-6
-1.219, 9.405e-6
-1.220, 9.405e-6
-1.221, 9.405e-6
-1.222, 6.322e-6
-1.223, 9.405e-6
-1.224, 9.405e-6
-1.225, 9.405e-6
-1.226, 6.322e-6
-1.227, 9.405e-6
-1.228, 9.405e-6
-1.229, 9.405e-6
-1.230, 9.405e-6
-1.231, 9.405e-6
-1.232, 9.405e-6
-1.233, 9.405e-6
-1.234, 9.405e-6
-1.235, 9.405e-6
-1.236, 9.405e-6
-1.237, 9.405e-6
-1.238, 6.322e-6
-1.239, 9.405e-6
-1.240, 9.405e-6
-1.241, 9.405e-6
-1.242, 9.405e-6
-1.243, 9.405e-6
-1.244, 9.405e-6
-1.245, 9.405e-6
-1.246, 9.405e-6
-1.247, 9.405e-6
-1.248, 9.405e-6
-1.249, 9.405e-6
-1.250, 9.405e-6
-1.251, 9.405e-6
-1.252, 9.405e-6
-1.253, 9.405e-6
-1.254, 9.405e-6
-1.255, 9.405e-6
-1.256, 9.405e-6
-1.257, 9.405e-6
-1.258, 9.405e-6
-1.259, 9.405e-6
-1.260, 9.405e-6
-1.261, 9.405e-6
-1.262, 9.405e-6
-1.263, 9.405e-6
-1.264, 9.405e-6
-1.265, 9.405e-6
-1.266, 9.405e-6
-1.267, 9.405e-6
-1.268, 9.405e-6
-1.269, 9.405e-6
-1.270, 9.405e-6
-1.271, 9.405e-6
-1.272, 9.405e-6
-1.273, 9.405e-6
-1.274, 9.405e-6
-1.275, 9.405e-6
-1.276, 9.405e-6
-1.277, 9.405e-6
-1.278, 9.405e-6
-1.279, 9.405e-6
-1.280, 9.405e-6
-1.281, 9.405e-6
-1.282, 9.405e-6
-1.283, 9.405e-6
-1.284, 9.405e-6
-1.285, 9.405e-6
-1.286, 9.405e-6
-1.287, 9.405e-6
-1.288, 9.405e-6
-1.289, 9.405e-6
-1.290, 9.405e-6
-1.291, 9.405e-6
-1.292, 9.405e-6
-1.293, 9.405e-6
-1.294, 1.249e-5
-1.295, 9.405e-6
-1.296, 9.405e-6
-1.297, 9.405e-6
-1.298, 9.405e-6
-1.299, 9.405e-6
-1.300, 9.405e-6
-1.301, 9.405e-6
-1.302, 9.405e-6
-1.303, 9.405e-6
-1.304, 9.405e-6
-1.305, 9.405e-6
-1.306, 1.249e-5
-1.307, 9.405e-6
-1.308, 1.249e-5
-1.309, 1.249e-5
-1.310, 1.249e-5
-1.311, 9.405e-6
-1.312, 9.405e-6
-1.313, 9.405e-6
-1.314, 1.249e-5
-1.315, 1.249e-5
-1.316, 9.405e-6
-1.317, 9.405e-6
-1.318, 1.249e-5
-1.319, 1.249e-5
-1.320, 9.405e-6
-1.321, 9.405e-6
-1.322, 1.249e-5
-1.323, 1.249e-5
-1.324, 9.405e-6
-1.325, 1.249e-5
-1.326, 9.405e-6
-1.327, 1.249e-5
-1.328, 1.249e-5
-1.329, 1.249e-5
-1.330, 9.405e-6
-1.331, 1.249e-5
-1.332, 1.249e-5
-1.333, 1.249e-5
-1.334, 9.405e-6
-1.335, 1.249e-5
-1.336, 1.249e-5
-1.337, 9.405e-6
-1.338, 1.249e-5
-1.339, 1.249e-5
-1.340, 1.249e-5
-1.341, 1.249e-5
-1.342, 1.249e-5
-1.343, 1.249e-5
-1.344, 1.249e-5
-1.345, 1.249e-5
-1.346, 9.405e-6
-1.347, 1.249e-5
-1.348, 1.249e-5
-1.349, 1.249e-5
-1.350, 1.249e-5
-1.351, 1.249e-5
-1.352, 1.249e-5
-1.353, 1.249e-5
-1.354, 1.249e-5
-1.355, 1.249e-5
-1.356, 1.249e-5
-1.357, 1.249e-5
-1.358, 1.249e-5
-1.359, 1.249e-5
-1.360, 1.249e-5
-1.361, 1.249e-5
-1.362, 1.249e-5
-1.363, 1.249e-5
-1.364, 1.249e-5
-1.365, 1.249e-5
-1.366, 1.249e-5
-1.367, 1.249e-5
-1.368, 1.249e-5
-1.369, 1.249e-5
-1.370, 1.249e-5
-1.371, 1.249e-5
-1.372, 1.249e-5
-1.373, 1.249e-5
-1.374, 1.249e-5
-1.375, 1.249e-5
-1.376, 1.249e-5
-1.377, 1.249e-5
-1.378, 1.249e-5
-1.379, 1.249e-5
-1.380, 1.249e-5
-1.381, 1.249e-5
-1.382, 1.249e-5
-1.383, 1.557e-5
-1.384, 1.249e-5
-1.385, 1.249e-5
-1.386, 1.249e-5
-1.387, 1.249e-5
-1.388, 1.249e-5
-1.389, 1.557e-5
-1.390, 1.249e-5
-1.391, 1.249e-5
-1.392, 1.249e-5
-1.393, 1.557e-5
-1.394, 1.249e-5
-1.395, 1.249e-5
-1.396, 1.249e-5
-1.397, 1.557e-5
-1.398, 1.557e-5
-1.399, 1.249e-5
-1.400, 1.557e-5
-1.401, 1.249e-5
-1.402, 1.557e-5
-1.403, 1.557e-5
-1.404, 1.557e-5
-1.405, 1.249e-5
-1.406, 1.557e-5
-1.407, 1.557e-5
-1.408, 1.557e-5
-1.409, 1.557e-5
-1.410, 1.557e-5
-1.411, 1.557e-5
-1.412, 1.557e-5
-1.413, 1.557e-5
-1.414, 1.557e-5
-1.415, 1.557e-5
-1.416, 1.557e-5
-1.417, 1.557e-5
-1.418, 1.557e-5
-1.419, 1.557e-5
-1.420, 1.557e-5
-1.421, 1.557e-5
-1.422, 1.557e-5
-1.423, 1.557e-5
-1.424, 1.557e-5
-1.425, 1.557e-5
-1.426, 1.557e-5
-1.427, 1.557e-5
-1.428, 1.557e-5
-1.429, 1.557e-5
-1.430, 1.557e-5
-1.431, 1.557e-5
-1.432, 1.557e-5
-1.433, 1.557e-5
-1.434, 1.557e-5
-1.435, 1.557e-5
-1.436, 1.557e-5
-1.437, 1.557e-5
-1.438, 1.557e-5
-1.439, 1.557e-5
-1.440, 1.557e-5
-1.441, 1.865e-5
-1.442, 1.557e-5
-1.443, 1.557e-5
-1.444, 1.865e-5
-1.445, 1.557e-5
-1.446, 1.865e-5
-1.447, 1.557e-5
-1.448, 1.865e-5
-1.449, 1.557e-5
-1.450, 1.865e-5
-1.451, 1.557e-5
-1.452, 1.865e-5
-1.453, 1.865e-5
-1.454, 1.557e-5
-1.455, 1.865e-5
-1.456, 1.557e-5
-1.457, 1.865e-5
-1.458, 1.865e-5
-1.459, 1.865e-5
-1.460, 1.865e-5
-1.461, 1.865e-5
-1.462, 1.865e-5
-1.463, 1.865e-5
-1.464, 1.865e-5
-1.465, 1.865e-5
-1.466, 1.865e-5
-1.467, 1.865e-5
-1.468, 1.865e-5
-1.469, 1.865e-5
-1.470, 1.865e-5
-1.471, 1.865e-5
-1.472, 1.865e-5
-1.473, 1.865e-5
-1.474, 1.865e-5
-1.475, 1.865e-5
-1.476, 1.865e-5
-1.477, 1.865e-5
-1.478, 1.865e-5
-1.479, 1.865e-5
-1.480, 1.865e-5
-1.481, 2.174e-5
-1.482, 1.865e-5
-1.483, 1.865e-5
-1.484, 1.865e-5
-1.485, 2.174e-5
-1.486, 1.865e-5
-1.487, 2.174e-5
-1.488, 2.174e-5
-1.489, 2.174e-5
-1.490, 2.174e-5
-1.491, 2.174e-5
-1.492, 2.174e-5
-1.493, 2.174e-5
-1.494, 2.174e-5
-1.495, 2.174e-5
-1.496, 2.174e-5
-1.497, 2.174e-5
-1.498, 2.174e-5
-1.499, 2.174e-5
-1.500, 2.174e-5
-1.501, 2.174e-5
-1.502, 2.174e-5
-1.503, 2.174e-5
-1.504, 2.174e-5
-1.505, 2.174e-5
-1.506, 2.174e-5
-1.507, 2.174e-5
-1.508, 2.174e-5
-1.509, 2.174e-5
-1.510, 2.482e-5
-1.511, 2.482e-5
-1.512, 2.482e-5
-1.513, 2.482e-5
-1.514, 2.482e-5
-1.515, 2.482e-5
-1.516, 2.482e-5
-1.517, 2.482e-5
-1.518, 2.482e-5
-1.519, 2.482e-5
-1.520, 2.482e-5
-1.521, 2.482e-5
-1.522, 2.482e-5
-1.523, 2.482e-5
-1.524, 2.482e-5
-1.525, 2.482e-5
-1.526, 2.482e-5
-1.527, 2.790e-5
-1.528, 2.482e-5
-1.529, 2.482e-5
-1.530, 2.482e-5
-1.531, 2.790e-5
-1.532, 2.790e-5
-1.533, 2.790e-5
-1.534, 2.790e-5
-1.535, 2.790e-5
-1.536, 2.790e-5
-1.537, 2.790e-5
-1.538, 2.790e-5
-1.539, 2.790e-5
-1.540, 2.790e-5
-1.541, 2.790e-5
-1.542, 2.790e-5
-1.543, 2.790e-5
-1.544, 2.790e-5
-1.545, 3.099e-5
-1.546, 2.790e-5
-1.547, 3.099e-5
-1.548, 3.099e-5
-1.549, 3.099e-5
-1.550, 3.099e-5
-1.551, 3.099e-5
-1.552, 3.099e-5
-1.553, 3.099e-5
-1.554, 3.099e-5
-1.555, 3.099e-5
-1.556, 3.407e-5
-1.557, 3.099e-5
-1.558, 3.099e-5
-1.559, 3.099e-5
-1.560, 3.407e-5
-1.561, 3.407e-5
-1.562, 3.407e-5
-1.563, 3.407e-5
-1.564, 3.407e-5
-1.565, 3.407e-5
-1.566, 3.407e-5
-1.567, 3.715e-5
-1.568, 3.715e-5
-1.569, 3.407e-5
-1.570, 3.407e-5
-1.571, 3.715e-5
-1.572, 3.715e-5
-1.573, 3.715e-5
-1.574, 3.715e-5
-1.575, 3.715e-5
-1.576, 3.715e-5
-1.577, 4.024e-5
-1.578, 4.024e-5
-1.579, 4.024e-5
-1.580, 4.024e-5
-1.581, 4.024e-5
-1.582, 4.332e-5
-1.583, 4.024e-5
-1.584, 4.024e-5
-1.585, 4.332e-5
-1.586, 4.332e-5
-1.587, 4.332e-5
-1.588, 4.332e-5
-1.589, 4.332e-5
-1.590, 4.640e-5
-1.591, 4.332e-5
-1.592, 4.640e-5
-1.593, 4.640e-5
-1.594, 4.640e-5
-1.595, 4.640e-5
-1.596, 4.949e-5
-1.597, 4.949e-5
-1.598, 4.949e-5
-1.599, 4.949e-5
-1.600, 5.257e-5
-1.601, 5.257e-5
-1.602, 5.257e-5
-1.603, 5.257e-5
-1.604, 5.565e-5
-1.605, 5.257e-5
-1.606, 5.565e-5
-1.607, 5.565e-5
-1.608, 5.565e-5
-1.609, 5.873e-5
-1.610, 5.873e-5
-1.611, 5.873e-5
-1.612, 5.873e-5
-1.613, 6.182e-5
-1.614, 6.182e-5
-1.615, 6.182e-5
-1.616, 6.490e-5
-1.617, 6.490e-5
-1.618, 6.798e-5
-1.619, 6.798e-5
-1.620, 6.798e-5
-1.621, 6.798e-5
-1.622, 7.107e-5
-1.623, 7.107e-5
-1.624, 7.415e-5
-1.625, 7.415e-5
-1.626, 7.415e-5
-1.627, 7.723e-5
-1.628, 7.723e-5
-1.629, 8.032e-5
-1.630, 8.032e-5
-1.631, 8.340e-5
-1.632, 8.340e-5
-1.633, 8.340e-5
-1.634, 8.648e-5
-1.635, 8.648e-5
-1.636, 8.957e-5
-1.637, 8.957e-5
-1.638, 9.265e-5
-1.639, 9.573e-5
-1.640, 9.573e-5
-1.641, 9.882e-5
-1.642, 9.882e-5
-1.643, 1.019e-4
-1.644, 1.050e-4
-1.645, 1.050e-4
-1.646, 1.081e-4
-1.647, 1.111e-4
-1.648, 1.142e-4
-1.649, 1.142e-4
-1.650, 1.173e-4
-1.651, 1.173e-4
-1.652, 1.235e-4
-1.653, 1.235e-4
-1.654, 1.235e-4
-1.655, 1.296e-4
-1.656, 1.296e-4
-1.657, 1.327e-4
-1.658, 1.358e-4
-1.659, 1.389e-4
-1.660, 1.420e-4
-1.661, 1.451e-4
-1.662, 1.481e-4
-1.663, 1.512e-4
-1.664, 1.543e-4
-1.665, 1.574e-4
-1.666, 1.605e-4
-1.667, 1.636e-4
-1.668, 1.697e-4
-1.669, 1.728e-4
-1.670, 1.759e-4
-1.671, 1.790e-4
-1.672, 1.821e-4
-1.673, 1.882e-4
-1.674, 1.913e-4
-1.675, 1.975e-4
-1.676, 2.006e-4
-1.677, 2.036e-4
-1.678, 2.098e-4
-1.679, 2.129e-4
-1.680, 2.191e-4
-1.681, 2.221e-4
-1.682, 2.283e-4
-1.683, 2.314e-4
-1.684, 2.376e-4
-1.685, 2.437e-4
-1.686, 2.468e-4
-1.687, 2.530e-4
-1.688, 2.591e-4
-1.689, 2.653e-4
-1.690, 2.715e-4
-1.691, 2.776e-4
-1.692, 2.838e-4
-1.693, 2.900e-4
-1.694, 2.961e-4
-1.695, 3.023e-4
-1.696, 3.085e-4
-1.697, 3.146e-4
-1.698, 3.239e-4
-1.699, 3.300e-4
-1.700, 3.362e-4
-1.701, 3.455e-4
-1.702, 3.516e-4
-1.703, 3.609e-4
-1.704, 3.670e-4
-1.705, 3.763e-4
-1.706, 3.855e-4
-1.707, 3.948e-4
-1.708, 4.010e-4
-1.709, 4.102e-4
-1.710, 4.195e-4
-1.711, 4.287e-4
-1.712, 4.380e-4
-1.713, 4.472e-4
-1.714, 4.565e-4
-1.715, 4.657e-4
-1.716, 4.780e-4
-1.717, 4.904e-4
-1.718, 4.996e-4
-1.719, 5.089e-4
-1.720, 5.212e-4
-1.721, 5.335e-4
-1.722, 5.428e-4
-1.723, 5.551e-4
-1.724, 5.674e-4
-1.725, 5.798e-4
-1.726, 5.921e-4
-1.727, 6.044e-4
-1.728, 6.168e-4
-1.729, 6.291e-4
-1.730, 6.445e-4
-1.731, 6.569e-4
-1.732, 6.692e-4
-1.733, 6.846e-4
-1.734, 7.000e-4
-1.735, 7.154e-4
-1.736, 7.278e-4
-1.737, 7.432e-4
-1.738, 7.586e-4
-1.739, 7.740e-4
-1.740, 7.894e-4
-1.741, 8.048e-4
-1.742, 8.233e-4
-1.743, 8.388e-4
-1.744, 8.573e-4
-1.745, 8.758e-4
-1.746, 8.912e-4
-1.747, 9.097e-4
-1.748, 9.282e-4
-1.749, 9.467e-4
-1.750, 9.652e-4
-1.751, 9.837e-4
-1.752, 1.002e-3
-1.753, 1.021e-3
-1.754, 1.039e-3
-1.755, 1.061e-3
-1.756, 1.079e-3
-1.757, 1.098e-3
-1.758, 1.119e-3
-1.759, 1.141e-3
-1.760, 1.162e-3
-1.761, 1.184e-3
-1.762, 1.206e-3
-1.763, 1.227e-3
-1.764, 1.249e-3
-1.765, 1.270e-3
-1.766, 1.292e-3
-1.767, 1.317e-3
-1.768, 1.341e-3
-1.769, 1.366e-3
-1.770, 1.388e-3
-1.771, 1.412e-3
-1.772, 1.437e-3
-1.773, 1.462e-3
-1.774, 1.486e-3
-1.775, 1.511e-3
-1.776, 1.539e-3
-1.777, 1.563e-3
-1.778, 1.591e-3
-1.779, 1.616e-3
-1.780, 1.643e-3
-1.781, 1.671e-3
-1.782, 1.696e-3
-1.783, 1.727e-3
-1.784, 1.751e-3
-1.785, 1.782e-3
-1.786, 1.810e-3
-1.787, 1.838e-3
-1.788, 1.865e-3
-1.789, 1.896e-3
-1.790, 1.924e-3
-1.791, 1.955e-3
-1.792, 1.983e-3
-1.793, 2.013e-3
-1.794, 2.044e-3
-1.795, 2.075e-3
-1.796, 2.106e-3
-1.797, 2.137e-3
-1.798, 2.168e-3
-1.799, 2.198e-3
-1.800, 2.229e-3
-1.801, 2.263e-3
-1.802, 2.297e-3
-1.803, 2.328e-3
-1.804, 2.359e-3
-1.805, 2.393e-3
-1.806, 2.427e-3
-1.807, 2.460e-3
-1.808, 2.494e-3
-1.809, 2.528e-3
-1.810, 2.562e-3
-1.811, 2.596e-3
-1.812, 2.630e-3
-1.813, 2.664e-3
-1.814, 2.701e-3
-1.815, 2.735e-3
-1.816, 2.769e-3
-1.817, 2.806e-3
-1.818, 2.843e-3
-1.819, 2.880e-3
-1.820, 2.917e-3
-1.821, 2.951e-3
-1.822, 2.988e-3
-1.823, 3.025e-3
-1.824, 3.059e-3
-1.825, 3.099e-3
-1.826, 3.136e-3
-1.827, 3.176e-3
-1.828, 3.213e-3
-1.829, 3.250e-3
-1.830, 3.287e-3
-1.831, 3.327e-3
-1.832, 3.364e-3
-1.833, 3.404e-3
-1.834, 3.444e-3
-1.835, 3.481e-3
-1.836, 3.524e-3
-1.837, 3.561e-3
-1.838, 3.598e-3
-1.839, 3.641e-3
-1.840, 3.678e-3
-1.841, 3.718e-3
-1.842, 3.762e-3
-1.843, 3.802e-3
-1.844, 3.842e-3
-1.845, 3.882e-3
-1.846, 3.922e-3
-1.847, 3.965e-3
-1.848, 4.005e-3
-1.849, 4.048e-3
-1.850, 4.088e-3
-1.851, 4.132e-3
-1.852, 4.175e-3
-1.853, 4.215e-3
-1.854, 4.258e-3
-1.855, 4.298e-3
-1.856, 4.341e-3
-1.857, 4.381e-3
-1.858, 4.428e-3
-1.859, 4.471e-3
-1.860, 4.514e-3
-1.861, 4.554e-3
-1.862, 4.597e-3
-1.863, 4.640e-3
-1.864, 4.683e-3
-1.865, 4.730e-3
-1.866, 4.773e-3
-1.867, 4.819e-3
-1.868, 4.862e-3
-1.869, 4.905e-3
-1.870, 4.952e-3
-1.871, 4.995e-3
-1.872, 5.038e-3
-1.873, 5.081e-3
-1.874, 5.127e-3
-1.875, 5.174e-3
-1.876, 5.217e-3
-1.877, 5.266e-3
-1.878, 5.309e-3
-1.879, 5.356e-3
-1.880, 5.399e-3
-1.881, 5.445e-3
-1.882, 5.491e-3
-1.883, 5.534e-3
-1.884, 5.584e-3
-1.885, 5.630e-3
-1.886, 5.676e-3
-1.887, 5.722e-3
-1.888, 5.769e-3
-1.889, 5.815e-3
-1.890, 5.861e-3
-1.891, 5.904e-3
-1.892, 5.951e-3
-1.893, 6.000e-3
-1.894, 6.049e-3
-1.895, 6.095e-3
-1.896, 6.142e-3
-1.897, 6.188e-3
-1.898, 6.231e-3
-1.899, 6.280e-3
-1.900, 6.305e-3
-1.899, 6.284e-3
-1.898, 6.259e-3
-1.897, 6.231e-3
-1.896, 6.203e-3
-1.895, 6.173e-3
-1.894, 6.142e-3
-1.893, 6.114e-3
-1.892, 6.086e-3
-1.891, 6.058e-3
-1.890, 6.028e-3
-1.889, 5.997e-3
-1.888, 5.963e-3
-1.887, 5.929e-3
-1.886, 5.898e-3
-1.885, 5.870e-3
-1.884, 5.840e-3
-1.883, 5.809e-3
-1.882, 5.775e-3
-1.881, 5.741e-3
-1.880, 5.707e-3
-1.879, 5.673e-3
-1.878, 5.642e-3
-1.877, 5.611e-3
-1.876, 5.578e-3
-1.875, 5.541e-3
-1.874, 5.507e-3
-1.873, 5.476e-3
-1.872, 5.442e-3
-1.871, 5.411e-3
-1.870, 5.377e-3
-1.869, 5.343e-3
-1.868, 5.306e-3
-1.867, 5.272e-3
-1.866, 5.241e-3
-1.865, 5.208e-3
-1.864, 5.177e-3
-1.863, 5.143e-3
-1.862, 5.106e-3
-1.861, 5.075e-3
-1.860, 5.038e-3
-1.859, 5.007e-3
-1.858, 4.973e-3
-1.857, 4.942e-3
-1.856, 4.908e-3
-1.855, 4.875e-3
-1.854, 4.841e-3
-1.853, 4.807e-3
-1.852, 4.773e-3
-1.851, 4.739e-3
-1.850, 4.705e-3
-1.849, 4.674e-3
-1.848, 4.643e-3
-1.847, 4.609e-3
-1.846, 4.575e-3
-1.845, 4.542e-3
-1.844, 4.508e-3
-1.843, 4.474e-3
-1.842, 4.443e-3
-1.841, 4.412e-3
-1.840, 4.381e-3
-1.839, 4.347e-3
-1.838, 4.317e-3
-1.837, 4.283e-3
-1.836, 4.249e-3
-1.835, 4.218e-3
-1.834, 4.184e-3
-1.833, 4.153e-3
-1.832, 4.122e-3
-1.831, 4.091e-3
-1.830, 4.058e-3
-1.829, 4.027e-3
-1.828, 3.993e-3
-1.827, 3.962e-3
-1.826, 3.931e-3
-1.825, 3.897e-3
-1.824, 3.869e-3
-1.823, 3.839e-3
-1.822, 3.808e-3
-1.821, 3.777e-3
-1.820, 3.743e-3
-1.819, 3.712e-3
-1.818, 3.681e-3
-1.817, 3.651e-3
-1.816, 3.623e-3
-1.815, 3.592e-3
-1.814, 3.561e-3
-1.813, 3.533e-3
-1.812, 3.499e-3
-1.811, 3.472e-3
-1.810, 3.441e-3
-1.809, 3.410e-3
-1.808, 3.382e-3
-1.807, 3.355e-3
-1.806, 3.324e-3
-1.805, 3.296e-3
-1.804, 3.265e-3
-1.803, 3.237e-3
-1.802, 3.207e-3
-1.801, 3.179e-3
-1.800, 3.148e-3
-1.799, 3.120e-3
-1.798, 3.093e-3
-1.797, 3.065e-3
-1.796, 3.037e-3
-1.795, 3.006e-3
-1.794, 2.982e-3
-1.793, 2.951e-3
-1.792, 2.923e-3
-1.791, 2.895e-3
-1.790, 2.871e-3
-1.789, 2.843e-3
-1.788, 2.815e-3
-1.787, 2.787e-3
-1.786, 2.763e-3
-1.785, 2.735e-3
-1.784, 2.707e-3
-1.783, 2.682e-3
-1.782, 2.655e-3
-1.781, 2.630e-3
-1.780, 2.605e-3
-1.779, 2.578e-3
-1.778, 2.553e-3
-1.777, 2.525e-3
-1.776, 2.501e-3
-1.775, 2.476e-3
-1.774, 2.451e-3
-1.773, 2.427e-3
-1.772, 2.399e-3
-1.771, 2.377e-3
-1.770, 2.353e-3
-1.769, 2.325e-3
-1.768, 2.300e-3
-1.767, 2.279e-3
-1.766, 2.254e-3
-1.765, 2.229e-3
-1.764, 2.205e-3
-1.763, 2.183e-3
-1.762, 2.158e-3
-1.761, 2.134e-3
-1.760, 2.112e-3
-1.759, 2.087e-3
-1.758, 2.066e-3
-1.757, 2.044e-3
-1.756, 2.023e-3
-1.755, 1.998e-3
-1.754, 1.976e-3
-1.753, 1.952e-3
-1.752, 1.930e-3
-1.751, 1.909e-3
-1.750, 1.887e-3
-1.749, 1.865e-3
-1.748, 1.844e-3
-1.747, 1.822e-3
-1.746, 1.801e-3
-1.745, 1.782e-3
-1.744, 1.761e-3
-1.743, 1.739e-3
-1.742, 1.721e-3
-1.741, 1.699e-3
-1.740, 1.677e-3
-1.739, 1.659e-3
-1.738, 1.637e-3
-1.737, 1.619e-3
-1.736, 1.597e-3
-1.735, 1.579e-3
-1.734, 1.557e-3
-1.733, 1.539e-3
-1.732, 1.520e-3
-1.731, 1.502e-3
-1.730, 1.483e-3
-1.729, 1.465e-3
-1.728, 1.446e-3
-1.727, 1.428e-3
-1.726, 1.409e-3
-1.725, 1.391e-3
-1.724, 1.372e-3
-1.723, 1.357e-3
-1.722, 1.338e-3
-1.721, 1.320e-3
-1.720, 1.304e-3
-1.719, 1.286e-3
-1.718, 1.270e-3
-1.717, 1.252e-3
-1.716, 1.236e-3
-1.715, 1.218e-3
-1.714, 1.206e-3
-1.713, 1.187e-3
-1.712, 1.172e-3
-1.711, 1.156e-3
-1.710, 1.141e-3
-1.709, 1.122e-3
-1.708, 1.107e-3
-1.707, 1.092e-3
-1.706, 1.079e-3
-1.705, 1.064e-3
-1.704, 1.048e-3
-1.703, 1.033e-3
-1.702, 1.018e-3
-1.701, 1.002e-3
-1.700, 9.898e-4
-1.699, 9.744e-4
-1.698, 9.621e-4
-1.697, 9.467e-4
-1.696, 9.343e-4
-1.695, 9.189e-4
-1.694, 9.066e-4
-1.693, 8.912e-4
-1.692, 8.788e-4
-1.691, 8.665e-4
-1.690, 8.542e-4
-1.689, 8.418e-4
-1.688, 8.264e-4
-1.687, 8.141e-4
-1.686, 8.018e-4
-1.685, 7.894e-4
-1.684, 7.771e-4
-1.683, 7.648e-4
-1.682, 7.524e-4
-1.681, 7.432e-4
-1.680, 7.309e-4
-1.679, 7.185e-4
-1.678, 7.062e-4
-1.677, 6.969e-4
-1.676, 6.846e-4
-1.675, 6.754e-4
-1.674, 6.630e-4
-1.673, 6.538e-4
-1.672, 6.414e-4
-1.671, 6.322e-4
-1.670, 6.229e-4
-1.669, 6.106e-4
-1.668, 6.014e-4
-1.667, 5.921e-4
-1.666, 5.829e-4
-1.665, 5.705e-4
-1.664, 5.613e-4
-1.663, 5.520e-4
-1.662, 5.428e-4
-1.661, 5.335e-4
-1.660, 5.243e-4
-1.659, 5.150e-4
-1.658, 5.089e-4
-1.657, 4.996e-4
-1.656, 4.904e-4
-1.655, 4.811e-4
-1.654, 4.719e-4
-1.653, 4.626e-4
-1.652, 4.565e-4
-1.651, 4.472e-4
-1.650, 4.410e-4
-1.649, 4.318e-4
-1.648, 4.256e-4
-1.647, 4.164e-4
-1.646, 4.102e-4
-1.645, 4.010e-4
-1.644, 3.948e-4
-1.643, 3.886e-4
-1.642, 3.794e-4
-1.641, 3.732e-4
-1.640, 3.670e-4
-1.639, 3.609e-4
-1.638, 3.516e-4
-1.637, 3.455e-4
-1.636, 3.393e-4
-1.635, 3.331e-4
-1.634, 3.270e-4
-1.633, 3.208e-4
-1.632, 3.146e-4
-1.631, 3.085e-4
-1.630, 3.023e-4
-1.629, 2.961e-4
-1.628, 2.931e-4
-1.627, 2.838e-4
-1.626, 2.807e-4
-1.625, 2.746e-4
-1.624, 2.684e-4
-1.623, 2.622e-4
-1.622, 2.591e-4
-1.621, 2.530e-4
-1.620, 2.499e-4
-1.619, 2.437e-4
-1.618, 2.376e-4
-1.617, 2.345e-4
-1.616, 2.283e-4
-1.615, 2.252e-4
-1.614, 2.191e-4
-1.613, 2.160e-4
-1.612, 2.129e-4
-1.611, 2.067e-4
-1.610, 2.036e-4
-1.609, 1.975e-4
-1.608, 1.944e-4
-1.607, 1.913e-4
-1.606, 1.882e-4
-1.605, 1.821e-4
-1.604, 1.790e-4
-1.603, 1.759e-4
-1.602, 1.697e-4
-1.601, 1.666e-4
-1.600, 1.636e-4
-1.599, 1.605e-4
-1.598, 1.574e-4
-1.597, 1.543e-4
-1.596, 1.512e-4
-1.595, 1.481e-4
-1.594, 1.451e-4
-1.593, 1.420e-4
-1.592, 1.389e-4
-1.591, 1.358e-4
-1.590, 1.327e-4
-1.589, 1.296e-4
-1.588, 1.266e-4
-1.587, 1.235e-4
-1.586, 1.204e-4
-1.585, 1.173e-4
-1.584, 1.142e-4
-1.583, 1.142e-4
-1.582, 1.111e-4
-1.581, 1.081e-4
-1.580, 1.050e-4
-1.579, 1.019e-4
-1.578, 1.019e-4
-1.577, 9.882e-5
-1.576, 9.573e-5
-1.575, 9.265e-5
-1.574, 9.265e-5
-1.573, 8.957e-5
-1.572, 8.648e-5
-1.571, 8.648e-5
-1.570, 8.340e-5
-1.569, 8.340e-5
-1.568, 8.032e-5
-1.567, 7.723e-5
-1.566, 7.415e-5
-1.565, 7.415e-5
-1.564, 7.415e-5
-1.563, 7.107e-5
-1.562, 7.107e-5
-1.561, 6.798e-5
-1.560, 6.798e-5
-1.559, 6.490e-5
-1.558, 6.490e-5
-1.557, 6.182e-5
-1.556, 5.873e-5
-1.555, 5.873e-5
-1.554, 5.565e-5
-1.553, 5.565e-5
-1.552, 5.565e-5
-1.551, 5.257e-5
-1.550, 5.257e-5
-1.549, 4.949e-5
-1.548, 4.949e-5
-1.547, 4.640e-5
-1.546, 4.949e-5
-1.545, 4.640e-5
-1.544, 4.640e-5
-1.543, 4.332e-5
-1.542, 4.332e-5
-1.541, 4.332e-5
-1.540, 4.024e-5
-1.539, 4.024e-5
-1.538, 3.715e-5
-1.537, 3.715e-5
-1.536, 3.715e-5
-1.535, 3.715e-5
-1.534, 3.407e-5
-1.533, 3.407e-5
-1.532, 3.099e-5
-1.531, 3.407e-5
-1.530, 3.099e-5
-1.529, 3.099e-5
-1.528, 3.099e-5
-1.527, 2.790e-5
-1.526, 2.790e-5
-1.525, 2.790e-5
-1.524, 2.790e-5
-1.523, 2.790e-5
-1.522, 2.482e-5
-1.521, 2.482e-5
-1.520, 2.482e-5
-1.519, 2.482e-5
-1.518, 2.174e-5
-1.517, 2.174e-5
-1.516, 2.174e-5
-1.515, 2.174e-5
-1.514, 1.865e-5
-1.513, 1.865e-5
-1.512, 1.865e-5
-1.511, 1.865e-5
-1.510, 1.865e-5
-1.509, 1.557e-5
-1.508, 1.557e-5
-1.507, 1.557e-5
-1.506, 1.557e-5
-1.505, 1.557e-5
-1.504, 1.557e-5
-1.503, 1.557e-5
-1.502, 1.557e-5
-1.501, 1.249e-5
-1.500, 1.249e-5
-1.499, 1.249e-5
-1.498, 1.557e-5
-1.497, 1.249e-5
-1.496, 1.249e-5
-1.495, 9.405e-6
-1.494, 9.405e-6
-1.493, 9.405e-6
-1.492, 9.405e-6
-1.491, 9.405e-6
-1.490, 9.405e-6
-1.489, 9.405e-6
-1.488, 9.405e-6
-1.487, 9.405e-6
-1.486, 9.405e-6
-1.485, 6.322e-6
-1.484, 6.322e-6
-1.483, 6.322e-6
-1.482, 6.322e-6
-1.481, 6.322e-6
-1.480, 6.322e-6
-1.479, 6.322e-6
-1.478, 3.239e-6
-1.477, 6.322e-6
-1.476, 3.239e-6
-1.475, 6.322e-6
-1.474, 3.239e-6
-1.473, 6.322e-6
-1.472, 3.239e-6
-1.471, 3.239e-6
-1.470, 3.239e-6
-1.469, 3.239e-6
-1.468, 3.239e-6
-1.467, 3.239e-6
-1.466, 3.239e-6
-1.465, 3.239e-6
-1.464, 3.239e-6
-1.463, 3.239e-6
-1.462, 3.239e-6
-1.461, 3.239e-6
-1.460, 1.559e-7
-1.459, 3.239e-6
-1.458, 1.559e-7
-1.457, 1.559e-7
-1.456, 3.239e-6
-1.455, 1.559e-7
-1.454, 1.559e-7
-1.453, 1.559e-7
-1.452, 3.239e-6
-1.451, 1.559e-7
-1.450, 1.559e-7
-1.449, 1.559e-7
-1.448, 1.559e-7
-1.447, 1.559e-7
-1.446, 1.559e-7
-1.445, 1.559e-7
-1.444, 1.559e-7
-1.443, 1.559e-7
-1.442, 1.559e-7
-1.441, 1.559e-7
-1.440, 1.559e-7
-1.439, 1.559e-7
-1.438, 1.559e-7
-1.437, 1.559e-7
-1.436, 1.559e-7
-1.435, 1.559e-7
-1.434, -2.927e-6
-1.433, 1.559e-7
-1.432, 1.559e-7
-1.431, 1.559e-7
-1.430, -2.927e-6
-1.429, -2.927e-6
-1.428, -2.927e-6
-1.427, 1.559e-7
-1.426, -2.927e-6
-1.425, -2.927e-6
-1.424, -2.927e-6
-1.423, -2.927e-6
-1.422, -2.927e-6
-1.421, -2.927e-6
-1.420, -2.927e-6
-1.419, -2.927e-6
-1.418, -2.927e-6
-1.417, -2.927e-6
-1.416, -2.927e-6
-1.415, -2.927e-6
-1.414, -2.927e-6
-1.413, -2.927e-6
-1.412, -2.927e-6
-1.411, -2.927e-6
-1.410, -2.927e-6
-1.409, -2.927e-6
-1.408, -2.927e-6
-1.407, -2.927e-6
-1.406, -2.927e-6
-1.405, -2.927e-6
-1.404, -2.927e-6
-1.403, -2.927e-6
-1.402, -2.927e-6
-1.401, -2.927e-6
-1.400, -2.927e-6
-1.399, -2.927e-6
-1.398, -2.927e-6
-1.397, -2.927e-6
-1.396, -2.927e-6
-1.395, -2.927e-6
-1.394, -2.927e-6
-1.393, -2.927e-6
-1.392, -2.927e-6
-1.391, -6.010e-6
-1.390, -2.927e-6
-1.389, -2.927e-6
-1.388, -2.927e-6
-1.387, -6.010e-6
-1.386, -2.927e-6
-1.385, -2.927e-6
-1.384, -2.927e-6
-1.383, -2.927e-6
-1.382, -6.010e-6
-1.381, -2.927e-6
-1.380, -2.927e-6
-1.379, -6.010e-6
-1.378, -6.010e-6
-1.377, -2.927e-6
-1.376, -2.927e-6
-1.375, -6.010e-6
-1.374, -6.010e-6
-1.373, -6.010e-6
-1.372, -6.010e-6
-1.371, -6.010e-6
-1.370, -6.010e-6
-1.369, -6.010e-6
-1.368, -6.010e-6
-1.367, -2.927e-6
-1.366, -6.010e-6
-1.365, -2.927e-6
-1.364, -6.010e-6
-1.363, -6.010e-6
-1.362, -6.010e-6
-1.361, -6.010e-6
-1.360, -2.927e-6
-1.359, -6.010e-6
-1.358, -6.010e-6
-1.357, -6.010e-6
-1.356, -2.927e-6
-1.355, -6.010e-6
-1.354, -6.010e-6
-1.353, -6.010e-6
-1.352, -6.010e-6
-1.351, -6.010e-6
-1.350, -6.010e-6
-1.349, -6.010e-6
-1.348, -6.010e-6
-1.347, -6.010e-6
-1.346, -6.010e-6
-1.345, -6.010e-6
-1.344, -6.010e-6
-1.343, -6.010e-6
-1.342, -6.010e-6
-1.341, -6.010e-6
-1.340, -6.010e-6
-1.339, -6.010e-6
-1.338, -6.010e-6
-1.337, -6.010e-6
-1.336, -6.010e-6
-1.335, -6.010e-6
-1.334, -6.010e-6
-1.333, -6.010e-6
-1.332, -6.010e-6
-1.331, -6.010e-6
-1.330, -6.010e-6
-1.329, -6.010e-6
-1.328, -6.010e-6
-1.327, -6.010e-6
-1.326, -6.010e-6
-1.325, -6.010e-6
-1.324, -6.010e-6
-1.323, -6.010e-6
-1.322, -6.010e-6
-1.321, -6.010e-6
-1.320, -6.010e-6
-1.319, -6.010e-6
-1.318, -6.010e-6
-1.317, -6.010e-6
-1.316, -6.010e-6
-1.315, -6.010e-6
-1.314, -6.010e-6
-1.313, -6.010e-6
-1.312, -6.010e-6
-1.311, -6.010e-6
-1.310, -6.010e-6
-1.309, -6.010e-6
-1.308, -6.010e-6
-1.307, -6.010e-6
-1.306, -6.010e-6
-1.305, -6.010e-6
-1.304, -6.010e-6
-1.303, -6.010e-6
-1.302, -6.010e-6
-1.301, -6.010e-6
-1.300, -6.010e-6
-1.299, -6.010e-6
-1.298, -6.010e-6
-1.297, -6.010e-6
-1.296, -6.010e-6
-1.295, -6.010e-6
-1.294, -6.010e-6
-1.293, -6.010e-6
-1.292, -6.010e-6
-1.291, -6.010e-6
-1.290, -6.010e-6
-1.289, -6.010e-6
-1.288, -6.010e-6
-1.287, -6.010e-6
-1.286, -6.010e-6
-1.285, -6.010e-6
-1.284, -6.010e-6
-1.283, -6.010e-6
-1.282, -6.010e-6
-1.281, -6.010e-6
-1.280, -6.010e-6
-1.279, -6.010e-6
-1.278, -6.010e-6
-1.277, -6.010e-6
-1.276, -6.010e-6
-1.275, -6.010e-6
-1.274, -6.010e-6
-1.273, -6.010e-6
-1.272, -6.010e-6
-1.271, -6.010e-6
-1.270, -6.010e-6
-1.269, -6.010e-6
-1.268, -6.010e-6
-1.267, -6.010e-6
-1.266, -6.010e-6
-1.265, -6.010e-6
-1.264, -6.010e-6
-1.263, -6.010e-6
-1.262, -6.010e-6
-1.261, -6.010e-6
-1.260, -6.010e-6
-1.259, -6.010e-6
-1.258, -6.010e-6
-1.257, -6.010e-6
-1.256, -6.010e-6
-1.255, -6.010e-6
-1.254, -6.010e-6
-1.253, -6.010e-6
-1.252, -6.010e-6
-1.251, -6.010e-6
-1.250, -6.010e-6
-1.249, -6.010e-6
-1.248, -6.010e-6
-1.247, -6.010e-6
-1.246, -6.010e-6
-1.245, -6.010e-6
-1.244, -6.010e-6
-1.243, -6.010e-6
-1.242, -6.010e-6
-1.241, -6.010e-6
-1.240, -6.010e-6
-1.239, -6.010e-6
-1.238, -6.010e-6
-1.237, -6.010e-6
-1.236, -6.010e-6
-1.235, -6.010e-6
-1.234, -6.010e-6
-1.233, -6.010e-6
-1.232, -6.010e-6
-1.231, -6.010e-6
-1.230, -6.010e-6
-1.229, -6.010e-6
-1.228, -6.010e-6
-1.227, -6.010e-6
-1.226, -6.010e-6
-1.225, -6.010e-6
-1.224, -6.010e-6
-1.223, -6.010e-6
-1.222, -6.010e-6
-1.221, -6.010e-6
-1.220, -6.010e-6
-1.219, -6.010e-6
-1.218, -6.010e-6
-1.217, -6.010e-6
-1.216, -6.010e-6
-1.215, -6.010e-6
-1.214, -9.093e-6
-1.213, -6.010e-6
-1.212, -6.010e-6
-1.211, -6.010e-6
-1.210, -6.010e-6
-1.209, -9.093e-6
-1.208, -6.010e-6
-1.207, -6.010e-6
-1.206, -6.010e-6
-1.205, -9.093e-6
-1.204, -6.010e-6
-1.203, -6.010e-6
-1.202, -6.010e-6
-1.201, -6.010e-6
-1.200, -6.010e-6
-1.199, -9.093e-6
-1.198, -6.010e-6
-1.197, -6.010e-6
-1.196, -6.010e-6
-1.195, -6.010e-6
-1.194, -9.093e-6
-1.193, -9.093e-6
-1.192, -6.010e-6
-1.191, -6.010e-6
-1.190, -6.010e-6
-1.189, -6.010e-6
-1.188, -6.010e-6
-1.187, -9.093e-6
-1.186, -6.010e-6
-1.185, -6.010e-6
-1.184, -6.010e-6
-1.183, -6.010e-6
-1.182, -6.010e-6
-1.181, -6.010e-6
-1.180, -9.093e-6
-1.179, -9.093e-6
-1.178, -9.093e-6
-1.177, -6.010e-6
-1.176, -6.010e-6
-1.175, -9.093e-6
-1.174, -9.093e-6
-1.173, -6.010e-6
-1.172, -6.010e-6
-1.171, -9.093e-6
-1.170, -6.010e-6
-1.169, -9.093e-6
-1.168, -6.010e-6
-1.167, -9.093e-6
-1.166, -6.010e-6
-1.165, -6.010e-6
-1.164, -9.093e-6
-1.163, -6.010e-6
-1.162, -6.010e-6
-1.161, -9.093e-6
-1.160, -9.093e-6
-1.159, -6.010e-6
-1.158, -6.010e-6
-1.157, -9.093e-6
-1.156, -6.010e-6
-1.155, -9.093e-6
-1.154, -6.010e-6
-1.153, -9.093e-6
-1.152, -6.010e-6
-1.151, -6.010e-6
-1.150, -6.010e-6
-1.149, -9.093e-6
-1.148, -9.093e-6
-1.147, -6.010e-6
-1.146, -9.093e-6
-1.145, -9.093e-6
-1.144, -9.093e-6
-1.143, -9.093e-6
-1.142, -6.010e-6
-1.141, -9.093e-6
-1.140, -9.093e-6
-1.139, -9.093e-6
-1.138, -6.010e-6
-1.137, -9.093e-6
-1.136, -9.093e-6
-1.135, -6.010e-6
-1.134, -9.093e-6
-1.133, -6.010e-6
-1.132, -9.093e-6
-1.131, -6.010e-6
-1.130, -9.093e-6
-1.129, -9.093e-6
-1.128, -9.093e-6
-1.127, -9.093e-6
-1.126, -6.010e-6
-1.125, -9.093e-6
-1.124, -6.010e-6
-1.123, -9.093e-6
-1.122, -9.093e-6
-1.121, -9.093e-6
-1.120, -9.093e-6
-1.119, -6.010e-6
-1.118, -9.093e-6
-1.117, -6.010e-6
-1.116, -9.093e-6
-1.115, -6.010e-6
-1.114, -9.093e-6
-1.113, -9.093e-6
-1.112, -9.093e-6
-1.111, -9.093e-6
-1.110, -9.093e-6
-1.109, -9.093e-6
-1.108, -9.093e-6
-1.107, -9.093e-6
-1.106, -6.010e-6
-1.105, -9.093e-6
-1.104, -9.093e-6
-1.103, -9.093e-6
-1.102, -9.093e-6
-1.101, -6.010e-6
-1.100, -9.093e-6
-1.099, -9.093e-6
-1.098, -6.010e-6
-1.097, -9.093e-6
-1.096, -9.093e-6
-1.095, -9.093e-6
-1.094, -9.093e-6
-1.093, -9.093e-6
-1.092, -6.010e-6
-1.091, -9.093e-6
-1.090, -9.093e-6
-1.089, -9.093e-6
-1.088, -9.093e-6
-1.087, -9.093e-6
-1.086, -9.093e-6
-1.085, -9.093e-6
-1.084, -9.093e-6
-1.083, -9.093e-6
-1.082, -9.093e-6
-1.081, -9.093e-6
-1.080, -9.093e-6
-1.079, -9.093e-6
-1.078, -6.010e-6
-1.077, -9.093e-6
-1.076, -9.093e-6
-1.075, -9.093e-6
-1.074, -9.093e-6
-1.073, -6.010e-6
-1.072, -9.093e-6
-1.071, -6.010e-6
-1.070, -9.093e-6
-1.069, -9.093e-6
-1.068, -9.093e-6
-1.067, -9.093e-6
-1.066, -9.093e-6
-1.065, -9.093e-6
-1.064, -9.093e-6
-1.063, -9.093e-6
-1.062, -9.093e-6
-1.061, -9.093e-6
-1.060, -9.093e-6
-1.059, -9.093e-6
-1.058, -9.093e-6
-1.057, -9.093e-6
-1.056, -9.093e-6
-1.055, -9.093e-6
-1.054, -9.093e-6
-1.053, -9.093e-6
-1.052, -9.093e-6
-1.051, -9.093e-6
-1.050, -9.093e-6
-1.049, -9.093e-6
-1.048, -9.093e-6
-1.047, -9.093e-6
-1.046, -9.093e-6
-1.045, -9.093e-6
-1.044, -9.093e-6
-1.043, -9.093e-6
-1.042, -9.093e-6
-1.041, -9.093e-6
-1.040, -9.093e-6
-1.039, -9.093e-6
-1.038, -9.093e-6
-1.037, -9.093e-6
-1.036, -9.093e-6
-1.035, -9.093e-6
-1.034, -9.093e-6
-1.033, -9.093e-6
-1.032, -9.093e-6
-1.031, -9.093e-6
-1.030, -9.093e-6
-1.029, -9.093e-6
-1.028, -9.093e-6
-1.027, -9.093e-6
-1.026, -9.093e-6
-1.025, -9.093e-6
-1.024, -9.093e-6
-1.023, -9.093e-6
-1.022, -9.093e-6
-1.021, -9.093e-6
-1.020, -9.093e-6
-1.019, -9.093e-6
-1.018, -9.093e-6
-1.017, -9.093e-6
-1.016, -9.093e-6
-1.015, -9.093e-6
-1.014, -9.093e-6
-1.013, -9.093e-6
-1.012, -9.093e-6
-1.011, -9.093e-6
-1.010, -9.093e-6
-1.009, -9.093e-6
-1.008, -9.093e-6
-1.007, -9.093e-6
-1.006, -9.093e-6
-1.005, -9.093e-6
-1.004, -9.093e-6
-1.003, -9.093e-6
-1.002, -9.093e-6
-1.001, -9.093e-6
