Mar. 9, 2025   05:10:03
Cyclic Voltammetry
File: c:/users/guazh/data/banditlqround7_x0exp169_r20_3/2025-03-03-exp915\exp915-2025-03-09t04_50_24-arkoh\exp915_cv_sr_600mvs_efin_-1700mv.bin
Data Source:  Experiment
Instrument Model:  CHI760E
Header: CV ran at 600 mVs
Note: 

Init E (V) = -1
High E (V) = -1
Low E (V) = -1.7
Final E (V) = -1
Init P/N = N
Scan Rate (V/s) = 0.6
Segment = 3
Sample Interval (V) = 0.001
Quiet Time (sec) = 2
Sensitivity (A/V) = 0.01
Comp R (ohm) = 1.4

Results:

Channel 1:
Segment 1:

Segment 2:

Segment 3:

Potential/V, Current/A

-1.000, 2.482e-5
-1.001, 9.882e-5
-1.002, 1.543e-4
-1.003, 1.944e-4
-1.004, 2.252e-4
-1.005, 2.530e-4
-1.006, 2.715e-4
-1.007, 2.900e-4
-1.008, 3.054e-4
-1.009, 3.208e-4
-1.010, 3.331e-4
-1.011, 3.424e-4
-1.012, 3.516e-4
-1.013, 3.578e-4
-1.014, 3.640e-4
-1.015, 3.670e-4
-1.016, 3.701e-4
-1.017, 3.763e-4
-1.018, 3.763e-4
-1.019, 3.825e-4
-1.020, 3.855e-4
-1.021, 3.855e-4
-1.022, 3.886e-4
-1.023, 3.917e-4
-1.024, 3.948e-4
-1.025, 3.979e-4
-1.026, 3.979e-4
-1.027, 4.010e-4
-1.028, 4.040e-4
-1.029, 4.040e-4
-1.030, 4.071e-4
-1.031, 4.102e-4
-1.032, 4.102e-4
-1.033, 4.133e-4
-1.034, 4.133e-4
-1.035, 4.133e-4
-1.036, 4.133e-4
-1.037, 4.133e-4
-1.038, 4.133e-4
-1.039, 4.164e-4
-1.040, 4.164e-4
-1.041, 4.195e-4
-1.042, 4.195e-4
-1.043, 4.225e-4
-1.044, 4.225e-4
-1.045, 4.195e-4
-1.046, 4.195e-4
-1.047, 4.195e-4
-1.048, 4.225e-4
-1.049, 4.225e-4
-1.050, 4.256e-4
-1.051, 4.256e-4
-1.052, 4.287e-4
-1.053, 4.287e-4
-1.054, 4.287e-4
-1.055, 4.287e-4
-1.056, 4.287e-4
-1.057, 4.287e-4
-1.058, 4.287e-4
-1.059, 4.318e-4
-1.060, 4.318e-4
-1.061, 4.349e-4
-1.062, 4.349e-4
-1.063, 4.349e-4
-1.064, 4.349e-4
-1.065, 4.318e-4
-1.066, 4.287e-4
-1.067, 4.318e-4
-1.068, 4.287e-4
-1.069, 4.318e-4
-1.070, 4.349e-4
-1.071, 4.349e-4
-1.072, 4.349e-4
-1.073, 4.349e-4
-1.074, 4.349e-4
-1.075, 4.349e-4
-1.076, 4.349e-4
-1.077, 4.349e-4
-1.078, 4.349e-4
-1.079, 4.349e-4
-1.080, 4.349e-4
-1.081, 4.380e-4
-1.082, 4.380e-4
-1.083, 4.380e-4
-1.084, 4.380e-4
-1.085, 4.380e-4
-1.086, 4.349e-4
-1.087, 4.349e-4
-1.088, 4.349e-4
-1.089, 4.380e-4
-1.090, 4.380e-4
-1.091, 4.410e-4
-1.092, 4.410e-4
-1.093, 4.410e-4
-1.094, 4.410e-4
-1.095, 4.380e-4
-1.096, 4.380e-4
-1.097, 4.380e-4
-1.098, 4.380e-4
-1.099, 4.380e-4
-1.100, 4.410e-4
-1.101, 4.410e-4
-1.102, 4.410e-4
-1.103, 4.410e-4
-1.104, 4.380e-4
-1.105, 4.380e-4
-1.106, 4.380e-4
-1.107, 4.380e-4
-1.108, 4.380e-4
-1.109, 4.380e-4
-1.110, 4.380e-4
-1.111, 4.410e-4
-1.112, 4.410e-4
-1.113, 4.410e-4
-1.114, 4.410e-4
-1.115, 4.380e-4
-1.116, 4.380e-4
-1.117, 4.380e-4
-1.118, 4.380e-4
-1.119, 4.380e-4
-1.120, 4.380e-4
-1.121, 4.410e-4
-1.122, 4.380e-4
-1.123, 4.380e-4
-1.124, 4.380e-4
-1.125, 4.349e-4
-1.126, 4.349e-4
-1.127, 4.349e-4
-1.128, 4.318e-4
-1.129, 4.349e-4
-1.130, 4.380e-4
-1.131, 4.380e-4
-1.132, 4.380e-4
-1.133, 4.380e-4
-1.134, 4.380e-4
-1.135, 4.349e-4
-1.136, 4.349e-4
-1.137, 4.349e-4
-1.138, 4.349e-4
-1.139, 4.349e-4
-1.140, 4.349e-4
-1.141, 4.349e-4
-1.142, 4.349e-4
-1.143, 4.349e-4
-1.144, 4.318e-4
-1.145, 4.318e-4
-1.146, 4.287e-4
-1.147, 4.287e-4
-1.148, 4.287e-4
-1.149, 4.287e-4
-1.150, 4.287e-4
-1.151, 4.318e-4
-1.152, 4.287e-4
-1.153, 4.287e-4
-1.154, 4.287e-4
-1.155, 4.287e-4
-1.156, 4.256e-4
-1.157, 4.256e-4
-1.158, 4.256e-4
-1.159, 4.256e-4
-1.160, 4.256e-4
-1.161, 4.287e-4
-1.162, 4.256e-4
-1.163, 4.256e-4
-1.164, 4.256e-4
-1.165, 4.225e-4
-1.166, 4.225e-4
-1.167, 4.225e-4
-1.168, 4.195e-4
-1.169, 4.195e-4
-1.170, 4.195e-4
-1.171, 4.225e-4
-1.172, 4.225e-4
-1.173, 4.225e-4
-1.174, 4.195e-4
-1.175, 4.195e-4
-1.176, 4.195e-4
-1.177, 4.164e-4
-1.178, 4.195e-4
-1.179, 4.195e-4
-1.180, 4.195e-4
-1.181, 4.225e-4
-1.182, 4.195e-4
-1.183, 4.195e-4
-1.184, 4.195e-4
-1.185, 4.195e-4
-1.186, 4.164e-4
-1.187, 4.133e-4
-1.188, 4.133e-4
-1.189, 4.164e-4
-1.190, 4.133e-4
-1.191, 4.164e-4
-1.192, 4.133e-4
-1.193, 4.133e-4
-1.194, 4.102e-4
-1.195, 4.102e-4
-1.196, 4.102e-4
-1.197, 4.102e-4
-1.198, 4.133e-4
-1.199, 4.133e-4
-1.200, 4.133e-4
-1.201, 4.164e-4
-1.202, 4.133e-4
-1.203, 4.133e-4
-1.204, 4.133e-4
-1.205, 4.133e-4
-1.206, 4.102e-4
-1.207, 4.102e-4
-1.208, 4.102e-4
-1.209, 4.102e-4
-1.210, 4.102e-4
-1.211, 4.133e-4
-1.212, 4.102e-4
-1.213, 4.102e-4
-1.214, 4.102e-4
-1.215, 4.071e-4
-1.216, 4.071e-4
-1.217, 4.102e-4
-1.218, 4.102e-4
-1.219, 4.102e-4
-1.220, 4.164e-4
-1.221, 4.164e-4
-1.222, 4.164e-4
-1.223, 4.164e-4
-1.224, 4.133e-4
-1.225, 4.133e-4
-1.226, 4.102e-4
-1.227, 4.133e-4
-1.228, 4.133e-4
-1.229, 4.164e-4
-1.230, 4.164e-4
-1.231, 4.164e-4
-1.232, 4.195e-4
-1.233, 4.195e-4
-1.234, 4.195e-4
-1.235, 4.195e-4
-1.236, 4.164e-4
-1.237, 4.164e-4
-1.238, 4.164e-4
-1.239, 4.164e-4
-1.240, 4.164e-4
-1.241, 4.164e-4
-1.242, 4.164e-4
-1.243, 4.164e-4
-1.244, 4.195e-4
-1.245, 4.195e-4
-1.246, 4.195e-4
-1.247, 4.225e-4
-1.248, 4.256e-4
-1.249, 4.256e-4
-1.250, 4.287e-4
-1.251, 4.318e-4
-1.252, 4.318e-4
-1.253, 4.318e-4
-1.254, 4.318e-4
-1.255, 4.318e-4
-1.256, 4.318e-4
-1.257, 4.318e-4
-1.258, 4.318e-4
-1.259, 4.318e-4
-1.260, 4.349e-4
-1.261, 4.349e-4
-1.262, 4.380e-4
-1.263, 4.410e-4
-1.264, 4.410e-4
-1.265, 4.410e-4
-1.266, 4.441e-4
-1.267, 4.472e-4
-1.268, 4.503e-4
-1.269, 4.565e-4
-1.270, 4.595e-4
-1.271, 4.626e-4
-1.272, 4.626e-4
-1.273, 4.626e-4
-1.274, 4.595e-4
-1.275, 4.565e-4
-1.276, 4.565e-4
-1.277, 4.534e-4
-1.278, 4.534e-4
-1.279, 4.565e-4
-1.280, 4.595e-4
-1.281, 4.595e-4
-1.282, 4.595e-4
-1.283, 4.626e-4
-1.284, 4.626e-4
-1.285, 4.657e-4
-1.286, 4.688e-4
-1.287, 4.719e-4
-1.288, 4.750e-4
-1.289, 4.811e-4
-1.290, 4.873e-4
-1.291, 4.935e-4
-1.292, 4.996e-4
-1.293, 5.027e-4
-1.294, 5.058e-4
-1.295, 5.089e-4
-1.296, 5.089e-4
-1.297, 5.120e-4
-1.298, 5.120e-4
-1.299, 5.150e-4
-1.300, 5.181e-4
-1.301, 5.212e-4
-1.302, 5.212e-4
-1.303, 5.243e-4
-1.304, 5.243e-4
-1.305, 5.243e-4
-1.306, 5.243e-4
-1.307, 5.243e-4
-1.308, 5.274e-4
-1.309, 5.335e-4
-1.310, 5.366e-4
-1.311, 5.397e-4
-1.312, 5.428e-4
-1.313, 5.459e-4
-1.314, 5.459e-4
-1.315, 5.489e-4
-1.316, 5.551e-4
-1.317, 5.582e-4
-1.318, 5.613e-4
-1.319, 5.674e-4
-1.320, 5.736e-4
-1.321, 5.829e-4
-1.322, 5.890e-4
-1.323, 5.921e-4
-1.324, 5.983e-4
-1.325, 6.014e-4
-1.326, 6.044e-4
-1.327, 6.106e-4
-1.328, 6.137e-4
-1.329, 6.199e-4
-1.330, 6.260e-4
-1.331, 6.291e-4
-1.332, 6.353e-4
-1.333, 6.414e-4
-1.334, 6.445e-4
-1.335, 6.476e-4
-1.336, 6.538e-4
-1.337, 6.569e-4
-1.338, 6.630e-4
-1.339, 6.692e-4
-1.340, 6.784e-4
-1.341, 6.815e-4
-1.342, 6.877e-4
-1.343, 6.939e-4
-1.344, 7.000e-4
-1.345, 7.062e-4
-1.346, 7.093e-4
-1.347, 7.154e-4
-1.348, 7.216e-4
-1.349, 7.278e-4
-1.350, 7.339e-4
-1.351, 7.432e-4
-1.352, 7.494e-4
-1.353, 7.586e-4
-1.354, 7.648e-4
-1.355, 7.679e-4
-1.356, 7.740e-4
-1.357, 7.833e-4
-1.358, 7.925e-4
-1.359, 8.018e-4
-1.360, 8.079e-4
-1.361, 8.203e-4
-1.362, 8.264e-4
-1.363, 8.357e-4
-1.364, 8.418e-4
-1.365, 8.480e-4
-1.366, 8.573e-4
-1.367, 8.634e-4
-1.368, 8.727e-4
-1.369, 8.819e-4
-1.370, 8.912e-4
-1.371, 9.035e-4
-1.372, 9.097e-4
-1.373, 9.189e-4
-1.374, 9.251e-4
-1.375, 9.343e-4
-1.376, 9.405e-4
-1.377, 9.498e-4
-1.378, 9.559e-4
-1.379, 9.683e-4
-1.380, 9.775e-4
-1.381, 9.868e-4
-1.382, 9.991e-4
-1.383, 1.011e-3
-1.384, 1.021e-3
-1.385, 1.030e-3
-1.386, 1.039e-3
-1.387, 1.048e-3
-1.388, 1.061e-3
-1.389, 1.073e-3
-1.390, 1.085e-3
-1.391, 1.098e-3
-1.392, 1.110e-3
-1.393, 1.122e-3
-1.394, 1.135e-3
-1.395, 1.144e-3
-1.396, 1.156e-3
-1.397, 1.166e-3
-1.398, 1.178e-3
-1.399, 1.190e-3
-1.400, 1.203e-3
-1.401, 1.215e-3
-1.402, 1.221e-3
-1.403, 1.233e-3
-1.404, 1.243e-3
-1.405, 1.255e-3
-1.406, 1.264e-3
-1.407, 1.277e-3
-1.408, 1.289e-3
-1.409, 1.304e-3
-1.410, 1.317e-3
-1.411, 1.329e-3
-1.412, 1.344e-3
-1.413, 1.360e-3
-1.414, 1.372e-3
-1.415, 1.388e-3
-1.416, 1.400e-3
-1.417, 1.415e-3
-1.418, 1.428e-3
-1.419, 1.443e-3
-1.420, 1.458e-3
-1.421, 1.474e-3
-1.422, 1.489e-3
-1.423, 1.505e-3
-1.424, 1.520e-3
-1.425, 1.536e-3
-1.426, 1.548e-3
-1.427, 1.560e-3
-1.428, 1.576e-3
-1.429, 1.588e-3
-1.430, 1.606e-3
-1.431, 1.622e-3
-1.432, 1.637e-3
-1.433, 1.653e-3
-1.434, 1.668e-3
-1.435, 1.680e-3
-1.436, 1.693e-3
-1.437, 1.708e-3
-1.438, 1.727e-3
-1.439, 1.745e-3
-1.440, 1.764e-3
-1.441, 1.782e-3
-1.442, 1.798e-3
-1.443, 1.816e-3
-1.444, 1.828e-3
-1.445, 1.847e-3
-1.446, 1.862e-3
-1.447, 1.878e-3
-1.448, 1.896e-3
-1.449, 1.915e-3
-1.450, 1.930e-3
-1.451, 1.946e-3
-1.452, 1.964e-3
-1.453, 1.980e-3
-1.454, 1.998e-3
-1.455, 2.013e-3
-1.456, 2.029e-3
-1.457, 2.047e-3
-1.458, 2.066e-3
-1.459, 2.084e-3
-1.460, 2.103e-3
-1.461, 2.121e-3
-1.462, 2.140e-3
-1.463, 2.158e-3
-1.464, 2.177e-3
-1.465, 2.195e-3
-1.466, 2.214e-3
-1.467, 2.232e-3
-1.468, 2.254e-3
-1.469, 2.275e-3
-1.470, 2.297e-3
-1.471, 2.316e-3
-1.472, 2.334e-3
-1.473, 2.353e-3
-1.474, 2.371e-3
-1.475, 2.390e-3
-1.476, 2.408e-3
-1.477, 2.427e-3
-1.478, 2.445e-3
-1.479, 2.464e-3
-1.480, 2.482e-3
-1.481, 2.504e-3
-1.482, 2.522e-3
-1.483, 2.544e-3
-1.484, 2.565e-3
-1.485, 2.587e-3
-1.486, 2.608e-3
-1.487, 2.627e-3
-1.488, 2.645e-3
-1.489, 2.664e-3
-1.490, 2.682e-3
-1.491, 2.701e-3
-1.492, 2.723e-3
-1.493, 2.738e-3
-1.494, 2.756e-3
-1.495, 2.775e-3
-1.496, 2.793e-3
-1.497, 2.815e-3
-1.498, 2.837e-3
-1.499, 2.861e-3
-1.500, 2.889e-3
-1.501, 2.914e-3
-1.502, 2.941e-3
-1.503, 2.969e-3
-1.504, 2.994e-3
-1.505, 3.022e-3
-1.506, 3.040e-3
-1.507, 3.062e-3
-1.508, 3.083e-3
-1.509, 3.102e-3
-1.510, 3.123e-3
-1.511, 3.145e-3
-1.512, 3.170e-3
-1.513, 3.191e-3
-1.514, 3.210e-3
-1.515, 3.225e-3
-1.516, 3.244e-3
-1.517, 3.265e-3
-1.518, 3.290e-3
-1.519, 3.318e-3
-1.520, 3.345e-3
-1.521, 3.370e-3
-1.522, 3.392e-3
-1.523, 3.416e-3
-1.524, 3.438e-3
-1.525, 3.466e-3
-1.526, 3.493e-3
-1.527, 3.521e-3
-1.528, 3.546e-3
-1.529, 3.570e-3
-1.530, 3.595e-3
-1.531, 3.620e-3
-1.532, 3.647e-3
-1.533, 3.672e-3
-1.534, 3.700e-3
-1.535, 3.725e-3
-1.536, 3.749e-3
-1.537, 3.771e-3
-1.538, 3.789e-3
-1.539, 3.811e-3
-1.540, 3.836e-3
-1.541, 3.860e-3
-1.542, 3.885e-3
-1.543, 3.913e-3
-1.544, 3.940e-3
-1.545, 3.968e-3
-1.546, 3.993e-3
-1.547, 4.021e-3
-1.548, 4.048e-3
-1.549, 4.079e-3
-1.550, 4.110e-3
-1.551, 4.141e-3
-1.552, 4.169e-3
-1.553, 4.196e-3
-1.554, 4.221e-3
-1.555, 4.246e-3
-1.556, 4.273e-3
-1.557, 4.301e-3
-1.558, 4.332e-3
-1.559, 4.363e-3
-1.560, 4.391e-3
-1.561, 4.421e-3
-1.562, 4.449e-3
-1.563, 4.483e-3
-1.564, 4.514e-3
-1.565, 4.545e-3
-1.566, 4.575e-3
-1.567, 4.609e-3
-1.568, 4.643e-3
-1.569, 4.677e-3
-1.570, 4.711e-3
-1.571, 4.742e-3
-1.572, 4.770e-3
-1.573, 4.801e-3
-1.574, 4.828e-3
-1.575, 4.856e-3
-1.576, 4.884e-3
-1.577, 4.912e-3
-1.578, 4.939e-3
-1.579, 4.970e-3
-1.580, 5.001e-3
-1.581, 5.032e-3
-1.582, 5.066e-3
-1.583, 5.100e-3
-1.584, 5.134e-3
-1.585, 5.167e-3
-1.586, 5.198e-3
-1.587, 5.232e-3
-1.588, 5.263e-3
-1.589, 5.294e-3
-1.590, 5.325e-3
-1.591, 5.356e-3
-1.592, 5.383e-3
-1.593, 5.417e-3
-1.594, 5.457e-3
-1.595, 5.504e-3
-1.596, 5.553e-3
-1.597, 5.602e-3
-1.598, 5.651e-3
-1.599, 5.701e-3
-1.600, 5.747e-3
-1.601, 5.793e-3
-1.602, 5.840e-3
-1.603, 5.883e-3
-1.604, 5.923e-3
-1.605, 5.957e-3
-1.606, 5.988e-3
-1.607, 6.018e-3
-1.608, 6.046e-3
-1.609, 6.071e-3
-1.610, 6.102e-3
-1.611, 6.132e-3
-1.612, 6.163e-3
-1.613, 6.200e-3
-1.614, 6.234e-3
-1.615, 6.268e-3
-1.616, 6.302e-3
-1.617, 6.339e-3
-1.618, 6.382e-3
-1.619, 6.422e-3
-1.620, 6.462e-3
-1.621, 6.502e-3
-1.622, 6.549e-3
-1.623, 6.598e-3
-1.624, 6.654e-3
-1.625, 6.712e-3
-1.626, 6.768e-3
-1.627, 6.820e-3
-1.628, 6.872e-3
-1.629, 6.928e-3
-1.630, 6.983e-3
-1.631, 7.042e-3
-1.632, 7.091e-3
-1.633, 7.141e-3
-1.634, 7.187e-3
-1.635, 7.227e-3
-1.636, 7.270e-3
-1.637, 7.313e-3
-1.638, 7.366e-3
-1.639, 7.421e-3
-1.640, 7.464e-3
-1.641, 7.501e-3
-1.642, 7.535e-3
-1.643, 7.572e-3
-1.644, 7.615e-3
-1.645, 7.659e-3
-1.646, 7.702e-3
-1.647, 7.742e-3
-1.648, 7.785e-3
-1.649, 7.837e-3
-1.650, 7.893e-3
-1.651, 7.951e-3
-1.652, 8.019e-3
-1.653, 8.090e-3
-1.654, 8.158e-3
-1.655, 8.220e-3
-1.656, 8.272e-3
-1.657, 8.325e-3
-1.658, 8.374e-3
-1.659, 8.423e-3
-1.660, 8.476e-3
-1.661, 8.522e-3
-1.662, 8.562e-3
-1.663, 8.602e-3
-1.664, 8.645e-3
-1.665, 8.695e-3
-1.666, 8.750e-3
-1.667, 8.809e-3
-1.668, 8.870e-3
-1.669, 8.944e-3
-1.670, 9.021e-3
-1.671, 9.101e-3
-1.672, 9.179e-3
-1.673, 9.249e-3
-1.674, 9.317e-3
-1.675, 9.382e-3
-1.676, 9.441e-3
-1.677, 9.490e-3
-1.678, 9.539e-3
-1.679, 9.586e-3
-1.680, 9.635e-3
-1.681, 9.675e-3
-1.682, 9.715e-3
-1.683, 9.755e-3
-1.684, 9.798e-3
-1.685, 9.851e-3
-1.686, 9.909e-3
-1.687, 9.977e-3
-1.688, 1.005e-2
-1.689, 1.013e-2
-1.690, 1.021e-2
-1.691, 1.031e-2
-1.692, 1.040e-2
-1.693, 1.049e-2
-1.694, 1.058e-2
-1.695, 1.066e-2
-1.696, 1.074e-2
-1.697, 1.082e-2
-1.698, 1.089e-2
-1.699, 1.096e-2
-1.700, 1.096e-2
-1.699, 1.085e-2
-1.698, 1.075e-2
-1.697, 1.066e-2
-1.696, 1.056e-2
-1.695, 1.045e-2
-1.694, 1.035e-2
-1.693, 1.025e-2
-1.692, 1.016e-2
-1.691, 1.008e-2
-1.690, 9.996e-3
-1.689, 9.919e-3
-1.688, 9.851e-3
-1.687, 9.786e-3
-1.686, 9.724e-3
-1.685, 9.669e-3
-1.684, 9.616e-3
-1.683, 9.564e-3
-1.682, 9.512e-3
-1.681, 9.453e-3
-1.680, 9.391e-3
-1.679, 9.333e-3
-1.678, 9.274e-3
-1.677, 9.222e-3
-1.676, 9.166e-3
-1.675, 9.108e-3
-1.674, 9.037e-3
-1.673, 8.960e-3
-1.672, 8.883e-3
-1.671, 8.809e-3
-1.670, 8.738e-3
-1.669, 8.667e-3
-1.668, 8.599e-3
-1.667, 8.528e-3
-1.666, 8.457e-3
-1.665, 8.383e-3
-1.664, 8.309e-3
-1.663, 8.238e-3
-1.662, 8.177e-3
-1.661, 8.118e-3
-1.660, 8.059e-3
-1.659, 8.001e-3
-1.658, 7.939e-3
-1.657, 7.871e-3
-1.656, 7.804e-3
-1.655, 7.739e-3
-1.654, 7.674e-3
-1.653, 7.615e-3
-1.652, 7.557e-3
-1.651, 7.501e-3
-1.650, 7.443e-3
-1.649, 7.381e-3
-1.648, 7.316e-3
-1.647, 7.252e-3
-1.646, 7.190e-3
-1.645, 7.131e-3
-1.644, 7.073e-3
-1.643, 7.017e-3
-1.642, 6.959e-3
-1.641, 6.900e-3
-1.640, 6.845e-3
-1.639, 6.783e-3
-1.638, 6.721e-3
-1.637, 6.666e-3
-1.636, 6.613e-3
-1.635, 6.564e-3
-1.634, 6.512e-3
-1.633, 6.459e-3
-1.632, 6.407e-3
-1.631, 6.351e-3
-1.630, 6.293e-3
-1.629, 6.231e-3
-1.628, 6.173e-3
-1.627, 6.117e-3
-1.626, 6.062e-3
-1.625, 6.012e-3
-1.624, 5.960e-3
-1.623, 5.904e-3
-1.622, 5.846e-3
-1.621, 5.784e-3
-1.620, 5.725e-3
-1.619, 5.670e-3
-1.618, 5.621e-3
-1.617, 5.574e-3
-1.616, 5.525e-3
-1.615, 5.476e-3
-1.614, 5.423e-3
-1.613, 5.368e-3
-1.612, 5.309e-3
-1.611, 5.257e-3
-1.610, 5.204e-3
-1.609, 5.155e-3
-1.608, 5.109e-3
-1.607, 5.066e-3
-1.606, 5.023e-3
-1.605, 4.979e-3
-1.604, 4.936e-3
-1.603, 4.893e-3
-1.602, 4.853e-3
-1.601, 4.816e-3
-1.600, 4.779e-3
-1.599, 4.736e-3
-1.598, 4.690e-3
-1.597, 4.640e-3
-1.596, 4.585e-3
-1.595, 4.535e-3
-1.594, 4.486e-3
-1.593, 4.434e-3
-1.592, 4.384e-3
-1.591, 4.332e-3
-1.590, 4.276e-3
-1.589, 4.224e-3
-1.588, 4.172e-3
-1.587, 4.122e-3
-1.586, 4.076e-3
-1.585, 4.033e-3
-1.584, 3.993e-3
-1.583, 3.950e-3
-1.582, 3.910e-3
-1.581, 3.876e-3
-1.580, 3.836e-3
-1.579, 3.802e-3
-1.578, 3.768e-3
-1.577, 3.734e-3
-1.576, 3.697e-3
-1.575, 3.660e-3
-1.574, 3.617e-3
-1.573, 3.580e-3
-1.572, 3.540e-3
-1.571, 3.499e-3
-1.570, 3.459e-3
-1.569, 3.416e-3
-1.568, 3.373e-3
-1.567, 3.333e-3
-1.566, 3.293e-3
-1.565, 3.253e-3
-1.564, 3.213e-3
-1.563, 3.173e-3
-1.562, 3.133e-3
-1.561, 3.093e-3
-1.560, 3.056e-3
-1.559, 3.022e-3
-1.558, 2.988e-3
-1.557, 2.957e-3
-1.556, 2.923e-3
-1.555, 2.889e-3
-1.554, 2.849e-3
-1.553, 2.815e-3
-1.552, 2.784e-3
-1.551, 2.750e-3
-1.550, 2.723e-3
-1.549, 2.695e-3
-1.548, 2.664e-3
-1.547, 2.633e-3
-1.546, 2.599e-3
-1.545, 2.568e-3
-1.544, 2.538e-3
-1.543, 2.507e-3
-1.542, 2.482e-3
-1.541, 2.454e-3
-1.540, 2.427e-3
-1.539, 2.399e-3
-1.538, 2.365e-3
-1.537, 2.334e-3
-1.536, 2.303e-3
-1.535, 2.272e-3
-1.534, 2.242e-3
-1.533, 2.214e-3
-1.532, 2.183e-3
-1.531, 2.152e-3
-1.530, 2.124e-3
-1.529, 2.094e-3
-1.528, 2.066e-3
-1.527, 2.035e-3
-1.526, 2.007e-3
-1.525, 1.980e-3
-1.524, 1.949e-3
-1.523, 1.921e-3
-1.522, 1.893e-3
-1.521, 1.869e-3
-1.520, 1.844e-3
-1.519, 1.822e-3
-1.518, 1.801e-3
-1.517, 1.779e-3
-1.516, 1.758e-3
-1.515, 1.733e-3
-1.514, 1.708e-3
-1.513, 1.687e-3
-1.512, 1.665e-3
-1.511, 1.640e-3
-1.510, 1.619e-3
-1.509, 1.597e-3
-1.508, 1.576e-3
-1.507, 1.554e-3
-1.506, 1.526e-3
-1.505, 1.502e-3
-1.504, 1.477e-3
-1.503, 1.449e-3
-1.502, 1.428e-3
-1.501, 1.403e-3
-1.500, 1.381e-3
-1.499, 1.360e-3
-1.498, 1.338e-3
-1.497, 1.317e-3
-1.496, 1.295e-3
-1.495, 1.273e-3
-1.494, 1.252e-3
-1.493, 1.233e-3
-1.492, 1.212e-3
-1.491, 1.196e-3
-1.490, 1.178e-3
-1.489, 1.159e-3
-1.488, 1.144e-3
-1.487, 1.122e-3
-1.486, 1.101e-3
-1.485, 1.082e-3
-1.484, 1.061e-3
-1.483, 1.042e-3
-1.482, 1.024e-3
-1.481, 1.005e-3
-1.480, 9.868e-4
-1.479, 9.683e-4
-1.478, 9.498e-4
-1.477, 9.313e-4
-1.476, 9.097e-4
-1.475, 8.943e-4
-1.474, 8.727e-4
-1.473, 8.542e-4
-1.472, 8.388e-4
-1.471, 8.203e-4
-1.470, 8.048e-4
-1.469, 7.894e-4
-1.468, 7.740e-4
-1.467, 7.586e-4
-1.466, 7.401e-4
-1.465, 7.216e-4
-1.464, 7.031e-4
-1.463, 6.846e-4
-1.462, 6.692e-4
-1.461, 6.538e-4
-1.460, 6.384e-4
-1.459, 6.229e-4
-1.458, 6.075e-4
-1.457, 5.921e-4
-1.456, 5.767e-4
-1.455, 5.582e-4
-1.454, 5.428e-4
-1.453, 5.274e-4
-1.452, 5.120e-4
-1.451, 4.996e-4
-1.450, 4.842e-4
-1.449, 4.719e-4
-1.448, 4.565e-4
-1.447, 4.441e-4
-1.446, 4.287e-4
-1.445, 4.133e-4
-1.444, 3.979e-4
-1.443, 3.825e-4
-1.442, 3.701e-4
-1.441, 3.547e-4
-1.440, 3.424e-4
-1.439, 3.300e-4
-1.438, 3.146e-4
-1.437, 2.992e-4
-1.436, 2.869e-4
-1.435, 2.715e-4
-1.434, 2.561e-4
-1.433, 2.437e-4
-1.432, 2.283e-4
-1.431, 2.160e-4
-1.430, 2.067e-4
-1.429, 1.944e-4
-1.428, 1.821e-4
-1.427, 1.697e-4
-1.426, 1.543e-4
-1.425, 1.420e-4
-1.424, 1.296e-4
-1.423, 1.173e-4
-1.422, 1.050e-4
-1.421, 9.265e-5
-1.420, 8.032e-5
-1.419, 7.107e-5
-1.418, 5.873e-5
-1.417, 4.640e-5
-1.416, 3.407e-5
-1.415, 1.865e-5
-1.414, 6.322e-6
-1.413, -6.010e-6
-1.412, -1.834e-5
-1.411, -2.759e-5
-1.410, -3.684e-5
-1.409, -4.917e-5
-1.408, -5.842e-5
-1.407, -7.076e-5
-1.406, -8.309e-5
-1.405, -9.234e-5
-1.404, -1.078e-4
-1.403, -1.170e-4
-1.402, -1.263e-4
-1.401, -1.355e-4
-1.400, -1.448e-4
-1.399, -1.571e-4
-1.398, -1.663e-4
-1.397, -1.756e-4
-1.396, -1.879e-4
-1.395, -2.002e-4
-1.394, -2.095e-4
-1.393, -2.218e-4
-1.392, -2.311e-4
-1.391, -2.403e-4
-1.390, -2.496e-4
-1.389, -2.588e-4
-1.388, -2.681e-4
-1.387, -2.773e-4
-1.386, -2.897e-4
-1.385, -2.989e-4
-1.384, -3.082e-4
-1.383, -3.174e-4
-1.382, -3.267e-4
-1.381, -3.359e-4
-1.380, -3.452e-4
-1.379, -3.513e-4
-1.378, -3.606e-4
-1.377, -3.698e-4
-1.376, -3.760e-4
-1.375, -3.852e-4
-1.374, -3.945e-4
-1.373, -4.037e-4
-1.372, -4.099e-4
-1.371, -4.191e-4
-1.370, -4.253e-4
-1.369, -4.346e-4
-1.368, -4.407e-4
-1.367, -4.500e-4
-1.366, -4.592e-4
-1.365, -4.685e-4
-1.364, -4.777e-4
-1.363, -4.839e-4
-1.362, -4.931e-4
-1.361, -4.993e-4
-1.360, -5.055e-4
-1.359, -5.147e-4
-1.358, -5.209e-4
-1.357, -5.271e-4
-1.356, -5.394e-4
-1.355, -5.456e-4
-1.354, -5.548e-4
-1.353, -5.641e-4
-1.352, -5.702e-4
-1.351, -5.764e-4
-1.350, -5.795e-4
-1.349, -5.856e-4
-1.348, -5.918e-4
-1.347, -5.980e-4
-1.346, -6.041e-4
-1.345, -6.134e-4
-1.344, -6.195e-4
-1.343, -6.226e-4
-1.342, -6.288e-4
-1.341, -6.319e-4
-1.340, -6.380e-4
-1.339, -6.442e-4
-1.338, -6.504e-4
-1.337, -6.565e-4
-1.336, -6.627e-4
-1.335, -6.720e-4
-1.334, -6.781e-4
-1.333, -6.843e-4
-1.332, -6.905e-4
-1.331, -6.935e-4
-1.330, -6.997e-4
-1.329, -7.059e-4
-1.328, -7.090e-4
-1.327, -7.151e-4
-1.326, -7.182e-4
-1.325, -7.244e-4
-1.324, -7.275e-4
-1.323, -7.336e-4
-1.322, -7.398e-4
-1.321, -7.429e-4
-1.320, -7.460e-4
-1.319, -7.490e-4
-1.318, -7.521e-4
-1.317, -7.552e-4
-1.316, -7.583e-4
-1.315, -7.645e-4
-1.314, -7.706e-4
-1.313, -7.768e-4
-1.312, -7.799e-4
-1.311, -7.830e-4
-1.310, -7.860e-4
-1.309, -7.891e-4
-1.308, -7.922e-4
-1.307, -7.953e-4
-1.306, -7.984e-4
-1.305, -8.045e-4
-1.304, -8.076e-4
-1.303, -8.107e-4
-1.302, -8.138e-4
-1.301, -8.138e-4
-1.300, -8.138e-4
-1.299, -8.169e-4
-1.298, -8.230e-4
-1.297, -8.230e-4
-1.296, -8.292e-4
-1.295, -8.292e-4
-1.294, -8.323e-4
-1.293, -8.354e-4
-1.292, -8.385e-4
-1.291, -8.415e-4
-1.290, -8.446e-4
-1.289, -8.446e-4
-1.288, -8.477e-4
-1.287, -8.477e-4
-1.286, -8.508e-4
-1.285, -8.539e-4
-1.284, -8.569e-4
-1.283, -8.600e-4
-1.282, -8.631e-4
-1.281, -8.631e-4
-1.280, -8.631e-4
-1.279, -8.631e-4
-1.278, -8.631e-4
-1.277, -8.662e-4
-1.276, -8.693e-4
-1.275, -8.724e-4
-1.274, -8.724e-4
-1.273, -8.754e-4
-1.272, -8.754e-4
-1.271, -8.754e-4
-1.270, -8.754e-4
-1.269, -8.754e-4
-1.268, -8.785e-4
-1.267, -8.785e-4
-1.266, -8.816e-4
-1.265, -8.816e-4
-1.264, -8.847e-4
-1.263, -8.847e-4
-1.262, -8.847e-4
-1.261, -8.847e-4
-1.260, -8.847e-4
-1.259, -8.816e-4
-1.258, -8.816e-4
-1.257, -8.816e-4
-1.256, -8.816e-4
-1.255, -8.847e-4
-1.254, -8.878e-4
-1.253, -8.878e-4
-1.252, -8.878e-4
-1.251, -8.878e-4
-1.250, -8.847e-4
-1.249, -8.847e-4
-1.248, -8.816e-4
-1.247, -8.847e-4
-1.246, -8.847e-4
-1.245, -8.878e-4
-1.244, -8.878e-4
-1.243, -8.878e-4
-1.242, -8.909e-4
-1.241, -8.878e-4
-1.240, -8.878e-4
-1.239, -8.878e-4
-1.238, -8.847e-4
-1.237, -8.847e-4
-1.236, -8.847e-4
-1.235, -8.847e-4
-1.234, -8.816e-4
-1.233, -8.816e-4
-1.232, -8.816e-4
-1.231, -8.785e-4
-1.230, -8.754e-4
-1.229, -8.754e-4
-1.228, -8.754e-4
-1.227, -8.724e-4
-1.226, -8.724e-4
-1.225, -8.724e-4
-1.224, -8.724e-4
-1.223, -8.754e-4
-1.222, -8.754e-4
-1.221, -8.754e-4
-1.220, -8.754e-4
-1.219, -8.724e-4
-1.218, -8.724e-4
-1.217, -8.693e-4
-1.216, -8.724e-4
-1.215, -8.724e-4
-1.214, -8.724e-4
-1.213, -8.693e-4
-1.212, -8.693e-4
-1.211, -8.662e-4
-1.210, -8.600e-4
-1.209, -8.569e-4
-1.208, -8.569e-4
-1.207, -8.539e-4
-1.206, -8.539e-4
-1.205, -8.539e-4
-1.204, -8.539e-4
-1.203, -8.508e-4
-1.202, -8.477e-4
-1.201, -8.477e-4
-1.200, -8.446e-4
-1.199, -8.415e-4
-1.198, -8.415e-4
-1.197, -8.415e-4
-1.196, -8.415e-4
-1.195, -8.415e-4
-1.194, -8.385e-4
-1.193, -8.385e-4
-1.192, -8.385e-4
-1.191, -8.354e-4
-1.190, -8.323e-4
-1.189, -8.323e-4
-1.188, -8.292e-4
-1.187, -8.261e-4
-1.186, -8.261e-4
-1.185, -8.261e-4
-1.184, -8.230e-4
-1.183, -8.230e-4
-1.182, -8.230e-4
-1.181, -8.200e-4
-1.180, -8.200e-4
-1.179, -8.169e-4
-1.178, -8.169e-4
-1.177, -8.169e-4
-1.176, -8.169e-4
-1.175, -8.169e-4
-1.174, -8.169e-4
-1.173, -8.169e-4
-1.172, -8.138e-4
-1.171, -8.107e-4
-1.170, -8.076e-4
-1.169, -8.045e-4
-1.168, -8.045e-4
-1.167, -8.045e-4
-1.166, -8.045e-4
-1.165, -8.045e-4
-1.164, -8.076e-4
-1.163, -8.045e-4
-1.162, -8.045e-4
-1.161, -8.045e-4
-1.160, -8.045e-4
-1.159, -8.015e-4
-1.158, -8.015e-4
-1.157, -8.015e-4
-1.156, -8.015e-4
-1.155, -8.015e-4
-1.154, -8.015e-4
-1.153, -8.015e-4
-1.152, -8.015e-4
-1.151, -7.984e-4
-1.150, -7.953e-4
-1.149, -7.922e-4
-1.148, -7.922e-4
-1.147, -7.891e-4
-1.146, -7.922e-4
-1.145, -7.922e-4
-1.144, -7.922e-4
-1.143, -7.922e-4
-1.142, -7.891e-4
-1.141, -7.891e-4
-1.140, -7.860e-4
-1.139, -7.860e-4
-1.138, -7.830e-4
-1.137, -7.830e-4
-1.136, -7.830e-4
-1.135, -7.860e-4
-1.134, -7.860e-4
-1.133, -7.860e-4
-1.132, -7.860e-4
-1.131, -7.891e-4
-1.130, -7.891e-4
-1.129, -7.860e-4
-1.128, -7.860e-4
-1.127, -7.860e-4
-1.126, -7.891e-4
-1.125, -7.891e-4
-1.124, -7.922e-4
-1.123, -7.922e-4
-1.122, -7.891e-4
-1.121, -7.891e-4
-1.120, -7.891e-4
-1.119, -7.860e-4
-1.118, -7.860e-4
-1.117, -7.860e-4
-1.116, -7.922e-4
-1.115, -7.922e-4
-1.114, -7.953e-4
-1.113, -7.953e-4
-1.112, -7.953e-4
-1.111, -7.953e-4
-1.110, -7.953e-4
-1.109, -7.922e-4
-1.108, -7.922e-4
-1.107, -7.922e-4
-1.106, -7.922e-4
-1.105, -7.922e-4
-1.104, -7.922e-4
-1.103, -7.953e-4
-1.102, -7.953e-4
-1.101, -7.922e-4
-1.100, -7.922e-4
-1.099, -7.922e-4
-1.098, -7.953e-4
-1.097, -7.953e-4
-1.096, -7.953e-4
-1.095, -7.984e-4
-1.094, -8.015e-4
-1.093, -8.045e-4
-1.092, -8.076e-4
-1.091, -8.076e-4
-1.090, -8.076e-4
-1.089, -8.076e-4
-1.088, -8.107e-4
-1.087, -8.107e-4
-1.086, -8.107e-4
-1.085, -8.107e-4
-1.084, -8.107e-4
-1.083, -8.138e-4
-1.082, -8.138e-4
-1.081, -8.138e-4
-1.080, -8.138e-4
-1.079, -8.107e-4
-1.078, -8.107e-4
-1.077, -8.107e-4
-1.076, -8.107e-4
-1.075, -8.138e-4
-1.074, -8.169e-4
-1.073, -8.200e-4
-1.072, -8.230e-4
-1.071, -8.230e-4
-1.070, -8.230e-4
-1.069, -8.230e-4
-1.068, -8.230e-4
-1.067, -8.230e-4
-1.066, -8.261e-4
-1.065, -8.292e-4
-1.064, -8.323e-4
-1.063, -8.323e-4
-1.062, -8.354e-4
-1.061, -8.323e-4
-1.060, -8.323e-4
-1.059, -8.323e-4
-1.058, -8.354e-4
-1.057, -8.354e-4
-1.056, -8.354e-4
-1.055, -8.385e-4
-1.054, -8.385e-4
-1.053, -8.415e-4
-1.052, -8.415e-4
-1.051, -8.446e-4
-1.050, -8.446e-4
-1.049, -8.446e-4
-1.048, -8.477e-4
-1.047, -8.477e-4
-1.046, -8.477e-4
-1.045, -8.477e-4
-1.044, -8.508e-4
-1.043, -8.508e-4
-1.042, -8.539e-4
-1.041, -8.539e-4
-1.040, -8.539e-4
-1.039, -8.539e-4
-1.038, -8.508e-4
-1.037, -8.539e-4
-1.036, -8.539e-4
-1.035, -8.569e-4
-1.034, -8.600e-4
-1.033, -8.631e-4
-1.032, -8.631e-4
-1.031, -8.631e-4
-1.030, -8.631e-4
-1.029, -8.631e-4
-1.028, -8.662e-4
-1.027, -8.662e-4
-1.026, -8.693e-4
-1.025, -8.693e-4
-1.024, -8.724e-4
-1.023, -8.724e-4
-1.022, -8.724e-4
-1.021, -8.724e-4
-1.020, -8.724e-4
-1.019, -8.724e-4
-1.018, -8.724e-4
-1.017, -8.693e-4
-1.016, -8.724e-4
-1.015, -8.724e-4
-1.014, -8.754e-4
-1.013, -8.785e-4
-1.012, -8.816e-4
-1.011, -8.816e-4
-1.010, -8.816e-4
-1.009, -8.785e-4
-1.008, -8.816e-4
-1.007, -8.816e-4
-1.006, -8.847e-4
-1.005, -8.878e-4
-1.004, -8.878e-4
-1.003, -8.878e-4
-1.002, -8.909e-4
-1.001, -8.909e-4
