Potential V vs RHE, Current mA cm-2
0.05339999999999995,0.7580023144676866
0.05239999999999995,0.7342351646299541
0.051399999999999946,0.7097606591422889
0.050399999999999945,0.6859935093045563
0.049399999999999944,0.6629337151167561
0.04839999999999994,0.6408642188388616
0.04739999999999994,0.6196435493408861
0.04639999999999994,0.5992717066228296
0.04539999999999994,0.578899863904773
0.04439999999999994,0.5588109634466895
0.04339999999999994,0.5397123608985115
0.04239999999999994,0.5214625851302525
0.04139999999999994,0.503920165011926
0.040399999999999936,0.48651921602358617
0.039399999999999935,0.4691182670352462
0.038399999999999934,0.45256614482682517
0.03739999999999993,0.4370043205283098
0.03639999999999993,0.4218669096197539
0.03539999999999993,0.40687096984118454
0.03439999999999993,0.3920165011926017
0.03339999999999993,0.3780108593239378
0.03239999999999993,0.3645711019752199
0.03139999999999993,0.35155575801646166
0.030399999999999927,0.3386818851876898
0.029399999999999926,0.32580801235891793
0.028399999999999925,0.3136414951800786
0.027399999999999924,0.3021823336511718
0.026399999999999924,0.29100611438223806
0.025399999999999923,0.2796884239833177
0.024399999999999922,0.268795146974357
0.02339999999999992,0.2583262833553557
0.02239999999999992,0.24842330425630044
0.02139999999999992,0.2388032674172182
0.020399999999999918,0.22904175944814942
0.019399999999999917,0.2192802514790807
0.018399999999999916,0.21008462802995795
0.017399999999999916,0.20159636023076774
0.016399999999999915,0.193249563561564
0.015399999999999914,0.1846198246323873
0.014399999999999913,0.17613155683319706
0.013399999999999912,0.16806770242396638
0.012399999999999911,0.16071120366466815
0.01139999999999991,0.15349617603535648
0.01039999999999991,0.1458567350160853
0.009399999999999908,0.13838705935279788
0.008399999999999908,0.13141253264446326
0.007399999999999907,0.12489071355208542
0.006399999999999906,0.11851036558969412
0.005399999999999905,0.11183292825433114
0.004399999999999904,0.10501401978898167
0.003399999999999903,0.09887417274756742
0.002399999999999902,0.09310215064411806
0.0013999999999999013,0.08742915833165928
0.00039999999999990044,0.08144492953323015
-0.0006000000000001005,0.0754465536218024
-0.0016000000000001013,0.06999991511732201
-0.0026000000000001022,0.06489280732480923
-0.003600000000000103,0.05981399375829375
-0.004600000000000104,0.05453712060979717
-0.005600000000000105,0.04921780612230463
-0.006600000000000106,0.04425216945977835
-0.007600000000000107,0.03978168175220483
-0.008600000000000108,0.03518387002764346
-0.009600000000000108,0.030387998721100987
-0.01060000000000011,0.02540821494557606
-0.01160000000000011,0.020966021463999843
-0.012600000000000111,0.016764328903400686
-0.013600000000000112,0.012702692761488166
-0.014600000000000113,0.0083029406189079
-0.015600000000000114,0.003794255706238028
-0.016600000000000115,-0.00031378296631006514
-0.017600000000000116,-0.004030512493315489
-0.018600000000000116,-0.007766765036259051
-0.019600000000000117,-0.011877916073666847
-0.020600000000000118,-0.01597209057547626
-0.02160000000000012,-0.019820105311109164
-0.02260000000000012,-0.023144676865792004
-0.02360000000000012,-0.02661071955046134
-0.024600000000000122,-0.030416292947098293
-0.025600000000000123,-0.03423601345673389
-0.026600000000000124,-0.03774449748039918
-0.027600000000000124,-0.04087100945310092
-0.028600000000000125,-0.04395508008680669
-0.029600000000000126,-0.04756259390146254
-0.030600000000000127,-0.05121254905511433
-0.03160000000000013,-0.05445223793180526
-0.03260000000000013,-0.057366543209527235
-0.03360000000000013,-0.06022426003525461
-0.03460000000000002,-0.06360542004193205
-0.03560000000000002,-0.06707146272660139
-0.03660000000000002,-0.07009894490831257
-0.03760000000000002,-0.07287177905604804
-0.03860000000000002,-0.07567290742978082
-0.039600000000000024,-0.07887015496747579
-0.040600000000000025,-0.08220887363515728
-0.041600000000000026,-0.08503829623488735
-0.04260000000000003,-0.08752818812264983
-0.04360000000000003,-0.09017369825339744
-0.04460000000000003,-0.09325776888710322
-0.04560000000000003,-0.0964833106507955
-0.04660000000000003,-0.09931273325052556
-0.04760000000000003,-0.10170359534729749
-0.04860000000000003,-0.10425007568705455
-0.04960000000000003,-0.10715023385177787
-0.050600000000000034,-0.11030504005047691
-0.051600000000000035,-0.11300713863321914
-0.052600000000000036,-0.11532726516499778
-0.053600000000000037,-0.11788789261775351
-0.05460000000000004,-0.12077390366947817
-0.05560000000000004,-0.12377309162519207
-0.05660000000000004,-0.1264186017559397
-0.05760000000000004,-0.12865384560972642
-0.05860000000000004,-0.13105885481949697
-0.05960000000000004,-0.13390242453222573
-0.06060000000000004,-0.1368167298099477
-0.061600000000000044,-0.13944809282769668
-0.06260000000000004,-0.14161260111649018
-0.06360000000000005,-0.14401761032626076
-0.06460000000000005,-0.14684703292599083
-0.06560000000000005,-0.1496764555257209
-0.06660000000000005,-0.15222293586547794
-0.06760000000000005,-0.1543450028152755
-0.06860000000000005,-0.15660854089505957
-0.06960000000000005,-0.15957943462477614
-0.07060000000000005,-0.1624088572245062
-0.07160000000000005,-0.16495533756426325
-0.07260000000000005,-0.16707740451406086
-0.07360000000000005,-0.16919947146385841
-0.07460000000000006,-0.17188742293360199
-0.07560000000000006,-0.17485831666331855
-0.07660000000000006,-0.1772633258730891
-0.07760000000000006,-0.17952686395287318
-0.07860000000000006,-0.18179040203265723
-0.07960000000000006,-0.1844783535024008
-0.08060000000000006,-0.18744924723211737
-0.08160000000000006,-0.1899957275718744
-0.08260000000000006,-0.192117794521672
-0.08360000000000006,-0.19452280373144254
-0.08460000000000006,-0.1972107552011861
-0.08560000000000006,-0.20018164893090268
-0.08660000000000007,-0.20272812927065975
-0.08760000000000007,-0.20499166735044383
-0.08860000000000007,-0.2073966765602144
-0.08960000000000007,-0.21008462802995795
-0.09060000000000007,-0.21305552175967452
-0.09160000000000007,-0.2157434732294181
-0.09260000000000007,-0.21786554017921567
-0.09360000000000007,-0.2204120205189727
-0.09460000000000007,-0.22309997198871628
-0.09560000000000007,-0.22621233684841938
-0.09660000000000007,-0.22890028831816295
-0.09760000000000008,-0.23116382639794697
-0.09860000000000008,-0.23371030673770407
-0.09960000000000008,-0.2365397293374341
-0.10060000000000008,-0.2396520941971372
-0.10160000000000008,-0.2423400456668808
-0.10260000000000008,-0.24474505487665132
-0.10360000000000008,-0.24729153521640837
-0.10460000000000008,-0.25026242894612494
-0.10560000000000008,-0.25337479380582806
-0.10660000000000008,-0.2560627452755716
-0.10760000000000008,-0.2584677544853422
-0.10860000000000009,-0.2610142348250993
-0.10960000000000009,-0.26412659968480234
-0.11060000000000009,-0.26738043567449193
-0.11160000000000009,-0.2700683871442355
-0.11260000000000009,-0.2727563386139791
-0.11360000000000009,-0.27530281895373615
-0.11460000000000009,-0.27869812607341227
-0.11560000000000009,-0.2820934331930883
-0.11660000000000009,-0.28478138466283187
-0.1176000000000001,-0.28732786500258894
-0.1186000000000001,-0.29001581647233254
-0.1196000000000001,-0.2932696524620221
-0.1206000000000001,-0.2966649595816982
-0.1216000000000001,-0.2996358533114148
-0.1226000000000001,-0.30232380478115833
-0.1236000000000001,-0.3051532273808884
-0.1246000000000001,-0.308407063370578
-0.1256000000000001,-0.3119438416202406
-0.1266000000000001,-0.31505620647994365
-0.1276000000000001,-0.3177441579496872
-0.1286000000000001,-0.32071505167940384
-0.1296000000000001,-0.32411035879907985
-0.1306000000000001,-0.32764713704874243
-0.1316000000000001,-0.3309009730384321
-0.1326000000000001,-0.33373039563816215
-0.1336000000000001,-0.33670128936787874
-0.1346000000000001,-0.34037953874752785
-0.1356000000000001,-0.34405778812717697
-0.1366000000000001,-0.347453095246853
-0.1376000000000001,-0.3502825178465831
-0.1386000000000001,-0.3533948827062862
-0.1396000000000001,-0.3570731320859353
-0.1406000000000001,-0.3608928525955709
-0.14160000000000011,-0.3642881597152469
-0.14260000000000012,-0.3672590534449635
-0.14360000000000012,-0.3703714183046666
-0.14460000000000012,-0.37433260994428874
-0.14560000000000012,-0.37815233045392427
-0.14660000000000012,-0.3815476375736004
-0.14760000000000012,-0.38480147356329
-0.14860000000000012,-0.38805530955297957
-0.14960000000000012,-0.3920165011926017
-0.15060000000000012,-0.39583622170223726
-0.15160000000000012,-0.39937299995189984
-0.15260000000000012,-0.40262683594158943
-0.15360000000000013,-0.40602214306126555
-0.15460000000000013,-0.40998333470088766
-0.15560000000000013,-0.41422746860048276
-0.15660000000000013,-0.41776424685014535
-0.15760000000000013,-0.42130102509980794
-0.15860000000000013,-0.42469633221948405
-0.15960000000000002,-0.42865752385910616
-0.16060000000000002,-0.43304312888868773
-0.16160000000000002,-0.43672137826833685
-0.16260000000000002,-0.44025815651799943
-0.16360000000000002,-0.44393640589764854
-0.16460000000000002,-0.44818053979724365
-0.16560000000000002,-0.4528490870867982
-0.16660000000000003,-0.4572346921163799
-0.16760000000000003,-0.4604885281060694
-0.16860000000000003,-0.4641667774857185
-0.16960000000000003,-0.4682694402553271
-0.17060000000000003,-0.4727965164148953
-0.17160000000000003,-0.47675770805451734
-0.17260000000000003,-0.4804359574341665
-0.17360000000000003,-0.4842556779438021
-0.17460000000000003,-0.4886412829733836
-0.17560000000000003,-0.49316835913295176
-0.17660000000000003,-0.49727102190256034
-0.17760000000000004,-0.5009492712822095
-0.17860000000000004,-0.5049104629218315
-0.17960000000000004,-0.5094375390813997
-0.18060000000000004,-0.5139646152409678
-0.18160000000000004,-0.518208749140563
-0.18260000000000004,-0.5220284696501986
-0.18360000000000004,-0.5261311324198072
-0.18460000000000004,-0.5307996797093618
-0.18560000000000004,-0.5354682269989164
-0.18660000000000004,-0.5399953031584845
-0.18760000000000004,-0.5438150236681201
-0.18860000000000005,-0.5480591575677152
-0.18960000000000005,-0.5528691759872564
-0.19060000000000005,-0.5576791944067975
-0.19160000000000005,-0.5622062705663656
-0.19260000000000005,-0.5664504044659607
-0.19360000000000005,-0.5705530672355693
-0.19460000000000005,-0.5753630856551104
-0.19560000000000005,-0.5804560463346246
-0.19660000000000005,-0.5851245936241791
-0.19760000000000005,-0.5893687275237742
-0.19860000000000005,-0.5936128614233693
-0.19960000000000006,-0.5984228798429104
-0.20060000000000006,-0.6036573116524112
-0.20160000000000006,-0.6083258589419658
-0.20260000000000006,-0.6127114639715473
-0.20360000000000006,-0.6169555978711424
-0.20460000000000006,-0.6220485585506567
-0.20560000000000006,-0.6274244614901437
-0.20660000000000006,-0.6320930087796983
-0.20760000000000006,-0.63647861380928
-0.20860000000000006,-0.6412886322288212
-0.20960000000000006,-0.6463815929083352
-0.21060000000000006,-0.6518989669778088
-0.21160000000000007,-0.6568504565273365
-0.21260000000000007,-0.6613775326869047
-0.21360000000000007,-0.6661875511064458
-0.21460000000000007,-0.6714219829159465
-0.21560000000000007,-0.6770808281154066
-0.21660000000000007,-0.6823152599249072
-0.21760000000000007,-0.6871252783444484
-0.21860000000000007,-0.6919352967639895
-0.21960000000000007,-0.6974526708334631
-0.22060000000000007,-0.7029700449029368
-0.22160000000000007,-0.7082044767124374
-0.22260000000000008,-0.7128730240019919
-0.22360000000000008,-0.7179659846815062
-0.22460000000000008,-0.7236248298809663
-0.22560000000000008,-0.7292836750804264
-0.22660000000000008,-0.7346595780199136
-0.22760000000000008,-0.7394695964394546
-0.22860000000000008,-0.7445625571189688
-0.22960000000000008,-0.750504344578402
-0.23060000000000008,-0.7563046609078485
-0.23160000000000008,-0.7616805638473357
-0.23260000000000008,-0.7667735245268499
-0.23360000000000009,-0.771866485206364
-0.2346000000000001,-0.7778082726657971
-0.2356000000000001,-0.7838915312552168
-0.2366000000000001,-0.789550376454677
-0.2376000000000001,-0.7947848082641775
-0.2386000000000001,-0.8000192400736782
-0.2396000000000001,-0.8059610275331113
-0.2406000000000001,-0.8121857572525175
-0.2416000000000001,-0.8178446024519777
-0.2426000000000001,-0.8232205053914649
-0.2436000000000001,-0.8287378794609385
-0.2446000000000001,-0.8346796669203717
-0.2456000000000001,-0.8410458677697643
-0.2466000000000001,-0.8467047129692244
-0.2476000000000001,-0.8520806159087115
-0.2486000000000001,-0.8577394611081718
-0.2496000000000001,-0.8638227196975914
-0.2506000000000001,-0.870188920546984
-0.2516000000000001,-0.8759892368764308
-0.2526000000000001,-0.8813651398159178
-0.2536000000000001,-0.8871654561453645
-0.2546000000000001,-0.8933901858647707
-0.2556000000000001,-0.9001808001041228
-0.2566000000000001,-0.9062640586935425
-0.2576000000000001,-0.9116399616330296
-0.2586000000000001,-0.9175817490924627
-0.2596000000000001,-0.924089421071842
-0.2606000000000001,-0.9304556219212347
-0.2616000000000001,-0.9368218227706272
-0.2626000000000001,-0.9423391968401009
-0.2636000000000001,-0.948280984299534
-0.2646000000000001,-0.9547886562789133
-0.2656000000000001,-0.961437799388279
-0.2666000000000001,-0.967662529107685
-0.2676000000000001,-0.9733213743071454
-0.2686000000000001,-0.9792631617665783
-0.2696000000000001,-0.9860537760059305
-0.2706000000000001,-0.9928443902452826
-0.2716000000000001,-0.9989276488347025
-0.2726000000000001,-1.0048694362941357
-0.2736000000000001,-1.010952694883555
-0.2746000000000001,-1.0177433091229073
-0.2756000000000001,-1.024675394492246
-0.2766000000000001,-1.0309001242116522
-0.2776000000000001,-1.0368419116710854
-0.2786000000000001,-1.0427836991305184
-0.2796000000000001,-1.0497157844998573
-0.2806000000000001,-1.0569308121291687
-0.28160000000000013,-1.0630140707185887
-0.28260000000000013,-1.068814387048035
-0.28360000000000013,-1.0750391167674413
-0.2846,-1.0818297310067937
-0.2856,-1.0890447586361052
-0.2866,-1.0952694883555114
-0.2876,-1.1012112758149446
-0.2886,-1.1075774766643371
-0.2896,-1.1143680909036895
-0.2906,-1.1217245896629875
-0.2916,-1.1280907905123805
-0.2926,-1.1340325779718134
-0.2936,-1.1405402499511925
-0.29460000000000003,-1.1474723353205312
-0.29560000000000003,-1.1545458918198563
-0.29660000000000003,-1.1610535637992356
-0.29760000000000003,-1.1669953512586688
-0.29860000000000003,-1.1733615521080614
-0.29960000000000003,-1.1804351086073865
-0.30060000000000003,-1.1875086651067117
-0.30160000000000003,-1.1941578082160775
-0.30260000000000004,-1.200241066805497
-0.30360000000000004,-1.2064657965249033
-0.30460000000000004,-1.2136808241542152
-0.30560000000000004,-1.2207543806535404
-0.30660000000000004,-1.2275449948928923
-0.30760000000000004,-1.233628253482312
-0.30860000000000004,-1.2397115120717317
-0.30960000000000004,-1.24706801083103
-0.31060000000000004,-1.2544245095903281
-0.31160000000000004,-1.2609321815697072
-0.31260000000000004,-1.267015440159127
-0.31360000000000005,-1.273240169878533
-0.31460000000000005,-1.280596668637831
-0.31560000000000005,-1.2878116962671429
-0.31660000000000005,-1.2943193682465222
-0.31760000000000005,-1.3005440979659282
-0.31860000000000005,-1.306910298815321
-0.31960000000000005,-1.3144082687046057
-0.32060000000000005,-1.3220477097238768
-0.32160000000000005,-1.328555381703256
-0.32260000000000005,-1.334780111422662
-0.32360000000000005,-1.3410048411420683
-0.32460000000000006,-1.34821986877138
-0.32560000000000006,-1.3558593097906513
-0.32660000000000006,-1.3623669817700303
-0.32760000000000006,-1.3685917114894366
-0.32860000000000006,-1.3749579123388291
-0.32960000000000006,-1.3820314688381543
-0.33060000000000006,-1.3896709098574256
-0.33160000000000006,-1.3963200529667912
-0.33260000000000006,-1.4025447826861974
-0.33360000000000006,-1.4090524546655765
-0.33460000000000006,-1.4161260111649017
-0.33560000000000006,-1.423199567664227
-0.33660000000000007,-1.4302731241635522
-0.33760000000000007,-1.4359319693630124
-0.33860000000000007,-1.4430055258623373
-0.33960000000000007,-1.4500790823616625
-0.34060000000000007,-1.4585673501608527
-0.34160000000000007,-1.4656409066601779
-0.34260000000000007,-1.471299751859638
-0.34360000000000007,-1.4783733083589634
-0.3446000000000001,-1.4854468648582886
-0.3456000000000001,-1.4925204213576138
-0.3466000000000001,-1.499593977856939
-0.34759999999999996,-1.506667534356264
-0.3486000000000001,-1.512326379555724
-0.34959999999999997,-1.5208146473549145
-0.3506000000000001,-1.5278882038542394
-0.35159999999999997,-1.5349617603535646
-0.3526000000000001,-1.54203531685289
-0.35359999999999997,-1.54769416205235
-0.3546000000000001,-1.5561824298515403
-0.35559999999999997,-1.5632559863508655
-0.3566000000000001,-1.5703295428501907
-0.3576,-1.5774030993495158
-0.3586000000000001,-1.584476655848841
-0.3596,-1.5915502123481662
-0.3606000000000001,-1.6000384801473564
-0.3616,-1.6071120366466816
-0.3626000000000001,-1.614185593146007
-0.3636,-1.6212591496453321
-0.3646000000000001,-1.6283327061446573
-0.3656,-1.6368209739438475
-0.3666000000000001,-1.643894530443173
-0.3676,-1.6495533756426328
-0.3686000000000001,-1.658041643441823
-0.3696,-1.6651151999411482
-0.3706000000000001,-1.6736034677403384
-0.3716,-1.6820917355395286
-0.3726000000000001,-1.6877505807389888
-0.3736,-1.694824137238314
-0.3746000000000001,-1.7033124050375041
-0.3756,-1.7118006728366943
-0.3766000000000001,-1.7188742293360195
-0.3776,-1.7259477858353447
-0.3786000000000001,-1.7330213423346699
-0.3796,-1.7415096101338603
-0.3806000000000001,-1.7499978779330503
-0.3816,-1.7570714344323757
-0.3826000000000001,-1.7641449909317006
-0.3836,-1.771218547431026
-0.3846000000000001,-1.779706815230216
-0.3856,-1.7881950830294064
-0.3866000000000001,-1.7952686395287314
-0.3876,-1.8023421960280568
-0.3886000000000001,-1.8094157525273817
-0.3896,-1.8179040203265722
-0.3906000000000001,-1.8263922881257622
-0.3916,-1.8348805559249526
-0.3926000000000001,-1.8419541124242775
-0.3936,-1.849027668923603
-0.3946000000000001,-1.857515936722793
-0.3956,-1.8660042045219833
-0.3966000000000001,-1.8730777610213083
-0.3976,-1.8801513175206337
-0.3986000000000001,-1.8872248740199586
-0.3996,-1.894298430519284
-0.4006000000000001,-1.9027866983184742
-0.4016,-1.9112749661176645
-0.4026000000000001,-1.9169338113171246
-0.4036,-1.92400736781645
-0.4046000000000001,-1.9324956356156402
-0.4056,-1.9409839034148304
-0.40660000000000013,-1.9480574599141556
-0.4076,-1.9537163051136157
-0.40860000000000013,-1.9622045729128061
-0.4096,-1.9692781294121309
-0.41060000000000013,-1.9763516859114565
-0.4116,-1.9834252424107812
-0.41260000000000013,-1.9904987989101068
-0.4136,-1.9975723554094316
-0.41460000000000014,-2.004645911908757
-0.4156,-2.013134179707947
-0.41660000000000014,-2.0187930249074073
-0.4176,-2.0258665814067327
-0.41860000000000014,-2.0315254266061924
-0.41960000000000003,-2.040013694405383
-0.42060000000000014,-2.047087250904708
-0.42160000000000003,-2.054160807404033
-0.42260000000000014,-2.0598196526034935
-0.42360000000000003,-2.0668932091028185
-0.42460000000000014,-2.073966765602144
-0.42560000000000003,-2.081040322101469
-0.42660000000000015,-2.0881138786007942
-0.42760000000000004,-2.0937727238002544
-0.42860000000000015,-2.0994315689997145
-0.42960000000000004,-2.1065051254990395
-0.43060000000000015,-2.1149933932982297
-0.43160000000000004,-2.1206522384976902
-0.43260000000000015,-2.12631108369715
-0.43360000000000004,-2.133384640196476
-0.43460000000000015,-2.1404581966958003
-0.43560000000000004,-2.148946464494991
-0.43660000000000015,-2.1546053096944506
-0.43760000000000004,-2.161678866193776
-0.43860000000000016,-2.1687524226931014
-0.43960000000000005,-2.177240690492291
-0.44060000000000016,-2.184314246991617
-0.44160000000000005,-2.1913878034909415
-0.44260000000000016,-2.1984613599902674
-0.44360000000000005,-2.205534916489592
-0.44460000000000016,-2.2140231842887825
-0.44560000000000005,-2.2225114520879723
-0.44660000000000016,-2.230999719887163
