Potential V vs RHE, Current mA cm-2
0.013299999999999867,0.3031726315610774
0.012299999999999978,-0.30755823659065895
0.011299999999999866,-0.8308599464107361
0.010299999999999976,-1.1362961160515976
0.009299999999999864,-1.3543031273607997
0.008299999999999974,-1.5717442541500557
0.007299999999999862,-1.7471684553333202
0.006299999999999972,-2.008890045808352
0.00529999999999986,-2.1828995356917518
0.0042999999999999705,-2.3144676865791998
0.0032999999999998586,-2.4007650758709675
0.0022999999999999687,-2.532333226758415
0.0012999999999998568,-2.7501987669376318
0.00029999999999996696,-2.8803522065252145
-0.000700000000000145,-2.968064307116847
-0.0017000000000000348,-3.0119203574126634
-0.0027000000000001467,-3.1420737970002466
-0.0037000000000000366,-3.273641947887695
-0.0047000000000001485,-3.403795387475278
-0.005700000000000038,-3.4915074880669104
-0.00670000000000015,-3.5353635383627267
-0.00770000000000004,-3.623075638954359
-0.008700000000000152,-3.7970851288377587
-0.009700000000000042,-3.884797229429391
-0.010700000000000154,-3.971094618721158
-0.011700000000000044,-4.014950669016974
-0.012700000000000156,-4.102662769608606
-0.013700000000000045,-4.23281620919619
-0.014700000000000157,-4.364384360083638
-0.015700000000000047,-4.406825699079589
-0.01670000000000016,-4.450681749375406
-0.01770000000000005,-4.538393849967037
-0.01870000000000016,-4.712403339850438
-0.01970000000000005,-4.843971490737885
-0.020700000000000163,-4.887827541033701
-0.021700000000000053,-4.9302688800296535
-0.022700000000000164,-5.017980980621284
-0.023700000000000054,-5.191990470504685
-0.024700000000000166,-5.323558621392133
-0.025700000000000056,-5.367414671687949
-0.026700000000000168,-5.411270721983764
-0.027700000000000058,-5.497568111275533
-0.02870000000000017,-5.672992312458796
-0.02970000000000006,-5.847001802342197
-0.03070000000000017,-5.890857852638012
-0.03170000000000006,-5.890857852638012
-0.03270000000000017,-5.977155241929781
-0.03370000000000006,-6.152579443113044
-0.034700000000000175,-6.282732882700628
-0.035700000000000065,-6.326588932996443
-0.03670000000000018,-6.37044498329226
-0.03770000000000007,-6.500598422879844
-0.03870000000000018,-6.6760226240631075
-0.03970000000000007,-6.806176063650692
-0.04070000000000018,-6.850032113946507
-0.04170000000000007,-6.850032113946507
-0.04270000000000018,-6.981600264833956
-0.04370000000000007,-7.111753704421539
-0.044700000000000184,-7.28576319430494
-0.045700000000000074,-7.28576319430494
-0.046700000000000186,-7.329619244600755
-0.047700000000000076,-7.37347529489657
-0.04870000000000019,-7.5474847847799715
-0.04970000000000008,-7.722908985963235
-0.05070000000000019,-7.809206375255003
-0.05170000000000008,-7.853062425550818
-0.05270000000000019,-7.940774526142452
-0.05370000000000008,-8.027071915434218
-0.05470000000000019,-8.11478401602585
-0.05570000000000008,-8.158640066321666
-0.056700000000000195,-8.158640066321666
-0.057700000000000085,-8.202496116617484
-0.058700000000000196,-8.332649556205066
-0.059700000000000086,-8.4203616567967
-0.0607000000000002,-8.464217707092514
-0.06170000000000009,-8.508073757388331
-0.0627000000000002,-8.55051509638428
-0.06370000000000009,-8.68208324727173
-0.0647000000000002,-8.725939297567548
-0.06570000000000009,-8.725939297567548
-0.0667000000000002,-8.68208324727173
-0.0677000000000001,-8.725939297567548
-0.0687000000000002,-8.812236686859313
-0.0697000000000001,-8.85609273715513
-0.07070000000000021,-8.85609273715513
-0.0717000000000001,-8.85609273715513
-0.07270000000000021,-8.899948787450944
-0.0737000000000001,-8.987660888042578
-0.07470000000000021,-9.073958277334345
-0.0757000000000001,-9.073958277334345
-0.07670000000000021,-8.987660888042578
-0.0777000000000001,-8.987660888042578
-0.07870000000000021,-9.031516938338395
-0.0797000000000001,-9.073958277334345
-0.08070000000000022,-9.073958277334345
-0.0817000000000001,-9.031516938338395
-0.08270000000000022,-8.987660888042578
-0.08370000000000011,-9.073958277334345
-0.08470000000000022,-9.073958277334345
-0.08570000000000011,-9.031516938338395
-0.08670000000000022,-8.943804837746763
-0.08770000000000011,-8.899948787450944
-0.08870000000000022,-8.987660888042578
-0.08970000000000011,-8.987660888042578
-0.09070000000000022,-8.943804837746763
-0.09170000000000011,-8.85609273715513
-0.09270000000000023,-8.812236686859313
-0.09370000000000012,-8.812236686859313
-0.09470000000000023,-8.812236686859313
-0.09570000000000012,-8.725939297567548
-0.09670000000000023,-8.594371146680096
-0.09770000000000012,-8.594371146680096
-0.09870000000000023,-8.638227196975913
-0.09970000000000012,-8.594371146680096
-0.10070000000000023,-8.508073757388331
-0.10170000000000012,-8.376505606500881
-0.10270000000000024,-8.288793505909249
-0.10370000000000013,-8.288793505909249
-0.10470000000000024,-8.246352166913299
-0.10570000000000013,-8.158640066321666
-0.10670000000000024,-8.027071915434218
-0.10770000000000013,-7.984630576438266
-0.10870000000000024,-7.984630576438266
-0.10970000000000013,-7.940774526142452
-0.11070000000000024,-7.853062425550818
-0.11170000000000013,-7.722908985963235
-0.11270000000000002,-7.635196885371603
-0.11370000000000013,-7.635196885371603
-0.11470000000000002,-7.635196885371603
-0.11570000000000014,-7.50504344578402
-0.11670000000000003,-7.329619244600755
-0.11770000000000014,-7.243321855308987
-0.11870000000000003,-7.243321855308987
-0.11970000000000014,-7.199465805013171
-0.12070000000000003,-7.111753704421539
-0.12170000000000014,-6.981600264833956
-0.12270000000000003,-6.893888164242324
-0.12370000000000014,-6.850032113946507
-0.12470000000000003,-6.806176063650692
-0.12570000000000014,-6.719878674358924
-0.12670000000000003,-6.54445447317566
-0.12770000000000015,-6.458157083883892
-0.12870000000000004,-6.458157083883892
-0.12970000000000015,-6.414301033588076
-0.13070000000000004,-6.326588932996443
-0.13170000000000015,-6.152579443113044
-0.13270000000000004,-6.108723392817228
-0.13370000000000015,-6.108723392817228
-0.13470000000000004,-6.064867342521412
-0.13570000000000015,-5.9347139029338285
-0.13670000000000004,-5.80314575204638
-0.13770000000000016,-5.715433651454749
-0.13870000000000005,-5.715433651454749
-0.13970000000000016,-5.672992312458796
-0.14070000000000005,-5.585280211867165
-0.14170000000000016,-5.453712060979717
-0.14270000000000005,-5.367414671687949
-0.14370000000000016,-5.367414671687949
-0.14470000000000005,-5.323558621392133
-0.14570000000000016,-5.235846520800501
-0.14670000000000005,-5.105693081212917
-0.14770000000000016,-5.0618370309171015
-0.14870000000000005,-5.105693081212917
-0.14970000000000017,-5.105693081212917
-0.15070000000000006,-5.017980980621284
-0.15170000000000017,-4.887827541033701
-0.15270000000000006,-4.800115440442069
-0.15370000000000017,-4.800115440442069
-0.15470000000000006,-4.756259390146253
-0.15570000000000017,-4.668547289554621
-0.15670000000000006,-4.538393849967037
-0.15770000000000017,-4.450681749375406
-0.15870000000000006,-4.494537799671222
-0.15970000000000018,-4.494537799671222
-0.16070000000000007,-4.364384360083638
-0.16170000000000018,-4.276672259492005
-0.16270000000000007,-4.23281620919619
-0.16370000000000018,-4.23281620919619
-0.16470000000000007,-4.23281620919619
-0.16570000000000018,-4.146518819904423
-0.16670000000000007,-4.0588067193127895
-0.16770000000000018,-4.014950669016974
-0.16870000000000007,-4.014950669016974
-0.16970000000000018,-4.014950669016974
-0.17070000000000007,-3.927238568425342
-0.17170000000000019,-3.840941179133574
-0.17270000000000008,-3.7970851288377587
-0.1737000000000002,-3.840941179133574
-0.17470000000000008,-3.840941179133574
-0.1757000000000002,-3.7532290785419424
-0.17670000000000008,-3.6655169779503103
-0.1777000000000002,-3.623075638954359
-0.17870000000000008,-3.6655169779503103
-0.1797000000000002,-3.6655169779503103
-0.18070000000000008,-3.579219588658543
-0.1817000000000002,-3.4915074880669104
-0.18270000000000008,-3.4915074880669104
-0.1837000000000002,-3.5353635383627267
-0.1847000000000001,-3.5353635383627267
-0.1857000000000002,-3.447651437771094
-0.1867000000000001,-3.403795387475278
-0.1877000000000002,-3.361354048479327
-0.1887000000000001,-3.403795387475278
-0.1897000000000002,-3.403795387475278
-0.1907000000000001,-3.361354048479327
-0.1917000000000001,-3.2297858975918787
-0.19269999999999998,-3.2297858975918787
-0.1937000000000001,-3.273641947887695
-0.19469999999999998,-3.273641947887695
-0.1957000000000001,-3.2297858975918787
-0.19669999999999999,-3.1420737970002466
-0.1977000000000001,-3.1420737970002466
-0.1987,-3.1859298472960624
-0.1997000000000001,-3.1859298472960624
-0.2007,-3.1420737970002466
-0.2017000000000001,-3.055776407708479
-0.2027,-3.055776407708479
-0.2037000000000001,-3.0996324580042955
-0.2047,-3.0996324580042955
-0.2057000000000001,-3.055776407708479
-0.2067,-3.0119203574126634
-0.2077000000000001,-2.968064307116847
-0.2087,-3.0119203574126634
-0.2097000000000001,-3.0119203574126634
-0.2107,-2.968064307116847
-0.2117000000000001,-2.8803522065252145
-0.2127,-2.8803522065252145
-0.2137000000000001,-2.968064307116847
-0.2147,-2.968064307116847
-0.2157000000000001,-2.924208256821031
-0.2167,-2.8379108675292635
-0.21770000000000012,-2.8379108675292635
-0.2187,-2.8803522065252145
-0.21970000000000012,-2.924208256821031
-0.2207,-2.8803522065252145
-0.22170000000000012,-2.794054817233447
-0.2227,-2.7501987669376318
-0.22370000000000012,-2.8379108675292635
-0.2247,-2.8379108675292635
-0.22570000000000012,-2.794054817233447
-0.2267,-2.7501987669376318
-0.22770000000000012,-2.7501987669376318
-0.22870000000000001,-2.794054817233447
-0.22970000000000013,-2.794054817233447
-0.23070000000000002,-2.7501987669376318
-0.23170000000000013,-2.706342716641815
-0.23270000000000002,-2.662486666345999
-0.23370000000000013,-2.7501987669376318
-0.23470000000000002,-2.7501987669376318
-0.23570000000000013,-2.706342716641815
-0.23670000000000002,-2.662486666345999
-0.2376999999999999,-2.618630616050183
-0.23870000000000002,-2.706342716641815
-0.2396999999999999,-2.706342716641815
-0.24070000000000003,-2.662486666345999
-0.24169999999999991,-2.618630616050183
-0.24270000000000003,-2.618630616050183
-0.24369999999999992,-2.706342716641815
-0.24470000000000003,-2.706342716641815
-0.24569999999999992,-2.662486666345999
-0.24670000000000003,-2.618630616050183
-0.24769999999999992,-2.618630616050183
-0.24870000000000003,-2.662486666345999
-0.24969999999999992,-2.706342716641815
-0.25070000000000003,-2.662486666345999
-0.2516999999999999,-2.576189277054232
-0.25270000000000004,-2.576189277054232
-0.2536999999999999,-2.662486666345999
-0.25470000000000004,-2.662486666345999
-0.2556999999999999,-2.618630616050183
-0.25670000000000004,-2.576189277054232
-0.25769999999999993,-2.576189277054232
-0.25870000000000004,-2.662486666345999
-0.25969999999999993,-2.662486666345999
-0.26070000000000004,-2.618630616050183
-0.26169999999999993,-2.576189277054232
-0.26270000000000004,-2.576189277054232
-0.26369999999999993,-2.662486666345999
-0.26470000000000005,-2.662486666345999
-0.26569999999999994,-2.618630616050183
-0.26670000000000005,-2.576189277054232
-0.26769999999999994,-2.618630616050183
-0.26870000000000005,-2.662486666345999
-0.26969999999999994,-2.662486666345999
-0.27070000000000005,-2.662486666345999
-0.27169999999999994,-2.618630616050183
-0.27270000000000005,-2.618630616050183
-0.27369999999999994,-2.662486666345999
-0.27470000000000006,-2.706342716641815
-0.27569999999999995,-2.662486666345999
-0.27670000000000006,-2.662486666345999
-0.27769999999999995,-2.662486666345999
-0.27870000000000006,-2.706342716641815
-0.27969999999999995,-2.7501987669376318
-0.28070000000000006,-2.706342716641815
-0.28169999999999995,-2.662486666345999
-0.28270000000000006,-2.662486666345999
-0.28369999999999995,-2.7501987669376318
-0.28470000000000006,-2.7501987669376318
-0.28569999999999995,-2.7501987669376318
-0.28670000000000007,-2.706342716641815
-0.28769999999999996,-2.706342716641815
-0.28870000000000007,-2.794054817233447
-0.28969999999999996,-2.8379108675292635
-0.29070000000000007,-2.794054817233447
-0.29169999999999996,-2.7501987669376318
-0.29270000000000007,-2.794054817233447
-0.29369999999999996,-2.8379108675292635
-0.2947000000000001,-2.8803522065252145
-0.29569999999999996,-2.8379108675292635
-0.2967000000000001,-2.8379108675292635
-0.29769999999999996,-2.8379108675292635
-0.2987000000000001,-2.924208256821031
-0.29969999999999997,-2.968064307116847
-0.3007000000000001,-2.924208256821031
-0.30169999999999997,-2.8803522065252145
-0.3027000000000001,-2.924208256821031
-0.30369999999999997,-2.968064307116847
-0.3047000000000001,-3.0119203574126634
-0.30569999999999997,-3.0119203574126634
-0.3067000000000001,-2.968064307116847
-0.3077,-3.0119203574126634
-0.3087000000000001,-3.0996324580042955
-0.3097,-3.1420737970002466
-0.3107000000000001,-3.0996324580042955
-0.3117,-3.055776407708479
-0.3127000000000001,-3.0996324580042955
-0.3137,-3.1859298472960624
-0.3147000000000001,-3.2297858975918787
-0.3157,-3.2297858975918787
-0.3167000000000001,-3.1859298472960624
-0.3177,-3.1859298472960624
-0.3187000000000001,-3.273641947887695
-0.3197,-3.317497998183511
-0.3207000000000001,-3.317497998183511
-0.3217,-3.317497998183511
-0.3227000000000001,-3.317497998183511
-0.3237,-3.447651437771094
-0.3247000000000001,-3.4915074880669104
-0.3257,-3.4915074880669104
-0.3267000000000001,-3.447651437771094
-0.3277,-3.4915074880669104
-0.3287000000000001,-3.5353635383627267
-0.3297,-3.623075638954359
-0.3307000000000001,-3.623075638954359
-0.3317,-3.579219588658543
-0.3327000000000001,-3.623075638954359
-0.3337,-3.7093730282461257
-0.3347000000000001,-3.7970851288377587
-0.3357,-3.7532290785419424
-0.3367000000000001,-3.7532290785419424
-0.3377,-3.7970851288377587
-0.3387000000000001,-3.884797229429391
-0.3397,-3.971094618721158
-0.3407000000000001,-3.971094618721158
-0.3417,-3.927238568425342
-0.3427000000000001,-3.971094618721158
-0.3437,-4.0588067193127895
-0.3447000000000001,-4.146518819904423
-0.3457,-4.146518819904423
-0.3467000000000001,-4.146518819904423
-0.3477,-4.23281620919619
-0.3487000000000001,-4.3205283097878215
-0.3497,-4.364384360083638
-0.3507000000000001,-4.364384360083638
-0.3517,-4.364384360083638
-0.3527000000000001,-4.406825699079589
-0.3537,-4.538393849967037
-0.3547000000000001,-4.582249900262854
-0.3557,-4.626105950558669
-0.35670000000000013,-4.582249900262854
-0.3577,-4.668547289554621
-0.35870000000000013,-4.756259390146253
-0.3597,-4.843971490737885
-0.36070000000000013,-4.843971490737885
-0.3617,-4.843971490737885
-0.3626999999999999,-4.9302688800296535
-0.3637,-5.017980980621284
-0.3646999999999999,-5.105693081212917
-0.3657,-5.105693081212917
-0.3666999999999999,-5.149549131508733
-0.3677,-5.191990470504685
-0.3686999999999999,-5.323558621392133
-0.36970000000000003,-5.411270721983764
-0.3706999999999999,-5.411270721983764
-0.37170000000000003,-5.453712060979717
-0.3726999999999999,-5.497568111275533
-0.37370000000000003,-5.629136262162981
-0.3746999999999999,-5.715433651454749
-0.37570000000000003,-5.759289701750564
-0.3766999999999999,-5.80314575204638
-0.37770000000000004,-5.890857852638012
-0.3786999999999999,-6.021011292225596
-0.37970000000000004,-6.108723392817228
-0.3806999999999999,-6.152579443113044
-0.38170000000000004,-6.152579443113044
-0.38269999999999993,-6.282732882700628
-0.38370000000000004,-6.414301033588076
-0.38469999999999993,-6.500598422879844
-0.38570000000000004,-6.588310523471475
-0.38669999999999993,-6.632166573767292
-0.38770000000000004,-6.719878674358924
-0.38869999999999993,-6.893888164242324
-0.38970000000000005,-6.981600264833956
-0.39069999999999994,-7.067897654125724
-0.39170000000000005,-7.155609754717355
-0.39269999999999994,-7.28576319430494
-0.39370000000000005,-7.461187395488204
-0.39469999999999994,-7.591340835075788
-0.39570000000000005,-7.722908985963235
-0.39669999999999994,-7.809206375255003
-0.39770000000000005,-7.940774526142452
-0.39869999999999994,-8.158640066321666
-0.39970000000000006,-8.332649556205066
-0.40069999999999995,-8.464217707092514
-0.40170000000000006,-8.594371146680096
-0.40269999999999995,-8.769795347863363
-0.40370000000000006,-9.031516938338395
-0.40469999999999995,-9.205526428221793
-0.40570000000000006,-9.423391968401008
-0.40669999999999995,-9.59740145828441
-0.40770000000000006,-9.85912304875944
-0.40869999999999995,-10.164700689530287
-0.40970000000000006,-10.470278330301136
-0.41069999999999995,-10.775855971071984
-0.41170000000000007,-11.037577561547016
-0.41269999999999996,-11.385596541313816
-0.41370000000000007,-11.82274233297211
-0.41469999999999996,-12.258473413330542
-0.41570000000000007,-12.651763154693022
-0.41669999999999996,-13.13135028534727
-0.41770000000000007,-13.610937416001518
-0.41869999999999996,-14.217848563643619
-0.4197000000000001,-14.868615761581536
-0.42069999999999996,-15.533530072518102
-0.4217000000000001,-16.22673860945197
-0.42269999999999996,-17.018976937376394
-0.4237000000000001,-17.881950830294063
-0.42469999999999997,-18.843954514202288
-0.4257000000000001,-19.805958198110513
-0.42669999999999997,-20.810403221014692
-0.4277000000000001,-21.899730921910766
-0.42869999999999997,-23.15882397879065
-0.4297000000000001,-24.432064148669184
-0.43069999999999997,-25.691157205549064
-0.4317000000000001,-27.00683871442355
-0.4327,-28.478138466283188
-0.4337000000000001,-30.147497800123933
-0.4347,-31.84515135996197
-0.4357000000000001,-33.45792224180811
-0.4367,-35.07069312365426
-0.4377000000000001,-36.81078802248826
-0.4387,-38.607471373316855
-0.4397000000000001,-40.3900076111468
-0.4407,-42.186690961975394
-0.4417000000000001,-43.92678586080939
-0.4427,-45.75176343763528
-0.4437000000000001,-47.67577080545174
-0.4447,-49.557336834272235
-0.4457000000000001,-51.38231441109813
-0.4467,-53.16485064892808
-0.4477000000000001,-54.961533999756675
-0.4487,-56.82895291557852
-0.4497000000000001,-58.75296028339497
-0.4507,-60.59208497321952
-0.4517000000000001,-62.37462121104946
-0.4527,-64.15715744887942
-0.4537000000000001,-66.03872347769992
-0.4547,-67.86370105452582
-0.4557000000000001,-69.57550172736251
-0.4567,-71.18827260920865
-0.4577000000000001,-72.8859261690467
-0.4587,-74.58357972888473
-0.4597000000000001,-76.33782174071737
-0.4607,-77.99303396155948
-0.4617000000000001,-79.52092216541372
-0.4627,-81.09125170826391
-0.4637000000000001,-82.70402259011003
-0.4647,-84.31679347195619
-0.4657000000000001,-85.80224033681448
-0.4667,-87.18865741068221
-0.4677000000000001,-88.5892215975486
-0.4687,-90.07466846240689
-0.4697000000000001,-91.56011532726518
-0.4707,-92.90409106213696
-0.4717000000000001,-94.21977257101145
-0.4727,-95.52130696688728
-0.4737000000000001,-96.79454713676581
-0.4747,-97.92631617665783
-0.4757000000000001,-99.10052655554581
-0.4767,-100.10497157844999
-0.4777000000000001,-101.32162329633393
-0.4787,-102.59486346621246
-0.4797000000000001,-103.98128054008019
-0.4807,-105.21207937096277
-0.48170000000000013,-106.38628974985076
-0.4827,-107.56050012873874
-0.48370000000000013,-108.64982782963483
-0.4847,-109.654272852539
-0.48570000000000013,-110.57383519745127
-0.4867,-110.70115921443913
-0.48570000000000013,-109.654272852539
-0.4847,-108.64982782963483
-0.48370000000000013,-107.68782414572658
-0.4827,-106.68337912282242
-0.48170000000000013,-105.73552255191284
-0.4807,-104.77351886800463
-0.4797000000000001,-103.98128054008019
-0.4787,-103.16074798615847
-0.4777000000000001,-102.24118564124619
-0.4767,-101.27918195733798
-0.4757000000000001,-100.18985425644189
-0.4747,-99.27029191152963
-0.4737000000000001,-98.26584688862545
-0.4727,-97.26140186572127
-0.4717000000000001,-96.31354529481169
-0.4707,-95.35154161090348
-0.4697000000000001,-94.601744621975
-0.4687,-93.65388805106544
-0.4677000000000001,-92.6070016891653
-0.4667,-91.46108553627462
-0.4657000000000001,-90.41419917437449
-0.4647,-89.55122528145681
-0.4637000000000001,-88.80142829252836
-0.4627,-87.79698326962418
-0.4617000000000001,-86.7076555687281
