Dec. 11, 2024   16:19:12
Cyclic Voltammetry
File: c:/users/guazh/data/banditlqround7_x0exp59_r20/2024-12-09-exp629\exp629-2024-12-11t16_08_20-h2koh\exp629_cv_sr_400mvs_efin_-1500mv.bin
Data Source:  Experiment
Instrument Model:  CHI760E
Header: CV ran at 400 mVs
Note: 

Init E (V) = -1
High E (V) = -1
Low E (V) = -1.5
Final E (V) = -1
Init P/N = N
Scan Rate (V/s) = 0.4
Segment = 3
Sample Interval (V) = 0.001
Quiet Time (sec) = 2
Sensitivity (A/V) = 0.01
Comp R (ohm) = 1.3

Results:

Channel 1:
Segment 1:

Segment 2:

Segment 3:

Potential/V, Current/A

-1.000, -1.218e-5
-1.001, 3.715e-5
-1.002, 6.490e-5
-1.003, 8.957e-5
-1.004, 1.111e-4
-1.005, 1.296e-4
-1.006, 1.512e-4
-1.007, 1.666e-4
-1.008, 1.821e-4
-1.009, 1.913e-4
-1.010, 2.006e-4
-1.011, 2.129e-4
-1.012, 2.252e-4
-1.013, 2.406e-4
-1.014, 2.499e-4
-1.015, 2.591e-4
-1.016, 2.653e-4
-1.017, 2.715e-4
-1.018, 2.807e-4
-1.019, 2.900e-4
-1.020, 3.023e-4
-1.021, 3.115e-4
-1.022, 3.146e-4
-1.023, 3.208e-4
-1.024, 3.270e-4
-1.025, 3.362e-4
-1.026, 3.455e-4
-1.027, 3.547e-4
-1.028, 3.609e-4
-1.029, 3.640e-4
-1.030, 3.701e-4
-1.031, 3.794e-4
-1.032, 3.917e-4
-1.033, 4.010e-4
-1.034, 4.102e-4
-1.035, 4.195e-4
-1.036, 4.225e-4
-1.037, 4.256e-4
-1.038, 4.349e-4
-1.039, 4.441e-4
-1.040, 4.534e-4
-1.041, 4.626e-4
-1.042, 4.688e-4
-1.043, 4.719e-4
-1.044, 4.811e-4
-1.045, 4.904e-4
-1.046, 5.027e-4
-1.047, 5.120e-4
-1.048, 5.212e-4
-1.049, 5.243e-4
-1.050, 5.305e-4
-1.051, 5.366e-4
-1.052, 5.489e-4
-1.053, 5.582e-4
-1.054, 5.705e-4
-1.055, 5.767e-4
-1.056, 5.798e-4
-1.057, 5.859e-4
-1.058, 5.952e-4
-1.059, 6.044e-4
-1.060, 6.168e-4
-1.061, 6.229e-4
-1.062, 6.291e-4
-1.063, 6.353e-4
-1.064, 6.414e-4
-1.065, 6.507e-4
-1.066, 6.630e-4
-1.067, 6.723e-4
-1.068, 6.784e-4
-1.069, 6.815e-4
-1.070, 6.846e-4
-1.071, 6.908e-4
-1.072, 7.000e-4
-1.073, 7.093e-4
-1.074, 7.185e-4
-1.075, 7.216e-4
-1.076, 7.247e-4
-1.077, 7.309e-4
-1.078, 7.339e-4
-1.079, 7.432e-4
-1.080, 7.524e-4
-1.081, 7.586e-4
-1.082, 7.586e-4
-1.083, 7.617e-4
-1.084, 7.617e-4
-1.085, 7.679e-4
-1.086, 7.771e-4
-1.087, 7.833e-4
-1.088, 7.833e-4
-1.089, 7.863e-4
-1.090, 7.833e-4
-1.091, 7.833e-4
-1.092, 7.894e-4
-1.093, 7.925e-4
-1.094, 7.956e-4
-1.095, 7.956e-4
-1.096, 7.925e-4
-1.097, 7.925e-4
-1.098, 7.956e-4
-1.099, 7.987e-4
-1.100, 8.048e-4
-1.101, 8.048e-4
-1.102, 8.018e-4
-1.103, 7.987e-4
-1.104, 7.956e-4
-1.105, 7.956e-4
-1.106, 7.987e-4
-1.107, 7.987e-4
-1.108, 7.956e-4
-1.109, 7.894e-4
-1.110, 7.863e-4
-1.111, 7.833e-4
-1.112, 7.833e-4
-1.113, 7.863e-4
-1.114, 7.833e-4
-1.115, 7.771e-4
-1.116, 7.709e-4
-1.117, 7.648e-4
-1.118, 7.617e-4
-1.119, 7.586e-4
-1.120, 7.586e-4
-1.121, 7.555e-4
-1.122, 7.494e-4
-1.123, 7.401e-4
-1.124, 7.339e-4
-1.125, 7.278e-4
-1.126, 7.247e-4
-1.127, 7.216e-4
-1.128, 7.154e-4
-1.129, 7.062e-4
-1.130, 6.969e-4
-1.131, 6.908e-4
-1.132, 6.877e-4
-1.133, 6.846e-4
-1.134, 6.815e-4
-1.135, 6.723e-4
-1.136, 6.630e-4
-1.137, 6.569e-4
-1.138, 6.507e-4
-1.139, 6.476e-4
-1.140, 6.445e-4
-1.141, 6.353e-4
-1.142, 6.291e-4
-1.143, 6.168e-4
-1.144, 6.075e-4
-1.145, 6.044e-4
-1.146, 6.014e-4
-1.147, 5.952e-4
-1.148, 5.859e-4
-1.149, 5.767e-4
-1.150, 5.644e-4
-1.151, 5.582e-4
-1.152, 5.520e-4
-1.153, 5.489e-4
-1.154, 5.459e-4
-1.155, 5.366e-4
-1.156, 5.274e-4
-1.157, 5.150e-4
-1.158, 5.120e-4
-1.159, 5.058e-4
-1.160, 5.027e-4
-1.161, 4.965e-4
-1.162, 4.904e-4
-1.163, 4.811e-4
-1.164, 4.750e-4
-1.165, 4.688e-4
-1.166, 4.688e-4
-1.167, 4.657e-4
-1.168, 4.595e-4
-1.169, 4.503e-4
-1.170, 4.410e-4
-1.171, 4.349e-4
-1.172, 4.349e-4
-1.173, 4.318e-4
-1.174, 4.287e-4
-1.175, 4.225e-4
-1.176, 4.133e-4
-1.177, 4.071e-4
-1.178, 4.040e-4
-1.179, 4.040e-4
-1.180, 4.010e-4
-1.181, 3.979e-4
-1.182, 3.886e-4
-1.183, 3.825e-4
-1.184, 3.763e-4
-1.185, 3.732e-4
-1.186, 3.732e-4
-1.187, 3.701e-4
-1.188, 3.640e-4
-1.189, 3.578e-4
-1.190, 3.485e-4
-1.191, 3.455e-4
-1.192, 3.455e-4
-1.193, 3.424e-4
-1.194, 3.424e-4
-1.195, 3.362e-4
-1.196, 3.300e-4
-1.197, 3.270e-4
-1.198, 3.239e-4
-1.199, 3.239e-4
-1.200, 3.239e-4
-1.201, 3.208e-4
-1.202, 3.146e-4
-1.203, 3.115e-4
-1.204, 3.085e-4
-1.205, 3.054e-4
-1.206, 3.115e-4
-1.207, 3.115e-4
-1.208, 3.054e-4
-1.209, 2.992e-4
-1.210, 2.931e-4
-1.211, 2.900e-4
-1.212, 2.931e-4
-1.213, 2.931e-4
-1.214, 2.931e-4
-1.215, 2.900e-4
-1.216, 2.838e-4
-1.217, 2.807e-4
-1.218, 2.776e-4
-1.219, 2.776e-4
-1.220, 2.776e-4
-1.221, 2.776e-4
-1.222, 2.746e-4
-1.223, 2.715e-4
-1.224, 2.684e-4
-1.225, 2.684e-4
-1.226, 2.715e-4
-1.227, 2.684e-4
-1.228, 2.653e-4
-1.229, 2.622e-4
-1.230, 2.591e-4
-1.231, 2.591e-4
-1.232, 2.591e-4
-1.233, 2.622e-4
-1.234, 2.622e-4
-1.235, 2.591e-4
-1.236, 2.530e-4
-1.237, 2.499e-4
-1.238, 2.499e-4
-1.239, 2.530e-4
-1.240, 2.530e-4
-1.241, 2.530e-4
-1.242, 2.499e-4
-1.243, 2.437e-4
-1.244, 2.437e-4
-1.245, 2.437e-4
-1.246, 2.468e-4
-1.247, 2.468e-4
-1.248, 2.468e-4
-1.249, 2.437e-4
-1.250, 2.406e-4
-1.251, 2.376e-4
-1.252, 2.406e-4
-1.253, 2.437e-4
-1.254, 2.437e-4
-1.255, 2.406e-4
-1.256, 2.376e-4
-1.257, 2.345e-4
-1.258, 2.345e-4
-1.259, 2.376e-4
-1.260, 2.376e-4
-1.261, 2.406e-4
-1.262, 2.376e-4
-1.263, 2.314e-4
-1.264, 2.314e-4
-1.265, 2.314e-4
-1.266, 2.345e-4
-1.267, 2.376e-4
-1.268, 2.345e-4
-1.269, 2.314e-4
-1.270, 2.283e-4
-1.271, 2.283e-4
-1.272, 2.314e-4
-1.273, 2.345e-4
-1.274, 2.345e-4
-1.275, 2.314e-4
-1.276, 2.283e-4
-1.277, 2.283e-4
-1.278, 2.283e-4
-1.279, 2.314e-4
-1.280, 2.345e-4
-1.281, 2.345e-4
-1.282, 2.314e-4
-1.283, 2.283e-4
-1.284, 2.252e-4
-1.285, 2.283e-4
-1.286, 2.314e-4
-1.287, 2.345e-4
-1.288, 2.314e-4
-1.289, 2.314e-4
-1.290, 2.283e-4
-1.291, 2.252e-4
-1.292, 2.283e-4
-1.293, 2.314e-4
-1.294, 2.345e-4
-1.295, 2.314e-4
-1.296, 2.314e-4
-1.297, 2.283e-4
-1.298, 2.314e-4
-1.299, 2.345e-4
-1.300, 2.376e-4
-1.301, 2.376e-4
-1.302, 2.345e-4
-1.303, 2.314e-4
-1.304, 2.314e-4
-1.305, 2.345e-4
-1.306, 2.376e-4
-1.307, 2.406e-4
-1.308, 2.406e-4
-1.309, 2.376e-4
-1.310, 2.376e-4
-1.311, 2.406e-4
-1.312, 2.406e-4
-1.313, 2.468e-4
-1.314, 2.468e-4
-1.315, 2.468e-4
-1.316, 2.437e-4
-1.317, 2.406e-4
-1.318, 2.437e-4
-1.319, 2.499e-4
-1.320, 2.530e-4
-1.321, 2.530e-4
-1.322, 2.530e-4
-1.323, 2.530e-4
-1.324, 2.530e-4
-1.325, 2.530e-4
-1.326, 2.622e-4
-1.327, 2.622e-4
-1.328, 2.622e-4
-1.329, 2.622e-4
-1.330, 2.591e-4
-1.331, 2.622e-4
-1.332, 2.653e-4
-1.333, 2.715e-4
-1.334, 2.715e-4
-1.335, 2.715e-4
-1.336, 2.715e-4
-1.337, 2.715e-4
-1.338, 2.746e-4
-1.339, 2.776e-4
-1.340, 2.838e-4
-1.341, 2.869e-4
-1.342, 2.838e-4
-1.343, 2.838e-4
-1.344, 2.838e-4
-1.345, 2.900e-4
-1.346, 2.931e-4
-1.347, 2.992e-4
-1.348, 2.992e-4
-1.349, 2.992e-4
-1.350, 2.992e-4
-1.351, 3.054e-4
-1.352, 3.085e-4
-1.353, 3.146e-4
-1.354, 3.177e-4
-1.355, 3.177e-4
-1.356, 3.177e-4
-1.357, 3.177e-4
-1.358, 3.208e-4
-1.359, 3.270e-4
-1.360, 3.331e-4
-1.361, 3.362e-4
-1.362, 3.362e-4
-1.363, 3.362e-4
-1.364, 3.393e-4
-1.365, 3.424e-4
-1.366, 3.485e-4
-1.367, 3.547e-4
-1.368, 3.578e-4
-1.369, 3.578e-4
-1.370, 3.578e-4
-1.371, 3.640e-4
-1.372, 3.701e-4
-1.373, 3.763e-4
-1.374, 3.794e-4
-1.375, 3.825e-4
-1.376, 3.825e-4
-1.377, 3.855e-4
-1.378, 3.886e-4
-1.379, 3.948e-4
-1.380, 4.040e-4
-1.381, 4.071e-4
-1.382, 4.102e-4
-1.383, 4.133e-4
-1.384, 4.164e-4
-1.385, 4.195e-4
-1.386, 4.287e-4
-1.387, 4.349e-4
-1.388, 4.380e-4
-1.389, 4.410e-4
-1.390, 4.441e-4
-1.391, 4.503e-4
-1.392, 4.565e-4
-1.393, 4.626e-4
-1.394, 4.688e-4
-1.395, 4.719e-4
-1.396, 4.750e-4
-1.397, 4.811e-4
-1.398, 4.904e-4
-1.399, 4.965e-4
-1.400, 5.089e-4
-1.401, 5.150e-4
-1.402, 5.181e-4
-1.403, 5.212e-4
-1.404, 5.274e-4
-1.405, 5.335e-4
-1.406, 5.459e-4
-1.407, 5.551e-4
-1.408, 5.582e-4
-1.409, 5.644e-4
-1.410, 5.705e-4
-1.411, 5.798e-4
-1.412, 5.890e-4
-1.413, 6.014e-4
-1.414, 6.106e-4
-1.415, 6.168e-4
-1.416, 6.229e-4
-1.417, 6.322e-4
-1.418, 6.414e-4
-1.419, 6.569e-4
-1.420, 6.723e-4
-1.421, 6.846e-4
-1.422, 6.908e-4
-1.423, 7.031e-4
-1.424, 7.124e-4
-1.425, 7.278e-4
-1.426, 7.463e-4
-1.427, 7.648e-4
-1.428, 7.771e-4
-1.429, 7.925e-4
-1.430, 8.079e-4
-1.431, 8.295e-4
-1.432, 8.511e-4
-1.433, 8.758e-4
-1.434, 9.004e-4
-1.435, 9.220e-4
-1.436, 9.467e-4
-1.437, 9.713e-4
-1.438, 1.002e-3
-1.439, 1.036e-3
-1.440, 1.073e-3
-1.441, 1.110e-3
-1.442, 1.150e-3
-1.443, 1.187e-3
-1.444, 1.230e-3
-1.445, 1.280e-3
-1.446, 1.332e-3
-1.447, 1.391e-3
-1.448, 1.446e-3
-1.449, 1.508e-3
-1.450, 1.569e-3
-1.451, 1.640e-3
-1.452, 1.717e-3
-1.453, 1.801e-3
-1.454, 1.890e-3
-1.455, 1.980e-3
-1.456, 2.072e-3
-1.457, 2.171e-3
-1.458, 2.272e-3
-1.459, 2.383e-3
-1.460, 2.501e-3
-1.461, 2.615e-3
-1.462, 2.735e-3
-1.463, 2.849e-3
-1.464, 2.972e-3
-1.465, 3.099e-3
-1.466, 3.231e-3
-1.467, 3.364e-3
-1.468, 3.493e-3
-1.469, 3.626e-3
-1.470, 3.755e-3
-1.471, 3.888e-3
-1.472, 4.030e-3
-1.473, 4.169e-3
-1.474, 4.307e-3
-1.475, 4.443e-3
-1.476, 4.579e-3
-1.477, 4.708e-3
-1.478, 4.841e-3
-1.479, 4.973e-3
-1.480, 5.106e-3
-1.481, 5.238e-3
-1.482, 5.362e-3
-1.483, 5.485e-3
-1.484, 5.608e-3
-1.485, 5.738e-3
-1.486, 5.867e-3
-1.487, 5.991e-3
-1.488, 6.114e-3
-1.489, 6.231e-3
-1.490, 6.345e-3
-1.491, 6.462e-3
-1.492, 6.580e-3
-1.493, 6.697e-3
-1.494, 6.808e-3
-1.495, 6.909e-3
-1.496, 7.008e-3
-1.497, 7.107e-3
-1.498, 7.212e-3
-1.499, 7.310e-3
-1.500, 7.356e-3
-1.499, 7.316e-3
-1.498, 7.273e-3
-1.497, 7.224e-3
-1.496, 7.171e-3
-1.495, 7.125e-3
-1.494, 7.082e-3
-1.493, 7.036e-3
-1.492, 6.983e-3
-1.491, 6.928e-3
-1.490, 6.866e-3
-1.489, 6.808e-3
-1.488, 6.752e-3
-1.487, 6.700e-3
-1.486, 6.647e-3
-1.485, 6.586e-3
-1.484, 6.524e-3
-1.483, 6.459e-3
-1.482, 6.395e-3
-1.481, 6.333e-3
-1.480, 6.271e-3
-1.479, 6.213e-3
-1.478, 6.151e-3
-1.477, 6.089e-3
-1.476, 6.025e-3
-1.475, 5.969e-3
-1.474, 5.920e-3
-1.473, 5.861e-3
-1.472, 5.799e-3
-1.471, 5.735e-3
-1.470, 5.673e-3
-1.469, 5.611e-3
-1.468, 5.550e-3
-1.467, 5.497e-3
-1.466, 5.445e-3
-1.465, 5.383e-3
-1.464, 5.328e-3
-1.463, 5.278e-3
-1.462, 5.223e-3
-1.461, 5.161e-3
-1.460, 5.100e-3
-1.459, 5.041e-3
-1.458, 4.976e-3
-1.457, 4.908e-3
-1.456, 4.847e-3
-1.455, 4.794e-3
-1.454, 4.736e-3
-1.453, 4.680e-3
-1.452, 4.622e-3
-1.451, 4.563e-3
-1.450, 4.508e-3
-1.449, 4.449e-3
-1.448, 4.391e-3
-1.447, 4.347e-3
-1.446, 4.298e-3
-1.445, 4.252e-3
-1.444, 4.199e-3
-1.443, 4.150e-3
-1.442, 4.101e-3
-1.441, 4.048e-3
-1.440, 3.999e-3
-1.439, 3.950e-3
-1.438, 3.891e-3
-1.437, 3.832e-3
-1.436, 3.783e-3
-1.435, 3.731e-3
-1.434, 3.678e-3
-1.433, 3.626e-3
-1.432, 3.577e-3
-1.431, 3.524e-3
-1.430, 3.472e-3
-1.429, 3.422e-3
-1.428, 3.379e-3
-1.427, 3.327e-3
-1.426, 3.290e-3
-1.425, 3.253e-3
-1.424, 3.204e-3
-1.423, 3.154e-3
-1.422, 3.102e-3
-1.421, 3.062e-3
-1.420, 3.022e-3
-1.419, 2.972e-3
-1.418, 2.917e-3
-1.417, 2.864e-3
-1.416, 2.812e-3
-1.415, 2.766e-3
-1.414, 2.723e-3
-1.413, 2.686e-3
-1.412, 2.642e-3
-1.411, 2.599e-3
-1.410, 2.559e-3
-1.409, 2.516e-3
-1.408, 2.473e-3
-1.407, 2.436e-3
-1.406, 2.386e-3
-1.405, 2.340e-3
-1.404, 2.291e-3
-1.403, 2.245e-3
-1.402, 2.201e-3
-1.401, 2.164e-3
-1.400, 2.128e-3
-1.399, 2.097e-3
-1.398, 2.057e-3
-1.397, 2.013e-3
-1.396, 1.973e-3
-1.395, 1.930e-3
-1.394, 1.896e-3
-1.393, 1.859e-3
-1.392, 1.825e-3
-1.391, 1.788e-3
-1.390, 1.748e-3
-1.389, 1.714e-3
-1.388, 1.680e-3
-1.387, 1.653e-3
-1.386, 1.619e-3
-1.385, 1.579e-3
-1.384, 1.542e-3
-1.383, 1.505e-3
-1.382, 1.471e-3
-1.381, 1.443e-3
-1.380, 1.415e-3
-1.379, 1.381e-3
-1.378, 1.351e-3
-1.377, 1.317e-3
-1.376, 1.286e-3
-1.375, 1.258e-3
-1.374, 1.227e-3
-1.373, 1.199e-3
-1.372, 1.172e-3
-1.371, 1.138e-3
-1.370, 1.107e-3
-1.369, 1.079e-3
-1.368, 1.051e-3
-1.367, 1.027e-3
-1.366, 9.991e-4
-1.365, 9.713e-4
-1.364, 9.498e-4
-1.363, 9.220e-4
-1.362, 8.943e-4
-1.361, 8.727e-4
-1.360, 8.511e-4
-1.359, 8.264e-4
-1.358, 8.018e-4
-1.357, 7.771e-4
-1.356, 7.494e-4
-1.355, 7.309e-4
-1.354, 7.093e-4
-1.353, 6.877e-4
-1.352, 6.661e-4
-1.351, 6.445e-4
-1.350, 6.199e-4
-1.349, 5.983e-4
-1.348, 5.798e-4
-1.347, 5.644e-4
-1.346, 5.459e-4
-1.345, 5.243e-4
-1.344, 5.027e-4
-1.343, 4.842e-4
-1.342, 4.657e-4
-1.341, 4.503e-4
-1.340, 4.349e-4
-1.339, 4.225e-4
-1.338, 4.040e-4
-1.337, 3.825e-4
-1.336, 3.670e-4
-1.335, 3.547e-4
-1.334, 3.424e-4
-1.333, 3.270e-4
-1.332, 3.146e-4
-1.331, 2.961e-4
-1.330, 2.807e-4
-1.329, 2.653e-4
-1.328, 2.561e-4
-1.327, 2.468e-4
-1.326, 2.376e-4
-1.325, 2.221e-4
-1.324, 2.098e-4
-1.323, 1.975e-4
-1.322, 1.851e-4
-1.321, 1.759e-4
-1.320, 1.697e-4
-1.319, 1.605e-4
-1.318, 1.481e-4
-1.317, 1.358e-4
-1.316, 1.266e-4
-1.315, 1.173e-4
-1.314, 1.111e-4
-1.313, 1.050e-4
-1.312, 9.573e-5
-1.311, 8.340e-5
-1.310, 7.415e-5
-1.309, 7.107e-5
-1.308, 6.490e-5
-1.307, 6.182e-5
-1.306, 5.565e-5
-1.305, 4.640e-5
-1.304, 3.715e-5
-1.303, 2.790e-5
-1.302, 2.174e-5
-1.301, 1.865e-5
-1.300, 1.557e-5
-1.299, 9.405e-6
-1.298, 3.239e-6
-1.297, -2.927e-6
-1.296, -9.093e-6
-1.295, -1.218e-5
-1.294, -1.218e-5
-1.293, -1.526e-5
-1.292, -1.834e-5
-1.291, -2.451e-5
-1.290, -3.068e-5
-1.289, -3.376e-5
-1.288, -3.684e-5
-1.287, -3.684e-5
-1.286, -3.992e-5
-1.285, -4.301e-5
-1.284, -4.917e-5
-1.283, -5.534e-5
-1.282, -5.534e-5
-1.281, -5.534e-5
-1.280, -5.842e-5
-1.279, -6.151e-5
-1.278, -6.459e-5
-1.277, -6.767e-5
-1.276, -7.384e-5
-1.275, -7.384e-5
-1.274, -7.076e-5
-1.273, -7.384e-5
-1.272, -7.692e-5
-1.271, -8.000e-5
-1.270, -8.309e-5
-1.269, -8.309e-5
-1.268, -8.309e-5
-1.267, -8.309e-5
-1.266, -8.309e-5
-1.265, -8.617e-5
-1.264, -8.925e-5
-1.263, -9.234e-5
-1.262, -9.542e-5
-1.261, -9.234e-5
-1.260, -9.234e-5
-1.259, -9.542e-5
-1.258, -9.542e-5
-1.257, -1.016e-4
-1.256, -1.016e-4
-1.255, -1.016e-4
-1.254, -1.016e-4
-1.253, -1.016e-4
-1.252, -1.016e-4
-1.251, -1.047e-4
-1.250, -1.078e-4
-1.249, -1.078e-4
-1.248, -1.078e-4
-1.247, -1.047e-4
-1.246, -1.047e-4
-1.245, -1.078e-4
-1.244, -1.108e-4
-1.243, -1.139e-4
-1.242, -1.139e-4
-1.241, -1.108e-4
-1.240, -1.108e-4
-1.239, -1.108e-4
-1.238, -1.139e-4
-1.237, -1.170e-4
-1.236, -1.170e-4
-1.235, -1.170e-4
-1.234, -1.139e-4
-1.233, -1.139e-4
-1.232, -1.139e-4
-1.231, -1.201e-4
-1.230, -1.201e-4
-1.229, -1.232e-4
-1.228, -1.201e-4
-1.227, -1.201e-4
-1.226, -1.170e-4
-1.225, -1.201e-4
-1.224, -1.232e-4
-1.223, -1.263e-4
-1.222, -1.263e-4
-1.221, -1.232e-4
-1.220, -1.201e-4
-1.219, -1.232e-4
-1.218, -1.232e-4
-1.217, -1.263e-4
-1.216, -1.293e-4
-1.215, -1.263e-4
-1.214, -1.263e-4
-1.213, -1.232e-4
-1.212, -1.263e-4
-1.211, -1.293e-4
-1.210, -1.324e-4
-1.209, -1.293e-4
-1.208, -1.293e-4
-1.207, -1.263e-4
-1.206, -1.293e-4
-1.205, -1.293e-4
-1.204, -1.355e-4
-1.203, -1.355e-4
-1.202, -1.355e-4
-1.201, -1.324e-4
-1.200, -1.324e-4
-1.199, -1.324e-4
-1.198, -1.355e-4
-1.197, -1.386e-4
-1.196, -1.417e-4
-1.195, -1.386e-4
-1.194, -1.355e-4
-1.193, -1.355e-4
-1.192, -1.386e-4
-1.191, -1.417e-4
-1.190, -1.448e-4
-1.189, -1.448e-4
-1.188, -1.448e-4
-1.187, -1.417e-4
-1.186, -1.417e-4
-1.185, -1.448e-4
-1.184, -1.448e-4
-1.183, -1.478e-4
-1.182, -1.478e-4
-1.181, -1.478e-4
-1.180, -1.448e-4
-1.179, -1.448e-4
-1.178, -1.509e-4
-1.177, -1.540e-4
-1.176, -1.540e-4
-1.175, -1.540e-4
-1.174, -1.540e-4
-1.173, -1.509e-4
-1.172, -1.540e-4
-1.171, -1.571e-4
-1.170, -1.602e-4
-1.169, -1.602e-4
-1.168, -1.602e-4
-1.167, -1.571e-4
-1.166, -1.571e-4
-1.165, -1.602e-4
-1.164, -1.632e-4
-1.163, -1.663e-4
-1.162, -1.663e-4
-1.161, -1.632e-4
-1.160, -1.632e-4
-1.159, -1.632e-4
-1.158, -1.663e-4
-1.157, -1.725e-4
-1.156, -1.725e-4
-1.155, -1.725e-4
-1.154, -1.694e-4
-1.153, -1.694e-4
-1.152, -1.725e-4
-1.151, -1.756e-4
-1.150, -1.817e-4
-1.149, -1.817e-4
-1.148, -1.817e-4
-1.147, -1.787e-4
-1.146, -1.787e-4
-1.145, -1.817e-4
-1.144, -1.879e-4
-1.143, -1.910e-4
-1.142, -1.910e-4
-1.141, -1.879e-4
-1.140, -1.879e-4
-1.139, -1.910e-4
-1.138, -1.941e-4
-1.137, -2.002e-4
-1.136, -2.033e-4
-1.135, -2.002e-4
-1.134, -1.972e-4
-1.133, -1.972e-4
-1.132, -2.002e-4
-1.131, -2.033e-4
-1.130, -2.095e-4
-1.129, -2.126e-4
-1.128, -2.126e-4
-1.127, -2.095e-4
-1.126, -2.095e-4
-1.125, -2.126e-4
-1.124, -2.187e-4
-1.123, -2.218e-4
-1.122, -2.218e-4
-1.121, -2.218e-4
-1.120, -2.218e-4
-1.119, -2.249e-4
-1.118, -2.280e-4
-1.117, -2.311e-4
-1.116, -2.342e-4
-1.115, -2.342e-4
-1.114, -2.342e-4
-1.113, -2.342e-4
-1.112, -2.372e-4
-1.111, -2.434e-4
-1.110, -2.465e-4
-1.109, -2.496e-4
-1.108, -2.527e-4
-1.107, -2.496e-4
-1.106, -2.496e-4
-1.105, -2.557e-4
-1.104, -2.619e-4
-1.103, -2.650e-4
-1.102, -2.681e-4
-1.101, -2.650e-4
-1.100, -2.681e-4
-1.099, -2.681e-4
-1.098, -2.742e-4
-1.097, -2.804e-4
-1.096, -2.835e-4
-1.095, -2.835e-4
-1.094, -2.866e-4
-1.093, -2.866e-4
-1.092, -2.897e-4
-1.091, -2.927e-4
-1.090, -2.989e-4
-1.089, -3.020e-4
-1.088, -3.020e-4
-1.087, -3.020e-4
-1.086, -3.051e-4
-1.085, -3.112e-4
-1.084, -3.174e-4
-1.083, -3.205e-4
-1.082, -3.236e-4
-1.081, -3.236e-4
-1.080, -3.236e-4
-1.079, -3.267e-4
-1.078, -3.328e-4
-1.077, -3.390e-4
-1.076, -3.421e-4
-1.075, -3.452e-4
-1.074, -3.482e-4
-1.073, -3.482e-4
-1.072, -3.513e-4
-1.071, -3.544e-4
-1.070, -3.637e-4
-1.069, -3.667e-4
-1.068, -3.698e-4
-1.067, -3.667e-4
-1.066, -3.698e-4
-1.065, -3.760e-4
-1.064, -3.821e-4
-1.063, -3.883e-4
-1.062, -3.914e-4
-1.061, -3.914e-4
-1.060, -3.945e-4
-1.059, -3.976e-4
-1.058, -4.037e-4
-1.057, -4.099e-4
-1.056, -4.161e-4
-1.055, -4.191e-4
-1.054, -4.191e-4
-1.053, -4.222e-4
-1.052, -4.284e-4
-1.051, -4.346e-4
-1.050, -4.438e-4
-1.049, -4.500e-4
-1.048, -4.531e-4
-1.047, -4.561e-4
-1.046, -4.561e-4
-1.045, -4.623e-4
-1.044, -4.685e-4
-1.043, -4.746e-4
-1.042, -4.808e-4
-1.041, -4.839e-4
-1.040, -4.839e-4
-1.039, -4.901e-4
-1.038, -4.993e-4
-1.037, -5.086e-4
-1.036, -5.178e-4
-1.035, -5.209e-4
-1.034, -5.240e-4
-1.033, -5.271e-4
-1.032, -5.332e-4
-1.031, -5.425e-4
-1.030, -5.517e-4
-1.029, -5.579e-4
-1.028, -5.610e-4
-1.027, -5.641e-4
-1.026, -5.702e-4
-1.025, -5.795e-4
-1.024, -5.887e-4
-1.023, -6.011e-4
-1.022, -6.072e-4
-1.021, -6.134e-4
-1.020, -6.195e-4
-1.019, -6.257e-4
-1.018, -6.350e-4
-1.017, -6.473e-4
-1.016, -6.565e-4
-1.015, -6.658e-4
-1.014, -6.720e-4
-1.013, -6.781e-4
-1.012, -6.874e-4
-1.011, -6.966e-4
-1.010, -7.090e-4
-1.009, -7.213e-4
-1.008, -7.275e-4
-1.007, -7.336e-4
-1.006, -7.429e-4
-1.005, -7.552e-4
-1.004, -7.706e-4
-1.003, -7.860e-4
-1.002, -7.984e-4
-1.001, -8.045e-4
