Potential V vs RHE, Current mA cm-2
0.013299999999999867,-0.1330535977523067
0.012299999999999978,-0.5692798270656908
0.011299999999999866,-0.8308599464107361
0.010299999999999976,-1.0490084288499246
0.009299999999999864,-1.2234423321232837
0.008299999999999974,-1.3543031273607997
0.007299999999999862,-1.4415908145624723
0.006299999999999972,-1.5293029151541047
0.00529999999999986,-1.6156003044458718
0.0042999999999999705,-1.7033124050375041
0.0032999999999998586,-1.7910245056291363
0.0022999999999999687,-1.8334658446250875
0.0012999999999998568,-1.92117794521672
0.00029999999999996696,-1.9650339955125358
-0.000700000000000145,-1.9650339955125358
-0.0017000000000000348,-2.008890045808352
-0.0027000000000001467,-2.052746096104168
-0.0037000000000000366,-2.095187435100119
-0.0047000000000001485,-2.1390434853959355
-0.005700000000000038,-2.1828995356917518
-0.00670000000000015,-2.226755585987568
-0.00770000000000004,-2.226755585987568
-0.008700000000000152,-2.226755585987568
-0.009700000000000042,-2.226755585987568
-0.010700000000000154,-2.2706116362833835
-0.011700000000000044,-2.2706116362833835
-0.012700000000000156,-2.2706116362833835
-0.013700000000000045,-2.3144676865791998
-0.014700000000000157,-2.3569090255751513
-0.015700000000000047,-2.3569090255751513
-0.01670000000000016,-2.3569090255751513
-0.01770000000000005,-2.3569090255751513
-0.01870000000000016,-2.3569090255751513
-0.01970000000000005,-2.4007650758709675
-0.020700000000000163,-2.4007650758709675
-0.021700000000000053,-2.4007650758709675
-0.022700000000000164,-2.4446211261667834
-0.023700000000000054,-2.4446211261667834
-0.024700000000000166,-2.4446211261667834
-0.025700000000000056,-2.4446211261667834
-0.026700000000000168,-2.4446211261667834
-0.027700000000000058,-2.4446211261667834
-0.02870000000000017,-2.4446211261667834
-0.02970000000000006,-2.4446211261667834
-0.03070000000000017,-2.4884771764625997
-0.03170000000000006,-2.4884771764625997
-0.03270000000000017,-2.4884771764625997
-0.03370000000000006,-2.4884771764625997
-0.034700000000000175,-2.4884771764625997
-0.035700000000000065,-2.4884771764625997
-0.03670000000000018,-2.4884771764625997
-0.03770000000000007,-2.4884771764625997
-0.03870000000000018,-2.4884771764625997
-0.03970000000000007,-2.532333226758415
-0.04070000000000018,-2.532333226758415
-0.04170000000000007,-2.532333226758415
-0.04270000000000018,-2.4884771764625997
-0.04370000000000007,-2.4884771764625997
-0.044700000000000184,-2.4884771764625997
-0.045700000000000074,-2.4884771764625997
-0.046700000000000186,-2.532333226758415
-0.047700000000000076,-2.532333226758415
-0.04870000000000019,-2.532333226758415
-0.04970000000000008,-2.532333226758415
-0.05070000000000019,-2.4884771764625997
-0.05170000000000008,-2.532333226758415
-0.05270000000000019,-2.4884771764625997
-0.05370000000000008,-2.532333226758415
-0.05470000000000019,-2.532333226758415
-0.05570000000000008,-2.532333226758415
-0.056700000000000195,-2.532333226758415
-0.057700000000000085,-2.532333226758415
-0.058700000000000196,-2.532333226758415
-0.059700000000000086,-2.4884771764625997
-0.0607000000000002,-2.4884771764625997
-0.06170000000000009,-2.4884771764625997
-0.0627000000000002,-2.532333226758415
-0.06370000000000009,-2.532333226758415
-0.0647000000000002,-2.532333226758415
-0.06570000000000009,-2.532333226758415
-0.0667000000000002,-2.532333226758415
-0.0677000000000001,-2.532333226758415
-0.0687000000000002,-2.4884771764625997
-0.0697000000000001,-2.4884771764625997
-0.07070000000000021,-2.4884771764625997
-0.0717000000000001,-2.532333226758415
-0.07270000000000021,-2.532333226758415
-0.0737000000000001,-2.532333226758415
-0.07470000000000021,-2.532333226758415
-0.0757000000000001,-2.532333226758415
-0.07670000000000021,-2.532333226758415
-0.0777000000000001,-2.4884771764625997
-0.07870000000000021,-2.532333226758415
-0.0797000000000001,-2.532333226758415
-0.08070000000000022,-2.532333226758415
-0.0817000000000001,-2.532333226758415
-0.08270000000000022,-2.532333226758415
-0.08370000000000011,-2.4884771764625997
-0.08470000000000022,-2.4884771764625997
-0.08570000000000011,-2.4884771764625997
-0.08670000000000022,-2.4884771764625997
-0.08770000000000011,-2.4884771764625997
-0.08870000000000022,-2.532333226758415
-0.08970000000000011,-2.532333226758415
-0.09070000000000022,-2.532333226758415
-0.09170000000000011,-2.532333226758415
-0.09270000000000023,-2.532333226758415
-0.09370000000000012,-2.4884771764625997
-0.09470000000000023,-2.532333226758415
-0.09570000000000012,-2.4884771764625997
-0.09670000000000023,-2.532333226758415
-0.09770000000000012,-2.532333226758415
-0.09870000000000023,-2.532333226758415
-0.09970000000000012,-2.532333226758415
-0.10070000000000023,-2.4884771764625997
-0.10170000000000012,-2.4884771764625997
-0.10270000000000024,-2.4884771764625997
-0.10370000000000013,-2.4884771764625997
-0.10470000000000024,-2.532333226758415
-0.10570000000000013,-2.532333226758415
-0.10670000000000024,-2.532333226758415
-0.10770000000000013,-2.532333226758415
-0.10870000000000024,-2.532333226758415
-0.10970000000000013,-2.532333226758415
-0.11070000000000024,-2.4884771764625997
-0.11170000000000013,-2.4884771764625997
-0.11270000000000002,-2.4884771764625997
-0.11370000000000013,-2.532333226758415
-0.11470000000000002,-2.532333226758415
-0.11570000000000014,-2.532333226758415
-0.11670000000000003,-2.532333226758415
-0.11770000000000014,-2.532333226758415
-0.11870000000000003,-2.4884771764625997
-0.11970000000000014,-2.4884771764625997
-0.12070000000000003,-2.532333226758415
-0.12170000000000014,-2.532333226758415
-0.12270000000000003,-2.532333226758415
-0.12370000000000014,-2.532333226758415
-0.12470000000000003,-2.532333226758415
-0.12570000000000014,-2.532333226758415
-0.12670000000000003,-2.532333226758415
-0.12770000000000015,-2.532333226758415
-0.12870000000000004,-2.532333226758415
-0.12970000000000015,-2.532333226758415
-0.13070000000000004,-2.532333226758415
-0.13170000000000015,-2.532333226758415
-0.13270000000000004,-2.532333226758415
-0.13370000000000015,-2.576189277054232
-0.13470000000000004,-2.532333226758415
-0.13570000000000015,-2.576189277054232
-0.13670000000000004,-2.532333226758415
-0.13770000000000016,-2.576189277054232
-0.13870000000000005,-2.576189277054232
-0.13970000000000016,-2.576189277054232
-0.14070000000000005,-2.576189277054232
-0.14170000000000016,-2.576189277054232
-0.14270000000000005,-2.576189277054232
-0.14370000000000016,-2.532333226758415
-0.14470000000000005,-2.532333226758415
-0.14570000000000016,-2.576189277054232
-0.14670000000000005,-2.576189277054232
-0.14770000000000016,-2.618630616050183
-0.14870000000000005,-2.618630616050183
-0.14970000000000017,-2.576189277054232
-0.15070000000000006,-2.576189277054232
-0.15170000000000017,-2.576189277054232
-0.15270000000000006,-2.576189277054232
-0.15370000000000017,-2.618630616050183
-0.15470000000000006,-2.618630616050183
-0.15570000000000017,-2.618630616050183
-0.15670000000000006,-2.618630616050183
-0.15770000000000017,-2.618630616050183
-0.15870000000000006,-2.618630616050183
-0.15970000000000018,-2.618630616050183
-0.16070000000000007,-2.618630616050183
-0.16170000000000018,-2.618630616050183
-0.16270000000000007,-2.662486666345999
-0.16370000000000018,-2.662486666345999
-0.16470000000000007,-2.662486666345999
-0.16570000000000018,-2.662486666345999
-0.16670000000000007,-2.662486666345999
-0.16770000000000018,-2.618630616050183
-0.16870000000000007,-2.618630616050183
-0.16970000000000018,-2.662486666345999
-0.17070000000000007,-2.662486666345999
-0.17170000000000019,-2.662486666345999
-0.17270000000000008,-2.706342716641815
-0.1737000000000002,-2.706342716641815
-0.17470000000000008,-2.706342716641815
-0.1757000000000002,-2.706342716641815
-0.17670000000000008,-2.706342716641815
-0.1777000000000002,-2.706342716641815
-0.17870000000000008,-2.706342716641815
-0.1797000000000002,-2.706342716641815
-0.18070000000000008,-2.706342716641815
-0.1817000000000002,-2.706342716641815
-0.18270000000000008,-2.7501987669376318
-0.1837000000000002,-2.7501987669376318
-0.1847000000000001,-2.7501987669376318
-0.1857000000000002,-2.706342716641815
-0.1867000000000001,-2.706342716641815
-0.1877000000000002,-2.7501987669376318
-0.1887000000000001,-2.794054817233447
-0.1897000000000002,-2.794054817233447
-0.1907000000000001,-2.794054817233447
-0.1917000000000001,-2.794054817233447
-0.19269999999999998,-2.794054817233447
-0.1937000000000001,-2.794054817233447
-0.19469999999999998,-2.794054817233447
-0.1957000000000001,-2.794054817233447
-0.19669999999999999,-2.8379108675292635
-0.1977000000000001,-2.794054817233447
-0.1987,-2.8379108675292635
-0.1997000000000001,-2.8379108675292635
-0.2007,-2.8379108675292635
-0.2017000000000001,-2.794054817233447
-0.2027,-2.8379108675292635
-0.2037000000000001,-2.8379108675292635
-0.2047,-2.8379108675292635
-0.2057000000000001,-2.8803522065252145
-0.2067,-2.8803522065252145
-0.2077000000000001,-2.8803522065252145
-0.2087,-2.8379108675292635
-0.2097000000000001,-2.8803522065252145
-0.2107,-2.8803522065252145
-0.2117000000000001,-2.8803522065252145
-0.2127,-2.8803522065252145
-0.2137000000000001,-2.8803522065252145
-0.2147,-2.924208256821031
-0.2157000000000001,-2.924208256821031
-0.2167,-2.924208256821031
-0.21770000000000012,-2.924208256821031
-0.2187,-2.924208256821031
-0.21970000000000012,-2.924208256821031
-0.2207,-2.968064307116847
-0.22170000000000012,-2.968064307116847
-0.2227,-2.968064307116847
-0.22370000000000012,-2.968064307116847
-0.2247,-2.968064307116847
-0.22570000000000012,-2.968064307116847
-0.2267,-2.968064307116847
-0.22770000000000012,-2.968064307116847
-0.22870000000000001,-2.968064307116847
-0.22970000000000013,-3.0119203574126634
-0.23070000000000002,-3.0119203574126634
-0.23170000000000013,-3.0119203574126634
-0.23270000000000002,-3.0119203574126634
-0.23370000000000013,-3.0119203574126634
-0.23470000000000002,-3.0119203574126634
-0.23570000000000013,-3.0119203574126634
-0.23670000000000002,-3.0119203574126634
-0.2376999999999999,-3.0119203574126634
-0.23870000000000002,-3.055776407708479
-0.2396999999999999,-3.055776407708479
-0.24070000000000003,-3.055776407708479
-0.24169999999999991,-3.055776407708479
-0.24270000000000003,-3.0119203574126634
-0.24369999999999992,-3.0119203574126634
-0.24470000000000003,-3.0119203574126634
-0.24569999999999992,-3.055776407708479
-0.24670000000000003,-3.0996324580042955
-0.24769999999999992,-3.055776407708479
-0.24870000000000003,-3.055776407708479
-0.24969999999999992,-3.055776407708479
-0.25070000000000003,-3.055776407708479
-0.2516999999999999,-3.055776407708479
-0.25270000000000004,-3.055776407708479
-0.2536999999999999,-3.0996324580042955
-0.25470000000000004,-3.0996324580042955
-0.2556999999999999,-3.0996324580042955
-0.25670000000000004,-3.1420737970002466
-0.25769999999999993,-3.0996324580042955
-0.25870000000000004,-3.0996324580042955
-0.25969999999999993,-3.0996324580042955
-0.26070000000000004,-3.0996324580042955
-0.26169999999999993,-3.0996324580042955
-0.26270000000000004,-3.0996324580042955
-0.26369999999999993,-3.1420737970002466
-0.26470000000000005,-3.1420737970002466
-0.26569999999999994,-3.0996324580042955
-0.26670000000000005,-3.0996324580042955
-0.26769999999999994,-3.0996324580042955
-0.26870000000000005,-3.0996324580042955
-0.26969999999999994,-3.0996324580042955
-0.27070000000000005,-3.1420737970002466
-0.27169999999999994,-3.1420737970002466
-0.27270000000000005,-3.1859298472960624
-0.27369999999999994,-3.1859298472960624
-0.27470000000000006,-3.1420737970002466
-0.27569999999999995,-3.1420737970002466
-0.27670000000000006,-3.1420737970002466
-0.27769999999999995,-3.1420737970002466
-0.27870000000000006,-3.1420737970002466
-0.27969999999999995,-3.1859298472960624
-0.28070000000000006,-3.1859298472960624
-0.28169999999999995,-3.1859298472960624
-0.28270000000000006,-3.1859298472960624
-0.28369999999999995,-3.1859298472960624
-0.28470000000000006,-3.1859298472960624
-0.28569999999999995,-3.1859298472960624
-0.28670000000000007,-3.1859298472960624
-0.28769999999999996,-3.1859298472960624
-0.28870000000000007,-3.2297858975918787
-0.28969999999999996,-3.2297858975918787
-0.29070000000000007,-3.2297858975918787
-0.29169999999999996,-3.2297858975918787
-0.29270000000000007,-3.1859298472960624
-0.29369999999999996,-3.1859298472960624
-0.2947000000000001,-3.2297858975918787
-0.29569999999999996,-3.2297858975918787
-0.2967000000000001,-3.2297858975918787
-0.29769999999999996,-3.2297858975918787
-0.2987000000000001,-3.273641947887695
-0.29969999999999997,-3.273641947887695
-0.3007000000000001,-3.273641947887695
-0.30169999999999997,-3.273641947887695
-0.3027000000000001,-3.273641947887695
-0.30369999999999997,-3.273641947887695
-0.3047000000000001,-3.317497998183511
-0.30569999999999997,-3.317497998183511
-0.3067000000000001,-3.317497998183511
-0.3077,-3.317497998183511
-0.3087000000000001,-3.317497998183511
-0.3097,-3.317497998183511
-0.3107000000000001,-3.317497998183511
-0.3117,-3.317497998183511
-0.3127000000000001,-3.361354048479327
-0.3137,-3.361354048479327
-0.3147000000000001,-3.361354048479327
-0.3157,-3.403795387475278
-0.3167000000000001,-3.403795387475278
-0.3177,-3.403795387475278
-0.3187000000000001,-3.447651437771094
-0.3197,-3.447651437771094
-0.3207000000000001,-3.4915074880669104
-0.3217,-3.4915074880669104
-0.3227000000000001,-3.5353635383627267
-0.3237,-3.5353635383627267
-0.3247000000000001,-3.5353635383627267
-0.3257,-3.5353635383627267
-0.3267000000000001,-3.5353635383627267
-0.3277,-3.5353635383627267
-0.3287000000000001,-3.579219588658543
-0.3297,-3.579219588658543
-0.3307000000000001,-3.623075638954359
-0.3317,-3.6655169779503103
-0.3327000000000001,-3.6655169779503103
-0.3337,-3.7093730282461257
-0.3347000000000001,-3.7093730282461257
-0.3357,-3.7532290785419424
-0.3367000000000001,-3.7532290785419424
-0.3377,-3.7970851288377587
-0.3387000000000001,-3.840941179133574
-0.3397,-3.884797229429391
-0.3407000000000001,-3.884797229429391
-0.3417,-3.927238568425342
-0.3427000000000001,-3.927238568425342
-0.3437,-3.971094618721158
-0.3447000000000001,-4.014950669016974
-0.3457,-4.0588067193127895
-0.3467000000000001,-4.102662769608606
-0.3477,-4.146518819904423
-0.3487000000000001,-4.1889601589003735
-0.3497,-4.23281620919619
-0.3507000000000001,-4.276672259492005
-0.3517,-4.3205283097878215
-0.3527000000000001,-4.364384360083638
-0.3537,-4.406825699079589
-0.3547000000000001,-4.494537799671222
-0.3557,-4.538393849967037
-0.35670000000000013,-4.582249900262854
-0.3577,-4.626105950558669
-0.35870000000000013,-4.668547289554621
-0.3597,-4.756259390146253
-0.36070000000000013,-4.800115440442069
-0.3617,-4.887827541033701
-0.3626999999999999,-4.974124930325469
-0.3637,-5.0618370309171015
-0.3646999999999999,-5.149549131508733
-0.3657,-5.235846520800501
-0.3666999999999999,-5.323558621392133
-0.3677,-5.411270721983764
-0.3686999999999999,-5.5414241615713475
-0.36970000000000003,-5.672992312458796
-0.3706999999999999,-5.759289701750564
-0.37170000000000003,-5.9347139029338285
-0.3726999999999999,-6.021011292225596
-0.37370000000000003,-6.196435493408861
-0.3746999999999999,-6.326588932996443
-0.37570000000000003,-6.500598422879844
-0.3766999999999999,-6.6760226240631075
-0.37770000000000004,-6.850032113946507
-0.3786999999999999,-7.067897654125724
-0.37970000000000004,-7.329619244600755
-0.3806999999999999,-7.591340835075788
-0.38170000000000004,-7.853062425550818
-0.38269999999999993,-8.158640066321666
-0.38370000000000004,-8.464217707092514
-0.38469999999999993,-8.812236686859313
-0.38570000000000004,-9.161670377925978
-0.38669999999999993,-9.55496011928846
-0.38770000000000004,-10.034547249942705
-0.38869999999999993,-10.470278330301136
-0.38970000000000005,-10.949865460955383
-0.39069999999999994,-11.473308641905447
-0.39170000000000005,-11.996751822855511
-0.39269999999999994,-12.520195003805576
-0.39370000000000005,-13.13135028534727
-0.39469999999999994,-13.741090855589102
-0.39570000000000005,-14.401761032626075
-0.39669999999999994,-15.094969569559943
-0.39770000000000005,-15.830619445489761
-0.39869999999999994,-16.580416434418233
-0.39970000000000006,-17.316066310348052
-0.40069999999999995,-18.10830463827247
-0.40170000000000006,-18.88639585319824
-0.40269999999999995,-19.721075520118614
-0.40370000000000006,-20.541608074040333
-0.40469999999999995,-21.418729079956652
-0.40570000000000006,-22.295850085872978
-0.40669999999999995,-23.15882397879065
-0.40770000000000006,-24.035944984706973
-0.40869999999999995,-24.95550732961925
-0.40970000000000006,-25.81848122253692
-0.41069999999999995,-26.69560222845324
-0.41170000000000007,-27.65760591236147
-0.41269999999999996,-28.577168257273744
-0.41370000000000007,-29.482583489187363
-0.41469999999999996,-30.402145834099635
-0.41570000000000007,-31.321708179011907
-0.41669999999999996,-32.24127052392419
-0.41770000000000007,-33.10424441684186
-0.41869999999999996,-33.98136542275818
-0.4197000000000001,-34.85848642867451
-0.42069999999999996,-35.679018982596226
-0.4217000000000001,-36.5985813275085
-0.42269999999999996,-37.47570233342482
-0.4237000000000001,-38.38111756533845
-0.42469999999999997,-39.258238571254765
-0.4257000000000001,-40.092918238175145
-0.42669999999999997,-40.95589213109281
-0.4277000000000001,-41.83301313700913
-0.42869999999999997,-42.653545690930855
-0.4297000000000001,-43.57310803584313
-0.43069999999999997,-44.45022904175945
-0.4317000000000001,-45.22832025668522
-0.4327,-45.97811724561369
-0.4337000000000001,-46.713767121543505
-0.4347,-47.40697565847737
-0.4357000000000001,-48.114331308409895
-0.4367,-48.80753984534376
-0.4377000000000001,-49.28854168729788
-0.4387,-50.12322135421825
-0.4397000000000001,-50.77398855215617
-0.4407,-51.509638428085985
-0.4417000000000001,-52.34431809500636
-0.4427,-53.12240930993213
-0.4437000000000001,-53.74488228187274
-0.4447,-54.2117370108282
-0.4457000000000001,-54.961533999756675
-0.4467,-55.65474253669055
-0.4477000000000001,-56.22062705663656
-0.4487,-56.70162889859067
-0.4497000000000001,-57.182630740544774
-0.4507,-57.70607392149485
-0.4517000000000001,-58.22951710244491
-0.4527,-58.79540162239092
-0.4537000000000001,-59.36128614233694
-0.4547,-59.9696120012789
-0.4557000000000001,-60.49305518222897
-0.4567,-61.07308681517363
-0.4577000000000001,-61.49750020513315
-0.4587,-61.97850204708726
-0.4597000000000001,-62.41706255004542
-0.4607,-63.06782974798333
-0.4617000000000001,-63.59127292893339
-0.4627,-64.11471610988345
-0.4637000000000001,-64.55327661284163
-0.4647,-65.0767197937917
-0.4657000000000001,-65.76992833072556
-0.4667,-66.39240130266617
-0.4677000000000001,-66.87340314462028
-0.4687,-67.25537519558385
-0.4697000000000001,-67.7788183765339
-0.4707,-68.0051721845123
-0.4717000000000001,-68.44373268747047
-0.4727,-68.57105670445833
-0.4737000000000001,-68.96717586842054
-0.4747,-69.22182390239624
-0.4757000000000001,-69.4906190493706
-0.4767,-69.87259110033416
-0.4777000000000001,-70.26871026429637
-0.4787,-70.74971210625048
-0.4797000000000001,-71.1458312702127
-0.4807,-71.58439177317086
-0.48170000000000013,-71.96636382413442
-0.4827,-72.63127813507097
-0.48370000000000013,-73.0556915250305
-0.4847,-73.45181068899271
-0.48570000000000013,-73.80548851395896
-0.4867,-74.0176952089387
-0.4876999999999999,-74.41381437290093
-0.4887,-74.80993353686314
-0.4896999999999999,-75.14946424883075
-0.4907,-75.29093537881725
-0.4916999999999999,-75.50314207379701
-0.4927,-75.85681989876326
-0.4936999999999999,-76.38026307971333
-0.49470000000000003,-76.98858893865528
-0.4956999999999999,-77.11591295564315
-0.49670000000000003,-77.86570994457162
-0.4976999999999999,-78.29012333453113
-0.49870000000000003,-78.85600785447714
-0.4996999999999999,-79.1248030014515
-0.5007,-79.33700969643127
-0.5016999999999999,-79.52092216541372
-0.5027,-80.00192400736783
-0.5036999999999999,-80.52536718831789
-0.5047,-81.26101706424771
-0.5056999999999999,-82.43522744313569
-0.5067,-83.08599464107361
-0.5076999999999999,-82.95867062408576
-0.5087,-83.22746577106011
