Potential V vs RHE, Current mA cm-2
0.013299999999999867,0.5177843357506035
0.012299999999999978,-1.4004227157363998
0.011299999999999866,-2.3979356532712375
0.010299999999999976,-2.975137863616172
0.009299999999999864,-3.408039521374873
0.008299999999999974,-3.7603026350412674
0.007299999999999862,-4.04183018371441
0.006299999999999972,-4.251207456094435
0.00529999999999986,-4.385605029581614
0.0042999999999999705,-4.562443942064744
0.0032999999999998586,-4.753429967546523
0.0022999999999999687,-4.904804076632082
0.0012999999999998568,-5.02505453712061
0.00029999999999996696,-5.095790102113861
-0.000700000000000145,-5.2075522948032
-0.0017000000000000348,-5.358926403888759
-0.0027000000000001467,-5.472103307877963
-0.0037000000000000366,-5.545668295470944
-0.0047000000000001485,-5.576791944067974
-0.005700000000000038,-5.640453952561901
-0.00670000000000015,-5.766363258249889
-0.00770000000000004,-5.834269400643411
-0.008700000000000152,-5.873881317039633
-0.009700000000000042,-5.910663810836123
-0.010700000000000154,-5.977155241929781
-0.011700000000000044,-6.0719408990207375
-0.012700000000000156,-6.155408865712774
-0.013700000000000045,-6.178044246510615
-0.014700000000000157,-6.193606070809131
-0.015700000000000047,-6.217656162906836
-0.01670000000000016,-6.303953552198603
-0.01770000000000005,-6.369030271992395
-0.01870000000000016,-6.37327440589199
-0.01970000000000005,-6.378933251091451
-0.020700000000000163,-6.436936414385917
-0.021700000000000053,-6.4850365985813285
-0.022700000000000164,-6.55577216357458
-0.023700000000000054,-6.557186874874445
-0.024700000000000166,-6.569919276573231
-0.025700000000000056,-6.608116481669587
-0.026700000000000168,-6.653387243265268
-0.027700000000000058,-6.702902138760544
-0.02870000000000017,-6.690169737061758
-0.02970000000000006,-6.667534356263918
-0.03070000000000017,-6.678852046662837
-0.03170000000000006,-6.711390406559734
-0.03270000000000017,-6.76373472465474
-0.03370000000000006,-6.7693935698542
-0.034700000000000175,-6.7609053020550105
-0.035700000000000065,-6.823152599249072
-0.03670000000000018,-6.872667494744348
-0.03770000000000007,-6.891058741642594
-0.03870000000000018,-6.893888164242324
-0.03970000000000007,-6.865593938245023
-0.04070000000000018,-6.892473452942459
-0.04170000000000007,-6.941988348437734
-0.04270000000000018,-6.970282574435036
-0.04370000000000007,-6.973111997034766
-0.044700000000000184,-6.934914791938409
-0.045700000000000074,-6.954720750136521
-0.046700000000000186,-7.025456315129772
-0.047700000000000076,-7.050921118527342
-0.04870000000000019,-7.0565799637268025
-0.04970000000000008,-7.031115160329232
-0.05070000000000019,-7.035359294228828
-0.05170000000000008,-7.084874189724104
-0.05270000000000019,-7.120241972220731
-0.05370000000000008,-7.101850725322484
-0.05470000000000019,-7.080630055824508
-0.05570000000000008,-7.087703612323834
-0.056700000000000195,-7.154195043417491
-0.057700000000000085,-7.178245135515196
-0.058700000000000196,-7.1457067756183
-0.059700000000000086,-7.172586290315736
-0.0607000000000002,-7.182489269414792
-0.06170000000000009,-7.217857051911418
-0.0627000000000002,-7.237663010109527
-0.06370000000000009,-7.185318692014522
-0.0647000000000002,-7.165512733816411
-0.06570000000000009,-7.193806959813711
-0.0667000000000002,-7.222101185811012
-0.0677000000000001,-7.261713102207232
-0.0687000000000002,-7.250395411808314
-0.0697000000000001,-7.220686474511147
-0.07070000000000021,-7.234833587509797
-0.0717000000000001,-7.261713102207232
-0.07270000000000021,-7.28576319430494
-0.0737000000000001,-7.2730307926061535
-0.07470000000000021,-7.230589453610202
-0.0757000000000001,-7.251810123108179
-0.07670000000000021,-7.297080884703859
-0.0777000000000001,-7.326789822001024
-0.07870000000000021,-7.321130976801564
-0.0797000000000001,-7.2928367508042635
-0.08070000000000022,-7.306983863802915
-0.0817000000000001,-7.3649870270973805
-0.08270000000000022,-7.374890006196437
-0.08370000000000011,-7.37347529489657
-0.08470000000000022,-7.3381075123999455
-0.08570000000000011,-7.35366933669846
-0.08670000000000022,-7.404598943493602
-0.08770000000000011,-7.430063746891172
-0.08870000000000022,-7.4229901903918485
-0.08970000000000011,-7.3975253869942765
-0.09070000000000022,-7.393281253094682
-0.09170000000000011,-7.439966725990228
-0.09270000000000023,-7.48523748758591
-0.09370000000000012,-7.468260951987529
-0.09470000000000023,-7.437137303390498
-0.09570000000000012,-7.451284416389148
-0.09670000000000023,-7.506458157083885
-0.09770000000000012,-7.546070073480105
-0.09870000000000023,-7.514946424883075
-0.09970000000000012,-7.5092875796836145
-0.10070000000000023,-7.52767882658186
-0.10170000000000012,-7.568705454277946
-0.10270000000000024,-7.612561504573763
-0.10370000000000013,-7.585681989876327
-0.10470000000000024,-7.563046609078486
-0.10570000000000013,-7.592755546375652
-0.10670000000000024,-7.632367462771874
-0.10770000000000013,-7.6960294712658
-0.10870000000000024,-7.674808801767824
-0.10970000000000013,-7.6592469774693095
-0.11070000000000024,-7.7328119650622895
-0.11170000000000013,-7.734226676362156
-0.11270000000000002,-7.7978886848560816
-0.11370000000000013,-7.769594458858782
-0.11470000000000002,-7.714420718164044
-0.11570000000000014,-7.748373789360806
-0.11670000000000003,-7.795059262256351
-0.11770000000000014,-7.834671178652573
-0.11870000000000003,-7.830427044752977
-0.11970000000000014,-7.8106210865548675
-0.12070000000000003,-7.824768199553517
-0.12170000000000014,-7.905406743645826
-0.12270000000000003,-7.94360394874218
-0.12370000000000014,-7.92096856794434
-0.12470000000000003,-7.8983331871465
-0.12570000000000014,-7.905406743645826
-0.12670000000000003,-7.956336350440965
-0.12770000000000015,-7.9549216391411015
-0.12870000000000004,-7.953506927841237
-0.12970000000000015,-7.963409906940291
-0.13070000000000004,-8.022827781534623
-0.13170000000000015,-8.10912517082639
-0.13270000000000004,-8.196837271418023
-0.13370000000000015,-8.152981221122205
-0.13470000000000004,-8.181275447119509
-0.13570000000000015,-8.218057940915998
-0.13670000000000004,-8.288793505909249
-0.13770000000000016,-8.33406426750493
-0.13870000000000005,-8.304355330207764
-0.13970000000000016,-8.29162292850898
-0.14070000000000005,-8.332649556205066
-0.14170000000000016,-8.383579163000208
-0.14270000000000005,-8.45431472799346
-0.14370000000000016,-8.455729439293325
-0.14470000000000005,-8.461388284492784
-0.14570000000000016,-8.509488468688197
-0.14670000000000005,-8.560418075483337
-0.14770000000000016,-8.628324217876859
-0.14870000000000005,-8.628324217876859
-0.14970000000000017,-8.607103548378884
-0.15070000000000006,-8.660862577773754
-0.15170000000000017,-8.720280452368087
-0.15270000000000006,-8.79384543996107
-0.15370000000000017,-8.816480820758908
-0.15470000000000006,-8.80799255295972
-0.15570000000000017,-8.87306927275351
-0.15670000000000006,-8.953707816845819
-0.15770000000000017,-9.013125691440148
-0.15870000000000006,-9.045664051337045
-0.15970000000000018,-9.042834628737316
-0.16070000000000007,-9.116399616330296
-0.16170000000000018,-9.205526428221793
-0.16270000000000007,-9.267773725415855
-0.16370000000000018,-9.308800353111941
-0.16470000000000007,-9.338509290409108
-0.16570000000000018,-9.407830144102494
-0.16670000000000007,-9.494127533394261
-0.16770000000000018,-9.545057140189403
-0.16870000000000007,-9.58042492268603
-0.16970000000000018,-9.607304437383464
-0.17070000000000007,-9.680869424976446
-0.17170000000000019,-9.789802195066054
-0.17270000000000008,-9.871855450458227
-0.1737000000000002,-9.904393810355122
-0.17470000000000008,-9.969470530148914
-0.1757000000000002,-10.040206095142164
-0.17670000000000008,-10.14772415393191
-0.1777000000000002,-10.266559903120571
-0.17870000000000008,-10.284951150018816
-0.1797000000000002,-10.342954313313284
-0.18070000000000008,-10.488669577199383
-0.1817000000000002,-10.654190799283592
-0.18270000000000008,-10.695217426979678
-0.1837000000000002,-10.730585209476303
-0.1847000000000001,-10.82537086656726
-0.1857000000000002,-10.949865460955383
-0.1867000000000001,-11.041821695446613
-0.1877000000000002,-11.169145712434466
-0.1887000000000001,-11.21017234013055
-0.1897000000000002,-11.275249059924343
-0.1907000000000001,-11.40115836561233
-0.1917000000000001,-11.583656123294919
-0.19269999999999998,-11.684100625585337
-0.1937000000000001,-11.744933211479534
-0.19469999999999998,-11.865183671968062
-0.1957000000000001,-12.020801914953216
-0.19669999999999999,-12.1792495805381
-0.1977000000000001,-12.323550133124334
-0.1987,-12.409847522416102
-0.1997000000000001,-12.483412510009083
-0.2007,-12.644689598193699
-0.2017000000000001,-12.832846201075748
-0.2027,-12.970073197162657
-0.2037000000000001,-13.101641348050105
-0.2047,-13.230380076337823
-0.2057000000000001,-13.385998319322978
-0.2067,-13.602449148202329
-0.2077000000000001,-13.763726236386942
-0.2087,-13.896709098574254
-0.2097000000000001,-14.02403311556211
-0.2107,-14.189554337646317
-0.2117000000000001,-14.415908145624723
-0.2127,-14.599820614607177
-0.2137000000000001,-14.755438857592333
-0.2147,-14.953498439573437
-0.2157000000000001,-15.208146473549144
-0.2167,-15.4203531685289
-0.21770000000000012,-15.632559863508657
-0.2187,-15.802325219492458
-0.21970000000000012,-16.000384801473565
-0.2207,-16.22673860945197
-0.22170000000000012,-16.481386643427676
-0.2227,-16.736034677403385
-0.22370000000000012,-16.919947146385837
-0.2247,-17.132153841365596
-0.22570000000000012,-17.40094898833995
-0.2267,-17.698038361311607
-0.22770000000000012,-17.952686395287316
-0.22870000000000001,-18.164893090267068
-0.22970000000000013,-18.433688237241427
-0.23070000000000002,-18.716630497214435
-0.23170000000000013,-19.042014096183394
-0.23270000000000002,-19.3249563561564
-0.23370000000000013,-19.60789861612941
-0.23470000000000002,-19.876693763103766
-0.23570000000000013,-20.230371588070028
-0.23670000000000002,-20.584049413036283
-0.2376999999999999,-20.90943301200524
-0.23870000000000002,-21.2348166109742
-0.2396999999999999,-21.51775887094721
-0.24070000000000003,-21.91387803490942
-0.24169999999999991,-22.295850085872978
-0.24270000000000003,-22.66367502383789
-0.24369999999999992,-23.102235526796047
-0.24470000000000003,-23.55494314275286
-0.24569999999999992,-23.93691519371642
-0.24670000000000003,-24.290593018682678
-0.24769999999999992,-24.65841795664759
-0.24870000000000003,-25.054537120609798
-0.24969999999999992,-25.42236205857471
-0.25070000000000003,-25.81848122253692
-0.2516999999999999,-26.22874749949778
-0.25270000000000004,-26.69560222845324
-0.2536999999999999,-27.120015618412754
-0.25470000000000004,-27.601017460366865
-0.2556999999999999,-28.12446064131693
-0.25670000000000004,-28.633756709268344
-0.25769999999999993,-29.157199890218404
-0.25870000000000004,-29.59576039317657
-0.25969999999999993,-30.04846800913338
-0.26070000000000004,-30.58605830308209
-0.26169999999999993,-31.137795710029454
-0.26270000000000004,-31.689533116976815
-0.26369999999999993,-32.269564749921486
-0.26470000000000005,-32.97692039985401
-0.26569999999999994,-33.44377512880947
-0.26670000000000005,-34.12283655274469
-0.26769999999999994,-34.7453095246853
-0.26870000000000005,-35.297046931632664
-0.26969999999999994,-35.93366701657193
-0.27070000000000005,-36.47125731052064
-0.27169999999999994,-37.122024508458566
-0.27270000000000005,-37.81523304539243
-0.27369999999999994,-38.42355890433439
-0.27470000000000006,-39.046031876275016
-0.27569999999999995,-39.76753463920618
-0.27670000000000006,-40.531478741133306
-0.27769999999999995,-41.25298150406447
-0.27870000000000006,-41.88960158900374
-0.27969999999999995,-42.6111043519349
-0.28070000000000006,-43.38919556686068
-0.28169999999999995,-44.138992555789144
-0.28270000000000006,-44.87464243171897
-0.28369999999999995,-45.567850968652834
-0.28470000000000006,-46.33179507057995
-0.28569999999999995,-47.180621850498966
-0.28670000000000007,-47.987007291422046
-0.28769999999999996,-48.84998118433972
-0.28870000000000007,-49.656366625262784
-0.28969999999999996,-50.50519340518181
-0.29070000000000007,-51.38231441109813
-0.29169999999999996,-52.30187675601041
-0.29270000000000007,-53.22143910092268
-0.29369999999999996,-54.05611876784305
-0.2947000000000001,-54.933239773759375
-0.29569999999999996,-55.8669492316703
-0.2967000000000001,-56.857247141575826
-0.29769999999999996,-57.86169216448
-0.2987000000000001,-58.79540162239092
-0.29969999999999997,-59.757405306299155
-0.3007000000000001,-60.73355610320602
-0.30169999999999997,-61.709706900112906
-0.3027000000000001,-62.700004810018434
-0.30369999999999997,-63.7044498329226
-0.3047000000000001,-64.68060062982947
-0.30569999999999997,-65.84066389571882
-0.3067000000000001,-67.01487427460678
-0.3077,-68.04761352350828
-0.3087000000000001,-69.1227941114057
-0.3097,-70.24041603829907
-0.3107000000000001,-71.42877353018571
-0.3117,-72.61713102207234
-0.3127000000000001,-73.77719428796166
-0.3137,-74.96555177984828
-0.3147000000000001,-76.42270441870929
-0.3157,-77.51203211960537
-0.3167000000000001,-78.7852722894839
-0.3177,-80.28486626734085
-0.3187000000000001,-81.44492953323017
-0.3197,-82.33619765214513
-0.3207000000000001,-83.70846761301424
-0.3217,-85.16562025187521
-0.3227000000000001,-86.29738929176723
-0.3237,-87.58477657464444
-0.3247000000000001,-88.85801674452296
-0.3257,-90.21613959239339
-0.3267000000000001,-91.63085089225844
-0.3277,-92.96067951413156
-0.3287000000000001,-94.4036850399939
-0.3297,-95.93157324384813
-0.3307000000000001,-97.40287299570777
-0.3317,-98.66196605258766
-0.3327000000000001,-100.11911869144865
-0.3337,-101.6753011213002
-0.3347000000000001,-103.00512974317333
-0.3357,-104.47642949503296
-0.3367000000000001,-105.93358213389395
-0.3377,-107.51805878974278
-0.3387000000000001,-109.06009410659567
-0.3397,-110.4748054064607
-0.3407000000000001,-112.25734164429065
-0.3417,-113.88425963913545
-0.3427000000000001,-115.11505847001803
-0.3437,-116.68538801286822
-0.3447000000000001,-118.07180508673595
-0.3457,-119.81189998556997
-0.3467000000000001,-121.45296509341341
-0.3477,-123.1930599922474
-0.3487000000000001,-124.81997798709217
-0.3497,-126.17810083496262
-0.3507000000000001,-127.93234284679528
-0.3517,-129.41778971165354
-0.3527000000000001,-131.05885481949701
-0.3537,-132.9404208483175
-0.3547000000000001,-134.28439658318928
-0.3557,-136.43475775898415
-0.35670000000000013,-138.34461801380195
-0.3577,-139.99983023464404
-0.35870000000000013,-141.75407224647665
-0.3597,-143.3102546763282
-0.36070000000000013,-144.86643710617977
-0.3617,-146.8470329259908
-0.3626999999999999,-148.40321535584232
-0.3637,-150.24234004566688
-0.3646999999999999,-151.93999360550492
-0.3657,-153.920589425316
-0.3666999999999999,-155.75971411514055
-0.3677,-157.45736767497857
-0.3686999999999999,-159.43796349478964
-0.36970000000000003,-160.99414592464117
-0.3706999999999999,-162.6917994844792
-0.37170000000000003,-164.38945304431726
-0.3726999999999999,-166.0871066041553
-0.37370000000000003,-167.92623129397984
-0.3746999999999999,-169.6238848538179
-0.37570000000000003,-171.46300954364247
-0.3766999999999999,-173.44360536345349
-0.37770000000000004,-175.28273005327804
-0.3786999999999999,-177.2633258730891
-0.37970000000000004,-178.96097943292713
-0.3806999999999999,-180.8001041227517
-0.38170000000000004,-182.78069994256273
-0.38269999999999993,-184.7612957623738
-0.38370000000000004,-186.45894932221185
-0.38469999999999993,-188.4395451420229
-0.38570000000000004,-190.42014096183394
-0.38669999999999993,-189.57131418191491
-0.38570000000000004,-186.45894932221185
-0.38469999999999993,-184.05394011244127
-0.38370000000000004,-181.64893090267074
-0.38269999999999993,-179.38539282288664
-0.38170000000000004,-177.1218547431026
-0.3806999999999999,-174.99978779330505
-0.37970000000000004,-172.73624971352098
-0.3786999999999999,-170.47271163373694
-0.37770000000000004,-168.35064468393938
-0.3766999999999999,-166.22857773414182
-0.37570000000000003,-164.10651078434424
-0.3746999999999999,-161.9844438345467
-0.37370000000000003,-159.86237688474912
-0.3726999999999999,-157.7403099349516
-0.37170000000000003,-155.75971411514055
-0.3706999999999999,-153.77911829532948
-0.36970000000000003,-151.65705134553193
-0.3686999999999999,-149.53498439573437
-0.3677,-147.55438857592333
-0.3666999999999999,-145.57379275611228
-0.3657,-143.87613919627424
-0.3646999999999999,-141.75407224647665
-0.3637,-140.325213833613
-0.3626999999999999,-139.02367943773717
-0.3617,-136.91575960093826
-0.36070000000000013,-135.18981181510293
-0.3597,-133.1667746562959
-0.35870000000000013,-130.90323657651186
-0.3577,-128.99337632169403
-0.35670000000000013,-127.16839874486816
-0.3557,-125.10292024706521
-0.3547000000000001,-123.0232946362636
-0.3537,-121.32564107642554
-0.3527000000000001,-119.5713990645929
-0.3517,-118.0576579737373
-0.3507000000000001,-116.52976976988306
-0.3497,-114.69064508005852
-0.3487000000000001,-112.82322616423666
-0.3477,-111.12557260439863
-0.3467000000000001,-109.56939017454708
-0.3457,-108.19712021367802
-0.3447000000000001,-106.71167334881972
-0.3437,-105.22622648396143
-0.3427000000000001,-103.57101426311934
-0.3417,-101.92994915527588
-0.3407000000000001,-100.18985425644189
-0.3397,-98.73270161758091
-0.3387000000000001,-97.24725475272263
-0.3377,-95.76180788786432
-0.3367000000000001,-94.33294947500065
-0.3357,-92.67773725415857
-0.3347000000000001,-91.06496637231241
-0.3337,-89.31072436047977
-0.3327000000000001,-87.65551213963768
-0.3317,-86.07103548378883
-0.3307000000000001,-84.6563241839238
-0.3297,-83.29820133605335
-0.3287000000000001,-81.98251982717888
-0.3277,-80.44048451032599
-0.3267000000000001,-79.1248030014515
-0.3257,-77.79497437957838
-0.3247000000000001,-76.35196885371603
-0.3237,-75.00799311884425
-0.3227000000000001,-73.72060583596706
-0.3217,-72.43321855308989
-0.3207000000000001,-70.99021302722754
-0.3197,-69.67453151835305
-0.3187000000000001,-68.61349804345427
-0.3177,-67.59490590755146
-0.3167000000000001,-66.44898975466076
-0.3157,-64.99183711579978
-0.3147000000000001,-63.6761556069253
-0.3137,-62.41706255004542
-0.3127000000000001,-61.12967526716824
-0.3117,-59.9696120012789
-0.3107000000000001,-58.79540162239092
-0.3097,-57.6919268084962
-0.3087000000000001,-56.63089333359741
-0.3077,-55.527418519702685
-0.3067000000000001,-54.66444462678501
-0.30569999999999997,-53.49023424789704
-0.3047000000000001,-52.24528830401581
-0.30369999999999997,-51.05693081212917
-0.3027000000000001,-49.9110146592385
-0.30169999999999997,-48.87827541033702
-0.3007000000000001,-47.83138904843689
-0.29969999999999997,-46.72791423454216
-0.2987000000000001,-45.70932209863933
-0.29769999999999996,-44.73317130173246
-0.2967000000000001,-43.88434452181344
-0.29569999999999996,-42.86575238591062
-0.2947000000000001,-41.81886602401048
-0.29369999999999996,-40.814421001106304
-0.29270000000000007,-39.85241731719808
-0.29169999999999996,-38.90456074628851
-0.29070000000000007,-38.02743974037218
-0.28969999999999996,-37.05128894346531
-0.28870000000000007,-36.14587371155169
-0.28769999999999996,-35.297046931632664
-0.28670000000000007,-34.4906614907096
-0.28569999999999995,-33.924776970763574
-0.28470000000000006,-32.807155043870196
-0.28369999999999995,-31.887592698957924
-0.28270000000000006,-31.16608993602676
-0.28169999999999995,-30.359704495103685
-0.28070000000000006,-29.539171941181966
-0.27969999999999995,-28.690345161262943
-0.27870000000000006,-27.869812607341224
-0.27769999999999995,-27.162456957408708
-0.27670000000000006,-26.455101307476184
-0.27569999999999995,-25.691157205549064
-0.27470000000000006,-24.9130659906233
-0.27369999999999994,-24.191563227692125
-0.27270000000000005,-23.47006046476096
-0.27169999999999994,-22.80514615382439
-0.27070000000000005,-22.083643390893226
-0.26969999999999994,-21.362140627962056
-0.26870000000000005,-20.668932091028186
-0.26769999999999994,-19.98987066709297
-0.26670000000000005,-19.353250582153702
-0.26569999999999994,-18.702483384215785
