Potential V vs RHE, Current mA cm-2
0.013299999999999867,0.12863969849672777
0.012299999999999978,-1.1362961160515976
0.011299999999999866,-2.1828995356917518
0.010299999999999976,-3.055776407708479
0.009299999999999864,-3.7970851288377587
0.008299999999999974,-4.450681749375406
0.007299999999999862,-5.0618370309171015
0.006299999999999972,-5.585280211867165
0.00529999999999986,-6.021011292225596
0.0042999999999999705,-6.414301033588076
0.0032999999999998586,-6.762320013354876
0.0022999999999999687,-7.111753704421539
0.0012999999999998568,-7.461187395488204
0.00029999999999996696,-7.722908985963235
-0.000700000000000145,-7.984630576438266
-0.0017000000000000348,-8.288793505909249
-0.0027000000000001467,-8.508073757388331
-0.0037000000000000366,-8.769795347863363
-0.0047000000000001485,-9.031516938338395
-0.005700000000000038,-9.24938247851761
-0.00670000000000015,-9.423391968401008
-0.00770000000000004,-9.59740145828441
-0.008700000000000152,-9.772825659467674
-0.009700000000000042,-9.946835149351072
-0.010700000000000154,-10.078403300238522
-0.011700000000000044,-10.25241279012192
-0.012700000000000156,-10.382566229709504
-0.013700000000000045,-10.514134380596953
-0.014700000000000157,-10.688143870480351
-0.015700000000000047,-10.819712021367803
-0.01670000000000016,-10.993721511251199
-0.01770000000000005,-11.123874950838783
-0.01870000000000016,-11.299299152022046
-0.01970000000000005,-11.42945259160963
-0.020700000000000163,-11.56102074249708
-0.021700000000000053,-11.647318131788847
-0.022700000000000164,-11.778886282676295
-0.023700000000000054,-11.86659838326793
-0.024700000000000166,-11.996751822855511
-0.025700000000000056,-12.084463923447142
-0.026700000000000168,-12.214617363034726
-0.027700000000000058,-12.346185513922174
-0.02870000000000017,-12.432482903213943
-0.02970000000000006,-12.607907104397206
-0.03070000000000017,-12.73806054398479
-0.03170000000000006,-12.869628694872238
-0.03270000000000017,-12.955926084164007
-0.03370000000000006,-13.087494235051453
-0.034700000000000175,-13.217647674639037
-0.035700000000000065,-13.30535977523067
-0.03670000000000018,-13.3930718758223
-0.03770000000000007,-13.523225315409885
-0.03870000000000018,-13.567081365705702
-0.03970000000000007,-13.698649516593148
-0.04070000000000018,-13.784946905884919
-0.04170000000000007,-13.916515056772363
-0.04270000000000018,-14.046668496359947
-0.04370000000000007,-14.175407224647667
-0.044700000000000184,-14.30273124163552
-0.045700000000000074,-14.401761032626075
-0.046700000000000186,-14.529085049613924
-0.047700000000000076,-14.61396772760583
-0.04870000000000019,-14.69885040559773
-0.04970000000000008,-14.826174422585586
-0.05070000000000019,-14.868615761581536
-0.05170000000000008,-14.967645552572087
-0.05270000000000019,-15.05252823056399
-0.05370000000000008,-15.137410908555893
-0.05470000000000019,-15.264734925543747
-0.05570000000000008,-15.349617603535648
-0.056700000000000195,-15.491088733522153
-0.057700000000000085,-15.618412750510005
-0.058700000000000196,-15.70329542850191
-0.059700000000000086,-15.78817810649381
-0.0607000000000002,-15.91550212348166
-0.06170000000000009,-15.972090575476265
-0.0627000000000002,-16.056973253468165
-0.06370000000000009,-16.141855931460068
-0.0647000000000002,-16.184297270456018
-0.06570000000000009,-16.269179948447924
-0.0667000000000002,-16.311621287443874
-0.0677000000000001,-16.396503965435777
-0.0687000000000002,-16.495533756426326
-0.0697000000000001,-16.580416434418233
-0.07070000000000021,-16.665299112410132
-0.0717000000000001,-16.792623129397985
-0.07270000000000021,-16.835064468393938
-0.0737000000000001,-16.919947146385837
-0.07470000000000021,-16.962388485381787
-0.0757000000000001,-17.061418276372343
-0.07670000000000021,-17.061418276372343
-0.0777000000000001,-17.103859615368293
-0.07870000000000021,-17.146300954364243
-0.0797000000000001,-17.188742293360193
-0.08070000000000022,-17.231183632356142
-0.0817000000000001,-17.316066310348052
-0.08270000000000022,-17.358507649344002
-0.08370000000000011,-17.4433903273359
-0.08470000000000022,-17.542420118326454
-0.08570000000000011,-17.584861457322408
-0.08670000000000022,-17.669744135314307
-0.08770000000000011,-17.669744135314307
-0.08870000000000022,-17.71218547431026
-0.08970000000000011,-17.71218547431026
-0.09070000000000022,-17.75462681330621
-0.09170000000000011,-17.75462681330621
-0.09270000000000023,-17.797068152302163
-0.09370000000000012,-17.839509491298113
-0.09470000000000023,-17.881950830294063
-0.09570000000000012,-17.924392169290012
-0.09670000000000023,-17.966833508285966
-0.09770000000000012,-18.009274847281915
-0.09870000000000023,-18.10830463827247
-0.09970000000000012,-18.10830463827247
-0.10070000000000023,-18.15074597726842
-0.10170000000000012,-18.15074597726842
-0.10270000000000024,-18.15074597726842
-0.10370000000000013,-18.15074597726842
-0.10470000000000024,-18.15074597726842
-0.10570000000000013,-18.15074597726842
-0.10670000000000024,-18.19318731626437
-0.10770000000000013,-18.23562865526032
-0.10870000000000024,-18.27806999425627
-0.10970000000000013,-18.27806999425627
-0.11070000000000024,-18.320511333252224
-0.11170000000000013,-18.362952672248177
-0.11270000000000002,-18.40539401124413
-0.11370000000000013,-18.40539401124413
-0.11470000000000002,-18.40539401124413
-0.11570000000000014,-18.40539401124413
-0.11670000000000003,-18.40539401124413
-0.11770000000000014,-18.44783535024008
-0.11870000000000003,-18.40539401124413
-0.11970000000000014,-18.44783535024008
-0.12070000000000003,-18.40539401124413
-0.12170000000000014,-18.44783535024008
-0.12270000000000003,-18.49027668923603
-0.12370000000000014,-18.53271802823198
-0.12470000000000003,-18.589306480226583
-0.12570000000000014,-18.589306480226583
-0.12670000000000003,-18.631747819222536
-0.12770000000000015,-18.631747819222536
-0.12870000000000004,-18.631747819222536
-0.12970000000000015,-18.631747819222536
-0.13070000000000004,-18.631747819222536
-0.13170000000000015,-18.631747819222536
-0.13270000000000004,-18.631747819222536
-0.13370000000000015,-18.631747819222536
-0.13470000000000004,-18.674189158218486
-0.13570000000000015,-18.674189158218486
-0.13670000000000004,-18.716630497214435
-0.13770000000000016,-18.759071836210385
-0.13870000000000005,-18.80151317520634
-0.13970000000000016,-18.80151317520634
-0.14070000000000005,-18.843954514202288
-0.14170000000000016,-18.843954514202288
-0.14270000000000005,-18.843954514202288
-0.14370000000000016,-18.80151317520634
-0.14470000000000005,-18.80151317520634
-0.14570000000000016,-18.80151317520634
-0.14670000000000005,-18.80151317520634
-0.14770000000000016,-18.843954514202288
-0.14870000000000005,-18.88639585319824
-0.14970000000000017,-18.92883719219419
-0.15070000000000006,-18.92883719219419
-0.15170000000000017,-18.97127853119014
-0.15270000000000006,-19.01371987018609
-0.15370000000000017,-19.01371987018609
-0.15470000000000006,-19.01371987018609
-0.15570000000000017,-19.01371987018609
-0.15670000000000006,-19.01371987018609
-0.15770000000000017,-19.01371987018609
-0.15870000000000006,-19.01371987018609
-0.15970000000000018,-19.01371987018609
-0.16070000000000007,-19.01371987018609
-0.16170000000000018,-19.056161209182044
-0.16270000000000007,-19.112749661176647
-0.16370000000000018,-19.112749661176647
-0.16470000000000007,-19.197632339168546
-0.16570000000000018,-19.197632339168546
-0.16670000000000007,-19.197632339168546
-0.16770000000000018,-19.197632339168546
-0.16870000000000007,-19.2400736781645
-0.16970000000000018,-19.197632339168546
-0.17070000000000007,-19.197632339168546
-0.17170000000000019,-19.197632339168546
-0.17270000000000008,-19.197632339168546
-0.1737000000000002,-19.197632339168546
-0.17470000000000008,-19.2400736781645
-0.1757000000000002,-19.2400736781645
-0.17670000000000008,-19.28251501716045
-0.1777000000000002,-19.3249563561564
-0.17870000000000008,-19.3249563561564
-0.1797000000000002,-19.367397695152352
-0.18070000000000008,-19.367397695152352
-0.1817000000000002,-19.367397695152352
-0.18270000000000008,-19.367397695152352
-0.1837000000000002,-19.367397695152352
-0.1847000000000001,-19.367397695152352
-0.1857000000000002,-19.3249563561564
-0.1867000000000001,-19.367397695152352
-0.1877000000000002,-19.367397695152352
-0.1887000000000001,-19.367397695152352
-0.1897000000000002,-19.409839034148305
-0.1907000000000001,-19.452280373144255
-0.1917000000000001,-19.49472171214021
-0.19269999999999998,-19.49472171214021
-0.1937000000000001,-19.49472171214021
-0.19469999999999998,-19.49472171214021
-0.1957000000000001,-19.49472171214021
-0.19669999999999999,-19.452280373144255
-0.1977000000000001,-19.452280373144255
-0.1987,-19.452280373144255
-0.1997000000000001,-19.452280373144255
-0.2007,-19.452280373144255
-0.2017000000000001,-19.49472171214021
-0.2027,-19.49472171214021
-0.2037000000000001,-19.537163051136158
-0.2047,-19.537163051136158
-0.2057000000000001,-19.579604390132108
-0.2067,-19.579604390132108
-0.2077000000000001,-19.579604390132108
-0.2087,-19.579604390132108
-0.2097000000000001,-19.579604390132108
-0.2107,-19.579604390132108
-0.2117000000000001,-19.537163051136158
-0.2127,-19.579604390132108
-0.2137000000000001,-19.537163051136158
-0.2147,-19.579604390132108
-0.2157000000000001,-19.636192842126707
-0.2167,-19.678634181122664
-0.21770000000000012,-19.678634181122664
-0.2187,-19.721075520118614
-0.21970000000000012,-19.721075520118614
-0.2207,-19.721075520118614
-0.22170000000000012,-19.721075520118614
-0.2227,-19.721075520118614
-0.22370000000000012,-19.678634181122664
-0.2247,-19.678634181122664
-0.22570000000000012,-19.678634181122664
-0.2267,-19.678634181122664
-0.22770000000000012,-19.721075520118614
-0.22870000000000001,-19.721075520118614
-0.22970000000000013,-19.721075520118614
-0.23070000000000002,-19.763516859114564
-0.23170000000000013,-19.805958198110513
-0.23270000000000002,-19.805958198110513
-0.23370000000000013,-19.805958198110513
-0.23470000000000002,-19.848399537106463
-0.23570000000000013,-19.805958198110513
-0.23670000000000002,-19.805958198110513
-0.2376999999999999,-19.805958198110513
-0.23870000000000002,-19.763516859114564
-0.2396999999999999,-19.763516859114564
-0.24070000000000003,-19.805958198110513
-0.24169999999999991,-19.805958198110513
-0.24270000000000003,-19.848399537106463
-0.24369999999999992,-19.848399537106463
-0.24470000000000003,-19.890840876102416
-0.24569999999999992,-19.890840876102416
-0.24670000000000003,-19.93328221509837
-0.24769999999999992,-19.93328221509837
-0.24870000000000003,-19.93328221509837
-0.24969999999999992,-19.93328221509837
-0.25070000000000003,-19.890840876102416
-0.2516999999999999,-19.890840876102416
-0.25270000000000004,-19.890840876102416
-0.2536999999999999,-19.890840876102416
-0.25470000000000004,-19.93328221509837
-0.2556999999999999,-19.97572355409432
-0.25670000000000004,-19.97572355409432
-0.25769999999999993,-20.01816489309027
-0.25870000000000004,-20.06060623208622
-0.25969999999999993,-20.01816489309027
-0.26070000000000004,-20.06060623208622
-0.26169999999999993,-20.06060623208622
-0.26270000000000004,-20.06060623208622
-0.26369999999999993,-20.06060623208622
-0.26470000000000005,-20.06060623208622
-0.26569999999999994,-20.06060623208622
-0.26670000000000005,-20.10304757108217
-0.26769999999999994,-20.10304757108217
-0.26870000000000005,-20.10304757108217
-0.26969999999999994,-20.159636023076775
-0.27070000000000005,-20.202077362072725
-0.27169999999999994,-20.244518701068674
-0.27270000000000005,-20.286960040064624
-0.27369999999999994,-20.286960040064624
-0.27470000000000006,-20.286960040064624
-0.27569999999999995,-20.286960040064624
-0.27670000000000006,-20.286960040064624
-0.27769999999999995,-20.329401379060574
-0.27870000000000006,-20.329401379060574
-0.27969999999999995,-20.329401379060574
-0.28070000000000006,-20.329401379060574
-0.28169999999999995,-20.371842718056527
-0.28270000000000006,-20.414284057052477
-0.28369999999999995,-20.456725396048434
-0.28470000000000006,-20.499166735044383
-0.28569999999999995,-20.541608074040333
-0.28670000000000007,-20.584049413036283
-0.28769999999999996,-20.584049413036283
-0.28870000000000007,-20.626490752032236
-0.28969999999999996,-20.626490752032236
-0.29070000000000007,-20.626490752032236
-0.29169999999999996,-20.626490752032236
-0.29270000000000007,-20.683079204026836
-0.29369999999999996,-20.683079204026836
-0.2947000000000001,-20.76796188201874
-0.29569999999999996,-20.810403221014692
-0.2967000000000001,-20.85284456001064
-0.29769999999999996,-20.89528589900659
-0.2987000000000001,-20.980168576998494
-0.29969999999999997,-20.980168576998494
-0.3007000000000001,-21.065051254990397
-0.30169999999999997,-21.065051254990397
-0.3027000000000001,-21.107492593986347
-0.30369999999999997,-21.107492593986347
-0.3047000000000001,-21.149933932982297
-0.30569999999999997,-21.2065223849769
-0.3067000000000001,-21.248963723972853
-0.3077,-21.291405062968803
-0.3087000000000001,-21.333846401964752
-0.3097,-21.418729079956652
-0.3107000000000001,-21.503611757948562
-0.3117,-21.58849443594046
-0.3127000000000001,-21.63093577493641
-0.3137,-21.67337711393236
-0.3147000000000001,-21.729965565926964
-0.3157,-21.772406904922917
-0.3167000000000001,-21.814848243918867
-0.3177,-21.857289582914817
-0.3187000000000001,-21.899730921910766
-0.3197,-21.98461359990267
-0.3207000000000001,-22.027054938898623
-0.3217,-22.111937616890522
-0.3227000000000001,-22.196820294882425
-0.3237,-22.295850085872978
-0.3247000000000001,-22.38073276386488
-0.3257,-22.46561544185678
-0.3267000000000001,-22.550498119848687
-0.3277,-22.63538079784059
-0.3287000000000001,-22.67782213683654
-0.3297,-22.776851927827092
-0.3307000000000001,-22.861734605818995
-0.3317,-22.904175944814945
-0.3327000000000001,-22.989058622806844
-0.3337,-23.031499961802798
-0.3347000000000001,-23.15882397879065
-0.3357,-23.24370665678255
-0.3367000000000001,-23.385177786769056
-0.3377,-23.47006046476096
-0.3387000000000001,-23.597384481748815
-0.3397,-23.682267159740714
-0.3407000000000001,-23.823738289727217
-0.3417,-23.908620967719123
-0.3427000000000001,-23.951062306715073
-0.3437,-24.078386323702922
-0.3447000000000001,-24.16326900169483
-0.3457,-24.24815167968673
-0.3467000000000001,-24.34718147067728
-0.3477,-24.474505487665134
-0.3487000000000001,-24.559388165657033
-0.3497,-24.686712182644893
-0.3507000000000001,-24.870624651627345
-0.3517,-24.997948668615198
-0.3527000000000001,-25.0828313466071
-0.3537,-25.210155363594954
-0.3547000000000001,-25.337479380582806
-0.3557,-25.43650917157336
-0.35670000000000013,-25.563833188561212
-0.3577,-25.691157205549064
-0.35870000000000013,-25.77603988354097
-0.3597,-25.91751101352747
-0.36070000000000013,-26.044835030515326
-0.3617,-26.21460038649913
-0.3626999999999999,-26.34192440348698
-0.3637,-26.525836872469437
-0.3646999999999999,-26.65316088945729
-0.3657,-26.822926245441096
-0.3666999999999999,-26.9643973754276
-0.3677,-27.091721392415455
-0.3686999999999999,-27.261486748399253
-0.36970000000000003,-27.38881076538711
-0.3706999999999999,-27.572723234369565
-0.37170000000000003,-27.65760591236147
-0.3726999999999999,-27.827371268345274
-0.37370000000000003,-28.011283737327723
-0.3746999999999999,-28.18104909331153
-0.37570000000000003,-28.393255788291288
-0.3766999999999999,-28.577168257273744
-0.37770000000000004,-28.746933613257543
-0.3786999999999999,-28.959140308237306
-0.37970000000000004,-29.14305277721976
-0.3806999999999999,-29.31281813320356
-0.38170000000000004,-29.482583489187363
-0.38269999999999993,-29.66649595816982
-0.38370000000000004,-29.836261314153624
-0.38469999999999993,-30.00602667013743
-0.38570000000000004,-30.232380478115836
-0.38669999999999993,-30.444587173095588
-0.38770000000000004,-30.670940981073993
-0.38869999999999993,-30.8407063370578
-0.38970000000000005,-31.095354371033505
-0.39069999999999994,-31.36414951800786
-0.39170000000000005,-31.57635621298762
-0.39269999999999994,-31.802710020966025
-0.39370000000000005,-32.05735805494172
-0.39469999999999994,-32.283711862920136
-0.39570000000000005,-32.53835989689585
-0.39669999999999994,-32.807155043870196
-0.39770000000000005,-33.01936173884996
-0.39869999999999994,-33.288156885824314
-0.39970000000000006,-33.54280491980002
-0.40069999999999995,-33.85404140577033
-0.40170000000000006,-34.193572117737936
-0.40269999999999995,-34.50480860370825
-0.40370000000000006,-34.8018979766799
-0.40469999999999995,-35.15557580164616
-0.40570000000000006,-35.46681228761647
-0.40669999999999995,-35.806342999584075
-0.40770000000000006,-36.16002082455034
-0.40869999999999995,-36.5136986495166
-0.40970000000000006,-36.8532293614842
-0.41069999999999995,-37.249348525446415
-0.41170000000000007,-37.60302635041268
-0.41269999999999996,-37.99914551437489
-0.41370000000000007,-38.42355890433439
-0.41469999999999996,-38.86211940729255
-0.41570000000000007,-39.30067991025072
-0.41669999999999996,-39.78168175220483
-0.41770000000000007,-40.26268359415894
-0.41869999999999996,-40.78612677510901
-0.4197000000000001,-41.30956995605907
-0.42069999999999996,-41.87545447600508
-0.4217000000000001,-42.4413389959511
-0.42269999999999996,-43.007223515897124
-0.4237000000000001,-43.57310803584313
-0.42469999999999997,-44.223875233781044
-0.4257000000000001,-44.88878954471762
-0.42669999999999997,-45.624439420647434
-0.4277000000000001,-46.3176479575813
-0.42869999999999997,-47.15232762450167
-0.4297000000000001,-47.93041883942744
-0.43069999999999997,-48.80753984534376
-0.4317000000000001,-49.68466085126009
-0.4327,-50.60422319617236
-0.4337000000000001,-51.55207976708194
-0.4347,-52.55652478998611
-0.4357000000000001,-53.603411151886235
-0.4367,-54.65029751378637
-0.4377000000000001,-55.7820665536784
-0.4387,-56.97042404556503
-0.4397000000000001,-58.18707576344896
-0.4407,-59.502757272323436
-0.4417000000000001,-60.80429166819927
-0.4427,-62.20485585506566
-0.4437000000000001,-63.633714267929356
-0.4447,-65.11916113278764
-0.4457000000000001,-66.64704933664189
-0.4467,-68.21737887949207
-0.4477000000000001,-69.8301497613382
-0.4487,-71.35803796519245
-0.4497000000000001,-73.01325018603454
-0.4507,-74.66846240687663
-0.4517000000000001,-76.33782174071737
-0.4527,-78.03547530055542
-0.4537000000000001,-79.7755701993894
-0.4547,-81.57225355021802
-0.4557000000000001,-83.31234844905201
-0.4567,-85.09488468688197
-0.4577000000000001,-86.84912669871461
-0.4587,-88.63166293654454
-0.4597000000000001,-90.41419917437449
-0.4607,-92.16844118620713
-0.4617000000000001,-93.86609474604518
-0.4627,-95.60618964487918
-0.4637000000000001,-97.31799031771587
-0.4647,-99.01564387755391
-0.4657000000000001,-100.71329743739196
-0.4667,-102.41095099723
-0.4677000000000001,-104.02372187907615
-0.4687,-105.69308121291688
-0.4697000000000001,-107.34829343375898
-0.4707,-109.00350565460108
-0.4717000000000001,-110.6162765364472
-0.4727,-112.22904741829338
-0.4737000000000001,-113.84181830013951
-0.4747,-115.36970650399375
-0.4757000000000001,-116.94003604684394
-0.4767,-118.51036558969413
-0.4777000000000001,-119.99581245455242
-0.4787,-121.52370065840667
-0.4797000000000001,-123.05158886226087
-0.4807,-124.48044727512458
-0.48170000000000013,-125.96589413998288
-0.4827,-127.4937823438371
-0.48370000000000013,-128.9792292086954
-0.4847,-130.46467607355368
-0.48570000000000013,-131.89353448641737
-0.4867,-132.2896536503796
-0.48570000000000013,-131.2003259494835
-0.4847,-130.23832226557528
-0.48370000000000013,-129.3753483726576
-0.4827,-128.54066870573723
-0.48170000000000013,-127.66354769982091
-0.4807,-126.75813246790726
-0.4797000000000001,-125.83857012299501
-0.4787,-124.9614491170787
-0.4777000000000001,-124.05603388516508
-0.4767,-123.17891287924873
-0.4757000000000001,-122.21690919534053
-0.4747,-121.33978818942418
-0.4737000000000001,-120.39193161851462
-0.4727,-117.67568592277377
-0.4717000000000001,-116.41659286589388
-0.4707,-115.53947185997755
-0.4697000000000001,-114.63405662806393
-0.4687,-113.67205294415571
-0.4677000000000001,-112.66760792125153
-0.4667,-111.7056042373433
