Potential V vs RHE, Current mA cm-2
0.013299999999999867,0.29482583489187364
0.012299999999999978,-0.05091545968214267
0.011299999999999866,-0.1851857091523333
0.010299999999999976,-0.2608727636951128
0.009299999999999864,-0.31958328263951175
0.008299999999999974,-0.3750399655942212
0.007299999999999862,-0.43049664854893066
0.006299999999999972,-0.47520152562466583
0.00529999999999986,-0.49882720433241184
0.0042999999999999705,-0.5282531993696047
0.0032999999999998586,-0.5653186354260686
0.0022999999999999687,-0.6030914271324651
0.0012999999999998568,-0.6339321334695229
0.00029999999999996696,-0.6476548330782137
-0.000700000000000145,-0.6687340314462029
-0.0017000000000000348,-0.6978770842234225
-0.0027000000000001467,-0.7270201370006424
-0.0037000000000000366,-0.7473919797186989
-0.0047000000000001485,-0.7642270441870929
-0.005700000000000038,-0.7766765036259051
-0.00670000000000015,-0.8018583647635027
-0.00770000000000004,-0.8256255146012355
-0.008700000000000152,-0.847977953139103
-0.009700000000000042,-0.8574565188481987
-0.010700000000000154,-0.8737256987966467
-0.011700000000000044,-0.8932487147347841
-0.012700000000000156,-0.9161670377925977
-0.013700000000000045,-0.9314459198311402
-0.014700000000000157,-0.942622139100074
-0.015700000000000047,-0.9488468688194802
-0.01670000000000016,-0.9697845960574827
-0.01770000000000005,-0.9919955634653637
-0.01870000000000016,-1.005010907424122
-0.01970000000000005,-1.0118015216634741
-0.020700000000000163,-1.022411856412462
-0.021700000000000053,-1.0342954313313282
-0.022700000000000164,-1.0615993594187236
-0.023700000000000054,-1.0716438096477652
-0.024700000000000166,-1.0761708858073333
-0.025700000000000056,-1.0845176824765372
-0.026700000000000168,-1.0947036038355653
-0.027700000000000058,-1.1177633980233654
-0.02870000000000017,-1.1312031553720834
-0.02970000000000006,-1.1313446265020697
-0.03070000000000017,-1.1396914231712736
-0.03170000000000006,-1.1522823537400724
-0.03270000000000017,-1.1705321295083313
-0.03370000000000006,-1.1846792425069816
-0.034700000000000175,-1.1836889445970762
-0.035700000000000065,-1.191469856746334
-0.03670000000000018,-1.2037778450551597
-0.03770000000000007,-1.2184908425737562
-0.03870000000000018,-1.2298085329726764
-0.03970000000000007,-1.2300914752326495
-0.04070000000000018,-1.2341941380022579
-0.04170000000000007,-1.2442385882312998
-0.04270000000000018,-1.2623468928695722
-0.04370000000000007,-1.27295722761856
-0.044700000000000184,-1.273240169878533
-0.045700000000000074,-1.2728157564885734
-0.046700000000000186,-1.2852652159273859
-0.047700000000000076,-1.2985635021461173
-0.04870000000000019,-1.3088908946351319
-0.04970000000000008,-1.3121447306248215
-0.05070000000000019,-1.3084664812451725
-0.05170000000000008,-1.3190768159941602
-0.05270000000000019,-1.3367607072424732
-0.05370000000000008,-1.344541619391731
-0.05470000000000019,-1.346239272951569
-0.05570000000000008,-1.344824561651704
-0.056700000000000195,-1.3509078202411233
-0.057700000000000085,-1.371562605219153
-0.058700000000000196,-1.3762311525087079
-0.059700000000000086,-1.3756652679887618
-0.0607000000000002,-1.3760896813787211
-0.06170000000000009,-1.3917929768072232
-0.0627000000000002,-1.405798618675887
-0.06370000000000009,-1.410608637095428
-0.0647000000000002,-1.410042752575482
-0.06570000000000009,-1.413155117435185
-0.0667000000000002,-1.4189554337646317
-0.0677000000000001,-1.4345172580631471
-0.0687000000000002,-1.4430055258623373
-0.0697000000000001,-1.4430055258623373
-0.07070000000000021,-1.4430055258623373
-0.0717000000000001,-1.4514937936615278
-0.07270000000000021,-1.4670556179600431
-0.0737000000000001,-1.4783733083589634
-0.07470000000000021,-1.472714463159503
-0.0757000000000001,-1.4769585970590984
-0.07670000000000021,-1.4882762874580184
-0.0777000000000001,-1.499593977856939
-0.07870000000000021,-1.5137410908555893
-0.0797000000000001,-1.5094969569559942
-0.08070000000000022,-1.510911668255859
-0.0817000000000001,-1.5278882038542394
-0.08270000000000022,-1.5363764716534298
-0.08370000000000011,-1.5491088733522151
-0.08470000000000022,-1.5491088733522151
-0.08570000000000011,-1.54769416205235
-0.08670000000000022,-1.5618412750510005
-0.08770000000000011,-1.5788178106493809
-0.08870000000000022,-1.5887207897484361
-0.08970000000000011,-1.5901355010483011
-0.09070000000000022,-1.5901355010483011
-0.09170000000000011,-1.6028679027470865
-0.09270000000000023,-1.6198444383454669
-0.09370000000000012,-1.6283327061446573
-0.09470000000000023,-1.6339915513441174
-0.09570000000000012,-1.6325768400442524
-0.09670000000000023,-1.6424798191433077
-0.09770000000000012,-1.6651151999411482
-0.09870000000000023,-1.6693593338407433
-0.09970000000000012,-1.6750181790402037
-0.10070000000000023,-1.6778476016399335
-0.10170000000000012,-1.6877505807389888
-0.10270000000000024,-1.7075565389370995
-0.10370000000000013,-1.7160448067362895
-0.10470000000000024,-1.7188742293360195
-0.10570000000000013,-1.7231183632356148
-0.10670000000000024,-1.7301919197349398
-0.10770000000000013,-1.7485831666331852
-0.10870000000000024,-1.7627302796318356
-0.10970000000000013,-1.7584861457322407
-0.11070000000000024,-1.768389124831296
-0.11170000000000013,-1.775462681330621
-0.11270000000000002,-1.7966833508285964
-0.11370000000000013,-1.8094157525273817
-0.11470000000000002,-1.8080010412275167
-0.11570000000000014,-1.8094157525273817
-0.11670000000000003,-1.8249775768258971
-0.11770000000000014,-1.8377099785246829
-0.11870000000000003,-1.8532718028231983
-0.11970000000000014,-1.8518570915233332
-0.12070000000000003,-1.8532718028231983
-0.12170000000000014,-1.8702483384215782
-0.12270000000000003,-1.884395451420229
-0.12370000000000014,-1.897127853119014
-0.12470000000000003,-1.8999572757187444
-0.12570000000000014,-1.8985425644188794
-0.12670000000000003,-1.9169338113171246
-0.12770000000000015,-1.9310809243157752
-0.12870000000000004,-1.9423986147146954
-0.12970000000000015,-1.9452280373144257
-0.13070000000000004,-1.9466427486142908
-0.13170000000000015,-1.959375150313076
-0.13270000000000004,-1.9777663972113213
-0.13370000000000015,-1.9876693763103765
-0.13470000000000004,-1.9947429328097017
-0.13570000000000015,-1.9904987989101068
-0.13670000000000004,-2.0032312006088917
-0.13770000000000016,-2.0244518701068674
-0.13870000000000005,-2.0343548492059225
-0.13970000000000016,-2.038598983105518
-0.14070000000000005,-2.038598983105518
-0.14170000000000016,-2.048501962204573
-0.14270000000000005,-2.0697226317025486
-0.14370000000000016,-2.081040322101469
-0.14470000000000005,-2.083869744701199
-0.14570000000000016,-2.0881138786007942
-0.14670000000000005,-2.092358012500389
-0.14770000000000016,-2.1149933932982297
-0.14870000000000005,-2.1305552175967453
-0.14970000000000017,-2.127725794997015
-0.15070000000000006,-2.133384640196476
-0.15170000000000017,-2.1432876192955304
-0.15270000000000006,-2.1630935774936413
-0.15370000000000017,-2.1758259791924264
-0.15470000000000006,-2.1758259791924264
-0.15570000000000017,-2.1800701130920217
-0.15670000000000006,-2.192802514790807
-0.15770000000000017,-2.2111937616890525
-0.15870000000000006,-2.226755585987568
-0.15970000000000018,-2.2239261633878376
-0.16070000000000007,-2.228170297287433
-0.16170000000000018,-2.2423174102860832
-0.16270000000000007,-2.2592939458844636
-0.16370000000000018,-2.2748557701829792
-0.16470000000000007,-2.279099904082574
-0.16570000000000018,-2.276270481482844
-0.16670000000000007,-2.2918323057813597
-0.16770000000000018,-2.307394130079875
-0.16870000000000007,-2.3201265317786604
-0.16970000000000018,-2.3257853769781205
-0.17070000000000007,-2.3257853769781205
-0.17170000000000019,-2.3385177786769056
-0.17270000000000008,-2.3569090255751513
-0.1737000000000002,-2.3682267159740715
-0.17470000000000008,-2.3753002724733965
-0.1757000000000002,-2.3738855611735317
-0.17670000000000008,-2.389447385472047
-0.1777000000000002,-2.4106680549700226
-0.17870000000000008,-2.4191563227692128
-0.1797000000000002,-2.4234004566688077
-0.18070000000000008,-2.4290593018682682
-0.1817000000000002,-2.438962280967323
-0.18270000000000008,-2.460182950465299
-0.1837000000000002,-2.4715006408642193
-0.1847000000000001,-2.472915352164084
-0.1857000000000002,-2.4814036199632743
-0.1867000000000001,-2.4884771764625997
-0.1877000000000002,-2.50828313466071
-0.1887000000000001,-2.5210155363594953
-0.1897000000000002,-2.5210155363594953
-0.1907000000000001,-2.5295038041586855
-0.1917000000000001,-2.5379920719578757
-0.19269999999999998,-2.5563833188561214
-0.1937000000000001,-2.5719451431546365
-0.19469999999999998,-2.5691157205549064
-0.1957000000000001,-2.576189277054232
-0.19669999999999999,-2.590336390052882
-0.1977000000000001,-2.6044835030515325
-0.1987,-2.6200453273500477
-0.1997000000000001,-2.618630616050183
-0.2007,-2.6257041725495083
-0.2017000000000001,-2.6440954194477535
-0.2027,-2.6525836872469437
-0.2037000000000001,-2.663901377645864
-0.2047,-2.670974934145189
-0.2057000000000001,-2.6752190680447843
-0.2067,-2.689366181043435
-0.2077000000000001,-2.7049280053419507
-0.2087,-2.7134162731411404
-0.2097000000000001,-2.7219045409403306
-0.2107,-2.720489829640466
-0.2117000000000001,-2.7360516539389814
-0.2127,-2.7530281895373614
-0.2137000000000001,-2.7601017460366863
-0.2147,-2.7742488590353367
-0.2157000000000001,-2.7841518381343926
-0.2167,-2.7898106833338523
-0.21770000000000012,-2.8039577963325026
-0.2187,-2.8124460641316933
-0.21970000000000012,-2.8166901980312877
-0.2207,-2.822349043230748
-0.22170000000000012,-2.8308373110299385
-0.2227,-2.8506432692280486
-0.22370000000000012,-2.859131537027239
-0.2247,-2.8619609596269693
-0.22570000000000012,-2.8690345161262942
-0.2267,-2.877522783925485
-0.22770000000000012,-2.8987434534234597
-0.22870000000000001,-2.9086464325225156
-0.22970000000000013,-2.9086464325225156
-0.23070000000000002,-2.9171347003217054
-0.23170000000000013,-2.927037679420761
-0.23270000000000002,-2.9440142150191413
-0.23370000000000013,-2.9553319054180616
-0.23470000000000002,-2.9595760393176564
-0.23570000000000013,-2.963820173217252
-0.23670000000000002,-2.976552574916037
-0.2376999999999999,-2.990699687914687
-0.23870000000000002,-3.004846800913338
-0.2396999999999999,-3.006261512213203
-0.24070000000000003,-3.013335068712528
-0.24169999999999991,-3.028896893011044
-0.24270000000000003,-3.041629294709829
-0.24369999999999992,-3.055776407708479
-0.24470000000000003,-3.0600205416080746
-0.24569999999999992,-3.0628499642078046
-0.24670000000000003,-3.07841178850632
-0.24769999999999992,-3.0953883241047
-0.24870000000000003,-3.1095354371033506
-0.24969999999999992,-3.1123648597030806
-0.25070000000000003,-3.1180237049025408
-0.2516999999999999,-3.135000240500921
-0.25270000000000004,-3.156220909998897
-0.2536999999999999,-3.167538600397817
-0.25470000000000004,-3.1760268681970074
-0.2556999999999999,-3.1845151359961976
-0.25670000000000004,-3.201491671594578
-0.25769999999999993,-3.2227123410925533
-0.25870000000000004,-3.238274165391069
-0.25969999999999993,-3.246762433190259
-0.26070000000000004,-3.2580801235891794
-0.26169999999999993,-3.273641947887695
-0.26270000000000004,-3.3019361738849957
-0.26369999999999993,-3.3189127094833766
-0.26470000000000005,-3.3302303998822964
-0.26569999999999994,-3.3486216467805416
-0.26670000000000005,-3.3740864501781123
-0.26769999999999994,-3.3981365422758185
-0.26870000000000005,-3.4236013456733887
-0.26969999999999994,-3.437748458672039
-0.27070000000000005,-3.4575544168701495
-0.27169999999999994,-3.4844339315675854
-0.27270000000000005,-3.515557580164616
-0.27369999999999994,-3.5495106513613774
-0.27470000000000006,-3.5650724756598926
-0.27569999999999995,-3.591951990357328
-0.27670000000000006,-3.627319772853954
-0.27769999999999995,-3.6683464005500404
-0.27870000000000006,-3.7065436056463965
-0.27969999999999995,-3.7376672542434273
-0.28070000000000006,-3.7716203254401877
-0.28169999999999995,-3.8168910870358688
-0.28270000000000006,-3.8635765599314156
-0.28369999999999995,-3.9130914554266916
-0.28470000000000006,-3.956947505722508
-0.28569999999999995,-3.999388844718459
-0.28670000000000007,-4.0588067193127895
-0.28769999999999996,-4.122468727806717
-0.28870000000000007,-4.184716025000778
-0.28969999999999996,-4.245548610894974
-0.29070000000000007,-4.307795908089036
-0.29169999999999996,-4.381360895682018
-0.29270000000000007,-4.473317130173245
-0.29369999999999996,-4.552540962965688
-0.2947000000000001,-4.63742364095759
-0.29569999999999996,-4.722306318949492
-0.2967000000000001,-4.82558024383964
-0.29769999999999996,-4.9444159930283025
-0.2987000000000001,-5.056178185717641
-0.29969999999999997,-5.173599223606439
-0.3007000000000001,-5.300923240594293
-0.30169999999999997,-5.440979659280932
-0.3027000000000001,-5.59801261356595
-0.30369999999999997,-5.75504556785097
-0.3047000000000001,-5.919152078635313
-0.30569999999999997,-6.093161568518712
-0.3067000000000001,-6.285562305300359
-0.3077,-6.504842556779439
-0.3087000000000001,-6.72695223085825
-0.3097,-6.95189132753679
-0.3107000000000001,-7.198051093713307
-0.3117,-7.462602106788069
-0.3127000000000001,-7.7512032119605365
-0.3137,-8.051122007531923
-0.3147000000000001,-8.355284937002907
-0.3157,-8.675009690772406
-0.3167000000000001,-9.020199247939473
-0.3177,-9.388024185904383
-0.3187000000000001,-9.767166814268213
-0.3197,-10.150553576531639
-0.3207000000000001,-10.546672740493849
-0.3217,-10.969671419153494
-0.3227000000000001,-11.411061344711387
-0.3237,-11.868013094567791
-0.3247000000000001,-12.323550133124334
-0.3257,-12.78050188298074
-0.3267000000000001,-13.261503724934855
-0.3277,-13.752408545988024
-0.3287000000000001,-14.24614278964092
-0.3297,-14.755438857592333
-0.3307000000000001,-15.264734925543747
-0.3317,-15.802325219492458
-0.3327000000000001,-16.339915513441174
-0.3337,-16.877505807389888
-0.3347000000000001,-17.4150961013386
-0.3357,-17.966833508285966
-0.3367000000000001,-18.546865141230633
-0.3377,-19.126896774175293
-0.3387000000000001,-19.70692840711996
-0.3397,-20.286960040064624
-0.3407000000000001,-20.881138786007945
-0.3417,-21.47531753195126
-0.3427000000000001,-22.083643390893226
-0.3437,-22.706116362833843
-0.3447000000000001,-23.328589334774456
-0.3457,-23.93691519371642
-0.3467000000000001,-24.545241052658387
-0.3477,-25.167714024599
-0.3487000000000001,-25.761892770542314
-0.3497,-26.370218629484285
-0.3507000000000001,-27.00683871442355
-0.3517,-27.65760591236147
-0.3527000000000001,-28.308373110299385
-0.3537,-28.959140308237306
-0.3547000000000001,-29.581613280177915
-0.3557,-30.246527591114486
-0.35670000000000013,-30.897294789052403
-0.3577,-31.604650438984915
-0.35870000000000013,-32.31200608891744
-0.3597,-32.97692039985401
-0.36070000000000013,-33.95307119676088
-0.3617,-34.8018979766799
-0.3626999999999999,-35.56584207860703
-0.3637,-36.315639067535486
-0.3646999999999999,-37.05128894346531
-0.3657,-37.77279170639648
-0.3666999999999999,-38.522588695324956
-0.3677,-39.272385684253415
-0.3686999999999999,-39.99388844718459
-0.36970000000000003,-40.743685436113054
-0.3706999999999999,-41.47933531204288
-0.37170000000000003,-42.172543848976744
-0.3726999999999999,-42.89404661190791
-0.37370000000000003,-43.629696487837734
-0.3746999999999999,-44.39364058976485
-0.37570000000000003,-45.143437578693316
-0.3766999999999999,-45.92152879361909
-0.37770000000000004,-46.68547289554621
-0.3786999999999999,-47.47771122347063
-0.37970000000000004,-48.21336109940045
-0.3806999999999999,-48.991452314326224
-0.38170000000000004,-49.8261319812466
-0.38269999999999993,-50.70325298716291
-0.38370000000000004,-51.55207976708194
-0.38469999999999993,-52.23114119101716
-0.38570000000000004,-52.95264395394832
-0.38669999999999993,-53.9570889768525
-0.38770000000000004,-54.74932730477692
-0.38869999999999993,-55.555712745699985
-0.38970000000000005,-56.39039241262036
-0.39069999999999994,-57.15433651454749
-0.39170000000000005,-58.017310407465146
-0.39269999999999994,-58.86613718738417
-0.39370000000000005,-59.78569953229645
-0.39469999999999994,-60.66282053821277
-0.39570000000000005,-61.48335309213449
-0.39669999999999994,-62.26144430706027
-0.39770000000000005,-63.11027108697928
-0.39869999999999994,-64.0722747708875
-0.39970000000000006,-64.9352486638052
-0.40069999999999995,-65.7557812177269
-0.40170000000000006,-66.66119644964053
-0.40269999999999995,-67.43928766456631
-0.40370000000000006,-68.30226155748396
-0.40469999999999995,-69.16523545040164
-0.40570000000000006,-69.39158925838004
-0.40669999999999995,-70.09894490831257
-0.40770000000000006,-70.9760659142289
-0.40869999999999995,-71.86733403314386
-0.40970000000000006,-72.71616081306288
-0.41069999999999995,-73.57913470598055
-0.41170000000000007,-74.30063746891172
-0.41269999999999996,-75.16361136182941
-0.41370000000000007,-76.05487948074436
-0.41469999999999996,-77.03103027765125
-0.41570000000000007,-77.87985705757028
-0.41669999999999996,-78.7569780634866
-0.41770000000000007,-79.78971731238806
-0.41869999999999996,-80.69513254430169
-0.4197000000000001,-81.69957756720586
-0.42069999999999996,-82.67572836411274
-0.4217000000000001,-83.73676183901152
-0.42269999999999996,-84.52900016693594
-0.4237000000000001,-85.64662209382932
-0.42469999999999997,-87.0471862806957
-0.4257000000000001,-88.02333707760259
-0.42669999999999997,-88.87216385752161
-0.4277000000000001,-89.73513775043928
-0.42869999999999997,-90.55567030436099
-0.4297000000000001,-91.56011532726518
-0.43069999999999997,-92.45138344618015
-0.4317000000000001,-93.13044487011537
-0.4327,-94.03586010202899
-0.4337000000000001,-94.96956955993991
-0.4347,-95.64863098387512
-0.4357000000000001,-96.80869424976446
-0.4367,-97.61507969068752
-0.4377000000000001,-98.37902379261465
-0.4387,-99.14296789454177
-0.4397000000000001,-99.86447065747295
-0.4407,-100.86891568037711
-0.4417000000000001,-101.16600505334877
-0.4427,-101.83091936428535
-0.4437000000000001,-102.48168656222326
-0.4447,-103.18904221215577
-0.4457000000000001,-104.67448907701407
-0.4467,-105.93358213389395
-0.4477000000000001,-106.24481861986426
-0.4487,-106.48531954084132
-0.4497000000000001,-106.2306715068656
-0.4507,-106.90973293080083
-0.4517000000000001,-109.44206615755924
-0.4527,-110.54554097145396
-0.4537000000000001,-112.01684072331359
-0.4547,-113.51643470117054
-0.4557000000000001,-112.05928206230955
-0.4567,-113.55887604016648
-0.4577000000000001,-114.37940859408822
-0.4587,-115.39800072999103
-0.4597000000000001,-116.38829863989656
-0.4607,-117.3503023238048
-0.4617000000000001,-118.45377713769953
-0.4627,-119.17527990063067
-0.4637000000000001,-119.92507688955916
-0.4647,-120.90122768646604
-0.4657000000000001,-122.14617363034726
-0.4667,-123.24964844424198
-0.4677000000000001,-124.55118284011782
-0.4687,-125.45659807203144
-0.4697000000000001,-126.22054217395856
-0.4707,-127.32401698785328
-0.4717000000000001,-128.38505046275208
-0.4727,-129.44608393765085
-0.4737000000000001,-131.04470770649834
-0.4747,-131.73791624343224
-0.4757000000000001,-132.78480260533235
-0.4767,-133.930718758223
-0.4777000000000001,-135.18981181510293
-0.4787,-135.68496077005568
-0.4797000000000001,-134.66636863415286
-0.4807,-134.73710419914607
-0.48170000000000013,-136.7884355839504
-0.4827,-139.22173901971826
-0.48370000000000013,-139.97153600864672
-0.4847,-139.3490630367061
-0.48570000000000013,-140.96183391855226
-0.4867,-141.3438059695158
-0.48570000000000013,-140.07056579963728
-0.4847,-140.86280412756173
-0.48370000000000013,-140.62230320658463
-0.4827,-139.2641803587142
-0.48170000000000013,-136.85917114894366
-0.4807,-134.86442821613394
-0.4797000000000001,-133.8599831932298
-0.4787,-133.20921599529186
-0.4777000000000001,-131.9642700514106
-0.4767,-130.93153080250914
-0.4757000000000001,-129.78561464961845
-0.4747,-128.21528510676828
-0.4737000000000001,-126.89960359789379
-0.4727,-125.01803756907329
-0.4717000000000001,-121.29734685042824
-0.4707,-120.56169697449842
-0.4697000000000001,-120.16557781053622
-0.4687,-118.2274233297211
-0.4677000000000001,-118.62354249368333
