Apr. 23, 2025   01:40:20
Linear Sweep Voltammetry
File: c:/users/guazh/data/banditlqround7_x0exp590_r20/2025-04-16-exp1161\post-regen1-2025-04-23t01_37_07-lsvinphos\post-regen1_lsv_50mvs_efin_-2300mv.bin
Data Source:  Experiment
Instrument Model:  CHI760E
Header: LSV ran at 50 mVs with Efin at -2300mV
Note: 

Init E (V) = -0.6
Final E (V) = -2.3
Scan Rate (V/s) = 0.05
Sample Interval (V) = 0.001
Quiet Time (sec) = 2
Sensitivity (A/V) = 1e-4
Comp R (ohm) = 8.4

Results:

Channel 1:
Ep = -0.956V
ip = 5.890e-5A
Ah = 1.503e-4C

Ep = -1.509V
ip = 2.748e-4A
Ah = 3.884e-4C

Potential/V, Current/A

-0.600, 1.567e-5
-0.601, 1.915e-5
-0.602, 2.219e-5
-0.603, 2.410e-5
-0.604, 2.538e-5
-0.605, 2.632e-5
-0.606, 2.704e-5
-0.607, 2.761e-5
-0.608, 2.803e-5
-0.609, 2.837e-5
-0.610, 2.866e-5
-0.611, 2.894e-5
-0.612, 2.918e-5
-0.613, 2.937e-5
-0.614, 2.954e-5
-0.615, 2.970e-5
-0.616, 2.986e-5
-0.617, 2.997e-5
-0.618, 3.007e-5
-0.619, 3.017e-5
-0.620, 3.025e-5
-0.621, 3.036e-5
-0.622, 3.046e-5
-0.623, 3.052e-5
-0.624, 3.059e-5
-0.625, 3.066e-5
-0.626, 3.074e-5
-0.627, 3.082e-5
-0.628, 3.087e-5
-0.629, 3.090e-5
-0.630, 3.096e-5
-0.631, 3.100e-5
-0.632, 3.108e-5
-0.633, 3.110e-5
-0.634, 3.113e-5
-0.635, 3.118e-5
-0.636, 3.123e-5
-0.637, 3.128e-5
-0.638, 3.130e-5
-0.639, 3.131e-5
-0.640, 3.136e-5
-0.641, 3.141e-5
-0.642, 3.145e-5
-0.643, 3.148e-5
-0.644, 3.149e-5
-0.645, 3.151e-5
-0.646, 3.158e-5
-0.647, 3.161e-5
-0.648, 3.164e-5
-0.649, 3.166e-5
-0.650, 3.168e-5
-0.651, 3.174e-5
-0.652, 3.177e-5
-0.653, 3.181e-5
-0.654, 3.185e-5
-0.655, 3.188e-5
-0.656, 3.195e-5
-0.657, 3.199e-5
-0.658, 3.203e-5
-0.659, 3.207e-5
-0.660, 3.211e-5
-0.661, 3.219e-5
-0.662, 3.225e-5
-0.663, 3.229e-5
-0.664, 3.236e-5
-0.665, 3.244e-5
-0.666, 3.256e-5
-0.667, 3.264e-5
-0.668, 3.270e-5
-0.669, 3.276e-5
-0.670, 3.285e-5
-0.671, 3.295e-5
-0.672, 3.307e-5
-0.673, 3.317e-5
-0.674, 3.326e-5
-0.675, 3.339e-5
-0.676, 3.353e-5
-0.677, 3.369e-5
-0.678, 3.382e-5
-0.679, 3.395e-5
-0.680, 3.411e-5
-0.681, 3.429e-5
-0.682, 3.447e-5
-0.683, 3.465e-5
-0.684, 3.480e-5
-0.685, 3.502e-5
-0.686, 3.526e-5
-0.687, 3.548e-5
-0.688, 3.572e-5
-0.689, 3.594e-5
-0.690, 3.618e-5
-0.691, 3.647e-5
-0.692, 3.676e-5
-0.693, 3.704e-5
-0.694, 3.732e-5
-0.695, 3.763e-5
-0.696, 3.798e-5
-0.697, 3.832e-5
-0.698, 3.866e-5
-0.699, 3.900e-5
-0.700, 3.936e-5
-0.701, 3.978e-5
-0.702, 4.020e-5
-0.703, 4.060e-5
-0.704, 4.101e-5
-0.705, 4.145e-5
-0.706, 4.191e-5
-0.707, 4.238e-5
-0.708, 4.283e-5
-0.709, 4.333e-5
-0.710, 4.382e-5
-0.711, 4.432e-5
-0.712, 4.487e-5
-0.713, 4.541e-5
-0.714, 4.593e-5
-0.715, 4.648e-5
-0.716, 4.707e-5
-0.717, 4.767e-5
-0.718, 4.826e-5
-0.719, 4.883e-5
-0.720, 4.945e-5
-0.721, 5.009e-5
-0.722, 5.072e-5
-0.723, 5.136e-5
-0.724, 5.198e-5
-0.725, 5.263e-5
-0.726, 5.333e-5
-0.727, 5.400e-5
-0.728, 5.465e-5
-0.729, 5.531e-5
-0.730, 5.601e-5
-0.731, 5.673e-5
-0.732, 5.743e-5
-0.733, 5.812e-5
-0.734, 5.881e-5
-0.735, 5.950e-5
-0.736, 6.025e-5
-0.737, 6.097e-5
-0.738, 6.167e-5
-0.739, 6.238e-5
-0.740, 6.309e-5
-0.741, 6.383e-5
-0.742, 6.456e-5
-0.743, 6.528e-5
-0.744, 6.599e-5
-0.745, 6.669e-5
-0.746, 6.742e-5
-0.747, 6.816e-5
-0.748, 6.886e-5
-0.749, 6.957e-5
-0.750, 7.029e-5
-0.751, 7.100e-5
-0.752, 7.172e-5
-0.753, 7.243e-5
-0.754, 7.311e-5
-0.755, 7.382e-5
-0.756, 7.453e-5
-0.757, 7.522e-5
-0.758, 7.589e-5
-0.759, 7.654e-5
-0.760, 7.724e-5
-0.761, 7.792e-5
-0.762, 7.861e-5
-0.763, 7.928e-5
-0.764, 7.992e-5
-0.765, 8.059e-5
-0.766, 8.126e-5
-0.767, 8.191e-5
-0.768, 8.259e-5
-0.769, 8.324e-5
-0.770, 8.385e-5
-0.771, 8.451e-5
-0.772, 8.514e-5
-0.773, 8.575e-5
-0.774, 8.636e-5
-0.775, 8.698e-5
-0.776, 8.764e-5
-0.777, 8.825e-5
-0.778, 8.885e-5
-0.779, 8.946e-5
-0.780, 9.006e-5
-0.781, 9.070e-5
-0.782, 9.130e-5
-0.783, 9.189e-5
-0.784, 9.247e-5
-0.785, 9.304e-5
-0.786, 9.366e-5
-0.787, 9.429e-5
-0.788, 9.486e-5
-0.789, 9.546e-5
-0.790, 9.606e-5
-0.791, 9.664e-5
-0.792, 9.725e-5
-0.793, 9.786e-5
-0.794, 9.844e-5
-0.795, 9.904e-5
-0.796, 9.964e-5
-0.797, 1.003e-4
-0.798, 1.009e-4
-0.799, 1.014e-4
-0.800, 1.020e-4
-0.801, 1.027e-4
-0.802, 1.033e-4
-0.803, 1.039e-4
-0.804, 1.045e-4
-0.805, 1.051e-4
-0.806, 1.058e-4
-0.807, 1.064e-4
-0.808, 1.070e-4
-0.809, 1.076e-4
-0.810, 1.083e-4
-0.811, 1.090e-4
-0.812, 1.096e-4
-0.813, 1.103e-4
-0.814, 1.109e-4
-0.815, 1.116e-4
-0.816, 1.123e-4
-0.817, 1.130e-4
-0.818, 1.137e-4
-0.819, 1.144e-4
-0.820, 1.151e-4
-0.821, 1.159e-4
-0.822, 1.165e-4
-0.823, 1.172e-4
-0.824, 1.179e-4
-0.825, 1.187e-4
-0.826, 1.195e-4
-0.827, 1.202e-4
-0.828, 1.209e-4
-0.829, 1.217e-4
-0.830, 1.224e-4
-0.831, 1.232e-4
-0.832, 1.240e-4
-0.833, 1.248e-4
-0.834, 1.256e-4
-0.835, 1.264e-4
-0.836, 1.272e-4
-0.837, 1.280e-4
-0.838, 1.288e-4
-0.839, 1.296e-4
-0.840, 1.304e-4
-0.841, 1.313e-4
-0.842, 1.321e-4
-0.843, 1.330e-4
-0.844, 1.338e-4
-0.845, 1.347e-4
-0.846, 1.356e-4
-0.847, 1.365e-4
-0.848, 1.373e-4
-0.849, 1.382e-4
-0.850, 1.391e-4
-0.851, 1.400e-4
-0.852, 1.410e-4
-0.853, 1.419e-4
-0.854, 1.428e-4
-0.855, 1.437e-4
-0.856, 1.447e-4
-0.857, 1.456e-4
-0.858, 1.466e-4
-0.859, 1.475e-4
-0.860, 1.484e-4
-0.861, 1.494e-4
-0.862, 1.504e-4
-0.863, 1.513e-4
-0.864, 1.523e-4
-0.865, 1.532e-4
-0.866, 1.542e-4
-0.867, 1.552e-4
-0.868, 1.562e-4
-0.869, 1.572e-4
-0.870, 1.582e-4
-0.871, 1.593e-4
-0.872, 1.603e-4
-0.873, 1.613e-4
-0.874, 1.622e-4
-0.875, 1.633e-4
-0.876, 1.643e-4
-0.877, 1.653e-4
-0.878, 1.663e-4
-0.879, 1.673e-4
-0.880, 1.683e-4
-0.881, 1.693e-4
-0.882, 1.703e-4
-0.883, 1.713e-4
-0.884, 1.723e-4
-0.885, 1.733e-4
-0.886, 1.743e-4
-0.887, 1.753e-4
-0.888, 1.764e-4
-0.889, 1.773e-4
-0.890, 1.783e-4
-0.891, 1.794e-4
-0.892, 1.804e-4
-0.893, 1.813e-4
-0.894, 1.823e-4
-0.895, 1.833e-4
-0.896, 1.843e-4
-0.897, 1.853e-4
-0.898, 1.862e-4
-0.899, 1.872e-4
-0.900, 1.881e-4
-0.901, 1.891e-4
-0.902, 1.900e-4
-0.903, 1.909e-4
-0.904, 1.918e-4
-0.905, 1.927e-4
-0.906, 1.936e-4
-0.907, 1.945e-4
-0.908, 1.954e-4
-0.909, 1.962e-4
-0.910, 1.971e-4
-0.911, 1.979e-4
-0.912, 1.988e-4
-0.913, 1.996e-4
-0.914, 2.004e-4
-0.915, 2.012e-4
-0.916, 2.020e-4
-0.917, 2.027e-4
-0.918, 2.034e-4
-0.919, 2.041e-4
-0.920, 2.048e-4
-0.921, 2.055e-4
-0.922, 2.062e-4
-0.923, 2.068e-4
-0.924, 2.074e-4
-0.925, 2.080e-4
-0.926, 2.087e-4
-0.927, 2.093e-4
-0.928, 2.098e-4
-0.929, 2.103e-4
-0.930, 2.108e-4
-0.931, 2.113e-4
-0.932, 2.118e-4
-0.933, 2.123e-4
-0.934, 2.127e-4
-0.935, 2.131e-4
-0.936, 2.136e-4
-0.937, 2.139e-4
-0.938, 2.143e-4
-0.939, 2.146e-4
-0.940, 2.149e-4
-0.941, 2.152e-4
-0.942, 2.155e-4
-0.943, 2.157e-4
-0.944, 2.159e-4
-0.945, 2.162e-4
-0.946, 2.164e-4
-0.947, 2.166e-4
-0.948, 2.167e-4
-0.949, 2.168e-4
-0.950, 2.169e-4
-0.951, 2.170e-4
-0.952, 2.171e-4
-0.953, 2.171e-4
-0.954, 2.171e-4
-0.955, 2.172e-4
-0.956, 2.172e-4
-0.957, 2.172e-4
-0.958, 2.171e-4
-0.959, 2.171e-4
-0.960, 2.170e-4
-0.961, 2.170e-4
-0.962, 2.169e-4
-0.963, 2.169e-4
-0.964, 2.167e-4
-0.965, 2.166e-4
-0.966, 2.164e-4
-0.967, 2.162e-4
-0.968, 2.161e-4
-0.969, 2.159e-4
-0.970, 2.158e-4
-0.971, 2.156e-4
-0.972, 2.154e-4
-0.973, 2.152e-4
-0.974, 2.150e-4
-0.975, 2.148e-4
-0.976, 2.145e-4
-0.977, 2.143e-4
-0.978, 2.141e-4
-0.979, 2.139e-4
-0.980, 2.136e-4
-0.981, 2.134e-4
-0.982, 2.132e-4
-0.983, 2.129e-4
-0.984, 2.126e-4
-0.985, 2.124e-4
-0.986, 2.122e-4
-0.987, 2.119e-4
-0.988, 2.117e-4
-0.989, 2.115e-4
-0.990, 2.112e-4
-0.991, 2.110e-4
-0.992, 2.108e-4
-0.993, 2.106e-4
-0.994, 2.103e-4
-0.995, 2.101e-4
-0.996, 2.099e-4
-0.997, 2.098e-4
-0.998, 2.096e-4
-0.999, 2.094e-4
-1.000, 2.092e-4
-1.001, 2.090e-4
-1.002, 2.088e-4
-1.003, 2.087e-4
-1.004, 2.085e-4
-1.005, 2.084e-4
-1.006, 2.082e-4
-1.007, 2.081e-4
-1.008, 2.080e-4
-1.009, 2.078e-4
-1.010, 2.077e-4
-1.011, 2.077e-4
-1.012, 2.076e-4
-1.013, 2.075e-4
-1.014, 2.074e-4
-1.015, 2.074e-4
-1.016, 2.074e-4
-1.017, 2.073e-4
-1.018, 2.073e-4
-1.019, 2.073e-4
-1.020, 2.073e-4
-1.021, 2.073e-4
-1.022, 2.074e-4
-1.023, 2.074e-4
-1.024, 2.074e-4
-1.025, 2.075e-4
-1.026, 2.076e-4
-1.027, 2.077e-4
-1.028, 2.078e-4
-1.029, 2.078e-4
-1.030, 2.080e-4
-1.031, 2.081e-4
-1.032, 2.082e-4
-1.033, 2.084e-4
-1.034, 2.085e-4
-1.035, 2.087e-4
-1.036, 2.089e-4
-1.037, 2.091e-4
-1.038, 2.093e-4
-1.039, 2.095e-4
-1.040, 2.097e-4
-1.041, 2.100e-4
-1.042, 2.102e-4
-1.043, 2.105e-4
-1.044, 2.107e-4
-1.045, 2.110e-4
-1.046, 2.113e-4
-1.047, 2.116e-4
-1.048, 2.118e-4
-1.049, 2.121e-4
-1.050, 2.125e-4
-1.051, 2.128e-4
-1.052, 2.131e-4
-1.053, 2.135e-4
-1.054, 2.138e-4
-1.055, 2.141e-4
-1.056, 2.145e-4
-1.057, 2.149e-4
-1.058, 2.152e-4
-1.059, 2.155e-4
-1.060, 2.159e-4
-1.061, 2.163e-4
-1.062, 2.167e-4
-1.063, 2.171e-4
-1.064, 2.175e-4
-1.065, 2.178e-4
-1.066, 2.182e-4
-1.067, 2.187e-4
-1.068, 2.190e-4
-1.069, 2.194e-4
-1.070, 2.198e-4
-1.071, 2.203e-4
-1.072, 2.207e-4
-1.073, 2.211e-4
-1.074, 2.216e-4
-1.075, 2.220e-4
-1.076, 2.225e-4
-1.077, 2.230e-4
-1.078, 2.234e-4
-1.079, 2.237e-4
-1.080, 2.242e-4
-1.081, 2.247e-4
-1.082, 2.251e-4
-1.083, 2.255e-4
-1.084, 2.259e-4
-1.085, 2.263e-4
-1.086, 2.268e-4
-1.087, 2.272e-4
-1.088, 2.276e-4
-1.089, 2.280e-4
-1.090, 2.284e-4
-1.091, 2.289e-4
-1.092, 2.293e-4
-1.093, 2.297e-4
-1.094, 2.301e-4
-1.095, 2.305e-4
-1.096, 2.310e-4
-1.097, 2.313e-4
-1.098, 2.318e-4
-1.099, 2.322e-4
-1.100, 2.326e-4
-1.101, 2.330e-4
-1.102, 2.335e-4
-1.103, 2.339e-4
-1.104, 2.343e-4
-1.105, 2.347e-4
-1.106, 2.351e-4
-1.107, 2.355e-4
-1.108, 2.359e-4
-1.109, 2.363e-4
-1.110, 2.368e-4
-1.111, 2.372e-4
-1.112, 2.377e-4
-1.113, 2.381e-4
-1.114, 2.385e-4
-1.115, 2.390e-4
-1.116, 2.394e-4
-1.117, 2.399e-4
-1.118, 2.404e-4
-1.119, 2.408e-4
-1.120, 2.412e-4
-1.121, 2.417e-4
-1.122, 2.422e-4
-1.123, 2.426e-4
-1.124, 2.430e-4
-1.125, 2.434e-4
-1.126, 2.439e-4
-1.127, 2.444e-4
-1.128, 2.448e-4
-1.129, 2.453e-4
-1.130, 2.457e-4
-1.131, 2.462e-4
-1.132, 2.467e-4
-1.133, 2.472e-4
-1.134, 2.477e-4
-1.135, 2.481e-4
-1.136, 2.486e-4
-1.137, 2.491e-4
-1.138, 2.496e-4
-1.139, 2.500e-4
-1.140, 2.505e-4
-1.141, 2.510e-4
-1.142, 2.515e-4
-1.143, 2.520e-4
-1.144, 2.524e-4
-1.145, 2.529e-4
-1.146, 2.535e-4
-1.147, 2.540e-4
-1.148, 2.544e-4
-1.149, 2.549e-4
-1.150, 2.554e-4
-1.151, 2.558e-4
-1.152, 2.563e-4
-1.153, 2.568e-4
-1.154, 2.573e-4
-1.155, 2.577e-4
-1.156, 2.582e-4
-1.157, 2.587e-4
-1.158, 2.591e-4
-1.159, 2.596e-4
-1.160, 2.601e-4
-1.161, 2.606e-4
-1.162, 2.610e-4
-1.163, 2.615e-4
-1.164, 2.620e-4
-1.165, 2.625e-4
-1.166, 2.630e-4
-1.167, 2.635e-4
-1.168, 2.640e-4
-1.169, 2.644e-4
-1.170, 2.649e-4
-1.171, 2.654e-4
-1.172, 2.659e-4
-1.173, 2.664e-4
-1.174, 2.669e-4
-1.175, 2.674e-4
-1.176, 2.679e-4
-1.177, 2.684e-4
-1.178, 2.690e-4
-1.179, 2.695e-4
-1.180, 2.700e-4
-1.181, 2.706e-4
-1.182, 2.711e-4
-1.183, 2.716e-4
-1.184, 2.722e-4
-1.185, 2.728e-4
-1.186, 2.734e-4
-1.187, 2.740e-4
-1.188, 2.746e-4
-1.189, 2.751e-4
-1.190, 2.758e-4
-1.191, 2.764e-4
-1.192, 2.770e-4
-1.193, 2.776e-4
-1.194, 2.782e-4
-1.195, 2.788e-4
-1.196, 2.795e-4
-1.197, 2.802e-4
-1.198, 2.808e-4
-1.199, 2.815e-4
-1.200, 2.822e-4
-1.201, 2.829e-4
-1.202, 2.837e-4
-1.203, 2.844e-4
-1.204, 2.851e-4
-1.205, 2.859e-4
-1.206, 2.866e-4
-1.207, 2.874e-4
-1.208, 2.882e-4
-1.209, 2.889e-4
-1.210, 2.897e-4
-1.211, 2.906e-4
-1.212, 2.914e-4
-1.213, 2.922e-4
-1.214, 2.931e-4
-1.215, 2.940e-4
-1.216, 2.948e-4
-1.217, 2.957e-4
-1.218, 2.966e-4
-1.219, 2.975e-4
-1.220, 2.984e-4
-1.221, 2.993e-4
-1.222, 3.003e-4
-1.223, 3.012e-4
-1.224, 3.022e-4
-1.225, 3.032e-4
-1.226, 3.042e-4
-1.227, 3.052e-4
-1.228, 3.062e-4
-1.229, 3.073e-4
-1.230, 3.083e-4
-1.231, 3.094e-4
-1.232, 3.104e-4
-1.233, 3.115e-4
-1.234, 3.125e-4
-1.235, 3.136e-4
-1.236, 3.148e-4
-1.237, 3.159e-4
-1.238, 3.170e-4
-1.239, 3.182e-4
-1.240, 3.193e-4
-1.241, 3.205e-4
-1.242, 3.217e-4
-1.243, 3.229e-4
-1.244, 3.241e-4
-1.245, 3.253e-4
-1.246, 3.266e-4
-1.247, 3.278e-4
-1.248, 3.291e-4
-1.249, 3.303e-4
-1.250, 3.316e-4
-1.251, 3.329e-4
-1.252, 3.342e-4
-1.253, 3.355e-4
-1.254, 3.368e-4
-1.255, 3.382e-4
-1.256, 3.396e-4
-1.257, 3.409e-4
-1.258, 3.423e-4
-1.259, 3.436e-4
-1.260, 3.450e-4
-1.261, 3.465e-4
-1.262, 3.479e-4
-1.263, 3.492e-4
-1.264, 3.507e-4
-1.265, 3.521e-4
-1.266, 3.536e-4
-1.267, 3.552e-4
-1.268, 3.567e-4
-1.269, 3.582e-4
-1.270, 3.596e-4
-1.271, 3.611e-4
-1.272, 3.626e-4
-1.273, 3.641e-4
-1.274, 3.656e-4
-1.275, 3.671e-4
-1.276, 3.687e-4
-1.277, 3.703e-4
-1.278, 3.719e-4
-1.279, 3.734e-4
-1.280, 3.751e-4
-1.281, 3.767e-4
-1.282, 3.783e-4
-1.283, 3.799e-4
-1.284, 3.815e-4
-1.285, 3.831e-4
-1.286, 3.848e-4
-1.287, 3.865e-4
-1.288, 3.882e-4
-1.289, 3.898e-4
-1.290, 3.915e-4
-1.291, 3.931e-4
-1.292, 3.949e-4
-1.293, 3.966e-4
-1.294, 3.983e-4
-1.295, 4.000e-4
-1.296, 4.018e-4
-1.297, 4.035e-4
-1.298, 4.052e-4
-1.299, 4.070e-4
-1.300, 4.087e-4
-1.301, 4.105e-4
-1.302, 4.123e-4
-1.303, 4.141e-4
-1.304, 4.158e-4
-1.305, 4.176e-4
-1.306, 4.195e-4
-1.307, 4.213e-4
-1.308, 4.231e-4
-1.309, 4.249e-4
-1.310, 4.267e-4
-1.311, 4.285e-4
-1.312, 4.304e-4
-1.313, 4.323e-4
-1.314, 4.341e-4
-1.315, 4.359e-4
-1.316, 4.378e-4
-1.317, 4.397e-4
-1.318, 4.416e-4
-1.319, 4.435e-4
-1.320, 4.454e-4
-1.321, 4.473e-4
-1.322, 4.492e-4
-1.323, 4.511e-4
-1.324, 4.530e-4
-1.325, 4.549e-4
-1.326, 4.569e-4
-1.327, 4.589e-4
-1.328, 4.608e-4
-1.329, 4.628e-4
-1.330, 4.647e-4
-1.331, 4.668e-4
-1.332, 4.688e-4
-1.333, 4.708e-4
-1.334, 4.728e-4
-1.335, 4.749e-4
-1.336, 4.769e-4
-1.337, 4.789e-4
-1.338, 4.809e-4
-1.339, 4.830e-4
-1.340, 4.850e-4
-1.341, 4.871e-4
-1.342, 4.892e-4
-1.343, 4.913e-4
-1.344, 4.934e-4
-1.345, 4.955e-4
-1.346, 4.976e-4
-1.347, 4.997e-4
-1.348, 5.018e-4
-1.349, 5.039e-4
-1.350, 5.061e-4
-1.351, 5.083e-4
-1.352, 5.104e-4
-1.353, 5.126e-4
-1.354, 5.147e-4
-1.355, 5.170e-4
-1.356, 5.192e-4
-1.357, 5.214e-4
-1.358, 5.236e-4
-1.359, 5.258e-4
-1.360, 5.281e-4
-1.361, 5.303e-4
-1.362, 5.326e-4
-1.363, 5.349e-4
-1.364, 5.371e-4
-1.365, 5.394e-4
-1.366, 5.418e-4
-1.367, 5.441e-4
-1.368, 5.464e-4
-1.369, 5.488e-4
-1.370, 5.511e-4
-1.371, 5.535e-4
-1.372, 5.559e-4
-1.373, 5.582e-4
-1.374, 5.606e-4
-1.375, 5.630e-4
-1.376, 5.654e-4
-1.377, 5.678e-4
-1.378, 5.702e-4
-1.379, 5.727e-4
-1.380, 5.752e-4
-1.381, 5.777e-4
-1.382, 5.802e-4
-1.383, 5.826e-4
-1.384, 5.851e-4
-1.385, 5.876e-4
-1.386, 5.901e-4
-1.387, 5.926e-4
-1.388, 5.951e-4
-1.389, 5.977e-4
-1.390, 6.002e-4
-1.391, 6.028e-4
-1.392, 6.054e-4
-1.393, 6.080e-4
-1.394, 6.106e-4
-1.395, 6.133e-4
-1.396, 6.159e-4
-1.397, 6.186e-4
-1.398, 6.213e-4
-1.399, 6.239e-4
-1.400, 6.266e-4
-1.401, 6.293e-4
-1.402, 6.321e-4
-1.403, 6.348e-4
-1.404, 6.375e-4
-1.405, 6.402e-4
-1.406, 6.430e-4
-1.407, 6.458e-4
-1.408, 6.486e-4
-1.409, 6.514e-4
-1.410, 6.542e-4
-1.411, 6.571e-4
-1.412, 6.599e-4
-1.413, 6.628e-4
-1.414, 6.657e-4
-1.415, 6.687e-4
-1.416, 6.717e-4
-1.417, 6.746e-4
-1.418, 6.775e-4
-1.419, 6.804e-4
-1.420, 6.834e-4
-1.421, 6.864e-4
-1.422, 6.894e-4
-1.423, 6.924e-4
-1.424, 6.954e-4
-1.425, 6.985e-4
-1.426, 7.016e-4
-1.427, 7.047e-4
-1.428, 7.077e-4
-1.429, 7.108e-4
-1.430, 7.140e-4
-1.431, 7.171e-4
-1.432, 7.203e-4
-1.433, 7.235e-4
-1.434, 7.267e-4
-1.435, 7.300e-4
-1.436, 7.333e-4
-1.437, 7.365e-4
-1.438, 7.398e-4
-1.439, 7.430e-4
-1.440, 7.463e-4
-1.441, 7.496e-4
-1.442, 7.530e-4
-1.443, 7.564e-4
-1.444, 7.598e-4
-1.445, 7.632e-4
-1.446, 7.667e-4
-1.447, 7.700e-4
-1.448, 7.735e-4
-1.449, 7.769e-4
-1.450, 7.804e-4
-1.451, 7.839e-4
-1.452, 7.874e-4
-1.453, 7.909e-4
-1.454, 7.945e-4
-1.455, 7.981e-4
-1.456, 8.017e-4
-1.457, 8.053e-4
-1.458, 8.089e-4
-1.459, 8.125e-4
-1.460, 8.161e-4
-1.461, 8.198e-4
-1.462, 8.235e-4
-1.463, 8.272e-4
-1.464, 8.309e-4
-1.465, 8.346e-4
-1.466, 8.383e-4
-1.467, 8.420e-4
-1.468, 8.458e-4
-1.469, 8.495e-4
-1.470, 8.533e-4
-1.471, 8.571e-4
-1.472, 8.609e-4
-1.473, 8.646e-4
-1.474, 8.684e-4
-1.475, 8.723e-4
-1.476, 8.761e-4
-1.477, 8.802e-4
-1.478, 8.840e-4
-1.479, 8.879e-4
-1.480, 8.919e-4
-1.481, 8.958e-4
-1.482, 8.998e-4
-1.483, 9.038e-4
-1.484, 9.078e-4
-1.485, 9.119e-4
-1.486, 9.160e-4
-1.487, 9.201e-4
-1.488, 9.242e-4
-1.489, 9.283e-4
-1.490, 9.326e-4
-1.491, 9.368e-4
-1.492, 9.410e-4
-1.493, 9.452e-4
-1.494, 9.495e-4
-1.495, 9.537e-4
-1.496, 9.581e-4
-1.497, 9.624e-4
-1.498, 9.667e-4
-1.499, 9.710e-4
-1.500, 9.752e-4
-1.501, 9.796e-4
-1.502, 9.841e-4
-1.503, 9.884e-4
-1.504, 9.928e-4
-1.505, 9.974e-4
-1.506, 1.002e-3
-1.507, 1.007e-3
-1.508, 1.010e-3
-1.509, 1.011e-3
-1.510, 1.011e-3
-1.511, 1.011e-3
-1.512, 1.011e-3
-1.513, 1.011e-3
-1.514, 1.011e-3
-1.515, 1.011e-3
-1.516, 1.011e-3
-1.517, 1.011e-3
-1.518, 1.011e-3
-1.519, 1.011e-3
-1.520, 1.011e-3
-1.521, 1.011e-3
-1.522, 1.011e-3
-1.523, 1.011e-3
-1.524, 1.011e-3
-1.525, 1.011e-3
-1.526, 1.011e-3
-1.527, 1.011e-3
-1.528, 1.011e-3
-1.529, 1.011e-3
-1.530, 1.011e-3
-1.531, 1.011e-3
-1.532, 1.011e-3
-1.533, 1.011e-3
-1.534, 1.011e-3
-1.535, 1.011e-3
-1.536, 1.011e-3
-1.537, 1.011e-3
-1.538, 1.011e-3
-1.539, 1.011e-3
-1.540, 1.011e-3
-1.541, 1.011e-3
-1.542, 1.011e-3
-1.543, 1.011e-3
-1.544, 1.011e-3
-1.545, 1.011e-3
-1.546, 1.011e-3
-1.547, 1.011e-3
-1.548, 1.011e-3
-1.549, 1.011e-3
-1.550, 1.011e-3
-1.551, 1.011e-3
-1.552, 1.011e-3
-1.553, 1.011e-3
-1.554, 1.011e-3
-1.555, 1.011e-3
-1.556, 1.011e-3
-1.557, 1.011e-3
-1.558, 1.011e-3
-1.559, 1.011e-3
-1.560, 1.011e-3
-1.561, 1.011e-3
-1.562, 1.011e-3
-1.563, 1.011e-3
-1.564, 1.011e-3
-1.565, 1.011e-3
-1.566, 1.011e-3
-1.567, 1.011e-3
-1.568, 1.011e-3
-1.569, 1.011e-3
-1.570, 1.011e-3
-1.571, 1.011e-3
-1.572, 1.011e-3
-1.573, 1.011e-3
-1.574, 1.011e-3
-1.575, 1.011e-3
-1.576, 1.011e-3
-1.577, 1.011e-3
-1.578, 1.011e-3
-1.579, 1.011e-3
-1.580, 1.011e-3
-1.581, 1.011e-3
-1.582, 1.011e-3
-1.583, 1.011e-3
-1.584, 1.011e-3
-1.585, 1.011e-3
-1.586, 1.011e-3
-1.587, 1.011e-3
-1.588, 1.011e-3
-1.589, 1.011e-3
-1.590, 1.011e-3
-1.591, 1.011e-3
-1.592, 1.011e-3
-1.593, 1.011e-3
-1.594, 1.011e-3
-1.595, 1.011e-3
-1.596, 1.011e-3
-1.597, 1.011e-3
-1.598, 1.011e-3
-1.599, 1.011e-3
-1.600, 1.011e-3
-1.601, 1.011e-3
-1.602, 1.011e-3
-1.603, 1.011e-3
-1.604, 1.011e-3
-1.605, 1.011e-3
-1.606, 1.011e-3
-1.607, 1.011e-3
-1.608, 1.011e-3
-1.609, 1.011e-3
-1.610, 1.011e-3
-1.611, 1.011e-3
-1.612, 1.011e-3
-1.613, 1.011e-3
-1.614, 1.011e-3
-1.615, 1.011e-3
-1.616, 1.011e-3
-1.617, 1.011e-3
-1.618, 1.011e-3
-1.619, 1.011e-3
-1.620, 1.011e-3
-1.621, 1.011e-3
-1.622, 1.011e-3
-1.623, 1.011e-3
-1.624, 1.011e-3
-1.625, 1.011e-3
-1.626, 1.011e-3
-1.627, 1.011e-3
-1.628, 1.011e-3
-1.629, 1.011e-3
-1.630, 1.011e-3
-1.631, 1.011e-3
-1.632, 1.011e-3
-1.633, 1.011e-3
-1.634, 1.011e-3
-1.635, 1.011e-3
-1.636, 1.011e-3
-1.637, 1.011e-3
-1.638, 1.011e-3
-1.639, 1.011e-3
-1.640, 1.011e-3
-1.641, 1.011e-3
-1.642, 1.011e-3
-1.643, 1.011e-3
-1.644, 1.011e-3
-1.645, 1.011e-3
-1.646, 1.011e-3
-1.647, 1.011e-3
-1.648, 1.011e-3
-1.649, 1.011e-3
-1.650, 1.011e-3
-1.651, 1.011e-3
-1.652, 1.011e-3
-1.653, 1.011e-3
-1.654, 1.011e-3
-1.655, 1.011e-3
-1.656, 1.011e-3
-1.657, 1.011e-3
-1.658, 1.011e-3
-1.659, 1.011e-3
-1.660, 1.011e-3
-1.661, 1.011e-3
-1.662, 1.011e-3
-1.663, 1.011e-3
-1.664, 1.011e-3
-1.665, 1.011e-3
-1.666, 1.011e-3
-1.667, 1.011e-3
-1.668, 1.011e-3
-1.669, 1.011e-3
-1.670, 1.011e-3
-1.671, 1.011e-3
-1.672, 1.011e-3
-1.673, 1.011e-3
-1.674, 1.011e-3
-1.675, 1.011e-3
-1.676, 1.011e-3
-1.677, 1.011e-3
-1.678, 1.011e-3
-1.679, 1.011e-3
-1.680, 1.011e-3
-1.681, 1.011e-3
-1.682, 1.011e-3
-1.683, 1.011e-3
-1.684, 1.011e-3
-1.685, 1.011e-3
-1.686, 1.011e-3
-1.687, 1.011e-3
-1.688, 1.011e-3
-1.689, 1.011e-3
-1.690, 1.011e-3
-1.691, 1.011e-3
-1.692, 1.011e-3
-1.693, 1.011e-3
-1.694, 1.011e-3
-1.695, 1.011e-3
-1.696, 1.011e-3
-1.697, 1.011e-3
-1.698, 1.011e-3
-1.699, 1.011e-3
-1.700, 1.011e-3
-1.701, 1.011e-3
-1.702, 1.011e-3
-1.703, 1.011e-3
-1.704, 1.011e-3
-1.705, 1.011e-3
-1.706, 1.011e-3
-1.707, 1.011e-3
-1.708, 1.011e-3
-1.709, 1.011e-3
-1.710, 1.011e-3
-1.711, 1.011e-3
-1.712, 1.011e-3
-1.713, 1.011e-3
-1.714, 1.011e-3
-1.715, 1.011e-3
-1.716, 1.011e-3
-1.717, 1.011e-3
-1.718, 1.011e-3
-1.719, 1.011e-3
-1.720, 1.011e-3
-1.721, 1.011e-3
-1.722, 1.011e-3
-1.723, 1.011e-3
-1.724, 1.011e-3
-1.725, 1.011e-3
-1.726, 1.011e-3
-1.727, 1.011e-3
-1.728, 1.011e-3
-1.729, 1.011e-3
-1.730, 1.011e-3
-1.731, 1.011e-3
-1.732, 1.011e-3
-1.733, 1.011e-3
-1.734, 1.011e-3
-1.735, 1.011e-3
-1.736, 1.011e-3
-1.737, 1.011e-3
-1.738, 1.011e-3
-1.739, 1.011e-3
-1.740, 1.011e-3
-1.741, 1.011e-3
-1.742, 1.011e-3
-1.743, 1.011e-3
-1.744, 1.011e-3
-1.745, 1.011e-3
-1.746, 1.011e-3
-1.747, 1.011e-3
-1.748, 1.011e-3
-1.749, 1.011e-3
-1.750, 1.011e-3
-1.751, 1.011e-3
-1.752, 1.011e-3
-1.753, 1.011e-3
-1.754, 1.011e-3
-1.755, 1.011e-3
-1.756, 1.011e-3
-1.757, 1.011e-3
-1.758, 1.011e-3
-1.759, 1.011e-3
-1.760, 1.011e-3
-1.761, 1.011e-3
-1.762, 1.011e-3
-1.763, 1.011e-3
-1.764, 1.011e-3
-1.765, 1.011e-3
-1.766, 1.011e-3
-1.767, 1.011e-3
-1.768, 1.011e-3
-1.769, 1.011e-3
-1.770, 1.011e-3
-1.771, 1.011e-3
-1.772, 1.011e-3
-1.773, 1.011e-3
-1.774, 1.011e-3
-1.775, 1.011e-3
-1.776, 1.011e-3
-1.777, 1.011e-3
-1.778, 1.011e-3
-1.779, 1.011e-3
-1.780, 1.011e-3
-1.781, 1.011e-3
-1.782, 1.011e-3
-1.783, 1.011e-3
-1.784, 1.011e-3
-1.785, 1.011e-3
-1.786, 1.011e-3
-1.787, 1.011e-3
-1.788, 1.011e-3
-1.789, 1.011e-3
-1.790, 1.011e-3
-1.791, 1.011e-3
-1.792, 1.011e-3
-1.793, 1.011e-3
-1.794, 1.011e-3
-1.795, 1.011e-3
-1.796, 1.011e-3
-1.797, 1.011e-3
-1.798, 1.011e-3
-1.799, 1.011e-3
-1.800, 1.011e-3
-1.801, 1.011e-3
-1.802, 1.011e-3
-1.803, 1.011e-3
-1.804, 1.011e-3
-1.805, 1.011e-3
-1.806, 1.011e-3
-1.807, 1.011e-3
-1.808, 1.011e-3
-1.809, 1.011e-3
-1.810, 1.011e-3
-1.811, 1.011e-3
-1.812, 1.011e-3
-1.813, 1.011e-3
-1.814, 1.011e-3
-1.815, 1.011e-3
-1.816, 1.011e-3
-1.817, 1.011e-3
-1.818, 1.011e-3
-1.819, 1.011e-3
-1.820, 1.011e-3
-1.821, 1.011e-3
-1.822, 1.011e-3
-1.823, 1.011e-3
-1.824, 1.011e-3
-1.825, 1.011e-3
-1.826, 1.011e-3
-1.827, 1.011e-3
-1.828, 1.011e-3
-1.829, 1.011e-3
-1.830, 1.011e-3
-1.831, 1.011e-3
-1.832, 1.011e-3
-1.833, 1.011e-3
-1.834, 1.011e-3
-1.835, 1.011e-3
-1.836, 1.011e-3
-1.837, 1.011e-3
-1.838, 1.011e-3
-1.839, 1.011e-3
-1.840, 1.011e-3
-1.841, 1.011e-3
-1.842, 1.011e-3
-1.843, 1.011e-3
-1.844, 1.011e-3
-1.845, 1.011e-3
-1.846, 1.011e-3
-1.847, 1.011e-3
-1.848, 1.011e-3
-1.849, 1.011e-3
-1.850, 1.011e-3
-1.851, 1.011e-3
-1.852, 1.011e-3
-1.853, 1.011e-3
-1.854, 1.011e-3
-1.855, 1.011e-3
-1.856, 1.011e-3
-1.857, 1.011e-3
-1.858, 1.011e-3
-1.859, 1.011e-3
-1.860, 1.011e-3
-1.861, 1.011e-3
-1.862, 1.011e-3
-1.863, 1.011e-3
-1.864, 1.011e-3
-1.865, 1.011e-3
-1.866, 1.011e-3
-1.867, 1.011e-3
-1.868, 1.011e-3
-1.869, 1.011e-3
-1.870, 1.011e-3
-1.871, 1.011e-3
-1.872, 1.011e-3
-1.873, 1.011e-3
-1.874, 1.011e-3
-1.875, 1.011e-3
-1.876, 1.011e-3
-1.877, 1.011e-3
-1.878, 1.011e-3
-1.879, 1.011e-3
-1.880, 1.011e-3
-1.881, 1.011e-3
-1.882, 1.011e-3
-1.883, 1.011e-3
-1.884, 1.011e-3
-1.885, 1.011e-3
-1.886, 1.011e-3
-1.887, 1.011e-3
-1.888, 1.011e-3
-1.889, 1.011e-3
-1.890, 1.011e-3
-1.891, 1.011e-3
-1.892, 1.011e-3
-1.893, 1.011e-3
-1.894, 1.011e-3
-1.895, 1.011e-3
-1.896, 1.011e-3
-1.897, 1.011e-3
-1.898, 1.011e-3
-1.899, 1.011e-3
-1.900, 1.011e-3
-1.901, 1.011e-3
-1.902, 1.011e-3
-1.903, 1.011e-3
-1.904, 1.011e-3
-1.905, 1.011e-3
-1.906, 1.011e-3
-1.907, 1.011e-3
-1.908, 1.011e-3
-1.909, 1.011e-3
-1.910, 1.011e-3
-1.911, 1.011e-3
-1.912, 1.011e-3
-1.913, 1.011e-3
-1.914, 1.011e-3
-1.915, 1.011e-3
-1.916, 1.011e-3
-1.917, 1.011e-3
-1.918, 1.011e-3
-1.919, 1.011e-3
-1.920, 1.011e-3
-1.921, 1.011e-3
-1.922, 1.011e-3
-1.923, 1.011e-3
-1.924, 1.011e-3
-1.925, 1.011e-3
-1.926, 1.011e-3
-1.927, 1.011e-3
-1.928, 1.011e-3
-1.929, 1.011e-3
-1.930, 1.011e-3
-1.931, 1.011e-3
-1.932, 1.011e-3
-1.933, 1.011e-3
-1.934, 1.011e-3
-1.935, 1.011e-3
-1.936, 1.011e-3
-1.937, 1.011e-3
-1.938, 1.011e-3
-1.939, 1.011e-3
-1.940, 1.011e-3
-1.941, 1.011e-3
-1.942, 1.011e-3
-1.943, 1.011e-3
-1.944, 1.011e-3
-1.945, 1.011e-3
-1.946, 1.011e-3
-1.947, 1.011e-3
-1.948, 1.011e-3
-1.949, 1.011e-3
-1.950, 1.011e-3
-1.951, 1.011e-3
-1.952, 1.011e-3
-1.953, 1.011e-3
-1.954, 1.011e-3
-1.955, 1.011e-3
-1.956, 1.011e-3
-1.957, 1.011e-3
-1.958, 1.011e-3
-1.959, 1.011e-3
-1.960, 1.011e-3
-1.961, 1.011e-3
-1.962, 1.011e-3
-1.963, 1.011e-3
-1.964, 1.011e-3
-1.965, 1.011e-3
-1.966, 1.011e-3
-1.967, 1.011e-3
-1.968, 1.011e-3
-1.969, 1.011e-3
-1.970, 1.011e-3
-1.971, 1.011e-3
-1.972, 1.011e-3
-1.973, 1.011e-3
-1.974, 1.011e-3
-1.975, 1.011e-3
-1.976, 1.011e-3
-1.977, 1.011e-3
-1.978, 1.011e-3
-1.979, 1.011e-3
-1.980, 1.011e-3
-1.981, 1.011e-3
-1.982, 1.011e-3
-1.983, 1.011e-3
-1.984, 1.011e-3
-1.985, 1.011e-3
-1.986, 1.011e-3
-1.987, 1.011e-3
-1.988, 1.011e-3
-1.989, 1.011e-3
-1.990, 1.011e-3
-1.991, 1.011e-3
-1.992, 1.011e-3
-1.993, 1.011e-3
-1.994, 1.011e-3
-1.995, 1.011e-3
-1.996, 1.011e-3
-1.997, 1.011e-3
-1.998, 1.011e-3
-1.999, 1.011e-3
-2.000, 1.011e-3
-2.001, 1.011e-3
-2.002, 1.011e-3
-2.003, 1.011e-3
-2.004, 1.011e-3
-2.005, 1.011e-3
-2.006, 1.011e-3
-2.007, 1.011e-3
-2.008, 1.011e-3
-2.009, 1.011e-3
-2.010, 1.011e-3
-2.011, 1.011e-3
-2.012, 1.011e-3
-2.013, 1.011e-3
-2.014, 1.011e-3
-2.015, 1.011e-3
-2.016, 1.011e-3
-2.017, 1.011e-3
-2.018, 1.011e-3
-2.019, 1.011e-3
-2.020, 1.011e-3
-2.021, 1.011e-3
-2.022, 1.011e-3
-2.023, 1.011e-3
-2.024, 1.011e-3
-2.025, 1.011e-3
-2.026, 1.011e-3
-2.027, 1.011e-3
-2.028, 1.011e-3
-2.029, 1.011e-3
-2.030, 1.011e-3
-2.031, 1.011e-3
-2.032, 1.011e-3
-2.033, 1.011e-3
-2.034, 1.011e-3
-2.035, 1.011e-3
-2.036, 1.011e-3
-2.037, 1.011e-3
-2.038, 1.011e-3
-2.039, 1.011e-3
-2.040, 1.011e-3
-2.041, 1.011e-3
-2.042, 1.011e-3
-2.043, 1.011e-3
-2.044, 1.011e-3
-2.045, 1.011e-3
-2.046, 1.011e-3
-2.047, 1.011e-3
-2.048, 1.011e-3
-2.049, 1.011e-3
-2.050, 1.011e-3
-2.051, 1.011e-3
-2.052, 1.011e-3
-2.053, 1.011e-3
-2.054, 1.011e-3
-2.055, 1.011e-3
-2.056, 1.011e-3
-2.057, 1.011e-3
-2.058, 1.011e-3
-2.059, 1.011e-3
-2.060, 1.011e-3
-2.061, 1.011e-3
-2.062, 1.011e-3
-2.063, 1.011e-3
-2.064, 1.011e-3
-2.065, 1.011e-3
-2.066, 1.011e-3
-2.067, 1.011e-3
-2.068, 1.011e-3
-2.069, 1.011e-3
-2.070, 1.011e-3
-2.071, 1.011e-3
-2.072, 1.011e-3
-2.073, 1.011e-3
-2.074, 1.011e-3
-2.075, 1.011e-3
-2.076, 1.011e-3
-2.077, 1.011e-3
-2.078, 1.011e-3
-2.079, 1.011e-3
-2.080, 1.011e-3
-2.081, 1.011e-3
-2.082, 1.011e-3
-2.083, 1.011e-3
-2.084, 1.011e-3
-2.085, 1.011e-3
-2.086, 1.011e-3
-2.087, 1.011e-3
-2.088, 1.011e-3
-2.089, 1.011e-3
-2.090, 1.011e-3
-2.091, 1.011e-3
-2.092, 1.011e-3
-2.093, 1.011e-3
-2.094, 1.011e-3
-2.095, 1.011e-3
-2.096, 1.011e-3
-2.097, 1.011e-3
-2.098, 1.011e-3
-2.099, 1.011e-3
-2.100, 1.011e-3
-2.101, 1.011e-3
-2.102, 1.011e-3
-2.103, 1.011e-3
-2.104, 1.011e-3
-2.105, 1.011e-3
-2.106, 1.011e-3
-2.107, 1.011e-3
-2.108, 1.011e-3
-2.109, 1.011e-3
-2.110, 1.011e-3
-2.111, 1.011e-3
-2.112, 1.011e-3
-2.113, 1.011e-3
-2.114, 1.011e-3
-2.115, 1.011e-3
-2.116, 1.011e-3
-2.117, 1.011e-3
-2.118, 1.011e-3
-2.119, 1.011e-3
-2.120, 1.011e-3
-2.121, 1.011e-3
-2.122, 1.011e-3
-2.123, 1.011e-3
-2.124, 1.011e-3
-2.125, 1.011e-3
-2.126, 1.011e-3
-2.127, 1.011e-3
-2.128, 1.011e-3
-2.129, 1.011e-3
-2.130, 1.011e-3
-2.131, 1.011e-3
-2.132, 1.011e-3
-2.133, 1.011e-3
-2.134, 1.011e-3
-2.135, 1.011e-3
-2.136, 1.011e-3
-2.137, 1.011e-3
-2.138, 1.011e-3
-2.139, 1.011e-3
-2.140, 1.011e-3
-2.141, 1.011e-3
-2.142, 1.011e-3
-2.143, 1.011e-3
-2.144, 1.011e-3
-2.145, 1.011e-3
-2.146, 1.011e-3
-2.147, 1.011e-3
-2.148, 1.011e-3
-2.149, 1.011e-3
-2.150, 1.011e-3
-2.151, 1.011e-3
-2.152, 1.011e-3
-2.153, 1.011e-3
-2.154, 1.011e-3
-2.155, 1.011e-3
-2.156, 1.011e-3
-2.157, 1.011e-3
-2.158, 1.011e-3
-2.159, 1.011e-3
-2.160, 1.011e-3
-2.161, 1.011e-3
-2.162, 1.011e-3
-2.163, 1.011e-3
-2.164, 1.011e-3
-2.165, 1.011e-3
-2.166, 1.011e-3
-2.167, 1.011e-3
-2.168, 1.011e-3
-2.169, 1.011e-3
-2.170, 1.011e-3
-2.171, 1.011e-3
-2.172, 1.011e-3
-2.173, 1.011e-3
-2.174, 1.011e-3
-2.175, 1.011e-3
-2.176, 1.011e-3
-2.177, 1.011e-3
-2.178, 1.011e-3
-2.179, 1.011e-3
-2.180, 1.011e-3
-2.181, 1.011e-3
-2.182, 1.011e-3
-2.183, 1.011e-3
-2.184, 1.011e-3
-2.185, 1.011e-3
-2.186, 1.011e-3
-2.187, 1.011e-3
-2.188, 1.011e-3
-2.189, 1.011e-3
-2.190, 1.011e-3
-2.191, 1.011e-3
-2.192, 1.011e-3
-2.193, 1.011e-3
-2.194, 1.011e-3
-2.195, 1.011e-3
-2.196, 1.011e-3
-2.197, 1.011e-3
-2.198, 1.011e-3
-2.199, 1.011e-3
-2.200, 1.011e-3
-2.201, 1.011e-3
-2.202, 1.011e-3
-2.203, 1.011e-3
-2.204, 1.011e-3
-2.205, 1.011e-3
-2.206, 1.011e-3
-2.207, 1.011e-3
-2.208, 1.011e-3
-2.209, 1.011e-3
-2.210, 1.011e-3
-2.211, 1.011e-3
-2.212, 1.011e-3
-2.213, 1.011e-3
-2.214, 1.011e-3
-2.215, 1.011e-3
-2.216, 1.011e-3
-2.217, 1.011e-3
-2.218, 1.011e-3
-2.219, 1.011e-3
-2.220, 1.011e-3
-2.221, 1.011e-3
-2.222, 1.011e-3
-2.223, 1.011e-3
-2.224, 1.011e-3
-2.225, 1.011e-3
-2.226, 1.011e-3
-2.227, 1.011e-3
-2.228, 1.011e-3
-2.229, 1.011e-3
-2.230, 1.011e-3
-2.231, 1.011e-3
-2.232, 1.011e-3
-2.233, 1.011e-3
-2.234, 1.011e-3
-2.235, 1.011e-3
-2.236, 1.011e-3
-2.237, 1.011e-3
-2.238, 1.011e-3
-2.239, 1.011e-3
-2.240, 1.011e-3
-2.241, 1.011e-3
-2.242, 1.011e-3
-2.243, 1.011e-3
-2.244, 1.011e-3
-2.245, 1.011e-3
-2.246, 1.011e-3
-2.247, 1.011e-3
-2.248, 1.011e-3
-2.249, 1.011e-3
-2.250, 1.011e-3
-2.251, 1.011e-3
-2.252, 1.011e-3
-2.253, 1.011e-3
-2.254, 1.011e-3
-2.255, 1.011e-3
-2.256, 1.011e-3
-2.257, 1.011e-3
-2.258, 1.011e-3
-2.259, 1.011e-3
-2.260, 1.011e-3
-2.261, 1.011e-3
-2.262, 1.011e-3
-2.263, 1.011e-3
-2.264, 1.011e-3
-2.265, 1.011e-3
-2.266, 1.011e-3
-2.267, 1.011e-3
-2.268, 1.011e-3
-2.269, 1.011e-3
-2.270, 1.011e-3
-2.271, 1.011e-3
-2.272, 1.011e-3
-2.273, 1.011e-3
-2.274, 1.011e-3
-2.275, 1.011e-3
-2.276, 1.011e-3
-2.277, 1.011e-3
-2.278, 1.011e-3
-2.279, 1.011e-3
-2.280, 1.011e-3
-2.281, 1.011e-3
-2.282, 1.011e-3
-2.283, 1.011e-3
-2.284, 1.011e-3
-2.285, 1.011e-3
-2.286, 1.011e-3
-2.287, 1.011e-3
-2.288, 1.011e-3
-2.289, 1.011e-3
-2.290, 1.011e-3
-2.291, 1.011e-3
-2.292, 1.011e-3
-2.293, 1.011e-3
-2.294, 1.011e-3
-2.295, 1.011e-3
-2.296, 1.011e-3
-2.297, 1.011e-3
-2.298, 1.011e-3
-2.299, 1.011e-3
