Potential V vs RHE, Current mA cm-2
0.013299999999999867,1.9607898616129409
0.012299999999999978,-0.1330535977523067
0.011299999999999866,-2.052746096104168
0.010299999999999976,-3.840941179133574
0.009299999999999864,-5.5414241615713475
0.008299999999999974,-7.155609754717355
0.007299999999999862,-8.68208324727173
0.006299999999999972,-10.120844639234473
0.00529999999999986,-11.517164692201263
0.0042999999999999705,-12.781916594280606
0.0032999999999998586,-14.002812446064135
0.0022999999999999687,-15.137410908555893
0.0012999999999998568,-16.22673860945197
0.00029999999999996696,-17.231183632356142
-0.000700000000000145,-18.19318731626437
-0.0017000000000000348,-19.155191000172596
-0.0027000000000001467,-20.06060623208622
-0.0037000000000000366,-20.93772723800254
-0.0047000000000001485,-21.814848243918867
-0.005700000000000038,-22.67782213683654
-0.00670000000000015,-23.51250180375691
-0.00770000000000004,-24.290593018682678
-0.008700000000000152,-25.0828313466071
-0.009700000000000042,-25.81848122253692
-0.010700000000000154,-26.568278211465387
-0.011700000000000044,-27.261486748399253
-0.012700000000000156,-27.912253946337174
-0.013700000000000045,-28.53472691827779
-0.014700000000000157,-29.18549411621571
-0.015700000000000047,-29.793819975157668
-0.01670000000000016,-30.359704495103685
-0.01770000000000005,-30.968030354045652
-0.01870000000000016,-31.533914873991666
-0.01970000000000005,-32.14224073293363
-0.020700000000000163,-32.764713704874254
-0.021700000000000053,-33.373039563816214
-0.022700000000000164,-33.98136542275818
-0.023700000000000054,-34.5472499427042
-0.024700000000000166,-35.15557580164616
-0.025700000000000056,-35.679018982596226
-0.026700000000000168,-36.244903502542236
-0.027700000000000058,-36.81078802248826
-0.02870000000000017,-37.334231203438314
-0.02970000000000006,-37.85767438438838
-0.03070000000000017,-38.38111756533845
-0.03170000000000006,-38.90456074628851
-0.03270000000000017,-39.42800392723857
-0.03370000000000006,-39.95144710818864
-0.034700000000000175,-40.51733162813464
-0.035700000000000065,-41.083216148080666
-0.03670000000000018,-41.70568912002128
-0.03770000000000007,-42.2715736399673
-0.03870000000000018,-42.837458159913304
-0.03970000000000007,-43.40334267985933
-0.04070000000000018,-43.96922719980534
-0.04170000000000007,-44.4926703807554
-0.04270000000000018,-45.01611356170547
-0.04370000000000007,-45.581998081651484
-0.044700000000000184,-46.10544126260155
-0.045700000000000074,-46.67132578254756
-0.046700000000000186,-47.23721030249357
-0.047700000000000076,-47.76065348344364
-0.04870000000000019,-48.36897934238561
-0.04970000000000008,-48.97730520132757
-0.05070000000000019,-49.557336834272235
-0.05170000000000008,-50.20810403221015
-0.05270000000000019,-50.85887123014807
-0.05370000000000008,-51.46719708909004
-0.05470000000000019,-52.11796428702795
-0.05570000000000008,-52.74043725896857
-0.056700000000000195,-53.348763117910536
-0.057700000000000085,-53.9570889768525
-0.058700000000000196,-54.52297349679851
-0.059700000000000086,-55.17374069473642
-0.0607000000000002,-55.73962521468245
-0.06170000000000009,-56.404539525619015
-0.0627000000000002,-57.012865384560975
-0.06370000000000009,-57.66363258249889
-0.0647000000000002,-58.27195844144086
-0.06570000000000009,-58.92272563937878
-0.0667000000000002,-59.6300812893113
-0.0677000000000001,-60.32328982624517
-0.0687000000000002,-60.974057024183075
-0.0697000000000001,-61.63897133511965
-0.07070000000000021,-62.33217987205352
-0.0717000000000001,-62.94050573099548
-0.07270000000000021,-63.54883158993744
-0.0737000000000001,-64.15715744887942
-0.07470000000000021,-64.72304196882543
-0.0757000000000001,-65.34551494076604
-0.07670000000000021,-65.95384079970802
-0.0777000000000001,-66.60460799764593
-0.07870000000000021,-67.2978165345798
-0.0797000000000001,-68.0051721845123
-0.08070000000000022,-68.74082206044213
-0.0817000000000001,-69.4906190493706
-0.08270000000000022,-70.26871026429637
-0.08370000000000011,-71.06094859222078
-0.08470000000000022,-71.7965984681506
-0.08570000000000011,-72.57468968307639
-0.08670000000000022,-73.32448667200485
-0.08770000000000011,-74.10257788693062
-0.08870000000000022,-74.89481621485504
-0.08970000000000011,-75.6729074297808
-0.09070000000000022,-76.42270441870929
-0.09170000000000011,-77.20079563363505
-0.09270000000000023,-77.90815128356756
-0.09370000000000012,-78.72868383748929
-0.09470000000000023,-79.52092216541372
-0.09570000000000012,-80.21413070234757
-0.09670000000000023,-81.04881036926795
-0.09770000000000012,-81.82690158419373
-0.09870000000000023,-82.56255146012353
-0.09970000000000012,-83.35478978804795
-0.10070000000000023,-84.13288100297372
-0.10170000000000012,-84.8826779919022
-0.10270000000000024,-85.66076920682796
-0.10370000000000013,-86.45300753475239
-0.10470000000000024,-87.18865741068221
-0.10570000000000013,-87.93845439961068
-0.10670000000000024,-88.63166293654454
-0.10770000000000013,-89.42390126446898
-0.10870000000000024,-90.15955114039879
-0.10970000000000013,-90.85275967733266
-0.11070000000000024,-91.64499800525708
-0.11170000000000013,-92.33820654219093
-0.11270000000000002,-93.08800353111941
-0.11370000000000013,-93.86609474604518
-0.11470000000000002,-94.55930328297906
-0.11570000000000014,-95.30910027190752
-0.11670000000000003,-96.00230880884139
-0.11770000000000014,-96.69551734577524
-0.11870000000000003,-97.40287299570777
-0.11970000000000014,-98.09608153264163
-0.12070000000000003,-98.74684873057957
-0.12170000000000014,-99.49664571950804
-0.12270000000000003,-100.18985425644189
-0.12370000000000014,-100.98209258436633
-0.12470000000000003,-101.71774246029614
-0.12570000000000014,-102.45339233622596
-0.12670000000000003,-103.20318932515443
-0.12770000000000015,-103.93883920108425
-0.12870000000000004,-104.68863619001272
-0.12970000000000015,-105.46672740493848
-0.13070000000000004,-106.21652439386696
-0.13170000000000015,-106.95217426979677
-0.13270000000000004,-107.73026548472255
-0.13370000000000015,-108.48006247365102
-0.13470000000000004,-109.25815368857677
-0.13570000000000015,-109.9655093385093
-0.13670000000000004,-110.70115921443913
-0.13770000000000016,-111.4509562033676
-0.13870000000000005,-112.22904741829338
-0.13970000000000016,-113.00713863321914
-0.14070000000000005,-113.79937696114357
-0.14170000000000016,-114.57746817606933
-0.14270000000000005,-115.36970650399375
-0.14370000000000016,-116.14779771891952
-0.14470000000000005,-116.89759470784797
-0.14570000000000016,-117.67568592277377
-0.14670000000000005,-118.42548291170223
-0.14770000000000016,-119.16113278763203
-0.14870000000000005,-119.86848843756455
-0.14970000000000017,-120.56169697449842
-0.15070000000000006,-121.29734685042824
-0.15170000000000017,-121.96226116136481
-0.15270000000000006,-122.69791103729463
-0.15370000000000017,-123.43356091322445
-0.15470000000000006,-124.22579924114888
-0.15570000000000017,-124.9614491170787
-0.15670000000000006,-125.71124610600715
-0.15770000000000017,-126.44689598193698
-0.15870000000000006,-127.23913430986138
-0.15970000000000018,-127.97478418579122
-0.16070000000000007,-128.71043406172103
-0.16170000000000018,-129.41778971165354
-0.16270000000000007,-130.11099824858744
-0.16370000000000018,-130.84664812451723
-0.16470000000000007,-131.55400377444977
-0.16570000000000018,-132.24721231138363
-0.16670000000000007,-132.9404208483175
-0.16770000000000018,-133.64777649825
-0.16870000000000007,-134.38342637417986
-0.16970000000000018,-135.1332233631083
-0.17070000000000007,-135.82643190004217
-0.17170000000000019,-136.60452311496792
-0.17270000000000008,-137.3543201038964
-0.1737000000000002,-138.08996997982624
-0.17470000000000008,-138.88220830775063
-0.1757000000000002,-139.6602995226764
-0.17670000000000008,-140.36765517260895
-0.1777000000000002,-141.14574638753473
-0.17870000000000008,-141.89554337646317
-0.1797000000000002,-142.6028990263957
-0.18070000000000008,-143.3102546763282
-0.1817000000000002,-144.01761032626072
-0.18270000000000008,-144.72496597619326
-0.1837000000000002,-145.43232162612577
-0.1847000000000001,-146.1396772760583
-0.1857000000000002,-146.8470329259908
-0.1867000000000001,-147.55438857592333
-0.1877000000000002,-148.40321535584232
-0.1887000000000001,-149.1105710057749
-0.1897000000000002,-149.8179266557074
-0.1907000000000001,-150.5252823056399
-0.1917000000000001,-151.23263795557244
-0.19269999999999998,-151.93999360550492
-0.1937000000000001,-152.50587812545095
-0.19469999999999998,-153.21323377538346
-0.1957000000000001,-153.920589425316
-0.19669999999999999,-154.6279450752485
-0.1977000000000001,-155.33530072518104
-0.1987,-156.04265637511355
-0.1997000000000001,-156.75001202504606
-0.2007,-157.59883880496508
-0.2017000000000001,-158.3061944548976
-0.2027,-159.15502123481662
-0.2037000000000001,-160.00384801473567
-0.2047,-160.71120366466818
-0.2057000000000001,-161.5600304445872
-0.2067,-162.2673860945197
-0.2077000000000001,-162.97474174445222
-0.2087,-163.82356852437124
-0.2097000000000001,-164.53092417430375
-0.2107,-165.2382798242363
-0.2117000000000001,-165.94563547416882
-0.2127,-166.79446225408785
-0.2137000000000001,-167.50181790402033
-0.2147,-168.35064468393938
-0.2157000000000001,-169.19947146385837
-0.2167,-169.9068271137909
-0.21770000000000012,-170.61418276372342
-0.2187,-171.46300954364247
-0.21970000000000012,-172.17036519357498
-0.2207,-172.87772084350746
-0.22170000000000012,-173.58507649344
-0.2227,-174.2924321433725
-0.22370000000000012,-174.99978779330505
-0.2247,-175.70714344323756
-0.22570000000000012,-176.27302796318358
-0.2267,-176.98038361311612
-0.22770000000000012,-177.6877392630486
-0.22870000000000001,-178.3950949129811
-0.22970000000000013,-179.10245056291362
-0.23070000000000002,-179.80980621284618
-0.23170000000000013,-180.5171618627787
-0.23270000000000002,-181.2245175127112
-0.23370000000000013,-181.93187316264374
-0.23470000000000002,-182.63922881257625
-0.23570000000000013,-183.34658446250873
-0.23670000000000002,-183.91246898245475
-0.2376999999999999,-184.6198246323873
-0.23870000000000002,-185.1857091523333
-0.2396999999999999,-185.7515936722793
-0.24070000000000003,-186.45894932221185
-0.24169999999999991,-187.16630497214436
-0.24270000000000003,-187.73218949209036
-0.24369999999999992,-188.58101627200938
-0.24470000000000003,-189.1469007919554
-0.24569999999999992,-189.99572757187443
-0.24670000000000003,-190.84455435179345
-0.24769999999999992,-191.551910001726
-0.24870000000000003,-192.2592656516585
-0.24969999999999992,-192.966621301591
-0.25070000000000003,-193.6739769515235
-0.2516999999999999,-194.38133260145605
-0.25270000000000004,-195.08868825138856
-0.2536999999999999,-195.79604390132107
-0.25470000000000004,-196.6448706812401
-0.2556999999999999,-197.35222633117263
-0.25670000000000004,-198.05958198110514
-0.25769999999999993,-198.90840876102413
-0.25870000000000004,-199.61576441095667
-0.25969999999999993,-200.4645911908757
-0.26070000000000004,-201.31341797079472
-0.26169999999999993,-202.02077362072723
-0.26270000000000004,-202.86960040064628
-0.26369999999999993,-203.71842718056527
-0.26470000000000005,-204.5672539604843
-0.26569999999999994,-205.41608074040332
-0.26670000000000005,-206.26490752032234
-0.26769999999999994,-207.1137343002414
-0.26870000000000005,-207.96256108016038
-0.26969999999999994,-208.8113878600794
-0.27070000000000005,-209.66021463999843
-0.27169999999999994,-210.50904141991748
-0.27270000000000005,-211.35786819983647
-0.27369999999999994,-212.065223849769
-0.27470000000000006,-212.914050629688
-0.27569999999999995,-213.76287740960703
-0.27670000000000006,-214.61170418952605
-0.27769999999999995,-215.31905983945856
-0.27870000000000006,-216.3093577493641
-0.27969999999999995,-217.01671339929663
-0.28070000000000006,-218.00701130920217
-0.28169999999999995,-218.71436695913465
-0.28270000000000006,-219.42172260906716
-0.28369999999999995,-220.2705493889862
-0.28470000000000006,-220.97790503891872
-0.28569999999999995,-221.82673181883774
-0.28670000000000007,-222.53408746877028
-0.28769999999999996,-223.2414431187028
-0.28870000000000007,-224.09026989862178
-0.28969999999999996,-224.65615441856778
-0.29070000000000007,-225.36351006850035
-0.29169999999999996,-226.07086571843288
-0.29270000000000007,-226.77822136836537
-0.29369999999999996,-227.4855770182979
-0.2947000000000001,-228.1929326682304
-0.29569999999999996,-228.90028831816295
-0.2967000000000001,-229.60764396809546
-0.29769999999999996,-230.31499961802797
-0.2987000000000001,-230.880884137974
-0.29969999999999997,-231.5882397879065
-0.3007000000000001,-232.29559543783904
-0.30169999999999997,-233.00295108777152
-0.3027000000000001,-233.71030673770406
-0.30369999999999997,-234.4176623876366
-0.3047000000000001,-235.26648916755556
-0.30569999999999997,-236.1153159474746
-0.3067000000000001,-236.82267159740715
-0.3077,-237.53002724733966
-0.3087000000000001,-238.2373828972722
-0.3097,-238.94473854720468
-0.3107000000000001,-239.65209419713722
-0.3117,-240.35944984706975
-0.3127000000000001,-240.92533436701575
-0.3137,-241.6326900169483
-0.3147000000000001,-242.19857453689428
-0.3157,-242.90593018682682
-0.3167000000000001,-243.47181470677282
-0.3177,-244.17917035670533
-0.3187000000000001,-244.8865260066378
-0.3197,-245.45241052658386
-0.3207000000000001,-246.15976617651637
-0.3217,-246.7256506964624
-0.3227000000000001,-247.2915352164084
-0.3237,-247.99889086634093
-0.3247000000000001,-248.56477538628693
-0.3257,-249.13065990623298
-0.3267000000000001,-249.69654442617897
-0.3277,-250.262428946125
-0.3287000000000001,-250.828313466071
-0.3297,-251.39419798601702
-0.3307000000000001,-251.81861137597656
-0.3317,-252.243024765936
-0.3327000000000001,-252.66743815589555
-0.3337,-253.09185154585506
-0.3347000000000001,-253.51626493581452
-0.3357,-253.94067832577412
-0.3367000000000001,-254.36509171573357
-0.3377,-254.78950510569314
-0.3387000000000001,-255.35538962563913
-0.3397,-255.63833188561213
-0.3407000000000001,-256.0627452755717
-0.3417,-256.4871586655312
-0.3427000000000001,-256.91157205549064
-0.3437,-257.33598544545015
-0.3447000000000001,-257.76039883540966
-0.3457,-258.18481222536917
-0.3467000000000001,-258.4677544853422
-0.3477,-258.8921678753017
-0.3487000000000001,-259.3165812652612
-0.3497,-259.59952352523425
-0.3507000000000001,-260.02393691519376
-0.3517,-260.58982143513975
-0.3527000000000001,-260.8727636951128
-0.3537,-261.2971770850723
-0.3547000000000001,-261.7215904750318
-0.3557,-262.0045327350048
-0.35670000000000013,-262.42894612496434
-0.3577,-262.7118883849373
-0.35870000000000013,-262.9948306449103
-0.3597,-263.27777290488336
-0.36070000000000013,-263.56071516485633
-0.3617,-263.98512855481584
-0.3626999999999999,-264.12659968480233
-0.3637,-264.40954194477536
-0.3646999999999999,-264.6924842047484
-0.3657,-264.9754264647214
-0.3666999999999999,-265.11689759470784
-0.3677,-265.39983985468086
-0.3686999999999999,-265.5413109846674
-0.36970000000000003,-265.6827821146539
-0.3706999999999999,-265.82425324464043
-0.37170000000000003,-265.82425324464043
-0.3726999999999999,-265.82425324464043
-0.37370000000000003,-265.82425324464043
-0.3746999999999999,-265.82425324464043
-0.37570000000000003,-265.6827821146539
-0.3766999999999999,-265.6827821146539
-0.37770000000000004,-265.82425324464043
-0.3786999999999999,-265.82425324464043
-0.37970000000000004,-265.6827821146539
-0.3806999999999999,-265.6827821146539
-0.38170000000000004,-265.5413109846674
-0.38269999999999993,-265.5413109846674
-0.38370000000000004,-265.39983985468086
-0.38469999999999993,-265.2583687246944
-0.38570000000000004,-265.2583687246944
-0.38669999999999993,-263.56071516485633
-0.38570000000000004,-258.8921678753017
-0.38469999999999993,-254.36509171573357
-0.38370000000000004,-249.979486686152
-0.38269999999999993,-245.59388165657037
-0.38170000000000004,-241.49121888696175
-0.3806999999999999,-237.38855611735315
-0.37970000000000004,-233.1444222177581
-0.3786999999999999,-229.18323057813595
-0.37770000000000004,-225.08056780852735
-0.3766999999999999,-221.11937616890526
-0.37570000000000003,-217.29965565926966
-0.3746999999999999,-213.33846401964755
-0.37370000000000003,-209.51874351001192
-0.3726999999999999,-205.69902300037634
-0.37170000000000003,-201.87930249074074
-0.3706999999999999,-198.05958198110514
-0.36970000000000003,-194.2398614714695
-0.3686999999999999,-190.42014096183394
-0.3677,-186.74189158218485
-0.3666999999999999,-183.06364220253573
-0.3657,-179.38539282288664
-0.3646999999999999,-175.70714344323756
-0.3637,-172.17036519357498
-0.3626999999999999,-168.49211581392586
-0.3617,-164.9553375642633
-0.36070000000000013,-161.41855931460069
-0.3597,-158.02325219492457
-0.35870000000000013,-154.6279450752485
-0.3577,-151.23263795557244
-0.35670000000000013,-147.83733083589632
-0.3557,-144.58349484620675
-0.3547000000000001,-141.3721001955131
-0.3537,-138.13241131882216
-0.3527000000000001,-134.9068695551299
-0.3517,-131.76621046942952
-0.3507000000000001,-128.71043406172103
-0.3497,-125.6688047670112
-0.3487000000000001,-122.65546969829869
-0.3477,-119.68457596858211
-0.3467000000000001,-116.81271202985609
-0.3457,-113.92670097813141
-0.3447000000000001,-111.05483703940537
-0.3437,-108.21126732667666
-0.3427000000000001,-105.46672740493848
-0.3417,-102.67974614420436
-0.3407000000000001,-99.93520622246619
-0.3397,-97.17651918772938
-0.3387000000000001,-94.47442060498715
-0.3377,-91.81476336124088
-0.3367000000000001,-89.15510611749461
-0.3357,-86.49544887374834
-0.3347000000000001,-83.96311564698992
-0.3337,-81.43078242023151
-0.3327000000000001,-78.9550376454677
-0.3317,-76.55002843569714
-0.3307000000000001,-74.14501922592657
-0.3297,-71.75415712915466
-0.3287000000000001,-69.39158925838004
-0.3277,-67.08560983960004
-0.3267000000000001,-64.72304196882543
-0.3257,-62.459503889041365
-0.3247000000000001,-60.23840714825326
-0.3237,-58.017310407465146
-0.3227000000000001,-55.838655005673
-0.3217,-53.64585249088219
-0.3207000000000001,-51.509638428085985
-0.3197,-49.458307043281685
-0.3187000000000001,-47.40697565847737
-0.3177,-45.412232725667685
-0.3167000000000001,-43.44578401885527
-0.3157,-41.52177665103883
-0.3147000000000001,-39.654357735216976
-0.3137,-37.73035036740053
-0.3127000000000001,-35.90537279057463
-0.3117,-34.02380676175414
-0.3107000000000001,-32.184682071929586
-0.3097,-30.402145834099635
-0.3087000000000001,-28.619609596269694
-0.3077,-26.780484906445146
-0.3067000000000001,-25.12527268560305
-0.30569999999999997,-23.385177786769056
-0.3047000000000001,-21.67337711393236
-0.30369999999999997,-20.06060623208622
-0.3027000000000001,-18.44783535024008
-0.30169999999999997,-16.919947146385837
-0.3007000000000001,-15.3920589425316
-0.29969999999999997,-13.872659006476551
-0.2987000000000001,-12.346185513922174
-0.29769999999999996,-10.863568071663616
-0.2967000000000001,-9.423391968401008
-0.29569999999999996,-7.940774526142452
-0.2947000000000001,-6.500598422879844
-0.29369999999999996,-5.0618370309171015
-0.29270000000000007,-3.623075638954359
-0.29169999999999996,-2.2706116362833835
-0.29070000000000007,-0.8745745255765657
-0.28969999999999996,0.4776065348344364
-0.28870000000000007,1.7429243214337253
-0.28769999999999996,3.0076762235130676
-0.28670000000000007,4.272428125592412
-0.28569999999999995,5.449467927080121
-0.28470000000000006,6.671778490163514
-0.28369999999999995,7.848818291651225
-0.28270000000000006,9.025858093138934
-0.28169999999999995,10.20431260592651
-0.28070000000000006,11.38135240741422
-0.27969999999999995,12.559806920201796
-0.27870000000000006,13.69299067139369
-0.27769999999999995,14.868615761581536
-0.27670000000000006,15.957943462477614
-0.27569999999999995,17.047271163373694
-0.27470000000000006,18.09415752527382
-0.27369999999999994,19.141043887173947
-0.27270000000000005,20.187930249074075
-0.27169999999999994,21.149933932982297
-0.27070000000000005,22.15437895588647
-0.26969999999999994,23.073941300798747
-0.26870000000000005,24.035944984706973
-0.26769999999999994,24.983801555616548
