Potential V vs RHE, Current mA cm-2
0.013299999999999867,2.1347993514963406
0.012299999999999978,0.08502414912188871
0.011299999999999866,-1.7910245056291363
0.010299999999999976,-3.5353635383627267
0.009299999999999864,-5.149549131508733
0.008299999999999974,-6.632166573767292
0.007299999999999862,-8.027071915434218
0.006299999999999972,-9.293238528813426
0.00529999999999986,-10.470278330301136
0.0042999999999999705,-11.604876792792895
0.0032999999999998586,-12.651763154693022
0.0022999999999999687,-13.654793466297335
0.0012999999999998568,-14.61396772760583
0.00029999999999996696,-15.533530072518102
-0.000700000000000145,-16.438945304431726
-0.0017000000000000348,-17.2736249713521
-0.0027000000000001467,-18.10830463827247
-0.0037000000000000366,-18.92883719219419
-0.0047000000000001485,-19.636192842126707
-0.005700000000000038,-20.329401379060574
-0.00670000000000015,-20.980168576998494
-0.00770000000000004,-21.58849443594046
-0.008700000000000152,-22.253408746877028
-0.009700000000000042,-22.819293266823045
-0.010700000000000154,-23.47006046476096
-0.011700000000000044,-24.078386323702922
-0.012700000000000156,-24.64427084364894
-0.013700000000000045,-25.252596702590903
-0.014700000000000157,-25.81848122253692
-0.015700000000000047,-26.34192440348698
-0.01670000000000016,-26.907808923433
-0.01770000000000005,-27.38881076538711
-0.01870000000000016,-27.869812607341224
-0.01970000000000005,-28.350814449295335
-0.020700000000000163,-28.831816291249446
-0.021700000000000053,-29.31281813320356
-0.022700000000000164,-29.836261314153624
-0.023700000000000054,-30.317263156107735
-0.024700000000000166,-30.8407063370578
-0.025700000000000056,-31.36414951800786
-0.026700000000000168,-31.84515135996197
-0.027700000000000058,-32.32615320191609
-0.02870000000000017,-32.807155043870196
-0.02970000000000006,-33.231568433829715
-0.03070000000000017,-33.712570275783825
-0.03170000000000006,-34.15113077874198
-0.03270000000000017,-34.632132620696105
-0.03370000000000006,-35.11313446265021
-0.034700000000000175,-35.636577643600276
-0.035700000000000065,-36.16002082455034
-0.03670000000000018,-36.6834640055004
-0.03770000000000007,-37.206907186450465
-0.03870000000000018,-37.73035036740053
-0.03970000000000007,-38.211352209354644
-0.04070000000000018,-38.734795390304704
-0.04170000000000007,-39.21579723225882
-0.04270000000000018,-39.654357735216976
-0.04370000000000007,-40.135359577171094
-0.044700000000000184,-40.616361419125205
-0.045700000000000074,-41.182245939071215
-0.046700000000000186,-41.70568912002128
-0.047700000000000076,-42.2715736399673
-0.04870000000000019,-42.837458159913304
-0.04970000000000008,-43.40334267985933
-0.05070000000000019,-43.96922719980534
-0.05170000000000008,-44.535111719751356
-0.05270000000000019,-45.05855490070142
-0.05370000000000008,-45.581998081651484
-0.05470000000000019,-46.10544126260155
-0.05570000000000008,-46.628884443551605
-0.056700000000000195,-47.19476896349763
-0.057700000000000085,-47.76065348344364
-0.058700000000000196,-48.36897934238561
-0.059700000000000086,-49.03389365332217
-0.0607000000000002,-49.642219512264134
-0.06170000000000009,-50.2505453712061
-0.0627000000000002,-50.90131256914402
-0.06370000000000009,-51.424755750094086
-0.0647000000000002,-51.990640270040096
-0.06570000000000009,-52.471642111994214
-0.0667000000000002,-52.95264395394832
-0.0677000000000001,-53.476087134898386
-0.0687000000000002,-53.999530315848446
-0.0697000000000001,-54.65029751378637
-0.07070000000000021,-55.31521182472294
-0.0717000000000001,-55.96597902266086
-0.07270000000000021,-56.61674622059877
-0.0737000000000001,-57.22507207954074
-0.07470000000000021,-57.8333979384827
-0.0757000000000001,-58.45587091042332
-0.07670000000000021,-59.06419676936528
-0.0777000000000001,-59.6300812893113
-0.07870000000000021,-60.28084848724921
-0.0797000000000001,-60.889174346191176
-0.08070000000000022,-61.5965299961237
-0.0817000000000001,-62.24729719406162
-0.08270000000000022,-62.94050573099548
-0.08370000000000011,-63.633714267929356
-0.08470000000000022,-64.29862857886593
-0.08570000000000011,-64.94939577680383
-0.08670000000000022,-65.60016297474175
-0.08770000000000011,-66.25093017267966
-0.08870000000000022,-66.87340314462028
-0.08970000000000011,-67.48172900356225
-0.09070000000000022,-68.13249620150016
-0.09170000000000011,-68.78326339943808
-0.09270000000000023,-69.43403059737601
-0.09370000000000012,-70.09894490831257
-0.09470000000000023,-70.79215344524643
-0.09570000000000012,-71.44292064318435
-0.09670000000000023,-72.10783495412092
-0.09770000000000012,-72.75860215205884
-0.09870000000000023,-73.3669280110008
-0.09970000000000012,-73.97525386994278
-0.10070000000000023,-74.54113838988879
-0.10170000000000012,-75.14946424883075
-0.10270000000000024,-75.77193722077136
-0.10370000000000013,-76.42270441870929
-0.10470000000000024,-77.11591295564315
-0.10570000000000013,-77.80912149257702
-0.10670000000000024,-78.51647714250953
-0.10770000000000013,-79.25212701843935
-0.10870000000000024,-79.94533555537322
-0.10970000000000013,-80.61024986630979
-0.11070000000000024,-81.26101706424771
-0.11170000000000013,-81.91178426218562
-0.11270000000000002,-82.52011012112759
-0.11370000000000013,-83.18502443206415
-0.11470000000000002,-83.79335029100612
-0.11570000000000014,-84.44411748894404
-0.11670000000000003,-85.13732602587791
-0.11770000000000014,-85.84468167581042
-0.11870000000000003,-86.5378902127443
-0.11970000000000014,-87.18865741068221
-0.12070000000000003,-87.89601306061473
-0.12170000000000014,-88.54678025855264
-0.12270000000000003,-89.15510611749461
-0.12370000000000014,-89.76343197643658
-0.12470000000000003,-90.37175783537855
-0.12570000000000014,-91.03667214631511
-0.12670000000000003,-91.64499800525708
-0.12770000000000015,-92.29576520319499
-0.12870000000000004,-92.94653240113291
-0.12970000000000015,-93.61144671206948
-0.13070000000000004,-94.30465524900335
-0.13170000000000015,-94.95542244694126
-0.13270000000000004,-95.56374830588322
-0.13370000000000015,-96.21451550382113
-0.13470000000000004,-96.87942981475771
-0.13570000000000015,-97.4877556736997
-0.13670000000000004,-98.09608153264163
-0.13770000000000016,-98.7044073915836
-0.13870000000000005,-99.35517458952152
-0.13970000000000016,-100.06253023945405
-0.14070000000000005,-100.75573877638791
-0.14170000000000016,-101.44894731332178
-0.14270000000000005,-102.1563029632543
-0.14370000000000016,-102.84951150018817
-0.14470000000000005,-103.54272003712204
-0.14570000000000016,-104.25007568705455
-0.14670000000000005,-104.94328422398843
-0.14770000000000016,-105.59405142192634
-0.14870000000000005,-106.2589657328629
-0.14970000000000017,-106.90973293080083
-0.15070000000000006,-107.68782414572658
-0.15170000000000017,-108.39517979565912
-0.15270000000000006,-109.13082967158894
-0.15370000000000017,-109.8240382085228
-0.15470000000000006,-110.48895251945936
-0.15570000000000017,-111.18216105639323
-0.15670000000000006,-111.8753695933271
-0.15770000000000017,-112.54028390426367
-0.15870000000000006,-113.23349244119754
-0.15970000000000018,-113.84181830013951
-0.16070000000000007,-114.4925854980774
-0.16170000000000018,-115.10091135701937
-0.16270000000000007,-115.68094298996405
-0.16370000000000018,-116.37415152689792
-0.16470000000000007,-117.02491872483584
-0.16570000000000018,-117.71812726176971
-0.16670000000000007,-118.42548291170223
-0.16770000000000018,-119.07625010964013
-0.16870000000000007,-119.68457596858211
-0.16970000000000018,-120.25046048852812
-0.17070000000000007,-120.81634500847414
-0.17170000000000019,-121.38222952842017
-0.17270000000000008,-122.00470250036076
-0.1737000000000002,-122.61302835930273
-0.17470000000000008,-123.26379555724066
-0.1757000000000002,-123.87212141618261
-0.17670000000000008,-124.52288861412055
-0.1777000000000002,-125.18780292505707
-0.17870000000000008,-125.79612878399907
-0.1797000000000002,-126.48933732093293
-0.18070000000000008,-127.09766317987489
-0.1817000000000002,-127.80501882980741
-0.18270000000000008,-128.45578602774532
-0.1837000000000002,-129.0641118866873
-0.1847000000000001,-129.75732042362114
-0.1857000000000002,-130.42223473455772
-0.1867000000000001,-131.15788461048754
-0.1877000000000002,-131.80865180842545
-0.1887000000000001,-132.60089013634988
-0.1897000000000002,-133.29409867328377
-0.1907000000000001,-133.9873072102176
-0.1917000000000001,-134.6522215211542
-0.19269999999999998,-135.3029887190921
-0.1937000000000001,-135.91131457803408
-0.19469999999999998,-136.51964043697603
-0.1957000000000001,-137.1845547479126
-0.19669999999999999,-137.79288060685457
-0.1977000000000001,-138.48608914378846
-0.1987,-139.13685634172634
-0.1997000000000001,-139.74518220066832
-0.2007,-140.41009651160488
-0.2017000000000001,-141.06086370954282
-0.2027,-141.75407224647665
-0.2037000000000001,-142.4614278964092
-0.2047,-143.0273124163552
-0.2057000000000001,-143.5931969363012
-0.2067,-144.30055258623375
-0.2077000000000001,-144.86643710617977
-0.2087,-145.57379275611228
-0.2097000000000001,-146.1396772760583
-0.2107,-146.8470329259908
-0.2117000000000001,-147.55438857592333
-0.2127,-148.26174422585584
-0.2137000000000001,-148.96909987578834
-0.2147,-149.6764555257209
-0.2157000000000001,-150.38381117565342
-0.2167,-150.94969569559944
-0.21770000000000012,-151.65705134553193
-0.2187,-152.22293586547795
-0.21970000000000012,-152.93029151541046
-0.2207,-153.63764716534297
-0.22170000000000012,-154.3450028152755
-0.2227,-154.9108873352215
-0.22370000000000012,-155.75971411514055
-0.2247,-156.46706976507306
-0.22570000000000012,-157.17442541500557
-0.2267,-157.7403099349516
-0.22770000000000012,-158.4476655848841
-0.22870000000000001,-159.01355010483013
-0.22970000000000013,-159.72090575476264
-0.23070000000000002,-160.28679027470866
-0.23170000000000013,-160.99414592464117
-0.23270000000000002,-161.70150157457368
-0.23370000000000013,-162.40885722450622
-0.23470000000000002,-162.97474174445222
-0.23570000000000013,-163.68209739438475
-0.23670000000000002,-164.38945304431726
-0.2376999999999999,-165.09680869424977
-0.23870000000000002,-165.6626932141958
-0.2396999999999999,-166.3700488641283
-0.24070000000000003,-167.07740451406085
-0.24169999999999991,-167.78476016399335
-0.24270000000000003,-168.49211581392586
-0.24369999999999992,-169.0580003338719
-0.24470000000000003,-169.7653559838044
-0.24569999999999992,-170.47271163373694
-0.24670000000000003,-171.18006728366944
-0.24769999999999992,-172.0288940635885
-0.24870000000000003,-172.73624971352098
-0.24969999999999992,-173.44360536345349
-0.25070000000000003,-174.150961013386
-0.2516999999999999,-174.85831666331853
-0.25270000000000004,-175.56567231325104
-0.2536999999999999,-176.27302796318358
-0.25470000000000004,-177.1218547431026
-0.2556999999999999,-177.82921039303508
-0.25670000000000004,-178.67803717295413
-0.25769999999999993,-179.38539282288664
-0.25870000000000004,-180.23421960280567
-0.25969999999999993,-181.08304638272472
-0.26070000000000004,-181.79040203265723
-0.26169999999999993,-182.49775768258974
-0.26270000000000004,-183.06364220253573
-0.26369999999999993,-183.77099785246824
-0.26470000000000005,-184.33688237241427
-0.26569999999999994,-185.0442380223468
-0.26670000000000005,-185.6101225422928
-0.26769999999999994,-186.31747819222534
-0.26870000000000005,-187.02483384215788
-0.26969999999999994,-187.73218949209036
-0.27070000000000005,-188.4395451420229
-0.27169999999999994,-189.0054296619689
-0.27270000000000005,-189.71278531190143
-0.27369999999999994,-190.27866983184742
-0.27470000000000006,-190.98602548177996
-0.27569999999999995,-191.551910001726
-0.27670000000000006,-192.11779452167198
-0.27769999999999995,-192.82515017160452
-0.27870000000000006,-193.3910346915505
-0.27969999999999995,-194.09839034148303
-0.28070000000000006,-194.66427486142905
-0.28169999999999995,-195.23015938137505
-0.28270000000000006,-195.79604390132107
-0.28369999999999995,-196.3619284212671
-0.28470000000000006,-197.0692840711996
-0.28569999999999995,-197.63516859114563
-0.28670000000000007,-198.20105311109162
-0.28769999999999996,-198.76693763103765
-0.28870000000000007,-199.33282215098367
-0.28969999999999996,-199.89870667092967
-0.29070000000000007,-200.4645911908757
-0.29169999999999996,-201.03047571082172
-0.29270000000000007,-201.59636023076774
-0.29369999999999996,-202.30371588070025
-0.2947000000000001,-202.86960040064628
-0.29569999999999996,-203.29401379060576
-0.2967000000000001,-203.85989831055176
-0.29769999999999996,-204.42578283049778
-0.2987000000000001,-204.8501962204573
-0.29969999999999997,-205.41608074040332
-0.3007000000000001,-205.98196526034934
-0.30169999999999997,-206.54784978029537
-0.3027000000000001,-207.1137343002414
-0.30369999999999997,-207.67961882018741
-0.3047000000000001,-208.24550334013338
-0.30569999999999997,-208.8113878600794
-0.3067000000000001,-209.37727238002543
-0.3077,-209.8016857699849
-0.3087000000000001,-210.36757028993094
-0.3097,-210.79198367989048
-0.3107000000000001,-211.21639706985
-0.3117,-211.64081045980947
-0.3127000000000001,-211.9237527197825
-0.3137,-212.34816610974204
-0.3147000000000001,-212.914050629688
-0.3157,-213.33846401964755
-0.3167000000000001,-213.76287740960703
-0.3177,-214.18729079956654
-0.3187000000000001,-214.61170418952605
-0.3197,-214.75317531951256
-0.3207000000000001,-215.17758870947208
-0.3217,-215.4605309694451
-0.3227000000000001,-215.7434732294181
-0.3237,-216.0264154893911
-0.3247000000000001,-216.3093577493641
-0.3257,-216.4508288793506
-0.3267000000000001,-216.73377113932364
-0.3277,-217.01671339929663
-0.3287000000000001,-217.44112678925615
-0.3297,-217.72406904922914
-0.3307000000000001,-217.86554017921566
-0.3317,-218.14848243918865
-0.3327000000000001,-218.28995356917517
-0.3337,-218.43142469916165
-0.3347000000000001,-218.57289582914817
-0.3357,-218.85583808912116
-0.3367000000000001,-218.99730921910768
-0.3377,-218.99730921910768
-0.3387000000000001,-219.28025147908068
-0.3397,-219.42172260906716
-0.3407000000000001,-219.5631937390537
-0.3417,-219.7046648690402
-0.3427000000000001,-219.7046648690402
-0.3437,-219.8461359990267
-0.3447000000000001,-219.8461359990267
-0.3457,-219.8461359990267
-0.3467000000000001,-219.98760712901318
-0.3477,-219.98760712901318
-0.3487000000000001,-219.98760712901318
-0.3497,-219.98760712901318
-0.3507000000000001,-220.1290782589997
-0.3517,-220.1290782589997
-0.3527000000000001,-220.1290782589997
-0.3537,-220.1290782589997
-0.3547000000000001,-220.2705493889862
-0.3557,-220.1290782589997
-0.35670000000000013,-220.1290782589997
-0.3577,-219.98760712901318
-0.35870000000000013,-219.8461359990267
-0.3597,-219.7046648690402
-0.36070000000000013,-219.7046648690402
-0.3617,-219.5631937390537
-0.3626999999999999,-219.5631937390537
-0.3637,-219.42172260906716
-0.3646999999999999,-219.28025147908068
-0.3657,-218.99730921910768
-0.3666999999999999,-218.71436695913465
-0.3677,-218.43142469916165
-0.3686999999999999,-218.14848243918865
-0.36970000000000003,-217.86554017921566
-0.3706999999999999,-217.44112678925615
-0.37170000000000003,-217.01671339929663
-0.3726999999999999,-216.73377113932364
-0.37370000000000003,-216.3093577493641
-0.3746999999999999,-215.88494435940459
-0.37570000000000003,-215.4605309694451
-0.3766999999999999,-215.03611757948556
-0.37770000000000004,-214.61170418952605
-0.3786999999999999,-214.04581966958003
-0.37970000000000004,-213.62140627962054
-0.3806999999999999,-213.05552175967455
-0.38170000000000004,-212.48963723972852
-0.38269999999999993,-211.9237527197825
-0.38370000000000004,-211.21639706985
-0.38469999999999993,-210.65051254990397
-0.38570000000000004,-210.08462802995794
-0.38669999999999993,-208.1040322101469
-0.38570000000000004,-203.01107153063276
-0.38469999999999993,-198.20105311109162
-0.38370000000000004,-193.3910346915505
-0.38269999999999993,-188.72248740199586
-0.38170000000000004,-184.19541124242778
-0.3806999999999999,-179.80980621284618
-0.37970000000000004,-175.42420118326456
-0.3786999999999999,-171.18006728366944
-0.37770000000000004,-166.93593338407433
-0.3766999999999999,-162.8332706144657
-0.37570000000000003,-158.87207897484362
-0.3746999999999999,-155.05235846520802
-0.37370000000000003,-151.09116682558593
-0.3726999999999999,-147.27144631595033
-0.37170000000000003,-143.4517258063147
-0.3706999999999999,-139.80177065266292
-0.36970000000000003,-136.03863859502192
-0.3686999999999999,-132.37453632837148
-0.3677,-128.752875400717
-0.3666999999999999,-125.18780292505707
-0.3657,-121.65102467539451
-0.3646999999999999,-118.1991291037238
-0.3637,-114.80382198404773
-0.3626999999999999,-111.5358388813595
-0.3617,-108.2537086656726
-0.36070000000000013,-105.02816690198033
-0.3597,-101.88750781627995
-0.35870000000000013,-98.74684873057957
-0.3577,-95.69107232287108
-0.35670000000000013,-92.6918843671572
-0.3557,-89.76343197643658
-0.3547000000000001,-86.93400937670651
-0.3537,-84.13288100297372
-0.3527000000000001,-81.43078242023151
-0.3517,-78.8135665154812
-0.3507000000000001,-76.23879194972683
-0.3497,-73.72060583596706
-0.3487000000000001,-71.2307139482046
-0.3477,-68.78326339943808
-0.3467000000000001,-66.34995996367022
-0.3457,-63.944950753899654
-0.3447000000000001,-61.63897133511965
-0.3437,-59.36128614233694
-0.3427000000000001,-57.14018940154883
-0.3417,-55.003975338752625
-0.3407000000000001,-52.86776127595642
-0.3397,-50.81642989115212
-0.3387000000000001,-48.80753984534376
-0.3377,-46.79864979953541
-0.3367000000000001,-44.84634820572166
-0.3357,-42.87989949890926
-0.3347000000000001,-40.91345079209687
-0.3337,-39.046031876275016
-0.3327000000000001,-37.164465847454515
-0.3317,-35.32534115762997
-0.3307000000000001,-33.58524625879597
-0.3297,-31.84515135996197
-0.3287000000000001,-30.147497800123933
-0.3277,-28.53472691827779
-0.3267000000000001,-26.907808923433
-0.3257,-25.295038041586857
-0.3247000000000001,-23.682267159740714
-0.3237,-22.111937616890522
-0.3227000000000001,-20.584049413036283
-0.3217,-19.056161209182044
-0.3207000000000001,-17.584861457322408
-0.3197,-16.141855931460068
-0.3187000000000001,-14.741291744593681
-0.3177,-13.436927926118118
-0.3167000000000001,-12.084463923447142
-0.3157,-10.819712021367803
-0.3147000000000001,-9.55496011928846
-0.3137,-8.288793505909249
-0.3127000000000001,-7.067897654125724
-0.3117,-5.80314575204638
-0.3107000000000001,-4.538393849967037
-0.3097,-3.361354048479327
-0.3087000000000001,-2.1828995356917518
-0.3077,-1.0490084288499246
-0.3067000000000001,0.04140859974704963
-0.30569999999999997,1.1317690398920295
-0.3047000000000001,2.1347993514963406
-0.30369999999999997,3.1816857133964676
-0.3027000000000001,4.184716025000778
-0.30169999999999997,5.18774633660509
-0.3007000000000001,6.1907766482094
-0.29969999999999997,7.237663010109527
-0.2987000000000001,8.242108033013702
-0.29769999999999996,9.201282294322198
-0.2967000000000001,10.20431260592651
-0.29569999999999996,11.077189477943236
-0.2947000000000001,11.992507688955916
-0.29369999999999996,12.821528510676828
-0.29270000000000007,13.69299067139369
-0.29169999999999996,14.529085049613924
-0.29070000000000007,15.349617603535648
-0.28969999999999996,16.22673860945197
-0.28870000000000007,17.047271163373694
-0.28769999999999996,17.881950830294063
-0.28670000000000007,18.702483384215785
-0.28569999999999995,19.49472171214021
-0.28470000000000006,20.272812927065978
-0.28369999999999995,21.022609915994444
-0.28270000000000006,21.71581845292831
-0.28169999999999995,22.46561544185678
-0.28070000000000006,23.1163826397947
-0.27969999999999995,23.809591176728567
-0.27870000000000006,24.516946826661083
-0.27769999999999995,25.210155363594954
-0.27670000000000006,25.90336390052882
-0.27569999999999995,26.65316088945729
-0.27470000000000006,27.303928087395207
-0.27369999999999994,27.954695285333123
-0.27270000000000005,28.60546248327104
-0.27169999999999994,29.22793545521166
-0.27070000000000005,29.836261314153624
-0.26969999999999994,30.402145834099635
-0.26870000000000005,30.968030354045652
-0.26769999999999994,31.57635621298762
-0.26670000000000005,32.184682071929586
