Potential V vs RHE, Current mA cm-2
0.013299999999999867,2.216852606888512
0.012299999999999978,0.49401718591287075
0.011299999999999866,-0.9792631617665783
0.010299999999999976,-2.0555755187038987
0.009299999999999864,-2.9100611438223805
0.008299999999999974,-3.7532290785419424
0.007299999999999862,-4.474731841473111
0.006299999999999972,-4.986857332024254
0.00529999999999986,-5.528691759872564
0.0042999999999999705,-6.088917434619118
0.0032999999999998586,-6.4595717951837575
0.0022999999999999687,-6.824567310548938
0.0012999999999998568,-7.305569152503049
0.00029999999999996696,-7.635196885371603
-0.000700000000000145,-7.9025773210460954
-0.0017000000000000348,-8.29162292850898
-0.0027000000000001467,-8.631153640476589
-0.0037000000000000366,-8.83628677895702
-0.0047000000000001485,-9.130546729328946
-0.005700000000000038,-9.47149215259642
-0.00670000000000015,-9.683698847576176
-0.00770000000000004,-9.912882078154311
-0.008700000000000152,-10.280707016119223
-0.009700000000000042,-10.512719669297088
-0.010700000000000154,-10.688143870480351
-0.011700000000000044,-10.99938035645066
-0.012700000000000156,-11.278078482524071
-0.013700000000000045,-11.422379035110307
-0.014700000000000157,-11.689759470784798
-0.015700000000000047,-11.985434132456591
-0.01670000000000016,-12.167931890139181
-0.01770000000000005,-12.36174733822069
-0.01870000000000016,-12.671569112891135
-0.01970000000000005,-12.880946385271157
-0.020700000000000163,-13.023832226557529
-0.021700000000000053,-13.31950688822932
-0.022700000000000164,-13.598205014302733
-0.023700000000000054,-13.734017299089775
-0.024700000000000166,-13.991494755665215
-0.025700000000000056,-14.30273124163552
-0.026700000000000168,-14.472496597619326
-0.027700000000000058,-14.65640906660178
-0.02870000000000017,-14.98179266557074
-0.02970000000000006,-15.179852247551842
-0.03070000000000017,-15.349617603535648
-0.03170000000000006,-15.632559863508657
-0.03270000000000017,-15.929649236480316
-0.03370000000000006,-16.071120366466815
-0.034700000000000175,-16.339915513441174
-0.035700000000000065,-16.679446225408782
-0.03670000000000018,-16.863358694391238
-0.03770000000000007,-17.047271163373694
-0.03870000000000018,-17.358507649344002
-0.03970000000000007,-17.570714344323754
-0.04070000000000018,-17.72633258730891
-0.04170000000000007,-18.03756907327922
-0.04270000000000018,-18.320511333252224
-0.04370000000000007,-18.49027668923603
-0.044700000000000184,-18.759071836210385
-0.045700000000000074,-19.084455435179343
-0.046700000000000186,-19.296662130159103
-0.047700000000000076,-19.480574599141555
-0.04870000000000019,-19.848399537106463
-0.04970000000000008,-20.088900458083522
-0.05070000000000019,-20.244518701068674
-0.05170000000000008,-20.584049413036283
-0.05270000000000019,-20.89528589900659
-0.05370000000000008,-21.065051254990397
-0.05470000000000019,-21.362140627962056
-0.05570000000000008,-21.68752422693101
-0.056700000000000195,-21.899730921910766
-0.057700000000000085,-22.111937616890522
-0.058700000000000196,-22.437321215859484
-0.059700000000000086,-22.706116362833843
-0.0607000000000002,-22.84758749282034
-0.06170000000000009,-23.15882397879065
-0.0627000000000002,-23.51250180375691
-0.06370000000000009,-23.696414272739364
-0.0647000000000002,-23.96520941971372
-0.06570000000000009,-24.290593018682678
-0.0667000000000002,-24.44621126166783
-0.0677000000000001,-24.65841795664759
-0.0687000000000002,-25.012095781613848
-0.0697000000000001,-25.252596702590903
-0.07070000000000021,-25.39406783257741
-0.0717000000000001,-25.677010092550415
-0.07270000000000021,-25.974099465522073
-0.0737000000000001,-26.15801193450453
-0.07470000000000021,-26.426807081478888
-0.0757000000000001,-26.780484906445146
-0.07670000000000021,-26.992691601424898
-0.0777000000000001,-27.190751183406004
-0.07870000000000021,-27.516134782374962
-0.0797000000000001,-27.770782816350668
-0.08070000000000022,-27.940548172334477
-0.0817000000000001,-28.251784658304786
-0.08270000000000022,-28.53472691827779
-0.08370000000000011,-28.704492274261593
-0.08470000000000022,-28.987434534234602
-0.08570000000000011,-29.34111235920086
-0.08670000000000022,-29.567466167179266
-0.08770000000000011,-29.822114201154974
-0.08870000000000022,-30.21823336511718
-0.08970000000000011,-30.45873428609424
-0.09070000000000022,-30.54361696408614
-0.09170000000000011,-30.8690005630551
-0.09270000000000023,-31.250972614018657
-0.09370000000000012,-31.47732642199707
-0.09470000000000023,-31.74612156897142
-0.09570000000000012,-32.07150516794038
-0.09670000000000023,-32.31200608891744
-0.09770000000000012,-32.53835989689585
-0.09870000000000023,-32.8637434958648
-0.09970000000000012,-33.13253864283916
-0.10070000000000023,-33.316451111821614
-0.10170000000000012,-33.627687597791926
-0.10270000000000024,-33.95307119676088
-0.10370000000000013,-34.15113077874198
-0.10470000000000024,-34.44822015171364
-0.10570000000000013,-34.81604508967855
-0.10670000000000024,-35.02825178465831
-0.10770000000000013,-35.240458479638065
-0.10870000000000024,-35.608283417602976
-0.10970000000000013,-35.89122567757598
-0.11070000000000024,-36.07513814655844
-0.11170000000000013,-36.38637463252874
-0.11270000000000002,-36.725905344496354
-0.11370000000000013,-36.9381120394761
-0.11470000000000002,-37.235201412447765
-0.11570000000000014,-37.659614802407276
-0.11670000000000003,-37.92840994938163
-0.11770000000000014,-38.23964643535194
-0.11870000000000003,-38.734795390304704
-0.11970000000000014,-39.130914554266916
-0.12070000000000003,-39.45629815323587
-0.12170000000000014,-39.92315288219133
-0.12270000000000003,-40.234389368161644
-0.12370000000000014,-40.29097782015624
-0.12470000000000003,-40.5880671931279
-0.12570000000000014,-41.01248058308742
-0.12670000000000003,-41.267128617063115
-0.12770000000000015,-41.52177665103883
-0.12870000000000004,-41.94619004099834
-0.12970000000000015,-42.25742652696865
-0.13070000000000004,-42.483780334947056
-0.13170000000000015,-42.89404661190791
-0.13270000000000004,-43.33260711486608
-0.13370000000000015,-43.643843600836384
-0.13470000000000004,-44.054109877797245
-0.13570000000000015,-44.506817493754056
-0.13670000000000004,-44.80390686672572
-0.13770000000000016,-45.044407787702774
-0.13870000000000005,-45.28490870867982
-0.13970000000000016,-45.497115403659585
-0.14070000000000005,-45.70932209863933
-0.14170000000000016,-46.119588375600195
-0.14270000000000005,-46.586443104555656
-0.14370000000000016,-46.91182670352462
-0.14470000000000005,-47.350387206482786
-0.14570000000000016,-47.93041883942744
-0.14670000000000005,-48.4255677943802
-0.14770000000000016,-48.94901097533027
-0.14870000000000005,-49.58563106026953
-0.14970000000000017,-50.0807800152223
-0.15070000000000006,-50.40616361419126
-0.15170000000000017,-50.88716545614537
-0.15270000000000006,-51.33987307210218
-0.15370000000000017,-51.60866821907654
-0.15470000000000006,-51.934051818045496
-0.15570000000000017,-52.35846520800501
-0.15670000000000006,-52.65555458097666
-0.15770000000000017,-52.938496840949675
-0.15870000000000006,-53.37705734390783
-0.15970000000000018,-53.71658805587545
-0.16070000000000007,-53.999530315848446
-0.16170000000000018,-54.45223793180526
-0.16270000000000007,-54.919092660760725
-0.16370000000000018,-55.23032914673103
-0.16470000000000007,-55.64059542369189
-0.16570000000000018,-56.12159726564601
-0.16670000000000007,-56.50356931660957
-0.16770000000000018,-56.89968848057178
-0.16870000000000007,-57.45142588751914
-0.16970000000000018,-57.91828061647461
-0.17070000000000007,-58.30025266743816
-0.17170000000000019,-58.809548735389576
-0.17270000000000008,-59.290550577343694
-0.1737000000000002,-59.6300812893113
-0.17470000000000008,-60.06864179226946
-0.1757000000000002,-60.63452631221547
-0.17670000000000008,-61.05893970217499
-0.1777000000000002,-61.48335309213449
-0.17870000000000008,-62.006796273084554
-0.1797000000000002,-62.43120966304407
-0.18070000000000008,-62.75659326201302
-0.1817000000000002,-63.19515376497119
-0.18270000000000008,-63.64786138092801
-0.1837000000000002,-63.98739209289561
-0.1847000000000001,-64.41180548285512
-0.1857000000000002,-64.92110155080654
-0.1867000000000001,-65.26063226277414
-0.1877000000000002,-65.62845720073905
-0.1887000000000001,-66.16604749468777
-0.1897000000000002,-66.56216665864997
-0.1907000000000001,-66.83096180562433
-0.1917000000000001,-67.24122808258521
-0.19269999999999998,-67.6656414725447
-0.1937000000000001,-67.99102507151366
-0.19469999999999998,-68.41543846147317
-0.1957000000000001,-68.99547009441784
-0.19669999999999999,-69.39158925838004
-0.1977000000000001,-69.73111997034766
-0.1987,-70.19797469930313
-0.1997000000000001,-70.56579963726803
-0.2007,-70.87703612323833
-0.2017000000000001,-71.30144951319785
-0.2027,-71.76830424215332
-0.2037000000000001,-72.10783495412092
-0.2047,-72.51810123108179
-0.2057000000000001,-73.0273972990332
-0.2067,-73.4235164629954
-0.2077000000000001,-73.76304717496302
-0.2087,-74.21575479091983
-0.2097000000000001,-74.61187395488203
-0.2107,-74.89481621485504
-0.2117000000000001,-75.26264115281995
-0.2127,-75.64461320378352
-0.2137000000000001,-75.84267278576462
-0.2147,-76.15390927173492
-0.2157000000000001,-76.71979379168094
-0.2167,-77.18664852063641
-0.21770000000000012,-77.54032634560265
-0.2187,-77.93644550956488
-0.21970000000000012,-78.29012333453113
-0.2207,-78.58721270750279
-0.22170000000000012,-79.02577321046095
-0.2227,-79.40774526142451
-0.22370000000000012,-79.59165773040696
-0.2247,-79.86045287738132
-0.22570000000000012,-80.27071915434219
-0.2267,-80.48292584932193
-0.22770000000000012,-80.62439697930844
-0.22870000000000001,-80.92148635228011
-0.22970000000000013,-81.1478401602585
-0.23070000000000002,-81.23272283825041
-0.23170000000000013,-81.44492953323017
-0.23270000000000002,-81.71372468020452
-0.23370000000000013,-81.81275447119506
-0.23470000000000002,-81.95422560118158
-0.23570000000000013,-82.25131497415322
-0.23670000000000002,-82.36449187814243
-0.2376999999999999,-82.47766878213164
-0.23870000000000002,-82.73231681610734
-0.2396999999999999,-82.87378794609386
-0.24070000000000003,-82.87378794609386
-0.24169999999999991,-83.029406189079
-0.24270000000000003,-83.15673020606685
-0.24369999999999992,-83.12843598006955
-0.24470000000000003,-83.21331865806147
-0.24569999999999992,-83.41137824004257
-0.24670000000000003,-83.51040803103311
-0.24769999999999992,-83.51040803103311
-0.24870000000000003,-83.60943782202366
-0.24969999999999992,-83.59529070902502
-0.25070000000000003,-83.46796669203717
-0.2516999999999999,-83.52455514403178
-0.25270000000000004,-83.63773204802096
-0.2536999999999999,-83.62358493502231
-0.25470000000000004,-83.63773204802096
-0.2556999999999999,-83.70846761301424
-0.25670000000000004,-83.58114359602637
-0.25769999999999993,-83.48211380503581
-0.25870000000000004,-83.45381957903851
-0.25969999999999993,-83.26990711005605
-0.26070000000000004,-82.94452351108711
-0.26169999999999993,-82.88793505909248
-0.26270000000000004,-82.87378794609386
-0.26369999999999993,-82.67572836411274
-0.26470000000000005,-82.46352166913299
-0.26569999999999994,-82.29375631314919
-0.26670000000000005,-82.02496116617483
-0.26769999999999994,-81.69957756720586
-0.26870000000000005,-81.52981221122207
-0.26969999999999994,-81.36004685523827
-0.27070000000000005,-81.02051614327065
-0.27169999999999994,-80.85075078728684
-0.27270000000000005,-80.73757388329766
-0.27369999999999994,-80.34145471933543
-0.27470000000000006,-79.90289421637728
-0.27569999999999995,-79.57751061740831
-0.27670000000000006,-79.16724434044745
-0.27769999999999995,-78.82771362847984
-0.27870000000000006,-78.60135982050144
-0.27969999999999995,-78.23353488253653
-0.28070000000000006,-77.7242388145851
-0.28169999999999995,-77.38470810261751
-0.28270000000000006,-77.04517739064991
-0.28369999999999995,-76.53588132269847
-0.28470000000000006,-76.08317370674168
-0.28569999999999995,-75.68705454277946
-0.28670000000000007,-75.1070229098348
-0.28769999999999996,-74.49869705089283
-0.28870000000000007,-74.07428366093333
-0.28969999999999996,-73.62157604497652
-0.29070000000000007,-73.23960399401295
-0.29169999999999996,-73.01325018603454
-0.29270000000000007,-72.6878665870656
-0.29369999999999996,-72.15027629311687
-0.2947000000000001,-71.6551273381641
-0.29569999999999996,-71.2590081742019
-0.2967000000000001,-70.70727076725453
-0.29769999999999996,-70.11309202131122
-0.2987000000000001,-69.6603844053544
-0.29969999999999997,-69.13694122440434
-0.3007000000000001,-68.58520381745697
-0.30169999999999997,-68.14664331449882
-0.3027000000000001,-67.7222299245393
-0.30369999999999997,-67.14219829159464
-0.3047000000000001,-66.67534356263918
-0.30569999999999997,-66.29337151167562
-0.3067000000000001,-65.68504565273366
-0.3077,-65.0767197937917
-0.3087000000000001,-64.68060062982947
-0.3097,-64.25618723986996
-0.3107000000000001,-63.71859694592126
-0.3117,-63.30833066896038
-0.3127000000000001,-62.94050573099548
-0.3137,-62.48779811503867
-0.3147000000000001,-62.10582606407511
-0.3157,-61.8228838041021
-0.3167000000000001,-61.4267646401399
-0.3177,-61.00235125018038
-0.3187000000000001,-60.73355610320602
-0.3197,-60.36573116524111
-0.3207000000000001,-59.95546488828025
-0.3217,-59.6583755153086
-0.3227000000000001,-59.403727481332886
-0.3237,-58.99346120437203
-0.3247000000000001,-58.65393049240442
-0.3257,-58.38513534543006
-0.3267000000000001,-58.10219308545706
-0.3277,-57.79095659948675
-0.3287000000000001,-57.6919268084962
-0.3297,-57.564602791508335
-0.3307000000000001,-57.30995475753264
-0.3317,-57.22507207954074
-0.3327000000000001,-57.15433651454749
-0.3337,-56.97042404556503
-0.3347000000000001,-56.88554136757313
-0.3357,-56.88554136757313
-0.3367000000000001,-56.77236446358392
-0.3377,-56.65918755959472
-0.3387000000000001,-56.71577601158933
-0.3397,-56.72992312458797
-0.3407000000000001,-56.68748178559202
-0.3417,-56.77236446358392
-0.3427000000000001,-56.871394254574476
-0.3437,-56.68748178559202
-0.3447000000000001,-56.68748178559202
-0.3457,-56.84310002857717
-0.3467000000000001,-56.84310002857717
-0.3477,-56.89968848057178
-0.3487000000000001,-57.097748062552874
-0.3497,-57.23921919253939
-0.3507000000000001,-57.26751341853669
-0.3517,-57.423131661521836
-0.3527000000000001,-57.649485469500235
-0.3537,-57.79095659948675
-0.3547000000000001,-58.05975174646111
-0.3557,-58.498312249419264
-0.35670000000000013,-58.79540162239092
-0.3577,-59.02175543036933
-0.35870000000000013,-59.403727481332886
-0.3597,-59.68666974130589
-0.36070000000000013,-59.87058221028835
-0.3617,-60.18181869625866
-0.3626999999999999,-60.54964363422357
-0.3637,-60.761850329203334
-0.3646999999999999,-61.08723392817228
-0.3657,-61.55408865712774
-0.3666999999999999,-61.865325143098055
-0.3677,-62.14826740307106
-0.3686999999999999,-62.65756347102247
-0.36970000000000003,-63.12441819997794
-0.3706999999999999,-63.4780960249442
-0.37170000000000003,-63.98739209289561
-0.3726999999999999,-64.52498238684433
-0.37370000000000003,-64.89280732480923
-0.3746999999999999,-65.33136782776738
-0.37570000000000003,-65.91139946071206
-0.3766999999999999,-66.34995996367022
-0.37770000000000004,-66.76022624063107
-0.3786999999999999,-67.34025787357575
-0.37970000000000004,-67.86370105452582
-0.3806999999999999,-68.24567310548937
-0.38170000000000004,-68.75496917344077
-0.38269999999999993,-69.3491479193841
-0.38370000000000004,-69.81600264833956
-0.38469999999999993,-70.31115160329232
-0.38570000000000004,-70.96191880123024
-0.38669999999999993,-69.71697285734902
-0.38570000000000004,-66.22263594668237
-0.38469999999999993,-63.43565468594825
-0.38370000000000004,-61.08723392817228
-0.38269999999999993,-58.82369584838823
-0.38170000000000004,-56.857247141575826
-0.3806999999999999,-55.06056379074723
-0.37970000000000004,-53.17899776192673
-0.3786999999999999,-51.495491315087335
-0.37770000000000004,-50.010044450229046
-0.3766999999999999,-48.51045047237211
-0.37570000000000003,-47.10988628550572
-0.3746999999999999,-45.93567590661774
-0.37370000000000003,-44.73317130173246
-0.3726999999999999,-43.43163690585662
-0.37170000000000003,-42.29986786596459
-0.3706999999999999,-41.196393052069865
-0.36970000000000003,-39.93729999518999
-0.3686999999999999,-38.763089616302004
-0.3677,-37.73035036740053
-0.3666999999999999,-36.55613998851254
-0.3657,-35.42437094862052
-0.3646999999999999,-34.4906614907096
-0.3637,-33.48621646780542
-0.3626999999999999,-32.41103587990799
-0.3617,-31.49147353499572
-0.36070000000000013,-30.656793868075347
-0.3597,-29.68064307116847
-0.35870000000000013,-28.775227839254843
-0.3577,-28.02543085032638
-0.35670000000000013,-27.162456957408708
-0.3557,-26.242894612496432
-0.3547000000000001,-25.535538962563912
-0.3537,-24.757447747638142
-0.3527000000000001,-23.852032515724517
-0.3517,-23.1163826397947
-0.3507000000000001,-22.39487987686353
-0.3497,-21.54605309694451
-0.3487000000000001,-20.75381476902009
-0.3477,-20.14548891007812
-0.3467000000000001,-19.409839034148305
-0.3457,-18.645894932221182
-0.3447000000000001,-18.05171618627787
-0.3437,-17.40094898833995
-0.3427000000000001,-16.679446225408782
-0.3417,-16.085267479465468
-0.3407000000000001,-15.533530072518102
-0.3397,-14.826174422585586
-0.3387000000000001,-14.203701450644967
-0.3377,-13.708552495692206
-0.3367000000000001,-13.08890894635132
-0.3357,-12.457947706611513
-0.3347000000000001,-11.991092977656052
-0.3337,-11.484626332304368
-0.3327000000000001,-10.8480062473651
-0.3317,-10.354272003712204
-0.3307000000000001,-9.918540923353772
-0.3297,-9.332850445209647
-0.3287000000000001,-8.806577841659854
-0.3277,-8.418946945496833
-0.3267000000000001,-7.9082361662455565
-0.3257,-7.35649875929819
-0.3247000000000001,-6.973111997034766
-0.3237,-6.537380916676335
-0.3227000000000001,-5.995546488828026
-0.3217,-5.59518319096622
-0.3207000000000001,-5.23018767560104
-0.3197,-4.723721030249357
-0.3187000000000001,-4.273842836892276
-0.3177,-3.958362217022373
-0.3167000000000001,-3.525460559263671
-0.3157,-3.044458717309559
-0.3147000000000001,-2.7558576121370915
-0.3137,-2.4021797871708324
-0.3127000000000001,-1.9282515017160449
-0.3117,-1.5943796349478963
-0.3107000000000001,-1.2994123289260362
-0.3097,-0.8730183431467142
-0.3087000000000001,-0.4798700729142204
-0.3077,-0.2157434732294181
-0.3067000000000001,0.14141454153450908
-0.30569999999999997,0.5571133098868515
-0.3047000000000001,0.8085075078728684
-0.30369999999999997,1.1037577561547016
-0.3027000000000001,1.5222293586547795
-0.30169999999999997,1.8037569073279218
-0.3007000000000001,2.0357695605057877
-0.29969999999999997,2.4106680549700226
-0.2987000000000001,2.730392808739521
-0.29769999999999996,2.938355369819681
-0.2967000000000001,3.265153680088505
-0.29569999999999996,3.6131726598553033
-0.2947000000000001,3.822549932235329
-0.29369999999999996,4.0644655645122505
-0.29270000000000007,4.44643761547581
-0.29169999999999996,4.699670938151652
-0.29070000000000007,4.8849981184339715
-0.28969999999999996,5.223114119101715
-0.28870000000000007,5.506056379074723
-0.28769999999999996,5.658845199460147
-0.28670000000000007,5.950275727232344
-0.28569999999999995,6.282732882700628
-0.28470000000000006,6.458157083883892
-0.28369999999999995,6.687340314462029
-0.28270000000000006,7.031115160329232
-0.28169999999999995,7.248980700508447
-0.28070000000000006,7.407428366093333
-0.27969999999999995,7.724323697263101
-0.27870000000000006,7.991704132937592
-0.27769999999999995,8.12044286122531
-0.27670000000000006,8.376505606500881
-0.27569999999999995,8.680668535971865
-0.27470000000000006,8.820724954658504
-0.27369999999999994,9.01029626884042
-0.27270000000000005,9.330021022609918
-0.27169999999999994,9.506859935093045
-0.27070000000000005,9.646916353779686
-0.26969999999999994,9.924199768553231
-0.26870000000000005,10.154797710431232
-0.26769999999999994,10.265145191820706
-0.26670000000000005,10.515549091896817
-0.26569999999999994,10.818297310067935
-0.26470000000000005,10.95410959485498
-0.26369999999999993,11.132363218637973
