Potential V vs RHE, Current mA cm-2
0.4132999999999999,0.005995546488828026
0.4122999999999999,0.004037586049814815
0.4112999999999999,0.003502825178465831
0.4102999999999999,0.0031406590857003813
0.4092999999999999,0.0028930846082240004
0.4082999999999999,0.002709172139241545
0.4072999999999999,0.00252525967025909
0.4062999999999999,0.002347006046476096
0.4052999999999999,0.002102260991599445
0.4042999999999999,0.0019056161209182044
0.4032999999999999,0.001810830463827247
0.4022999999999999,0.0016891652920388537
0.4012999999999999,0.0015236440699546447
0.4002999999999999,0.0013444001482617444
0.3992999999999999,0.0011657221110887902
0.3982999999999999,0.0010666923200982376
0.3972999999999999,0.00096058897260836
0.3962999999999999,0.0008266158125111409
0.3952999999999999,0.0006493524866380518
0.3942999999999999,0.000498544262072439
0.39329999999999987,0.00043021370628895764
0.39229999999999987,0.0003519801714064211
0.39129999999999987,0.0002110749259398635
0.39029999999999987,4.0757832549111706e-05
0.38929999999999987,-7.928042124443666e-05
0.38829999999999987,-0.0001476958597059098
0.38729999999999987,-0.00022168526068885123
0.38629999999999987,-0.00034448220151713643
0.38529999999999986,-0.0005148134420208867
0.38429999999999986,-0.0006166726556111695
0.38329999999999986,-0.0006821737887949207
0.38229999999999986,-0.0007408843077393197
0.38129999999999986,-0.0008510903179988061
0.38029999999999986,-0.0010144894731332179
0.37929999999999986,-0.0011106898415240403
0.37829999999999986,-0.0011651562265688443
0.37729999999999986,-0.001255839220890193
0.37629999999999986,-0.0013424195524419334
0.37529999999999986,-0.0015137410908555892
0.37429999999999986,-0.0016127708818461418
0.37329999999999985,-0.0016481386643427678
0.37229999999999985,-0.00173019191973494
0.37129999999999985,-0.0018150745977268423
0.37029999999999985,-0.001970692840711996
0.36929999999999985,-0.0020527460961041683
0.36829999999999985,-0.0020980168576998494
0.36729999999999985,-0.0021715818452928315
0.36629999999999985,-0.0022522203893851384
0.36529999999999985,-0.0024078386323702922
0.36429999999999985,-0.0025153566911600353
0.36329999999999985,-0.0025295038041586856
0.36229999999999984,-0.002590336390052882
0.36129999999999984,-0.0026964397375427596
0.36029999999999984,-0.002833666733629668
0.35929999999999984,-0.002942599503719276
0.35829999999999984,-0.0029567466167179264
0.35729999999999984,-0.003010505646112798
0.35629999999999984,-0.0031095354371033506
0.35529999999999984,-0.003248177144490124
0.35429999999999984,-0.0033429628015810816
0.35329999999999984,-0.003374086450178113
0.35229999999999984,-0.003430674902172714
0.35129999999999983,-0.003543851806161917
0.35029999999999983,-0.0036584434214509847
0.34929999999999983,-0.0037334231203438317
0.34829999999999983,-0.0037984998401376234
0.34729999999999983,-0.0038437706017333045
0.34629999999999983,-0.003928653279725206
0.34529999999999983,-0.004065880275812115
0.34429999999999983,-0.0041352011295055025
0.3432999999999998,-0.004171983623301993
0.3422999999999998,-0.00421018082839835
0.3412999999999998,-0.004290819372490657
0.3402999999999998,-0.004432290502477159
0.3392999999999998,-0.004510099623969737
0.3382999999999998,-0.004534149716067443
0.3372999999999998,-0.004576591055063394
0.3362999999999998,-0.004655814887855836
0.3352999999999998,-0.0047987007291422044
0.3342999999999998,-0.004883583407134106
0.3332999999999998,-0.004924610034830193
0.3322999999999998,-0.004959977817326819
0.3312999999999998,-0.005015151558021555
0.3302999999999998,-0.005148134420208869
0.3292999999999998,-0.005233017098200771
0.3282999999999998,-0.005249993633799151
0.3272999999999998,-0.005286776127595642
0.3262999999999998,-0.005364585249088219
0.3252999999999999,-0.005483420998276882
0.3242999999999999,-0.005579621366667705
0.3232999999999999,-0.0055994273248658145
0.3222999999999999,-0.005653186354260687
0.3212999999999999,-0.0057196777853543435
0.3202999999999999,-0.005825781132844221
0.3192999999999999,-0.005929055057734368
0.3182999999999999,-0.005937543325533558
0.3172999999999999,-0.005975740530629915
0.3162999999999999,-0.006070526187720872
0.3152999999999999,-0.0061738001126110205
0.3142999999999999,-0.006260097501902787
0.3132999999999999,-0.006265756347102247
0.3122999999999999,-0.006286977016600223
0.3112999999999999,-0.00635912729289334
0.3102999999999999,-0.006479377753381868
0.3092999999999999,-0.0065586015861743095
0.3082999999999999,-0.00656991927657323
0.3072999999999999,-0.006619434172068507
0.3062999999999999,-0.006681681469262569
0.3052999999999999,-0.006784955394152717
0.3042999999999999,-0.006867008649544888
0.3032999999999999,-0.006910864699840703
0.3022999999999999,-0.006919352967639895
0.3012999999999999,-0.007002820934331932
0.3002999999999999,-0.007096191880123024
0.2992999999999999,-0.007185318692014522
0.2982999999999999,-0.007210783495412092
0.2972999999999999,-0.007248980700508447
0.2962999999999999,-0.00732254568810143
0.2952999999999999,-0.0074286490355913075
0.2942999999999999,-0.007496555177984829
0.2932999999999999,-0.007486652198885773
0.2922999999999999,-0.007548899496079835
0.2912999999999999,-0.007621049772372953
0.2902999999999999,-0.0077370560989618855
0.2892999999999999,-0.007814865220454463
0.2882999999999999,-0.007820524065653924
0.2872999999999999,-0.007840330023852033
0.2862999999999999,-0.007905406743645824
0.2852999999999999,-0.008018583647635028
0.2842999999999999,-0.00810346632562693
0.2832999999999999,-0.00811761343862558
0.2822999999999999,-0.008137419396823692
0.2812999999999999,-0.008194007848818291
0.2802999999999999,-0.008301525907608036
0.2792999999999999,-0.008394896853399128
0.2782999999999999,-0.008400555698598587
0.2772999999999999,-0.008418946945496834
0.2762999999999999,-0.008482608953990762
0.2752999999999999,-0.008577394611081717
0.2742999999999999,-0.008672180268172675
0.2732999999999999,-0.00868774209247119
0.2722999999999999,-0.008699059782870111
0.2712999999999999,-0.008769795347863362
0.2702999999999999,-0.008885801674452295
0.2692999999999999,-0.008957951950745412
0.26829999999999987,-0.008974928486343793
0.26729999999999987,-0.008986246176742712
0.26629999999999987,-0.009051322896536505
0.26529999999999987,-0.009154596821426653
0.26429999999999987,-0.009233820654219094
0.26329999999999987,-0.009240894210718421
0.26229999999999987,-0.009253626612417205
0.26129999999999987,-0.009301726796612616
0.26029999999999986,-0.009444612637898985
0.25929999999999986,-0.009506859935093048
0.25829999999999986,-0.009536568872390213
0.25729999999999986,-0.009580424922686029
0.25629999999999986,-0.00964833106507955
0.25529999999999986,-0.009740287299570776
0.25429999999999986,-0.009786972772466325
0.25329999999999986,-0.009805364019364568
0.25229999999999986,-0.009830828822762141
0.25129999999999986,-0.00987892900695755
0.25029999999999986,-0.010000594178745943
0.24929999999999986,-0.010062841475940006
0.24829999999999985,-0.010060012053340275
0.24729999999999985,-0.010096794547136767
0.24629999999999985,-0.010139235886132717
0.24529999999999985,-0.010270804037020168
0.24429999999999985,-0.010354272003712204
0.24329999999999985,-0.010337295468113824
0.24229999999999985,-0.010354272003712204
0.24129999999999985,-0.010433495836504644
0.24029999999999985,-0.010524037359696007
0.23929999999999985,-0.010607505326388047
0.23829999999999985,-0.010604675903788316
0.23729999999999984,-0.010627311284586155
0.23629999999999984,-0.010679655602681162
0.23529999999999984,-0.010784344238871176
0.23429999999999984,-0.010850835669964832
0.23329999999999984,-0.010874885762062537
0.23229999999999984,-0.010889032875061187
0.23129999999999984,-0.010964012573954034
0.23029999999999984,-0.011067286498844182
0.22929999999999984,-0.011142266197737028
0.22829999999999984,-0.01115924273333541
0.22729999999999984,-0.011174804557633925
0.22629999999999983,-0.011237051854827986
0.22529999999999983,-0.011351643470117054
0.22429999999999983,-0.01141813490121071
0.22329999999999983,-0.011443599704608282
0.22229999999999983,-0.011459161528906798
0.22129999999999983,-0.01151009113570194
0.22029999999999983,-0.011641659286589386
0.21929999999999983,-0.011699662449883852
0.21829999999999983,-0.011715224274182368
0.21729999999999983,-0.011730786098480885
0.21629999999999983,-0.011793033395674947
0.21529999999999982,-0.011911869144863611
0.21429999999999982,-0.01197411644205767
0.21329999999999982,-0.011979775287257131
0.21229999999999982,-0.01201938720365335
0.21129999999999982,-0.012061828542649302
0.21029999999999982,-0.012159443622339991
0.20929999999999982,-0.012251399856831218
0.20829999999999982,-0.012251399856831218
0.20729999999999982,-0.012278279371528653
0.20629999999999982,-0.01234477080262231
0.20529999999999982,-0.012431068191914077
0.20429999999999982,-0.012528683271604767
0.20329999999999981,-0.012520195003805573
0.2022999999999998,-0.012559806920201795
0.2012999999999998,-0.012600833547897882
0.20029999999999992,-0.012702692761488166
0.19929999999999992,-0.012803137263778583
0.19829999999999992,-0.012820113799376963
0.19729999999999992,-0.012837090334975343
0.19629999999999992,-0.012906411188668731
0.19529999999999992,-0.012992708577960496
0.19429999999999992,-0.013129935574047406
0.19329999999999992,-0.013146912109645786
0.19229999999999992,-0.013128520862747541
0.19129999999999991,-0.013195012293841197
0.1902999999999999,-0.013284139105732696
0.1892999999999999,-0.01337043649502446
0.1882999999999999,-0.013387413030622844
0.1872999999999999,-0.013397316009721896
0.1862999999999999,-0.013452489750416635
0.1852999999999999,-0.013551519541407186
0.1842999999999999,-0.013644890487198278
0.1832999999999999,-0.013651964043697605
0.1822999999999999,-0.013660452311496792
0.1812999999999999,-0.013734017299089777
0.1802999999999999,-0.01383870593527979
0.1792999999999999,-0.01390378265507358
0.1782999999999999,-0.013923588613271691
0.1772999999999999,-0.013970274086167238
0.1762999999999999,-0.01400988600256346
0.1752999999999999,-0.014110330504853877
0.1742999999999999,-0.014203701450644968
0.1732999999999999,-0.014203701450644968
0.1722999999999999,-0.014217848563643616
0.1712999999999999,-0.01427443701563822
0.1702999999999999,-0.014387613919627423
0.1692999999999999,-0.014458349484620674
0.1682999999999999,-0.014472496597619325
0.1672999999999999,-0.014500790823616624
0.1662999999999999,-0.014557379275611227
0.1652999999999999,-0.01465640906660178
0.1642999999999999,-0.014755438857592333
0.1632999999999999,-0.014741291744593682
0.1622999999999999,-0.014783733083589632
0.1612999999999999,-0.014840321535584235
0.1602999999999999,-0.014925204213576137
0.1592999999999999,-0.01501008689156804
0.15829999999999989,-0.01503838111756534
0.15729999999999988,-0.01503838111756534
0.15629999999999988,-0.015109116682558592
0.15529999999999988,-0.015222293586547794
0.15429999999999988,-0.015278882038542396
0.15329999999999988,-0.015307176264539698
0.15229999999999988,-0.015335470490536997
0.15129999999999988,-0.015392058942531598
0.15029999999999988,-0.015476941620523503
0.14929999999999988,-0.015590118524512706
0.14829999999999988,-0.015604265637511355
0.14729999999999988,-0.015590118524512706
0.14629999999999987,-0.015632559863508654
0.14529999999999987,-0.01575988388049651
0.14429999999999987,-0.01584476655848841
0.14329999999999987,-0.01588720789748436
0.14229999999999987,-0.01591550212348166
0.14129999999999987,-0.015957943462477614
0.14029999999999987,-0.016042826140469518
0.13929999999999987,-0.016127708818461418
0.13829999999999987,-0.01614185593146007
0.13729999999999987,-0.01615600304445872
0.13629999999999987,-0.016212591496453318
0.13529999999999986,-0.016325768400442524
0.13429999999999986,-0.016410651078434424
0.13329999999999986,-0.016410651078434424
0.13229999999999986,-0.016453092417430374
0.13129999999999986,-0.016495533756426328
0.13029999999999986,-0.016637004886412832
0.12929999999999986,-0.01670774045140608
0.12829999999999986,-0.01670774045140608
0.12729999999999986,-0.016764328903400686
0.12629999999999986,-0.016806770242396636
0.12529999999999986,-0.016891652920388536
0.12429999999999986,-0.017004829824377742
0.12329999999999985,-0.01703312405037504
0.12229999999999985,-0.01703312405037504
0.12129999999999985,-0.017118006728366945
0.12029999999999985,-0.017188742293360197
0.11929999999999985,-0.0173019191973494
0.11829999999999985,-0.01731606631034805
0.11729999999999985,-0.0173302134233467
0.11629999999999985,-0.0174150961013386
0.11529999999999985,-0.017499978779330502
0.11429999999999985,-0.017613155683319705
0.11329999999999985,-0.017613155683319705
0.11229999999999984,-0.017641449909317007
0.11129999999999984,-0.01771218547431026
0.11029999999999984,-0.017797068152302163
0.10929999999999984,-0.017896097943292714
0.10829999999999984,-0.017924392169290013
0.10729999999999984,-0.017952686395287316
0.10629999999999984,-0.017995127734283266
0.10529999999999984,-0.018108304638272472
0.10429999999999984,-0.018193187316264375
0.10329999999999984,-0.018221481542261674
0.10229999999999984,-0.018263922881257624
0.10129999999999983,-0.018306364220253574
0.10029999999999983,-0.018447835350240076
0.09929999999999983,-0.018546865141230634
0.09829999999999983,-0.01856101225422928
0.09729999999999983,-0.018603453593225232
0.09629999999999983,-0.018631747819222534
0.09529999999999983,-0.018759071836210388
0.09429999999999983,-0.01885810162720094
0.09329999999999983,-0.01887224874019959
0.09229999999999983,-0.018900542966196893
0.09129999999999983,-0.01897127853119014
0.09029999999999982,-0.019084455435179344
0.08929999999999982,-0.019169338113171244
0.08829999999999982,-0.019211779452167198
0.08729999999999982,-0.019240073678164497
0.08629999999999982,-0.0192966621301591
0.08529999999999982,-0.019381544808151
0.08429999999999982,-0.019480574599141553
0.08329999999999982,-0.01950886882513886
0.08229999999999982,-0.019537163051136158
0.08129999999999982,-0.019579604390132108
0.08029999999999982,-0.01969278129412131
0.07929999999999982,-0.019805958198110513
0.07829999999999981,-0.019848399537106463
0.07729999999999981,-0.019890840876102416
0.07629999999999981,-0.019933282215098366
0.07529999999999992,-0.02004645911908757
0.07429999999999992,-0.020131341797079472
0.07329999999999992,-0.020173783136075422
0.07229999999999992,-0.02020207736207272
0.07129999999999992,-0.020258665814067326
0.07029999999999992,-0.020371842718056525
0.06929999999999992,-0.02048501962204573
0.06829999999999992,-0.020513313848043033
0.06729999999999992,-0.020541608074040336
0.06629999999999991,-0.020598196526034934
0.06529999999999991,-0.02071137343002414
0.06429999999999991,-0.020810403221014687
0.06329999999999991,-0.02085284456001064
0.06229999999999991,-0.02088113878600794
0.06129999999999991,-0.020923580125003893
0.06029999999999991,-0.021065051254990398
0.05929999999999991,-0.021149933932982302
0.05829999999999991,-0.02119237527197825
0.05729999999999991,-0.02122066949797555
0.056299999999999906,-0.0212631108369715
0.055299999999999905,-0.021404581966958002
0.054299999999999904,-0.021489464644949906
0.0532999999999999,-0.021560200209943158
0.0522999999999999,-0.02158849443594046
0.0512999999999999,-0.021645082887935062
0.0502999999999999,-0.021772406904922915
0.0492999999999999,-0.02189973092191077
0.0482999999999999,-0.021913878034909417
0.0472999999999999,-0.02197046648690402
0.0462999999999999,-0.022027054938898623
0.045299999999999896,-0.022140231842887825
0.044299999999999895,-0.022253408746877028
0.043299999999999894,-0.02226755585987568
0.04229999999999989,-0.022295850085872978
0.04129999999999989,-0.02238073276386488
0.04029999999999989,-0.022536351006850038
0.03929999999999989,-0.022635380797840585
0.03829999999999989,-0.022663675023837888
0.03729999999999989,-0.022691969249835187
0.03629999999999989,-0.02276270481482844
0.03529999999999989,-0.022861734605818994
0.034299999999999886,-0.022989058622806844
0.033299999999999885,-0.023017352848804146
0.032299999999999884,-0.023045647074801445
0.031299999999999883,-0.02313052975279335
0.030299999999999883,-0.0232295595437839
0.02929999999999988,-0.023328589334774455
0.02829999999999988,-0.023399324899767704
0.02729999999999988,-0.023441766238763657
0.02629999999999988,-0.023498354690758262
0.025299999999999878,-0.023625678707746112
0.024299999999999877,-0.023724708498736664
0.023299999999999876,-0.02378129695073127
0.022299999999999875,-0.023809591176728567
0.021299999999999875,-0.02388032674172182
0.020299999999999874,-0.024021797871708325
0.019299999999999873,-0.024134974775697527
0.018299999999999872,-0.024191563227692125
0.01729999999999987,-0.02420571034069078
0.01629999999999987,-0.02427644590568403
0.01529999999999987,-0.024417917035670533
0.014299999999999868,-0.024545241052658383
0.013299999999999867,-0.02457353527865569
0.012299999999999978,-0.024630123730650287
0.011299999999999866,-0.02468671218264489
0.010299999999999976,-0.02479988908663409
0.009299999999999864,-0.024927213103621948
0.008299999999999974,-0.024969654442617898
0.007299999999999862,-0.0250262428946125
0.006299999999999972,-0.0250828313466071
0.00529999999999986,-0.025196008250596303
0.0042999999999999705,-0.025337479380582808
0.0032999999999998586,-0.02537992071957876
0.0022999999999999687,-0.02545065628457201
0.0012999999999998568,-0.025507244736566608
0.00029999999999996696,-0.02562042164055581
-0.000700000000000145,-0.025747745657543668
-0.0017000000000000348,-0.02580433410953827
-0.0027000000000001467,-0.025832628335535568
-0.0037000000000000366,-0.025931658126526123
-0.0047000000000001485,-0.026030687917516674
-0.005700000000000038,-0.026186306160501827
-0.00670000000000015,-0.02624289461249643
-0.00770000000000004,-0.02629948306449103
-0.008700000000000152,-0.026370218629484285
-0.009700000000000042,-0.026483395533473487
-0.010700000000000154,-0.026639013776458643
-0.011700000000000044,-0.026709749341451892
-0.012700000000000156,-0.02673804356744919
-0.013700000000000045,-0.026808779132442447
-0.014700000000000157,-0.026936103149430297
-0.015700000000000047,-0.0270775742794168
-0.01670000000000016,-0.027134162731411407
-0.01770000000000005,-0.027162456957408702
-0.01870000000000016,-0.027247339635400606
-0.01970000000000005,-0.027374663652388463
-0.020700000000000163,-0.02750198766937631
-0.021700000000000053,-0.02755857612137091
-0.022700000000000164,-0.027615164573365516
-0.023700000000000054,-0.027671753025360117
-0.024700000000000166,-0.02782737126834527
-0.025700000000000056,-0.027954695285333123
-0.026700000000000168,-0.028011283737327728
-0.027700000000000058,-0.028053725076323675
-0.02870000000000017,-0.02809616641531963
-0.02970000000000006,-0.028237637545306133
-0.03070000000000017,-0.028379108675292634
-0.03170000000000006,-0.028421550014288588
-0.03270000000000017,-0.02847813846628319
-0.03370000000000006,-0.028534726918277787
-0.034700000000000175,-0.028662050935265648
-0.035700000000000065,-0.028817669178250797
-0.03670000000000018,-0.028874257630245398
-0.03770000000000007,-0.02893084608224
-0.03870000000000018,-0.029001581647233248
-0.03970000000000007,-0.029114758551222454
-0.04070000000000018,-0.02927037679420761
-0.04170000000000007,-0.029326965246202208
-0.04270000000000018,-0.029383553698196813
-0.04370000000000007,-0.02946843637618871
-0.044700000000000184,-0.029567466167179264
-0.045700000000000074,-0.02970893729716577
-0.046700000000000186,-0.029779672862159025
-0.047700000000000076,-0.029807967088156324
-0.04870000000000019,-0.029892849766148224
-0.04970000000000008,-0.03002017378313608
-0.05070000000000019,-0.03014749780012393
-0.05170000000000008,-0.030232380478115835
-0.05270000000000019,-0.030260674704113137
-0.05370000000000008,-0.030345557382105034
-0.05470000000000019,-0.03044458717309559
-0.05570000000000008,-0.03058605830308209
-0.056700000000000195,-0.03065679386807535
-0.057700000000000085,-0.030685088094072648
-0.058700000000000196,-0.030741676546067253
-0.059700000000000086,-0.030897294789052406
-0.0607000000000002,-0.031010471693041605
-0.06170000000000009,-0.031095354371033508
-0.0627000000000002,-0.031137795710029458
