Dec. 21, 2024   09:51:05
Cyclic Voltammetry
File: c:/users/guazh/data/banditlqround7_x0exp667_r5/2024-12-16-exp720\exp720-2024-12-21t09_41_53-h2koh\exp720_cv_sr_50mvs_efin_-1500mv.bin
Data Source:  Experiment
Instrument Model:  CHI760E
Header: CV ran at 50 mVs
Note: 

Init E (V) = -1
High E (V) = -1
Low E (V) = -1.5
Final E (V) = -1
Init P/N = N
Scan Rate (V/s) = 0.05
Segment = 3
Sample Interval (V) = 0.001
Quiet Time (sec) = 2
Sensitivity (A/V) = 0.01
Comp R (ohm) = 1.3

Results:

Channel 1:
Segment 1:

Segment 2:
Ep = -1.133V
ip = -6.185e-4A
Ah = -6.572e-4C

Segment 3:

Potential/V, Current/A

-1.000, -3.851e-4
-1.001, -2.991e-4
-1.002, -2.393e-4
-1.003, -1.892e-4
-1.004, -1.463e-4
-1.005, -1.101e-4
-1.006, -7.960e-5
-1.007, -5.276e-5
-1.008, -2.786e-5
-1.009, -2.804e-6
-1.010, 2.040e-5
-1.011, 4.071e-5
-1.012, 5.891e-5
-1.013, 7.594e-5
-1.014, 9.478e-5
-1.015, 1.124e-4
-1.016, 1.275e-4
-1.017, 1.421e-4
-1.018, 1.560e-4
-1.019, 1.708e-4
-1.020, 1.864e-4
-1.021, 1.984e-4
-1.022, 2.088e-4
-1.023, 2.212e-4
-1.024, 2.353e-4
-1.025, 2.472e-4
-1.026, 2.572e-4
-1.027, 2.667e-4
-1.028, 2.787e-4
-1.029, 2.885e-4
-1.030, 3.012e-4
-1.031, 3.104e-4
-1.032, 3.209e-4
-1.033, 3.221e-4
-1.034, 3.373e-4
-1.035, 3.436e-4
-1.036, 3.603e-4
-1.037, 3.628e-4
-1.038, 3.706e-4
-1.039, 3.830e-4
-1.040, 3.910e-4
-1.041, 3.987e-4
-1.042, 4.051e-4
-1.043, 4.137e-4
-1.044, 4.209e-4
-1.045, 4.305e-4
-1.046, 4.378e-4
-1.047, 4.431e-4
-1.048, 4.511e-4
-1.049, 4.606e-4
-1.050, 4.683e-4
-1.051, 4.748e-4
-1.052, 4.817e-4
-1.053, 4.859e-4
-1.054, 4.944e-4
-1.055, 5.028e-4
-1.056, 5.106e-4
-1.057, 5.148e-4
-1.058, 5.214e-4
-1.059, 5.271e-4
-1.060, 5.381e-4
-1.061, 5.429e-4
-1.062, 5.486e-4
-1.063, 5.534e-4
-1.064, 5.610e-4
-1.065, 5.736e-4
-1.066, 5.747e-4
-1.067, 5.800e-4
-1.068, 5.847e-4
-1.069, 5.902e-4
-1.070, 5.987e-4
-1.071, 6.042e-4
-1.072, 6.134e-4
-1.073, 6.158e-4
-1.074, 6.147e-4
-1.075, 6.228e-4
-1.076, 6.339e-4
-1.077, 6.372e-4
-1.078, 6.481e-4
-1.079, 6.514e-4
-1.080, 6.565e-4
-1.081, 6.609e-4
-1.082, 6.631e-4
-1.083, 6.699e-4
-1.084, 6.760e-4
-1.085, 6.838e-4
-1.086, 6.867e-4
-1.087, 6.919e-4
-1.088, 6.961e-4
-1.089, 7.034e-4
-1.090, 7.089e-4
-1.091, 7.127e-4
-1.092, 7.152e-4
-1.093, 7.204e-4
-1.094, 7.282e-4
-1.095, 7.359e-4
-1.096, 7.368e-4
-1.097, 7.431e-4
-1.098, 7.457e-4
-1.099, 7.513e-4
-1.100, 7.577e-4
-1.101, 7.631e-4
-1.102, 7.651e-4
-1.103, 7.731e-4
-1.104, 7.759e-4
-1.105, 7.867e-4
-1.106, 7.836e-4
-1.107, 7.925e-4
-1.108, 7.931e-4
-1.109, 8.037e-4
-1.110, 8.036e-4
-1.111, 8.105e-4
-1.112, 8.120e-4
-1.113, 8.167e-4
-1.114, 8.256e-4
-1.115, 8.327e-4
-1.116, 8.337e-4
-1.117, 8.476e-4
-1.118, 8.319e-4
-1.119, 8.506e-4
-1.120, 8.413e-4
-1.121, 8.598e-4
-1.122, 8.578e-4
-1.123, 8.675e-4
-1.124, 8.726e-4
-1.125, 8.811e-4
-1.126, 8.856e-4
-1.127, 8.892e-4
-1.128, 8.951e-4
-1.129, 8.984e-4
-1.130, 9.058e-4
-1.131, 9.043e-4
-1.132, 9.139e-4
-1.133, 9.199e-4
-1.134, 9.319e-4
-1.135, 9.354e-4
-1.136, 9.442e-4
-1.137, 9.433e-4
-1.138, 9.502e-4
-1.139, 9.523e-4
-1.140, 9.581e-4
-1.141, 9.728e-4
-1.142, 9.661e-4
-1.143, 9.800e-4
-1.144, 9.771e-4
-1.145, 9.997e-4
-1.146, 1.006e-3
-1.147, 1.008e-3
-1.148, 9.858e-4
-1.149, 1.004e-3
-1.150, 1.018e-3
-1.151, 1.023e-3
-1.152, 1.037e-3
-1.153, 1.044e-3
-1.154, 1.049e-3
-1.155, 1.054e-3
-1.156, 1.066e-3
-1.157, 1.068e-3
-1.158, 1.076e-3
-1.159, 1.087e-3
-1.160, 1.093e-3
-1.161, 1.102e-3
-1.162, 1.108e-3
-1.163, 1.113e-3
-1.164, 1.123e-3
-1.165, 1.135e-3
-1.166, 1.142e-3
-1.167, 1.145e-3
-1.168, 1.159e-3
-1.169, 1.163e-3
-1.170, 1.175e-3
-1.171, 1.184e-3
-1.172, 1.190e-3
-1.173, 1.194e-3
-1.174, 1.205e-3
-1.175, 1.216e-3
-1.176, 1.226e-3
-1.177, 1.235e-3
-1.178, 1.248e-3
-1.179, 1.257e-3
-1.180, 1.262e-3
-1.181, 1.271e-3
-1.182, 1.279e-3
-1.183, 1.292e-3
-1.184, 1.302e-3
-1.185, 1.311e-3
-1.186, 1.323e-3
-1.187, 1.335e-3
-1.188, 1.348e-3
-1.189, 1.359e-3
-1.190, 1.370e-3
-1.191, 1.378e-3
-1.192, 1.386e-3
-1.193, 1.396e-3
-1.194, 1.411e-3
-1.195, 1.428e-3
-1.196, 1.448e-3
-1.197, 1.434e-3
-1.198, 1.449e-3
-1.199, 1.446e-3
-1.200, 1.471e-3
-1.201, 1.484e-3
-1.202, 1.502e-3
-1.203, 1.509e-3
-1.204, 1.530e-3
-1.205, 1.545e-3
-1.206, 1.558e-3
-1.207, 1.562e-3
-1.208, 1.580e-3
-1.209, 1.588e-3
-1.210, 1.598e-3
-1.211, 1.615e-3
-1.212, 1.633e-3
-1.213, 1.647e-3
-1.214, 1.652e-3
-1.215, 1.673e-3
-1.216, 1.682e-3
-1.217, 1.694e-3
-1.218, 1.715e-3
-1.219, 1.731e-3
-1.220, 1.747e-3
-1.221, 1.758e-3
-1.222, 1.770e-3
-1.223, 1.784e-3
-1.224, 1.797e-3
-1.225, 1.811e-3
-1.226, 1.824e-3
-1.227, 1.839e-3
-1.228, 1.861e-3
-1.229, 1.891e-3
-1.230, 1.894e-3
-1.231, 1.921e-3
-1.232, 1.923e-3
-1.233, 1.944e-3
-1.234, 1.960e-3
-1.235, 1.984e-3
-1.236, 1.987e-3
-1.237, 2.012e-3
-1.238, 2.018e-3
-1.239, 2.041e-3
-1.240, 2.059e-3
-1.241, 2.077e-3
-1.242, 2.102e-3
-1.243, 2.109e-3
-1.244, 2.108e-3
-1.245, 2.131e-3
-1.246, 2.164e-3
-1.247, 2.167e-3
-1.248, 2.198e-3
-1.249, 2.212e-3
-1.250, 2.227e-3
-1.251, 2.249e-3
-1.252, 2.260e-3
-1.253, 2.284e-3
-1.254, 2.302e-3
-1.255, 2.320e-3
-1.256, 2.340e-3
-1.257, 2.356e-3
-1.258, 2.372e-3
-1.259, 2.400e-3
-1.260, 2.423e-3
-1.261, 2.436e-3
-1.262, 2.459e-3
-1.263, 2.476e-3
-1.264, 2.492e-3
-1.265, 2.514e-3
-1.266, 2.535e-3
-1.267, 2.559e-3
-1.268, 2.578e-3
-1.269, 2.609e-3
-1.270, 2.626e-3
-1.271, 2.635e-3
-1.272, 2.664e-3
-1.273, 2.667e-3
-1.274, 2.698e-3
-1.275, 2.716e-3
-1.276, 2.738e-3
-1.277, 2.761e-3
-1.278, 2.775e-3
-1.279, 2.799e-3
-1.280, 2.822e-3
-1.281, 2.844e-3
-1.282, 2.885e-3
-1.283, 2.895e-3
-1.284, 2.908e-3
-1.285, 2.934e-3
-1.286, 2.958e-3
-1.287, 2.996e-3
-1.288, 3.002e-3
-1.289, 3.036e-3
-1.290, 3.041e-3
-1.291, 3.085e-3
-1.292, 3.091e-3
-1.293, 3.107e-3
-1.294, 3.127e-3
-1.295, 3.148e-3
-1.296, 3.176e-3
-1.297, 3.185e-3
-1.298, 3.219e-3
-1.299, 3.221e-3
-1.300, 3.257e-3
-1.301, 3.267e-3
-1.302, 3.273e-3
-1.303, 3.308e-3
-1.304, 3.333e-3
-1.305, 3.351e-3
-1.306, 3.321e-3
-1.307, 3.353e-3
-1.308, 3.338e-3
-1.309, 3.413e-3
-1.310, 3.387e-3
-1.311, 3.453e-3
-1.312, 3.445e-3
-1.313, 3.487e-3
-1.314, 3.507e-3
-1.315, 3.531e-3
-1.316, 3.531e-3
-1.317, 3.500e-3
-1.318, 3.546e-3
-1.319, 3.551e-3
-1.320, 3.563e-3
-1.321, 3.586e-3
-1.322, 3.605e-3
-1.323, 3.625e-3
-1.324, 3.646e-3
-1.325, 3.629e-3
-1.326, 3.632e-3
-1.327, 3.681e-3
-1.328, 3.684e-3
-1.329, 3.689e-3
-1.330, 3.697e-3
-1.331, 3.707e-3
-1.332, 3.725e-3
-1.333, 3.724e-3
-1.334, 3.730e-3
-1.335, 3.745e-3
-1.336, 3.736e-3
-1.337, 3.744e-3
-1.338, 3.763e-3
-1.339, 3.767e-3
-1.340, 3.772e-3
-1.341, 3.779e-3
-1.342, 3.784e-3
-1.343, 3.784e-3
-1.344, 3.786e-3
-1.345, 3.797e-3
-1.346, 3.795e-3
-1.347, 3.790e-3
-1.348, 3.799e-3
-1.349, 3.810e-3
-1.350, 3.804e-3
-1.351, 3.813e-3
-1.352, 3.818e-3
-1.353, 3.817e-3
-1.354, 3.821e-3
-1.355, 3.827e-3
-1.356, 3.838e-3
-1.357, 3.836e-3
-1.358, 3.849e-3
-1.359, 3.855e-3
-1.360, 3.861e-3
-1.361, 3.831e-3
-1.362, 3.867e-3
-1.363, 3.874e-3
-1.364, 3.888e-3
-1.365, 3.887e-3
-1.366, 3.891e-3
-1.367, 3.901e-3
-1.368, 3.901e-3
-1.369, 3.916e-3
-1.370, 3.939e-3
-1.371, 3.955e-3
-1.372, 3.960e-3
-1.373, 3.971e-3
-1.374, 3.985e-3
-1.375, 4.011e-3
-1.376, 4.046e-3
-1.377, 3.975e-3
-1.378, 4.026e-3
-1.379, 4.010e-3
-1.380, 4.081e-3
-1.381, 4.065e-3
-1.382, 4.129e-3
-1.383, 4.118e-3
-1.384, 4.158e-3
-1.385, 4.173e-3
-1.386, 4.199e-3
-1.387, 4.231e-3
-1.388, 4.245e-3
-1.389, 4.270e-3
-1.390, 4.303e-3
-1.391, 4.296e-3
-1.392, 4.341e-3
-1.393, 4.365e-3
-1.394, 4.377e-3
-1.395, 4.421e-3
-1.396, 4.435e-3
-1.397, 4.460e-3
-1.398, 4.483e-3
-1.399, 4.508e-3
-1.400, 4.533e-3
-1.401, 4.568e-3
-1.402, 4.561e-3
-1.403, 4.618e-3
-1.404, 4.640e-3
-1.405, 4.634e-3
-1.406, 4.710e-3
-1.407, 4.760e-3
-1.408, 4.743e-3
-1.409, 4.759e-3
-1.410, 4.724e-3
-1.411, 4.815e-3
-1.412, 4.819e-3
-1.413, 4.908e-3
-1.414, 4.899e-3
-1.415, 4.931e-3
-1.416, 4.964e-3
-1.417, 4.997e-3
-1.418, 5.047e-3
-1.419, 5.067e-3
-1.420, 5.135e-3
-1.421, 5.161e-3
-1.422, 5.198e-3
-1.423, 5.226e-3
-1.424, 5.283e-3
-1.425, 5.334e-3
-1.426, 5.347e-3
-1.427, 5.436e-3
-1.428, 5.505e-3
-1.429, 5.565e-3
-1.430, 5.631e-3
-1.431, 5.674e-3
-1.432, 5.728e-3
-1.433, 5.815e-3
-1.434, 5.889e-3
-1.435, 5.952e-3
-1.436, 6.017e-3
-1.437, 6.039e-3
-1.438, 6.159e-3
-1.439, 6.197e-3
-1.440, 6.277e-3
-1.441, 6.359e-3
-1.442, 6.430e-3
-1.443, 6.507e-3
-1.444, 6.569e-3
-1.445, 6.629e-3
-1.446, 6.716e-3
-1.447, 6.773e-3
-1.448, 6.883e-3
-1.449, 6.835e-3
-1.450, 6.964e-3
-1.451, 7.008e-3
-1.452, 7.155e-3
-1.453, 7.200e-3
-1.454, 7.291e-3
-1.455, 7.343e-3
-1.456, 7.514e-3
-1.457, 7.498e-3
-1.458, 7.626e-3
-1.459, 7.624e-3
-1.460, 7.707e-3
-1.461, 7.795e-3
-1.462, 7.864e-3
-1.463, 7.975e-3
-1.464, 8.071e-3
-1.465, 8.144e-3
-1.466, 8.249e-3
-1.467, 8.289e-3
-1.468, 8.364e-3
-1.469, 8.424e-3
-1.470, 8.503e-3
-1.471, 8.590e-3
-1.472, 8.661e-3
-1.473, 8.740e-3
-1.474, 8.790e-3
-1.475, 8.881e-3
-1.476, 8.943e-3
-1.477, 9.030e-3
-1.478, 9.122e-3
-1.479, 9.140e-3
-1.480, 9.234e-3
-1.481, 9.267e-3
-1.482, 9.374e-3
-1.483, 9.441e-3
-1.484, 9.509e-3
-1.485, 9.619e-3
-1.486, 9.653e-3
-1.487, 9.730e-3
-1.488, 9.768e-3
-1.489, 9.835e-3
-1.490, 9.851e-3
-1.491, 9.916e-3
-1.492, 9.984e-3
-1.493, 1.009e-2
-1.494, 1.013e-2
-1.495, 1.020e-2
-1.496, 1.026e-2
-1.497, 1.033e-2
-1.498, 1.038e-2
-1.499, 1.041e-2
-1.500, 1.040e-2
-1.499, 1.030e-2
-1.498, 1.019e-2
-1.497, 1.007e-2
-1.496, 9.926e-3
-1.495, 9.816e-3
-1.494, 9.694e-3
-1.493, 9.573e-3
-1.492, 9.448e-3
-1.491, 9.328e-3
-1.490, 9.231e-3
-1.489, 9.118e-3
-1.488, 9.022e-3
-1.487, 8.903e-3
-1.486, 8.949e-3
-1.485, 8.746e-3
-1.484, 8.682e-3
-1.483, 8.432e-3
-1.482, 8.408e-3
-1.481, 8.379e-3
-1.480, 8.286e-3
-1.479, 8.193e-3
-1.478, 8.098e-3
-1.477, 8.044e-3
-1.476, 7.884e-3
-1.475, 7.826e-3
-1.474, 7.729e-3
-1.473, 7.613e-3
-1.472, 7.529e-3
-1.471, 7.454e-3
-1.470, 7.369e-3
-1.469, 7.250e-3
-1.468, 7.163e-3
-1.467, 7.078e-3
-1.466, 7.055e-3
-1.465, 6.958e-3
-1.464, 6.861e-3
-1.463, 6.734e-3
-1.462, 6.740e-3
-1.461, 6.557e-3
-1.460, 6.468e-3
-1.459, 6.381e-3
-1.458, 6.321e-3
-1.457, 6.240e-3
-1.456, 6.160e-3
-1.455, 6.075e-3
-1.454, 6.036e-3
-1.453, 5.945e-3
-1.452, 5.876e-3
-1.451, 5.793e-3
-1.450, 5.720e-3
-1.449, 5.646e-3
-1.448, 5.582e-3
-1.447, 5.500e-3
-1.446, 5.385e-3
-1.445, 5.335e-3
-1.444, 5.283e-3
-1.443, 5.216e-3
-1.442, 5.149e-3
-1.441, 5.103e-3
-1.440, 5.005e-3
-1.439, 4.942e-3
-1.438, 4.848e-3
-1.437, 4.804e-3
-1.436, 4.729e-3
-1.435, 4.646e-3
-1.434, 4.580e-3
-1.433, 4.510e-3
-1.432, 4.423e-3
-1.431, 4.387e-3
-1.430, 4.325e-3
-1.429, 4.245e-3
-1.428, 4.168e-3
-1.427, 4.123e-3
-1.426, 4.043e-3
-1.425, 3.986e-3
-1.424, 3.930e-3
-1.423, 3.877e-3
-1.422, 3.812e-3
-1.421, 3.760e-3
-1.420, 3.708e-3
-1.419, 3.653e-3
-1.418, 3.608e-3
-1.417, 3.577e-3
-1.416, 3.492e-3
-1.415, 3.463e-3
-1.414, 3.379e-3
-1.413, 3.336e-3
-1.412, 3.265e-3
-1.411, 3.262e-3
-1.410, 3.189e-3
-1.409, 3.144e-3
-1.408, 3.090e-3
-1.407, 3.031e-3
-1.406, 2.972e-3
-1.405, 2.927e-3
-1.404, 2.862e-3
-1.403, 2.836e-3
-1.402, 2.780e-3
-1.401, 2.742e-3
-1.400, 2.684e-3
-1.399, 2.638e-3
-1.398, 2.581e-3
-1.397, 2.524e-3
-1.396, 2.482e-3
-1.395, 2.445e-3
-1.394, 2.381e-3
-1.393, 2.346e-3
-1.392, 2.296e-3
-1.391, 2.296e-3
-1.390, 2.268e-3
-1.389, 2.205e-3
-1.388, 2.158e-3
-1.387, 2.108e-3
-1.386, 2.061e-3
-1.385, 2.019e-3
-1.384, 1.978e-3
-1.383, 1.937e-3
-1.382, 1.897e-3
-1.381, 1.851e-3
-1.380, 1.815e-3
-1.379, 1.775e-3
-1.378, 1.742e-3
-1.377, 1.704e-3
-1.376, 1.669e-3
-1.375, 1.630e-3
-1.374, 1.596e-3
-1.373, 1.557e-3
-1.372, 1.526e-3
-1.371, 1.489e-3
-1.370, 1.455e-3
-1.369, 1.420e-3
-1.368, 1.382e-3
-1.367, 1.352e-3
-1.366, 1.317e-3
-1.365, 1.289e-3
-1.364, 1.254e-3
-1.363, 1.227e-3
-1.362, 1.201e-3
-1.361, 1.181e-3
-1.360, 1.151e-3
-1.359, 1.115e-3
-1.358, 1.085e-3
-1.357, 1.055e-3
-1.356, 1.026e-3
-1.355, 9.963e-4
-1.354, 9.656e-4
-1.353, 9.356e-4
-1.352, 9.110e-4
-1.351, 8.839e-4
-1.350, 8.582e-4
-1.349, 8.320e-4
-1.348, 8.027e-4
-1.347, 7.780e-4
-1.346, 7.553e-4
-1.345, 7.274e-4
-1.344, 7.074e-4
-1.343, 6.730e-4
-1.342, 6.456e-4
-1.341, 6.214e-4
-1.340, 5.983e-4
-1.339, 5.813e-4
-1.338, 5.533e-4
-1.337, 5.312e-4
-1.336, 5.098e-4
-1.335, 4.868e-4
-1.334, 4.615e-4
-1.333, 4.371e-4
-1.332, 4.148e-4
-1.331, 3.938e-4
-1.330, 3.726e-4
-1.329, 3.529e-4
-1.328, 3.291e-4
-1.327, 3.081e-4
-1.326, 2.874e-4
-1.325, 2.676e-4
-1.324, 2.467e-4
-1.323, 2.249e-4
-1.322, 2.063e-4
-1.321, 1.882e-4
-1.320, 1.707e-4
-1.319, 1.503e-4
-1.318, 1.304e-4
-1.317, 1.114e-4
-1.316, 9.069e-5
-1.315, 7.249e-5
-1.314, 5.296e-5
-1.313, 3.217e-5
-1.312, 1.331e-5
-1.311, -3.416e-6
-1.310, -1.972e-5
-1.309, -3.774e-5
-1.308, -5.684e-5
-1.307, -7.377e-5
-1.306, -9.059e-5
-1.305, -1.081e-4
-1.304, -1.253e-4
-1.303, -1.452e-4
-1.302, -1.622e-4
-1.301, -1.772e-4
-1.300, -1.937e-4
-1.299, -2.109e-4
-1.298, -2.270e-4
-1.297, -2.435e-4
-1.296, -2.571e-4
-1.295, -2.721e-4
-1.294, -2.900e-4
-1.293, -3.100e-4
-1.292, -3.239e-4
-1.291, -3.370e-4
-1.290, -3.513e-4
-1.289, -3.664e-4
-1.288, -3.834e-4
-1.287, -3.975e-4
-1.286, -4.145e-4
-1.285, -4.207e-4
-1.284, -4.388e-4
-1.283, -4.596e-4
-1.282, -4.722e-4
-1.281, -4.858e-4
-1.280, -4.985e-4
-1.279, -5.144e-4
-1.278, -5.298e-4
-1.277, -5.430e-4
-1.276, -5.556e-4
-1.275, -5.671e-4
-1.274, -5.805e-4
-1.273, -5.958e-4
-1.272, -6.097e-4
-1.271, -6.227e-4
-1.270, -6.380e-4
-1.269, -6.511e-4
-1.268, -6.663e-4
-1.267, -6.796e-4
-1.266, -6.922e-4
-1.265, -7.048e-4
-1.264, -7.189e-4
-1.263, -7.334e-4
-1.262, -7.452e-4
-1.261, -7.589e-4
-1.260, -7.726e-4
-1.259, -7.873e-4
-1.258, -8.034e-4
-1.257, -8.180e-4
-1.256, -8.321e-4
-1.255, -8.588e-4
-1.254, -8.665e-4
-1.253, -8.822e-4
-1.252, -8.958e-4
-1.251, -9.087e-4
-1.250, -9.202e-4
-1.249, -9.349e-4
-1.248, -9.423e-4
-1.247, -9.559e-4
-1.246, -9.701e-4
-1.245, -9.820e-4
-1.244, -9.988e-4
-1.243, -1.014e-3
-1.242, -1.031e-3
-1.241, -1.043e-3
-1.240, -1.064e-3
-1.239, -1.080e-3
-1.238, -1.100e-3
-1.237, -1.132e-3
-1.236, -1.147e-3
-1.235, -1.149e-3
-1.234, -1.154e-3
-1.233, -1.162e-3
-1.232, -1.183e-3
-1.231, -1.199e-3
-1.230, -1.225e-3
-1.229, -1.246e-3
-1.228, -1.267e-3
-1.227, -1.276e-3
-1.226, -1.297e-3
-1.225, -1.305e-3
-1.224, -1.325e-3
-1.223, -1.345e-3
-1.222, -1.355e-3
-1.221, -1.377e-3
-1.220, -1.392e-3
-1.219, -1.413e-3
-1.218, -1.434e-3
-1.217, -1.451e-3
-1.216, -1.470e-3
-1.215, -1.487e-3
-1.214, -1.514e-3
-1.213, -1.529e-3
-1.212, -1.550e-3
-1.211, -1.574e-3
-1.210, -1.588e-3
-1.209, -1.611e-3
-1.208, -1.631e-3
-1.207, -1.653e-3
-1.206, -1.672e-3
-1.205, -1.694e-3
-1.204, -1.713e-3
-1.203, -1.732e-3
-1.202, -1.758e-3
-1.201, -1.778e-3
-1.200, -1.830e-3
-1.199, -1.857e-3
-1.198, -1.861e-3
-1.197, -1.852e-3
-1.196, -1.908e-3
-1.195, -1.912e-3
-1.194, -1.949e-3
-1.193, -1.974e-3
-1.192, -2.011e-3
-1.191, -2.018e-3
-1.190, -2.032e-3
-1.189, -2.046e-3
-1.188, -2.065e-3
-1.187, -2.094e-3
-1.186, -2.120e-3
-1.185, -2.154e-3
-1.184, -2.176e-3
-1.183, -2.186e-3
-1.182, -2.229e-3
-1.181, -2.248e-3
-1.180, -2.267e-3
-1.179, -2.280e-3
-1.178, -2.328e-3
-1.177, -2.315e-3
-1.176, -2.354e-3
-1.175, -2.362e-3
-1.174, -2.400e-3
-1.173, -2.423e-3
-1.172, -2.444e-3
-1.171, -2.461e-3
-1.170, -2.477e-3
-1.169, -2.475e-3
-1.168, -2.501e-3
-1.167, -2.533e-3
-1.166, -2.566e-3
-1.165, -2.585e-3
-1.164, -2.595e-3
-1.163, -2.612e-3
-1.162, -2.651e-3
-1.161, -2.667e-3
-1.160, -2.676e-3
-1.159, -2.694e-3
-1.158, -2.705e-3
-1.157, -2.744e-3
-1.156, -2.769e-3
-1.155, -2.801e-3
-1.154, -2.833e-3
-1.153, -2.835e-3
-1.152, -2.818e-3
-1.151, -2.810e-3
-1.150, -2.846e-3
-1.149, -2.854e-3
-1.148, -2.877e-3
-1.147, -2.879e-3
-1.146, -2.881e-3
-1.145, -2.891e-3
-1.144, -2.896e-3
-1.143, -2.921e-3
-1.142, -2.930e-3
-1.141, -2.943e-3
-1.140, -2.940e-3
-1.139, -2.949e-3
-1.138, -3.097e-3
-1.137, -3.144e-3
-1.136, -3.147e-3
-1.135, -3.157e-3
-1.134, -3.110e-3
-1.133, -3.165e-3
-1.132, -3.132e-3
-1.131, -3.128e-3
-1.130, -3.124e-3
-1.129, -3.111e-3
-1.128, -3.106e-3
-1.127, -3.089e-3
-1.126, -3.117e-3
-1.125, -3.078e-3
-1.124, -3.079e-3
-1.123, -3.066e-3
-1.122, -3.048e-3
-1.121, -3.037e-3
-1.120, -3.023e-3
-1.119, -3.010e-3
-1.118, -3.022e-3
-1.117, -3.006e-3
-1.116, -2.981e-3
-1.115, -2.953e-3
-1.114, -2.942e-3
-1.113, -2.919e-3
-1.112, -2.916e-3
-1.111, -2.893e-3
-1.110, -2.884e-3
-1.109, -2.869e-3
-1.108, -2.864e-3
-1.107, -2.847e-3
-1.106, -2.821e-3
-1.105, -2.794e-3
-1.104, -2.785e-3
-1.103, -2.766e-3
-1.102, -2.752e-3
-1.101, -2.727e-3
-1.100, -2.718e-3
-1.099, -2.717e-3
-1.098, -2.682e-3
-1.097, -2.671e-3
-1.096, -2.655e-3
-1.095, -2.647e-3
-1.094, -2.622e-3
-1.093, -2.606e-3
-1.092, -2.583e-3
-1.091, -2.564e-3
-1.090, -2.556e-3
-1.089, -2.548e-3
-1.088, -2.527e-3
-1.087, -2.508e-3
-1.086, -2.495e-3
-1.085, -2.475e-3
-1.084, -2.464e-3
-1.083, -2.452e-3
-1.082, -2.437e-3
-1.081, -2.424e-3
-1.080, -2.410e-3
-1.079, -2.392e-3
-1.078, -2.384e-3
-1.077, -2.394e-3
-1.076, -2.472e-3
-1.075, -2.415e-3
-1.074, -2.357e-3
-1.073, -2.361e-3
-1.072, -2.366e-3
-1.071, -2.342e-3
-1.070, -2.357e-3
-1.069, -2.348e-3
-1.068, -2.314e-3
-1.067, -2.301e-3
-1.066, -2.297e-3
-1.065, -2.276e-3
-1.064, -2.276e-3
-1.063, -2.276e-3
-1.062, -2.273e-3
-1.061, -2.277e-3
-1.060, -2.196e-3
-1.059, -2.195e-3
-1.058, -2.236e-3
-1.057, -2.193e-3
-1.056, -2.197e-3
-1.055, -2.192e-3
-1.054, -2.184e-3
-1.053, -2.183e-3
-1.052, -2.179e-3
-1.051, -2.164e-3
-1.050, -2.165e-3
-1.049, -2.146e-3
-1.048, -2.136e-3
-1.047, -2.140e-3
-1.046, -2.128e-3
-1.045, -2.131e-3
-1.044, -2.136e-3
-1.043, -2.138e-3
-1.042, -2.119e-3
-1.041, -2.108e-3
-1.040, -2.110e-3
-1.039, -2.097e-3
-1.038, -2.123e-3
-1.037, -2.082e-3
-1.036, -2.086e-3
-1.035, -2.109e-3
-1.034, -2.092e-3
-1.033, -2.093e-3
-1.032, -2.094e-3
-1.031, -2.097e-3
-1.030, -2.093e-3
-1.029, -2.069e-3
-1.028, -2.080e-3
-1.027, -2.068e-3
-1.026, -2.068e-3
-1.025, -2.084e-3
-1.024, -2.076e-3
-1.023, -2.089e-3
-1.022, -2.083e-3
-1.021, -2.074e-3
-1.020, -2.091e-3
-1.019, -2.074e-3
-1.018, -2.083e-3
-1.017, -2.087e-3
-1.016, -2.086e-3
-1.015, -2.091e-3
-1.014, -2.098e-3
-1.013, -2.091e-3
-1.012, -2.105e-3
-1.011, -2.129e-3
-1.010, -2.115e-3
-1.009, -2.026e-3
-1.008, -2.090e-3
-1.007, -2.098e-3
-1.006, -2.080e-3
-1.005, -2.102e-3
-1.004, -2.091e-3
-1.003, -2.118e-3
-1.002, -2.128e-3
-1.001, -2.114e-3
