Potential V vs RHE, Current mA cm-2
0.013299999999999867,5.568303676268785
0.012299999999999978,3.825379354835059
0.011299999999999866,2.2974911509808194
0.010299999999999976,1.1927430969162125
0.009299999999999864,0.02277685192782709
0.008299999999999974,-1.2126905262443095
0.007299999999999862,-2.0668932091028185
0.006299999999999972,-2.870449227426159
0.00529999999999986,-3.8763089616302007
0.0042999999999999705,-4.6572295991557
0.0032999999999998586,-5.22735825300131
0.0022999999999999687,-6.043646673023436
0.0012999999999998568,-6.803346641050961
0.00029999999999996696,-7.230589453610202
-0.000700000000000145,-7.847403580351358
-0.0017000000000000348,-8.590127012780503
-0.0027000000000001467,-8.984831465442848
-0.0037000000000000366,-9.376706495505463
-0.0047000000000001485,-10.051523785541084
-0.005700000000000038,-10.531110916195333
-0.00670000000000015,-10.857909226464155
-0.00770000000000004,-11.38701125261368
-0.008700000000000152,-11.890648475365632
-0.009700000000000042,-12.13680824154215
-0.010700000000000154,-12.578198167100041
-0.011700000000000044,-13.139838553146461
-0.012700000000000156,-13.360533515925406
-0.013700000000000045,-13.605278570802058
-0.014700000000000157,-14.147112998650368
-0.015700000000000047,-14.486643710617974
-0.01670000000000016,-14.684703292599082
-0.01770000000000005,-15.137410908555893
-0.01870000000000016,-15.561824298515406
-0.01970000000000005,-15.731589654499205
-0.020700000000000163,-16.085267479465468
-0.021700000000000053,-16.580416434418233
-0.022700000000000164,-16.764328903400685
-0.023700000000000054,-16.97653559838044
-0.024700000000000166,-17.45753744033455
-0.025700000000000056,-17.782921039303513
-0.026700000000000168,-17.938539282288666
-0.027700000000000058,-18.362952672248177
-0.02870000000000017,-18.730777610213085
-0.02970000000000006,-18.80151317520634
-0.03070000000000017,-19.098602548177997
-0.03170000000000006,-19.579604390132108
-0.03270000000000017,-19.77766397211321
-0.03370000000000006,-19.947429328097016
-0.034700000000000175,-20.38598983105518
-0.035700000000000065,-20.668932091028186
-0.03670000000000018,-20.810403221014692
-0.03770000000000007,-21.22066949797555
-0.03870000000000018,-21.574347322941808
-0.03970000000000007,-21.67337711393236
-0.04070000000000018,-21.98461359990267
-0.04170000000000007,-22.451468328858134
-0.04270000000000018,-22.578792345845983
-0.04370000000000007,-22.734410588831135
-0.044700000000000184,-23.2012653177866
-0.045700000000000074,-23.45591335176231
-0.046700000000000186,-23.56909025575151
-0.047700000000000076,-23.93691519371642
-0.04870000000000019,-24.304740131681328
-0.04970000000000008,-24.417917035670534
-0.05070000000000019,-24.70085929564354
-0.05170000000000008,-25.12527268560305
-0.05270000000000019,-25.266743815589557
-0.05370000000000008,-25.45065628457201
-0.05470000000000019,-25.90336390052882
-0.05570000000000008,-26.14386482150588
-0.056700000000000195,-26.22874749949778
-0.057700000000000085,-26.61071955046134
-0.058700000000000196,-26.9643973754276
-0.059700000000000086,-27.049280053419505
-0.0607000000000002,-27.34636942639116
-0.06170000000000009,-27.756635703352025
-0.0627000000000002,-27.912253946337174
-0.06370000000000009,-28.06787218932233
-0.0647000000000002,-28.52057980527914
-0.06570000000000009,-28.746933613257543
-0.0667000000000002,-28.831816291249446
-0.0677000000000001,-29.199641229214354
-0.0687000000000002,-29.539171941181966
-0.0697000000000001,-29.59576039317657
-0.07070000000000021,-29.878702653149578
-0.0717000000000001,-30.274821817111786
-0.07270000000000021,-30.402145834099635
-0.0737000000000001,-30.571911190083444
-0.07470000000000021,-30.982177467044306
-0.0757000000000001,-31.180237049025404
-0.07670000000000021,-31.27926684001596
-0.0777000000000001,-31.64709177798087
-0.07870000000000021,-31.95832826395118
-0.0797000000000001,-32.00076960294713
-0.08070000000000022,-32.269564749921486
-0.0817000000000001,-32.66568391388369
-0.08270000000000022,-32.7505665918756
-0.08370000000000011,-32.87789060886345
-0.08470000000000022,-33.274009772825664
-0.08570000000000011,-33.47206935480677
-0.08670000000000022,-33.52865780680137
-0.08770000000000011,-33.86818851876898
-0.08870000000000022,-34.179425004739294
-0.08970000000000011,-34.221866343735236
-0.09070000000000022,-34.462367264712285
-0.09170000000000011,-34.8301922026772
-0.09270000000000023,-34.92922199366775
-0.09370000000000012,-35.05654601065561
-0.09470000000000023,-35.46681228761647
-0.09570000000000012,-35.636577643600276
-0.09670000000000023,-35.693166095594876
-0.09770000000000012,-36.03269680756248
-0.09870000000000023,-36.3439332935328
-0.09970000000000012,-36.38637463252874
-0.10070000000000023,-36.61272844050715
-0.10170000000000012,-36.96640626547341
-0.10270000000000024,-37.06543605646396
-0.10370000000000013,-37.178612960453165
-0.10470000000000024,-37.57473212441538
-0.10570000000000013,-37.73035036740053
-0.10670000000000024,-37.77279170639648
-0.10770000000000013,-38.11232241836409
-0.10870000000000024,-38.39526467833709
-0.10970000000000013,-38.40941179133574
-0.11070000000000024,-38.664059825311455
-0.11170000000000013,-39.01773765027771
-0.11270000000000002,-39.060178989273666
-0.11370000000000013,-39.159208780264215
-0.11470000000000002,-39.51288660523048
-0.11570000000000014,-39.66850484821563
-0.11670000000000003,-39.696799074212926
-0.11770000000000014,-40.00803556018324
-0.11870000000000003,-40.29097782015624
-0.11970000000000014,-40.30512493315489
-0.12070000000000003,-40.531478741133306
-0.12170000000000014,-40.88515656609956
-0.12270000000000003,-40.97003924409146
-0.12370000000000014,-41.097363261079316
-0.12470000000000003,-41.47933531204288
-0.12570000000000014,-41.649100668026676
-0.12670000000000003,-41.66324778102533
-0.12770000000000015,-41.98863137999429
-0.12870000000000004,-42.28572075296594
-0.12970000000000015,-42.31401497896325
-0.13070000000000004,-42.51207456094435
-0.13170000000000015,-42.85160527291196
-0.13270000000000004,-42.95063506390252
-0.13370000000000015,-43.09210619388902
-0.13470000000000004,-43.44578401885527
-0.13570000000000015,-43.558960922844484
-0.13670000000000004,-43.61554937483908
-0.13770000000000016,-43.98337431280399
-0.13870000000000005,-44.223875233781044
-0.13970000000000016,-44.195581007783744
-0.14070000000000005,-44.43608192876081
-0.14170000000000016,-44.83220109272301
-0.14270000000000005,-44.87464243171897
-0.14370000000000016,-44.93123088371356
-0.14470000000000005,-45.27076159568118
-0.14570000000000016,-45.45467406466363
-0.14670000000000005,-45.52540962965688
-0.14770000000000016,-45.86494034162449
-0.14870000000000005,-46.077147036604245
-0.14970000000000017,-46.048852810606945
-0.15070000000000006,-46.3176479575813
-0.15170000000000017,-46.69962000854486
-0.15270000000000006,-46.74206134754081
-0.15370000000000017,-46.82694402553272
-0.15470000000000006,-47.22306318949492
-0.15570000000000017,-47.37868143248008
-0.15670000000000006,-47.421122771476035
-0.15770000000000017,-47.74650637044499
-0.15870000000000006,-48.071889969413945
-0.15970000000000018,-48.1709197604045
-0.16070000000000007,-48.4255677943802
-0.16170000000000018,-48.72265716735186
-0.16270000000000007,-48.76509850634781
-0.16370000000000018,-48.90656963633432
-0.16470000000000007,-49.33098302629383
-0.16570000000000018,-49.472454156280335
-0.16670000000000007,-49.48660126927898
-0.16770000000000018,-49.81198486824794
-0.16870000000000007,-50.0807800152223
-0.16970000000000018,-50.094927128220945
-0.17070000000000007,-50.335428049198
-0.17170000000000019,-50.63251742216966
-0.17270000000000008,-50.64666453516831
-0.1737000000000002,-50.74569432615886
-0.17470000000000008,-51.15596060311972
-0.1757000000000002,-51.396461524096786
-0.17670000000000008,-51.495491315087335
-0.1777000000000002,-51.86331625305225
-0.17870000000000008,-52.23114119101716
-0.1797000000000002,-52.31602386900906
-0.18070000000000008,-52.61311324198071
-0.1817000000000002,-53.079967970936174
-0.18270000000000008,-53.27802755291728
-0.1837000000000002,-53.50438136089569
-0.1847000000000001,-53.985383202849796
-0.1857000000000002,-54.19758989782956
-0.1867000000000001,-54.33906102781606
-0.1877000000000002,-54.919092660760725
-0.1887000000000001,-55.357653163718886
-0.1897000000000002,-55.41424161571349
-0.1907000000000001,-55.68303676268785
-0.1917000000000001,-56.1781857176406
-0.19269999999999998,-56.44698086461496
-0.1937000000000001,-56.67333467259337
-0.19469999999999998,-57.097748062552874
-0.1957000000000001,-57.352396096528594
-0.19669999999999999,-57.52216145251239
-0.1977000000000001,-57.904133503475954
-0.1987,-58.21536998944626
-0.1997000000000001,-58.32854689343546
-0.2007,-58.72466605739767
-0.2017000000000001,-59.21981501235043
-0.2027,-59.403727481332886
-0.2037000000000001,-59.6300812893113
-0.2047,-60.11108313126541
-0.2057000000000001,-60.35158405224246
-0.2067,-60.50720229522762
-0.2077000000000001,-61.03064547617768
-0.2087,-61.46920597913584
-0.2097000000000001,-61.55408865712774
-0.2107,-61.8228838041021
-0.2117000000000001,-62.24729719406162
-0.2127,-62.459503889041365
-0.2137000000000001,-62.81318171400764
-0.2147,-63.350772007956344
-0.2157000000000001,-63.66200849392664
-0.2167,-63.874215188906405
-0.21770000000000012,-64.39765836985646
-0.2187,-64.82207175981598
-0.21970000000000012,-65.03427845479574
-0.2207,-65.51528029674984
-0.22170000000000012,-66.08116481669586
-0.2227,-66.30751862467427
-0.22370000000000012,-66.57631377164863
-0.2247,-67.17049251759194
-0.22570000000000012,-67.62320013354876
-0.2267,-67.89199528052312
-0.22770000000000012,-68.37299712247722
-0.22870000000000001,-68.8115576254354
-0.22970000000000013,-69.0944998854084
-0.23070000000000002,-69.64623729235576
-0.23170000000000013,-70.19797469930313
-0.23270000000000002,-70.39603428128423
-0.23370000000000013,-70.72141788025318
-0.23470000000000002,-71.35803796519245
-0.23570000000000013,-71.75415712915466
-0.23670000000000002,-72.02295227612902
-0.2376999999999999,-72.57468968307639
-0.23870000000000002,-73.08398575102778
-0.2396999999999999,-73.3669280110008
-0.24070000000000003,-73.86207696595356
-0.24169999999999991,-74.39966725990229
-0.24270000000000003,-74.66846240687663
-0.24369999999999992,-75.09287579683615
-0.24470000000000003,-75.7294958817754
-0.24569999999999992,-76.09732081974033
-0.24670000000000003,-76.32367462771872
-0.24769999999999992,-76.9037062606634
-0.24870000000000003,-77.54032634560265
-0.24969999999999992,-77.97888684856083
-0.25070000000000003,-78.50233002951089
-0.2516999999999999,-79.02577321046095
-0.25270000000000004,-79.30871547043395
-0.2536999999999999,-79.80386442538673
-0.25470000000000004,-80.65269120530574
-0.2556999999999999,-81.1478401602585
-0.25670000000000004,-81.45907664622881
-0.25769999999999993,-81.99666694017753
-0.25870000000000004,-82.49181589513029
-0.25969999999999993,-82.90208217209116
-0.26070000000000004,-83.46796669203717
-0.26169999999999993,-84.03385121198318
-0.26270000000000004,-84.33094058495485
-0.26369999999999993,-84.769501087913
-0.26470000000000005,-85.53344518984011
-0.26569999999999994,-85.94371146680098
-0.26670000000000005,-86.24080083977263
-0.26769999999999994,-86.93400937670651
-0.26870000000000005,-87.61307080064172
-0.26969999999999994,-87.93845439961068
-0.27070000000000005,-88.46189758056073
-0.27169999999999994,-89.07022343950271
-0.27270000000000005,-89.48048971646357
-0.27369999999999994,-89.98978578441499
-0.27470000000000006,-90.7254356603448
-0.27569999999999995,-91.22058461529755
-0.27670000000000006,-91.68743934425302
-0.27769999999999995,-92.42308922018285
-0.27870000000000006,-93.05970930512211
-0.27969999999999995,-93.38509290409107
-0.28070000000000006,-93.88024185904384
-0.28169999999999995,-94.53100905698176
-0.28270000000000006,-95.04030512493317
-0.28369999999999995,-95.70521943586974
-0.28470000000000006,-96.52575198979144
-0.28569999999999995,-97.00675383174556
-0.28670000000000007,-97.43116722170507
-0.28769999999999996,-98.19511132363219
-0.28870000000000007,-98.90246697356471
-0.28969999999999996,-99.19955634653638
-0.29070000000000007,-99.62396973649588
-0.29169999999999996,-100.2464427084365
-0.29270000000000007,-100.76988588938657
-0.29369999999999996,-101.20844639234473
-0.2947000000000001,-101.83091936428535
-0.29569999999999996,-102.22703852824755
-0.2967000000000001,-102.63730480520842
-0.29769999999999996,-103.35880756813957
-0.2987000000000001,-103.85395652309235
-0.29969999999999997,-104.13689878306535
-0.3007000000000001,-104.68863619001272
-0.30169999999999997,-105.26866782295738
-0.3027000000000001,-105.65063987392094
-0.30369999999999997,-106.2023772808683
-0.3047000000000001,-107.03705694778867
-0.30569999999999997,-107.51805878974278
-0.3067000000000001,-107.88588372770771
-0.3077,-108.67812205563212
-0.3087000000000001,-109.35718347956733
-0.3097,-109.8240382085228
-0.3107000000000001,-110.60212942344857
-0.3117,-111.40851486437164
-0.3127000000000001,-111.7904869153352
-0.3137,-112.29978298328662
-0.3147000000000001,-113.09202131121103
-0.3157,-113.72864139615028
-0.3167000000000001,-114.22379035110305
-0.3177,-114.98773445303017
-0.3187000000000001,-115.72338432896
-0.3197,-116.23268039691139
-0.3207000000000001,-116.96833027284121
-0.3217,-117.70398014877104
-0.3227000000000001,-118.0859521997346
-0.3237,-118.52451270269277
-0.3247000000000001,-119.21772123962666
-0.3257,-119.72701730757805
-0.3267000000000001,-120.19387203653352
-0.3277,-120.9153747994647
-0.3287000000000001,-121.55199488440397
-0.3297,-121.91981982236886
-0.3307000000000001,-122.49985145531353
-0.3317,-122.76864660228789
-0.3327000000000001,-122.68376392429597
-0.3337,-123.46185513922175
-0.3347000000000001,-124.52288861412055
-0.3357,-124.60777129211242
-0.3367000000000001,-124.46630016212593
-0.3377,-125.24439137705171
-0.3387000000000001,-126.02248259197746
-0.3397,-126.09321815697072
-0.3407000000000001,-126.33371907794778
-0.3417,-127.09766317987489
-0.3427000000000001,-127.67769481281957
-0.3437,-128.144549541775
-0.3447000000000001,-128.82361096571023
-0.3457,-129.4319368246522
-0.3467000000000001,-129.92708577960497
-0.3477,-130.66273565553476
-0.3487000000000001,-131.29935574047406
-0.3497,-131.69547490443625
-0.3507000000000001,-132.3462421023742
-0.3517,-133.0253035263094
-0.3527000000000001,-133.5628938202581
-0.3537,-134.35513214818255
-0.3547000000000001,-135.24640026709753
-0.3557,-135.72740210905164
-0.35670000000000013,-136.08107993401788
-0.3577,-136.68940579295986
-0.35870000000000013,-137.31187876490046
-0.3597,-137.9060575108438
-0.36070000000000013,-138.68414872576955
-0.3617,-139.08026788973174
-0.3626999999999999,-138.92464964674662
-0.3637,-139.49053416669264
-0.3646999999999999,-140.25447826861972
-0.3657,-140.35350805961028
-0.3666999999999999,-140.5515676415914
-0.3677,-141.27307040452254
-0.3686999999999999,-141.61260111649017
-0.36970000000000003,-141.47112998650366
-0.3706999999999999,-141.89554337646317
-0.37170000000000003,-142.4614278964092
-0.3726999999999999,-142.6028990263957
-0.37370000000000003,-142.8858412863687
-0.3746999999999999,-143.3102546763282
-0.37570000000000003,-143.5931969363012
-0.3766999999999999,-143.87613919627424
-0.37770000000000004,-144.44202371622026
-0.3786999999999999,-144.58349484620675
-0.37970000000000004,-144.72496597619326
-0.3806999999999999,-145.14937936615277
-0.38170000000000004,-145.57379275611228
-0.38269999999999993,-145.57379275611228
-0.38370000000000004,-145.85673501608528
-0.38469999999999993,-146.4226195360313
-0.38570000000000004,-146.5640906660178
-0.38669999999999993,-146.7055617960043
-0.38770000000000004,-147.1299751859638
-0.38869999999999993,-147.4129174459368
-0.38970000000000005,-147.55438857592333
-0.39069999999999994,-147.83733083589632
-0.39170000000000005,-147.97880196588284
-0.39269999999999994,-147.97880196588284
-0.39370000000000005,-148.26174422585584
-0.39469999999999994,-148.54468648582886
-0.39570000000000005,-148.54468648582886
-0.39669999999999994,-148.54468648582886
-0.39770000000000005,-148.82762874580186
-0.39869999999999994,-148.96909987578834
-0.39970000000000006,-148.82762874580186
-0.40069999999999995,-148.96909987578834
-0.40170000000000006,-149.1105710057749
-0.40269999999999995,-149.1105710057749
-0.40370000000000006,-149.1105710057749
-0.40469999999999995,-149.39351326574788
-0.40570000000000006,-149.25204213576137
-0.40669999999999995,-149.1105710057749
-0.40770000000000006,-149.25204213576137
-0.40869999999999995,-149.25204213576137
-0.40970000000000006,-149.1105710057749
-0.41069999999999995,-149.25204213576137
-0.41170000000000007,-149.25204213576137
-0.41269999999999996,-148.96909987578834
-0.41370000000000007,-148.96909987578834
-0.41469999999999996,-149.25204213576137
-0.41570000000000007,-148.96909987578834
-0.41669999999999996,-148.68615761581535
-0.41770000000000007,-148.82762874580186
-0.41869999999999996,-149.1105710057749
-0.4197000000000001,-148.96909987578834
-0.42069999999999996,-148.96909987578834
-0.4217000000000001,-149.25204213576137
-0.42269999999999996,-149.25204213576137
-0.4237000000000001,-149.25204213576137
-0.42469999999999997,-149.39351326574788
-0.4257000000000001,-149.1105710057749
-0.42669999999999997,-149.1105710057749
-0.4277000000000001,-149.53498439573437
-0.42869999999999997,-149.6764555257209
-0.4297000000000001,-149.53498439573437
-0.43069999999999997,-149.6764555257209
-0.4317000000000001,-149.95939778569388
-0.4327,-149.95939778569388
-0.4337000000000001,-150.1008689156804
-0.4347,-150.38381117565342
-0.4357000000000001,-150.5252823056399
-0.4367,-150.66675343562642
-0.4377000000000001,-150.94969569559944
-0.4387,-151.37410908555893
-0.4397000000000001,-151.5155802155454
-0.4407,-151.93999360550492
-0.4417000000000001,-152.50587812545095
-0.4427,-152.64734925543743
-0.4437000000000001,-152.78882038542397
-0.4447,-153.21323377538346
-0.4457000000000001,-153.63764716534297
-0.4467,-154.0620605553025
-0.4477000000000001,-154.3450028152755
-0.4487,-154.6279450752485
-0.4497000000000001,-154.76941620523502
-0.4507,-155.33530072518104
-0.4517000000000001,-155.90118524512707
-0.4527,-156.04265637511355
-0.4537000000000001,-156.46706976507306
-0.4547,-157.17442541500557
-0.4557000000000001,-157.45736767497857
-0.4567,-157.7403099349516
-0.4577000000000001,-158.4476655848841
-0.4587,-159.01355010483013
-0.4597000000000001,-159.43796349478964
-0.4607,-160.14531914472215
-0.4617000000000001,-160.71120366466818
-0.4627,-160.99414592464117
-0.4637000000000001,-161.5600304445872
-0.4647,-162.40885722450622
-0.4657000000000001,-162.8332706144657
-0.4667,-163.25768400442522
-0.4677000000000001,-163.82356852437124
-0.4687,-164.24798191433075
-0.4697000000000001,-164.67239530429026
-0.4707,-165.2382798242363
-0.4717000000000001,-165.94563547416882
-0.4727,-166.3700488641283
-0.4737000000000001,-166.65299112410133
-0.4747,-167.36034677403384
-0.4757000000000001,-167.78476016399335
-0.4767,-168.06770242396635
-0.4777000000000001,-168.77505807389886
-0.4787,-169.0580003338719
-0.4797000000000001,-169.3409425938449
-0.4807,-169.9068271137909
-0.48170000000000013,-170.47271163373694
-0.4827,-170.89712502369645
-0.48370000000000013,-171.46300954364247
-0.4847,-172.0288940635885
-0.48570000000000013,-172.45330745354798
-0.4867,-171.32153841365593
-0.48570000000000013,-168.77505807389886
-0.4847,-166.0871066041553
-0.48370000000000013,-163.25768400442522
-0.4827,-160.99414592464117
-0.48170000000000013,-159.01355010483013
-0.4807,-156.75001202504606
-0.4797000000000001,-154.6279450752485
-0.4787,-152.78882038542397
-0.4777000000000001,-150.66675343562642
-0.4767,-148.68615761581535
-0.4757000000000001,-146.9885040559773
-0.4747,-145.29085049613926
-0.4737000000000001,-143.4517258063147
-0.4727,-141.89554337646317
-0.4717000000000001,-140.2403311556211
-0.4707,-138.48608914378846
-0.4697000000000001,-136.91575960093826
-0.4687,-135.52934252707053
-0.4677000000000001,-133.80339474123514
-0.4667,-132.1481825203931
-0.4657000000000001,-130.77591255952402
-0.4647,-129.31875992066298
