Potential V vs RHE, Current mA cm-2
0.05339999999999995,-0.1299978213445982
0.05239999999999995,-0.18377099785246825
0.051399999999999946,-0.21588494435940458
0.050399999999999945,-0.23314442221775805
0.049399999999999944,-0.24488652600663782
0.04839999999999994,-0.25309185154585506
0.04739999999999994,-0.2594580523952477
0.04639999999999994,-0.2665316088945729
0.04539999999999994,-0.27459546330380363
0.04439999999999994,-0.2808201930232098
0.04339999999999994,-0.28478138466283187
0.04239999999999994,-0.2886011051724675
0.04139999999999994,-0.2932696524620221
0.040399999999999936,-0.2992114399214552
0.039399999999999935,-0.30430440060096936
0.038399999999999934,-0.3074167654606725
0.03739999999999993,-0.3096803035404565
0.03639999999999993,-0.31350002405009214
0.03539999999999993,-0.3184515135996197
0.03439999999999993,-0.32283711862920134
0.03339999999999993,-0.3249591855789989
0.03239999999999993,-0.32708125252879644
0.03139999999999993,-0.33075950190844555
0.030399999999999927,-0.3351451069380272
0.029399999999999926,-0.3391062985776493
0.028399999999999925,-0.34122836552744684
0.027399999999999924,-0.3426430768273119
0.026399999999999924,-0.3461798550769745
0.025399999999999923,-0.3505654601065561
0.024399999999999922,-0.3542437094862052
0.02339999999999992,-0.35636577643600276
0.02239999999999992,-0.3574975454758948
0.02139999999999992,-0.36075138146558433
0.020399999999999918,-0.36513698649516596
0.019399999999999917,-0.3685322936148421
0.018399999999999916,-0.37065436056463963
0.017399999999999916,-0.3720690718645046
0.016399999999999915,-0.3747570233342482
0.015399999999999914,-0.3792840994938163
0.014399999999999913,-0.3826794066134924
0.013399999999999912,-0.38494294469327645
0.012399999999999911,-0.386216184863155
0.01139999999999991,-0.38890413633289855
0.01039999999999991,-0.3932897413624802
0.009399999999999908,-0.39668504848215624
0.008399999999999908,-0.3986656443019673
0.007399999999999907,-0.40008035560183236
0.006399999999999906,-0.40290977820156243
0.005399999999999905,-0.4075783254911171
0.004399999999999904,-0.4111151037407797
0.003399999999999903,-0.4126712861706312
0.002399999999999902,-0.41465188199044223
0.0013999999999999013,-0.4173398334601858
0.00039999999999990044,-0.42158396735978093
-0.0006000000000001005,-0.42554515899940304
-0.0016000000000001013,-0.4273842836892276
-0.0026000000000001022,-0.4290819372490656
-0.003600000000000103,-0.4320528309787822
-0.004600000000000104,-0.4362969648783774
-0.005600000000000105,-0.4405410987779724
-0.006600000000000106,-0.44252169459778345
-0.007600000000000107,-0.4442193481576215
-0.008600000000000108,-0.44733171301732455
-0.009600000000000108,-0.4515758469169197
-0.01060000000000011,-0.45596145194650134
-0.01160000000000011,-0.4583664611562719
-0.012600000000000111,-0.4606299992360559
-0.013600000000000112,-0.463459421835786
-0.014600000000000113,-0.4678450268653676
-0.015600000000000114,-0.4719476896349762
-0.016600000000000115,-0.47463564110471984
-0.017600000000000116,-0.4761918235345713
-0.018600000000000116,-0.4795871306542474
-0.019600000000000117,-0.48439714907378856
-0.020600000000000118,-0.48878275410337013
-0.02160000000000012,-0.49147070557311373
-0.02260000000000012,-0.4934513013929247
-0.02360000000000012,-0.4969880796425873
-0.024600000000000122,-0.502222511452088
-0.025600000000000123,-0.5066081164816696
-0.026600000000000124,-0.5098619524713591
-0.027600000000000124,-0.5119840194211568
-0.028600000000000125,-0.5155207976708194
-0.029600000000000126,-0.521038171740293
-0.030600000000000127,-0.5258481901598342
-0.03160000000000013,-0.5289605550195372
-0.03260000000000013,-0.5316485064892809
-0.03360000000000013,-0.5354682269989164
-0.03460000000000002,-0.5409856010683901
-0.03560000000000002,-0.5463615040078772
-0.03660000000000002,-0.5497568111275533
-0.03760000000000002,-0.5528691759872564
-0.03860000000000002,-0.556971838756865
-0.039600000000000024,-0.5626306839563251
-0.040600000000000025,-0.5684310002857718
-0.041600000000000026,-0.5721092496654209
-0.04260000000000003,-0.5752216145251239
-0.04360000000000003,-0.579748690684692
-0.04460000000000003,-0.5854075358841522
-0.04560000000000003,-0.5914907944735719
-0.04660000000000003,-0.5955934572431805
-0.04760000000000003,-0.5989887643628565
-0.04860000000000003,-0.6036573116524112
-0.04960000000000003,-0.6101649836317904
-0.050600000000000034,-0.6166726556111695
-0.051600000000000035,-0.621341202900724
-0.052600000000000036,-0.6248779811503866
-0.053600000000000037,-0.6299709418299009
-0.05460000000000004,-0.6367615560692529
-0.05560000000000004,-0.6435521703086051
-0.05660000000000004,-0.6487866021181058
-0.05760000000000004,-0.6530307360177009
-0.05860000000000004,-0.658689581217161
-0.05960000000000004,-0.6657631377164863
-0.06060000000000004,-0.672978165345798
-0.061600000000000044,-0.6786370105452582
-0.06260000000000004,-0.6833055578348128
-0.06360000000000005,-0.6895302875542189
-0.06460000000000005,-0.6973111997034765
-0.06560000000000005,-0.7046676984627748
-0.06660000000000005,-0.7110338993121675
-0.06760000000000005,-0.7161268599916816
-0.06860000000000005,-0.7223515897110878
-0.06960000000000005,-0.7306983863802915
-0.07060000000000005,-0.7389037119195087
-0.07160000000000005,-0.7454113838988878
-0.07260000000000005,-0.7514946424883074
-0.07360000000000005,-0.7581437855976731
-0.07460000000000006,-0.7669149956568363
-0.07560000000000006,-0.7756862057159997
-0.07660000000000006,-0.7830427044752977
-0.07760000000000006,-0.7892674341947039
-0.07860000000000006,-0.7966239329540021
-0.07960000000000006,-0.8059610275331113
-0.08060000000000006,-0.8152981221122206
-0.08160000000000006,-0.8229375631314919
-0.08260000000000006,-0.8302940618907901
-0.08360000000000006,-0.8379335029100613
-0.08460000000000006,-0.8475535397491435
-0.08560000000000006,-0.8575979899781853
-0.08660000000000007,-0.8658033155174024
-0.08760000000000007,-0.8734427565366737
-0.08860000000000007,-0.8819310243358639
-0.08960000000000007,-0.8922584168248787
-0.09060000000000007,-0.9028687515738664
-0.09160000000000007,-0.9120643750229891
-0.09260000000000007,-0.9201282294322198
-0.09360000000000007,-0.9294653240113291
-0.09460000000000007,-0.9400756587603168
-0.09560000000000007,-0.9513933491592371
-0.09660000000000007,-0.960871914868333
-0.09760000000000008,-0.9693601826675232
-0.09860000000000008,-0.9794046328965649
-0.09960000000000008,-0.9907223232954853
-0.10060000000000008,-1.0023229559543785
-0.10160000000000008,-1.0129332907033664
-0.10260000000000008,-1.022128914152489
-0.10360000000000008,-1.0324563066415038
-0.10460000000000008,-1.0444813526903567
-0.10560000000000008,-1.0565063987392094
-0.10660000000000008,-1.0676826180081431
-0.10760000000000008,-1.077161183717239
-0.10860000000000009,-1.0877715184662267
-0.10960000000000009,-1.1006453912949985
-0.11060000000000009,-1.1135192641237703
-0.11160000000000009,-1.1249784256526771
-0.11260000000000009,-1.1354472892716785
-0.11360000000000009,-1.1464820374106257
-0.11460000000000009,-1.1602047370193165
-0.11560000000000009,-1.174351850017967
-0.11660000000000009,-1.1856695404168873
-0.1176000000000001,-1.1967042885558345
-0.1186000000000001,-1.2083049212147279
-0.1196000000000001,-1.2218861496934323
-0.1206000000000001,-1.236174733822069
-0.1216000000000001,-1.248482722130895
-0.1226000000000001,-1.2602248259197746
-0.1236000000000001,-1.2722498719686275
-0.1246000000000001,-1.2862555138372913
-0.1256000000000001,-1.3005440979659282
-0.1266000000000001,-1.3138423841846596
-0.1276000000000001,-1.3258674302335123
-0.1286000000000001,-1.3385998319322978
-0.1296000000000001,-1.3530298871909212
-0.1306000000000001,-1.3680258269694907
-0.1316000000000001,-1.381889997708168
-0.1326000000000001,-1.3943394571469803
-0.1336000000000001,-1.407496272235725
-0.1346000000000001,-1.421784856364362
-0.1356000000000001,-1.4373466806628774
-0.1366000000000001,-1.4514937936615278
-0.1376000000000001,-1.4642261953603128
-0.1386000000000001,-1.4783733083589634
-0.1396000000000001,-1.4939351326574788
-0.1406000000000001,-1.5094969569559942
-0.14160000000000011,-1.5236440699546445
-0.14260000000000012,-1.5377911829532949
-0.14360000000000012,-1.5519382959519452
-0.14460000000000012,-1.5675001202504606
-0.14560000000000012,-1.583061944548976
-0.14660000000000012,-1.5986237688474914
-0.14760000000000012,-1.6113561705462767
-0.14860000000000012,-1.6255032835449272
-0.14960000000000012,-1.6424798191433077
-0.15060000000000012,-1.658041643441823
-0.15160000000000012,-1.6750181790402037
-0.15260000000000012,-1.6891652920388538
-0.15360000000000013,-1.7033124050375041
-0.15460000000000013,-1.7202889406358846
-0.15560000000000013,-1.7372654762342652
-0.15660000000000013,-1.7528273005327806
-0.15760000000000013,-1.766974413531431
-0.15860000000000013,-1.7825362378299463
-0.15960000000000002,-1.7980980621284617
-0.16060000000000002,-1.8164893090267071
-0.16160000000000002,-1.8320511333252225
-0.16260000000000002,-1.847612957623738
-0.16360000000000002,-1.8617600706223882
-0.16460000000000002,-1.8787366062207687
-0.16560000000000002,-1.8985425644188794
-0.16660000000000003,-1.9155191000172598
-0.16760000000000003,-1.9296662130159101
-0.16860000000000003,-1.9452280373144257
-0.16960000000000003,-1.9622045729128061
-0.17060000000000003,-1.980595819811051
-0.17160000000000003,-1.9975723554094316
-0.17260000000000003,-2.013134179707947
-0.17360000000000003,-2.0286960040064623
-0.17460000000000003,-2.045672539604843
-0.17560000000000003,-2.0640637865030884
-0.17660000000000003,-2.081040322101469
-0.17760000000000004,-2.0966021463999844
-0.17860000000000004,-2.113578681998365
-0.17960000000000004,-2.1305552175967453
-0.18060000000000004,-2.148946464494991
-0.18160000000000004,-2.1673377113932366
-0.18260000000000004,-2.1828995356917518
-0.18360000000000004,-2.1984613599902674
-0.18460000000000004,-2.216852606888512
-0.18560000000000004,-2.235243853786758
-0.18660000000000004,-2.253635100685003
-0.18760000000000004,-2.2691969249835187
-0.18860000000000005,-2.286173460581899
-0.18960000000000005,-2.3045647074801447
-0.19060000000000005,-2.3229559543783904
-0.19160000000000005,-2.3413472012766356
-0.19260000000000005,-2.358323736875016
-0.19360000000000005,-2.3738855611735317
-0.19460000000000005,-2.392276808071777
-0.19560000000000005,-2.412082766269888
-0.19660000000000005,-2.4290593018682682
-0.19760000000000005,-2.4460358374666487
-0.19860000000000005,-2.463012373065029
-0.19960000000000006,-2.4814036199632743
-0.20060000000000006,-2.5012095781613843
-0.20160000000000006,-2.5196008250596305
-0.20260000000000006,-2.536577360658011
-0.20360000000000006,-2.5535538962563913
-0.20460000000000006,-2.5719451431546365
-0.20560000000000006,-2.591751101352747
-0.20660000000000006,-2.610142348250993
-0.20760000000000006,-2.627118883849373
-0.20860000000000006,-2.6455101307476188
-0.20960000000000006,-2.663901377645864
-0.21060000000000006,-2.6837073358439745
-0.21160000000000007,-2.70209858274222
-0.21260000000000007,-2.719075118340601
-0.21360000000000007,-2.737466365238846
-0.21460000000000007,-2.7558576121370915
-0.21560000000000007,-2.775663570335202
-0.21660000000000007,-2.795469528533313
-0.21760000000000007,-2.813860775431558
-0.21860000000000007,-2.8308373110299385
-0.21960000000000007,-2.8492285579281837
-0.22060000000000007,-2.8690345161262942
-0.22160000000000007,-2.888840474324405
-0.22260000000000008,-2.9058170099227856
-0.22360000000000008,-2.924208256821031
-0.22460000000000008,-2.9440142150191413
-0.22560000000000008,-2.963820173217252
-0.22660000000000008,-2.9836261314153627
-0.22760000000000008,-3.000602667013743
-0.22860000000000008,-3.0189939139119883
-0.22960000000000008,-3.0387998721100984
-0.23060000000000008,-3.0586058303082093
-0.23160000000000008,-3.07841178850632
-0.23260000000000008,-3.0968030354045655
-0.23360000000000009,-3.113779571002946
-0.2346000000000001,-3.1335855292010564
-0.2356000000000001,-3.1548061986990317
-0.2366000000000001,-3.174612156897142
-0.2376000000000001,-3.193003403795388
-0.2386000000000001,-3.2099799393937682
-0.2396000000000001,-3.2297858975918787
-0.2406000000000001,-3.2510065670898545
-0.2416000000000001,-3.270812525287965
-0.2426000000000001,-3.2892037721862106
-0.2436000000000001,-3.307595019084456
-0.2446000000000001,-3.3274009772825663
-0.2456000000000001,-3.3486216467805416
-0.2466000000000001,-3.368427604978652
-0.2476000000000001,-3.386818851876898
-0.2486000000000001,-3.405210098775143
-0.2496000000000001,-3.4250160569732535
-0.2506000000000001,-3.4462367264712297
-0.2516000000000001,-3.4674573959692045
-0.2526000000000001,-3.4858486428674507
-0.2536000000000001,-3.504239889765696
-0.2546000000000001,-3.5240458479638064
-0.2556000000000001,-3.546681228761647
-0.2566000000000001,-3.566487186959758
-0.2576000000000001,-3.5848784338580026
-0.2586000000000001,-3.6046843920561136
-0.2596000000000001,-3.6244903502542236
-0.2606000000000001,-3.6457110197521994
-0.2616000000000001,-3.666931689250175
-0.2626000000000001,-3.6853229361484203
-0.2636000000000001,-3.7037141830466664
-0.2646000000000001,-3.7249348525446417
-0.2656000000000001,-3.7461555220426166
-0.2666000000000001,-3.7673761915405932
-0.2676000000000001,-3.785767438438838
-0.2686000000000001,-3.8041586853370832
-0.2696000000000001,-3.825379354835059
-0.2706000000000001,-3.8466000243330347
-0.2716000000000001,-3.86782069383101
-0.2726000000000001,-3.887626652029121
-0.2736000000000001,-3.906017898927366
-0.2746000000000001,-3.927238568425342
-0.2756000000000001,-3.9484592379233177
-0.2766000000000001,-3.969679907421293
-0.2776000000000001,-3.9894858656194034
-0.2786000000000001,-4.009291823817514
-0.2796000000000001,-4.029097782015624
-0.2806000000000001,-4.051733162813465
-0.28160000000000013,-4.0715391210115754
-0.28260000000000013,-4.091345079209686
-0.28360000000000013,-4.111151037407797
-0.2846,-4.130956995605907
-0.2856,-4.153592376403748
-0.2866,-4.174813045901724
-0.2876,-4.194619004099834
-0.2886,-4.214424962297944
-0.2896,-4.234230920496055
-0.2906,-4.256866301293895
-0.2916,-4.278086970791871
-0.2926,-4.297892928989982
-0.2936,-4.317698887188092
-0.29460000000000003,-4.337504845386203
-0.29560000000000003,-4.360140226184043
-0.29660000000000003,-4.381360895682018
-0.29760000000000003,-4.401166853880129
-0.29860000000000003,-4.419558100778375
-0.29960000000000003,-4.44077877027635
-0.30060000000000003,-4.461999439774326
-0.30160000000000003,-4.483220109272302
-0.30260000000000004,-4.503026067470412
-0.30360000000000004,-4.521417314368658
-0.30460000000000004,-4.542637983866633
-0.30560000000000004,-4.565273364664473
-0.30660000000000004,-4.586494034162449
-0.30760000000000004,-4.604885281060694
-0.30860000000000004,-4.624691239258805
-0.30960000000000004,-4.644497197456915
-0.31060000000000004,-4.665717866954891
-0.31160000000000004,-4.686938536452867
-0.31260000000000004,-4.708159205950842
-0.31360000000000005,-4.726550452849088
-0.31460000000000005,-4.7463564110471985
-0.31560000000000005,-4.767577080545174
-0.31660000000000005,-4.788797750043149
-0.31760000000000005,-4.80860370824126
-0.31860000000000005,-4.826994955139505
-0.31960000000000005,-4.846800913337615
-0.32060000000000005,-4.868021582835592
-0.32160000000000005,-4.889242252333567
-0.32260000000000005,-4.907633499231812
-0.32360000000000005,-4.926024746130058
-0.32460000000000006,-4.945830704328168
-0.32560000000000006,-4.965636662526279
-0.32660000000000006,-4.985442620724389
-0.32760000000000006,-5.003833867622634
-0.32860000000000006,-5.0222251145208805
-0.32960000000000006,-5.040616361419126
-0.33060000000000006,-5.060422319617237
-0.33160000000000006,-5.080228277815347
-0.33260000000000006,-5.098619524713592
-0.33360000000000006,-5.115596060311972
-0.33460000000000006,-5.132572595910353
-0.33560000000000006,-5.152378554108464
-0.33660000000000007,-5.172184512306574
-0.33760000000000007,-5.189161047904955
-0.33860000000000007,-5.2061375835033346
-0.33960000000000007,-5.223114119101715
-0.34060000000000007,-5.241505365999961
-0.34160000000000007,-5.259896612898206
-0.34260000000000007,-5.276873148496587
-0.34360000000000007,-5.2924349727951014
-0.3446000000000001,-5.307996797093617
-0.3456000000000001,-5.326388043991862
-0.3466000000000001,-5.343364579590244
-0.34759999999999996,-5.358926403888759
-0.3486000000000001,-5.373073516887409
-0.34959999999999997,-5.388635341185925
-0.3506000000000001,-5.405611876784305
-0.35159999999999997,-5.4225884123826855
-0.3526000000000001,-5.438150236681202
-0.35359999999999997,-5.452297349679851
-0.3546000000000001,-5.466444462678503
-0.35559999999999997,-5.482006286977017
-0.3566000000000001,-5.497568111275533
-0.3576,-5.511715224274183
-0.3586000000000001,-5.524447625972968
-0.3596,-5.537180027671754
-0.3606000000000001,-5.551327140670404
-0.3616,-5.565474253669055
-0.3626000000000001,-5.57820665536784
-0.3636,-5.58952434576676
-0.3646000000000001,-5.602256747465545
-0.3656,-5.614989149164331
-0.3666000000000001,-5.627721550863116
-0.3676,-5.639039241262036
-0.3686000000000001,-5.650356931660957
-0.3696,-5.660259910760012
-0.3706000000000001,-5.672992312458796
-0.3716,-5.685724714157582
-0.3726000000000001,-5.695627693256637
-0.3736,-5.704115961055828
-0.3746000000000001,-5.714018940154883
-0.3756,-5.725336630553803
-0.3766000000000001,-5.735239609652858
-0.3776,-5.7437278774520495
-0.3786000000000001,-5.752216145251239
-0.3796,-5.759289701750564
-0.3806000000000001,-5.7706073921494845
-0.3816,-5.779095659948675
-0.3826000000000001,-5.787583927747865
-0.3836,-5.793242772947325
-0.3846000000000001,-5.80031632944665
-0.3856,-5.808804597245841
-0.3866000000000001,-5.817292865045031
-0.3876,-5.824366421544356
-0.3886000000000001,-5.828610555443951
-0.3896,-5.8356841119432765
-0.3906000000000001,-5.8427576684426015
-0.3916,-5.849831224941926
-0.3926000000000001,-5.854075358841522
-0.3936,-5.858319492741117
-0.3946000000000001,-5.8625636266407115
-0.3956,-5.869637183140037
-0.3966000000000001,-5.8752960283394975
-0.3976,-5.879540162239093
-0.3986000000000001,-5.882369584838822
-0.3996,-5.885199007438552
-0.4006000000000001,-5.890857852638012
-0.4016,-5.8951019865376075
-0.4026000000000001,-5.897931409137338
-0.4036,-5.899346120437204
-0.4046000000000001,-5.902175543036933
-0.4056,-5.906419676936528
-0.40660000000000013,-5.909249099536258
-0.4076,-5.912078522135989
-0.40860000000000013,-5.912078522135989
-0.4096,-5.913493233435854
-0.41060000000000013,-5.916322656035583
-0.4116,-5.920566789935179
-0.41260000000000013,-5.920566789935179
-0.4136,-5.920566789935179
-0.41460000000000014,-5.920566789935179
-0.4156,-5.923396212534908
-0.41660000000000014,-5.926225635134639
-0.4176,-5.926225635134639
-0.41860000000000014,-5.924810923834773
-0.41960000000000003,-5.924810923834773
-0.42060000000000014,-5.926225635134639
-0.42160000000000003,-5.929055057734368
-0.42260000000000014,-5.929055057734368
-0.42360000000000003,-5.927640346434504
-0.42460000000000014,-5.926225635134639
-0.42560000000000003,-5.927640346434504
-0.42660000000000015,-5.929055057734368
-0.42760000000000004,-5.929055057734368
-0.42860000000000015,-5.926225635134639
-0.42960000000000004,-5.926225635134639
-0.43060000000000015,-5.926225635134639
-0.43160000000000004,-5.927640346434504
-0.43260000000000015,-5.926225635134639
-0.43360000000000004,-5.923396212534908
-0.43460000000000015,-5.921981501235043
-0.43560000000000004,-5.923396212534908
-0.43660000000000015,-5.923396212534908
-0.43760000000000004,-5.921981501235043
-0.43860000000000016,-5.919152078635313
-0.43960000000000005,-5.917737367335448
-0.44060000000000016,-5.917737367335448
-0.44160000000000005,-5.917737367335448
-0.44260000000000016,-5.917737367335448
-0.44360000000000005,-5.914907944735719
-0.44460000000000016,-5.912078522135989
-0.44560000000000005,-5.913493233435854
-0.44660000000000016,-5.913493233435854
-0.44760000000000005,-5.912078522135989
-0.44860000000000017,-5.909249099536258
-0.44960000000000006,-5.9078343882363935
-0.45060000000000017,-5.9078343882363935
-0.45160000000000006,-5.909249099536258
-0.45260000000000017,-5.9078343882363935
