Potential V vs RHE, Current mA cm-2
0.05339999999999995,4.1040774809084715
0.05239999999999995,4.030512493315489
0.051399999999999946,3.9470445266234524
0.050399999999999945,3.8734795390304706
0.049399999999999944,3.8041586853370832
0.04839999999999994,3.7362525429435625
0.04739999999999994,3.666931689250175
0.04639999999999994,3.5990255468566534
0.04539999999999994,3.532534115762996
0.04439999999999994,3.4646279733694745
0.04339999999999994,3.3981365422758185
0.04239999999999994,3.3316451111821612
0.04139999999999994,3.2665683913883696
0.040399999999999936,3.201491671594578
0.039399999999999935,3.1364149518007864
0.038399999999999934,3.0727529433068597
0.03739999999999993,3.009090934812933
0.03639999999999993,2.9468436376188714
0.03539999999999993,2.8860110517246746
0.03439999999999993,2.8251784658304784
0.03339999999999993,2.764345879936282
0.03239999999999993,2.7049280053419507
0.03139999999999993,2.6455101307476188
0.030399999999999927,2.586092256153287
0.029399999999999926,2.5280890928588207
0.028399999999999925,2.4715006408642193
0.027399999999999924,2.414912188869618
0.026399999999999924,2.358323736875016
0.025399999999999923,2.30314999618028
0.024399999999999922,2.2479762554855434
0.02339999999999992,2.194217226090672
0.02239999999999992,2.1418729079956655
0.02139999999999992,2.0881138786007942
0.020399999999999918,2.0371842718056525
0.019399999999999917,1.9848399537106465
0.018399999999999916,1.93532505821537
0.017399999999999916,1.8858101627200938
0.016399999999999915,1.8362952672248178
0.015399999999999914,1.7881950830294064
0.014399999999999913,1.7400948988339953
0.013399999999999912,1.693409425938449
0.012399999999999911,1.6467239530429028
0.01139999999999991,1.6014531914472214
0.01039999999999991,1.5575971411514054
0.009399999999999908,1.5137410908555893
0.008399999999999908,1.4698850405597732
0.007399999999999907,1.427443701563822
0.006399999999999906,1.3859926604777764
0.005399999999999905,1.3446830905217175
0.004399999999999904,1.3042223473455772
0.003399999999999903,1.2644689598193697
0.002399999999999902,1.2249985145531352
0.0013999999999999013,1.1868013094567793
0.00039999999999990044,1.149452931140342
-0.0006000000000001005,1.1119630816939188
-0.0016000000000001013,1.075746472417374
-0.0026000000000001022,1.0396713342708155
-0.003600000000000103,1.0048694362941357
-0.004600000000000104,0.9702090094474421
-0.005600000000000105,0.9361144671206947
-0.006600000000000106,0.903010222703853
-0.007600000000000107,0.870188920546984
-0.008600000000000108,0.8380749740400478
-0.009600000000000108,0.8066683831830439
-0.01060000000000011,0.7755447345860131
-0.01160000000000011,0.7451284416389149
-0.012600000000000111,0.7149950909517896
-0.013600000000000112,0.6858520381745697
-0.014600000000000113,0.6574163410472825
-0.015600000000000114,0.6296879995699278
-0.016600000000000115,0.6021011292225595
-0.017600000000000116,0.5755045567850969
-0.018600000000000116,0.5484835709576747
-0.019600000000000117,0.5223114119101716
-0.020600000000000118,0.49727102190256034
-0.02160000000000012,0.47223063189494924
-0.02260000000000012,0.4478975975372706
-0.02360000000000012,0.424130447699538
-0.024600000000000122,0.40064624012177835
-0.025600000000000123,0.37744497480399175
-0.026600000000000124,0.3543851806161917
-0.027600000000000124,0.3323156843382971
-0.028600000000000125,0.310387659190389
-0.029600000000000126,0.2888840474324405
-0.030600000000000127,0.26851220471438403
-0.03160000000000013,0.24799889086634092
-0.03260000000000013,0.22776851927827088
-0.03360000000000013,0.2081040322101469
-0.03460000000000002,0.18858101627200938
-0.03560000000000002,0.1694824137238314
-0.03660000000000002,0.1509496956955994
-0.03760000000000002,0.13237453632837148
-0.03860000000000002,0.11429452591609632
-0.039600000000000024,0.09683698847576175
-0.040600000000000025,0.07928042124443666
-0.041600000000000026,0.06241706255004542
-0.04260000000000003,0.04555370385565418
-0.04360000000000003,0.02946843637618871
-0.04460000000000003,0.01311154432714916
-0.04560000000000003,-0.0026907808923432998
-0.04660000000000003,-0.018306364220253574
-0.04760000000000003,-0.03368427604978652
-0.04860000000000003,-0.04856703892436671
-0.04960000000000003,-0.06354883158993745
-0.050600000000000034,-0.07848818291651223
-0.051600000000000035,-0.0924938247851761
-0.052600000000000036,-0.10666923200982377
-0.053600000000000037,-0.12088708057346739
-0.05460000000000004,-0.134539044617165
-0.05560000000000004,-0.14826174422585583
-0.05660000000000004,-0.1615600304445872
-0.05760000000000004,-0.17415096101338604
-0.05860000000000004,-0.18744924723211737
-0.05960000000000004,-0.20004017780091618
-0.06060000000000004,-0.21291405062968802
-0.061600000000000044,-0.22564645232847336
-0.06260000000000004,-0.23795444063729917
-0.06360000000000005,-0.25040390007611146
-0.06460000000000005,-0.2627118883849373
-0.06560000000000005,-0.2741710499138441
-0.06660000000000005,-0.28605462483271044
-0.06760000000000005,-0.29793819975157676
-0.06860000000000005,-0.3093973612804835
-0.06960000000000005,-0.32128093619934983
-0.07060000000000005,-0.33245715546828364
-0.07160000000000005,-0.34419925925716344
-0.07260000000000005,-0.35565842078607024
-0.07360000000000005,-0.3666931689250175
-0.07460000000000006,-0.3780108593239378
-0.07560000000000006,-0.3887626652029121
-0.07660000000000006,-0.39965594221187284
-0.07760000000000006,-0.4106906903508202
-0.07860000000000006,-0.42144249622979446
-0.07960000000000006,-0.4320528309787822
-0.08060000000000006,-0.4429461079877429
-0.08160000000000006,-0.4535564427367308
-0.08260000000000006,-0.46459119087567796
-0.08360000000000006,-0.4750600544946793
-0.08460000000000006,-0.48567038924366707
-0.08560000000000006,-0.4965636662526278
-0.08660000000000007,-0.5070325298716292
-0.08760000000000007,-0.51792580688059
-0.08860000000000007,-0.5288190838895507
-0.08960000000000007,-0.5394294186385385
-0.09060000000000007,-0.5501812245175128
-0.09160000000000007,-0.5605086170065275
-0.09260000000000007,-0.5712604228855018
-0.09360000000000007,-0.5820122287644761
-0.09460000000000007,-0.5926225635134639
-0.09560000000000007,-0.6036573116524112
-0.09660000000000007,-0.614267646401399
-0.09760000000000008,-0.6248779811503866
-0.09860000000000008,-0.6360542004193205
-0.09960000000000008,-0.6466645351683082
-0.10060000000000008,-0.6574163410472825
-0.10160000000000008,-0.6684510891862299
-0.10260000000000008,-0.6796273084551637
-0.10360000000000008,-0.6906620565941108
-0.10460000000000008,-0.7022626892530042
-0.10560000000000008,-0.7130144951319785
-0.10660000000000008,-0.7241907144009123
-0.10760000000000008,-0.7353669336698461
-0.10860000000000009,-0.7466846240687663
-0.10960000000000009,-0.7585681989876326
-0.11060000000000009,-0.7700273605165394
-0.11160000000000009,-0.7816279931754327
-0.11260000000000009,-0.793511568094299
-0.11360000000000009,-0.8046877873632328
-0.11460000000000009,-0.8171372468020451
-0.11560000000000009,-0.8295867062408576
-0.11660000000000009,-0.8413288100297374
-0.1176000000000001,-0.8532123849486036
-0.1186000000000001,-0.8652374309974565
-0.1196000000000001,-0.8774039481762959
-0.1206000000000001,-0.8897119364851216
-0.1216000000000001,-0.9020199247939473
-0.1226000000000001,-0.9147523264927326
-0.1236000000000001,-0.9270603148015586
-0.1246000000000001,-0.9396512453703574
-0.1256000000000001,-0.9526665893291157
-0.1266000000000001,-0.9652575198979146
-0.1276000000000001,-0.9782728638566729
-0.1286000000000001,-0.9908637944254716
-0.1296000000000001,-1.0040206095142166
-0.1306000000000001,-1.0176018379929208
-0.1316000000000001,-1.0307586530816657
-0.1326000000000001,-1.0441984104303836
-0.1336000000000001,-1.0579211100390744
-0.1346000000000001,-1.0713608673877921
-0.1356000000000001,-1.0850835669964831
-0.1366000000000001,-1.0992306799951337
-0.1376000000000001,-1.1126704373438514
-0.1386000000000001,-1.1271004926024746
-0.1396000000000001,-1.141247605601125
-0.1406000000000001,-1.1558191319897348
-0.14160000000000011,-1.1705321295083313
-0.14260000000000012,-1.1843963002470088
-0.14360000000000012,-1.1985434132456592
-0.14460000000000012,-1.2132564107642556
-0.14560000000000012,-1.2275449948928923
-0.14660000000000012,-1.2428238769314346
-0.14760000000000012,-1.2576783455800176
-0.14860000000000012,-1.2726742853585868
-0.14960000000000012,-1.2876702251371563
-0.15060000000000012,-1.3021002803957797
-0.15160000000000012,-1.3172376913043355
-0.15260000000000012,-1.3326580444728646
-0.15360000000000013,-1.347936926511407
-0.15460000000000013,-1.3632158085499495
-0.15560000000000013,-1.3786361617184781
-0.15660000000000013,-1.3943394571469803
-0.15760000000000013,-1.410042752575482
-0.15860000000000013,-1.426028990263957
-0.15960000000000002,-1.4415908145624723
-0.16060000000000002,-1.4571526388609877
-0.16160000000000002,-1.472714463159503
-0.16260000000000002,-1.4882762874580184
-0.16360000000000002,-1.505252823056399
-0.16460000000000002,-1.5208146473549145
-0.16560000000000002,-1.5377911829532949
-0.16660000000000003,-1.5547677185516753
-0.16760000000000003,-1.5703295428501907
-0.16860000000000003,-1.585891367148706
-0.16960000000000003,-1.6014531914472214
-0.17060000000000003,-1.6184297270456018
-0.17160000000000003,-1.6339915513441174
-0.17260000000000003,-1.6495533756426328
-0.17360000000000003,-1.6665299112410132
-0.17460000000000003,-1.6820917355395286
-0.17560000000000003,-1.6990682711379093
-0.17660000000000003,-1.7146300954364246
-0.17760000000000004,-1.7301919197349398
-0.17860000000000004,-1.7457537440334552
-0.17960000000000004,-1.7627302796318356
-0.18060000000000004,-1.778292103930351
-0.18160000000000004,-1.7952686395287314
-0.18260000000000004,-1.8108304638272468
-0.18360000000000004,-1.8263922881257622
-0.18460000000000004,-1.8419541124242775
-0.18560000000000004,-1.857515936722793
-0.18660000000000004,-1.8730777610213083
-0.18760000000000004,-1.8886395853198237
-0.18860000000000005,-1.9042014096183393
-0.18960000000000005,-1.9197632339168547
-0.19060000000000005,-1.93532505821537
-0.19160000000000005,-1.9508868825138854
-0.19260000000000005,-1.9664487068124006
-0.19360000000000005,-1.980595819811051
-0.19460000000000005,-1.9961576441095665
-0.19560000000000005,-2.0103047571082175
-0.19660000000000005,-2.0244518701068674
-0.19760000000000005,-2.040013694405383
-0.19860000000000005,-2.054160807404033
-0.19960000000000006,-2.0683079204026833
-0.20060000000000006,-2.081040322101469
-0.20160000000000006,-2.095187435100119
-0.20260000000000006,-2.1093345480987695
-0.20360000000000006,-2.122066949797555
-0.20460000000000006,-2.1347993514963406
-0.20560000000000006,-2.148946464494991
-0.20660000000000006,-2.1602641548939108
-0.20760000000000006,-2.1729965565926963
-0.20860000000000006,-2.184314246991617
-0.20960000000000006,-2.197046648690402
-0.21060000000000006,-2.208364339089322
-0.21160000000000007,-2.2196820294882422
-0.21260000000000007,-2.230999719887163
-0.21360000000000007,-2.2423174102860832
-0.21460000000000007,-2.2522203893851382
-0.21560000000000007,-2.2621233684841937
-0.21660000000000007,-2.272026347583249
-0.21760000000000007,-2.2819293266823037
-0.21860000000000007,-2.2918323057813597
-0.21960000000000007,-2.3003205735805494
-0.22060000000000007,-2.30880884137974
-0.22160000000000007,-2.3158823978790646
-0.22260000000000008,-2.3243706656782552
-0.22360000000000008,-2.33144422217758
-0.22460000000000008,-2.3385177786769056
-0.22560000000000008,-2.3441766238763657
-0.22660000000000008,-2.351250180375691
-0.22760000000000008,-2.3569090255751513
-0.22860000000000008,-2.362567870774611
-0.22960000000000008,-2.3682267159740715
-0.23060000000000008,-2.3738855611735317
-0.23160000000000008,-2.3781296950731265
-0.23260000000000008,-2.382373828972722
-0.23360000000000009,-2.385203251572452
-0.2346000000000001,-2.389447385472047
-0.2356000000000001,-2.3936915193716417
-0.2366000000000001,-2.396520941971372
-0.2376000000000001,-2.3993503645711023
-0.2386000000000001,-2.4021797871708324
-0.2396000000000001,-2.4050092097705624
-0.2406000000000001,-2.4064239210704272
-0.2416000000000001,-2.407838632370292
-0.2426000000000001,-2.4106680549700226
-0.2436000000000001,-2.412082766269888
-0.2446000000000001,-2.4134974775697526
-0.2456000000000001,-2.414912188869618
-0.2466000000000001,-2.4163269001694827
-0.2476000000000001,-2.417741611469348
-0.2486000000000001,-2.4191563227692128
-0.2496000000000001,-2.420571034069078
-0.2506000000000001,-2.4219857453689424
-0.2516000000000001,-2.4234004566688077
-0.2526000000000001,-2.424815167968673
-0.2536000000000001,-2.426229879268538
-0.2546000000000001,-2.4290593018682682
-0.2556000000000001,-2.430474013168133
-0.2566000000000001,-2.4318887244679983
-0.2576000000000001,-2.4347181470677284
-0.2586000000000001,-2.436132858367593
-0.2596000000000001,-2.438962280967323
-0.2606000000000001,-2.4417917035670533
-0.2616000000000001,-2.4446211261667834
-0.2626000000000001,-2.4474505487665135
-0.2636000000000001,-2.451694682666109
-0.2646000000000001,-2.4545241052658384
-0.2656000000000001,-2.4587682391654337
-0.2666000000000001,-2.463012373065029
-0.2676000000000001,-2.468671218264489
-0.2686000000000001,-2.472915352164084
-0.2696000000000001,-2.4785741973635442
-0.2706000000000001,-2.4842330425630044
-0.2716000000000001,-2.4898918877624645
-0.2726000000000001,-2.49696544426179
-0.2736000000000001,-2.50262428946125
-0.2746000000000001,-2.5111125572604402
-0.2756000000000001,-2.518186113759765
-0.2766000000000001,-2.5252596702590906
-0.2776000000000001,-2.533747938058281
-0.2786000000000001,-2.543650917157336
-0.2796000000000001,-2.552139184956526
-0.2806000000000001,-2.5606274527557162
-0.28160000000000013,-2.5705304318547717
-0.28260000000000013,-2.581848122253692
-0.28360000000000013,-2.591751101352747
-0.2846,-2.6030687917516673
-0.2856,-2.615801193450453
-0.2866,-2.627118883849373
-0.2876,-2.639851285548158
-0.2886,-2.6525836872469437
-0.2896,-2.6653160889457292
-0.2906,-2.6794632019443796
-0.2916,-2.6921956036431647
-0.2926,-2.706342716641815
-0.2936,-2.7219045409403306
-0.29460000000000003,-2.737466365238846
-0.29560000000000003,-2.7516134782374966
-0.29660000000000003,-2.768590013835877
-0.29760000000000003,-2.7841518381343926
-0.29860000000000003,-2.8011283737327726
-0.29960000000000003,-2.818104909331153
-0.30060000000000003,-2.8350814449295334
-0.30160000000000003,-2.8534726918277786
-0.30260000000000004,-2.870449227426159
-0.30360000000000004,-2.888840474324405
-0.30460000000000004,-2.9086464325225156
-0.30560000000000004,-2.927037679420761
-0.30660000000000004,-2.9468436376188714
-0.30760000000000004,-2.9666495958169823
-0.30860000000000004,-2.9864555540150928
-0.30960000000000004,-3.0076762235130676
-0.31060000000000004,-3.028896893011044
-0.31160000000000004,-3.050117562509019
-0.31260000000000004,-3.0713382320069944
-0.31360000000000005,-3.09255890150497
-0.31460000000000005,-3.113779571002946
-0.31560000000000005,-3.1364149518007864
-0.31660000000000005,-3.159050332598627
-0.31760000000000005,-3.1816857133964676
-0.31860000000000005,-3.204321094194308
-0.31960000000000005,-3.228371186292014
-0.32060000000000005,-3.2524212783897193
-0.32160000000000005,-3.276471370487425
-0.32260000000000005,-3.3005214625851305
-0.32360000000000005,-3.323156843382971
-0.32460000000000006,-3.3486216467805416
-0.32560000000000006,-3.3726717388782474
-0.32660000000000006,-3.3981365422758185
-0.32760000000000006,-3.4221866343735234
-0.32860000000000006,-3.447651437771094
-0.32960000000000006,-3.4717015298688
-0.33060000000000006,-3.4985810445662353
-0.33160000000000006,-3.522631136663941
-0.33260000000000006,-3.548095940061512
-0.33360000000000006,-3.5749754547589476
-0.33460000000000006,-3.6004402581565187
-0.33560000000000006,-3.6259050615540893
-0.33660000000000007,-3.6513698649516595
-0.33760000000000007,-3.67683466834923
-0.33860000000000007,-3.7037141830466664
-0.33960000000000007,-3.7291789864442366
-0.34060000000000007,-3.7546437898418072
-0.34160000000000007,-3.780108593239378
-0.34260000000000007,-3.8055733966369485
-0.34360000000000007,-3.832452911334385
-0.3446000000000001,-3.8579177147319554
-0.3456000000000001,-3.8833825181295256
-0.3466000000000001,-3.9088473215270967
-0.34759999999999996,-3.934312124924667
-0.3486000000000001,-3.958362217022373
-0.34959999999999997,-3.9838270204199433
-0.3506000000000001,-4.007877112517649
-0.35159999999999997,-4.033341915915219
-0.3526000000000001,-4.057392008012925
-0.35359999999999997,-4.081442100110631
-0.3546000000000001,-4.105492192208336
-0.35559999999999997,-4.128127573006177
-0.3566000000000001,-4.152177665103882
-0.3576,-4.174813045901724
-0.3586000000000001,-4.197448426699564
-0.3596,-4.218669096197539
-0.3606000000000001,-4.2413044769953805
-0.3616,-4.262525146493355
-0.3626000000000001,-4.283745815991331
-0.3636,-4.303551774189442
-0.3646000000000001,-4.323357732387552
-0.3656,-4.343163690585662
-0.3666000000000001,-4.362969648783774
-0.3676,-4.381360895682018
-0.3686000000000001,-4.399752142580264
-0.3696,-4.416728678178644
-0.3706000000000001,-4.433705213777024
-0.3716,-4.450681749375406
-0.3726000000000001,-4.466243573673921
-0.3736,-4.481805397972437
-0.3746000000000001,-4.4973672222709515
-0.3756,-4.511514335269602
-0.3766000000000001,-4.524246736968387
-0.3776,-4.538393849967037
-0.3786000000000001,-4.551126251665823
-0.3796,-4.5638586533646075
-0.3806000000000001,-4.575176343763529
-0.3816,-4.586494034162449
-0.3826000000000001,-4.596397013261504
-0.3836,-4.607714703660425
-0.3846000000000001,-4.61761768275948
-0.3856,-4.627520661858535
-0.3866000000000001,-4.636008929657725
-0.3876,-4.644497197456915
-0.3886000000000001,-4.651570753956241
-0.3896,-4.658644310455566
-0.3906000000000001,-4.665717866954891
-0.3916,-4.671376712154351
-0.3926000000000001,-4.677035557353811
-0.3936,-4.682694402553271
-0.3946000000000001,-4.688353247752731
-0.3956,-4.691182670352461
-0.3966000000000001,-4.695426804252056
-0.3976,-4.698256226851787
-0.3986000000000001,-4.699670938151652
-0.3996,-4.7010856494515165
-0.4006000000000001,-4.7010856494515165
-0.4016,-4.7010856494515165
-0.4026000000000001,-4.7010856494515165
-0.4036,-4.698256226851787
-0.4046000000000001,-4.696841515551922
-0.4056,-4.692597381652327
-0.40660000000000013,-4.688353247752731
-0.4076,-4.684109113853137
-0.40860000000000013,-4.678450268653676
-0.4096,-4.671376712154351
-0.41060000000000013,-4.664303155655026
-0.4116,-4.655814887855835
-0.41260000000000013,-4.645911908756781
-0.4136,-4.63742364095759
-0.41460000000000014,-4.626105950558669
-0.4156,-4.61478826015975
-0.41660000000000014,-4.6020558584609645
-0.4176,-4.5893234567621795
-0.41860000000000014,-4.575176343763529
-0.41960000000000003,-4.561029230764878
-0.42060000000000014,-4.545467406466363
-0.42160000000000003,-4.531320293467712
-0.42260000000000014,-4.515758469169198
-0.42360000000000003,-4.498781933570816
-0.42460000000000014,-4.481805397972437
-0.42560000000000003,-4.463414151074191
-0.42660000000000015,-4.445022904175945
-0.42760000000000004,-4.425216945977835
-0.42860000000000015,-4.406825699079589
-0.42960000000000004,-4.388434452181344
-0.43060000000000015,-4.368628493983234
-0.43160000000000004,-4.348822535785122
-0.43260000000000015,-4.329016577587013
-0.43360000000000004,-4.309210619388901
-0.43460000000000015,-4.287989949890926
-0.43560000000000004,-4.2681839916928155
-0.43660000000000015,-4.2483780334947046
-0.43760000000000004,-4.22715736399673
-0.43860000000000016,-4.20735140579862
-0.43960000000000005,-4.187545447600509
-0.44060000000000016,-4.166324778102533
-0.44160000000000005,-4.146518819904423
-0.44260000000000016,-4.126712861706312
-0.44360000000000005,-4.106906903508202
-0.44460000000000016,-4.085686234010226
-0.44560000000000005,-4.067294987111981
-0.44660000000000016,-4.04748902891387
-0.44760000000000005,-4.029097782015624
-0.44860000000000017,-4.009291823817514
-0.44960000000000006,-3.9909005769192687
-0.45060000000000017,-3.9725093300210226
-0.45160000000000006,-3.9541180831227782
-0.45260000000000017,-3.935726836224532
-0.45360000000000006,-3.9173355893262864
