June 26, 2026   00:21:24
Cyclic Voltammetry
File: c:/users/guazh/data/20260623_doe_duplica2/2026-06-24-exp10\exp10-2026-06-26t00_15_53-h2koh\exp10_cv_sr_50mvs_efin_-1400mv.bin
Data Source:  Experiment
Instrument Model:  CHI760E
Header: CV ran at 50 mVs
Note: 

Init E (V) = -1
High E (V) = -1
Low E (V) = -1.4
Final E (V) = -1
Init P/N = N
Scan Rate (V/s) = 0.05
Segment = 3
Sample Interval (V) = 0.001
Quiet Time (sec) = 2
Sensitivity (A/V) = 0.01
Comp R (ohm) = 2.0

Results:

Channel 1:
Segment 1:

Segment 2:

Segment 3:

Potential/V, Current/A

-1.000, 3.137e-7
-1.001, 4.248e-5
-1.002, 5.781e-5
-1.003, 6.592e-5
-1.004, 7.182e-5
-1.005, 7.592e-5
-1.006, 7.931e-5
-1.007, 8.279e-5
-1.008, 8.523e-5
-1.009, 8.777e-5
-1.010, 9.001e-5
-1.011, 9.206e-5
-1.012, 9.440e-5
-1.013, 9.534e-5
-1.014, 9.733e-5
-1.015, 9.893e-5
-1.016, 1.002e-4
-1.017, 1.018e-4
-1.018, 1.029e-4
-1.019, 1.040e-4
-1.020, 1.052e-4
-1.021, 1.060e-4
-1.022, 1.072e-4
-1.023, 1.083e-4
-1.024, 1.096e-4
-1.025, 1.103e-4
-1.026, 1.110e-4
-1.027, 1.120e-4
-1.028, 1.128e-4
-1.029, 1.131e-4
-1.030, 1.141e-4
-1.031, 1.148e-4
-1.032, 1.154e-4
-1.033, 1.160e-4
-1.034, 1.168e-4
-1.035, 1.172e-4
-1.036, 1.180e-4
-1.037, 1.184e-4
-1.038, 1.188e-4
-1.039, 1.195e-4
-1.040, 1.196e-4
-1.041, 1.201e-4
-1.042, 1.205e-4
-1.043, 1.209e-4
-1.044, 1.215e-4
-1.045, 1.214e-4
-1.046, 1.217e-4
-1.047, 1.223e-4
-1.048, 1.224e-4
-1.049, 1.227e-4
-1.050, 1.229e-4
-1.051, 1.230e-4
-1.052, 1.234e-4
-1.053, 1.234e-4
-1.054, 1.232e-4
-1.055, 1.239e-4
-1.056, 1.235e-4
-1.057, 1.242e-4
-1.058, 1.241e-4
-1.059, 1.238e-4
-1.060, 1.239e-4
-1.061, 1.237e-4
-1.062, 1.240e-4
-1.063, 1.244e-4
-1.064, 1.241e-4
-1.065, 1.241e-4
-1.066, 1.236e-4
-1.067, 1.237e-4
-1.068, 1.239e-4
-1.069, 1.235e-4
-1.070, 1.234e-4
-1.071, 1.238e-4
-1.072, 1.235e-4
-1.073, 1.235e-4
-1.074, 1.231e-4
-1.075, 1.235e-4
-1.076, 1.233e-4
-1.077, 1.227e-4
-1.078, 1.226e-4
-1.079, 1.227e-4
-1.080, 1.221e-4
-1.081, 1.222e-4
-1.082, 1.220e-4
-1.083, 1.221e-4
-1.084, 1.219e-4
-1.085, 1.209e-4
-1.086, 1.212e-4
-1.087, 1.210e-4
-1.088, 1.210e-4
-1.089, 1.212e-4
-1.090, 1.209e-4
-1.091, 1.203e-4
-1.092, 1.205e-4
-1.093, 1.200e-4
-1.094, 1.197e-4
-1.095, 1.203e-4
-1.096, 1.196e-4
-1.097, 1.198e-4
-1.098, 1.197e-4
-1.099, 1.195e-4
-1.100, 1.195e-4
-1.101, 1.191e-4
-1.102, 1.192e-4
-1.103, 1.193e-4
-1.104, 1.190e-4
-1.105, 1.191e-4
-1.106, 1.192e-4
-1.107, 1.190e-4
-1.108, 1.193e-4
-1.109, 1.187e-4
-1.110, 1.188e-4
-1.111, 1.192e-4
-1.112, 1.190e-4
-1.113, 1.193e-4
-1.114, 1.194e-4
-1.115, 1.191e-4
-1.116, 1.195e-4
-1.117, 1.193e-4
-1.118, 1.197e-4
-1.119, 1.201e-4
-1.120, 1.197e-4
-1.121, 1.202e-4
-1.122, 1.202e-4
-1.123, 1.205e-4
-1.124, 1.212e-4
-1.125, 1.210e-4
-1.126, 1.215e-4
-1.127, 1.220e-4
-1.128, 1.216e-4
-1.129, 1.224e-4
-1.130, 1.228e-4
-1.131, 1.231e-4
-1.132, 1.240e-4
-1.133, 1.243e-4
-1.134, 1.246e-4
-1.135, 1.250e-4
-1.136, 1.254e-4
-1.137, 1.261e-4
-1.138, 1.270e-4
-1.139, 1.276e-4
-1.140, 1.282e-4
-1.141, 1.287e-4
-1.142, 1.294e-4
-1.143, 1.305e-4
-1.144, 1.306e-4
-1.145, 1.318e-4
-1.146, 1.332e-4
-1.147, 1.332e-4
-1.148, 1.348e-4
-1.149, 1.354e-4
-1.150, 1.367e-4
-1.151, 1.381e-4
-1.152, 1.387e-4
-1.153, 1.403e-4
-1.154, 1.411e-4
-1.155, 1.424e-4
-1.156, 1.439e-4
-1.157, 1.450e-4
-1.158, 1.466e-4
-1.159, 1.485e-4
-1.160, 1.494e-4
-1.161, 1.513e-4
-1.162, 1.532e-4
-1.163, 1.545e-4
-1.164, 1.568e-4
-1.165, 1.585e-4
-1.166, 1.603e-4
-1.167, 1.628e-4
-1.168, 1.644e-4
-1.169, 1.666e-4
-1.170, 1.690e-4
-1.171, 1.711e-4
-1.172, 1.740e-4
-1.173, 1.757e-4
-1.174, 1.786e-4
-1.175, 1.817e-4
-1.176, 1.840e-4
-1.177, 1.878e-4
-1.178, 1.906e-4
-1.179, 1.933e-4
-1.180, 1.964e-4
-1.181, 1.993e-4
-1.182, 2.028e-4
-1.183, 2.068e-4
-1.184, 2.101e-4
-1.185, 2.141e-4
-1.186, 2.178e-4
-1.187, 2.214e-4
-1.188, 2.259e-4
-1.189, 2.294e-4
-1.190, 2.343e-4
-1.191, 2.388e-4
-1.192, 2.432e-4
-1.193, 2.482e-4
-1.194, 2.529e-4
-1.195, 2.578e-4
-1.196, 2.635e-4
-1.197, 2.684e-4
-1.198, 2.743e-4
-1.199, 2.803e-4
-1.200, 2.856e-4
-1.201, 2.921e-4
-1.202, 2.987e-4
-1.203, 3.046e-4
-1.204, 3.114e-4
-1.205, 3.175e-4
-1.206, 3.248e-4
-1.207, 3.325e-4
-1.208, 3.387e-4
-1.209, 3.469e-4
-1.210, 3.542e-4
-1.211, 3.623e-4
-1.212, 3.709e-4
-1.213, 3.786e-4
-1.214, 3.870e-4
-1.215, 3.960e-4
-1.216, 4.046e-4
-1.217, 4.133e-4
-1.218, 4.225e-4
-1.219, 4.317e-4
-1.220, 4.418e-4
-1.221, 4.514e-4
-1.222, 4.614e-4
-1.223, 4.722e-4
-1.224, 4.825e-4
-1.225, 4.931e-4
-1.226, 5.043e-4
-1.227, 5.153e-4
-1.228, 5.278e-4
-1.229, 5.397e-4
-1.230, 5.503e-4
-1.231, 5.628e-4
-1.232, 5.751e-4
-1.233, 5.884e-4
-1.234, 6.002e-4
-1.235, 6.132e-4
-1.236, 6.266e-4
-1.237, 6.393e-4
-1.238, 6.539e-4
-1.239, 6.677e-4
-1.240, 6.824e-4
-1.241, 6.963e-4
-1.242, 7.107e-4
-1.243, 7.257e-4
-1.244, 7.402e-4
-1.245, 7.565e-4
-1.246, 7.719e-4
-1.247, 7.888e-4
-1.248, 8.050e-4
-1.249, 8.204e-4
-1.250, 8.372e-4
-1.251, 8.540e-4
-1.252, 8.721e-4
-1.253, 8.894e-4
-1.254, 9.063e-4
-1.255, 9.239e-4
-1.256, 9.417e-4
-1.257, 9.615e-4
-1.258, 9.814e-4
-1.259, 9.999e-4
-1.260, 1.018e-3
-1.261, 1.037e-3
-1.262, 1.057e-3
-1.263, 1.076e-3
-1.264, 1.098e-3
-1.265, 1.118e-3
-1.266, 1.138e-3
-1.267, 1.159e-3
-1.268, 1.181e-3
-1.269, 1.203e-3
-1.270, 1.223e-3
-1.271, 1.245e-3
-1.272, 1.266e-3
-1.273, 1.290e-3
-1.274, 1.313e-3
-1.275, 1.337e-3
-1.276, 1.362e-3
-1.277, 1.385e-3
-1.278, 1.409e-3
-1.279, 1.433e-3
-1.280, 1.459e-3
-1.281, 1.483e-3
-1.282, 1.509e-3
-1.283, 1.534e-3
-1.284, 1.560e-3
-1.285, 1.585e-3
-1.286, 1.611e-3
-1.287, 1.640e-3
-1.288, 1.668e-3
-1.289, 1.695e-3
-1.290, 1.725e-3
-1.291, 1.752e-3
-1.292, 1.778e-3
-1.293, 1.806e-3
-1.294, 1.835e-3
-1.295, 1.865e-3
-1.296, 1.895e-3
-1.297, 1.925e-3
-1.298, 1.955e-3
-1.299, 1.985e-3
-1.300, 2.015e-3
-1.301, 2.045e-3
-1.302, 2.080e-3
-1.303, 2.113e-3
-1.304, 2.144e-3
-1.305, 2.175e-3
-1.306, 2.206e-3
-1.307, 2.239e-3
-1.308, 2.272e-3
-1.309, 2.307e-3
-1.310, 2.339e-3
-1.311, 2.375e-3
-1.312, 2.411e-3
-1.313, 2.445e-3
-1.314, 2.480e-3
-1.315, 2.516e-3
-1.316, 2.555e-3
-1.317, 2.591e-3
-1.318, 2.626e-3
-1.319, 2.662e-3
-1.320, 2.696e-3
-1.321, 2.735e-3
-1.322, 2.772e-3
-1.323, 2.811e-3
-1.324, 2.850e-3
-1.325, 2.888e-3
-1.326, 2.928e-3
-1.327, 2.963e-3
-1.328, 3.003e-3
-1.329, 3.042e-3
-1.330, 3.097e-3
-1.331, 3.142e-3
-1.332, 3.175e-3
-1.333, 3.212e-3
-1.334, 3.256e-3
-1.335, 3.296e-3
-1.336, 3.341e-3
-1.337, 3.386e-3
-1.338, 3.429e-3
-1.339, 3.471e-3
-1.340, 3.512e-3
-1.341, 3.556e-3
-1.342, 3.602e-3
-1.343, 3.650e-3
-1.344, 3.693e-3
-1.345, 3.741e-3
-1.346, 3.787e-3
-1.347, 3.829e-3
-1.348, 3.875e-3
-1.349, 3.919e-3
-1.350, 3.971e-3
-1.351, 4.023e-3
-1.352, 4.072e-3
-1.353, 4.117e-3
-1.354, 4.162e-3
-1.355, 4.208e-3
-1.356, 4.255e-3
-1.357, 4.312e-3
-1.358, 4.362e-3
-1.359, 4.414e-3
-1.360, 4.466e-3
-1.361, 4.514e-3
-1.362, 4.564e-3
-1.363, 4.610e-3
-1.364, 4.662e-3
-1.365, 4.713e-3
-1.366, 4.770e-3
-1.367, 4.823e-3
-1.368, 4.872e-3
-1.369, 4.925e-3
-1.370, 4.974e-3
-1.371, 5.027e-3
-1.372, 5.082e-3
-1.373, 5.135e-3
-1.374, 5.191e-3
-1.375, 5.242e-3
-1.376, 5.295e-3
-1.377, 5.349e-3
-1.378, 5.397e-3
-1.379, 5.455e-3
-1.380, 5.507e-3
-1.381, 5.569e-3
-1.382, 5.630e-3
-1.383, 5.684e-3
-1.384, 5.733e-3
-1.385, 5.780e-3
-1.386, 5.830e-3
-1.387, 5.889e-3
-1.388, 5.947e-3
-1.389, 6.001e-3
-1.390, 6.052e-3
-1.391, 6.106e-3
-1.392, 6.159e-3
-1.393, 6.212e-3
-1.394, 6.257e-3
-1.395, 6.309e-3
-1.396, 6.373e-3
-1.397, 6.442e-3
-1.398, 6.499e-3
-1.399, 6.542e-3
-1.400, 6.495e-3
-1.399, 6.399e-3
-1.398, 6.314e-3
-1.397, 6.232e-3
-1.396, 6.161e-3
-1.395, 6.093e-3
-1.394, 6.016e-3
-1.393, 5.932e-3
-1.392, 5.853e-3
-1.391, 5.770e-3
-1.390, 5.696e-3
-1.389, 5.633e-3
-1.388, 5.564e-3
-1.387, 5.496e-3
-1.386, 5.425e-3
-1.385, 5.354e-3
-1.384, 5.297e-3
-1.383, 5.225e-3
-1.382, 5.158e-3
-1.381, 5.088e-3
-1.380, 5.015e-3
-1.379, 4.954e-3
-1.378, 4.890e-3
-1.377, 4.833e-3
-1.376, 4.767e-3
-1.375, 4.702e-3
-1.374, 4.640e-3
-1.373, 4.578e-3
-1.372, 4.516e-3
-1.371, 4.460e-3
-1.370, 4.403e-3
-1.369, 4.346e-3
-1.368, 4.292e-3
-1.367, 4.244e-3
-1.366, 4.186e-3
-1.365, 4.136e-3
-1.364, 4.077e-3
-1.363, 4.017e-3
-1.362, 3.961e-3
-1.361, 3.913e-3
-1.360, 3.860e-3
-1.359, 3.809e-3
-1.358, 3.759e-3
-1.357, 3.704e-3
-1.356, 3.657e-3
-1.355, 3.608e-3
-1.354, 3.556e-3
-1.353, 3.514e-3
-1.352, 3.478e-3
-1.351, 3.428e-3
-1.350, 3.381e-3
-1.349, 3.333e-3
-1.348, 3.294e-3
-1.347, 3.245e-3
-1.346, 3.199e-3
-1.345, 3.150e-3
-1.344, 3.106e-3
-1.343, 3.064e-3
-1.342, 3.033e-3
-1.341, 2.993e-3
-1.340, 2.943e-3
-1.339, 2.898e-3
-1.338, 2.859e-3
-1.337, 2.819e-3
-1.336, 2.778e-3
-1.335, 2.734e-3
-1.334, 2.695e-3
-1.333, 2.651e-3
-1.332, 2.609e-3
-1.331, 2.576e-3
-1.330, 2.538e-3
-1.329, 2.504e-3
-1.328, 2.464e-3
-1.327, 2.425e-3
-1.326, 2.388e-3
-1.325, 2.350e-3
-1.324, 2.317e-3
-1.323, 2.282e-3
-1.322, 2.252e-3
-1.321, 2.220e-3
-1.320, 2.185e-3
-1.319, 2.146e-3
-1.318, 2.110e-3
-1.317, 2.075e-3
-1.316, 2.045e-3
-1.315, 2.019e-3
-1.314, 1.990e-3
-1.313, 1.962e-3
-1.312, 1.924e-3
-1.311, 1.899e-3
-1.310, 1.872e-3
-1.309, 1.841e-3
-1.308, 1.807e-3
-1.307, 1.780e-3
-1.306, 1.750e-3
-1.305, 1.723e-3
-1.304, 1.694e-3
-1.303, 1.664e-3
-1.302, 1.637e-3
-1.301, 1.610e-3
-1.300, 1.582e-3
-1.299, 1.555e-3
-1.298, 1.528e-3
-1.297, 1.504e-3
-1.296, 1.478e-3
-1.295, 1.450e-3
-1.294, 1.423e-3
-1.293, 1.401e-3
-1.292, 1.374e-3
-1.291, 1.353e-3
-1.290, 1.333e-3
-1.289, 1.310e-3
-1.288, 1.280e-3
-1.287, 1.256e-3
-1.286, 1.234e-3
-1.285, 1.215e-3
-1.284, 1.195e-3
-1.283, 1.178e-3
-1.282, 1.154e-3
-1.281, 1.130e-3
-1.280, 1.108e-3
-1.279, 1.091e-3
-1.278, 1.068e-3
-1.277, 1.048e-3
-1.276, 1.029e-3
-1.275, 1.009e-3
-1.274, 9.894e-4
-1.273, 9.684e-4
-1.272, 9.500e-4
-1.271, 9.360e-4
-1.270, 9.161e-4
-1.269, 8.984e-4
-1.268, 8.814e-4
-1.267, 8.623e-4
-1.266, 8.445e-4
-1.265, 8.272e-4
-1.264, 8.112e-4
-1.263, 7.952e-4
-1.262, 7.770e-4
-1.261, 7.603e-4
-1.260, 7.435e-4
-1.259, 7.288e-4
-1.258, 7.135e-4
-1.257, 6.958e-4
-1.256, 6.795e-4
-1.255, 6.647e-4
-1.254, 6.605e-4
-1.253, 6.399e-4
-1.252, 6.253e-4
-1.251, 6.104e-4
-1.250, 5.957e-4
-1.249, 5.817e-4
-1.248, 5.685e-4
-1.247, 5.553e-4
-1.246, 5.424e-4
-1.245, 5.314e-4
-1.244, 5.157e-4
-1.243, 5.029e-4
-1.242, 4.913e-4
-1.241, 4.788e-4
-1.240, 4.674e-4
-1.239, 4.546e-4
-1.238, 4.424e-4
-1.237, 4.313e-4
-1.236, 4.215e-4
-1.235, 4.111e-4
-1.234, 3.986e-4
-1.233, 3.879e-4
-1.232, 3.768e-4
-1.231, 3.667e-4
-1.230, 3.573e-4
-1.229, 3.461e-4
-1.228, 3.358e-4
-1.227, 3.256e-4
-1.226, 3.184e-4
-1.225, 3.074e-4
-1.224, 2.990e-4
-1.223, 2.905e-4
-1.222, 2.810e-4
-1.221, 2.721e-4
-1.220, 2.627e-4
-1.219, 2.540e-4
-1.218, 2.465e-4
-1.217, 2.389e-4
-1.216, 2.311e-4
-1.215, 2.238e-4
-1.214, 2.152e-4
-1.213, 2.082e-4
-1.212, 2.004e-4
-1.211, 1.928e-4
-1.210, 1.862e-4
-1.209, 1.787e-4
-1.208, 1.722e-4
-1.207, 1.657e-4
-1.206, 1.589e-4
-1.205, 1.526e-4
-1.204, 1.458e-4
-1.203, 1.390e-4
-1.202, 1.338e-4
-1.201, 1.275e-4
-1.200, 1.223e-4
-1.199, 1.165e-4
-1.198, 1.108e-4
-1.197, 1.060e-4
-1.196, 9.967e-5
-1.195, 9.546e-5
-1.194, 9.075e-5
-1.193, 8.422e-5
-1.192, 7.978e-5
-1.191, 7.492e-5
-1.190, 7.011e-5
-1.189, 6.605e-5
-1.188, 6.134e-5
-1.187, 5.736e-5
-1.186, 5.297e-5
-1.185, 4.845e-5
-1.184, 4.471e-5
-1.183, 4.088e-5
-1.182, 3.632e-5
-1.181, 3.332e-5
-1.180, 2.885e-5
-1.179, 2.487e-5
-1.178, 2.096e-5
-1.177, 1.781e-5
-1.176, 1.463e-5
-1.175, 1.135e-5
-1.174, 8.068e-6
-1.173, 5.365e-6
-1.172, 2.099e-6
-1.171, -8.998e-7
-1.170, -3.702e-6
-1.169, -6.583e-6
-1.168, -8.763e-6
-1.167, -1.194e-5
-1.166, -1.454e-5
-1.165, -1.691e-5
-1.164, -1.958e-5
-1.163, -2.217e-5
-1.162, -2.451e-5
-1.161, -2.693e-5
-1.160, -2.861e-5
-1.159, -3.084e-5
-1.158, -3.304e-5
-1.157, -3.509e-5
-1.156, -3.709e-5
-1.155, -3.909e-5
-1.154, -4.088e-5
-1.153, -4.316e-5
-1.152, -4.451e-5
-1.151, -4.632e-5
-1.150, -4.832e-5
-1.149, -4.980e-5
-1.148, -5.175e-5
-1.147, -5.350e-5
-1.146, -5.468e-5
-1.145, -5.645e-5
-1.144, -5.777e-5
-1.143, -5.933e-5
-1.142, -6.108e-5
-1.141, -6.191e-5
-1.140, -6.352e-5
-1.139, -6.528e-5
-1.138, -6.629e-5
-1.137, -6.782e-5
-1.136, -6.897e-5
-1.135, -7.007e-5
-1.134, -7.162e-5
-1.133, -7.228e-5
-1.132, -7.356e-5
-1.131, -7.482e-5
-1.130, -7.578e-5
-1.129, -7.724e-5
-1.128, -7.797e-5
-1.127, -7.912e-5
-1.126, -8.053e-5
-1.125, -8.076e-5
-1.124, -8.198e-5
-1.123, -8.314e-5
-1.122, -8.421e-5
-1.121, -8.546e-5
-1.120, -8.584e-5
-1.119, -8.681e-5
-1.118, -8.765e-5
-1.117, -8.835e-5
-1.116, -8.971e-5
-1.115, -9.043e-5
-1.114, -9.147e-5
-1.113, -9.242e-5
-1.112, -9.269e-5
-1.111, -9.374e-5
-1.110, -9.483e-5
-1.109, -9.597e-5
-1.108, -9.694e-5
-1.107, -9.742e-5
-1.106, -9.763e-5
-1.105, -9.897e-5
-1.104, -9.923e-5
-1.103, -1.004e-4
-1.102, -1.015e-4
-1.101, -1.021e-4
-1.100, -1.027e-4
-1.099, -1.032e-4
-1.098, -1.039e-4
-1.097, -1.050e-4
-1.096, -1.055e-4
-1.095, -1.062e-4
-1.094, -1.074e-4
-1.093, -1.074e-4
-1.092, -1.085e-4
-1.091, -1.095e-4
-1.090, -1.099e-4
-1.089, -1.114e-4
-1.088, -1.121e-4
-1.087, -1.127e-4
-1.086, -1.135e-4
-1.085, -1.140e-4
-1.084, -1.150e-4
-1.083, -1.157e-4
-1.082, -1.167e-4
-1.081, -1.178e-4
-1.080, -1.179e-4
-1.079, -1.189e-4
-1.078, -1.204e-4
-1.077, -1.206e-4
-1.076, -1.217e-4
-1.075, -1.230e-4
-1.074, -1.238e-4
-1.073, -1.247e-4
-1.072, -1.250e-4
-1.071, -1.260e-4
-1.070, -1.271e-4
-1.069, -1.278e-4
-1.068, -1.290e-4
-1.067, -1.300e-4
-1.066, -1.307e-4
-1.065, -1.321e-4
-1.064, -1.327e-4
-1.063, -1.334e-4
-1.062, -1.349e-4
-1.061, -1.359e-4
-1.060, -1.371e-4
-1.059, -1.383e-4
-1.058, -1.393e-4
-1.057, -1.408e-4
-1.056, -1.414e-4
-1.055, -1.428e-4
-1.054, -1.440e-4
-1.053, -1.453e-4
-1.052, -1.464e-4
-1.051, -1.474e-4
-1.050, -1.488e-4
-1.049, -1.507e-4
-1.048, -1.516e-4
-1.047, -1.532e-4
-1.046, -1.546e-4
-1.045, -1.560e-4
-1.044, -1.575e-4
-1.043, -1.588e-4
-1.042, -1.599e-4
-1.041, -1.619e-4
-1.040, -1.633e-4
-1.039, -1.649e-4
-1.038, -1.672e-4
-1.037, -1.686e-4
-1.036, -1.699e-4
-1.035, -1.711e-4
-1.034, -1.728e-4
-1.033, -1.756e-4
-1.032, -1.766e-4
-1.031, -1.794e-4
-1.030, -1.814e-4
-1.029, -1.829e-4
-1.028, -1.850e-4
-1.027, -1.869e-4
-1.026, -1.886e-4
-1.025, -1.915e-4
-1.024, -1.943e-4
-1.023, -1.960e-4
-1.022, -1.982e-4
-1.021, -2.000e-4
-1.020, -2.027e-4
-1.019, -2.052e-4
-1.018, -2.079e-4
-1.017, -2.138e-4
-1.016, -2.134e-4
-1.015, -2.156e-4
-1.014, -2.176e-4
-1.013, -2.197e-4
-1.012, -2.224e-4
-1.011, -2.251e-4
-1.010, -2.264e-4
-1.009, -2.293e-4
-1.008, -2.312e-4
-1.007, -2.342e-4
-1.006, -2.363e-4
-1.005, -2.380e-4
-1.004, -2.401e-4
-1.003, -2.421e-4
-1.002, -2.444e-4
-1.001, -2.470e-4
