Mar. 14, 2025   06:40:11
Cyclic Voltammetry
File: c:/users/guazh/data/banditlqround7_x0exp891_r5/2025-03-03-exp890\exp890-2025-03-14t06_30_58-arkoh\exp890_cv_sr_50mvs_efin_-1500mv.bin
Data Source:  Experiment
Instrument Model:  CHI760E
Header: CV ran at 50 mVs
Note: 

Init E (V) = -1
High E (V) = -1
Low E (V) = -1.5
Final E (V) = -1
Init P/N = N
Scan Rate (V/s) = 0.05
Segment = 3
Sample Interval (V) = 0.001
Quiet Time (sec) = 2
Sensitivity (A/V) = 0.01
Comp R (ohm) = 1.7

Results:

Channel 1:
Segment 1:

Segment 2:

Segment 3:

Potential/V, Current/A

-1.000, 1.756e-7
-1.001, 4.063e-6
-1.002, 5.405e-6
-1.003, 6.322e-6
-1.004, 7.111e-6
-1.005, 7.555e-6
-1.006, 7.920e-6
-1.007, 8.157e-6
-1.008, 8.463e-6
-1.009, 8.946e-6
-1.010, 9.094e-6
-1.011, 9.213e-6
-1.012, 9.341e-6
-1.013, 9.696e-6
-1.014, 9.913e-6
-1.015, 1.006e-5
-1.016, 1.006e-5
-1.017, 1.011e-5
-1.018, 1.045e-5
-1.019, 1.060e-5
-1.020, 1.071e-5
-1.021, 1.073e-5
-1.022, 1.072e-5
-1.023, 1.106e-5
-1.024, 1.130e-5
-1.025, 1.140e-5
-1.026, 1.128e-5
-1.027, 1.120e-5
-1.028, 1.160e-5
-1.029, 1.167e-5
-1.030, 1.167e-5
-1.031, 1.169e-5
-1.032, 1.163e-5
-1.033, 1.181e-5
-1.034, 1.200e-5
-1.035, 1.191e-5
-1.036, 1.197e-5
-1.037, 1.197e-5
-1.038, 1.222e-5
-1.039, 1.232e-5
-1.040, 1.227e-5
-1.041, 1.226e-5
-1.042, 1.218e-5
-1.043, 1.240e-5
-1.044, 1.253e-5
-1.045, 1.244e-5
-1.046, 1.240e-5
-1.047, 1.242e-5
-1.048, 1.248e-5
-1.049, 1.272e-5
-1.050, 1.272e-5
-1.051, 1.254e-5
-1.052, 1.250e-5
-1.053, 1.273e-5
-1.054, 1.283e-5
-1.055, 1.277e-5
-1.056, 1.275e-5
-1.057, 1.273e-5
-1.058, 1.291e-5
-1.059, 1.287e-5
-1.060, 1.299e-5
-1.061, 1.289e-5
-1.062, 1.288e-5
-1.063, 1.306e-5
-1.064, 1.314e-5
-1.065, 1.306e-5
-1.066, 1.292e-5
-1.067, 1.302e-5
-1.068, 1.320e-5
-1.069, 1.323e-5
-1.070, 1.320e-5
-1.071, 1.317e-5
-1.072, 1.306e-5
-1.073, 1.318e-5
-1.074, 1.342e-5
-1.075, 1.342e-5
-1.076, 1.329e-5
-1.077, 1.321e-5
-1.078, 1.342e-5
-1.079, 1.358e-5
-1.080, 1.348e-5
-1.081, 1.335e-5
-1.082, 1.331e-5
-1.083, 1.353e-5
-1.084, 1.367e-5
-1.085, 1.350e-5
-1.086, 1.346e-5
-1.087, 1.348e-5
-1.088, 1.367e-5
-1.089, 1.378e-5
-1.090, 1.364e-5
-1.091, 1.358e-5
-1.092, 1.359e-5
-1.093, 1.382e-5
-1.094, 1.382e-5
-1.095, 1.397e-5
-1.096, 1.378e-5
-1.097, 1.360e-5
-1.098, 1.399e-5
-1.099, 1.399e-5
-1.100, 1.397e-5
-1.101, 1.392e-5
-1.102, 1.388e-5
-1.103, 1.411e-5
-1.104, 1.420e-5
-1.105, 1.410e-5
-1.106, 1.408e-5
-1.107, 1.411e-5
-1.108, 1.434e-5
-1.109, 1.436e-5
-1.110, 1.435e-5
-1.111, 1.421e-5
-1.112, 1.416e-5
-1.113, 1.438e-5
-1.114, 1.455e-5
-1.115, 1.449e-5
-1.116, 1.444e-5
-1.117, 1.438e-5
-1.118, 1.462e-5
-1.119, 1.477e-5
-1.120, 1.469e-5
-1.121, 1.456e-5
-1.122, 1.459e-5
-1.123, 1.477e-5
-1.124, 1.486e-5
-1.125, 1.479e-5
-1.126, 1.483e-5
-1.127, 1.487e-5
-1.128, 1.500e-5
-1.129, 1.507e-5
-1.130, 1.501e-5
-1.131, 1.490e-5
-1.132, 1.490e-5
-1.133, 1.527e-5
-1.134, 1.516e-5
-1.135, 1.518e-5
-1.136, 1.514e-5
-1.137, 1.511e-5
-1.138, 1.536e-5
-1.139, 1.541e-5
-1.140, 1.544e-5
-1.141, 1.526e-5
-1.142, 1.525e-5
-1.143, 1.559e-5
-1.144, 1.550e-5
-1.145, 1.550e-5
-1.146, 1.553e-5
-1.147, 1.555e-5
-1.148, 1.567e-5
-1.149, 1.576e-5
-1.150, 1.569e-5
-1.151, 1.560e-5
-1.152, 1.571e-5
-1.153, 1.582e-5
-1.154, 1.614e-5
-1.155, 1.590e-5
-1.156, 1.583e-5
-1.157, 1.582e-5
-1.158, 1.606e-5
-1.159, 1.620e-5
-1.160, 1.607e-5
-1.161, 1.599e-5
-1.162, 1.601e-5
-1.163, 1.628e-5
-1.164, 1.637e-5
-1.165, 1.618e-5
-1.166, 1.620e-5
-1.167, 1.616e-5
-1.168, 1.640e-5
-1.169, 1.634e-5
-1.170, 1.636e-5
-1.171, 1.632e-5
-1.172, 1.636e-5
-1.173, 1.661e-5
-1.174, 1.651e-5
-1.175, 1.662e-5
-1.176, 1.645e-5
-1.177, 1.654e-5
-1.178, 1.674e-5
-1.179, 1.673e-5
-1.180, 1.681e-5
-1.181, 1.665e-5
-1.182, 1.668e-5
-1.183, 1.694e-5
-1.184, 1.703e-5
-1.185, 1.696e-5
-1.186, 1.691e-5
-1.187, 1.687e-5
-1.188, 1.710e-5
-1.189, 1.707e-5
-1.190, 1.711e-5
-1.191, 1.715e-5
-1.192, 1.706e-5
-1.193, 1.726e-5
-1.194, 1.737e-5
-1.195, 1.722e-5
-1.196, 1.722e-5
-1.197, 1.722e-5
-1.198, 1.753e-5
-1.199, 1.750e-5
-1.200, 1.745e-5
-1.201, 1.740e-5
-1.202, 1.751e-5
-1.203, 1.761e-5
-1.204, 1.780e-5
-1.205, 1.767e-5
-1.206, 1.760e-5
-1.207, 1.769e-5
-1.208, 1.789e-5
-1.209, 1.798e-5
-1.210, 1.807e-5
-1.211, 1.793e-5
-1.212, 1.799e-5
-1.213, 1.824e-5
-1.214, 1.818e-5
-1.215, 1.827e-5
-1.216, 1.813e-5
-1.217, 1.817e-5
-1.218, 1.854e-5
-1.219, 1.864e-5
-1.220, 1.862e-5
-1.221, 1.850e-5
-1.222, 1.858e-5
-1.223, 1.890e-5
-1.224, 1.884e-5
-1.225, 1.898e-5
-1.226, 1.891e-5
-1.227, 1.894e-5
-1.228, 1.929e-5
-1.229, 1.955e-5
-1.230, 1.937e-5
-1.231, 1.948e-5
-1.232, 1.948e-5
-1.233, 1.978e-5
-1.234, 1.990e-5
-1.235, 1.986e-5
-1.236, 1.994e-5
-1.237, 1.996e-5
-1.238, 2.023e-5
-1.239, 2.045e-5
-1.240, 2.035e-5
-1.241, 2.045e-5
-1.242, 2.066e-5
-1.243, 2.094e-5
-1.244, 2.106e-5
-1.245, 2.104e-5
-1.246, 2.122e-5
-1.247, 2.118e-5
-1.248, 2.164e-5
-1.249, 2.171e-5
-1.250, 2.189e-5
-1.251, 2.195e-5
-1.252, 2.211e-5
-1.253, 2.243e-5
-1.254, 2.265e-5
-1.255, 2.275e-5
-1.256, 2.280e-5
-1.257, 2.316e-5
-1.258, 2.344e-5
-1.259, 2.364e-5
-1.260, 2.387e-5
-1.261, 2.406e-5
-1.262, 2.416e-5
-1.263, 2.468e-5
-1.264, 2.498e-5
-1.265, 2.504e-5
-1.266, 2.528e-5
-1.267, 2.565e-5
-1.268, 2.623e-5
-1.269, 2.651e-5
-1.270, 2.677e-5
-1.271, 2.706e-5
-1.272, 2.736e-5
-1.273, 2.795e-5
-1.274, 2.846e-5
-1.275, 2.881e-5
-1.276, 2.913e-5
-1.277, 2.958e-5
-1.278, 3.027e-5
-1.279, 3.079e-5
-1.280, 3.132e-5
-1.281, 3.178e-5
-1.282, 3.258e-5
-1.283, 3.329e-5
-1.284, 3.410e-5
-1.285, 3.458e-5
-1.286, 3.537e-5
-1.287, 3.638e-5
-1.288, 3.738e-5
-1.289, 3.822e-5
-1.290, 3.931e-5
-1.291, 4.029e-5
-1.292, 4.160e-5
-1.293, 4.307e-5
-1.294, 4.451e-5
-1.295, 4.614e-5
-1.296, 4.768e-5
-1.297, 4.980e-5
-1.298, 5.207e-5
-1.299, 5.447e-5
-1.300, 5.709e-5
-1.301, 6.009e-5
-1.302, 6.345e-5
-1.303, 6.744e-5
-1.304, 7.192e-5
-1.305, 7.671e-5
-1.306, 8.234e-5
-1.307, 8.866e-5
-1.308, 9.618e-5
-1.309, 1.041e-4
-1.310, 1.130e-4
-1.311, 1.229e-4
-1.312, 1.340e-4
-1.313, 1.467e-4
-1.314, 1.610e-4
-1.315, 1.767e-4
-1.316, 1.946e-4
-1.317, 2.143e-4
-1.318, 2.362e-4
-1.319, 2.606e-4
-1.320, 2.872e-4
-1.321, 3.158e-4
-1.322, 3.473e-4
-1.323, 3.819e-4
-1.324, 4.189e-4
-1.325, 4.591e-4
-1.326, 5.019e-4
-1.327, 5.478e-4
-1.328, 5.962e-4
-1.329, 6.454e-4
-1.330, 6.959e-4
-1.331, 7.455e-4
-1.332, 7.959e-4
-1.333, 8.479e-4
-1.334, 8.923e-4
-1.335, 9.311e-4
-1.336, 9.648e-4
-1.337, 9.945e-4
-1.338, 1.022e-3
-1.339, 1.048e-3
-1.340, 1.071e-3
-1.341, 1.096e-3
-1.342, 1.116e-3
-1.343, 1.139e-3
-1.344, 1.158e-3
-1.345, 1.178e-3
-1.346, 1.197e-3
-1.347, 1.216e-3
-1.348, 1.237e-3
-1.349, 1.256e-3
-1.350, 1.279e-3
-1.351, 1.300e-3
-1.352, 1.320e-3
-1.353, 1.343e-3
-1.354, 1.364e-3
-1.355, 1.387e-3
-1.356, 1.410e-3
-1.357, 1.430e-3
-1.358, 1.448e-3
-1.359, 1.469e-3
-1.360, 1.489e-3
-1.361, 1.511e-3
-1.362, 1.535e-3
-1.363, 1.556e-3
-1.364, 1.584e-3
-1.365, 1.606e-3
-1.366, 1.627e-3
-1.367, 1.649e-3
-1.368, 1.670e-3
-1.369, 1.693e-3
-1.370, 1.715e-3
-1.371, 1.736e-3
-1.372, 1.757e-3
-1.373, 1.786e-3
-1.374, 1.812e-3
-1.375, 1.835e-3
-1.376, 1.857e-3
-1.377, 1.883e-3
-1.378, 1.906e-3
-1.379, 1.928e-3
-1.380, 1.953e-3
-1.381, 1.990e-3
-1.382, 2.043e-3
-1.383, 2.079e-3
-1.384, 2.115e-3
-1.385, 2.127e-3
-1.386, 2.133e-3
-1.387, 2.171e-3
-1.388, 2.183e-3
-1.389, 2.212e-3
-1.390, 2.243e-3
-1.391, 2.277e-3
-1.392, 2.306e-3
-1.393, 2.330e-3
-1.394, 2.351e-3
-1.395, 2.370e-3
-1.396, 2.402e-3
-1.397, 2.426e-3
-1.398, 2.458e-3
-1.399, 2.487e-3
-1.400, 2.529e-3
-1.401, 2.546e-3
-1.402, 2.565e-3
-1.403, 2.599e-3
-1.404, 2.626e-3
-1.405, 2.652e-3
-1.406, 2.695e-3
-1.407, 2.724e-3
-1.408, 2.770e-3
-1.409, 2.795e-3
-1.410, 2.842e-3
-1.411, 2.859e-3
-1.412, 2.888e-3
-1.413, 2.919e-3
-1.414, 2.955e-3
-1.415, 2.973e-3
-1.416, 3.006e-3
-1.417, 3.044e-3
-1.418, 3.069e-3
-1.419, 3.102e-3
-1.420, 3.132e-3
-1.421, 3.154e-3
-1.422, 3.182e-3
-1.423, 3.221e-3
-1.424, 3.250e-3
-1.425, 3.285e-3
-1.426, 3.317e-3
-1.427, 3.373e-3
-1.428, 3.384e-3
-1.429, 3.416e-3
-1.430, 3.455e-3
-1.431, 3.491e-3
-1.432, 3.523e-3
-1.433, 3.540e-3
-1.434, 3.580e-3
-1.435, 3.601e-3
-1.436, 3.646e-3
-1.437, 3.695e-3
-1.438, 3.738e-3
-1.439, 3.771e-3
-1.440, 3.821e-3
-1.441, 3.843e-3
-1.442, 3.876e-3
-1.443, 3.918e-3
-1.444, 3.950e-3
-1.445, 3.994e-3
-1.446, 3.993e-3
-1.447, 4.024e-3
-1.448, 4.050e-3
-1.449, 4.115e-3
-1.450, 4.119e-3
-1.451, 4.157e-3
-1.452, 4.228e-3
-1.453, 4.300e-3
-1.454, 4.329e-3
-1.455, 4.355e-3
-1.456, 4.385e-3
-1.457, 4.426e-3
-1.458, 4.421e-3
-1.459, 4.439e-3
-1.460, 4.475e-3
-1.461, 4.524e-3
-1.462, 4.538e-3
-1.463, 4.572e-3
-1.464, 4.643e-3
-1.465, 4.686e-3
-1.466, 4.762e-3
-1.467, 4.743e-3
-1.468, 4.759e-3
-1.469, 4.780e-3
-1.470, 4.819e-3
-1.471, 4.880e-3
-1.472, 4.911e-3
-1.473, 4.928e-3
-1.474, 4.948e-3
-1.475, 4.970e-3
-1.476, 5.030e-3
-1.477, 5.084e-3
-1.478, 5.159e-3
-1.479, 5.158e-3
-1.480, 5.210e-3
-1.481, 5.226e-3
-1.482, 5.219e-3
-1.483, 5.222e-3
-1.484, 5.276e-3
-1.485, 5.255e-3
-1.486, 5.306e-3
-1.487, 5.356e-3
-1.488, 5.342e-3
-1.489, 5.354e-3
-1.490, 5.388e-3
-1.491, 5.424e-3
-1.492, 5.447e-3
-1.493, 5.510e-3
-1.494, 5.560e-3
-1.495, 5.588e-3
-1.496, 5.611e-3
-1.497, 5.641e-3
-1.498, 5.678e-3
-1.499, 5.687e-3
-1.500, 5.675e-3
-1.499, 5.657e-3
-1.498, 5.562e-3
-1.497, 5.494e-3
-1.496, 5.459e-3
-1.495, 5.447e-3
-1.494, 5.478e-3
-1.493, 5.504e-3
-1.492, 5.442e-3
-1.491, 5.391e-3
-1.490, 5.394e-3
-1.489, 5.378e-3
-1.488, 5.328e-3
-1.487, 5.336e-3
-1.486, 5.313e-3
-1.485, 5.247e-3
-1.484, 5.199e-3
-1.483, 5.133e-3
-1.482, 5.095e-3
-1.481, 5.031e-3
-1.480, 4.996e-3
-1.479, 4.918e-3
-1.478, 4.887e-3
-1.477, 4.838e-3
-1.476, 4.820e-3
-1.475, 4.773e-3
-1.474, 4.702e-3
-1.473, 4.639e-3
-1.472, 4.630e-3
-1.471, 4.586e-3
-1.470, 4.558e-3
-1.469, 4.472e-3
-1.468, 4.410e-3
-1.467, 4.356e-3
-1.466, 4.329e-3
-1.465, 4.373e-3
-1.464, 4.322e-3
-1.463, 4.257e-3
-1.462, 4.238e-3
-1.461, 4.220e-3
-1.460, 4.169e-3
-1.459, 4.123e-3
-1.458, 4.020e-3
-1.457, 3.960e-3
-1.456, 3.917e-3
-1.455, 3.964e-3
-1.454, 3.954e-3
-1.453, 3.871e-3
-1.452, 3.806e-3
-1.451, 3.863e-3
-1.450, 3.828e-3
-1.449, 3.794e-3
-1.448, 3.763e-3
-1.447, 3.745e-3
-1.446, 3.703e-3
-1.445, 3.660e-3
-1.444, 3.633e-3
-1.443, 3.600e-3
-1.442, 3.562e-3
-1.441, 3.515e-3
-1.440, 3.453e-3
-1.439, 3.417e-3
-1.438, 3.396e-3
-1.437, 3.347e-3
-1.436, 3.289e-3
-1.435, 3.242e-3
-1.434, 3.193e-3
-1.433, 3.158e-3
-1.432, 3.115e-3
-1.431, 3.062e-3
-1.430, 3.025e-3
-1.429, 3.015e-3
-1.428, 2.992e-3
-1.427, 2.937e-3
-1.426, 2.888e-3
-1.425, 2.825e-3
-1.424, 2.800e-3
-1.423, 2.766e-3
-1.422, 2.747e-3
-1.421, 2.719e-3
-1.420, 2.722e-3
-1.419, 2.693e-3
-1.418, 2.649e-3
-1.417, 2.645e-3
-1.416, 2.658e-3
-1.415, 2.670e-3
-1.414, 2.638e-3
-1.413, 2.596e-3
-1.412, 2.539e-3
-1.411, 2.498e-3
-1.410, 2.454e-3
-1.409, 2.422e-3
-1.408, 2.402e-3
-1.407, 2.382e-3
-1.406, 2.338e-3
-1.405, 2.310e-3
-1.404, 2.272e-3
-1.403, 2.243e-3
-1.402, 2.222e-3
-1.401, 2.190e-3
-1.400, 2.162e-3
-1.399, 2.131e-3
-1.398, 2.102e-3
-1.397, 2.090e-3
-1.396, 2.062e-3
-1.395, 2.034e-3
-1.394, 2.013e-3
-1.393, 1.984e-3
-1.392, 1.953e-3
-1.391, 1.924e-3
-1.390, 1.901e-3
-1.389, 1.866e-3
-1.388, 1.842e-3
-1.387, 1.821e-3
-1.386, 1.800e-3
-1.385, 1.763e-3
-1.384, 1.749e-3
-1.383, 1.730e-3
-1.382, 1.708e-3
-1.381, 1.682e-3
-1.380, 1.642e-3
-1.379, 1.605e-3
-1.378, 1.565e-3
-1.377, 1.546e-3
-1.376, 1.524e-3
-1.375, 1.505e-3
-1.374, 1.490e-3
-1.373, 1.472e-3
-1.372, 1.444e-3
-1.371, 1.412e-3
-1.370, 1.391e-3
-1.369, 1.375e-3
-1.368, 1.341e-3
-1.367, 1.315e-3
-1.366, 1.290e-3
-1.365, 1.267e-3
-1.364, 1.249e-3
-1.363, 1.231e-3
-1.362, 1.210e-3
-1.361, 1.189e-3
-1.360, 1.175e-3
-1.359, 1.162e-3
-1.358, 1.140e-3
-1.357, 1.128e-3
-1.356, 1.103e-3
-1.355, 1.080e-3
-1.354, 1.059e-3
-1.353, 1.042e-3
-1.352, 1.022e-3
-1.351, 9.991e-4
-1.350, 9.762e-4
-1.349, 9.593e-4
-1.348, 9.442e-4
-1.347, 9.247e-4
-1.346, 9.062e-4
-1.345, 8.861e-4
-1.344, 8.740e-4
-1.343, 8.600e-4
-1.342, 8.423e-4
-1.341, 8.325e-4
-1.340, 8.193e-4
-1.339, 8.000e-4
-1.338, 7.888e-4
-1.337, 7.725e-4
-1.336, 7.547e-4
-1.335, 7.375e-4
-1.334, 7.237e-4
-1.333, 7.071e-4
-1.332, 6.948e-4
-1.331, 6.799e-4
-1.330, 6.718e-4
-1.329, 6.564e-4
-1.328, 6.393e-4
-1.327, 6.191e-4
-1.326, 6.035e-4
-1.325, 5.880e-4
-1.324, 5.745e-4
-1.323, 5.648e-4
-1.322, 5.560e-4
-1.321, 5.426e-4
-1.320, 5.296e-4
-1.319, 5.178e-4
-1.318, 5.034e-4
-1.317, 4.912e-4
-1.316, 4.776e-4
-1.315, 4.637e-4
-1.314, 4.529e-4
-1.313, 4.418e-4
-1.312, 4.306e-4
-1.311, 4.258e-4
-1.310, 4.176e-4
-1.309, 4.077e-4
-1.308, 3.967e-4
-1.307, 3.856e-4
-1.306, 3.749e-4
-1.305, 3.648e-4
-1.304, 3.553e-4
-1.303, 3.448e-4
-1.302, 3.357e-4
-1.301, 3.283e-4
-1.300, 3.190e-4
-1.299, 3.096e-4
-1.298, 2.985e-4
-1.297, 2.893e-4
-1.296, 2.805e-4
-1.295, 2.727e-4
-1.294, 2.644e-4
-1.293, 2.555e-4
-1.292, 2.476e-4
-1.291, 2.403e-4
-1.290, 2.327e-4
-1.289, 2.256e-4
-1.288, 2.193e-4
-1.287, 2.130e-4
-1.286, 2.060e-4
-1.285, 1.991e-4
-1.284, 1.924e-4
-1.283, 1.857e-4
-1.282, 1.798e-4
-1.281, 1.736e-4
-1.280, 1.677e-4
-1.279, 1.617e-4
-1.278, 1.564e-4
-1.277, 1.510e-4
-1.276, 1.455e-4
-1.275, 1.401e-4
-1.274, 1.350e-4
-1.273, 1.303e-4
-1.272, 1.262e-4
-1.271, 1.212e-4
-1.270, 1.168e-4
-1.269, 1.126e-4
-1.268, 1.083e-4
-1.267, 1.042e-4
-1.266, 1.000e-4
-1.265, 9.601e-5
-1.264, 9.215e-5
-1.263, 8.868e-5
-1.262, 8.526e-5
-1.261, 8.155e-5
-1.260, 7.827e-5
-1.259, 7.518e-5
-1.258, 7.226e-5
-1.257, 6.944e-5
-1.256, 6.660e-5
-1.255, 6.394e-5
-1.254, 6.093e-5
-1.253, 5.836e-5
-1.252, 5.592e-5
-1.251, 5.337e-5
-1.250, 5.095e-5
-1.249, 4.849e-5
-1.248, 4.653e-5
-1.247, 4.439e-5
-1.246, 4.225e-5
-1.245, 4.026e-5
-1.244, 3.834e-5
-1.243, 3.668e-5
-1.242, 3.481e-5
-1.241, 3.296e-5
-1.240, 3.123e-5
-1.239, 2.949e-5
-1.238, 2.813e-5
-1.237, 2.660e-5
-1.236, 2.518e-5
-1.235, 2.364e-5
-1.234, 2.229e-5
-1.233, 2.108e-5
-1.232, 2.003e-5
-1.231, 1.862e-5
-1.230, 1.734e-5
-1.229, 1.604e-5
-1.228, 1.526e-5
-1.227, 1.417e-5
-1.226, 1.323e-5
-1.225, 1.208e-5
-1.224, 1.123e-5
-1.223, 1.045e-5
-1.222, 9.746e-6
-1.221, 9.055e-6
-1.220, 8.266e-6
-1.219, 7.388e-6
-1.218, 6.786e-6
-1.217, 6.135e-6
-1.216, 5.414e-6
-1.215, 4.625e-6
-1.214, 3.994e-6
-1.213, 3.540e-6
-1.212, 3.007e-6
-1.211, 2.317e-6
-1.210, 1.784e-6
-1.209, 1.290e-6
-1.208, 1.064e-6
-1.207, 5.111e-7
-1.206, 2.762e-8
-1.205, -3.670e-7
-1.204, -8.899e-7
-1.203, -1.255e-6
-1.202, -1.571e-6
-1.201, -2.044e-6
-1.200, -2.459e-6
-1.199, -2.843e-6
-1.198, -3.139e-6
-1.197, -3.376e-6
-1.196, -3.869e-6
-1.195, -4.077e-6
-1.194, -4.461e-6
-1.193, -4.521e-6
-1.192, -4.886e-6
-1.191, -5.142e-6
-1.190, -5.626e-6
-1.189, -5.724e-6
-1.188, -5.922e-6
-1.187, -6.089e-6
-1.186, -6.336e-6
-1.185, -6.701e-6
-1.184, -6.879e-6
-1.183, -6.948e-6
-1.182, -7.145e-6
-1.181, -7.382e-6
-1.180, -7.609e-6
-1.179, -7.974e-6
-1.178, -8.013e-6
-1.177, -8.220e-6
-1.176, -8.378e-6
-1.175, -8.595e-6
-1.174, -8.862e-6
-1.173, -8.723e-6
-1.172, -8.941e-6
-1.171, -9.158e-6
-1.170, -9.276e-6
-1.169, -9.463e-6
-1.168, -9.463e-6
-1.167, -9.542e-6
-1.166, -9.740e-6
-1.165, -1.003e-5
-1.164, -1.016e-5
-1.163, -1.022e-5
-1.162, -1.031e-5
-1.161, -1.049e-5
-1.160, -1.061e-5
-1.159, -1.082e-5
-1.158, -1.079e-5
-1.157, -1.082e-5
-1.156, -1.100e-5
-1.155, -1.108e-5
-1.154, -1.113e-5
-1.153, -1.116e-5
-1.152, -1.128e-5
-1.151, -1.146e-5
-1.150, -1.170e-5
-1.149, -1.171e-5
-1.148, -1.166e-5
-1.147, -1.178e-5
-1.146, -1.182e-5
-1.145, -1.210e-5
-1.144, -1.210e-5
-1.143, -1.197e-5
-1.142, -1.219e-5
-1.141, -1.229e-5
-1.140, -1.249e-5
-1.139, -1.267e-5
-1.138, -1.247e-5
-1.137, -1.255e-5
-1.136, -1.274e-5
-1.135, -1.288e-5
-1.134, -1.301e-5
-1.133, -1.282e-5
-1.132, -1.288e-5
-1.131, -1.311e-5
-1.130, -1.329e-5
-1.129, -1.336e-5
-1.128, -1.323e-5
-1.127, -1.332e-5
-1.126, -1.357e-5
-1.125, -1.368e-5
-1.124, -1.376e-5
-1.123, -1.366e-5
-1.122, -1.360e-5
-1.121, -1.383e-5
-1.120, -1.395e-5
-1.119, -1.403e-5
-1.118, -1.396e-5
-1.117, -1.402e-5
-1.116, -1.406e-5
-1.115, -1.436e-5
-1.114, -1.449e-5
-1.113, -1.440e-5
-1.112, -1.449e-5
-1.111, -1.457e-5
-1.110, -1.477e-5
-1.109, -1.477e-5
-1.108, -1.464e-5
-1.107, -1.483e-5
-1.106, -1.490e-5
-1.105, -1.518e-5
-1.104, -1.509e-5
-1.103, -1.509e-5
-1.102, -1.528e-5
-1.101, -1.549e-5
-1.100, -1.569e-5
-1.099, -1.573e-5
-1.098, -1.567e-5
-1.097, -1.574e-5
-1.096, -1.581e-5
-1.095, -1.605e-5
-1.094, -1.603e-5
-1.093, -1.593e-5
-1.092, -1.598e-5
-1.091, -1.626e-5
-1.090, -1.650e-5
-1.089, -1.645e-5
-1.088, -1.638e-5
-1.087, -1.646e-5
-1.086, -1.672e-5
-1.085, -1.674e-5
-1.084, -1.688e-5
-1.083, -1.671e-5
-1.082, -1.682e-5
-1.081, -1.709e-5
-1.080, -1.719e-5
-1.079, -1.737e-5
-1.078, -1.735e-5
-1.077, -1.734e-5
-1.076, -1.763e-5
-1.075, -1.789e-5
-1.074, -1.795e-5
-1.073, -1.794e-5
-1.072, -1.789e-5
-1.071, -1.813e-5
-1.070, -1.843e-5
-1.069, -1.843e-5
-1.068, -1.827e-5
-1.067, -1.849e-5
-1.066, -1.860e-5
-1.065, -1.891e-5
-1.064, -1.895e-5
-1.063, -1.899e-5
-1.062, -1.921e-5
-1.061, -1.929e-5
-1.060, -1.949e-5
-1.059, -1.961e-5
-1.058, -1.954e-5
-1.057, -1.966e-5
-1.056, -1.987e-5
-1.055, -2.011e-5
-1.054, -2.038e-5
-1.053, -2.025e-5
-1.052, -2.042e-5
-1.051, -2.070e-5
-1.050, -2.090e-5
-1.049, -2.119e-5
-1.048, -2.100e-5
-1.047, -2.118e-5
-1.046, -2.139e-5
-1.045, -2.155e-5
-1.044, -2.168e-5
-1.043, -2.166e-5
-1.042, -2.177e-5
-1.041, -2.203e-5
-1.040, -2.225e-5
-1.039, -2.236e-5
-1.038, -2.246e-5
-1.037, -2.253e-5
-1.036, -2.276e-5
-1.035, -2.314e-5
-1.034, -2.320e-5
-1.033, -2.321e-5
-1.032, -2.331e-5
-1.031, -2.357e-5
-1.030, -2.387e-5
-1.029, -2.401e-5
-1.028, -2.401e-5
-1.027, -2.428e-5
-1.026, -2.441e-5
-1.025, -2.485e-5
-1.024, -2.506e-5
-1.023, -2.502e-5
-1.022, -2.522e-5
-1.021, -2.539e-5
-1.020, -2.571e-5
-1.019, -2.595e-5
-1.018, -2.596e-5
-1.017, -2.628e-5
-1.016, -2.638e-5
-1.015, -2.667e-5
-1.014, -2.696e-5
-1.013, -2.698e-5
-1.012, -2.710e-5
-1.011, -2.760e-5
-1.010, -2.783e-5
-1.009, -2.806e-5
-1.008, -2.816e-5
-1.007, -2.836e-5
-1.006, -2.865e-5
-1.005, -2.908e-5
-1.004, -2.922e-5
-1.003, -2.935e-5
-1.002, -2.948e-5
-1.001, -2.983e-5
