July 10, 2024   21:11:17
Linear Sweep Voltammetry
File: c:/users/guazh/data/20240709_batch67/2024-07-10-exp4\pre-regen-2024-07-10t21_08_11-lsvinphos\pre-regen_lsv_50mvs_efin_-1900mv.bin
Data Source:  Experiment
Instrument Model:  CHI760E
Header: LSV ran at 50 mVs with Efin at -1900mV
Note: 

Init E (V) = -0.6
Final E (V) = -1.9
Scan Rate (V/s) = 0.05
Sample Interval (V) = 0.001
Quiet Time (sec) = 2
Sensitivity (A/V) = 1e-4
Comp R (ohm) = 8.2

Results:

Channel 1:
Ep = -1.076V
ip = 2.355e-5A
Ah = 4.548e-5C

Potential/V, Current/A

-0.600, 6.910e-5
-0.601, 6.927e-5
-0.602, 6.925e-5
-0.603, 6.918e-5
-0.604, 6.911e-5
-0.605, 6.904e-5
-0.606, 6.899e-5
-0.607, 6.888e-5
-0.608, 6.878e-5
-0.609, 6.862e-5
-0.610, 6.856e-5
-0.611, 6.855e-5
-0.612, 6.833e-5
-0.613, 6.826e-5
-0.614, 6.822e-5
-0.615, 6.801e-5
-0.616, 6.790e-5
-0.617, 6.781e-5
-0.618, 6.764e-5
-0.619, 6.753e-5
-0.620, 6.739e-5
-0.621, 6.734e-5
-0.622, 6.729e-5
-0.623, 6.711e-5
-0.624, 6.697e-5
-0.625, 6.697e-5
-0.626, 6.693e-5
-0.627, 6.685e-5
-0.628, 6.670e-5
-0.629, 6.662e-5
-0.630, 6.652e-5
-0.631, 6.648e-5
-0.632, 6.634e-5
-0.633, 6.631e-5
-0.634, 6.625e-5
-0.635, 6.616e-5
-0.636, 6.603e-5
-0.637, 6.595e-5
-0.638, 6.596e-5
-0.639, 6.590e-5
-0.640, 6.575e-5
-0.641, 6.569e-5
-0.642, 6.556e-5
-0.643, 6.545e-5
-0.644, 6.531e-5
-0.645, 6.528e-5
-0.646, 6.511e-5
-0.647, 6.493e-5
-0.648, 6.480e-5
-0.649, 6.484e-5
-0.650, 6.479e-5
-0.651, 6.471e-5
-0.652, 6.471e-5
-0.653, 6.455e-5
-0.654, 6.438e-5
-0.655, 6.428e-5
-0.656, 6.421e-5
-0.657, 6.412e-5
-0.658, 6.393e-5
-0.659, 6.407e-5
-0.660, 6.390e-5
-0.661, 6.392e-5
-0.662, 6.380e-5
-0.663, 6.370e-5
-0.664, 6.354e-5
-0.665, 6.337e-5
-0.666, 6.327e-5
-0.667, 6.320e-5
-0.668, 6.302e-5
-0.669, 6.299e-5
-0.670, 6.293e-5
-0.671, 6.289e-5
-0.672, 6.286e-5
-0.673, 6.284e-5
-0.674, 6.267e-5
-0.675, 6.254e-5
-0.676, 6.256e-5
-0.677, 6.251e-5
-0.678, 6.244e-5
-0.679, 6.238e-5
-0.680, 6.232e-5
-0.681, 6.223e-5
-0.682, 6.217e-5
-0.683, 6.207e-5
-0.684, 6.198e-5
-0.685, 6.192e-5
-0.686, 6.188e-5
-0.687, 6.179e-5
-0.688, 6.175e-5
-0.689, 6.173e-5
-0.690, 6.169e-5
-0.691, 6.177e-5
-0.692, 6.170e-5
-0.693, 6.166e-5
-0.694, 6.161e-5
-0.695, 6.159e-5
-0.696, 6.148e-5
-0.697, 6.127e-5
-0.698, 6.123e-5
-0.699, 6.112e-5
-0.700, 6.106e-5
-0.701, 6.112e-5
-0.702, 6.100e-5
-0.703, 6.091e-5
-0.704, 6.092e-5
-0.705, 6.095e-5
-0.706, 6.083e-5
-0.707, 6.075e-5
-0.708, 6.067e-5
-0.709, 6.069e-5
-0.710, 6.071e-5
-0.711, 6.063e-5
-0.712, 6.061e-5
-0.713, 6.060e-5
-0.714, 6.050e-5
-0.715, 6.043e-5
-0.716, 6.048e-5
-0.717, 6.048e-5
-0.718, 6.045e-5
-0.719, 6.043e-5
-0.720, 6.031e-5
-0.721, 6.029e-5
-0.722, 6.032e-5
-0.723, 6.028e-5
-0.724, 6.028e-5
-0.725, 6.022e-5
-0.726, 6.012e-5
-0.727, 6.007e-5
-0.728, 6.009e-5
-0.729, 6.012e-5
-0.730, 6.008e-5
-0.731, 6.031e-5
-0.732, 6.039e-5
-0.733, 6.023e-5
-0.734, 6.016e-5
-0.735, 6.005e-5
-0.736, 5.995e-5
-0.737, 5.988e-5
-0.738, 5.984e-5
-0.739, 5.980e-5
-0.740, 6.000e-5
-0.741, 6.006e-5
-0.742, 5.992e-5
-0.743, 5.985e-5
-0.744, 5.981e-5
-0.745, 5.979e-5
-0.746, 5.976e-5
-0.747, 5.972e-5
-0.748, 5.974e-5
-0.749, 5.970e-5
-0.750, 5.973e-5
-0.751, 5.972e-5
-0.752, 5.967e-5
-0.753, 5.973e-5
-0.754, 5.977e-5
-0.755, 5.976e-5
-0.756, 5.969e-5
-0.757, 5.963e-5
-0.758, 5.948e-5
-0.759, 5.942e-5
-0.760, 5.942e-5
-0.761, 5.938e-5
-0.762, 5.946e-5
-0.763, 5.941e-5
-0.764, 5.933e-5
-0.765, 5.915e-5
-0.766, 5.915e-5
-0.767, 5.932e-5
-0.768, 5.929e-5
-0.769, 5.924e-5
-0.770, 5.912e-5
-0.771, 5.908e-5
-0.772, 5.929e-5
-0.773, 5.914e-5
-0.774, 5.908e-5
-0.775, 5.903e-5
-0.776, 5.897e-5
-0.777, 5.912e-5
-0.778, 5.908e-5
-0.779, 5.905e-5
-0.780, 5.893e-5
-0.781, 5.894e-5
-0.782, 5.894e-5
-0.783, 5.894e-5
-0.784, 5.874e-5
-0.785, 5.861e-5
-0.786, 5.863e-5
-0.787, 5.880e-5
-0.788, 5.870e-5
-0.789, 5.861e-5
-0.790, 5.861e-5
-0.791, 5.872e-5
-0.792, 5.869e-5
-0.793, 5.850e-5
-0.794, 5.843e-5
-0.795, 5.857e-5
-0.796, 5.848e-5
-0.797, 5.857e-5
-0.798, 5.841e-5
-0.799, 5.853e-5
-0.800, 5.837e-5
-0.801, 5.824e-5
-0.802, 5.826e-5
-0.803, 5.831e-5
-0.804, 5.820e-5
-0.805, 5.824e-5
-0.806, 5.818e-5
-0.807, 5.806e-5
-0.808, 5.800e-5
-0.809, 5.796e-5
-0.810, 5.800e-5
-0.811, 5.796e-5
-0.812, 5.796e-5
-0.813, 5.789e-5
-0.814, 5.785e-5
-0.815, 5.800e-5
-0.816, 5.801e-5
-0.817, 5.786e-5
-0.818, 5.778e-5
-0.819, 5.783e-5
-0.820, 5.784e-5
-0.821, 5.782e-5
-0.822, 5.777e-5
-0.823, 5.782e-5
-0.824, 5.783e-5
-0.825, 5.795e-5
-0.826, 5.787e-5
-0.827, 5.779e-5
-0.828, 5.783e-5
-0.829, 5.776e-5
-0.830, 5.777e-5
-0.831, 5.798e-5
-0.832, 5.808e-5
-0.833, 5.805e-5
-0.834, 5.793e-5
-0.835, 5.796e-5
-0.836, 5.803e-5
-0.837, 5.807e-5
-0.838, 5.798e-5
-0.839, 5.797e-5
-0.840, 5.797e-5
-0.841, 5.808e-5
-0.842, 5.823e-5
-0.843, 5.818e-5
-0.844, 5.816e-5
-0.845, 5.811e-5
-0.846, 5.805e-5
-0.847, 5.800e-5
-0.848, 5.809e-5
-0.849, 5.810e-5
-0.850, 5.807e-5
-0.851, 5.812e-5
-0.852, 5.814e-5
-0.853, 5.823e-5
-0.854, 5.826e-5
-0.855, 5.833e-5
-0.856, 5.832e-5
-0.857, 5.833e-5
-0.858, 5.828e-5
-0.859, 5.827e-5
-0.860, 5.827e-5
-0.861, 5.830e-5
-0.862, 5.840e-5
-0.863, 5.842e-5
-0.864, 5.847e-5
-0.865, 5.858e-5
-0.866, 5.853e-5
-0.867, 5.861e-5
-0.868, 5.863e-5
-0.869, 5.865e-5
-0.870, 5.882e-5
-0.871, 5.923e-5
-0.872, 5.937e-5
-0.873, 5.942e-5
-0.874, 5.938e-5
-0.875, 5.948e-5
-0.876, 5.945e-5
-0.877, 5.940e-5
-0.878, 5.938e-5
-0.879, 5.962e-5
-0.880, 5.980e-5
-0.881, 5.985e-5
-0.882, 5.967e-5
-0.883, 5.973e-5
-0.884, 5.965e-5
-0.885, 5.969e-5
-0.886, 5.975e-5
-0.887, 5.964e-5
-0.888, 5.976e-5
-0.889, 5.997e-5
-0.890, 5.997e-5
-0.891, 5.995e-5
-0.892, 5.998e-5
-0.893, 5.998e-5
-0.894, 5.998e-5
-0.895, 6.010e-5
-0.896, 6.020e-5
-0.897, 6.030e-5
-0.898, 6.034e-5
-0.899, 6.040e-5
-0.900, 6.052e-5
-0.901, 6.061e-5
-0.902, 6.062e-5
-0.903, 6.071e-5
-0.904, 6.068e-5
-0.905, 6.088e-5
-0.906, 6.119e-5
-0.907, 6.132e-5
-0.908, 6.135e-5
-0.909, 6.134e-5
-0.910, 6.141e-5
-0.911, 6.153e-5
-0.912, 6.158e-5
-0.913, 6.165e-5
-0.914, 6.186e-5
-0.915, 6.206e-5
-0.916, 6.268e-5
-0.917, 6.287e-5
-0.918, 6.246e-5
-0.919, 6.257e-5
-0.920, 6.244e-5
-0.921, 6.242e-5
-0.922, 6.232e-5
-0.923, 6.230e-5
-0.924, 6.242e-5
-0.925, 6.259e-5
-0.926, 6.269e-5
-0.927, 6.272e-5
-0.928, 6.282e-5
-0.929, 6.286e-5
-0.930, 6.285e-5
-0.931, 6.298e-5
-0.932, 6.302e-5
-0.933, 6.296e-5
-0.934, 6.290e-5
-0.935, 6.283e-5
-0.936, 6.301e-5
-0.937, 6.302e-5
-0.938, 6.316e-5
-0.939, 6.319e-5
-0.940, 6.313e-5
-0.941, 6.350e-5
-0.942, 6.363e-5
-0.943, 6.348e-5
-0.944, 6.358e-5
-0.945, 6.386e-5
-0.946, 6.443e-5
-0.947, 6.437e-5
-0.948, 6.442e-5
-0.949, 6.450e-5
-0.950, 6.465e-5
-0.951, 6.466e-5
-0.952, 6.471e-5
-0.953, 6.472e-5
-0.954, 6.462e-5
-0.955, 6.449e-5
-0.956, 6.442e-5
-0.957, 6.436e-5
-0.958, 6.433e-5
-0.959, 6.436e-5
-0.960, 6.460e-5
-0.961, 6.457e-5
-0.962, 6.454e-5
-0.963, 6.462e-5
-0.964, 6.495e-5
-0.965, 6.574e-5
-0.966, 6.670e-5
-0.967, 6.672e-5
-0.968, 6.694e-5
-0.969, 6.693e-5
-0.970, 6.732e-5
-0.971, 6.832e-5
-0.972, 6.898e-5
-0.973, 6.921e-5
-0.974, 6.937e-5
-0.975, 6.944e-5
-0.976, 6.966e-5
-0.977, 7.002e-5
-0.978, 7.094e-5
-0.979, 7.199e-5
-0.980, 7.250e-5
-0.981, 7.271e-5
-0.982, 7.309e-5
-0.983, 7.320e-5
-0.984, 7.324e-5
-0.985, 7.338e-5
-0.986, 7.365e-5
-0.987, 7.366e-5
-0.988, 7.366e-5
-0.989, 7.360e-5
-0.990, 7.357e-5
-0.991, 7.370e-5
-0.992, 7.361e-5
-0.993, 7.347e-5
-0.994, 7.359e-5
-0.995, 7.372e-5
-0.996, 7.340e-5
-0.997, 7.329e-5
-0.998, 7.473e-5
-0.999, 7.572e-5
-1.000, 7.547e-5
-1.001, 7.538e-5
-1.002, 7.536e-5
-1.003, 7.554e-5
-1.004, 7.568e-5
-1.005, 7.616e-5
-1.006, 7.652e-5
-1.007, 7.821e-5
-1.008, 7.791e-5
-1.009, 7.765e-5
-1.010, 7.753e-5
-1.011, 7.734e-5
-1.012, 7.696e-5
-1.013, 7.667e-5
-1.014, 7.652e-5
-1.015, 7.652e-5
-1.016, 7.666e-5
-1.017, 7.658e-5
-1.018, 7.649e-5
-1.019, 7.629e-5
-1.020, 7.660e-5
-1.021, 7.656e-5
-1.022, 7.609e-5
-1.023, 7.575e-5
-1.024, 7.562e-5
-1.025, 7.543e-5
-1.026, 7.513e-5
-1.027, 7.494e-5
-1.028, 7.520e-5
-1.029, 7.496e-5
-1.030, 7.480e-5
-1.031, 7.464e-5
-1.032, 7.492e-5
-1.033, 7.449e-5
-1.034, 7.423e-5
-1.035, 7.418e-5
-1.036, 7.407e-5
-1.037, 7.381e-5
-1.038, 7.332e-5
-1.039, 7.317e-5
-1.040, 7.348e-5
-1.041, 7.340e-5
-1.042, 7.332e-5
-1.043, 7.296e-5
-1.044, 7.263e-5
-1.045, 7.255e-5
-1.046, 7.257e-5
-1.047, 7.436e-5
-1.048, 7.817e-5
-1.049, 7.753e-5
-1.050, 7.842e-5
-1.051, 7.927e-5
-1.052, 7.948e-5
-1.053, 7.953e-5
-1.054, 7.918e-5
-1.055, 7.872e-5
-1.056, 7.819e-5
-1.057, 7.797e-5
-1.058, 7.805e-5
-1.059, 7.774e-5
-1.060, 7.735e-5
-1.061, 7.701e-5
-1.062, 7.648e-5
-1.063, 7.603e-5
-1.064, 7.568e-5
-1.065, 7.535e-5
-1.066, 7.514e-5
-1.067, 7.520e-5
-1.068, 7.499e-5
-1.069, 7.937e-5
-1.070, 8.016e-5
-1.071, 7.846e-5
-1.072, 7.836e-5
-1.073, 7.924e-5
-1.074, 7.829e-5
-1.075, 7.941e-5
-1.076, 8.162e-5
-1.077, 8.027e-5
-1.078, 7.911e-5
-1.079, 7.847e-5
-1.080, 7.784e-5
-1.081, 7.709e-5
-1.082, 7.612e-5
-1.083, 7.644e-5
-1.084, 7.711e-5
-1.085, 7.719e-5
-1.086, 7.686e-5
-1.087, 7.627e-5
-1.088, 7.667e-5
-1.089, 7.748e-5
-1.090, 7.735e-5
-1.091, 7.723e-5
-1.092, 7.699e-5
-1.093, 7.691e-5
-1.094, 7.688e-5
-1.095, 7.600e-5
-1.096, 7.532e-5
-1.097, 7.464e-5
-1.098, 7.372e-5
-1.099, 7.295e-5
-1.100, 7.289e-5
-1.101, 7.269e-5
-1.102, 7.235e-5
-1.103, 7.182e-5
-1.104, 7.202e-5
-1.105, 7.207e-5
-1.106, 7.258e-5
-1.107, 7.235e-5
-1.108, 7.182e-5
-1.109, 7.149e-5
-1.110, 7.126e-5
-1.111, 7.096e-5
-1.112, 7.069e-5
-1.113, 7.015e-5
-1.114, 6.984e-5
-1.115, 6.983e-5
-1.116, 7.028e-5
-1.117, 7.042e-5
-1.118, 6.989e-5
-1.119, 6.995e-5
-1.120, 7.002e-5
-1.121, 6.985e-5
-1.122, 6.932e-5
-1.123, 6.890e-5
-1.124, 6.904e-5
-1.125, 6.925e-5
-1.126, 6.991e-5
-1.127, 7.059e-5
-1.128, 7.139e-5
-1.129, 7.168e-5
-1.130, 7.155e-5
-1.131, 7.118e-5
-1.132, 7.034e-5
-1.133, 6.947e-5
-1.134, 6.941e-5
-1.135, 6.958e-5
-1.136, 6.897e-5
-1.137, 6.881e-5
-1.138, 6.838e-5
-1.139, 6.763e-5
-1.140, 6.713e-5
-1.141, 6.660e-5
-1.142, 6.629e-5
-1.143, 6.599e-5
-1.144, 6.574e-5
-1.145, 6.582e-5
-1.146, 6.555e-5
-1.147, 6.493e-5
-1.148, 6.479e-5
-1.149, 6.442e-5
-1.150, 6.438e-5
-1.151, 6.455e-5
-1.152, 6.490e-5
-1.153, 6.565e-5
-1.154, 6.569e-5
-1.155, 6.521e-5
-1.156, 6.462e-5
-1.157, 6.423e-5
-1.158, 6.367e-5
-1.159, 6.322e-5
-1.160, 6.260e-5
-1.161, 6.207e-5
-1.162, 6.172e-5
-1.163, 6.109e-5
-1.164, 6.082e-5
-1.165, 6.061e-5
-1.166, 6.155e-5
-1.167, 6.245e-5
-1.168, 6.222e-5
-1.169, 6.140e-5
-1.170, 6.105e-5
-1.171, 6.077e-5
-1.172, 6.108e-5
-1.173, 6.119e-5
-1.174, 6.107e-5
-1.175, 6.084e-5
-1.176, 6.097e-5
-1.177, 6.122e-5
-1.178, 6.099e-5
-1.179, 6.073e-5
-1.180, 6.045e-5
-1.181, 6.045e-5
-1.182, 6.062e-5
-1.183, 6.130e-5
-1.184, 6.038e-5
-1.185, 5.986e-5
-1.186, 5.946e-5
-1.187, 5.932e-5
-1.188, 5.948e-5
-1.189, 5.961e-5
-1.190, 5.932e-5
-1.191, 5.943e-5
-1.192, 5.914e-5
-1.193, 5.882e-5
-1.194, 5.862e-5
-1.195, 5.861e-5
-1.196, 5.887e-5
-1.197, 5.863e-5
-1.198, 5.844e-5
-1.199, 5.845e-5
-1.200, 5.835e-5
-1.201, 5.798e-5
-1.202, 5.763e-5
-1.203, 5.731e-5
-1.204, 5.693e-5
-1.205, 5.697e-5
-1.206, 5.714e-5
-1.207, 5.706e-5
-1.208, 5.716e-5
-1.209, 5.710e-5
-1.210, 5.683e-5
-1.211, 5.672e-5
-1.212, 5.676e-5
-1.213, 5.655e-5
-1.214, 5.623e-5
-1.215, 5.602e-5
-1.216, 5.592e-5
-1.217, 5.585e-5
-1.218, 5.593e-5
-1.219, 5.594e-5
-1.220, 5.609e-5
-1.221, 5.622e-5
-1.222, 5.620e-5
-1.223, 5.686e-5
-1.224, 5.741e-5
-1.225, 5.786e-5
-1.226, 5.784e-5
-1.227, 5.785e-5
-1.228, 5.778e-5
-1.229, 5.768e-5
-1.230, 5.765e-5
-1.231, 5.774e-5
-1.232, 5.771e-5
-1.233, 5.758e-5
-1.234, 5.764e-5
-1.235, 5.785e-5
-1.236, 5.843e-5
-1.237, 5.847e-5
-1.238, 5.858e-5
-1.239, 5.853e-5
-1.240, 5.840e-5
-1.241, 5.823e-5
-1.242, 5.814e-5
-1.243, 5.814e-5
-1.244, 5.809e-5
-1.245, 5.809e-5
-1.246, 5.816e-5
-1.247, 5.816e-5
-1.248, 5.812e-5
-1.249, 5.812e-5
-1.250, 5.812e-5
-1.251, 5.806e-5
-1.252, 5.811e-5
-1.253, 5.822e-5
-1.254, 5.819e-5
-1.255, 5.843e-5
-1.256, 5.869e-5
-1.257, 5.876e-5
-1.258, 5.898e-5
-1.259, 5.975e-5
-1.260, 5.986e-5
-1.261, 5.967e-5
-1.262, 5.963e-5
-1.263, 5.947e-5
-1.264, 5.935e-5
-1.265, 5.935e-5
-1.266, 5.948e-5
-1.267, 5.952e-5
-1.268, 5.949e-5
-1.269, 5.954e-5
-1.270, 5.979e-5
-1.271, 5.991e-5
-1.272, 5.987e-5
-1.273, 5.980e-5
-1.274, 5.975e-5
-1.275, 5.968e-5
-1.276, 5.969e-5
-1.277, 5.966e-5
-1.278, 5.965e-5
-1.279, 5.979e-5
-1.280, 5.989e-5
-1.281, 5.988e-5
-1.282, 5.982e-5
-1.283, 5.984e-5
-1.284, 6.010e-5
-1.285, 6.031e-5
-1.286, 6.039e-5
-1.287, 6.036e-5
-1.288, 6.050e-5
-1.289, 6.093e-5
-1.290, 6.105e-5
-1.291, 6.133e-5
-1.292, 6.148e-5
-1.293, 6.154e-5
-1.294, 6.144e-5
-1.295, 6.141e-5
-1.296, 6.147e-5
-1.297, 6.131e-5
-1.298, 6.107e-5
-1.299, 6.100e-5
-1.300, 6.090e-5
-1.301, 6.076e-5
-1.302, 6.065e-5
-1.303, 6.056e-5
-1.304, 6.045e-5
-1.305, 6.056e-5
-1.306, 6.082e-5
-1.307, 6.078e-5
-1.308, 6.066e-5
-1.309, 6.055e-5
-1.310, 6.045e-5
-1.311, 6.044e-5
-1.312, 6.047e-5
-1.313, 6.047e-5
-1.314, 6.053e-5
-1.315, 6.052e-5
-1.316, 6.053e-5
-1.317, 6.051e-5
-1.318, 6.050e-5
-1.319, 6.053e-5
-1.320, 6.053e-5
-1.321, 6.056e-5
-1.322, 6.068e-5
-1.323, 6.066e-5
-1.324, 6.059e-5
-1.325, 6.068e-5
-1.326, 6.077e-5
-1.327, 6.072e-5
-1.328, 6.068e-5
-1.329, 6.069e-5
-1.330, 6.073e-5
-1.331, 6.119e-5
-1.332, 6.139e-5
-1.333, 6.101e-5
-1.334, 6.083e-5
-1.335, 6.076e-5
-1.336, 6.066e-5
-1.337, 6.065e-5
-1.338, 6.066e-5
-1.339, 6.066e-5
-1.340, 6.075e-5
-1.341, 6.085e-5
-1.342, 6.086e-5
-1.343, 6.083e-5
-1.344, 6.080e-5
-1.345, 6.081e-5
-1.346, 6.083e-5
-1.347, 6.085e-5
-1.348, 6.086e-5
-1.349, 6.085e-5
-1.350, 6.091e-5
-1.351, 6.108e-5
-1.352, 6.119e-5
-1.353, 6.135e-5
-1.354, 6.155e-5
-1.355, 6.162e-5
-1.356, 6.160e-5
-1.357, 6.161e-5
-1.358, 6.154e-5
-1.359, 6.145e-5
-1.360, 6.146e-5
-1.361, 6.152e-5
-1.362, 6.153e-5
-1.363, 6.158e-5
-1.364, 6.188e-5
-1.365, 6.241e-5
-1.366, 6.238e-5
-1.367, 6.253e-5
-1.368, 6.273e-5
-1.369, 6.298e-5
-1.370, 6.300e-5
-1.371, 6.274e-5
-1.372, 6.265e-5
-1.373, 6.254e-5
-1.374, 6.265e-5
-1.375, 6.280e-5
-1.376, 6.279e-5
-1.377, 6.280e-5
-1.378, 6.276e-5
-1.379, 6.279e-5
-1.380, 6.276e-5
-1.381, 6.272e-5
-1.382, 6.283e-5
-1.383, 6.284e-5
-1.384, 6.288e-5
-1.385, 6.295e-5
-1.386, 6.301e-5
-1.387, 6.304e-5
-1.388, 6.295e-5
-1.389, 6.307e-5
-1.390, 6.328e-5
-1.391, 6.331e-5
-1.392, 6.336e-5
-1.393, 6.343e-5
-1.394, 6.345e-5
-1.395, 6.348e-5
-1.396, 6.364e-5
-1.397, 6.377e-5
-1.398, 6.392e-5
-1.399, 6.409e-5
-1.400, 6.426e-5
-1.401, 6.425e-5
-1.402, 6.418e-5
-1.403, 6.437e-5
-1.404, 6.468e-5
-1.405, 6.475e-5
-1.406, 6.473e-5
-1.407, 6.463e-5
-1.408, 6.470e-5
-1.409, 6.498e-5
-1.410, 6.508e-5
-1.411, 6.526e-5
-1.412, 6.546e-5
-1.413, 6.552e-5
-1.414, 6.556e-5
-1.415, 6.558e-5
-1.416, 6.569e-5
-1.417, 6.581e-5
-1.418, 6.591e-5
-1.419, 6.612e-5
-1.420, 6.638e-5
-1.421, 6.670e-5
-1.422, 6.701e-5
-1.423, 6.698e-5
-1.424, 6.702e-5
-1.425, 6.715e-5
-1.426, 6.727e-5
-1.427, 6.744e-5
-1.428, 6.766e-5
-1.429, 6.792e-5
-1.430, 6.813e-5
-1.431, 6.822e-5
-1.432, 6.826e-5
-1.433, 6.817e-5
-1.434, 6.824e-5
-1.435, 6.859e-5
-1.436, 6.894e-5
-1.437, 6.915e-5
-1.438, 6.937e-5
-1.439, 6.961e-5
-1.440, 6.990e-5
-1.441, 7.019e-5
-1.442, 7.058e-5
-1.443, 7.091e-5
-1.444, 7.124e-5
-1.445, 7.160e-5
-1.446, 7.186e-5
-1.447, 7.211e-5
-1.448, 7.247e-5
-1.449, 7.267e-5
-1.450, 7.299e-5
-1.451, 7.319e-5
-1.452, 7.340e-5
-1.453, 7.369e-5
-1.454, 7.421e-5
-1.455, 7.478e-5
-1.456, 7.513e-5
-1.457, 7.536e-5
-1.458, 7.560e-5
-1.459, 7.579e-5
-1.460, 7.595e-5
-1.461, 7.619e-5
-1.462, 7.637e-5
-1.463, 7.658e-5
-1.464, 7.669e-5
-1.465, 7.670e-5
-1.466, 7.675e-5
-1.467, 7.703e-5
-1.468, 7.731e-5
-1.469, 7.778e-5
-1.470, 7.797e-5
-1.471, 7.788e-5
-1.472, 7.775e-5
-1.473, 7.773e-5
-1.474, 7.792e-5
-1.475, 7.825e-5
-1.476, 7.858e-5
-1.477, 7.900e-5
-1.478, 7.927e-5
-1.479, 7.938e-5
-1.480, 7.957e-5
-1.481, 7.982e-5
-1.482, 8.008e-5
-1.483, 8.055e-5
-1.484, 8.105e-5
-1.485, 8.151e-5
-1.486, 8.174e-5
-1.487, 8.154e-5
-1.488, 8.155e-5
-1.489, 8.161e-5
-1.490, 8.181e-5
-1.491, 8.207e-5
-1.492, 8.269e-5
-1.493, 8.329e-5
-1.494, 8.339e-5
-1.495, 8.365e-5
-1.496, 8.388e-5
-1.497, 8.386e-5
-1.498, 8.402e-5
-1.499, 8.479e-5
-1.500, 8.528e-5
-1.501, 8.537e-5
-1.502, 8.540e-5
-1.503, 8.548e-5
-1.504, 8.561e-5
-1.505, 8.590e-5
-1.506, 8.628e-5
-1.507, 8.666e-5
-1.508, 8.713e-5
-1.509, 8.760e-5
-1.510, 8.783e-5
-1.511, 8.803e-5
-1.512, 8.827e-5
-1.513, 8.855e-5
-1.514, 8.888e-5
-1.515, 8.917e-5
-1.516, 8.946e-5
-1.517, 9.006e-5
-1.518, 9.028e-5
-1.519, 9.045e-5
-1.520, 9.077e-5
-1.521, 9.103e-5
-1.522, 9.117e-5
-1.523, 9.146e-5
-1.524, 9.180e-5
-1.525, 9.224e-5
-1.526, 9.261e-5
-1.527, 9.293e-5
-1.528, 9.329e-5
-1.529, 9.345e-5
-1.530, 9.371e-5
-1.531, 9.386e-5
-1.532, 9.396e-5
-1.533, 9.435e-5
-1.534, 9.479e-5
-1.535, 9.519e-5
-1.536, 9.553e-5
-1.537, 9.585e-5
-1.538, 9.625e-5
-1.539, 9.653e-5
-1.540, 9.689e-5
-1.541, 9.717e-5
-1.542, 9.744e-5
-1.543, 9.765e-5
-1.544, 9.778e-5
-1.545, 9.791e-5
-1.546, 9.824e-5
-1.547, 9.876e-5
-1.548, 9.950e-5
-1.549, 1.001e-4
-1.550, 1.005e-4
-1.551, 1.008e-4
-1.552, 1.010e-4
-1.553, 1.013e-4
-1.554, 1.016e-4
-1.555, 1.018e-4
-1.556, 1.025e-4
-1.557, 1.031e-4
-1.558, 1.034e-4
-1.559, 1.037e-4
-1.560, 1.042e-4
-1.561, 1.047e-4
-1.562, 1.051e-4
-1.563, 1.054e-4
-1.564, 1.059e-4
-1.565, 1.063e-4
-1.566, 1.066e-4
-1.567, 1.071e-4
-1.568, 1.076e-4
-1.569, 1.081e-4
-1.570, 1.087e-4
-1.571, 1.092e-4
-1.572, 1.097e-4
-1.573, 1.102e-4
-1.574, 1.109e-4
-1.575, 1.116e-4
-1.576, 1.121e-4
-1.577, 1.126e-4
-1.578, 1.131e-4
-1.579, 1.135e-4
-1.580, 1.140e-4
-1.581, 1.145e-4
-1.582, 1.151e-4
-1.583, 1.158e-4
-1.584, 1.165e-4
-1.585, 1.171e-4
-1.586, 1.176e-4
-1.587, 1.182e-4
-1.588, 1.188e-4
-1.589, 1.197e-4
-1.590, 1.206e-4
-1.591, 1.211e-4
-1.592, 1.217e-4
-1.593, 1.224e-4
-1.594, 1.232e-4
-1.595, 1.242e-4
-1.596, 1.248e-4
-1.597, 1.255e-4
-1.598, 1.260e-4
-1.599, 1.268e-4
-1.600, 1.280e-4
-1.601, 1.292e-4
-1.602, 1.300e-4
-1.603, 1.307e-4
-1.604, 1.313e-4
-1.605, 1.320e-4
-1.606, 1.326e-4
-1.607, 1.331e-4
-1.608, 1.335e-4
-1.609, 1.338e-4
-1.610, 1.342e-4
-1.611, 1.347e-4
-1.612, 1.352e-4
-1.613, 1.359e-4
-1.614, 1.365e-4
-1.615, 1.372e-4
-1.616, 1.380e-4
-1.617, 1.387e-4
-1.618, 1.396e-4
-1.619, 1.405e-4
-1.620, 1.413e-4
-1.621, 1.421e-4
-1.622, 1.429e-4
-1.623, 1.440e-4
-1.624, 1.455e-4
-1.625, 1.464e-4
-1.626, 1.473e-4
-1.627, 1.481e-4
-1.628, 1.486e-4
-1.629, 1.493e-4
-1.630, 1.500e-4
-1.631, 1.507e-4
-1.632, 1.512e-4
-1.633, 1.519e-4
-1.634, 1.527e-4
-1.635, 1.534e-4
-1.636, 1.542e-4
-1.637, 1.548e-4
-1.638, 1.556e-4
-1.639, 1.566e-4
-1.640, 1.576e-4
-1.641, 1.586e-4
-1.642, 1.594e-4
-1.643, 1.603e-4
-1.644, 1.611e-4
-1.645, 1.620e-4
-1.646, 1.628e-4
-1.647, 1.637e-4
-1.648, 1.646e-4
-1.649, 1.656e-4
-1.650, 1.667e-4
-1.651, 1.677e-4
-1.652, 1.686e-4
-1.653, 1.696e-4
-1.654, 1.707e-4
-1.655, 1.716e-4
-1.656, 1.727e-4
-1.657, 1.737e-4
-1.658, 1.747e-4
-1.659, 1.759e-4
-1.660, 1.769e-4
-1.661, 1.780e-4
-1.662, 1.790e-4
-1.663, 1.802e-4
-1.664, 1.814e-4
-1.665, 1.826e-4
-1.666, 1.838e-4
-1.667, 1.850e-4
-1.668, 1.862e-4
-1.669, 1.874e-4
-1.670, 1.886e-4
-1.671, 1.898e-4
-1.672, 1.910e-4
-1.673, 1.922e-4
-1.674, 1.936e-4
-1.675, 1.947e-4
-1.676, 1.960e-4
-1.677, 1.974e-4
-1.678, 1.987e-4
-1.679, 2.000e-4
-1.680, 2.014e-4
-1.681, 2.027e-4
-1.682, 2.039e-4
-1.683, 2.052e-4
-1.684, 2.066e-4
-1.685, 2.080e-4
-1.686, 2.094e-4
-1.687, 2.109e-4
-1.688, 2.122e-4
-1.689, 2.137e-4
-1.690, 2.153e-4
-1.691, 2.168e-4
-1.692, 2.182e-4
-1.693, 2.197e-4
-1.694, 2.212e-4
-1.695, 2.228e-4
-1.696, 2.243e-4
-1.697, 2.258e-4
-1.698, 2.273e-4
-1.699, 2.290e-4
-1.700, 2.308e-4
-1.701, 2.324e-4
-1.702, 2.340e-4
-1.703, 2.358e-4
-1.704, 2.376e-4
-1.705, 2.394e-4
-1.706, 2.411e-4
-1.707, 2.428e-4
-1.708, 2.447e-4
-1.709, 2.467e-4
-1.710, 2.485e-4
-1.711, 2.503e-4
-1.712, 2.522e-4
-1.713, 2.543e-4
-1.714, 2.562e-4
-1.715, 2.579e-4
-1.716, 2.598e-4
-1.717, 2.617e-4
-1.718, 2.636e-4
-1.719, 2.656e-4
-1.720, 2.678e-4
-1.721, 2.699e-4
-1.722, 2.721e-4
-1.723, 2.742e-4
-1.724, 2.762e-4
-1.725, 2.783e-4
-1.726, 2.807e-4
-1.727, 2.829e-4
-1.728, 2.851e-4
-1.729, 2.874e-4
-1.730, 2.896e-4
-1.731, 2.919e-4
-1.732, 2.943e-4
-1.733, 2.965e-4
-1.734, 2.986e-4
-1.735, 3.007e-4
-1.736, 3.032e-4
-1.737, 3.058e-4
-1.738, 3.083e-4
-1.739, 3.109e-4
-1.740, 3.136e-4
-1.741, 3.159e-4
-1.742, 3.183e-4
-1.743, 3.208e-4
-1.744, 3.234e-4
-1.745, 3.262e-4
-1.746, 3.290e-4
-1.747, 3.316e-4
-1.748, 3.344e-4
-1.749, 3.371e-4
-1.750, 3.400e-4
-1.751, 3.427e-4
-1.752, 3.455e-4
-1.753, 3.486e-4
-1.754, 3.517e-4
-1.755, 3.544e-4
-1.756, 3.573e-4
-1.757, 3.603e-4
-1.758, 3.633e-4
-1.759, 3.664e-4
-1.760, 3.698e-4
-1.761, 3.731e-4
-1.762, 3.763e-4
-1.763, 3.795e-4
-1.764, 3.828e-4
-1.765, 3.861e-4
-1.766, 3.893e-4
-1.767, 3.927e-4
-1.768, 3.961e-4
-1.769, 3.997e-4
-1.770, 4.032e-4
-1.771, 4.069e-4
-1.772, 4.106e-4
-1.773, 4.143e-4
-1.774, 4.182e-4
-1.775, 4.220e-4
-1.776, 4.259e-4
-1.777, 4.298e-4
-1.778, 4.336e-4
-1.779, 4.375e-4
-1.780, 4.416e-4
-1.781, 4.456e-4
-1.782, 4.497e-4
-1.783, 4.538e-4
-1.784, 4.580e-4
-1.785, 4.623e-4
-1.786, 4.664e-4
-1.787, 4.707e-4
-1.788, 4.751e-4
-1.789, 4.794e-4
-1.790, 4.837e-4
-1.791, 4.881e-4
-1.792, 4.926e-4
-1.793, 4.972e-4
-1.794, 5.021e-4
-1.795, 5.070e-4
-1.796, 5.116e-4
-1.797, 5.163e-4
-1.798, 5.211e-4
-1.799, 5.261e-4
-1.800, 5.311e-4
-1.801, 5.360e-4
-1.802, 5.412e-4
-1.803, 5.463e-4
-1.804, 5.513e-4
-1.805, 5.566e-4
-1.806, 5.619e-4
-1.807, 5.672e-4
-1.808, 5.727e-4
-1.809, 5.782e-4
-1.810, 5.839e-4
-1.811, 5.895e-4
-1.812, 5.953e-4
-1.813, 6.011e-4
-1.814, 6.071e-4
-1.815, 6.133e-4
-1.816, 6.194e-4
-1.817, 6.255e-4
-1.818, 6.315e-4
-1.819, 6.377e-4
-1.820, 6.442e-4
-1.821, 6.505e-4
-1.822, 6.569e-4
-1.823, 6.633e-4
-1.824, 6.699e-4
-1.825, 6.766e-4
-1.826, 6.834e-4
-1.827, 6.902e-4
-1.828, 6.970e-4
-1.829, 7.040e-4
-1.830, 7.111e-4
-1.831, 7.183e-4
-1.832, 7.256e-4
-1.833, 7.328e-4
-1.834, 7.402e-4
-1.835, 7.479e-4
-1.836, 7.552e-4
-1.837, 7.627e-4
-1.838, 7.703e-4
-1.839, 7.782e-4
-1.840, 7.862e-4
-1.841, 7.942e-4
-1.842, 8.022e-4
-1.843, 8.104e-4
-1.844, 8.187e-4
-1.845, 8.268e-4
-1.846, 8.350e-4
-1.847, 8.435e-4
-1.848, 8.520e-4
-1.849, 8.606e-4
-1.850, 8.694e-4
-1.851, 8.782e-4
-1.852, 8.870e-4
-1.853, 8.959e-4
-1.854, 9.049e-4
-1.855, 9.140e-4
-1.856, 9.232e-4
-1.857, 9.324e-4
-1.858, 9.416e-4
-1.859, 9.509e-4
-1.860, 9.604e-4
-1.861, 9.699e-4
-1.862, 9.793e-4
-1.863, 9.889e-4
-1.864, 9.986e-4
-1.865, 1.008e-3
-1.866, 1.011e-3
-1.867, 1.011e-3
-1.868, 1.011e-3
-1.869, 1.011e-3
-1.870, 1.011e-3
-1.871, 1.011e-3
-1.872, 1.011e-3
-1.873, 1.011e-3
-1.874, 1.011e-3
-1.875, 1.011e-3
-1.876, 1.011e-3
-1.877, 1.011e-3
-1.878, 1.011e-3
-1.879, 1.011e-3
-1.880, 1.011e-3
-1.881, 1.011e-3
-1.882, 1.011e-3
-1.883, 1.011e-3
-1.884, 1.011e-3
-1.885, 1.011e-3
-1.886, 1.011e-3
-1.887, 1.011e-3
-1.888, 1.011e-3
-1.889, 1.011e-3
-1.890, 1.011e-3
-1.891, 1.011e-3
-1.892, 1.011e-3
-1.893, 1.011e-3
-1.894, 1.011e-3
-1.895, 1.011e-3
-1.896, 1.011e-3
-1.897, 1.011e-3
-1.898, 1.011e-3
-1.899, 1.011e-3
