Potential V vs RHE, Current mA cm-2
0.013299999999999867,16.52382798242363
0.012299999999999978,14.61396772760583
0.011299999999999866,12.77767246038101
0.010299999999999976,10.94562132705579
0.009299999999999864,9.06971414343475
0.008299999999999974,7.237663010109527
0.007299999999999862,5.405611876784305
0.006299999999999972,3.5749754547589476
0.00529999999999986,1.8292217107254924
0.0042999999999999705,0.04140859974704963
0.0032999999999998586,-1.6156003044458718
0.0022999999999999687,-3.2297858975918787
0.0012999999999998568,-4.843971490737885
0.00029999999999996696,-6.37044498329226
-0.000700000000000145,-7.984630576438266
-0.0017000000000000348,-9.511104068992642
-0.0027000000000001467,-11.123874950838783
-0.0037000000000000366,-12.73806054398479
-0.0047000000000001485,-14.345172580631472
-0.005700000000000038,-15.972090575476265
-0.00670000000000015,-17.48583166633185
-0.00770000000000004,-19.01371987018609
-0.008700000000000152,-20.499166735044383
-0.009700000000000042,-21.94217226090672
-0.010700000000000154,-23.385177786769056
-0.011700000000000044,-24.771594860636792
-0.012700000000000156,-26.129717708507226
-0.013700000000000045,-27.572723234369565
-0.014700000000000157,-28.959140308237306
-0.015700000000000047,-30.402145834099635
-0.01670000000000016,-31.84515135996197
-0.01770000000000005,-33.288156885824314
-0.01870000000000016,-34.67457395969205
-0.01970000000000005,-36.07513814655844
-0.020700000000000163,-37.334231203438314
-0.021700000000000053,-38.6499127123128
-0.022700000000000164,-39.86656443019674
-0.023700000000000054,-41.139804600075266
-0.024700000000000166,-42.39889765695515
-0.025700000000000056,-43.657990713835034
-0.026700000000000168,-44.97367222270952
-0.027700000000000058,-46.3176479575813
-0.02870000000000017,-47.67577080545174
-0.02970000000000006,-48.93486386233162
-0.03070000000000017,-50.2505453712061
-0.03170000000000006,-51.46719708909004
-0.03270000000000017,-52.69799591997262
-0.03370000000000006,-53.82976495986464
-0.034700000000000175,-54.961533999756675
-0.035700000000000065,-56.1781857176406
-0.03670000000000018,-57.30995475753264
-0.03770000000000007,-58.583194927411164
-0.03870000000000018,-59.7998466452951
-0.03970000000000007,-61.07308681517363
-0.04070000000000018,-62.33217987205352
-0.04170000000000007,-63.5063902509415
-0.04270000000000018,-64.68060062982947
-0.04370000000000007,-65.82651678272015
-0.044700000000000184,-66.9582858226122
-0.045700000000000074,-68.04761352350828
-0.046700000000000186,-69.0944998854084
-0.047700000000000076,-70.14138624730852
-0.04870000000000019,-71.31559662619651
-0.04970000000000008,-72.48980700508447
-0.05070000000000019,-73.72060583596706
-0.05170000000000008,-74.93725755385098
-0.05270000000000019,-76.11146793273898
-0.05370000000000008,-77.28567831162695
-0.05470000000000019,-78.43159446451764
-0.05570000000000008,-79.52092216541372
-0.056700000000000195,-80.56780852731384
-0.057700000000000085,-81.57225355021802
-0.058700000000000196,-82.56255146012353
-0.059700000000000086,-83.60943782202366
-0.0607000000000002,-84.61388284492786
-0.06170000000000009,-85.75979899781852
-0.0627000000000002,-86.89156803771054
-0.06370000000000009,-87.98089573860662
-0.0647000000000002,-89.07022343950271
-0.06570000000000009,-90.15955114039879
-0.0667000000000002,-91.16399616330297
-0.0677000000000001,-92.12599984721119
-0.0687000000000002,-93.08800353111941
-0.0697000000000001,-93.99341876303303
-0.07070000000000021,-94.95542244694126
-0.0717000000000001,-95.87498479185354
-0.07270000000000021,-96.92187115375367
-0.0737000000000001,-97.92631617665783
-0.07470000000000021,-98.97320253855796
-0.0757000000000001,-100.02008890045809
-0.07670000000000021,-101.06697526235823
-0.0777000000000001,-102.07142028526239
-0.07870000000000021,-103.01927685617197
-0.0797000000000001,-103.98128054008019
-0.08070000000000022,-104.90084288499246
-0.0817000000000001,-105.86284656890071
-0.08270000000000022,-106.78240891381296
-0.08370000000000011,-107.73026548472255
-0.08470000000000022,-108.73471050762672
-0.08570000000000011,-109.78159686952685
-0.08670000000000022,-110.87092457042293
-0.08770000000000011,-111.91781093232305
-0.08870000000000022,-112.96469729422319
-0.08970000000000011,-113.96914231712736
-0.09070000000000022,-114.93114600103557
-0.09170000000000011,-115.8931496849438
-0.09270000000000023,-116.77027069086012
-0.09370000000000012,-117.71812726176971
-0.09470000000000023,-118.63768960668197
-0.09570000000000012,-119.64213462958614
-0.09670000000000023,-120.68902099148629
-0.09770000000000012,-121.73590735338641
-0.09870000000000023,-122.74035237629057
-0.09970000000000012,-123.74479739919475
-0.10070000000000023,-124.70680108310299
-0.10170000000000012,-125.6688047670112
-0.10270000000000024,-126.57421999892482
-0.10370000000000013,-127.4937823438371
-0.10470000000000024,-128.37090334975343
-0.10570000000000013,-129.27631858166706
-0.10670000000000024,-130.23832226557528
-0.10770000000000013,-131.24276728847948
-0.10870000000000024,-132.2896536503796
-0.10970000000000013,-133.3365400122797
-0.11070000000000024,-134.42586771317576
-0.11170000000000013,-135.43031273607997
-0.11270000000000002,-136.43475775898415
-0.11370000000000013,-137.39676144289237
-0.11470000000000002,-138.3163237878046
-0.11570000000000014,-139.27832747171286
-0.11670000000000003,-140.14130136463055
-0.11770000000000014,-141.10330504853877
-0.11870000000000003,-142.03701450644968
-0.11970000000000014,-143.16878354634173
-0.12070000000000003,-144.15908145624724
-0.12170000000000014,-145.29085049613926
-0.12270000000000003,-146.28114840604482
-0.12370000000000014,-147.27144631595033
-0.12470000000000003,-148.40321535584232
-0.12570000000000014,-149.25204213576137
-0.12670000000000003,-150.24234004566688
-0.12770000000000015,-151.09116682558593
-0.12870000000000004,-151.93999360550492
-0.12970000000000015,-152.93029151541046
-0.13070000000000004,-153.920589425316
-0.13170000000000015,-154.9108873352215
-0.13270000000000004,-156.04265637511355
-0.13370000000000015,-157.03295428501906
-0.13470000000000004,-158.02325219492457
-0.13570000000000015,-159.01355010483013
-0.13670000000000004,-160.00384801473567
-0.13770000000000016,-160.99414592464117
-0.13870000000000005,-161.84297270456022
-0.13970000000000016,-162.6917994844792
-0.14070000000000005,-163.68209739438475
-0.14170000000000016,-164.53092417430375
-0.14270000000000005,-165.5212220842093
-0.14370000000000016,-166.51151999411482
-0.14470000000000005,-167.50181790402033
-0.14570000000000016,-168.49211581392586
-0.14670000000000005,-169.48241372383137
-0.14770000000000016,-170.47271163373694
-0.14870000000000005,-171.32153841365593
-0.14970000000000017,-172.31183632356147
-0.15070000000000006,-173.16066310348046
-0.15170000000000017,-174.150961013386
-0.15270000000000006,-175.14125892329156
-0.15370000000000017,-176.13155683319707
-0.15470000000000006,-177.2633258730891
-0.15570000000000017,-178.25362378299462
-0.15670000000000006,-179.24392169290016
-0.15770000000000017,-180.23421960280567
-0.15870000000000006,-181.08304638272472
-0.15970000000000018,-182.07334429263022
-0.16070000000000007,-183.06364220253573
-0.16170000000000018,-184.05394011244127
-0.16270000000000007,-184.9027668923603
-0.16370000000000018,-185.7515936722793
-0.16470000000000007,-186.74189158218485
-0.16570000000000018,-187.59071836210387
-0.16670000000000007,-188.72248740199586
-0.16770000000000018,-189.71278531190143
-0.16870000000000007,-190.84455435179345
-0.16970000000000018,-191.9763233916855
-0.17070000000000007,-192.966621301591
-0.17170000000000019,-193.81544808151003
-0.17270000000000008,-194.80574599141553
-0.1737000000000002,-195.79604390132107
-0.17470000000000008,-196.6448706812401
-0.1757000000000002,-197.49369746115914
-0.17670000000000008,-198.48399537106465
-0.1777000000000002,-199.61576441095667
-0.17870000000000008,-200.6060623208622
-0.1797000000000002,-201.59636023076774
-0.18070000000000008,-202.58665814067325
-0.1817000000000002,-203.57695605057876
-0.18270000000000008,-204.5672539604843
-0.1837000000000002,-205.41608074040332
-0.1847000000000001,-206.40637865030885
-0.1857000000000002,-207.25520543022787
-0.1867000000000001,-208.1040322101469
-0.1877000000000002,-208.95285899006592
-0.1887000000000001,-209.8016857699849
-0.1897000000000002,-210.79198367989048
-0.1907000000000001,-211.782281589796
-0.1917000000000001,-212.77257949970152
-0.19269999999999998,-213.76287740960703
-0.1937000000000001,-214.61170418952605
-0.19469999999999998,-215.6020020994316
-0.1957000000000001,-216.4508288793506
-0.19669999999999999,-217.29965565926966
-0.1977000000000001,-218.14848243918865
-0.1987,-218.99730921910768
-0.1997000000000001,-219.98760712901318
-0.2007,-220.83643390893224
-0.2017000000000001,-221.82673181883774
-0.2027,-222.81702972874328
-0.2037000000000001,-223.9487987686353
-0.2047,-224.93909667854084
-0.2057000000000001,-225.92939458844637
-0.2067,-226.91969249835188
-0.2077000000000001,-227.9099904082574
-0.2087,-228.75881718817644
-0.2097000000000001,-229.60764396809546
-0.2107,-230.59794187800094
-0.2117000000000001,-231.5882397879065
-0.2127,-232.57853769781204
-0.2137000000000001,-233.56883560771757
-0.2147,-234.55913351762308
-0.2157000000000001,-235.69090255751513
-0.2167,-236.6812004674206
-0.21770000000000012,-237.67149837732615
-0.2187,-238.5203251572452
-0.21970000000000012,-239.5106230671507
-0.2207,-240.50092097705624
-0.22170000000000012,-241.34974775697523
-0.2227,-242.34004566688077
-0.22370000000000012,-243.18887244679982
-0.2247,-244.17917035670533
-0.22570000000000012,-245.16946826661086
-0.2267,-246.15976617651637
-0.22770000000000012,-247.1500640864219
-0.22870000000000001,-248.14036199632744
-0.22970000000000013,-248.9891887762465
-0.23070000000000002,-249.979486686152
-0.23170000000000013,-250.828313466071
-0.23270000000000002,-251.67714024599002
-0.23370000000000013,-252.52596702590907
-0.23470000000000002,-253.37479380582806
-0.23570000000000013,-254.36509171573357
-0.23670000000000002,-255.35538962563913
-0.2376999999999999,-256.34568753554464
-0.23870000000000002,-257.4774565754367
-0.2396999999999999,-258.4677544853422
-0.24070000000000003,-259.4580523952477
-0.24169999999999991,-260.3068791751668
-0.24270000000000003,-261.2971770850723
-0.24369999999999992,-262.1460038649913
-0.24470000000000003,-262.9948306449103
-0.24569999999999992,-263.98512855481584
-0.24670000000000003,-264.83395533473487
-0.24769999999999992,-265.82425324464043
-0.24870000000000003,-266.9560222845325
-0.24969999999999992,-267.94632019443793
-0.25070000000000003,-268.93661810434344
-0.2516999999999999,-270.0683871442355
-0.25270000000000004,-271.05868505414105
-0.2536999999999999,-271.9075118340601
-0.25470000000000004,-272.8978097439656
-0.2556999999999999,-273.7466365238846
-0.25670000000000004,-274.5954633038036
-0.25769999999999993,-275.58576121370913
-0.25870000000000004,-276.43458799362816
-0.25969999999999993,-277.4248859035337
-0.26070000000000004,-278.4151838134392
-0.26169999999999993,-279.40548172334474
-0.26270000000000004,-280.3957796332503
-0.26369999999999993,-281.3860775431558
-0.26470000000000005,-282.2349043230748
-0.26569999999999994,-283.22520223298034
-0.26670000000000005,-284.07402901289936
-0.26769999999999994,-284.9228557928184
-0.26870000000000005,-285.6302114427509
-0.26969999999999994,-286.6205093526564
-0.27070000000000005,-287.46933613257545
-0.27169999999999994,-288.45963404248096
-0.27270000000000005,-289.4499319523865
-0.27369999999999994,-290.44022986229203
-0.27470000000000006,-291.4305277721976
-0.27569999999999995,-292.4208256821031
-0.27670000000000006,-293.26965246202207
-0.27769999999999995,-294.11847924194115
-0.27870000000000006,-294.96730602186017
-0.27969999999999995,-295.8161328017792
-0.28070000000000006,-296.80643071168464
-0.28169999999999995,-297.6552574916037
-0.28270000000000006,-298.6455554015092
-0.28369999999999995,-299.6358533114148
-0.28470000000000006,-300.6261512213203
-0.28569999999999995,-301.6164491312258
-0.28670000000000007,-302.4652759111449
-0.28769999999999996,-303.4555738210504
-0.28870000000000007,-304.4458717309559
-0.28969999999999996,-305.29469851087487
-0.29070000000000007,-306.1435252907939
-0.29169999999999996,-306.99235207071297
-0.29270000000000007,-307.841178850632
-0.29369999999999996,-308.8314767605375
-0.2947000000000001,-309.6803035404565
-0.29569999999999996,-310.6706014503621
-0.2967000000000001,-311.6608993602676
-0.29769999999999996,-312.65119727017316
-0.2987000000000001,-313.5000240500921
-0.29969999999999997,-314.49032195999763
-0.3007000000000001,-315.3391487399167
-0.30169999999999997,-316.3294466498222
-0.3027000000000001,-317.03680229975475
-0.30369999999999997,-317.8856290796738
-0.3047000000000001,-318.73445585959274
-0.30569999999999997,-319.72475376949825
-0.3067000000000001,-320.71505167940376
-0.3077,-321.56387845932284
-0.3087000000000001,-322.5541763692284
-0.3097,-323.40300314914737
-0.3107000000000001,-324.3933010590529
-0.3117,-325.3835989689584
-0.3127000000000001,-326.090954618891
-0.3137,-326.93978139880994
-0.3147000000000001,-327.788608178729
-0.3157,-328.63743495864804
-0.3167000000000001,-329.48626173856707
-0.3177,-330.4765596484726
-0.3187000000000001,-331.3253864283916
-0.3197,-332.1742132083106
-0.3207000000000001,-333.30598224820267
-0.3217,-334.2962801581082
-0.3227000000000001,-335.2865780680136
-0.3237,-336.1354048479327
-0.3247000000000001,-337.12570275783827
-0.3257,-337.9745295377573
-0.3267000000000001,-338.8233563176763
-0.3277,-339.6721830975953
-0.3287000000000001,-340.66248100750084
-0.3297,-341.65277891740635
-0.3307000000000001,-342.5016056973254
-0.3317,-343.49190360723094
-0.3327000000000001,-344.48220151713645
-0.3337,-345.33102829705547
-0.3347000000000001,-346.1798550769745
-0.3357,-347.0286818568935
-0.3367000000000001,-347.87750863681254
-0.3377,-348.72633541673156
-0.3387000000000001,-349.43369106666404
-0.3397,-350.2825178465831
-0.3407000000000001,-350.8484023665291
-0.3417,-351.8387002764346
-0.3427000000000001,-352.8289981863402
-0.3437,-353.96076722623224
-0.3447000000000001,-354.8095940061512
-0.3457,-355.7998919160567
-0.3467000000000001,-356.64871869597573
-0.3477,-357.4975454758948
-0.3487000000000001,-358.20490112582723
-0.3497,-358.91225677575983
-0.3507000000000001,-359.7610835556788
-0.3517,-360.6099103355978
-0.3527000000000001,-361.74167937548987
-0.3537,-362.73197728539543
-0.3547000000000001,-363.58080406531445
-0.3557,-364.4296308452335
-0.35670000000000013,-365.2784576251525
-0.3577,-366.268755535058
-0.35870000000000013,-367.117582314977
-0.3597,-368.10788022488254
-0.36070000000000013,-369.09817813478804
-0.3617,-370.0884760446936
-0.3626999999999999,-371.0787739545991
-0.3637,-372.0690718645047
-0.3646999999999999,-372.9178986444237
-0.3657,-373.90819655432915
-0.3666999999999999,-374.8984944642347
-0.3677,-375.8887923741402
-0.3686999999999999,-376.8790902840458
-0.36970000000000003,-377.7279170639648
-0.3706999999999999,-378.5767438438838
-0.37170000000000003,-379.42557062380286
-0.3726999999999999,-380.2743974037219
-0.37370000000000003,-381.12322418364084
-0.3746999999999999,-381.8305798335734
-0.37570000000000003,-382.6794066134924
-0.3766999999999999,-383.5282333934114
-0.37770000000000004,-384.518531303317
-0.3786999999999999,-385.367358083236
-0.37970000000000004,-386.21618486315504
-0.3806999999999999,-387.20648277306054
-0.38170000000000004,-388.05530955297957
-0.38269999999999993,-388.9041363328986
-0.38370000000000004,-389.75296311281767
-0.38469999999999993,-390.4603187627501
-0.38570000000000004,-391.30914554266917
-0.38669999999999993,-390.88473215270966
-0.38570000000000004,-387.913838422993
-0.38469999999999993,-384.9429446932765
-0.38370000000000004,-382.11352209354635
-0.38269999999999993,-379.28409949381637
-0.38170000000000004,-376.4546768940863
-0.3806999999999999,-373.6252542943562
-0.37970000000000004,-370.7958316946261
-0.3786999999999999,-367.96640909489605
-0.37770000000000004,-365.13698649516596
-0.3766999999999999,-362.3075638954359
-0.37570000000000003,-359.3366701657193
-0.3746999999999999,-356.50724756598925
-0.37370000000000003,-353.8192960962457
-0.3726999999999999,-351.1313446265021
-0.37170000000000003,-348.44339315675853
-0.3706999999999999,-345.89691281700146
-0.36970000000000003,-343.2089613472579
-0.3686999999999999,-340.5210098775143
-0.3677,-337.83305840777075
-0.3666999999999999,-335.00363580804066
-0.3657,-332.3156843382971
-0.3646999999999999,-329.62773286855355
-0.3637,-326.93978139880994
-0.3626999999999999,-324.25182992906645
-0.3617,-321.7053495893094
-0.36070000000000013,-319.15886924955225
-0.3597,-316.6123889097952
-0.35870000000000013,-314.0659085700381
-0.3577,-311.5194282302811
-0.35670000000000013,-308.972947890524
-0.3557,-306.4264675507669
-0.3547000000000001,-303.73851608102336
-0.3537,-301.0505646112798
-0.3527000000000001,-298.50408427152274
-0.3517,-295.9576039317657
-0.3507000000000001,-293.4111235920086
-0.3497,-290.86464325225154
-0.3487000000000001,-288.45963404248096
-0.3477,-285.9131537027239
-0.3467000000000001,-283.3666733629668
-0.3457,-280.9616641531963
-0.3447000000000001,-278.4151838134392
-0.3437,-275.86870347368216
-0.3427000000000001,-273.3222231339251
-0.3417,-270.9172139241545
-0.3407000000000001,-268.37073358439744
-0.3397,-265.9657243746269
-0.3387000000000001,-263.56071516485633
-0.3377,-261.1557059550858
-0.3367000000000001,-258.8921678753017
-0.3357,-256.62862979551767
-0.3347000000000001,-254.2236205857471
-0.3337,-251.96008250596302
-0.3327000000000001,-249.5550732961925
-0.3317,-247.1500640864219
-0.3307000000000001,-244.74505487665132
-0.3297,-242.34004566688077
-0.3287000000000001,-240.0765075870967
-0.3277,-237.67149837732615
-0.3267000000000001,-235.40796029754208
-0.3257,-233.1444222177581
-0.3247000000000001,-231.0223552679605
-0.3237,-228.61734605818995
-0.3227000000000001,-226.49527910839237
-0.3217,-224.09026989862178
-0.3207000000000001,-221.82673181883774
-0.3197,-219.5631937390537
-0.3187000000000001,-217.15818452928315
-0.3177,-214.89464644949908
-0.3167000000000001,-212.48963723972852
-0.3157,-210.22609915994445
-0.3147000000000001,-208.1040322101469
-0.3137,-205.98196526034934
-0.3127000000000001,-203.71842718056527
-0.3117,-201.59636023076774
-0.3107000000000001,-199.33282215098367
-0.3097,-197.0692840711996
-0.3087000000000001,-194.94721712140205
-0.3077,-192.54220791163152
-0.3067000000000001,-190.27866983184742
-0.30569999999999997,-188.01513175206335
-0.3047000000000001,-185.89306480226583
-0.30369999999999997,-183.77099785246824
-0.3027000000000001,-181.64893090267074
-0.30169999999999997,-179.66833508285964
-0.3007000000000001,-177.54626813306209
-0.29969999999999997,-175.56567231325104
-0.2987000000000001,-173.44360536345349
-0.29769999999999996,-171.32153841365593
-0.2967000000000001,-169.19947146385837
-0.29569999999999996,-166.93593338407433
-0.2947000000000001,-164.81386643427678
-0.29369999999999996,-162.6917994844792
-0.29270000000000007,-160.71120366466818
-0.29169999999999996,-158.5891367148706
-0.29070000000000007,-156.60854089505958
-0.28969999999999996,-154.6279450752485
-0.28870000000000007,-152.50587812545095
-0.28769999999999996,-150.66675343562642
-0.28670000000000007,-148.54468648582886
-0.28569999999999995,-146.4226195360313
-0.28470000000000006,-144.44202371622026
-0.28369999999999995,-142.31995676642268
-0.28270000000000006,-140.2686253816184
-0.28169999999999995,-138.23144110981272
-0.28070000000000006,-136.2225510640044
-0.27969999999999995,-134.29854369618792
-0.27870000000000006,-132.37453632837148
-0.27769999999999995,-130.50711741254963
-0.27670000000000006,-128.5831100447332
-0.27569999999999995,-126.6732497899154
-0.27470000000000006,-124.70680108310299
-0.27369999999999994,-122.69791103729463
-0.27270000000000005,-120.73146233048222
-0.27169999999999994,-118.68013094567793
-0.27070000000000005,-116.72782935186417
-0.26969999999999994,-114.80382198404773
-0.26870000000000005,-112.87981461623129
-0.26769999999999994,-111.01239570040943
