Apr. 19, 2025   22:27:43
Cyclic Voltammetry
File: c:/users/guazh/data/banditlqround7_x0exp590_r20/2025-04-16-exp1131\exp1131-2025-04-19t22_02_37-h2koh\exp1131_cv_sr_700mvs_efin_-1900mv.bin
Data Source:  Experiment
Instrument Model:  CHI760E
Header: CV ran at 700 mVs
Note: 

Init E (V) = -1
High E (V) = -1
Low E (V) = -1.9
Final E (V) = -1
Init P/N = N
Scan Rate (V/s) = 0.7
Segment = 3
Sample Interval (V) = 0.001
Quiet Time (sec) = 2
Sensitivity (A/V) = 0.01
Comp R (ohm) = 1.7

Results:

Channel 1:
Segment 1:

Segment 2:

Segment 3:

Potential/V, Current/A

-1.000, 6.322e-6
-1.001, 1.249e-5
-1.002, 1.557e-5
-1.003, 1.557e-5
-1.004, 1.557e-5
-1.005, 1.865e-5
-1.006, 1.865e-5
-1.007, 1.865e-5
-1.008, 1.557e-5
-1.009, 1.865e-5
-1.010, 1.557e-5
-1.011, 1.557e-5
-1.012, 1.557e-5
-1.013, 1.557e-5
-1.014, 1.557e-5
-1.015, 1.865e-5
-1.016, 1.865e-5
-1.017, 1.865e-5
-1.018, 1.865e-5
-1.019, 1.865e-5
-1.020, 1.865e-5
-1.021, 1.557e-5
-1.022, 1.557e-5
-1.023, 1.557e-5
-1.024, 1.557e-5
-1.025, 1.865e-5
-1.026, 1.865e-5
-1.027, 1.865e-5
-1.028, 1.865e-5
-1.029, 1.865e-5
-1.030, 1.865e-5
-1.031, 1.865e-5
-1.032, 1.865e-5
-1.033, 1.865e-5
-1.034, 1.865e-5
-1.035, 1.557e-5
-1.036, 1.865e-5
-1.037, 1.865e-5
-1.038, 1.865e-5
-1.039, 1.865e-5
-1.040, 1.865e-5
-1.041, 1.865e-5
-1.042, 1.865e-5
-1.043, 1.865e-5
-1.044, 1.865e-5
-1.045, 1.865e-5
-1.046, 1.557e-5
-1.047, 1.557e-5
-1.048, 1.865e-5
-1.049, 1.865e-5
-1.050, 2.174e-5
-1.051, 1.865e-5
-1.052, 2.174e-5
-1.053, 1.865e-5
-1.054, 1.865e-5
-1.055, 1.865e-5
-1.056, 1.865e-5
-1.057, 1.865e-5
-1.058, 1.865e-5
-1.059, 1.865e-5
-1.060, 1.865e-5
-1.061, 1.865e-5
-1.062, 1.865e-5
-1.063, 2.174e-5
-1.064, 2.174e-5
-1.065, 1.865e-5
-1.066, 1.865e-5
-1.067, 1.865e-5
-1.068, 1.865e-5
-1.069, 1.865e-5
-1.070, 1.865e-5
-1.071, 1.865e-5
-1.072, 1.865e-5
-1.073, 2.174e-5
-1.074, 2.174e-5
-1.075, 2.174e-5
-1.076, 2.174e-5
-1.077, 2.174e-5
-1.078, 1.865e-5
-1.079, 1.865e-5
-1.080, 1.865e-5
-1.081, 1.865e-5
-1.082, 1.865e-5
-1.083, 1.865e-5
-1.084, 1.865e-5
-1.085, 2.174e-5
-1.086, 2.174e-5
-1.087, 2.174e-5
-1.088, 2.174e-5
-1.089, 2.174e-5
-1.090, 1.865e-5
-1.091, 1.865e-5
-1.092, 1.865e-5
-1.093, 1.865e-5
-1.094, 1.865e-5
-1.095, 1.865e-5
-1.096, 1.865e-5
-1.097, 2.174e-5
-1.098, 2.174e-5
-1.099, 2.174e-5
-1.100, 2.174e-5
-1.101, 1.865e-5
-1.102, 1.865e-5
-1.103, 1.865e-5
-1.104, 1.865e-5
-1.105, 1.865e-5
-1.106, 1.865e-5
-1.107, 1.865e-5
-1.108, 2.174e-5
-1.109, 2.174e-5
-1.110, 2.174e-5
-1.111, 2.174e-5
-1.112, 2.174e-5
-1.113, 1.865e-5
-1.114, 1.865e-5
-1.115, 1.865e-5
-1.116, 1.865e-5
-1.117, 1.865e-5
-1.118, 2.174e-5
-1.119, 2.174e-5
-1.120, 2.174e-5
-1.121, 2.174e-5
-1.122, 2.174e-5
-1.123, 2.174e-5
-1.124, 2.174e-5
-1.125, 1.865e-5
-1.126, 1.865e-5
-1.127, 1.865e-5
-1.128, 1.865e-5
-1.129, 1.865e-5
-1.130, 1.865e-5
-1.131, 2.174e-5
-1.132, 2.174e-5
-1.133, 2.174e-5
-1.134, 2.174e-5
-1.135, 2.174e-5
-1.136, 2.174e-5
-1.137, 2.174e-5
-1.138, 2.174e-5
-1.139, 1.865e-5
-1.140, 1.865e-5
-1.141, 1.865e-5
-1.142, 2.174e-5
-1.143, 2.174e-5
-1.144, 2.174e-5
-1.145, 2.174e-5
-1.146, 2.174e-5
-1.147, 2.174e-5
-1.148, 2.174e-5
-1.149, 2.174e-5
-1.150, 2.174e-5
-1.151, 1.865e-5
-1.152, 1.865e-5
-1.153, 2.174e-5
-1.154, 2.174e-5
-1.155, 2.174e-5
-1.156, 2.482e-5
-1.157, 2.482e-5
-1.158, 2.482e-5
-1.159, 2.174e-5
-1.160, 2.174e-5
-1.161, 2.174e-5
-1.162, 2.174e-5
-1.163, 2.174e-5
-1.164, 2.174e-5
-1.165, 2.174e-5
-1.166, 2.174e-5
-1.167, 2.482e-5
-1.168, 2.482e-5
-1.169, 2.482e-5
-1.170, 2.482e-5
-1.171, 2.174e-5
-1.172, 2.174e-5
-1.173, 2.174e-5
-1.174, 2.174e-5
-1.175, 2.174e-5
-1.176, 2.174e-5
-1.177, 2.174e-5
-1.178, 2.482e-5
-1.179, 2.482e-5
-1.180, 2.482e-5
-1.181, 2.482e-5
-1.182, 2.482e-5
-1.183, 2.174e-5
-1.184, 2.174e-5
-1.185, 2.174e-5
-1.186, 2.174e-5
-1.187, 2.174e-5
-1.188, 2.174e-5
-1.189, 2.174e-5
-1.190, 2.482e-5
-1.191, 2.482e-5
-1.192, 2.482e-5
-1.193, 2.482e-5
-1.194, 2.482e-5
-1.195, 2.174e-5
-1.196, 2.174e-5
-1.197, 2.174e-5
-1.198, 2.174e-5
-1.199, 2.174e-5
-1.200, 2.174e-5
-1.201, 2.482e-5
-1.202, 2.482e-5
-1.203, 2.482e-5
-1.204, 2.482e-5
-1.205, 2.482e-5
-1.206, 2.482e-5
-1.207, 2.482e-5
-1.208, 2.174e-5
-1.209, 2.174e-5
-1.210, 2.174e-5
-1.211, 2.174e-5
-1.212, 2.482e-5
-1.213, 2.482e-5
-1.214, 2.482e-5
-1.215, 2.482e-5
-1.216, 2.482e-5
-1.217, 2.482e-5
-1.218, 2.482e-5
-1.219, 2.482e-5
-1.220, 2.174e-5
-1.221, 2.174e-5
-1.222, 2.174e-5
-1.223, 2.174e-5
-1.224, 2.482e-5
-1.225, 2.482e-5
-1.226, 2.482e-5
-1.227, 2.482e-5
-1.228, 2.482e-5
-1.229, 2.482e-5
-1.230, 2.482e-5
-1.231, 2.482e-5
-1.232, 2.174e-5
-1.233, 2.174e-5
-1.234, 2.174e-5
-1.235, 2.482e-5
-1.236, 2.482e-5
-1.237, 2.482e-5
-1.238, 2.482e-5
-1.239, 2.790e-5
-1.240, 2.482e-5
-1.241, 2.482e-5
-1.242, 2.482e-5
-1.243, 2.482e-5
-1.244, 2.482e-5
-1.245, 2.174e-5
-1.246, 2.482e-5
-1.247, 2.482e-5
-1.248, 2.482e-5
-1.249, 2.790e-5
-1.250, 2.482e-5
-1.251, 2.482e-5
-1.252, 2.482e-5
-1.253, 2.482e-5
-1.254, 2.482e-5
-1.255, 2.482e-5
-1.256, 2.174e-5
-1.257, 2.482e-5
-1.258, 2.482e-5
-1.259, 2.482e-5
-1.260, 2.790e-5
-1.261, 2.482e-5
-1.262, 2.790e-5
-1.263, 2.482e-5
-1.264, 2.482e-5
-1.265, 2.482e-5
-1.266, 2.482e-5
-1.267, 2.174e-5
-1.268, 2.174e-5
-1.269, 2.482e-5
-1.270, 2.482e-5
-1.271, 2.482e-5
-1.272, 2.482e-5
-1.273, 2.482e-5
-1.274, 2.482e-5
-1.275, 2.482e-5
-1.276, 2.482e-5
-1.277, 2.482e-5
-1.278, 2.482e-5
-1.279, 2.174e-5
-1.280, 2.482e-5
-1.281, 2.482e-5
-1.282, 2.482e-5
-1.283, 2.482e-5
-1.284, 2.790e-5
-1.285, 2.482e-5
-1.286, 2.790e-5
-1.287, 2.482e-5
-1.288, 2.482e-5
-1.289, 2.482e-5
-1.290, 2.174e-5
-1.291, 2.482e-5
-1.292, 2.174e-5
-1.293, 2.482e-5
-1.294, 2.482e-5
-1.295, 2.482e-5
-1.296, 2.482e-5
-1.297, 2.790e-5
-1.298, 2.790e-5
-1.299, 2.482e-5
-1.300, 2.482e-5
-1.301, 2.482e-5
-1.302, 2.482e-5
-1.303, 2.174e-5
-1.304, 2.482e-5
-1.305, 2.482e-5
-1.306, 2.482e-5
-1.307, 2.482e-5
-1.308, 2.482e-5
-1.309, 2.790e-5
-1.310, 2.482e-5
-1.311, 2.482e-5
-1.312, 2.482e-5
-1.313, 2.482e-5
-1.314, 2.482e-5
-1.315, 2.482e-5
-1.316, 2.482e-5
-1.317, 2.482e-5
-1.318, 2.482e-5
-1.319, 2.482e-5
-1.320, 2.790e-5
-1.321, 2.482e-5
-1.322, 2.482e-5
-1.323, 2.482e-5
-1.324, 2.482e-5
-1.325, 2.482e-5
-1.326, 2.482e-5
-1.327, 2.482e-5
-1.328, 2.482e-5
-1.329, 2.482e-5
-1.330, 2.482e-5
-1.331, 2.482e-5
-1.332, 2.790e-5
-1.333, 2.482e-5
-1.334, 2.482e-5
-1.335, 2.482e-5
-1.336, 2.482e-5
-1.337, 2.482e-5
-1.338, 2.482e-5
-1.339, 2.482e-5
-1.340, 2.482e-5
-1.341, 2.482e-5
-1.342, 2.790e-5
-1.343, 2.790e-5
-1.344, 2.482e-5
-1.345, 2.790e-5
-1.346, 2.482e-5
-1.347, 2.482e-5
-1.348, 2.174e-5
-1.349, 2.174e-5
-1.350, 2.482e-5
-1.351, 2.482e-5
-1.352, 2.482e-5
-1.353, 2.482e-5
-1.354, 2.790e-5
-1.355, 2.790e-5
-1.356, 2.482e-5
-1.357, 2.482e-5
-1.358, 2.482e-5
-1.359, 2.482e-5
-1.360, 2.482e-5
-1.361, 2.482e-5
-1.362, 2.482e-5
-1.363, 2.482e-5
-1.364, 2.482e-5
-1.365, 2.790e-5
-1.366, 2.482e-5
-1.367, 2.790e-5
-1.368, 2.790e-5
-1.369, 2.482e-5
-1.370, 2.482e-5
-1.371, 2.482e-5
-1.372, 2.482e-5
-1.373, 2.482e-5
-1.374, 2.482e-5
-1.375, 2.482e-5
-1.376, 2.482e-5
-1.377, 2.790e-5
-1.378, 2.790e-5
-1.379, 2.790e-5
-1.380, 2.790e-5
-1.381, 2.790e-5
-1.382, 2.482e-5
-1.383, 2.482e-5
-1.384, 2.482e-5
-1.385, 2.482e-5
-1.386, 2.482e-5
-1.387, 2.482e-5
-1.388, 2.790e-5
-1.389, 2.790e-5
-1.390, 2.790e-5
-1.391, 2.790e-5
-1.392, 2.790e-5
-1.393, 2.482e-5
-1.394, 2.790e-5
-1.395, 2.482e-5
-1.396, 2.482e-5
-1.397, 2.482e-5
-1.398, 2.482e-5
-1.399, 2.790e-5
-1.400, 2.790e-5
-1.401, 2.790e-5
-1.402, 2.790e-5
-1.403, 2.790e-5
-1.404, 2.790e-5
-1.405, 2.790e-5
-1.406, 2.790e-5
-1.407, 2.482e-5
-1.408, 2.482e-5
-1.409, 2.482e-5
-1.410, 2.790e-5
-1.411, 2.790e-5
-1.412, 2.790e-5
-1.413, 2.790e-5
-1.414, 2.790e-5
-1.415, 2.790e-5
-1.416, 2.790e-5
-1.417, 2.790e-5
-1.418, 2.790e-5
-1.419, 2.790e-5
-1.420, 2.482e-5
-1.421, 2.790e-5
-1.422, 2.790e-5
-1.423, 2.790e-5
-1.424, 2.790e-5
-1.425, 2.790e-5
-1.426, 3.099e-5
-1.427, 2.790e-5
-1.428, 2.790e-5
-1.429, 2.790e-5
-1.430, 2.790e-5
-1.431, 2.790e-5
-1.432, 2.790e-5
-1.433, 2.790e-5
-1.434, 2.790e-5
-1.435, 3.099e-5
-1.436, 3.099e-5
-1.437, 3.099e-5
-1.438, 3.099e-5
-1.439, 3.099e-5
-1.440, 3.099e-5
-1.441, 3.099e-5
-1.442, 2.790e-5
-1.443, 2.790e-5
-1.444, 3.099e-5
-1.445, 2.790e-5
-1.446, 3.099e-5
-1.447, 3.099e-5
-1.448, 3.099e-5
-1.449, 3.099e-5
-1.450, 3.099e-5
-1.451, 3.099e-5
-1.452, 3.099e-5
-1.453, 3.099e-5
-1.454, 2.790e-5
-1.455, 3.099e-5
-1.456, 3.099e-5
-1.457, 3.099e-5
-1.458, 3.099e-5
-1.459, 3.407e-5
-1.460, 3.407e-5
-1.461, 3.407e-5
-1.462, 3.407e-5
-1.463, 3.099e-5
-1.464, 3.407e-5
-1.465, 3.099e-5
-1.466, 3.099e-5
-1.467, 3.099e-5
-1.468, 3.407e-5
-1.469, 3.407e-5
-1.470, 3.407e-5
-1.471, 3.715e-5
-1.472, 3.715e-5
-1.473, 3.715e-5
-1.474, 3.407e-5
-1.475, 3.407e-5
-1.476, 3.407e-5
-1.477, 3.407e-5
-1.478, 3.407e-5
-1.479, 3.407e-5
-1.480, 3.715e-5
-1.481, 3.715e-5
-1.482, 3.715e-5
-1.483, 3.715e-5
-1.484, 3.715e-5
-1.485, 3.715e-5
-1.486, 3.715e-5
-1.487, 3.715e-5
-1.488, 3.715e-5
-1.489, 3.715e-5
-1.490, 3.715e-5
-1.491, 3.715e-5
-1.492, 4.024e-5
-1.493, 4.024e-5
-1.494, 4.024e-5
-1.495, 4.024e-5
-1.496, 4.024e-5
-1.497, 4.024e-5
-1.498, 4.332e-5
-1.499, 4.024e-5
-1.500, 4.024e-5
-1.501, 4.024e-5
-1.502, 4.024e-5
-1.503, 4.024e-5
-1.504, 4.332e-5
-1.505, 4.332e-5
-1.506, 4.332e-5
-1.507, 4.640e-5
-1.508, 4.640e-5
-1.509, 4.640e-5
-1.510, 4.332e-5
-1.511, 4.640e-5
-1.512, 4.332e-5
-1.513, 4.332e-5
-1.514, 4.640e-5
-1.515, 4.640e-5
-1.516, 4.949e-5
-1.517, 4.949e-5
-1.518, 4.949e-5
-1.519, 4.949e-5
-1.520, 4.949e-5
-1.521, 4.949e-5
-1.522, 4.949e-5
-1.523, 4.949e-5
-1.524, 4.949e-5
-1.525, 4.949e-5
-1.526, 4.949e-5
-1.527, 5.257e-5
-1.528, 5.257e-5
-1.529, 5.565e-5
-1.530, 5.565e-5
-1.531, 5.565e-5
-1.532, 5.565e-5
-1.533, 5.565e-5
-1.534, 5.565e-5
-1.535, 5.565e-5
-1.536, 5.565e-5
-1.537, 5.565e-5
-1.538, 5.873e-5
-1.539, 5.873e-5
-1.540, 6.182e-5
-1.541, 6.182e-5
-1.542, 6.182e-5
-1.543, 6.490e-5
-1.544, 6.490e-5
-1.545, 6.490e-5
-1.546, 6.490e-5
-1.547, 6.490e-5
-1.548, 6.490e-5
-1.549, 6.490e-5
-1.550, 6.798e-5
-1.551, 6.798e-5
-1.552, 7.107e-5
-1.553, 7.107e-5
-1.554, 7.107e-5
-1.555, 7.107e-5
-1.556, 7.415e-5
-1.557, 7.415e-5
-1.558, 7.415e-5
-1.559, 7.415e-5
-1.560, 7.415e-5
-1.561, 7.723e-5
-1.562, 7.723e-5
-1.563, 8.032e-5
-1.564, 8.032e-5
-1.565, 8.340e-5
-1.566, 8.340e-5
-1.567, 8.340e-5
-1.568, 8.340e-5
-1.569, 8.340e-5
-1.570, 8.648e-5
-1.571, 8.648e-5
-1.572, 8.648e-5
-1.573, 8.957e-5
-1.574, 8.957e-5
-1.575, 9.265e-5
-1.576, 9.573e-5
-1.577, 9.573e-5
-1.578, 9.573e-5
-1.579, 9.882e-5
-1.580, 9.882e-5
-1.581, 9.882e-5
-1.582, 9.882e-5
-1.583, 9.882e-5
-1.584, 1.019e-4
-1.585, 1.019e-4
-1.586, 1.050e-4
-1.587, 1.081e-4
-1.588, 1.081e-4
-1.589, 1.111e-4
-1.590, 1.111e-4
-1.591, 1.142e-4
-1.592, 1.142e-4
-1.593, 1.142e-4
-1.594, 1.142e-4
-1.595, 1.173e-4
-1.596, 1.173e-4
-1.597, 1.204e-4
-1.598, 1.235e-4
-1.599, 1.266e-4
-1.600, 1.266e-4
-1.601, 1.296e-4
-1.602, 1.296e-4
-1.603, 1.296e-4
-1.604, 1.327e-4
-1.605, 1.327e-4
-1.606, 1.327e-4
-1.607, 1.358e-4
-1.608, 1.389e-4
-1.609, 1.420e-4
-1.610, 1.451e-4
-1.611, 1.451e-4
-1.612, 1.481e-4
-1.613, 1.512e-4
-1.614, 1.512e-4
-1.615, 1.543e-4
-1.616, 1.543e-4
-1.617, 1.543e-4
-1.618, 1.574e-4
-1.619, 1.574e-4
-1.620, 1.605e-4
-1.621, 1.636e-4
-1.622, 1.666e-4
-1.623, 1.697e-4
-1.624, 1.728e-4
-1.625, 1.728e-4
-1.626, 1.759e-4
-1.627, 1.790e-4
-1.628, 1.790e-4
-1.629, 1.821e-4
-1.630, 1.821e-4
-1.631, 1.851e-4
-1.632, 1.882e-4
-1.633, 1.913e-4
-1.634, 1.944e-4
-1.635, 1.975e-4
-1.636, 2.006e-4
-1.637, 2.006e-4
-1.638, 2.036e-4
-1.639, 2.067e-4
-1.640, 2.067e-4
-1.641, 2.098e-4
-1.642, 2.129e-4
-1.643, 2.160e-4
-1.644, 2.191e-4
-1.645, 2.221e-4
-1.646, 2.252e-4
-1.647, 2.283e-4
-1.648, 2.314e-4
-1.649, 2.345e-4
-1.650, 2.345e-4
-1.651, 2.376e-4
-1.652, 2.406e-4
-1.653, 2.406e-4
-1.654, 2.437e-4
-1.655, 2.468e-4
-1.656, 2.530e-4
-1.657, 2.561e-4
-1.658, 2.591e-4
-1.659, 2.622e-4
-1.660, 2.653e-4
-1.661, 2.684e-4
-1.662, 2.715e-4
-1.663, 2.746e-4
-1.664, 2.746e-4
-1.665, 2.776e-4
-1.666, 2.807e-4
-1.667, 2.869e-4
-1.668, 2.900e-4
-1.669, 2.931e-4
-1.670, 2.961e-4
-1.671, 3.023e-4
-1.672, 3.054e-4
-1.673, 3.085e-4
-1.674, 3.115e-4
-1.675, 3.115e-4
-1.676, 3.146e-4
-1.677, 3.208e-4
-1.678, 3.239e-4
-1.679, 3.270e-4
-1.680, 3.331e-4
-1.681, 3.362e-4
-1.682, 3.424e-4
-1.683, 3.455e-4
-1.684, 3.485e-4
-1.685, 3.516e-4
-1.686, 3.547e-4
-1.687, 3.578e-4
-1.688, 3.609e-4
-1.689, 3.640e-4
-1.690, 3.701e-4
-1.691, 3.732e-4
-1.692, 3.794e-4
-1.693, 3.855e-4
-1.694, 3.886e-4
-1.695, 3.917e-4
-1.696, 3.948e-4
-1.697, 3.979e-4
-1.698, 4.010e-4
-1.699, 4.040e-4
-1.700, 4.102e-4
-1.701, 4.133e-4
-1.702, 4.195e-4
-1.703, 4.256e-4
-1.704, 4.287e-4
-1.705, 4.349e-4
-1.706, 4.380e-4
-1.707, 4.441e-4
-1.708, 4.472e-4
-1.709, 4.503e-4
-1.710, 4.565e-4
-1.711, 4.595e-4
-1.712, 4.626e-4
-1.713, 4.688e-4
-1.714, 4.750e-4
-1.715, 4.811e-4
-1.716, 4.842e-4
-1.717, 4.935e-4
-1.718, 4.965e-4
-1.719, 4.996e-4
-1.720, 5.058e-4
-1.721, 5.089e-4
-1.722, 5.120e-4
-1.723, 5.181e-4
-1.724, 5.212e-4
-1.725, 5.274e-4
-1.726, 5.335e-4
-1.727, 5.366e-4
-1.728, 5.459e-4
-1.729, 5.520e-4
-1.730, 5.582e-4
-1.731, 5.644e-4
-1.732, 5.674e-4
-1.733, 5.736e-4
-1.734, 5.767e-4
-1.735, 5.829e-4
-1.736, 5.859e-4
-1.737, 5.952e-4
-1.738, 6.014e-4
-1.739, 6.075e-4
-1.740, 6.168e-4
-1.741, 6.229e-4
-1.742, 6.291e-4
-1.743, 6.353e-4
-1.744, 6.414e-4
-1.745, 6.445e-4
-1.746, 6.507e-4
-1.747, 6.569e-4
-1.748, 6.630e-4
-1.749, 6.723e-4
-1.750, 6.784e-4
-1.751, 6.877e-4
-1.752, 6.939e-4
-1.753, 7.031e-4
-1.754, 7.093e-4
-1.755, 7.154e-4
-1.756, 7.216e-4
-1.757, 7.247e-4
-1.758, 7.309e-4
-1.759, 7.370e-4
-1.760, 7.432e-4
-1.761, 7.555e-4
-1.762, 7.617e-4
-1.763, 7.709e-4
-1.764, 7.802e-4
-1.765, 7.863e-4
-1.766, 7.987e-4
-1.767, 8.048e-4
-1.768, 8.141e-4
-1.769, 8.203e-4
-1.770, 8.264e-4
-1.771, 8.357e-4
-1.772, 8.418e-4
-1.773, 8.511e-4
-1.774, 8.603e-4
-1.775, 8.727e-4
-1.776, 8.788e-4
-1.777, 8.881e-4
-1.778, 8.973e-4
-1.779, 9.066e-4
-1.780, 9.158e-4
-1.781, 9.220e-4
-1.782, 9.313e-4
-1.783, 9.436e-4
-1.784, 9.559e-4
-1.785, 9.652e-4
-1.786, 9.744e-4
-1.787, 9.837e-4
-1.788, 9.960e-4
-1.789, 1.008e-3
-1.790, 1.014e-3
-1.791, 1.024e-3
-1.792, 1.033e-3
-1.793, 1.042e-3
-1.794, 1.055e-3
-1.795, 1.067e-3
-1.796, 1.079e-3
-1.797, 1.085e-3
-1.798, 1.098e-3
-1.799, 1.113e-3
-1.800, 1.122e-3
-1.801, 1.135e-3
-1.802, 1.147e-3
-1.803, 1.159e-3
-1.804, 1.169e-3
-1.805, 1.181e-3
-1.806, 1.190e-3
-1.807, 1.206e-3
-1.808, 1.215e-3
-1.809, 1.227e-3
-1.810, 1.236e-3
-1.811, 1.252e-3
-1.812, 1.264e-3
-1.813, 1.277e-3
-1.814, 1.289e-3
-1.815, 1.295e-3
-1.816, 1.307e-3
-1.817, 1.323e-3
-1.818, 1.341e-3
-1.819, 1.351e-3
-1.820, 1.366e-3
-1.821, 1.378e-3
-1.822, 1.397e-3
-1.823, 1.409e-3
-1.824, 1.428e-3
-1.825, 1.443e-3
-1.826, 1.455e-3
-1.827, 1.471e-3
-1.828, 1.483e-3
-1.829, 1.499e-3
-1.830, 1.517e-3
-1.831, 1.529e-3
-1.832, 1.545e-3
-1.833, 1.563e-3
-1.834, 1.582e-3
-1.835, 1.600e-3
-1.836, 1.619e-3
-1.837, 1.637e-3
-1.838, 1.647e-3
-1.839, 1.665e-3
-1.840, 1.680e-3
-1.841, 1.699e-3
-1.842, 1.724e-3
-1.843, 1.742e-3
-1.844, 1.764e-3
-1.845, 1.788e-3
-1.846, 1.798e-3
-1.847, 1.801e-3
-1.848, 1.822e-3
-1.849, 1.844e-3
-1.850, 1.862e-3
-1.851, 1.881e-3
-1.852, 1.902e-3
-1.853, 1.918e-3
-1.854, 1.946e-3
-1.855, 1.967e-3
-1.856, 1.992e-3
-1.857, 2.020e-3
-1.858, 2.044e-3
-1.859, 2.069e-3
-1.860, 2.094e-3
-1.861, 2.100e-3
-1.862, 2.131e-3
-1.863, 2.143e-3
-1.864, 2.164e-3
-1.865, 2.180e-3
-1.866, 2.211e-3
-1.867, 2.238e-3
-1.868, 2.263e-3
-1.869, 2.291e-3
-1.870, 2.316e-3
-1.871, 2.346e-3
-1.872, 2.371e-3
-1.873, 2.386e-3
-1.874, 2.405e-3
-1.875, 2.430e-3
-1.876, 2.460e-3
-1.877, 2.491e-3
-1.878, 2.528e-3
-1.879, 2.559e-3
-1.880, 2.571e-3
-1.881, 2.602e-3
-1.882, 2.636e-3
-1.883, 2.645e-3
-1.884, 2.676e-3
-1.885, 2.707e-3
-1.886, 2.735e-3
-1.887, 2.760e-3
-1.888, 2.797e-3
-1.889, 2.824e-3
-1.890, 2.861e-3
-1.891, 2.901e-3
-1.892, 2.923e-3
-1.893, 2.966e-3
-1.894, 3.003e-3
-1.895, 3.022e-3
-1.896, 3.052e-3
-1.897, 3.080e-3
-1.898, 3.096e-3
-1.899, 3.133e-3
-1.900, 3.130e-3
-1.899, 3.114e-3
-1.898, 3.102e-3
-1.897, 3.080e-3
-1.896, 3.065e-3
-1.895, 3.022e-3
-1.894, 3.015e-3
-1.893, 3.003e-3
-1.892, 2.972e-3
-1.891, 2.954e-3
-1.890, 2.911e-3
-1.889, 2.892e-3
-1.888, 2.874e-3
-1.887, 2.855e-3
-1.886, 2.812e-3
-1.885, 2.800e-3
-1.884, 2.778e-3
-1.883, 2.760e-3
-1.882, 2.738e-3
-1.881, 2.726e-3
-1.880, 2.698e-3
-1.879, 2.676e-3
-1.878, 2.649e-3
-1.877, 2.627e-3
-1.876, 2.596e-3
-1.875, 2.571e-3
-1.874, 2.550e-3
-1.873, 2.531e-3
-1.872, 2.510e-3
-1.871, 2.491e-3
-1.870, 2.473e-3
-1.869, 2.464e-3
-1.868, 2.436e-3
-1.867, 2.411e-3
-1.866, 2.380e-3
-1.865, 2.349e-3
-1.864, 2.334e-3
-1.863, 2.309e-3
-1.862, 2.285e-3
-1.861, 2.269e-3
-1.860, 2.257e-3
-1.859, 2.232e-3
-1.858, 2.211e-3
-1.857, 2.195e-3
-1.856, 2.174e-3
-1.855, 2.140e-3
-1.854, 2.109e-3
-1.853, 2.091e-3
-1.852, 2.078e-3
-1.851, 2.063e-3
-1.850, 2.047e-3
-1.849, 2.035e-3
-1.848, 2.013e-3
-1.847, 1.992e-3
-1.846, 1.964e-3
-1.845, 1.952e-3
-1.844, 1.936e-3
-1.843, 1.909e-3
-1.842, 1.893e-3
-1.841, 1.872e-3
-1.840, 1.859e-3
-1.839, 1.841e-3
-1.838, 1.822e-3
-1.837, 1.798e-3
-1.836, 1.791e-3
-1.835, 1.770e-3
-1.834, 1.754e-3
-1.833, 1.739e-3
-1.832, 1.724e-3
-1.831, 1.699e-3
-1.830, 1.684e-3
-1.829, 1.668e-3
-1.828, 1.650e-3
-1.827, 1.637e-3
-1.826, 1.619e-3
-1.825, 1.597e-3
-1.824, 1.579e-3
-1.823, 1.566e-3
-1.822, 1.554e-3
-1.821, 1.539e-3
-1.820, 1.529e-3
-1.819, 1.508e-3
-1.818, 1.480e-3
-1.817, 1.465e-3
-1.816, 1.455e-3
-1.815, 1.443e-3
-1.814, 1.428e-3
-1.813, 1.412e-3
-1.812, 1.400e-3
-1.811, 1.384e-3
-1.810, 1.366e-3
-1.809, 1.354e-3
-1.808, 1.338e-3
-1.807, 1.329e-3
-1.806, 1.317e-3
-1.805, 1.298e-3
-1.804, 1.286e-3
-1.803, 1.273e-3
-1.802, 1.258e-3
-1.801, 1.243e-3
-1.800, 1.236e-3
-1.799, 1.224e-3
-1.798, 1.212e-3
-1.797, 1.199e-3
-1.796, 1.184e-3
-1.795, 1.169e-3
-1.794, 1.159e-3
-1.793, 1.153e-3
-1.792, 1.141e-3
-1.791, 1.129e-3
-1.790, 1.113e-3
-1.789, 1.098e-3
-1.788, 1.085e-3
-1.787, 1.073e-3
-1.786, 1.061e-3
-1.785, 1.048e-3
-1.784, 1.039e-3
-1.783, 1.027e-3
-1.782, 1.018e-3
-1.781, 1.002e-3
-1.780, 9.960e-4
-1.779, 9.868e-4
-1.778, 9.775e-4
-1.777, 9.683e-4
-1.776, 9.528e-4
-1.775, 9.436e-4
-1.774, 9.313e-4
-1.773, 9.220e-4
-1.772, 9.128e-4
-1.771, 9.035e-4
-1.770, 8.973e-4
-1.769, 8.850e-4
-1.768, 8.788e-4
-1.767, 8.696e-4
-1.766, 8.603e-4
-1.765, 8.449e-4
-1.764, 8.326e-4
-1.763, 8.233e-4
-1.762, 8.141e-4
-1.761, 8.048e-4
-1.760, 7.925e-4
-1.759, 7.894e-4
-1.758, 7.802e-4
-1.757, 7.740e-4
-1.756, 7.648e-4
-1.755, 7.586e-4
-1.754, 7.494e-4
-1.753, 7.401e-4
-1.752, 7.278e-4
-1.751, 7.185e-4
-1.750, 7.093e-4
-1.749, 7.000e-4
-1.748, 6.939e-4
-1.747, 6.877e-4
-1.746, 6.815e-4
-1.745, 6.723e-4
-1.744, 6.630e-4
-1.743, 6.569e-4
-1.742, 6.476e-4
-1.741, 6.414e-4
-1.740, 6.260e-4
-1.739, 6.199e-4
-1.738, 6.137e-4
-1.737, 6.075e-4
-1.736, 6.014e-4
-1.735, 5.952e-4
-1.734, 5.921e-4
-1.733, 5.829e-4
-1.732, 5.767e-4
-1.731, 5.674e-4
-1.730, 5.644e-4
-1.729, 5.520e-4
-1.728, 5.428e-4
-1.727, 5.335e-4
-1.726, 5.274e-4
-1.725, 5.243e-4
-1.724, 5.150e-4
-1.723, 5.120e-4
-1.722, 5.058e-4
-1.721, 5.027e-4
-1.720, 4.965e-4
-1.719, 4.904e-4
-1.718, 4.811e-4
-1.717, 4.750e-4
-1.716, 4.688e-4
-1.715, 4.626e-4
-1.714, 4.565e-4
-1.713, 4.503e-4
-1.712, 4.472e-4
-1.711, 4.441e-4
-1.710, 4.380e-4
-1.709, 4.349e-4
-1.708, 4.287e-4
-1.707, 4.225e-4
-1.706, 4.164e-4
-1.705, 4.071e-4
-1.704, 4.010e-4
-1.703, 3.948e-4
-1.702, 3.886e-4
-1.701, 3.855e-4
-1.700, 3.825e-4
-1.699, 3.763e-4
-1.698, 3.732e-4
-1.697, 3.670e-4
-1.696, 3.640e-4
-1.695, 3.578e-4
-1.694, 3.516e-4
-1.693, 3.455e-4
-1.692, 3.424e-4
-1.691, 3.393e-4
-1.690, 3.331e-4
-1.689, 3.300e-4
-1.688, 3.270e-4
-1.687, 3.239e-4
-1.686, 3.177e-4
-1.685, 3.115e-4
-1.684, 3.085e-4
-1.683, 3.054e-4
-1.682, 2.992e-4
-1.681, 2.931e-4
-1.680, 2.900e-4
-1.679, 2.869e-4
-1.678, 2.807e-4
-1.677, 2.776e-4
-1.676, 2.776e-4
-1.675, 2.746e-4
-1.674, 2.684e-4
-1.673, 2.653e-4
-1.672, 2.622e-4
-1.671, 2.561e-4
-1.670, 2.530e-4
-1.669, 2.499e-4
-1.668, 2.437e-4
-1.667, 2.406e-4
-1.666, 2.376e-4
-1.665, 2.376e-4
-1.664, 2.314e-4
-1.663, 2.314e-4
-1.662, 2.283e-4
-1.661, 2.221e-4
-1.660, 2.191e-4
-1.659, 2.129e-4
-1.658, 2.098e-4
-1.657, 2.067e-4
-1.656, 2.036e-4
-1.655, 2.006e-4
-1.654, 2.006e-4
-1.653, 1.975e-4
-1.652, 1.944e-4
-1.651, 1.913e-4
-1.650, 1.882e-4
-1.649, 1.851e-4
-1.648, 1.821e-4
-1.647, 1.790e-4
-1.646, 1.759e-4
-1.645, 1.728e-4
-1.644, 1.697e-4
-1.643, 1.666e-4
-1.642, 1.666e-4
-1.641, 1.636e-4
-1.640, 1.636e-4
-1.639, 1.605e-4
-1.638, 1.574e-4
-1.637, 1.543e-4
-1.636, 1.512e-4
-1.635, 1.451e-4
-1.634, 1.451e-4
-1.633, 1.420e-4
-1.632, 1.389e-4
-1.631, 1.358e-4
-1.630, 1.358e-4
-1.629, 1.358e-4
-1.628, 1.327e-4
-1.627, 1.327e-4
-1.626, 1.296e-4
-1.625, 1.266e-4
-1.624, 1.235e-4
-1.623, 1.204e-4
-1.622, 1.173e-4
-1.621, 1.173e-4
-1.620, 1.142e-4
-1.619, 1.142e-4
-1.618, 1.111e-4
-1.617, 1.111e-4
-1.616, 1.081e-4
-1.615, 1.081e-4
-1.614, 1.050e-4
-1.613, 1.019e-4
-1.612, 9.882e-5
-1.611, 9.573e-5
-1.610, 9.573e-5
-1.609, 9.265e-5
-1.608, 9.265e-5
-1.607, 8.957e-5
-1.606, 9.265e-5
-1.605, 8.957e-5
-1.604, 8.648e-5
-1.603, 8.648e-5
-1.602, 8.340e-5
-1.601, 8.032e-5
-1.600, 8.032e-5
-1.599, 7.723e-5
-1.598, 7.415e-5
-1.597, 7.415e-5
-1.596, 7.415e-5
-1.595, 7.415e-5
-1.594, 7.107e-5
-1.593, 7.107e-5
-1.592, 7.107e-5
-1.591, 6.798e-5
-1.590, 6.490e-5
-1.589, 6.490e-5
-1.588, 6.182e-5
-1.587, 5.873e-5
-1.586, 5.873e-5
-1.585, 5.873e-5
-1.584, 5.873e-5
-1.583, 5.873e-5
-1.582, 5.565e-5
-1.581, 5.565e-5
-1.580, 5.565e-5
-1.579, 5.257e-5
-1.578, 4.949e-5
-1.577, 4.949e-5
-1.576, 4.640e-5
-1.575, 4.640e-5
-1.574, 4.640e-5
-1.573, 4.640e-5
-1.572, 4.640e-5
-1.571, 4.640e-5
-1.570, 4.640e-5
-1.569, 4.332e-5
-1.568, 4.024e-5
-1.567, 4.024e-5
-1.566, 3.715e-5
-1.565, 3.715e-5
-1.564, 3.407e-5
-1.563, 3.407e-5
-1.562, 3.407e-5
-1.561, 3.407e-5
-1.560, 3.407e-5
-1.559, 3.407e-5
-1.558, 3.407e-5
-1.557, 3.407e-5
-1.556, 3.099e-5
-1.555, 2.790e-5
-1.554, 2.790e-5
-1.553, 2.482e-5
-1.552, 2.482e-5
-1.551, 2.482e-5
-1.550, 2.482e-5
-1.549, 2.482e-5
-1.548, 2.482e-5
-1.547, 2.482e-5
-1.546, 2.482e-5
-1.545, 2.482e-5
-1.544, 2.174e-5
-1.543, 2.174e-5
-1.542, 1.865e-5
-1.541, 1.865e-5
-1.540, 1.865e-5
-1.539, 1.557e-5
-1.538, 1.865e-5
-1.537, 1.865e-5
-1.536, 1.865e-5
-1.535, 1.865e-5
-1.534, 1.557e-5
-1.533, 1.557e-5
-1.532, 1.557e-5
-1.531, 1.249e-5
-1.530, 1.249e-5
-1.529, 1.249e-5
-1.528, 9.405e-6
-1.527, 9.405e-6
-1.526, 9.405e-6
-1.525, 1.249e-5
-1.524, 1.249e-5
-1.523, 9.405e-6
-1.522, 9.405e-6
-1.521, 9.405e-6
-1.520, 9.405e-6
-1.519, 6.322e-6
-1.518, 6.322e-6
-1.517, 6.322e-6
-1.516, 3.239e-6
-1.515, 3.239e-6
-1.514, 6.322e-6
-1.513, 6.322e-6
-1.512, 6.322e-6
-1.511, 6.322e-6
-1.510, 6.322e-6
-1.509, 3.239e-6
-1.508, 3.239e-6
-1.507, 3.239e-6
-1.506, 1.559e-7
-1.505, 1.559e-7
-1.504, 1.559e-7
-1.503, 1.559e-7
-1.502, 3.239e-6
-1.501, 3.239e-6
-1.500, 3.239e-6
-1.499, 3.239e-6
-1.498, 1.559e-7
-1.497, 1.559e-7
-1.496, 1.559e-7
-1.495, 1.559e-7
-1.494, -2.927e-6
-1.493, -2.927e-6
-1.492, -2.927e-6
-1.491, 1.559e-7
-1.490, 1.559e-7
-1.489, 1.559e-7
-1.488, -2.927e-6
-1.487, -2.927e-6
-1.486, -2.927e-6
-1.485, -2.927e-6
-1.484, -6.010e-6
-1.483, -6.010e-6
-1.482, -6.010e-6
-1.481, -6.010e-6
-1.480, -6.010e-6
-1.479, -2.927e-6
-1.478, -2.927e-6
-1.477, -2.927e-6
-1.476, -2.927e-6
-1.475, -2.927e-6
-1.474, -6.010e-6
-1.473, -6.010e-6
-1.472, -6.010e-6
-1.471, -9.093e-6
-1.470, -9.093e-6
-1.469, -6.010e-6
-1.468, -9.093e-6
-1.467, -6.010e-6
-1.466, -6.010e-6
-1.465, -6.010e-6
-1.464, -6.010e-6
-1.463, -6.010e-6
-1.462, -9.093e-6
-1.461, -6.010e-6
-1.460, -9.093e-6
-1.459, -9.093e-6
-1.458, -9.093e-6
-1.457, -9.093e-6
-1.456, -9.093e-6
-1.455, -9.093e-6
-1.454, -9.093e-6
-1.453, -9.093e-6
-1.452, -9.093e-6
-1.451, -9.093e-6
-1.450, -9.093e-6
-1.449, -9.093e-6
-1.448, -1.218e-5
-1.447, -1.218e-5
-1.446, -1.218e-5
-1.445, -1.218e-5
-1.444, -9.093e-6
-1.443, -9.093e-6
-1.442, -9.093e-6
-1.441, -9.093e-6
-1.440, -9.093e-6
-1.439, -9.093e-6
-1.438, -1.218e-5
-1.437, -1.218e-5
-1.436, -1.218e-5
-1.435, -1.218e-5
-1.434, -1.218e-5
-1.433, -1.218e-5
-1.432, -1.218e-5
-1.431, -1.218e-5
-1.430, -9.093e-6
-1.429, -1.218e-5
-1.428, -1.218e-5
-1.427, -1.218e-5
-1.426, -1.218e-5
-1.425, -1.218e-5
-1.424, -1.218e-5
-1.423, -1.218e-5
-1.422, -1.218e-5
-1.421, -1.218e-5
-1.420, -1.218e-5
-1.419, -1.218e-5
-1.418, -1.218e-5
-1.417, -1.218e-5
-1.416, -1.218e-5
-1.415, -1.218e-5
-1.414, -1.218e-5
-1.413, -1.526e-5
-1.412, -1.526e-5
-1.411, -1.526e-5
-1.410, -1.526e-5
-1.409, -1.218e-5
-1.408, -1.218e-5
-1.407, -1.218e-5
-1.406, -1.218e-5
-1.405, -1.218e-5
-1.404, -1.218e-5
-1.403, -1.218e-5
-1.402, -1.526e-5
-1.401, -1.526e-5
-1.400, -1.526e-5
-1.399, -1.526e-5
-1.398, -1.526e-5
-1.397, -1.218e-5
-1.396, -1.218e-5
-1.395, -1.218e-5
-1.394, -1.218e-5
-1.393, -1.218e-5
-1.392, -1.526e-5
-1.391, -1.526e-5
-1.390, -1.526e-5
-1.389, -1.526e-5
-1.388, -1.526e-5
-1.387, -1.526e-5
-1.386, -1.526e-5
-1.385, -1.526e-5
-1.384, -1.218e-5
-1.383, -1.218e-5
-1.382, -1.218e-5
-1.381, -1.526e-5
-1.380, -1.526e-5
-1.379, -1.526e-5
-1.378, -1.526e-5
-1.377, -1.526e-5
-1.376, -1.526e-5
-1.375, -1.526e-5
-1.374, -1.526e-5
-1.373, -1.526e-5
-1.372, -1.218e-5
-1.371, -1.526e-5
-1.370, -1.218e-5
-1.369, -1.526e-5
-1.368, -1.526e-5
-1.367, -1.526e-5
-1.366, -1.834e-5
-1.365, -1.526e-5
-1.364, -1.526e-5
-1.363, -1.526e-5
-1.362, -1.526e-5
-1.361, -1.218e-5
-1.360, -1.218e-5
-1.359, -1.526e-5
-1.358, -1.526e-5
-1.357, -1.526e-5
-1.356, -1.526e-5
-1.355, -1.526e-5
-1.354, -1.834e-5
-1.353, -1.526e-5
-1.352, -1.526e-5
-1.351, -1.526e-5
-1.350, -1.526e-5
-1.349, -1.218e-5
-1.348, -1.526e-5
-1.347, -1.526e-5
-1.346, -1.526e-5
-1.345, -1.526e-5
-1.344, -1.526e-5
-1.343, -1.834e-5
-1.342, -1.834e-5
-1.341, -1.834e-5
-1.340, -1.526e-5
-1.339, -1.526e-5
-1.338, -1.526e-5
-1.337, -1.526e-5
-1.336, -1.526e-5
-1.335, -1.526e-5
-1.334, -1.526e-5
-1.333, -1.526e-5
-1.332, -1.834e-5
-1.331, -1.834e-5
-1.330, -1.834e-5
-1.329, -1.526e-5
-1.328, -1.526e-5
-1.327, -1.526e-5
-1.326, -1.526e-5
-1.325, -1.526e-5
-1.324, -1.526e-5
-1.323, -1.526e-5
-1.322, -1.526e-5
-1.321, -1.526e-5
-1.320, -1.834e-5
-1.319, -1.526e-5
-1.318, -1.834e-5
-1.317, -1.526e-5
-1.316, -1.834e-5
-1.315, -1.526e-5
-1.314, -1.526e-5
-1.313, -1.526e-5
-1.312, -1.526e-5
-1.311, -1.526e-5
-1.310, -1.526e-5
-1.309, -1.526e-5
-1.308, -1.526e-5
-1.307, -1.834e-5
-1.306, -1.834e-5
-1.305, -1.526e-5
-1.304, -1.526e-5
-1.303, -1.526e-5
-1.302, -1.526e-5
-1.301, -1.526e-5
-1.300, -1.526e-5
-1.299, -1.526e-5
-1.298, -1.526e-5
-1.297, -1.526e-5
-1.296, -1.834e-5
-1.295, -1.834e-5
-1.294, -1.834e-5
-1.293, -1.526e-5
-1.292, -1.526e-5
-1.291, -1.526e-5
-1.290, -1.526e-5
-1.289, -1.526e-5
-1.288, -1.526e-5
-1.287, -1.526e-5
-1.286, -1.526e-5
-1.285, -1.834e-5
-1.284, -1.834e-5
-1.283, -1.834e-5
-1.282, -1.834e-5
-1.281, -1.526e-5
-1.280, -1.526e-5
-1.279, -1.526e-5
-1.278, -1.526e-5
-1.277, -1.526e-5
-1.276, -1.526e-5
-1.275, -1.834e-5
-1.274, -1.526e-5
-1.273, -1.834e-5
-1.272, -1.834e-5
-1.271, -1.834e-5
-1.270, -1.834e-5
-1.269, -1.526e-5
-1.268, -1.526e-5
-1.267, -1.526e-5
-1.266, -1.526e-5
-1.265, -1.526e-5
-1.264, -1.834e-5
-1.263, -1.526e-5
-1.262, -1.834e-5
-1.261, -1.834e-5
-1.260, -1.834e-5
-1.259, -1.834e-5
-1.258, -1.834e-5
-1.257, -1.834e-5
-1.256, -1.526e-5
-1.255, -1.526e-5
-1.254, -1.526e-5
-1.253, -1.834e-5
-1.252, -1.834e-5
-1.251, -1.834e-5
-1.250, -1.834e-5
-1.249, -1.834e-5
-1.248, -1.834e-5
-1.247, -1.834e-5
-1.246, -1.834e-5
-1.245, -1.526e-5
-1.244, -1.526e-5
-1.243, -1.526e-5
-1.242, -1.526e-5
-1.241, -1.526e-5
-1.240, -1.834e-5
-1.239, -1.834e-5
-1.238, -1.834e-5
-1.237, -1.834e-5
-1.236, -1.834e-5
-1.235, -1.834e-5
-1.234, -1.834e-5
-1.233, -1.834e-5
-1.232, -1.526e-5
-1.231, -1.834e-5
-1.230, -1.834e-5
-1.229, -1.834e-5
-1.228, -1.834e-5
-1.227, -1.834e-5
-1.226, -1.834e-5
-1.225, -2.143e-5
-1.224, -1.834e-5
-1.223, -1.834e-5
-1.222, -1.834e-5
-1.221, -1.834e-5
-1.220, -1.834e-5
-1.219, -1.526e-5
-1.218, -1.834e-5
-1.217, -1.834e-5
-1.216, -1.834e-5
-1.215, -2.143e-5
-1.214, -1.834e-5
-1.213, -1.834e-5
-1.212, -1.834e-5
-1.211, -1.834e-5
-1.210, -1.834e-5
-1.209, -1.526e-5
-1.208, -1.834e-5
-1.207, -1.834e-5
-1.206, -1.834e-5
-1.205, -1.834e-5
-1.204, -1.834e-5
-1.203, -1.834e-5
-1.202, -1.834e-5
-1.201, -1.834e-5
-1.200, -1.834e-5
-1.199, -1.834e-5
-1.198, -1.834e-5
-1.197, -1.834e-5
-1.196, -1.834e-5
-1.195, -1.834e-5
-1.194, -1.834e-5
-1.193, -1.834e-5
-1.192, -2.143e-5
-1.191, -2.143e-5
-1.190, -2.143e-5
-1.189, -2.143e-5
-1.188, -1.834e-5
-1.187, -1.834e-5
-1.186, -1.834e-5
-1.185, -1.834e-5
-1.184, -1.834e-5
-1.183, -1.834e-5
-1.182, -1.834e-5
-1.181, -1.834e-5
-1.180, -2.143e-5
-1.179, -2.143e-5
-1.178, -2.143e-5
-1.177, -2.143e-5
-1.176, -1.834e-5
-1.175, -1.834e-5
-1.174, -1.834e-5
-1.173, -1.834e-5
-1.172, -1.834e-5
-1.171, -1.834e-5
-1.170, -1.834e-5
-1.169, -1.834e-5
-1.168, -2.143e-5
-1.167, -2.143e-5
-1.166, -2.143e-5
-1.165, -2.143e-5
-1.164, -1.834e-5
-1.163, -1.834e-5
-1.162, -1.834e-5
-1.161, -1.834e-5
-1.160, -1.834e-5
-1.159, -1.834e-5
-1.158, -2.143e-5
-1.157, -2.143e-5
-1.156, -2.143e-5
-1.155, -2.143e-5
-1.154, -2.143e-5
-1.153, -2.143e-5
-1.152, -1.834e-5
-1.151, -1.834e-5
-1.150, -1.834e-5
-1.149, -1.834e-5
-1.148, -1.834e-5
-1.147, -1.834e-5
-1.146, -2.143e-5
-1.145, -2.143e-5
-1.144, -2.143e-5
-1.143, -2.143e-5
-1.142, -2.143e-5
-1.141, -2.143e-5
-1.140, -2.143e-5
-1.139, -1.834e-5
-1.138, -1.834e-5
-1.137, -1.834e-5
-1.136, -1.834e-5
-1.135, -2.143e-5
-1.134, -2.143e-5
-1.133, -2.143e-5
-1.132, -2.143e-5
-1.131, -2.451e-5
-1.130, -2.143e-5
-1.129, -2.143e-5
-1.128, -1.834e-5
-1.127, -2.143e-5
-1.126, -1.834e-5
-1.125, -1.834e-5
-1.124, -2.143e-5
-1.123, -2.143e-5
-1.122, -2.143e-5
-1.121, -2.451e-5
-1.120, -2.451e-5
-1.119, -2.143e-5
-1.118, -2.143e-5
-1.117, -2.143e-5
-1.116, -2.143e-5
-1.115, -2.143e-5
-1.114, -1.834e-5
-1.113, -2.143e-5
-1.112, -2.143e-5
-1.111, -2.143e-5
-1.110, -2.451e-5
-1.109, -2.451e-5
-1.108, -2.451e-5
-1.107, -2.143e-5
-1.106, -2.143e-5
-1.105, -2.143e-5
-1.104, -2.143e-5
-1.103, -2.143e-5
-1.102, -2.143e-5
-1.101, -2.143e-5
-1.100, -2.143e-5
-1.099, -2.451e-5
-1.098, -2.451e-5
-1.097, -2.451e-5
-1.096, -2.451e-5
-1.095, -2.451e-5
-1.094, -2.143e-5
-1.093, -2.143e-5
-1.092, -2.143e-5
-1.091, -2.143e-5
-1.090, -2.143e-5
-1.089, -2.143e-5
-1.088, -2.451e-5
-1.087, -2.451e-5
-1.086, -2.451e-5
-1.085, -2.451e-5
-1.084, -2.451e-5
-1.083, -2.451e-5
-1.082, -2.143e-5
-1.081, -2.143e-5
-1.080, -2.143e-5
-1.079, -2.143e-5
-1.078, -2.451e-5
-1.077, -2.451e-5
-1.076, -2.451e-5
-1.075, -2.451e-5
-1.074, -2.451e-5
-1.073, -2.451e-5
-1.072, -2.451e-5
-1.071, -2.451e-5
-1.070, -2.143e-5
-1.069, -2.451e-5
-1.068, -2.143e-5
-1.067, -2.143e-5
-1.066, -2.451e-5
-1.065, -2.451e-5
-1.064, -2.451e-5
-1.063, -2.451e-5
-1.062, -2.759e-5
-1.061, -2.759e-5
-1.060, -2.451e-5
-1.059, -2.451e-5
-1.058, -2.143e-5
-1.057, -2.451e-5
-1.056, -2.451e-5
-1.055, -2.451e-5
-1.054, -2.451e-5
-1.053, -2.451e-5
-1.052, -2.759e-5
-1.051, -2.759e-5
-1.050, -2.759e-5
-1.049, -2.759e-5
-1.048, -2.759e-5
-1.047, -2.451e-5
-1.046, -2.451e-5
-1.045, -2.451e-5
-1.044, -2.451e-5
-1.043, -2.451e-5
-1.042, -2.451e-5
-1.041, -2.759e-5
-1.040, -2.759e-5
-1.039, -2.759e-5
-1.038, -2.759e-5
-1.037, -2.759e-5
-1.036, -2.759e-5
-1.035, -2.451e-5
-1.034, -2.451e-5
-1.033, -2.451e-5
-1.032, -2.451e-5
-1.031, -2.451e-5
-1.030, -2.759e-5
-1.029, -2.759e-5
-1.028, -2.759e-5
-1.027, -2.759e-5
-1.026, -2.759e-5
-1.025, -2.759e-5
-1.024, -2.759e-5
-1.023, -2.759e-5
-1.022, -2.451e-5
-1.021, -2.451e-5
-1.020, -2.451e-5
-1.019, -2.759e-5
-1.018, -2.759e-5
-1.017, -2.759e-5
-1.016, -3.068e-5
-1.015, -2.759e-5
-1.014, -2.759e-5
-1.013, -2.759e-5
-1.012, -2.759e-5
-1.011, -2.759e-5
-1.010, -2.759e-5
-1.009, -2.759e-5
-1.008, -2.759e-5
-1.007, -2.759e-5
-1.006, -2.759e-5
-1.005, -2.759e-5
-1.004, -3.068e-5
-1.003, -3.068e-5
-1.002, -3.068e-5
-1.001, -2.759e-5
