Apr. 19, 2025   22:24:53
Cyclic Voltammetry
File: c:/users/guazh/data/banditlqround7_x0exp590_r20/2025-04-16-exp1131\exp1131-2025-04-19t22_02_37-h2koh\exp1131_cv_sr_50mvs_efin_-1900mv.bin
Data Source:  Experiment
Instrument Model:  CHI760E
Header: CV ran at 50 mVs
Note: 

Init E (V) = -1
High E (V) = -1
Low E (V) = -1.9
Final E (V) = -1
Init P/N = N
Scan Rate (V/s) = 0.05
Segment = 3
Sample Interval (V) = 0.001
Quiet Time (sec) = 2
Sensitivity (A/V) = 0.01
Comp R (ohm) = 1.7

Results:

Channel 1:
Segment 1:

Segment 2:

Segment 3:

Potential/V, Current/A

-1.000, 7.873e-7
-1.001, 6.788e-7
-1.002, 5.209e-7
-1.003, 7.281e-7
-1.004, 1.152e-6
-1.005, 1.202e-6
-1.006, 9.156e-7
-1.007, 7.182e-7
-1.008, 9.649e-7
-1.009, 1.310e-6
-1.010, 1.231e-6
-1.011, 1.093e-6
-1.012, 8.465e-7
-1.013, 1.024e-6
-1.014, 1.369e-6
-1.015, 1.330e-6
-1.016, 1.202e-6
-1.017, 8.860e-7
-1.018, 1.103e-6
-1.019, 1.429e-6
-1.020, 1.478e-6
-1.021, 1.271e-6
-1.022, 1.004e-6
-1.023, 1.202e-6
-1.024, 1.557e-6
-1.025, 1.646e-6
-1.026, 1.350e-6
-1.027, 1.083e-6
-1.028, 1.320e-6
-1.029, 1.656e-6
-1.030, 1.665e-6
-1.031, 1.330e-6
-1.032, 1.152e-6
-1.033, 1.360e-6
-1.034, 1.734e-6
-1.035, 1.675e-6
-1.036, 1.350e-6
-1.037, 1.281e-6
-1.038, 1.438e-6
-1.039, 1.794e-6
-1.040, 1.794e-6
-1.041, 1.508e-6
-1.042, 1.271e-6
-1.043, 1.448e-6
-1.044, 1.774e-6
-1.045, 1.843e-6
-1.046, 1.577e-6
-1.047, 1.271e-6
-1.048, 1.478e-6
-1.049, 1.784e-6
-1.050, 1.912e-6
-1.051, 1.636e-6
-1.052, 1.360e-6
-1.053, 1.675e-6
-1.054, 1.961e-6
-1.055, 1.942e-6
-1.056, 1.715e-6
-1.057, 1.438e-6
-1.058, 1.596e-6
-1.059, 1.932e-6
-1.060, 1.853e-6
-1.061, 1.596e-6
-1.062, 1.448e-6
-1.063, 1.675e-6
-1.064, 2.030e-6
-1.065, 1.961e-6
-1.066, 1.734e-6
-1.067, 1.429e-6
-1.068, 1.695e-6
-1.069, 2.090e-6
-1.070, 2.011e-6
-1.071, 1.715e-6
-1.072, 1.508e-6
-1.073, 1.734e-6
-1.074, 2.060e-6
-1.075, 2.040e-6
-1.076, 1.823e-6
-1.077, 1.508e-6
-1.078, 1.833e-6
-1.079, 2.070e-6
-1.080, 2.119e-6
-1.081, 1.863e-6
-1.082, 1.656e-6
-1.083, 1.892e-6
-1.084, 2.060e-6
-1.085, 2.090e-6
-1.086, 1.764e-6
-1.087, 1.656e-6
-1.088, 1.863e-6
-1.089, 2.218e-6
-1.090, 2.169e-6
-1.091, 1.873e-6
-1.092, 1.626e-6
-1.093, 1.971e-6
-1.094, 2.228e-6
-1.095, 2.178e-6
-1.096, 1.961e-6
-1.097, 1.665e-6
-1.098, 2.011e-6
-1.099, 2.198e-6
-1.100, 2.198e-6
-1.101, 1.991e-6
-1.102, 1.803e-6
-1.103, 1.951e-6
-1.104, 2.297e-6
-1.105, 2.238e-6
-1.106, 2.001e-6
-1.107, 1.833e-6
-1.108, 2.001e-6
-1.109, 2.277e-6
-1.110, 2.247e-6
-1.111, 1.971e-6
-1.112, 1.803e-6
-1.113, 2.139e-6
-1.114, 2.415e-6
-1.115, 2.247e-6
-1.116, 1.951e-6
-1.117, 1.873e-6
-1.118, 2.090e-6
-1.119, 2.455e-6
-1.120, 2.297e-6
-1.121, 2.119e-6
-1.122, 1.892e-6
-1.123, 2.099e-6
-1.124, 2.386e-6
-1.125, 2.336e-6
-1.126, 2.070e-6
-1.127, 2.011e-6
-1.128, 2.149e-6
-1.129, 2.435e-6
-1.130, 2.445e-6
-1.131, 2.109e-6
-1.132, 1.912e-6
-1.133, 2.188e-6
-1.134, 2.445e-6
-1.135, 2.445e-6
-1.136, 2.139e-6
-1.137, 1.942e-6
-1.138, 2.169e-6
-1.139, 2.465e-6
-1.140, 2.405e-6
-1.141, 2.139e-6
-1.142, 1.942e-6
-1.143, 2.238e-6
-1.144, 2.494e-6
-1.145, 2.465e-6
-1.146, 2.238e-6
-1.147, 1.981e-6
-1.148, 2.297e-6
-1.149, 2.504e-6
-1.150, 2.395e-6
-1.151, 2.129e-6
-1.152, 2.070e-6
-1.153, 2.277e-6
-1.154, 2.583e-6
-1.155, 2.524e-6
-1.156, 2.238e-6
-1.157, 2.070e-6
-1.158, 2.435e-6
-1.159, 2.662e-6
-1.160, 2.514e-6
-1.161, 2.208e-6
-1.162, 2.099e-6
-1.163, 2.425e-6
-1.164, 2.583e-6
-1.165, 2.613e-6
-1.166, 2.277e-6
-1.167, 2.218e-6
-1.168, 2.405e-6
-1.169, 2.652e-6
-1.170, 2.632e-6
-1.171, 2.395e-6
-1.172, 2.188e-6
-1.173, 2.425e-6
-1.174, 2.691e-6
-1.175, 2.701e-6
-1.176, 2.366e-6
-1.177, 2.149e-6
-1.178, 2.524e-6
-1.179, 2.830e-6
-1.180, 2.701e-6
-1.181, 2.474e-6
-1.182, 2.238e-6
-1.183, 2.514e-6
-1.184, 2.810e-6
-1.185, 2.770e-6
-1.186, 2.395e-6
-1.187, 2.228e-6
-1.188, 2.534e-6
-1.189, 2.751e-6
-1.190, 2.751e-6
-1.191, 2.435e-6
-1.192, 2.297e-6
-1.193, 2.603e-6
-1.194, 2.820e-6
-1.195, 2.701e-6
-1.196, 2.504e-6
-1.197, 2.297e-6
-1.198, 2.553e-6
-1.199, 2.800e-6
-1.200, 2.770e-6
-1.201, 2.524e-6
-1.202, 2.277e-6
-1.203, 2.642e-6
-1.204, 2.859e-6
-1.205, 2.800e-6
-1.206, 2.455e-6
-1.207, 2.395e-6
-1.208, 2.613e-6
-1.209, 2.830e-6
-1.210, 2.731e-6
-1.211, 2.514e-6
-1.212, 2.405e-6
-1.213, 2.672e-6
-1.214, 2.820e-6
-1.215, 2.997e-6
-1.216, 2.622e-6
-1.217, 2.386e-6
-1.218, 2.652e-6
-1.219, 2.839e-6
-1.220, 2.711e-6
-1.221, 2.504e-6
-1.222, 2.425e-6
-1.223, 2.731e-6
-1.224, 2.869e-6
-1.225, 2.790e-6
-1.226, 2.465e-6
-1.227, 2.395e-6
-1.228, 2.622e-6
-1.229, 3.056e-6
-1.230, 2.859e-6
-1.231, 2.563e-6
-1.232, 2.465e-6
-1.233, 2.741e-6
-1.234, 2.938e-6
-1.235, 2.820e-6
-1.236, 2.613e-6
-1.237, 2.455e-6
-1.238, 2.721e-6
-1.239, 2.928e-6
-1.240, 2.879e-6
-1.241, 2.543e-6
-1.242, 2.484e-6
-1.243, 2.741e-6
-1.244, 2.987e-6
-1.245, 2.908e-6
-1.246, 2.553e-6
-1.247, 2.465e-6
-1.248, 2.820e-6
-1.249, 2.958e-6
-1.250, 2.869e-6
-1.251, 2.642e-6
-1.252, 2.455e-6
-1.253, 2.770e-6
-1.254, 2.948e-6
-1.255, 2.879e-6
-1.256, 2.701e-6
-1.257, 2.455e-6
-1.258, 2.780e-6
-1.259, 2.997e-6
-1.260, 2.869e-6
-1.261, 2.553e-6
-1.262, 2.514e-6
-1.263, 2.800e-6
-1.264, 2.997e-6
-1.265, 2.820e-6
-1.266, 2.652e-6
-1.267, 2.504e-6
-1.268, 2.780e-6
-1.269, 3.017e-6
-1.270, 2.879e-6
-1.271, 2.642e-6
-1.272, 2.524e-6
-1.273, 2.830e-6
-1.274, 3.037e-6
-1.275, 2.918e-6
-1.276, 2.583e-6
-1.277, 2.613e-6
-1.278, 2.869e-6
-1.279, 2.978e-6
-1.280, 2.918e-6
-1.281, 2.721e-6
-1.282, 2.563e-6
-1.283, 2.899e-6
-1.284, 3.027e-6
-1.285, 2.899e-6
-1.286, 2.682e-6
-1.287, 2.642e-6
-1.288, 2.918e-6
-1.289, 3.066e-6
-1.290, 2.958e-6
-1.291, 2.652e-6
-1.292, 2.632e-6
-1.293, 2.859e-6
-1.294, 3.086e-6
-1.295, 2.968e-6
-1.296, 2.810e-6
-1.297, 2.563e-6
-1.298, 2.889e-6
-1.299, 3.076e-6
-1.300, 3.027e-6
-1.301, 2.672e-6
-1.302, 2.701e-6
-1.303, 2.928e-6
-1.304, 3.096e-6
-1.305, 3.047e-6
-1.306, 2.790e-6
-1.307, 2.731e-6
-1.308, 2.987e-6
-1.309, 3.224e-6
-1.310, 3.076e-6
-1.311, 2.780e-6
-1.312, 2.751e-6
-1.313, 3.056e-6
-1.314, 3.204e-6
-1.315, 3.066e-6
-1.316, 2.889e-6
-1.317, 2.711e-6
-1.318, 3.076e-6
-1.319, 3.254e-6
-1.320, 3.145e-6
-1.321, 2.908e-6
-1.322, 2.889e-6
-1.323, 3.145e-6
-1.324, 3.303e-6
-1.325, 3.145e-6
-1.326, 2.889e-6
-1.327, 2.859e-6
-1.328, 3.224e-6
-1.329, 3.244e-6
-1.330, 3.185e-6
-1.331, 2.987e-6
-1.332, 2.928e-6
-1.333, 3.254e-6
-1.334, 3.431e-6
-1.335, 3.254e-6
-1.336, 2.987e-6
-1.337, 2.908e-6
-1.338, 3.333e-6
-1.339, 3.441e-6
-1.340, 3.274e-6
-1.341, 3.047e-6
-1.342, 3.056e-6
-1.343, 3.333e-6
-1.344, 3.491e-6
-1.345, 3.323e-6
-1.346, 3.126e-6
-1.347, 2.997e-6
-1.348, 3.382e-6
-1.349, 3.540e-6
-1.350, 3.441e-6
-1.351, 3.185e-6
-1.352, 3.135e-6
-1.353, 3.372e-6
-1.354, 3.658e-6
-1.355, 3.510e-6
-1.356, 3.165e-6
-1.357, 3.274e-6
-1.358, 3.599e-6
-1.359, 3.629e-6
-1.360, 3.629e-6
-1.361, 3.343e-6
-1.362, 3.313e-6
-1.363, 3.648e-6
-1.364, 3.796e-6
-1.365, 3.658e-6
-1.366, 3.431e-6
-1.367, 3.372e-6
-1.368, 3.708e-6
-1.369, 3.767e-6
-1.370, 3.777e-6
-1.371, 3.510e-6
-1.372, 3.510e-6
-1.373, 3.875e-6
-1.374, 3.964e-6
-1.375, 3.925e-6
-1.376, 3.648e-6
-1.377, 3.648e-6
-1.378, 3.994e-6
-1.379, 4.053e-6
-1.380, 3.836e-6
-1.381, 3.757e-6
-1.382, 3.767e-6
-1.383, 4.191e-6
-1.384, 4.231e-6
-1.385, 4.122e-6
-1.386, 3.885e-6
-1.387, 3.816e-6
-1.388, 4.250e-6
-1.389, 4.526e-6
-1.390, 4.221e-6
-1.391, 4.043e-6
-1.392, 4.073e-6
-1.393, 4.408e-6
-1.394, 4.596e-6
-1.395, 4.339e-6
-1.396, 4.132e-6
-1.397, 4.171e-6
-1.398, 4.556e-6
-1.399, 4.734e-6
-1.400, 4.605e-6
-1.401, 4.231e-6
-1.402, 4.369e-6
-1.403, 4.763e-6
-1.404, 4.901e-6
-1.405, 4.773e-6
-1.406, 4.586e-6
-1.407, 4.605e-6
-1.408, 5.020e-6
-1.409, 5.148e-6
-1.410, 5.049e-6
-1.411, 4.684e-6
-1.412, 4.803e-6
-1.413, 5.138e-6
-1.414, 5.336e-6
-1.415, 5.178e-6
-1.416, 4.941e-6
-1.417, 5.049e-6
-1.418, 5.493e-6
-1.419, 5.641e-6
-1.420, 5.533e-6
-1.421, 5.316e-6
-1.422, 5.355e-6
-1.423, 5.799e-6
-1.424, 5.839e-6
-1.425, 5.750e-6
-1.426, 5.523e-6
-1.427, 5.691e-6
-1.428, 6.105e-6
-1.429, 6.283e-6
-1.430, 6.046e-6
-1.431, 5.888e-6
-1.432, 6.046e-6
-1.433, 6.431e-6
-1.434, 6.687e-6
-1.435, 6.529e-6
-1.436, 6.401e-6
-1.437, 6.549e-6
-1.438, 6.914e-6
-1.439, 7.003e-6
-1.440, 6.954e-6
-1.441, 6.815e-6
-1.442, 6.815e-6
-1.443, 7.259e-6
-1.444, 7.427e-6
-1.445, 7.259e-6
-1.446, 7.200e-6
-1.447, 7.397e-6
-1.448, 7.802e-6
-1.449, 7.980e-6
-1.450, 7.911e-6
-1.451, 7.713e-6
-1.452, 7.861e-6
-1.453, 8.354e-6
-1.454, 8.522e-6
-1.455, 8.335e-6
-1.456, 8.256e-6
-1.457, 8.404e-6
-1.458, 8.848e-6
-1.459, 9.025e-6
-1.460, 9.016e-6
-1.461, 8.887e-6
-1.462, 8.976e-6
-1.463, 9.558e-6
-1.464, 9.677e-6
-1.465, 9.736e-6
-1.466, 9.538e-6
-1.467, 9.785e-6
-1.468, 1.019e-5
-1.469, 1.043e-5
-1.470, 1.046e-5
-1.471, 1.033e-5
-1.472, 1.051e-5
-1.473, 1.110e-5
-1.474, 1.131e-5
-1.475, 1.138e-5
-1.476, 1.118e-5
-1.477, 1.133e-5
-1.478, 1.189e-5
-1.479, 1.223e-5
-1.480, 1.213e-5
-1.481, 1.203e-5
-1.482, 1.230e-5
-1.483, 1.286e-5
-1.484, 1.312e-5
-1.485, 1.324e-5
-1.486, 1.301e-5
-1.487, 1.336e-5
-1.488, 1.394e-5
-1.489, 1.422e-5
-1.490, 1.412e-5
-1.491, 1.413e-5
-1.492, 1.456e-5
-1.493, 1.496e-5
-1.494, 1.523e-5
-1.495, 1.533e-5
-1.496, 1.529e-5
-1.497, 1.562e-5
-1.498, 1.625e-5
-1.499, 1.658e-5
-1.500, 1.667e-5
-1.501, 1.680e-5
-1.502, 1.714e-5
-1.503, 1.765e-5
-1.504, 1.807e-5
-1.505, 1.812e-5
-1.506, 1.812e-5
-1.507, 1.861e-5
-1.508, 1.912e-5
-1.509, 1.948e-5
-1.510, 1.965e-5
-1.511, 1.978e-5
-1.512, 2.012e-5
-1.513, 2.079e-5
-1.514, 2.127e-5
-1.515, 2.140e-5
-1.516, 2.149e-5
-1.517, 2.195e-5
-1.518, 2.270e-5
-1.519, 2.317e-5
-1.520, 2.330e-5
-1.521, 2.347e-5
-1.522, 2.390e-5
-1.523, 2.478e-5
-1.524, 2.525e-5
-1.525, 2.542e-5
-1.526, 2.552e-5
-1.527, 2.611e-5
-1.528, 2.690e-5
-1.529, 2.743e-5
-1.530, 2.774e-5
-1.531, 2.797e-5
-1.532, 2.840e-5
-1.533, 2.934e-5
-1.534, 2.981e-5
-1.535, 3.011e-5
-1.536, 3.040e-5
-1.537, 3.103e-5
-1.538, 3.191e-5
-1.539, 3.260e-5
-1.540, 3.276e-5
-1.541, 3.316e-5
-1.542, 3.378e-5
-1.543, 3.476e-5
-1.544, 3.525e-5
-1.545, 3.564e-5
-1.546, 3.600e-5
-1.547, 3.681e-5
-1.548, 3.774e-5
-1.549, 3.835e-5
-1.550, 3.877e-5
-1.551, 3.915e-5
-1.552, 3.992e-5
-1.553, 4.085e-5
-1.554, 4.169e-5
-1.555, 4.202e-5
-1.556, 4.255e-5
-1.557, 4.336e-5
-1.558, 4.437e-5
-1.559, 4.517e-5
-1.560, 4.565e-5
-1.561, 4.607e-5
-1.562, 4.703e-5
-1.563, 4.814e-5
-1.564, 4.898e-5
-1.565, 4.960e-5
-1.566, 5.012e-5
-1.567, 5.093e-5
-1.568, 5.219e-5
-1.569, 5.299e-5
-1.570, 5.358e-5
-1.571, 5.416e-5
-1.572, 5.513e-5
-1.573, 5.638e-5
-1.574, 5.727e-5
-1.575, 5.804e-5
-1.576, 5.868e-5
-1.577, 5.966e-5
-1.578, 6.085e-5
-1.579, 6.199e-5
-1.580, 6.268e-5
-1.581, 6.343e-5
-1.582, 6.437e-5
-1.583, 6.584e-5
-1.584, 6.682e-5
-1.585, 6.766e-5
-1.586, 6.834e-5
-1.587, 6.954e-5
-1.588, 7.104e-5
-1.589, 7.221e-5
-1.590, 7.300e-5
-1.591, 7.393e-5
-1.592, 7.510e-5
-1.593, 7.661e-5
-1.594, 7.795e-5
-1.595, 7.877e-5
-1.596, 7.971e-5
-1.597, 8.106e-5
-1.598, 8.263e-5
-1.599, 8.395e-5
-1.600, 8.499e-5
-1.601, 8.586e-5
-1.602, 8.733e-5
-1.603, 8.896e-5
-1.604, 9.042e-5
-1.605, 9.161e-5
-1.606, 9.269e-5
-1.607, 9.415e-5
-1.608, 9.580e-5
-1.609, 9.737e-5
-1.610, 9.868e-5
-1.611, 9.970e-5
-1.612, 1.012e-4
-1.613, 1.031e-4
-1.614, 1.048e-4
-1.615, 1.061e-4
-1.616, 1.074e-4
-1.617, 1.089e-4
-1.618, 1.108e-4
-1.619, 1.123e-4
-1.620, 1.137e-4
-1.621, 1.151e-4
-1.622, 1.168e-4
-1.623, 1.188e-4
-1.624, 1.207e-4
-1.625, 1.221e-4
-1.626, 1.234e-4
-1.627, 1.253e-4
-1.628, 1.275e-4
-1.629, 1.294e-4
-1.630, 1.310e-4
-1.631, 1.328e-4
-1.632, 1.347e-4
-1.633, 1.368e-4
-1.634, 1.387e-4
-1.635, 1.404e-4
-1.636, 1.423e-4
-1.637, 1.444e-4
-1.638, 1.468e-4
-1.639, 1.492e-4
-1.640, 1.509e-4
-1.641, 1.528e-4
-1.642, 1.549e-4
-1.643, 1.576e-4
-1.644, 1.597e-4
-1.645, 1.618e-4
-1.646, 1.636e-4
-1.647, 1.662e-4
-1.648, 1.687e-4
-1.649, 1.710e-4
-1.650, 1.734e-4
-1.651, 1.754e-4
-1.652, 1.783e-4
-1.653, 1.808e-4
-1.654, 1.836e-4
-1.655, 1.860e-4
-1.656, 1.882e-4
-1.657, 1.908e-4
-1.658, 1.937e-4
-1.659, 1.967e-4
-1.660, 1.994e-4
-1.661, 2.016e-4
-1.662, 2.044e-4
-1.663, 2.078e-4
-1.664, 2.107e-4
-1.665, 2.130e-4
-1.666, 2.158e-4
-1.667, 2.193e-4
-1.668, 2.224e-4
-1.669, 2.253e-4
-1.670, 2.283e-4
-1.671, 2.317e-4
-1.672, 2.342e-4
-1.673, 2.374e-4
-1.674, 2.416e-4
-1.675, 2.443e-4
-1.676, 2.471e-4
-1.677, 2.508e-4
-1.678, 2.541e-4
-1.679, 2.576e-4
-1.680, 2.615e-4
-1.681, 2.653e-4
-1.682, 2.684e-4
-1.683, 2.725e-4
-1.684, 2.771e-4
-1.685, 2.797e-4
-1.686, 2.837e-4
-1.687, 2.869e-4
-1.688, 2.916e-4
-1.689, 2.952e-4
-1.690, 2.991e-4
-1.691, 3.032e-4
-1.692, 3.080e-4
-1.693, 3.125e-4
-1.694, 3.180e-4
-1.695, 3.213e-4
-1.696, 3.253e-4
-1.697, 3.301e-4
-1.698, 3.344e-4
-1.699, 3.395e-4
-1.700, 3.434e-4
-1.701, 3.482e-4
-1.702, 3.531e-4
-1.703, 3.581e-4
-1.704, 3.638e-4
-1.705, 3.680e-4
-1.706, 3.737e-4
-1.707, 3.776e-4
-1.708, 3.837e-4
-1.709, 3.898e-4
-1.710, 3.944e-4
-1.711, 3.997e-4
-1.712, 4.049e-4
-1.713, 4.098e-4
-1.714, 4.166e-4
-1.715, 4.214e-4
-1.716, 4.283e-4
-1.717, 4.322e-4
-1.718, 4.388e-4
-1.719, 4.452e-4
-1.720, 4.508e-4
-1.721, 4.578e-4
-1.722, 4.638e-4
-1.723, 4.703e-4
-1.724, 4.772e-4
-1.725, 4.834e-4
-1.726, 4.909e-4
-1.727, 4.951e-4
-1.728, 5.039e-4
-1.729, 5.101e-4
-1.730, 5.159e-4
-1.731, 5.240e-4
-1.732, 5.302e-4
-1.733, 5.393e-4
-1.734, 5.472e-4
-1.735, 5.528e-4
-1.736, 5.604e-4
-1.737, 5.677e-4
-1.738, 5.780e-4
-1.739, 5.849e-4
-1.740, 5.931e-4
-1.741, 5.992e-4
-1.742, 6.079e-4
-1.743, 6.194e-4
-1.744, 6.263e-4
-1.745, 6.360e-4
-1.746, 6.434e-4
-1.747, 6.526e-4
-1.748, 6.598e-4
-1.749, 6.707e-4
-1.750, 6.782e-4
-1.751, 6.871e-4
-1.752, 6.966e-4
-1.753, 7.070e-4
-1.754, 7.177e-4
-1.755, 7.248e-4
-1.756, 7.366e-4
-1.757, 7.447e-4
-1.758, 7.569e-4
-1.759, 7.651e-4
-1.760, 7.752e-4
-1.761, 7.870e-4
-1.762, 7.978e-4
-1.763, 8.113e-4
-1.764, 8.191e-4
-1.765, 8.307e-4
-1.766, 8.390e-4
-1.767, 8.536e-4
-1.768, 8.651e-4
-1.769, 8.768e-4
-1.770, 8.868e-4
-1.771, 8.981e-4
-1.772, 9.102e-4
-1.773, 9.279e-4
-1.774, 9.392e-4
-1.775, 9.504e-4
-1.776, 9.638e-4
-1.777, 9.770e-4
-1.778, 9.950e-4
-1.779, 1.006e-3
-1.780, 1.020e-3
-1.781, 1.031e-3
-1.782, 1.048e-3
-1.783, 1.064e-3
-1.784, 1.079e-3
-1.785, 1.091e-3
-1.786, 1.105e-3
-1.787, 1.119e-3
-1.788, 1.137e-3
-1.789, 1.149e-3
-1.790, 1.165e-3
-1.791, 1.181e-3
-1.792, 1.199e-3
-1.793, 1.215e-3
-1.794, 1.231e-3
-1.795, 1.248e-3
-1.796, 1.264e-3
-1.797, 1.283e-3
-1.798, 1.305e-3
-1.799, 1.321e-3
-1.800, 1.339e-3
-1.801, 1.359e-3
-1.802, 1.372e-3
-1.803, 1.393e-3
-1.804, 1.412e-3
-1.805, 1.434e-3
-1.806, 1.454e-3
-1.807, 1.473e-3
-1.808, 1.495e-3
-1.809, 1.519e-3
-1.810, 1.537e-3
-1.811, 1.554e-3
-1.812, 1.578e-3
-1.813, 1.597e-3
-1.814, 1.615e-3
-1.815, 1.644e-3
-1.816, 1.667e-3
-1.817, 1.686e-3
-1.818, 1.712e-3
-1.819, 1.732e-3
-1.820, 1.758e-3
-1.821, 1.784e-3
-1.822, 1.803e-3
-1.823, 1.829e-3
-1.824, 1.856e-3
-1.825, 1.883e-3
-1.826, 1.906e-3
-1.827, 1.938e-3
-1.828, 1.961e-3
-1.829, 1.991e-3
-1.830, 2.016e-3
-1.831, 2.046e-3
-1.832, 2.070e-3
-1.833, 2.097e-3
-1.834, 2.126e-3
-1.835, 2.157e-3
-1.836, 2.195e-3
-1.837, 2.227e-3
-1.838, 2.259e-3
-1.839, 2.284e-3
-1.840, 2.306e-3
-1.841, 2.340e-3
-1.842, 2.371e-3
-1.843, 2.404e-3
-1.844, 2.439e-3
-1.845, 2.461e-3
-1.846, 2.498e-3
-1.847, 2.528e-3
-1.848, 2.562e-3
-1.849, 2.595e-3
-1.850, 2.624e-3
-1.851, 2.664e-3
-1.852, 2.707e-3
-1.853, 2.736e-3
-1.854, 2.779e-3
-1.855, 2.810e-3
-1.856, 2.849e-3
-1.857, 2.884e-3
-1.858, 2.928e-3
-1.859, 2.970e-3
-1.860, 3.019e-3
-1.861, 3.065e-3
-1.862, 3.111e-3
-1.863, 3.140e-3
-1.864, 3.188e-3
-1.865, 3.234e-3
-1.866, 3.275e-3
-1.867, 3.328e-3
-1.868, 3.381e-3
-1.869, 3.435e-3
-1.870, 3.467e-3
-1.871, 3.510e-3
-1.872, 3.557e-3
-1.873, 3.608e-3
-1.874, 3.658e-3
-1.875, 3.703e-3
-1.876, 3.751e-3
-1.877, 3.806e-3
-1.878, 3.856e-3
-1.879, 3.905e-3
-1.880, 3.954e-3
-1.881, 4.005e-3
-1.882, 4.083e-3
-1.883, 4.138e-3
-1.884, 4.189e-3
-1.885, 4.225e-3
-1.886, 4.278e-3
-1.887, 4.338e-3
-1.888, 4.407e-3
-1.889, 4.459e-3
-1.890, 4.500e-3
-1.891, 4.567e-3
-1.892, 4.618e-3
-1.893, 4.664e-3
-1.894, 4.722e-3
-1.895, 4.777e-3
-1.896, 4.826e-3
-1.897, 4.892e-3
-1.898, 4.949e-3
-1.899, 5.006e-3
-1.900, 5.031e-3
-1.899, 5.002e-3
-1.898, 4.982e-3
-1.897, 4.970e-3
-1.896, 4.946e-3
-1.895, 4.916e-3
-1.894, 4.892e-3
-1.893, 4.877e-3
-1.892, 4.842e-3
-1.891, 4.782e-3
-1.890, 4.753e-3
-1.889, 4.715e-3
-1.888, 4.683e-3
-1.887, 4.650e-3
-1.886, 4.612e-3
-1.885, 4.572e-3
-1.884, 4.527e-3
-1.883, 4.491e-3
-1.882, 4.456e-3
-1.881, 4.426e-3
-1.880, 4.381e-3
-1.879, 4.354e-3
-1.878, 4.325e-3
-1.877, 4.311e-3
-1.876, 4.268e-3
-1.875, 4.220e-3
-1.874, 4.185e-3
-1.873, 4.155e-3
-1.872, 4.135e-3
-1.871, 4.106e-3
-1.870, 4.058e-3
-1.869, 4.020e-3
-1.868, 3.975e-3
-1.867, 3.926e-3
-1.866, 3.887e-3
-1.865, 3.850e-3
-1.864, 3.813e-3
-1.863, 3.785e-3
-1.862, 3.771e-3
-1.861, 3.733e-3
-1.860, 3.693e-3
-1.859, 3.648e-3
-1.858, 3.604e-3
-1.857, 3.575e-3
-1.856, 3.528e-3
-1.855, 3.485e-3
-1.854, 3.454e-3
-1.853, 3.425e-3
-1.852, 3.389e-3
-1.851, 3.359e-3
-1.850, 3.325e-3
-1.849, 3.290e-3
-1.848, 3.258e-3
-1.847, 3.223e-3
-1.846, 3.188e-3
-1.845, 3.155e-3
-1.844, 3.122e-3
-1.843, 3.090e-3
-1.842, 3.052e-3
-1.841, 3.029e-3
-1.840, 2.986e-3
-1.839, 2.962e-3
-1.838, 2.932e-3
-1.837, 2.902e-3
-1.836, 2.871e-3
-1.835, 2.842e-3
-1.834, 2.806e-3
-1.833, 2.773e-3
-1.832, 2.747e-3
-1.831, 2.714e-3
-1.830, 2.672e-3
-1.829, 2.659e-3
-1.828, 2.641e-3
-1.827, 2.625e-3
-1.826, 2.592e-3
-1.825, 2.562e-3
-1.824, 2.530e-3
-1.823, 2.493e-3
-1.822, 2.469e-3
-1.821, 2.439e-3
-1.820, 2.421e-3
-1.819, 2.393e-3
-1.818, 2.372e-3
-1.817, 2.342e-3
-1.816, 2.312e-3
-1.815, 2.281e-3
-1.814, 2.256e-3
-1.813, 2.237e-3
-1.812, 2.214e-3
-1.811, 2.191e-3
-1.810, 2.163e-3
-1.809, 2.132e-3
-1.808, 2.106e-3
-1.807, 2.079e-3
-1.806, 2.051e-3
-1.805, 2.026e-3
-1.804, 2.003e-3
-1.803, 1.983e-3
-1.802, 1.962e-3
-1.801, 1.942e-3
-1.800, 1.913e-3
-1.799, 1.896e-3
-1.798, 1.871e-3
-1.797, 1.852e-3
-1.796, 1.825e-3
-1.795, 1.810e-3
-1.794, 1.789e-3
-1.793, 1.769e-3
-1.792, 1.752e-3
-1.791, 1.737e-3
-1.790, 1.717e-3
-1.789, 1.694e-3
-1.788, 1.666e-3
-1.787, 1.646e-3
-1.786, 1.624e-3
-1.785, 1.599e-3
-1.784, 1.575e-3
-1.783, 1.560e-3
-1.782, 1.542e-3
-1.781, 1.530e-3
-1.780, 1.517e-3
-1.779, 1.500e-3
-1.778, 1.477e-3
-1.777, 1.454e-3
-1.776, 1.436e-3
-1.775, 1.423e-3
-1.774, 1.408e-3
-1.773, 1.385e-3
-1.772, 1.367e-3
-1.771, 1.352e-3
-1.770, 1.335e-3
-1.769, 1.319e-3
-1.768, 1.304e-3
-1.767, 1.288e-3
-1.766, 1.270e-3
-1.765, 1.253e-3
-1.764, 1.240e-3
-1.763, 1.229e-3
-1.762, 1.212e-3
-1.761, 1.198e-3
-1.760, 1.184e-3
-1.759, 1.168e-3
-1.758, 1.153e-3
-1.757, 1.136e-3
-1.756, 1.120e-3
-1.755, 1.105e-3
-1.754, 1.094e-3
-1.753, 1.084e-3
-1.752, 1.067e-3
-1.751, 1.053e-3
-1.750, 1.044e-3
-1.749, 1.031e-3
-1.748, 1.021e-3
-1.747, 1.010e-3
-1.746, 9.942e-4
-1.745, 9.816e-4
-1.744, 9.690e-4
-1.743, 9.569e-4
-1.742, 9.458e-4
-1.741, 9.319e-4
-1.740, 9.180e-4
-1.739, 9.079e-4
-1.738, 8.946e-4
-1.737, 8.819e-4
-1.736, 8.739e-4
-1.735, 8.606e-4
-1.734, 8.515e-4
-1.733, 8.414e-4
-1.732, 8.289e-4
-1.731, 8.207e-4
-1.730, 8.056e-4
-1.729, 7.930e-4
-1.728, 7.878e-4
-1.727, 7.750e-4
-1.726, 7.653e-4
-1.725, 7.553e-4
-1.724, 7.437e-4
-1.723, 7.340e-4
-1.722, 7.252e-4
-1.721, 7.140e-4
-1.720, 7.066e-4
-1.719, 6.963e-4
-1.718, 6.853e-4
-1.717, 6.789e-4
-1.716, 6.695e-4
-1.715, 6.576e-4
-1.714, 6.523e-4
-1.713, 6.419e-4
-1.712, 6.329e-4
-1.711, 6.271e-4
-1.710, 6.169e-4
-1.709, 6.070e-4
-1.708, 5.995e-4
-1.707, 5.927e-4
-1.706, 5.837e-4
-1.705, 5.752e-4
-1.704, 5.685e-4
-1.703, 5.602e-4
-1.702, 5.514e-4
-1.701, 5.436e-4
-1.700, 5.351e-4
-1.699, 5.279e-4
-1.698, 5.209e-4
-1.697, 5.133e-4
-1.696, 5.047e-4
-1.695, 4.974e-4
-1.694, 4.913e-4
-1.693, 4.845e-4
-1.692, 4.791e-4
-1.691, 4.712e-4
-1.690, 4.635e-4
-1.689, 4.577e-4
-1.688, 4.517e-4
-1.687, 4.433e-4
-1.686, 4.371e-4
-1.685, 4.312e-4
-1.684, 4.250e-4
-1.683, 4.195e-4
-1.682, 4.131e-4
-1.681, 4.076e-4
-1.680, 4.019e-4
-1.679, 3.953e-4
-1.678, 3.905e-4
-1.677, 3.844e-4
-1.676, 3.796e-4
-1.675, 3.722e-4
-1.674, 3.662e-4
-1.673, 3.631e-4
-1.672, 3.572e-4
-1.671, 3.512e-4
-1.670, 3.455e-4
-1.669, 3.408e-4
-1.668, 3.366e-4
-1.667, 3.315e-4
-1.666, 3.252e-4
-1.665, 3.205e-4
-1.664, 3.151e-4
-1.663, 3.113e-4
-1.662, 3.077e-4
-1.661, 3.024e-4
-1.660, 2.967e-4
-1.659, 2.927e-4
-1.658, 2.892e-4
-1.657, 2.844e-4
-1.656, 2.798e-4
-1.655, 2.755e-4
-1.654, 2.718e-4
-1.653, 2.677e-4
-1.652, 2.639e-4
-1.651, 2.601e-4
-1.650, 2.549e-4
-1.649, 2.511e-4
-1.648, 2.481e-4
-1.647, 2.447e-4
-1.646, 2.402e-4
-1.645, 2.360e-4
-1.644, 2.328e-4
-1.643, 2.300e-4
-1.642, 2.261e-4
-1.641, 2.221e-4
-1.640, 2.187e-4
-1.639, 2.157e-4
-1.638, 2.127e-4
-1.637, 2.094e-4
-1.636, 2.055e-4
-1.635, 2.019e-4
-1.634, 1.988e-4
-1.633, 1.961e-4
-1.632, 1.933e-4
-1.631, 1.904e-4
-1.630, 1.870e-4
-1.629, 1.839e-4
-1.628, 1.816e-4
-1.627, 1.790e-4
-1.626, 1.754e-4
-1.625, 1.724e-4
-1.624, 1.696e-4
-1.623, 1.675e-4
-1.622, 1.650e-4
-1.621, 1.622e-4
-1.620, 1.594e-4
-1.619, 1.567e-4
-1.618, 1.548e-4
-1.617, 1.525e-4
-1.616, 1.494e-4
-1.615, 1.469e-4
-1.614, 1.446e-4
-1.613, 1.426e-4
-1.612, 1.404e-4
-1.611, 1.378e-4
-1.610, 1.354e-4
-1.609, 1.335e-4
-1.608, 1.313e-4
-1.607, 1.292e-4
-1.606, 1.268e-4
-1.605, 1.248e-4
-1.604, 1.232e-4
-1.603, 1.213e-4
-1.602, 1.194e-4
-1.601, 1.173e-4
-1.600, 1.147e-4
-1.599, 1.129e-4
-1.598, 1.115e-4
-1.597, 1.098e-4
-1.596, 1.079e-4
-1.595, 1.058e-4
-1.594, 1.039e-4
-1.593, 1.024e-4
-1.592, 1.009e-4
-1.591, 9.904e-5
-1.590, 9.713e-5
-1.589, 9.566e-5
-1.588, 9.418e-5
-1.587, 9.265e-5
-1.586, 9.096e-5
-1.585, 8.919e-5
-1.584, 8.777e-5
-1.583, 8.650e-5
-1.582, 8.525e-5
-1.581, 8.355e-5
-1.580, 8.188e-5
-1.579, 8.061e-5
-1.578, 7.971e-5
-1.577, 7.836e-5
-1.576, 7.663e-5
-1.575, 7.520e-5
-1.574, 7.420e-5
-1.573, 7.338e-5
-1.572, 7.190e-5
-1.571, 7.028e-5
-1.570, 6.895e-5
-1.569, 6.816e-5
-1.568, 6.724e-5
-1.567, 6.611e-5
-1.566, 6.477e-5
-1.565, 6.351e-5
-1.564, 6.265e-5
-1.563, 6.168e-5
-1.562, 6.064e-5
-1.561, 5.937e-5
-1.560, 5.817e-5
-1.559, 5.752e-5
-1.558, 5.682e-5
-1.557, 5.577e-5
-1.556, 5.456e-5
-1.555, 5.318e-5
-1.554, 5.260e-5
-1.553, 5.193e-5
-1.552, 5.103e-5
-1.551, 4.994e-5
-1.550, 4.885e-5
-1.549, 4.821e-5
-1.548, 4.766e-5
-1.547, 4.689e-5
-1.546, 4.572e-5
-1.545, 4.474e-5
-1.544, 4.425e-5
-1.543, 4.372e-5
-1.542, 4.298e-5
-1.541, 4.198e-5
-1.540, 4.092e-5
-1.539, 4.049e-5
-1.538, 4.010e-5
-1.537, 3.933e-5
-1.536, 3.832e-5
-1.535, 3.741e-5
-1.534, 3.700e-5
-1.533, 3.662e-5
-1.532, 3.592e-5
-1.531, 3.506e-5
-1.530, 3.422e-5
-1.529, 3.393e-5
-1.528, 3.350e-5
-1.527, 3.291e-5
-1.526, 3.218e-5
-1.525, 3.131e-5
-1.524, 3.104e-5
-1.523, 3.065e-5
-1.522, 3.000e-5
-1.521, 2.917e-5
-1.520, 2.851e-5
-1.519, 2.829e-5
-1.518, 2.806e-5
-1.517, 2.748e-5
-1.516, 2.671e-5
-1.515, 2.596e-5
-1.514, 2.590e-5
-1.513, 2.564e-5
-1.512, 2.513e-5
-1.511, 2.429e-5
-1.510, 2.377e-5
-1.509, 2.363e-5
-1.508, 2.334e-5
-1.507, 2.278e-5
-1.506, 2.215e-5
-1.505, 2.166e-5
-1.504, 2.146e-5
-1.503, 2.130e-5
-1.502, 2.074e-5
-1.501, 2.013e-5
-1.500, 1.961e-5
-1.499, 1.956e-5
-1.498, 1.947e-5
-1.497, 1.894e-5
-1.496, 1.832e-5
-1.495, 1.794e-5
-1.494, 1.783e-5
-1.493, 1.778e-5
-1.492, 1.730e-5
-1.491, 1.678e-5
-1.490, 1.635e-5
-1.489, 1.626e-5
-1.488, 1.627e-5
-1.487, 1.579e-5
-1.486, 1.524e-5
-1.485, 1.484e-5
-1.484, 1.485e-5
-1.483, 1.476e-5
-1.482, 1.438e-5
-1.481, 1.391e-5
-1.480, 1.342e-5
-1.479, 1.357e-5
-1.478, 1.340e-5
-1.477, 1.306e-5
-1.476, 1.258e-5
-1.475, 1.226e-5
-1.474, 1.231e-5
-1.473, 1.223e-5
-1.472, 1.193e-5
-1.471, 1.149e-5
-1.470, 1.112e-5
-1.469, 1.119e-5
-1.468, 1.127e-5
-1.467, 1.081e-5
-1.466, 1.038e-5
-1.465, 1.009e-5
-1.464, 1.029e-5
-1.463, 1.021e-5
-1.462, 9.933e-6
-1.461, 9.479e-6
-1.460, 9.213e-6
-1.459, 9.203e-6
-1.458, 9.213e-6
-1.457, 8.907e-6
-1.456, 8.572e-6
-1.455, 8.335e-6
-1.454, 8.473e-6
-1.453, 8.374e-6
-1.452, 8.108e-6
-1.451, 7.832e-6
-1.450, 7.624e-6
-1.449, 7.674e-6
-1.448, 7.743e-6
-1.447, 7.447e-6
-1.446, 7.052e-6
-1.445, 6.786e-6
-1.444, 7.042e-6
-1.443, 6.973e-6
-1.442, 6.766e-6
-1.441, 6.421e-6
-1.440, 6.135e-6
-1.439, 6.293e-6
-1.438, 6.381e-6
-1.437, 6.105e-6
-1.436, 5.710e-6
-1.435, 5.503e-6
-1.434, 5.720e-6
-1.433, 5.720e-6
-1.432, 5.503e-6
-1.431, 5.118e-6
-1.430, 4.892e-6
-1.429, 5.158e-6
-1.428, 5.168e-6
-1.427, 4.862e-6
-1.426, 4.536e-6
-1.425, 4.369e-6
-1.424, 4.684e-6
-1.423, 4.753e-6
-1.422, 4.457e-6
-1.421, 4.132e-6
-1.420, 4.013e-6
-1.419, 4.231e-6
-1.418, 4.319e-6
-1.417, 4.023e-6
-1.416, 3.737e-6
-1.415, 3.599e-6
-1.414, 3.796e-6
-1.413, 3.816e-6
-1.412, 3.708e-6
-1.411, 3.362e-6
-1.410, 3.204e-6
-1.409, 3.323e-6
-1.408, 3.491e-6
-1.407, 3.333e-6
-1.406, 2.997e-6
-1.405, 2.790e-6
-1.404, 3.037e-6
-1.403, 3.135e-6
-1.402, 2.978e-6
-1.401, 2.652e-6
-1.400, 2.543e-6
-1.399, 2.751e-6
-1.398, 2.830e-6
-1.397, 2.662e-6
-1.396, 2.317e-6
-1.395, 2.159e-6
-1.394, 2.474e-6
-1.393, 2.455e-6
-1.392, 2.307e-6
-1.391, 2.021e-6
-1.390, 1.912e-6
-1.389, 2.178e-6
-1.388, 2.257e-6
-1.387, 2.109e-6
-1.386, 1.823e-6
-1.385, 1.636e-6
-1.384, 1.932e-6
-1.383, 1.961e-6
-1.382, 1.705e-6
-1.381, 1.438e-6
-1.380, 1.419e-6
-1.379, 1.616e-6
-1.378, 1.794e-6
-1.377, 1.577e-6
-1.376, 1.290e-6
-1.375, 1.231e-6
-1.374, 1.488e-6
-1.373, 1.606e-6
-1.372, 1.379e-6
-1.371, 1.083e-6
-1.370, 1.004e-6
-1.369, 1.241e-6
-1.368, 1.399e-6
-1.367, 1.202e-6
-1.366, 7.676e-7
-1.365, 7.774e-7
-1.364, 1.202e-6
-1.363, 1.221e-6
-1.362, 9.452e-7
-1.361, 6.886e-7
-1.360, 5.900e-7
-1.359, 9.353e-7
-1.358, 1.014e-6
-1.357, 8.564e-7
-1.356, 4.519e-7
-1.355, 4.716e-7
-1.354, 7.774e-7
-1.353, 8.465e-7
-1.352, 6.492e-7
-1.351, 3.828e-7
-1.350, 3.137e-7
-1.349, 6.886e-7
-1.348, 6.689e-7
-1.347, 4.617e-7
-1.346, 2.841e-7
-1.345, 1.657e-7
-1.344, 5.209e-7
-1.343, 4.913e-7
-1.342, 3.137e-7
-1.341, 6.709e-8
-1.340, -1.973e-9
-1.339, 3.335e-7
-1.338, 4.223e-7
-1.337, 2.249e-7
-1.336, -7.103e-8
-1.335, 4.736e-8
-1.334, 2.052e-7
-1.333, 3.631e-7
-1.332, 1.066e-7
-1.331, -2.092e-7
-1.330, -1.894e-7
-1.329, 4.736e-8
-1.328, 1.657e-7
-1.327, 3.749e-8
-1.326, -2.881e-7
-1.325, -3.473e-7
-1.324, 4.736e-8
-1.323, 8.682e-8
-1.322, -6.117e-8
-1.321, -3.177e-7
-1.320, -4.065e-7
-1.319, -6.117e-8
-1.318, -3.157e-8
-1.317, -2.486e-7
-1.316, -4.755e-7
-1.315, -5.446e-7
-1.314, -1.993e-7
-1.313, -1.302e-7
-1.312, -3.769e-7
-1.311, -6.630e-7
-1.310, -5.545e-7
-1.309, -2.881e-7
-1.308, -1.993e-7
-1.307, -4.262e-7
-1.306, -6.235e-7
-1.305, -7.715e-7
-1.304, -3.275e-7
-1.303, -3.374e-7
-1.302, -4.854e-7
-1.301, -7.814e-7
-1.300, -7.321e-7
-1.299, -4.163e-7
-1.298, -2.190e-7
-1.297, -5.643e-7
-1.296, -7.715e-7
-1.295, -8.208e-7
-1.294, -4.854e-7
-1.293, -5.051e-7
-1.292, -6.729e-7
-1.291, -9.392e-7
-1.290, -8.603e-7
-1.289, -5.347e-7
-1.288, -4.262e-7
-1.287, -7.321e-7
-1.286, -9.096e-7
-1.285, -8.998e-7
-1.284, -6.334e-7
-1.283, -5.249e-7
-1.282, -7.025e-7
-1.281, -9.787e-7
-1.280, -1.058e-6
-1.279, -6.334e-7
-1.278, -6.531e-7
-1.277, -8.603e-7
-1.276, -1.058e-6
-1.275, -1.058e-6
-1.274, -7.715e-7
-1.273, -7.321e-7
-1.272, -8.307e-7
-1.271, -1.097e-6
-1.270, -1.137e-6
-1.269, -8.307e-7
-1.268, -6.729e-7
-1.267, -9.590e-7
-1.266, -1.225e-6
-1.265, -1.146e-6
-1.264, -8.899e-7
-1.263, -7.814e-7
-1.262, -1.058e-6
-1.261, -1.186e-6
-1.260, -1.265e-6
-1.259, -9.984e-7
-1.258, -8.406e-7
-1.257, -1.058e-6
-1.256, -1.334e-6
-1.255, -1.285e-6
-1.254, -9.590e-7
-1.253, -8.504e-7
-1.252, -1.127e-6
-1.251, -1.363e-6
-1.250, -1.314e-6
-1.249, -9.787e-7
-1.248, -9.688e-7
-1.247, -1.196e-6
-1.246, -1.433e-6
-1.245, -1.334e-6
-1.244, -9.688e-7
-1.243, -9.984e-7
-1.242, -1.156e-6
-1.241, -1.521e-6
-1.240, -1.413e-6
-1.239, -1.107e-6
-1.238, -9.590e-7
-1.237, -1.344e-6
-1.236, -1.511e-6
-1.235, -1.433e-6
-1.234, -1.117e-6
-1.233, -1.097e-6
-1.232, -1.373e-6
-1.231, -1.403e-6
-1.230, -1.393e-6
-1.229, -1.225e-6
-1.228, -1.156e-6
-1.227, -1.423e-6
-1.226, -1.600e-6
-1.225, -1.640e-6
-1.224, -1.245e-6
-1.223, -1.235e-6
-1.222, -1.413e-6
-1.221, -1.738e-6
-1.220, -1.640e-6
-1.219, -1.285e-6
-1.218, -1.215e-6
-1.217, -1.442e-6
-1.216, -1.837e-6
-1.215, -1.679e-6
-1.214, -1.363e-6
-1.213, -1.225e-6
-1.212, -1.462e-6
-1.211, -1.798e-6
-1.210, -1.689e-6
-1.209, -1.393e-6
-1.208, -1.304e-6
-1.207, -1.531e-6
-1.206, -1.857e-6
-1.205, -1.709e-6
-1.204, -1.472e-6
-1.203, -1.383e-6
-1.202, -1.719e-6
-1.201, -1.916e-6
-1.200, -1.807e-6
-1.199, -1.502e-6
-1.198, -1.423e-6
-1.197, -1.659e-6
-1.196, -1.837e-6
-1.195, -1.837e-6
-1.194, -1.462e-6
-1.193, -1.492e-6
-1.192, -1.600e-6
-1.191, -2.044e-6
-1.190, -1.936e-6
-1.189, -1.640e-6
-1.188, -1.551e-6
-1.187, -1.758e-6
-1.186, -1.995e-6
-1.185, -1.896e-6
-1.184, -1.541e-6
-1.183, -1.531e-6
-1.182, -1.827e-6
-1.181, -2.143e-6
-1.180, -1.946e-6
-1.179, -1.610e-6
-1.178, -1.610e-6
-1.177, -1.877e-6
-1.176, -2.103e-6
-1.175, -2.044e-6
-1.174, -1.719e-6
-1.173, -1.571e-6
-1.172, -1.827e-6
-1.171, -2.202e-6
-1.170, -2.044e-6
-1.169, -1.689e-6
-1.168, -1.679e-6
-1.167, -2.015e-6
-1.166, -2.281e-6
-1.165, -2.172e-6
-1.164, -1.827e-6
-1.163, -1.788e-6
-1.162, -2.015e-6
-1.161, -2.281e-6
-1.160, -2.153e-6
-1.159, -1.788e-6
-1.158, -1.827e-6
-1.157, -2.084e-6
-1.156, -2.291e-6
-1.155, -2.202e-6
-1.154, -1.817e-6
-1.153, -1.788e-6
-1.152, -2.015e-6
-1.151, -2.409e-6
-1.150, -2.232e-6
-1.149, -1.946e-6
-1.148, -1.886e-6
-1.147, -2.143e-6
-1.146, -2.350e-6
-1.145, -2.271e-6
-1.144, -1.955e-6
-1.143, -1.807e-6
-1.142, -2.212e-6
-1.141, -2.528e-6
-1.140, -2.330e-6
-1.139, -2.074e-6
-1.138, -2.015e-6
-1.137, -2.212e-6
-1.136, -2.439e-6
-1.135, -2.370e-6
-1.134, -2.084e-6
-1.133, -2.084e-6
-1.132, -2.340e-6
-1.131, -2.577e-6
-1.130, -2.409e-6
-1.129, -2.054e-6
-1.128, -2.044e-6
-1.127, -2.242e-6
-1.126, -2.607e-6
-1.125, -2.409e-6
-1.124, -2.123e-6
-1.123, -2.182e-6
-1.122, -2.380e-6
-1.121, -2.636e-6
-1.120, -2.468e-6
-1.119, -2.133e-6
-1.118, -2.163e-6
-1.117, -2.468e-6
-1.116, -2.745e-6
-1.115, -2.557e-6
-1.114, -2.202e-6
-1.113, -2.360e-6
-1.112, -2.478e-6
-1.111, -2.745e-6
-1.110, -2.508e-6
-1.109, -2.182e-6
-1.108, -2.242e-6
-1.107, -2.557e-6
-1.106, -2.873e-6
-1.105, -2.666e-6
-1.104, -2.350e-6
-1.103, -2.261e-6
-1.102, -2.547e-6
-1.101, -2.883e-6
-1.100, -2.695e-6
-1.099, -2.340e-6
-1.098, -2.409e-6
-1.097, -2.577e-6
-1.096, -2.952e-6
-1.095, -2.695e-6
-1.094, -2.419e-6
-1.093, -2.439e-6
-1.092, -2.646e-6
-1.091, -2.942e-6
-1.090, -2.705e-6
-1.089, -2.399e-6
-1.088, -2.429e-6
-1.087, -2.784e-6
-1.086, -3.031e-6
-1.085, -2.873e-6
-1.084, -2.439e-6
-1.083, -2.419e-6
-1.082, -2.745e-6
-1.081, -3.041e-6
-1.080, -2.834e-6
-1.079, -2.439e-6
-1.078, -2.498e-6
-1.077, -2.804e-6
-1.076, -3.120e-6
-1.075, -2.972e-6
-1.074, -2.518e-6
-1.073, -2.646e-6
-1.072, -2.824e-6
-1.071, -3.100e-6
-1.070, -2.962e-6
-1.069, -2.538e-6
-1.068, -2.705e-6
-1.067, -2.873e-6
-1.066, -3.189e-6
-1.065, -3.021e-6
-1.064, -2.557e-6
-1.063, -2.587e-6
-1.062, -3.060e-6
-1.061, -3.218e-6
-1.060, -3.031e-6
-1.059, -2.705e-6
-1.058, -2.764e-6
-1.057, -2.952e-6
-1.056, -3.297e-6
-1.055, -3.070e-6
-1.054, -2.883e-6
-1.053, -2.755e-6
-1.052, -3.060e-6
-1.051, -3.327e-6
-1.050, -3.277e-6
-1.049, -2.883e-6
-1.048, -2.893e-6
-1.047, -3.129e-6
-1.046, -3.455e-6
-1.045, -3.199e-6
-1.044, -2.794e-6
-1.043, -2.853e-6
-1.042, -3.277e-6
-1.041, -3.475e-6
-1.040, -3.238e-6
-1.039, -2.922e-6
-1.038, -2.903e-6
-1.037, -3.317e-6
-1.036, -3.544e-6
-1.035, -3.356e-6
-1.034, -2.972e-6
-1.033, -2.942e-6
-1.032, -3.297e-6
-1.031, -3.534e-6
-1.030, -3.435e-6
-1.029, -3.001e-6
-1.028, -3.001e-6
-1.027, -3.347e-6
-1.026, -3.573e-6
-1.025, -3.317e-6
-1.024, -3.110e-6
-1.023, -3.139e-6
-1.022, -3.386e-6
-1.021, -3.692e-6
-1.020, -3.435e-6
-1.019, -3.139e-6
-1.018, -3.159e-6
-1.017, -3.514e-6
-1.016, -3.712e-6
-1.015, -3.534e-6
-1.014, -3.248e-6
-1.013, -3.258e-6
-1.012, -3.583e-6
-1.011, -3.869e-6
-1.010, -3.613e-6
-1.009, -3.307e-6
-1.008, -3.376e-6
-1.007, -3.613e-6
-1.006, -3.830e-6
-1.005, -3.692e-6
-1.004, -3.268e-6
-1.003, -3.386e-6
-1.002, -3.721e-6
-1.001, -3.899e-6
