Potential V vs RHE, Current mA cm-2
0.013299999999999867,0.2443206414866918
0.012299999999999978,0.10823956155267396
0.011299999999999866,0.016127708818461418
0.010299999999999976,-0.0519057575920482
0.009299999999999864,-0.10456131217302486
0.008299999999999974,-0.155052358465208
0.007299999999999862,-0.21008462802995795
0.006299999999999972,-0.26030687917516676
0.00529999999999986,-0.2955331905418062
0.0042999999999999705,-0.3253835989689584
0.0032999999999998586,-0.3591951990357328
0.0022999999999999687,-0.3975338752620753
0.0012999999999998568,-0.43573108035843133
0.00029999999999996696,-0.4621861816659074
-0.000700000000000145,-0.481709197604045
-0.0017000000000000348,-0.5083057700415077
-0.0027000000000001467,-0.5399953031584845
-0.0037000000000000366,-0.5714018940154882
-0.0047000000000001485,-0.5933299191633964
-0.005700000000000038,-0.6076185032920333
-0.00670000000000015,-0.6295465284399413
-0.00770000000000004,-0.6591139946071205
-0.008700000000000152,-0.6869838072144618
-0.009700000000000042,-0.7065068231525994
-0.010700000000000154,-0.7190977537213982
-0.011700000000000044,-0.7373475294896572
-0.012700000000000156,-0.7655002843569714
-0.013700000000000045,-0.791813914534461
-0.014700000000000157,-0.8086489790028549
-0.015700000000000047,-0.8195422560118159
-0.01670000000000016,-0.8368017338701692
-0.01770000000000005,-0.8649544887374835
-0.01870000000000016,-0.889570465355135
-0.01970000000000005,-0.9038590494837719
-0.020700000000000163,-0.9160255666626113
-0.021700000000000053,-0.9314459198311402
-0.022700000000000164,-0.9583254345285759
-0.023700000000000054,-0.983365824536187
-0.024700000000000166,-0.9972299952748643
-0.025700000000000056,-1.0092550413237171
-0.026700000000000168,-1.024675394492246
-0.027700000000000058,-1.0509890246697358
-0.02870000000000017,-1.0753220590274144
-0.02970000000000006,-1.0906009410659567
-0.03070000000000017,-1.10220157372485
-0.03170000000000006,-1.11677310011346
-0.03270000000000017,-1.1428037880309765
-0.03370000000000006,-1.1695418315984258
-0.034700000000000175,-1.1834060023371034
-0.035700000000000065,-1.194016337086091
-0.03670000000000018,-1.211417286074431
-0.03770000000000007,-1.2365991472120288
-0.03870000000000018,-1.2626298351295453
-0.03970000000000007,-1.27861607281802
-0.04070000000000018,-1.2873872828771833
-0.04170000000000007,-1.3059200009054155
-0.04270000000000018,-1.3313848043029861
-0.04370000000000007,-1.3579813767404485
-0.044700000000000184,-1.3752408545988022
-0.045700000000000074,-1.3854267759578305
-0.046700000000000186,-1.4036765517260894
-0.047700000000000076,-1.4302731241635522
-0.04870000000000019,-1.4571526388609877
-0.04970000000000008,-1.4755438857592333
-0.05070000000000019,-1.4854468648582886
-0.05170000000000008,-1.505252823056399
-0.05270000000000019,-1.5335470490536998
-0.05370000000000008,-1.5590118524512704
-0.05470000000000019,-1.5788178106493809
-0.05570000000000008,-1.5901355010483011
-0.056700000000000195,-1.6085267479465466
-0.057700000000000085,-1.6382356852437125
-0.058700000000000196,-1.6665299112410132
-0.059700000000000086,-1.6863358694391237
-0.0607000000000002,-1.6990682711379093
-0.06170000000000009,-1.7202889406358846
-0.0627000000000002,-1.7514125892329155
-0.06370000000000009,-1.779706815230216
-0.0647000000000002,-1.7995127734283267
-0.06570000000000009,-1.815074597726842
-0.0667000000000002,-1.8334658446250875
-0.0677000000000001,-1.8660042045219833
-0.0687000000000002,-1.8985425644188794
-0.0697000000000001,-1.9183485226169896
-0.07070000000000021,-1.93532505821537
-0.0717000000000001,-1.9551310164134805
-0.07270000000000021,-1.9890840876102414
-0.0737000000000001,-2.0216224475071374
-0.07470000000000021,-2.042843117005113
-0.0757000000000001,-2.0598196526034935
-0.07670000000000021,-2.083869744701199
-0.0777000000000001,-2.11782281589796
-0.07870000000000021,-2.1531905983945863
-0.0797000000000001,-2.174411267892561
-0.08070000000000022,-2.192802514790807
-0.0817000000000001,-2.2196820294882422
-0.08270000000000022,-2.2550498119848683
-0.08370000000000011,-2.2904175944814944
-0.08470000000000022,-2.3158823978790646
-0.08570000000000011,-2.3356883560771755
-0.08670000000000022,-2.362567870774611
-0.08770000000000011,-2.4007650758709675
-0.08870000000000022,-2.437547569667458
-0.08970000000000011,-2.465841795664759
-0.09070000000000022,-2.4842330425630044
-0.09170000000000011,-2.515356691160035
-0.09270000000000023,-2.5535538962563913
-0.09370000000000012,-2.5945805239524775
-0.09470000000000023,-2.624289461249643
-0.09570000000000012,-2.6455101307476188
-0.09670000000000023,-2.6766337793446495
-0.09770000000000012,-2.719075118340601
-0.09870000000000023,-2.7601017460366863
-0.09970000000000012,-2.7926401059335824
-0.10070000000000023,-2.8166901980312877
-0.10170000000000012,-2.8492285579281837
-0.10270000000000024,-2.893084608224
-0.10370000000000013,-2.938355369819681
-0.10470000000000024,-2.970893729716577
-0.10570000000000013,-2.997773244414013
-0.10670000000000024,-3.031726315610774
-0.10770000000000013,-3.07841178850632
-0.10870000000000024,-3.126511972701731
-0.10970000000000013,-3.160465043898492
-0.11070000000000024,-3.1887592698957925
-0.11170000000000013,-3.225541763692284
-0.11270000000000002,-3.27505665918756
-0.11370000000000013,-3.325986265982701
-0.11470000000000002,-3.361354048479327
-0.11570000000000014,-3.3938924083762227
-0.11670000000000003,-3.4335043247724437
-0.11770000000000014,-3.4844339315675854
-0.11870000000000003,-3.5381929609624567
-0.11970000000000014,-3.576390166058813
-0.12070000000000003,-3.608928525955709
-0.12170000000000014,-3.6527845762515243
-0.12270000000000003,-3.7065436056463965
-0.12370000000000014,-3.7617173463411326
-0.12470000000000003,-3.8069881079368133
-0.12570000000000014,-3.84235589043344
-0.12670000000000003,-3.8904560746288515
-0.12770000000000015,-3.945629815323587
-0.12870000000000004,-4.0050476899179195
-0.12970000000000015,-4.050318451513601
-0.13070000000000004,-4.085686234010226
-0.13170000000000015,-4.133786418205637
-0.13270000000000004,-4.194619004099834
-0.13370000000000015,-4.256866301293895
-0.13470000000000004,-4.3063811967891725
-0.13570000000000015,-4.348822535785122
-0.13670000000000004,-4.398337431280399
-0.13770000000000016,-4.463414151074191
-0.13870000000000005,-4.527076159568118
-0.13970000000000016,-4.579420477663124
-0.14070000000000005,-4.624691239258805
-0.14170000000000016,-4.677035557353811
-0.14270000000000005,-4.744941699747333
-0.14370000000000016,-4.815677264740584
-0.14470000000000005,-4.870851005435322
-0.14570000000000016,-4.921780612230462
-0.14670000000000005,-4.976954352925199
-0.14770000000000016,-5.0491046292183155
-0.14870000000000005,-5.1212549055114325
-0.14970000000000017,-5.177843357506034
-0.15070000000000006,-5.23018767560104
-0.15170000000000017,-5.2910202614952375
-0.15270000000000006,-5.365999960388084
-0.15370000000000017,-5.448053215780256
-0.15470000000000006,-5.507471090374587
-0.15570000000000017,-5.562644831069325
-0.15670000000000006,-5.627721550863116
-0.15770000000000017,-5.705530672355693
-0.15870000000000006,-5.788998639047731
-0.15970000000000018,-5.854075358841522
-0.16070000000000007,-5.914907944735719
-0.16170000000000018,-5.984228798429105
-0.16270000000000007,-6.066282053821277
-0.16370000000000018,-6.15682357701264
-0.16470000000000007,-6.231803275905486
-0.16570000000000018,-6.292635861799683
-0.16670000000000007,-6.369030271992395
-0.16770000000000018,-6.455327661284162
-0.16870000000000007,-6.54728389577539
-0.16970000000000018,-6.626507728567832
-0.17070000000000007,-6.691584448361623
-0.17170000000000019,-6.770808281154065
-0.17270000000000008,-6.864179226945158
-0.1737000000000002,-6.961794306635846
-0.17470000000000008,-7.046676984627748
-0.1757000000000002,-7.1216566835205946
-0.17670000000000008,-7.2079540728123614
-0.1777000000000002,-7.308398575102779
-0.17870000000000008,-7.408843077393197
-0.1797000000000002,-7.500799311884425
-0.18070000000000008,-7.580023144676867
-0.1817000000000002,-7.670564667868228
-0.18270000000000008,-7.778082726657972
-0.1837000000000002,-7.88701549674758
-0.1847000000000001,-7.987459999037997
-0.1857000000000002,-8.076586810929495
-0.1867000000000001,-8.171372468020452
-0.1877000000000002,-8.288793505909249
-0.1887000000000001,-8.404799832498183
-0.1897000000000002,-8.506659046088465
-0.1907000000000001,-8.600029991879557
-0.1917000000000001,-8.701889205469842
-0.19269999999999998,-8.827798511157829
-0.1937000000000001,-8.95795195074541
-0.19469999999999998,-9.072543566034481
-0.1957000000000001,-9.175817490924628
-0.19669999999999999,-9.2861649723141
-0.1977000000000001,-9.417733123201549
-0.1987,-9.562033675787783
-0.1997000000000001,-9.673795868477121
-0.2007,-9.782728638566729
-0.2017000000000001,-9.907223232954852
-0.2027,-10.051523785541084
-0.2037000000000001,-10.20148318332678
-0.2047,-10.335880756813957
-0.2057000000000001,-10.45754592860235
-0.2067,-10.5891140794898
-0.2077000000000001,-10.739073477275493
-0.2087,-10.900350565460107
-0.2097000000000001,-11.046065829346206
-0.2107,-11.177633980233654
-0.2117000000000001,-11.331837511918945
-0.2127,-11.497358734003152
-0.2137000000000001,-11.672782935186419
-0.2147,-11.815668776472787
-0.2157000000000001,-11.969872308158076
-0.2167,-12.129734685042823
-0.21770000000000012,-12.315061865325143
-0.2187,-12.506047890806924
-0.21970000000000012,-12.681472091990189
-0.2207,-12.845578602774532
-0.22170000000000012,-13.021002803957797
-0.2227,-13.216232963339174
-0.22370000000000012,-13.417121967920007
-0.2247,-13.609522704701652
-0.22570000000000012,-13.790605751084376
-0.2267,-13.981591776566157
-0.22770000000000012,-14.203701450644967
-0.22870000000000001,-14.415908145624723
-0.22970000000000013,-14.62811484060448
-0.23070000000000002,-14.826174422585586
-0.23170000000000013,-15.03838111756534
-0.23270000000000002,-15.278882038542395
-0.23370000000000013,-15.533530072518102
-0.23470000000000002,-15.759883880496508
-0.23570000000000013,-15.986237688474914
-0.23670000000000002,-16.19844438345467
-0.2376999999999999,-16.453092417430376
-0.23870000000000002,-16.736034677403385
-0.2396999999999999,-16.97653559838044
-0.24070000000000003,-17.231183632356142
-0.24169999999999991,-17.48583166633185
-0.24270000000000003,-17.76877392630486
-0.24369999999999992,-18.06586329927652
-0.24470000000000003,-18.348805559249524
-0.24569999999999992,-18.603453593225233
-0.24670000000000003,-18.88639585319824
-0.24769999999999992,-19.197632339168546
-0.24870000000000003,-19.523015938137508
-0.24969999999999992,-19.834252424107817
-0.25070000000000003,-20.10304757108217
-0.2516999999999999,-20.414284057052477
-0.25270000000000004,-20.75381476902009
-0.2536999999999999,-21.093345480987697
-0.25470000000000004,-21.43287619295531
-0.2556999999999999,-21.744112678925614
-0.25670000000000004,-22.083643390893226
-0.25769999999999993,-22.451468328858134
-0.25870000000000004,-22.833440379821692
-0.25969999999999993,-23.215412430785253
-0.26070000000000004,-23.54079602975421
-0.26169999999999993,-23.894473854720466
-0.26270000000000004,-24.290593018682678
-0.26369999999999993,-24.686712182644893
-0.26470000000000005,-25.06868423360845
-0.26569999999999994,-25.45065628457201
-0.26670000000000005,-25.846775448534224
-0.26769999999999994,-26.27118883849373
-0.26870000000000005,-26.69560222845324
-0.26969999999999994,-27.120015618412754
-0.27070000000000005,-27.516134782374962
-0.27169999999999994,-27.926401059335824
-0.27270000000000005,-28.379108675292635
-0.27369999999999994,-28.8459634042481
-0.27470000000000006,-29.284523907206257
-0.27569999999999995,-29.72308441016442
-0.27670000000000006,-30.161644913122586
-0.27769999999999995,-30.642646755076694
-0.27870000000000006,-31.12364859703081
-0.27969999999999995,-31.590503325986273
-0.28070000000000006,-32.02906382894443
-0.28169999999999995,-32.51006567089854
-0.28270000000000006,-33.00521462585131
-0.28369999999999995,-33.51451069380272
-0.28470000000000006,-33.99551253575683
-0.28569999999999995,-34.462367264712285
-0.28670000000000007,-34.94336910666641
-0.28769999999999996,-35.42437094862052
-0.28870000000000007,-35.93366701657193
-0.28969999999999996,-36.4288159715247
-0.29070000000000007,-36.89567070048016
-0.29169999999999996,-37.36252542943562
-0.29270000000000007,-37.85767438438838
-0.29369999999999996,-38.33867622634249
-0.2947000000000001,-38.805530955297954
-0.29569999999999996,-39.229944345257465
-0.2967000000000001,-39.68265196121428
-0.29769999999999996,-40.12121246417244
-0.2987000000000001,-40.57392008012925
-0.29969999999999997,-41.02662769608606
-0.3007000000000001,-41.39445263405098
-0.30169999999999997,-41.76227757201589
-0.3027000000000001,-42.130102509980794
-0.30369999999999997,-42.497927447945706
-0.3047000000000001,-42.837458159913304
-0.30569999999999997,-43.134547532884966
-0.3067000000000001,-43.41748979285798
-0.3077,-43.72872627882828
-0.3087000000000001,-44.011668538801295
-0.3097,-44.2097281207824
-0.3107000000000001,-44.36534636376755
-0.3117,-44.520964606752706
-0.3127000000000001,-44.67658284973786
-0.3137,-44.80390686672572
-0.3147000000000001,-44.84634820572166
-0.3157,-44.84634820572166
-0.3167000000000001,-44.83220109272301
-0.3177,-44.81805397972436
-0.3187000000000001,-44.76146552772976
-0.3197,-44.648288623740555
-0.3207000000000001,-44.478523267756756
-0.3217,-44.3229050247716
-0.3227000000000001,-44.124845442790495
-0.3237,-43.81360895682018
-0.3247000000000001,-43.44578401885527
-0.3257,-43.06381196789171
-0.3267000000000001,-42.667692803929505
-0.3277,-42.2715736399673
-0.3287000000000001,-41.83301313700913
-0.3297,-41.32371706905772
-0.3307000000000001,-40.75783254911171
-0.3317,-40.163653803168394
-0.3327000000000001,-39.54118083122778
-0.3337,-38.90456074628851
-0.3347000000000001,-38.23964643535194
-0.3357,-37.53229078541942
-0.3367000000000001,-36.796640909489604
-0.3377,-36.07513814655844
-0.3387000000000001,-35.353635383627264
-0.3397,-34.5755441687015
-0.3407000000000001,-33.783305840777075
-0.3417,-32.97692039985401
-0.3427000000000001,-32.22712341092554
-0.3437,-31.49147353499572
-0.3447000000000001,-30.71338232006995
-0.3457,-29.949438218142824
-0.3467000000000001,-29.199641229214354
-0.3477,-28.506432692280487
-0.3487000000000001,-27.813224155346617
-0.3497,-27.134162731411404
-0.3507000000000001,-26.455101307476184
-0.3517,-25.80433410953827
-0.3527000000000001,-25.196008250596304
-0.3537,-24.64427084364894
-0.3547000000000001,-24.092533436701576
-0.3557,-23.54079602975421
-0.35670000000000013,-23.031499961802798
-0.3577,-22.578792345845983
-0.35870000000000013,-22.168526068885125
-0.3597,-21.744112678925614
-0.36070000000000013,-21.347993514963402
-0.3617,-20.980168576998494
-0.3626999999999999,-20.683079204026836
-0.3637,-20.42843117005113
-0.3646999999999999,-20.17378313607542
-0.3657,-19.919135102099716
-0.3666999999999999,-19.73522263311726
-0.3677,-19.593751503130758
-0.3686999999999999,-19.508868825138855
-0.36970000000000003,-19.409839034148305
-0.3706999999999999,-19.3249563561564
-0.37170000000000003,-19.28251501716045
-0.3726999999999999,-19.296662130159103
-0.37370000000000003,-19.353250582153702
-0.3746999999999999,-19.409839034148305
-0.37570000000000003,-19.466427486142905
-0.3766999999999999,-19.565457277133458
-0.37770000000000004,-19.721075520118614
-0.3786999999999999,-19.876693763103766
-0.37970000000000004,-20.03231200608892
-0.3806999999999999,-20.21622447507137
-0.38170000000000004,-20.400136944053827
-0.38269999999999993,-20.640637865030882
-0.38370000000000004,-20.90943301200524
-0.38469999999999993,-21.149933932982297
-0.38570000000000004,-21.390434853959356
-0.38669999999999993,-20.72552054302279
-0.38570000000000004,-19.791811085111863
-0.38469999999999993,-19.25422079116315
-0.38370000000000004,-18.77321894920904
-0.38269999999999993,-18.306364220253574
-0.38170000000000004,-17.867803717295413
-0.3806999999999999,-17.499978779330505
-0.37970000000000004,-17.103859615368293
-0.3786999999999999,-16.721887564404735
-0.37770000000000004,-16.325768400442524
-0.3766999999999999,-15.957943462477614
-0.37570000000000003,-15.618412750510005
-0.3746999999999999,-15.293029151541045
-0.37370000000000003,-14.939351326574789
-0.3726999999999999,-14.57152638860988
-0.37170000000000003,-14.231995676642269
-0.3706999999999999,-13.934906303670612
-0.36970000000000003,-13.640646353298685
-0.3686999999999999,-13.315262754329725
-0.3677,-12.995538000560227
-0.3666999999999999,-12.678642669390458
-0.3657,-12.408432811116237
-0.3646999999999999,-12.13680824154215
-0.3637,-11.843963002470087
-0.3626999999999999,-11.548288340798294
-0.3617,-11.254028390426367
-0.36070000000000013,-10.99655093385093
-0.3597,-10.765952991972927
-0.35870000000000013,-10.499987267598303
-0.3577,-10.22977740932408
-0.35670000000000013,-9.972299952748642
-0.3557,-9.736043165671184
-0.3547000000000001,-9.521007048091697
-0.3537,-9.279091415814774
-0.3527000000000001,-9.014540402740012
-0.3517,-8.783942460862013
-0.3507000000000001,-8.578809322381582
-0.3497,-8.383579163000208
-0.3487000000000001,-8.167128334120857
-0.3477,-7.930871547043396
-0.3467000000000001,-7.711591295564315
-0.3457,-7.51919055878267
-0.3447000000000001,-7.340936934999675
-0.3437,-7.144292064318436
-0.3427000000000001,-6.9250118128393545
-0.3417,-6.725537519558384
-0.3407000000000001,-6.55860158617431
-0.3397,-6.398739209289561
-0.3387000000000001,-6.221900296806432
-0.3377,-6.018181869625866
-0.3367000000000001,-5.828610555443951
-0.3357,-5.681480580257988
-0.3347000000000001,-5.537180027671754
-0.3337,-5.373073516887409
-0.3327000000000001,-5.191990470504685
-0.3317,-5.01939569192115
-0.3307000000000001,-4.880753984534377
-0.3297,-4.752015256246658
-0.3287000000000001,-4.594982301961639
-0.3277,-4.4379493476766205
-0.3267000000000001,-4.282331104691466
-0.3257,-4.163495355502803
-0.3247000000000001,-4.04748902891387
-0.3237,-3.901773765027771
-0.3227000000000001,-3.7532290785419424
-0.3217,-3.6075138146558436
-0.3207000000000001,-3.4971663332663705
-0.3197,-3.405210098775143
-0.3187000000000001,-3.2821302156868852
-0.3177,-3.1392443744005165
-0.3167000000000001,-3.010505646112798
-0.3157,-2.9072317212226504
-0.3147000000000001,-2.8280078884302084
-0.3137,-2.7105868505414104
-0.3127000000000001,-2.576189277054232
-0.3117,-2.465841795664759
-0.3107000000000001,-2.380959117672857
-0.3097,-2.3045647074801447
-0.3087000000000001,-2.202705493889862
-0.3077,-2.076796188201874
-0.3067000000000001,-1.9777663972113213
-0.30569999999999997,-1.895713141819149
-0.3047000000000001,-1.8292217107254924
-0.30369999999999997,-1.7372654762342652
-0.3027000000000001,-1.6283327061446573
-0.30169999999999997,-1.5335470490536998
-0.3007000000000001,-1.4642261953603128
-0.29969999999999997,-1.4032521383361298
-0.2987000000000001,-1.3248771323236068
-0.29769999999999996,-1.219056727093702
-0.2967000000000001,-1.1302128574621777
-0.29569999999999996,-1.0753220590274144
-0.2947000000000001,-1.023826567712327
-0.29369999999999996,-0.9504030512493317
-0.29270000000000007,-0.8560418075483337
-0.29169999999999996,-0.7688955914766474
-0.29070000000000007,-0.7240492432709258
-0.28969999999999996,-0.6814664331449882
-0.28870000000000007,-0.6122870505815878
-0.28769999999999996,-0.5279702571096317
-0.28670000000000007,-0.44874642431718964
-0.28569999999999995,-0.40361713385149495
-0.28470000000000006,-0.37022994717468005
-0.28369999999999995,-0.30529469851087493
-0.28270000000000006,-0.2267782213683654
-0.28169999999999995,-0.1618429727045602
-0.28070000000000006,-0.12436727037113537
-0.27969999999999995,-0.09522421759391562
-0.27870000000000006,-0.034476514377710946
-0.27769999999999995,0.04143689397304692
-0.27670000000000006,0.1005859734204041
-0.27569999999999995,0.13585472612603947
-0.27470000000000006,0.1551938295951945
-0.27369999999999994,0.20499166735044383
-0.27270000000000005,0.2801128373732773
-0.27169999999999994,0.3320327420783241
-0.27070000000000005,0.36329786180534146
-0.26969999999999994,0.3812646953136274
-0.26870000000000005,0.42950635063902515
