Potential V vs RHE, Current mA cm-2
0.013299999999999867,3.922994434525747
0.012299999999999978,3.225541763692284
0.011299999999999866,2.658242532446404
0.010299999999999976,2.0909433012005243
0.009299999999999864,1.5675001202504606
0.008299999999999974,1.0881959318561862
0.007299999999999862,0.6520404381077953
0.006299999999999972,0.3903188476327636
0.00529999999999986,0.08502414912188871
0.0042999999999999705,-0.2202705493889862
0.0032999999999998586,-0.5255652478998613
0.0022999999999999687,-0.8745745255765657
0.0012999999999998568,-1.1798692240874404
0.00029999999999996696,-1.3980177065266295
-0.000700000000000145,-1.5717442541500557
-0.0017000000000000348,-1.7471684553333202
-0.0027000000000001467,-1.9650339955125358
-0.0037000000000000366,-2.226755585987568
-0.0047000000000001485,-2.4446211261667834
-0.005700000000000038,-2.662486666345999
-0.00670000000000015,-2.794054817233447
-0.00770000000000004,-2.924208256821031
-0.008700000000000152,-3.0119203574126634
-0.009700000000000042,-3.1859298472960624
-0.010700000000000154,-3.403795387475278
-0.011700000000000044,-3.579219588658543
-0.012700000000000156,-3.7532290785419424
-0.013700000000000045,-3.7970851288377587
-0.014700000000000157,-3.884797229429391
-0.015700000000000047,-4.014950669016974
-0.01670000000000016,-4.1889601589003735
-0.01770000000000005,-4.364384360083638
-0.01870000000000016,-4.538393849967037
-0.01970000000000005,-4.626105950558669
-0.020700000000000163,-4.712403339850438
-0.021700000000000053,-4.756259390146253
-0.022700000000000164,-4.887827541033701
-0.023700000000000054,-5.017980980621284
-0.024700000000000166,-5.191990470504685
-0.025700000000000056,-5.279702571096316
-0.026700000000000168,-5.323558621392133
-0.027700000000000058,-5.367414671687949
-0.02870000000000017,-5.453712060979717
-0.02970000000000006,-5.5414241615713475
-0.03070000000000017,-5.759289701750564
-0.03170000000000006,-5.890857852638012
-0.03270000000000017,-5.977155241929781
-0.03370000000000006,-6.021011292225596
-0.034700000000000175,-6.064867342521412
-0.035700000000000065,-6.152579443113044
-0.03670000000000018,-6.282732882700628
-0.03770000000000007,-6.414301033588076
-0.03870000000000018,-6.54445447317566
-0.03970000000000007,-6.588310523471475
-0.04070000000000018,-6.632166573767292
-0.04170000000000007,-6.6760226240631075
-0.04270000000000018,-6.719878674358924
-0.04370000000000007,-6.850032113946507
-0.044700000000000184,-6.981600264833956
-0.045700000000000074,-7.067897654125724
-0.046700000000000186,-7.155609754717355
-0.047700000000000076,-7.155609754717355
-0.04870000000000019,-7.155609754717355
-0.04970000000000008,-7.28576319430494
-0.05070000000000019,-7.4173313451923875
-0.05170000000000008,-7.5474847847799715
-0.05270000000000019,-7.635196885371603
-0.05370000000000008,-7.679052935667419
-0.05470000000000019,-7.679052935667419
-0.05570000000000008,-7.7653503249591855
-0.056700000000000195,-7.896918475846635
-0.057700000000000085,-8.027071915434218
-0.058700000000000196,-8.158640066321666
-0.059700000000000086,-8.246352166913299
-0.0607000000000002,-8.288793505909249
-0.06170000000000009,-8.376505606500881
-0.0627000000000002,-8.464217707092514
-0.06370000000000009,-8.638227196975913
-0.0647000000000002,-8.769795347863363
-0.06570000000000009,-8.85609273715513
-0.0667000000000002,-8.899948787450944
-0.0677000000000001,-8.943804837746763
-0.0687000000000002,-8.943804837746763
-0.0697000000000001,-9.031516938338395
-0.07070000000000021,-9.161670377925978
-0.0717000000000001,-9.293238528813426
-0.07270000000000021,-9.379535918105192
-0.0737000000000001,-9.423391968401008
-0.07470000000000021,-9.467248018696827
-0.0757000000000001,-9.55496011928846
-0.07670000000000021,-9.728969609171857
-0.0777000000000001,-9.902979099055257
-0.07870000000000021,-10.034547249942705
-0.0797000000000001,-10.120844639234473
-0.08070000000000022,-10.208556739826104
-0.0817000000000001,-10.25241279012192
-0.08270000000000022,-10.296268840417738
-0.08370000000000011,-10.42642228000532
-0.08470000000000022,-10.557990430892769
-0.08570000000000011,-10.644287820184536
-0.08670000000000022,-10.644287820184536
-0.08770000000000011,-10.688143870480351
-0.08870000000000022,-10.731999920776168
-0.08970000000000011,-10.863568071663616
-0.09070000000000022,-11.081433611842833
-0.09170000000000011,-11.255443101726232
-0.09270000000000023,-11.385596541313816
-0.09370000000000012,-11.42945259160963
-0.09470000000000023,-11.517164692201263
-0.09570000000000012,-11.56102074249708
-0.09670000000000023,-11.691174182084664
-0.09770000000000012,-11.82274233297211
-0.09870000000000023,-11.909039722263879
-0.09970000000000012,-11.996751822855511
-0.10070000000000023,-11.996751822855511
-0.10170000000000012,-12.040607873151327
-0.10270000000000024,-12.170761312738911
-0.10370000000000013,-12.346185513922174
-0.10470000000000024,-12.520195003805576
-0.10570000000000013,-12.73806054398479
-0.10670000000000024,-12.869628694872238
-0.10770000000000013,-12.99978213445982
-0.10870000000000024,-13.087494235051453
-0.10970000000000013,-13.261503724934855
-0.11070000000000024,-13.47936926511407
-0.11170000000000013,-13.654793466297335
-0.11270000000000002,-13.741090855589102
-0.11370000000000013,-13.784946905884919
-0.11470000000000002,-13.784946905884919
-0.11570000000000014,-13.872659006476551
-0.11670000000000003,-13.960371107068182
-0.11770000000000014,-14.175407224647667
-0.11870000000000003,-14.345172580631472
-0.11970000000000014,-14.444202371622024
-0.12070000000000003,-14.529085049613924
-0.12170000000000014,-14.65640906660178
-0.12270000000000003,-14.783733083589633
-0.12370000000000014,-14.967645552572087
-0.12470000000000003,-15.179852247551842
-0.12570000000000014,-15.349617603535648
-0.12670000000000003,-15.491088733522153
-0.12770000000000015,-15.533530072518102
-0.12870000000000004,-15.575971411514052
-0.12970000000000015,-15.74573676749786
-0.13070000000000004,-15.91550212348166
-0.13170000000000015,-16.099414592464115
-0.13270000000000004,-16.269179948447924
-0.13370000000000015,-16.311621287443874
-0.13470000000000004,-16.396503965435777
-0.13570000000000015,-16.495533756426326
-0.13670000000000004,-16.665299112410132
-0.13770000000000016,-16.835064468393938
-0.13870000000000005,-16.962388485381787
-0.13970000000000016,-17.061418276372343
-0.14070000000000005,-17.103859615368293
-0.14170000000000016,-17.231183632356142
-0.14270000000000005,-17.316066310348052
-0.14370000000000016,-17.542420118326454
-0.14470000000000005,-17.75462681330621
-0.14570000000000016,-17.924392169290012
-0.14670000000000005,-18.10830463827247
-0.14770000000000016,-18.27806999425627
-0.14870000000000005,-18.44783535024008
-0.14970000000000017,-18.631747819222536
-0.15070000000000006,-18.88639585319824
-0.15170000000000017,-19.112749661176647
-0.15270000000000006,-19.3249563561564
-0.15370000000000017,-19.409839034148305
-0.15470000000000006,-19.49472171214021
-0.15570000000000017,-19.636192842126707
-0.15670000000000006,-19.805958198110513
-0.15770000000000017,-19.97572355409432
-0.15870000000000006,-20.202077362072725
-0.15970000000000018,-20.286960040064624
-0.16070000000000007,-20.371842718056527
-0.16170000000000018,-20.456725396048434
-0.16270000000000007,-20.584049413036283
-0.16370000000000018,-20.810403221014692
-0.16470000000000007,-21.065051254990397
-0.16570000000000018,-21.291405062968803
-0.16670000000000007,-21.461170418952605
-0.16770000000000018,-21.63093577493641
-0.16870000000000007,-21.772406904922917
-0.16970000000000018,-21.98461359990267
-0.17070000000000007,-22.253408746877028
-0.17170000000000019,-22.508056780852733
-0.17270000000000008,-22.67782213683654
-0.1737000000000002,-22.776851927827092
-0.17470000000000008,-22.861734605818995
-0.1757000000000002,-22.946617283810895
-0.17670000000000008,-23.1163826397947
-0.1777000000000002,-23.342736447773106
-0.17870000000000008,-23.55494314275286
-0.1797000000000002,-23.682267159740714
-0.18070000000000008,-23.823738289727217
-0.1817000000000002,-23.951062306715073
-0.18270000000000008,-24.16326900169483
-0.1837000000000002,-24.432064148669184
-0.1847000000000001,-24.771594860636792
-0.1857000000000002,-25.04039000761115
-0.1867000000000001,-25.210155363594954
-0.1877000000000002,-25.43650917157336
-0.1887000000000001,-25.563833188561212
-0.1897000000000002,-25.81848122253692
-0.1907000000000001,-26.087276369511276
-0.1917000000000001,-26.34192440348698
-0.19269999999999998,-26.568278211465387
-0.1937000000000001,-26.69560222845324
-0.19469999999999998,-26.86536758443705
-0.1957000000000001,-27.049280053419505
-0.19669999999999999,-27.303928087395207
-0.1977000000000001,-27.65760591236147
-0.1987,-27.869812607341224
-0.1997000000000001,-28.05372507632368
-0.2007,-28.13860775431558
-0.2017000000000001,-28.265931771303435
-0.2027,-28.393255788291288
-0.2037000000000001,-28.619609596269694
-0.2047,-28.8742576302454
-0.2057000000000001,-29.058170099227848
-0.2067,-29.27037679420761
-0.2077000000000001,-29.440142150191413
-0.2087,-29.66649595816982
-0.2097000000000001,-29.96358533114148
-0.2107,-30.274821817111786
-0.2117000000000001,-30.571911190083444
-0.2127,-30.88314767605375
-0.2137000000000001,-31.095354371033505
-0.2147,-31.27926684001596
-0.2157000000000001,-31.533914873991666
-0.2167,-31.84515135996197
-0.21770000000000012,-32.184682071929586
-0.2187,-32.49591855789989
-0.21970000000000012,-32.764713704874254
-0.2207,-32.892037721862096
-0.22170000000000012,-33.01936173884996
-0.2227,-33.14668575583781
-0.22370000000000012,-33.373039563816214
-0.2247,-33.627687597791926
-0.22570000000000012,-33.93892408376223
-0.2267,-34.193572117737936
-0.22770000000000012,-34.377484586720385
-0.22870000000000001,-34.632132620696105
-0.22970000000000013,-34.98581044566235
-0.23070000000000002,-35.42437094862052
-0.23170000000000013,-35.806342999584075
-0.23270000000000002,-36.16002082455034
-0.23370000000000013,-36.47125731052064
-0.23470000000000002,-36.768346683492304
-0.23570000000000013,-37.122024508458566
-0.23670000000000002,-37.51814367242077
-0.2376999999999999,-37.85767438438838
-0.23870000000000002,-38.16891087035869
-0.2396999999999999,-38.38111756533845
-0.24070000000000003,-38.607471373316855
-0.24169999999999991,-38.777236729300654
-0.24270000000000003,-38.94700208528445
-0.24369999999999992,-39.21579723225882
-0.24470000000000003,-39.51288660523048
-0.24569999999999992,-39.82412309120078
-0.24670000000000003,-40.03632978618054
-0.24769999999999992,-40.26268359415894
-0.24870000000000003,-40.4748902891387
-0.24969999999999992,-40.91345079209687
-0.25070000000000003,-41.39445263405098
-0.2516999999999999,-41.91789581500104
-0.25270000000000004,-42.3564563179592
-0.2536999999999999,-42.6111043519349
-0.25470000000000004,-42.87989949890926
-0.2556999999999999,-43.134547532884966
-0.25670000000000004,-43.40334267985933
-0.25769999999999993,-43.75702050482558
-0.25870000000000004,-44.096551216793195
-0.25969999999999993,-44.36534636376755
-0.26070000000000004,-44.619994397743255
-0.26169999999999993,-44.84634820572166
-0.26270000000000004,-45.10099623969737
-0.26369999999999993,-45.497115403659585
-0.26470000000000005,-45.93567590661774
-0.26569999999999994,-46.27520661858535
-0.26670000000000005,-46.586443104555656
-0.26769999999999994,-46.88353247752732
-0.26870000000000005,-47.23721030249357
-0.26969999999999994,-47.633329466455784
-0.27070000000000005,-48.029448630417996
-0.27169999999999994,-48.36897934238561
-0.27270000000000005,-48.72265716735186
-0.27369999999999994,-48.97730520132757
-0.27470000000000006,-49.28854168729788
-0.27569999999999995,-49.642219512264134
-0.27670000000000006,-50.024191563227696
-0.27769999999999995,-50.46275206618586
-0.27870000000000006,-50.90131256914402
-0.27969999999999995,-51.29743173310623
-0.28070000000000006,-51.69355089706845
-0.28169999999999995,-51.990640270040096
-0.28270000000000006,-52.30187675601041
-0.28369999999999995,-52.69799591997262
-0.28470000000000006,-53.16485064892808
-0.28569999999999995,-53.56096981289029
-0.28670000000000007,-53.9570889768525
-0.28769999999999996,-54.31076680181876
-0.28870000000000007,-54.65029751378637
-0.28969999999999996,-55.046416677748574
-0.29070000000000007,-55.442535841710786
-0.29169999999999996,-55.881096344668954
-0.29270000000000007,-56.36209818662306
-0.29369999999999996,-56.74407023758662
-0.2947000000000001,-57.097748062552874
-0.29569999999999996,-57.53630856551105
-0.2967000000000001,-58.05975174646111
-0.29769999999999996,-58.583194927411164
-0.2987000000000001,-59.02175543036933
-0.29969999999999997,-59.36128614233694
-0.3007000000000001,-59.6300812893113
-0.30169999999999997,-59.884729323287
-0.3027000000000001,-60.23840714825326
-0.30369999999999997,-60.761850329203334
-0.3047000000000001,-61.327734849149344
-0.30569999999999997,-61.851178030099405
-0.3067000000000001,-62.37462121104946
-0.3077,-62.81318171400764
-0.3087000000000001,-63.29418355596174
-0.3097,-63.860068075907755
-0.3107000000000001,-64.34106991786187
-0.3117,-64.86451309881193
-0.3127000000000001,-65.3030736017701
-0.3137,-65.60016297474175
-0.3147000000000001,-65.82651678272015
-0.3157,-66.08116481669586
-0.3167000000000001,-66.39240130266617
-0.3177,-66.77437335362974
-0.3187000000000001,-67.128051178596
-0.3197,-67.43928766456631
-0.3207000000000001,-67.7788183765339
-0.3217,-68.17493754049613
-0.3227000000000001,-68.74082206044213
-0.3237,-69.39158925838004
-0.3247000000000001,-70.01406223032066
-0.3257,-70.62238808926263
-0.3267000000000001,-71.1458312702127
-0.3277,-71.6268331121668
-0.3287000000000001,-72.00880516313036
-0.3297,-72.40492432709259
-0.3307000000000001,-72.80104349105478
-0.3317,-73.23960399401295
-0.3327000000000001,-73.62157604497652
-0.3337,-73.89037119195086
-0.3347000000000001,-74.14501922592657
-0.3357,-74.45625571189689
-0.3367000000000001,-74.89481621485504
-0.3377,-75.37581805680915
-0.3387000000000001,-75.85681989876326
-0.3397,-76.29538040172143
-0.3407000000000001,-76.67735245268499
-0.3417,-76.98858893865528
-0.3427000000000001,-77.38470810261751
-0.3437,-77.76668015358106
-0.3447000000000001,-78.12035797854733
-0.3457,-78.43159446451764
-0.3467000000000001,-78.60135982050144
-0.3477,-78.72868383748929
-0.3487000000000001,-78.9550376454677
-0.3497,-79.37945103542721
-0.3507000000000001,-80.04436534636378
-0.3517,-80.7800152222936
-0.3527000000000001,-81.47322375922747
-0.3537,-81.99666694017753
-0.3547000000000001,-82.39278610413973
-0.3557,-82.87378794609386
-0.35670000000000013,-83.26990711005605
-0.3577,-83.60943782202366
-0.35870000000000013,-83.87823296899803
-0.3597,-84.13288100297372
-0.36070000000000013,-84.31679347195619
-0.3617,-84.44411748894404
-0.3626999999999999,-84.57144150593189
-0.3637,-84.7977953139103
-0.3646999999999999,-85.052443347886
-0.3657,-85.36367983385631
-0.3666999999999999,-85.66076920682796
-0.3677,-85.92956435380233
-0.3686999999999999,-86.22665372677399
-0.36970000000000003,-86.58033155174023
-0.3706999999999999,-86.93400937670651
-0.37170000000000003,-87.27354008867411
-0.3726999999999999,-87.45745255765657
-0.37370000000000003,-87.45745255765657
-0.3746999999999999,-87.27354008867411
-0.37570000000000003,-87.10377473269031
-0.3766999999999999,-86.93400937670651
-0.37770000000000004,-86.89156803771054
-0.3786999999999999,-86.89156803771054
-0.37970000000000004,-86.80668535971866
-0.3806999999999999,-86.75009690772404
-0.38170000000000004,-86.84912669871461
-0.38269999999999993,-87.06133339369435
-0.38370000000000004,-87.45745255765657
-0.38469999999999993,-87.79698326962418
-0.38570000000000004,-87.89601306061473
-0.38669999999999993,-87.75454193062824
-0.38770000000000004,-87.41501121866061
-0.38869999999999993,-87.10377473269031
-0.38970000000000005,-86.97645071570246
-0.39069999999999994,-86.97645071570246
-0.39170000000000005,-87.06133339369435
-0.39269999999999994,-87.01889205469841
-0.39370000000000005,-86.97645071570246
-0.39469999999999994,-86.84912669871461
-0.39570000000000005,-86.5378902127443
-0.39669999999999994,-85.92956435380233
-0.39770000000000005,-85.052443347886
-0.39869999999999994,-84.04799832498183
-0.39970000000000006,-83.04355330207765
-0.40069999999999995,-82.13813807016405
-0.40170000000000006,-81.21857572525175
-0.40269999999999995,-80.52536718831789
-0.40370000000000006,-80.17168936335163
-0.40469999999999995,-80.17168936335163
-0.40570000000000006,-80.29901338033947
-0.40669999999999995,-80.34145471933543
-0.40770000000000006,-80.29901338033947
-0.40869999999999995,-80.25657204134353
-0.40970000000000006,-80.12924802435568
-0.41069999999999995,-79.86045287738132
-0.41170000000000007,-79.2945683574353
-0.41269999999999996,-78.43159446451764
-0.41370000000000007,-77.38470810261751
-0.41469999999999996,-76.23879194972683
-0.41570000000000007,-75.14946424883075
-0.41669999999999996,-74.06013654793468
-0.41770000000000007,-73.0556915250305
-0.41869999999999996,-72.10783495412092
-0.4197000000000001,-71.31559662619651
-0.42069999999999996,-70.62238808926263
-0.4217000000000001,-70.05650356931662
-0.42269999999999996,-69.78770842234226
-0.4237000000000001,-69.87259110033416
-0.42469999999999997,-70.09894490831257
-0.4257000000000001,-70.09894490831257
-0.42669999999999997,-69.70282574435035
-0.4277000000000001,-68.91058741642594
-0.42869999999999997,-67.96273084551636
-0.4297000000000001,-67.00072716160814
-0.43069999999999997,-66.03872347769992
-0.4317000000000001,-65.03427845479574
-0.4327,-64.02983343189156
-0.4337000000000001,-63.20930087796983
-0.4347,-62.58682790602922
-0.4357000000000001,-62.20485585506566
-0.4367,-61.97850204708726
-0.4377000000000001,-61.936060708091304
-0.4387,-61.97850204708726
-0.4397000000000001,-61.97850204708726
-0.4407,-61.851178030099405
-0.4417000000000001,-61.63897133511965
-0.4427,-61.37017618814529
-0.4437000000000001,-61.15796949316553
-0.4447,-60.889174346191176
-0.4457000000000001,-60.49305518222897
-0.4467,-59.9696120012789
-0.4477000000000001,-59.403727481332886
-0.4487,-58.97931409137338
-0.4497000000000001,-58.75296028339497
-0.4507,-58.71051894439902
-0.4517000000000001,-58.79540162239092
-0.4527,-58.92272563937878
-0.4537000000000001,-58.880284300382826
-0.4547,-58.83784296138688
-0.4557000000000001,-58.79540162239092
-0.4567,-58.880284300382826
-0.4577000000000001,-59.06419676936528
-0.4587,-59.19152078635314
-0.4597000000000001,-59.23396212534908
-0.4607,-59.10663810836124
-0.4617000000000001,-58.92272563937878
-0.4627,-58.79540162239092
-0.4637000000000001,-58.75296028339497
-0.4647,-58.75296028339497
-0.4657000000000001,-58.83784296138688
-0.4667,-59.06419676936528
-0.4677000000000001,-59.403727481332886
-0.4687,-59.842287984291055
-0.4697000000000001,-60.36573116524111
-0.4707,-60.93161568518713
-0.4717000000000001,-61.412617527141244
-0.4727,-61.6814126741156
-0.4737000000000001,-61.72385401311155
-0.4747,-61.80873669110345
-0.4757000000000001,-62.06338472507916
-0.4767,-62.501945228037314
-0.4777000000000001,-62.98294706999144
-0.4787,-63.37906623395363
-0.4797000000000001,-63.6761556069253
-0.4807,-64.11471610988345
-0.48170000000000013,-64.63815929083353
-0.4827,-65.20404381077954
-0.48370000000000013,-65.82651678272015
-0.4847,-66.39240130266617
-0.48570000000000013,-66.9582858226122
-0.4867,-67.52417034255821
-0.4876999999999999,-68.0051721845123
-0.4887,-68.38714423547587
-0.4896999999999999,-68.82570473843404
-0.4907,-69.3491479193841
-0.4916999999999999,-69.95747377832606
-0.4927,-70.43847562028017
-0.4936999999999999,-70.79215344524643
-0.49470000000000003,-71.1458312702127
-0.4956999999999999,-71.66927445116276
-0.49670000000000003,-72.40492432709259
-0.4976999999999999,-73.15472131602105
-0.49870000000000003,-73.8479298529549
-0.4996999999999999,-74.41381437290093
-0.5007,-75.02214023184291
-0.5016999999999999,-75.5880247517889
-0.5027,-76.11146793273898
-0.5036999999999999,-76.5924697746931
-0.5047,-77.0734716166472
-0.5056999999999999,-77.68179747558916
-0.5067,-78.33256467352709
-0.5076999999999999,-78.99747898446365
-0.5087,-79.52092216541372
-0.5096999999999999,-80.04436534636378
-0.5107,-80.73757388329766
