Potential V vs RHE, Current mA cm-2
0.013299999999999867,9.986447065747294
0.012299999999999978,9.680869424976446
0.011299999999999866,9.419147834501414
0.010299999999999976,9.201282294322198
0.009299999999999864,8.983416754142983
0.008299999999999974,8.80799255295972
0.007299999999999862,8.63398306307632
0.006299999999999972,8.459973573192919
0.00529999999999986,8.284549372009655
0.0042999999999999705,8.066683831830439
0.0032999999999998586,7.936530392242855
0.0022999999999999687,7.804962241355407
0.0012999999999998568,7.674808801767824
0.00029999999999996696,7.49938460058456
-0.000700000000000145,7.32537511070116
-0.0017000000000000348,7.195221671113577
-0.0027000000000001467,7.063653520226129
-0.0037000000000000366,6.933500080638546
-0.0047000000000001485,6.801931929751096
-0.005700000000000038,6.627922439867697
-0.00670000000000015,6.496354288980249
-0.00770000000000004,6.410056899688482
-0.008700000000000152,6.322344799096849
-0.009700000000000042,6.1907766482094
-0.010700000000000154,6.016767158326001
-0.011700000000000044,5.929055057734368
-0.012700000000000156,5.798901618146785
-0.013700000000000045,5.7111895175551535
-0.014700000000000157,5.537180027671754
-0.015700000000000047,5.405611876784305
-0.01670000000000016,5.275458437196722
-0.01770000000000005,5.18774633660509
-0.01870000000000016,5.145304997609139
-0.01970000000000005,5.01373684672169
-0.020700000000000163,4.883583407134107
-0.021700000000000053,4.752015256246658
-0.022700000000000164,4.664303155655026
-0.023700000000000054,4.578005766363259
-0.024700000000000166,4.44643761547581
-0.025700000000000056,4.316284175888227
-0.026700000000000168,4.184716025000778
-0.027700000000000058,4.098418635709011
-0.02870000000000017,4.01070653511738
-0.02970000000000006,3.8791383842299307
-0.03070000000000017,3.748984944642347
-0.03170000000000006,3.661272844050715
-0.03270000000000017,3.6174167937548987
-0.03370000000000006,3.5311194044631313
-0.034700000000000175,3.3995512535756833
-0.035700000000000065,3.225541763692284
-0.03670000000000018,3.1378296631006513
-0.03770000000000007,3.0939736128048354
-0.03870000000000018,3.0076762235130676
-0.03970000000000007,2.8761080726256196
-0.04070000000000018,2.745954633038036
-0.04170000000000007,2.658242532446404
-0.04270000000000018,2.5705304318547717
-0.04370000000000007,2.5280890928588207
-0.044700000000000184,2.396520941971372
-0.045700000000000074,2.2663675023837886
-0.046700000000000186,2.1347993514963406
-0.047700000000000076,2.0909433012005243
-0.04870000000000019,2.004645911908757
-0.04970000000000008,1.8730777610213083
-0.05070000000000019,1.7429243214337253
-0.05170000000000008,1.655212220842093
-0.05270000000000019,1.5675001202504606
-0.05370000000000008,1.5250587812545096
-0.05470000000000019,1.3934906303670611
-0.05570000000000008,1.2626298351295453
-0.056700000000000195,1.175483619057859
-0.057700000000000085,1.0881959318561862
-0.058700000000000196,1.0010497157844997
-0.059700000000000086,0.870188920546984
-0.0607000000000002,0.7393281253094681
-0.06170000000000009,0.6520404381077953
-0.0627000000000002,0.5647527509061226
-0.06370000000000009,0.5211796428702795
-0.0647000000000002,0.3903188476327636
-0.06570000000000009,0.2594580523952477
-0.0667000000000002,0.17231183632356148
-0.0677000000000001,0.08502414912188871
-0.0687000000000002,0.04140859974704963
-0.0697000000000001,-0.08943804837746762
-0.07070000000000021,-0.26384365742482935
-0.0717000000000001,-0.3511313446265021
-0.07270000000000021,-0.3947044526623452
-0.0737000000000001,-0.48199213986401795
-0.07470000000000021,-0.6128529351015338
-0.0757000000000001,-0.7872868383748929
-0.07670000000000021,-0.8308599464107361
-0.0777000000000001,-0.9181476336124089
-0.07870000000000021,-1.0054353208140816
-0.0797000000000001,-1.1362961160515976
-0.08070000000000022,-1.2671569112891135
-0.0817000000000001,-1.3543031273607997
-0.08270000000000022,-1.4415908145624723
-0.08370000000000011,-1.5293029151541047
-0.08470000000000022,-1.6594563547416883
-0.08570000000000011,-1.7910245056291363
-0.08670000000000022,-1.8773218949209036
-0.08770000000000011,-1.9650339955125358
-0.08870000000000022,-2.052746096104168
-0.08970000000000011,-2.1390434853959355
-0.09070000000000022,-2.3144676865791998
-0.09170000000000011,-2.4007650758709675
-0.09270000000000023,-2.4884771764625997
-0.09370000000000012,-2.576189277054232
-0.09470000000000023,-2.706342716641815
-0.09570000000000012,-2.8379108675292635
-0.09670000000000023,-2.924208256821031
-0.09770000000000012,-3.0119203574126634
-0.09870000000000023,-3.0996324580042955
-0.09970000000000012,-3.273641947887695
-0.10070000000000023,-3.403795387475278
-0.10170000000000012,-3.4915074880669104
-0.10270000000000024,-3.579219588658543
-0.10370000000000013,-3.6655169779503103
-0.10470000000000024,-3.7970851288377587
-0.10570000000000013,-3.927238568425342
-0.10670000000000024,-4.0588067193127895
-0.10770000000000013,-4.146518819904423
-0.10870000000000024,-4.1889601589003735
-0.10970000000000013,-4.364384360083638
-0.11070000000000024,-4.494537799671222
-0.11170000000000013,-4.626105950558669
-0.11270000000000002,-4.712403339850438
-0.11370000000000013,-4.800115440442069
-0.11470000000000002,-4.9302688800296535
-0.11570000000000014,-5.0618370309171015
-0.11670000000000003,-5.149549131508733
-0.11770000000000014,-5.235846520800501
-0.11870000000000003,-5.367414671687949
-0.11970000000000014,-5.497568111275533
-0.12070000000000003,-5.629136262162981
-0.12170000000000014,-5.759289701750564
-0.12270000000000003,-5.847001802342197
-0.12370000000000014,-5.9347139029338285
-0.12470000000000003,-6.108723392817228
-0.12570000000000014,-6.238876832404812
-0.12670000000000003,-6.37044498329226
-0.12770000000000015,-6.458157083883892
-0.12870000000000004,-6.588310523471475
-0.12970000000000015,-6.719878674358924
-0.13070000000000004,-6.893888164242324
-0.13170000000000015,-6.981600264833956
-0.13270000000000004,-7.067897654125724
-0.13370000000000015,-7.199465805013171
-0.13470000000000004,-7.329619244600755
-0.13570000000000015,-7.50504344578402
-0.13670000000000004,-7.591340835075788
-0.13770000000000016,-7.679052935667419
-0.13870000000000005,-7.7653503249591855
-0.13970000000000016,-7.940774526142452
-0.14070000000000005,-8.11478401602585
-0.14170000000000016,-8.288793505909249
-0.14270000000000005,-8.376505606500881
-0.14370000000000016,-8.508073757388331
-0.14470000000000005,-8.68208324727173
-0.14570000000000016,-8.899948787450944
-0.14670000000000005,-9.073958277334345
-0.14770000000000016,-9.11781432763016
-0.14870000000000005,-9.205526428221793
-0.14970000000000017,-9.335679867809377
-0.15070000000000006,-9.467248018696827
-0.15170000000000017,-9.641257508580225
-0.15270000000000006,-9.728969609171857
-0.15370000000000017,-9.81668170976349
-0.15470000000000006,-9.99069119964689
-0.15570000000000017,-10.208556739826104
-0.15670000000000006,-10.382566229709504
-0.15770000000000017,-10.470278330301136
-0.15870000000000006,-10.601846481188586
-0.15970000000000018,-10.775855971071984
-0.16070000000000007,-10.949865460955383
-0.16170000000000018,-11.123874950838783
-0.16270000000000007,-11.255443101726232
-0.16370000000000018,-11.385596541313816
-0.16470000000000007,-11.56102074249708
-0.16570000000000018,-11.73503023238048
-0.16670000000000007,-11.86659838326793
-0.16770000000000018,-11.996751822855511
-0.16870000000000007,-12.12831997374296
-0.16970000000000018,-12.258473413330542
-0.17070000000000007,-12.432482903213943
-0.17170000000000019,-12.56405105410139
-0.17270000000000008,-12.694204493688973
-0.1737000000000002,-12.825772644576423
-0.17470000000000008,-13.043638184755638
-0.1757000000000002,-13.261503724934855
-0.17670000000000008,-13.436927926118118
-0.1777000000000002,-13.567081365705702
-0.17870000000000008,-13.698649516593148
-0.1797000000000002,-13.916515056772363
-0.18070000000000008,-14.090524546655764
-0.1817000000000002,-14.217848563643619
-0.18270000000000008,-14.345172580631472
-0.1837000000000002,-14.486643710617974
-0.1847000000000001,-14.69885040559773
-0.1857000000000002,-14.868615761581536
-0.1867000000000001,-15.05252823056399
-0.1877000000000002,-15.179852247551842
-0.1887000000000001,-15.349617603535648
-0.1897000000000002,-15.533530072518102
-0.1907000000000001,-15.74573676749786
-0.1917000000000001,-15.91550212348166
-0.19269999999999998,-16.099414592464115
-0.1937000000000001,-16.22673860945197
-0.19469999999999998,-16.396503965435777
-0.1957000000000001,-16.622857773414182
-0.19669999999999999,-16.792623129397985
-0.1977000000000001,-16.919947146385837
-0.1987,-17.103859615368293
-0.1997000000000001,-17.2736249713521
-0.2007,-17.542420118326454
-0.2017000000000001,-17.71218547431026
-0.2027,-17.881950830294063
-0.2037000000000001,-18.10830463827247
-0.2047,-18.320511333252224
-0.2057000000000001,-18.53271802823198
-0.2067,-18.716630497214435
-0.2077000000000001,-18.843954514202288
-0.2087,-18.97127853119014
-0.2097000000000001,-19.197632339168546
-0.2107,-19.452280373144255
-0.2117000000000001,-19.636192842126707
-0.2127,-19.763516859114564
-0.2137000000000001,-19.93328221509837
-0.2147,-20.10304757108217
-0.2157000000000001,-20.329401379060574
-0.2167,-20.541608074040333
-0.21770000000000012,-20.683079204026836
-0.2187,-20.85284456001064
-0.21970000000000012,-21.065051254990397
-0.2207,-21.333846401964752
-0.22170000000000012,-21.58849443594046
-0.2227,-21.857289582914817
-0.22370000000000012,-22.15437895588647
-0.2247,-22.46561544185678
-0.22570000000000012,-22.819293266823045
-0.2267,-23.073941300798747
-0.22770000000000012,-23.24370665678255
-0.22870000000000001,-23.385177786769056
-0.22970000000000013,-23.597384481748815
-0.23070000000000002,-23.823738289727217
-0.23170000000000013,-24.035944984706973
-0.23270000000000002,-24.16326900169483
-0.23370000000000013,-24.34718147067728
-0.23470000000000002,-24.559388165657033
-0.23570000000000013,-24.870624651627345
-0.23670000000000002,-25.167714024599
-0.2376999999999999,-25.43650917157336
-0.23870000000000002,-25.648715866553115
-0.2396999999999999,-25.91751101352747
-0.24070000000000003,-26.21460038649913
-0.24169999999999991,-26.525836872469437
-0.24270000000000003,-26.780484906445146
-0.24369999999999992,-27.00683871442355
-0.24470000000000003,-27.261486748399253
-0.24569999999999992,-27.572723234369565
-0.24670000000000003,-27.912253946337174
-0.24769999999999992,-28.22349043230748
-0.24870000000000003,-28.478138466283188
-0.24969999999999992,-28.746933613257543
-0.25070000000000003,-29.058170099227848
-0.2516999999999999,-29.31281813320356
-0.25270000000000004,-29.581613280177915
-0.2536999999999999,-29.793819975157668
-0.25470000000000004,-30.10505646112798
-0.2556999999999999,-30.444587173095588
-0.25670000000000004,-30.7558236590659
-0.25769999999999993,-31.010471693041605
-0.25870000000000004,-31.321708179011907
-0.25969999999999993,-31.76026868197007
-0.26070000000000004,-32.184682071929586
-0.26169999999999993,-32.58080123589179
-0.26270000000000004,-32.93447906085806
-0.26369999999999993,-33.231568433829715
-0.26470000000000005,-33.670128936787876
-0.26569999999999994,-34.06624810075008
-0.26670000000000005,-34.462367264712285
-0.26769999999999994,-34.75945663768395
-0.26870000000000005,-35.02825178465831
-0.26969999999999994,-35.32534115762997
-0.27070000000000005,-35.679018982596226
-0.27169999999999994,-36.03269680756248
-0.27270000000000005,-36.37222751953009
-0.27369999999999994,-36.6834640055004
-0.27470000000000006,-37.037141830466666
-0.27569999999999995,-37.47570233342482
-0.27670000000000006,-37.81523304539243
-0.27769999999999995,-38.12646953136274
-0.27870000000000006,-38.46600024333035
-0.27969999999999995,-38.90456074628851
-0.28070000000000006,-39.30067991025072
-0.28169999999999995,-39.654357735216976
-0.28270000000000006,-39.99388844718459
-0.28369999999999995,-40.34756627215084
-0.28470000000000006,-40.87100945310091
-0.28569999999999995,-41.352011295055014
-0.28670000000000007,-41.74813045901723
-0.28769999999999996,-42.130102509980794
-0.28870000000000007,-42.483780334947056
-0.28969999999999996,-43.007223515897124
-0.29070000000000007,-43.57310803584313
-0.29169999999999996,-44.096551216793195
-0.29270000000000007,-44.4926703807554
-0.29369999999999996,-44.93123088371356
-0.2947000000000001,-45.497115403659585
-0.29569999999999996,-46.10544126260155
-0.2967000000000001,-46.628884443551605
-0.29769999999999996,-47.067444946509774
-0.2987000000000001,-47.46356411047198
-0.29969999999999997,-47.93041883942744
-0.3007000000000001,-48.51045047237211
-0.30169999999999997,-48.97730520132757
-0.3027000000000001,-49.41586570428573
-0.30369999999999997,-49.76954352925199
-0.3047000000000001,-50.20810403221015
-0.30569999999999997,-50.77398855215617
-0.3067000000000001,-51.25499039411028
-0.3077,-51.69355089706845
-0.3087000000000001,-52.11796428702795
-0.3097,-52.64140746797801
-0.3107000000000001,-53.26388043991864
-0.3117,-53.872206298860604
-0.3127000000000001,-54.35320814081471
-0.3137,-54.919092660760725
-0.3147000000000001,-55.56985985869864
-0.3157,-56.22062705663656
-0.3167000000000001,-56.88554136757313
-0.3177,-57.45142588751914
-0.3187000000000001,-58.017310407465146
-0.3197,-58.62563626640712
-0.3207000000000001,-59.10663810836124
-0.3217,-59.44616882032884
-0.3227000000000001,-59.757405306299155
-0.3237,-60.11108313126541
-0.3247000000000001,-60.63452631221547
-0.3257,-61.28529351015339
-0.3267000000000001,-61.936060708091304
-0.3277,-62.58682790602922
-0.3287000000000001,-63.251742216965795
-0.3297,-64.0722747708875
-0.3307000000000001,-64.77963042082003
-0.3317,-65.38795627976201
-0.3327000000000001,-65.86895812171612
-0.3337,-66.34995996367022
-0.3347000000000001,-66.91584448361623
-0.3357,-67.48172900356225
-0.3367000000000001,-68.0051721845123
-0.3377,-68.48617402646643
-0.3387000000000001,-68.96717586842054
-0.3397,-69.61794306635846
-0.3407000000000001,-70.22626892530042
-0.3417,-70.8345947842424
-0.3427000000000001,-71.35803796519245
-0.3437,-71.92392248513846
-0.3447000000000001,-72.53224834408043
-0.3457,-73.15472131602105
-0.3467000000000001,-73.76304717496302
-0.3477,-74.37137303390499
-0.3487000000000001,-74.93725755385098
-0.3497,-75.50314207379701
-0.3507000000000001,-76.23879194972683
-0.3517,-76.94614759965934
-0.3527000000000001,-77.55447345860131
-0.3537,-78.12035797854733
-0.3547000000000001,-78.8135665154812
-0.3557,-79.60580484340561
-0.35670000000000013,-80.21413070234757
-0.3577,-80.73757388329766
-0.35870000000000013,-81.21857572525175
-0.3597,-81.86934292318966
-0.36070000000000013,-82.6615812511141
-0.3617,-83.35478978804795
-0.3626999999999999,-83.92067430799398
-0.3637,-84.48655882793999
-0.3646999999999999,-85.13732602587791
-0.3657,-85.92956435380233
-0.3666999999999999,-86.66521422973216
-0.3677,-87.27354008867411
-0.3686999999999999,-87.89601306061473
-0.36970000000000003,-88.63166293654454
-0.3706999999999999,-89.42390126446898
-0.37170000000000003,-90.15955114039879
-0.3726999999999999,-90.7254356603448
-0.37370000000000003,-91.37620285828272
-0.3746999999999999,-92.12599984721119
-0.37570000000000003,-92.90409106213696
-0.3766999999999999,-93.65388805106544
-0.37770000000000004,-94.26221391000739
-0.3786999999999999,-94.99786378593721
-0.37970000000000004,-95.91742613084948
-0.3806999999999999,-96.83698847576176
-0.38170000000000004,-97.53019701269562
-0.38269999999999993,-98.09608153264163
-0.38370000000000004,-98.7044073915836
-0.38469999999999993,-99.49664571950804
-0.38570000000000004,-100.23229559543785
-0.38669999999999993,-100.79818011538387
-0.38770000000000004,-101.32162329633393
-0.38869999999999993,-101.97239049427183
-0.38970000000000005,-102.72218748320032
-0.39069999999999994,-103.54272003712204
-0.39170000000000005,-104.33495836504645
-0.39269999999999994,-105.25452070995874
-0.39370000000000005,-106.2589657328629
-0.39469999999999994,-107.26341075576708
-0.39570000000000005,-108.2537086656726
-0.39669999999999994,-109.13082967158894
-0.39770000000000005,-109.78159686952685
-0.39869999999999994,-110.4465111804634
-0.39970000000000006,-111.26704373438514
-0.40069999999999995,-112.18660607929739
-0.40170000000000006,-112.96469729422319
-0.40269999999999995,-113.58717026616378
-0.40370000000000006,-114.28037880309766
-0.40469999999999995,-115.32726516499778
-0.40570000000000006,-116.50147554388576
-0.40669999999999995,-117.3785965498021
-0.40770000000000006,-117.85959839175621
-0.40869999999999995,-118.24157044271978
-0.40970000000000006,-118.82160207566443
-0.41069999999999995,-119.64213462958614
-0.41170000000000007,-120.47681429650652
-0.41269999999999996,-121.2549055114323
-0.41370000000000007,-122.1320265173486
-0.41469999999999996,-123.1364715402528
-0.41570000000000007,-124.05603388516508
-0.41669999999999996,-125.00389045607463
-0.41770000000000007,-125.92345280098691
-0.41869999999999996,-126.71569112891132
-0.4197000000000001,-127.4937823438371
-0.42069999999999996,-128.28602067176152
-0.4217000000000001,-129.19143590367514
-0.42269999999999996,-130.11099824858744
-0.4237000000000001,-130.9456779155078
-0.42469999999999997,-131.8510931474214
-0.4257000000000001,-132.7706554923337
-0.42669999999999997,-133.4214226902716
-0.4277000000000001,-133.90242453222572
-0.42869999999999997,-134.42586771317576
-0.4297000000000001,-135.17566470210423
-0.43069999999999997,-136.03863859502192
-0.4317000000000001,-136.8733182619423
-0.4327,-137.56652679887617
-0.4337000000000001,-138.3163237878046
-0.4347,-139.22173901971826
-0.4357000000000001,-140.18374270362645
-0.4367,-141.01842237054686
-0.4377000000000001,-141.61260111649017
-0.4387,-142.17848563643616
-0.4397000000000001,-143.0273124163552
-0.4407,-143.73466806628772
-0.4417000000000001,-144.44202371622026
-0.4427,-145.14937936615277
-0.4437000000000001,-145.7152638860988
-0.4447,-146.28114840604482
-0.4457000000000001,-146.7055617960043
-0.4467,-147.27144631595033
-0.4477000000000001,-147.97880196588284
-0.4487,-148.68615761581535
-0.4497000000000001,-149.25204213576137
-0.4507,-149.95939778569388
-0.4517000000000001,-150.8082245656129
-0.4527,-151.37410908555893
-0.4537000000000001,-151.93999360550492
-0.4547,-152.50587812545095
-0.4557000000000001,-153.07176264539694
-0.4567,-153.35470490536997
-0.4577000000000001,-153.77911829532948
-0.4587,-153.920589425316
-0.4597000000000001,-154.203531685289
-0.4607,-154.3450028152755
-0.4617000000000001,-154.76941620523502
-0.4627,-155.33530072518104
-0.4637000000000001,-156.04265637511355
-0.4647,-156.75001202504606
-0.4657000000000001,-157.59883880496508
-0.4667,-158.3061944548976
-0.4677000000000001,-158.87207897484362
-0.4687,-159.15502123481662
-0.4697000000000001,-159.43796349478964
-0.4707,-159.43796349478964
-0.4717000000000001,-159.43796349478964
-0.4727,-159.43796349478964
-0.4737000000000001,-159.29649236480313
-0.4747,-159.57943462477613
-0.4757000000000001,-159.86237688474912
-0.4767,-160.28679027470866
-0.4777000000000001,-160.8526747946547
-0.4787,-161.41855931460069
-0.4797000000000001,-162.2673860945197
-0.4807,-162.97474174445222
-0.48170000000000013,-163.54062626439824
-0.4827,-163.54062626439824
-0.48370000000000013,-163.25768400442522
-0.4847,-162.8332706144657
-0.48570000000000013,-162.5503283544927
-0.4867,-162.40885722450622
-0.4876999999999999,-161.9844438345467
-0.4887,-161.41855931460069
-0.4896999999999999,-161.1356170546277
-0.4907,-161.2770881846142
-0.4916999999999999,-161.5600304445872
-0.4927,-161.70150157457368
-0.4936999999999999,-161.84297270456022
-0.49470000000000003,-161.9844438345467
-0.4956999999999999,-162.2673860945197
-0.49670000000000003,-162.40885722450622
-0.4976999999999999,-162.2673860945197
-0.49870000000000003,-161.9844438345467
-0.4996999999999999,-161.9844438345467
-0.5007,-162.40885722450622
-0.5016999999999999,-162.40885722450622
-0.5027,-162.2673860945197
-0.5036999999999999,-161.9844438345467
-0.5047,-162.2673860945197
-0.5056999999999999,-162.40885722450622
-0.5067,-162.12591496453322
-0.5076999999999999,-161.70150157457368
-0.5087,-161.5600304445872
-0.5096999999999999,-161.41855931460069
