Potential V vs RHE, Current mA cm-2
0.4132999999999999,-0.12832846201075748
0.4122999999999999,-0.13251600745835798
0.4112999999999999,-0.13380339474123515
0.4102999999999999,-0.13400145432321628
0.4092999999999999,-0.13383168896723246
0.4082999999999999,-0.1335063053682635
0.4072999999999999,-0.13315262754329726
0.4062999999999999,-0.13267162570134314
0.4052999999999999,-0.13219062385938904
0.4042999999999999,-0.13161059222644436
0.4032999999999999,-0.1309739721415051
0.4022999999999999,-0.1303656462825631
0.4012999999999999,-0.1296865848586279
0.4002999999999999,-0.12900752343469268
0.3992999999999999,-0.1284416389147467
0.3982999999999999,-0.1277484303778128
0.3972999999999999,-0.1270976631798749
0.3962999999999999,-0.1264186017559397
0.3952999999999999,-0.12578198167100044
0.3942999999999999,-0.12510292024706518
0.39329999999999987,-0.12443800593612864
0.39229999999999987,-0.12371650317319745
0.39129999999999987,-0.12313647154025278
0.39029999999999987,-0.12251399856831217
0.38929999999999987,-0.12201884961335942
0.38829999999999987,-0.1214529650934134
0.38729999999999987,-0.12070316810448493
0.38629999999999987,-0.12016557781053622
0.38529999999999986,-0.11961384040358886
0.38429999999999986,-0.11900551454464689
0.38329999999999986,-0.11846792425069817
0.38229999999999986,-0.11788789261775351
0.38129999999999986,-0.11739274366280074
0.38029999999999986,-0.11689759470784798
0.37929999999999986,-0.11630341596190466
0.37829999999999986,-0.11576582566795594
0.37729999999999986,-0.11527067671300319
0.37629999999999986,-0.11484626332304368
0.37529999999999986,-0.11442184993308416
0.37429999999999986,-0.11387011252613681
0.37329999999999985,-0.11343155202317864
0.37229999999999985,-0.11295055018122453
0.37129999999999985,-0.11252613679126502
0.37029999999999985,-0.11208757628830686
0.36929999999999985,-0.1117056042373433
0.36829999999999985,-0.11130948507338108
0.36729999999999985,-0.11089921879642024
0.36629999999999985,-0.11051724674545668
0.36529999999999985,-0.11016356892049041
0.36429999999999985,-0.10986647954751874
0.36329999999999985,-0.10941377193156195
0.36229999999999984,-0.10903179988059837
0.36129999999999984,-0.10877715184662266
0.36029999999999984,-0.10845176824765372
0.35929999999999984,-0.10816882598768068
0.35829999999999984,-0.1078858837277077
0.35729999999999984,-0.10756050012873873
0.35629999999999984,-0.10726341075576709
0.35529999999999984,-0.10700876272179137
0.35429999999999984,-0.10671167334881972
0.35329999999999984,-0.1063721426368521
0.35229999999999984,-0.10608920037687909
0.35129999999999983,-0.10584869945590204
0.35029999999999983,-0.105608198534925
0.34929999999999983,-0.10538184472694657
0.34829999999999983,-0.10519793225796412
0.34729999999999983,-0.10495743133698707
0.34629999999999983,-0.10473107752900866
0.34529999999999983,-0.10454716506002622
0.34429999999999983,-0.10433495836504646
0.3432999999999998,-0.1040944574440694
0.3422999999999998,-0.10386810363609099
0.3412999999999998,-0.10374077961910314
0.3402999999999998,-0.10364174982811258
0.3392999999999998,-0.10352857292412339
0.3382999999999998,-0.10320318932515443
0.3372999999999998,-0.10293439417818008
0.3362999999999998,-0.10273633459619896
0.3352999999999998,-0.10255242212721652
0.3342999999999998,-0.1023826567712327
0.3332999999999998,-0.10219874430225025
0.3322999999999998,-0.1020148318332678
0.3312999999999998,-0.10187336070328129
0.3302999999999998,-0.1017601837992921
0.3292999999999998,-0.1015904184433083
0.3282999999999998,-0.10142065308732448
0.3272999999999998,-0.10126503484433932
0.3262999999999998,-0.10108112237535687
0.3252999999999999,-0.10092550413237171
0.3242999999999999,-0.10081232722838251
0.3232999999999999,-0.10068500321139465
0.3222999999999999,-0.10054353208140815
0.3212999999999999,-0.100387913838423
0.3202999999999999,-0.1002464427084365
0.3192999999999999,-0.10016156003044459
0.3182999999999999,-0.10000594178745945
0.3172999999999999,-0.09987861777047159
0.3162999999999999,-0.0997654408664824
0.3152999999999999,-0.09968055818849049
0.3142999999999999,-0.0995673812845013
0.3132999999999999,-0.09936932170252018
0.3122999999999999,-0.09927029191152963
0.3112999999999999,-0.09924199768553231
0.3102999999999999,-0.09915711500754042
0.3092999999999999,-0.09910052655554581
0.3082999999999999,-0.09904393810355122
0.3072999999999999,-0.09897320253855796
0.3062999999999999,-0.09902979099055256
0.3052999999999999,-0.09905808521654987
0.3042999999999999,-0.09915711500754042
0.3032999999999999,-0.09921370345953502
0.3022999999999999,-0.09927029191152963
0.3012999999999999,-0.09945420438051207
0.3002999999999999,-0.09965226396249319
0.2992999999999999,-0.09980788220547833
0.2982999999999999,-0.09996350044846349
0.2972999999999999,-0.1002464427084365
0.2962999999999999,-0.10065670898539736
0.2952999999999999,-0.10108112237535687
0.2942999999999999,-0.10143480020032314
0.2932999999999999,-0.10202897894626643
0.2922999999999999,-0.10258071635321381
0.2912999999999999,-0.10313245376016117
0.2902999999999999,-0.10367004405410989
0.2892999999999999,-0.10425007568705455
0.2882999999999999,-0.10478766598100327
0.2872999999999999,-0.10531110916195333
0.2862999999999999,-0.10584869945590204
0.2852999999999999,-0.10628725995886021
0.2842999999999999,-0.10673996757481702
0.2832999999999999,-0.10719267519077383
0.2822999999999999,-0.10757464724173739
0.2812999999999999,-0.10797076640569962
0.2802999999999999,-0.10835273845666317
0.2792999999999999,-0.10873471050762673
0.2782999999999999,-0.10889032875061187
0.2772999999999999,-0.10915912389758622
0.2762999999999999,-0.10939962481856329
0.2752999999999999,-0.10969671419153494
0.2742999999999999,-0.109937215112512
0.2732999999999999,-0.1101352746944931
0.2722999999999999,-0.11030504005047691
0.2712999999999999,-0.11053139385845531
0.2702999999999999,-0.11072945344043642
0.2692999999999999,-0.11087092457042293
0.26829999999999987,-0.11104068992640674
0.26729999999999987,-0.11119630816939187
0.26629999999999987,-0.11143680909036893
0.26529999999999987,-0.11169145712434464
0.26429999999999987,-0.1118187811413325
0.26329999999999987,-0.11191781093232304
0.26229999999999987,-0.11204513494931091
0.26129999999999987,-0.1121583118533001
0.26029999999999986,-0.11220075319229607
0.25929999999999986,-0.11228563587028798
0.25829999999999986,-0.11239881277427716
0.25729999999999986,-0.11248369545226906
0.25629999999999986,-0.11261101946925692
0.25529999999999986,-0.11268175503425018
0.25429999999999986,-0.11265346080825286
0.25329999999999986,-0.11269590214724882
0.25229999999999986,-0.11273834348624477
0.25129999999999986,-0.11273834348624477
0.25029999999999986,-0.11279493193823936
0.24929999999999986,-0.11283737327723532
0.24829999999999985,-0.11286566750323263
0.24729999999999985,-0.11297884440722182
0.24629999999999985,-0.11306372708521374
0.24529999999999985,-0.11317690398920292
0.24429999999999985,-0.11327593378019349
0.24329999999999985,-0.11336081645818537
0.24229999999999985,-0.11354472892716785
0.24129999999999985,-0.1137569356221476
0.24029999999999985,-0.11396914231712736
0.23929999999999985,-0.11422379035110306
0.23829999999999985,-0.11452087972407471
0.23729999999999984,-0.11478967487104909
0.23629999999999984,-0.11519994114800992
0.23529999999999984,-0.11562435453796945
0.23429999999999984,-0.11610535637992356
0.23329999999999984,-0.11654391688288172
0.23229999999999984,-0.11699662449883853
0.23129999999999984,-0.11750592056678995
0.23029999999999984,-0.11802936374774001
0.22929999999999984,-0.11853865981569144
0.22829999999999984,-0.11901966165764555
0.22729999999999984,-0.11952895772559695
0.22629999999999983,-0.12008069513254432
0.22529999999999983,-0.12061828542649301
0.22429999999999983,-0.12109928726844714
0.22329999999999983,-0.12160858333639855
0.22229999999999983,-0.12211787940434997
0.22129999999999983,-0.12265546969829867
0.22029999999999983,-0.12313647154025278
0.21929999999999983,-0.12364576760820419
0.21829999999999983,-0.12409847522416102
0.21729999999999983,-0.1245936241791138
0.21629999999999983,-0.12503218468207195
0.21529999999999982,-0.1254707451850301
0.21429999999999982,-0.12590930568798825
0.21329999999999982,-0.12630542485195048
0.21229999999999982,-0.1267581324679073
0.21129999999999982,-0.12718254585786679
0.21029999999999982,-0.1276069592478263
0.20929999999999982,-0.12801722552478714
0.20829999999999982,-0.12838505046275206
0.20729999999999982,-0.12876702251371563
0.20629999999999982,-0.12914899456467918
0.20529999999999982,-0.12953096661564276
0.20429999999999982,-0.12994123289260362
0.20329999999999981,-0.13035149916956448
0.2022999999999998,-0.1307193241075294
0.2012999999999998,-0.1311154432714916
0.20029999999999992,-0.1315115624354538
0.19929999999999992,-0.13193597582541333
0.19829999999999992,-0.1322896536503796
0.19729999999999992,-0.13265747858834448
0.19629999999999992,-0.13303945063930803
0.19529999999999992,-0.13347801114226623
0.19429999999999992,-0.1339590129842203
0.19329999999999992,-0.1343975734871785
0.19229999999999992,-0.13477954553814206
0.19129999999999991,-0.1352181060411002
0.1902999999999999,-0.13562837231806107
0.1892999999999999,-0.13606693282101923
0.1882999999999999,-0.13646305198498146
0.1872999999999999,-0.13688746537494095
0.1862999999999999,-0.13735432010389642
0.1852999999999999,-0.13783532194585052
0.1842999999999999,-0.138302176674806
0.1832999999999999,-0.1387831785167601
0.1822999999999999,-0.13930662169771016
0.1812999999999999,-0.13983006487866023
0.1802999999999999,-0.1403676551726089
0.1792999999999999,-0.1408628041275617
0.1782999999999999,-0.1413721001955131
0.1772999999999999,-0.14189554337646318
0.1762999999999999,-0.1424614278964092
0.1752999999999999,-0.14302731241635522
0.1742999999999999,-0.1435931969363012
0.1732999999999999,-0.14415908145624726
0.1722999999999999,-0.14472496597619325
0.1712999999999999,-0.14514937936615277
0.1702999999999999,-0.1458567350160853
0.1692999999999999,-0.14642261953603128
0.1682999999999999,-0.14698850405597733
0.1672999999999999,-0.14769585970590982
0.1662999999999999,-0.14826174422585583
0.1652999999999999,-0.14896909987578838
0.1642999999999999,-0.14953498439573437
0.1632999999999999,-0.1501008689156804
0.1622999999999999,-0.1508082245656129
0.1612999999999999,-0.15151558021554543
0.1602999999999999,-0.15222293586547794
0.1592999999999999,-0.15278882038542396
0.15829999999999989,-0.15349617603535648
0.15729999999999988,-0.1540620605553025
0.15629999999999988,-0.15491088733522151
0.15529999999999988,-0.15561824298515403
0.15429999999999988,-0.15618412750510002
0.15329999999999988,-0.15689148315503257
0.15229999999999988,-0.15774030993495158
0.15129999999999988,-0.1584476655848841
0.15029999999999988,-0.15915502123481662
0.14929999999999988,-0.15986237688474914
0.14829999999999988,-0.16056973253468165
0.14729999999999988,-0.16127708818461417
0.14629999999999987,-0.16212591496453319
0.14529999999999987,-0.1628332706144657
0.14429999999999987,-0.16354062626439822
0.14329999999999987,-0.16424798191433077
0.14229999999999987,-0.16509680869424978
0.14129999999999987,-0.1658041643441823
0.14029999999999987,-0.1666529911241013
0.13929999999999987,-0.16750181790402036
0.13829999999999987,-0.16820917355395287
0.13729999999999987,-0.16905800033387192
0.13629999999999987,-0.16990682711379093
0.13529999999999986,-0.17061418276372342
0.13429999999999986,-0.17132153841365594
0.13329999999999986,-0.17202889406358848
0.13229999999999986,-0.1728777208435075
0.13129999999999986,-0.1737265476234265
0.13029999999999986,-0.17457537440334553
0.12929999999999986,-0.17556567231325104
0.12829999999999986,-0.17641449909317006
0.12729999999999986,-0.1772633258730891
0.12629999999999986,-0.17811215265300812
0.12529999999999986,-0.17910245056291366
0.12429999999999986,-0.17995127734283267
0.12329999999999985,-0.1808001041227517
0.12229999999999985,-0.18179040203265723
0.12129999999999985,-0.18263922881257624
0.12029999999999985,-0.18362952672248176
0.11929999999999985,-0.1846198246323873
0.11829999999999985,-0.1854686514123063
0.11729999999999985,-0.18645894932221183
0.11629999999999985,-0.18744924723211737
0.11529999999999985,-0.18829807401203638
0.11429999999999985,-0.18928837192194192
0.11329999999999985,-0.19042014096183393
0.11229999999999984,-0.19141043887173945
0.11129999999999984,-0.192400736781645
0.11029999999999984,-0.1933910346915505
0.10929999999999984,-0.19438133260145604
0.10829999999999984,-0.19537163051136155
0.10729999999999984,-0.1965033995512536
0.10629999999999984,-0.1974936974611591
0.10529999999999984,-0.19862546650105112
0.10429999999999984,-0.19961576441095666
0.10329999999999984,-0.20060606232086217
0.10229999999999984,-0.20173783136075424
0.10129999999999983,-0.20301107153063278
0.10029999999999983,-0.2041428405705248
0.09929999999999983,-0.20527460961041682
0.09829999999999983,-0.20626490752032234
0.09729999999999983,-0.2075381476902009
0.09629999999999983,-0.2086699167300929
0.09529999999999983,-0.20966021463999845
0.09429999999999983,-0.21093345480987696
0.09329999999999983,-0.212065223849769
0.09229999999999983,-0.21319699288966104
0.09129999999999983,-0.21447023305953958
0.09029999999999982,-0.2156020020994316
0.08929999999999982,-0.2167337711393236
0.08829999999999982,-0.21786554017921567
0.08729999999999982,-0.21913878034909418
0.08629999999999982,-0.2202705493889862
0.08529999999999982,-0.22154378955886472
0.08429999999999982,-0.2228170297287433
0.08329999999999982,-0.22409026989862182
0.08229999999999982,-0.22522203893851384
0.08129999999999982,-0.22635380797840585
0.08029999999999982,-0.2276270481482844
0.07929999999999982,-0.22890028831816295
0.07829999999999981,-0.23017352848804143
0.07729999999999981,-0.2313052975279335
0.07629999999999981,-0.232578537697812
0.07529999999999992,-0.23385177786769054
0.07429999999999992,-0.23512501803756908
0.07329999999999992,-0.2365397293374341
0.07229999999999992,-0.23781296950731265
0.07129999999999992,-0.23908620967719119
0.07029999999999992,-0.24035944984706975
0.06929999999999992,-0.24163269001694826
0.06829999999999992,-0.2429059301868268
0.06729999999999992,-0.24417917035670533
0.06629999999999991,-0.24545241052658387
0.06529999999999991,-0.24700859295643537
0.06429999999999991,-0.2482818331263139
0.06329999999999991,-0.24969654442617895
0.06229999999999991,-0.250828313466071
0.06129999999999991,-0.252243024765936
0.06029999999999991,-0.2535162649358146
0.05929999999999991,-0.2547895051056931
0.05829999999999991,-0.2562042164055581
0.05729999999999991,-0.2574774565754367
0.056299999999999906,-0.2587506967453152
0.055299999999999905,-0.26016540804518024
0.054299999999999904,-0.2614386482150588
0.0532999999999999,-0.2627118883849373
0.0522999999999999,-0.26412659968480234
0.0512999999999999,-0.26554131098466743
0.0502999999999999,-0.26695602228453247
0.0492999999999999,-0.268229262454411
0.0482999999999999,-0.2695025026242895
0.0472999999999999,-0.2709172139241546
0.0462999999999999,-0.27219045409403303
0.045299999999999896,-0.2734636942639116
0.044299999999999895,-0.27473693443379016
0.043299999999999894,-0.27615164573365514
0.04229999999999989,-0.2774248859035337
0.04129999999999989,-0.27883959720339874
0.04029999999999989,-0.28025430850326377
0.03929999999999989,-0.2815275486731423
0.03829999999999989,-0.28280078884302084
0.03729999999999989,-0.2842155001428859
0.03629999999999989,-0.2854887403127644
0.03529999999999989,-0.28676198048264295
0.034299999999999886,-0.288176691782508
0.033299999999999885,-0.28930846082239997
0.032299999999999884,-0.29072317212226506
0.031299999999999883,-0.29199641229214357
0.030299999999999883,-0.2929867102020491
0.02929999999999988,-0.2944014215019141
0.02829999999999988,-0.2956746616717927
0.02729999999999988,-0.2969479018416712
0.02629999999999988,-0.2983626131415362
0.025299999999999878,-0.29977732444140126
0.024299999999999877,-0.3009090934812933
0.023299999999999876,-0.30204086252118534
0.022299999999999875,-0.3033141026910639
0.021299999999999875,-0.30458734286094236
0.020299999999999874,-0.30571911190083445
0.019299999999999873,-0.30685088094072643
0.018299999999999872,-0.3079826499806185
0.01729999999999987,-0.30925589015049704
0.01629999999999987,-0.31052913032037555
0.01529999999999987,-0.31180237049025405
0.014299999999999868,-0.31321708179011915
0.013299999999999867,-0.3146317930899841
0.012299999999999978,-0.3159050332598627
0.011299999999999866,-0.3170368022997547
0.010299999999999976,-0.31831004246963324
0.009299999999999864,-0.3194418115095253
0.008299999999999974,-0.32071505167940384
0.007299999999999862,-0.3218468207192958
0.006299999999999972,-0.32297858975918786
0.00529999999999986,-0.32411035879907985
0.0042999999999999705,-0.3253835989689584
0.0032999999999998586,-0.326373896878864
0.0022999999999999687,-0.32778860817872896
0.0012999999999998568,-0.3287789060886345
0.00029999999999996696,-0.33019361738849956
-0.000700000000000145,-0.3313253864283916
-0.0017000000000000348,-0.33245715546828364
-0.0027000000000001467,-0.3335889245081756
-0.0037000000000000366,-0.3345792224180812
-0.0047000000000001485,-0.33585246258795975
-0.005700000000000038,-0.33698423162785174
-0.00670000000000015,-0.33811600066774383
-0.00770000000000004,-0.3392477697076358
-0.008700000000000152,-0.3405210098775144
-0.009700000000000042,-0.34151130778741984
-0.010700000000000154,-0.3427845479572984
-0.011700000000000044,-0.34405778812717697
-0.012700000000000156,-0.34518955716706895
-0.013700000000000045,-0.3464627973369475
-0.014700000000000157,-0.347736037506826
-0.015700000000000047,-0.34900927767670453
-0.01670000000000016,-0.35014104671659657
-0.01770000000000005,-0.35141428688647514
-0.01870000000000016,-0.3525460559263671
-0.01970000000000005,-0.3542437094862052
-0.020700000000000163,-0.35565842078607024
-0.021700000000000053,-0.3565072475659892
-0.022700000000000164,-0.3577804877358678
-0.023700000000000054,-0.3591951990357328
-0.024700000000000166,-0.36060991033559786
-0.025700000000000056,-0.36188315050547637
-0.026700000000000168,-0.36315639067535493
-0.027700000000000058,-0.36442963084523344
-0.02870000000000017,-0.3655613998851255
-0.02970000000000006,-0.3669761111849905
-0.03070000000000017,-0.368249351354869
-0.03170000000000006,-0.36966406265473406
-0.03270000000000017,-0.37107877395459915
-0.03370000000000006,-0.37221054299449113
-0.034700000000000175,-0.37390819655432916
-0.035700000000000065,-0.37560585011416725
-0.03670000000000018,-0.3770205614140323
-0.03770000000000007,-0.37815233045392427
-0.03870000000000018,-0.3795670417537893
-0.03970000000000007,-0.38084028192366787
-0.04070000000000018,-0.38211352209354643
-0.04170000000000007,-0.3835282333934114
-0.04270000000000018,-0.38522588695324944
-0.04370000000000007,-0.3872064827730605
-0.044700000000000184,-0.38862119407292556
-0.045700000000000074,-0.3903188476327636
-0.046700000000000186,-0.39187503006261515
-0.047700000000000076,-0.39343121249246665
-0.04870000000000019,-0.3951288660523047
-0.04970000000000008,-0.39696799074212924
-0.05070000000000019,-0.3986656443019673
-0.05170000000000008,-0.40064624012177835
-0.05270000000000019,-0.4027683070715759
-0.05370000000000008,-0.40460743176140046
-0.05470000000000019,-0.406446556451225
-0.05570000000000008,-0.40856862340102257
-0.056700000000000195,-0.4106906903508202
-0.057700000000000085,-0.4128127573006177
-0.058700000000000196,-0.4149348242504153
-0.059700000000000086,-0.41705689120021283
-0.0607000000000002,-0.4188960158900374
-0.06170000000000009,-0.42087661170984847
-0.0627000000000002,-0.4234230920496055
-0.06370000000000009,-0.42596957238936256
-0.0647000000000002,-0.4280916393391601
-0.06570000000000009,-0.43021370628895766
-0.0667000000000002,-0.43318460001867426
-0.0677000000000001,-0.4355896092284448
-0.0687000000000002,-0.4378531473082289
-0.0697000000000001,-0.44039962764798596
-0.07070000000000021,-0.44322905024771597
-0.0717000000000001,-0.4457755305874731
-0.07270000000000021,-0.44818053979724365
-0.0737000000000001,-0.4505855490070142
-0.07470000000000021,-0.45341497160674427
-0.0757000000000001,-0.45652733646644733
