Potential V vs RHE, Current mA cm-2
0.05339999999999995,-0.008249181589513028
0.05239999999999995,-0.05189161047904954
0.051399999999999946,-0.07966239329540022
0.050399999999999945,-0.09540813006289808
0.049399999999999944,-0.10690973293080082
0.04839999999999994,-0.11674197646486283
0.04739999999999994,-0.12537171539403955
0.04639999999999994,-0.13284139105732695
0.04539999999999994,-0.13997153600864676
0.04439999999999994,-0.14628114840604478
0.04339999999999994,-0.15236440699546444
0.04239999999999994,-0.15802325219492458
0.04139999999999994,-0.16339915513441172
0.040399999999999936,-0.16863358694391237
0.039399999999999935,-0.17358507649344
0.038399999999999934,-0.17853656604296764
0.03739999999999993,-0.18320511333252223
0.03639999999999993,-0.18773218949209036
0.03539999999999993,-0.1919763233916855
0.03439999999999993,-0.19622045729128057
0.03339999999999993,-0.20046459119087567
0.03239999999999993,-0.20470872509047083
0.03139999999999993,-0.20909433012005244
0.030399999999999927,-0.21305552175967452
0.029399999999999926,-0.21715818452928315
0.028399999999999925,-0.22126084729889173
0.027399999999999924,-0.2250805678085273
0.026399999999999924,-0.2293247017081224
0.025399999999999923,-0.23286147995778506
0.024399999999999922,-0.2368226715974071
0.02339999999999992,-0.24078386323702924
0.02239999999999992,-0.2443206414866918
0.02139999999999992,-0.24814036199632744
0.020399999999999918,-0.2518186113759765
0.019399999999999917,-0.25563833188561214
0.018399999999999916,-0.25931658126526125
0.017399999999999916,-0.2628533595149239
0.016399999999999915,-0.2665316088945729
0.015399999999999914,-0.270209858274222
0.014399999999999913,-0.2736051653938981
0.013399999999999912,-0.2772834147735472
0.012399999999999911,-0.2809616641531963
0.01139999999999991,-0.2840740290128994
0.01039999999999991,-0.28775227839254847
0.009399999999999908,-0.2911475855122245
0.008399999999999908,-0.29454289263190064
0.007399999999999907,-0.29807967088156323
0.006399999999999906,-0.30147497800123935
0.005399999999999905,-0.30487028512091535
0.004399999999999904,-0.308407063370578
0.003399999999999903,-0.31151942823028106
0.002399999999999902,-0.31505620647994365
0.0013999999999999013,-0.31831004246963324
0.00039999999999990044,-0.3215638784593228
-0.0006000000000001005,-0.3251006567089854
-0.0016000000000001013,-0.328354492698675
-0.0026000000000001022,-0.3318912709483376
-0.003600000000000103,-0.3352865780680137
-0.004600000000000104,-0.33839894292771683
-0.005600000000000105,-0.3419357211773794
-0.006600000000000106,-0.34518955716706895
-0.007600000000000107,-0.34872633541673154
-0.008600000000000108,-0.35240458479638065
-0.009600000000000108,-0.35594136304604324
-0.01060000000000011,-0.35961961242569235
-0.01160000000000011,-0.36329786180534146
-0.012600000000000111,-0.3675419957049365
-0.013600000000000112,-0.3712202450845856
-0.014600000000000113,-0.3750399655942212
-0.015600000000000114,-0.3790011572338433
-0.016600000000000115,-0.3832452911334384
-0.017600000000000116,-0.3874894250330335
-0.018600000000000116,-0.3920165011926017
-0.019600000000000117,-0.3962606350921968
-0.020600000000000118,-0.4007877112517649
-0.02160000000000012,-0.405880671931279
-0.02260000000000012,-0.4106906903508202
-0.02360000000000012,-0.4157836510303343
-0.024600000000000122,-0.42101808283983494
-0.025600000000000123,-0.42596957238936256
-0.026600000000000124,-0.4312040041988632
-0.027600000000000124,-0.4365799071383503
-0.028600000000000125,-0.44181433894785094
-0.029600000000000126,-0.44733171301732455
-0.030600000000000127,-0.45256614482682517
-0.03160000000000013,-0.4579420477663123
-0.03260000000000013,-0.46331795070579956
-0.03360000000000013,-0.46897679590525965
-0.03460000000000002,-0.47435269884474673
-0.03560000000000002,-0.4795871306542474
-0.03660000000000002,-0.4851045047237211
-0.03760000000000002,-0.4907633499231812
-0.03860000000000002,-0.4962807239926549
-0.039600000000000024,-0.5019395691921149
-0.040600000000000025,-0.5075984143915752
-0.041600000000000026,-0.5131157884610488
-0.04260000000000003,-0.519057575920482
-0.04360000000000003,-0.5248578922499286
-0.04460000000000003,-0.5306582085793753
-0.04560000000000003,-0.5365999960388084
-0.04660000000000003,-0.5425417834982416
-0.04760000000000003,-0.5484835709576747
-0.04860000000000003,-0.5545668295470944
-0.04960000000000003,-0.5605086170065275
-0.050600000000000034,-0.5667333467259337
-0.051600000000000035,-0.5728166053153534
-0.052600000000000036,-0.578899863904773
-0.053600000000000037,-0.5849831224941927
-0.05460000000000004,-0.5910663810836124
-0.05560000000000004,-0.5971496396730319
-0.05660000000000004,-0.6035158405224247
-0.05760000000000004,-0.6095990991118443
-0.05860000000000004,-0.6158238288312504
-0.05960000000000004,-0.6219070874206701
-0.06060000000000004,-0.6279903460100897
-0.061600000000000044,-0.6346394891194554
-0.06260000000000004,-0.6408642188388616
-0.06360000000000005,-0.6473718908182408
-0.06460000000000005,-0.6540210339276065
-0.06560000000000005,-0.6605287059069856
-0.06660000000000005,-0.6671778490163512
-0.06760000000000005,-0.6738269921257171
-0.06860000000000005,-0.6806176063650692
-0.06960000000000005,-0.6875496917344079
-0.07060000000000005,-0.69434030597376
-0.07160000000000005,-0.7012723913430987
-0.07260000000000005,-0.7084874189724104
-0.07360000000000005,-0.7154195043417491
-0.07460000000000006,-0.7224930608410742
-0.07560000000000006,-0.7298495596003725
-0.07660000000000006,-0.7370645872296842
-0.07760000000000006,-0.7445625571189688
-0.07860000000000006,-0.7520605270082534
-0.07960000000000006,-0.7594170257675517
-0.08060000000000006,-0.7670564667868228
-0.08160000000000006,-0.7745544366761076
-0.08260000000000006,-0.7826182910853382
-0.08360000000000006,-0.7906821454945689
-0.08460000000000006,-0.7984630576438266
-0.08560000000000006,-0.8066683831830439
-0.08660000000000007,-0.8145907664622882
-0.08760000000000007,-0.8227960920015054
-0.08860000000000007,-0.8311428886707091
-0.08960000000000007,-0.8393482142099263
-0.09060000000000007,-0.84769501087913
-0.09160000000000007,-0.8561832786783202
-0.09260000000000007,-0.8643886042175374
-0.09360000000000007,-0.8733012854066871
-0.09460000000000007,-0.8817895532058773
-0.09560000000000007,-0.8905607632650405
-0.09660000000000007,-0.8994734444541903
-0.09760000000000008,-0.9081031833833669
-0.09860000000000008,-0.9172988068324897
-0.09960000000000008,-0.9262114880216394
-0.10060000000000008,-0.9352656403407758
-0.10160000000000008,-0.9444612637898985
-0.10260000000000008,-0.9535154161090347
-0.10360000000000008,-0.9627110395581575
-0.10460000000000008,-0.9721896052672533
-0.10560000000000008,-0.9812437575863894
-0.10660000000000008,-0.9907223232954853
-0.10760000000000008,-1.0002008890045808
-0.10860000000000009,-1.0096794547136767
-0.10960000000000009,-1.019299491552759
-0.11060000000000009,-1.0289195283918413
-0.11160000000000009,-1.03868103636091
-0.11260000000000009,-1.0483010731999922
-0.11360000000000009,-1.0579211100390744
-0.11460000000000009,-1.0678240891381299
-0.11560000000000009,-1.078010010497158
-0.11660000000000009,-1.0874885762062536
-0.1176000000000001,-1.0975330264352956
-0.1186000000000001,-1.107294534404364
-0.1196000000000001,-1.1171975135034193
-0.1206000000000001,-1.1273834348624476
-0.1216000000000001,-1.1371449428315166
-0.1226000000000001,-1.1473308641905449
-0.1236000000000001,-1.1572338432895999
-0.1246000000000001,-1.1672782935186419
-0.1256000000000001,-1.17746421487767
-0.1266000000000001,-1.1873671939767252
-0.1276000000000001,-1.1975531153357537
-0.1286000000000001,-1.2078805078247683
-0.1296000000000001,-1.21792495805381
-0.1306000000000001,-1.2282523505428249
-0.1316000000000001,-1.2384382719018532
-0.1326000000000001,-1.2489071355208543
-0.1336000000000001,-1.2593759991398557
-0.1346000000000001,-1.269561920498884
-0.1356000000000001,-1.280030784117885
-0.1366000000000001,-1.2902167054769134
-0.1376000000000001,-1.3005440979659282
-0.1386000000000001,-1.3110129615849295
-0.1396000000000001,-1.3216232963339174
-0.1406000000000001,-1.3323751022128916
-0.14160000000000011,-1.3431269080918657
-0.14260000000000012,-1.3535957717108673
-0.14360000000000012,-1.3642061064598547
-0.14460000000000012,-1.3746749700788563
-0.14560000000000012,-1.385285304827844
-0.14660000000000012,-1.3963200529667912
-0.14760000000000012,-1.406930387715779
-0.14860000000000012,-1.4175407224647667
-0.14960000000000012,-1.4288584128636872
-0.15060000000000012,-1.4387613919627424
-0.15160000000000012,-1.4500790823616625
-0.15260000000000012,-1.461396772760583
-0.15360000000000013,-1.472714463159503
-0.15460000000000013,-1.4840321535584236
-0.15560000000000013,-1.4939351326574788
-0.15660000000000013,-1.505252823056399
-0.15760000000000013,-1.5165705134553193
-0.15860000000000013,-1.5278882038542394
-0.15960000000000002,-1.53920589425316
-0.16060000000000002,-1.55052358465208
-0.16160000000000002,-1.5618412750510005
-0.16260000000000002,-1.5731589654499207
-0.16360000000000002,-1.584476655848841
-0.16460000000000002,-1.5957943462477613
-0.16560000000000002,-1.6085267479465466
-0.16660000000000003,-1.6212591496453321
-0.16760000000000003,-1.6325768400442524
-0.16860000000000003,-1.643894530443173
-0.16960000000000003,-1.655212220842093
-0.17060000000000003,-1.6665299112410132
-0.17160000000000003,-1.6778476016399335
-0.17260000000000003,-1.6891652920388538
-0.17360000000000003,-1.701897693737639
-0.17460000000000003,-1.7132153841365596
-0.17560000000000003,-1.7245330745354797
-0.17660000000000003,-1.7372654762342652
-0.17760000000000004,-1.7485831666331852
-0.17860000000000004,-1.7613155683319706
-0.17960000000000004,-1.772633258730891
-0.18060000000000004,-1.7853656604296764
-0.18160000000000004,-1.7980980621284617
-0.18260000000000004,-1.8094157525273817
-0.18360000000000004,-1.822148154226167
-0.18460000000000004,-1.8348805559249526
-0.18560000000000004,-1.8461982463238729
-0.18660000000000004,-1.8589306480226582
-0.18760000000000004,-1.8716630497214433
-0.18860000000000005,-1.884395451420229
-0.18960000000000005,-1.897127853119014
-0.19060000000000005,-1.9098602548177994
-0.19160000000000005,-1.922592656516585
-0.19260000000000005,-1.93532505821537
-0.19360000000000005,-1.9480574599141556
-0.19460000000000005,-1.9607898616129409
-0.19560000000000005,-1.9735222633117262
-0.19660000000000005,-1.9862546650105113
-0.19760000000000005,-1.9989870667092968
-0.19860000000000005,-2.013134179707947
-0.19960000000000006,-2.0258665814067327
-0.20060000000000006,-2.038598983105518
-0.20160000000000006,-2.052746096104168
-0.20260000000000006,-2.0654784978029537
-0.20360000000000006,-2.0782108995017388
-0.20460000000000006,-2.092358012500389
-0.20560000000000006,-2.1065051254990395
-0.20660000000000006,-2.1192375271978254
-0.20760000000000006,-2.133384640196476
-0.20860000000000006,-2.1461170418952604
-0.20960000000000006,-2.1602641548939108
-0.21060000000000006,-2.1729965565926963
-0.21160000000000007,-2.1871436695913467
-0.21260000000000007,-2.201290782589997
-0.21360000000000007,-2.215437895588648
-0.21460000000000007,-2.235243853786758
-0.21560000000000007,-2.249390966785408
-0.21660000000000007,-2.263538079784059
-0.21760000000000007,-2.276270481482844
-0.21860000000000007,-2.2904175944814944
-0.21960000000000007,-2.30314999618028
-0.22060000000000007,-2.3172971091789303
-0.22160000000000007,-2.330029510877715
-0.22260000000000008,-2.3441766238763657
-0.22360000000000008,-2.358323736875016
-0.22460000000000008,-2.3724708498736664
-0.22560000000000008,-2.385203251572452
-0.22660000000000008,-2.3993503645711023
-0.22760000000000008,-2.4134974775697526
-0.22860000000000008,-2.427644590568403
-0.22960000000000008,-2.4417917035670533
-0.23060000000000008,-2.4545241052658384
-0.23160000000000008,-2.468671218264489
-0.23260000000000008,-2.4828183312631396
-0.23360000000000009,-2.49696544426179
-0.2346000000000001,-2.5111125572604402
-0.2356000000000001,-2.5238449589592253
-0.2366000000000001,-2.5379920719578757
-0.2376000000000001,-2.552139184956526
-0.2386000000000001,-2.5662862979551764
-0.2396000000000001,-2.579018699653962
-0.2406000000000001,-2.5931658126526123
-0.2416000000000001,-2.6073129256512626
-0.2426000000000001,-2.6200453273500477
-0.2436000000000001,-2.634192440348698
-0.2446000000000001,-2.6469248420474836
-0.2456000000000001,-2.661071955046134
-0.2466000000000001,-2.6738043567449195
-0.2476000000000001,-2.6879514697435702
-0.2486000000000001,-2.700683871442355
-0.2496000000000001,-2.7148309844410052
-0.2506000000000001,-2.7275633861397908
-0.2516000000000001,-2.740295787838576
-0.2526000000000001,-2.7530281895373614
-0.2536000000000001,-2.767175302536012
-0.2546000000000001,-2.7799077042347973
-0.2556000000000001,-2.7926401059335824
-0.2566000000000001,-2.8053725076323675
-0.2576000000000001,-2.818104909331153
-0.2586000000000001,-2.8308373110299385
-0.2596000000000001,-2.843569712728724
-0.2606000000000001,-2.854887403127644
-0.2616000000000001,-2.867619804826429
-0.2626000000000001,-2.8803522065252145
-0.2636000000000001,-2.893084608224
-0.2646000000000001,-2.9044022986229203
-0.2656000000000001,-2.9171347003217054
-0.2666000000000001,-2.9284523907206257
-0.2676000000000001,-2.941184792419411
-0.2686000000000001,-2.9525024828183315
-0.2696000000000001,-2.963820173217252
-0.2706000000000001,-2.975137863616172
-0.2716000000000001,-2.9864555540150928
-0.2726000000000001,-2.997773244414013
-0.2736000000000001,-3.009090934812933
-0.2746000000000001,-3.0204086252118536
-0.2756000000000001,-3.031726315610774
-0.2766000000000001,-3.043044006009694
-0.2776000000000001,-3.054361696408614
-0.2786000000000001,-3.0656793868075347
-0.2796000000000001,-3.0755823659065897
-0.2806000000000001,-3.08690005630551
-0.28160000000000013,-3.0982177467044303
-0.28260000000000013,-3.1081207258034858
-0.28360000000000013,-3.1180237049025408
-0.2846,-3.129341395301461
-0.2856,-3.1378296631006513
-0.2866,-3.1477326421997063
-0.2876,-3.1576356212987617
-0.2886,-3.167538600397817
-0.2896,-3.1760268681970074
-0.2906,-3.1859298472960624
-0.2916,-3.195832826395118
-0.2926,-3.204321094194308
-0.2936,-3.214224073293363
-0.29460000000000003,-3.2241270523924186
-0.29560000000000003,-3.232615320191609
-0.29660000000000003,-3.2411035879907995
-0.29760000000000003,-3.249591855789989
-0.29860000000000003,-3.2623242574887747
-0.29960000000000003,-3.27222723658783
-0.30060000000000003,-3.28071550438702
-0.30160000000000003,-3.2892037721862106
-0.30260000000000004,-3.2976920399854004
-0.30360000000000004,-3.3061803077845906
-0.30460000000000004,-3.313253864283916
-0.30560000000000004,-3.321742132083106
-0.30660000000000004,-3.3302303998822964
-0.30760000000000004,-3.3387186676814866
-0.30860000000000004,-3.347206935480677
-0.30960000000000004,-3.3542804919800018
-0.31060000000000004,-3.362768759779192
-0.31160000000000004,-3.371257027578382
-0.31260000000000004,-3.3783305840777076
-0.31360000000000005,-3.3854041405770325
-0.31460000000000005,-3.392477697076358
-0.31560000000000005,-3.3995512535756833
-0.31660000000000005,-3.408039521374873
-0.31760000000000005,-3.415113077874199
-0.31860000000000005,-3.4221866343735234
-0.31960000000000005,-3.432089613472579
-0.32060000000000005,-3.440577881271769
-0.32160000000000005,-3.447651437771094
-0.32260000000000005,-3.45472499427042
-0.32360000000000005,-3.4617985507697444
-0.32460000000000006,-3.4702868185689346
-0.32560000000000006,-3.4773603750682605
-0.32660000000000006,-3.4858486428674507
-0.32760000000000006,-3.4957516219665052
-0.32860000000000006,-3.504239889765696
-0.32960000000000006,-3.5141428688647514
-0.33060000000000006,-3.522631136663941
-0.33160000000000006,-3.5297046931632665
-0.33260000000000006,-3.542437094862052
-0.33360000000000006,-3.550925362661242
-0.33460000000000006,-3.557998919160567
-0.33560000000000006,-3.572146032159218
-0.33660000000000007,-3.5778048773586777
-0.33760000000000007,-3.583463722558138
-0.33860000000000007,-3.590537279057463
-0.33960000000000007,-3.5976108355567886
-0.34060000000000007,-3.606099103355979
-0.34160000000000007,-3.6145873711551686
-0.34260000000000007,-3.6216609276544935
-0.34360000000000007,-3.630149195453684
-0.3446000000000001,-3.6400521745527397
-0.3456000000000001,-3.6485404423519294
-0.3466000000000001,-3.658443421450985
-0.34759999999999996,-3.666931689250175
-0.3486000000000001,-3.67683466834923
-0.34959999999999997,-3.686737647448285
-0.3506000000000001,-3.7037141830466664
-0.35159999999999997,-3.7320084090439667
-0.3526000000000001,-3.7419113881430217
-0.35359999999999997,-3.748984944642347
-0.3546000000000001,-3.7574732124415373
-0.35559999999999997,-3.768790902840458
-0.3566000000000001,-3.791426283638298
-0.3576,-3.801329262737354
-0.3586000000000001,-3.8084028192366786
-0.3596,-3.8168910870358688
-0.3606000000000001,-3.8296234887346547
-0.3616,-3.8466000243330347
-0.3626000000000001,-3.8565030034320897
-0.3636,-3.8649912712312804
-0.3646000000000001,-3.8763089616302007
-0.3656,-3.889041363328986
-0.3666000000000001,-3.8989443424280408
-0.3676,-3.910262032826961
-0.3686000000000001,-3.9215797232258818
-0.3696,-3.932897413624801
-0.3706000000000001,-3.9470445266234524
-0.3716,-3.962606350921967
-0.3726000000000001,-3.973924041320888
-0.3736,-3.9838270204199433
-0.3746000000000001,-3.995144710818863
-0.3756,-4.006462401217783
-0.3766000000000001,-4.017780091616704
-0.3776,-4.030512493315489
-0.3786000000000001,-4.043244895014275
-0.3796,-4.06163614191252
-0.3806000000000001,-4.078612677510901
-0.3816,-4.088515656609956
-0.3826000000000001,-4.099833347008876
-0.3836,-4.112565748707662
-0.3846000000000001,-4.125298150406447
-0.3856,-4.138030552105232
-0.3866000000000001,-4.157836510303343
-0.3876,-4.167739489402398
-0.3886000000000001,-4.187545447600509
-0.3896,-4.203107271899024
-0.3906000000000001,-4.214424962297944
-0.3916,-4.224327941396999
-0.3926000000000001,-4.237060343095785
-0.3936,-4.2483780334947046
-0.3946000000000001,-4.2611104351934905
-0.3956,-4.272428125592412
-0.3966000000000001,-4.285160527291196
-0.3976,-4.297892928989982
-0.3986000000000001,-4.310625330688767
-0.3996,-4.323357732387552
-0.4006000000000001,-4.336090134086337
-0.4016,-4.348822535785122
-0.4026000000000001,-4.361554937483908
-0.4036,-4.3728726278828285
-0.4046000000000001,-4.385605029581614
-0.4056,-4.398337431280399
-0.40660000000000013,-4.411069832979184
-0.4076,-4.42380223467797
-0.40860000000000013,-4.436534636376755
-0.4096,-4.447852326775675
-0.41060000000000013,-4.46058472847446
-0.4116,-4.473317130173245
-0.41260000000000013,-4.486049531872031
-0.4136,-4.498781933570816
-0.41460000000000014,-4.511514335269602
-0.4156,-4.524246736968387
-0.41660000000000014,-4.535564427367307
-0.4176,-4.546882117766228
-0.41860000000000014,-4.559614519465013
-0.41960000000000003,-4.570932209863933
-0.42060000000000014,-4.582249900262854
-0.42160000000000003,-4.594982301961639
-0.42260000000000014,-4.60629999236056
-0.42360000000000003,-4.61761768275948
-0.42460000000000014,-4.6289353731583995
-0.42560000000000003,-4.640253063557321
-0.42660000000000015,-4.651570753956241
-0.42760000000000004,-4.66288844435516
-0.42860000000000015,-4.6742061347540815
-0.42960000000000004,-4.684109113853137
-0.43060000000000015,-4.695426804252056
-0.43160000000000004,-4.706744494650977
-0.43260000000000015,-4.716647473750032
-0.43360000000000004,-4.726550452849088
-0.43460000000000015,-4.737868143248008
-0.43560000000000004,-4.7463564110471985
-0.43660000000000015,-4.754844678846388
-0.43760000000000004,-4.766162369245309
-0.43860000000000016,-4.774650637044499
-0.43960000000000005,-4.784553616143554
-0.44060000000000016,-4.794456595242609
-0.44160000000000005,-4.802944863041799
-0.44260000000000016,-4.8128478421408545
-0.44360000000000005,-4.821336109940045
-0.44460000000000016,-4.829824377739236
-0.44560000000000005,-4.836897934238561
-0.44660000000000016,-4.843971490737885
-0.44760000000000005,-4.852459758537076
-0.44860000000000017,-4.860948026336266
-0.44960000000000006,-4.869436294135457
-0.45060000000000017,-4.880753984534377
