Potential V vs RHE, Current mA cm-2
0.013299999999999867,-0.5692798270656908
0.012299999999999978,-2.052746096104168
0.011299999999999866,-3.1420737970002466
0.010299999999999976,-3.884797229429391
0.009299999999999864,-4.450681749375406
0.008299999999999974,-4.843971490737885
0.007299999999999862,-5.105693081212917
0.006299999999999972,-5.323558621392133
0.00529999999999986,-5.453712060979717
0.0042999999999999705,-5.585280211867165
0.0032999999999998586,-5.672992312458796
0.0022999999999999687,-5.847001802342197
0.0012999999999998568,-5.9347139029338285
0.00029999999999996696,-6.021011292225596
-0.000700000000000145,-6.152579443113044
-0.0017000000000000348,-6.152579443113044
-0.0027000000000001467,-6.196435493408861
-0.0037000000000000366,-6.196435493408861
-0.0047000000000001485,-6.152579443113044
-0.005700000000000038,-6.108723392817228
-0.00670000000000015,-6.108723392817228
-0.00770000000000004,-6.108723392817228
-0.008700000000000152,-6.108723392817228
-0.009700000000000042,-6.152579443113044
-0.010700000000000154,-6.238876832404812
-0.011700000000000044,-6.282732882700628
-0.012700000000000156,-6.326588932996443
-0.013700000000000045,-6.326588932996443
-0.014700000000000157,-6.326588932996443
-0.015700000000000047,-6.238876832404812
-0.01670000000000016,-6.238876832404812
-0.01770000000000005,-6.152579443113044
-0.01870000000000016,-6.152579443113044
-0.01970000000000005,-6.152579443113044
-0.020700000000000163,-6.152579443113044
-0.021700000000000053,-6.196435493408861
-0.022700000000000164,-6.282732882700628
-0.023700000000000054,-6.326588932996443
-0.024700000000000166,-6.326588932996443
-0.025700000000000056,-6.326588932996443
-0.026700000000000168,-6.282732882700628
-0.027700000000000058,-6.238876832404812
-0.02870000000000017,-6.238876832404812
-0.02970000000000006,-6.152579443113044
-0.03070000000000017,-6.152579443113044
-0.03170000000000006,-6.152579443113044
-0.03270000000000017,-6.152579443113044
-0.03370000000000006,-6.238876832404812
-0.034700000000000175,-6.282732882700628
-0.035700000000000065,-6.326588932996443
-0.03670000000000018,-6.326588932996443
-0.03770000000000007,-6.326588932996443
-0.03870000000000018,-6.282732882700628
-0.03970000000000007,-6.238876832404812
-0.04070000000000018,-6.196435493408861
-0.04170000000000007,-6.152579443113044
-0.04270000000000018,-6.108723392817228
-0.04370000000000007,-6.152579443113044
-0.044700000000000184,-6.196435493408861
-0.045700000000000074,-6.196435493408861
-0.046700000000000186,-6.282732882700628
-0.047700000000000076,-6.282732882700628
-0.04870000000000019,-6.326588932996443
-0.04970000000000008,-6.282732882700628
-0.05070000000000019,-6.238876832404812
-0.05170000000000008,-6.196435493408861
-0.05270000000000019,-6.108723392817228
-0.05370000000000008,-6.108723392817228
-0.05470000000000019,-6.108723392817228
-0.05570000000000008,-6.152579443113044
-0.056700000000000195,-6.196435493408861
-0.057700000000000085,-6.196435493408861
-0.058700000000000196,-6.282732882700628
-0.059700000000000086,-6.282732882700628
-0.0607000000000002,-6.282732882700628
-0.06170000000000009,-6.282732882700628
-0.0627000000000002,-6.238876832404812
-0.06370000000000009,-6.152579443113044
-0.0647000000000002,-6.108723392817228
-0.06570000000000009,-6.108723392817228
-0.0667000000000002,-6.064867342521412
-0.0677000000000001,-6.108723392817228
-0.0687000000000002,-6.152579443113044
-0.0697000000000001,-6.196435493408861
-0.07070000000000021,-6.238876832404812
-0.0717000000000001,-6.238876832404812
-0.07270000000000021,-6.238876832404812
-0.0737000000000001,-6.196435493408861
-0.07470000000000021,-6.152579443113044
-0.0757000000000001,-6.108723392817228
-0.07670000000000021,-6.064867342521412
-0.0777000000000001,-6.064867342521412
-0.07870000000000021,-6.064867342521412
-0.0797000000000001,-6.108723392817228
-0.08070000000000022,-6.152579443113044
-0.0817000000000001,-6.196435493408861
-0.08270000000000022,-6.238876832404812
-0.08370000000000011,-6.238876832404812
-0.08470000000000022,-6.196435493408861
-0.08570000000000011,-6.152579443113044
-0.08670000000000022,-6.108723392817228
-0.08770000000000011,-6.064867342521412
-0.08870000000000022,-6.064867342521412
-0.08970000000000011,-6.021011292225596
-0.09070000000000022,-6.021011292225596
-0.09170000000000011,-6.108723392817228
-0.09270000000000023,-6.152579443113044
-0.09370000000000012,-6.196435493408861
-0.09470000000000023,-6.196435493408861
-0.09570000000000012,-6.238876832404812
-0.09670000000000023,-6.196435493408861
-0.09770000000000012,-6.108723392817228
-0.09870000000000023,-6.064867342521412
-0.09970000000000012,-6.021011292225596
-0.10070000000000023,-6.021011292225596
-0.10170000000000012,-6.021011292225596
-0.10270000000000024,-6.064867342521412
-0.10370000000000013,-6.064867342521412
-0.10470000000000024,-6.152579443113044
-0.10570000000000013,-6.196435493408861
-0.10670000000000024,-6.196435493408861
-0.10770000000000013,-6.196435493408861
-0.10870000000000024,-6.108723392817228
-0.10970000000000013,-6.064867342521412
-0.11070000000000024,-6.064867342521412
-0.11170000000000013,-6.021011292225596
-0.11270000000000002,-5.977155241929781
-0.11370000000000013,-6.021011292225596
-0.11470000000000002,-6.064867342521412
-0.11570000000000014,-6.064867342521412
-0.11670000000000003,-6.152579443113044
-0.11770000000000014,-6.152579443113044
-0.11870000000000003,-6.196435493408861
-0.11970000000000014,-6.152579443113044
-0.12070000000000003,-6.108723392817228
-0.12170000000000014,-6.064867342521412
-0.12270000000000003,-6.021011292225596
-0.12370000000000014,-5.977155241929781
-0.12470000000000003,-5.977155241929781
-0.12570000000000014,-6.021011292225596
-0.12670000000000003,-6.064867342521412
-0.12770000000000015,-6.064867342521412
-0.12870000000000004,-6.152579443113044
-0.12970000000000015,-6.152579443113044
-0.13070000000000004,-6.152579443113044
-0.13170000000000015,-6.152579443113044
-0.13270000000000004,-6.108723392817228
-0.13370000000000015,-6.021011292225596
-0.13470000000000004,-5.977155241929781
-0.13570000000000015,-5.977155241929781
-0.13670000000000004,-5.977155241929781
-0.13770000000000016,-6.021011292225596
-0.13870000000000005,-6.064867342521412
-0.13970000000000016,-6.108723392817228
-0.14070000000000005,-6.152579443113044
-0.14170000000000016,-6.152579443113044
-0.14270000000000005,-6.152579443113044
-0.14370000000000016,-6.108723392817228
-0.14470000000000005,-6.064867342521412
-0.14570000000000016,-6.021011292225596
-0.14670000000000005,-5.977155241929781
-0.14770000000000016,-5.977155241929781
-0.14870000000000005,-5.977155241929781
-0.14970000000000017,-6.021011292225596
-0.15070000000000006,-6.064867342521412
-0.15170000000000017,-6.108723392817228
-0.15270000000000006,-6.152579443113044
-0.15370000000000017,-6.152579443113044
-0.15470000000000006,-6.152579443113044
-0.15570000000000017,-6.108723392817228
-0.15670000000000006,-6.064867342521412
-0.15770000000000017,-6.021011292225596
-0.15870000000000006,-5.977155241929781
-0.15970000000000018,-5.977155241929781
-0.16070000000000007,-6.021011292225596
-0.16170000000000018,-6.064867342521412
-0.16270000000000007,-6.108723392817228
-0.16370000000000018,-6.152579443113044
-0.16470000000000007,-6.196435493408861
-0.16570000000000018,-6.196435493408861
-0.16670000000000007,-6.152579443113044
-0.16770000000000018,-6.108723392817228
-0.16870000000000007,-6.064867342521412
-0.16970000000000018,-6.021011292225596
-0.17070000000000007,-6.021011292225596
-0.17170000000000019,-6.021011292225596
-0.17270000000000008,-6.064867342521412
-0.1737000000000002,-6.108723392817228
-0.17470000000000008,-6.152579443113044
-0.1757000000000002,-6.196435493408861
-0.17670000000000008,-6.238876832404812
-0.1777000000000002,-6.196435493408861
-0.17870000000000008,-6.196435493408861
-0.1797000000000002,-6.152579443113044
-0.18070000000000008,-6.108723392817228
-0.1817000000000002,-6.064867342521412
-0.18270000000000008,-6.064867342521412
-0.1837000000000002,-6.064867342521412
-0.1847000000000001,-6.152579443113044
-0.1857000000000002,-6.196435493408861
-0.1867000000000001,-6.238876832404812
-0.1877000000000002,-6.282732882700628
-0.1887000000000001,-6.282732882700628
-0.1897000000000002,-6.282732882700628
-0.1907000000000001,-6.238876832404812
-0.1917000000000001,-6.196435493408861
-0.19269999999999998,-6.152579443113044
-0.1937000000000001,-6.152579443113044
-0.19469999999999998,-6.108723392817228
-0.1957000000000001,-6.152579443113044
-0.19669999999999999,-6.238876832404812
-0.1977000000000001,-6.282732882700628
-0.1987,-6.37044498329226
-0.1997000000000001,-6.37044498329226
-0.2007,-6.37044498329226
-0.2017000000000001,-6.37044498329226
-0.2027,-6.326588932996443
-0.2037000000000001,-6.282732882700628
-0.2047,-6.238876832404812
-0.2057000000000001,-6.282732882700628
-0.2067,-6.282732882700628
-0.2077000000000001,-6.326588932996443
-0.2087,-6.37044498329226
-0.2097000000000001,-6.458157083883892
-0.2107,-6.500598422879844
-0.2117000000000001,-6.54445447317566
-0.2127,-6.54445447317566
-0.2137000000000001,-6.500598422879844
-0.2147,-6.500598422879844
-0.2157000000000001,-6.500598422879844
-0.2167,-6.458157083883892
-0.21770000000000012,-6.458157083883892
-0.2187,-6.500598422879844
-0.21970000000000012,-6.54445447317566
-0.2207,-6.588310523471475
-0.22170000000000012,-6.6760226240631075
-0.2227,-6.719878674358924
-0.22370000000000012,-6.762320013354876
-0.2247,-6.762320013354876
-0.22570000000000012,-6.719878674358924
-0.2267,-6.6760226240631075
-0.22770000000000012,-6.6760226240631075
-0.22870000000000001,-6.6760226240631075
-0.22970000000000013,-6.6760226240631075
-0.23070000000000002,-6.762320013354876
-0.23170000000000013,-6.806176063650692
-0.23270000000000002,-6.893888164242324
-0.23370000000000013,-6.981600264833956
-0.23470000000000002,-7.024041603829907
-0.23570000000000013,-7.067897654125724
-0.23670000000000002,-7.067897654125724
-0.2376999999999999,-7.024041603829907
-0.23870000000000002,-7.024041603829907
-0.2396999999999999,-6.981600264833956
-0.24070000000000003,-7.024041603829907
-0.24169999999999991,-7.067897654125724
-0.24270000000000003,-7.111753704421539
-0.24369999999999992,-7.199465805013171
-0.24470000000000003,-7.28576319430494
-0.24569999999999992,-7.37347529489657
-0.24670000000000003,-7.4173313451923875
-0.24769999999999992,-7.461187395488204
-0.24870000000000003,-7.461187395488204
-0.24969999999999992,-7.461187395488204
-0.25070000000000003,-7.461187395488204
-0.2516999999999999,-7.461187395488204
-0.25270000000000004,-7.461187395488204
-0.2536999999999999,-7.5474847847799715
-0.25470000000000004,-7.635196885371603
-0.2556999999999999,-7.722908985963235
-0.25670000000000004,-7.853062425550818
-0.25769999999999993,-7.896918475846635
-0.25870000000000004,-7.984630576438266
-0.25969999999999993,-7.984630576438266
-0.26070000000000004,-8.027071915434218
-0.26169999999999993,-8.027071915434218
-0.26270000000000004,-8.027071915434218
-0.26369999999999993,-8.070927965730034
-0.26470000000000005,-8.11478401602585
-0.26569999999999994,-8.202496116617484
-0.26670000000000005,-8.332649556205066
-0.26769999999999994,-8.4203616567967
-0.26870000000000005,-8.55051509638428
-0.26969999999999994,-8.638227196975913
-0.27070000000000005,-8.725939297567548
-0.27169999999999994,-8.725939297567548
-0.27270000000000005,-8.769795347863363
-0.27369999999999994,-8.769795347863363
-0.27470000000000006,-8.812236686859313
-0.27569999999999995,-8.899948787450944
-0.27670000000000006,-8.943804837746763
-0.27769999999999995,-9.073958277334345
-0.27870000000000006,-9.205526428221793
-0.27969999999999995,-9.293238528813426
-0.28070000000000006,-9.467248018696827
-0.28169999999999995,-9.55496011928846
-0.28270000000000006,-9.59740145828441
-0.28369999999999995,-9.685113558876042
-0.28470000000000006,-9.728969609171857
-0.28569999999999995,-9.772825659467674
-0.28670000000000007,-9.81668170976349
-0.28769999999999996,-9.902979099055257
-0.28870000000000007,-10.034547249942705
-0.28969999999999996,-10.164700689530287
-0.29070000000000007,-10.340124890713554
-0.29169999999999996,-10.470278330301136
-0.29270000000000007,-10.601846481188586
-0.29369999999999996,-10.731999920776168
-0.2947000000000001,-10.819712021367803
-0.29569999999999996,-10.906009410659568
-0.2967000000000001,-10.993721511251199
-0.29769999999999996,-11.037577561547016
-0.2987000000000001,-11.1677310011346
-0.29969999999999997,-11.255443101726232
-0.3007000000000001,-11.385596541313816
-0.30169999999999997,-11.604876792792895
-0.3027000000000001,-11.778886282676295
-0.30369999999999997,-11.996751822855511
-0.3047000000000001,-12.12831997374296
-0.30569999999999997,-12.258473413330542
-0.3067000000000001,-12.346185513922174
-0.3077,-12.476338953509758
-0.3087000000000001,-12.56405105410139
-0.3097,-12.694204493688973
-0.3107000000000001,-12.869628694872238
-0.3117,-12.99978213445982
-0.3127000000000001,-13.217647674639037
-0.3137,-13.436927926118118
-0.3147000000000001,-13.610937416001518
-0.3157,-13.828802956180734
-0.3167000000000001,-14.046668496359947
-0.3177,-14.175407224647667
-0.3187000000000001,-14.345172580631472
-0.3197,-14.486643710617974
-0.3207000000000001,-14.61396772760583
-0.3217,-14.741291744593681
-0.3227000000000001,-14.925204213576137
-0.3237,-15.137410908555893
-0.3247000000000001,-15.3920589425316
-0.3257,-15.660854089505953
-0.3267000000000001,-15.91550212348166
-0.3277,-16.141855931460068
-0.3287000000000001,-16.354062626439823
-0.3297,-16.580416434418233
-0.3307000000000001,-16.750181790402035
-0.3317,-16.919947146385837
-0.3327000000000001,-17.103859615368293
-0.3337,-17.316066310348052
-0.3347000000000001,-17.542420118326454
-0.3357,-17.797068152302163
-0.3367000000000001,-18.10830463827247
-0.3377,-18.40539401124413
-0.3387000000000001,-18.759071836210385
-0.3397,-19.01371987018609
-0.3407000000000001,-19.28251501716045
-0.3417,-19.537163051136158
-0.3427000000000001,-19.763516859114564
-0.3437,-19.97572355409432
-0.3447000000000001,-20.202077362072725
-0.3457,-20.499166735044383
-0.3467000000000001,-20.76796188201874
-0.3477,-21.107492593986347
-0.3487000000000001,-21.503611757948562
-0.3497,-21.814848243918867
-0.3507000000000001,-22.196820294882425
-0.3517,-22.550498119848687
-0.3527000000000001,-22.861734605818995
-0.3537,-23.15882397879065
-0.3547000000000001,-23.47006046476096
-0.3557,-23.767149837732617
-0.35670000000000013,-24.078386323702922
-0.3577,-24.432064148669184
-0.35870000000000013,-24.771594860636792
-0.3597,-25.167714024599
-0.36070000000000013,-25.60627452755716
-0.3617,-26.044835030515326
-0.3626999999999999,-26.38436574248293
-0.3637,-26.822926245441096
-0.3646999999999999,-27.176604070407354
-0.3657,-27.530281895373616
-0.3666999999999999,-27.912253946337174
-0.3677,-28.265931771303435
-0.3686999999999999,-28.704492274261593
-0.36970000000000003,-29.100611438223805
-0.3706999999999999,-29.525024828183312
-0.37170000000000003,-29.96358533114148
-0.3726999999999999,-30.444587173095588
-0.37370000000000003,-30.925589015049702
-0.3746999999999999,-31.40659085700382
-0.37570000000000003,-31.84515135996197
-0.3766999999999999,-32.24127052392419
-0.37770000000000004,-32.66568391388369
-0.3786999999999999,-33.06180307784591
-0.37970000000000004,-33.50036358080407
-0.3806999999999999,-33.98136542275818
-0.38170000000000004,-34.462367264712285
-0.38269999999999993,-35.02825178465831
-0.38370000000000004,-35.55169496560837
-0.38469999999999993,-36.11757948555439
-0.38570000000000004,-36.6834640055004
-0.38669999999999993,-37.249348525446415
-0.38770000000000004,-37.73035036740053
-0.38869999999999993,-38.253793548350586
-0.38970000000000005,-38.734795390304704
-0.39069999999999994,-39.21579723225882
-0.39170000000000005,-39.696799074212926
-0.39269999999999994,-40.220242255162994
-0.39370000000000005,-40.78612677510901
-0.39469999999999994,-41.39445263405098
-0.39570000000000005,-42.00277849299294
-0.39669999999999994,-42.6111043519349
-0.39770000000000005,-43.17698887188092
-0.39869999999999994,-43.84190318281749
-0.39970000000000006,-44.36534636376755
-0.40069999999999995,-44.97367222270952
-0.40170000000000006,-45.53955674265553
-0.40269999999999995,-46.062999923605595
-0.40370000000000006,-46.67132578254756
-0.40469999999999995,-47.23721030249357
-0.40570000000000006,-47.8879775004315
-0.40669999999999995,-48.59533315036401
-0.40770000000000006,-49.24610034830193
-0.40869999999999995,-49.939308885235796
-0.40970000000000006,-50.547634744177756
-0.41069999999999995,-51.25499039411028
-0.41170000000000007,-51.82087491405629
-0.41269999999999996,-52.42920077299826
-0.41370000000000007,-53.03752663194023
-0.41469999999999996,-53.64585249088219
-0.41570000000000007,-54.31076680181876
-0.41669999999999996,-55.003975338752625
-0.41770000000000007,-55.6971838756865
-0.41869999999999996,-56.44698086461496
-0.4197000000000001,-57.182630740544774
-0.42069999999999996,-57.93242772947325
-0.4217000000000001,-58.66807760540307
-0.42269999999999996,-59.36128614233694
-0.4237000000000001,-60.06864179226946
-0.42469999999999997,-60.71940899020737
-0.4257000000000001,-61.412617527141244
-0.42669999999999997,-62.06338472507916
-0.4277000000000001,-62.81318171400764
-0.42869999999999997,-63.54883158993744
-0.4297000000000001,-64.34106991786187
-0.43069999999999997,-65.11916113278764
-0.4317000000000001,-65.91139946071206
-0.4327,-66.68949067563783
-0.4337000000000001,-67.48172900356225
-0.4347,-68.21737887949207
-0.4357000000000001,-68.96717586842054
-0.4367,-69.70282574435035
-0.4377000000000001,-70.39603428128423
-0.4387,-71.18827260920865
-0.4397000000000001,-71.92392248513846
-0.4407,-72.75860215205884
-0.4417000000000001,-73.53669336698461
-0.4427,-74.41381437290093
-0.4437000000000001,-75.29093537881725
-0.4447,-76.06902659374302
-0.4457000000000001,-76.9037062606634
-0.4467,-77.68179747558916
-0.4477000000000001,-78.51647714250953
-0.4487,-79.2945683574353
-0.4497000000000001,-80.08680668535972
-0.4507,-80.90733923928146
-0.4517000000000001,-81.74201890620182
-0.4527,-82.61913991211814
-0.4537000000000001,-83.52455514403178
-0.4547,-84.40167614994809
-0.4557000000000001,-85.32123849486035
-0.4567,-86.18421238777805
-0.4577000000000001,-87.06133339369435
-0.4587,-87.89601306061473
-0.4597000000000001,-88.71654561453644
-0.4607,-89.50878394246087
-0.4617000000000001,-90.37175783537855
-0.4627,-91.24887884129487
-0.4637000000000001,-92.16844118620713
-0.4647,-93.08800353111941
-0.4657000000000001,-94.07830144102493
-0.4667,-95.04030512493317
-0.4677000000000001,-96.00230880884139
-0.4687,-96.96431249274961
-0.4697000000000001,-97.88387483766188
-0.4707,-98.7892900695755
-0.4717000000000001,-99.70885241448778
-0.4727,-100.62841475940007
-0.4737000000000001,-101.59041844330828
-0.4747,-102.4958336752219
-0.4757000000000001,-103.50027869812607
-0.4767,-104.50472372103027
-0.4777000000000001,-105.50916874393444
-0.4787,-106.51361376683862
-0.4797000000000001,-107.47561745074682
-0.4807,-108.43762113465506
-0.48170000000000013,-109.39962481856328
-0.4827,-110.3050400504769
-0.48370000000000013,-111.26704373438514
-0.4847,-112.18660607929739
-0.48570000000000013,-113.19105110220158
-0.4867,-112.92225595522721
-0.48570000000000013,-110.92751302241753
-0.4847,-109.44206615755924
-0.48370000000000013,-108.2537086656726
-0.4827,-107.20682230377247
-0.48170000000000013,-106.15993594187235
-0.4807,-105.16963803196683
-0.4797000000000001,-104.12275167006669
-0.4787,-103.11830664716253
-0.4777000000000001,-102.07142028526239
-0.4767,-101.02453392336226
-0.4757000000000001,-100.02008890045809
-0.4747,-99.05808521654988
-0.4737000000000001,-98.09608153264163
-0.4727,-97.13407784873341
-0.4717000000000001,-96.27110395581576
-0.4707,-95.30910027190752
-0.4697000000000001,-94.38953792699526
-0.4687,-93.46997558208298
-0.4677000000000001,-92.4655305591788
-0.4667,-91.51767398826922
-0.4657000000000001,-90.51322896536506
-0.4647,-89.55122528145681
-0.4637000000000001,-88.5892215975486
-0.4627,-87.71210059163228
-0.4617000000000001,-86.84912669871461
-0.4607,-85.97200569279828
