Potential V vs RHE, Current mA cm-2
0.013299999999999867,-0.04582249900262853
0.012299999999999978,-0.6128529351015338
0.011299999999999866,-0.9181476336124089
0.010299999999999976,-1.1798692240874404
0.009299999999999864,-1.3543031273607997
0.008299999999999974,-1.4854468648582886
0.007299999999999862,-1.6156003044458718
0.006299999999999972,-1.6594563547416883
0.00529999999999986,-1.7471684553333202
0.0042999999999999705,-1.7910245056291363
0.0032999999999998586,-1.8773218949209036
0.0022999999999999687,-1.92117794521672
0.0012999999999998568,-2.008890045808352
0.00029999999999996696,-2.095187435100119
-0.000700000000000145,-2.1390434853959355
-0.0017000000000000348,-2.226755585987568
-0.0027000000000001467,-2.226755585987568
-0.0037000000000000366,-2.2706116362833835
-0.0047000000000001485,-2.3144676865791998
-0.005700000000000038,-2.3144676865791998
-0.00670000000000015,-2.3569090255751513
-0.00770000000000004,-2.4007650758709675
-0.008700000000000152,-2.4884771764625997
-0.009700000000000042,-2.532333226758415
-0.010700000000000154,-2.618630616050183
-0.011700000000000044,-2.662486666345999
-0.012700000000000156,-2.706342716641815
-0.013700000000000045,-2.706342716641815
-0.014700000000000157,-2.7501987669376318
-0.015700000000000047,-2.794054817233447
-0.01670000000000016,-2.8379108675292635
-0.01770000000000005,-2.8803522065252145
-0.01870000000000016,-2.924208256821031
-0.01970000000000005,-3.0119203574126634
-0.020700000000000163,-3.055776407708479
-0.021700000000000053,-3.1420737970002466
-0.022700000000000164,-3.1859298472960624
-0.023700000000000054,-3.1859298472960624
-0.024700000000000166,-3.2297858975918787
-0.025700000000000056,-3.273641947887695
-0.026700000000000168,-3.317497998183511
-0.027700000000000058,-3.361354048479327
-0.02870000000000017,-3.447651437771094
-0.02970000000000006,-3.5353635383627267
-0.03070000000000017,-3.579219588658543
-0.03170000000000006,-3.6655169779503103
-0.03270000000000017,-3.7093730282461257
-0.03370000000000006,-3.7532290785419424
-0.034700000000000175,-3.7970851288377587
-0.035700000000000065,-3.840941179133574
-0.03670000000000018,-3.884797229429391
-0.03770000000000007,-3.971094618721158
-0.03870000000000018,-4.0588067193127895
-0.03970000000000007,-4.102662769608606
-0.04070000000000018,-4.1889601589003735
-0.04170000000000007,-4.276672259492005
-0.04270000000000018,-4.3205283097878215
-0.04370000000000007,-4.364384360083638
-0.044700000000000184,-4.450681749375406
-0.045700000000000074,-4.494537799671222
-0.046700000000000186,-4.582249900262854
-0.047700000000000076,-4.626105950558669
-0.04870000000000019,-4.712403339850438
-0.04970000000000008,-4.800115440442069
-0.05070000000000019,-4.887827541033701
-0.05170000000000008,-4.974124930325469
-0.05270000000000019,-5.017980980621284
-0.05370000000000008,-5.0618370309171015
-0.05470000000000019,-5.149549131508733
-0.05570000000000008,-5.191990470504685
-0.056700000000000195,-5.279702571096316
-0.057700000000000085,-5.367414671687949
-0.058700000000000196,-5.453712060979717
-0.059700000000000086,-5.5414241615713475
-0.0607000000000002,-5.629136262162981
-0.06170000000000009,-5.715433651454749
-0.0627000000000002,-5.80314575204638
-0.06370000000000009,-5.847001802342197
-0.0647000000000002,-5.890857852638012
-0.06570000000000009,-5.977155241929781
-0.0667000000000002,-6.064867342521412
-0.0677000000000001,-6.108723392817228
-0.0687000000000002,-6.238876832404812
-0.0697000000000001,-6.326588932996443
-0.07070000000000021,-6.414301033588076
-0.0717000000000001,-6.500598422879844
-0.07270000000000021,-6.588310523471475
-0.0737000000000001,-6.632166573767292
-0.07470000000000021,-6.719878674358924
-0.0757000000000001,-6.762320013354876
-0.07670000000000021,-6.806176063650692
-0.0777000000000001,-6.93774421453814
-0.07870000000000021,-7.024041603829907
-0.0797000000000001,-7.111753704421539
-0.08070000000000022,-7.243321855308987
-0.0817000000000001,-7.329619244600755
-0.08270000000000022,-7.37347529489657
-0.08370000000000011,-7.461187395488204
-0.08470000000000022,-7.5474847847799715
-0.08570000000000011,-7.591340835075788
-0.08670000000000022,-7.679052935667419
-0.08770000000000011,-7.722908985963235
-0.08870000000000022,-7.853062425550818
-0.08970000000000011,-7.940774526142452
-0.09070000000000022,-8.070927965730034
-0.09170000000000011,-8.158640066321666
-0.09270000000000023,-8.246352166913299
-0.09370000000000012,-8.288793505909249
-0.09470000000000023,-8.332649556205066
-0.09570000000000012,-8.376505606500881
-0.09670000000000023,-8.464217707092514
-0.09770000000000012,-8.55051509638428
-0.09870000000000023,-8.68208324727173
-0.09970000000000012,-8.769795347863363
-0.10070000000000023,-8.85609273715513
-0.10170000000000012,-8.943804837746763
-0.10270000000000024,-9.031516938338395
-0.10370000000000013,-9.073958277334345
-0.10470000000000024,-9.161670377925978
-0.10570000000000013,-9.205526428221793
-0.10670000000000024,-9.293238528813426
-0.10770000000000013,-9.379535918105192
-0.10870000000000024,-9.467248018696827
-0.10970000000000013,-9.55496011928846
-0.11070000000000024,-9.685113558876042
-0.11170000000000013,-9.772825659467674
-0.11270000000000002,-9.81668170976349
-0.11370000000000013,-9.902979099055257
-0.11470000000000002,-9.946835149351072
-0.11570000000000014,-9.99069119964689
-0.11670000000000003,-10.078403300238522
-0.11770000000000014,-10.164700689530287
-0.11870000000000003,-10.25241279012192
-0.11970000000000014,-10.340124890713554
-0.12070000000000003,-10.42642228000532
-0.12170000000000014,-10.514134380596953
-0.12270000000000003,-10.601846481188586
-0.12370000000000014,-10.644287820184536
-0.12470000000000003,-10.688143870480351
-0.12570000000000014,-10.775855971071984
-0.12670000000000003,-10.819712021367803
-0.12770000000000015,-10.906009410659568
-0.12870000000000004,-11.037577561547016
-0.12970000000000015,-11.123874950838783
-0.13070000000000004,-11.211587051430415
-0.13170000000000015,-11.343155202317865
-0.13270000000000004,-11.42945259160963
-0.13370000000000015,-11.517164692201263
-0.13470000000000004,-11.604876792792895
-0.13570000000000015,-11.691174182084664
-0.13670000000000004,-11.73503023238048
-0.13770000000000016,-11.82274233297211
-0.13870000000000005,-11.909039722263879
-0.13970000000000016,-11.996751822855511
-0.14070000000000005,-12.084463923447142
-0.14170000000000016,-12.170761312738911
-0.14270000000000005,-12.258473413330542
-0.14370000000000016,-12.346185513922174
-0.14470000000000005,-12.390041564217992
-0.14570000000000016,-12.476338953509758
-0.14670000000000005,-12.56405105410139
-0.14770000000000016,-12.694204493688973
-0.14870000000000005,-12.781916594280606
-0.14970000000000017,-12.869628694872238
-0.15070000000000006,-12.99978213445982
-0.15170000000000017,-13.087494235051453
-0.15270000000000006,-13.175206335643086
-0.15370000000000017,-13.217647674639037
-0.15470000000000006,-13.30535977523067
-0.15570000000000017,-13.3930718758223
-0.15670000000000006,-13.436927926118118
-0.15770000000000017,-13.567081365705702
-0.15870000000000006,-13.654793466297335
-0.15970000000000018,-13.784946905884919
-0.16070000000000007,-13.916515056772363
-0.16170000000000018,-14.002812446064135
-0.16270000000000007,-14.090524546655764
-0.16370000000000018,-14.175407224647667
-0.16470000000000007,-14.26028990263957
-0.16570000000000018,-14.30273124163552
-0.16670000000000007,-14.401761032626075
-0.16770000000000018,-14.486643710617974
-0.16870000000000007,-14.61396772760583
-0.16970000000000018,-14.69885040559773
-0.17070000000000007,-14.826174422585586
-0.17170000000000019,-14.925204213576137
-0.17270000000000008,-15.05252823056399
-0.1737000000000002,-15.094969569559943
-0.17470000000000008,-15.179852247551842
-0.1757000000000002,-15.307176264539699
-0.17670000000000008,-15.349617603535648
-0.1777000000000002,-15.491088733522153
-0.17870000000000008,-15.618412750510005
-0.1797000000000002,-15.74573676749786
-0.18070000000000008,-15.87306078448571
-0.1817000000000002,-16.014531914472215
-0.18270000000000008,-16.141855931460068
-0.1837000000000002,-16.22673860945197
-0.1847000000000001,-16.354062626439823
-0.1857000000000002,-16.438945304431726
-0.1867000000000001,-16.580416434418233
-0.1877000000000002,-16.665299112410132
-0.1887000000000001,-16.835064468393938
-0.1897000000000002,-16.962388485381787
-0.1907000000000001,-17.103859615368293
-0.1917000000000001,-17.231183632356142
-0.19269999999999998,-17.316066310348052
-0.1937000000000001,-17.4433903273359
-0.19469999999999998,-17.542420118326454
-0.1957000000000001,-17.669744135314307
-0.19669999999999999,-17.75462681330621
-0.1977000000000001,-17.881950830294063
-0.1987,-18.009274847281915
-0.1997000000000001,-18.19318731626437
-0.2007,-18.320511333252224
-0.2017000000000001,-18.44783535024008
-0.2027,-18.589306480226583
-0.2037000000000001,-18.716630497214435
-0.2047,-18.80151317520634
-0.2057000000000001,-18.88639585319824
-0.2067,-19.056161209182044
-0.2077000000000001,-19.197632339168546
-0.2087,-19.3249563561564
-0.2097000000000001,-19.49472171214021
-0.2107,-19.636192842126707
-0.2117000000000001,-19.763516859114564
-0.2127,-19.890840876102416
-0.2137000000000001,-19.97572355409432
-0.2147,-20.10304757108217
-0.2157000000000001,-20.244518701068674
-0.2167,-20.329401379060574
-0.21770000000000012,-20.414284057052477
-0.2187,-20.584049413036283
-0.21970000000000012,-20.72552054302279
-0.2207,-20.85284456001064
-0.22170000000000012,-20.980168576998494
-0.2227,-21.107492593986347
-0.22370000000000012,-21.2065223849769
-0.2247,-21.291405062968803
-0.22570000000000012,-21.333846401964752
-0.2267,-21.461170418952605
-0.22770000000000012,-21.54605309694451
-0.22870000000000001,-21.67337711393236
-0.22970000000000013,-21.857289582914817
-0.23070000000000002,-21.98461359990267
-0.23170000000000013,-22.111937616890522
-0.23270000000000002,-22.196820294882425
-0.23370000000000013,-22.33829142486893
-0.23470000000000002,-22.42317410286083
-0.23570000000000013,-22.508056780852733
-0.23670000000000002,-22.592939458844636
-0.2376999999999999,-22.72026347583249
-0.23870000000000002,-22.861734605818995
-0.2396999999999999,-22.989058622806844
-0.24070000000000003,-23.15882397879065
-0.24169999999999991,-23.24370665678255
-0.24270000000000003,-23.385177786769056
-0.24369999999999992,-23.47006046476096
-0.24470000000000003,-23.51250180375691
-0.24569999999999992,-23.597384481748815
-0.24670000000000003,-23.639825820744765
-0.24769999999999992,-23.724708498736668
-0.24870000000000003,-23.823738289727217
-0.24969999999999992,-23.908620967719123
-0.25070000000000003,-23.993503645711023
-0.2516999999999999,-24.078386323702922
-0.25270000000000004,-24.120827662698876
-0.2536999999999999,-24.16326900169483
-0.25470000000000004,-24.20571034069078
-0.2556999999999999,-24.20571034069078
-0.25670000000000004,-24.24815167968673
-0.25769999999999993,-24.290593018682678
-0.25870000000000004,-24.34718147067728
-0.25969999999999993,-24.432064148669184
-0.26070000000000004,-24.474505487665134
-0.26169999999999993,-24.516946826661083
-0.26270000000000004,-24.559388165657033
-0.26369999999999993,-24.559388165657033
-0.26470000000000005,-24.559388165657033
-0.26569999999999994,-24.559388165657033
-0.26670000000000005,-24.559388165657033
-0.26769999999999994,-24.559388165657033
-0.26870000000000005,-24.601829504652986
-0.26969999999999994,-24.64427084364894
-0.27070000000000005,-24.64427084364894
-0.27169999999999994,-24.64427084364894
-0.27270000000000005,-24.64427084364894
-0.27369999999999994,-24.601829504652986
-0.27470000000000006,-24.559388165657033
-0.27569999999999995,-24.516946826661083
-0.27670000000000006,-24.474505487665134
-0.27769999999999995,-24.474505487665134
-0.27870000000000006,-24.432064148669184
-0.27969999999999995,-24.432064148669184
-0.28070000000000006,-24.389622809673234
-0.28169999999999995,-24.34718147067728
-0.28270000000000006,-24.290593018682678
-0.28369999999999995,-24.20571034069078
-0.28470000000000006,-24.120827662698876
-0.28569999999999995,-24.035944984706973
-0.28670000000000007,-23.951062306715073
-0.28769999999999996,-23.86617962872317
-0.28870000000000007,-23.767149837732617
-0.28969999999999996,-23.724708498736668
-0.29070000000000007,-23.639825820744765
-0.29169999999999996,-23.597384481748815
-0.29270000000000007,-23.47006046476096
-0.29369999999999996,-23.385177786769056
-0.2947000000000001,-23.300295108777156
-0.29569999999999996,-23.15882397879065
-0.2967000000000001,-23.073941300798747
-0.29769999999999996,-22.989058622806844
-0.2987000000000001,-22.904175944814945
-0.29969999999999997,-22.819293266823045
-0.3007000000000001,-22.72026347583249
-0.30169999999999997,-22.63538079784059
-0.3027000000000001,-22.508056780852733
-0.30369999999999997,-22.38073276386488
-0.3047000000000001,-22.253408746877028
-0.30569999999999997,-22.111937616890522
-0.3067000000000001,-21.94217226090672
-0.3077,-21.814848243918867
-0.3087000000000001,-21.729965565926964
-0.3097,-21.58849443594046
-0.3107000000000001,-21.503611757948562
-0.3117,-21.376287740960702
-0.3127000000000001,-21.248963723972853
-0.3137,-21.107492593986347
-0.3147000000000001,-20.93772723800254
-0.3157,-20.810403221014692
-0.3167000000000001,-20.683079204026836
-0.3177,-20.541608074040333
-0.3187000000000001,-20.414284057052477
-0.3197,-20.329401379060574
-0.3207000000000001,-20.202077362072725
-0.3217,-20.10304757108217
-0.3227000000000001,-19.93328221509837
-0.3237,-19.763516859114564
-0.3247000000000001,-19.579604390132108
-0.3257,-19.409839034148305
-0.3267000000000001,-19.28251501716045
-0.3277,-19.155191000172596
-0.3287000000000001,-19.01371987018609
-0.3297,-18.843954514202288
-0.3307000000000001,-18.716630497214435
-0.3317,-18.589306480226583
-0.3327000000000001,-18.40539401124413
-0.3337,-18.23562865526032
-0.3347000000000001,-18.06586329927652
-0.3357,-17.839509491298113
-0.3367000000000001,-17.71218547431026
-0.3377,-17.542420118326454
-0.3387000000000001,-17.40094898833995
-0.3397,-17.2736249713521
-0.3407000000000001,-17.146300954364243
-0.3417,-17.061418276372343
-0.3427000000000001,-16.877505807389888
-0.3437,-16.70774045140608
-0.3447000000000001,-16.580416434418233
-0.3457,-16.396503965435777
-0.3467000000000001,-16.269179948447924
-0.3477,-16.141855931460068
-0.3487000000000001,-16.014531914472215
-0.3497,-15.91550212348166
-0.3507000000000001,-15.830619445489761
-0.3517,-15.70329542850191
-0.3527000000000001,-15.575971411514052
-0.3537,-15.448647394526201
-0.3547000000000001,-15.307176264539699
-0.3557,-15.179852247551842
-0.35670000000000013,-15.05252823056399
-0.3577,-14.967645552572087
-0.35870000000000013,-14.925204213576137
-0.3597,-14.826174422585586
-0.36070000000000013,-14.783733083589633
-0.3617,-14.741291744593681
-0.3626999999999999,-14.65640906660178
-0.3637,-14.57152638860988
-0.3646999999999999,-14.529085049613924
-0.3657,-14.444202371622024
-0.3666999999999999,-14.401761032626075
-0.3677,-14.401761032626075
-0.3686999999999999,-14.345172580631472
-0.36970000000000003,-14.401761032626075
-0.3706999999999999,-14.345172580631472
-0.37170000000000003,-14.345172580631472
-0.3726999999999999,-14.345172580631472
-0.37370000000000003,-14.30273124163552
-0.3746999999999999,-14.26028990263957
-0.37570000000000003,-14.217848563643619
-0.3766999999999999,-14.217848563643619
-0.37770000000000004,-14.217848563643619
-0.3786999999999999,-14.26028990263957
-0.37970000000000004,-14.30273124163552
-0.3806999999999999,-14.345172580631472
-0.38170000000000004,-14.401761032626075
-0.38269999999999993,-14.401761032626075
-0.38370000000000004,-14.401761032626075
-0.38469999999999993,-14.444202371622024
-0.38570000000000004,-14.444202371622024
-0.38669999999999993,-14.444202371622024
-0.38770000000000004,-14.486643710617974
-0.38869999999999993,-14.57152638860988
-0.38970000000000005,-14.61396772760583
-0.39069999999999994,-14.69885040559773
-0.39170000000000005,-14.741291744593681
-0.39269999999999994,-14.783733083589633
-0.39370000000000005,-14.826174422585586
-0.39469999999999994,-14.868615761581536
-0.39570000000000005,-14.925204213576137
-0.39669999999999994,-15.01008689156804
-0.39770000000000005,-15.05252823056399
-0.39869999999999994,-15.137410908555893
-0.39970000000000006,-15.222293586547794
-0.40069999999999995,-15.307176264539699
-0.40170000000000006,-15.3920589425316
-0.40269999999999995,-15.491088733522153
-0.40370000000000006,-15.533530072518102
-0.40469999999999995,-15.575971411514052
-0.40570000000000006,-15.618412750510005
-0.40669999999999995,-15.660854089505953
-0.40770000000000006,-15.74573676749786
-0.40869999999999995,-15.830619445489761
-0.40970000000000006,-15.972090575476265
-0.41069999999999995,-16.014531914472215
-0.41170000000000007,-16.099414592464115
-0.41269999999999996,-16.184297270456018
-0.41370000000000007,-16.184297270456018
-0.41469999999999996,-16.269179948447924
-0.41570000000000007,-16.311621287443874
-0.41669999999999996,-16.354062626439823
-0.41770000000000007,-16.438945304431726
-0.41869999999999996,-16.580416434418233
-0.4197000000000001,-16.665299112410132
-0.42069999999999996,-16.792623129397985
-0.4217000000000001,-16.877505807389888
-0.42269999999999996,-16.962388485381787
-0.4237000000000001,-17.018976937376394
-0.42469999999999997,-17.061418276372343
-0.4257000000000001,-17.146300954364243
-0.42669999999999997,-17.188742293360193
-0.4277000000000001,-17.2736249713521
-0.42869999999999997,-17.358507649344002
-0.4297000000000001,-17.4433903273359
-0.43069999999999997,-17.48583166633185
-0.4317000000000001,-17.584861457322408
-0.4327,-17.669744135314307
-0.4337000000000001,-17.669744135314307
-0.4347,-17.71218547431026
-0.4357000000000001,-17.75462681330621
-0.4367,-17.797068152302163
-0.4377000000000001,-17.881950830294063
-0.4387,-17.966833508285966
-0.4397000000000001,-18.009274847281915
-0.4407,-18.10830463827247
-0.4417000000000001,-18.15074597726842
-0.4427,-18.19318731626437
-0.4437000000000001,-18.23562865526032
-0.4447,-18.23562865526032
-0.4457000000000001,-18.27806999425627
-0.4467,-18.320511333252224
-0.4477000000000001,-18.320511333252224
-0.4487,-18.362952672248177
-0.4497000000000001,-18.44783535024008
-0.4507,-18.49027668923603
-0.4517000000000001,-18.589306480226583
-0.4527,-18.589306480226583
-0.4537000000000001,-18.631747819222536
-0.4547,-18.631747819222536
-0.4557000000000001,-18.631747819222536
-0.4567,-18.674189158218486
-0.4577000000000001,-18.759071836210385
-0.4587,-18.80151317520634
-0.4597000000000001,-18.843954514202288
-0.4607,-18.92883719219419
-0.4617000000000001,-18.92883719219419
-0.4627,-18.97127853119014
-0.4637000000000001,-18.92883719219419
-0.4647,-18.97127853119014
-0.4657000000000001,-18.97127853119014
-0.4667,-18.97127853119014
-0.4677000000000001,-19.01371987018609
-0.4687,-19.01371987018609
-0.4697000000000001,-19.056161209182044
-0.4707,-19.112749661176647
-0.4717000000000001,-19.155191000172596
-0.4727,-19.155191000172596
-0.4737000000000001,-19.155191000172596
-0.4747,-19.112749661176647
-0.4757000000000001,-19.112749661176647
-0.4767,-19.112749661176647
-0.4777000000000001,-19.155191000172596
-0.4787,-19.197632339168546
-0.4797000000000001,-19.197632339168546
-0.4807,-19.28251501716045
-0.48170000000000013,-19.28251501716045
-0.4827,-19.28251501716045
-0.48370000000000013,-19.28251501716045
-0.4847,-19.28251501716045
-0.48570000000000013,-19.28251501716045
-0.4867,-19.3249563561564
-0.4876999999999999,-19.3249563561564
-0.4887,-19.409839034148305
-0.4896999999999999,-19.452280373144255
-0.4907,-19.537163051136158
-0.4916999999999999,-19.579604390132108
-0.4927,-19.636192842126707
-0.4936999999999999,-19.678634181122664
-0.49470000000000003,-19.721075520118614
-0.4956999999999999,-19.763516859114564
-0.49670000000000003,-19.848399537106463
-0.4976999999999999,-19.97572355409432
-0.49870000000000003,-20.06060623208622
-0.4996999999999999,-20.244518701068674
-0.5007,-20.371842718056527
-0.5016999999999999,-20.541608074040333
-0.5027,-20.72552054302279
-0.5036999999999999,-20.89528589900659
-0.5047,-21.107492593986347
-0.5056999999999999,-21.376287740960702
