May 2, 2025   12:44:45
Cyclic Voltammetry
File: c:/users/guazh/data/banditlqround7_x0exp1108_r5/2025-04-30-exp1217\exp1217-2025-05-02t12_36_14-arkoh\exp1217_cv_50mvs_efin_-1500mv.bin
Data Source:  Experiment
Instrument Model:  CHI760E
Header: CV ran at 50 mVs
Note: 

Init E (V) = -1
High E (V) = -1
Low E (V) = -1.5
Final E (V) = -1
Init P/N = N
Scan Rate (V/s) = 0.05
Segment = 7
Sample Interval (V) = 0.001
Quiet Time (sec) = 60
Sensitivity (A/V) = 0.001
Comp R (ohm) = 1.0

Results:

Channel 1:
Segment 1:

Segment 2:

Segment 3:

Segment 4:

Segment 5:

Segment 6:

Segment 7:

Potential/V, Current/A

-1.000, 3.275e-5
-1.001, 5.623e-5
-1.002, 6.425e-5
-1.003, 6.758e-5
-1.004, 6.848e-5
-1.005, 6.815e-5
-1.006, 6.874e-5
-1.007, 7.050e-5
-1.008, 7.112e-5
-1.009, 7.079e-5
-1.010, 7.008e-5
-1.011, 7.020e-5
-1.012, 7.194e-5
-1.013, 7.233e-5
-1.014, 7.197e-5
-1.015, 7.150e-5
-1.016, 7.124e-5
-1.017, 7.291e-5
-1.018, 7.374e-5
-1.019, 7.277e-5
-1.020, 7.232e-5
-1.021, 7.237e-5
-1.022, 7.348e-5
-1.023, 7.454e-5
-1.024, 7.409e-5
-1.025, 7.304e-5
-1.026, 7.341e-5
-1.027, 7.449e-5
-1.028, 7.536e-5
-1.029, 7.464e-5
-1.030, 7.361e-5
-1.031, 7.441e-5
-1.032, 7.545e-5
-1.033, 7.609e-5
-1.034, 7.572e-5
-1.035, 7.465e-5
-1.036, 7.495e-5
-1.037, 7.600e-5
-1.038, 7.674e-5
-1.039, 7.670e-5
-1.040, 7.539e-5
-1.041, 7.581e-5
-1.042, 7.728e-5
-1.043, 7.794e-5
-1.044, 7.736e-5
-1.045, 7.628e-5
-1.046, 7.658e-5
-1.047, 7.811e-5
-1.048, 7.851e-5
-1.049, 7.815e-5
-1.050, 7.740e-5
-1.051, 7.765e-5
-1.052, 7.908e-5
-1.053, 7.946e-5
-1.054, 7.899e-5
-1.055, 7.847e-5
-1.056, 7.871e-5
-1.057, 7.995e-5
-1.058, 8.085e-5
-1.059, 8.004e-5
-1.060, 7.946e-5
-1.061, 7.944e-5
-1.062, 8.099e-5
-1.063, 8.190e-5
-1.064, 8.085e-5
-1.065, 8.035e-5
-1.066, 8.107e-5
-1.067, 8.181e-5
-1.068, 8.309e-5
-1.069, 8.222e-5
-1.070, 8.145e-5
-1.071, 8.226e-5
-1.072, 8.300e-5
-1.073, 8.379e-5
-1.074, 8.345e-5
-1.075, 8.325e-5
-1.076, 8.338e-5
-1.077, 8.442e-5
-1.078, 8.518e-5
-1.079, 8.485e-5
-1.080, 8.377e-5
-1.081, 8.434e-5
-1.082, 8.587e-5
-1.083, 8.629e-5
-1.084, 8.578e-5
-1.085, 8.494e-5
-1.086, 8.570e-5
-1.087, 8.714e-5
-1.088, 8.756e-5
-1.089, 8.716e-5
-1.090, 8.688e-5
-1.091, 8.690e-5
-1.092, 8.858e-5
-1.093, 8.917e-5
-1.094, 8.846e-5
-1.095, 8.801e-5
-1.096, 8.810e-5
-1.097, 8.976e-5
-1.098, 9.064e-5
-1.099, 8.979e-5
-1.100, 8.947e-5
-1.101, 8.981e-5
-1.102, 9.114e-5
-1.103, 9.224e-5
-1.104, 9.129e-5
-1.105, 9.083e-5
-1.106, 9.150e-5
-1.107, 9.269e-5
-1.108, 9.366e-5
-1.109, 9.278e-5
-1.110, 9.232e-5
-1.111, 9.290e-5
-1.112, 9.418e-5
-1.113, 9.514e-5
-1.114, 9.475e-5
-1.115, 9.380e-5
-1.116, 9.469e-5
-1.117, 9.599e-5
-1.118, 9.672e-5
-1.119, 9.640e-5
-1.120, 9.528e-5
-1.121, 9.618e-5
-1.122, 9.774e-5
-1.123, 9.852e-5
-1.124, 9.793e-5
-1.125, 9.732e-5
-1.126, 9.794e-5
-1.127, 9.972e-5
-1.128, 1.002e-4
-1.129, 9.953e-5
-1.130, 9.930e-5
-1.131, 9.989e-5
-1.132, 1.015e-4
-1.133, 1.023e-4
-1.134, 1.015e-4
-1.135, 1.012e-4
-1.136, 1.016e-4
-1.137, 1.032e-4
-1.138, 1.040e-4
-1.139, 1.036e-4
-1.140, 1.033e-4
-1.141, 1.036e-4
-1.142, 1.055e-4
-1.143, 1.065e-4
-1.144, 1.056e-4
-1.145, 1.053e-4
-1.146, 1.061e-4
-1.147, 1.076e-4
-1.148, 1.085e-4
-1.149, 1.080e-4
-1.150, 1.073e-4
-1.151, 1.087e-4
-1.152, 1.100e-4
-1.153, 1.109e-4
-1.154, 1.104e-4
-1.155, 1.099e-4
-1.156, 1.111e-4
-1.157, 1.126e-4
-1.158, 1.133e-4
-1.159, 1.131e-4
-1.160, 1.123e-4
-1.161, 1.135e-4
-1.162, 1.152e-4
-1.163, 1.158e-4
-1.164, 1.157e-4
-1.165, 1.151e-4
-1.166, 1.162e-4
-1.167, 1.180e-4
-1.168, 1.186e-4
-1.169, 1.186e-4
-1.170, 1.182e-4
-1.171, 1.193e-4
-1.172, 1.210e-4
-1.173, 1.218e-4
-1.174, 1.213e-4
-1.175, 1.211e-4
-1.176, 1.221e-4
-1.177, 1.243e-4
-1.178, 1.254e-4
-1.179, 1.246e-4
-1.180, 1.246e-4
-1.181, 1.257e-4
-1.182, 1.275e-4
-1.183, 1.287e-4
-1.184, 1.280e-4
-1.185, 1.278e-4
-1.186, 1.290e-4
-1.187, 1.307e-4
-1.188, 1.319e-4
-1.189, 1.315e-4
-1.190, 1.314e-4
-1.191, 1.332e-4
-1.192, 1.346e-4
-1.193, 1.356e-4
-1.194, 1.355e-4
-1.195, 1.352e-4
-1.196, 1.368e-4
-1.197, 1.383e-4
-1.198, 1.394e-4
-1.199, 1.392e-4
-1.200, 1.391e-4
-1.201, 1.407e-4
-1.202, 1.429e-4
-1.203, 1.437e-4
-1.204, 1.436e-4
-1.205, 1.434e-4
-1.206, 1.448e-4
-1.207, 1.468e-4
-1.208, 1.476e-4
-1.209, 1.476e-4
-1.210, 1.481e-4
-1.211, 1.492e-4
-1.212, 1.516e-4
-1.213, 1.524e-4
-1.214, 1.527e-4
-1.215, 1.527e-4
-1.216, 1.539e-4
-1.217, 1.561e-4
-1.218, 1.571e-4
-1.219, 1.566e-4
-1.220, 1.575e-4
-1.221, 1.589e-4
-1.222, 1.610e-4
-1.223, 1.626e-4
-1.224, 1.623e-4
-1.225, 1.627e-4
-1.226, 1.645e-4
-1.227, 1.662e-4
-1.228, 1.683e-4
-1.229, 1.684e-4
-1.230, 1.681e-4
-1.231, 1.702e-4
-1.232, 1.722e-4
-1.233, 1.733e-4
-1.234, 1.738e-4
-1.235, 1.743e-4
-1.236, 1.765e-4
-1.237, 1.783e-4
-1.238, 1.795e-4
-1.239, 1.801e-4
-1.240, 1.803e-4
-1.241, 1.824e-4
-1.242, 1.851e-4
-1.243, 1.862e-4
-1.244, 1.869e-4
-1.245, 1.875e-4
-1.246, 1.894e-4
-1.247, 1.925e-4
-1.248, 1.938e-4
-1.249, 1.944e-4
-1.250, 1.956e-4
-1.251, 1.976e-4
-1.252, 2.007e-4
-1.253, 2.020e-4
-1.254, 2.027e-4
-1.255, 2.036e-4
-1.256, 2.058e-4
-1.257, 2.087e-4
-1.258, 2.111e-4
-1.259, 2.112e-4
-1.260, 2.128e-4
-1.261, 2.152e-4
-1.262, 2.182e-4
-1.263, 2.206e-4
-1.264, 2.212e-4
-1.265, 2.229e-4
-1.266, 2.257e-4
-1.267, 2.288e-4
-1.268, 2.311e-4
-1.269, 2.319e-4
-1.270, 2.334e-4
-1.271, 2.368e-4
-1.272, 2.399e-4
-1.273, 2.427e-4
-1.274, 2.441e-4
-1.275, 2.460e-4
-1.276, 2.494e-4
-1.277, 2.526e-4
-1.278, 2.551e-4
-1.279, 2.565e-4
-1.280, 2.590e-4
-1.281, 2.623e-4
-1.282, 2.665e-4
-1.283, 2.689e-4
-1.284, 2.710e-4
-1.285, 2.729e-4
-1.286, 2.768e-4
-1.287, 2.815e-4
-1.288, 2.840e-4
-1.289, 2.861e-4
-1.290, 2.887e-4
-1.291, 2.924e-4
-1.292, 2.970e-4
-1.293, 2.996e-4
-1.294, 3.022e-4
-1.295, 3.057e-4
-1.296, 3.095e-4
-1.297, 3.143e-4
-1.298, 3.181e-4
-1.299, 3.206e-4
-1.300, 3.239e-4
-1.301, 3.283e-4
-1.302, 3.329e-4
-1.303, 3.365e-4
-1.304, 3.393e-4
-1.305, 3.432e-4
-1.306, 3.484e-4
-1.307, 3.533e-4
-1.308, 3.581e-4
-1.309, 3.610e-4
-1.310, 3.647e-4
-1.311, 3.702e-4
-1.312, 3.753e-4
-1.313, 3.795e-4
-1.314, 3.827e-4
-1.315, 3.873e-4
-1.316, 3.931e-4
-1.317, 3.990e-4
-1.318, 4.040e-4
-1.319, 4.079e-4
-1.320, 4.122e-4
-1.321, 4.183e-4
-1.322, 4.249e-4
-1.323, 4.304e-4
-1.324, 4.346e-4
-1.325, 4.396e-4
-1.326, 4.459e-4
-1.327, 4.531e-4
-1.328, 4.578e-4
-1.329, 4.622e-4
-1.330, 4.683e-4
-1.331, 4.752e-4
-1.332, 4.828e-4
-1.333, 4.887e-4
-1.334, 4.944e-4
-1.335, 5.004e-4
-1.336, 5.075e-4
-1.337, 5.154e-4
-1.338, 5.214e-4
-1.339, 5.264e-4
-1.340, 5.334e-4
-1.341, 5.416e-4
-1.342, 5.499e-4
-1.343, 5.572e-4
-1.344, 5.634e-4
-1.345, 5.712e-4
-1.346, 5.798e-4
-1.347, 5.877e-4
-1.348, 5.956e-4
-1.349, 6.017e-4
-1.350, 6.088e-4
-1.351, 6.182e-4
-1.352, 6.276e-4
-1.353, 6.361e-4
-1.354, 6.441e-4
-1.355, 6.524e-4
-1.356, 6.624e-4
-1.357, 6.722e-4
-1.358, 6.805e-4
-1.359, 6.887e-4
-1.360, 6.964e-4
-1.361, 7.064e-4
-1.362, 7.176e-4
-1.363, 7.272e-4
-1.364, 7.362e-4
-1.365, 7.456e-4
-1.366, 7.560e-4
-1.367, 7.677e-4
-1.368, 7.772e-4
-1.369, 7.876e-4
-1.370, 7.982e-4
-1.371, 8.094e-4
-1.372, 8.218e-4
-1.373, 8.320e-4
-1.374, 8.421e-4
-1.375, 8.520e-4
-1.376, 8.639e-4
-1.377, 8.772e-4
-1.378, 8.890e-4
-1.379, 8.994e-4
-1.380, 9.120e-4
-1.381, 9.253e-4
-1.382, 9.398e-4
-1.383, 9.514e-4
-1.384, 9.622e-4
-1.385, 9.745e-4
-1.386, 9.870e-4
-1.387, 1.001e-3
-1.388, 1.015e-3
-1.389, 1.027e-3
-1.390, 1.040e-3
-1.391, 1.056e-3
-1.392, 1.071e-3
-1.393, 1.085e-3
-1.394, 1.098e-3
-1.395, 1.111e-3
-1.396, 1.127e-3
-1.397, 1.141e-3
-1.398, 1.155e-3
-1.399, 1.170e-3
-1.400, 1.185e-3
-1.401, 1.202e-3
-1.402, 1.220e-3
-1.403, 1.235e-3
-1.404, 1.250e-3
-1.405, 1.265e-3
-1.406, 1.282e-3
-1.407, 1.299e-3
-1.408, 1.313e-3
-1.409, 1.330e-3
-1.410, 1.347e-3
-1.411, 1.366e-3
-1.412, 1.384e-3
-1.413, 1.402e-3
-1.414, 1.419e-3
-1.415, 1.437e-3
-1.416, 1.456e-3
-1.417, 1.474e-3
-1.418, 1.492e-3
-1.419, 1.507e-3
-1.420, 1.527e-3
-1.421, 1.548e-3
-1.422, 1.568e-3
-1.423, 1.587e-3
-1.424, 1.607e-3
-1.425, 1.628e-3
-1.426, 1.650e-3
-1.427, 1.670e-3
-1.428, 1.690e-3
-1.429, 1.709e-3
-1.430, 1.727e-3
-1.431, 1.749e-3
-1.432, 1.773e-3
-1.433, 1.795e-3
-1.434, 1.816e-3
-1.435, 1.839e-3
-1.436, 1.863e-3
-1.437, 1.887e-3
-1.438, 1.908e-3
-1.439, 1.930e-3
-1.440, 1.952e-3
-1.441, 1.974e-3
-1.442, 1.999e-3
-1.443, 2.023e-3
-1.444, 2.047e-3
-1.445, 2.073e-3
-1.446, 2.100e-3
-1.447, 2.127e-3
-1.448, 2.151e-3
-1.449, 2.174e-3
-1.450, 2.200e-3
-1.451, 2.223e-3
-1.452, 2.249e-3
-1.453, 2.277e-3
-1.454, 2.303e-3
-1.455, 2.330e-3
-1.456, 2.360e-3
-1.457, 2.389e-3
-1.458, 2.419e-3
-1.459, 2.445e-3
-1.460, 2.473e-3
-1.461, 2.502e-3
-1.462, 2.528e-3
-1.463, 2.556e-3
-1.464, 2.585e-3
-1.465, 2.617e-3
-1.466, 2.648e-3
-1.467, 2.679e-3
-1.468, 2.708e-3
-1.469, 2.738e-3
-1.470, 2.771e-3
-1.471, 2.807e-3
-1.472, 2.839e-3
-1.473, 2.871e-3
-1.474, 2.904e-3
-1.475, 2.935e-3
-1.476, 2.966e-3
-1.477, 2.998e-3
-1.478, 3.033e-3
-1.479, 3.067e-3
-1.480, 3.104e-3
-1.481, 3.142e-3
-1.482, 3.179e-3
-1.483, 3.215e-3
-1.484, 3.249e-3
-1.485, 3.286e-3
-1.486, 3.317e-3
-1.487, 3.354e-3
-1.488, 3.391e-3
-1.489, 3.430e-3
-1.490, 3.466e-3
-1.491, 3.507e-3
-1.492, 3.548e-3
-1.493, 3.590e-3
-1.494, 3.628e-3
-1.495, 3.668e-3
-1.496, 3.708e-3
-1.497, 3.745e-3
-1.498, 3.782e-3
-1.499, 3.822e-3
-1.500, 3.786e-3
-1.499, 3.722e-3
-1.498, 3.678e-3
-1.497, 3.633e-3
-1.496, 3.590e-3
-1.495, 3.547e-3
-1.494, 3.504e-3
-1.493, 3.462e-3
-1.492, 3.415e-3
-1.491, 3.376e-3
-1.490, 3.338e-3
-1.489, 3.302e-3
-1.488, 3.263e-3
-1.487, 3.225e-3
-1.486, 3.188e-3
-1.485, 3.155e-3
-1.484, 3.121e-3
-1.483, 3.083e-3
-1.482, 3.046e-3
-1.481, 3.007e-3
-1.480, 2.970e-3
-1.479, 2.936e-3
-1.478, 2.904e-3
-1.477, 2.871e-3
-1.476, 2.838e-3
-1.475, 2.807e-3
-1.474, 2.776e-3
-1.473, 2.744e-3
-1.472, 2.711e-3
-1.471, 2.678e-3
-1.470, 2.642e-3
-1.469, 2.612e-3
-1.468, 2.583e-3
-1.467, 2.554e-3
-1.466, 2.523e-3
-1.465, 2.495e-3
-1.464, 2.468e-3
-1.463, 2.440e-3
-1.462, 2.410e-3
-1.461, 2.380e-3
-1.460, 2.351e-3
-1.459, 2.321e-3
-1.458, 2.293e-3
-1.457, 2.266e-3
-1.456, 2.240e-3
-1.455, 2.213e-3
-1.454, 2.189e-3
-1.453, 2.165e-3
-1.452, 2.138e-3
-1.451, 2.111e-3
-1.450, 2.084e-3
-1.449, 2.059e-3
-1.448, 2.032e-3
-1.447, 2.007e-3
-1.446, 1.982e-3
-1.445, 1.959e-3
-1.444, 1.936e-3
-1.443, 1.914e-3
-1.442, 1.891e-3
-1.441, 1.866e-3
-1.440, 1.843e-3
-1.439, 1.821e-3
-1.438, 1.798e-3
-1.437, 1.772e-3
-1.436, 1.749e-3
-1.435, 1.728e-3
-1.434, 1.708e-3
-1.433, 1.687e-3
-1.432, 1.665e-3
-1.431, 1.643e-3
-1.430, 1.624e-3
-1.429, 1.604e-3
-1.428, 1.584e-3
-1.427, 1.562e-3
-1.426, 1.541e-3
-1.425, 1.519e-3
-1.424, 1.500e-3
-1.423, 1.482e-3
-1.422, 1.462e-3
-1.421, 1.442e-3
-1.420, 1.424e-3
-1.419, 1.407e-3
-1.418, 1.388e-3
-1.417, 1.369e-3
-1.416, 1.349e-3
-1.415, 1.329e-3
-1.414, 1.312e-3
-1.413, 1.296e-3
-1.412, 1.278e-3
-1.411, 1.259e-3
-1.410, 1.243e-3
-1.409, 1.227e-3
-1.408, 1.212e-3
-1.407, 1.193e-3
-1.406, 1.175e-3
-1.405, 1.159e-3
-1.404, 1.142e-3
-1.403, 1.126e-3
-1.402, 1.109e-3
-1.401, 1.093e-3
-1.400, 1.079e-3
-1.399, 1.065e-3
-1.398, 1.050e-3
-1.397, 1.034e-3
-1.396, 1.017e-3
-1.395, 1.002e-3
-1.394, 9.879e-4
-1.393, 9.720e-4
-1.392, 9.575e-4
-1.391, 9.426e-4
-1.390, 9.286e-4
-1.389, 9.167e-4
-1.388, 9.031e-4
-1.387, 8.884e-4
-1.386, 8.734e-4
-1.385, 8.595e-4
-1.384, 8.476e-4
-1.383, 8.329e-4
-1.382, 8.183e-4
-1.381, 8.051e-4
-1.380, 7.928e-4
-1.379, 7.812e-4
-1.378, 7.692e-4
-1.377, 7.559e-4
-1.376, 7.431e-4
-1.375, 7.306e-4
-1.374, 7.190e-4
-1.373, 7.075e-4
-1.372, 6.937e-4
-1.371, 6.803e-4
-1.370, 6.694e-4
-1.369, 6.593e-4
-1.368, 6.486e-4
-1.367, 6.362e-4
-1.366, 6.238e-4
-1.365, 6.136e-4
-1.364, 6.033e-4
-1.363, 5.920e-4
-1.362, 5.805e-4
-1.361, 5.676e-4
-1.360, 5.583e-4
-1.359, 5.489e-4
-1.358, 5.387e-4
-1.357, 5.276e-4
-1.356, 5.166e-4
-1.355, 5.071e-4
-1.354, 4.982e-4
-1.353, 4.881e-4
-1.352, 4.775e-4
-1.351, 4.666e-4
-1.350, 4.566e-4
-1.349, 4.487e-4
-1.348, 4.396e-4
-1.347, 4.295e-4
-1.346, 4.196e-4
-1.345, 4.111e-4
-1.344, 4.034e-4
-1.343, 3.946e-4
-1.342, 3.839e-4
-1.341, 3.749e-4
-1.340, 3.664e-4
-1.339, 3.584e-4
-1.338, 3.506e-4
-1.337, 3.410e-4
-1.336, 3.325e-4
-1.335, 3.249e-4
-1.334, 3.177e-4
-1.333, 3.101e-4
-1.332, 3.008e-4
-1.331, 2.918e-4
-1.330, 2.850e-4
-1.329, 2.777e-4
-1.328, 2.705e-4
-1.327, 2.621e-4
-1.326, 2.537e-4
-1.325, 2.476e-4
-1.324, 2.413e-4
-1.323, 2.342e-4
-1.322, 2.259e-4
-1.321, 2.180e-4
-1.320, 2.120e-4
-1.319, 2.058e-4
-1.318, 1.986e-4
-1.317, 1.914e-4
-1.316, 1.841e-4
-1.315, 1.782e-4
-1.314, 1.730e-4
-1.313, 1.665e-4
-1.312, 1.595e-4
-1.311, 1.522e-4
-1.310, 1.466e-4
-1.309, 1.416e-4
-1.308, 1.358e-4
-1.307, 1.283e-4
-1.306, 1.222e-4
-1.305, 1.169e-4
-1.304, 1.126e-4
-1.303, 1.069e-4
-1.302, 1.001e-4
-1.301, 9.419e-5
-1.300, 8.936e-5
-1.299, 8.483e-5
-1.298, 7.963e-5
-1.297, 7.283e-5
-1.296, 6.747e-5
-1.295, 6.324e-5
-1.294, 5.895e-5
-1.293, 5.431e-5
-1.292, 4.801e-5
-1.291, 4.280e-5
-1.290, 3.877e-5
-1.289, 3.478e-5
-1.288, 3.061e-5
-1.287, 2.459e-5
-1.286, 1.937e-5
-1.285, 1.603e-5
-1.284, 1.252e-5
-1.283, 8.290e-6
-1.282, 2.932e-6
-1.281, -2.227e-6
-1.280, -5.792e-6
-1.279, -8.461e-6
-1.278, -1.281e-5
-1.277, -1.765e-5
-1.276, -2.222e-5
-1.275, -2.533e-5
-1.274, -2.787e-5
-1.273, -3.157e-5
-1.272, -3.596e-5
-1.271, -4.018e-5
-1.270, -4.315e-5
-1.269, -4.526e-5
-1.268, -4.906e-5
-1.267, -5.381e-5
-1.266, -5.720e-5
-1.265, -6.008e-5
-1.264, -6.165e-5
-1.263, -6.498e-5
-1.262, -6.935e-5
-1.261, -7.267e-5
-1.260, -7.488e-5
-1.259, -7.679e-5
-1.258, -7.949e-5
-1.257, -8.400e-5
-1.256, -8.701e-5
-1.255, -8.908e-5
-1.254, -9.069e-5
-1.253, -9.296e-5
-1.252, -9.686e-5
-1.251, -9.974e-5
-1.250, -1.013e-4
-1.249, -1.029e-4
-1.248, -1.049e-4
-1.247, -1.088e-4
-1.246, -1.118e-4
-1.245, -1.127e-4
-1.244, -1.140e-4
-1.243, -1.164e-4
-1.242, -1.194e-4
-1.241, -1.218e-4
-1.240, -1.226e-4
-1.239, -1.235e-4
-1.238, -1.260e-4
-1.237, -1.287e-4
-1.236, -1.310e-4
-1.235, -1.322e-4
-1.234, -1.327e-4
-1.233, -1.349e-4
-1.232, -1.373e-4
-1.231, -1.393e-4
-1.230, -1.397e-4
-1.229, -1.413e-4
-1.228, -1.423e-4
-1.227, -1.451e-4
-1.226, -1.464e-4
-1.225, -1.472e-4
-1.224, -1.471e-4
-1.223, -1.488e-4
-1.222, -1.513e-4
-1.221, -1.524e-4
-1.220, -1.526e-4
-1.219, -1.524e-4
-1.218, -1.538e-4
-1.217, -1.564e-4
-1.216, -1.572e-4
-1.215, -1.572e-4
-1.214, -1.571e-4
-1.213, -1.580e-4
-1.212, -1.601e-4
-1.211, -1.611e-4
-1.210, -1.610e-4
-1.209, -1.610e-4
-1.208, -1.619e-4
-1.207, -1.638e-4
-1.206, -1.646e-4
-1.205, -1.641e-4
-1.204, -1.632e-4
-1.203, -1.643e-4
-1.202, -1.656e-4
-1.201, -1.666e-4
-1.200, -1.658e-4
-1.199, -1.654e-4
-1.198, -1.665e-4
-1.197, -1.676e-4
-1.196, -1.683e-4
-1.195, -1.673e-4
-1.194, -1.662e-4
-1.193, -1.668e-4
-1.192, -1.677e-4
-1.191, -1.685e-4
-1.190, -1.676e-4
-1.189, -1.665e-4
-1.188, -1.673e-4
-1.187, -1.686e-4
-1.186, -1.685e-4
-1.185, -1.679e-4
-1.184, -1.662e-4
-1.183, -1.664e-4
-1.182, -1.677e-4
-1.181, -1.673e-4
-1.180, -1.665e-4
-1.179, -1.656e-4
-1.178, -1.664e-4
-1.177, -1.672e-4
-1.176, -1.670e-4
-1.175, -1.655e-4
-1.174, -1.644e-4
-1.173, -1.643e-4
-1.172, -1.651e-4
-1.171, -1.651e-4
-1.170, -1.636e-4
-1.169, -1.625e-4
-1.168, -1.627e-4
-1.167, -1.633e-4
-1.166, -1.633e-4
-1.165, -1.619e-4
-1.164, -1.605e-4
-1.163, -1.611e-4
-1.162, -1.612e-4
-1.161, -1.613e-4
-1.160, -1.591e-4
-1.159, -1.579e-4
-1.158, -1.585e-4
-1.157, -1.589e-4
-1.156, -1.586e-4
-1.155, -1.573e-4
-1.154, -1.559e-4
-1.153, -1.567e-4
-1.152, -1.571e-4
-1.151, -1.565e-4
-1.150, -1.554e-4
-1.149, -1.533e-4
-1.148, -1.535e-4
-1.147, -1.544e-4
-1.146, -1.538e-4
-1.145, -1.524e-4
-1.144, -1.509e-4
-1.143, -1.511e-4
-1.142, -1.523e-4
-1.141, -1.515e-4
-1.140, -1.502e-4
-1.139, -1.491e-4
-1.138, -1.488e-4
-1.137, -1.495e-4
-1.136, -1.486e-4
-1.135, -1.472e-4
-1.134, -1.463e-4
-1.133, -1.463e-4
-1.132, -1.472e-4
-1.131, -1.469e-4
-1.130, -1.451e-4
-1.129, -1.442e-4
-1.128, -1.442e-4
-1.127, -1.444e-4
-1.126, -1.442e-4
-1.125, -1.424e-4
-1.124, -1.416e-4
-1.123, -1.418e-4
-1.122, -1.424e-4
-1.121, -1.423e-4
-1.120, -1.404e-4
-1.119, -1.397e-4
-1.118, -1.400e-4
-1.117, -1.402e-4
-1.116, -1.397e-4
-1.115, -1.381e-4
-1.114, -1.369e-4
-1.113, -1.379e-4
-1.112, -1.379e-4
-1.111, -1.375e-4
-1.110, -1.363e-4
-1.109, -1.350e-4
-1.108, -1.354e-4
-1.107, -1.362e-4
-1.106, -1.353e-4
-1.105, -1.338e-4
-1.104, -1.322e-4
-1.103, -1.329e-4
-1.102, -1.336e-4
-1.101, -1.326e-4
-1.100, -1.310e-4
-1.099, -1.304e-4
-1.098, -1.302e-4
-1.097, -1.311e-4
-1.096, -1.302e-4
-1.095, -1.286e-4
-1.094, -1.280e-4
-1.093, -1.283e-4
-1.092, -1.287e-4
-1.091, -1.281e-4
-1.090, -1.264e-4
-1.089, -1.253e-4
-1.088, -1.255e-4
-1.087, -1.261e-4
-1.086, -1.257e-4
-1.085, -1.236e-4
-1.084, -1.226e-4
-1.083, -1.235e-4
-1.082, -1.238e-4
-1.081, -1.233e-4
-1.080, -1.214e-4
-1.079, -1.207e-4
-1.078, -1.211e-4
-1.077, -1.213e-4
-1.076, -1.209e-4
-1.075, -1.195e-4
-1.074, -1.184e-4
-1.073, -1.190e-4
-1.072, -1.192e-4
-1.071, -1.189e-4
-1.070, -1.175e-4
-1.069, -1.164e-4
-1.068, -1.174e-4
-1.067, -1.178e-4
-1.066, -1.169e-4
-1.065, -1.156e-4
-1.064, -1.146e-4
-1.063, -1.153e-4
-1.062, -1.161e-4
-1.061, -1.153e-4
-1.060, -1.141e-4
-1.059, -1.136e-4
-1.058, -1.142e-4
-1.057, -1.150e-4
-1.056, -1.141e-4
-1.055, -1.128e-4
-1.054, -1.122e-4
-1.053, -1.127e-4
-1.052, -1.135e-4
-1.051, -1.131e-4
-1.050, -1.117e-4
-1.049, -1.115e-4
-1.048, -1.121e-4
-1.047, -1.129e-4
-1.046, -1.124e-4
-1.045, -1.107e-4
-1.044, -1.104e-4
-1.043, -1.113e-4
-1.042, -1.120e-4
-1.041, -1.116e-4
-1.040, -1.101e-4
-1.039, -1.099e-4
-1.038, -1.109e-4
-1.037, -1.116e-4
-1.036, -1.113e-4
-1.035, -1.099e-4
-1.034, -1.093e-4
-1.033, -1.104e-4
-1.032, -1.108e-4
-1.031, -1.104e-4
-1.030, -1.096e-4
-1.029, -1.089e-4
-1.028, -1.099e-4
-1.027, -1.111e-4
-1.026, -1.103e-4
-1.025, -1.094e-4
-1.024, -1.092e-4
-1.023, -1.100e-4
-1.022, -1.110e-4
-1.021, -1.098e-4
-1.020, -1.089e-4
-1.019, -1.089e-4
-1.018, -1.099e-4
-1.017, -1.109e-4
-1.016, -1.100e-4
-1.015, -1.090e-4
-1.014, -1.092e-4
-1.013, -1.097e-4
-1.012, -1.108e-4
-1.011, -1.102e-4
-1.010, -1.087e-4
-1.009, -1.090e-4
-1.008, -1.099e-4
-1.007, -1.108e-4
-1.006, -1.104e-4
-1.005, -1.092e-4
-1.004, -1.091e-4
-1.003, -1.104e-4
-1.002, -1.110e-4
-1.001, -1.107e-4
-1.000, -4.580e-5
-1.001, 2.292e-6
-1.002, 1.659e-5
-1.003, 2.312e-5
-1.004, 2.837e-5
-1.005, 3.242e-5
-1.006, 3.478e-5
-1.007, 3.611e-5
-1.008, 3.672e-5
-1.009, 3.889e-5
-1.010, 4.174e-5
-1.011, 4.285e-5
-1.012, 4.324e-5
-1.013, 4.326e-5
-1.014, 4.504e-5
-1.015, 4.755e-5
-1.016, 4.804e-5
-1.017, 4.810e-5
-1.018, 4.836e-5
-1.019, 4.973e-5
-1.020, 5.160e-5
-1.021, 5.212e-5
-1.022, 5.175e-5
-1.023, 5.201e-5
-1.024, 5.332e-5
-1.025, 5.489e-5
-1.026, 5.577e-5
-1.027, 5.485e-5
-1.028, 5.509e-5
-1.029, 5.611e-5
-1.030, 5.759e-5
-1.031, 5.835e-5
-1.032, 5.755e-5
-1.033, 5.733e-5
-1.034, 5.854e-5
-1.035, 5.994e-5
-1.036, 6.069e-5
-1.037, 5.987e-5
-1.038, 5.965e-5
-1.039, 6.104e-5
-1.040, 6.213e-5
-1.041, 6.251e-5
-1.042, 6.200e-5
-1.043, 6.137e-5
-1.044, 6.290e-5
-1.045, 6.391e-5
-1.046, 6.430e-5
-1.047, 6.394e-5
-1.048, 6.331e-5
-1.049, 6.474e-5
-1.050, 6.607e-5
-1.051, 6.600e-5
-1.052, 6.561e-5
-1.053, 6.509e-5
-1.054, 6.615e-5
-1.055, 6.767e-5
-1.056, 6.779e-5
-1.057, 6.683e-5
-1.058, 6.683e-5
-1.059, 6.763e-5
-1.060, 6.914e-5
-1.061, 6.941e-5
-1.062, 6.848e-5
-1.063, 6.880e-5
-1.064, 6.910e-5
-1.065, 7.066e-5
-1.066, 7.074e-5
-1.067, 6.964e-5
-1.068, 6.982e-5
-1.069, 7.064e-5
-1.070, 7.211e-5
-1.071, 7.231e-5
-1.072, 7.132e-5
-1.073, 7.137e-5
-1.074, 7.243e-5
-1.075, 7.398e-5
-1.076, 7.410e-5
-1.077, 7.280e-5
-1.078, 7.247e-5
-1.079, 7.390e-5
-1.080, 7.466e-5
-1.081, 7.513e-5
-1.082, 7.445e-5
-1.083, 7.390e-5
-1.084, 7.520e-5
-1.085, 7.639e-5
-1.086, 7.642e-5
-1.087, 7.584e-5
-1.088, 7.534e-5
-1.089, 7.641e-5
-1.090, 7.805e-5
-1.091, 7.785e-5
-1.092, 7.725e-5
-1.093, 7.697e-5
-1.094, 7.814e-5
-1.095, 7.943e-5
-1.096, 7.944e-5
-1.097, 7.848e-5
-1.098, 7.868e-5
-1.099, 7.961e-5
-1.100, 8.103e-5
-1.101, 8.108e-5
-1.102, 8.023e-5
-1.103, 8.009e-5
-1.104, 8.077e-5
-1.105, 8.241e-5
-1.106, 8.280e-5
-1.107, 8.171e-5
-1.108, 8.189e-5
-1.109, 8.264e-5
-1.110, 8.400e-5
-1.111, 8.454e-5
-1.112, 8.322e-5
-1.113, 8.314e-5
-1.114, 8.449e-5
-1.115, 8.569e-5
-1.116, 8.599e-5
-1.117, 8.490e-5
-1.118, 8.502e-5
-1.119, 8.643e-5
-1.120, 8.749e-5
-1.121, 8.760e-5
-1.122, 8.676e-5
-1.123, 8.665e-5
-1.124, 8.823e-5
-1.125, 8.910e-5
-1.126, 8.930e-5
-1.127, 8.884e-5
-1.128, 8.844e-5
-1.129, 8.984e-5
-1.130, 9.133e-5
-1.131, 9.139e-5
-1.132, 9.090e-5
-1.133, 9.041e-5
-1.134, 9.164e-5
-1.135, 9.350e-5
-1.136, 9.311e-5
-1.137, 9.238e-5
-1.138, 9.251e-5
-1.139, 9.394e-5
-1.140, 9.527e-5
-1.141, 9.514e-5
-1.142, 9.455e-5
-1.143, 9.506e-5
-1.144, 9.571e-5
-1.145, 9.728e-5
-1.146, 9.751e-5
-1.147, 9.640e-5
-1.148, 9.674e-5
-1.149, 9.788e-5
-1.150, 9.958e-5
-1.151, 9.978e-5
-1.152, 9.880e-5
-1.153, 9.907e-5
-1.154, 1.006e-4
-1.155, 1.016e-4
-1.156, 1.021e-4
-1.157, 1.009e-4
-1.158, 1.010e-4
-1.159, 1.029e-4
-1.160, 1.039e-4
-1.161, 1.041e-4
-1.162, 1.036e-4
-1.163, 1.036e-4
-1.164, 1.053e-4
-1.165, 1.065e-4
-1.166, 1.066e-4
-1.167, 1.063e-4
-1.168, 1.061e-4
-1.169, 1.075e-4
-1.170, 1.091e-4
-1.171, 1.089e-4
-1.172, 1.084e-4
-1.173, 1.087e-4
-1.174, 1.103e-4
-1.175, 1.119e-4
-1.176, 1.116e-4
-1.177, 1.116e-4
-1.178, 1.120e-4
-1.179, 1.131e-4
-1.180, 1.146e-4
-1.181, 1.144e-4
-1.182, 1.139e-4
-1.183, 1.146e-4
-1.184, 1.160e-4
-1.185, 1.176e-4
-1.186, 1.176e-4
-1.187, 1.168e-4
-1.188, 1.176e-4
-1.189, 1.189e-4
-1.190, 1.203e-4
-1.191, 1.207e-4
-1.192, 1.200e-4
-1.193, 1.205e-4
-1.194, 1.223e-4
-1.195, 1.237e-4
-1.196, 1.241e-4
-1.197, 1.235e-4
-1.198, 1.240e-4
-1.199, 1.261e-4
-1.200, 1.273e-4
-1.201, 1.277e-4
-1.202, 1.275e-4
-1.203, 1.278e-4
-1.204, 1.297e-4
-1.205, 1.310e-4
-1.206, 1.314e-4
-1.207, 1.314e-4
-1.208, 1.317e-4
-1.209, 1.335e-4
-1.210, 1.357e-4
-1.211, 1.358e-4
-1.212, 1.357e-4
-1.213, 1.359e-4
-1.214, 1.379e-4
-1.215, 1.400e-4
-1.216, 1.399e-4
-1.217, 1.400e-4
-1.218, 1.410e-4
-1.219, 1.426e-4
-1.220, 1.450e-4
-1.221, 1.451e-4
-1.222, 1.450e-4
-1.223, 1.462e-4
-1.224, 1.478e-4
-1.225, 1.502e-4
-1.226, 1.507e-4
-1.227, 1.507e-4
-1.228, 1.521e-4
-1.229, 1.547e-4
-1.230, 1.559e-4
-1.231, 1.566e-4
-1.232, 1.563e-4
-1.233, 1.576e-4
-1.234, 1.600e-4
-1.235, 1.621e-4
-1.236, 1.629e-4
-1.237, 1.630e-4
-1.238, 1.642e-4
-1.239, 1.668e-4
-1.240, 1.688e-4
-1.241, 1.692e-4
-1.242, 1.700e-4
-1.243, 1.712e-4
-1.244, 1.738e-4
-1.245, 1.762e-4
-1.246, 1.773e-4
-1.247, 1.781e-4
-1.248, 1.792e-4
-1.249, 1.818e-4
-1.250, 1.842e-4
-1.251, 1.852e-4
-1.252, 1.858e-4
-1.253, 1.875e-4
-1.254, 1.902e-4
-1.255, 1.932e-4
-1.256, 1.940e-4
-1.257, 1.950e-4
-1.258, 1.971e-4
-1.259, 1.996e-4
-1.260, 2.029e-4
-1.261, 2.037e-4
-1.262, 2.047e-4
-1.263, 2.065e-4
-1.264, 2.096e-4
-1.265, 2.126e-4
-1.266, 2.143e-4
-1.267, 2.155e-4
-1.268, 2.178e-4
-1.269, 2.210e-4
-1.270, 2.242e-4
-1.271, 2.260e-4
-1.272, 2.270e-4
-1.273, 2.295e-4
-1.274, 2.328e-4
-1.275, 2.360e-4
-1.276, 2.386e-4
-1.277, 2.396e-4
-1.278, 2.426e-4
-1.279, 2.466e-4
-1.280, 2.507e-4
-1.281, 2.524e-4
-1.282, 2.542e-4
-1.283, 2.566e-4
-1.284, 2.609e-4
-1.285, 2.640e-4
-1.286, 2.666e-4
-1.287, 2.689e-4
-1.288, 2.720e-4
-1.289, 2.762e-4
-1.290, 2.807e-4
-1.291, 2.832e-4
-1.292, 2.858e-4
-1.293, 2.890e-4
-1.294, 2.934e-4
-1.295, 2.980e-4
-1.296, 3.000e-4
-1.297, 3.030e-4
-1.298, 3.070e-4
-1.299, 3.117e-4
-1.300, 3.167e-4
-1.301, 3.202e-4
-1.302, 3.231e-4
-1.303, 3.273e-4
-1.304, 3.322e-4
-1.305, 3.372e-4
-1.306, 3.409e-4
-1.307, 3.435e-4
-1.308, 3.482e-4
-1.309, 3.539e-4
-1.310, 3.593e-4
-1.311, 3.639e-4
-1.312, 3.673e-4
-1.313, 3.720e-4
-1.314, 3.782e-4
-1.315, 3.836e-4
-1.316, 3.881e-4
-1.317, 3.917e-4
-1.318, 3.966e-4
-1.319, 4.036e-4
-1.320, 4.096e-4
-1.321, 4.146e-4
-1.322, 4.190e-4
-1.323, 4.248e-4
-1.324, 4.319e-4
-1.325, 4.382e-4
-1.326, 4.434e-4
-1.327, 4.482e-4
-1.328, 4.537e-4
-1.329, 4.605e-4
-1.330, 4.680e-4
-1.331, 4.739e-4
-1.332, 4.796e-4
-1.333, 4.860e-4
-1.334, 4.940e-4
-1.335, 5.020e-4
-1.336, 5.075e-4
-1.337, 5.134e-4
-1.338, 5.205e-4
-1.339, 5.277e-4
-1.340, 5.360e-4
-1.341, 5.427e-4
-1.342, 5.494e-4
-1.343, 5.574e-4
-1.344, 5.661e-4
-1.345, 5.751e-4
-1.346, 5.822e-4
-1.347, 5.885e-4
-1.348, 5.969e-4
-1.349, 6.059e-4
-1.350, 6.139e-4
-1.351, 6.222e-4
-1.352, 6.296e-4
-1.353, 6.388e-4
-1.354, 6.490e-4
-1.355, 6.588e-4
-1.356, 6.674e-4
-1.357, 6.751e-4
-1.358, 6.842e-4
-1.359, 6.946e-4
-1.360, 7.038e-4
-1.361, 7.122e-4
-1.362, 7.216e-4
-1.363, 7.317e-4
-1.364, 7.431e-4
-1.365, 7.537e-4
-1.366, 7.637e-4
-1.367, 7.735e-4
-1.368, 7.834e-4
-1.369, 7.949e-4
-1.370, 8.062e-4
-1.371, 8.155e-4
-1.372, 8.250e-4
-1.373, 8.364e-4
-1.374, 8.490e-4
-1.375, 8.617e-4
-1.376, 8.715e-4
-1.377, 8.825e-4
-1.378, 8.946e-4
-1.379, 9.078e-4
-1.380, 9.215e-4
-1.381, 9.322e-4
-1.382, 9.438e-4
-1.383, 9.562e-4
-1.384, 9.691e-4
-1.385, 9.813e-4
-1.386, 9.939e-4
-1.387, 1.006e-3
-1.388, 1.020e-3
-1.389, 1.034e-3
-1.390, 1.049e-3
-1.391, 1.062e-3
-1.392, 1.074e-3
-1.393, 1.088e-3
-1.394, 1.103e-3
-1.395, 1.117e-3
-1.396, 1.129e-3
-1.397, 1.143e-3
-1.398, 1.158e-3
-1.399, 1.174e-3
-1.400, 1.190e-3
-1.401, 1.205e-3
-1.402, 1.220e-3
-1.403, 1.235e-3
-1.404, 1.252e-3
-1.405, 1.266e-3
-1.406, 1.281e-3
-1.407, 1.295e-3
-1.408, 1.311e-3
-1.409, 1.330e-3
-1.410, 1.347e-3
-1.411, 1.363e-3
-1.412, 1.380e-3
-1.413, 1.397e-3
-1.414, 1.416e-3
-1.415, 1.433e-3
-1.416, 1.449e-3
-1.417, 1.465e-3
-1.418, 1.481e-3
-1.419, 1.500e-3
-1.420, 1.520e-3
-1.421, 1.539e-3
-1.422, 1.555e-3
-1.423, 1.574e-3
-1.424, 1.593e-3
-1.425, 1.613e-3
-1.426, 1.633e-3
-1.427, 1.652e-3
-1.428, 1.672e-3
-1.429, 1.693e-3
-1.430, 1.714e-3
-1.431, 1.733e-3
-1.432, 1.750e-3
-1.433, 1.770e-3
-1.434, 1.793e-3
-1.435, 1.815e-3
-1.436, 1.836e-3
-1.437, 1.858e-3
-1.438, 1.880e-3
-1.439, 1.903e-3
-1.440, 1.925e-3
-1.441, 1.947e-3
-1.442, 1.965e-3
-1.443, 1.986e-3
-1.444, 2.011e-3
-1.445, 2.036e-3
-1.446, 2.059e-3
-1.447, 2.081e-3
-1.448, 2.105e-3
-1.449, 2.129e-3
-1.450, 2.156e-3
-1.451, 2.180e-3
-1.452, 2.206e-3
-1.453, 2.230e-3
-1.454, 2.257e-3
-1.455, 2.284e-3
-1.456, 2.309e-3
-1.457, 2.332e-3
-1.458, 2.355e-3
-1.459, 2.383e-3
-1.460, 2.412e-3
-1.461, 2.438e-3
-1.462, 2.464e-3
-1.463, 2.491e-3
-1.464, 2.520e-3
-1.465, 2.550e-3
-1.466, 2.579e-3
-1.467, 2.608e-3
-1.468, 2.637e-3
-1.469, 2.668e-3
-1.470, 2.699e-3
-1.471, 2.727e-3
-1.472, 2.753e-3
-1.473, 2.781e-3
-1.474, 2.814e-3
-1.475, 2.847e-3
-1.476, 2.878e-3
-1.477, 2.909e-3
-1.478, 2.943e-3
-1.479, 2.979e-3
-1.480, 3.012e-3
-1.481, 3.044e-3
-1.482, 3.075e-3
-1.483, 3.106e-3
-1.484, 3.137e-3
-1.485, 3.173e-3
-1.486, 3.208e-3
-1.487, 3.242e-3
-1.488, 3.278e-3
-1.489, 3.317e-3
-1.490, 3.356e-3
-1.491, 3.393e-3
-1.492, 3.427e-3
-1.493, 3.463e-3
-1.494, 3.500e-3
-1.495, 3.534e-3
-1.496, 3.570e-3
-1.497, 3.609e-3
-1.498, 3.648e-3
-1.499, 3.689e-3
-1.500, 3.652e-3
-1.499, 3.588e-3
-1.498, 3.542e-3
-1.497, 3.497e-3
-1.496, 3.458e-3
-1.495, 3.416e-3
-1.494, 3.370e-3
-1.493, 3.330e-3
-1.492, 3.294e-3
-1.491, 3.259e-3
-1.490, 3.224e-3
-1.489, 3.189e-3
-1.488, 3.151e-3
-1.487, 3.117e-3
-1.486, 3.080e-3
-1.485, 3.045e-3
-1.484, 3.005e-3
-1.483, 2.968e-3
-1.482, 2.937e-3
-1.481, 2.905e-3
-1.480, 2.873e-3
-1.479, 2.839e-3
-1.478, 2.805e-3
-1.477, 2.773e-3
-1.476, 2.745e-3
-1.475, 2.716e-3
-1.474, 2.685e-3
-1.473, 2.652e-3
-1.472, 2.623e-3
-1.471, 2.593e-3
-1.470, 2.562e-3
-1.469, 2.529e-3
-1.468, 2.500e-3
-1.467, 2.472e-3
-1.466, 2.446e-3
-1.465, 2.421e-3
-1.464, 2.392e-3
-1.463, 2.364e-3
-1.462, 2.335e-3
-1.461, 2.310e-3
-1.460, 2.279e-3
-1.459, 2.251e-3
-1.458, 2.225e-3
-1.457, 2.200e-3
-1.456, 2.176e-3
-1.455, 2.151e-3
-1.454, 2.124e-3
-1.453, 2.098e-3
-1.452, 2.074e-3
-1.451, 2.051e-3
-1.450, 2.029e-3
-1.449, 2.004e-3
-1.448, 1.980e-3
-1.447, 1.956e-3
-1.446, 1.933e-3
-1.445, 1.909e-3
-1.444, 1.883e-3
-1.443, 1.860e-3
-1.442, 1.839e-3
-1.441, 1.817e-3
-1.440, 1.797e-3
-1.439, 1.775e-3
-1.438, 1.754e-3
-1.437, 1.732e-3
-1.436, 1.711e-3
-1.435, 1.690e-3
-1.434, 1.666e-3
-1.433, 1.643e-3
-1.432, 1.624e-3
-1.431, 1.605e-3
-1.430, 1.586e-3
-1.429, 1.566e-3
-1.428, 1.547e-3
-1.427, 1.528e-3
-1.426, 1.509e-3
-1.425, 1.489e-3
-1.424, 1.470e-3
-1.423, 1.448e-3
-1.422, 1.429e-3
-1.421, 1.412e-3
-1.420, 1.395e-3
-1.419, 1.377e-3
-1.418, 1.359e-3
-1.417, 1.341e-3
-1.416, 1.325e-3
-1.415, 1.308e-3
-1.414, 1.289e-3
-1.413, 1.272e-3
-1.412, 1.253e-3
-1.411, 1.236e-3
-1.410, 1.222e-3
-1.409, 1.205e-3
-1.408, 1.188e-3
-1.407, 1.170e-3
-1.406, 1.154e-3
-1.405, 1.140e-3
-1.404, 1.124e-3
-1.403, 1.107e-3
-1.402, 1.092e-3
-1.401, 1.078e-3
-1.400, 1.064e-3
-1.399, 1.048e-3
-1.398, 1.032e-3
-1.397, 1.017e-3
-1.396, 1.001e-3
-1.395, 9.881e-4
-1.394, 9.739e-4
-1.393, 9.584e-4
-1.392, 9.448e-4
-1.391, 9.324e-4
-1.390, 9.193e-4
-1.389, 9.052e-4
-1.388, 8.899e-4
-1.387, 8.763e-4
-1.386, 8.630e-4
-1.385, 8.496e-4
-1.384, 8.370e-4
-1.383, 8.228e-4
-1.382, 8.097e-4
-1.381, 7.990e-4
-1.380, 7.873e-4
-1.379, 7.744e-4
-1.378, 7.606e-4
-1.377, 7.478e-4
-1.376, 7.370e-4
-1.375, 7.248e-4
-1.374, 7.117e-4
-1.373, 6.996e-4
-1.372, 6.882e-4
-1.371, 6.776e-4
-1.370, 6.678e-4
-1.369, 6.555e-4
-1.368, 6.433e-4
-1.367, 6.317e-4
-1.366, 6.213e-4
-1.365, 6.114e-4
-1.364, 5.989e-4
-1.363, 5.875e-4
-1.362, 5.773e-4
-1.361, 5.674e-4
-1.360, 5.590e-4
-1.359, 5.478e-4
-1.358, 5.365e-4
-1.357, 5.263e-4
-1.356, 5.167e-4
-1.355, 5.078e-4
-1.354, 4.969e-4
-1.353, 4.856e-4
-1.352, 4.768e-4
-1.351, 4.682e-4
-1.350, 4.597e-4
-1.349, 4.503e-4
-1.348, 4.400e-4
-1.347, 4.306e-4
-1.346, 4.227e-4
-1.345, 4.143e-4
-1.344, 4.051e-4
-1.343, 3.946e-4
-1.342, 3.856e-4
-1.341, 3.786e-4
-1.340, 3.712e-4
-1.339, 3.621e-4
-1.338, 3.532e-4
-1.337, 3.444e-4
-1.336, 3.375e-4
-1.335, 3.303e-4
-1.334, 3.216e-4
-1.333, 3.124e-4
-1.332, 3.043e-4
-1.331, 2.975e-4
-1.330, 2.915e-4
-1.329, 2.830e-4
-1.328, 2.750e-4
-1.327, 2.676e-4
-1.326, 2.612e-4
-1.325, 2.549e-4
-1.324, 2.470e-4
-1.323, 2.388e-4
-1.322, 2.317e-4
-1.321, 2.255e-4
-1.320, 2.202e-4
-1.319, 2.130e-4
-1.318, 2.048e-4
-1.317, 1.987e-4
-1.316, 1.930e-4
-1.315, 1.875e-4
-1.314, 1.809e-4
-1.313, 1.731e-4
-1.312, 1.674e-4
-1.311, 1.621e-4
-1.310, 1.569e-4
-1.309, 1.504e-4
-1.308, 1.434e-4
-1.307, 1.373e-4
-1.306, 1.327e-4
-1.305, 1.278e-4
-1.304, 1.221e-4
-1.303, 1.155e-4
-1.302, 1.098e-4
-1.301, 1.057e-4
-1.300, 1.014e-4
-1.299, 9.539e-5
-1.298, 8.929e-5
-1.297, 8.385e-5
-1.296, 8.005e-5
-1.295, 7.598e-5
-1.294, 7.028e-5
-1.293, 6.488e-5
-1.292, 5.991e-5
-1.291, 5.591e-5
-1.290, 5.257e-5
-1.289, 4.722e-5
-1.288, 4.202e-5
-1.287, 3.723e-5
-1.286, 3.362e-5
-1.285, 3.063e-5
-1.284, 2.597e-5
-1.283, 2.036e-5
-1.282, 1.669e-5
-1.281, 1.320e-5
-1.280, 9.743e-6
-1.279, 5.750e-6
-1.278, 6.075e-7
-1.277, -3.006e-6
-1.276, -5.960e-6
-1.275, -8.418e-6
-1.274, -1.250e-5
-1.273, -1.765e-5
-1.272, -2.088e-5
-1.271, -2.353e-5
-1.270, -2.595e-5
-1.269, -2.942e-5
-1.268, -3.410e-5
-1.267, -3.749e-5
-1.266, -3.941e-5
-1.265, -4.167e-5
-1.264, -4.499e-5
-1.263, -4.933e-5
-1.262, -5.274e-5
-1.261, -5.413e-5
-1.260, -5.615e-5
-1.259, -5.929e-5
-1.258, -6.301e-5
-1.257, -6.623e-5
-1.256, -6.731e-5
-1.255, -6.921e-5
-1.254, -7.231e-5
-1.253, -7.551e-5
-1.252, -7.843e-5
-1.251, -7.967e-5
-1.250, -8.093e-5
-1.249, -8.388e-5
-1.248, -8.697e-5
-1.247, -8.950e-5
-1.246, -9.096e-5
-1.245, -9.168e-5
-1.244, -9.419e-5
-1.243, -9.741e-5
-1.242, -9.931e-5
-1.241, -1.006e-4
-1.240, -1.012e-4
-1.239, -1.036e-4
-1.238, -1.068e-4
-1.237, -1.085e-4
-1.236, -1.091e-4
-1.235, -1.101e-4
-1.234, -1.116e-4
-1.233, -1.147e-4
-1.232, -1.160e-4
-1.231, -1.168e-4
-1.230, -1.174e-4
-1.229, -1.203e-4
-1.228, -1.222e-4
-1.227, -1.239e-4
-1.226, -1.240e-4
-1.225, -1.242e-4
-1.224, -1.253e-4
-1.223, -1.278e-4
-1.222, -1.292e-4
-1.221, -1.294e-4
-1.220, -1.294e-4
-1.219, -1.306e-4
-1.218, -1.328e-4
-1.217, -1.346e-4
-1.216, -1.342e-4
-1.215, -1.342e-4
-1.214, -1.354e-4
-1.213, -1.371e-4
-1.212, -1.379e-4
-1.211, -1.379e-4
-1.210, -1.373e-4
-1.209, -1.388e-4
-1.208, -1.400e-4
-1.207, -1.413e-4
-1.206, -1.411e-4
-1.205, -1.406e-4
-1.204, -1.415e-4
-1.203, -1.432e-4
-1.202, -1.436e-4
-1.201, -1.431e-4
-1.200, -1.421e-4
-1.199, -1.431e-4
-1.198, -1.449e-4
-1.197, -1.450e-4
-1.196, -1.448e-4
-1.195, -1.439e-4
-1.194, -1.445e-4
-1.193, -1.462e-4
-1.192, -1.463e-4
-1.191, -1.455e-4
-1.190, -1.447e-4
-1.189, -1.447e-4
-1.188, -1.464e-4
-1.187, -1.468e-4
-1.186, -1.458e-4
-1.185, -1.451e-4
-1.184, -1.453e-4
-1.183, -1.467e-4
-1.182, -1.472e-4
-1.181, -1.457e-4
-1.180, -1.447e-4
-1.179, -1.446e-4
-1.178, -1.461e-4
-1.177, -1.466e-4
-1.176, -1.453e-4
-1.175, -1.439e-4
-1.174, -1.446e-4
-1.173, -1.449e-4
-1.172, -1.456e-4
-1.171, -1.445e-4
-1.170, -1.430e-4
-1.169, -1.433e-4
-1.168, -1.436e-4
-1.167, -1.437e-4
-1.166, -1.429e-4
-1.165, -1.414e-4
-1.164, -1.414e-4
-1.163, -1.424e-4
-1.162, -1.420e-4
-1.161, -1.414e-4
-1.160, -1.397e-4
-1.159, -1.398e-4
-1.158, -1.407e-4
-1.157, -1.406e-4
-1.156, -1.394e-4
-1.155, -1.380e-4
-1.154, -1.374e-4
-1.153, -1.388e-4
-1.152, -1.384e-4
-1.151, -1.374e-4
-1.150, -1.362e-4
-1.149, -1.356e-4
-1.148, -1.367e-4
-1.147, -1.369e-4
-1.146, -1.352e-4
-1.145, -1.341e-4
-1.144, -1.335e-4
-1.143, -1.342e-4
-1.142, -1.343e-4
-1.141, -1.330e-4
-1.140, -1.319e-4
-1.139, -1.318e-4
-1.138, -1.324e-4
-1.137, -1.328e-4
-1.136, -1.313e-4
-1.135, -1.299e-4
-1.134, -1.296e-4
-1.133, -1.303e-4
-1.132, -1.301e-4
-1.131, -1.292e-4
-1.130, -1.277e-4
-1.129, -1.278e-4
-1.128, -1.283e-4
-1.127, -1.285e-4
-1.126, -1.278e-4
-1.125, -1.259e-4
-1.124, -1.259e-4
-1.123, -1.265e-4
-1.122, -1.265e-4
-1.121, -1.257e-4
-1.120, -1.239e-4
-1.119, -1.238e-4
-1.118, -1.251e-4
-1.117, -1.247e-4
-1.116, -1.241e-4
-1.115, -1.227e-4
-1.114, -1.224e-4
-1.113, -1.234e-4
-1.112, -1.229e-4
-1.111, -1.219e-4
-1.110, -1.209e-4
-1.109, -1.204e-4
-1.108, -1.214e-4
-1.107, -1.218e-4
-1.106, -1.206e-4
-1.105, -1.196e-4
-1.104, -1.190e-4
-1.103, -1.198e-4
-1.102, -1.203e-4
-1.101, -1.187e-4
-1.100, -1.178e-4
-1.099, -1.176e-4
-1.098, -1.181e-4
-1.097, -1.186e-4
-1.096, -1.173e-4
-1.095, -1.160e-4
-1.094, -1.159e-4
-1.093, -1.166e-4
-1.092, -1.168e-4
-1.091, -1.160e-4
-1.090, -1.146e-4
-1.089, -1.148e-4
-1.088, -1.156e-4
-1.087, -1.160e-4
-1.086, -1.148e-4
-1.085, -1.133e-4
-1.084, -1.130e-4
-1.083, -1.141e-4
-1.082, -1.142e-4
-1.081, -1.135e-4
-1.080, -1.119e-4
-1.079, -1.119e-4
-1.078, -1.132e-4
-1.077, -1.130e-4
-1.076, -1.126e-4
-1.075, -1.112e-4
-1.074, -1.107e-4
-1.073, -1.118e-4
-1.072, -1.116e-4
-1.071, -1.109e-4
-1.070, -1.101e-4
-1.069, -1.096e-4
-1.068, -1.108e-4
-1.067, -1.113e-4
-1.066, -1.100e-4
-1.065, -1.089e-4
-1.064, -1.086e-4
-1.063, -1.097e-4
-1.062, -1.103e-4
-1.061, -1.093e-4
-1.060, -1.082e-4
-1.059, -1.080e-4
-1.058, -1.090e-4
-1.057, -1.098e-4
-1.056, -1.089e-4
-1.055, -1.076e-4
-1.054, -1.076e-4
-1.053, -1.083e-4
-1.052, -1.089e-4
-1.051, -1.083e-4
-1.050, -1.069e-4
-1.049, -1.074e-4
-1.048, -1.081e-4
-1.047, -1.087e-4
-1.046, -1.082e-4
-1.045, -1.067e-4
-1.044, -1.069e-4
-1.043, -1.080e-4
-1.042, -1.083e-4
-1.041, -1.078e-4
-1.040, -1.065e-4
-1.039, -1.065e-4
-1.038, -1.079e-4
-1.037, -1.084e-4
-1.036, -1.079e-4
-1.035, -1.068e-4
-1.034, -1.068e-4
-1.033, -1.080e-4
-1.032, -1.083e-4
-1.031, -1.075e-4
-1.030, -1.068e-4
-1.029, -1.065e-4
-1.028, -1.078e-4
-1.027, -1.086e-4
-1.026, -1.079e-4
-1.025, -1.073e-4
-1.024, -1.073e-4
-1.023, -1.083e-4
-1.022, -1.092e-4
-1.021, -1.081e-4
-1.020, -1.073e-4
-1.019, -1.072e-4
-1.018, -1.081e-4
-1.017, -1.094e-4
-1.016, -1.084e-4
-1.015, -1.074e-4
-1.014, -1.080e-4
-1.013, -1.088e-4
-1.012, -1.098e-4
-1.011, -1.093e-4
-1.010, -1.079e-4
-1.009, -1.083e-4
-1.008, -1.088e-4
-1.007, -1.098e-4
-1.006, -1.099e-4
-1.005, -1.085e-4
-1.004, -1.085e-4
-1.003, -1.100e-4
-1.002, -1.105e-4
-1.001, -1.107e-4
-1.000, -4.473e-5
-1.001, 3.907e-6
-1.002, 1.821e-5
-1.003, 2.445e-5
-1.004, 2.976e-5
-1.005, 3.358e-5
-1.006, 3.583e-5
-1.007, 3.716e-5
-1.008, 3.750e-5
-1.009, 3.980e-5
-1.010, 4.227e-5
-1.011, 4.357e-5
-1.012, 4.399e-5
-1.013, 4.407e-5
-1.014, 4.564e-5
-1.015, 4.810e-5
-1.016, 4.873e-5
-1.017, 4.861e-5
-1.018, 4.877e-5
-1.019, 5.000e-5
-1.020, 5.217e-5
-1.021, 5.275e-5
-1.022, 5.262e-5
-1.023, 5.252e-5
-1.024, 5.387e-5
-1.025, 5.538e-5
-1.026, 5.616e-5
-1.027, 5.542e-5
-1.028, 5.510e-5
-1.029, 5.622e-5
-1.030, 5.791e-5
-1.031, 5.878e-5
-1.032, 5.797e-5
-1.033, 5.760e-5
-1.034, 5.882e-5
-1.035, 6.034e-5
-1.036, 6.101e-5
-1.037, 6.017e-5
-1.038, 5.974e-5
-1.039, 6.093e-5
-1.040, 6.196e-5
-1.041, 6.268e-5
-1.042, 6.209e-5
-1.043, 6.188e-5
-1.044, 6.283e-5
-1.045, 6.395e-5
-1.046, 6.463e-5
-1.047, 6.417e-5
-1.048, 6.316e-5
-1.049, 6.445e-5
-1.050, 6.568e-5
-1.051, 6.624e-5
-1.052, 6.569e-5
-1.053, 6.491e-5
-1.054, 6.583e-5
-1.055, 6.754e-5
-1.056, 6.779e-5
-1.057, 6.709e-5
-1.058, 6.664e-5
-1.059, 6.728e-5
-1.060, 6.895e-5
-1.061, 6.919e-5
-1.062, 6.837e-5
-1.063, 6.814e-5
-1.064, 6.861e-5
-1.065, 7.017e-5
-1.066, 7.054e-5
-1.067, 6.988e-5
-1.068, 6.952e-5
-1.069, 7.000e-5
-1.070, 7.132e-5
-1.071, 7.227e-5
-1.072, 7.112e-5
-1.073, 7.054e-5
-1.074, 7.142e-5
-1.075, 7.305e-5
-1.076, 7.364e-5
-1.077, 7.263e-5
-1.078, 7.207e-5
-1.079, 7.287e-5
-1.080, 7.382e-5
-1.081, 7.462e-5
-1.082, 7.391e-5
-1.083, 7.320e-5
-1.084, 7.391e-5
-1.085, 7.508e-5
-1.086, 7.597e-5
-1.087, 7.546e-5
-1.088, 7.434e-5
-1.089, 7.529e-5
-1.090, 7.658e-5
-1.091, 7.706e-5
-1.092, 7.669e-5
-1.093, 7.578e-5
-1.094, 7.631e-5
-1.095, 7.834e-5
-1.096, 7.831e-5
-1.097, 7.787e-5
-1.098, 7.708e-5
-1.099, 7.759e-5
-1.100, 7.935e-5
-1.101, 7.992e-5
-1.102, 7.917e-5
-1.103, 7.876e-5
-1.104, 7.908e-5
-1.105, 8.044e-5
-1.106, 8.129e-5
-1.107, 8.040e-5
-1.108, 7.991e-5
-1.109, 8.037e-5
-1.110, 8.165e-5
-1.111, 8.298e-5
-1.112, 8.171e-5
-1.113, 8.137e-5
-1.114, 8.224e-5
-1.115, 8.338e-5
-1.116, 8.424e-5
-1.117, 8.311e-5
-1.118, 8.260e-5
-1.119, 8.350e-5
-1.120, 8.463e-5
-1.121, 8.533e-5
-1.122, 8.482e-5
-1.123, 8.410e-5
-1.124, 8.519e-5
-1.125, 8.633e-5
-1.126, 8.706e-5
-1.127, 8.652e-5
-1.128, 8.564e-5
-1.129, 8.632e-5
-1.130, 8.758e-5
-1.131, 8.840e-5
-1.132, 8.790e-5
-1.133, 8.718e-5
-1.134, 8.786e-5
-1.135, 8.970e-5
-1.136, 8.992e-5
-1.137, 8.949e-5
-1.138, 8.895e-5
-1.139, 8.948e-5
-1.140, 9.132e-5
-1.141, 9.172e-5
-1.142, 9.132e-5
-1.143, 9.086e-5
-1.144, 9.117e-5
-1.145, 9.252e-5
-1.146, 9.353e-5
-1.147, 9.293e-5
-1.148, 9.254e-5
-1.149, 9.279e-5
-1.150, 9.453e-5
-1.151, 9.556e-5
-1.152, 9.483e-5
-1.153, 9.429e-5
-1.154, 9.491e-5
-1.155, 9.614e-5
-1.156, 9.725e-5
-1.157, 9.649e-5
-1.158, 9.616e-5
-1.159, 9.691e-5
-1.160, 9.826e-5
-1.161, 9.916e-5
-1.162, 9.890e-5
-1.163, 9.789e-5
-1.164, 9.915e-5
-1.165, 1.003e-4
-1.166, 1.009e-4
-1.167, 1.008e-4
-1.168, 1.000e-4
-1.169, 1.007e-4
-1.170, 1.025e-4
-1.171, 1.033e-4
-1.172, 1.033e-4
-1.173, 1.027e-4
-1.174, 1.030e-4
-1.175, 1.049e-4
-1.176, 1.057e-4
-1.177, 1.056e-4
-1.178, 1.052e-4
-1.179, 1.054e-4
-1.180, 1.073e-4
-1.181, 1.082e-4
-1.182, 1.080e-4
-1.183, 1.077e-4
-1.184, 1.080e-4
-1.185, 1.098e-4
-1.186, 1.110e-4
-1.187, 1.104e-4
-1.188, 1.102e-4
-1.189, 1.106e-4
-1.190, 1.123e-4
-1.191, 1.139e-4
-1.192, 1.134e-4
-1.193, 1.135e-4
-1.194, 1.141e-4
-1.195, 1.156e-4
-1.196, 1.170e-4
-1.197, 1.166e-4
-1.198, 1.164e-4
-1.199, 1.172e-4
-1.200, 1.187e-4
-1.201, 1.202e-4
-1.202, 1.202e-4
-1.203, 1.199e-4
-1.204, 1.212e-4
-1.205, 1.226e-4
-1.206, 1.240e-4
-1.207, 1.243e-4
-1.208, 1.235e-4
-1.209, 1.244e-4
-1.210, 1.266e-4
-1.211, 1.275e-4
-1.212, 1.281e-4
-1.213, 1.277e-4
-1.214, 1.288e-4
-1.215, 1.311e-4
-1.216, 1.320e-4
-1.217, 1.325e-4
-1.218, 1.324e-4
-1.219, 1.333e-4
-1.220, 1.357e-4
-1.221, 1.371e-4
-1.222, 1.374e-4
-1.223, 1.375e-4
-1.224, 1.384e-4
-1.225, 1.403e-4
-1.226, 1.422e-4
-1.227, 1.423e-4
-1.228, 1.433e-4
-1.229, 1.450e-4
-1.230, 1.464e-4
-1.231, 1.486e-4
-1.232, 1.483e-4
-1.233, 1.486e-4
-1.234, 1.501e-4
-1.235, 1.519e-4
-1.236, 1.541e-4
-1.237, 1.545e-4
-1.238, 1.548e-4
-1.239, 1.566e-4
-1.240, 1.586e-4
-1.241, 1.608e-4
-1.242, 1.619e-4
-1.243, 1.621e-4
-1.244, 1.635e-4
-1.245, 1.659e-4
-1.246, 1.680e-4
-1.247, 1.691e-4
-1.248, 1.694e-4
-1.249, 1.711e-4
-1.250, 1.740e-4
-1.251, 1.763e-4
-1.252, 1.775e-4
-1.253, 1.782e-4
-1.254, 1.799e-4
-1.255, 1.829e-4
-1.256, 1.848e-4
-1.257, 1.861e-4
-1.258, 1.870e-4
-1.259, 1.885e-4
-1.260, 1.921e-4
-1.261, 1.946e-4
-1.262, 1.959e-4
-1.263, 1.972e-4
-1.264, 1.990e-4
-1.265, 2.022e-4
-1.266, 2.053e-4
-1.267, 2.067e-4
-1.268, 2.079e-4
-1.269, 2.098e-4
-1.270, 2.130e-4
-1.271, 2.165e-4
-1.272, 2.181e-4
-1.273, 2.196e-4
-1.274, 2.222e-4
-1.275, 2.255e-4
-1.276, 2.291e-4
-1.277, 2.310e-4
-1.278, 2.327e-4
-1.279, 2.357e-4
-1.280, 2.397e-4
-1.281, 2.431e-4
-1.282, 2.455e-4
-1.283, 2.470e-4
-1.284, 2.500e-4
-1.285, 2.534e-4
-1.286, 2.575e-4
-1.287, 2.604e-4
-1.288, 2.622e-4
-1.289, 2.653e-4
-1.290, 2.699e-4
-1.291, 2.739e-4
-1.292, 2.771e-4
-1.293, 2.792e-4
-1.294, 2.828e-4
-1.295, 2.875e-4
-1.296, 2.917e-4
-1.297, 2.948e-4
-1.298, 2.974e-4
-1.299, 3.010e-4
-1.300, 3.060e-4
-1.301, 3.107e-4
-1.302, 3.143e-4
-1.303, 3.178e-4
-1.304, 3.218e-4
-1.305, 3.269e-4
-1.306, 3.325e-4
-1.307, 3.357e-4
-1.308, 3.390e-4
-1.309, 3.429e-4
-1.310, 3.489e-4
-1.311, 3.551e-4
-1.312, 3.587e-4
-1.313, 3.628e-4
-1.314, 3.678e-4
-1.315, 3.737e-4
-1.316, 3.798e-4
-1.317, 3.841e-4
-1.318, 3.882e-4
-1.319, 3.932e-4
-1.320, 3.990e-4
-1.321, 4.058e-4
-1.322, 4.111e-4
-1.323, 4.155e-4
-1.324, 4.218e-4
-1.325, 4.282e-4
-1.326, 4.354e-4
-1.327, 4.408e-4
-1.328, 4.452e-4
-1.329, 4.513e-4
-1.330, 4.579e-4
-1.331, 4.654e-4
-1.332, 4.715e-4
-1.333, 4.773e-4
-1.334, 4.835e-4
-1.335, 4.915e-4
-1.336, 4.994e-4
-1.337, 5.063e-4
-1.338, 5.120e-4
-1.339, 5.185e-4
-1.340, 5.271e-4
-1.341, 5.346e-4
-1.342, 5.414e-4
-1.343, 5.481e-4
-1.344, 5.556e-4
-1.345, 5.646e-4
-1.346, 5.736e-4
-1.347, 5.807e-4
-1.348, 5.885e-4
-1.349, 5.963e-4
-1.350, 6.051e-4
-1.351, 6.149e-4
-1.352, 6.221e-4
-1.353, 6.295e-4
-1.354, 6.374e-4
-1.355, 6.476e-4
-1.356, 6.580e-4
-1.357, 6.670e-4
-1.358, 6.747e-4
-1.359, 6.847e-4
-1.360, 6.941e-4
-1.361, 7.047e-4
-1.362, 7.143e-4
-1.363, 7.217e-4
-1.364, 7.311e-4
-1.365, 7.418e-4
-1.366, 7.536e-4
-1.367, 7.636e-4
-1.368, 7.725e-4
-1.369, 7.827e-4
-1.370, 7.946e-4
-1.371, 8.067e-4
-1.372, 8.174e-4
-1.373, 8.269e-4
-1.374, 8.371e-4
-1.375, 8.495e-4
-1.376, 8.608e-4
-1.377, 8.716e-4
-1.378, 8.827e-4
-1.379, 8.941e-4
-1.380, 9.072e-4
-1.381, 9.206e-4
-1.382, 9.329e-4
-1.383, 9.442e-4
-1.384, 9.553e-4
-1.385, 9.688e-4
-1.386, 9.821e-4
-1.387, 9.932e-4
-1.388, 1.005e-3
-1.389, 1.018e-3
-1.390, 1.033e-3
-1.391, 1.048e-3
-1.392, 1.061e-3
-1.393, 1.074e-3
-1.394, 1.087e-3
-1.395, 1.101e-3
-1.396, 1.116e-3
-1.397, 1.129e-3
-1.398, 1.141e-3
-1.399, 1.156e-3
-1.400, 1.172e-3
-1.401, 1.188e-3
-1.402, 1.203e-3
-1.403, 1.217e-3
-1.404, 1.233e-3
-1.405, 1.248e-3
-1.406, 1.264e-3
-1.407, 1.280e-3
-1.408, 1.292e-3
-1.409, 1.307e-3
-1.410, 1.325e-3
-1.411, 1.342e-3
-1.412, 1.360e-3
-1.413, 1.375e-3
-1.414, 1.392e-3
-1.415, 1.410e-3
-1.416, 1.428e-3
-1.417, 1.444e-3
-1.418, 1.461e-3
-1.419, 1.475e-3
-1.420, 1.494e-3
-1.421, 1.513e-3
-1.422, 1.532e-3
-1.423, 1.549e-3
-1.424, 1.568e-3
-1.425, 1.588e-3
-1.426, 1.608e-3
-1.427, 1.626e-3
-1.428, 1.644e-3
-1.429, 1.662e-3
-1.430, 1.680e-3
-1.431, 1.701e-3
-1.432, 1.721e-3
-1.433, 1.741e-3
-1.434, 1.762e-3
-1.435, 1.784e-3
-1.436, 1.806e-3
-1.437, 1.827e-3
-1.438, 1.845e-3
-1.439, 1.866e-3
-1.440, 1.886e-3
-1.441, 1.907e-3
-1.442, 1.930e-3
-1.443, 1.951e-3
-1.444, 1.974e-3
-1.445, 1.998e-3
-1.446, 2.023e-3
-1.447, 2.046e-3
-1.448, 2.067e-3
-1.449, 2.089e-3
-1.450, 2.113e-3
-1.451, 2.135e-3
-1.452, 2.158e-3
-1.453, 2.182e-3
-1.454, 2.207e-3
-1.455, 2.232e-3
-1.456, 2.258e-3
-1.457, 2.282e-3
-1.458, 2.307e-3
-1.459, 2.332e-3
-1.460, 2.360e-3
-1.461, 2.389e-3
-1.462, 2.415e-3
-1.463, 2.442e-3
-1.464, 2.467e-3
-1.465, 2.495e-3
-1.466, 2.521e-3
-1.467, 2.545e-3
-1.468, 2.574e-3
-1.469, 2.602e-3
-1.470, 2.632e-3
-1.471, 2.663e-3
-1.472, 2.693e-3
-1.473, 2.723e-3
-1.474, 2.752e-3
-1.475, 2.781e-3
-1.476, 2.812e-3
-1.477, 2.838e-3
-1.478, 2.866e-3
-1.479, 2.898e-3
-1.480, 2.931e-3
-1.481, 2.963e-3
-1.482, 2.996e-3
-1.483, 3.029e-3
-1.484, 3.065e-3
-1.485, 3.097e-3
-1.486, 3.131e-3
-1.487, 3.164e-3
-1.488, 3.193e-3
-1.489, 3.224e-3
-1.490, 3.258e-3
-1.491, 3.296e-3
-1.492, 3.333e-3
-1.493, 3.369e-3
-1.494, 3.406e-3
-1.495, 3.444e-3
-1.496, 3.482e-3
-1.497, 3.517e-3
-1.498, 3.553e-3
-1.499, 3.585e-3
-1.500, 3.541e-3
-1.499, 3.479e-3
-1.498, 3.436e-3
-1.497, 3.393e-3
-1.496, 3.352e-3
-1.495, 3.312e-3
-1.494, 3.275e-3
-1.493, 3.239e-3
-1.492, 3.203e-3
-1.491, 3.166e-3
-1.490, 3.130e-3
-1.489, 3.095e-3
-1.488, 3.060e-3
-1.487, 3.020e-3
-1.486, 2.983e-3
-1.485, 2.951e-3
-1.484, 2.918e-3
-1.483, 2.888e-3
-1.482, 2.856e-3
-1.481, 2.823e-3
-1.480, 2.792e-3
-1.479, 2.760e-3
-1.478, 2.729e-3
-1.477, 2.692e-3
-1.476, 2.659e-3
-1.475, 2.631e-3
-1.474, 2.604e-3
-1.473, 2.574e-3
-1.472, 2.545e-3
-1.471, 2.517e-3
-1.470, 2.489e-3
-1.469, 2.463e-3
-1.468, 2.432e-3
-1.467, 2.403e-3
-1.466, 2.371e-3
-1.465, 2.344e-3
-1.464, 2.319e-3
-1.463, 2.294e-3
-1.462, 2.266e-3
-1.461, 2.242e-3
-1.460, 2.217e-3
-1.459, 2.192e-3
-1.458, 2.166e-3
-1.457, 2.139e-3
-1.456, 2.112e-3
-1.455, 2.085e-3
-1.454, 2.062e-3
-1.453, 2.040e-3
-1.452, 2.014e-3
-1.451, 1.991e-3
-1.450, 1.967e-3
-1.449, 1.944e-3
-1.448, 1.922e-3
-1.447, 1.898e-3
-1.446, 1.876e-3
-1.445, 1.855e-3
-1.444, 1.834e-3
-1.443, 1.812e-3
-1.442, 1.790e-3
-1.441, 1.767e-3
-1.440, 1.744e-3
-1.439, 1.723e-3
-1.438, 1.703e-3
-1.437, 1.683e-3
-1.436, 1.662e-3
-1.435, 1.643e-3
-1.434, 1.623e-3
-1.433, 1.603e-3
-1.432, 1.582e-3
-1.431, 1.559e-3
-1.430, 1.540e-3
-1.429, 1.523e-3
-1.428, 1.505e-3
-1.427, 1.484e-3
-1.426, 1.465e-3
-1.425, 1.447e-3
-1.424, 1.430e-3
-1.423, 1.413e-3
-1.422, 1.394e-3
-1.421, 1.375e-3
-1.420, 1.358e-3
-1.419, 1.341e-3
-1.418, 1.324e-3
-1.417, 1.304e-3
-1.416, 1.286e-3
-1.415, 1.271e-3
-1.414, 1.255e-3
-1.413, 1.240e-3
-1.412, 1.222e-3
-1.411, 1.205e-3
-1.410, 1.190e-3
-1.409, 1.174e-3
-1.408, 1.158e-3
-1.407, 1.140e-3
-1.406, 1.123e-3
-1.405, 1.109e-3
-1.404, 1.095e-3
-1.403, 1.081e-3
-1.402, 1.065e-3
-1.401, 1.050e-3
-1.400, 1.036e-3
-1.399, 1.022e-3
-1.398, 1.007e-3
-1.397, 9.914e-4
-1.396, 9.749e-4
-1.395, 9.619e-4
-1.394, 9.497e-4
-1.393, 9.361e-4
-1.392, 9.225e-4
-1.391, 9.081e-4
-1.390, 8.952e-4
-1.389, 8.830e-4
-1.388, 8.694e-4
-1.387, 8.551e-4
-1.386, 8.406e-4
-1.385, 8.276e-4
-1.384, 8.169e-4
-1.383, 8.045e-4
-1.382, 7.908e-4
-1.381, 7.780e-4
-1.380, 7.661e-4
-1.379, 7.555e-4
-1.378, 7.443e-4
-1.377, 7.309e-4
-1.376, 7.187e-4
-1.375, 7.069e-4
-1.374, 6.964e-4
-1.373, 6.846e-4
-1.372, 6.722e-4
-1.371, 6.604e-4
-1.370, 6.501e-4
-1.369, 6.395e-4
-1.368, 6.295e-4
-1.367, 6.173e-4
-1.366, 6.055e-4
-1.365, 5.961e-4
-1.364, 5.870e-4
-1.363, 5.771e-4
-1.362, 5.657e-4
-1.361, 5.544e-4
-1.360, 5.449e-4
-1.359, 5.359e-4
-1.358, 5.253e-4
-1.357, 5.150e-4
-1.356, 5.044e-4
-1.355, 4.952e-4
-1.354, 4.874e-4
-1.353, 4.783e-4
-1.352, 4.685e-4
-1.351, 4.581e-4
-1.350, 4.490e-4
-1.349, 4.413e-4
-1.348, 4.324e-4
-1.347, 4.222e-4
-1.346, 4.126e-4
-1.345, 4.047e-4
-1.344, 3.975e-4
-1.343, 3.897e-4
-1.342, 3.801e-4
-1.341, 3.715e-4
-1.340, 3.634e-4
-1.339, 3.561e-4
-1.338, 3.485e-4
-1.337, 3.391e-4
-1.336, 3.304e-4
-1.335, 3.233e-4
-1.334, 3.168e-4
-1.333, 3.099e-4
-1.332, 3.015e-4
-1.331, 2.930e-4
-1.330, 2.864e-4
-1.329, 2.798e-4
-1.328, 2.734e-4
-1.327, 2.653e-4
-1.326, 2.569e-4
-1.325, 2.506e-4
-1.324, 2.450e-4
-1.323, 2.387e-4
-1.322, 2.313e-4
-1.321, 2.236e-4
-1.320, 2.179e-4
-1.319, 2.125e-4
-1.318, 2.061e-4
-1.317, 1.993e-4
-1.316, 1.918e-4
-1.315, 1.858e-4
-1.314, 1.813e-4
-1.313, 1.757e-4
-1.312, 1.691e-4
-1.311, 1.623e-4
-1.310, 1.569e-4
-1.309, 1.526e-4
-1.308, 1.473e-4
-1.307, 1.407e-4
-1.306, 1.342e-4
-1.305, 1.290e-4
-1.304, 1.252e-4
-1.303, 1.206e-4
-1.302, 1.142e-4
-1.301, 1.084e-4
-1.300, 1.040e-4
-1.299, 9.991e-5
-1.298, 9.576e-5
-1.297, 8.967e-5
-1.296, 8.446e-5
-1.295, 8.003e-5
-1.294, 7.615e-5
-1.293, 7.236e-5
-1.292, 6.675e-5
-1.291, 6.145e-5
-1.290, 5.784e-5
-1.289, 5.438e-5
-1.288, 5.098e-5
-1.287, 4.569e-5
-1.286, 4.058e-5
-1.285, 3.720e-5
-1.284, 3.427e-5
-1.283, 3.065e-5
-1.282, 2.586e-5
-1.281, 2.107e-5
-1.280, 1.766e-5
-1.279, 1.538e-5
-1.278, 1.202e-5
-1.277, 7.961e-6
-1.276, 3.595e-6
-1.275, 2.346e-7
-1.274, -1.683e-6
-1.273, -4.862e-6
-1.272, -8.722e-6
-1.271, -1.271e-5
-1.270, -1.581e-5
-1.269, -1.740e-5
-1.268, -2.037e-5
-1.267, -2.409e-5
-1.266, -2.786e-5
-1.265, -3.074e-5
-1.264, -3.196e-5
-1.263, -3.427e-5
-1.262, -3.819e-5
-1.261, -4.113e-5
-1.260, -4.373e-5
-1.259, -4.505e-5
-1.258, -4.695e-5
-1.257, -5.061e-5
-1.256, -5.360e-5
-1.255, -5.565e-5
-1.254, -5.724e-5
-1.253, -5.856e-5
-1.252, -6.189e-5
-1.251, -6.503e-5
-1.250, -6.636e-5
-1.249, -6.776e-5
-1.248, -6.875e-5
-1.247, -7.205e-5
-1.246, -7.493e-5
-1.245, -7.647e-5
-1.244, -7.719e-5
-1.243, -7.870e-5
-1.242, -8.111e-5
-1.241, -8.413e-5
-1.240, -8.494e-5
-1.239, -8.546e-5
-1.238, -8.685e-5
-1.237, -8.907e-5
-1.236, -9.173e-5
-1.235, -9.290e-5
-1.234, -9.307e-5
-1.233, -9.427e-5
-1.232, -9.625e-5
-1.231, -9.866e-5
-1.230, -9.972e-5
-1.229, -1.007e-4
-1.228, -1.010e-4
-1.227, -1.032e-4
-1.226, -1.046e-4
-1.225, -1.056e-4
-1.224, -1.055e-4
-1.223, -1.061e-4
-1.222, -1.086e-4
-1.221, -1.099e-4
-1.220, -1.107e-4
-1.219, -1.105e-4
-1.218, -1.106e-4
-1.217, -1.127e-4
-1.216, -1.142e-4
-1.215, -1.146e-4
-1.214, -1.148e-4
-1.213, -1.147e-4
-1.212, -1.167e-4
-1.211, -1.182e-4
-1.210, -1.183e-4
-1.209, -1.181e-4
-1.208, -1.179e-4
-1.207, -1.191e-4
-1.206, -1.209e-4
-1.205, -1.209e-4
-1.204, -1.205e-4
-1.203, -1.207e-4
-1.202, -1.217e-4
-1.201, -1.233e-4
-1.200, -1.231e-4
-1.199, -1.223e-4
-1.198, -1.226e-4
-1.197, -1.233e-4
-1.196, -1.246e-4
-1.195, -1.247e-4
-1.194, -1.237e-4
-1.193, -1.237e-4
-1.192, -1.245e-4
-1.191, -1.260e-4
-1.190, -1.259e-4
-1.189, -1.247e-4
-1.188, -1.244e-4
-1.187, -1.256e-4
-1.186, -1.261e-4
-1.185, -1.264e-4
-1.184, -1.250e-4
-1.183, -1.247e-4
-1.182, -1.256e-4
-1.181, -1.265e-4
-1.180, -1.262e-4
-1.179, -1.253e-4
-1.178, -1.249e-4
-1.177, -1.260e-4
-1.176, -1.265e-4
-1.175, -1.261e-4
-1.174, -1.253e-4
-1.173, -1.245e-4
-1.172, -1.253e-4
-1.171, -1.259e-4
-1.170, -1.254e-4
-1.169, -1.244e-4
-1.168, -1.236e-4
-1.167, -1.243e-4
-1.166, -1.253e-4
-1.165, -1.245e-4
-1.164, -1.232e-4
-1.163, -1.228e-4
-1.162, -1.233e-4
-1.161, -1.244e-4
-1.160, -1.234e-4
-1.159, -1.223e-4
-1.158, -1.219e-4
-1.157, -1.220e-4
-1.156, -1.227e-4
-1.155, -1.221e-4
-1.154, -1.207e-4
-1.153, -1.202e-4
-1.152, -1.208e-4
-1.151, -1.215e-4
-1.150, -1.210e-4
-1.149, -1.193e-4
-1.148, -1.186e-4
-1.147, -1.193e-4
-1.146, -1.198e-4
-1.145, -1.195e-4
-1.144, -1.176e-4
-1.143, -1.171e-4
-1.142, -1.179e-4
-1.141, -1.184e-4
-1.140, -1.180e-4
-1.139, -1.166e-4
-1.138, -1.156e-4
-1.137, -1.166e-4
-1.136, -1.168e-4
-1.135, -1.163e-4
-1.134, -1.149e-4
-1.133, -1.141e-4
-1.132, -1.150e-4
-1.131, -1.156e-4
-1.130, -1.149e-4
-1.129, -1.137e-4
-1.128, -1.128e-4
-1.127, -1.136e-4
-1.126, -1.146e-4
-1.125, -1.138e-4
-1.124, -1.124e-4
-1.123, -1.120e-4
-1.122, -1.122e-4
-1.121, -1.133e-4
-1.120, -1.122e-4
-1.119, -1.111e-4
-1.118, -1.108e-4
-1.117, -1.111e-4
-1.116, -1.120e-4
-1.115, -1.117e-4
-1.114, -1.101e-4
-1.113, -1.098e-4
-1.112, -1.103e-4
-1.111, -1.112e-4
-1.110, -1.109e-4
-1.109, -1.091e-4
-1.108, -1.086e-4
-1.107, -1.094e-4
-1.106, -1.100e-4
-1.105, -1.099e-4
-1.104, -1.083e-4
-1.103, -1.076e-4
-1.102, -1.088e-4
-1.101, -1.094e-4
-1.100, -1.086e-4
-1.099, -1.076e-4
-1.098, -1.067e-4
-1.097, -1.079e-4
-1.096, -1.083e-4
-1.095, -1.077e-4
-1.094, -1.069e-4
-1.093, -1.061e-4
-1.092, -1.069e-4
-1.091, -1.078e-4
-1.090, -1.072e-4
-1.089, -1.062e-4
-1.088, -1.053e-4
-1.087, -1.060e-4
-1.086, -1.072e-4
-1.085, -1.061e-4
-1.084, -1.052e-4
-1.083, -1.049e-4
-1.082, -1.053e-4
-1.081, -1.066e-4
-1.080, -1.058e-4
-1.079, -1.047e-4
-1.078, -1.044e-4
-1.077, -1.048e-4
-1.076, -1.061e-4
-1.075, -1.057e-4
-1.074, -1.042e-4
-1.073, -1.041e-4
-1.072, -1.045e-4
-1.071, -1.055e-4
-1.070, -1.053e-4
-1.069, -1.039e-4
-1.068, -1.034e-4
-1.067, -1.043e-4
-1.066, -1.052e-4
-1.065, -1.048e-4
-1.064, -1.031e-4
-1.063, -1.031e-4
-1.062, -1.043e-4
-1.061, -1.048e-4
-1.060, -1.044e-4
-1.059, -1.034e-4
-1.058, -1.030e-4
-1.057, -1.041e-4
-1.056, -1.048e-4
-1.055, -1.046e-4
-1.054, -1.037e-4
-1.053, -1.029e-4
-1.052, -1.041e-4
-1.051, -1.050e-4
-1.050, -1.044e-4
-1.049, -1.038e-4
-1.048, -1.029e-4
-1.047, -1.040e-4
-1.046, -1.052e-4
-1.045, -1.045e-4
-1.044, -1.035e-4
-1.043, -1.033e-4
-1.042, -1.043e-4
-1.041, -1.057e-4
-1.040, -1.048e-4
-1.039, -1.038e-4
-1.038, -1.037e-4
-1.037, -1.044e-4
-1.036, -1.056e-4
-1.035, -1.052e-4
-1.034, -1.041e-4
-1.033, -1.042e-4
-1.032, -1.049e-4
-1.031, -1.060e-4
-1.030, -1.059e-4
-1.029, -1.045e-4
-1.028, -1.041e-4
-1.027, -1.055e-4
-1.026, -1.063e-4
-1.025, -1.063e-4
-1.024, -1.053e-4
-1.023, -1.049e-4
-1.022, -1.062e-4
-1.021, -1.068e-4
-1.020, -1.067e-4
-1.019, -1.057e-4
-1.018, -1.053e-4
-1.017, -1.065e-4
-1.016, -1.072e-4
-1.015, -1.069e-4
-1.014, -1.065e-4
-1.013, -1.058e-4
-1.012, -1.072e-4
-1.011, -1.084e-4
-1.010, -1.078e-4
-1.009, -1.072e-4
-1.008, -1.064e-4
-1.007, -1.077e-4
-1.006, -1.088e-4
-1.005, -1.082e-4
-1.004, -1.074e-4
-1.003, -1.075e-4
-1.002, -1.083e-4
-1.001, -1.097e-4
