July 12, 2024   11:36:18
Cyclic Voltammetry
File: c:/users/guazh/data/20240709_batch67/2024-07-10-exp21\exp21-2024-07-12t11_31_25-arkoh\exp21_cv_50mvs_efin_-1400mv.bin
Data Source:  Experiment
Instrument Model:  CHI760E
Header: CV ran at 50 mVs
Note: 

Init E (V) = -1
High E (V) = -1
Low E (V) = -1.4
Final E (V) = -1
Init P/N = N
Scan Rate (V/s) = 0.05
Segment = 7
Sample Interval (V) = 0.001
Quiet Time (sec) = 60
Sensitivity (A/V) = 0.001
Comp R (ohm) = 1.7

Results:

Channel 1:
Segment 1:

Segment 2:

Segment 3:

Segment 4:

Segment 5:

Segment 6:

Segment 7:

Potential/V, Current/A

-1.000, 2.652e-7
-1.001, 3.106e-7
-1.002, 3.698e-7
-1.003, 3.579e-7
-1.004, 4.112e-7
-1.005, 4.546e-7
-1.006, 4.250e-7
-1.007, 4.724e-7
-1.008, 5.099e-7
-1.009, 4.862e-7
-1.010, 4.783e-7
-1.011, 5.138e-7
-1.012, 5.266e-7
-1.013, 5.247e-7
-1.014, 5.997e-7
-1.015, 5.395e-7
-1.016, 5.247e-7
-1.017, 5.957e-7
-1.018, 5.779e-7
-1.019, 6.145e-7
-1.020, 5.789e-7
-1.021, 5.740e-7
-1.022, 6.105e-7
-1.023, 6.125e-7
-1.024, 6.312e-7
-1.025, 6.194e-7
-1.026, 6.411e-7
-1.027, 6.371e-7
-1.028, 7.042e-7
-1.029, 7.171e-7
-1.030, 6.450e-7
-1.031, 6.954e-7
-1.032, 7.062e-7
-1.033, 7.259e-7
-1.034, 7.447e-7
-1.035, 6.934e-7
-1.036, 6.894e-7
-1.037, 7.496e-7
-1.038, 7.812e-7
-1.039, 7.269e-7
-1.040, 7.407e-7
-1.041, 7.506e-7
-1.042, 7.595e-7
-1.043, 7.911e-7
-1.044, 7.397e-7
-1.045, 7.832e-7
-1.046, 7.792e-7
-1.047, 7.624e-7
-1.048, 7.911e-7
-1.049, 8.029e-7
-1.050, 7.753e-7
-1.051, 7.999e-7
-1.052, 8.039e-7
-1.053, 8.108e-7
-1.054, 7.980e-7
-1.055, 8.680e-7
-1.056, 8.049e-7
-1.057, 8.433e-7
-1.058, 8.345e-7
-1.059, 8.354e-7
-1.060, 8.562e-7
-1.061, 8.216e-7
-1.062, 8.680e-7
-1.063, 8.937e-7
-1.064, 8.680e-7
-1.065, 8.700e-7
-1.066, 9.045e-7
-1.067, 8.591e-7
-1.068, 9.400e-7
-1.069, 9.242e-7
-1.070, 8.710e-7
-1.071, 9.144e-7
-1.072, 8.877e-7
-1.073, 9.213e-7
-1.074, 9.716e-7
-1.075, 9.538e-7
-1.076, 9.173e-7
-1.077, 9.933e-7
-1.078, 9.736e-7
-1.079, 9.696e-7
-1.080, 9.785e-7
-1.081, 9.459e-7
-1.082, 9.736e-7
-1.083, 1.009e-6
-1.084, 1.000e-6
-1.085, 1.012e-6
-1.086, 9.874e-7
-1.087, 1.008e-6
-1.088, 1.046e-6
-1.089, 1.024e-6
-1.090, 1.003e-6
-1.091, 1.030e-6
-1.092, 1.011e-6
-1.093, 1.064e-6
-1.094, 1.071e-6
-1.095, 1.030e-6
-1.096, 1.029e-6
-1.097, 1.102e-6
-1.098, 1.080e-6
-1.099, 1.086e-6
-1.100, 1.089e-6
-1.101, 1.034e-6
-1.102, 1.144e-6
-1.103, 1.119e-6
-1.104, 1.105e-6
-1.105, 1.131e-6
-1.106, 1.083e-6
-1.107, 1.113e-6
-1.108, 1.170e-6
-1.109, 1.117e-6
-1.110, 1.118e-6
-1.111, 1.184e-6
-1.112, 1.147e-6
-1.113, 1.150e-6
-1.114, 1.195e-6
-1.115, 1.159e-6
-1.116, 1.165e-6
-1.117, 1.186e-6
-1.118, 1.192e-6
-1.119, 1.210e-6
-1.120, 1.196e-6
-1.121, 1.198e-6
-1.122, 1.200e-6
-1.123, 1.237e-6
-1.124, 1.228e-6
-1.125, 1.263e-6
-1.126, 1.197e-6
-1.127, 1.261e-6
-1.128, 1.284e-6
-1.129, 1.237e-6
-1.130, 1.246e-6
-1.131, 1.277e-6
-1.132, 1.282e-6
-1.133, 1.319e-6
-1.134, 1.323e-6
-1.135, 1.274e-6
-1.136, 1.296e-6
-1.137, 1.293e-6
-1.138, 1.313e-6
-1.139, 1.370e-6
-1.140, 1.336e-6
-1.141, 1.314e-6
-1.142, 1.328e-6
-1.143, 1.346e-6
-1.144, 1.377e-6
-1.145, 1.346e-6
-1.146, 1.326e-6
-1.147, 1.396e-6
-1.148, 1.408e-6
-1.149, 1.405e-6
-1.150, 1.402e-6
-1.151, 1.391e-6
-1.152, 1.394e-6
-1.153, 1.425e-6
-1.154, 1.425e-6
-1.155, 1.419e-6
-1.156, 1.430e-6
-1.157, 1.420e-6
-1.158, 1.482e-6
-1.159, 1.479e-6
-1.160, 1.449e-6
-1.161, 1.440e-6
-1.162, 1.470e-6
-1.163, 1.473e-6
-1.164, 1.505e-6
-1.165, 1.498e-6
-1.166, 1.507e-6
-1.167, 1.515e-6
-1.168, 1.518e-6
-1.169, 1.513e-6
-1.170, 1.510e-6
-1.171, 1.493e-6
-1.172, 1.523e-6
-1.173, 1.555e-6
-1.174, 1.569e-6
-1.175, 1.557e-6
-1.176, 1.534e-6
-1.177, 1.581e-6
-1.178, 1.605e-6
-1.179, 1.586e-6
-1.180, 1.580e-6
-1.181, 1.607e-6
-1.182, 1.577e-6
-1.183, 1.679e-6
-1.184, 1.637e-6
-1.185, 1.591e-6
-1.186, 1.631e-6
-1.187, 1.652e-6
-1.188, 1.665e-6
-1.189, 1.628e-6
-1.190, 1.684e-6
-1.191, 1.684e-6
-1.192, 1.647e-6
-1.193, 1.691e-6
-1.194, 1.695e-6
-1.195, 1.701e-6
-1.196, 1.721e-6
-1.197, 1.657e-6
-1.198, 1.710e-6
-1.199, 1.724e-6
-1.200, 1.690e-6
-1.201, 1.722e-6
-1.202, 1.761e-6
-1.203, 1.756e-6
-1.204, 1.774e-6
-1.205, 1.744e-6
-1.206, 1.734e-6
-1.207, 1.794e-6
-1.208, 1.814e-6
-1.209, 1.809e-6
-1.210, 1.799e-6
-1.211, 1.770e-6
-1.212, 1.790e-6
-1.213, 1.834e-6
-1.214, 1.833e-6
-1.215, 1.799e-6
-1.216, 1.851e-6
-1.217, 1.832e-6
-1.218, 1.850e-6
-1.219, 1.883e-6
-1.220, 1.845e-6
-1.221, 1.875e-6
-1.222, 1.881e-6
-1.223, 1.893e-6
-1.224, 1.898e-6
-1.225, 1.891e-6
-1.226, 1.881e-6
-1.227, 1.917e-6
-1.228, 1.994e-6
-1.229, 1.938e-6
-1.230, 1.932e-6
-1.231, 1.975e-6
-1.232, 1.947e-6
-1.233, 1.985e-6
-1.234, 1.986e-6
-1.235, 1.942e-6
-1.236, 2.008e-6
-1.237, 1.996e-6
-1.238, 2.006e-6
-1.239, 2.010e-6
-1.240, 2.009e-6
-1.241, 1.957e-6
-1.242, 2.063e-6
-1.243, 2.075e-6
-1.244, 2.020e-6
-1.245, 2.033e-6
-1.246, 2.027e-6
-1.247, 2.077e-6
-1.248, 2.127e-6
-1.249, 2.014e-6
-1.250, 2.083e-6
-1.251, 2.073e-6
-1.252, 2.086e-6
-1.253, 2.129e-6
-1.254, 2.119e-6
-1.255, 2.087e-6
-1.256, 2.072e-6
-1.257, 2.105e-6
-1.258, 2.155e-6
-1.259, 2.155e-6
-1.260, 2.113e-6
-1.261, 2.103e-6
-1.262, 2.189e-6
-1.263, 2.157e-6
-1.264, 2.180e-6
-1.265, 2.165e-6
-1.266, 2.141e-6
-1.267, 2.195e-6
-1.268, 2.233e-6
-1.269, 2.193e-6
-1.270, 2.153e-6
-1.271, 2.196e-6
-1.272, 2.216e-6
-1.273, 2.218e-6
-1.274, 2.247e-6
-1.275, 2.215e-6
-1.276, 2.176e-6
-1.277, 2.245e-6
-1.278, 2.243e-6
-1.279, 2.202e-6
-1.280, 2.257e-6
-1.281, 2.242e-6
-1.282, 2.269e-6
-1.283, 2.311e-6
-1.284, 2.289e-6
-1.285, 2.242e-6
-1.286, 2.313e-6
-1.287, 2.298e-6
-1.288, 2.285e-6
-1.289, 2.303e-6
-1.290, 2.287e-6
-1.291, 2.300e-6
-1.292, 2.357e-6
-1.293, 2.362e-6
-1.294, 2.341e-6
-1.295, 2.289e-6
-1.296, 2.330e-6
-1.297, 2.340e-6
-1.298, 2.368e-6
-1.299, 2.360e-6
-1.300, 2.369e-6
-1.301, 2.378e-6
-1.302, 2.368e-6
-1.303, 2.406e-6
-1.304, 2.406e-6
-1.305, 2.377e-6
-1.306, 2.361e-6
-1.307, 2.406e-6
-1.308, 2.424e-6
-1.309, 2.432e-6
-1.310, 2.438e-6
-1.311, 2.416e-6
-1.312, 2.458e-6
-1.313, 2.480e-6
-1.314, 2.421e-6
-1.315, 2.433e-6
-1.316, 2.474e-6
-1.317, 2.457e-6
-1.318, 2.497e-6
-1.319, 2.527e-6
-1.320, 2.450e-6
-1.321, 2.447e-6
-1.322, 2.511e-6
-1.323, 2.518e-6
-1.324, 2.469e-6
-1.325, 2.502e-6
-1.326, 2.478e-6
-1.327, 2.496e-6
-1.328, 2.573e-6
-1.329, 2.516e-6
-1.330, 2.506e-6
-1.331, 2.535e-6
-1.332, 2.566e-6
-1.333, 2.560e-6
-1.334, 2.573e-6
-1.335, 2.539e-6
-1.336, 2.528e-6
-1.337, 2.570e-6
-1.338, 2.608e-6
-1.339, 2.570e-6
-1.340, 2.561e-6
-1.341, 2.590e-6
-1.342, 2.590e-6
-1.343, 2.616e-6
-1.344, 2.646e-6
-1.345, 2.561e-6
-1.346, 2.632e-6
-1.347, 2.612e-6
-1.348, 2.616e-6
-1.349, 2.648e-6
-1.350, 2.606e-6
-1.351, 2.597e-6
-1.352, 2.634e-6
-1.353, 2.667e-6
-1.354, 2.621e-6
-1.355, 2.599e-6
-1.356, 2.634e-6
-1.357, 2.635e-6
-1.358, 2.697e-6
-1.359, 2.687e-6
-1.360, 2.659e-6
-1.361, 2.666e-6
-1.362, 2.687e-6
-1.363, 2.686e-6
-1.364, 2.689e-6
-1.365, 2.686e-6
-1.366, 2.614e-6
-1.367, 2.706e-6
-1.368, 2.725e-6
-1.369, 2.688e-6
-1.370, 2.692e-6
-1.371, 2.674e-6
-1.372, 2.694e-6
-1.373, 2.727e-6
-1.374, 2.739e-6
-1.375, 2.688e-6
-1.376, 2.705e-6
-1.377, 2.720e-6
-1.378, 2.736e-6
-1.379, 2.784e-6
-1.380, 2.740e-6
-1.381, 2.692e-6
-1.382, 2.792e-6
-1.383, 2.791e-6
-1.384, 2.736e-6
-1.385, 2.750e-6
-1.386, 2.727e-6
-1.387, 2.794e-6
-1.388, 2.786e-6
-1.389, 2.805e-6
-1.390, 2.770e-6
-1.391, 2.747e-6
-1.392, 2.819e-6
-1.393, 2.793e-6
-1.394, 2.751e-6
-1.395, 2.799e-6
-1.396, 2.771e-6
-1.397, 2.822e-6
-1.398, 2.869e-6
-1.399, 2.816e-6
-1.400, 2.372e-6
-1.399, 2.064e-6
-1.398, 1.866e-6
-1.397, 1.705e-6
-1.396, 1.658e-6
-1.395, 1.472e-6
-1.394, 1.413e-6
-1.393, 1.389e-6
-1.392, 1.300e-6
-1.391, 1.190e-6
-1.390, 1.173e-6
-1.389, 1.079e-6
-1.388, 1.081e-6
-1.387, 1.055e-6
-1.386, 9.430e-7
-1.385, 9.124e-7
-1.384, 9.035e-7
-1.383, 8.887e-7
-1.382, 8.384e-7
-1.381, 8.128e-7
-1.380, 7.575e-7
-1.379, 7.171e-7
-1.378, 7.309e-7
-1.377, 7.348e-7
-1.376, 6.884e-7
-1.375, 6.026e-7
-1.374, 5.898e-7
-1.373, 6.036e-7
-1.372, 6.056e-7
-1.371, 5.641e-7
-1.370, 5.197e-7
-1.369, 4.783e-7
-1.368, 5.148e-7
-1.367, 4.744e-7
-1.366, 4.487e-7
-1.365, 3.885e-7
-1.364, 4.053e-7
-1.363, 4.359e-7
-1.362, 3.895e-7
-1.361, 3.925e-7
-1.360, 3.491e-7
-1.359, 3.195e-7
-1.358, 3.343e-7
-1.357, 3.550e-7
-1.356, 3.116e-7
-1.355, 2.080e-7
-1.354, 3.056e-7
-1.353, 2.563e-7
-1.352, 2.918e-7
-1.351, 2.711e-7
-1.350, 1.942e-7
-1.349, 2.336e-7
-1.348, 2.247e-7
-1.347, 1.971e-7
-1.346, 2.149e-7
-1.345, 1.705e-7
-1.344, 1.419e-7
-1.343, 1.577e-7
-1.342, 2.070e-7
-1.341, 9.748e-8
-1.340, 1.310e-7
-1.339, 1.212e-7
-1.338, 1.290e-7
-1.337, 1.429e-7
-1.336, 9.057e-8
-1.335, 4.815e-8
-1.334, 7.084e-8
-1.333, 7.972e-8
-1.332, 7.182e-8
-1.331, 6.886e-8
-1.330, 2.644e-8
-1.329, -5.130e-9
-1.328, 5.505e-8
-1.327, 3.335e-8
-1.326, -1.105e-8
-1.325, 3.749e-9
-1.324, -7.321e-8
-1.323, -4.163e-8
-1.322, 2.348e-8
-1.321, -3.473e-8
-1.320, -6.137e-8
-1.319, -5.249e-8
-1.318, -1.500e-8
-1.317, -2.289e-8
-1.316, -3.078e-8
-1.315, -1.048e-7
-1.314, -7.321e-8
-1.313, -1.796e-8
-1.312, -4.459e-8
-1.311, -9.688e-8
-1.310, -8.603e-8
-1.309, -1.087e-7
-1.308, -9.984e-8
-1.307, -9.294e-8
-1.306, -1.186e-7
-1.305, -1.245e-7
-1.304, -1.176e-7
-1.303, -8.702e-8
-1.302, -1.117e-7
-1.301, -1.146e-7
-1.300, -1.344e-7
-1.299, -1.492e-7
-1.298, -1.107e-7
-1.297, -1.294e-7
-1.296, -1.600e-7
-1.295, -1.314e-7
-1.294, -1.709e-7
-1.293, -1.314e-7
-1.292, -1.541e-7
-1.291, -2.103e-7
-1.290, -1.738e-7
-1.289, -1.630e-7
-1.288, -1.896e-7
-1.287, -1.817e-7
-1.286, -1.955e-7
-1.285, -1.877e-7
-1.284, -1.936e-7
-1.283, -1.561e-7
-1.282, -2.064e-7
-1.281, -2.488e-7
-1.280, -2.163e-7
-1.279, -1.995e-7
-1.278, -1.916e-7
-1.277, -2.340e-7
-1.276, -2.478e-7
-1.275, -1.995e-7
-1.274, -2.429e-7
-1.273, -2.340e-7
-1.272, -1.926e-7
-1.271, -2.340e-7
-1.270, -2.488e-7
-1.269, -2.242e-7
-1.268, -2.064e-7
-1.267, -2.449e-7
-1.266, -2.705e-7
-1.265, -2.557e-7
-1.264, -2.271e-7
-1.263, -1.965e-7
-1.262, -2.883e-7
-1.261, -2.774e-7
-1.260, -3.060e-7
-1.259, -2.942e-7
-1.258, -2.251e-7
-1.257, -2.557e-7
-1.256, -3.001e-7
-1.255, -3.041e-7
-1.254, -2.972e-7
-1.253, -2.429e-7
-1.252, -2.646e-7
-1.251, -2.656e-7
-1.250, -3.189e-7
-1.249, -2.567e-7
-1.248, -2.686e-7
-1.247, -3.031e-7
-1.246, -3.268e-7
-1.245, -2.873e-7
-1.244, -3.347e-7
-1.243, -2.834e-7
-1.242, -2.883e-7
-1.241, -3.149e-7
-1.240, -3.297e-7
-1.239, -3.110e-7
-1.238, -2.981e-7
-1.237, -2.981e-7
-1.236, -3.416e-7
-1.235, -3.534e-7
-1.234, -3.258e-7
-1.233, -3.199e-7
-1.232, -3.534e-7
-1.231, -3.514e-7
-1.230, -3.307e-7
-1.229, -3.751e-7
-1.228, -3.149e-7
-1.227, -3.011e-7
-1.226, -3.810e-7
-1.225, -3.643e-7
-1.224, -3.682e-7
-1.223, -3.317e-7
-1.222, -3.307e-7
-1.221, -3.564e-7
-1.220, -4.086e-7
-1.219, -3.879e-7
-1.218, -3.386e-7
-1.217, -3.258e-7
-1.216, -3.504e-7
-1.215, -3.317e-7
-1.214, -4.116e-7
-1.213, -3.771e-7
-1.212, -3.830e-7
-1.211, -3.919e-7
-1.210, -3.425e-7
-1.209, -3.879e-7
-1.208, -3.820e-7
-1.207, -4.165e-7
-1.206, -3.692e-7
-1.205, -4.422e-7
-1.204, -3.712e-7
-1.203, -3.771e-7
-1.202, -4.077e-7
-1.201, -4.234e-7
-1.200, -4.008e-7
-1.199, -3.761e-7
-1.198, -3.850e-7
-1.197, -4.057e-7
-1.196, -4.126e-7
-1.195, -4.432e-7
-1.194, -4.116e-7
-1.193, -3.682e-7
-1.192, -3.899e-7
-1.191, -4.185e-7
-1.190, -4.323e-7
-1.189, -4.136e-7
-1.188, -3.978e-7
-1.187, -4.086e-7
-1.186, -3.968e-7
-1.185, -4.343e-7
-1.184, -4.106e-7
-1.183, -4.086e-7
-1.182, -4.008e-7
-1.181, -4.471e-7
-1.180, -4.313e-7
-1.179, -4.343e-7
-1.178, -4.116e-7
-1.177, -4.461e-7
-1.176, -4.422e-7
-1.175, -4.284e-7
-1.174, -4.511e-7
-1.173, -4.067e-7
-1.172, -3.899e-7
-1.171, -4.442e-7
-1.170, -4.530e-7
-1.169, -4.096e-7
-1.168, -4.175e-7
-1.167, -4.333e-7
-1.166, -4.333e-7
-1.165, -4.254e-7
-1.164, -4.047e-7
-1.163, -3.929e-7
-1.162, -4.491e-7
-1.161, -4.481e-7
-1.160, -4.550e-7
-1.159, -4.234e-7
-1.158, -4.096e-7
-1.157, -4.037e-7
-1.156, -4.363e-7
-1.155, -4.412e-7
-1.154, -4.313e-7
-1.153, -4.185e-7
-1.152, -4.560e-7
-1.151, -4.343e-7
-1.150, -4.442e-7
-1.149, -4.826e-7
-1.148, -4.205e-7
-1.147, -4.353e-7
-1.146, -4.678e-7
-1.145, -4.807e-7
-1.144, -4.432e-7
-1.143, -4.491e-7
-1.142, -4.264e-7
-1.141, -4.254e-7
-1.140, -4.856e-7
-1.139, -4.491e-7
-1.138, -4.096e-7
-1.137, -4.925e-7
-1.136, -4.846e-7
-1.135, -4.363e-7
-1.134, -4.402e-7
-1.133, -4.244e-7
-1.132, -4.313e-7
-1.131, -4.787e-7
-1.130, -4.738e-7
-1.129, -4.600e-7
-1.128, -4.609e-7
-1.127, -4.767e-7
-1.126, -5.191e-7
-1.125, -5.004e-7
-1.124, -4.422e-7
-1.123, -4.797e-7
-1.122, -4.866e-7
-1.121, -4.935e-7
-1.120, -4.471e-7
-1.119, -4.876e-7
-1.118, -4.402e-7
-1.117, -4.678e-7
-1.116, -5.221e-7
-1.115, -4.777e-7
-1.114, -5.113e-7
-1.113, -4.955e-7
-1.112, -4.382e-7
-1.111, -4.747e-7
-1.110, -5.330e-7
-1.109, -4.698e-7
-1.108, -4.669e-7
-1.107, -5.053e-7
-1.106, -4.935e-7
-1.105, -5.073e-7
-1.104, -4.955e-7
-1.103, -4.777e-7
-1.102, -4.994e-7
-1.101, -4.777e-7
-1.100, -5.211e-7
-1.099, -5.083e-7
-1.098, -4.925e-7
-1.097, -4.984e-7
-1.096, -4.886e-7
-1.095, -5.458e-7
-1.094, -5.004e-7
-1.093, -5.034e-7
-1.092, -4.994e-7
-1.091, -5.261e-7
-1.090, -4.955e-7
-1.089, -5.043e-7
-1.088, -4.747e-7
-1.087, -5.191e-7
-1.086, -5.182e-7
-1.085, -5.113e-7
-1.084, -4.787e-7
-1.083, -5.251e-7
-1.082, -4.876e-7
-1.081, -5.300e-7
-1.080, -5.389e-7
-1.079, -5.251e-7
-1.078, -5.221e-7
-1.077, -5.083e-7
-1.076, -5.182e-7
-1.075, -5.231e-7
-1.074, -5.468e-7
-1.073, -5.043e-7
-1.072, -4.915e-7
-1.071, -5.330e-7
-1.070, -5.507e-7
-1.069, -5.448e-7
-1.068, -5.675e-7
-1.067, -5.113e-7
-1.066, -5.428e-7
-1.065, -5.261e-7
-1.064, -4.935e-7
-1.063, -5.093e-7
-1.062, -5.172e-7
-1.061, -5.330e-7
-1.060, -5.132e-7
-1.059, -5.547e-7
-1.058, -5.231e-7
-1.057, -5.063e-7
-1.056, -5.468e-7
-1.055, -5.320e-7
-1.054, -5.162e-7
-1.053, -5.596e-7
-1.052, -5.478e-7
-1.051, -5.557e-7
-1.050, -5.645e-7
-1.049, -5.251e-7
-1.048, -5.251e-7
-1.047, -5.576e-7
-1.046, -5.527e-7
-1.045, -5.221e-7
-1.044, -5.487e-7
-1.043, -5.478e-7
-1.042, -5.182e-7
-1.041, -5.862e-7
-1.040, -5.566e-7
-1.039, -5.152e-7
-1.038, -5.507e-7
-1.037, -5.852e-7
-1.036, -5.764e-7
-1.035, -5.468e-7
-1.034, -5.892e-7
-1.033, -5.557e-7
-1.032, -5.902e-7
-1.031, -5.547e-7
-1.030, -5.616e-7
-1.029, -5.487e-7
-1.028, -5.438e-7
-1.027, -5.418e-7
-1.026, -5.892e-7
-1.025, -5.922e-7
-1.024, -5.833e-7
-1.023, -5.487e-7
-1.022, -6.168e-7
-1.021, -5.557e-7
-1.020, -5.902e-7
-1.019, -5.981e-7
-1.018, -5.862e-7
-1.017, -5.665e-7
-1.016, -6.158e-7
-1.015, -5.675e-7
-1.014, -5.635e-7
-1.013, -5.576e-7
-1.012, -5.635e-7
-1.011, -5.931e-7
-1.010, -5.872e-7
-1.009, -5.823e-7
-1.008, -5.764e-7
-1.007, -6.070e-7
-1.006, -5.941e-7
-1.005, -5.991e-7
-1.004, -5.527e-7
-1.003, -5.872e-7
-1.002, -5.981e-7
-1.001, -5.764e-7
-1.000, -4.353e-7
-1.001, -3.435e-7
-1.002, -2.222e-7
-1.003, -2.439e-7
-1.004, -1.452e-7
-1.005, -1.462e-7
-1.006, -1.048e-7
-1.007, -4.657e-8
-1.008, -3.473e-8
-1.009, -2.171e-9
-1.010, -1.598e-8
-1.011, 1.855e-8
-1.012, 6.689e-8
-1.013, 8.268e-8
-1.014, 1.064e-7
-1.015, 9.846e-8
-1.016, 1.902e-7
-1.017, 1.922e-7
-1.018, 1.517e-7
-1.019, 1.951e-7
-1.020, 2.208e-7
-1.021, 2.553e-7
-1.022, 2.395e-7
-1.023, 2.593e-7
-1.024, 2.415e-7
-1.025, 2.682e-7
-1.026, 2.997e-7
-1.027, 3.007e-7
-1.028, 3.056e-7
-1.029, 3.392e-7
-1.030, 3.195e-7
-1.031, 3.431e-7
-1.032, 3.865e-7
-1.033, 3.481e-7
-1.034, 3.787e-7
-1.035, 3.589e-7
-1.036, 3.599e-7
-1.037, 4.280e-7
-1.038, 4.517e-7
-1.039, 3.846e-7
-1.040, 4.260e-7
-1.041, 4.191e-7
-1.042, 4.339e-7
-1.043, 4.783e-7
-1.044, 4.655e-7
-1.045, 4.319e-7
-1.046, 5.040e-7
-1.047, 4.882e-7
-1.048, 4.635e-7
-1.049, 4.674e-7
-1.050, 5.503e-7
-1.051, 5.128e-7
-1.052, 5.316e-7
-1.053, 5.168e-7
-1.054, 4.783e-7
-1.055, 5.898e-7
-1.056, 5.405e-7
-1.057, 5.444e-7
-1.058, 5.405e-7
-1.059, 5.730e-7
-1.060, 5.197e-7
-1.061, 6.085e-7
-1.062, 6.046e-7
-1.063, 5.878e-7
-1.064, 6.056e-7
-1.065, 5.967e-7
-1.066, 6.115e-7
-1.067, 6.371e-7
-1.068, 6.253e-7
-1.069, 6.371e-7
-1.070, 5.947e-7
-1.071, 6.362e-7
-1.072, 6.125e-7
-1.073, 6.539e-7
-1.074, 6.401e-7
-1.075, 6.470e-7
-1.076, 6.736e-7
-1.077, 7.013e-7
-1.078, 6.786e-7
-1.079, 6.569e-7
-1.080, 7.161e-7
-1.081, 7.062e-7
-1.082, 7.190e-7
-1.083, 6.963e-7
-1.084, 6.835e-7
-1.085, 6.954e-7
-1.086, 7.457e-7
-1.087, 7.407e-7
-1.088, 7.624e-7
-1.089, 7.437e-7
-1.090, 7.032e-7
-1.091, 7.299e-7
-1.092, 7.812e-7
-1.093, 7.407e-7
-1.094, 7.506e-7
-1.095, 7.526e-7
-1.096, 7.723e-7
-1.097, 7.703e-7
-1.098, 8.187e-7
-1.099, 7.624e-7
-1.100, 7.447e-7
-1.101, 8.098e-7
-1.102, 8.364e-7
-1.103, 7.624e-7
-1.104, 7.970e-7
-1.105, 8.157e-7
-1.106, 8.049e-7
-1.107, 8.818e-7
-1.108, 8.049e-7
-1.109, 7.989e-7
-1.110, 8.325e-7
-1.111, 8.581e-7
-1.112, 8.631e-7
-1.113, 8.522e-7
-1.114, 8.956e-7
-1.115, 8.078e-7
-1.116, 8.650e-7
-1.117, 8.956e-7
-1.118, 8.838e-7
-1.119, 8.887e-7
-1.120, 9.114e-7
-1.121, 8.996e-7
-1.122, 9.154e-7
-1.123, 9.104e-7
-1.124, 8.522e-7
-1.125, 8.828e-7
-1.126, 9.568e-7
-1.127, 9.183e-7
-1.128, 9.282e-7
-1.129, 9.114e-7
-1.130, 8.996e-7
-1.131, 9.479e-7
-1.132, 9.874e-7
-1.133, 9.183e-7
-1.134, 9.568e-7
-1.135, 9.578e-7
-1.136, 9.815e-7
-1.137, 9.746e-7
-1.138, 9.913e-7
-1.139, 9.302e-7
-1.140, 9.943e-7
-1.141, 1.030e-6
-1.142, 1.001e-6
-1.143, 9.785e-7
-1.144, 1.011e-6
-1.145, 9.765e-7
-1.146, 1.024e-6
-1.147, 1.013e-6
-1.148, 1.003e-6
-1.149, 1.001e-6
-1.150, 1.046e-6
-1.151, 1.034e-6
-1.152, 1.052e-6
-1.153, 1.042e-6
-1.154, 1.001e-6
-1.155, 1.062e-6
-1.156, 1.061e-6
-1.157, 1.043e-6
-1.158, 1.078e-6
-1.159, 1.059e-6
-1.160, 1.045e-6
-1.161, 1.069e-6
-1.162, 1.141e-6
-1.163, 1.063e-6
-1.164, 1.064e-6
-1.165, 1.081e-6
-1.166, 1.075e-6
-1.167, 1.109e-6
-1.168, 1.083e-6
-1.169, 1.051e-6
-1.170, 1.091e-6
-1.171, 1.118e-6
-1.172, 1.132e-6
-1.173, 1.131e-6
-1.174, 1.104e-6
-1.175, 1.101e-6
-1.176, 1.126e-6
-1.177, 1.177e-6
-1.178, 1.111e-6
-1.179, 1.123e-6
-1.180, 1.168e-6
-1.181, 1.174e-6
-1.182, 1.166e-6
-1.183, 1.167e-6
-1.184, 1.170e-6
-1.185, 1.148e-6
-1.186, 1.212e-6
-1.187, 1.194e-6
-1.188, 1.153e-6
-1.189, 1.165e-6
-1.190, 1.214e-6
-1.191, 1.167e-6
-1.192, 1.215e-6
-1.193, 1.181e-6
-1.194, 1.195e-6
-1.195, 1.163e-6
-1.196, 1.222e-6
-1.197, 1.218e-6
-1.198, 1.164e-6
-1.199, 1.204e-6
-1.200, 1.215e-6
-1.201, 1.259e-6
-1.202, 1.225e-6
-1.203, 1.224e-6
-1.204, 1.202e-6
-1.205, 1.230e-6
-1.206, 1.287e-6
-1.207, 1.250e-6
-1.208, 1.245e-6
-1.209, 1.227e-6
-1.210, 1.243e-6
-1.211, 1.250e-6
-1.212, 1.279e-6
-1.213, 1.281e-6
-1.214, 1.278e-6
-1.215, 1.259e-6
-1.216, 1.306e-6
-1.217, 1.323e-6
-1.218, 1.291e-6
-1.219, 1.285e-6
-1.220, 1.294e-6
-1.221, 1.327e-6
-1.222, 1.320e-6
-1.223, 1.267e-6
-1.224, 1.308e-6
-1.225, 1.325e-6
-1.226, 1.347e-6
-1.227, 1.324e-6
-1.228, 1.338e-6
-1.229, 1.336e-6
-1.230, 1.333e-6
-1.231, 1.369e-6
-1.232, 1.420e-6
-1.233, 1.314e-6
-1.234, 1.335e-6
-1.235, 1.363e-6
-1.236, 1.392e-6
-1.237, 1.383e-6
-1.238, 1.357e-6
-1.239, 1.385e-6
-1.240, 1.350e-6
-1.241, 1.382e-6
-1.242, 1.416e-6
-1.243, 1.397e-6
-1.244, 1.396e-6
-1.245, 1.406e-6
-1.246, 1.409e-6
-1.247, 1.427e-6
-1.248, 1.400e-6
-1.249, 1.395e-6
-1.250, 1.434e-6
-1.251, 1.485e-6
-1.252, 1.414e-6
-1.253, 1.412e-6
-1.254, 1.476e-6
-1.255, 1.440e-6
-1.256, 1.494e-6
-1.257, 1.481e-6
-1.258, 1.443e-6
-1.259, 1.434e-6
-1.260, 1.483e-6
-1.261, 1.519e-6
-1.262, 1.492e-6
-1.263, 1.475e-6
-1.264, 1.494e-6
-1.265, 1.418e-6
-1.266, 1.517e-6
-1.267, 1.523e-6
-1.268, 1.522e-6
-1.269, 1.496e-6
-1.270, 1.503e-6
-1.271, 1.544e-6
-1.272, 1.495e-6
-1.273, 1.516e-6
-1.274, 1.544e-6
-1.275, 1.515e-6
-1.276, 1.548e-6
-1.277, 1.550e-6
-1.278, 1.534e-6
-1.279, 1.526e-6
-1.280, 1.568e-6
-1.281, 1.586e-6
-1.282, 1.560e-6
-1.283, 1.583e-6
-1.284, 1.585e-6
-1.285, 1.568e-6
-1.286, 1.596e-6
-1.287, 1.633e-6
-1.288, 1.596e-6
-1.289, 1.573e-6
-1.290, 1.626e-6
-1.291, 1.598e-6
-1.292, 1.605e-6
-1.293, 1.616e-6
-1.294, 1.595e-6
-1.295, 1.623e-6
-1.296, 1.651e-6
-1.297, 1.636e-6
-1.298, 1.636e-6
-1.299, 1.642e-6
-1.300, 1.636e-6
-1.301, 1.647e-6
-1.302, 1.664e-6
-1.303, 1.670e-6
-1.304, 1.658e-6
-1.305, 1.648e-6
-1.306, 1.724e-6
-1.307, 1.690e-6
-1.308, 1.683e-6
-1.309, 1.675e-6
-1.310, 1.641e-6
-1.311, 1.721e-6
-1.312, 1.728e-6
-1.313, 1.667e-6
-1.314, 1.685e-6
-1.315, 1.723e-6
-1.316, 1.715e-6
-1.317, 1.723e-6
-1.318, 1.744e-6
-1.319, 1.694e-6
-1.320, 1.713e-6
-1.321, 1.767e-6
-1.322, 1.734e-6
-1.323, 1.731e-6
-1.324, 1.741e-6
-1.325, 1.776e-6
-1.326, 1.819e-6
-1.327, 1.772e-6
-1.328, 1.812e-6
-1.329, 1.746e-6
-1.330, 1.749e-6
-1.331, 1.830e-6
-1.332, 1.796e-6
-1.333, 1.822e-6
-1.334, 1.774e-6
-1.335, 1.806e-6
-1.336, 1.829e-6
-1.337, 1.813e-6
-1.338, 1.808e-6
-1.339, 1.815e-6
-1.340, 1.796e-6
-1.341, 1.862e-6
-1.342, 1.844e-6
-1.343, 1.845e-6
-1.344, 1.803e-6
-1.345, 1.860e-6
-1.346, 1.879e-6
-1.347, 1.852e-6
-1.348, 1.848e-6
-1.349, 1.902e-6
-1.350, 1.869e-6
-1.351, 1.901e-6
-1.352, 1.886e-6
-1.353, 1.895e-6
-1.354, 1.911e-6
-1.355, 1.870e-6
-1.356, 1.918e-6
-1.357, 1.953e-6
-1.358, 1.925e-6
-1.359, 1.876e-6
-1.360, 1.920e-6
-1.361, 1.978e-6
-1.362, 1.962e-6
-1.363, 1.953e-6
-1.364, 1.953e-6
-1.365, 1.944e-6
-1.366, 1.966e-6
-1.367, 1.984e-6
-1.368, 1.963e-6
-1.369, 1.950e-6
-1.370, 1.995e-6
-1.371, 2.043e-6
-1.372, 2.005e-6
-1.373, 1.993e-6
-1.374, 2.032e-6
-1.375, 2.003e-6
-1.376, 2.059e-6
-1.377, 2.040e-6
-1.378, 2.044e-6
-1.379, 2.044e-6
-1.380, 2.039e-6
-1.381, 2.132e-6
-1.382, 2.066e-6
-1.383, 2.063e-6
-1.384, 2.078e-6
-1.385, 2.105e-6
-1.386, 2.126e-6
-1.387, 2.135e-6
-1.388, 2.090e-6
-1.389, 2.109e-6
-1.390, 2.142e-6
-1.391, 2.158e-6
-1.392, 2.127e-6
-1.393, 2.165e-6
-1.394, 2.147e-6
-1.395, 2.142e-6
-1.396, 2.231e-6
-1.397, 2.207e-6
-1.398, 2.176e-6
-1.399, 2.167e-6
-1.400, 1.836e-6
-1.399, 1.533e-6
-1.398, 1.332e-6
-1.397, 1.183e-6
-1.396, 1.104e-6
-1.395, 9.746e-7
-1.394, 9.371e-7
-1.393, 9.242e-7
-1.392, 8.256e-7
-1.391, 7.545e-7
-1.390, 7.595e-7
-1.389, 7.171e-7
-1.388, 6.510e-7
-1.387, 6.253e-7
-1.386, 5.691e-7
-1.385, 5.474e-7
-1.384, 5.464e-7
-1.383, 5.118e-7
-1.382, 4.576e-7
-1.381, 4.319e-7
-1.380, 4.388e-7
-1.379, 4.221e-7
-1.378, 3.826e-7
-1.377, 3.491e-7
-1.376, 3.343e-7
-1.375, 3.037e-7
-1.374, 3.461e-7
-1.373, 3.491e-7
-1.372, 2.780e-7
-1.371, 2.198e-7
-1.370, 2.672e-7
-1.369, 2.149e-7
-1.368, 2.376e-7
-1.367, 2.169e-7
-1.366, 1.942e-7
-1.365, 1.744e-7
-1.364, 1.843e-7
-1.363, 1.665e-7
-1.362, 1.261e-7
-1.361, 1.231e-7
-1.360, 1.073e-7
-1.359, 8.958e-8
-1.358, 7.478e-8
-1.357, 9.156e-8
-1.356, 6.294e-8
-1.355, 7.084e-8
-1.354, 6.590e-8
-1.353, 4.321e-8
-1.352, 7.873e-8
-1.351, 3.236e-8
-1.350, -3.157e-9
-1.349, 4.815e-8
-1.348, 4.223e-8
-1.347, -1.894e-8
-1.346, -2.782e-8
-1.345, 4.815e-8
-1.344, -3.078e-8
-1.343, -1.993e-8
-1.342, -1.302e-8
-1.341, -8.110e-8
-1.340, -8.899e-8
-1.339, -2.190e-8
-1.338, -3.078e-8
-1.337, -7.025e-8
-1.336, -1.097e-7
-1.335, -7.715e-8
-1.334, -6.926e-8
-1.333, -3.374e-8
-1.332, -9.688e-8
-1.331, -1.748e-7
-1.330, -1.176e-7
-1.329, -1.008e-7
-1.328, -1.235e-7
-1.327, -1.482e-7
-1.326, -1.196e-7
-1.325, -1.462e-7
-1.324, -1.620e-7
-1.323, -1.196e-7
-1.322, -1.689e-7
-1.321, -1.452e-7
-1.320, -1.413e-7
-1.319, -1.620e-7
-1.318, -1.679e-7
-1.317, -1.659e-7
-1.316, -1.817e-7
-1.315, -2.064e-7
-1.314, -1.620e-7
-1.313, -1.729e-7
-1.312, -2.044e-7
-1.311, -2.143e-7
-1.310, -1.985e-7
-1.309, -1.778e-7
-1.308, -1.719e-7
-1.307, -2.123e-7
-1.306, -2.557e-7
-1.305, -2.291e-7
-1.304, -1.788e-7
-1.303, -2.320e-7
-1.302, -2.666e-7
-1.301, -2.508e-7
-1.300, -2.202e-7
-1.299, -2.390e-7
-1.298, -1.926e-7
-1.297, -2.607e-7
-1.296, -2.488e-7
-1.295, -2.616e-7
-1.294, -2.350e-7
-1.293, -2.695e-7
-1.292, -2.745e-7
-1.291, -2.764e-7
-1.290, -2.764e-7
-1.289, -2.735e-7
-1.288, -2.755e-7
-1.287, -2.824e-7
-1.286, -2.912e-7
-1.285, -2.340e-7
-1.284, -2.676e-7
-1.283, -2.784e-7
-1.282, -2.794e-7
-1.281, -3.120e-7
-1.280, -3.277e-7
-1.279, -2.330e-7
-1.278, -3.051e-7
-1.277, -3.396e-7
-1.276, -3.287e-7
-1.275, -3.100e-7
-1.274, -3.031e-7
-1.273, -2.804e-7
-1.272, -3.129e-7
-1.271, -3.603e-7
-1.270, -3.070e-7
-1.269, -2.370e-7
-1.268, -3.554e-7
-1.267, -3.110e-7
-1.266, -3.287e-7
-1.265, -3.366e-7
-1.264, -2.991e-7
-1.263, -3.060e-7
-1.262, -3.623e-7
-1.261, -3.721e-7
-1.260, -3.149e-7
-1.259, -3.277e-7
-1.258, -3.070e-7
-1.257, -3.524e-7
-1.256, -3.248e-7
-1.255, -3.001e-7
-1.254, -3.277e-7
-1.253, -3.514e-7
-1.252, -3.712e-7
-1.251, -3.554e-7
-1.250, -3.485e-7
-1.249, -3.554e-7
-1.248, -3.277e-7
-1.247, -3.682e-7
-1.246, -3.800e-7
-1.245, -3.208e-7
-1.244, -3.603e-7
-1.243, -3.090e-7
-1.242, -3.455e-7
-1.241, -3.781e-7
-1.240, -3.909e-7
-1.239, -3.347e-7
-1.238, -3.692e-7
-1.237, -4.017e-7
-1.236, -3.396e-7
-1.235, -3.741e-7
-1.234, -3.208e-7
-1.233, -3.781e-7
-1.232, -3.840e-7
-1.231, -4.225e-7
-1.230, -3.534e-7
-1.229, -3.741e-7
-1.228, -3.978e-7
-1.227, -3.790e-7
-1.226, -3.919e-7
-1.225, -3.919e-7
-1.224, -3.741e-7
-1.223, -3.643e-7
-1.222, -4.225e-7
-1.221, -4.116e-7
-1.220, -3.820e-7
-1.219, -3.781e-7
-1.218, -4.225e-7
-1.217, -4.136e-7
-1.216, -3.781e-7
-1.215, -4.146e-7
-1.214, -3.672e-7
-1.213, -4.560e-7
-1.212, -4.106e-7
-1.211, -4.264e-7
-1.210, -4.175e-7
-1.209, -4.234e-7
-1.208, -3.978e-7
-1.207, -4.136e-7
-1.206, -4.530e-7
-1.205, -3.919e-7
-1.204, -3.820e-7
-1.203, -4.392e-7
-1.202, -4.767e-7
-1.201, -4.284e-7
-1.200, -4.708e-7
-1.199, -4.392e-7
-1.198, -4.185e-7
-1.197, -4.471e-7
-1.196, -4.175e-7
-1.195, -4.264e-7
-1.194, -4.077e-7
-1.193, -4.590e-7
-1.192, -4.392e-7
-1.191, -4.304e-7
-1.190, -4.649e-7
-1.189, -4.353e-7
-1.188, -4.530e-7
-1.187, -4.353e-7
-1.186, -4.313e-7
-1.185, -4.254e-7
-1.184, -4.353e-7
-1.183, -4.580e-7
-1.182, -4.422e-7
-1.181, -4.925e-7
-1.180, -4.600e-7
-1.179, -4.156e-7
-1.178, -4.925e-7
-1.177, -4.629e-7
-1.176, -4.708e-7
-1.175, -4.521e-7
-1.174, -4.570e-7
-1.173, -4.511e-7
-1.172, -4.491e-7
-1.171, -4.915e-7
-1.170, -4.225e-7
-1.169, -4.432e-7
-1.168, -4.521e-7
-1.167, -4.511e-7
-1.166, -4.619e-7
-1.165, -4.678e-7
-1.164, -4.313e-7
-1.163, -4.678e-7
-1.162, -5.073e-7
-1.161, -4.491e-7
-1.160, -4.609e-7
-1.159, -4.826e-7
-1.158, -4.373e-7
-1.157, -4.984e-7
-1.156, -4.738e-7
-1.155, -4.313e-7
-1.154, -4.412e-7
-1.153, -4.767e-7
-1.152, -4.353e-7
-1.151, -4.738e-7
-1.150, -4.659e-7
-1.149, -4.807e-7
-1.148, -4.649e-7
-1.147, -5.261e-7
-1.146, -4.777e-7
-1.145, -4.935e-7
-1.144, -5.024e-7
-1.143, -4.678e-7
-1.142, -5.063e-7
-1.141, -5.122e-7
-1.140, -4.698e-7
-1.139, -4.511e-7
-1.138, -5.083e-7
-1.137, -5.201e-7
-1.136, -4.747e-7
-1.135, -4.807e-7
-1.134, -5.132e-7
-1.133, -4.669e-7
-1.132, -5.053e-7
-1.131, -5.103e-7
-1.130, -4.521e-7
-1.129, -4.797e-7
-1.128, -4.600e-7
-1.127, -4.905e-7
-1.126, -5.280e-7
-1.125, -4.876e-7
-1.124, -4.461e-7
-1.123, -5.310e-7
-1.122, -5.349e-7
-1.121, -5.369e-7
-1.120, -4.629e-7
-1.119, -4.994e-7
-1.118, -5.399e-7
-1.117, -5.073e-7
-1.116, -5.083e-7
-1.115, -5.201e-7
-1.114, -4.392e-7
-1.113, -5.093e-7
-1.112, -5.241e-7
-1.111, -5.270e-7
-1.110, -5.399e-7
-1.109, -4.826e-7
-1.108, -4.955e-7
-1.107, -5.024e-7
-1.106, -5.300e-7
-1.105, -4.886e-7
-1.104, -4.846e-7
-1.103, -5.389e-7
-1.102, -5.093e-7
-1.101, -5.270e-7
-1.100, -5.349e-7
-1.099, -5.083e-7
-1.098, -5.231e-7
-1.097, -5.547e-7
-1.096, -4.876e-7
-1.095, -5.122e-7
-1.094, -4.974e-7
-1.093, -5.280e-7
-1.092, -5.527e-7
-1.091, -5.497e-7
-1.090, -5.014e-7
-1.089, -5.409e-7
-1.088, -5.428e-7
-1.087, -5.596e-7
-1.086, -5.261e-7
-1.085, -5.122e-7
-1.084, -5.142e-7
-1.083, -5.359e-7
-1.082, -5.034e-7
-1.081, -5.754e-7
-1.080, -5.231e-7
-1.079, -4.905e-7
-1.078, -5.428e-7
-1.077, -5.774e-7
-1.076, -5.201e-7
-1.075, -5.300e-7
-1.074, -5.557e-7
-1.073, -5.754e-7
-1.072, -5.191e-7
-1.071, -5.714e-7
-1.070, -5.547e-7
-1.069, -5.379e-7
-1.068, -5.359e-7
-1.067, -6.148e-7
-1.066, -5.448e-7
-1.065, -5.152e-7
-1.064, -5.083e-7
-1.063, -5.251e-7
-1.062, -5.428e-7
-1.061, -5.902e-7
-1.060, -5.527e-7
-1.059, -5.458e-7
-1.058, -5.734e-7
-1.057, -5.468e-7
-1.056, -5.547e-7
-1.055, -5.783e-7
-1.054, -5.458e-7
-1.053, -5.635e-7
-1.052, -5.793e-7
-1.051, -5.912e-7
-1.050, -5.438e-7
-1.049, -5.606e-7
-1.048, -5.793e-7
-1.047, -5.922e-7
-1.046, -5.695e-7
-1.045, -5.833e-7
-1.044, -5.458e-7
-1.043, -5.902e-7
-1.042, -6.000e-7
-1.041, -6.010e-7
-1.040, -5.774e-7
-1.039, -5.320e-7
-1.038, -5.754e-7
-1.037, -5.497e-7
-1.036, -6.079e-7
-1.035, -5.606e-7
-1.034, -5.221e-7
-1.033, -5.931e-7
-1.032, -5.951e-7
-1.031, -5.547e-7
-1.030, -5.793e-7
-1.029, -5.596e-7
-1.028, -5.576e-7
-1.027, -5.951e-7
-1.026, -6.070e-7
-1.025, -5.606e-7
-1.024, -5.734e-7
-1.023, -6.040e-7
-1.022, -6.148e-7
-1.021, -6.000e-7
-1.020, -5.695e-7
-1.019, -5.734e-7
-1.018, -5.704e-7
-1.017, -6.405e-7
-1.016, -6.040e-7
-1.015, -6.010e-7
-1.014, -5.764e-7
-1.013, -6.188e-7
-1.012, -5.872e-7
-1.011, -6.316e-7
-1.010, -5.862e-7
-1.009, -5.517e-7
-1.008, -5.823e-7
-1.007, -6.622e-7
-1.006, -6.020e-7
-1.005, -6.040e-7
-1.004, -6.070e-7
-1.003, -6.346e-7
-1.002, -6.040e-7
-1.001, -6.208e-7
-1.000, -4.511e-7
-1.001, -3.090e-7
-1.002, -2.468e-7
-1.003, -2.528e-7
-1.004, -2.034e-7
-1.005, -1.363e-7
-1.006, -1.166e-7
-1.007, -9.392e-8
-1.008, -5.347e-8
-1.009, -1.796e-8
-1.010, 1.855e-8
-1.011, 6.886e-8
-1.012, 2.249e-8
-1.013, 7.182e-8
-1.014, 1.073e-7
-1.015, 1.458e-7
-1.016, 9.649e-8
-1.017, 1.488e-7
-1.018, 1.202e-7
-1.019, 1.468e-7
-1.020, 1.833e-7
-1.021, 2.386e-7
-1.022, 1.892e-7
-1.023, 2.188e-7
-1.024, 2.494e-7
-1.025, 2.425e-7
-1.026, 2.918e-7
-1.027, 2.622e-7
-1.028, 3.116e-7
-1.029, 3.017e-7
-1.030, 3.658e-7
-1.031, 3.086e-7
-1.032, 3.116e-7
-1.033, 3.323e-7
-1.034, 3.204e-7
-1.035, 3.777e-7
-1.036, 3.688e-7
-1.037, 4.053e-7
-1.038, 3.639e-7
-1.039, 3.668e-7
-1.040, 4.300e-7
-1.041, 4.388e-7
-1.042, 4.369e-7
-1.043, 4.566e-7
-1.044, 3.806e-7
-1.045, 4.635e-7
-1.046, 4.477e-7
-1.047, 4.734e-7
-1.048, 4.536e-7
-1.049, 4.862e-7
-1.050, 5.365e-7
-1.051, 4.872e-7
-1.052, 4.714e-7
-1.053, 5.099e-7
-1.054, 4.970e-7
-1.055, 5.345e-7
-1.056, 5.602e-7
-1.057, 5.178e-7
-1.058, 5.109e-7
-1.059, 5.612e-7
-1.060, 5.345e-7
-1.061, 5.710e-7
-1.062, 5.622e-7
-1.063, 5.839e-7
-1.064, 5.691e-7
-1.065, 5.927e-7
-1.066, 6.342e-7
-1.067, 5.819e-7
-1.068, 5.661e-7
-1.069, 6.075e-7
-1.070, 5.809e-7
-1.071, 5.927e-7
-1.072, 6.470e-7
-1.073, 6.046e-7
-1.074, 6.283e-7
-1.075, 6.608e-7
-1.076, 6.450e-7
-1.077, 6.332e-7
-1.078, 6.421e-7
-1.079, 6.579e-7
-1.080, 6.786e-7
-1.081, 6.707e-7
-1.082, 6.519e-7
-1.083, 6.431e-7
-1.084, 6.963e-7
-1.085, 6.944e-7
-1.086, 6.944e-7
-1.087, 6.983e-7
-1.088, 7.319e-7
-1.089, 6.618e-7
-1.090, 7.250e-7
-1.091, 7.417e-7
-1.092, 7.111e-7
-1.093, 7.467e-7
-1.094, 7.259e-7
-1.095, 7.486e-7
-1.096, 6.865e-7
-1.097, 7.782e-7
-1.098, 7.585e-7
-1.099, 7.575e-7
-1.100, 7.841e-7
-1.101, 7.832e-7
-1.102, 7.447e-7
-1.103, 7.634e-7
-1.104, 7.970e-7
-1.105, 8.147e-7
-1.106, 8.137e-7
-1.107, 7.723e-7
-1.108, 7.289e-7
-1.109, 8.354e-7
-1.110, 8.187e-7
-1.111, 8.049e-7
-1.112, 8.128e-7
-1.113, 8.325e-7
-1.114, 8.394e-7
-1.115, 8.473e-7
-1.116, 8.611e-7
-1.117, 8.216e-7
-1.118, 8.137e-7
-1.119, 8.986e-7
-1.120, 8.670e-7
-1.121, 8.700e-7
-1.122, 8.700e-7
-1.123, 8.522e-7
-1.124, 8.670e-7
-1.125, 8.986e-7
-1.126, 8.838e-7
-1.127, 8.532e-7
-1.128, 8.956e-7
-1.129, 9.134e-7
-1.130, 9.154e-7
-1.131, 9.361e-7
-1.132, 8.937e-7
-1.133, 8.650e-7
-1.134, 9.252e-7
-1.135, 9.420e-7
-1.136, 9.193e-7
-1.137, 9.114e-7
-1.138, 9.607e-7
-1.139, 9.075e-7
-1.140, 9.686e-7
-1.141, 9.657e-7
-1.142, 9.617e-7
-1.143, 9.430e-7
-1.144, 9.795e-7
-1.145, 9.943e-7
-1.146, 9.588e-7
-1.147, 9.963e-7
-1.148, 9.519e-7
-1.149, 9.588e-7
-1.150, 1.025e-6
-1.151, 9.795e-7
-1.152, 1.014e-6
-1.153, 9.795e-7
-1.154, 9.844e-7
-1.155, 1.013e-6
-1.156, 1.033e-6
-1.157, 1.015e-6
-1.158, 9.834e-7
-1.159, 1.052e-6
-1.160, 1.080e-6
-1.161, 1.007e-6
-1.162, 1.069e-6
-1.163, 1.026e-6
-1.164, 1.044e-6
-1.165, 1.094e-6
-1.166, 1.075e-6
-1.167, 1.031e-6
-1.168, 1.043e-6
-1.169, 1.049e-6
-1.170, 1.096e-6
-1.171, 1.059e-6
-1.172, 1.089e-6
-1.173, 1.076e-6
-1.174, 1.067e-6
-1.175, 1.130e-6
-1.176, 1.101e-6
-1.177, 1.096e-6
-1.178, 1.105e-6
-1.179, 1.132e-6
-1.180, 1.104e-6
-1.181, 1.115e-6
-1.182, 1.117e-6
-1.183, 1.114e-6
-1.184, 1.128e-6
-1.185, 1.166e-6
-1.186, 1.139e-6
-1.187, 1.110e-6
-1.188, 1.116e-6
-1.189, 1.130e-6
-1.190, 1.143e-6
-1.191, 1.142e-6
-1.192, 1.185e-6
-1.193, 1.131e-6
-1.194, 1.205e-6
-1.195, 1.179e-6
-1.196, 1.135e-6
-1.197, 1.192e-6
-1.198, 1.178e-6
-1.199, 1.158e-6
-1.200, 1.216e-6
-1.201, 1.203e-6
-1.202, 1.167e-6
-1.203, 1.187e-6
-1.204, 1.236e-6
-1.205, 1.195e-6
-1.206, 1.191e-6
-1.207, 1.202e-6
-1.208, 1.200e-6
-1.209, 1.189e-6
-1.210, 1.224e-6
-1.211, 1.231e-6
-1.212, 1.206e-6
-1.213, 1.199e-6
-1.214, 1.245e-6
-1.215, 1.251e-6
-1.216, 1.225e-6
-1.217, 1.256e-6
-1.218, 1.224e-6
-1.219, 1.248e-6
-1.220, 1.289e-6
-1.221, 1.241e-6
-1.222, 1.286e-6
-1.223, 1.244e-6
-1.224, 1.297e-6
-1.225, 1.292e-6
-1.226, 1.281e-6
-1.227, 1.300e-6
-1.228, 1.288e-6
-1.229, 1.270e-6
-1.230, 1.304e-6
-1.231, 1.320e-6
-1.232, 1.305e-6
-1.233, 1.276e-6
-1.234, 1.325e-6
-1.235, 1.320e-6
-1.236, 1.344e-6
-1.237, 1.322e-6
-1.238, 1.322e-6
-1.239, 1.329e-6
-1.240, 1.390e-6
-1.241, 1.335e-6
-1.242, 1.363e-6
-1.243, 1.385e-6
-1.244, 1.321e-6
-1.245, 1.360e-6
-1.246, 1.397e-6
-1.247, 1.358e-6
-1.248, 1.357e-6
-1.249, 1.379e-6
-1.250, 1.355e-6
-1.251, 1.420e-6
-1.252, 1.386e-6
-1.253, 1.429e-6
-1.254, 1.378e-6
-1.255, 1.405e-6
-1.256, 1.422e-6
-1.257, 1.400e-6
-1.258, 1.435e-6
-1.259, 1.441e-6
-1.260, 1.434e-6
-1.261, 1.418e-6
-1.262, 1.432e-6
-1.263, 1.411e-6
-1.264, 1.415e-6
-1.265, 1.485e-6
-1.266, 1.443e-6
-1.267, 1.399e-6
-1.268, 1.460e-6
-1.269, 1.451e-6
-1.270, 1.505e-6
-1.271, 1.462e-6
-1.272, 1.452e-6
-1.273, 1.434e-6
-1.274, 1.476e-6
-1.275, 1.492e-6
-1.276, 1.478e-6
-1.277, 1.443e-6
-1.278, 1.490e-6
-1.279, 1.482e-6
-1.280, 1.545e-6
-1.281, 1.536e-6
-1.282, 1.482e-6
-1.283, 1.480e-6
-1.284, 1.547e-6
-1.285, 1.532e-6
-1.286, 1.530e-6
-1.287, 1.521e-6
-1.288, 1.508e-6
-1.289, 1.512e-6
-1.290, 1.588e-6
-1.291, 1.545e-6
-1.292, 1.512e-6
-1.293, 1.573e-6
-1.294, 1.531e-6
-1.295, 1.597e-6
-1.296, 1.595e-6
-1.297, 1.563e-6
-1.298, 1.550e-6
-1.299, 1.591e-6
-1.300, 1.562e-6
-1.301, 1.616e-6
-1.302, 1.612e-6
-1.303, 1.569e-6
-1.304, 1.589e-6
-1.305, 1.617e-6
-1.306, 1.633e-6
-1.307, 1.574e-6
-1.308, 1.599e-6
-1.309, 1.629e-6
-1.310, 1.645e-6
-1.311, 1.633e-6
-1.312, 1.595e-6
-1.313, 1.606e-6
-1.314, 1.652e-6
-1.315, 1.656e-6
-1.316, 1.642e-6
-1.317, 1.621e-6
-1.318, 1.599e-6
-1.319, 1.680e-6
-1.320, 1.702e-6
-1.321, 1.706e-6
-1.322, 1.679e-6
-1.323, 1.644e-6
-1.324, 1.660e-6
-1.325, 1.705e-6
-1.326, 1.720e-6
-1.327, 1.674e-6
-1.328, 1.666e-6
-1.329, 1.692e-6
-1.330, 1.701e-6
-1.331, 1.735e-6
-1.332, 1.706e-6
-1.333, 1.660e-6
-1.334, 1.769e-6
-1.335, 1.741e-6
-1.336, 1.699e-6
-1.337, 1.733e-6
-1.338, 1.721e-6
-1.339, 1.712e-6
-1.340, 1.753e-6
-1.341, 1.778e-6
-1.342, 1.766e-6
-1.343, 1.779e-6
-1.344, 1.723e-6
-1.345, 1.776e-6
-1.346, 1.809e-6
-1.347, 1.766e-6
-1.348, 1.704e-6
-1.349, 1.796e-6
-1.350, 1.814e-6
-1.351, 1.787e-6
-1.352, 1.779e-6
-1.353, 1.757e-6
-1.354, 1.798e-6
-1.355, 1.842e-6
-1.356, 1.800e-6
-1.357, 1.791e-6
-1.358, 1.816e-6
-1.359, 1.777e-6
-1.360, 1.876e-6
-1.361, 1.889e-6
-1.362, 1.826e-6
-1.363, 1.838e-6
-1.364, 1.879e-6
-1.365, 1.867e-6
-1.366, 1.897e-6
-1.367, 1.861e-6
-1.368, 1.862e-6
-1.369, 1.876e-6
-1.370, 1.898e-6
-1.371, 1.887e-6
-1.372, 1.887e-6
-1.373, 1.899e-6
-1.374, 1.890e-6
-1.375, 1.938e-6
-1.376, 1.929e-6
-1.377, 1.880e-6
-1.378, 1.884e-6
-1.379, 1.930e-6
-1.380, 1.959e-6
-1.381, 1.948e-6
-1.382, 1.920e-6
-1.383, 1.920e-6
-1.384, 1.965e-6
-1.385, 1.964e-6
-1.386, 1.956e-6
-1.387, 1.962e-6
-1.388, 1.964e-6
-1.389, 1.983e-6
-1.390, 2.030e-6
-1.391, 2.035e-6
-1.392, 2.010e-6
-1.393, 1.997e-6
-1.394, 2.036e-6
-1.395, 2.027e-6
-1.396, 2.089e-6
-1.397, 2.036e-6
-1.398, 2.012e-6
-1.399, 2.100e-6
-1.400, 1.705e-6
-1.399, 1.381e-6
-1.398, 1.201e-6
-1.397, 1.060e-6
-1.396, 9.874e-7
-1.395, 9.233e-7
-1.394, 8.631e-7
-1.393, 7.338e-7
-1.392, 7.111e-7
-1.391, 6.914e-7
-1.390, 6.480e-7
-1.389, 6.026e-7
-1.388, 5.671e-7
-1.387, 4.941e-7
-1.386, 5.168e-7
-1.385, 4.822e-7
-1.384, 4.388e-7
-1.383, 4.004e-7
-1.382, 3.441e-7
-1.381, 3.806e-7
-1.380, 3.530e-7
-1.379, 3.530e-7
-1.378, 2.859e-7
-1.377, 3.126e-7
-1.376, 2.751e-7
-1.375, 2.573e-7
-1.374, 2.603e-7
-1.373, 1.744e-7
-1.372, 1.794e-7
-1.371, 2.257e-7
-1.370, 1.774e-7
-1.369, 1.567e-7
-1.368, 1.330e-7
-1.367, 1.133e-7
-1.366, 1.350e-7
-1.365, 1.429e-7
-1.364, 8.662e-8
-1.363, 6.788e-8
-1.362, 8.860e-8
-1.361, 2.545e-8
-1.360, 9.748e-8
-1.359, 3.927e-8
-1.358, 7.281e-8
-1.357, 1.164e-8
-1.356, 3.236e-8
-1.355, 1.855e-8
-1.354, 2.644e-8
-1.353, -7.103e-9
-1.352, -2.881e-8
-1.351, 8.682e-9
-1.350, 3.927e-8
-1.349, -2.980e-8
-1.348, -5.643e-8
-1.347, -3.867e-8
-1.346, -7.222e-8
-1.345, -4.163e-8
-1.344, -3.275e-8
-1.343, -1.038e-7
-1.342, -5.841e-8
-1.341, -5.051e-8
-1.340, -8.702e-8
-1.339, -6.137e-8
-1.338, -6.630e-8
-1.337, -1.324e-7
-1.336, -9.392e-8
-1.335, -8.406e-8
-1.334, -1.502e-7
-1.333, -1.186e-7
-1.332, -1.413e-7
-1.331, -1.433e-7
-1.330, -1.038e-7
-1.329, -1.442e-7
-1.328, -1.689e-7
-1.327, -1.630e-7
-1.326, -1.600e-7
-1.325, -1.452e-7
-1.324, -1.521e-7
-1.323, -2.172e-7
-1.322, -2.094e-7
-1.321, -1.561e-7
-1.320, -1.729e-7
-1.319, -1.936e-7
-1.318, -2.172e-7
-1.317, -2.577e-7
-1.316, -1.936e-7
-1.315, -2.113e-7
-1.314, -1.837e-7
-1.313, -2.172e-7
-1.312, -2.311e-7
-1.311, -2.686e-7
-1.310, -2.232e-7
-1.309, -2.113e-7
-1.308, -2.478e-7
-1.307, -2.824e-7
-1.306, -2.094e-7
-1.305, -2.172e-7
-1.304, -2.646e-7
-1.303, -2.686e-7
-1.302, -2.577e-7
-1.301, -2.597e-7
-1.300, -2.064e-7
-1.299, -2.784e-7
-1.298, -2.834e-7
-1.297, -2.686e-7
-1.296, -2.804e-7
-1.295, -2.764e-7
-1.294, -2.626e-7
-1.293, -2.863e-7
-1.292, -3.090e-7
-1.291, -2.784e-7
-1.290, -2.725e-7
-1.289, -2.705e-7
-1.288, -2.567e-7
-1.287, -3.475e-7
-1.286, -3.070e-7
-1.285, -2.952e-7
-1.284, -3.218e-7
-1.283, -2.883e-7
-1.282, -2.883e-7
-1.281, -3.376e-7
-1.280, -2.745e-7
-1.279, -3.238e-7
-1.278, -3.356e-7
-1.277, -3.327e-7
-1.276, -3.060e-7
-1.275, -3.623e-7
-1.274, -3.041e-7
-1.273, -3.485e-7
-1.272, -3.573e-7
-1.271, -2.922e-7
-1.270, -3.139e-7
-1.269, -3.514e-7
-1.268, -3.643e-7
-1.267, -3.495e-7
-1.266, -3.465e-7
-1.265, -3.386e-7
-1.264, -3.564e-7
-1.263, -3.514e-7
-1.262, -3.692e-7
-1.261, -3.366e-7
-1.260, -3.277e-7
-1.259, -3.376e-7
-1.258, -3.741e-7
-1.257, -3.652e-7
-1.256, -3.613e-7
-1.255, -3.100e-7
-1.254, -3.692e-7
-1.253, -3.781e-7
-1.252, -3.554e-7
-1.251, -3.850e-7
-1.250, -3.662e-7
-1.249, -3.603e-7
-1.248, -3.958e-7
-1.247, -3.938e-7
-1.246, -3.800e-7
-1.245, -3.534e-7
-1.244, -3.554e-7
-1.243, -4.037e-7
-1.242, -4.146e-7
-1.241, -4.047e-7
-1.240, -3.623e-7
-1.239, -4.165e-7
-1.238, -4.027e-7
-1.237, -3.692e-7
-1.236, -4.047e-7
-1.235, -4.185e-7
-1.234, -3.593e-7
-1.233, -4.382e-7
-1.232, -4.017e-7
-1.231, -3.741e-7
-1.230, -3.958e-7
-1.229, -4.234e-7
-1.228, -4.373e-7
-1.227, -4.767e-7
-1.226, -4.373e-7
-1.225, -3.682e-7
-1.224, -4.422e-7
-1.223, -4.452e-7
-1.222, -4.057e-7
-1.221, -3.948e-7
-1.220, -4.274e-7
-1.219, -4.126e-7
-1.218, -4.698e-7
-1.217, -4.945e-7
-1.216, -4.225e-7
-1.215, -4.037e-7
-1.214, -4.649e-7
-1.213, -4.175e-7
-1.212, -4.244e-7
-1.211, -4.323e-7
-1.210, -4.294e-7
-1.209, -4.471e-7
-1.208, -4.452e-7
-1.207, -4.432e-7
-1.206, -4.363e-7
-1.205, -4.540e-7
-1.204, -3.968e-7
-1.203, -4.895e-7
-1.202, -4.767e-7
-1.201, -4.353e-7
-1.200, -3.968e-7
-1.199, -4.402e-7
-1.198, -4.817e-7
-1.197, -4.530e-7
-1.196, -4.570e-7
-1.195, -4.363e-7
-1.194, -4.540e-7
-1.193, -4.708e-7
-1.192, -4.373e-7
-1.191, -4.649e-7
-1.190, -4.757e-7
-1.189, -4.195e-7
-1.188, -4.481e-7
-1.187, -4.846e-7
-1.186, -4.935e-7
-1.185, -4.096e-7
-1.184, -4.747e-7
-1.183, -4.836e-7
-1.182, -4.432e-7
-1.181, -4.738e-7
-1.180, -4.609e-7
-1.179, -4.323e-7
-1.178, -4.708e-7
-1.177, -4.945e-7
-1.176, -4.323e-7
-1.175, -4.560e-7
-1.174, -4.501e-7
-1.173, -4.738e-7
-1.172, -5.034e-7
-1.171, -4.698e-7
-1.170, -4.116e-7
-1.169, -4.876e-7
-1.168, -4.649e-7
-1.167, -4.955e-7
-1.166, -4.757e-7
-1.165, -4.452e-7
-1.164, -4.609e-7
-1.163, -5.113e-7
-1.162, -5.034e-7
-1.161, -4.669e-7
-1.160, -4.688e-7
-1.159, -4.471e-7
-1.158, -5.191e-7
-1.157, -4.590e-7
-1.156, -4.895e-7
-1.155, -4.767e-7
-1.154, -4.343e-7
-1.153, -4.787e-7
-1.152, -4.905e-7
-1.151, -4.817e-7
-1.150, -5.014e-7
-1.149, -5.053e-7
-1.148, -4.817e-7
-1.147, -4.965e-7
-1.146, -5.073e-7
-1.145, -4.747e-7
-1.144, -5.270e-7
-1.143, -5.221e-7
-1.142, -4.471e-7
-1.141, -4.698e-7
-1.140, -4.915e-7
-1.139, -4.669e-7
-1.138, -5.004e-7
-1.137, -5.053e-7
-1.136, -5.201e-7
-1.135, -4.708e-7
-1.134, -5.270e-7
-1.133, -4.866e-7
-1.132, -5.103e-7
-1.131, -4.570e-7
-1.130, -4.856e-7
-1.129, -5.073e-7
-1.128, -5.201e-7
-1.127, -5.014e-7
-1.126, -5.024e-7
-1.125, -5.004e-7
-1.124, -5.221e-7
-1.123, -4.836e-7
-1.122, -5.704e-7
-1.121, -4.905e-7
-1.120, -4.876e-7
-1.119, -5.458e-7
-1.118, -5.241e-7
-1.117, -5.004e-7
-1.116, -5.024e-7
-1.115, -4.846e-7
-1.114, -4.974e-7
-1.113, -5.182e-7
-1.112, -5.113e-7
-1.111, -4.718e-7
-1.110, -5.162e-7
-1.109, -5.428e-7
-1.108, -5.063e-7
-1.107, -5.971e-7
-1.106, -4.984e-7
-1.105, -4.905e-7
-1.104, -5.369e-7
-1.103, -5.635e-7
-1.102, -5.211e-7
-1.101, -5.034e-7
-1.100, -5.310e-7
-1.099, -5.399e-7
-1.098, -5.537e-7
-1.097, -5.182e-7
-1.096, -5.438e-7
-1.095, -5.063e-7
-1.094, -4.994e-7
-1.093, -5.241e-7
-1.092, -5.093e-7
-1.091, -5.270e-7
-1.090, -5.330e-7
-1.089, -5.438e-7
-1.088, -5.487e-7
-1.087, -5.497e-7
-1.086, -5.063e-7
-1.085, -5.448e-7
-1.084, -5.497e-7
-1.083, -5.339e-7
-1.082, -5.458e-7
-1.081, -5.497e-7
-1.080, -5.014e-7
-1.079, -5.764e-7
-1.078, -5.606e-7
-1.077, -5.349e-7
-1.076, -5.290e-7
-1.075, -5.359e-7
-1.074, -5.596e-7
-1.073, -6.148e-7
-1.072, -5.448e-7
-1.071, -5.468e-7
-1.070, -5.487e-7
-1.069, -5.734e-7
-1.068, -5.714e-7
-1.067, -6.218e-7
-1.066, -5.478e-7
-1.065, -5.566e-7
-1.064, -5.734e-7
-1.063, -5.665e-7
-1.062, -5.764e-7
-1.061, -5.872e-7
-1.060, -5.724e-7
-1.059, -5.566e-7
-1.058, -5.359e-7
-1.057, -6.089e-7
-1.056, -5.251e-7
-1.055, -5.270e-7
-1.054, -5.774e-7
-1.053, -5.744e-7
-1.052, -5.576e-7
-1.051, -5.981e-7
-1.050, -5.626e-7
-1.049, -5.744e-7
-1.048, -6.148e-7
-1.047, -5.685e-7
-1.046, -5.764e-7
-1.045, -5.566e-7
-1.044, -5.813e-7
-1.043, -5.704e-7
-1.042, -5.882e-7
-1.041, -6.040e-7
-1.040, -5.981e-7
-1.039, -5.961e-7
-1.038, -5.813e-7
-1.037, -5.951e-7
-1.036, -5.438e-7
-1.035, -6.030e-7
-1.034, -6.040e-7
-1.033, -5.764e-7
-1.032, -6.158e-7
-1.031, -5.675e-7
-1.030, -6.060e-7
-1.029, -6.109e-7
-1.028, -6.336e-7
-1.027, -5.931e-7
-1.026, -6.089e-7
-1.025, -6.070e-7
-1.024, -6.257e-7
-1.023, -6.474e-7
-1.022, -6.089e-7
-1.021, -6.079e-7
-1.020, -6.109e-7
-1.019, -6.346e-7
-1.018, -6.188e-7
-1.017, -6.257e-7
-1.016, -5.803e-7
-1.015, -5.922e-7
-1.014, -6.425e-7
-1.013, -6.188e-7
-1.012, -6.198e-7
-1.011, -6.227e-7
-1.010, -6.435e-7
-1.009, -6.089e-7
-1.008, -6.356e-7
-1.007, -6.523e-7
-1.006, -6.494e-7
-1.005, -5.931e-7
-1.004, -6.474e-7
-1.003, -6.227e-7
-1.002, -6.287e-7
-1.001, -6.336e-7
