Mar. 29, 2025   21:38:18
Linear Sweep Voltammetry
File: c:/users/guazh/data/banditlqround7_x0exp518_r20/2025-03-28-exp983\1acid_1ac-2025-03-29t21_35_09-lsvinphos\1acid_1ac_lsv_50mvs_efin_-2100mv.bin
Data Source:  Experiment
Instrument Model:  CHI760E
Header: LSV ran at 50 mVs with Efin at -2100mV
Note: 

Init E (V) = -0.6
Final E (V) = -2.1
Scan Rate (V/s) = 0.05
Sample Interval (V) = 0.001
Quiet Time (sec) = 2
Sensitivity (A/V) = 1e-4
Comp R (ohm) = 9.0

Results:

Channel 1:
Ep = -1.862V
ip = 8.904e-4A
Ah = 9.985e-4C

Potential/V, Current/A

-0.600, 2.080e-6
-0.601, 2.170e-6
-0.602, 2.204e-6
-0.603, 2.230e-6
-0.604, 2.254e-6
-0.605, 2.279e-6
-0.606, 2.304e-6
-0.607, 2.328e-6
-0.608, 2.352e-6
-0.609, 2.376e-6
-0.610, 2.399e-6
-0.611, 2.424e-6
-0.612, 2.447e-6
-0.613, 2.469e-6
-0.614, 2.494e-6
-0.615, 2.521e-6
-0.616, 2.547e-6
-0.617, 2.571e-6
-0.618, 2.594e-6
-0.619, 2.620e-6
-0.620, 2.644e-6
-0.621, 2.670e-6
-0.622, 2.696e-6
-0.623, 2.720e-6
-0.624, 2.745e-6
-0.625, 2.772e-6
-0.626, 2.800e-6
-0.627, 2.827e-6
-0.628, 2.852e-6
-0.629, 2.877e-6
-0.630, 2.905e-6
-0.631, 2.933e-6
-0.632, 2.959e-6
-0.633, 2.987e-6
-0.634, 3.013e-6
-0.635, 3.041e-6
-0.636, 3.070e-6
-0.637, 3.097e-6
-0.638, 3.127e-6
-0.639, 3.155e-6
-0.640, 3.184e-6
-0.641, 3.214e-6
-0.642, 3.241e-6
-0.643, 3.269e-6
-0.644, 3.298e-6
-0.645, 3.328e-6
-0.646, 3.361e-6
-0.647, 3.390e-6
-0.648, 3.419e-6
-0.649, 3.449e-6
-0.650, 3.479e-6
-0.651, 3.511e-6
-0.652, 3.540e-6
-0.653, 3.571e-6
-0.654, 3.604e-6
-0.655, 3.633e-6
-0.656, 3.666e-6
-0.657, 3.697e-6
-0.658, 3.728e-6
-0.659, 3.760e-6
-0.660, 3.791e-6
-0.661, 3.826e-6
-0.662, 3.859e-6
-0.663, 3.890e-6
-0.664, 3.921e-6
-0.665, 3.955e-6
-0.666, 3.990e-6
-0.667, 4.023e-6
-0.668, 4.054e-6
-0.669, 4.086e-6
-0.670, 4.119e-6
-0.671, 4.154e-6
-0.672, 4.185e-6
-0.673, 4.218e-6
-0.674, 4.250e-6
-0.675, 4.284e-6
-0.676, 4.319e-6
-0.677, 4.351e-6
-0.678, 4.386e-6
-0.679, 4.422e-6
-0.680, 4.457e-6
-0.681, 4.492e-6
-0.682, 4.526e-6
-0.683, 4.560e-6
-0.684, 4.595e-6
-0.685, 4.629e-6
-0.686, 4.666e-6
-0.687, 4.700e-6
-0.688, 4.733e-6
-0.689, 4.768e-6
-0.690, 4.803e-6
-0.691, 4.840e-6
-0.692, 4.875e-6
-0.693, 4.908e-6
-0.694, 4.943e-6
-0.695, 4.979e-6
-0.696, 5.015e-6
-0.697, 5.049e-6
-0.698, 5.084e-6
-0.699, 5.119e-6
-0.700, 5.154e-6
-0.701, 5.189e-6
-0.702, 5.224e-6
-0.703, 5.260e-6
-0.704, 5.294e-6
-0.705, 5.330e-6
-0.706, 5.364e-6
-0.707, 5.398e-6
-0.708, 5.430e-6
-0.709, 5.465e-6
-0.710, 5.500e-6
-0.711, 5.535e-6
-0.712, 5.569e-6
-0.713, 5.603e-6
-0.714, 5.637e-6
-0.715, 5.669e-6
-0.716, 5.703e-6
-0.717, 5.736e-6
-0.718, 5.770e-6
-0.719, 5.806e-6
-0.720, 5.838e-6
-0.721, 5.870e-6
-0.722, 5.898e-6
-0.723, 5.929e-6
-0.724, 5.960e-6
-0.725, 5.993e-6
-0.726, 6.026e-6
-0.727, 6.055e-6
-0.728, 6.085e-6
-0.729, 6.116e-6
-0.730, 6.147e-6
-0.731, 6.178e-6
-0.732, 6.206e-6
-0.733, 6.232e-6
-0.734, 6.261e-6
-0.735, 6.289e-6
-0.736, 6.321e-6
-0.737, 6.349e-6
-0.738, 6.377e-6
-0.739, 6.405e-6
-0.740, 6.435e-6
-0.741, 6.465e-6
-0.742, 6.491e-6
-0.743, 6.517e-6
-0.744, 6.542e-6
-0.745, 6.571e-6
-0.746, 6.598e-6
-0.747, 6.623e-6
-0.748, 6.647e-6
-0.749, 6.671e-6
-0.750, 6.694e-6
-0.751, 6.717e-6
-0.752, 6.741e-6
-0.753, 6.762e-6
-0.754, 6.787e-6
-0.755, 6.811e-6
-0.756, 6.836e-6
-0.757, 6.856e-6
-0.758, 6.876e-6
-0.759, 6.894e-6
-0.760, 6.914e-6
-0.761, 6.934e-6
-0.762, 6.952e-6
-0.763, 6.968e-6
-0.764, 6.983e-6
-0.765, 7.000e-6
-0.766, 7.018e-6
-0.767, 7.034e-6
-0.768, 7.052e-6
-0.769, 7.068e-6
-0.770, 7.082e-6
-0.771, 7.098e-6
-0.772, 7.112e-6
-0.773, 7.126e-6
-0.774, 7.141e-6
-0.775, 7.152e-6
-0.776, 7.167e-6
-0.777, 7.178e-6
-0.778, 7.189e-6
-0.779, 7.198e-6
-0.780, 7.208e-6
-0.781, 7.219e-6
-0.782, 7.228e-6
-0.783, 7.237e-6
-0.784, 7.246e-6
-0.785, 7.254e-6
-0.786, 7.263e-6
-0.787, 7.271e-6
-0.788, 7.280e-6
-0.789, 7.285e-6
-0.790, 7.292e-6
-0.791, 7.300e-6
-0.792, 7.305e-6
-0.793, 7.311e-6
-0.794, 7.316e-6
-0.795, 7.321e-6
-0.796, 7.327e-6
-0.797, 7.330e-6
-0.798, 7.335e-6
-0.799, 7.336e-6
-0.800, 7.340e-6
-0.801, 7.343e-6
-0.802, 7.345e-6
-0.803, 7.347e-6
-0.804, 7.349e-6
-0.805, 7.352e-6
-0.806, 7.353e-6
-0.807, 7.353e-6
-0.808, 7.355e-6
-0.809, 7.355e-6
-0.810, 7.352e-6
-0.811, 7.356e-6
-0.812, 7.356e-6
-0.813, 7.354e-6
-0.814, 7.352e-6
-0.815, 7.349e-6
-0.816, 7.349e-6
-0.817, 7.346e-6
-0.818, 7.344e-6
-0.819, 7.343e-6
-0.820, 7.342e-6
-0.821, 7.339e-6
-0.822, 7.334e-6
-0.823, 7.330e-6
-0.824, 7.325e-6
-0.825, 7.323e-6
-0.826, 7.318e-6
-0.827, 7.314e-6
-0.828, 7.309e-6
-0.829, 7.304e-6
-0.830, 7.298e-6
-0.831, 7.293e-6
-0.832, 7.287e-6
-0.833, 7.281e-6
-0.834, 7.275e-6
-0.835, 7.270e-6
-0.836, 7.267e-6
-0.837, 7.259e-6
-0.838, 7.255e-6
-0.839, 7.250e-6
-0.840, 7.244e-6
-0.841, 7.240e-6
-0.842, 7.234e-6
-0.843, 7.228e-6
-0.844, 7.221e-6
-0.845, 7.214e-6
-0.846, 7.210e-6
-0.847, 7.202e-6
-0.848, 7.195e-6
-0.849, 7.187e-6
-0.850, 7.182e-6
-0.851, 7.177e-6
-0.852, 7.172e-6
-0.853, 7.159e-6
-0.854, 7.152e-6
-0.855, 7.145e-6
-0.856, 7.137e-6
-0.857, 7.130e-6
-0.858, 7.125e-6
-0.859, 7.120e-6
-0.860, 7.111e-6
-0.861, 7.103e-6
-0.862, 7.096e-6
-0.863, 7.092e-6
-0.864, 7.090e-6
-0.865, 7.081e-6
-0.866, 7.074e-6
-0.867, 7.069e-6
-0.868, 7.067e-6
-0.869, 7.058e-6
-0.870, 7.050e-6
-0.871, 7.041e-6
-0.872, 7.030e-6
-0.873, 7.025e-6
-0.874, 7.015e-6
-0.875, 7.011e-6
-0.876, 7.007e-6
-0.877, 6.998e-6
-0.878, 6.992e-6
-0.879, 6.984e-6
-0.880, 6.979e-6
-0.881, 6.974e-6
-0.882, 6.965e-6
-0.883, 6.957e-6
-0.884, 6.945e-6
-0.885, 6.934e-6
-0.886, 6.926e-6
-0.887, 6.916e-6
-0.888, 6.909e-6
-0.889, 6.902e-6
-0.890, 6.898e-6
-0.891, 6.894e-6
-0.892, 6.886e-6
-0.893, 6.879e-6
-0.894, 6.873e-6
-0.895, 6.868e-6
-0.896, 6.867e-6
-0.897, 6.857e-6
-0.898, 6.852e-6
-0.899, 6.852e-6
-0.900, 6.862e-6
-0.901, 6.841e-6
-0.902, 6.831e-6
-0.903, 6.842e-6
-0.904, 6.837e-6
-0.905, 6.830e-6
-0.906, 6.809e-6
-0.907, 6.797e-6
-0.908, 6.789e-6
-0.909, 6.784e-6
-0.910, 6.779e-6
-0.911, 6.771e-6
-0.912, 6.764e-6
-0.913, 6.760e-6
-0.914, 6.750e-6
-0.915, 6.742e-6
-0.916, 6.735e-6
-0.917, 6.728e-6
-0.918, 6.719e-6
-0.919, 6.713e-6
-0.920, 6.707e-6
-0.921, 6.699e-6
-0.922, 6.694e-6
-0.923, 6.688e-6
-0.924, 6.680e-6
-0.925, 6.674e-6
-0.926, 6.669e-6
-0.927, 6.662e-6
-0.928, 6.655e-6
-0.929, 6.651e-6
-0.930, 6.646e-6
-0.931, 6.645e-6
-0.932, 6.638e-6
-0.933, 6.631e-6
-0.934, 6.626e-6
-0.935, 6.623e-6
-0.936, 6.617e-6
-0.937, 6.611e-6
-0.938, 6.606e-6
-0.939, 6.597e-6
-0.940, 6.595e-6
-0.941, 6.592e-6
-0.942, 6.589e-6
-0.943, 6.584e-6
-0.944, 6.575e-6
-0.945, 6.570e-6
-0.946, 6.564e-6
-0.947, 6.560e-6
-0.948, 6.556e-6
-0.949, 6.552e-6
-0.950, 6.548e-6
-0.951, 6.544e-6
-0.952, 6.537e-6
-0.953, 6.533e-6
-0.954, 6.529e-6
-0.955, 6.526e-6
-0.956, 6.523e-6
-0.957, 6.520e-6
-0.958, 6.515e-6
-0.959, 6.510e-6
-0.960, 6.510e-6
-0.961, 6.505e-6
-0.962, 6.496e-6
-0.963, 6.491e-6
-0.964, 6.484e-6
-0.965, 6.480e-6
-0.966, 6.474e-6
-0.967, 6.469e-6
-0.968, 6.468e-6
-0.969, 6.459e-6
-0.970, 6.458e-6
-0.971, 6.455e-6
-0.972, 6.451e-6
-0.973, 6.446e-6
-0.974, 6.441e-6
-0.975, 6.441e-6
-0.976, 6.437e-6
-0.977, 6.434e-6
-0.978, 6.431e-6
-0.979, 6.430e-6
-0.980, 6.420e-6
-0.981, 6.413e-6
-0.982, 6.407e-6
-0.983, 6.404e-6
-0.984, 6.399e-6
-0.985, 6.398e-6
-0.986, 6.393e-6
-0.987, 6.389e-6
-0.988, 6.384e-6
-0.989, 6.376e-6
-0.990, 6.373e-6
-0.991, 6.374e-6
-0.992, 6.371e-6
-0.993, 6.367e-6
-0.994, 6.365e-6
-0.995, 6.362e-6
-0.996, 6.357e-6
-0.997, 6.353e-6
-0.998, 6.348e-6
-0.999, 6.346e-6
-1.000, 6.344e-6
-1.001, 6.337e-6
-1.002, 6.329e-6
-1.003, 6.323e-6
-1.004, 6.325e-6
-1.005, 6.324e-6
-1.006, 6.320e-6
-1.007, 6.318e-6
-1.008, 6.317e-6
-1.009, 6.307e-6
-1.010, 6.300e-6
-1.011, 6.300e-6
-1.012, 6.301e-6
-1.013, 6.300e-6
-1.014, 6.298e-6
-1.015, 6.296e-6
-1.016, 6.294e-6
-1.017, 6.285e-6
-1.018, 6.282e-6
-1.019, 6.280e-6
-1.020, 6.277e-6
-1.021, 6.275e-6
-1.022, 6.271e-6
-1.023, 6.264e-6
-1.024, 6.260e-6
-1.025, 6.258e-6
-1.026, 6.252e-6
-1.027, 6.249e-6
-1.028, 6.248e-6
-1.029, 6.245e-6
-1.030, 6.239e-6
-1.031, 6.236e-6
-1.032, 6.238e-6
-1.033, 6.233e-6
-1.034, 6.225e-6
-1.035, 6.222e-6
-1.036, 6.220e-6
-1.037, 6.217e-6
-1.038, 6.218e-6
-1.039, 6.212e-6
-1.040, 6.207e-6
-1.041, 6.203e-6
-1.042, 6.200e-6
-1.043, 6.201e-6
-1.044, 6.201e-6
-1.045, 6.197e-6
-1.046, 6.200e-6
-1.047, 6.202e-6
-1.048, 6.203e-6
-1.049, 6.199e-6
-1.050, 6.197e-6
-1.051, 6.195e-6
-1.052, 6.189e-6
-1.053, 6.187e-6
-1.054, 6.184e-6
-1.055, 6.182e-6
-1.056, 6.185e-6
-1.057, 6.186e-6
-1.058, 6.182e-6
-1.059, 6.184e-6
-1.060, 6.182e-6
-1.061, 6.177e-6
-1.062, 6.174e-6
-1.063, 6.177e-6
-1.064, 6.180e-6
-1.065, 6.182e-6
-1.066, 6.172e-6
-1.067, 6.174e-6
-1.068, 6.176e-6
-1.069, 6.171e-6
-1.070, 6.168e-6
-1.071, 6.169e-6
-1.072, 6.155e-6
-1.073, 6.152e-6
-1.074, 6.155e-6
-1.075, 6.156e-6
-1.076, 6.147e-6
-1.077, 6.144e-6
-1.078, 6.142e-6
-1.079, 6.141e-6
-1.080, 6.142e-6
-1.081, 6.138e-6
-1.082, 6.135e-6
-1.083, 6.134e-6
-1.084, 6.132e-6
-1.085, 6.132e-6
-1.086, 6.134e-6
-1.087, 6.134e-6
-1.088, 6.128e-6
-1.089, 6.121e-6
-1.090, 6.118e-6
-1.091, 6.122e-6
-1.092, 6.106e-6
-1.093, 6.109e-6
-1.094, 6.117e-6
-1.095, 6.115e-6
-1.096, 6.108e-6
-1.097, 6.109e-6
-1.098, 6.105e-6
-1.099, 6.107e-6
-1.100, 6.103e-6
-1.101, 6.105e-6
-1.102, 6.104e-6
-1.103, 6.093e-6
-1.104, 6.092e-6
-1.105, 6.093e-6
-1.106, 6.097e-6
-1.107, 6.104e-6
-1.108, 6.101e-6
-1.109, 6.090e-6
-1.110, 6.097e-6
-1.111, 6.107e-6
-1.112, 6.097e-6
-1.113, 6.088e-6
-1.114, 6.092e-6
-1.115, 6.092e-6
-1.116, 6.087e-6
-1.117, 6.084e-6
-1.118, 6.078e-6
-1.119, 6.065e-6
-1.120, 6.064e-6
-1.121, 6.069e-6
-1.122, 6.070e-6
-1.123, 6.068e-6
-1.124, 6.066e-6
-1.125, 6.080e-6
-1.126, 6.086e-6
-1.127, 6.081e-6
-1.128, 6.088e-6
-1.129, 6.096e-6
-1.130, 6.094e-6
-1.131, 6.086e-6
-1.132, 6.091e-6
-1.133, 6.085e-6
-1.134, 6.090e-6
-1.135, 6.083e-6
-1.136, 6.082e-6
-1.137, 6.088e-6
-1.138, 6.090e-6
-1.139, 6.087e-6
-1.140, 6.104e-6
-1.141, 6.104e-6
-1.142, 6.104e-6
-1.143, 6.099e-6
-1.144, 6.092e-6
-1.145, 6.096e-6
-1.146, 6.091e-6
-1.147, 6.088e-6
-1.148, 6.099e-6
-1.149, 6.096e-6
-1.150, 6.107e-6
-1.151, 6.100e-6
-1.152, 6.098e-6
-1.153, 6.097e-6
-1.154, 6.096e-6
-1.155, 6.098e-6
-1.156, 6.101e-6
-1.157, 6.108e-6
-1.158, 6.102e-6
-1.159, 6.091e-6
-1.160, 6.089e-6
-1.161, 6.099e-6
-1.162, 6.105e-6
-1.163, 6.107e-6
-1.164, 6.114e-6
-1.165, 6.125e-6
-1.166, 6.133e-6
-1.167, 6.131e-6
-1.168, 6.138e-6
-1.169, 6.140e-6
-1.170, 6.144e-6
-1.171, 6.160e-6
-1.172, 6.169e-6
-1.173, 6.174e-6
-1.174, 6.188e-6
-1.175, 6.210e-6
-1.176, 6.217e-6
-1.177, 6.201e-6
-1.178, 6.197e-6
-1.179, 6.191e-6
-1.180, 6.205e-6
-1.181, 6.215e-6
-1.182, 6.218e-6
-1.183, 6.218e-6
-1.184, 6.226e-6
-1.185, 6.218e-6
-1.186, 6.206e-6
-1.187, 6.219e-6
-1.188, 6.247e-6
-1.189, 6.252e-6
-1.190, 6.253e-6
-1.191, 6.240e-6
-1.192, 6.264e-6
-1.193, 6.273e-6
-1.194, 6.285e-6
-1.195, 6.307e-6
-1.196, 6.307e-6
-1.197, 6.326e-6
-1.198, 6.330e-6
-1.199, 6.332e-6
-1.200, 6.323e-6
-1.201, 6.335e-6
-1.202, 6.330e-6
-1.203, 6.317e-6
-1.204, 6.296e-6
-1.205, 6.298e-6
-1.206, 6.292e-6
-1.207, 6.305e-6
-1.208, 6.302e-6
-1.209, 6.309e-6
-1.210, 6.302e-6
-1.211, 6.300e-6
-1.212, 6.313e-6
-1.213, 6.315e-6
-1.214, 6.330e-6
-1.215, 6.361e-6
-1.216, 6.351e-6
-1.217, 6.347e-6
-1.218, 6.354e-6
-1.219, 6.347e-6
-1.220, 6.359e-6
-1.221, 6.363e-6
-1.222, 6.373e-6
-1.223, 6.382e-6
-1.224, 6.399e-6
-1.225, 6.368e-6
-1.226, 6.366e-6
-1.227, 6.376e-6
-1.228, 6.381e-6
-1.229, 6.374e-6
-1.230, 6.391e-6
-1.231, 6.396e-6
-1.232, 6.400e-6
-1.233, 6.419e-6
-1.234, 6.436e-6
-1.235, 6.439e-6
-1.236, 6.441e-6
-1.237, 6.451e-6
-1.238, 6.470e-6
-1.239, 6.468e-6
-1.240, 6.485e-6
-1.241, 6.477e-6
-1.242, 6.476e-6
-1.243, 6.494e-6
-1.244, 6.510e-6
-1.245, 6.519e-6
-1.246, 6.527e-6
-1.247, 6.546e-6
-1.248, 6.539e-6
-1.249, 6.529e-6
-1.250, 6.519e-6
-1.251, 6.538e-6
-1.252, 6.550e-6
-1.253, 6.543e-6
-1.254, 6.546e-6
-1.255, 6.540e-6
-1.256, 6.537e-6
-1.257, 6.531e-6
-1.258, 6.536e-6
-1.259, 6.542e-6
-1.260, 6.541e-6
-1.261, 6.543e-6
-1.262, 6.541e-6
-1.263, 6.560e-6
-1.264, 6.582e-6
-1.265, 6.586e-6
-1.266, 6.613e-6
-1.267, 6.601e-6
-1.268, 6.616e-6
-1.269, 6.614e-6
-1.270, 6.615e-6
-1.271, 6.624e-6
-1.272, 6.620e-6
-1.273, 6.631e-6
-1.274, 6.636e-6
-1.275, 6.637e-6
-1.276, 6.643e-6
-1.277, 6.647e-6
-1.278, 6.668e-6
-1.279, 6.674e-6
-1.280, 6.682e-6
-1.281, 6.693e-6
-1.282, 6.695e-6
-1.283, 6.719e-6
-1.284, 6.727e-6
-1.285, 6.738e-6
-1.286, 6.745e-6
-1.287, 6.761e-6
-1.288, 6.762e-6
-1.289, 6.771e-6
-1.290, 6.786e-6
-1.291, 6.802e-6
-1.292, 6.804e-6
-1.293, 6.816e-6
-1.294, 6.823e-6
-1.295, 6.852e-6
-1.296, 6.847e-6
-1.297, 6.850e-6
-1.298, 6.861e-6
-1.299, 6.866e-6
-1.300, 6.883e-6
-1.301, 6.901e-6
-1.302, 6.916e-6
-1.303, 6.925e-6
-1.304, 6.937e-6
-1.305, 6.945e-6
-1.306, 6.948e-6
-1.307, 6.955e-6
-1.308, 6.972e-6
-1.309, 6.992e-6
-1.310, 7.027e-6
-1.311, 7.028e-6
-1.312, 7.033e-6
-1.313, 7.071e-6
-1.314, 7.078e-6
-1.315, 7.083e-6
-1.316, 7.085e-6
-1.317, 7.102e-6
-1.318, 7.141e-6
-1.319, 7.169e-6
-1.320, 7.197e-6
-1.321, 7.214e-6
-1.322, 7.236e-6
-1.323, 7.254e-6
-1.324, 7.264e-6
-1.325, 7.272e-6
-1.326, 7.293e-6
-1.327, 7.300e-6
-1.328, 7.324e-6
-1.329, 7.332e-6
-1.330, 7.348e-6
-1.331, 7.365e-6
-1.332, 7.390e-6
-1.333, 7.408e-6
-1.334, 7.411e-6
-1.335, 7.432e-6
-1.336, 7.450e-6
-1.337, 7.455e-6
-1.338, 7.469e-6
-1.339, 7.480e-6
-1.340, 7.525e-6
-1.341, 7.535e-6
-1.342, 7.528e-6
-1.343, 7.558e-6
-1.344, 7.579e-6
-1.345, 7.587e-6
-1.346, 7.608e-6
-1.347, 7.635e-6
-1.348, 7.659e-6
-1.349, 7.692e-6
-1.350, 7.712e-6
-1.351, 7.753e-6
-1.352, 7.780e-6
-1.353, 7.819e-6
-1.354, 7.857e-6
-1.355, 7.882e-6
-1.356, 7.889e-6
-1.357, 7.891e-6
-1.358, 7.929e-6
-1.359, 7.963e-6
-1.360, 8.009e-6
-1.361, 8.023e-6
-1.362, 8.044e-6
-1.363, 8.063e-6
-1.364, 8.106e-6
-1.365, 8.138e-6
-1.366, 8.179e-6
-1.367, 8.213e-6
-1.368, 8.229e-6
-1.369, 8.261e-6
-1.370, 8.307e-6
-1.371, 8.308e-6
-1.372, 8.327e-6
-1.373, 8.357e-6
-1.374, 8.371e-6
-1.375, 8.403e-6
-1.376, 8.430e-6
-1.377, 8.474e-6
-1.378, 8.497e-6
-1.379, 8.558e-6
-1.380, 8.610e-6
-1.381, 8.648e-6
-1.382, 8.632e-6
-1.383, 8.692e-6
-1.384, 8.752e-6
-1.385, 8.719e-6
-1.386, 8.758e-6
-1.387, 8.827e-6
-1.388, 8.866e-6
-1.389, 8.873e-6
-1.390, 8.923e-6
-1.391, 8.968e-6
-1.392, 9.005e-6
-1.393, 9.017e-6
-1.394, 9.024e-6
-1.395, 9.054e-6
-1.396, 9.081e-6
-1.397, 9.130e-6
-1.398, 9.183e-6
-1.399, 9.204e-6
-1.400, 9.211e-6
-1.401, 9.268e-6
-1.402, 9.305e-6
-1.403, 9.368e-6
-1.404, 9.378e-6
-1.405, 9.380e-6
-1.406, 9.466e-6
-1.407, 9.512e-6
-1.408, 9.576e-6
-1.409, 9.545e-6
-1.410, 9.563e-6
-1.411, 9.641e-6
-1.412, 9.675e-6
-1.413, 9.704e-6
-1.414, 9.716e-6
-1.415, 9.759e-6
-1.416, 9.828e-6
-1.417, 9.855e-6
-1.418, 9.886e-6
-1.419, 9.964e-6
-1.420, 9.989e-6
-1.421, 1.008e-5
-1.422, 1.011e-5
-1.423, 1.015e-5
-1.424, 1.021e-5
-1.425, 1.027e-5
-1.426, 1.030e-5
-1.427, 1.033e-5
-1.428, 1.034e-5
-1.429, 1.039e-5
-1.430, 1.048e-5
-1.431, 1.053e-5
-1.432, 1.058e-5
-1.433, 1.057e-5
-1.434, 1.059e-5
-1.435, 1.066e-5
-1.436, 1.073e-5
-1.437, 1.074e-5
-1.438, 1.079e-5
-1.439, 1.090e-5
-1.440, 1.096e-5
-1.441, 1.103e-5
-1.442, 1.103e-5
-1.443, 1.107e-5
-1.444, 1.109e-5
-1.445, 1.121e-5
-1.446, 1.126e-5
-1.447, 1.132e-5
-1.448, 1.134e-5
-1.449, 1.130e-5
-1.450, 1.142e-5
-1.451, 1.150e-5
-1.452, 1.153e-5
-1.453, 1.156e-5
-1.454, 1.158e-5
-1.455, 1.164e-5
-1.456, 1.176e-5
-1.457, 1.182e-5
-1.458, 1.189e-5
-1.459, 1.199e-5
-1.460, 1.198e-5
-1.461, 1.200e-5
-1.462, 1.203e-5
-1.463, 1.208e-5
-1.464, 1.210e-5
-1.465, 1.210e-5
-1.466, 1.209e-5
-1.467, 1.212e-5
-1.468, 1.213e-5
-1.469, 1.220e-5
-1.470, 1.232e-5
-1.471, 1.242e-5
-1.472, 1.249e-5
-1.473, 1.254e-5
-1.474, 1.253e-5
-1.475, 1.256e-5
-1.476, 1.259e-5
-1.477, 1.263e-5
-1.478, 1.267e-5
-1.479, 1.273e-5
-1.480, 1.278e-5
-1.481, 1.284e-5
-1.482, 1.286e-5
-1.483, 1.284e-5
-1.484, 1.287e-5
-1.485, 1.295e-5
-1.486, 1.300e-5
-1.487, 1.305e-5
-1.488, 1.308e-5
-1.489, 1.310e-5
-1.490, 1.320e-5
-1.491, 1.325e-5
-1.492, 1.328e-5
-1.493, 1.331e-5
-1.494, 1.330e-5
-1.495, 1.338e-5
-1.496, 1.349e-5
-1.497, 1.356e-5
-1.498, 1.361e-5
-1.499, 1.368e-5
-1.500, 1.377e-5
-1.501, 1.375e-5
-1.502, 1.378e-5
-1.503, 1.382e-5
-1.504, 1.396e-5
-1.505, 1.414e-5
-1.506, 1.411e-5
-1.507, 1.415e-5
-1.508, 1.426e-5
-1.509, 1.439e-5
-1.510, 1.448e-5
-1.511, 1.450e-5
-1.512, 1.453e-5
-1.513, 1.458e-5
-1.514, 1.463e-5
-1.515, 1.465e-5
-1.516, 1.471e-5
-1.517, 1.479e-5
-1.518, 1.480e-5
-1.519, 1.487e-5
-1.520, 1.494e-5
-1.521, 1.504e-5
-1.522, 1.519e-5
-1.523, 1.533e-5
-1.524, 1.534e-5
-1.525, 1.540e-5
-1.526, 1.552e-5
-1.527, 1.553e-5
-1.528, 1.556e-5
-1.529, 1.562e-5
-1.530, 1.574e-5
-1.531, 1.580e-5
-1.532, 1.590e-5
-1.533, 1.600e-5
-1.534, 1.607e-5
-1.535, 1.617e-5
-1.536, 1.622e-5
-1.537, 1.629e-5
-1.538, 1.642e-5
-1.539, 1.656e-5
-1.540, 1.661e-5
-1.541, 1.669e-5
-1.542, 1.678e-5
-1.543, 1.689e-5
-1.544, 1.693e-5
-1.545, 1.703e-5
-1.546, 1.720e-5
-1.547, 1.736e-5
-1.548, 1.747e-5
-1.549, 1.760e-5
-1.550, 1.772e-5
-1.551, 1.778e-5
-1.552, 1.791e-5
-1.553, 1.801e-5
-1.554, 1.812e-5
-1.555, 1.827e-5
-1.556, 1.844e-5
-1.557, 1.853e-5
-1.558, 1.863e-5
-1.559, 1.873e-5
-1.560, 1.890e-5
-1.561, 1.908e-5
-1.562, 1.910e-5
-1.563, 1.914e-5
-1.564, 1.928e-5
-1.565, 1.942e-5
-1.566, 1.972e-5
-1.567, 1.982e-5
-1.568, 1.988e-5
-1.569, 2.001e-5
-1.570, 2.015e-5
-1.571, 2.031e-5
-1.572, 2.043e-5
-1.573, 2.069e-5
-1.574, 2.093e-5
-1.575, 2.104e-5
-1.576, 2.114e-5
-1.577, 2.125e-5
-1.578, 2.129e-5
-1.579, 2.154e-5
-1.580, 2.187e-5
-1.581, 2.226e-5
-1.582, 2.235e-5
-1.583, 2.214e-5
-1.584, 2.222e-5
-1.585, 2.240e-5
-1.586, 2.280e-5
-1.587, 2.314e-5
-1.588, 2.332e-5
-1.589, 2.349e-5
-1.590, 2.364e-5
-1.591, 2.379e-5
-1.592, 2.397e-5
-1.593, 2.429e-5
-1.594, 2.447e-5
-1.595, 2.469e-5
-1.596, 2.513e-5
-1.597, 2.550e-5
-1.598, 2.532e-5
-1.599, 2.544e-5
-1.600, 2.556e-5
-1.601, 2.578e-5
-1.602, 2.611e-5
-1.603, 2.632e-5
-1.604, 2.655e-5
-1.605, 2.671e-5
-1.606, 2.686e-5
-1.607, 2.712e-5
-1.608, 2.738e-5
-1.609, 2.752e-5
-1.610, 2.777e-5
-1.611, 2.821e-5
-1.612, 2.869e-5
-1.613, 2.896e-5
-1.614, 2.924e-5
-1.615, 2.948e-5
-1.616, 2.982e-5
-1.617, 3.017e-5
-1.618, 3.033e-5
-1.619, 3.072e-5
-1.620, 3.112e-5
-1.621, 3.131e-5
-1.622, 3.159e-5
-1.623, 3.201e-5
-1.624, 3.237e-5
-1.625, 3.265e-5
-1.626, 3.297e-5
-1.627, 3.331e-5
-1.628, 3.365e-5
-1.629, 3.400e-5
-1.630, 3.432e-5
-1.631, 3.473e-5
-1.632, 3.503e-5
-1.633, 3.534e-5
-1.634, 3.574e-5
-1.635, 3.611e-5
-1.636, 3.653e-5
-1.637, 3.688e-5
-1.638, 3.730e-5
-1.639, 3.785e-5
-1.640, 3.830e-5
-1.641, 3.871e-5
-1.642, 3.906e-5
-1.643, 3.951e-5
-1.644, 4.004e-5
-1.645, 4.042e-5
-1.646, 4.087e-5
-1.647, 4.145e-5
-1.648, 4.202e-5
-1.649, 4.251e-5
-1.650, 4.300e-5
-1.651, 4.350e-5
-1.652, 4.408e-5
-1.653, 4.463e-5
-1.654, 4.513e-5
-1.655, 4.576e-5
-1.656, 4.636e-5
-1.657, 4.704e-5
-1.658, 4.767e-5
-1.659, 4.839e-5
-1.660, 4.919e-5
-1.661, 4.984e-5
-1.662, 5.043e-5
-1.663, 5.121e-5
-1.664, 5.192e-5
-1.665, 5.261e-5
-1.666, 5.326e-5
-1.667, 5.407e-5
-1.668, 5.482e-5
-1.669, 5.568e-5
-1.670, 5.643e-5
-1.671, 5.726e-5
-1.672, 5.808e-5
-1.673, 5.890e-5
-1.674, 5.979e-5
-1.675, 6.068e-5
-1.676, 6.159e-5
-1.677, 6.250e-5
-1.678, 6.343e-5
-1.679, 6.433e-5
-1.680, 6.522e-5
-1.681, 6.616e-5
-1.682, 6.714e-5
-1.683, 6.809e-5
-1.684, 6.907e-5
-1.685, 7.012e-5
-1.686, 7.131e-5
-1.687, 7.253e-5
-1.688, 7.364e-5
-1.689, 7.488e-5
-1.690, 7.627e-5
-1.691, 7.726e-5
-1.692, 7.857e-5
-1.693, 7.977e-5
-1.694, 8.098e-5
-1.695, 8.227e-5
-1.696, 8.401e-5
-1.697, 8.544e-5
-1.698, 8.673e-5
-1.699, 8.819e-5
-1.700, 8.963e-5
-1.701, 9.111e-5
-1.702, 9.259e-5
-1.703, 9.406e-5
-1.704, 9.562e-5
-1.705, 9.718e-5
-1.706, 9.874e-5
-1.707, 1.005e-4
-1.708, 1.021e-4
-1.709, 1.037e-4
-1.710, 1.055e-4
-1.711, 1.071e-4
-1.712, 1.088e-4
-1.713, 1.106e-4
-1.714, 1.125e-4
-1.715, 1.144e-4
-1.716, 1.162e-4
-1.717, 1.180e-4
-1.718, 1.199e-4
-1.719, 1.216e-4
-1.720, 1.235e-4
-1.721, 1.254e-4
-1.722, 1.273e-4
-1.723, 1.292e-4
-1.724, 1.311e-4
-1.725, 1.331e-4
-1.726, 1.350e-4
-1.727, 1.371e-4
-1.728, 1.389e-4
-1.729, 1.409e-4
-1.730, 1.429e-4
-1.731, 1.449e-4
-1.732, 1.468e-4
-1.733, 1.488e-4
-1.734, 1.507e-4
-1.735, 1.526e-4
-1.736, 1.545e-4
-1.737, 1.564e-4
-1.738, 1.584e-4
-1.739, 1.603e-4
-1.740, 1.622e-4
-1.741, 1.642e-4
-1.742, 1.662e-4
-1.743, 1.681e-4
-1.744, 1.700e-4
-1.745, 1.720e-4
-1.746, 1.740e-4
-1.747, 1.761e-4
-1.748, 1.781e-4
-1.749, 1.801e-4
-1.750, 1.823e-4
-1.751, 1.844e-4
-1.752, 1.866e-4
-1.753, 1.890e-4
-1.754, 1.914e-4
-1.755, 1.938e-4
-1.756, 1.963e-4
-1.757, 1.989e-4
-1.758, 2.017e-4
-1.759, 2.046e-4
-1.760, 2.075e-4
-1.761, 2.104e-4
-1.762, 2.135e-4
-1.763, 2.167e-4
-1.764, 2.200e-4
-1.765, 2.235e-4
-1.766, 2.271e-4
-1.767, 2.308e-4
-1.768, 2.346e-4
-1.769, 2.385e-4
-1.770, 2.426e-4
-1.771, 2.467e-4
-1.772, 2.509e-4
-1.773, 2.553e-4
-1.774, 2.598e-4
-1.775, 2.645e-4
-1.776, 2.692e-4
-1.777, 2.740e-4
-1.778, 2.789e-4
-1.779, 2.839e-4
-1.780, 2.890e-4
-1.781, 2.943e-4
-1.782, 2.997e-4
-1.783, 3.051e-4
-1.784, 3.107e-4
-1.785, 3.164e-4
-1.786, 3.223e-4
-1.787, 3.282e-4
-1.788, 3.342e-4
-1.789, 3.403e-4
-1.790, 3.466e-4
-1.791, 3.530e-4
-1.792, 3.594e-4
-1.793, 3.661e-4
-1.794, 3.728e-4
-1.795, 3.795e-4
-1.796, 3.863e-4
-1.797, 3.932e-4
-1.798, 4.003e-4
-1.799, 4.074e-4
-1.800, 4.147e-4
-1.801, 4.220e-4
-1.802, 4.295e-4
-1.803, 4.371e-4
-1.804, 4.446e-4
-1.805, 4.524e-4
-1.806, 4.601e-4
-1.807, 4.680e-4
-1.808, 4.760e-4
-1.809, 4.840e-4
-1.810, 4.922e-4
-1.811, 5.005e-4
-1.812, 5.088e-4
-1.813, 5.172e-4
-1.814, 5.257e-4
-1.815, 5.342e-4
-1.816, 5.429e-4
-1.817, 5.517e-4
-1.818, 5.606e-4
-1.819, 5.696e-4
-1.820, 5.787e-4
-1.821, 5.878e-4
-1.822, 5.971e-4
-1.823, 6.064e-4
-1.824, 6.157e-4
-1.825, 6.252e-4
-1.826, 6.347e-4
-1.827, 6.444e-4
-1.828, 6.542e-4
-1.829, 6.639e-4
-1.830, 6.737e-4
-1.831, 6.836e-4
-1.832, 6.935e-4
-1.833, 7.034e-4
-1.834, 7.135e-4
-1.835, 7.236e-4
-1.836, 7.338e-4
-1.837, 7.441e-4
-1.838, 7.544e-4
-1.839, 7.648e-4
-1.840, 7.753e-4
-1.841, 7.858e-4
-1.842, 7.963e-4
-1.843, 8.069e-4
-1.844, 8.175e-4
-1.845, 8.284e-4
-1.846, 8.391e-4
-1.847, 8.498e-4
-1.848, 8.608e-4
-1.849, 8.715e-4
-1.850, 8.823e-4
-1.851, 8.934e-4
-1.852, 9.046e-4
-1.853, 9.158e-4
-1.854, 9.271e-4
-1.855, 9.384e-4
-1.856, 9.497e-4
-1.857, 9.611e-4
-1.858, 9.725e-4
-1.859, 9.839e-4
-1.860, 9.955e-4
-1.861, 1.007e-3
-1.862, 1.011e-3
-1.863, 1.011e-3
-1.864, 1.011e-3
-1.865, 1.011e-3
-1.866, 1.011e-3
-1.867, 1.011e-3
-1.868, 1.011e-3
-1.869, 1.011e-3
-1.870, 1.011e-3
-1.871, 1.011e-3
-1.872, 1.011e-3
-1.873, 1.011e-3
-1.874, 1.011e-3
-1.875, 1.011e-3
-1.876, 1.011e-3
-1.877, 1.011e-3
-1.878, 1.011e-3
-1.879, 1.011e-3
-1.880, 1.011e-3
-1.881, 1.011e-3
-1.882, 1.011e-3
-1.883, 1.011e-3
-1.884, 1.011e-3
-1.885, 1.011e-3
-1.886, 1.011e-3
-1.887, 1.011e-3
-1.888, 1.011e-3
-1.889, 1.011e-3
-1.890, 1.011e-3
-1.891, 1.011e-3
-1.892, 1.011e-3
-1.893, 1.011e-3
-1.894, 1.011e-3
-1.895, 1.011e-3
-1.896, 1.011e-3
-1.897, 1.011e-3
-1.898, 1.011e-3
-1.899, 1.011e-3
-1.900, 1.011e-3
-1.901, 1.011e-3
-1.902, 1.011e-3
-1.903, 1.011e-3
-1.904, 1.011e-3
-1.905, 1.011e-3
-1.906, 1.011e-3
-1.907, 1.011e-3
-1.908, 1.011e-3
-1.909, 1.011e-3
-1.910, 1.011e-3
-1.911, 1.011e-3
-1.912, 1.011e-3
-1.913, 1.011e-3
-1.914, 1.011e-3
-1.915, 1.011e-3
-1.916, 1.011e-3
-1.917, 1.011e-3
-1.918, 1.011e-3
-1.919, 1.011e-3
-1.920, 1.011e-3
-1.921, 1.011e-3
-1.922, 1.011e-3
-1.923, 1.011e-3
-1.924, 1.011e-3
-1.925, 1.011e-3
-1.926, 1.011e-3
-1.927, 1.011e-3
-1.928, 1.011e-3
-1.929, 1.011e-3
-1.930, 1.011e-3
-1.931, 1.011e-3
-1.932, 1.011e-3
-1.933, 1.011e-3
-1.934, 1.011e-3
-1.935, 1.011e-3
-1.936, 1.011e-3
-1.937, 1.011e-3
-1.938, 1.011e-3
-1.939, 1.011e-3
-1.940, 1.011e-3
-1.941, 1.011e-3
-1.942, 1.011e-3
-1.943, 1.011e-3
-1.944, 1.011e-3
-1.945, 1.011e-3
-1.946, 1.011e-3
-1.947, 1.011e-3
-1.948, 1.011e-3
-1.949, 1.011e-3
-1.950, 1.011e-3
-1.951, 1.011e-3
-1.952, 1.011e-3
-1.953, 1.011e-3
-1.954, 1.011e-3
-1.955, 1.011e-3
-1.956, 1.011e-3
-1.957, 1.011e-3
-1.958, 1.011e-3
-1.959, 1.011e-3
-1.960, 1.011e-3
-1.961, 1.011e-3
-1.962, 1.011e-3
-1.963, 1.011e-3
-1.964, 1.011e-3
-1.965, 1.011e-3
-1.966, 1.011e-3
-1.967, 1.011e-3
-1.968, 1.011e-3
-1.969, 1.011e-3
-1.970, 1.011e-3
-1.971, 1.011e-3
-1.972, 1.011e-3
-1.973, 1.011e-3
-1.974, 1.011e-3
-1.975, 1.011e-3
-1.976, 1.011e-3
-1.977, 1.011e-3
-1.978, 1.011e-3
-1.979, 1.011e-3
-1.980, 1.011e-3
-1.981, 1.011e-3
-1.982, 1.011e-3
-1.983, 1.011e-3
-1.984, 1.011e-3
-1.985, 1.011e-3
-1.986, 1.011e-3
-1.987, 1.011e-3
-1.988, 1.011e-3
-1.989, 1.011e-3
-1.990, 1.011e-3
-1.991, 1.011e-3
-1.992, 1.011e-3
-1.993, 1.011e-3
-1.994, 1.011e-3
-1.995, 1.011e-3
-1.996, 1.011e-3
-1.997, 1.011e-3
-1.998, 1.011e-3
-1.999, 1.011e-3
-2.000, 1.011e-3
-2.001, 1.011e-3
-2.002, 1.011e-3
-2.003, 1.011e-3
-2.004, 1.011e-3
-2.005, 1.011e-3
-2.006, 1.011e-3
-2.007, 1.011e-3
-2.008, 1.011e-3
-2.009, 1.011e-3
-2.010, 1.011e-3
-2.011, 1.011e-3
-2.012, 1.011e-3
-2.013, 1.011e-3
-2.014, 1.011e-3
-2.015, 1.011e-3
-2.016, 1.011e-3
-2.017, 1.011e-3
-2.018, 1.011e-3
-2.019, 1.011e-3
-2.020, 1.011e-3
-2.021, 1.011e-3
-2.022, 1.011e-3
-2.023, 1.011e-3
-2.024, 1.011e-3
-2.025, 1.011e-3
-2.026, 1.011e-3
-2.027, 1.011e-3
-2.028, 1.011e-3
-2.029, 1.011e-3
-2.030, 1.011e-3
-2.031, 1.011e-3
-2.032, 1.011e-3
-2.033, 1.011e-3
-2.034, 1.011e-3
-2.035, 1.011e-3
-2.036, 1.011e-3
-2.037, 1.011e-3
-2.038, 1.011e-3
-2.039, 1.011e-3
-2.040, 1.011e-3
-2.041, 1.011e-3
-2.042, 1.011e-3
-2.043, 1.011e-3
-2.044, 1.011e-3
-2.045, 1.011e-3
-2.046, 1.011e-3
-2.047, 1.011e-3
-2.048, 1.011e-3
-2.049, 1.011e-3
-2.050, 1.011e-3
-2.051, 1.011e-3
-2.052, 1.011e-3
-2.053, 1.011e-3
-2.054, 1.011e-3
-2.055, 1.011e-3
-2.056, 1.011e-3
-2.057, 1.011e-3
-2.058, 1.011e-3
-2.059, 1.011e-3
-2.060, 1.011e-3
-2.061, 1.011e-3
-2.062, 1.011e-3
-2.063, 1.011e-3
-2.064, 1.011e-3
-2.065, 1.011e-3
-2.066, 1.011e-3
-2.067, 1.011e-3
-2.068, 1.011e-3
-2.069, 1.011e-3
-2.070, 1.011e-3
-2.071, 1.011e-3
-2.072, 1.011e-3
-2.073, 1.011e-3
-2.074, 1.011e-3
-2.075, 1.011e-3
-2.076, 1.011e-3
-2.077, 1.011e-3
-2.078, 1.011e-3
-2.079, 1.011e-3
-2.080, 1.011e-3
-2.081, 1.011e-3
-2.082, 1.011e-3
-2.083, 1.011e-3
-2.084, 1.011e-3
-2.085, 1.011e-3
-2.086, 1.011e-3
-2.087, 1.011e-3
-2.088, 1.011e-3
-2.089, 1.011e-3
-2.090, 1.011e-3
-2.091, 1.011e-3
-2.092, 1.011e-3
-2.093, 1.011e-3
-2.094, 1.011e-3
-2.095, 1.011e-3
-2.096, 1.011e-3
-2.097, 1.011e-3
-2.098, 1.011e-3
-2.099, 1.011e-3
