Oct. 20, 2024   04:59:09
Cyclic Voltammetry
File: c:/users/guazh/data/banditlqround2/2024-10-18-exp581\exp581-2024-10-20t04_50_43-arkoh\exp581_cv_sr_900mvs_efin_-1400mv.bin
Data Source:  Experiment
Instrument Model:  CHI760E
Header: CV ran at 900 mVs
Note: 

Init E (V) = -1
High E (V) = -1
Low E (V) = -1.4
Final E (V) = -1
Init P/N = N
Scan Rate (V/s) = 0.9
Segment = 3
Sample Interval (V) = 0.001
Quiet Time (sec) = 2
Sensitivity (A/V) = 0.01
Comp R (ohm) = 0.9

Results:

Channel 1:
Segment 1:

Segment 2:

Segment 3:

Potential/V, Current/A

-1.000, 3.099e-5
-1.001, 1.543e-4
-1.002, 2.622e-4
-1.003, 3.578e-4
-1.004, 4.410e-4
-1.005, 5.150e-4
-1.006, 5.798e-4
-1.007, 6.353e-4
-1.008, 6.877e-4
-1.009, 7.339e-4
-1.010, 7.771e-4
-1.011, 8.141e-4
-1.012, 8.542e-4
-1.013, 8.881e-4
-1.014, 9.220e-4
-1.015, 9.498e-4
-1.016, 9.775e-4
-1.017, 1.002e-3
-1.018, 1.021e-3
-1.019, 1.039e-3
-1.020, 1.055e-3
-1.021, 1.064e-3
-1.022, 1.073e-3
-1.023, 1.085e-3
-1.024, 1.092e-3
-1.025, 1.101e-3
-1.026, 1.107e-3
-1.027, 1.119e-3
-1.028, 1.132e-3
-1.029, 1.141e-3
-1.030, 1.153e-3
-1.031, 1.162e-3
-1.032, 1.172e-3
-1.033, 1.178e-3
-1.034, 1.184e-3
-1.035, 1.187e-3
-1.036, 1.187e-3
-1.037, 1.190e-3
-1.038, 1.190e-3
-1.039, 1.190e-3
-1.040, 1.190e-3
-1.041, 1.193e-3
-1.042, 1.196e-3
-1.043, 1.199e-3
-1.044, 1.206e-3
-1.045, 1.209e-3
-1.046, 1.218e-3
-1.047, 1.218e-3
-1.048, 1.221e-3
-1.049, 1.224e-3
-1.050, 1.224e-3
-1.051, 1.221e-3
-1.052, 1.221e-3
-1.053, 1.215e-3
-1.054, 1.215e-3
-1.055, 1.215e-3
-1.056, 1.215e-3
-1.057, 1.218e-3
-1.058, 1.221e-3
-1.059, 1.224e-3
-1.060, 1.227e-3
-1.061, 1.233e-3
-1.062, 1.236e-3
-1.063, 1.236e-3
-1.064, 1.240e-3
-1.065, 1.240e-3
-1.066, 1.233e-3
-1.067, 1.230e-3
-1.068, 1.230e-3
-1.069, 1.224e-3
-1.070, 1.221e-3
-1.071, 1.221e-3
-1.072, 1.221e-3
-1.073, 1.227e-3
-1.074, 1.227e-3
-1.075, 1.233e-3
-1.076, 1.240e-3
-1.077, 1.243e-3
-1.078, 1.243e-3
-1.079, 1.243e-3
-1.080, 1.243e-3
-1.081, 1.240e-3
-1.082, 1.240e-3
-1.083, 1.236e-3
-1.084, 1.233e-3
-1.085, 1.233e-3
-1.086, 1.230e-3
-1.087, 1.233e-3
-1.088, 1.236e-3
-1.089, 1.240e-3
-1.090, 1.243e-3
-1.091, 1.246e-3
-1.092, 1.246e-3
-1.093, 1.246e-3
-1.094, 1.249e-3
-1.095, 1.246e-3
-1.096, 1.243e-3
-1.097, 1.240e-3
-1.098, 1.233e-3
-1.099, 1.230e-3
-1.100, 1.227e-3
-1.101, 1.227e-3
-1.102, 1.230e-3
-1.103, 1.233e-3
-1.104, 1.236e-3
-1.105, 1.240e-3
-1.106, 1.246e-3
-1.107, 1.249e-3
-1.108, 1.249e-3
-1.109, 1.249e-3
-1.110, 1.249e-3
-1.111, 1.246e-3
-1.112, 1.243e-3
-1.113, 1.240e-3
-1.114, 1.233e-3
-1.115, 1.236e-3
-1.116, 1.236e-3
-1.117, 1.236e-3
-1.118, 1.240e-3
-1.119, 1.243e-3
-1.120, 1.246e-3
-1.121, 1.252e-3
-1.122, 1.252e-3
-1.123, 1.255e-3
-1.124, 1.255e-3
-1.125, 1.252e-3
-1.126, 1.249e-3
-1.127, 1.246e-3
-1.128, 1.243e-3
-1.129, 1.236e-3
-1.130, 1.236e-3
-1.131, 1.233e-3
-1.132, 1.236e-3
-1.133, 1.240e-3
-1.134, 1.243e-3
-1.135, 1.249e-3
-1.136, 1.255e-3
-1.137, 1.255e-3
-1.138, 1.258e-3
-1.139, 1.261e-3
-1.140, 1.261e-3
-1.141, 1.258e-3
-1.142, 1.258e-3
-1.143, 1.255e-3
-1.144, 1.249e-3
-1.145, 1.252e-3
-1.146, 1.252e-3
-1.147, 1.252e-3
-1.148, 1.255e-3
-1.149, 1.258e-3
-1.150, 1.261e-3
-1.151, 1.264e-3
-1.152, 1.267e-3
-1.153, 1.267e-3
-1.154, 1.267e-3
-1.155, 1.264e-3
-1.156, 1.261e-3
-1.157, 1.258e-3
-1.158, 1.255e-3
-1.159, 1.249e-3
-1.160, 1.249e-3
-1.161, 1.249e-3
-1.162, 1.252e-3
-1.163, 1.252e-3
-1.164, 1.258e-3
-1.165, 1.261e-3
-1.166, 1.267e-3
-1.167, 1.270e-3
-1.168, 1.273e-3
-1.169, 1.277e-3
-1.170, 1.277e-3
-1.171, 1.273e-3
-1.172, 1.273e-3
-1.173, 1.270e-3
-1.174, 1.267e-3
-1.175, 1.267e-3
-1.176, 1.267e-3
-1.177, 1.270e-3
-1.178, 1.273e-3
-1.179, 1.277e-3
-1.180, 1.283e-3
-1.181, 1.286e-3
-1.182, 1.289e-3
-1.183, 1.289e-3
-1.184, 1.292e-3
-1.185, 1.289e-3
-1.186, 1.286e-3
-1.187, 1.286e-3
-1.188, 1.286e-3
-1.189, 1.280e-3
-1.190, 1.280e-3
-1.191, 1.280e-3
-1.192, 1.286e-3
-1.193, 1.289e-3
-1.194, 1.295e-3
-1.195, 1.301e-3
-1.196, 1.307e-3
-1.197, 1.310e-3
-1.198, 1.317e-3
-1.199, 1.320e-3
-1.200, 1.320e-3
-1.201, 1.320e-3
-1.202, 1.320e-3
-1.203, 1.320e-3
-1.204, 1.320e-3
-1.205, 1.323e-3
-1.206, 1.323e-3
-1.207, 1.326e-3
-1.208, 1.329e-3
-1.209, 1.335e-3
-1.210, 1.341e-3
-1.211, 1.351e-3
-1.212, 1.354e-3
-1.213, 1.354e-3
-1.214, 1.357e-3
-1.215, 1.357e-3
-1.216, 1.357e-3
-1.217, 1.360e-3
-1.218, 1.360e-3
-1.219, 1.354e-3
-1.220, 1.360e-3
-1.221, 1.360e-3
-1.222, 1.366e-3
-1.223, 1.372e-3
-1.224, 1.381e-3
-1.225, 1.388e-3
-1.226, 1.397e-3
-1.227, 1.403e-3
-1.228, 1.409e-3
-1.229, 1.421e-3
-1.230, 1.421e-3
-1.231, 1.421e-3
-1.232, 1.425e-3
-1.233, 1.425e-3
-1.234, 1.425e-3
-1.235, 1.428e-3
-1.236, 1.431e-3
-1.237, 1.437e-3
-1.238, 1.443e-3
-1.239, 1.452e-3
-1.240, 1.458e-3
-1.241, 1.468e-3
-1.242, 1.477e-3
-1.243, 1.483e-3
-1.244, 1.489e-3
-1.245, 1.495e-3
-1.246, 1.499e-3
-1.247, 1.505e-3
-1.248, 1.508e-3
-1.249, 1.511e-3
-1.250, 1.517e-3
-1.251, 1.526e-3
-1.252, 1.532e-3
-1.253, 1.545e-3
-1.254, 1.557e-3
-1.255, 1.573e-3
-1.256, 1.585e-3
-1.257, 1.597e-3
-1.258, 1.606e-3
-1.259, 1.616e-3
-1.260, 1.622e-3
-1.261, 1.628e-3
-1.262, 1.634e-3
-1.263, 1.640e-3
-1.264, 1.647e-3
-1.265, 1.656e-3
-1.266, 1.665e-3
-1.267, 1.677e-3
-1.268, 1.690e-3
-1.269, 1.702e-3
-1.270, 1.717e-3
-1.271, 1.733e-3
-1.272, 1.748e-3
-1.273, 1.761e-3
-1.274, 1.776e-3
-1.275, 1.788e-3
-1.276, 1.798e-3
-1.277, 1.810e-3
-1.278, 1.822e-3
-1.279, 1.832e-3
-1.280, 1.847e-3
-1.281, 1.859e-3
-1.282, 1.878e-3
-1.283, 1.896e-3
-1.284, 1.912e-3
-1.285, 1.930e-3
-1.286, 1.952e-3
-1.287, 1.967e-3
-1.288, 1.986e-3
-1.289, 2.001e-3
-1.290, 2.017e-3
-1.291, 2.032e-3
-1.292, 2.047e-3
-1.293, 2.060e-3
-1.294, 2.075e-3
-1.295, 2.094e-3
-1.296, 2.112e-3
-1.297, 2.134e-3
-1.298, 2.155e-3
-1.299, 2.180e-3
-1.300, 2.208e-3
-1.301, 2.232e-3
-1.302, 2.260e-3
-1.303, 2.282e-3
-1.304, 2.306e-3
-1.305, 2.331e-3
-1.306, 2.353e-3
-1.307, 2.377e-3
-1.308, 2.399e-3
-1.309, 2.417e-3
-1.310, 2.442e-3
-1.311, 2.470e-3
-1.312, 2.494e-3
-1.313, 2.525e-3
-1.314, 2.553e-3
-1.315, 2.584e-3
-1.316, 2.615e-3
-1.317, 2.645e-3
-1.318, 2.673e-3
-1.319, 2.704e-3
-1.320, 2.732e-3
-1.321, 2.756e-3
-1.322, 2.784e-3
-1.323, 2.812e-3
-1.324, 2.840e-3
-1.325, 2.874e-3
-1.326, 2.908e-3
-1.327, 2.941e-3
-1.328, 2.978e-3
-1.329, 3.019e-3
-1.330, 3.059e-3
-1.331, 3.099e-3
-1.332, 3.139e-3
-1.333, 3.179e-3
-1.334, 3.219e-3
-1.335, 3.253e-3
-1.336, 3.287e-3
-1.337, 3.324e-3
-1.338, 3.358e-3
-1.339, 3.388e-3
-1.340, 3.425e-3
-1.341, 3.459e-3
-1.342, 3.499e-3
-1.343, 3.540e-3
-1.344, 3.580e-3
-1.345, 3.623e-3
-1.346, 3.666e-3
-1.347, 3.709e-3
-1.348, 3.752e-3
-1.349, 3.795e-3
-1.350, 3.839e-3
-1.351, 3.879e-3
-1.352, 3.922e-3
-1.353, 3.965e-3
-1.354, 4.008e-3
-1.355, 4.058e-3
-1.356, 4.101e-3
-1.357, 4.150e-3
-1.358, 4.202e-3
-1.359, 4.255e-3
-1.360, 4.307e-3
-1.361, 4.363e-3
-1.362, 4.415e-3
-1.363, 4.468e-3
-1.364, 4.520e-3
-1.365, 4.566e-3
-1.366, 4.616e-3
-1.367, 4.662e-3
-1.368, 4.711e-3
-1.369, 4.760e-3
-1.370, 4.810e-3
-1.371, 4.859e-3
-1.372, 4.912e-3
-1.373, 4.967e-3
-1.374, 5.023e-3
-1.375, 5.078e-3
-1.376, 5.137e-3
-1.377, 5.195e-3
-1.378, 5.251e-3
-1.379, 5.312e-3
-1.380, 5.371e-3
-1.381, 5.426e-3
-1.382, 5.485e-3
-1.383, 5.544e-3
-1.384, 5.599e-3
-1.385, 5.664e-3
-1.386, 5.725e-3
-1.387, 5.790e-3
-1.388, 5.858e-3
-1.389, 5.926e-3
-1.390, 5.991e-3
-1.391, 6.062e-3
-1.392, 6.129e-3
-1.393, 6.191e-3
-1.394, 6.256e-3
-1.395, 6.321e-3
-1.396, 6.379e-3
-1.397, 6.441e-3
-1.398, 6.502e-3
-1.399, 6.561e-3
-1.400, 6.530e-3
-1.399, 6.345e-3
-1.398, 6.191e-3
-1.397, 6.058e-3
-1.396, 5.938e-3
-1.395, 5.830e-3
-1.394, 5.735e-3
-1.393, 5.639e-3
-1.392, 5.550e-3
-1.391, 5.463e-3
-1.390, 5.380e-3
-1.389, 5.297e-3
-1.388, 5.220e-3
-1.387, 5.143e-3
-1.386, 5.063e-3
-1.385, 4.989e-3
-1.384, 4.918e-3
-1.383, 4.847e-3
-1.382, 4.776e-3
-1.381, 4.708e-3
-1.380, 4.643e-3
-1.379, 4.575e-3
-1.378, 4.508e-3
-1.377, 4.437e-3
-1.376, 4.372e-3
-1.375, 4.304e-3
-1.374, 4.230e-3
-1.373, 4.162e-3
-1.372, 4.091e-3
-1.371, 4.024e-3
-1.370, 3.956e-3
-1.369, 3.891e-3
-1.368, 3.826e-3
-1.367, 3.768e-3
-1.366, 3.709e-3
-1.365, 3.654e-3
-1.364, 3.598e-3
-1.363, 3.540e-3
-1.362, 3.484e-3
-1.361, 3.425e-3
-1.360, 3.367e-3
-1.359, 3.305e-3
-1.358, 3.244e-3
-1.357, 3.182e-3
-1.356, 3.117e-3
-1.355, 3.059e-3
-1.354, 3.000e-3
-1.353, 2.945e-3
-1.352, 2.886e-3
-1.351, 2.830e-3
-1.350, 2.778e-3
-1.349, 2.729e-3
-1.348, 2.673e-3
-1.347, 2.618e-3
-1.346, 2.565e-3
-1.345, 2.513e-3
-1.344, 2.454e-3
-1.343, 2.399e-3
-1.342, 2.346e-3
-1.341, 2.288e-3
-1.340, 2.238e-3
-1.339, 2.186e-3
-1.338, 2.137e-3
-1.337, 2.087e-3
-1.336, 2.041e-3
-1.335, 1.995e-3
-1.334, 1.952e-3
-1.333, 1.906e-3
-1.332, 1.856e-3
-1.331, 1.813e-3
-1.330, 1.764e-3
-1.329, 1.711e-3
-1.328, 1.665e-3
-1.327, 1.613e-3
-1.326, 1.560e-3
-1.325, 1.514e-3
-1.324, 1.468e-3
-1.323, 1.425e-3
-1.322, 1.384e-3
-1.321, 1.341e-3
-1.320, 1.301e-3
-1.319, 1.264e-3
-1.318, 1.224e-3
-1.317, 1.184e-3
-1.316, 1.144e-3
-1.315, 1.104e-3
-1.314, 1.061e-3
-1.313, 1.018e-3
-1.312, 9.775e-4
-1.311, 9.313e-4
-1.310, 8.943e-4
-1.309, 8.542e-4
-1.308, 8.172e-4
-1.307, 7.833e-4
-1.306, 7.463e-4
-1.305, 7.154e-4
-1.304, 6.815e-4
-1.303, 6.507e-4
-1.302, 6.137e-4
-1.301, 5.829e-4
-1.300, 5.459e-4
-1.299, 5.089e-4
-1.298, 4.719e-4
-1.297, 4.349e-4
-1.296, 3.979e-4
-1.295, 3.640e-4
-1.294, 3.300e-4
-1.293, 2.961e-4
-1.292, 2.684e-4
-1.291, 2.406e-4
-1.290, 2.129e-4
-1.289, 1.851e-4
-1.288, 1.605e-4
-1.287, 1.296e-4
-1.286, 1.019e-4
-1.285, 7.415e-5
-1.284, 4.332e-5
-1.283, 1.249e-5
-1.282, -1.834e-5
-1.281, -4.917e-5
-1.280, -8.000e-5
-1.279, -1.078e-4
-1.278, -1.324e-4
-1.277, -1.540e-4
-1.276, -1.787e-4
-1.275, -2.002e-4
-1.274, -2.187e-4
-1.273, -2.403e-4
-1.272, -2.650e-4
-1.271, -2.866e-4
-1.270, -3.112e-4
-1.269, -3.359e-4
-1.268, -3.606e-4
-1.267, -3.852e-4
-1.266, -4.130e-4
-1.265, -4.346e-4
-1.264, -4.561e-4
-1.263, -4.746e-4
-1.262, -4.931e-4
-1.261, -5.116e-4
-1.260, -5.240e-4
-1.259, -5.394e-4
-1.258, -5.579e-4
-1.257, -5.764e-4
-1.256, -5.918e-4
-1.255, -6.103e-4
-1.254, -6.319e-4
-1.253, -6.535e-4
-1.252, -6.750e-4
-1.251, -6.966e-4
-1.250, -7.151e-4
-1.249, -7.305e-4
-1.248, -7.490e-4
-1.247, -7.614e-4
-1.246, -7.768e-4
-1.245, -7.891e-4
-1.244, -7.984e-4
-1.243, -8.107e-4
-1.242, -8.261e-4
-1.241, -8.385e-4
-1.240, -8.539e-4
-1.239, -8.693e-4
-1.238, -8.847e-4
-1.237, -9.001e-4
-1.236, -9.186e-4
-1.235, -9.309e-4
-1.234, -9.433e-4
-1.233, -9.556e-4
-1.232, -9.649e-4
-1.231, -9.741e-4
-1.230, -9.803e-4
-1.229, -9.926e-4
-1.228, -1.002e-3
-1.227, -1.008e-3
-1.226, -1.017e-3
-1.225, -1.030e-3
-1.224, -1.042e-3
-1.223, -1.057e-3
-1.222, -1.073e-3
-1.221, -1.085e-3
-1.220, -1.097e-3
-1.219, -1.107e-3
-1.218, -1.116e-3
-1.217, -1.122e-3
-1.216, -1.128e-3
-1.215, -1.131e-3
-1.214, -1.138e-3
-1.213, -1.141e-3
-1.212, -1.150e-3
-1.211, -1.156e-3
-1.210, -1.162e-3
-1.209, -1.175e-3
-1.208, -1.181e-3
-1.207, -1.193e-3
-1.206, -1.205e-3
-1.205, -1.212e-3
-1.204, -1.221e-3
-1.203, -1.227e-3
-1.202, -1.233e-3
-1.201, -1.236e-3
-1.200, -1.236e-3
-1.199, -1.242e-3
-1.198, -1.245e-3
-1.197, -1.252e-3
-1.196, -1.255e-3
-1.195, -1.264e-3
-1.194, -1.273e-3
-1.193, -1.282e-3
-1.192, -1.289e-3
-1.191, -1.301e-3
-1.190, -1.307e-3
-1.189, -1.313e-3
-1.188, -1.313e-3
-1.187, -1.316e-3
-1.186, -1.319e-3
-1.185, -1.319e-3
-1.184, -1.319e-3
-1.183, -1.319e-3
-1.182, -1.322e-3
-1.181, -1.326e-3
-1.180, -1.332e-3
-1.179, -1.338e-3
-1.178, -1.347e-3
-1.177, -1.353e-3
-1.176, -1.363e-3
-1.175, -1.369e-3
-1.174, -1.372e-3
-1.173, -1.375e-3
-1.172, -1.375e-3
-1.171, -1.378e-3
-1.170, -1.378e-3
-1.169, -1.378e-3
-1.168, -1.378e-3
-1.167, -1.381e-3
-1.166, -1.381e-3
-1.165, -1.387e-3
-1.164, -1.396e-3
-1.163, -1.400e-3
-1.162, -1.406e-3
-1.161, -1.415e-3
-1.160, -1.418e-3
-1.159, -1.424e-3
-1.158, -1.424e-3
-1.157, -1.424e-3
-1.156, -1.424e-3
-1.155, -1.421e-3
-1.154, -1.421e-3
-1.153, -1.421e-3
-1.152, -1.421e-3
-1.151, -1.421e-3
-1.150, -1.424e-3
-1.149, -1.430e-3
-1.148, -1.437e-3
-1.147, -1.440e-3
-1.146, -1.452e-3
-1.145, -1.452e-3
-1.144, -1.455e-3
-1.143, -1.461e-3
-1.142, -1.461e-3
-1.141, -1.461e-3
-1.140, -1.458e-3
-1.139, -1.458e-3
-1.138, -1.458e-3
-1.137, -1.458e-3
-1.136, -1.458e-3
-1.135, -1.464e-3
-1.134, -1.467e-3
-1.133, -1.474e-3
-1.132, -1.477e-3
-1.131, -1.483e-3
-1.130, -1.486e-3
-1.129, -1.489e-3
-1.128, -1.486e-3
-1.127, -1.486e-3
-1.126, -1.483e-3
-1.125, -1.480e-3
-1.124, -1.477e-3
-1.123, -1.477e-3
-1.122, -1.477e-3
-1.121, -1.474e-3
-1.120, -1.477e-3
-1.119, -1.483e-3
-1.118, -1.486e-3
-1.117, -1.492e-3
-1.116, -1.498e-3
-1.115, -1.501e-3
-1.114, -1.504e-3
-1.113, -1.504e-3
-1.112, -1.504e-3
-1.111, -1.504e-3
-1.110, -1.501e-3
-1.109, -1.501e-3
-1.108, -1.501e-3
-1.107, -1.501e-3
-1.106, -1.501e-3
-1.105, -1.507e-3
-1.104, -1.511e-3
-1.103, -1.517e-3
-1.102, -1.520e-3
-1.101, -1.526e-3
-1.100, -1.529e-3
-1.099, -1.529e-3
-1.098, -1.529e-3
-1.097, -1.526e-3
-1.096, -1.523e-3
-1.095, -1.520e-3
-1.094, -1.517e-3
-1.093, -1.517e-3
-1.092, -1.514e-3
-1.091, -1.514e-3
-1.090, -1.517e-3
-1.089, -1.520e-3
-1.088, -1.523e-3
-1.087, -1.529e-3
-1.086, -1.535e-3
-1.085, -1.541e-3
-1.084, -1.541e-3
-1.083, -1.544e-3
-1.082, -1.544e-3
-1.081, -1.544e-3
-1.080, -1.541e-3
-1.079, -1.538e-3
-1.078, -1.538e-3
-1.077, -1.535e-3
-1.076, -1.535e-3
-1.075, -1.541e-3
-1.074, -1.544e-3
-1.073, -1.548e-3
-1.072, -1.551e-3
-1.071, -1.557e-3
-1.070, -1.557e-3
-1.069, -1.560e-3
-1.068, -1.560e-3
-1.067, -1.560e-3
-1.066, -1.557e-3
-1.065, -1.554e-3
-1.064, -1.551e-3
-1.063, -1.548e-3
-1.062, -1.551e-3
-1.061, -1.548e-3
-1.060, -1.554e-3
-1.059, -1.557e-3
-1.058, -1.563e-3
-1.057, -1.566e-3
-1.056, -1.572e-3
-1.055, -1.575e-3
-1.054, -1.575e-3
-1.053, -1.578e-3
-1.052, -1.575e-3
-1.051, -1.572e-3
-1.050, -1.569e-3
-1.049, -1.566e-3
-1.048, -1.563e-3
-1.047, -1.563e-3
-1.046, -1.563e-3
-1.045, -1.566e-3
-1.044, -1.569e-3
-1.043, -1.572e-3
-1.042, -1.575e-3
-1.041, -1.581e-3
-1.040, -1.581e-3
-1.039, -1.588e-3
-1.038, -1.588e-3
-1.037, -1.585e-3
-1.036, -1.585e-3
-1.035, -1.585e-3
-1.034, -1.581e-3
-1.033, -1.581e-3
-1.032, -1.578e-3
-1.031, -1.581e-3
-1.030, -1.585e-3
-1.029, -1.588e-3
-1.028, -1.591e-3
-1.027, -1.594e-3
-1.026, -1.600e-3
-1.025, -1.600e-3
-1.024, -1.603e-3
-1.023, -1.603e-3
-1.022, -1.600e-3
-1.021, -1.597e-3
-1.020, -1.594e-3
-1.019, -1.591e-3
-1.018, -1.591e-3
-1.017, -1.591e-3
-1.016, -1.591e-3
-1.015, -1.591e-3
-1.014, -1.597e-3
-1.013, -1.600e-3
-1.012, -1.606e-3
-1.011, -1.612e-3
-1.010, -1.612e-3
-1.009, -1.615e-3
-1.008, -1.618e-3
-1.007, -1.618e-3
-1.006, -1.618e-3
-1.005, -1.615e-3
-1.004, -1.615e-3
-1.003, -1.612e-3
-1.002, -1.612e-3
-1.001, -1.612e-3
