Potential V vs RHE, Current mA cm-2
0.013299999999999867,-0.4384190318281749
0.012299999999999978,-2.1828995356917518
0.011299999999999866,-3.7093730282461257
0.010299999999999976,-5.0618370309171015
0.009299999999999864,-6.238876832404812
0.008299999999999974,-7.28576319430494
0.007299999999999862,-8.202496116617484
0.006299999999999972,-8.987660888042578
0.00529999999999986,-9.728969609171857
0.0042999999999999705,-10.382566229709504
0.0032999999999998586,-10.993721511251199
0.0022999999999999687,-11.517164692201263
0.0012999999999998568,-12.084463923447142
0.00029999999999996696,-12.56405105410139
-0.000700000000000145,-13.043638184755638
-0.0017000000000000348,-13.436927926118118
-0.0027000000000001467,-13.828802956180734
-0.0037000000000000366,-14.175407224647667
-0.0047000000000001485,-14.444202371622024
-0.005700000000000038,-14.69885040559773
-0.00670000000000015,-14.925204213576137
-0.00770000000000004,-15.05252823056399
-0.008700000000000152,-15.179852247551842
-0.009700000000000042,-15.349617603535648
-0.010700000000000154,-15.448647394526201
-0.011700000000000044,-15.575971411514052
-0.012700000000000156,-15.660854089505953
-0.013700000000000045,-15.830619445489761
-0.014700000000000157,-16.014531914472215
-0.015700000000000047,-16.141855931460068
-0.01670000000000016,-16.311621287443874
-0.01770000000000005,-16.438945304431726
-0.01870000000000016,-16.580416434418233
-0.01970000000000005,-16.665299112410132
-0.020700000000000163,-16.750181790402035
-0.021700000000000053,-16.792623129397985
-0.022700000000000164,-16.792623129397985
-0.023700000000000054,-16.835064468393938
-0.024700000000000166,-16.835064468393938
-0.025700000000000056,-16.835064468393938
-0.026700000000000168,-16.835064468393938
-0.027700000000000058,-16.877505807389888
-0.02870000000000017,-16.919947146385837
-0.02970000000000006,-16.962388485381787
-0.03070000000000017,-17.061418276372343
-0.03170000000000006,-17.103859615368293
-0.03270000000000017,-17.231183632356142
-0.03370000000000006,-17.231183632356142
-0.034700000000000175,-17.2736249713521
-0.035700000000000065,-17.316066310348052
-0.03670000000000018,-17.316066310348052
-0.03770000000000007,-17.2736249713521
-0.03870000000000018,-17.2736249713521
-0.03970000000000007,-17.188742293360193
-0.04070000000000018,-17.188742293360193
-0.04170000000000007,-17.188742293360193
-0.04270000000000018,-17.188742293360193
-0.04370000000000007,-17.231183632356142
-0.044700000000000184,-17.2736249713521
-0.045700000000000074,-17.316066310348052
-0.046700000000000186,-17.358507649344002
-0.047700000000000076,-17.4433903273359
-0.04870000000000019,-17.48583166633185
-0.04970000000000008,-17.48583166633185
-0.05070000000000019,-17.542420118326454
-0.05170000000000008,-17.542420118326454
-0.05270000000000019,-17.4433903273359
-0.05370000000000008,-17.40094898833995
-0.05470000000000019,-17.40094898833995
-0.05570000000000008,-17.316066310348052
-0.056700000000000195,-17.2736249713521
-0.057700000000000085,-17.2736249713521
-0.058700000000000196,-17.2736249713521
-0.059700000000000086,-17.358507649344002
-0.0607000000000002,-17.358507649344002
-0.06170000000000009,-17.4433903273359
-0.0627000000000002,-17.542420118326454
-0.06370000000000009,-17.584861457322408
-0.0647000000000002,-17.584861457322408
-0.06570000000000009,-17.584861457322408
-0.0667000000000002,-17.584861457322408
-0.0677000000000001,-17.542420118326454
-0.0687000000000002,-17.542420118326454
-0.0697000000000001,-17.48583166633185
-0.07070000000000021,-17.4433903273359
-0.0717000000000001,-17.4433903273359
-0.07270000000000021,-17.40094898833995
-0.0737000000000001,-17.4433903273359
-0.07470000000000021,-17.48583166633185
-0.0757000000000001,-17.542420118326454
-0.07670000000000021,-17.584861457322408
-0.0777000000000001,-17.627302796318357
-0.07870000000000021,-17.627302796318357
-0.0797000000000001,-17.627302796318357
-0.08070000000000022,-17.669744135314307
-0.0817000000000001,-17.627302796318357
-0.08270000000000022,-17.584861457322408
-0.08370000000000011,-17.542420118326454
-0.08470000000000022,-17.4433903273359
-0.08570000000000011,-17.40094898833995
-0.08670000000000022,-17.358507649344002
-0.08770000000000011,-17.358507649344002
-0.08870000000000022,-17.40094898833995
-0.08970000000000011,-17.4433903273359
-0.09070000000000022,-17.48583166633185
-0.09170000000000011,-17.542420118326454
-0.09270000000000023,-17.627302796318357
-0.09370000000000012,-17.669744135314307
-0.09470000000000023,-17.669744135314307
-0.09570000000000012,-17.669744135314307
-0.09670000000000023,-17.669744135314307
-0.09770000000000012,-17.627302796318357
-0.09870000000000023,-17.584861457322408
-0.09970000000000012,-17.542420118326454
-0.10070000000000023,-17.4433903273359
-0.10170000000000012,-17.48583166633185
-0.10270000000000024,-17.48583166633185
-0.10370000000000013,-17.48583166633185
-0.10470000000000024,-17.542420118326454
-0.10570000000000013,-17.584861457322408
-0.10670000000000024,-17.627302796318357
-0.10770000000000013,-17.71218547431026
-0.10870000000000024,-17.71218547431026
-0.10970000000000013,-17.75462681330621
-0.11070000000000024,-17.75462681330621
-0.11170000000000013,-17.71218547431026
-0.11270000000000002,-17.669744135314307
-0.11370000000000013,-17.627302796318357
-0.11470000000000002,-17.584861457322408
-0.11570000000000014,-17.48583166633185
-0.11670000000000003,-17.48583166633185
-0.11770000000000014,-17.4433903273359
-0.11870000000000003,-17.48583166633185
-0.11970000000000014,-17.542420118326454
-0.12070000000000003,-17.584861457322408
-0.12170000000000014,-17.669744135314307
-0.12270000000000003,-17.75462681330621
-0.12370000000000014,-17.75462681330621
-0.12470000000000003,-17.797068152302163
-0.12570000000000014,-17.839509491298113
-0.12670000000000003,-17.839509491298113
-0.12770000000000015,-17.797068152302163
-0.12870000000000004,-17.797068152302163
-0.12970000000000015,-17.75462681330621
-0.13070000000000004,-17.669744135314307
-0.13170000000000015,-17.71218547431026
-0.13270000000000004,-17.71218547431026
-0.13370000000000015,-17.71218547431026
-0.13470000000000004,-17.75462681330621
-0.13570000000000015,-17.797068152302163
-0.13670000000000004,-17.839509491298113
-0.13770000000000016,-17.881950830294063
-0.13870000000000005,-17.924392169290012
-0.13970000000000016,-17.924392169290012
-0.14070000000000005,-17.924392169290012
-0.14170000000000016,-17.881950830294063
-0.14270000000000005,-17.839509491298113
-0.14370000000000016,-17.797068152302163
-0.14470000000000005,-17.75462681330621
-0.14570000000000016,-17.669744135314307
-0.14670000000000005,-17.669744135314307
-0.14770000000000016,-17.669744135314307
-0.14870000000000005,-17.71218547431026
-0.14970000000000017,-17.71218547431026
-0.15070000000000006,-17.797068152302163
-0.15170000000000017,-17.839509491298113
-0.15270000000000006,-17.924392169290012
-0.15370000000000017,-17.966833508285966
-0.15470000000000006,-18.009274847281915
-0.15570000000000017,-18.06586329927652
-0.15670000000000006,-18.06586329927652
-0.15770000000000017,-18.009274847281915
-0.15870000000000006,-18.009274847281915
-0.15970000000000018,-17.966833508285966
-0.16070000000000007,-17.924392169290012
-0.16170000000000018,-17.924392169290012
-0.16270000000000007,-17.924392169290012
-0.16370000000000018,-17.966833508285966
-0.16470000000000007,-18.009274847281915
-0.16570000000000018,-18.06586329927652
-0.16670000000000007,-18.15074597726842
-0.16770000000000018,-18.19318731626437
-0.16870000000000007,-18.23562865526032
-0.16970000000000018,-18.23562865526032
-0.17070000000000007,-18.27806999425627
-0.17170000000000019,-18.23562865526032
-0.17270000000000008,-18.19318731626437
-0.1737000000000002,-18.19318731626437
-0.17470000000000008,-18.19318731626437
-0.1757000000000002,-18.10830463827247
-0.17670000000000008,-18.10830463827247
-0.1777000000000002,-18.10830463827247
-0.17870000000000008,-18.19318731626437
-0.1797000000000002,-18.23562865526032
-0.18070000000000008,-18.320511333252224
-0.1817000000000002,-18.40539401124413
-0.18270000000000008,-18.49027668923603
-0.1837000000000002,-18.53271802823198
-0.1847000000000001,-18.631747819222536
-0.1857000000000002,-18.674189158218486
-0.1867000000000001,-18.674189158218486
-0.1877000000000002,-18.674189158218486
-0.1887000000000001,-18.674189158218486
-0.1897000000000002,-18.674189158218486
-0.1907000000000001,-18.674189158218486
-0.1917000000000001,-18.716630497214435
-0.19269999999999998,-18.716630497214435
-0.1937000000000001,-18.759071836210385
-0.19469999999999998,-18.80151317520634
-0.1957000000000001,-18.88639585319824
-0.19669999999999999,-18.97127853119014
-0.1977000000000001,-19.112749661176647
-0.1987,-19.155191000172596
-0.1997000000000001,-19.155191000172596
-0.2007,-19.197632339168546
-0.2017000000000001,-19.197632339168546
-0.2027,-19.197632339168546
-0.2037000000000001,-19.2400736781645
-0.2047,-19.2400736781645
-0.2057000000000001,-19.155191000172596
-0.2067,-19.2400736781645
-0.2077000000000001,-19.2400736781645
-0.2087,-19.3249563561564
-0.2097000000000001,-19.409839034148305
-0.2107,-19.537163051136158
-0.2117000000000001,-19.636192842126707
-0.2127,-19.763516859114564
-0.2137000000000001,-19.848399537106463
-0.2147,-19.93328221509837
-0.2157000000000001,-20.10304757108217
-0.2167,-20.10304757108217
-0.21770000000000012,-20.10304757108217
-0.2187,-20.159636023076775
-0.21970000000000012,-20.159636023076775
-0.2207,-20.159636023076775
-0.22170000000000012,-20.202077362072725
-0.2227,-20.244518701068674
-0.22370000000000012,-20.329401379060574
-0.2247,-20.414284057052477
-0.22570000000000012,-20.541608074040333
-0.2267,-20.626490752032236
-0.22770000000000012,-20.76796188201874
-0.22870000000000001,-20.89528589900659
-0.22970000000000013,-20.980168576998494
-0.23070000000000002,-21.065051254990397
-0.23170000000000013,-21.149933932982297
-0.23270000000000002,-21.2065223849769
-0.23370000000000013,-21.291405062968803
-0.23470000000000002,-21.333846401964752
-0.23570000000000013,-21.376287740960702
-0.23670000000000002,-21.461170418952605
-0.2376999999999999,-21.58849443594046
-0.23870000000000002,-21.67337711393236
-0.2396999999999999,-21.857289582914817
-0.24070000000000003,-22.027054938898623
-0.24169999999999991,-22.253408746877028
-0.24270000000000003,-22.42317410286083
-0.24369999999999992,-22.592939458844636
-0.24470000000000003,-22.72026347583249
-0.24569999999999992,-22.861734605818995
-0.24670000000000003,-22.946617283810895
-0.24769999999999992,-23.031499961802798
-0.24870000000000003,-23.1163826397947
-0.24969999999999992,-23.2012653177866
-0.25070000000000003,-23.300295108777156
-0.2516999999999999,-23.427619125765005
-0.25270000000000004,-23.55494314275286
-0.2536999999999999,-23.724708498736668
-0.25470000000000004,-23.908620967719123
-0.2556999999999999,-24.078386323702922
-0.25670000000000004,-24.290593018682678
-0.25769999999999993,-24.516946826661083
-0.25870000000000004,-24.729153521640843
-0.25969999999999993,-24.9130659906233
-0.26070000000000004,-25.12527268560305
-0.26169999999999993,-25.295038041586857
-0.26270000000000004,-25.43650917157336
-0.26369999999999993,-25.60627452755716
-0.26470000000000005,-25.77603988354097
-0.26569999999999994,-25.91751101352747
-0.26670000000000005,-26.129717708507226
-0.26769999999999994,-26.29948306449103
-0.26870000000000005,-26.568278211465387
-0.26969999999999994,-26.822926245441096
-0.27070000000000005,-27.049280053419505
-0.27169999999999994,-27.303928087395207
-0.27270000000000005,-27.615164573365515
-0.27369999999999994,-27.827371268345274
-0.27470000000000006,-28.09616641531963
-0.27569999999999995,-28.308373110299385
-0.27670000000000006,-28.53472691827779
-0.27769999999999995,-28.746933613257543
-0.27870000000000006,-28.959140308237306
-0.27969999999999995,-29.14305277721976
-0.28070000000000006,-29.35525947219951
-0.28169999999999995,-29.62405461917387
-0.28270000000000006,-29.878702653149578
-0.28369999999999995,-30.189939139119886
-0.28470000000000006,-30.487028512091538
-0.28569999999999995,-30.8407063370578
-0.28670000000000007,-31.23682550102001
-0.28769999999999996,-31.57635621298762
-0.28870000000000007,-31.972475376949827
-0.28969999999999996,-32.283711862920136
-0.29070000000000007,-32.62324257488775
-0.29169999999999996,-32.97692039985401
-0.29270000000000007,-33.288156885824314
-0.29369999999999996,-33.627687597791926
-0.2947000000000001,-33.93892408376223
-0.29569999999999996,-34.193572117737936
-0.2967000000000001,-34.5472499427042
-0.29769999999999996,-34.94336910666641
-0.2987000000000001,-35.282899818634014
-0.29969999999999997,-35.721460321592176
-0.3007000000000001,-36.11757948555439
-0.30169999999999997,-36.55613998851254
-0.3027000000000001,-36.99470049147071
-0.30369999999999997,-37.41911388143023
-0.3047000000000001,-37.81523304539243
-0.30569999999999997,-38.253793548350586
-0.3067000000000001,-38.6499127123128
-0.3077,-38.98944342428042
-0.3087000000000001,-39.38556258824262
-0.3097,-39.78168175220483
-0.3107000000000001,-40.177800916167044
-0.3117,-40.65880275812115
-0.3127000000000001,-41.139804600075266
-0.3137,-41.606659329030734
-0.3147000000000001,-42.130102509980794
-0.3157,-42.71013414292546
-0.3167000000000001,-43.27601866287147
-0.3177,-43.84190318281749
-0.3187000000000001,-44.4077877027635
-0.3197,-44.97367222270952
-0.3207000000000001,-45.53955674265553
-0.3217,-46.02055858460964
-0.3227000000000001,-46.501560426563756
-0.3237,-47.02500360751382
-0.3247000000000001,-47.506005449467935
-0.3257,-47.93041883942744
-0.3267000000000001,-48.45386202037751
-0.3277,-48.93486386233162
-0.3287000000000001,-49.50074838227763
-0.3297,-50.0807800152223
-0.3307000000000001,-50.64666453516831
-0.3317,-51.25499039411028
-0.3327000000000001,-51.86331625305225
-0.3337,-52.471642111994214
-0.3347000000000001,-53.079967970936174
-0.3357,-53.68829382987814
-0.3367000000000001,-54.31076680181876
-0.3377,-54.876651321764776
-0.3387000000000001,-55.484977180706736
-0.3397,-56.093303039648696
-0.3407000000000001,-56.70162889859067
-0.3417,-57.408984548523186
-0.3427000000000001,-58.017310407465146
-0.3437,-58.71051894439902
-0.3447000000000001,-59.44616882032884
-0.3457,-60.19596580925731
-0.3467000000000001,-60.93161568518713
-0.3477,-61.72385401311155
-0.3487000000000001,-62.459503889041365
-0.3497,-63.20930087796983
-0.3507000000000001,-63.944950753899654
-0.3517,-64.59571795183757
-0.3527000000000001,-65.3030736017701
-0.3537,-65.95384079970802
-0.3547000000000001,-66.64704933664189
-0.3557,-67.34025787357575
-0.35670000000000013,-68.04761352350828
-0.3577,-68.74082206044213
-0.35870000000000013,-69.4906190493706
-0.3597,-70.26871026429637
-0.36070000000000013,-71.06094859222078
-0.3617,-71.83903980714656
-0.3626999999999999,-72.67371947406694
-0.3637,-73.49425202798865
-0.3646999999999999,-74.28649035591307
-0.3657,-75.14946424883075
-0.3666999999999999,-75.98414391575112
-0.3677,-76.7622351306769
-0.3686999999999999,-77.59691479759726
-0.36970000000000003,-78.43159446451764
-0.3706999999999999,-79.20968567944341
-0.37170000000000003,-80.12924802435568
-0.3726999999999999,-80.99222191727335
-0.37370000000000003,-81.91178426218562
-0.3746999999999999,-82.87378794609386
-0.37570000000000003,-83.83579163000208
-0.3766999999999999,-84.75535397491434
-0.37770000000000004,-85.75979899781852
-0.3786999999999999,-86.7076555687281
-0.37970000000000004,-87.58477657464444
-0.3806999999999999,-88.5043389195567
-0.38170000000000004,-89.42390126446898
-0.38269999999999993,-90.24443381839069
-0.38370000000000004,-91.12155482430701
-0.38469999999999993,-91.98452871722468
-0.38570000000000004,-92.81920838414506
-0.38669999999999993,-92.3806478811869
-0.38570000000000004,-89.76343197643658
-0.38469999999999993,-87.58477657464444
-0.38370000000000004,-85.70321054582392
-0.38269999999999993,-84.00555698598588
-0.38170000000000004,-82.47766878213164
-0.3806999999999999,-81.13369304725985
-0.37970000000000004,-79.7755701993894
-0.3786999999999999,-78.51647714250953
-0.37770000000000004,-77.28567831162695
-0.3766999999999999,-76.11146793273898
-0.37570000000000003,-74.93725755385098
-0.3746999999999999,-73.8479298529549
-0.37370000000000003,-72.75860215205884
-0.3726999999999999,-71.6268331121668
-0.37170000000000003,-70.57994675026669
-0.3706999999999999,-69.57550172736251
-0.36970000000000003,-68.57105670445833
-0.3686999999999999,-67.56661168155415
-0.3677,-66.60460799764593
-0.3666999999999999,-65.68504565273366
-0.3657,-64.72304196882543
-0.3646999999999999,-63.77518539791585
-0.3637,-62.77074037501168
-0.3626999999999999,-61.851178030099405
-0.3617,-60.889174346191176
-0.36070000000000013,-59.842287984291055
-0.3597,-58.880284300382826
-0.35870000000000013,-57.87583927747865
-0.3577,-56.927982706569075
-0.35670000000000013,-55.96597902266086
-0.3557,-55.046416677748574
-0.3547000000000001,-54.1268543328363
-0.3537,-53.30632177891458
-0.3527000000000001,-52.471642111994214
-0.3517,-51.69355089706845
-0.3507000000000001,-50.90131256914402
-0.3497,-50.0807800152223
-0.3487000000000001,-49.28854168729788
-0.3477,-48.45386202037751
-0.3467000000000001,-47.633329466455784
-0.3457,-46.75620846053947
-0.3447000000000001,-45.89323456762179
-0.3437,-45.01611356170547
-0.3427000000000001,-44.096551216793195
-0.3417,-43.27601866287147
-0.3407000000000001,-42.4413389959511
-0.3397,-41.66324778102533
-0.3387000000000001,-40.828568114104954
-0.3377,-40.03632978618054
-0.3367000000000001,-39.30067991025072
-0.3357,-38.607471373316855
-0.3347000000000001,-37.81523304539243
-0.3337,-37.037141830466666
-0.3327000000000001,-36.28734484153819
-0.3317,-35.55169496560837
-0.3307000000000001,-34.717015298688004
-0.3297,-33.93892408376223
-0.3287000000000001,-33.18912709483376
-0.3277,-32.368594540912035
-0.3267000000000001,-31.661238890979522
-0.3257,-30.925589015049702
-0.3247000000000001,-30.232380478115836
-0.3237,-29.525024828183312
-0.3227000000000001,-28.8742576302454
-0.3217,-28.22349043230748
-0.3207000000000001,-27.615164573365515
-0.3197,-26.9643973754276
-0.3187000000000001,-26.257041725495082
-0.3177,-25.648715866553115
-0.3167000000000001,-24.95550732961925
-0.3157,-24.20571034069078
-0.3147000000000001,-23.55494314275286
-0.3137,-22.819293266823045
-0.3127000000000001,-22.069496277894572
-0.3117,-21.418729079956652
-0.3107000000000001,-20.76796188201874
-0.3097,-20.159636023076775
-0.3087000000000001,-19.579604390132108
-0.3077,-18.97127853119014
-0.3067000000000001,-18.40539401124413
-0.30569999999999997,-17.881950830294063
-0.3047000000000001,-17.316066310348052
-0.30369999999999997,-16.750181790402035
-0.3027000000000001,-16.184297270456018
-0.30169999999999997,-15.618412750510005
-0.3007000000000001,-15.01008689156804
-0.29969999999999997,-14.401761032626075
-0.2987000000000001,-13.828802956180734
-0.29769999999999996,-13.175206335643086
-0.2967000000000001,-12.651763154693022
-0.29569999999999996,-12.084463923447142
-0.2947000000000001,-11.56102074249708
-0.29369999999999996,-11.081433611842833
-0.29270000000000007,-10.557990430892769
-0.29169999999999996,-10.120844639234473
-0.29070000000000007,-9.641257508580225
-0.28969999999999996,-9.205526428221793
-0.28870000000000007,-8.68208324727173
-0.28769999999999996,-8.246352166913299
-0.28670000000000007,-7.722908985963235
-0.28569999999999995,-7.199465805013171
-0.28470000000000006,-6.6760226240631075
-0.28369999999999995,-6.152579443113044
-0.28270000000000006,-5.629136262162981
-0.28169999999999995,-5.149549131508733
-0.28070000000000006,-4.668547289554621
-0.27969999999999995,-4.1889601589003735
-0.27870000000000006,-3.7970851288377587
-0.27769999999999995,-3.403795387475278
-0.27670000000000006,-3.0119203574126634
-0.27569999999999995,-2.618630616050183
-0.27470000000000006,-2.2706116362833835
-0.27369999999999994,-1.8334658446250875
-0.27270000000000005,-1.4415908145624723
-0.27169999999999994,-1.0490084288499246
-0.27070000000000005,-0.6128529351015338
-0.26969999999999994,-0.1766974413531431
-0.26870000000000005,0.2594580523952477
-0.26769999999999994,0.6956135461436386
