Apr. 24, 2025   14:00:49
Cyclic Voltammetry
File: c:/users/guazh/data/banditlqround7_x0exp590_r20/2025-04-16-exp1176\exp1176-2025-04-24t13_43_06-h2koh\exp1176_cv_sr_50mvs_efin_-1800mv.bin
Data Source:  Experiment
Instrument Model:  CHI760E
Header: CV ran at 50 mVs
Note: 

Init E (V) = -1
High E (V) = -1
Low E (V) = -1.8
Final E (V) = -1
Init P/N = N
Scan Rate (V/s) = 0.05
Segment = 3
Sample Interval (V) = 0.001
Quiet Time (sec) = 2
Sensitivity (A/V) = 0.01
Comp R (ohm) = 1.5

Results:

Channel 1:
Segment 1:
Ep = -1.230V
ip = 1.381e-6A
Ah = 2.215e-6C

Segment 2:

Segment 3:

Potential/V, Current/A

-1.000, 1.873e-6
-1.001, 1.951e-6
-1.002, 2.050e-6
-1.003, 2.060e-6
-1.004, 2.011e-6
-1.005, 2.119e-6
-1.006, 2.208e-6
-1.007, 2.050e-6
-1.008, 2.109e-6
-1.009, 2.139e-6
-1.010, 2.119e-6
-1.011, 2.287e-6
-1.012, 2.267e-6
-1.013, 2.247e-6
-1.014, 2.169e-6
-1.015, 2.129e-6
-1.016, 2.267e-6
-1.017, 2.218e-6
-1.018, 2.228e-6
-1.019, 2.307e-6
-1.020, 2.336e-6
-1.021, 2.336e-6
-1.022, 2.297e-6
-1.023, 2.257e-6
-1.024, 2.435e-6
-1.025, 2.366e-6
-1.026, 2.494e-6
-1.027, 2.415e-6
-1.028, 2.277e-6
-1.029, 2.405e-6
-1.030, 2.465e-6
-1.031, 2.465e-6
-1.032, 2.474e-6
-1.033, 2.386e-6
-1.034, 2.474e-6
-1.035, 2.504e-6
-1.036, 2.524e-6
-1.037, 2.465e-6
-1.038, 2.583e-6
-1.039, 2.553e-6
-1.040, 2.494e-6
-1.041, 2.415e-6
-1.042, 2.543e-6
-1.043, 2.573e-6
-1.044, 2.524e-6
-1.045, 2.534e-6
-1.046, 2.672e-6
-1.047, 2.534e-6
-1.048, 2.603e-6
-1.049, 2.573e-6
-1.050, 2.662e-6
-1.051, 2.583e-6
-1.052, 2.632e-6
-1.053, 2.603e-6
-1.054, 2.534e-6
-1.055, 2.593e-6
-1.056, 2.632e-6
-1.057, 2.672e-6
-1.058, 2.682e-6
-1.059, 2.682e-6
-1.060, 2.652e-6
-1.061, 2.662e-6
-1.062, 2.672e-6
-1.063, 2.790e-6
-1.064, 2.810e-6
-1.065, 2.790e-6
-1.066, 2.770e-6
-1.067, 2.760e-6
-1.068, 2.721e-6
-1.069, 2.800e-6
-1.070, 2.731e-6
-1.071, 2.741e-6
-1.072, 2.770e-6
-1.073, 2.760e-6
-1.074, 2.820e-6
-1.075, 2.899e-6
-1.076, 2.859e-6
-1.077, 2.889e-6
-1.078, 2.948e-6
-1.079, 2.889e-6
-1.080, 2.908e-6
-1.081, 2.928e-6
-1.082, 2.958e-6
-1.083, 2.938e-6
-1.084, 2.938e-6
-1.085, 2.978e-6
-1.086, 2.997e-6
-1.087, 2.908e-6
-1.088, 2.987e-6
-1.089, 2.978e-6
-1.090, 3.135e-6
-1.091, 3.096e-6
-1.092, 3.007e-6
-1.093, 3.056e-6
-1.094, 3.037e-6
-1.095, 3.185e-6
-1.096, 3.185e-6
-1.097, 3.145e-6
-1.098, 3.244e-6
-1.099, 3.096e-6
-1.100, 3.175e-6
-1.101, 3.362e-6
-1.102, 3.274e-6
-1.103, 3.264e-6
-1.104, 3.362e-6
-1.105, 3.392e-6
-1.106, 3.471e-6
-1.107, 3.481e-6
-1.108, 3.402e-6
-1.109, 3.352e-6
-1.110, 3.402e-6
-1.111, 3.471e-6
-1.112, 3.343e-6
-1.113, 3.451e-6
-1.114, 3.441e-6
-1.115, 3.589e-6
-1.116, 3.441e-6
-1.117, 3.451e-6
-1.118, 3.491e-6
-1.119, 3.510e-6
-1.120, 3.570e-6
-1.121, 3.520e-6
-1.122, 3.550e-6
-1.123, 3.550e-6
-1.124, 3.599e-6
-1.125, 3.619e-6
-1.126, 3.599e-6
-1.127, 3.678e-6
-1.128, 3.589e-6
-1.129, 3.727e-6
-1.130, 3.767e-6
-1.131, 3.708e-6
-1.132, 3.708e-6
-1.133, 3.747e-6
-1.134, 3.717e-6
-1.135, 3.806e-6
-1.136, 3.816e-6
-1.137, 3.796e-6
-1.138, 3.757e-6
-1.139, 3.836e-6
-1.140, 3.935e-6
-1.141, 3.856e-6
-1.142, 3.777e-6
-1.143, 3.856e-6
-1.144, 3.885e-6
-1.145, 4.013e-6
-1.146, 4.013e-6
-1.147, 3.895e-6
-1.148, 3.925e-6
-1.149, 4.043e-6
-1.150, 3.984e-6
-1.151, 3.964e-6
-1.152, 4.043e-6
-1.153, 3.994e-6
-1.154, 4.053e-6
-1.155, 4.122e-6
-1.156, 4.171e-6
-1.157, 4.132e-6
-1.158, 4.201e-6
-1.159, 4.201e-6
-1.160, 4.240e-6
-1.161, 4.191e-6
-1.162, 4.191e-6
-1.163, 4.280e-6
-1.164, 4.260e-6
-1.165, 4.467e-6
-1.166, 4.319e-6
-1.167, 4.369e-6
-1.168, 4.408e-6
-1.169, 4.457e-6
-1.170, 4.487e-6
-1.171, 4.418e-6
-1.172, 4.467e-6
-1.173, 4.428e-6
-1.174, 4.428e-6
-1.175, 4.596e-6
-1.176, 4.438e-6
-1.177, 4.418e-6
-1.178, 4.635e-6
-1.179, 4.615e-6
-1.180, 4.744e-6
-1.181, 4.674e-6
-1.182, 4.724e-6
-1.183, 4.694e-6
-1.184, 4.714e-6
-1.185, 4.832e-6
-1.186, 4.724e-6
-1.187, 4.714e-6
-1.188, 4.872e-6
-1.189, 4.744e-6
-1.190, 4.921e-6
-1.191, 4.852e-6
-1.192, 4.862e-6
-1.193, 4.892e-6
-1.194, 4.852e-6
-1.195, 4.901e-6
-1.196, 4.931e-6
-1.197, 4.882e-6
-1.198, 4.862e-6
-1.199, 4.931e-6
-1.200, 5.040e-6
-1.201, 5.030e-6
-1.202, 5.020e-6
-1.203, 5.040e-6
-1.204, 5.049e-6
-1.205, 5.118e-6
-1.206, 5.069e-6
-1.207, 5.109e-6
-1.208, 5.049e-6
-1.209, 5.079e-6
-1.210, 5.178e-6
-1.211, 5.109e-6
-1.212, 5.079e-6
-1.213, 5.276e-6
-1.214, 5.148e-6
-1.215, 5.336e-6
-1.216, 5.207e-6
-1.217, 5.266e-6
-1.218, 5.286e-6
-1.219, 5.217e-6
-1.220, 5.257e-6
-1.221, 5.168e-6
-1.222, 5.118e-6
-1.223, 5.158e-6
-1.224, 5.207e-6
-1.225, 5.257e-6
-1.226, 5.197e-6
-1.227, 5.237e-6
-1.228, 5.158e-6
-1.229, 5.336e-6
-1.230, 5.375e-6
-1.231, 5.227e-6
-1.232, 5.158e-6
-1.233, 5.188e-6
-1.234, 5.237e-6
-1.235, 5.306e-6
-1.236, 5.197e-6
-1.237, 5.178e-6
-1.238, 5.138e-6
-1.239, 5.109e-6
-1.240, 5.128e-6
-1.241, 5.158e-6
-1.242, 5.138e-6
-1.243, 5.138e-6
-1.244, 5.069e-6
-1.245, 5.237e-6
-1.246, 5.030e-6
-1.247, 5.168e-6
-1.248, 5.079e-6
-1.249, 5.020e-6
-1.250, 5.099e-6
-1.251, 5.109e-6
-1.252, 5.059e-6
-1.253, 5.030e-6
-1.254, 4.970e-6
-1.255, 5.118e-6
-1.256, 5.000e-6
-1.257, 4.961e-6
-1.258, 5.069e-6
-1.259, 4.961e-6
-1.260, 5.089e-6
-1.261, 4.921e-6
-1.262, 4.901e-6
-1.263, 5.040e-6
-1.264, 4.892e-6
-1.265, 4.980e-6
-1.266, 4.961e-6
-1.267, 4.911e-6
-1.268, 4.970e-6
-1.269, 4.882e-6
-1.270, 5.020e-6
-1.271, 4.951e-6
-1.272, 4.941e-6
-1.273, 4.882e-6
-1.274, 4.901e-6
-1.275, 5.010e-6
-1.276, 4.980e-6
-1.277, 4.941e-6
-1.278, 4.763e-6
-1.279, 4.911e-6
-1.280, 5.010e-6
-1.281, 4.901e-6
-1.282, 4.852e-6
-1.283, 4.882e-6
-1.284, 4.813e-6
-1.285, 4.931e-6
-1.286, 4.941e-6
-1.287, 4.941e-6
-1.288, 4.813e-6
-1.289, 4.941e-6
-1.290, 4.970e-6
-1.291, 4.921e-6
-1.292, 4.911e-6
-1.293, 4.803e-6
-1.294, 4.882e-6
-1.295, 4.980e-6
-1.296, 4.872e-6
-1.297, 4.882e-6
-1.298, 4.842e-6
-1.299, 4.941e-6
-1.300, 5.030e-6
-1.301, 4.961e-6
-1.302, 4.931e-6
-1.303, 4.961e-6
-1.304, 4.941e-6
-1.305, 4.990e-6
-1.306, 4.990e-6
-1.307, 4.911e-6
-1.308, 4.990e-6
-1.309, 5.079e-6
-1.310, 5.109e-6
-1.311, 5.010e-6
-1.312, 5.049e-6
-1.313, 5.020e-6
-1.314, 5.089e-6
-1.315, 5.020e-6
-1.316, 4.980e-6
-1.317, 4.961e-6
-1.318, 5.059e-6
-1.319, 5.138e-6
-1.320, 5.306e-6
-1.321, 5.257e-6
-1.322, 5.099e-6
-1.323, 5.197e-6
-1.324, 5.365e-6
-1.325, 5.444e-6
-1.326, 5.276e-6
-1.327, 5.316e-6
-1.328, 5.336e-6
-1.329, 5.296e-6
-1.330, 5.326e-6
-1.331, 5.385e-6
-1.332, 5.464e-6
-1.333, 5.375e-6
-1.334, 5.424e-6
-1.335, 5.454e-6
-1.336, 5.385e-6
-1.337, 5.434e-6
-1.338, 5.483e-6
-1.339, 5.533e-6
-1.340, 5.553e-6
-1.341, 5.503e-6
-1.342, 5.543e-6
-1.343, 5.414e-6
-1.344, 5.582e-6
-1.345, 5.681e-6
-1.346, 5.612e-6
-1.347, 5.691e-6
-1.348, 5.661e-6
-1.349, 5.740e-6
-1.350, 5.740e-6
-1.351, 5.858e-6
-1.352, 5.730e-6
-1.353, 5.770e-6
-1.354, 5.799e-6
-1.355, 5.849e-6
-1.356, 5.858e-6
-1.357, 5.878e-6
-1.358, 5.977e-6
-1.359, 5.977e-6
-1.360, 5.987e-6
-1.361, 6.036e-6
-1.362, 5.997e-6
-1.363, 5.967e-6
-1.364, 6.115e-6
-1.365, 6.006e-6
-1.366, 6.026e-6
-1.367, 6.056e-6
-1.368, 6.026e-6
-1.369, 6.066e-6
-1.370, 6.174e-6
-1.371, 6.223e-6
-1.372, 6.154e-6
-1.373, 6.164e-6
-1.374, 6.233e-6
-1.375, 6.263e-6
-1.376, 6.233e-6
-1.377, 6.243e-6
-1.378, 6.135e-6
-1.379, 6.253e-6
-1.380, 6.391e-6
-1.381, 6.293e-6
-1.382, 6.421e-6
-1.383, 6.519e-6
-1.384, 6.490e-6
-1.385, 6.539e-6
-1.386, 6.569e-6
-1.387, 6.559e-6
-1.388, 6.638e-6
-1.389, 6.648e-6
-1.390, 6.746e-6
-1.391, 6.638e-6
-1.392, 6.717e-6
-1.393, 6.756e-6
-1.394, 6.796e-6
-1.395, 6.884e-6
-1.396, 6.894e-6
-1.397, 6.944e-6
-1.398, 6.894e-6
-1.399, 6.993e-6
-1.400, 7.072e-6
-1.401, 7.072e-6
-1.402, 7.190e-6
-1.403, 7.171e-6
-1.404, 7.220e-6
-1.405, 7.250e-6
-1.406, 7.171e-6
-1.407, 7.190e-6
-1.408, 7.338e-6
-1.409, 7.388e-6
-1.410, 7.407e-6
-1.411, 7.388e-6
-1.412, 7.476e-6
-1.413, 7.388e-6
-1.414, 7.457e-6
-1.415, 7.536e-6
-1.416, 7.575e-6
-1.417, 7.545e-6
-1.418, 7.605e-6
-1.419, 7.772e-6
-1.420, 7.654e-6
-1.421, 7.733e-6
-1.422, 7.851e-6
-1.423, 7.861e-6
-1.424, 7.802e-6
-1.425, 7.920e-6
-1.426, 7.920e-6
-1.427, 8.049e-6
-1.428, 8.068e-6
-1.429, 8.147e-6
-1.430, 8.118e-6
-1.431, 8.029e-6
-1.432, 8.177e-6
-1.433, 8.236e-6
-1.434, 8.335e-6
-1.435, 8.453e-6
-1.436, 8.433e-6
-1.437, 8.483e-6
-1.438, 8.591e-6
-1.439, 8.700e-6
-1.440, 8.868e-6
-1.441, 8.868e-6
-1.442, 8.838e-6
-1.443, 8.927e-6
-1.444, 9.016e-6
-1.445, 9.104e-6
-1.446, 9.025e-6
-1.447, 9.144e-6
-1.448, 9.223e-6
-1.449, 9.311e-6
-1.450, 9.390e-6
-1.451, 9.331e-6
-1.452, 9.381e-6
-1.453, 9.440e-6
-1.454, 9.607e-6
-1.455, 9.598e-6
-1.456, 9.637e-6
-1.457, 9.706e-6
-1.458, 9.736e-6
-1.459, 9.894e-6
-1.460, 9.992e-6
-1.461, 9.992e-6
-1.462, 1.016e-5
-1.463, 1.016e-5
-1.464, 1.027e-5
-1.465, 1.034e-5
-1.466, 1.038e-5
-1.467, 1.033e-5
-1.468, 1.057e-5
-1.469, 1.077e-5
-1.470, 1.076e-5
-1.471, 1.082e-5
-1.472, 1.106e-5
-1.473, 1.114e-5
-1.474, 1.118e-5
-1.475, 1.136e-5
-1.476, 1.130e-5
-1.477, 1.153e-5
-1.478, 1.162e-5
-1.479, 1.190e-5
-1.480, 1.183e-5
-1.481, 1.200e-5
-1.482, 1.212e-5
-1.483, 1.225e-5
-1.484, 1.255e-5
-1.485, 1.273e-5
-1.486, 1.289e-5
-1.487, 1.307e-5
-1.488, 1.317e-5
-1.489, 1.347e-5
-1.490, 1.353e-5
-1.491, 1.370e-5
-1.492, 1.382e-5
-1.493, 1.401e-5
-1.494, 1.429e-5
-1.495, 1.451e-5
-1.496, 1.463e-5
-1.497, 1.496e-5
-1.498, 1.525e-5
-1.499, 1.556e-5
-1.500, 1.571e-5
-1.501, 1.584e-5
-1.502, 1.610e-5
-1.503, 1.628e-5
-1.504, 1.655e-5
-1.505, 1.685e-5
-1.506, 1.704e-5
-1.507, 1.743e-5
-1.508, 1.755e-5
-1.509, 1.796e-5
-1.510, 1.831e-5
-1.511, 1.862e-5
-1.512, 1.891e-5
-1.513, 1.927e-5
-1.514, 1.964e-5
-1.515, 1.992e-5
-1.516, 2.020e-5
-1.517, 2.053e-5
-1.518, 2.090e-5
-1.519, 2.146e-5
-1.520, 2.169e-5
-1.521, 2.199e-5
-1.522, 2.242e-5
-1.523, 2.293e-5
-1.524, 2.338e-5
-1.525, 2.375e-5
-1.526, 2.412e-5
-1.527, 2.458e-5
-1.528, 2.498e-5
-1.529, 2.544e-5
-1.530, 2.582e-5
-1.531, 2.629e-5
-1.532, 2.676e-5
-1.533, 2.731e-5
-1.534, 2.786e-5
-1.535, 2.841e-5
-1.536, 2.898e-5
-1.537, 2.958e-5
-1.538, 3.009e-5
-1.539, 3.082e-5
-1.540, 3.134e-5
-1.541, 3.181e-5
-1.542, 3.241e-5
-1.543, 3.307e-5
-1.544, 3.362e-5
-1.545, 3.425e-5
-1.546, 3.487e-5
-1.547, 3.552e-5
-1.548, 3.615e-5
-1.549, 3.702e-5
-1.550, 3.760e-5
-1.551, 3.841e-5
-1.552, 3.916e-5
-1.553, 3.996e-5
-1.554, 4.088e-5
-1.555, 4.161e-5
-1.556, 4.244e-5
-1.557, 4.326e-5
-1.558, 4.409e-5
-1.559, 4.504e-5
-1.560, 4.586e-5
-1.561, 4.678e-5
-1.562, 4.782e-5
-1.563, 4.871e-5
-1.564, 4.986e-5
-1.565, 5.099e-5
-1.566, 5.210e-5
-1.567, 5.319e-5
-1.568, 5.423e-5
-1.569, 5.542e-5
-1.570, 5.652e-5
-1.571, 5.784e-5
-1.572, 5.909e-5
-1.573, 6.031e-5
-1.574, 6.164e-5
-1.575, 6.293e-5
-1.576, 6.426e-5
-1.577, 6.560e-5
-1.578, 6.717e-5
-1.579, 6.883e-5
-1.580, 7.035e-5
-1.581, 7.195e-5
-1.582, 7.337e-5
-1.583, 7.518e-5
-1.584, 7.685e-5
-1.585, 7.871e-5
-1.586, 8.080e-5
-1.587, 8.272e-5
-1.588, 8.475e-5
-1.589, 8.690e-5
-1.590, 8.892e-5
-1.591, 9.110e-5
-1.592, 9.325e-5
-1.593, 9.559e-5
-1.594, 9.818e-5
-1.595, 1.006e-4
-1.596, 1.032e-4
-1.597, 1.057e-4
-1.598, 1.085e-4
-1.599, 1.114e-4
-1.600, 1.141e-4
-1.601, 1.171e-4
-1.602, 1.202e-4
-1.603, 1.236e-4
-1.604, 1.272e-4
-1.605, 1.307e-4
-1.606, 1.342e-4
-1.607, 1.376e-4
-1.608, 1.416e-4
-1.609, 1.454e-4
-1.610, 1.492e-4
-1.611, 1.535e-4
-1.612, 1.581e-4
-1.613, 1.626e-4
-1.614, 1.673e-4
-1.615, 1.724e-4
-1.616, 1.774e-4
-1.617, 1.826e-4
-1.618, 1.879e-4
-1.619, 1.934e-4
-1.620, 1.994e-4
-1.621, 2.058e-4
-1.622, 2.121e-4
-1.623, 2.179e-4
-1.624, 2.239e-4
-1.625, 2.313e-4
-1.626, 2.383e-4
-1.627, 2.458e-4
-1.628, 2.532e-4
-1.629, 2.613e-4
-1.630, 2.690e-4
-1.631, 2.771e-4
-1.632, 2.866e-4
-1.633, 2.955e-4
-1.634, 3.046e-4
-1.635, 3.148e-4
-1.636, 3.250e-4
-1.637, 3.357e-4
-1.638, 3.469e-4
-1.639, 3.579e-4
-1.640, 3.699e-4
-1.641, 3.815e-4
-1.642, 3.936e-4
-1.643, 4.069e-4
-1.644, 4.204e-4
-1.645, 4.338e-4
-1.646, 4.474e-4
-1.647, 4.629e-4
-1.648, 4.784e-4
-1.649, 4.943e-4
-1.650, 5.102e-4
-1.651, 5.259e-4
-1.652, 5.446e-4
-1.653, 5.619e-4
-1.654, 5.811e-4
-1.655, 6.009e-4
-1.656, 6.182e-4
-1.657, 6.387e-4
-1.658, 6.603e-4
-1.659, 6.834e-4
-1.660, 7.061e-4
-1.661, 7.278e-4
-1.662, 7.521e-4
-1.663, 7.774e-4
-1.664, 8.040e-4
-1.665, 8.291e-4
-1.666, 8.551e-4
-1.667, 8.845e-4
-1.668, 9.140e-4
-1.669, 9.424e-4
-1.670, 9.723e-4
-1.671, 1.004e-3
-1.672, 1.036e-3
-1.673, 1.068e-3
-1.674, 1.104e-3
-1.675, 1.141e-3
-1.676, 1.175e-3
-1.677, 1.211e-3
-1.678, 1.250e-3
-1.679, 1.287e-3
-1.680, 1.326e-3
-1.681, 1.367e-3
-1.682, 1.410e-3
-1.683, 1.453e-3
-1.684, 1.497e-3
-1.685, 1.543e-3
-1.686, 1.586e-3
-1.687, 1.635e-3
-1.688, 1.683e-3
-1.689, 1.732e-3
-1.690, 1.780e-3
-1.691, 1.832e-3
-1.692, 1.885e-3
-1.693, 1.936e-3
-1.694, 1.990e-3
-1.695, 2.045e-3
-1.696, 2.100e-3
-1.697, 2.158e-3
-1.698, 2.215e-3
-1.699, 2.278e-3
-1.700, 2.335e-3
-1.701, 2.395e-3
-1.702, 2.461e-3
-1.703, 2.526e-3
-1.704, 2.588e-3
-1.705, 2.654e-3
-1.706, 2.720e-3
-1.707, 2.787e-3
-1.708, 2.857e-3
-1.709, 2.929e-3
-1.710, 3.003e-3
-1.711, 3.072e-3
-1.712, 3.146e-3
-1.713, 3.224e-3
-1.714, 3.298e-3
-1.715, 3.378e-3
-1.716, 3.455e-3
-1.717, 3.536e-3
-1.718, 3.619e-3
-1.719, 3.700e-3
-1.720, 3.780e-3
-1.721, 3.865e-3
-1.722, 3.952e-3
-1.723, 4.035e-3
-1.724, 4.112e-3
-1.725, 4.194e-3
-1.726, 4.284e-3
-1.727, 4.364e-3
-1.728, 4.449e-3
-1.729, 4.539e-3
-1.730, 4.629e-3
-1.731, 4.717e-3
-1.732, 4.816e-3
-1.733, 4.908e-3
-1.734, 5.006e-3
-1.735, 5.098e-3
-1.736, 5.192e-3
-1.737, 5.297e-3
-1.738, 5.396e-3
-1.739, 5.488e-3
-1.740, 5.591e-3
-1.741, 5.701e-3
-1.742, 5.799e-3
-1.743, 5.904e-3
-1.744, 6.007e-3
-1.745, 6.122e-3
-1.746, 6.218e-3
-1.747, 6.323e-3
-1.748, 6.426e-3
-1.749, 6.532e-3
-1.750, 6.632e-3
-1.751, 6.748e-3
-1.752, 6.857e-3
-1.753, 6.961e-3
-1.754, 7.064e-3
-1.755, 7.175e-3
-1.756, 7.283e-3
-1.757, 7.373e-3
-1.758, 7.481e-3
-1.759, 7.582e-3
-1.760, 7.695e-3
-1.761, 7.817e-3
-1.762, 7.939e-3
-1.763, 8.053e-3
-1.764, 8.156e-3
-1.765, 8.275e-3
-1.766, 8.392e-3
-1.767, 8.507e-3
-1.768, 8.606e-3
-1.769, 8.725e-3
-1.770, 8.834e-3
-1.771, 8.944e-3
-1.772, 9.042e-3
-1.773, 9.140e-3
-1.774, 9.255e-3
-1.775, 9.381e-3
-1.776, 9.502e-3
-1.777, 9.643e-3
-1.778, 9.792e-3
-1.779, 9.965e-3
-1.780, 1.007e-2
-1.781, 1.016e-2
-1.782, 1.026e-2
-1.783, 1.037e-2
-1.784, 1.047e-2
-1.785, 1.059e-2
-1.786, 1.071e-2
-1.787, 1.084e-2
-1.788, 1.099e-2
-1.789, 1.112e-2
-1.790, 1.126e-2
-1.791, 1.138e-2
-1.792, 1.151e-2
-1.793, 1.160e-2
-1.794, 1.169e-2
-1.795, 1.178e-2
-1.796, 1.189e-2
-1.797, 1.199e-2
-1.798, 1.210e-2
-1.799, 1.222e-2
-1.800, 1.225e-2
-1.799, 1.220e-2
-1.798, 1.215e-2
-1.797, 1.214e-2
-1.796, 1.211e-2
-1.795, 1.207e-2
-1.794, 1.198e-2
-1.793, 1.196e-2
-1.792, 1.192e-2
-1.791, 1.184e-2
-1.790, 1.179e-2
-1.789, 1.177e-2
-1.788, 1.174e-2
-1.787, 1.171e-2
-1.786, 1.169e-2
-1.785, 1.163e-2
-1.784, 1.156e-2
-1.783, 1.150e-2
-1.782, 1.142e-2
-1.781, 1.137e-2
-1.780, 1.134e-2
-1.779, 1.129e-2
-1.778, 1.125e-2
-1.777, 1.121e-2
-1.776, 1.113e-2
-1.775, 1.105e-2
-1.774, 1.098e-2
-1.773, 1.089e-2
-1.772, 1.082e-2
-1.771, 1.082e-2
-1.770, 1.081e-2
-1.769, 1.077e-2
-1.768, 1.071e-2
-1.767, 1.065e-2
-1.766, 1.060e-2
-1.765, 1.057e-2
-1.764, 1.047e-2
-1.763, 1.040e-2
-1.762, 1.031e-2
-1.761, 1.022e-2
-1.760, 1.015e-2
-1.759, 1.012e-2
-1.758, 1.012e-2
-1.757, 1.016e-2
-1.756, 1.013e-2
-1.755, 1.005e-2
-1.754, 9.998e-3
-1.753, 9.934e-3
-1.752, 9.854e-3
-1.751, 9.798e-3
-1.750, 9.763e-3
-1.749, 9.716e-3
-1.748, 9.661e-3
-1.747, 9.605e-3
-1.746, 9.540e-3
-1.745, 9.471e-3
-1.744, 9.395e-3
-1.743, 9.328e-3
-1.742, 9.264e-3
-1.741, 9.198e-3
-1.740, 9.168e-3
-1.739, 9.105e-3
-1.738, 9.035e-3
-1.737, 8.990e-3
-1.736, 8.944e-3
-1.735, 8.897e-3
-1.734, 8.817e-3
-1.733, 8.739e-3
-1.732, 8.658e-3
-1.731, 8.589e-3
-1.730, 8.518e-3
-1.729, 8.449e-3
-1.728, 8.400e-3
-1.727, 8.344e-3
-1.726, 8.299e-3
-1.725, 8.263e-3
-1.724, 8.196e-3
-1.723, 8.116e-3
-1.722, 8.045e-3
-1.721, 7.963e-3
-1.720, 7.898e-3
-1.719, 7.829e-3
-1.718, 7.781e-3
-1.717, 7.730e-3
-1.716, 7.674e-3
-1.715, 7.599e-3
-1.714, 7.532e-3
-1.713, 7.457e-3
-1.712, 7.391e-3
-1.711, 7.311e-3
-1.710, 7.242e-3
-1.709, 7.174e-3
-1.708, 7.107e-3
-1.707, 7.041e-3
-1.706, 6.980e-3
-1.705, 6.928e-3
-1.704, 6.865e-3
-1.703, 6.799e-3
-1.702, 6.737e-3
-1.701, 6.678e-3
-1.700, 6.606e-3
-1.699, 6.542e-3
-1.698, 6.475e-3
-1.697, 6.424e-3
-1.696, 6.380e-3
-1.695, 6.335e-3
-1.694, 6.268e-3
-1.693, 6.207e-3
-1.692, 6.146e-3
-1.691, 6.085e-3
-1.690, 6.017e-3
-1.689, 5.963e-3
-1.688, 5.917e-3
-1.687, 5.857e-3
-1.686, 5.800e-3
-1.685, 5.757e-3
-1.684, 5.701e-3
-1.683, 5.633e-3
-1.682, 5.572e-3
-1.681, 5.503e-3
-1.680, 5.446e-3
-1.679, 5.383e-3
-1.678, 5.319e-3
-1.677, 5.262e-3
-1.676, 5.198e-3
-1.675, 5.146e-3
-1.674, 5.083e-3
-1.673, 5.032e-3
-1.672, 4.976e-3
-1.671, 4.923e-3
-1.670, 4.877e-3
-1.669, 4.824e-3
-1.668, 4.780e-3
-1.667, 4.728e-3
-1.666, 4.670e-3
-1.665, 4.617e-3
-1.664, 4.567e-3
-1.663, 4.515e-3
-1.662, 4.456e-3
-1.661, 4.404e-3
-1.660, 4.348e-3
-1.659, 4.295e-3
-1.658, 4.243e-3
-1.657, 4.196e-3
-1.656, 4.149e-3
-1.655, 4.095e-3
-1.654, 4.051e-3
-1.653, 4.009e-3
-1.652, 3.957e-3
-1.651, 3.904e-3
-1.650, 3.856e-3
-1.649, 3.800e-3
-1.648, 3.753e-3
-1.647, 3.708e-3
-1.646, 3.659e-3
-1.645, 3.599e-3
-1.644, 3.561e-3
-1.643, 3.518e-3
-1.642, 3.469e-3
-1.641, 3.419e-3
-1.640, 3.369e-3
-1.639, 3.320e-3
-1.638, 3.273e-3
-1.637, 3.232e-3
-1.636, 3.185e-3
-1.635, 3.135e-3
-1.634, 3.085e-3
-1.633, 3.040e-3
-1.632, 2.995e-3
-1.631, 2.948e-3
-1.630, 2.906e-3
-1.629, 2.862e-3
-1.628, 2.820e-3
-1.627, 2.774e-3
-1.626, 2.733e-3
-1.625, 2.694e-3
-1.624, 2.654e-3
-1.623, 2.610e-3
-1.622, 2.570e-3
-1.621, 2.530e-3
-1.620, 2.487e-3
-1.619, 2.449e-3
-1.618, 2.410e-3
-1.617, 2.370e-3
-1.616, 2.330e-3
-1.615, 2.294e-3
-1.614, 2.258e-3
-1.613, 2.220e-3
-1.612, 2.180e-3
-1.611, 2.146e-3
-1.610, 2.111e-3
-1.609, 2.071e-3
-1.608, 2.035e-3
-1.607, 2.002e-3
-1.606, 1.967e-3
-1.605, 1.931e-3
-1.604, 1.897e-3
-1.603, 1.863e-3
-1.602, 1.831e-3
-1.601, 1.798e-3
-1.600, 1.766e-3
-1.599, 1.733e-3
-1.598, 1.703e-3
-1.597, 1.672e-3
-1.596, 1.641e-3
-1.595, 1.609e-3
-1.594, 1.578e-3
-1.593, 1.548e-3
-1.592, 1.520e-3
-1.591, 1.489e-3
-1.590, 1.460e-3
-1.589, 1.431e-3
-1.588, 1.403e-3
-1.587, 1.375e-3
-1.586, 1.347e-3
-1.585, 1.320e-3
-1.584, 1.291e-3
-1.583, 1.265e-3
-1.582, 1.238e-3
-1.581, 1.214e-3
-1.580, 1.190e-3
-1.579, 1.164e-3
-1.578, 1.140e-3
-1.577, 1.114e-3
-1.576, 1.091e-3
-1.575, 1.067e-3
-1.574, 1.044e-3
-1.573, 1.021e-3
-1.572, 9.997e-4
-1.571, 9.779e-4
-1.570, 9.565e-4
-1.569, 9.342e-4
-1.568, 9.141e-4
-1.567, 8.941e-4
-1.566, 8.722e-4
-1.565, 8.523e-4
-1.564, 8.331e-4
-1.563, 8.133e-4
-1.562, 7.940e-4
-1.561, 7.758e-4
-1.560, 7.568e-4
-1.559, 7.384e-4
-1.558, 7.210e-4
-1.557, 7.038e-4
-1.556, 6.869e-4
-1.555, 6.702e-4
-1.554, 6.526e-4
-1.553, 6.356e-4
-1.552, 6.194e-4
-1.551, 6.039e-4
-1.550, 5.892e-4
-1.549, 5.742e-4
-1.548, 5.594e-4
-1.547, 5.449e-4
-1.546, 5.314e-4
-1.545, 5.174e-4
-1.544, 5.039e-4
-1.543, 4.910e-4
-1.542, 4.782e-4
-1.541, 4.656e-4
-1.540, 4.528e-4
-1.539, 4.397e-4
-1.538, 4.275e-4
-1.537, 4.157e-4
-1.536, 4.040e-4
-1.535, 3.930e-4
-1.534, 3.820e-4
-1.533, 3.713e-4
-1.532, 3.608e-4
-1.531, 3.505e-4
-1.530, 3.401e-4
-1.529, 3.296e-4
-1.528, 3.196e-4
-1.527, 3.102e-4
-1.526, 3.014e-4
-1.525, 2.927e-4
-1.524, 2.843e-4
-1.523, 2.763e-4
-1.522, 2.684e-4
-1.521, 2.605e-4
-1.520, 2.527e-4
-1.519, 2.451e-4
-1.518, 2.380e-4
-1.517, 2.310e-4
-1.516, 2.242e-4
-1.515, 2.174e-4
-1.514, 2.108e-4
-1.513, 2.048e-4
-1.512, 1.988e-4
-1.511, 1.928e-4
-1.510, 1.871e-4
-1.509, 1.812e-4
-1.508, 1.758e-4
-1.507, 1.706e-4
-1.506, 1.655e-4
-1.505, 1.604e-4
-1.504, 1.552e-4
-1.503, 1.506e-4
-1.502, 1.462e-4
-1.501, 1.417e-4
-1.500, 1.375e-4
-1.499, 1.333e-4
-1.498, 1.293e-4
-1.497, 1.253e-4
-1.496, 1.215e-4
-1.495, 1.177e-4
-1.494, 1.141e-4
-1.493, 1.109e-4
-1.492, 1.075e-4
-1.491, 1.043e-4
-1.490, 1.012e-4
-1.489, 9.801e-5
-1.488, 9.480e-5
-1.487, 9.180e-5
-1.486, 8.888e-5
-1.485, 8.630e-5
-1.484, 8.358e-5
-1.483, 8.133e-5
-1.482, 7.878e-5
-1.481, 7.633e-5
-1.480, 7.410e-5
-1.479, 7.174e-5
-1.478, 6.950e-5
-1.477, 6.734e-5
-1.476, 6.533e-5
-1.475, 6.338e-5
-1.474, 6.149e-5
-1.473, 5.962e-5
-1.472, 5.780e-5
-1.471, 5.604e-5
-1.470, 5.436e-5
-1.469, 5.265e-5
-1.468, 5.109e-5
-1.467, 4.952e-5
-1.466, 4.791e-5
-1.465, 4.636e-5
-1.464, 4.500e-5
-1.463, 4.372e-5
-1.462, 4.227e-5
-1.461, 4.103e-5
-1.460, 3.988e-5
-1.459, 3.849e-5
-1.458, 3.748e-5
-1.457, 3.625e-5
-1.456, 3.527e-5
-1.455, 3.408e-5
-1.454, 3.310e-5
-1.453, 3.216e-5
-1.452, 3.116e-5
-1.451, 3.018e-5
-1.450, 2.925e-5
-1.449, 2.844e-5
-1.448, 2.763e-5
-1.447, 2.688e-5
-1.446, 2.590e-5
-1.445, 2.519e-5
-1.444, 2.437e-5
-1.443, 2.369e-5
-1.442, 2.304e-5
-1.441, 2.229e-5
-1.440, 2.160e-5
-1.439, 2.101e-5
-1.438, 2.051e-5
-1.437, 1.987e-5
-1.436, 1.925e-5
-1.435, 1.873e-5
-1.434, 1.812e-5
-1.433, 1.762e-5
-1.432, 1.701e-5
-1.431, 1.668e-5
-1.430, 1.610e-5
-1.429, 1.567e-5
-1.428, 1.539e-5
-1.427, 1.478e-5
-1.426, 1.437e-5
-1.425, 1.411e-5
-1.424, 1.362e-5
-1.423, 1.330e-5
-1.422, 1.307e-5
-1.421, 1.264e-5
-1.420, 1.232e-5
-1.419, 1.197e-5
-1.418, 1.177e-5
-1.417, 1.130e-5
-1.416, 1.104e-5
-1.415, 1.091e-5
-1.414, 1.051e-5
-1.413, 1.029e-5
-1.412, 1.003e-5
-1.411, 9.854e-6
-1.410, 9.578e-6
-1.409, 9.361e-6
-1.408, 9.055e-6
-1.407, 8.887e-6
-1.406, 8.749e-6
-1.405, 8.453e-6
-1.404, 8.335e-6
-1.403, 8.216e-6
-1.402, 7.911e-6
-1.401, 7.763e-6
-1.400, 7.585e-6
-1.399, 7.427e-6
-1.398, 7.358e-6
-1.397, 7.121e-6
-1.396, 7.003e-6
-1.395, 6.815e-6
-1.394, 6.579e-6
-1.393, 6.618e-6
-1.392, 6.411e-6
-1.391, 6.283e-6
-1.390, 6.194e-6
-1.389, 6.006e-6
-1.388, 6.026e-6
-1.387, 5.888e-6
-1.386, 5.878e-6
-1.385, 5.661e-6
-1.384, 5.612e-6
-1.383, 5.582e-6
-1.382, 5.365e-6
-1.381, 5.306e-6
-1.380, 5.109e-6
-1.379, 5.069e-6
-1.378, 5.138e-6
-1.377, 5.079e-6
-1.376, 4.793e-6
-1.375, 4.744e-6
-1.374, 4.734e-6
-1.373, 4.813e-6
-1.372, 4.586e-6
-1.371, 4.605e-6
-1.370, 4.517e-6
-1.369, 4.526e-6
-1.368, 4.546e-6
-1.367, 4.388e-6
-1.366, 4.339e-6
-1.365, 4.319e-6
-1.364, 4.191e-6
-1.363, 4.221e-6
-1.362, 4.112e-6
-1.361, 4.112e-6
-1.360, 4.043e-6
-1.359, 4.073e-6
-1.358, 3.944e-6
-1.357, 3.865e-6
-1.356, 3.747e-6
-1.355, 3.856e-6
-1.354, 3.708e-6
-1.353, 3.717e-6
-1.352, 3.708e-6
-1.351, 3.688e-6
-1.350, 3.461e-6
-1.349, 3.500e-6
-1.348, 3.510e-6
-1.347, 3.471e-6
-1.346, 3.431e-6
-1.345, 3.431e-6
-1.344, 3.274e-6
-1.343, 3.352e-6
-1.342, 3.264e-6
-1.341, 3.195e-6
-1.340, 3.185e-6
-1.339, 3.185e-6
-1.338, 3.214e-6
-1.337, 3.086e-6
-1.336, 3.126e-6
-1.335, 3.106e-6
-1.334, 3.056e-6
-1.333, 3.185e-6
-1.332, 3.096e-6
-1.331, 2.958e-6
-1.330, 3.017e-6
-1.329, 2.859e-6
-1.328, 2.908e-6
-1.327, 2.899e-6
-1.326, 2.770e-6
-1.325, 2.770e-6
-1.324, 2.800e-6
-1.323, 2.820e-6
-1.322, 2.800e-6
-1.321, 2.662e-6
-1.320, 2.691e-6
-1.319, 2.721e-6
-1.318, 2.691e-6
-1.317, 2.593e-6
-1.316, 2.484e-6
-1.315, 2.445e-6
-1.314, 2.573e-6
-1.313, 2.632e-6
-1.312, 2.553e-6
-1.311, 2.494e-6
-1.310, 2.455e-6
-1.309, 2.386e-6
-1.308, 2.583e-6
-1.307, 2.504e-6
-1.306, 2.474e-6
-1.305, 2.395e-6
-1.304, 2.395e-6
-1.303, 2.543e-6
-1.302, 2.425e-6
-1.301, 2.317e-6
-1.300, 2.366e-6
-1.299, 2.228e-6
-1.298, 2.257e-6
-1.297, 2.297e-6
-1.296, 2.228e-6
-1.295, 2.188e-6
-1.294, 2.238e-6
-1.293, 2.287e-6
-1.292, 2.169e-6
-1.291, 2.139e-6
-1.290, 2.070e-6
-1.289, 2.070e-6
-1.288, 2.159e-6
-1.287, 2.109e-6
-1.286, 1.961e-6
-1.285, 2.129e-6
-1.284, 2.060e-6
-1.283, 2.178e-6
-1.282, 2.070e-6
-1.281, 2.021e-6
-1.280, 1.942e-6
-1.279, 1.951e-6
-1.278, 2.021e-6
-1.277, 1.843e-6
-1.276, 1.912e-6
-1.275, 1.873e-6
-1.274, 1.932e-6
-1.273, 1.873e-6
-1.272, 1.823e-6
-1.271, 1.803e-6
-1.270, 1.784e-6
-1.269, 1.803e-6
-1.268, 1.813e-6
-1.267, 1.754e-6
-1.266, 1.734e-6
-1.265, 1.705e-6
-1.264, 1.744e-6
-1.263, 1.705e-6
-1.262, 1.705e-6
-1.261, 1.517e-6
-1.260, 1.606e-6
-1.259, 1.656e-6
-1.258, 1.675e-6
-1.257, 1.547e-6
-1.256, 1.577e-6
-1.255, 1.517e-6
-1.254, 1.527e-6
-1.253, 1.517e-6
-1.252, 1.419e-6
-1.251, 1.389e-6
-1.250, 1.498e-6
-1.249, 1.429e-6
-1.248, 1.438e-6
-1.247, 1.379e-6
-1.246, 1.379e-6
-1.245, 1.231e-6
-1.244, 1.360e-6
-1.243, 1.350e-6
-1.242, 1.241e-6
-1.241, 1.123e-6
-1.240, 1.231e-6
-1.239, 1.202e-6
-1.238, 1.251e-6
-1.237, 1.241e-6
-1.236, 1.231e-6
-1.235, 1.172e-6
-1.234, 1.152e-6
-1.233, 1.192e-6
-1.232, 1.123e-6
-1.231, 1.073e-6
-1.230, 9.550e-7
-1.229, 9.254e-7
-1.228, 1.004e-6
-1.227, 1.024e-6
-1.226, 9.649e-7
-1.225, 9.846e-7
-1.224, 9.057e-7
-1.223, 9.254e-7
-1.222, 8.465e-7
-1.221, 7.380e-7
-1.220, 6.985e-7
-1.219, 7.774e-7
-1.218, 8.366e-7
-1.217, 7.478e-7
-1.216, 6.689e-7
-1.215, 6.097e-7
-1.214, 5.900e-7
-1.213, 6.886e-7
-1.212, 6.393e-7
-1.211, 6.689e-7
-1.210, 5.900e-7
-1.209, 7.478e-7
-1.208, 6.196e-7
-1.207, 5.308e-7
-1.206, 5.308e-7
-1.205, 5.801e-7
-1.204, 4.617e-7
-1.203, 4.223e-7
-1.202, 3.927e-7
-1.201, 4.124e-7
-1.200, 3.631e-7
-1.199, 3.532e-7
-1.198, 3.631e-7
-1.197, 3.137e-7
-1.196, 2.841e-7
-1.195, 1.559e-7
-1.194, 2.940e-7
-1.193, 2.545e-7
-1.192, 1.953e-7
-1.191, 1.756e-7
-1.190, 7.695e-8
-1.189, 1.362e-7
-1.188, 2.052e-7
-1.187, 1.855e-7
-1.186, 2.052e-7
-1.185, 6.709e-8
-1.184, 3.749e-8
-1.183, 6.709e-8
-1.182, 3.749e-8
-1.181, 1.776e-8
-1.180, -3.157e-8
-1.179, 3.749e-8
-1.178, -3.157e-8
-1.177, -1.204e-7
-1.176, -1.598e-7
-1.175, -1.105e-7
-1.174, -1.204e-7
-1.173, -6.117e-8
-1.172, -1.598e-7
-1.171, -2.289e-7
-1.170, -3.374e-7
-1.169, -2.190e-7
-1.168, -1.796e-7
-1.167, -2.486e-7
-1.166, -3.078e-7
-1.165, -3.275e-7
-1.164, -2.782e-7
-1.163, -3.769e-7
-1.162, -3.275e-7
-1.161, -4.558e-7
-1.160, -4.953e-7
-1.159, -4.558e-7
-1.158, -4.163e-7
-1.157, -4.854e-7
-1.156, -5.150e-7
-1.155, -5.643e-7
-1.154, -3.966e-7
-1.153, -5.841e-7
-1.152, -6.926e-7
-1.151, -6.531e-7
-1.150, -6.433e-7
-1.149, -6.038e-7
-1.148, -6.531e-7
-1.147, -7.814e-7
-1.146, -7.518e-7
-1.145, -7.123e-7
-1.144, -7.617e-7
-1.143, -7.321e-7
-1.142, -9.096e-7
-1.141, -7.419e-7
-1.140, -8.110e-7
-1.139, -9.590e-7
-1.138, -8.011e-7
-1.137, -9.096e-7
-1.136, -8.603e-7
-1.135, -9.392e-7
-1.134, -8.998e-7
-1.133, -1.077e-6
-1.132, -1.018e-6
-1.131, -9.787e-7
-1.130, -1.028e-6
-1.129, -9.984e-7
-1.128, -1.048e-6
-1.127, -1.087e-6
-1.126, -1.048e-6
-1.125, -1.137e-6
-1.124, -1.117e-6
-1.123, -1.097e-6
-1.122, -1.048e-6
-1.121, -1.127e-6
-1.120, -1.245e-6
-1.119, -1.176e-6
-1.118, -1.137e-6
-1.117, -1.166e-6
-1.116, -1.146e-6
-1.115, -1.146e-6
-1.114, -1.235e-6
-1.113, -1.255e-6
-1.112, -1.275e-6
-1.111, -1.215e-6
-1.110, -1.294e-6
-1.109, -1.235e-6
-1.108, -1.245e-6
-1.107, -1.225e-6
-1.106, -1.354e-6
-1.105, -1.433e-6
-1.104, -1.324e-6
-1.103, -1.324e-6
-1.102, -1.423e-6
-1.101, -1.393e-6
-1.100, -1.433e-6
-1.099, -1.373e-6
-1.098, -1.423e-6
-1.097, -1.502e-6
-1.096, -1.452e-6
-1.095, -1.492e-6
-1.094, -1.334e-6
-1.093, -1.462e-6
-1.092, -1.413e-6
-1.091, -1.551e-6
-1.090, -1.531e-6
-1.089, -1.433e-6
-1.088, -1.531e-6
-1.087, -1.600e-6
-1.086, -1.610e-6
-1.085, -1.640e-6
-1.084, -1.551e-6
-1.083, -1.610e-6
-1.082, -1.600e-6
-1.081, -1.620e-6
-1.080, -1.640e-6
-1.079, -1.511e-6
-1.078, -1.630e-6
-1.077, -1.620e-6
-1.076, -1.699e-6
-1.075, -1.738e-6
-1.074, -1.551e-6
-1.073, -1.531e-6
-1.072, -1.729e-6
-1.071, -1.630e-6
-1.070, -1.679e-6
-1.069, -1.600e-6
-1.068, -1.709e-6
-1.067, -1.719e-6
-1.066, -1.719e-6
-1.065, -1.729e-6
-1.064, -1.669e-6
-1.063, -1.758e-6
-1.062, -1.729e-6
-1.061, -1.798e-6
-1.060, -1.798e-6
-1.059, -1.669e-6
-1.058, -1.738e-6
-1.057, -1.778e-6
-1.056, -1.738e-6
-1.055, -1.788e-6
-1.054, -1.699e-6
-1.053, -1.827e-6
-1.052, -1.827e-6
-1.051, -1.788e-6
-1.050, -1.807e-6
-1.049, -1.709e-6
-1.048, -1.877e-6
-1.047, -1.877e-6
-1.046, -1.867e-6
-1.045, -1.867e-6
-1.044, -1.778e-6
-1.043, -1.798e-6
-1.042, -1.798e-6
-1.041, -1.788e-6
-1.040, -1.906e-6
-1.039, -1.738e-6
-1.038, -1.847e-6
-1.037, -1.896e-6
-1.036, -1.975e-6
-1.035, -1.995e-6
-1.034, -1.886e-6
-1.033, -1.955e-6
-1.032, -1.965e-6
-1.031, -1.975e-6
-1.030, -1.946e-6
-1.029, -1.837e-6
-1.028, -1.946e-6
-1.027, -1.886e-6
-1.026, -1.985e-6
-1.025, -2.044e-6
-1.024, -1.955e-6
-1.023, -2.123e-6
-1.022, -2.113e-6
-1.021, -2.074e-6
-1.020, -2.123e-6
-1.019, -1.965e-6
-1.018, -2.074e-6
-1.017, -2.113e-6
-1.016, -2.084e-6
-1.015, -2.163e-6
-1.014, -2.024e-6
-1.013, -2.064e-6
-1.012, -2.064e-6
-1.011, -2.222e-6
-1.010, -2.163e-6
-1.009, -2.123e-6
-1.008, -2.182e-6
-1.007, -2.143e-6
-1.006, -2.192e-6
-1.005, -2.123e-6
-1.004, -1.975e-6
-1.003, -2.094e-6
-1.002, -2.103e-6
-1.001, -2.163e-6
