Aug. 27, 2024   14:29:14
Linear Sweep Voltammetry
File: c:/users/guazh/data/20240813_batch_181_500/2024-08-25-exp197\1acid_1ac-2024-08-27t14_26_06-lsvinphos\1acid_1ac_lsv_50mvs_efin_-2100mv.bin
Data Source:  Experiment
Instrument Model:  CHI760E
Header: LSV ran at 50 mVs with Efin at -2100mV
Note: 

Init E (V) = -0.6
Final E (V) = -2.1
Scan Rate (V/s) = 0.05
Sample Interval (V) = 0.001
Quiet Time (sec) = 2
Sensitivity (A/V) = 1e-4
Comp R (ohm) = 8.9

Results:

Channel 1:
Ep = -1.951V
ip = 6.872e-4A
Ah = 9.953e-4C

Potential/V, Current/A

-0.600, 4.281e-6
-0.601, 4.421e-6
-0.602, 4.493e-6
-0.603, 4.547e-6
-0.604, 4.594e-6
-0.605, 4.637e-6
-0.606, 4.683e-6
-0.607, 4.723e-6
-0.608, 4.764e-6
-0.609, 4.806e-6
-0.610, 4.845e-6
-0.611, 4.884e-6
-0.612, 4.923e-6
-0.613, 4.962e-6
-0.614, 5.003e-6
-0.615, 5.042e-6
-0.616, 5.081e-6
-0.617, 5.118e-6
-0.618, 5.155e-6
-0.619, 5.195e-6
-0.620, 5.231e-6
-0.621, 5.267e-6
-0.622, 5.306e-6
-0.623, 5.343e-6
-0.624, 5.380e-6
-0.625, 5.416e-6
-0.626, 5.451e-6
-0.627, 5.490e-6
-0.628, 5.528e-6
-0.629, 5.564e-6
-0.630, 5.600e-6
-0.631, 5.635e-6
-0.632, 5.670e-6
-0.633, 5.707e-6
-0.634, 5.742e-6
-0.635, 5.778e-6
-0.636, 5.814e-6
-0.637, 5.850e-6
-0.638, 5.884e-6
-0.639, 5.916e-6
-0.640, 5.950e-6
-0.641, 5.984e-6
-0.642, 6.017e-6
-0.643, 6.052e-6
-0.644, 6.087e-6
-0.645, 6.119e-6
-0.646, 6.154e-6
-0.647, 6.186e-6
-0.648, 6.216e-6
-0.649, 6.249e-6
-0.650, 6.279e-6
-0.651, 6.314e-6
-0.652, 6.346e-6
-0.653, 6.380e-6
-0.654, 6.412e-6
-0.655, 6.443e-6
-0.656, 6.474e-6
-0.657, 6.505e-6
-0.658, 6.535e-6
-0.659, 6.568e-6
-0.660, 6.598e-6
-0.661, 6.628e-6
-0.662, 6.659e-6
-0.663, 6.688e-6
-0.664, 6.718e-6
-0.665, 6.747e-6
-0.666, 6.778e-6
-0.667, 6.806e-6
-0.668, 6.835e-6
-0.669, 6.862e-6
-0.670, 6.889e-6
-0.671, 6.916e-6
-0.672, 6.942e-6
-0.673, 6.969e-6
-0.674, 6.996e-6
-0.675, 7.021e-6
-0.676, 7.047e-6
-0.677, 7.072e-6
-0.678, 7.100e-6
-0.679, 7.124e-6
-0.680, 7.146e-6
-0.681, 7.172e-6
-0.682, 7.195e-6
-0.683, 7.218e-6
-0.684, 7.240e-6
-0.685, 7.261e-6
-0.686, 7.284e-6
-0.687, 7.305e-6
-0.688, 7.326e-6
-0.689, 7.348e-6
-0.690, 7.366e-6
-0.691, 7.388e-6
-0.692, 7.408e-6
-0.693, 7.426e-6
-0.694, 7.446e-6
-0.695, 7.464e-6
-0.696, 7.483e-6
-0.697, 7.502e-6
-0.698, 7.518e-6
-0.699, 7.536e-6
-0.700, 7.551e-6
-0.701, 7.567e-6
-0.702, 7.583e-6
-0.703, 7.598e-6
-0.704, 7.615e-6
-0.705, 7.639e-6
-0.706, 7.651e-6
-0.707, 7.663e-6
-0.708, 7.675e-6
-0.709, 7.686e-6
-0.710, 7.699e-6
-0.711, 7.711e-6
-0.712, 7.722e-6
-0.713, 7.734e-6
-0.714, 7.744e-6
-0.715, 7.755e-6
-0.716, 7.764e-6
-0.717, 7.773e-6
-0.718, 7.783e-6
-0.719, 7.791e-6
-0.720, 7.799e-6
-0.721, 7.809e-6
-0.722, 7.815e-6
-0.723, 7.823e-6
-0.724, 7.829e-6
-0.725, 7.834e-6
-0.726, 7.841e-6
-0.727, 7.845e-6
-0.728, 7.850e-6
-0.729, 7.856e-6
-0.730, 7.860e-6
-0.731, 7.865e-6
-0.732, 7.868e-6
-0.733, 7.871e-6
-0.734, 7.875e-6
-0.735, 7.876e-6
-0.736, 7.878e-6
-0.737, 7.880e-6
-0.738, 7.881e-6
-0.739, 7.882e-6
-0.740, 7.883e-6
-0.741, 7.883e-6
-0.742, 7.883e-6
-0.743, 7.884e-6
-0.744, 7.883e-6
-0.745, 7.881e-6
-0.746, 7.879e-6
-0.747, 7.877e-6
-0.748, 7.875e-6
-0.749, 7.873e-6
-0.750, 7.871e-6
-0.751, 7.867e-6
-0.752, 7.864e-6
-0.753, 7.861e-6
-0.754, 7.855e-6
-0.755, 7.851e-6
-0.756, 7.847e-6
-0.757, 7.842e-6
-0.758, 7.838e-6
-0.759, 7.831e-6
-0.760, 7.825e-6
-0.761, 7.820e-6
-0.762, 7.813e-6
-0.763, 7.807e-6
-0.764, 7.802e-6
-0.765, 7.793e-6
-0.766, 7.788e-6
-0.767, 7.779e-6
-0.768, 7.775e-6
-0.769, 7.768e-6
-0.770, 7.756e-6
-0.771, 7.751e-6
-0.772, 7.741e-6
-0.773, 7.732e-6
-0.774, 7.725e-6
-0.775, 7.714e-6
-0.776, 7.705e-6
-0.777, 7.696e-6
-0.778, 7.686e-6
-0.779, 7.678e-6
-0.780, 7.667e-6
-0.781, 7.658e-6
-0.782, 7.648e-6
-0.783, 7.638e-6
-0.784, 7.627e-6
-0.785, 7.616e-6
-0.786, 7.607e-6
-0.787, 7.596e-6
-0.788, 7.585e-6
-0.789, 7.574e-6
-0.790, 7.563e-6
-0.791, 7.552e-6
-0.792, 7.540e-6
-0.793, 7.531e-6
-0.794, 7.521e-6
-0.795, 7.509e-6
-0.796, 7.497e-6
-0.797, 7.486e-6
-0.798, 7.475e-6
-0.799, 7.464e-6
-0.800, 7.452e-6
-0.801, 7.441e-6
-0.802, 7.427e-6
-0.803, 7.418e-6
-0.804, 7.406e-6
-0.805, 7.394e-6
-0.806, 7.383e-6
-0.807, 7.372e-6
-0.808, 7.361e-6
-0.809, 7.351e-6
-0.810, 7.337e-6
-0.811, 7.326e-6
-0.812, 7.315e-6
-0.813, 7.302e-6
-0.814, 7.291e-6
-0.815, 7.279e-6
-0.816, 7.268e-6
-0.817, 7.257e-6
-0.818, 7.245e-6
-0.819, 7.237e-6
-0.820, 7.227e-6
-0.821, 7.213e-6
-0.822, 7.201e-6
-0.823, 7.188e-6
-0.824, 7.177e-6
-0.825, 7.166e-6
-0.826, 7.154e-6
-0.827, 7.143e-6
-0.828, 7.131e-6
-0.829, 7.120e-6
-0.830, 7.107e-6
-0.831, 7.095e-6
-0.832, 7.085e-6
-0.833, 7.074e-6
-0.834, 7.061e-6
-0.835, 7.050e-6
-0.836, 7.040e-6
-0.837, 7.028e-6
-0.838, 7.018e-6
-0.839, 7.007e-6
-0.840, 6.993e-6
-0.841, 6.985e-6
-0.842, 6.974e-6
-0.843, 6.962e-6
-0.844, 6.952e-6
-0.845, 6.940e-6
-0.846, 6.932e-6
-0.847, 6.919e-6
-0.848, 6.910e-6
-0.849, 6.899e-6
-0.850, 6.888e-6
-0.851, 6.880e-6
-0.852, 6.870e-6
-0.853, 6.859e-6
-0.854, 6.849e-6
-0.855, 6.838e-6
-0.856, 6.828e-6
-0.857, 6.817e-6
-0.858, 6.808e-6
-0.859, 6.798e-6
-0.860, 6.788e-6
-0.861, 6.776e-6
-0.862, 6.768e-6
-0.863, 6.758e-6
-0.864, 6.747e-6
-0.865, 6.738e-6
-0.866, 6.727e-6
-0.867, 6.719e-6
-0.868, 6.711e-6
-0.869, 6.700e-6
-0.870, 6.691e-6
-0.871, 6.684e-6
-0.872, 6.673e-6
-0.873, 6.665e-6
-0.874, 6.654e-6
-0.875, 6.646e-6
-0.876, 6.636e-6
-0.877, 6.628e-6
-0.878, 6.619e-6
-0.879, 6.611e-6
-0.880, 6.601e-6
-0.881, 6.595e-6
-0.882, 6.584e-6
-0.883, 6.578e-6
-0.884, 6.569e-6
-0.885, 6.558e-6
-0.886, 6.551e-6
-0.887, 6.541e-6
-0.888, 6.534e-6
-0.889, 6.526e-6
-0.890, 6.517e-6
-0.891, 6.509e-6
-0.892, 6.501e-6
-0.893, 6.493e-6
-0.894, 6.486e-6
-0.895, 6.477e-6
-0.896, 6.472e-6
-0.897, 6.464e-6
-0.898, 6.456e-6
-0.899, 6.449e-6
-0.900, 6.443e-6
-0.901, 6.435e-6
-0.902, 6.430e-6
-0.903, 6.423e-6
-0.904, 6.414e-6
-0.905, 6.407e-6
-0.906, 6.400e-6
-0.907, 6.393e-6
-0.908, 6.385e-6
-0.909, 6.379e-6
-0.910, 6.373e-6
-0.911, 6.367e-6
-0.912, 6.360e-6
-0.913, 6.354e-6
-0.914, 6.347e-6
-0.915, 6.343e-6
-0.916, 6.336e-6
-0.917, 6.328e-6
-0.918, 6.323e-6
-0.919, 6.315e-6
-0.920, 6.309e-6
-0.921, 6.305e-6
-0.922, 6.298e-6
-0.923, 6.293e-6
-0.924, 6.287e-6
-0.925, 6.280e-6
-0.926, 6.276e-6
-0.927, 6.268e-6
-0.928, 6.264e-6
-0.929, 6.261e-6
-0.930, 6.252e-6
-0.931, 6.249e-6
-0.932, 6.243e-6
-0.933, 6.239e-6
-0.934, 6.235e-6
-0.935, 6.230e-6
-0.936, 6.226e-6
-0.937, 6.223e-6
-0.938, 6.218e-6
-0.939, 6.213e-6
-0.940, 6.208e-6
-0.941, 6.206e-6
-0.942, 6.203e-6
-0.943, 6.196e-6
-0.944, 6.192e-6
-0.945, 6.188e-6
-0.946, 6.182e-6
-0.947, 6.180e-6
-0.948, 6.176e-6
-0.949, 6.172e-6
-0.950, 6.169e-6
-0.951, 6.163e-6
-0.952, 6.160e-6
-0.953, 6.158e-6
-0.954, 6.154e-6
-0.955, 6.149e-6
-0.956, 6.147e-6
-0.957, 6.144e-6
-0.958, 6.140e-6
-0.959, 6.137e-6
-0.960, 6.134e-6
-0.961, 6.135e-6
-0.962, 6.133e-6
-0.963, 6.128e-6
-0.964, 6.124e-6
-0.965, 6.120e-6
-0.966, 6.117e-6
-0.967, 6.114e-6
-0.968, 6.111e-6
-0.969, 6.110e-6
-0.970, 6.104e-6
-0.971, 6.104e-6
-0.972, 6.101e-6
-0.973, 6.101e-6
-0.974, 6.097e-6
-0.975, 6.093e-6
-0.976, 6.092e-6
-0.977, 6.090e-6
-0.978, 6.086e-6
-0.979, 6.086e-6
-0.980, 6.082e-6
-0.981, 6.082e-6
-0.982, 6.080e-6
-0.983, 6.078e-6
-0.984, 6.077e-6
-0.985, 6.076e-6
-0.986, 6.074e-6
-0.987, 6.071e-6
-0.988, 6.070e-6
-0.989, 6.069e-6
-0.990, 6.068e-6
-0.991, 6.067e-6
-0.992, 6.063e-6
-0.993, 6.062e-6
-0.994, 6.060e-6
-0.995, 6.058e-6
-0.996, 6.058e-6
-0.997, 6.055e-6
-0.998, 6.055e-6
-0.999, 6.055e-6
-1.000, 6.053e-6
-1.001, 6.053e-6
-1.002, 6.050e-6
-1.003, 6.050e-6
-1.004, 6.050e-6
-1.005, 6.047e-6
-1.006, 6.049e-6
-1.007, 6.047e-6
-1.008, 6.046e-6
-1.009, 6.046e-6
-1.010, 6.044e-6
-1.011, 6.048e-6
-1.012, 6.046e-6
-1.013, 6.047e-6
-1.014, 6.047e-6
-1.015, 6.046e-6
-1.016, 6.046e-6
-1.017, 6.046e-6
-1.018, 6.046e-6
-1.019, 6.047e-6
-1.020, 6.047e-6
-1.021, 6.048e-6
-1.022, 6.049e-6
-1.023, 6.049e-6
-1.024, 6.051e-6
-1.025, 6.051e-6
-1.026, 6.051e-6
-1.027, 6.051e-6
-1.028, 6.053e-6
-1.029, 6.051e-6
-1.030, 6.052e-6
-1.031, 6.054e-6
-1.032, 6.055e-6
-1.033, 6.057e-6
-1.034, 6.057e-6
-1.035, 6.058e-6
-1.036, 6.060e-6
-1.037, 6.061e-6
-1.038, 6.062e-6
-1.039, 6.063e-6
-1.040, 6.066e-6
-1.041, 6.067e-6
-1.042, 6.069e-6
-1.043, 6.072e-6
-1.044, 6.073e-6
-1.045, 6.074e-6
-1.046, 6.078e-6
-1.047, 6.078e-6
-1.048, 6.081e-6
-1.049, 6.085e-6
-1.050, 6.086e-6
-1.051, 6.089e-6
-1.052, 6.092e-6
-1.053, 6.095e-6
-1.054, 6.098e-6
-1.055, 6.099e-6
-1.056, 6.104e-6
-1.057, 6.107e-6
-1.058, 6.110e-6
-1.059, 6.114e-6
-1.060, 6.117e-6
-1.061, 6.120e-6
-1.062, 6.124e-6
-1.063, 6.128e-6
-1.064, 6.133e-6
-1.065, 6.137e-6
-1.066, 6.140e-6
-1.067, 6.143e-6
-1.068, 6.148e-6
-1.069, 6.152e-6
-1.070, 6.157e-6
-1.071, 6.162e-6
-1.072, 6.166e-6
-1.073, 6.172e-6
-1.074, 6.176e-6
-1.075, 6.182e-6
-1.076, 6.189e-6
-1.077, 6.193e-6
-1.078, 6.198e-6
-1.079, 6.203e-6
-1.080, 6.208e-6
-1.081, 6.215e-6
-1.082, 6.221e-6
-1.083, 6.227e-6
-1.084, 6.234e-6
-1.085, 6.240e-6
-1.086, 6.249e-6
-1.087, 6.256e-6
-1.088, 6.265e-6
-1.089, 6.272e-6
-1.090, 6.279e-6
-1.091, 6.290e-6
-1.092, 6.297e-6
-1.093, 6.308e-6
-1.094, 6.319e-6
-1.095, 6.327e-6
-1.096, 6.337e-6
-1.097, 6.348e-6
-1.098, 6.360e-6
-1.099, 6.372e-6
-1.100, 6.383e-6
-1.101, 6.398e-6
-1.102, 6.411e-6
-1.103, 6.425e-6
-1.104, 6.440e-6
-1.105, 6.454e-6
-1.106, 6.468e-6
-1.107, 6.484e-6
-1.108, 6.498e-6
-1.109, 6.514e-6
-1.110, 6.531e-6
-1.111, 6.547e-6
-1.112, 6.562e-6
-1.113, 6.580e-6
-1.114, 6.595e-6
-1.115, 6.611e-6
-1.116, 6.629e-6
-1.117, 6.645e-6
-1.118, 6.662e-6
-1.119, 6.678e-6
-1.120, 6.694e-6
-1.121, 6.712e-6
-1.122, 6.727e-6
-1.123, 6.747e-6
-1.124, 6.762e-6
-1.125, 6.780e-6
-1.126, 6.799e-6
-1.127, 6.818e-6
-1.128, 6.836e-6
-1.129, 6.856e-6
-1.130, 6.873e-6
-1.131, 6.893e-6
-1.132, 6.914e-6
-1.133, 6.936e-6
-1.134, 6.955e-6
-1.135, 6.976e-6
-1.136, 6.999e-6
-1.137, 7.021e-6
-1.138, 7.042e-6
-1.139, 7.066e-6
-1.140, 7.090e-6
-1.141, 7.113e-6
-1.142, 7.138e-6
-1.143, 7.164e-6
-1.144, 7.189e-6
-1.145, 7.213e-6
-1.146, 7.239e-6
-1.147, 7.266e-6
-1.148, 7.294e-6
-1.149, 7.319e-6
-1.150, 7.346e-6
-1.151, 7.372e-6
-1.152, 7.400e-6
-1.153, 7.431e-6
-1.154, 7.461e-6
-1.155, 7.489e-6
-1.156, 7.519e-6
-1.157, 7.549e-6
-1.158, 7.581e-6
-1.159, 7.612e-6
-1.160, 7.642e-6
-1.161, 7.676e-6
-1.162, 7.707e-6
-1.163, 7.742e-6
-1.164, 7.775e-6
-1.165, 7.807e-6
-1.166, 7.841e-6
-1.167, 7.873e-6
-1.168, 7.907e-6
-1.169, 7.940e-6
-1.170, 7.973e-6
-1.171, 8.009e-6
-1.172, 8.043e-6
-1.173, 8.077e-6
-1.174, 8.111e-6
-1.175, 8.145e-6
-1.176, 8.182e-6
-1.177, 8.221e-6
-1.178, 8.260e-6
-1.179, 8.294e-6
-1.180, 8.329e-6
-1.181, 8.364e-6
-1.182, 8.398e-6
-1.183, 8.433e-6
-1.184, 8.471e-6
-1.185, 8.506e-6
-1.186, 8.542e-6
-1.187, 8.576e-6
-1.188, 8.612e-6
-1.189, 8.647e-6
-1.190, 8.683e-6
-1.191, 8.721e-6
-1.192, 8.757e-6
-1.193, 8.795e-6
-1.194, 8.830e-6
-1.195, 8.864e-6
-1.196, 8.899e-6
-1.197, 8.935e-6
-1.198, 8.973e-6
-1.199, 9.008e-6
-1.200, 9.044e-6
-1.201, 9.080e-6
-1.202, 9.116e-6
-1.203, 9.154e-6
-1.204, 9.189e-6
-1.205, 9.224e-6
-1.206, 9.263e-6
-1.207, 9.298e-6
-1.208, 9.334e-6
-1.209, 9.369e-6
-1.210, 9.402e-6
-1.211, 9.438e-6
-1.212, 9.475e-6
-1.213, 9.510e-6
-1.214, 9.546e-6
-1.215, 9.582e-6
-1.216, 9.619e-6
-1.217, 9.654e-6
-1.218, 9.688e-6
-1.219, 9.725e-6
-1.220, 9.761e-6
-1.221, 9.797e-6
-1.222, 9.833e-6
-1.223, 9.868e-6
-1.224, 9.904e-6
-1.225, 9.939e-6
-1.226, 9.975e-6
-1.227, 1.001e-5
-1.228, 1.005e-5
-1.229, 1.009e-5
-1.230, 1.012e-5
-1.231, 1.015e-5
-1.232, 1.019e-5
-1.233, 1.022e-5
-1.234, 1.026e-5
-1.235, 1.029e-5
-1.236, 1.033e-5
-1.237, 1.036e-5
-1.238, 1.040e-5
-1.239, 1.043e-5
-1.240, 1.047e-5
-1.241, 1.050e-5
-1.242, 1.054e-5
-1.243, 1.057e-5
-1.244, 1.061e-5
-1.245, 1.064e-5
-1.246, 1.068e-5
-1.247, 1.071e-5
-1.248, 1.075e-5
-1.249, 1.078e-5
-1.250, 1.082e-5
-1.251, 1.085e-5
-1.252, 1.089e-5
-1.253, 1.092e-5
-1.254, 1.096e-5
-1.255, 1.099e-5
-1.256, 1.103e-5
-1.257, 1.106e-5
-1.258, 1.109e-5
-1.259, 1.113e-5
-1.260, 1.116e-5
-1.261, 1.120e-5
-1.262, 1.123e-5
-1.263, 1.126e-5
-1.264, 1.130e-5
-1.265, 1.133e-5
-1.266, 1.136e-5
-1.267, 1.140e-5
-1.268, 1.143e-5
-1.269, 1.146e-5
-1.270, 1.150e-5
-1.271, 1.153e-5
-1.272, 1.156e-5
-1.273, 1.160e-5
-1.274, 1.163e-5
-1.275, 1.166e-5
-1.276, 1.170e-5
-1.277, 1.173e-5
-1.278, 1.176e-5
-1.279, 1.179e-5
-1.280, 1.183e-5
-1.281, 1.186e-5
-1.282, 1.189e-5
-1.283, 1.193e-5
-1.284, 1.196e-5
-1.285, 1.199e-5
-1.286, 1.202e-5
-1.287, 1.204e-5
-1.288, 1.207e-5
-1.289, 1.210e-5
-1.290, 1.213e-5
-1.291, 1.216e-5
-1.292, 1.219e-5
-1.293, 1.223e-5
-1.294, 1.226e-5
-1.295, 1.229e-5
-1.296, 1.232e-5
-1.297, 1.235e-5
-1.298, 1.238e-5
-1.299, 1.241e-5
-1.300, 1.245e-5
-1.301, 1.248e-5
-1.302, 1.251e-5
-1.303, 1.254e-5
-1.304, 1.257e-5
-1.305, 1.260e-5
-1.306, 1.263e-5
-1.307, 1.266e-5
-1.308, 1.269e-5
-1.309, 1.272e-5
-1.310, 1.275e-5
-1.311, 1.278e-5
-1.312, 1.281e-5
-1.313, 1.284e-5
-1.314, 1.287e-5
-1.315, 1.290e-5
-1.316, 1.293e-5
-1.317, 1.295e-5
-1.318, 1.298e-5
-1.319, 1.301e-5
-1.320, 1.304e-5
-1.321, 1.307e-5
-1.322, 1.310e-5
-1.323, 1.313e-5
-1.324, 1.316e-5
-1.325, 1.318e-5
-1.326, 1.321e-5
-1.327, 1.324e-5
-1.328, 1.327e-5
-1.329, 1.330e-5
-1.330, 1.332e-5
-1.331, 1.335e-5
-1.332, 1.338e-5
-1.333, 1.341e-5
-1.334, 1.343e-5
-1.335, 1.346e-5
-1.336, 1.348e-5
-1.337, 1.351e-5
-1.338, 1.354e-5
-1.339, 1.356e-5
-1.340, 1.359e-5
-1.341, 1.362e-5
-1.342, 1.364e-5
-1.343, 1.367e-5
-1.344, 1.369e-5
-1.345, 1.372e-5
-1.346, 1.375e-5
-1.347, 1.377e-5
-1.348, 1.380e-5
-1.349, 1.382e-5
-1.350, 1.385e-5
-1.351, 1.388e-5
-1.352, 1.390e-5
-1.353, 1.392e-5
-1.354, 1.395e-5
-1.355, 1.397e-5
-1.356, 1.400e-5
-1.357, 1.402e-5
-1.358, 1.405e-5
-1.359, 1.407e-5
-1.360, 1.409e-5
-1.361, 1.412e-5
-1.362, 1.414e-5
-1.363, 1.417e-5
-1.364, 1.419e-5
-1.365, 1.421e-5
-1.366, 1.424e-5
-1.367, 1.426e-5
-1.368, 1.428e-5
-1.369, 1.431e-5
-1.370, 1.433e-5
-1.371, 1.436e-5
-1.372, 1.438e-5
-1.373, 1.440e-5
-1.374, 1.443e-5
-1.375, 1.445e-5
-1.376, 1.447e-5
-1.377, 1.450e-5
-1.378, 1.452e-5
-1.379, 1.454e-5
-1.380, 1.456e-5
-1.381, 1.459e-5
-1.382, 1.461e-5
-1.383, 1.464e-5
-1.384, 1.466e-5
-1.385, 1.468e-5
-1.386, 1.471e-5
-1.387, 1.473e-5
-1.388, 1.475e-5
-1.389, 1.477e-5
-1.390, 1.480e-5
-1.391, 1.482e-5
-1.392, 1.484e-5
-1.393, 1.486e-5
-1.394, 1.489e-5
-1.395, 1.491e-5
-1.396, 1.493e-5
-1.397, 1.496e-5
-1.398, 1.498e-5
-1.399, 1.500e-5
-1.400, 1.502e-5
-1.401, 1.505e-5
-1.402, 1.507e-5
-1.403, 1.509e-5
-1.404, 1.511e-5
-1.405, 1.514e-5
-1.406, 1.516e-5
-1.407, 1.518e-5
-1.408, 1.521e-5
-1.409, 1.523e-5
-1.410, 1.525e-5
-1.411, 1.528e-5
-1.412, 1.530e-5
-1.413, 1.532e-5
-1.414, 1.534e-5
-1.415, 1.537e-5
-1.416, 1.539e-5
-1.417, 1.542e-5
-1.418, 1.544e-5
-1.419, 1.547e-5
-1.420, 1.549e-5
-1.421, 1.551e-5
-1.422, 1.554e-5
-1.423, 1.556e-5
-1.424, 1.558e-5
-1.425, 1.561e-5
-1.426, 1.563e-5
-1.427, 1.566e-5
-1.428, 1.568e-5
-1.429, 1.571e-5
-1.430, 1.573e-5
-1.431, 1.576e-5
-1.432, 1.578e-5
-1.433, 1.581e-5
-1.434, 1.583e-5
-1.435, 1.586e-5
-1.436, 1.588e-5
-1.437, 1.591e-5
-1.438, 1.594e-5
-1.439, 1.596e-5
-1.440, 1.599e-5
-1.441, 1.602e-5
-1.442, 1.604e-5
-1.443, 1.607e-5
-1.444, 1.610e-5
-1.445, 1.612e-5
-1.446, 1.615e-5
-1.447, 1.618e-5
-1.448, 1.621e-5
-1.449, 1.624e-5
-1.450, 1.626e-5
-1.451, 1.630e-5
-1.452, 1.632e-5
-1.453, 1.635e-5
-1.454, 1.638e-5
-1.455, 1.641e-5
-1.456, 1.644e-5
-1.457, 1.647e-5
-1.458, 1.650e-5
-1.459, 1.653e-5
-1.460, 1.656e-5
-1.461, 1.659e-5
-1.462, 1.662e-5
-1.463, 1.665e-5
-1.464, 1.668e-5
-1.465, 1.671e-5
-1.466, 1.674e-5
-1.467, 1.677e-5
-1.468, 1.681e-5
-1.469, 1.684e-5
-1.470, 1.687e-5
-1.471, 1.690e-5
-1.472, 1.693e-5
-1.473, 1.697e-5
-1.474, 1.700e-5
-1.475, 1.704e-5
-1.476, 1.707e-5
-1.477, 1.711e-5
-1.478, 1.714e-5
-1.479, 1.718e-5
-1.480, 1.721e-5
-1.481, 1.725e-5
-1.482, 1.728e-5
-1.483, 1.732e-5
-1.484, 1.736e-5
-1.485, 1.740e-5
-1.486, 1.744e-5
-1.487, 1.747e-5
-1.488, 1.751e-5
-1.489, 1.756e-5
-1.490, 1.759e-5
-1.491, 1.764e-5
-1.492, 1.768e-5
-1.493, 1.772e-5
-1.494, 1.776e-5
-1.495, 1.780e-5
-1.496, 1.784e-5
-1.497, 1.789e-5
-1.498, 1.793e-5
-1.499, 1.797e-5
-1.500, 1.801e-5
-1.501, 1.806e-5
-1.502, 1.810e-5
-1.503, 1.815e-5
-1.504, 1.819e-5
-1.505, 1.824e-5
-1.506, 1.828e-5
-1.507, 1.833e-5
-1.508, 1.837e-5
-1.509, 1.842e-5
-1.510, 1.847e-5
-1.511, 1.852e-5
-1.512, 1.857e-5
-1.513, 1.863e-5
-1.514, 1.868e-5
-1.515, 1.873e-5
-1.516, 1.878e-5
-1.517, 1.883e-5
-1.518, 1.888e-5
-1.519, 1.894e-5
-1.520, 1.899e-5
-1.521, 1.905e-5
-1.522, 1.910e-5
-1.523, 1.916e-5
-1.524, 1.922e-5
-1.525, 1.927e-5
-1.526, 1.933e-5
-1.527, 1.939e-5
-1.528, 1.945e-5
-1.529, 1.951e-5
-1.530, 1.956e-5
-1.531, 1.963e-5
-1.532, 1.969e-5
-1.533, 1.975e-5
-1.534, 1.982e-5
-1.535, 1.988e-5
-1.536, 1.995e-5
-1.537, 2.001e-5
-1.538, 2.008e-5
-1.539, 2.014e-5
-1.540, 2.021e-5
-1.541, 2.028e-5
-1.542, 2.035e-5
-1.543, 2.042e-5
-1.544, 2.049e-5
-1.545, 2.057e-5
-1.546, 2.064e-5
-1.547, 2.071e-5
-1.548, 2.079e-5
-1.549, 2.087e-5
-1.550, 2.094e-5
-1.551, 2.102e-5
-1.552, 2.110e-5
-1.553, 2.118e-5
-1.554, 2.126e-5
-1.555, 2.135e-5
-1.556, 2.143e-5
-1.557, 2.151e-5
-1.558, 2.160e-5
-1.559, 2.169e-5
-1.560, 2.178e-5
-1.561, 2.187e-5
-1.562, 2.196e-5
-1.563, 2.205e-5
-1.564, 2.214e-5
-1.565, 2.224e-5
-1.566, 2.233e-5
-1.567, 2.243e-5
-1.568, 2.253e-5
-1.569, 2.263e-5
-1.570, 2.273e-5
-1.571, 2.283e-5
-1.572, 2.294e-5
-1.573, 2.304e-5
-1.574, 2.315e-5
-1.575, 2.326e-5
-1.576, 2.337e-5
-1.577, 2.349e-5
-1.578, 2.360e-5
-1.579, 2.372e-5
-1.580, 2.383e-5
-1.581, 2.395e-5
-1.582, 2.408e-5
-1.583, 2.420e-5
-1.584, 2.433e-5
-1.585, 2.445e-5
-1.586, 2.458e-5
-1.587, 2.471e-5
-1.588, 2.485e-5
-1.589, 2.498e-5
-1.590, 2.511e-5
-1.591, 2.525e-5
-1.592, 2.539e-5
-1.593, 2.554e-5
-1.594, 2.568e-5
-1.595, 2.583e-5
-1.596, 2.597e-5
-1.597, 2.612e-5
-1.598, 2.628e-5
-1.599, 2.644e-5
-1.600, 2.660e-5
-1.601, 2.676e-5
-1.602, 2.692e-5
-1.603, 2.709e-5
-1.604, 2.726e-5
-1.605, 2.743e-5
-1.606, 2.761e-5
-1.607, 2.778e-5
-1.608, 2.795e-5
-1.609, 2.813e-5
-1.610, 2.832e-5
-1.611, 2.851e-5
-1.612, 2.870e-5
-1.613, 2.890e-5
-1.614, 2.910e-5
-1.615, 2.930e-5
-1.616, 2.950e-5
-1.617, 2.971e-5
-1.618, 2.992e-5
-1.619, 3.013e-5
-1.620, 3.035e-5
-1.621, 3.057e-5
-1.622, 3.080e-5
-1.623, 3.103e-5
-1.624, 3.126e-5
-1.625, 3.150e-5
-1.626, 3.173e-5
-1.627, 3.199e-5
-1.628, 3.224e-5
-1.629, 3.249e-5
-1.630, 3.274e-5
-1.631, 3.300e-5
-1.632, 3.327e-5
-1.633, 3.354e-5
-1.634, 3.381e-5
-1.635, 3.408e-5
-1.636, 3.437e-5
-1.637, 3.466e-5
-1.638, 3.495e-5
-1.639, 3.526e-5
-1.640, 3.556e-5
-1.641, 3.586e-5
-1.642, 3.617e-5
-1.643, 3.649e-5
-1.644, 3.680e-5
-1.645, 3.713e-5
-1.646, 3.747e-5
-1.647, 3.780e-5
-1.648, 3.814e-5
-1.649, 3.849e-5
-1.650, 3.884e-5
-1.651, 3.920e-5
-1.652, 3.957e-5
-1.653, 3.994e-5
-1.654, 4.032e-5
-1.655, 4.070e-5
-1.656, 4.109e-5
-1.657, 4.149e-5
-1.658, 4.189e-5
-1.659, 4.231e-5
-1.660, 4.272e-5
-1.661, 4.315e-5
-1.662, 4.357e-5
-1.663, 4.399e-5
-1.664, 4.444e-5
-1.665, 4.489e-5
-1.666, 4.535e-5
-1.667, 4.580e-5
-1.668, 4.628e-5
-1.669, 4.675e-5
-1.670, 4.724e-5
-1.671, 4.774e-5
-1.672, 4.825e-5
-1.673, 4.876e-5
-1.674, 4.927e-5
-1.675, 4.980e-5
-1.676, 5.033e-5
-1.677, 5.088e-5
-1.678, 5.144e-5
-1.679, 5.199e-5
-1.680, 5.256e-5
-1.681, 5.313e-5
-1.682, 5.372e-5
-1.683, 5.432e-5
-1.684, 5.492e-5
-1.685, 5.554e-5
-1.686, 5.617e-5
-1.687, 5.680e-5
-1.688, 5.745e-5
-1.689, 5.810e-5
-1.690, 5.877e-5
-1.691, 5.945e-5
-1.692, 6.013e-5
-1.693, 6.083e-5
-1.694, 6.154e-5
-1.695, 6.224e-5
-1.696, 6.298e-5
-1.697, 6.372e-5
-1.698, 6.447e-5
-1.699, 6.523e-5
-1.700, 6.600e-5
-1.701, 6.679e-5
-1.702, 6.758e-5
-1.703, 6.839e-5
-1.704, 6.921e-5
-1.705, 7.003e-5
-1.706, 7.087e-5
-1.707, 7.175e-5
-1.708, 7.261e-5
-1.709, 7.348e-5
-1.710, 7.439e-5
-1.711, 7.528e-5
-1.712, 7.620e-5
-1.713, 7.714e-5
-1.714, 7.808e-5
-1.715, 7.904e-5
-1.716, 8.002e-5
-1.717, 8.101e-5
-1.718, 8.201e-5
-1.719, 8.302e-5
-1.720, 8.403e-5
-1.721, 8.508e-5
-1.722, 8.613e-5
-1.723, 8.719e-5
-1.724, 8.828e-5
-1.725, 8.939e-5
-1.726, 9.050e-5
-1.727, 9.161e-5
-1.728, 9.275e-5
-1.729, 9.390e-5
-1.730, 9.507e-5
-1.731, 9.626e-5
-1.732, 9.745e-5
-1.733, 9.867e-5
-1.734, 9.991e-5
-1.735, 1.012e-4
-1.736, 1.024e-4
-1.737, 1.037e-4
-1.738, 1.050e-4
-1.739, 1.063e-4
-1.740, 1.076e-4
-1.741, 1.090e-4
-1.742, 1.103e-4
-1.743, 1.117e-4
-1.744, 1.131e-4
-1.745, 1.145e-4
-1.746, 1.160e-4
-1.747, 1.174e-4
-1.748, 1.189e-4
-1.749, 1.204e-4
-1.750, 1.219e-4
-1.751, 1.233e-4
-1.752, 1.249e-4
-1.753, 1.264e-4
-1.754, 1.280e-4
-1.755, 1.296e-4
-1.756, 1.312e-4
-1.757, 1.328e-4
-1.758, 1.344e-4
-1.759, 1.361e-4
-1.760, 1.378e-4
-1.761, 1.394e-4
-1.762, 1.412e-4
-1.763, 1.429e-4
-1.764, 1.446e-4
-1.765, 1.464e-4
-1.766, 1.482e-4
-1.767, 1.500e-4
-1.768, 1.519e-4
-1.769, 1.537e-4
-1.770, 1.556e-4
-1.771, 1.575e-4
-1.772, 1.594e-4
-1.773, 1.613e-4
-1.774, 1.633e-4
-1.775, 1.653e-4
-1.776, 1.673e-4
-1.777, 1.694e-4
-1.778, 1.715e-4
-1.779, 1.736e-4
-1.780, 1.757e-4
-1.781, 1.778e-4
-1.782, 1.800e-4
-1.783, 1.822e-4
-1.784, 1.845e-4
-1.785, 1.867e-4
-1.786, 1.890e-4
-1.787, 1.914e-4
-1.788, 1.938e-4
-1.789, 1.962e-4
-1.790, 1.985e-4
-1.791, 2.004e-4
-1.792, 2.028e-4
-1.793, 2.054e-4
-1.794, 2.080e-4
-1.795, 2.107e-4
-1.796, 2.134e-4
-1.797, 2.161e-4
-1.798, 2.188e-4
-1.799, 2.217e-4
-1.800, 2.247e-4
-1.801, 2.276e-4
-1.802, 2.305e-4
-1.803, 2.336e-4
-1.804, 2.366e-4
-1.805, 2.396e-4
-1.806, 2.426e-4
-1.807, 2.457e-4
-1.808, 2.489e-4
-1.809, 2.522e-4
-1.810, 2.554e-4
-1.811, 2.586e-4
-1.812, 2.617e-4
-1.813, 2.649e-4
-1.814, 2.682e-4
-1.815, 2.714e-4
-1.816, 2.747e-4
-1.817, 2.780e-4
-1.818, 2.813e-4
-1.819, 2.848e-4
-1.820, 2.883e-4
-1.821, 2.917e-4
-1.822, 2.951e-4
-1.823, 2.983e-4
-1.824, 3.017e-4
-1.825, 3.052e-4
-1.826, 3.088e-4
-1.827, 3.123e-4
-1.828, 3.159e-4
-1.829, 3.196e-4
-1.830, 3.234e-4
-1.831, 3.271e-4
-1.832, 3.307e-4
-1.833, 3.344e-4
-1.834, 3.382e-4
-1.835, 3.422e-4
-1.836, 3.462e-4
-1.837, 3.504e-4
-1.838, 3.546e-4
-1.839, 3.588e-4
-1.840, 3.630e-4
-1.841, 3.674e-4
-1.842, 3.717e-4
-1.843, 3.762e-4
-1.844, 3.806e-4
-1.845, 3.851e-4
-1.846, 3.896e-4
-1.847, 3.943e-4
-1.848, 3.989e-4
-1.849, 4.035e-4
-1.850, 4.082e-4
-1.851, 4.129e-4
-1.852, 4.177e-4
-1.853, 4.227e-4
-1.854, 4.281e-4
-1.855, 4.333e-4
-1.856, 4.379e-4
-1.857, 4.425e-4
-1.858, 4.473e-4
-1.859, 4.521e-4
-1.860, 4.570e-4
-1.861, 4.620e-4
-1.862, 4.670e-4
-1.863, 4.720e-4
-1.864, 4.770e-4
-1.865, 4.820e-4
-1.866, 4.870e-4
-1.867, 4.920e-4
-1.868, 4.971e-4
-1.869, 5.024e-4
-1.870, 5.076e-4
-1.871, 5.128e-4
-1.872, 5.183e-4
-1.873, 5.236e-4
-1.874, 5.290e-4
-1.875, 5.344e-4
-1.876, 5.397e-4
-1.877, 5.451e-4
-1.878, 5.506e-4
-1.879, 5.562e-4
-1.880, 5.617e-4
-1.881, 5.671e-4
-1.882, 5.718e-4
-1.883, 5.767e-4
-1.884, 5.820e-4
-1.885, 5.874e-4
-1.886, 5.929e-4
-1.887, 5.986e-4
-1.888, 6.041e-4
-1.889, 6.097e-4
-1.890, 6.154e-4
-1.891, 6.213e-4
-1.892, 6.272e-4
-1.893, 6.332e-4
-1.894, 6.390e-4
-1.895, 6.449e-4
-1.896, 6.509e-4
-1.897, 6.570e-4
-1.898, 6.629e-4
-1.899, 6.687e-4
-1.900, 6.747e-4
-1.901, 6.808e-4
-1.902, 6.868e-4
-1.903, 6.930e-4
-1.904, 6.991e-4
-1.905, 7.052e-4
-1.906, 7.115e-4
-1.907, 7.175e-4
-1.908, 7.235e-4
-1.909, 7.298e-4
-1.910, 7.361e-4
-1.911, 7.422e-4
-1.912, 7.482e-4
-1.913, 7.542e-4
-1.914, 7.600e-4
-1.915, 7.664e-4
-1.916, 7.730e-4
-1.917, 7.795e-4
-1.918, 7.861e-4
-1.919, 7.927e-4
-1.920, 7.989e-4
-1.921, 8.052e-4
-1.922, 8.119e-4
-1.923, 8.188e-4
-1.924, 8.256e-4
-1.925, 8.323e-4
-1.926, 8.386e-4
-1.927, 8.454e-4
-1.928, 8.525e-4
-1.929, 8.595e-4
-1.930, 8.664e-4
-1.931, 8.729e-4
-1.932, 8.800e-4
-1.933, 8.872e-4
-1.934, 8.944e-4
-1.935, 9.013e-4
-1.936, 9.081e-4
-1.937, 9.154e-4
-1.938, 9.227e-4
-1.939, 9.300e-4
-1.940, 9.371e-4
-1.941, 9.442e-4
-1.942, 9.512e-4
-1.943, 9.583e-4
-1.944, 9.656e-4
-1.945, 9.728e-4
-1.946, 9.801e-4
-1.947, 9.873e-4
-1.948, 9.946e-4
-1.949, 1.002e-3
-1.950, 1.009e-3
-1.951, 1.011e-3
-1.952, 1.011e-3
-1.953, 1.011e-3
-1.954, 1.011e-3
-1.955, 1.011e-3
-1.956, 1.011e-3
-1.957, 1.011e-3
-1.958, 1.011e-3
-1.959, 1.011e-3
-1.960, 1.011e-3
-1.961, 1.011e-3
-1.962, 1.011e-3
-1.963, 1.011e-3
-1.964, 1.011e-3
-1.965, 1.011e-3
-1.966, 1.011e-3
-1.967, 1.011e-3
-1.968, 1.011e-3
-1.969, 1.011e-3
-1.970, 1.011e-3
-1.971, 1.011e-3
-1.972, 1.011e-3
-1.973, 1.011e-3
-1.974, 1.011e-3
-1.975, 1.011e-3
-1.976, 1.011e-3
-1.977, 1.011e-3
-1.978, 1.011e-3
-1.979, 1.011e-3
-1.980, 1.011e-3
-1.981, 1.011e-3
-1.982, 1.011e-3
-1.983, 1.011e-3
-1.984, 1.011e-3
-1.985, 1.011e-3
-1.986, 1.011e-3
-1.987, 1.011e-3
-1.988, 1.011e-3
-1.989, 1.011e-3
-1.990, 1.011e-3
-1.991, 1.011e-3
-1.992, 1.011e-3
-1.993, 1.011e-3
-1.994, 1.011e-3
-1.995, 1.011e-3
-1.996, 1.011e-3
-1.997, 1.011e-3
-1.998, 1.011e-3
-1.999, 1.011e-3
-2.000, 1.011e-3
-2.001, 1.011e-3
-2.002, 1.011e-3
-2.003, 1.011e-3
-2.004, 1.011e-3
-2.005, 1.011e-3
-2.006, 1.011e-3
-2.007, 1.011e-3
-2.008, 1.011e-3
-2.009, 1.011e-3
-2.010, 1.011e-3
-2.011, 1.011e-3
-2.012, 1.011e-3
-2.013, 1.011e-3
-2.014, 1.011e-3
-2.015, 1.011e-3
-2.016, 1.011e-3
-2.017, 1.011e-3
-2.018, 1.011e-3
-2.019, 1.011e-3
-2.020, 1.011e-3
-2.021, 1.011e-3
-2.022, 1.011e-3
-2.023, 1.011e-3
-2.024, 1.011e-3
-2.025, 1.011e-3
-2.026, 1.011e-3
-2.027, 1.011e-3
-2.028, 1.011e-3
-2.029, 1.011e-3
-2.030, 1.011e-3
-2.031, 1.011e-3
-2.032, 1.011e-3
-2.033, 1.011e-3
-2.034, 1.011e-3
-2.035, 1.011e-3
-2.036, 1.011e-3
-2.037, 1.011e-3
-2.038, 1.011e-3
-2.039, 1.011e-3
-2.040, 1.011e-3
-2.041, 1.011e-3
-2.042, 1.011e-3
-2.043, 1.011e-3
-2.044, 1.011e-3
-2.045, 1.011e-3
-2.046, 1.011e-3
-2.047, 1.011e-3
-2.048, 1.011e-3
-2.049, 1.011e-3
-2.050, 1.011e-3
-2.051, 1.011e-3
-2.052, 1.011e-3
-2.053, 1.011e-3
-2.054, 1.011e-3
-2.055, 1.011e-3
-2.056, 1.011e-3
-2.057, 1.011e-3
-2.058, 1.011e-3
-2.059, 1.011e-3
-2.060, 1.011e-3
-2.061, 1.011e-3
-2.062, 1.011e-3
-2.063, 1.011e-3
-2.064, 1.011e-3
-2.065, 1.011e-3
-2.066, 1.011e-3
-2.067, 1.011e-3
-2.068, 1.011e-3
-2.069, 1.011e-3
-2.070, 1.011e-3
-2.071, 1.011e-3
-2.072, 1.011e-3
-2.073, 1.011e-3
-2.074, 1.011e-3
-2.075, 1.011e-3
-2.076, 1.011e-3
-2.077, 1.011e-3
-2.078, 1.011e-3
-2.079, 1.011e-3
-2.080, 1.011e-3
-2.081, 1.011e-3
-2.082, 1.011e-3
-2.083, 1.011e-3
-2.084, 1.011e-3
-2.085, 1.011e-3
-2.086, 1.011e-3
-2.087, 1.011e-3
-2.088, 1.011e-3
-2.089, 1.011e-3
-2.090, 1.011e-3
-2.091, 1.011e-3
-2.092, 1.011e-3
-2.093, 1.011e-3
-2.094, 1.011e-3
-2.095, 1.011e-3
-2.096, 1.011e-3
-2.097, 1.011e-3
-2.098, 1.011e-3
-2.099, 1.011e-3
