Potential V vs RHE, Current mA cm-2
0.013299999999999867,-0.10340124890713552
0.012299999999999978,-0.16495533756426325
0.011299999999999866,-0.1933910346915505
0.010299999999999976,-0.2167337711393236
0.009299999999999864,-0.2396520941971372
0.008299999999999974,-0.25988246578520724
0.007299999999999862,-0.2799713662432907
0.006299999999999972,-0.3028896893011043
0.00529999999999986,-0.3239688876690934
0.0042999999999999705,-0.3492922199366776
0.0032999999999998586,-0.3754643789841807
0.0022999999999999687,-0.40092918238175135
0.0012999999999998568,-0.4299307640289846
0.00029999999999996696,-0.46077147036604243
-0.000700000000000145,-0.49147070557311373
-0.0017000000000000348,-0.5249993633799152
-0.0027000000000001467,-0.5559815408469594
-0.0037000000000000366,-0.5878125450939228
-0.0047000000000001485,-0.6209167895107646
-0.005700000000000038,-0.6507671979379168
-0.00670000000000015,-0.6796273084551637
-0.00770000000000004,-0.7041018139428288
-0.008700000000000152,-0.7285763194304938
-0.009700000000000042,-0.7509287579683614
-0.010700000000000154,-0.771017658426445
-0.011700000000000044,-0.7892674341947039
-0.012700000000000156,-0.8045463162332464
-0.013700000000000045,-0.8155810643721937
-0.014700000000000157,-0.828313466070979
-0.015700000000000047,-0.8390652719499533
-0.01670000000000016,-0.8475535397491435
-0.01770000000000005,-0.8561832786783202
-0.01870000000000016,-0.8614177104878209
-0.01970000000000005,-0.868491266987146
-0.020700000000000163,-0.8762721791364039
-0.021700000000000053,-0.8791016017361337
-0.022700000000000164,-0.8854678025855264
-0.023700000000000054,-0.8881557540552701
-0.024700000000000166,-0.8933901858647707
-0.025700000000000056,-0.8991905021942173
-0.026700000000000168,-0.9014540402740014
-0.027700000000000058,-0.9058396453035829
-0.02870000000000017,-0.9085275967733266
-0.02970000000000006,-0.9124887884129486
-0.03070000000000017,-0.9168743934425302
-0.03170000000000006,-0.9199867583022334
-0.03270000000000017,-0.9233820654219095
-0.03370000000000006,-0.9264944302816125
-0.034700000000000175,-0.9291823817513559
-0.035700000000000065,-0.9327191600010186
-0.03670000000000018,-0.9363974093806677
-0.03770000000000007,-0.9390853608504113
-0.03870000000000018,-0.9420562545801279
-0.03970000000000007,-0.9451686194398311
-0.04070000000000018,-0.9484224554295205
-0.04170000000000007,-0.9523836470691426
-0.04270000000000018,-0.9540813006289808
-0.04370000000000007,-0.9580424922686028
-0.044700000000000184,-0.9618622127782385
-0.045700000000000074,-0.9641257508580224
-0.046700000000000186,-0.9697845960574827
-0.047700000000000076,-0.9716237207473072
-0.04870000000000019,-0.9744531433470374
-0.04970000000000008,-0.9791216906365918
-0.05070000000000019,-0.9823755266262814
-0.05170000000000008,-0.9863367182659035
-0.05270000000000019,-0.9901564387755392
-0.05370000000000008,-0.9928443902452826
-0.05470000000000019,-0.9969470530148913
-0.05570000000000008,-1.0020400136944054
-0.056700000000000195,-1.0051523785541088
-0.057700000000000085,-1.0102453392336226
-0.058700000000000196,-1.0134991752233122
-0.059700000000000086,-1.0184506647728397
-0.0607000000000002,-1.023826567712327
-0.06170000000000009,-1.0283536438718952
-0.0627000000000002,-1.0337295468113823
-0.06370000000000009,-1.036983382801072
-0.0647000000000002,-1.0419348723505995
-0.06570000000000009,-1.0485840154599653
-0.0667000000000002,-1.051837851449655
-0.0677000000000001,-1.0573552255191285
-0.0687000000000002,-1.0630140707185887
-0.0697000000000001,-1.0662679067082783
-0.07070000000000021,-1.075746472417374
-0.0717000000000001,-1.079707664056996
-0.07270000000000021,-1.0855079803864427
-0.0737000000000001,-1.0928644791457407
-0.07470000000000021,-1.0972500841753225
-0.0757000000000001,-1.1063042364944589
-0.07670000000000021,-1.113377792993784
-0.0777000000000001,-1.118470753673298
-0.07870000000000021,-1.1259687235625826
-0.0797000000000001,-1.1324763955419617
-0.08070000000000022,-1.1425208457710037
-0.0817000000000001,-1.149452931140342
-0.08270000000000022,-1.156385016509681
-0.08370000000000011,-1.1650147554388575
-0.08470000000000022,-1.1737859654980207
-0.08570000000000011,-1.1829815889471438
-0.08670000000000022,-1.193733394826118
-0.08770000000000011,-1.2008069513254431
-0.08870000000000022,-1.210002574774566
-0.08970000000000011,-1.2200470250036075
-0.09070000000000022,-1.2303744174926226
-0.09170000000000011,-1.2416921078915426
-0.09270000000000023,-1.2503218468207193
-0.09370000000000012,-1.2603662970497613
-0.09470000000000023,-1.272108400838641
-0.09570000000000012,-1.2835675623675478
-0.09670000000000023,-1.2930461280766434
-0.09770000000000012,-1.3070517699453075
-0.09870000000000023,-1.31624739339443
-0.09970000000000012,-1.3309603909130265
-0.10070000000000023,-1.3441172060017714
-0.10170000000000012,-1.3541616562308132
-0.10270000000000024,-1.368733182619423
-0.10370000000000013,-1.3796264596283838
-0.10470000000000024,-1.3936321014970476
-0.10570000000000013,-1.409759810315509
-0.10670000000000024,-1.421784856364362
-0.10770000000000013,-1.4373466806628774
-0.10870000000000024,-1.4486643710617975
-0.10970000000000013,-1.462811484060448
-0.11070000000000024,-1.4797880196588282
-0.11170000000000013,-1.4925204213576138
-0.11270000000000002,-1.506667534356264
-0.11370000000000013,-1.5208146473549145
-0.11470000000000002,-1.5349617603535646
-0.11570000000000014,-1.55052358465208
-0.11670000000000003,-1.5675001202504606
-0.11770000000000014,-1.5816472332491107
-0.11870000000000003,-1.5972090575476263
-0.11970000000000014,-1.612770881846142
-0.12070000000000003,-1.6283327061446573
-0.12170000000000014,-1.6467239530429028
-0.12270000000000003,-1.6594563547416883
-0.12370000000000014,-1.6778476016399335
-0.12470000000000003,-1.693409425938449
-0.12570000000000014,-1.7103859615368293
-0.12670000000000003,-1.7301919197349398
-0.12770000000000015,-1.7443390327335901
-0.12870000000000004,-1.7627302796318356
-0.12970000000000015,-1.781121526530081
-0.13070000000000004,-1.7980980621284617
-0.13170000000000015,-1.8164893090267071
-0.13270000000000004,-1.8334658446250875
-0.13370000000000015,-1.849027668923603
-0.13470000000000004,-1.8688336271217136
-0.13570000000000015,-1.8872248740199586
-0.13670000000000004,-1.9056161209182045
-0.13770000000000016,-1.922592656516585
-0.13870000000000005,-1.9409839034148304
-0.13970000000000016,-1.9565457277133458
-0.14070000000000005,-1.9763516859114565
-0.14170000000000016,-1.993328221509837
-0.14270000000000005,-2.0103047571082175
-0.14370000000000016,-2.0286960040064623
-0.14470000000000005,-2.044257828304978
-0.14570000000000016,-2.0654784978029537
-0.14670000000000005,-2.082455033401334
-0.14770000000000016,-2.0980168576998492
-0.14870000000000005,-2.11782281589796
-0.14970000000000017,-2.136214062796206
-0.15070000000000006,-2.1574347322941807
-0.15170000000000017,-2.1758259791924264
-0.15270000000000006,-2.192802514790807
-0.15370000000000017,-2.2126084729889177
-0.15470000000000006,-2.226755585987568
-0.15570000000000017,-2.2479762554855434
-0.15670000000000006,-2.2663675023837886
-0.15770000000000017,-2.279099904082574
-0.15870000000000006,-2.3003205735805494
-0.15970000000000018,-2.3130529752793345
-0.16070000000000007,-2.3356883560771755
-0.16170000000000018,-2.351250180375691
-0.16270000000000007,-2.3653972933743415
-0.16370000000000018,-2.385203251572452
-0.16470000000000007,-2.4021797871708324
-0.16570000000000018,-2.4219857453689424
-0.16670000000000007,-2.4403769922671885
-0.16770000000000018,-2.457353527865569
-0.16870000000000007,-2.4743300634639493
-0.16970000000000018,-2.4913065990623298
-0.17070000000000007,-2.506868423360845
-0.17170000000000019,-2.5224302476593605
-0.17270000000000008,-2.5408214945576058
-0.1737000000000002,-2.554968607556256
-0.17470000000000008,-2.5705304318547717
-0.1757000000000002,-2.586092256153287
-0.17670000000000008,-2.6016540804518025
-0.1777000000000002,-2.618630616050183
-0.17870000000000008,-2.634192440348698
-0.1797000000000002,-2.648339553347349
-0.18070000000000008,-2.6653160889457292
-0.1817000000000002,-2.6794632019443796
-0.18270000000000008,-2.69643973754276
-0.1837000000000002,-2.712001561841275
-0.1847000000000001,-2.7275633861397908
-0.1857000000000002,-2.745954633038036
-0.1867000000000001,-2.7586870347368215
-0.1877000000000002,-2.7770782816350668
-0.1887000000000001,-2.7926401059335824
-0.1897000000000002,-2.8096166415319628
-0.1907000000000001,-2.8322520223298033
-0.1917000000000001,-2.8506432692280486
-0.19269999999999998,-2.867619804826429
-0.1937000000000001,-2.8860110517246746
-0.19469999999999998,-2.9044022986229203
-0.1957000000000001,-2.922793545521166
-0.19669999999999999,-2.932696524620221
-0.1977000000000001,-2.945428926319006
-0.1987,-2.9609907506175217
-0.1997000000000001,-2.9836261314153627
-0.2007,-3.009090934812933
-0.2017000000000001,-3.0260674704113137
-0.2027,-3.0458734286094242
-0.2037000000000001,-3.0614352529079394
-0.2047,-3.08690005630551
-0.2057000000000001,-3.1081207258034858
-0.2067,-3.1321708179011907
-0.2077000000000001,-3.1491473534995715
-0.2087,-3.167538600397817
-0.2097000000000001,-3.1915886924955226
-0.2107,-3.2156387845932284
-0.2117000000000001,-3.2396888766909337
-0.2127,-3.2609095461889095
-0.2137000000000001,-3.28637434958648
-0.2147,-3.314668575583781
-0.2157000000000001,-3.3429628015810815
-0.2167,-3.3670128936787878
-0.21770000000000012,-3.389648274476628
-0.2187,-3.415113077874199
-0.21970000000000012,-3.4419925925716344
-0.2207,-3.4674573959692045
-0.22170000000000012,-3.4943369106666404
-0.2227,-3.5240458479638064
-0.22370000000000012,-3.552340073961107
-0.2247,-3.5778048773586777
-0.22570000000000012,-3.606099103355979
-0.2267,-3.641466885852605
-0.22770000000000012,-3.674005245749501
-0.22870000000000001,-3.710787739545991
-0.22970000000000013,-3.7390819655432916
-0.23070000000000002,-3.7716203254401877
-0.23170000000000013,-3.798499840137624
-0.23270000000000002,-3.825379354835059
-0.23370000000000013,-3.8635765599314156
-0.23470000000000002,-3.8947002085284463
-0.23570000000000013,-3.931482702324937
-0.23670000000000002,-3.9640210622218324
-0.2376999999999999,-3.9965594221187284
-0.23870000000000002,-4.03900076111468
-0.2396999999999999,-4.074368543611305
-0.24070000000000003,-4.118224593907121
-0.24169999999999991,-4.155007087703612
-0.24270000000000003,-4.1960337153996985
-0.24369999999999992,-4.238475054395651
-0.24470000000000003,-4.282331104691466
-0.24569999999999992,-4.327601866287147
-0.24670000000000003,-4.364384360083638
-0.24769999999999992,-4.408240410379454
-0.24870000000000003,-4.454925883275001
-0.24969999999999992,-4.501611356170546
-0.25070000000000003,-4.553955674265553
-0.2516999999999999,-4.594982301961639
-0.25270000000000004,-4.644497197456915
-0.2536999999999999,-4.691182670352461
-0.25470000000000004,-4.7406975658477375
-0.2556999999999999,-4.795871306542475
-0.25670000000000004,-4.8383126455384255
-0.25769999999999993,-4.890656963633432
-0.25870000000000004,-4.938757147828842
-0.25969999999999993,-4.985442620724389
-0.26070000000000004,-5.040616361419126
-0.26169999999999993,-5.085887123014808
-0.26270000000000004,-5.136816729809948
-0.26369999999999993,-5.18774633660509
-0.26470000000000005,-5.235846520800501
-0.26569999999999994,-5.289605550195372
-0.26670000000000005,-5.340535156990514
-0.26769999999999994,-5.391464763785655
-0.26870000000000005,-5.440979659280932
-0.26969999999999994,-5.491909266076072
-0.27070000000000005,-5.545668295470944
-0.27169999999999994,-5.59235376836649
-0.27270000000000005,-5.643283375161632
-0.27369999999999994,-5.6913835593570425
-0.27470000000000006,-5.745142588751914
-0.27569999999999995,-5.793242772947325
-0.27670000000000006,-5.847001802342197
-0.27769999999999995,-5.892272563937878
-0.27870000000000006,-5.953105149832074
-0.27969999999999995,-5.998375911427756
-0.28070000000000006,-6.0521349408226275
-0.28169999999999995,-6.1058939702174975
-0.28270000000000006,-6.15399415441291
-0.28369999999999995,-6.210582606407511
-0.28470000000000006,-6.2558533680031925
-0.28569999999999995,-6.31385653129766
-0.28670000000000007,-6.3676155606925295
-0.28769999999999996,-6.429862857886591
-0.28870000000000007,-6.4850365985813285
-0.28969999999999996,-6.53596620537647
-0.29070000000000007,-6.592554657371071
-0.29169999999999996,-6.6491431093656725
-0.29270000000000007,-6.709975695259868
-0.29369999999999996,-6.76373472465474
-0.2947000000000001,-6.825982021848802
-0.29569999999999996,-6.879741051243673
-0.2967000000000001,-6.939158925838006
-0.29769999999999996,-6.997162089132471
-0.2987000000000001,-7.063653520226129
-0.29969999999999997,-7.1216566835205946
-0.3007000000000001,-7.189562825914116
-0.30169999999999997,-7.244736566608854
-0.3027000000000001,-7.309813286402645
-0.30369999999999997,-7.3777194287961665
-0.3047000000000001,-7.438552014690363
-0.30569999999999997,-7.516361136182939
-0.3067000000000001,-7.577193722077136
-0.3077,-7.653588132269849
-0.3087000000000001,-7.720079563363504
-0.3097,-7.799303396155947
-0.3107000000000001,-7.878527228948389
-0.3117,-7.937945103542721
-0.3127000000000001,-8.02141307023476
-0.3137,-8.10346632562693
-0.3147000000000001,-8.178446024519777
-0.3157,-8.263328702511679
-0.3167000000000001,-8.33406426750493
-0.3177,-8.4203616567967
-0.3187000000000001,-8.49392664438968
-0.3197,-8.577394611081719
-0.3207000000000001,-8.66510671167335
-0.3217,-8.735842276666602
-0.3227000000000001,-8.823554377258235
-0.3237,-8.905607632650405
-0.3247000000000001,-8.996149155841769
-0.3257,-9.08952010163286
-0.3267000000000001,-9.182891047423954
-0.3277,-9.279091415814774
-0.3287000000000001,-9.362559382506815
-0.3297,-9.450271483098444
-0.3307000000000001,-9.553545407988592
-0.3317,-9.64550164247982
-0.3327000000000001,-9.737457876971048
-0.3337,-9.85063478096025
-0.3347000000000001,-9.969470530148914
-0.3357,-10.099623969736497
-0.3367000000000001,-10.200068472026913
-0.3377,-10.318904221215577
-0.3387000000000001,-10.419348723505994
-0.3397,-10.521207937096278
-0.3407000000000001,-10.648531954084133
-0.3417,-10.74897645637455
-0.3427000000000001,-10.889032875061186
-0.3437,-11.00786862424985
-0.3447000000000001,-11.13094850733811
-0.3457,-11.245540122627176
-0.3467000000000001,-11.362961160515976
-0.3477,-11.517164692201263
-0.3487000000000001,-11.631756307490331
-0.3497,-11.759080324478186
-0.3507000000000001,-11.876501362366984
-0.3517,-11.98260470985686
-0.3527000000000001,-12.126905262443096
-0.3537,-12.242911589032026
-0.3547000000000001,-12.374479739919476
-0.3557,-12.503218468207196
-0.35670000000000013,-12.622054217395856
-0.3577,-12.762110636082495
-0.35870000000000013,-12.875287540071698
-0.3597,-13.019588092657932
-0.36070000000000013,-13.148326820945652
-0.3617,-13.268577281434178
-0.3626999999999999,-13.404389566221221
-0.3637,-13.51332233631083
-0.3646999999999999,-13.647719909798008
-0.3657,-13.794849884983973
-0.3666999999999999,-13.947638705369396
-0.3677,-14.094768680555362
-0.3686999999999999,-14.24614278964092
-0.36970000000000003,-14.401761032626075
-0.3706999999999999,-14.543232162612577
-0.37170000000000003,-14.65640906660178
-0.3726999999999999,-14.812027309586934
-0.37370000000000003,-14.925204213576137
-0.3746999999999999,-15.080822456561293
-0.37570000000000003,-15.193999360550496
-0.3766999999999999,-15.335470490536997
-0.37770000000000004,-15.4769416205235
-0.3786999999999999,-15.632559863508657
-0.37970000000000004,-15.77403099349516
-0.3806999999999999,-15.88720789748436
-0.38170000000000004,-16.04282614046952
-0.38269999999999993,-16.15600304445872
-0.38370000000000004,-16.29747417444522
-0.38469999999999993,-16.410651078434423
-0.38570000000000004,-16.56626932141958
-0.38669999999999993,-16.693593338407435
-0.38770000000000004,-16.806770242396635
-0.38869999999999993,-16.97653559838044
-0.38970000000000005,-17.07556538937099
-0.39069999999999994,-17.231183632356142
-0.39170000000000005,-17.358507649344002
-0.39269999999999994,-17.48583166633185
-0.39370000000000005,-17.641449909317007
-0.39469999999999994,-17.76877392630486
-0.39570000000000005,-17.924392169290012
-0.39669999999999994,-18.05171618627787
-0.39770000000000005,-18.221481542261674
-0.39869999999999994,-18.334658446250877
-0.39970000000000006,-18.49027668923603
-0.40069999999999995,-18.617600706223882
-0.40170000000000006,-18.730777610213085
-0.40269999999999995,-18.900542966196888
-0.40370000000000006,-18.999572757187444
-0.40469999999999995,-19.155191000172596
-0.40570000000000006,-19.296662130159103
-0.40669999999999995,-19.409839034148305
-0.40770000000000006,-19.593751503130758
-0.40869999999999995,-19.70692840711996
-0.40970000000000006,-19.876693763103766
-0.41069999999999995,-20.00401778009162
-0.41170000000000007,-20.17378313607542
-0.41269999999999996,-20.329401379060574
-0.41370000000000007,-20.456725396048434
-0.41469999999999996,-20.612343639033586
-0.41570000000000007,-20.72552054302279
-0.41669999999999996,-20.86699167300929
-0.41770000000000007,-21.008462802995794
-0.41869999999999996,-21.13578681998365
-0.4197000000000001,-21.319699288966106
-0.42069999999999996,-21.447023305953955
-0.4217000000000001,-21.574347322941808
-0.42269999999999996,-21.729965565926964
-0.4237000000000001,-21.857289582914817
-0.42469999999999997,-22.012907825899973
-0.4257000000000001,-22.126084729889175
-0.42669999999999997,-22.267555859875678
-0.4277000000000001,-22.39487987686353
-0.42869999999999997,-22.479762554855434
-0.4297000000000001,-22.67782213683654
-0.43069999999999997,-22.80514615382439
-0.4317000000000001,-22.932470170812245
-0.4327,-23.031499961802798
-0.4337000000000001,-23.102235526796047
-0.4347,-23.24370665678255
-0.4357000000000001,-23.314442221775803
-0.4367,-23.44176623876366
-0.4377000000000001,-23.49835469075826
-0.4387,-23.597384481748815
-0.4397000000000001,-23.696414272739364
-0.4407,-23.781296950731264
-0.4417000000000001,-23.93691519371642
-0.4427,-24.00765075870967
-0.4437000000000001,-24.106680549700226
-0.4447,-24.24815167968673
-0.4457000000000001,-24.31888724467998
-0.4467,-24.44621126166783
-0.4477000000000001,-24.545241052658387
-0.4487,-24.630123730650286
-0.4497000000000001,-24.771594860636792
-0.4507,-24.828183312631392
-0.4517000000000001,-24.95550732961925
-0.4527,-25.026242894612498
-0.4537000000000001,-25.153566911600354
-0.4547,-25.224302476593607
-0.4557000000000001,-25.36577360658011
-0.4567,-25.521391849565262
-0.4577000000000001,-25.648715866553115
-0.4587,-25.719451431546364
-0.4597000000000001,-25.832628335535567
-0.4607,-25.988246578520723
-0.4617000000000001,-26.087276369511276
-0.4627,-26.242894612496432
-0.4637000000000001,-26.34192440348698
-0.4647,-26.483395533473487
-0.4657000000000001,-26.539983985468087
-0.4667,-26.681455115454593
-0.4677000000000001,-26.780484906445146
-0.4687,-26.921956036431645
-0.4697000000000001,-27.00683871442355
-0.4707,-27.162456957408708
-0.4717000000000001,-27.233192522401957
-0.4727,-27.36051653938981
-0.4737000000000001,-27.473693443379013
-0.4747,-27.501987669376312
-0.4757000000000001,-27.671753025360115
-0.4767,-27.714194364356068
-0.4777000000000001,-27.855665494342567
-0.4787,-27.954695285333123
-0.4797000000000001,-28.039577963325023
-0.4807,-28.209343319308836
-0.48170000000000013,-28.350814449295335
-0.4827,-28.52057980527914
-0.48370000000000013,-28.619609596269694
-0.4847,-28.746933613257543
-0.48570000000000013,-28.944993195238652
-0.4867,-28.463991353284538
-0.48570000000000013,-27.700047251357418
-0.4847,-27.049280053419505
-0.48370000000000013,-26.568278211465387
-0.4827,-26.101423482509926
-0.48170000000000013,-25.634568753554465
-0.4807,-25.210155363594954
-0.4797000000000001,-24.799889086634096
-0.4787,-24.304740131681328
-0.4777000000000001,-23.908620967719123
-0.4767,-23.48420757775961
-0.4757000000000001,-23.088088413797397
-0.4747,-22.67782213683654
-0.4737000000000001,-22.33829142486893
-0.4727,-21.94217226090672
-0.4717000000000001,-21.61678866193776
-0.4707,-21.277257949970153
-0.4697000000000001,-21.008462802995794
-0.4687,-20.69722631702549
-0.4677000000000001,-20.357695605057877
