Aug. 17, 2024   17:47:11
Cyclic Voltammetry
File: c:/users/guazh/data/20240813_batch_94_500/2024-08-15-exp115\exp115-2024-08-17t17_30_02-h2koh\exp115_cv_sr_50mvs_efin_-1700mv.bin
Data Source:  Experiment
Instrument Model:  CHI760E
Header: CV ran at 50 mVs
Note: 

Init E (V) = -1
High E (V) = -1
Low E (V) = -1.7
Final E (V) = -1
Init P/N = N
Scan Rate (V/s) = 0.05
Segment = 3
Sample Interval (V) = 0.001
Quiet Time (sec) = 2
Sensitivity (A/V) = 0.01
Comp R (ohm) = 1.7

Results:

Channel 1:
Segment 1:

Segment 2:

Segment 3:

Potential/V, Current/A

-1.000, -1.851e-5
-1.001, -1.381e-5
-1.002, -1.112e-5
-1.003, -9.167e-6
-1.004, -7.411e-6
-1.005, -6.070e-6
-1.006, -4.659e-6
-1.007, -3.514e-6
-1.008, -2.370e-6
-1.009, -1.403e-6
-1.010, -5.051e-7
-1.011, 4.519e-7
-1.012, 1.340e-6
-1.013, 2.277e-6
-1.014, 3.056e-6
-1.015, 3.678e-6
-1.016, 4.408e-6
-1.017, 5.227e-6
-1.018, 6.085e-6
-1.019, 6.608e-6
-1.020, 7.161e-6
-1.021, 7.881e-6
-1.022, 8.552e-6
-1.023, 9.233e-6
-1.024, 9.884e-6
-1.025, 1.034e-5
-1.026, 1.110e-5
-1.027, 1.173e-5
-1.028, 1.242e-5
-1.029, 1.304e-5
-1.030, 1.362e-5
-1.031, 1.421e-5
-1.032, 1.484e-5
-1.033, 1.553e-5
-1.034, 1.628e-5
-1.035, 1.682e-5
-1.036, 1.745e-5
-1.037, 1.823e-5
-1.038, 1.886e-5
-1.039, 1.952e-5
-1.040, 1.991e-5
-1.041, 2.057e-5
-1.042, 2.135e-5
-1.043, 2.180e-5
-1.044, 2.242e-5
-1.045, 2.292e-5
-1.046, 2.344e-5
-1.047, 2.401e-5
-1.048, 2.450e-5
-1.049, 2.502e-5
-1.050, 2.542e-5
-1.051, 2.591e-5
-1.052, 2.646e-5
-1.053, 2.670e-5
-1.054, 2.710e-5
-1.055, 2.743e-5
-1.056, 2.778e-5
-1.057, 2.817e-5
-1.058, 2.850e-5
-1.059, 2.885e-5
-1.060, 2.919e-5
-1.061, 2.950e-5
-1.062, 2.992e-5
-1.063, 3.024e-5
-1.064, 3.052e-5
-1.065, 3.085e-5
-1.066, 3.107e-5
-1.067, 3.150e-5
-1.068, 3.181e-5
-1.069, 3.208e-5
-1.070, 3.239e-5
-1.071, 3.265e-5
-1.072, 3.292e-5
-1.073, 3.317e-5
-1.074, 3.362e-5
-1.075, 3.393e-5
-1.076, 3.432e-5
-1.077, 3.456e-5
-1.078, 3.477e-5
-1.079, 3.515e-5
-1.080, 3.539e-5
-1.081, 3.567e-5
-1.082, 3.601e-5
-1.083, 3.620e-5
-1.084, 3.650e-5
-1.085, 3.666e-5
-1.086, 3.690e-5
-1.087, 3.721e-5
-1.088, 3.744e-5
-1.089, 3.775e-5
-1.090, 3.787e-5
-1.091, 3.801e-5
-1.092, 3.834e-5
-1.093, 3.856e-5
-1.094, 3.866e-5
-1.095, 3.894e-5
-1.096, 3.896e-5
-1.097, 3.910e-5
-1.098, 3.940e-5
-1.099, 3.945e-5
-1.100, 3.962e-5
-1.101, 3.995e-5
-1.102, 3.996e-5
-1.103, 4.021e-5
-1.104, 4.019e-5
-1.105, 4.022e-5
-1.106, 4.055e-5
-1.107, 4.055e-5
-1.108, 4.078e-5
-1.109, 4.077e-5
-1.110, 4.091e-5
-1.111, 4.098e-5
-1.112, 4.112e-5
-1.113, 4.136e-5
-1.114, 4.145e-5
-1.115, 4.141e-5
-1.116, 4.164e-5
-1.117, 4.166e-5
-1.118, 4.190e-5
-1.119, 4.198e-5
-1.120, 4.194e-5
-1.121, 4.201e-5
-1.122, 4.227e-5
-1.123, 4.221e-5
-1.124, 4.238e-5
-1.125, 4.239e-5
-1.126, 4.257e-5
-1.127, 4.277e-5
-1.128, 4.267e-5
-1.129, 4.281e-5
-1.130, 4.287e-5
-1.131, 4.291e-5
-1.132, 4.302e-5
-1.133, 4.323e-5
-1.134, 4.320e-5
-1.135, 4.327e-5
-1.136, 4.328e-5
-1.137, 4.344e-5
-1.138, 4.348e-5
-1.139, 4.347e-5
-1.140, 4.361e-5
-1.141, 4.361e-5
-1.142, 4.373e-5
-1.143, 4.389e-5
-1.144, 4.400e-5
-1.145, 4.388e-5
-1.146, 4.403e-5
-1.147, 4.405e-5
-1.148, 4.422e-5
-1.149, 4.432e-5
-1.150, 4.417e-5
-1.151, 4.430e-5
-1.152, 4.453e-5
-1.153, 4.461e-5
-1.154, 4.476e-5
-1.155, 4.454e-5
-1.156, 4.483e-5
-1.157, 4.486e-5
-1.158, 4.496e-5
-1.159, 4.506e-5
-1.160, 4.493e-5
-1.161, 4.512e-5
-1.162, 4.514e-5
-1.163, 4.525e-5
-1.164, 4.534e-5
-1.165, 4.536e-5
-1.166, 4.546e-5
-1.167, 4.548e-5
-1.168, 4.560e-5
-1.169, 4.566e-5
-1.170, 4.563e-5
-1.171, 4.565e-5
-1.172, 4.586e-5
-1.173, 4.587e-5
-1.174, 4.596e-5
-1.175, 4.604e-5
-1.176, 4.605e-5
-1.177, 4.626e-5
-1.178, 4.649e-5
-1.179, 4.642e-5
-1.180, 4.641e-5
-1.181, 4.648e-5
-1.182, 4.657e-5
-1.183, 4.673e-5
-1.184, 4.671e-5
-1.185, 4.674e-5
-1.186, 4.697e-5
-1.187, 4.694e-5
-1.188, 4.719e-5
-1.189, 4.700e-5
-1.190, 4.715e-5
-1.191, 4.732e-5
-1.192, 4.738e-5
-1.193, 4.753e-5
-1.194, 4.749e-5
-1.195, 4.756e-5
-1.196, 4.779e-5
-1.197, 4.782e-5
-1.198, 4.792e-5
-1.199, 4.799e-5
-1.200, 4.797e-5
-1.201, 4.818e-5
-1.202, 4.829e-5
-1.203, 4.845e-5
-1.204, 4.842e-5
-1.205, 4.852e-5
-1.206, 4.869e-5
-1.207, 4.878e-5
-1.208, 4.887e-5
-1.209, 4.887e-5
-1.210, 4.912e-5
-1.211, 4.919e-5
-1.212, 4.932e-5
-1.213, 4.942e-5
-1.214, 4.952e-5
-1.215, 4.966e-5
-1.216, 4.971e-5
-1.217, 4.996e-5
-1.218, 5.009e-5
-1.219, 5.001e-5
-1.220, 5.027e-5
-1.221, 5.035e-5
-1.222, 5.045e-5
-1.223, 5.077e-5
-1.224, 5.059e-5
-1.225, 5.076e-5
-1.226, 5.090e-5
-1.227, 5.102e-5
-1.228, 5.133e-5
-1.229, 5.149e-5
-1.230, 5.163e-5
-1.231, 5.175e-5
-1.232, 5.185e-5
-1.233, 5.200e-5
-1.234, 5.217e-5
-1.235, 5.224e-5
-1.236, 5.244e-5
-1.237, 5.259e-5
-1.238, 5.276e-5
-1.239, 5.290e-5
-1.240, 5.286e-5
-1.241, 5.320e-5
-1.242, 5.341e-5
-1.243, 5.356e-5
-1.244, 5.369e-5
-1.245, 5.389e-5
-1.246, 5.398e-5
-1.247, 5.436e-5
-1.248, 5.452e-5
-1.249, 5.454e-5
-1.250, 5.477e-5
-1.251, 5.490e-5
-1.252, 5.519e-5
-1.253, 5.542e-5
-1.254, 5.551e-5
-1.255, 5.573e-5
-1.256, 5.595e-5
-1.257, 5.615e-5
-1.258, 5.644e-5
-1.259, 5.659e-5
-1.260, 5.675e-5
-1.261, 5.702e-5
-1.262, 5.722e-5
-1.263, 5.754e-5
-1.264, 5.770e-5
-1.265, 5.793e-5
-1.266, 5.827e-5
-1.267, 5.852e-5
-1.268, 5.891e-5
-1.269, 5.900e-5
-1.270, 5.926e-5
-1.271, 5.962e-5
-1.272, 5.979e-5
-1.273, 6.013e-5
-1.274, 6.044e-5
-1.275, 6.061e-5
-1.276, 6.085e-5
-1.277, 6.121e-5
-1.278, 6.164e-5
-1.279, 6.173e-5
-1.280, 6.216e-5
-1.281, 6.248e-5
-1.282, 6.282e-5
-1.283, 6.312e-5
-1.284, 6.344e-5
-1.285, 6.374e-5
-1.286, 6.407e-5
-1.287, 6.446e-5
-1.288, 6.482e-5
-1.289, 6.517e-5
-1.290, 6.546e-5
-1.291, 6.583e-5
-1.292, 6.623e-5
-1.293, 6.665e-5
-1.294, 6.699e-5
-1.295, 6.743e-5
-1.296, 6.782e-5
-1.297, 6.819e-5
-1.298, 6.868e-5
-1.299, 6.898e-5
-1.300, 6.937e-5
-1.301, 6.988e-5
-1.302, 7.019e-5
-1.303, 7.084e-5
-1.304, 7.111e-5
-1.305, 7.163e-5
-1.306, 7.207e-5
-1.307, 7.262e-5
-1.308, 7.312e-5
-1.309, 7.349e-5
-1.310, 7.397e-5
-1.311, 7.453e-5
-1.312, 7.514e-5
-1.313, 7.564e-5
-1.314, 7.606e-5
-1.315, 7.668e-5
-1.316, 7.718e-5
-1.317, 7.775e-5
-1.318, 7.837e-5
-1.319, 7.888e-5
-1.320, 7.945e-5
-1.321, 7.951e-5
-1.322, 7.989e-5
-1.323, 8.022e-5
-1.324, 8.085e-5
-1.325, 8.136e-5
-1.326, 8.206e-5
-1.327, 8.259e-5
-1.328, 8.334e-5
-1.329, 8.364e-5
-1.330, 8.452e-5
-1.331, 8.527e-5
-1.332, 8.594e-5
-1.333, 8.652e-5
-1.334, 8.727e-5
-1.335, 8.797e-5
-1.336, 8.864e-5
-1.337, 8.938e-5
-1.338, 9.028e-5
-1.339, 9.081e-5
-1.340, 9.164e-5
-1.341, 9.221e-5
-1.342, 9.321e-5
-1.343, 9.394e-5
-1.344, 9.467e-5
-1.345, 9.552e-5
-1.346, 9.638e-5
-1.347, 9.717e-5
-1.348, 9.804e-5
-1.349, 9.887e-5
-1.350, 9.961e-5
-1.351, 1.007e-4
-1.352, 1.016e-4
-1.353, 1.024e-4
-1.354, 1.032e-4
-1.355, 1.042e-4
-1.356, 1.052e-4
-1.357, 1.062e-4
-1.358, 1.072e-4
-1.359, 1.080e-4
-1.360, 1.090e-4
-1.361, 1.101e-4
-1.362, 1.110e-4
-1.363, 1.121e-4
-1.364, 1.130e-4
-1.365, 1.141e-4
-1.366, 1.152e-4
-1.367, 1.164e-4
-1.368, 1.174e-4
-1.369, 1.183e-4
-1.370, 1.197e-4
-1.371, 1.206e-4
-1.372, 1.218e-4
-1.373, 1.231e-4
-1.374, 1.242e-4
-1.375, 1.255e-4
-1.376, 1.265e-4
-1.377, 1.279e-4
-1.378, 1.290e-4
-1.379, 1.302e-4
-1.380, 1.314e-4
-1.381, 1.328e-4
-1.382, 1.340e-4
-1.383, 1.355e-4
-1.384, 1.366e-4
-1.385, 1.379e-4
-1.386, 1.393e-4
-1.387, 1.408e-4
-1.388, 1.421e-4
-1.389, 1.434e-4
-1.390, 1.448e-4
-1.391, 1.463e-4
-1.392, 1.477e-4
-1.393, 1.490e-4
-1.394, 1.506e-4
-1.395, 1.520e-4
-1.396, 1.538e-4
-1.397, 1.551e-4
-1.398, 1.568e-4
-1.399, 1.583e-4
-1.400, 1.597e-4
-1.401, 1.615e-4
-1.402, 1.630e-4
-1.403, 1.648e-4
-1.404, 1.664e-4
-1.405, 1.679e-4
-1.406, 1.698e-4
-1.407, 1.713e-4
-1.408, 1.731e-4
-1.409, 1.748e-4
-1.410, 1.765e-4
-1.411, 1.785e-4
-1.412, 1.802e-4
-1.413, 1.820e-4
-1.414, 1.838e-4
-1.415, 1.858e-4
-1.416, 1.877e-4
-1.417, 1.895e-4
-1.418, 1.916e-4
-1.419, 1.933e-4
-1.420, 1.955e-4
-1.421, 1.977e-4
-1.422, 1.996e-4
-1.423, 2.017e-4
-1.424, 2.036e-4
-1.425, 2.059e-4
-1.426, 2.079e-4
-1.427, 2.100e-4
-1.428, 2.123e-4
-1.429, 2.140e-4
-1.430, 2.163e-4
-1.431, 2.188e-4
-1.432, 2.211e-4
-1.433, 2.238e-4
-1.434, 2.259e-4
-1.435, 2.283e-4
-1.436, 2.305e-4
-1.437, 2.332e-4
-1.438, 2.354e-4
-1.439, 2.380e-4
-1.440, 2.405e-4
-1.441, 2.431e-4
-1.442, 2.458e-4
-1.443, 2.482e-4
-1.444, 2.511e-4
-1.445, 2.537e-4
-1.446, 2.565e-4
-1.447, 2.599e-4
-1.448, 2.623e-4
-1.449, 2.654e-4
-1.450, 2.683e-4
-1.451, 2.714e-4
-1.452, 2.743e-4
-1.453, 2.771e-4
-1.454, 2.804e-4
-1.455, 2.835e-4
-1.456, 2.866e-4
-1.457, 2.902e-4
-1.458, 2.933e-4
-1.459, 2.968e-4
-1.460, 3.000e-4
-1.461, 3.033e-4
-1.462, 3.071e-4
-1.463, 3.106e-4
-1.464, 3.144e-4
-1.465, 3.177e-4
-1.466, 3.219e-4
-1.467, 3.255e-4
-1.468, 3.298e-4
-1.469, 3.334e-4
-1.470, 3.376e-4
-1.471, 3.419e-4
-1.472, 3.461e-4
-1.473, 3.505e-4
-1.474, 3.545e-4
-1.475, 3.592e-4
-1.476, 3.635e-4
-1.477, 3.682e-4
-1.478, 3.726e-4
-1.479, 3.774e-4
-1.480, 3.818e-4
-1.481, 3.869e-4
-1.482, 3.919e-4
-1.483, 3.971e-4
-1.484, 4.017e-4
-1.485, 4.075e-4
-1.486, 4.121e-4
-1.487, 4.178e-4
-1.488, 4.228e-4
-1.489, 4.284e-4
-1.490, 4.339e-4
-1.491, 4.394e-4
-1.492, 4.454e-4
-1.493, 4.511e-4
-1.494, 4.570e-4
-1.495, 4.625e-4
-1.496, 4.692e-4
-1.497, 4.749e-4
-1.498, 4.810e-4
-1.499, 4.867e-4
-1.500, 4.931e-4
-1.501, 4.988e-4
-1.502, 5.050e-4
-1.503, 5.107e-4
-1.504, 5.166e-4
-1.505, 5.221e-4
-1.506, 5.283e-4
-1.507, 5.337e-4
-1.508, 5.399e-4
-1.509, 5.454e-4
-1.510, 5.509e-4
-1.511, 5.572e-4
-1.512, 5.623e-4
-1.513, 5.677e-4
-1.514, 5.731e-4
-1.515, 5.782e-4
-1.516, 5.838e-4
-1.517, 5.887e-4
-1.518, 5.936e-4
-1.519, 5.986e-4
-1.520, 6.041e-4
-1.521, 6.093e-4
-1.522, 6.148e-4
-1.523, 6.193e-4
-1.524, 6.245e-4
-1.525, 6.298e-4
-1.526, 6.356e-4
-1.527, 6.407e-4
-1.528, 6.460e-4
-1.529, 6.513e-4
-1.530, 6.567e-4
-1.531, 6.629e-4
-1.532, 6.694e-4
-1.533, 6.751e-4
-1.534, 6.816e-4
-1.535, 6.875e-4
-1.536, 6.945e-4
-1.537, 7.003e-4
-1.538, 7.076e-4
-1.539, 7.139e-4
-1.540, 7.220e-4
-1.541, 7.284e-4
-1.542, 7.364e-4
-1.543, 7.437e-4
-1.544, 7.516e-4
-1.545, 7.597e-4
-1.546, 7.671e-4
-1.547, 7.765e-4
-1.548, 7.842e-4
-1.549, 7.925e-4
-1.550, 8.013e-4
-1.551, 8.098e-4
-1.552, 8.195e-4
-1.553, 8.275e-4
-1.554, 8.375e-4
-1.555, 8.468e-4
-1.556, 8.559e-4
-1.557, 8.666e-4
-1.558, 8.756e-4
-1.559, 8.869e-4
-1.560, 8.972e-4
-1.561, 9.079e-4
-1.562, 9.201e-4
-1.563, 9.311e-4
-1.564, 9.430e-4
-1.565, 9.549e-4
-1.566, 9.686e-4
-1.567, 9.813e-4
-1.568, 9.943e-4
-1.569, 1.007e-3
-1.570, 1.021e-3
-1.571, 1.034e-3
-1.572, 1.050e-3
-1.573, 1.065e-3
-1.574, 1.081e-3
-1.575, 1.098e-3
-1.576, 1.112e-3
-1.577, 1.129e-3
-1.578, 1.145e-3
-1.579, 1.165e-3
-1.580, 1.181e-3
-1.581, 1.199e-3
-1.582, 1.217e-3
-1.583, 1.237e-3
-1.584, 1.258e-3
-1.585, 1.277e-3
-1.586, 1.300e-3
-1.587, 1.319e-3
-1.588, 1.342e-3
-1.589, 1.362e-3
-1.590, 1.384e-3
-1.591, 1.405e-3
-1.592, 1.427e-3
-1.593, 1.451e-3
-1.594, 1.474e-3
-1.595, 1.501e-3
-1.596, 1.523e-3
-1.597, 1.550e-3
-1.598, 1.572e-3
-1.599, 1.600e-3
-1.600, 1.626e-3
-1.601, 1.652e-3
-1.602, 1.677e-3
-1.603, 1.701e-3
-1.604, 1.731e-3
-1.605, 1.759e-3
-1.606, 1.786e-3
-1.607, 1.815e-3
-1.608, 1.841e-3
-1.609, 1.870e-3
-1.610, 1.896e-3
-1.611, 1.926e-3
-1.612, 1.954e-3
-1.613, 1.983e-3
-1.614, 2.013e-3
-1.615, 2.041e-3
-1.616, 2.078e-3
-1.617, 2.107e-3
-1.618, 2.137e-3
-1.619, 2.167e-3
-1.620, 2.196e-3
-1.621, 2.230e-3
-1.622, 2.263e-3
-1.623, 2.293e-3
-1.624, 2.324e-3
-1.625, 2.358e-3
-1.626, 2.389e-3
-1.627, 2.423e-3
-1.628, 2.456e-3
-1.629, 2.491e-3
-1.630, 2.517e-3
-1.631, 2.556e-3
-1.632, 2.590e-3
-1.633, 2.630e-3
-1.634, 2.666e-3
-1.635, 2.695e-3
-1.636, 2.731e-3
-1.637, 2.768e-3
-1.638, 2.805e-3
-1.639, 2.835e-3
-1.640, 2.872e-3
-1.641, 2.912e-3
-1.642, 2.943e-3
-1.643, 2.979e-3
-1.644, 3.016e-3
-1.645, 3.049e-3
-1.646, 3.088e-3
-1.647, 3.127e-3
-1.648, 3.171e-3
-1.649, 3.200e-3
-1.650, 3.245e-3
-1.651, 3.272e-3
-1.652, 3.316e-3
-1.653, 3.349e-3
-1.654, 3.388e-3
-1.655, 3.424e-3
-1.656, 3.464e-3
-1.657, 3.505e-3
-1.658, 3.537e-3
-1.659, 3.581e-3
-1.660, 3.614e-3
-1.661, 3.651e-3
-1.662, 3.690e-3
-1.663, 3.724e-3
-1.664, 3.767e-3
-1.665, 3.796e-3
-1.666, 3.833e-3
-1.667, 3.878e-3
-1.668, 3.914e-3
-1.669, 3.961e-3
-1.670, 3.987e-3
-1.671, 4.028e-3
-1.672, 4.054e-3
-1.673, 4.095e-3
-1.674, 4.124e-3
-1.675, 4.172e-3
-1.676, 4.208e-3
-1.677, 4.245e-3
-1.678, 4.285e-3
-1.679, 4.320e-3
-1.680, 4.360e-3
-1.681, 4.387e-3
-1.682, 4.436e-3
-1.683, 4.463e-3
-1.684, 4.503e-3
-1.685, 4.538e-3
-1.686, 4.571e-3
-1.687, 4.614e-3
-1.688, 4.639e-3
-1.689, 4.684e-3
-1.690, 4.734e-3
-1.691, 4.774e-3
-1.692, 4.809e-3
-1.693, 4.845e-3
-1.694, 4.870e-3
-1.695, 4.920e-3
-1.696, 4.960e-3
-1.697, 5.000e-3
-1.698, 5.031e-3
-1.699, 5.074e-3
-1.700, 5.055e-3
-1.699, 5.022e-3
-1.698, 4.963e-3
-1.697, 4.933e-3
-1.696, 4.876e-3
-1.695, 4.831e-3
-1.694, 4.780e-3
-1.693, 4.758e-3
-1.692, 4.723e-3
-1.691, 4.664e-3
-1.690, 4.627e-3
-1.689, 4.590e-3
-1.688, 4.545e-3
-1.687, 4.496e-3
-1.686, 4.449e-3
-1.685, 4.409e-3
-1.684, 4.362e-3
-1.683, 4.320e-3
-1.682, 4.286e-3
-1.681, 4.249e-3
-1.680, 4.207e-3
-1.679, 4.174e-3
-1.678, 4.149e-3
-1.677, 4.096e-3
-1.676, 4.060e-3
-1.675, 4.021e-3
-1.674, 3.984e-3
-1.673, 3.937e-3
-1.672, 3.897e-3
-1.671, 3.861e-3
-1.670, 3.825e-3
-1.669, 3.791e-3
-1.668, 3.759e-3
-1.667, 3.711e-3
-1.666, 3.671e-3
-1.665, 3.625e-3
-1.664, 3.593e-3
-1.663, 3.554e-3
-1.662, 3.519e-3
-1.661, 3.489e-3
-1.660, 3.450e-3
-1.659, 3.405e-3
-1.658, 3.373e-3
-1.657, 3.348e-3
-1.656, 3.309e-3
-1.655, 3.275e-3
-1.654, 3.235e-3
-1.653, 3.203e-3
-1.652, 3.159e-3
-1.651, 3.126e-3
-1.650, 3.089e-3
-1.649, 3.054e-3
-1.648, 3.021e-3
-1.647, 2.987e-3
-1.646, 2.959e-3
-1.645, 2.917e-3
-1.644, 2.890e-3
-1.643, 2.849e-3
-1.642, 2.823e-3
-1.641, 2.787e-3
-1.640, 2.749e-3
-1.639, 2.714e-3
-1.638, 2.677e-3
-1.637, 2.650e-3
-1.636, 2.618e-3
-1.635, 2.592e-3
-1.634, 2.566e-3
-1.633, 2.532e-3
-1.632, 2.507e-3
-1.631, 2.476e-3
-1.630, 2.446e-3
-1.629, 2.419e-3
-1.628, 2.385e-3
-1.627, 2.355e-3
-1.626, 2.323e-3
-1.625, 2.291e-3
-1.624, 2.259e-3
-1.623, 2.226e-3
-1.622, 2.203e-3
-1.621, 2.169e-3
-1.620, 2.143e-3
-1.619, 2.112e-3
-1.618, 2.089e-3
-1.617, 2.063e-3
-1.616, 2.034e-3
-1.615, 2.006e-3
-1.614, 1.979e-3
-1.613, 1.950e-3
-1.612, 1.922e-3
-1.611, 1.901e-3
-1.610, 1.877e-3
-1.609, 1.852e-3
-1.608, 1.821e-3
-1.607, 1.802e-3
-1.606, 1.774e-3
-1.605, 1.751e-3
-1.604, 1.728e-3
-1.603, 1.707e-3
-1.602, 1.686e-3
-1.601, 1.661e-3
-1.600, 1.640e-3
-1.599, 1.612e-3
-1.598, 1.585e-3
-1.597, 1.563e-3
-1.596, 1.543e-3
-1.595, 1.518e-3
-1.594, 1.499e-3
-1.593, 1.475e-3
-1.592, 1.455e-3
-1.591, 1.430e-3
-1.590, 1.412e-3
-1.589, 1.387e-3
-1.588, 1.373e-3
-1.587, 1.350e-3
-1.586, 1.332e-3
-1.585, 1.310e-3
-1.584, 1.288e-3
-1.583, 1.267e-3
-1.582, 1.247e-3
-1.581, 1.228e-3
-1.580, 1.209e-3
-1.579, 1.194e-3
-1.578, 1.172e-3
-1.577, 1.153e-3
-1.576, 1.135e-3
-1.575, 1.118e-3
-1.574, 1.098e-3
-1.573, 1.079e-3
-1.572, 1.062e-3
-1.571, 1.043e-3
-1.570, 1.029e-3
-1.569, 1.012e-3
-1.568, 9.929e-4
-1.567, 9.779e-4
-1.566, 9.606e-4
-1.565, 9.457e-4
-1.564, 9.300e-4
-1.563, 9.156e-4
-1.562, 9.024e-4
-1.561, 8.860e-4
-1.560, 8.719e-4
-1.559, 8.551e-4
-1.558, 8.421e-4
-1.557, 8.283e-4
-1.556, 8.133e-4
-1.555, 8.007e-4
-1.554, 7.855e-4
-1.553, 7.721e-4
-1.552, 7.578e-4
-1.551, 7.482e-4
-1.550, 7.358e-4
-1.549, 7.240e-4
-1.548, 7.111e-4
-1.547, 6.994e-4
-1.546, 6.861e-4
-1.545, 6.753e-4
-1.544, 6.661e-4
-1.543, 6.532e-4
-1.542, 6.413e-4
-1.541, 6.317e-4
-1.540, 6.205e-4
-1.539, 6.100e-4
-1.538, 6.001e-4
-1.537, 5.914e-4
-1.536, 5.803e-4
-1.535, 5.706e-4
-1.534, 5.604e-4
-1.533, 5.515e-4
-1.532, 5.417e-4
-1.531, 5.334e-4
-1.530, 5.239e-4
-1.529, 5.153e-4
-1.528, 5.062e-4
-1.527, 4.981e-4
-1.526, 4.898e-4
-1.525, 4.819e-4
-1.524, 4.730e-4
-1.523, 4.660e-4
-1.522, 4.579e-4
-1.521, 4.502e-4
-1.520, 4.429e-4
-1.519, 4.359e-4
-1.518, 4.283e-4
-1.517, 4.220e-4
-1.516, 4.145e-4
-1.515, 4.089e-4
-1.514, 4.016e-4
-1.513, 3.949e-4
-1.512, 3.878e-4
-1.511, 3.822e-4
-1.510, 3.760e-4
-1.509, 3.705e-4
-1.508, 3.648e-4
-1.507, 3.586e-4
-1.506, 3.537e-4
-1.505, 3.481e-4
-1.504, 3.434e-4
-1.503, 3.378e-4
-1.502, 3.327e-4
-1.501, 3.281e-4
-1.500, 3.226e-4
-1.499, 3.179e-4
-1.498, 3.129e-4
-1.497, 3.079e-4
-1.496, 3.038e-4
-1.495, 2.993e-4
-1.494, 2.954e-4
-1.493, 2.910e-4
-1.492, 2.868e-4
-1.491, 2.827e-4
-1.490, 2.788e-4
-1.489, 2.780e-4
-1.488, 2.727e-4
-1.487, 2.696e-4
-1.486, 2.656e-4
-1.485, 2.613e-4
-1.484, 2.580e-4
-1.483, 2.542e-4
-1.482, 2.506e-4
-1.481, 2.472e-4
-1.480, 2.441e-4
-1.479, 2.408e-4
-1.478, 2.376e-4
-1.477, 2.351e-4
-1.476, 2.323e-4
-1.475, 2.296e-4
-1.474, 2.269e-4
-1.473, 2.243e-4
-1.472, 2.217e-4
-1.471, 2.189e-4
-1.470, 2.164e-4
-1.469, 2.139e-4
-1.468, 2.114e-4
-1.467, 2.087e-4
-1.466, 2.066e-4
-1.465, 2.041e-4
-1.464, 2.019e-4
-1.463, 1.994e-4
-1.462, 1.969e-4
-1.461, 1.946e-4
-1.460, 1.922e-4
-1.459, 1.910e-4
-1.458, 1.888e-4
-1.457, 1.863e-4
-1.456, 1.841e-4
-1.455, 1.818e-4
-1.454, 1.794e-4
-1.453, 1.768e-4
-1.452, 1.748e-4
-1.451, 1.724e-4
-1.450, 1.699e-4
-1.449, 1.674e-4
-1.448, 1.647e-4
-1.447, 1.617e-4
-1.446, 1.584e-4
-1.445, 1.548e-4
-1.444, 1.515e-4
-1.443, 1.478e-4
-1.442, 1.449e-4
-1.441, 1.415e-4
-1.440, 1.383e-4
-1.439, 1.353e-4
-1.438, 1.323e-4
-1.437, 1.296e-4
-1.436, 1.271e-4
-1.435, 1.243e-4
-1.434, 1.220e-4
-1.433, 1.194e-4
-1.432, 1.169e-4
-1.431, 1.144e-4
-1.430, 1.120e-4
-1.429, 1.099e-4
-1.428, 1.075e-4
-1.427, 1.051e-4
-1.426, 1.030e-4
-1.425, 1.008e-4
-1.424, 9.887e-5
-1.423, 9.661e-5
-1.422, 9.443e-5
-1.421, 9.242e-5
-1.420, 9.034e-5
-1.419, 8.826e-5
-1.418, 8.632e-5
-1.417, 8.428e-5
-1.416, 8.247e-5
-1.415, 8.051e-5
-1.414, 7.862e-5
-1.413, 7.680e-5
-1.412, 7.515e-5
-1.411, 7.353e-5
-1.410, 7.175e-5
-1.409, 7.020e-5
-1.408, 6.849e-5
-1.407, 6.676e-5
-1.406, 6.523e-5
-1.405, 6.347e-5
-1.404, 6.208e-5
-1.403, 6.037e-5
-1.402, 5.878e-5
-1.401, 5.732e-5
-1.400, 5.574e-5
-1.399, 5.422e-5
-1.398, 5.268e-5
-1.397, 5.133e-5
-1.396, 4.979e-5
-1.395, 4.848e-5
-1.394, 4.722e-5
-1.393, 4.587e-5
-1.392, 4.443e-5
-1.391, 4.331e-5
-1.390, 4.196e-5
-1.389, 4.071e-5
-1.388, 3.928e-5
-1.387, 3.800e-5
-1.386, 3.669e-5
-1.385, 3.529e-5
-1.384, 3.429e-5
-1.383, 3.293e-5
-1.382, 3.147e-5
-1.381, 3.040e-5
-1.380, 2.928e-5
-1.379, 2.817e-5
-1.378, 2.723e-5
-1.377, 2.605e-5
-1.376, 2.510e-5
-1.375, 2.403e-5
-1.374, 2.297e-5
-1.373, 2.209e-5
-1.372, 2.105e-5
-1.371, 2.010e-5
-1.370, 1.909e-5
-1.369, 1.826e-5
-1.368, 1.735e-5
-1.367, 1.639e-5
-1.366, 1.549e-5
-1.365, 1.475e-5
-1.364, 1.377e-5
-1.363, 1.296e-5
-1.362, 1.211e-5
-1.361, 1.137e-5
-1.360, 1.054e-5
-1.359, 9.726e-6
-1.358, 8.966e-6
-1.357, 8.147e-6
-1.356, 7.230e-6
-1.355, 6.529e-6
-1.354, 5.789e-6
-1.353, 5.069e-6
-1.352, 4.408e-6
-1.351, 3.668e-6
-1.350, 3.086e-6
-1.349, 2.386e-6
-1.348, 1.744e-6
-1.347, 1.014e-6
-1.346, 4.913e-7
-1.345, -1.894e-7
-1.344, -7.419e-7
-1.343, -1.373e-6
-1.342, -1.867e-6
-1.341, -2.360e-6
-1.340, -2.952e-6
-1.339, -3.554e-6
-1.338, -4.047e-6
-1.337, -4.659e-6
-1.336, -5.103e-6
-1.335, -5.487e-6
-1.334, -6.079e-6
-1.333, -6.622e-6
-1.332, -7.135e-6
-1.331, -7.727e-6
-1.330, -8.092e-6
-1.329, -8.556e-6
-1.328, -9.029e-6
-1.327, -9.463e-6
-1.326, -1.001e-5
-1.325, -1.040e-5
-1.324, -1.082e-5
-1.323, -1.123e-5
-1.322, -1.164e-5
-1.321, -1.213e-5
-1.320, -1.229e-5
-1.319, -1.287e-5
-1.318, -1.340e-5
-1.317, -1.370e-5
-1.316, -1.407e-5
-1.315, -1.449e-5
-1.314, -1.488e-5
-1.313, -1.534e-5
-1.312, -1.566e-5
-1.311, -1.592e-5
-1.310, -1.645e-5
-1.309, -1.673e-5
-1.308, -1.704e-5
-1.307, -1.750e-5
-1.306, -1.782e-5
-1.305, -1.826e-5
-1.304, -1.864e-5
-1.303, -1.906e-5
-1.302, -1.960e-5
-1.301, -1.985e-5
-1.300, -2.012e-5
-1.299, -2.064e-5
-1.298, -2.105e-5
-1.297, -2.141e-5
-1.296, -2.173e-5
-1.295, -2.194e-5
-1.294, -2.240e-5
-1.293, -2.283e-5
-1.292, -2.316e-5
-1.291, -2.358e-5
-1.290, -2.385e-5
-1.289, -2.428e-5
-1.288, -2.454e-5
-1.287, -2.491e-5
-1.286, -2.517e-5
-1.285, -2.545e-5
-1.284, -2.567e-5
-1.283, -2.628e-5
-1.282, -2.642e-5
-1.281, -2.670e-5
-1.280, -2.736e-5
-1.279, -2.752e-5
-1.278, -2.795e-5
-1.277, -2.816e-5
-1.276, -2.848e-5
-1.275, -2.882e-5
-1.274, -2.913e-5
-1.273, -2.959e-5
-1.272, -2.978e-5
-1.271, -3.006e-5
-1.270, -3.049e-5
-1.269, -3.061e-5
-1.268, -3.107e-5
-1.267, -3.147e-5
-1.266, -3.180e-5
-1.265, -3.214e-5
-1.264, -3.240e-5
-1.263, -3.279e-5
-1.262, -3.326e-5
-1.261, -3.338e-5
-1.260, -3.383e-5
-1.259, -3.418e-5
-1.258, -3.449e-5
-1.257, -3.488e-5
-1.256, -3.518e-5
-1.255, -3.556e-5
-1.254, -3.601e-5
-1.253, -3.628e-5
-1.252, -3.682e-5
-1.251, -3.711e-5
-1.250, -3.748e-5
-1.249, -3.783e-5
-1.248, -3.843e-5
-1.247, -3.859e-5
-1.246, -3.905e-5
-1.245, -3.939e-5
-1.244, -3.975e-5
-1.243, -4.026e-5
-1.242, -4.059e-5
-1.241, -4.108e-5
-1.240, -4.136e-5
-1.239, -4.180e-5
-1.238, -4.222e-5
-1.237, -4.254e-5
-1.236, -4.280e-5
-1.235, -4.322e-5
-1.234, -4.352e-5
-1.233, -4.404e-5
-1.232, -4.458e-5
-1.231, -4.471e-5
-1.230, -4.533e-5
-1.229, -4.592e-5
-1.228, -4.611e-5
-1.227, -4.654e-5
-1.226, -4.664e-5
-1.225, -4.713e-5
-1.224, -4.734e-5
-1.223, -4.762e-5
-1.222, -4.801e-5
-1.221, -4.817e-5
-1.220, -4.860e-5
-1.219, -4.903e-5
-1.218, -4.926e-5
-1.217, -4.978e-5
-1.216, -5.006e-5
-1.215, -5.040e-5
-1.214, -5.081e-5
-1.213, -5.112e-5
-1.212, -5.168e-5
-1.211, -5.196e-5
-1.210, -5.232e-5
-1.209, -5.290e-5
-1.208, -5.324e-5
-1.207, -5.354e-5
-1.206, -5.397e-5
-1.205, -5.424e-5
-1.204, -5.471e-5
-1.203, -5.530e-5
-1.202, -5.550e-5
-1.201, -5.587e-5
-1.200, -5.598e-5
-1.199, -5.653e-5
-1.198, -5.677e-5
-1.197, -5.716e-5
-1.196, -5.743e-5
-1.195, -5.779e-5
-1.194, -5.814e-5
-1.193, -5.855e-5
-1.192, -5.886e-5
-1.191, -5.916e-5
-1.190, -5.954e-5
-1.189, -5.979e-5
-1.188, -6.013e-5
-1.187, -6.049e-5
-1.186, -6.069e-5
-1.185, -6.114e-5
-1.184, -6.139e-5
-1.183, -6.177e-5
-1.182, -6.208e-5
-1.181, -6.229e-5
-1.180, -6.262e-5
-1.179, -6.290e-5
-1.178, -6.339e-5
-1.177, -6.371e-5
-1.176, -6.386e-5
-1.175, -6.418e-5
-1.174, -6.446e-5
-1.173, -6.489e-5
-1.172, -6.512e-5
-1.171, -6.560e-5
-1.170, -6.565e-5
-1.169, -6.594e-5
-1.168, -6.648e-5
-1.167, -6.658e-5
-1.166, -6.705e-5
-1.165, -6.713e-5
-1.164, -6.769e-5
-1.163, -6.825e-5
-1.162, -6.846e-5
-1.161, -6.883e-5
-1.160, -6.896e-5
-1.159, -6.935e-5
-1.158, -6.981e-5
-1.157, -6.983e-5
-1.156, -7.027e-5
-1.155, -7.047e-5
-1.154, -7.080e-5
-1.153, -7.120e-5
-1.152, -7.148e-5
-1.151, -7.194e-5
-1.150, -7.220e-5
-1.149, -7.250e-5
-1.148, -7.288e-5
-1.147, -7.318e-5
-1.146, -7.344e-5
-1.145, -7.393e-5
-1.144, -7.414e-5
-1.143, -7.453e-5
-1.142, -7.474e-5
-1.141, -7.504e-5
-1.140, -7.531e-5
-1.139, -7.567e-5
-1.138, -7.596e-5
-1.137, -7.628e-5
-1.136, -7.639e-5
-1.135, -7.689e-5
-1.134, -7.713e-5
-1.133, -7.744e-5
-1.132, -7.763e-5
-1.131, -7.795e-5
-1.130, -7.818e-5
-1.129, -7.848e-5
-1.128, -7.878e-5
-1.127, -7.900e-5
-1.126, -7.939e-5
-1.125, -7.954e-5
-1.124, -7.992e-5
-1.123, -8.031e-5
-1.122, -8.054e-5
-1.121, -8.087e-5
-1.120, -8.105e-5
-1.119, -8.139e-5
-1.118, -8.177e-5
-1.117, -8.184e-5
-1.116, -8.224e-5
-1.115, -8.241e-5
-1.114, -8.280e-5
-1.113, -8.318e-5
-1.112, -8.321e-5
-1.111, -8.362e-5
-1.110, -8.377e-5
-1.109, -8.406e-5
-1.108, -8.451e-5
-1.107, -8.490e-5
-1.106, -8.513e-5
-1.105, -8.541e-5
-1.104, -8.566e-5
-1.103, -8.601e-5
-1.102, -8.619e-5
-1.101, -8.650e-5
-1.100, -8.681e-5
-1.099, -8.732e-5
-1.098, -8.752e-5
-1.097, -8.797e-5
-1.096, -8.803e-5
-1.095, -8.831e-5
-1.094, -8.883e-5
-1.093, -8.903e-5
-1.092, -8.927e-5
-1.091, -8.957e-5
-1.090, -8.977e-5
-1.089, -9.017e-5
-1.088, -9.044e-5
-1.087, -9.076e-5
-1.086, -9.099e-5
-1.085, -9.104e-5
-1.084, -9.144e-5
-1.083, -9.188e-5
-1.082, -9.198e-5
-1.081, -9.239e-5
-1.080, -9.243e-5
-1.079, -9.285e-5
-1.078, -9.317e-5
-1.077, -9.334e-5
-1.076, -9.376e-5
-1.075, -9.392e-5
-1.074, -9.439e-5
-1.073, -9.461e-5
-1.072, -9.472e-5
-1.071, -9.496e-5
-1.070, -9.531e-5
-1.069, -9.560e-5
-1.068, -9.585e-5
-1.067, -9.625e-5
-1.066, -9.643e-5
-1.065, -9.677e-5
-1.064, -9.706e-5
-1.063, -9.752e-5
-1.062, -9.792e-5
-1.061, -9.812e-5
-1.060, -9.841e-5
-1.059, -9.878e-5
-1.058, -9.900e-5
-1.057, -9.935e-5
-1.056, -9.963e-5
-1.055, -9.985e-5
-1.054, -1.003e-4
-1.053, -1.005e-4
-1.052, -1.009e-4
-1.051, -1.012e-4
-1.050, -1.015e-4
-1.049, -1.019e-4
-1.048, -1.021e-4
-1.047, -1.025e-4
-1.046, -1.028e-4
-1.045, -1.031e-4
-1.044, -1.035e-4
-1.043, -1.042e-4
-1.042, -1.042e-4
-1.041, -1.048e-4
-1.040, -1.050e-4
-1.039, -1.056e-4
-1.038, -1.059e-4
-1.037, -1.061e-4
-1.036, -1.066e-4
-1.035, -1.070e-4
-1.034, -1.076e-4
-1.033, -1.081e-4
-1.032, -1.085e-4
-1.031, -1.089e-4
-1.030, -1.093e-4
-1.029, -1.098e-4
-1.028, -1.101e-4
-1.027, -1.107e-4
-1.026, -1.111e-4
-1.025, -1.114e-4
-1.024, -1.120e-4
-1.023, -1.125e-4
-1.022, -1.129e-4
-1.021, -1.132e-4
-1.020, -1.137e-4
-1.019, -1.142e-4
-1.018, -1.145e-4
-1.017, -1.150e-4
-1.016, -1.153e-4
-1.015, -1.156e-4
-1.014, -1.162e-4
-1.013, -1.167e-4
-1.012, -1.173e-4
-1.011, -1.178e-4
-1.010, -1.181e-4
-1.009, -1.185e-4
-1.008, -1.188e-4
-1.007, -1.194e-4
-1.006, -1.198e-4
-1.005, -1.202e-4
-1.004, -1.207e-4
-1.003, -1.211e-4
-1.002, -1.218e-4
-1.001, -1.224e-4
