Aug. 17, 2024   17:48:12
Cyclic Voltammetry
File: c:/users/guazh/data/20240813_batch_94_500/2024-08-15-exp115\exp115-2024-08-17t17_30_02-h2koh\exp115_cv_sr_200mvs_efin_-1700mv.bin
Data Source:  Experiment
Instrument Model:  CHI760E
Header: CV ran at 200 mVs
Note: 

Init E (V) = -1
High E (V) = -1
Low E (V) = -1.7
Final E (V) = -1
Init P/N = N
Scan Rate (V/s) = 0.2
Segment = 3
Sample Interval (V) = 0.001
Quiet Time (sec) = 2
Sensitivity (A/V) = 0.01
Comp R (ohm) = 1.7

Results:

Channel 1:
Segment 1:

Segment 2:

Segment 3:

Potential/V, Current/A

-1.000, -8.684e-6
-1.001, 3.678e-6
-1.002, 8.877e-6
-1.003, 1.273e-5
-1.004, 1.623e-5
-1.005, 1.844e-5
-1.006, 2.124e-5
-1.007, 2.388e-5
-1.008, 2.528e-5
-1.009, 2.751e-5
-1.010, 2.951e-5
-1.011, 3.084e-5
-1.012, 3.265e-5
-1.013, 3.412e-5
-1.014, 3.598e-5
-1.015, 3.687e-5
-1.016, 3.835e-5
-1.017, 4.019e-5
-1.018, 4.117e-5
-1.019, 4.246e-5
-1.020, 4.407e-5
-1.021, 4.530e-5
-1.022, 4.618e-5
-1.023, 4.763e-5
-1.024, 4.890e-5
-1.025, 4.932e-5
-1.026, 5.068e-5
-1.027, 5.142e-5
-1.028, 5.208e-5
-1.029, 5.284e-5
-1.030, 5.415e-5
-1.031, 5.481e-5
-1.032, 5.559e-5
-1.033, 5.686e-5
-1.034, 5.787e-5
-1.035, 5.829e-5
-1.036, 5.969e-5
-1.037, 6.089e-5
-1.038, 6.153e-5
-1.039, 6.282e-5
-1.040, 6.430e-5
-1.041, 6.559e-5
-1.042, 6.639e-5
-1.043, 6.800e-5
-1.044, 6.943e-5
-1.045, 7.019e-5
-1.046, 7.167e-5
-1.047, 7.289e-5
-1.048, 7.389e-5
-1.049, 7.516e-5
-1.050, 7.658e-5
-1.051, 7.772e-5
-1.052, 7.872e-5
-1.053, 7.986e-5
-1.054, 8.106e-5
-1.055, 8.193e-5
-1.056, 8.317e-5
-1.057, 8.454e-5
-1.058, 8.522e-5
-1.059, 8.630e-5
-1.060, 8.774e-5
-1.061, 8.864e-5
-1.062, 8.970e-5
-1.063, 9.129e-5
-1.064, 9.223e-5
-1.065, 9.264e-5
-1.066, 9.425e-5
-1.067, 9.548e-5
-1.068, 9.630e-5
-1.069, 9.750e-5
-1.070, 9.897e-5
-1.071, 9.997e-5
-1.072, 1.005e-4
-1.073, 1.019e-4
-1.074, 1.031e-4
-1.075, 1.040e-4
-1.076, 1.052e-4
-1.077, 1.064e-4
-1.078, 1.075e-4
-1.079, 1.082e-4
-1.080, 1.094e-4
-1.081, 1.101e-4
-1.082, 1.110e-4
-1.083, 1.120e-4
-1.084, 1.130e-4
-1.085, 1.134e-4
-1.086, 1.145e-4
-1.087, 1.156e-4
-1.088, 1.157e-4
-1.089, 1.167e-4
-1.090, 1.179e-4
-1.091, 1.183e-4
-1.092, 1.187e-4
-1.093, 1.195e-4
-1.094, 1.200e-4
-1.095, 1.206e-4
-1.096, 1.212e-4
-1.097, 1.219e-4
-1.098, 1.221e-4
-1.099, 1.224e-4
-1.100, 1.234e-4
-1.101, 1.235e-4
-1.102, 1.236e-4
-1.103, 1.243e-4
-1.104, 1.251e-4
-1.105, 1.250e-4
-1.106, 1.257e-4
-1.107, 1.260e-4
-1.108, 1.260e-4
-1.109, 1.263e-4
-1.110, 1.272e-4
-1.111, 1.274e-4
-1.112, 1.272e-4
-1.113, 1.279e-4
-1.114, 1.285e-4
-1.115, 1.282e-4
-1.116, 1.287e-4
-1.117, 1.290e-4
-1.118, 1.290e-4
-1.119, 1.294e-4
-1.120, 1.301e-4
-1.121, 1.301e-4
-1.122, 1.301e-4
-1.123, 1.307e-4
-1.124, 1.311e-4
-1.125, 1.307e-4
-1.126, 1.313e-4
-1.127, 1.319e-4
-1.128, 1.317e-4
-1.129, 1.316e-4
-1.130, 1.323e-4
-1.131, 1.321e-4
-1.132, 1.325e-4
-1.133, 1.329e-4
-1.134, 1.331e-4
-1.135, 1.332e-4
-1.136, 1.332e-4
-1.137, 1.334e-4
-1.138, 1.336e-4
-1.139, 1.337e-4
-1.140, 1.346e-4
-1.141, 1.342e-4
-1.142, 1.345e-4
-1.143, 1.348e-4
-1.144, 1.349e-4
-1.145, 1.347e-4
-1.146, 1.351e-4
-1.147, 1.354e-4
-1.148, 1.355e-4
-1.149, 1.356e-4
-1.150, 1.360e-4
-1.151, 1.362e-4
-1.152, 1.359e-4
-1.153, 1.364e-4
-1.154, 1.365e-4
-1.155, 1.363e-4
-1.156, 1.367e-4
-1.157, 1.370e-4
-1.158, 1.370e-4
-1.159, 1.371e-4
-1.160, 1.376e-4
-1.161, 1.374e-4
-1.162, 1.374e-4
-1.163, 1.375e-4
-1.164, 1.380e-4
-1.165, 1.378e-4
-1.166, 1.382e-4
-1.167, 1.388e-4
-1.168, 1.383e-4
-1.169, 1.385e-4
-1.170, 1.391e-4
-1.171, 1.387e-4
-1.172, 1.390e-4
-1.173, 1.388e-4
-1.174, 1.392e-4
-1.175, 1.392e-4
-1.176, 1.394e-4
-1.177, 1.400e-4
-1.178, 1.397e-4
-1.179, 1.399e-4
-1.180, 1.403e-4
-1.181, 1.400e-4
-1.182, 1.399e-4
-1.183, 1.405e-4
-1.184, 1.408e-4
-1.185, 1.405e-4
-1.186, 1.408e-4
-1.187, 1.410e-4
-1.188, 1.408e-4
-1.189, 1.409e-4
-1.190, 1.413e-4
-1.191, 1.416e-4
-1.192, 1.415e-4
-1.193, 1.420e-4
-1.194, 1.421e-4
-1.195, 1.418e-4
-1.196, 1.421e-4
-1.197, 1.423e-4
-1.198, 1.422e-4
-1.199, 1.425e-4
-1.200, 1.427e-4
-1.201, 1.427e-4
-1.202, 1.429e-4
-1.203, 1.431e-4
-1.204, 1.436e-4
-1.205, 1.432e-4
-1.206, 1.434e-4
-1.207, 1.439e-4
-1.208, 1.437e-4
-1.209, 1.441e-4
-1.210, 1.447e-4
-1.211, 1.443e-4
-1.212, 1.445e-4
-1.213, 1.446e-4
-1.214, 1.448e-4
-1.215, 1.448e-4
-1.216, 1.448e-4
-1.217, 1.455e-4
-1.218, 1.454e-4
-1.219, 1.453e-4
-1.220, 1.459e-4
-1.221, 1.460e-4
-1.222, 1.459e-4
-1.223, 1.466e-4
-1.224, 1.468e-4
-1.225, 1.465e-4
-1.226, 1.472e-4
-1.227, 1.472e-4
-1.228, 1.473e-4
-1.229, 1.482e-4
-1.230, 1.486e-4
-1.231, 1.485e-4
-1.232, 1.484e-4
-1.233, 1.489e-4
-1.234, 1.494e-4
-1.235, 1.492e-4
-1.236, 1.493e-4
-1.237, 1.498e-4
-1.238, 1.497e-4
-1.239, 1.502e-4
-1.240, 1.507e-4
-1.241, 1.508e-4
-1.242, 1.511e-4
-1.243, 1.513e-4
-1.244, 1.519e-4
-1.245, 1.515e-4
-1.246, 1.519e-4
-1.247, 1.528e-4
-1.248, 1.525e-4
-1.249, 1.528e-4
-1.250, 1.537e-4
-1.251, 1.536e-4
-1.252, 1.540e-4
-1.253, 1.543e-4
-1.254, 1.548e-4
-1.255, 1.546e-4
-1.256, 1.550e-4
-1.257, 1.561e-4
-1.258, 1.559e-4
-1.259, 1.561e-4
-1.260, 1.570e-4
-1.261, 1.571e-4
-1.262, 1.572e-4
-1.263, 1.581e-4
-1.264, 1.581e-4
-1.265, 1.584e-4
-1.266, 1.588e-4
-1.267, 1.596e-4
-1.268, 1.597e-4
-1.269, 1.601e-4
-1.270, 1.606e-4
-1.271, 1.609e-4
-1.272, 1.609e-4
-1.273, 1.618e-4
-1.274, 1.624e-4
-1.275, 1.626e-4
-1.276, 1.633e-4
-1.277, 1.641e-4
-1.278, 1.643e-4
-1.279, 1.649e-4
-1.280, 1.660e-4
-1.281, 1.664e-4
-1.282, 1.664e-4
-1.283, 1.673e-4
-1.284, 1.678e-4
-1.285, 1.677e-4
-1.286, 1.685e-4
-1.287, 1.693e-4
-1.288, 1.692e-4
-1.289, 1.701e-4
-1.290, 1.711e-4
-1.291, 1.712e-4
-1.292, 1.717e-4
-1.293, 1.726e-4
-1.294, 1.731e-4
-1.295, 1.732e-4
-1.296, 1.743e-4
-1.297, 1.750e-4
-1.298, 1.753e-4
-1.299, 1.761e-4
-1.300, 1.768e-4
-1.301, 1.775e-4
-1.302, 1.777e-4
-1.303, 1.786e-4
-1.304, 1.796e-4
-1.305, 1.800e-4
-1.306, 1.809e-4
-1.307, 1.822e-4
-1.308, 1.822e-4
-1.309, 1.833e-4
-1.310, 1.844e-4
-1.311, 1.846e-4
-1.312, 1.850e-4
-1.313, 1.861e-4
-1.314, 1.872e-4
-1.315, 1.875e-4
-1.316, 1.887e-4
-1.317, 1.897e-4
-1.318, 1.901e-4
-1.319, 1.913e-4
-1.320, 1.920e-4
-1.321, 1.927e-4
-1.322, 1.937e-4
-1.323, 1.947e-4
-1.324, 1.958e-4
-1.325, 1.967e-4
-1.326, 1.976e-4
-1.327, 1.988e-4
-1.328, 1.991e-4
-1.329, 2.000e-4
-1.330, 2.015e-4
-1.331, 2.021e-4
-1.332, 2.034e-4
-1.333, 2.045e-4
-1.334, 2.057e-4
-1.335, 2.062e-4
-1.336, 2.074e-4
-1.337, 2.087e-4
-1.338, 2.095e-4
-1.339, 2.104e-4
-1.340, 2.123e-4
-1.341, 2.127e-4
-1.342, 2.138e-4
-1.343, 2.155e-4
-1.344, 2.166e-4
-1.345, 2.173e-4
-1.346, 2.186e-4
-1.347, 2.199e-4
-1.348, 2.209e-4
-1.349, 2.221e-4
-1.350, 2.237e-4
-1.351, 2.252e-4
-1.352, 2.262e-4
-1.353, 2.275e-4
-1.354, 2.291e-4
-1.355, 2.298e-4
-1.356, 2.313e-4
-1.357, 2.325e-4
-1.358, 2.338e-4
-1.359, 2.352e-4
-1.360, 2.368e-4
-1.361, 2.382e-4
-1.362, 2.396e-4
-1.363, 2.413e-4
-1.364, 2.430e-4
-1.365, 2.438e-4
-1.366, 2.455e-4
-1.367, 2.472e-4
-1.368, 2.480e-4
-1.369, 2.498e-4
-1.370, 2.520e-4
-1.371, 2.530e-4
-1.372, 2.548e-4
-1.373, 2.562e-4
-1.374, 2.579e-4
-1.375, 2.595e-4
-1.376, 2.616e-4
-1.377, 2.631e-4
-1.378, 2.639e-4
-1.379, 2.658e-4
-1.380, 2.680e-4
-1.381, 2.692e-4
-1.382, 2.718e-4
-1.383, 2.734e-4
-1.384, 2.753e-4
-1.385, 2.772e-4
-1.386, 2.790e-4
-1.387, 2.815e-4
-1.388, 2.826e-4
-1.389, 2.848e-4
-1.390, 2.870e-4
-1.391, 2.886e-4
-1.392, 2.904e-4
-1.393, 2.926e-4
-1.394, 2.946e-4
-1.395, 2.964e-4
-1.396, 2.985e-4
-1.397, 3.009e-4
-1.398, 3.028e-4
-1.399, 3.051e-4
-1.400, 3.076e-4
-1.401, 3.091e-4
-1.402, 3.114e-4
-1.403, 3.132e-4
-1.404, 3.155e-4
-1.405, 3.169e-4
-1.406, 3.197e-4
-1.407, 3.228e-4
-1.408, 3.245e-4
-1.409, 3.270e-4
-1.410, 3.296e-4
-1.411, 3.314e-4
-1.412, 3.339e-4
-1.413, 3.360e-4
-1.414, 3.386e-4
-1.415, 3.412e-4
-1.416, 3.440e-4
-1.417, 3.469e-4
-1.418, 3.490e-4
-1.419, 3.516e-4
-1.420, 3.544e-4
-1.421, 3.565e-4
-1.422, 3.593e-4
-1.423, 3.625e-4
-1.424, 3.654e-4
-1.425, 3.677e-4
-1.426, 3.707e-4
-1.427, 3.737e-4
-1.428, 3.761e-4
-1.429, 3.788e-4
-1.430, 3.817e-4
-1.431, 3.847e-4
-1.432, 3.873e-4
-1.433, 3.909e-4
-1.434, 3.941e-4
-1.435, 3.965e-4
-1.436, 3.998e-4
-1.437, 4.029e-4
-1.438, 4.051e-4
-1.439, 4.086e-4
-1.440, 4.121e-4
-1.441, 4.149e-4
-1.442, 4.186e-4
-1.443, 4.217e-4
-1.444, 4.252e-4
-1.445, 4.276e-4
-1.446, 4.314e-4
-1.447, 4.348e-4
-1.448, 4.373e-4
-1.449, 4.410e-4
-1.450, 4.451e-4
-1.451, 4.483e-4
-1.452, 4.521e-4
-1.453, 4.560e-4
-1.454, 4.597e-4
-1.455, 4.628e-4
-1.456, 4.668e-4
-1.457, 4.704e-4
-1.458, 4.739e-4
-1.459, 4.774e-4
-1.460, 4.821e-4
-1.461, 4.852e-4
-1.462, 4.896e-4
-1.463, 4.936e-4
-1.464, 4.974e-4
-1.465, 5.009e-4
-1.466, 5.049e-4
-1.467, 5.089e-4
-1.468, 5.127e-4
-1.469, 5.172e-4
-1.470, 5.217e-4
-1.471, 5.256e-4
-1.472, 5.299e-4
-1.473, 5.346e-4
-1.474, 5.385e-4
-1.475, 5.421e-4
-1.476, 5.470e-4
-1.477, 5.505e-4
-1.478, 5.547e-4
-1.479, 5.596e-4
-1.480, 5.645e-4
-1.481, 5.684e-4
-1.482, 5.732e-4
-1.483, 5.779e-4
-1.484, 5.822e-4
-1.485, 5.865e-4
-1.486, 5.912e-4
-1.487, 5.955e-4
-1.488, 5.997e-4
-1.489, 6.047e-4
-1.490, 6.101e-4
-1.491, 6.140e-4
-1.492, 6.196e-4
-1.493, 6.245e-4
-1.494, 6.288e-4
-1.495, 6.333e-4
-1.496, 6.383e-4
-1.497, 6.429e-4
-1.498, 6.478e-4
-1.499, 6.532e-4
-1.500, 6.589e-4
-1.501, 6.635e-4
-1.502, 6.692e-4
-1.503, 6.742e-4
-1.504, 6.788e-4
-1.505, 6.839e-4
-1.506, 6.889e-4
-1.507, 6.941e-4
-1.508, 6.997e-4
-1.509, 7.048e-4
-1.510, 7.110e-4
-1.511, 7.166e-4
-1.512, 7.218e-4
-1.513, 7.267e-4
-1.514, 7.324e-4
-1.515, 7.374e-4
-1.516, 7.431e-4
-1.517, 7.488e-4
-1.518, 7.549e-4
-1.519, 7.616e-4
-1.520, 7.681e-4
-1.521, 7.737e-4
-1.522, 7.803e-4
-1.523, 7.865e-4
-1.524, 7.928e-4
-1.525, 7.986e-4
-1.526, 8.057e-4
-1.527, 8.131e-4
-1.528, 8.201e-4
-1.529, 8.273e-4
-1.530, 8.351e-4
-1.531, 8.412e-4
-1.532, 8.479e-4
-1.533, 8.554e-4
-1.534, 8.626e-4
-1.535, 8.697e-4
-1.536, 8.784e-4
-1.537, 8.861e-4
-1.538, 8.947e-4
-1.539, 9.029e-4
-1.540, 9.113e-4
-1.541, 9.189e-4
-1.542, 9.270e-4
-1.543, 9.357e-4
-1.544, 9.443e-4
-1.545, 9.532e-4
-1.546, 9.632e-4
-1.547, 9.727e-4
-1.548, 9.811e-4
-1.549, 9.900e-4
-1.550, 1.000e-3
-1.551, 1.010e-3
-1.552, 1.020e-3
-1.553, 1.030e-3
-1.554, 1.041e-3
-1.555, 1.051e-3
-1.556, 1.062e-3
-1.557, 1.073e-3
-1.558, 1.084e-3
-1.559, 1.096e-3
-1.560, 1.106e-3
-1.561, 1.116e-3
-1.562, 1.128e-3
-1.563, 1.139e-3
-1.564, 1.153e-3
-1.565, 1.165e-3
-1.566, 1.178e-3
-1.567, 1.190e-3
-1.568, 1.201e-3
-1.569, 1.212e-3
-1.570, 1.225e-3
-1.571, 1.237e-3
-1.572, 1.251e-3
-1.573, 1.265e-3
-1.574, 1.278e-3
-1.575, 1.290e-3
-1.576, 1.303e-3
-1.577, 1.315e-3
-1.578, 1.327e-3
-1.579, 1.343e-3
-1.580, 1.358e-3
-1.581, 1.371e-3
-1.582, 1.385e-3
-1.583, 1.400e-3
-1.584, 1.414e-3
-1.585, 1.429e-3
-1.586, 1.445e-3
-1.587, 1.461e-3
-1.588, 1.478e-3
-1.589, 1.494e-3
-1.590, 1.510e-3
-1.591, 1.526e-3
-1.592, 1.542e-3
-1.593, 1.560e-3
-1.594, 1.578e-3
-1.595, 1.596e-3
-1.596, 1.617e-3
-1.597, 1.635e-3
-1.598, 1.653e-3
-1.599, 1.671e-3
-1.600, 1.690e-3
-1.601, 1.708e-3
-1.602, 1.729e-3
-1.603, 1.751e-3
-1.604, 1.772e-3
-1.605, 1.793e-3
-1.606, 1.813e-3
-1.607, 1.833e-3
-1.608, 1.852e-3
-1.609, 1.873e-3
-1.610, 1.893e-3
-1.611, 1.915e-3
-1.612, 1.938e-3
-1.613, 1.964e-3
-1.614, 1.988e-3
-1.615, 2.011e-3
-1.616, 2.037e-3
-1.617, 2.061e-3
-1.618, 2.085e-3
-1.619, 2.109e-3
-1.620, 2.137e-3
-1.621, 2.164e-3
-1.622, 2.192e-3
-1.623, 2.219e-3
-1.624, 2.247e-3
-1.625, 2.276e-3
-1.626, 2.304e-3
-1.627, 2.333e-3
-1.628, 2.363e-3
-1.629, 2.393e-3
-1.630, 2.428e-3
-1.631, 2.459e-3
-1.632, 2.489e-3
-1.633, 2.524e-3
-1.634, 2.557e-3
-1.635, 2.589e-3
-1.636, 2.624e-3
-1.637, 2.656e-3
-1.638, 2.691e-3
-1.639, 2.728e-3
-1.640, 2.767e-3
-1.641, 2.803e-3
-1.642, 2.839e-3
-1.643, 2.877e-3
-1.644, 2.914e-3
-1.645, 2.954e-3
-1.646, 2.997e-3
-1.647, 3.039e-3
-1.648, 3.080e-3
-1.649, 3.125e-3
-1.650, 3.169e-3
-1.651, 3.207e-3
-1.652, 3.247e-3
-1.653, 3.288e-3
-1.654, 3.329e-3
-1.655, 3.369e-3
-1.656, 3.412e-3
-1.657, 3.458e-3
-1.658, 3.504e-3
-1.659, 3.547e-3
-1.660, 3.588e-3
-1.661, 3.628e-3
-1.662, 3.672e-3
-1.663, 3.719e-3
-1.664, 3.764e-3
-1.665, 3.810e-3
-1.666, 3.861e-3
-1.667, 3.909e-3
-1.668, 3.948e-3
-1.669, 3.990e-3
-1.670, 4.038e-3
-1.671, 4.085e-3
-1.672, 4.134e-3
-1.673, 4.185e-3
-1.674, 4.230e-3
-1.675, 4.282e-3
-1.676, 4.328e-3
-1.677, 4.370e-3
-1.678, 4.412e-3
-1.679, 4.455e-3
-1.680, 4.501e-3
-1.681, 4.554e-3
-1.682, 4.607e-3
-1.683, 4.654e-3
-1.684, 4.701e-3
-1.685, 4.752e-3
-1.686, 4.798e-3
-1.687, 4.843e-3
-1.688, 4.887e-3
-1.689, 4.932e-3
-1.690, 4.981e-3
-1.691, 5.032e-3
-1.692, 5.085e-3
-1.693, 5.131e-3
-1.694, 5.184e-3
-1.695, 5.237e-3
-1.696, 5.280e-3
-1.697, 5.323e-3
-1.698, 5.363e-3
-1.699, 5.408e-3
-1.700, 5.399e-3
-1.699, 5.344e-3
-1.698, 5.306e-3
-1.697, 5.266e-3
-1.696, 5.214e-3
-1.695, 5.160e-3
-1.694, 5.112e-3
-1.693, 5.061e-3
-1.692, 5.012e-3
-1.691, 4.968e-3
-1.690, 4.925e-3
-1.689, 4.879e-3
-1.688, 4.837e-3
-1.687, 4.797e-3
-1.686, 4.752e-3
-1.685, 4.706e-3
-1.684, 4.659e-3
-1.683, 4.610e-3
-1.682, 4.564e-3
-1.681, 4.522e-3
-1.680, 4.479e-3
-1.679, 4.433e-3
-1.678, 4.391e-3
-1.677, 4.349e-3
-1.676, 4.306e-3
-1.675, 4.262e-3
-1.674, 4.214e-3
-1.673, 4.167e-3
-1.672, 4.121e-3
-1.671, 4.074e-3
-1.670, 4.034e-3
-1.669, 3.995e-3
-1.668, 3.952e-3
-1.667, 3.907e-3
-1.666, 3.865e-3
-1.665, 3.820e-3
-1.664, 3.776e-3
-1.663, 3.733e-3
-1.662, 3.687e-3
-1.661, 3.647e-3
-1.660, 3.609e-3
-1.659, 3.568e-3
-1.658, 3.528e-3
-1.657, 3.489e-3
-1.656, 3.451e-3
-1.655, 3.409e-3
-1.654, 3.363e-3
-1.653, 3.319e-3
-1.652, 3.279e-3
-1.651, 3.239e-3
-1.650, 3.199e-3
-1.649, 3.163e-3
-1.648, 3.128e-3
-1.647, 3.090e-3
-1.646, 3.052e-3
-1.645, 3.014e-3
-1.644, 2.974e-3
-1.643, 2.935e-3
-1.642, 2.895e-3
-1.641, 2.860e-3
-1.640, 2.827e-3
-1.639, 2.790e-3
-1.638, 2.754e-3
-1.637, 2.718e-3
-1.636, 2.686e-3
-1.635, 2.655e-3
-1.634, 2.618e-3
-1.633, 2.581e-3
-1.632, 2.547e-3
-1.631, 2.509e-3
-1.630, 2.474e-3
-1.629, 2.444e-3
-1.628, 2.414e-3
-1.627, 2.386e-3
-1.626, 2.356e-3
-1.625, 2.323e-3
-1.624, 2.292e-3
-1.623, 2.261e-3
-1.622, 2.228e-3
-1.621, 2.198e-3
-1.620, 2.170e-3
-1.619, 2.140e-3
-1.618, 2.110e-3
-1.617, 2.081e-3
-1.616, 2.052e-3
-1.615, 2.021e-3
-1.614, 1.992e-3
-1.613, 1.964e-3
-1.612, 1.933e-3
-1.611, 1.906e-3
-1.610, 1.880e-3
-1.609, 1.853e-3
-1.608, 1.827e-3
-1.607, 1.800e-3
-1.606, 1.772e-3
-1.605, 1.746e-3
-1.604, 1.718e-3
-1.603, 1.692e-3
-1.602, 1.666e-3
-1.601, 1.641e-3
-1.600, 1.617e-3
-1.599, 1.593e-3
-1.598, 1.568e-3
-1.597, 1.543e-3
-1.596, 1.517e-3
-1.595, 1.491e-3
-1.594, 1.468e-3
-1.593, 1.449e-3
-1.592, 1.422e-3
-1.591, 1.399e-3
-1.590, 1.379e-3
-1.589, 1.355e-3
-1.588, 1.330e-3
-1.587, 1.309e-3
-1.586, 1.287e-3
-1.585, 1.265e-3
-1.584, 1.247e-3
-1.583, 1.228e-3
-1.582, 1.209e-3
-1.581, 1.189e-3
-1.580, 1.169e-3
-1.579, 1.149e-3
-1.578, 1.130e-3
-1.577, 1.109e-3
-1.576, 1.091e-3
-1.575, 1.072e-3
-1.574, 1.054e-3
-1.573, 1.036e-3
-1.572, 1.018e-3
-1.571, 9.986e-4
-1.570, 9.805e-4
-1.569, 9.620e-4
-1.568, 9.443e-4
-1.567, 9.267e-4
-1.566, 9.105e-4
-1.565, 8.944e-4
-1.564, 8.779e-4
-1.563, 8.632e-4
-1.562, 8.469e-4
-1.561, 8.317e-4
-1.560, 8.167e-4
-1.559, 8.005e-4
-1.558, 7.860e-4
-1.557, 7.712e-4
-1.556, 7.571e-4
-1.555, 7.429e-4
-1.554, 7.297e-4
-1.553, 7.167e-4
-1.552, 7.026e-4
-1.551, 6.893e-4
-1.550, 6.764e-4
-1.549, 6.628e-4
-1.548, 6.505e-4
-1.547, 6.386e-4
-1.546, 6.272e-4
-1.545, 6.151e-4
-1.544, 6.037e-4
-1.543, 5.927e-4
-1.542, 5.810e-4
-1.541, 5.700e-4
-1.540, 5.592e-4
-1.539, 5.477e-4
-1.538, 5.370e-4
-1.537, 5.267e-4
-1.536, 5.173e-4
-1.535, 5.071e-4
-1.534, 4.974e-4
-1.533, 4.882e-4
-1.532, 4.783e-4
-1.531, 4.692e-4
-1.530, 4.602e-4
-1.529, 4.507e-4
-1.528, 4.422e-4
-1.527, 4.338e-4
-1.526, 4.257e-4
-1.525, 4.180e-4
-1.524, 4.103e-4
-1.523, 4.026e-4
-1.522, 3.948e-4
-1.521, 3.872e-4
-1.520, 3.800e-4
-1.519, 3.724e-4
-1.518, 3.653e-4
-1.517, 3.588e-4
-1.516, 3.522e-4
-1.515, 3.456e-4
-1.514, 3.397e-4
-1.513, 3.331e-4
-1.512, 3.269e-4
-1.511, 3.210e-4
-1.510, 3.148e-4
-1.509, 3.088e-4
-1.508, 3.034e-4
-1.507, 2.983e-4
-1.506, 2.932e-4
-1.505, 2.876e-4
-1.504, 2.831e-4
-1.503, 2.779e-4
-1.502, 2.727e-4
-1.501, 2.684e-4
-1.500, 2.635e-4
-1.499, 2.587e-4
-1.498, 2.544e-4
-1.497, 2.501e-4
-1.496, 2.463e-4
-1.495, 2.420e-4
-1.494, 2.378e-4
-1.493, 2.344e-4
-1.492, 2.303e-4
-1.491, 2.265e-4
-1.490, 2.232e-4
-1.489, 2.190e-4
-1.488, 2.157e-4
-1.487, 2.122e-4
-1.486, 2.089e-4
-1.485, 2.053e-4
-1.484, 2.022e-4
-1.483, 1.988e-4
-1.482, 1.952e-4
-1.481, 1.921e-4
-1.480, 1.892e-4
-1.479, 1.857e-4
-1.478, 1.826e-4
-1.477, 1.797e-4
-1.476, 1.767e-4
-1.475, 1.739e-4
-1.474, 1.711e-4
-1.473, 1.681e-4
-1.472, 1.647e-4
-1.471, 1.621e-4
-1.470, 1.597e-4
-1.469, 1.568e-4
-1.468, 1.540e-4
-1.467, 1.513e-4
-1.466, 1.488e-4
-1.465, 1.460e-4
-1.464, 1.437e-4
-1.463, 1.413e-4
-1.462, 1.386e-4
-1.461, 1.362e-4
-1.460, 1.338e-4
-1.459, 1.306e-4
-1.458, 1.283e-4
-1.457, 1.257e-4
-1.456, 1.233e-4
-1.455, 1.206e-4
-1.454, 1.179e-4
-1.453, 1.152e-4
-1.452, 1.117e-4
-1.451, 1.079e-4
-1.450, 1.048e-4
-1.449, 1.007e-4
-1.448, 9.702e-5
-1.447, 9.306e-5
-1.446, 8.837e-5
-1.445, 8.405e-5
-1.444, 7.982e-5
-1.443, 7.593e-5
-1.442, 7.175e-5
-1.441, 6.793e-5
-1.440, 6.457e-5
-1.439, 6.073e-5
-1.438, 5.723e-5
-1.437, 5.457e-5
-1.436, 5.118e-5
-1.435, 4.834e-5
-1.434, 4.508e-5
-1.433, 4.245e-5
-1.432, 3.986e-5
-1.431, 3.727e-5
-1.430, 3.534e-5
-1.429, 3.251e-5
-1.428, 3.018e-5
-1.427, 2.827e-5
-1.426, 2.600e-5
-1.425, 2.371e-5
-1.424, 2.199e-5
-1.423, 2.017e-5
-1.422, 1.781e-5
-1.421, 1.618e-5
-1.420, 1.456e-5
-1.419, 1.229e-5
-1.418, 1.082e-5
-1.417, 9.035e-6
-1.416, 7.378e-6
-1.415, 5.671e-6
-1.414, 4.221e-6
-1.413, 3.145e-6
-1.412, 1.231e-6
-1.411, 4.736e-8
-1.410, -9.787e-7
-1.409, -2.981e-6
-1.408, -4.077e-6
-1.407, -5.034e-6
-1.406, -6.780e-6
-1.405, -7.845e-6
-1.404, -8.901e-6
-1.403, -9.799e-6
-1.402, -1.150e-5
-1.401, -1.207e-5
-1.400, -1.290e-5
-1.399, -1.413e-5
-1.398, -1.530e-5
-1.397, -1.597e-5
-1.396, -1.703e-5
-1.395, -1.818e-5
-1.394, -1.887e-5
-1.393, -1.961e-5
-1.392, -2.052e-5
-1.391, -2.142e-5
-1.390, -2.214e-5
-1.389, -2.329e-5
-1.388, -2.391e-5
-1.387, -2.487e-5
-1.386, -2.553e-5
-1.385, -2.673e-5
-1.384, -2.740e-5
-1.383, -2.801e-5
-1.382, -2.947e-5
-1.381, -2.983e-5
-1.380, -3.020e-5
-1.379, -3.164e-5
-1.378, -3.209e-5
-1.377, -3.264e-5
-1.376, -3.349e-5
-1.375, -3.440e-5
-1.374, -3.504e-5
-1.373, -3.558e-5
-1.372, -3.650e-5
-1.371, -3.732e-5
-1.370, -3.773e-5
-1.369, -3.906e-5
-1.368, -3.949e-5
-1.367, -4.009e-5
-1.366, -4.106e-5
-1.365, -4.179e-5
-1.364, -4.249e-5
-1.363, -4.305e-5
-1.362, -4.403e-5
-1.361, -4.455e-5
-1.360, -4.503e-5
-1.359, -4.591e-5
-1.358, -4.658e-5
-1.357, -4.696e-5
-1.356, -4.766e-5
-1.355, -4.848e-5
-1.354, -4.897e-5
-1.353, -4.962e-5
-1.352, -5.040e-5
-1.351, -5.076e-5
-1.350, -5.156e-5
-1.349, -5.224e-5
-1.348, -5.284e-5
-1.347, -5.329e-5
-1.346, -5.396e-5
-1.345, -5.512e-5
-1.344, -5.529e-5
-1.343, -5.592e-5
-1.342, -5.708e-5
-1.341, -5.743e-5
-1.340, -5.793e-5
-1.339, -5.895e-5
-1.338, -5.932e-5
-1.337, -5.951e-5
-1.336, -6.072e-5
-1.335, -6.274e-5
-1.334, -6.311e-5
-1.333, -6.288e-5
-1.332, -6.400e-5
-1.331, -6.447e-5
-1.330, -6.498e-5
-1.329, -6.607e-5
-1.328, -6.644e-5
-1.327, -6.672e-5
-1.326, -6.771e-5
-1.325, -6.823e-5
-1.324, -6.925e-5
-1.323, -6.953e-5
-1.322, -7.085e-5
-1.321, -7.164e-5
-1.320, -7.191e-5
-1.319, -7.300e-5
-1.318, -7.396e-5
-1.317, -7.459e-5
-1.316, -7.561e-5
-1.315, -7.651e-5
-1.314, -7.711e-5
-1.313, -7.816e-5
-1.312, -7.919e-5
-1.311, -7.995e-5
-1.310, -8.059e-5
-1.309, -8.167e-5
-1.308, -8.263e-5
-1.307, -8.303e-5
-1.306, -8.406e-5
-1.305, -8.521e-5
-1.304, -8.563e-5
-1.303, -8.636e-5
-1.302, -8.772e-5
-1.301, -8.820e-5
-1.300, -8.906e-5
-1.299, -9.036e-5
-1.298, -9.116e-5
-1.297, -9.196e-5
-1.296, -9.300e-5
-1.295, -9.446e-5
-1.294, -9.541e-5
-1.293, -9.616e-5
-1.292, -9.780e-5
-1.291, -9.880e-5
-1.290, -9.961e-5
-1.289, -1.014e-4
-1.288, -1.022e-4
-1.287, -1.030e-4
-1.286, -1.046e-4
-1.285, -1.055e-4
-1.284, -1.068e-4
-1.283, -1.077e-4
-1.282, -1.089e-4
-1.281, -1.102e-4
-1.280, -1.109e-4
-1.279, -1.124e-4
-1.278, -1.134e-4
-1.277, -1.138e-4
-1.276, -1.154e-4
-1.275, -1.162e-4
-1.274, -1.169e-4
-1.273, -1.178e-4
-1.272, -1.187e-4
-1.271, -1.196e-4
-1.270, -1.207e-4
-1.269, -1.217e-4
-1.268, -1.227e-4
-1.267, -1.232e-4
-1.266, -1.243e-4
-1.265, -1.252e-4
-1.264, -1.257e-4
-1.263, -1.266e-4
-1.262, -1.279e-4
-1.261, -1.285e-4
-1.260, -1.291e-4
-1.259, -1.303e-4
-1.258, -1.309e-4
-1.257, -1.315e-4
-1.256, -1.326e-4
-1.255, -1.335e-4
-1.254, -1.343e-4
-1.253, -1.346e-4
-1.252, -1.358e-4
-1.251, -1.364e-4
-1.250, -1.367e-4
-1.249, -1.380e-4
-1.248, -1.382e-4
-1.247, -1.387e-4
-1.246, -1.398e-4
-1.245, -1.404e-4
-1.244, -1.409e-4
-1.243, -1.415e-4
-1.242, -1.426e-4
-1.241, -1.432e-4
-1.240, -1.435e-4
-1.239, -1.445e-4
-1.238, -1.452e-4
-1.237, -1.453e-4
-1.236, -1.462e-4
-1.235, -1.468e-4
-1.234, -1.474e-4
-1.233, -1.481e-4
-1.232, -1.488e-4
-1.231, -1.489e-4
-1.230, -1.496e-4
-1.229, -1.510e-4
-1.228, -1.517e-4
-1.227, -1.516e-4
-1.226, -1.525e-4
-1.225, -1.534e-4
-1.224, -1.535e-4
-1.223, -1.539e-4
-1.222, -1.549e-4
-1.221, -1.552e-4
-1.220, -1.557e-4
-1.219, -1.567e-4
-1.218, -1.572e-4
-1.217, -1.578e-4
-1.216, -1.585e-4
-1.215, -1.595e-4
-1.214, -1.602e-4
-1.213, -1.604e-4
-1.212, -1.616e-4
-1.211, -1.618e-4
-1.210, -1.620e-4
-1.209, -1.630e-4
-1.208, -1.634e-4
-1.207, -1.639e-4
-1.206, -1.644e-4
-1.205, -1.649e-4
-1.204, -1.656e-4
-1.203, -1.663e-4
-1.202, -1.673e-4
-1.201, -1.676e-4
-1.200, -1.677e-4
-1.199, -1.689e-4
-1.198, -1.694e-4
-1.197, -1.696e-4
-1.196, -1.704e-4
-1.195, -1.713e-4
-1.194, -1.714e-4
-1.193, -1.719e-4
-1.192, -1.728e-4
-1.191, -1.733e-4
-1.190, -1.739e-4
-1.189, -1.746e-4
-1.188, -1.751e-4
-1.187, -1.752e-4
-1.186, -1.759e-4
-1.185, -1.767e-4
-1.184, -1.768e-4
-1.183, -1.777e-4
-1.182, -1.786e-4
-1.181, -1.787e-4
-1.180, -1.789e-4
-1.179, -1.800e-4
-1.178, -1.804e-4
-1.177, -1.810e-4
-1.176, -1.814e-4
-1.175, -1.820e-4
-1.174, -1.826e-4
-1.173, -1.827e-4
-1.172, -1.838e-4
-1.171, -1.841e-4
-1.170, -1.842e-4
-1.169, -1.853e-4
-1.168, -1.855e-4
-1.167, -1.858e-4
-1.166, -1.869e-4
-1.165, -1.877e-4
-1.164, -1.877e-4
-1.163, -1.884e-4
-1.162, -1.894e-4
-1.161, -1.896e-4
-1.160, -1.897e-4
-1.159, -1.908e-4
-1.158, -1.913e-4
-1.157, -1.914e-4
-1.156, -1.924e-4
-1.155, -1.932e-4
-1.154, -1.933e-4
-1.153, -1.938e-4
-1.152, -1.945e-4
-1.151, -1.951e-4
-1.150, -1.957e-4
-1.149, -1.967e-4
-1.148, -1.974e-4
-1.147, -1.972e-4
-1.146, -1.980e-4
-1.145, -1.987e-4
-1.144, -1.990e-4
-1.143, -1.992e-4
-1.142, -2.004e-4
-1.141, -2.008e-4
-1.140, -2.015e-4
-1.139, -2.025e-4
-1.138, -2.027e-4
-1.137, -2.031e-4
-1.136, -2.037e-4
-1.135, -2.043e-4
-1.134, -2.050e-4
-1.133, -2.051e-4
-1.132, -2.063e-4
-1.131, -2.071e-4
-1.130, -2.070e-4
-1.129, -2.083e-4
-1.128, -2.084e-4
-1.127, -2.088e-4
-1.126, -2.099e-4
-1.125, -2.105e-4
-1.124, -2.112e-4
-1.123, -2.117e-4
-1.122, -2.127e-4
-1.121, -2.133e-4
-1.120, -2.133e-4
-1.119, -2.143e-4
-1.118, -2.150e-4
-1.117, -2.149e-4
-1.116, -2.158e-4
-1.115, -2.167e-4
-1.114, -2.173e-4
-1.113, -2.182e-4
-1.112, -2.189e-4
-1.111, -2.193e-4
-1.110, -2.198e-4
-1.109, -2.207e-4
-1.108, -2.212e-4
-1.107, -2.216e-4
-1.106, -2.225e-4
-1.105, -2.234e-4
-1.104, -2.238e-4
-1.103, -2.244e-4
-1.102, -2.256e-4
-1.101, -2.260e-4
-1.100, -2.264e-4
-1.099, -2.274e-4
-1.098, -2.281e-4
-1.097, -2.285e-4
-1.096, -2.293e-4
-1.095, -2.302e-4
-1.094, -2.306e-4
-1.093, -2.312e-4
-1.092, -2.326e-4
-1.091, -2.333e-4
-1.090, -2.336e-4
-1.089, -2.347e-4
-1.088, -2.352e-4
-1.087, -2.358e-4
-1.086, -2.369e-4
-1.085, -2.378e-4
-1.084, -2.384e-4
-1.083, -2.390e-4
-1.082, -2.403e-4
-1.081, -2.409e-4
-1.080, -2.408e-4
-1.079, -2.421e-4
-1.078, -2.432e-4
-1.077, -2.436e-4
-1.076, -2.446e-4
-1.075, -2.456e-4
-1.074, -2.460e-4
-1.073, -2.464e-4
-1.072, -2.475e-4
-1.071, -2.480e-4
-1.070, -2.487e-4
-1.069, -2.499e-4
-1.068, -2.506e-4
-1.067, -2.510e-4
-1.066, -2.518e-4
-1.065, -2.528e-4
-1.064, -2.534e-4
-1.063, -2.540e-4
-1.062, -2.554e-4
-1.061, -2.560e-4
-1.060, -2.565e-4
-1.059, -2.579e-4
-1.058, -2.585e-4
-1.057, -2.587e-4
-1.056, -2.597e-4
-1.055, -2.608e-4
-1.054, -2.611e-4
-1.053, -2.618e-4
-1.052, -2.634e-4
-1.051, -2.640e-4
-1.050, -2.646e-4
-1.049, -2.657e-4
-1.048, -2.664e-4
-1.047, -2.668e-4
-1.046, -2.678e-4
-1.045, -2.689e-4
-1.044, -2.698e-4
-1.043, -2.708e-4
-1.042, -2.720e-4
-1.041, -2.727e-4
-1.040, -2.731e-4
-1.039, -2.742e-4
-1.038, -2.750e-4
-1.037, -2.758e-4
-1.036, -2.769e-4
-1.035, -2.782e-4
-1.034, -2.788e-4
-1.033, -2.794e-4
-1.032, -2.804e-4
-1.031, -2.813e-4
-1.030, -2.821e-4
-1.029, -2.832e-4
-1.028, -2.843e-4
-1.027, -2.847e-4
-1.026, -2.856e-4
-1.025, -2.871e-4
-1.024, -2.877e-4
-1.023, -2.886e-4
-1.022, -2.903e-4
-1.021, -2.910e-4
-1.020, -2.921e-4
-1.019, -2.935e-4
-1.018, -2.941e-4
-1.017, -2.951e-4
-1.016, -2.961e-4
-1.015, -2.972e-4
-1.014, -2.985e-4
-1.013, -2.992e-4
-1.012, -3.008e-4
-1.011, -3.016e-4
-1.010, -3.023e-4
-1.009, -3.036e-4
-1.008, -3.042e-4
-1.007, -3.048e-4
-1.006, -3.067e-4
-1.005, -3.080e-4
-1.004, -3.088e-4
-1.003, -3.100e-4
-1.002, -3.117e-4
-1.001, -3.125e-4
