Potential V vs RHE, Current mA cm-2
0.013299999999999867,-0.1330535977523067
0.012299999999999978,-0.7437137303390498
0.011299999999999866,-1.0490084288499246
0.010299999999999976,-1.2671569112891135
0.009299999999999864,-1.4415908145624723
0.008299999999999974,-1.5717442541500557
0.007299999999999862,-1.6594563547416883
0.006299999999999972,-1.7471684553333202
0.00529999999999986,-1.8334658446250875
0.0042999999999999705,-1.92117794521672
0.0032999999999998586,-2.008890045808352
0.0022999999999999687,-2.008890045808352
0.0012999999999998568,-2.095187435100119
0.00029999999999996696,-2.1828995356917518
-0.000700000000000145,-2.226755585987568
-0.0017000000000000348,-2.2706116362833835
-0.0027000000000001467,-2.3569090255751513
-0.0037000000000000366,-2.3569090255751513
-0.0047000000000001485,-2.4007650758709675
-0.005700000000000038,-2.4884771764625997
-0.00670000000000015,-2.532333226758415
-0.00770000000000004,-2.576189277054232
-0.008700000000000152,-2.618630616050183
-0.009700000000000042,-2.618630616050183
-0.010700000000000154,-2.706342716641815
-0.011700000000000044,-2.7501987669376318
-0.012700000000000156,-2.7501987669376318
-0.013700000000000045,-2.794054817233447
-0.014700000000000157,-2.8379108675292635
-0.015700000000000047,-2.8379108675292635
-0.01670000000000016,-2.8803522065252145
-0.01770000000000005,-2.924208256821031
-0.01870000000000016,-2.924208256821031
-0.01970000000000005,-2.924208256821031
-0.020700000000000163,-2.968064307116847
-0.021700000000000053,-3.0119203574126634
-0.022700000000000164,-3.0119203574126634
-0.023700000000000054,-3.055776407708479
-0.024700000000000166,-3.0996324580042955
-0.025700000000000056,-3.1420737970002466
-0.026700000000000168,-3.1420737970002466
-0.027700000000000058,-3.1859298472960624
-0.02870000000000017,-3.1859298472960624
-0.02970000000000006,-3.2297858975918787
-0.03070000000000017,-3.273641947887695
-0.03170000000000006,-3.273641947887695
-0.03270000000000017,-3.317497998183511
-0.03370000000000006,-3.361354048479327
-0.034700000000000175,-3.361354048479327
-0.035700000000000065,-3.403795387475278
-0.03670000000000018,-3.4915074880669104
-0.03770000000000007,-3.4915074880669104
-0.03870000000000018,-3.5353635383627267
-0.03970000000000007,-3.5353635383627267
-0.04070000000000018,-3.579219588658543
-0.04170000000000007,-3.623075638954359
-0.04270000000000018,-3.623075638954359
-0.04370000000000007,-3.7093730282461257
-0.044700000000000184,-3.7093730282461257
-0.045700000000000074,-3.7093730282461257
-0.046700000000000186,-3.7970851288377587
-0.047700000000000076,-3.840941179133574
-0.04870000000000019,-3.884797229429391
-0.04970000000000008,-3.884797229429391
-0.05070000000000019,-3.971094618721158
-0.05170000000000008,-4.014950669016974
-0.05270000000000019,-4.0588067193127895
-0.05370000000000008,-4.146518819904423
-0.05470000000000019,-4.1889601589003735
-0.05570000000000008,-4.23281620919619
-0.056700000000000195,-4.276672259492005
-0.057700000000000085,-4.364384360083638
-0.058700000000000196,-4.450681749375406
-0.059700000000000086,-4.538393849967037
-0.0607000000000002,-4.582249900262854
-0.06170000000000009,-4.668547289554621
-0.0627000000000002,-4.756259390146253
-0.06370000000000009,-4.800115440442069
-0.0647000000000002,-4.843971490737885
-0.06570000000000009,-4.9302688800296535
-0.0667000000000002,-5.017980980621284
-0.0677000000000001,-5.0618370309171015
-0.0687000000000002,-5.191990470504685
-0.0697000000000001,-5.235846520800501
-0.07070000000000021,-5.323558621392133
-0.0717000000000001,-5.367414671687949
-0.07270000000000021,-5.411270721983764
-0.0737000000000001,-5.497568111275533
-0.07470000000000021,-5.5414241615713475
-0.0757000000000001,-5.585280211867165
-0.07670000000000021,-5.629136262162981
-0.0777000000000001,-5.715433651454749
-0.07870000000000021,-5.715433651454749
-0.0797000000000001,-5.759289701750564
-0.08070000000000022,-5.80314575204638
-0.0817000000000001,-5.847001802342197
-0.08270000000000022,-5.890857852638012
-0.08370000000000011,-5.9347139029338285
-0.08470000000000022,-5.9347139029338285
-0.08570000000000011,-5.977155241929781
-0.08670000000000022,-5.977155241929781
-0.08770000000000011,-6.021011292225596
-0.08870000000000022,-6.064867342521412
-0.08970000000000011,-6.064867342521412
-0.09070000000000022,-6.108723392817228
-0.09170000000000011,-6.108723392817228
-0.09270000000000023,-6.152579443113044
-0.09370000000000012,-6.152579443113044
-0.09470000000000023,-6.152579443113044
-0.09570000000000012,-6.196435493408861
-0.09670000000000023,-6.196435493408861
-0.09770000000000012,-6.196435493408861
-0.09870000000000023,-6.238876832404812
-0.09970000000000012,-6.238876832404812
-0.10070000000000023,-6.282732882700628
-0.10170000000000012,-6.282732882700628
-0.10270000000000024,-6.282732882700628
-0.10370000000000013,-6.326588932996443
-0.10470000000000024,-6.326588932996443
-0.10570000000000013,-6.326588932996443
-0.10670000000000024,-6.326588932996443
-0.10770000000000013,-6.37044498329226
-0.10870000000000024,-6.37044498329226
-0.10970000000000013,-6.37044498329226
-0.11070000000000024,-6.414301033588076
-0.11170000000000013,-6.414301033588076
-0.11270000000000002,-6.414301033588076
-0.11370000000000013,-6.458157083883892
-0.11470000000000002,-6.414301033588076
-0.11570000000000014,-6.458157083883892
-0.11670000000000003,-6.458157083883892
-0.11770000000000014,-6.458157083883892
-0.11870000000000003,-6.458157083883892
-0.11970000000000014,-6.500598422879844
-0.12070000000000003,-6.458157083883892
-0.12170000000000014,-6.500598422879844
-0.12270000000000003,-6.500598422879844
-0.12370000000000014,-6.500598422879844
-0.12470000000000003,-6.500598422879844
-0.12570000000000014,-6.500598422879844
-0.12670000000000003,-6.54445447317566
-0.12770000000000015,-6.500598422879844
-0.12870000000000004,-6.54445447317566
-0.12970000000000015,-6.54445447317566
-0.13070000000000004,-6.54445447317566
-0.13170000000000015,-6.54445447317566
-0.13270000000000004,-6.54445447317566
-0.13370000000000015,-6.54445447317566
-0.13470000000000004,-6.54445447317566
-0.13570000000000015,-6.54445447317566
-0.13670000000000004,-6.54445447317566
-0.13770000000000016,-6.588310523471475
-0.13870000000000005,-6.54445447317566
-0.13970000000000016,-6.588310523471475
-0.14070000000000005,-6.588310523471475
-0.14170000000000016,-6.588310523471475
-0.14270000000000005,-6.588310523471475
-0.14370000000000016,-6.588310523471475
-0.14470000000000005,-6.588310523471475
-0.14570000000000016,-6.632166573767292
-0.14670000000000005,-6.588310523471475
-0.14770000000000016,-6.632166573767292
-0.14870000000000005,-6.632166573767292
-0.14970000000000017,-6.632166573767292
-0.15070000000000006,-6.632166573767292
-0.15170000000000017,-6.6760226240631075
-0.15270000000000006,-6.6760226240631075
-0.15370000000000017,-6.6760226240631075
-0.15470000000000006,-6.632166573767292
-0.15570000000000017,-6.6760226240631075
-0.15670000000000006,-6.6760226240631075
-0.15770000000000017,-6.6760226240631075
-0.15870000000000006,-6.719878674358924
-0.15970000000000018,-6.6760226240631075
-0.16070000000000007,-6.6760226240631075
-0.16170000000000018,-6.6760226240631075
-0.16270000000000007,-6.6760226240631075
-0.16370000000000018,-6.6760226240631075
-0.16470000000000007,-6.6760226240631075
-0.16570000000000018,-6.6760226240631075
-0.16670000000000007,-6.719878674358924
-0.16770000000000018,-6.719878674358924
-0.16870000000000007,-6.6760226240631075
-0.16970000000000018,-6.6760226240631075
-0.17070000000000007,-6.6760226240631075
-0.17170000000000019,-6.719878674358924
-0.17270000000000008,-6.6760226240631075
-0.1737000000000002,-6.719878674358924
-0.17470000000000008,-6.6760226240631075
-0.1757000000000002,-6.719878674358924
-0.17670000000000008,-6.6760226240631075
-0.1777000000000002,-6.719878674358924
-0.17870000000000008,-6.719878674358924
-0.1797000000000002,-6.719878674358924
-0.18070000000000008,-6.6760226240631075
-0.1817000000000002,-6.719878674358924
-0.18270000000000008,-6.719878674358924
-0.1837000000000002,-6.719878674358924
-0.1847000000000001,-6.719878674358924
-0.1857000000000002,-6.719878674358924
-0.1867000000000001,-6.719878674358924
-0.1877000000000002,-6.719878674358924
-0.1887000000000001,-6.719878674358924
-0.1897000000000002,-6.6760226240631075
-0.1907000000000001,-6.762320013354876
-0.1917000000000001,-6.719878674358924
-0.19269999999999998,-6.719878674358924
-0.1937000000000001,-6.719878674358924
-0.19469999999999998,-6.719878674358924
-0.1957000000000001,-6.719878674358924
-0.19669999999999999,-6.719878674358924
-0.1977000000000001,-6.719878674358924
-0.1987,-6.719878674358924
-0.1997000000000001,-6.719878674358924
-0.2007,-6.719878674358924
-0.2017000000000001,-6.719878674358924
-0.2027,-6.719878674358924
-0.2037000000000001,-6.719878674358924
-0.2047,-6.719878674358924
-0.2057000000000001,-6.719878674358924
-0.2067,-6.719878674358924
-0.2077000000000001,-6.719878674358924
-0.2087,-6.719878674358924
-0.2097000000000001,-6.719878674358924
-0.2107,-6.719878674358924
-0.2117000000000001,-6.762320013354876
-0.2127,-6.719878674358924
-0.2137000000000001,-6.719878674358924
-0.2147,-6.719878674358924
-0.2157000000000001,-6.762320013354876
-0.2167,-6.762320013354876
-0.21770000000000012,-6.762320013354876
-0.2187,-6.719878674358924
-0.21970000000000012,-6.719878674358924
-0.2207,-6.762320013354876
-0.22170000000000012,-6.719878674358924
-0.2227,-6.762320013354876
-0.22370000000000012,-6.762320013354876
-0.2247,-6.762320013354876
-0.22570000000000012,-6.762320013354876
-0.2267,-6.762320013354876
-0.22770000000000012,-6.762320013354876
-0.22870000000000001,-6.762320013354876
-0.22970000000000013,-6.762320013354876
-0.23070000000000002,-6.762320013354876
-0.23170000000000013,-6.762320013354876
-0.23270000000000002,-6.762320013354876
-0.23370000000000013,-6.762320013354876
-0.23470000000000002,-6.762320013354876
-0.23570000000000013,-6.806176063650692
-0.23670000000000002,-6.762320013354876
-0.2376999999999999,-6.762320013354876
-0.23870000000000002,-6.806176063650692
-0.2396999999999999,-6.806176063650692
-0.24070000000000003,-6.762320013354876
-0.24169999999999991,-6.806176063650692
-0.24270000000000003,-6.806176063650692
-0.24369999999999992,-6.806176063650692
-0.24470000000000003,-6.806176063650692
-0.24569999999999992,-6.806176063650692
-0.24670000000000003,-6.806176063650692
-0.24769999999999992,-6.806176063650692
-0.24870000000000003,-6.806176063650692
-0.24969999999999992,-6.806176063650692
-0.25070000000000003,-6.850032113946507
-0.2516999999999999,-6.806176063650692
-0.25270000000000004,-6.806176063650692
-0.2536999999999999,-6.850032113946507
-0.25470000000000004,-6.850032113946507
-0.2556999999999999,-6.806176063650692
-0.25670000000000004,-6.850032113946507
-0.25769999999999993,-6.850032113946507
-0.25870000000000004,-6.850032113946507
-0.25969999999999993,-6.850032113946507
-0.26070000000000004,-6.850032113946507
-0.26169999999999993,-6.893888164242324
-0.26270000000000004,-6.893888164242324
-0.26369999999999993,-6.893888164242324
-0.26470000000000005,-6.893888164242324
-0.26569999999999994,-6.893888164242324
-0.26670000000000005,-6.893888164242324
-0.26769999999999994,-6.93774421453814
-0.26870000000000005,-6.93774421453814
-0.26969999999999994,-6.93774421453814
-0.27070000000000005,-6.93774421453814
-0.27169999999999994,-6.93774421453814
-0.27270000000000005,-6.93774421453814
-0.27369999999999994,-6.981600264833956
-0.27470000000000006,-6.981600264833956
-0.27569999999999995,-6.981600264833956
-0.27670000000000006,-6.981600264833956
-0.27769999999999995,-6.981600264833956
-0.27870000000000006,-6.981600264833956
-0.27969999999999995,-6.981600264833956
-0.28070000000000006,-7.024041603829907
-0.28169999999999995,-7.024041603829907
-0.28270000000000006,-7.024041603829907
-0.28369999999999995,-7.067897654125724
-0.28470000000000006,-7.067897654125724
-0.28569999999999995,-7.067897654125724
-0.28670000000000007,-7.067897654125724
-0.28769999999999996,-7.111753704421539
-0.28870000000000007,-7.111753704421539
-0.28969999999999996,-7.111753704421539
-0.29070000000000007,-7.111753704421539
-0.29169999999999996,-7.155609754717355
-0.29270000000000007,-7.155609754717355
-0.29369999999999996,-7.155609754717355
-0.2947000000000001,-7.155609754717355
-0.29569999999999996,-7.199465805013171
-0.2967000000000001,-7.199465805013171
-0.29769999999999996,-7.199465805013171
-0.2987000000000001,-7.243321855308987
-0.29969999999999997,-7.199465805013171
-0.3007000000000001,-7.243321855308987
-0.30169999999999997,-7.243321855308987
-0.3027000000000001,-7.243321855308987
-0.30369999999999997,-7.28576319430494
-0.3047000000000001,-7.28576319430494
-0.30569999999999997,-7.28576319430494
-0.3067000000000001,-7.329619244600755
-0.3077,-7.329619244600755
-0.3087000000000001,-7.37347529489657
-0.3097,-7.37347529489657
-0.3107000000000001,-7.4173313451923875
-0.3117,-7.4173313451923875
-0.3127000000000001,-7.4173313451923875
-0.3137,-7.461187395488204
-0.3147000000000001,-7.461187395488204
-0.3157,-7.461187395488204
-0.3167000000000001,-7.50504344578402
-0.3177,-7.50504344578402
-0.3187000000000001,-7.5474847847799715
-0.3197,-7.5474847847799715
-0.3207000000000001,-7.5474847847799715
-0.3217,-7.591340835075788
-0.3227000000000001,-7.591340835075788
-0.3237,-7.635196885371603
-0.3247000000000001,-7.635196885371603
-0.3257,-7.679052935667419
-0.3267000000000001,-7.679052935667419
-0.3277,-7.722908985963235
-0.3287000000000001,-7.722908985963235
-0.3297,-7.7653503249591855
-0.3307000000000001,-7.7653503249591855
-0.3317,-7.809206375255003
-0.3327000000000001,-7.809206375255003
-0.3337,-7.853062425550818
-0.3347000000000001,-7.853062425550818
-0.3357,-7.896918475846635
-0.3367000000000001,-7.940774526142452
-0.3377,-7.940774526142452
-0.3387000000000001,-7.984630576438266
-0.3397,-7.984630576438266
-0.3407000000000001,-8.027071915434218
-0.3417,-8.027071915434218
-0.3427000000000001,-8.070927965730034
-0.3437,-8.070927965730034
-0.3447000000000001,-8.070927965730034
-0.3457,-8.11478401602585
-0.3467000000000001,-8.11478401602585
-0.3477,-8.158640066321666
-0.3487000000000001,-8.202496116617484
-0.3497,-8.202496116617484
-0.3507000000000001,-8.202496116617484
-0.3517,-8.288793505909249
-0.3527000000000001,-8.288793505909249
-0.3537,-8.332649556205066
-0.3547000000000001,-8.376505606500881
-0.3557,-8.376505606500881
-0.35670000000000013,-8.4203616567967
-0.3577,-8.464217707092514
-0.35870000000000013,-8.508073757388331
-0.3597,-8.55051509638428
-0.36070000000000013,-8.55051509638428
-0.3617,-8.594371146680096
-0.3626999999999999,-8.594371146680096
-0.3637,-8.68208324727173
-0.3646999999999999,-8.68208324727173
-0.3657,-8.68208324727173
-0.3666999999999999,-8.769795347863363
-0.3677,-8.769795347863363
-0.3686999999999999,-8.812236686859313
-0.36970000000000003,-8.85609273715513
-0.3706999999999999,-8.899948787450944
-0.37170000000000003,-8.943804837746763
-0.3726999999999999,-8.943804837746763
-0.37370000000000003,-8.987660888042578
-0.3746999999999999,-9.031516938338395
-0.37570000000000003,-9.073958277334345
-0.3766999999999999,-9.073958277334345
-0.37770000000000004,-9.161670377925978
-0.3786999999999999,-9.161670377925978
-0.37970000000000004,-9.205526428221793
-0.3806999999999999,-9.24938247851761
-0.38170000000000004,-9.293238528813426
-0.38269999999999993,-9.335679867809377
-0.38370000000000004,-9.335679867809377
-0.38469999999999993,-9.379535918105192
-0.38570000000000004,-9.423391968401008
-0.38669999999999993,-9.467248018696827
-0.38770000000000004,-9.511104068992642
-0.38869999999999993,-9.55496011928846
-0.38970000000000005,-9.59740145828441
-0.39069999999999994,-9.59740145828441
-0.39170000000000005,-9.641257508580225
-0.39269999999999994,-9.685113558876042
-0.39370000000000005,-9.728969609171857
-0.39469999999999994,-9.772825659467674
-0.39570000000000005,-9.81668170976349
-0.39669999999999994,-9.85912304875944
-0.39770000000000005,-9.902979099055257
-0.39869999999999994,-9.946835149351072
-0.39970000000000006,-9.99069119964689
-0.40069999999999995,-10.078403300238522
-0.40170000000000006,-10.120844639234473
-0.40269999999999995,-10.164700689530287
-0.40370000000000006,-10.208556739826104
-0.40469999999999995,-10.296268840417738
-0.40570000000000006,-10.296268840417738
-0.40669999999999995,-10.340124890713554
-0.40770000000000006,-10.42642228000532
-0.40869999999999995,-10.42642228000532
-0.40970000000000006,-10.470278330301136
-0.41069999999999995,-10.514134380596953
-0.41170000000000007,-10.557990430892769
-0.41269999999999996,-10.601846481188586
-0.41370000000000007,-10.644287820184536
-0.41469999999999996,-10.688143870480351
-0.41570000000000007,-10.775855971071984
-0.41669999999999996,-10.819712021367803
-0.41770000000000007,-10.819712021367803
-0.41869999999999996,-10.906009410659568
-0.4197000000000001,-10.949865460955383
-0.42069999999999996,-10.993721511251199
-0.4217000000000001,-11.037577561547016
-0.42269999999999996,-11.123874950838783
-0.4237000000000001,-11.1677310011346
-0.42469999999999997,-11.211587051430415
-0.4257000000000001,-11.299299152022046
-0.42669999999999997,-11.343155202317865
-0.4277000000000001,-11.385596541313816
-0.42869999999999997,-11.473308641905447
-0.4297000000000001,-11.517164692201263
-0.43069999999999997,-11.604876792792895
-0.4317000000000001,-11.647318131788847
-0.4327,-11.691174182084664
-0.4337000000000001,-11.778886282676295
-0.4347,-11.86659838326793
-0.4357000000000001,-11.909039722263879
-0.4367,-11.952895772559694
-0.4377000000000001,-11.996751822855511
-0.4387,-12.084463923447142
-0.4397000000000001,-12.12831997374296
-0.4407,-12.170761312738911
-0.4417000000000001,-12.258473413330542
-0.4427,-12.302329463626359
-0.4437000000000001,-12.390041564217992
-0.4447,-12.432482903213943
-0.4457000000000001,-12.476338953509758
-0.4467,-12.56405105410139
-0.4477000000000001,-12.607907104397206
-0.4487,-12.694204493688973
-0.4497000000000001,-12.781916594280606
-0.4507,-12.781916594280606
-0.4517000000000001,-12.869628694872238
-0.4527,-12.955926084164007
-0.4537000000000001,-12.99978213445982
-0.4547,-13.043638184755638
-0.4557000000000001,-13.13135028534727
-0.4567,-13.217647674639037
-0.4577000000000001,-13.261503724934855
-0.4587,-13.349215825526485
-0.4597000000000001,-13.436927926118118
-0.4607,-13.523225315409885
-0.4617000000000001,-13.567081365705702
-0.4627,-13.654793466297335
-0.4637000000000001,-13.741090855589102
-0.4647,-13.828802956180734
-0.4657000000000001,-13.872659006476551
-0.4667,-13.960371107068182
-0.4677000000000001,-14.090524546655764
-0.4687,-14.13438059695158
-0.4697000000000001,-14.217848563643619
-0.4707,-14.30273124163552
-0.4717000000000001,-14.345172580631472
-0.4727,-14.444202371622024
-0.4737000000000001,-14.486643710617974
-0.4747,-14.529085049613924
-0.4757000000000001,-14.61396772760583
-0.4767,-14.69885040559773
-0.4777000000000001,-14.741291744593681
-0.4787,-14.868615761581536
-0.4797000000000001,-14.967645552572087
-0.4807,-15.01008689156804
-0.48170000000000013,-15.094969569559943
-0.4827,-15.222293586547794
-0.48370000000000013,-15.307176264539699
-0.4847,-15.3920589425316
-0.48570000000000013,-15.491088733522153
-0.4867,-15.618412750510005
-0.4876999999999999,-15.70329542850191
-0.4887,-15.78817810649381
-0.4896999999999999,-15.87306078448571
-0.4907,-15.972090575476265
-0.4916999999999999,-16.099414592464115
-0.4927,-16.141855931460068
-0.4936999999999999,-16.22673860945197
-0.49470000000000003,-16.354062626439823
-0.4956999999999999,-16.396503965435777
-0.49670000000000003,-16.53797509542228
-0.4976999999999999,-16.622857773414182
-0.49870000000000003,-16.70774045140608
-0.4996999999999999,-16.792623129397985
-0.5007,-16.877505807389888
-0.5016999999999999,-17.018976937376394
-0.5027,-17.103859615368293
-0.5036999999999999,-17.188742293360193
-0.5047,-17.2736249713521
-0.5056999999999999,-17.40094898833995
-0.5067,-17.48583166633185
-0.5076999999999999,-17.584861457322408
-0.5087,-17.71218547431026
-0.5096999999999999,-17.797068152302163
-0.5107,-17.881950830294063
