Mar. 4, 2025   20:45:44
Amperometric i-t Curve
File: c:/users/guazh/data/banditlqround7_x0exp169_r20_3/2025-03-03-exp871\exp871deposition-2025-03-04t20_41_32-deposition\exp871deposition_it_edep_-140mv.bin
Data Source:  Experiment
Instrument Model:  CHI760E
Header: 
Note: 

Init E (V) = -1.4
Sample Interval (s) = 0.1
Run Time (sec) = 86
Quiet Time (sec) = 2
Sensitivity (A/V) = 0.001
Comp R (ohm) = 14.1

Results:

Channel 1:

Time/sec, Current/A

1.000e-1, 3.508e-3
2.000e-1, 3.519e-3
3.000e-1, 3.515e-3
4.000e-1, 3.509e-3
5.000e-1, 3.517e-3
6.000e-1, 3.515e-3
7.000e-1, 3.483e-3
8.000e-1, 3.473e-3
9.000e-1, 3.482e-3
1.000e+0, 3.467e-3
1.100e+0, 3.472e-3
1.200e+0, 3.489e-3
1.300e+0, 3.485e-3
1.400e+0, 3.490e-3
1.500e+0, 3.450e-3
1.600e+0, 3.454e-3
1.700e+0, 3.470e-3
1.800e+0, 3.483e-3
1.900e+0, 3.498e-3
2.000e+0, 3.513e-3
2.100e+0, 3.520e-3
2.200e+0, 3.538e-3
2.300e+0, 3.547e-3
2.400e+0, 3.559e-3
2.500e+0, 3.573e-3
2.600e+0, 3.556e-3
2.700e+0, 3.551e-3
2.800e+0, 3.540e-3
2.900e+0, 3.542e-3
3.000e+0, 3.546e-3
3.100e+0, 3.537e-3
3.200e+0, 3.530e-3
3.300e+0, 3.512e-3
3.400e+0, 3.522e-3
3.500e+0, 3.554e-3
3.600e+0, 3.528e-3
3.700e+0, 3.503e-3
3.800e+0, 3.485e-3
3.900e+0, 3.487e-3
4.000e+0, 3.495e-3
4.100e+0, 3.510e-3
4.200e+0, 3.517e-3
4.300e+0, 3.507e-3
4.400e+0, 3.497e-3
4.500e+0, 3.495e-3
4.600e+0, 3.505e-3
4.700e+0, 3.501e-3
4.800e+0, 3.508e-3
4.900e+0, 3.533e-3
5.000e+0, 3.552e-3
5.100e+0, 3.546e-3
5.200e+0, 3.543e-3
5.300e+0, 3.553e-3
5.400e+0, 3.549e-3
5.500e+0, 3.548e-3
5.600e+0, 3.543e-3
5.700e+0, 3.543e-3
5.800e+0, 3.554e-3
5.900e+0, 3.556e-3
6.000e+0, 3.550e-3
6.100e+0, 3.557e-3
6.200e+0, 3.534e-3
6.300e+0, 3.517e-3
6.400e+0, 3.508e-3
6.500e+0, 3.506e-3
6.600e+0, 3.520e-3
6.700e+0, 3.536e-3
6.800e+0, 3.553e-3
6.900e+0, 3.565e-3
7.000e+0, 3.593e-3
7.100e+0, 3.624e-3
7.200e+0, 3.662e-3
7.300e+0, 3.643e-3
7.400e+0, 3.623e-3
7.500e+0, 3.618e-3
7.600e+0, 3.624e-3
7.700e+0, 3.635e-3
7.800e+0, 3.638e-3
7.900e+0, 3.648e-3
8.000e+0, 3.665e-3
8.100e+0, 3.687e-3
8.200e+0, 3.709e-3
8.300e+0, 3.732e-3
8.400e+0, 3.732e-3
8.500e+0, 3.718e-3
8.600e+0, 3.704e-3
8.700e+0, 3.679e-3
8.800e+0, 3.674e-3
8.900e+0, 3.657e-3
9.000e+0, 3.619e-3
9.100e+0, 3.606e-3
9.200e+0, 3.619e-3
9.300e+0, 3.619e-3
9.400e+0, 3.620e-3
9.500e+0, 3.636e-3
9.600e+0, 3.644e-3
9.700e+0, 3.659e-3
9.800e+0, 3.652e-3
9.900e+0, 3.640e-3
1.000e+1, 3.625e-3
1.010e+1, 3.617e-3
1.020e+1, 3.610e-3
1.030e+1, 3.609e-3
1.040e+1, 3.626e-3
1.050e+1, 3.644e-3
1.060e+1, 3.683e-3
1.070e+1, 3.708e-3
1.080e+1, 3.700e-3
1.090e+1, 3.709e-3
1.100e+1, 3.691e-3
1.110e+1, 3.679e-3
1.120e+1, 3.677e-3
1.130e+1, 3.664e-3
1.140e+1, 3.650e-3
1.150e+1, 3.655e-3
1.160e+1, 3.634e-3
1.170e+1, 3.627e-3
1.180e+1, 3.632e-3
1.190e+1, 3.640e-3
1.200e+1, 3.652e-3
1.210e+1, 3.653e-3
1.220e+1, 3.666e-3
1.230e+1, 3.667e-3
1.240e+1, 3.661e-3
1.250e+1, 3.659e-3
1.260e+1, 3.658e-3
1.270e+1, 3.657e-3
1.280e+1, 3.664e-3
1.290e+1, 3.671e-3
1.300e+1, 3.664e-3
1.310e+1, 3.667e-3
1.320e+1, 3.666e-3
1.330e+1, 3.666e-3
1.340e+1, 3.671e-3
1.350e+1, 3.671e-3
1.360e+1, 3.676e-3
1.370e+1, 3.663e-3
1.380e+1, 3.670e-3
1.390e+1, 3.685e-3
1.400e+1, 3.691e-3
1.410e+1, 3.684e-3
1.420e+1, 3.675e-3
1.430e+1, 3.689e-3
1.440e+1, 3.701e-3
1.450e+1, 3.743e-3
1.460e+1, 3.770e-3
1.470e+1, 3.747e-3
1.480e+1, 3.720e-3
1.490e+1, 3.695e-3
1.500e+1, 3.680e-3
1.510e+1, 3.667e-3
1.520e+1, 3.651e-3
1.530e+1, 3.644e-3
1.540e+1, 3.656e-3
1.550e+1, 3.666e-3
1.560e+1, 3.676e-3
1.570e+1, 3.712e-3
1.580e+1, 3.702e-3
1.590e+1, 3.687e-3
1.600e+1, 3.673e-3
1.610e+1, 3.663e-3
1.620e+1, 3.666e-3
1.630e+1, 3.675e-3
1.640e+1, 3.689e-3
1.650e+1, 3.694e-3
1.660e+1, 3.702e-3
1.670e+1, 3.690e-3
1.680e+1, 3.685e-3
1.690e+1, 3.681e-3
1.700e+1, 3.686e-3
1.710e+1, 3.692e-3
1.720e+1, 3.693e-3
1.730e+1, 3.692e-3
1.740e+1, 3.700e-3
1.750e+1, 3.715e-3
1.760e+1, 3.728e-3
1.770e+1, 3.738e-3
1.780e+1, 3.739e-3
1.790e+1, 3.746e-3
1.800e+1, 3.727e-3
1.810e+1, 3.722e-3
1.820e+1, 3.723e-3
1.830e+1, 3.726e-3
1.840e+1, 3.742e-3
1.850e+1, 3.740e-3
1.860e+1, 3.764e-3
1.870e+1, 3.760e-3
1.880e+1, 3.740e-3
1.890e+1, 3.723e-3
1.900e+1, 3.720e-3
1.910e+1, 3.720e-3
1.920e+1, 3.722e-3
1.930e+1, 3.721e-3
1.940e+1, 3.707e-3
1.950e+1, 3.699e-3
1.960e+1, 3.707e-3
1.970e+1, 3.716e-3
1.980e+1, 3.715e-3
1.990e+1, 3.705e-3
2.000e+1, 3.712e-3
2.010e+1, 3.724e-3
2.020e+1, 3.743e-3
2.030e+1, 3.748e-3
2.040e+1, 3.756e-3
2.050e+1, 3.763e-3
2.060e+1, 3.773e-3
2.070e+1, 3.781e-3
2.080e+1, 3.777e-3
2.090e+1, 3.772e-3
2.100e+1, 3.771e-3
2.110e+1, 3.770e-3
2.120e+1, 3.767e-3
2.130e+1, 3.770e-3
2.140e+1, 3.767e-3
2.150e+1, 3.770e-3
2.160e+1, 3.781e-3
2.170e+1, 3.774e-3
2.180e+1, 3.784e-3
2.190e+1, 3.803e-3
2.200e+1, 3.812e-3
2.210e+1, 3.851e-3
2.220e+1, 3.868e-3
2.230e+1, 3.861e-3
2.240e+1, 3.837e-3
2.250e+1, 3.824e-3
2.260e+1, 3.807e-3
2.270e+1, 3.806e-3
2.280e+1, 3.814e-3
2.290e+1, 3.816e-3
2.300e+1, 3.817e-3
2.310e+1, 3.798e-3
2.320e+1, 3.834e-3
2.330e+1, 3.855e-3
2.340e+1, 3.858e-3
2.350e+1, 3.851e-3
2.360e+1, 3.846e-3
2.370e+1, 3.846e-3
2.380e+1, 3.839e-3
2.390e+1, 3.840e-3
2.400e+1, 3.821e-3
2.410e+1, 3.812e-3
2.420e+1, 3.805e-3
2.430e+1, 3.797e-3
2.440e+1, 3.787e-3
2.450e+1, 3.762e-3
2.460e+1, 3.770e-3
2.470e+1, 3.771e-3
2.480e+1, 3.751e-3
2.490e+1, 3.731e-3
2.500e+1, 3.740e-3
2.510e+1, 3.741e-3
2.520e+1, 3.728e-3
2.530e+1, 3.738e-3
2.540e+1, 3.738e-3
2.550e+1, 3.745e-3
2.560e+1, 3.757e-3
2.570e+1, 3.748e-3
2.580e+1, 3.754e-3
2.590e+1, 3.764e-3
2.600e+1, 3.774e-3
2.610e+1, 3.808e-3
2.620e+1, 3.829e-3
2.630e+1, 3.848e-3
2.640e+1, 3.850e-3
2.650e+1, 3.871e-3
2.660e+1, 3.881e-3
2.670e+1, 3.868e-3
2.680e+1, 3.861e-3
2.690e+1, 3.882e-3
2.700e+1, 3.879e-3
2.710e+1, 3.869e-3
2.720e+1, 3.856e-3
2.730e+1, 3.844e-3
2.740e+1, 3.817e-3
2.750e+1, 3.826e-3
2.760e+1, 3.853e-3
2.770e+1, 3.866e-3
2.780e+1, 3.887e-3
2.790e+1, 3.918e-3
2.800e+1, 3.902e-3
2.810e+1, 3.928e-3
2.820e+1, 3.933e-3
2.830e+1, 3.910e-3
2.840e+1, 3.892e-3
2.850e+1, 3.889e-3
2.860e+1, 3.880e-3
2.870e+1, 3.874e-3
2.880e+1, 3.829e-3
2.890e+1, 3.829e-3
2.900e+1, 3.835e-3
2.910e+1, 3.842e-3
2.920e+1, 3.854e-3
2.930e+1, 3.873e-3
2.940e+1, 3.889e-3
2.950e+1, 3.895e-3
2.960e+1, 3.852e-3
2.970e+1, 3.837e-3
2.980e+1, 3.850e-3
2.990e+1, 3.863e-3
3.000e+1, 3.867e-3
3.010e+1, 3.876e-3
3.020e+1, 3.863e-3
3.030e+1, 3.892e-3
3.040e+1, 3.888e-3
3.050e+1, 3.894e-3
3.060e+1, 3.882e-3
3.070e+1, 3.867e-3
3.080e+1, 3.873e-3
3.090e+1, 3.861e-3
3.100e+1, 3.853e-3
3.110e+1, 3.853e-3
3.120e+1, 3.846e-3
3.130e+1, 3.849e-3
3.140e+1, 3.816e-3
3.150e+1, 3.800e-3
3.160e+1, 3.798e-3
3.170e+1, 3.788e-3
3.180e+1, 3.790e-3
3.190e+1, 3.790e-3
3.200e+1, 3.789e-3
3.210e+1, 3.804e-3
3.220e+1, 3.806e-3
3.230e+1, 3.814e-3
3.240e+1, 3.813e-3
3.250e+1, 3.816e-3
3.260e+1, 3.837e-3
3.270e+1, 3.853e-3
3.280e+1, 3.875e-3
3.290e+1, 3.888e-3
3.300e+1, 3.900e-3
3.310e+1, 3.883e-3
3.320e+1, 3.866e-3
3.330e+1, 3.861e-3
3.340e+1, 3.881e-3
3.350e+1, 3.889e-3
3.360e+1, 3.880e-3
3.370e+1, 3.875e-3
3.380e+1, 3.873e-3
3.390e+1, 3.847e-3
3.400e+1, 3.859e-3
3.410e+1, 3.858e-3
3.420e+1, 3.832e-3
3.430e+1, 3.864e-3
3.440e+1, 3.864e-3
3.450e+1, 3.853e-3
3.460e+1, 3.845e-3
3.470e+1, 3.842e-3
3.480e+1, 3.854e-3
3.490e+1, 3.860e-3
3.500e+1, 3.882e-3
3.510e+1, 3.878e-3
3.520e+1, 3.882e-3
3.530e+1, 3.882e-3
3.540e+1, 3.874e-3
3.550e+1, 3.869e-3
3.560e+1, 3.861e-3
3.570e+1, 3.868e-3
3.580e+1, 3.868e-3
3.590e+1, 3.870e-3
3.600e+1, 3.878e-3
3.610e+1, 3.855e-3
3.620e+1, 3.856e-3
3.630e+1, 3.880e-3
3.640e+1, 3.872e-3
3.650e+1, 3.893e-3
3.660e+1, 3.906e-3
3.670e+1, 3.893e-3
3.680e+1, 3.887e-3
3.690e+1, 3.892e-3
3.700e+1, 3.895e-3
3.710e+1, 3.976e-3
3.720e+1, 3.972e-3
3.730e+1, 3.949e-3
3.740e+1, 3.955e-3
3.750e+1, 3.958e-3
3.760e+1, 3.931e-3
3.770e+1, 3.916e-3
3.780e+1, 3.902e-3
3.790e+1, 3.895e-3
3.800e+1, 3.894e-3
3.810e+1, 3.886e-3
3.820e+1, 3.864e-3
3.830e+1, 3.858e-3
3.840e+1, 3.853e-3
3.850e+1, 3.862e-3
3.860e+1, 3.853e-3
3.870e+1, 3.850e-3
3.880e+1, 3.849e-3
3.890e+1, 3.852e-3
3.900e+1, 3.846e-3
3.910e+1, 3.845e-3
3.920e+1, 3.838e-3
3.930e+1, 3.833e-3
3.940e+1, 3.833e-3
3.950e+1, 3.856e-3
3.960e+1, 3.857e-3
3.970e+1, 3.849e-3
3.980e+1, 3.865e-3
3.990e+1, 3.882e-3
4.000e+1, 3.880e-3
4.010e+1, 3.868e-3
4.020e+1, 3.870e-3
4.030e+1, 3.884e-3
4.040e+1, 3.896e-3
4.050e+1, 3.922e-3
4.060e+1, 3.907e-3
4.070e+1, 3.895e-3
4.080e+1, 3.909e-3
4.090e+1, 3.904e-3
4.100e+1, 3.883e-3
4.110e+1, 3.877e-3
4.120e+1, 3.867e-3
4.130e+1, 3.873e-3
4.140e+1, 3.887e-3
4.150e+1, 3.875e-3
4.160e+1, 3.869e-3
4.170e+1, 3.883e-3
4.180e+1, 3.873e-3
4.190e+1, 3.878e-3
4.200e+1, 3.887e-3
4.210e+1, 3.884e-3
4.220e+1, 3.876e-3
4.230e+1, 3.869e-3
4.240e+1, 3.897e-3
4.250e+1, 3.904e-3
4.260e+1, 3.927e-3
4.270e+1, 3.935e-3
4.280e+1, 3.941e-3
4.290e+1, 3.945e-3
4.300e+1, 3.961e-3
4.310e+1, 3.964e-3
4.320e+1, 3.967e-3
4.330e+1, 3.959e-3
4.340e+1, 3.920e-3
4.350e+1, 3.927e-3
4.360e+1, 3.919e-3
4.370e+1, 3.943e-3
4.380e+1, 3.932e-3
4.390e+1, 3.921e-3
4.400e+1, 3.924e-3
4.410e+1, 3.944e-3
4.420e+1, 3.988e-3
4.430e+1, 3.966e-3
4.440e+1, 3.935e-3
4.450e+1, 3.945e-3
4.460e+1, 3.985e-3
4.470e+1, 4.039e-3
4.480e+1, 4.033e-3
4.490e+1, 4.042e-3
4.500e+1, 4.014e-3
4.510e+1, 4.010e-3
4.520e+1, 4.006e-3
4.530e+1, 4.014e-3
4.540e+1, 3.974e-3
4.550e+1, 3.952e-3
4.560e+1, 3.960e-3
4.570e+1, 3.963e-3
4.580e+1, 3.957e-3
4.590e+1, 3.964e-3
4.600e+1, 3.976e-3
4.610e+1, 3.996e-3
4.620e+1, 3.989e-3
4.630e+1, 3.972e-3
4.640e+1, 3.952e-3
4.650e+1, 3.949e-3
4.660e+1, 3.938e-3
4.670e+1, 3.941e-3
4.680e+1, 3.934e-3
4.690e+1, 3.930e-3
4.700e+1, 3.930e-3
4.710e+1, 3.924e-3
4.720e+1, 3.908e-3
4.730e+1, 3.901e-3
4.740e+1, 3.934e-3
4.750e+1, 3.962e-3
4.760e+1, 3.989e-3
4.770e+1, 3.999e-3
4.780e+1, 3.997e-3
4.790e+1, 3.997e-3
4.800e+1, 4.005e-3
4.810e+1, 3.998e-3
4.820e+1, 4.007e-3
4.830e+1, 4.008e-3
4.840e+1, 3.987e-3
4.850e+1, 3.973e-3
4.860e+1, 3.961e-3
4.870e+1, 3.962e-3
4.880e+1, 3.968e-3
4.890e+1, 4.013e-3
4.900e+1, 3.985e-3
4.910e+1, 3.943e-3
4.920e+1, 3.943e-3
4.930e+1, 3.945e-3
4.940e+1, 3.932e-3
4.950e+1, 3.932e-3
4.960e+1, 3.946e-3
4.970e+1, 3.966e-3
4.980e+1, 3.964e-3
4.990e+1, 4.029e-3
5.000e+1, 3.990e-3
5.010e+1, 3.967e-3
5.020e+1, 3.963e-3
5.030e+1, 3.956e-3
5.040e+1, 3.957e-3
5.050e+1, 3.952e-3
5.060e+1, 3.938e-3
5.070e+1, 3.937e-3
5.080e+1, 3.940e-3
5.090e+1, 3.945e-3
5.100e+1, 3.940e-3
5.110e+1, 3.940e-3
5.120e+1, 3.957e-3
5.130e+1, 3.963e-3
5.140e+1, 3.967e-3
5.150e+1, 3.961e-3
5.160e+1, 3.965e-3
5.170e+1, 3.960e-3
5.180e+1, 3.952e-3
5.190e+1, 3.950e-3
5.200e+1, 3.938e-3
5.210e+1, 3.932e-3
5.220e+1, 3.943e-3
5.230e+1, 3.941e-3
5.240e+1, 3.941e-3
5.250e+1, 3.940e-3
5.260e+1, 3.943e-3
5.270e+1, 3.937e-3
5.280e+1, 3.942e-3
5.290e+1, 3.939e-3
5.300e+1, 3.930e-3
5.310e+1, 3.935e-3
5.320e+1, 3.935e-3
5.330e+1, 3.947e-3
5.340e+1, 3.953e-3
5.350e+1, 3.960e-3
5.360e+1, 3.971e-3
5.370e+1, 3.970e-3
5.380e+1, 4.001e-3
5.390e+1, 4.061e-3
5.400e+1, 4.092e-3
5.410e+1, 4.091e-3
5.420e+1, 4.082e-3
5.430e+1, 4.081e-3
5.440e+1, 4.075e-3
5.450e+1, 4.063e-3
5.460e+1, 4.057e-3
5.470e+1, 4.050e-3
5.480e+1, 4.052e-3
5.490e+1, 4.051e-3
5.500e+1, 4.057e-3
5.510e+1, 4.056e-3
5.520e+1, 4.051e-3
5.530e+1, 4.034e-3
5.540e+1, 4.044e-3
5.550e+1, 4.046e-3
5.560e+1, 4.089e-3
5.570e+1, 4.084e-3
5.580e+1, 4.041e-3
5.590e+1, 4.051e-3
5.600e+1, 4.064e-3
5.610e+1, 4.058e-3
5.620e+1, 4.060e-3
5.630e+1, 4.061e-3
5.640e+1, 4.054e-3
5.650e+1, 4.058e-3
5.660e+1, 4.238e-3
5.670e+1, 4.205e-3
5.680e+1, 4.221e-3
5.690e+1, 4.179e-3
5.700e+1, 4.180e-3
5.710e+1, 4.185e-3
5.720e+1, 4.187e-3
5.730e+1, 4.161e-3
5.740e+1, 4.146e-3
5.750e+1, 4.143e-3
5.760e+1, 4.128e-3
5.770e+1, 4.118e-3
5.780e+1, 4.111e-3
5.790e+1, 4.101e-3
5.800e+1, 4.102e-3
5.810e+1, 4.137e-3
5.820e+1, 4.116e-3
5.830e+1, 4.095e-3
5.840e+1, 4.101e-3
5.850e+1, 4.092e-3
5.860e+1, 4.085e-3
5.870e+1, 4.077e-3
5.880e+1, 4.100e-3
5.890e+1, 4.135e-3
5.900e+1, 4.137e-3
5.910e+1, 4.123e-3
5.920e+1, 4.105e-3
5.930e+1, 4.083e-3
5.940e+1, 4.091e-3
5.950e+1, 4.109e-3
5.960e+1, 4.096e-3
5.970e+1, 4.095e-3
5.980e+1, 4.076e-3
5.990e+1, 4.074e-3
6.000e+1, 4.092e-3
6.010e+1, 4.083e-3
6.020e+1, 4.063e-3
6.030e+1, 4.073e-3
6.040e+1, 4.091e-3
6.050e+1, 4.094e-3
6.060e+1, 4.096e-3
6.070e+1, 4.099e-3
6.080e+1, 4.089e-3
6.090e+1, 4.084e-3
6.100e+1, 4.080e-3
6.110e+1, 4.071e-3
6.120e+1, 4.075e-3
6.130e+1, 4.055e-3
6.140e+1, 4.077e-3
6.150e+1, 4.082e-3
6.160e+1, 4.089e-3
6.170e+1, 4.086e-3
6.180e+1, 4.077e-3
6.190e+1, 4.072e-3
6.200e+1, 4.065e-3
6.210e+1, 4.096e-3
6.220e+1, 4.117e-3
6.230e+1, 4.106e-3
6.240e+1, 4.128e-3
6.250e+1, 4.128e-3
6.260e+1, 4.129e-3
6.270e+1, 4.112e-3
6.280e+1, 4.133e-3
6.290e+1, 4.127e-3
6.300e+1, 4.123e-3
6.310e+1, 4.122e-3
6.320e+1, 4.103e-3
6.330e+1, 4.099e-3
6.340e+1, 4.086e-3
6.350e+1, 4.077e-3
6.360e+1, 4.086e-3
6.370e+1, 4.081e-3
6.380e+1, 4.082e-3
6.390e+1, 4.076e-3
6.400e+1, 4.053e-3
6.410e+1, 4.071e-3
6.420e+1, 4.076e-3
6.430e+1, 4.075e-3
6.440e+1, 4.095e-3
6.450e+1, 4.087e-3
6.460e+1, 4.079e-3
6.470e+1, 4.065e-3
6.480e+1, 4.070e-3
6.490e+1, 4.071e-3
6.500e+1, 4.105e-3
6.510e+1, 4.096e-3
6.520e+1, 4.107e-3
6.530e+1, 4.102e-3
6.540e+1, 4.094e-3
6.550e+1, 4.090e-3
6.560e+1, 4.087e-3
6.570e+1, 4.100e-3
6.580e+1, 4.133e-3
6.590e+1, 4.138e-3
6.600e+1, 4.140e-3
6.610e+1, 4.132e-3
6.620e+1, 4.119e-3
6.630e+1, 4.109e-3
6.640e+1, 4.099e-3
6.650e+1, 4.097e-3
6.660e+1, 4.088e-3
6.670e+1, 4.078e-3
6.680e+1, 4.083e-3
6.690e+1, 4.099e-3
6.700e+1, 4.099e-3
6.710e+1, 4.113e-3
6.720e+1, 4.114e-3
6.730e+1, 4.124e-3
6.740e+1, 4.101e-3
6.750e+1, 4.084e-3
6.760e+1, 4.102e-3
6.770e+1, 4.103e-3
6.780e+1, 4.104e-3
6.790e+1, 4.102e-3
6.800e+1, 4.200e-3
6.810e+1, 4.173e-3
6.820e+1, 4.182e-3
6.830e+1, 4.179e-3
6.840e+1, 4.163e-3
6.850e+1, 4.167e-3
6.860e+1, 4.164e-3
6.870e+1, 4.156e-3
6.880e+1, 4.163e-3
6.890e+1, 4.166e-3
6.900e+1, 4.146e-3
6.910e+1, 4.138e-3
6.920e+1, 4.143e-3
6.930e+1, 4.132e-3
6.940e+1, 4.140e-3
6.950e+1, 4.146e-3
6.960e+1, 4.161e-3
6.970e+1, 4.164e-3
6.980e+1, 4.164e-3
6.990e+1, 4.158e-3
7.000e+1, 4.155e-3
7.010e+1, 4.160e-3
7.020e+1, 4.157e-3
7.030e+1, 4.157e-3
7.040e+1, 4.155e-3
7.050e+1, 4.178e-3
7.060e+1, 4.180e-3
7.070e+1, 4.168e-3
7.080e+1, 4.171e-3
7.090e+1, 4.170e-3
7.100e+1, 4.164e-3
7.110e+1, 4.161e-3
7.120e+1, 4.156e-3
7.130e+1, 4.164e-3
7.140e+1, 4.165e-3
7.150e+1, 4.157e-3
7.160e+1, 4.202e-3
7.170e+1, 4.210e-3
7.180e+1, 4.206e-3
7.190e+1, 4.189e-3
7.200e+1, 4.176e-3
7.210e+1, 4.178e-3
7.220e+1, 4.194e-3
7.230e+1, 4.190e-3
7.240e+1, 4.185e-3
7.250e+1, 4.198e-3
7.260e+1, 4.198e-3
7.270e+1, 4.197e-3
7.280e+1, 4.194e-3
7.290e+1, 4.167e-3
7.300e+1, 4.164e-3
7.310e+1, 4.155e-3
7.320e+1, 4.156e-3
7.330e+1, 4.160e-3
7.340e+1, 4.184e-3
7.350e+1, 4.178e-3
7.360e+1, 4.198e-3
7.370e+1, 4.210e-3
7.380e+1, 4.213e-3
7.390e+1, 4.229e-3
7.400e+1, 4.250e-3
7.410e+1, 4.280e-3
7.420e+1, 4.296e-3
7.430e+1, 4.273e-3
7.440e+1, 4.253e-3
7.450e+1, 4.236e-3
7.460e+1, 4.239e-3
7.470e+1, 4.256e-3
7.480e+1, 4.263e-3
7.490e+1, 4.258e-3
7.500e+1, 4.227e-3
7.510e+1, 4.211e-3
7.520e+1, 4.225e-3
7.530e+1, 4.237e-3
7.540e+1, 4.219e-3
7.550e+1, 4.193e-3
7.560e+1, 4.164e-3
7.570e+1, 4.151e-3
7.580e+1, 4.163e-3
7.590e+1, 4.179e-3
7.600e+1, 4.172e-3
7.610e+1, 4.170e-3
7.620e+1, 4.145e-3
7.630e+1, 4.135e-3
7.640e+1, 4.165e-3
7.650e+1, 4.173e-3
7.660e+1, 4.160e-3
7.670e+1, 4.142e-3
7.680e+1, 4.146e-3
7.690e+1, 4.168e-3
7.700e+1, 4.173e-3
7.710e+1, 4.170e-3
7.720e+1, 4.135e-3
7.730e+1, 4.130e-3
7.740e+1, 4.162e-3
7.750e+1, 4.174e-3
7.760e+1, 4.169e-3
7.770e+1, 4.174e-3
7.780e+1, 4.178e-3
7.790e+1, 4.173e-3
7.800e+1, 4.175e-3
7.810e+1, 4.186e-3
7.820e+1, 4.197e-3
7.830e+1, 4.228e-3
7.840e+1, 4.248e-3
7.850e+1, 4.254e-3
7.860e+1, 4.231e-3
7.870e+1, 4.214e-3
7.880e+1, 4.212e-3
7.890e+1, 4.210e-3
7.900e+1, 4.199e-3
7.910e+1, 4.179e-3
7.920e+1, 4.159e-3
7.930e+1, 4.152e-3
7.940e+1, 4.145e-3
7.950e+1, 4.145e-3
7.960e+1, 4.151e-3
7.970e+1, 4.144e-3
7.980e+1, 4.140e-3
7.990e+1, 4.144e-3
8.000e+1, 4.156e-3
8.010e+1, 4.168e-3
8.020e+1, 4.169e-3
8.030e+1, 4.154e-3
8.040e+1, 4.160e-3
8.050e+1, 4.170e-3
8.060e+1, 4.160e-3
8.070e+1, 4.153e-3
8.080e+1, 4.176e-3
8.090e+1, 4.178e-3
8.100e+1, 4.183e-3
8.110e+1, 4.183e-3
8.120e+1, 4.193e-3
8.130e+1, 4.190e-3
8.140e+1, 4.201e-3
8.150e+1, 4.203e-3
8.160e+1, 4.244e-3
8.170e+1, 4.229e-3
8.180e+1, 4.220e-3
8.190e+1, 4.238e-3
8.200e+1, 4.232e-3
8.210e+1, 4.238e-3
8.220e+1, 4.234e-3
8.230e+1, 4.239e-3
8.240e+1, 4.238e-3
8.250e+1, 4.240e-3
8.260e+1, 4.236e-3
8.270e+1, 4.245e-3
8.280e+1, 4.230e-3
8.290e+1, 4.209e-3
8.300e+1, 4.200e-3
8.310e+1, 4.197e-3
8.320e+1, 4.184e-3
8.330e+1, 4.183e-3
8.340e+1, 4.184e-3
8.350e+1, 4.185e-3
8.360e+1, 4.177e-3
8.370e+1, 4.176e-3
8.380e+1, 4.189e-3
8.390e+1, 4.199e-3
8.400e+1, 4.215e-3
8.410e+1, 4.221e-3
8.420e+1, 4.231e-3
8.430e+1, 4.232e-3
8.440e+1, 4.237e-3
8.450e+1, 4.233e-3
8.460e+1, 4.221e-3
8.470e+1, 4.224e-3
8.480e+1, 4.228e-3
8.490e+1, 4.230e-3
8.500e+1, 4.231e-3
8.510e+1, 4.220e-3
8.520e+1, 4.221e-3
8.530e+1, 4.233e-3
8.540e+1, 4.240e-3
8.550e+1, 4.223e-3
8.560e+1, 4.213e-3
8.570e+1, 4.224e-3
8.580e+1, 4.231e-3
8.590e+1, 4.225e-3
8.600e+1, 4.228e-3
