Sept. 23, 2024   15:02:48
Linear Sweep Voltammetry
File: c:/users/guazh/data/20240922_batch_417_500/2024-09-22-exp426\regeneratedgce-2024-09-23t14_59_45-lsvinkoh\regeneratedgce_lsv_50mvs_efin_-1700mv.bin
Data Source:  Experiment
Instrument Model:  CHI760E
Header: LSV ran at 50 mVs with Efin at -1700mV
Note: 

Init E (V) = -0.6
Final E (V) = -1.7
Scan Rate (V/s) = 0.05
Sample Interval (V) = 0.001
Quiet Time (sec) = 2
Sensitivity (A/V) = 1e-4
Comp R (ohm) = 3.6

Results:

Channel 1:

Potential/V, Current/A

-0.600, 1.014e-6
-0.601, 1.125e-6
-0.602, 1.153e-6
-0.603, 1.169e-6
-0.604, 1.183e-6
-0.605, 1.192e-6
-0.606, 1.202e-6
-0.607, 1.210e-6
-0.608, 1.219e-6
-0.609, 1.227e-6
-0.610, 1.234e-6
-0.611, 1.242e-6
-0.612, 1.249e-6
-0.613, 1.255e-6
-0.614, 1.264e-6
-0.615, 1.270e-6
-0.616, 1.275e-6
-0.617, 1.281e-6
-0.618, 1.287e-6
-0.619, 1.293e-6
-0.620, 1.299e-6
-0.621, 1.304e-6
-0.622, 1.312e-6
-0.623, 1.316e-6
-0.624, 1.322e-6
-0.625, 1.327e-6
-0.626, 1.333e-6
-0.627, 1.339e-6
-0.628, 1.345e-6
-0.629, 1.350e-6
-0.630, 1.355e-6
-0.631, 1.360e-6
-0.632, 1.365e-6
-0.633, 1.371e-6
-0.634, 1.375e-6
-0.635, 1.380e-6
-0.636, 1.387e-6
-0.637, 1.391e-6
-0.638, 1.396e-6
-0.639, 1.401e-6
-0.640, 1.405e-6
-0.641, 1.412e-6
-0.642, 1.414e-6
-0.643, 1.419e-6
-0.644, 1.426e-6
-0.645, 1.429e-6
-0.646, 1.436e-6
-0.647, 1.440e-6
-0.648, 1.446e-6
-0.649, 1.451e-6
-0.650, 1.453e-6
-0.651, 1.458e-6
-0.652, 1.463e-6
-0.653, 1.468e-6
-0.654, 1.475e-6
-0.655, 1.477e-6
-0.656, 1.482e-6
-0.657, 1.486e-6
-0.658, 1.492e-6
-0.659, 1.496e-6
-0.660, 1.501e-6
-0.661, 1.504e-6
-0.662, 1.509e-6
-0.663, 1.514e-6
-0.664, 1.519e-6
-0.665, 1.524e-6
-0.666, 1.530e-6
-0.667, 1.534e-6
-0.668, 1.537e-6
-0.669, 1.542e-6
-0.670, 1.546e-6
-0.671, 1.551e-6
-0.672, 1.555e-6
-0.673, 1.560e-6
-0.674, 1.564e-6
-0.675, 1.570e-6
-0.676, 1.574e-6
-0.677, 1.578e-6
-0.678, 1.583e-6
-0.679, 1.588e-6
-0.680, 1.591e-6
-0.681, 1.595e-6
-0.682, 1.599e-6
-0.683, 1.606e-6
-0.684, 1.611e-6
-0.685, 1.613e-6
-0.686, 1.618e-6
-0.687, 1.620e-6
-0.688, 1.627e-6
-0.689, 1.631e-6
-0.690, 1.633e-6
-0.691, 1.639e-6
-0.692, 1.643e-6
-0.693, 1.646e-6
-0.694, 1.652e-6
-0.695, 1.655e-6
-0.696, 1.660e-6
-0.697, 1.664e-6
-0.698, 1.669e-6
-0.699, 1.673e-6
-0.700, 1.676e-6
-0.701, 1.680e-6
-0.702, 1.685e-6
-0.703, 1.688e-6
-0.704, 1.694e-6
-0.705, 1.699e-6
-0.706, 1.702e-6
-0.707, 1.707e-6
-0.708, 1.711e-6
-0.709, 1.714e-6
-0.710, 1.718e-6
-0.711, 1.722e-6
-0.712, 1.725e-6
-0.713, 1.730e-6
-0.714, 1.733e-6
-0.715, 1.738e-6
-0.716, 1.742e-6
-0.717, 1.746e-6
-0.718, 1.751e-6
-0.719, 1.756e-6
-0.720, 1.758e-6
-0.721, 1.763e-6
-0.722, 1.766e-6
-0.723, 1.770e-6
-0.724, 1.775e-6
-0.725, 1.776e-6
-0.726, 1.783e-6
-0.727, 1.787e-6
-0.728, 1.790e-6
-0.729, 1.796e-6
-0.730, 1.799e-6
-0.731, 1.803e-6
-0.732, 1.807e-6
-0.733, 1.811e-6
-0.734, 1.815e-6
-0.735, 1.818e-6
-0.736, 1.823e-6
-0.737, 1.828e-6
-0.738, 1.830e-6
-0.739, 1.835e-6
-0.740, 1.839e-6
-0.741, 1.842e-6
-0.742, 1.847e-6
-0.743, 1.851e-6
-0.744, 1.857e-6
-0.745, 1.860e-6
-0.746, 1.863e-6
-0.747, 1.867e-6
-0.748, 1.870e-6
-0.749, 1.875e-6
-0.750, 1.879e-6
-0.751, 1.883e-6
-0.752, 1.887e-6
-0.753, 1.892e-6
-0.754, 1.895e-6
-0.755, 1.899e-6
-0.756, 1.904e-6
-0.757, 1.906e-6
-0.758, 1.911e-6
-0.759, 1.914e-6
-0.760, 1.917e-6
-0.761, 1.922e-6
-0.762, 1.925e-6
-0.763, 1.929e-6
-0.764, 1.933e-6
-0.765, 1.935e-6
-0.766, 1.942e-6
-0.767, 1.945e-6
-0.768, 1.950e-6
-0.769, 1.954e-6
-0.770, 1.956e-6
-0.771, 1.961e-6
-0.772, 1.964e-6
-0.773, 1.969e-6
-0.774, 1.973e-6
-0.775, 1.976e-6
-0.776, 1.978e-6
-0.777, 1.985e-6
-0.778, 1.987e-6
-0.779, 1.991e-6
-0.780, 1.994e-6
-0.781, 1.998e-6
-0.782, 2.003e-6
-0.783, 2.007e-6
-0.784, 2.012e-6
-0.785, 2.015e-6
-0.786, 2.018e-6
-0.787, 2.022e-6
-0.788, 2.027e-6
-0.789, 2.029e-6
-0.790, 2.033e-6
-0.791, 2.038e-6
-0.792, 2.042e-6
-0.793, 2.047e-6
-0.794, 2.051e-6
-0.795, 2.054e-6
-0.796, 2.059e-6
-0.797, 2.061e-6
-0.798, 2.066e-6
-0.799, 2.071e-6
-0.800, 2.074e-6
-0.801, 2.079e-6
-0.802, 2.082e-6
-0.803, 2.086e-6
-0.804, 2.091e-6
-0.805, 2.093e-6
-0.806, 2.098e-6
-0.807, 2.102e-6
-0.808, 2.105e-6
-0.809, 2.110e-6
-0.810, 2.112e-6
-0.811, 2.116e-6
-0.812, 2.121e-6
-0.813, 2.125e-6
-0.814, 2.130e-6
-0.815, 2.132e-6
-0.816, 2.136e-6
-0.817, 2.140e-6
-0.818, 2.144e-6
-0.819, 2.152e-6
-0.820, 2.156e-6
-0.821, 2.157e-6
-0.822, 2.161e-6
-0.823, 2.165e-6
-0.824, 2.169e-6
-0.825, 2.173e-6
-0.826, 2.176e-6
-0.827, 2.180e-6
-0.828, 2.185e-6
-0.829, 2.188e-6
-0.830, 2.192e-6
-0.831, 2.195e-6
-0.832, 2.199e-6
-0.833, 2.205e-6
-0.834, 2.207e-6
-0.835, 2.212e-6
-0.836, 2.216e-6
-0.837, 2.220e-6
-0.838, 2.224e-6
-0.839, 2.227e-6
-0.840, 2.230e-6
-0.841, 2.234e-6
-0.842, 2.238e-6
-0.843, 2.243e-6
-0.844, 2.246e-6
-0.845, 2.250e-6
-0.846, 2.253e-6
-0.847, 2.257e-6
-0.848, 2.263e-6
-0.849, 2.267e-6
-0.850, 2.270e-6
-0.851, 2.275e-6
-0.852, 2.279e-6
-0.853, 2.281e-6
-0.854, 2.287e-6
-0.855, 2.290e-6
-0.856, 2.294e-6
-0.857, 2.301e-6
-0.858, 2.303e-6
-0.859, 2.308e-6
-0.860, 2.311e-6
-0.861, 2.314e-6
-0.862, 2.318e-6
-0.863, 2.322e-6
-0.864, 2.327e-6
-0.865, 2.332e-6
-0.866, 2.336e-6
-0.867, 2.341e-6
-0.868, 2.345e-6
-0.869, 2.348e-6
-0.870, 2.354e-6
-0.871, 2.359e-6
-0.872, 2.362e-6
-0.873, 2.368e-6
-0.874, 2.370e-6
-0.875, 2.374e-6
-0.876, 2.378e-6
-0.877, 2.383e-6
-0.878, 2.389e-6
-0.879, 2.393e-6
-0.880, 2.396e-6
-0.881, 2.402e-6
-0.882, 2.405e-6
-0.883, 2.411e-6
-0.884, 2.414e-6
-0.885, 2.418e-6
-0.886, 2.425e-6
-0.887, 2.429e-6
-0.888, 2.435e-6
-0.889, 2.441e-6
-0.890, 2.443e-6
-0.891, 2.447e-6
-0.892, 2.450e-6
-0.893, 2.454e-6
-0.894, 2.458e-6
-0.895, 2.461e-6
-0.896, 2.467e-6
-0.897, 2.472e-6
-0.898, 2.476e-6
-0.899, 2.481e-6
-0.900, 2.483e-6
-0.901, 2.488e-6
-0.902, 2.493e-6
-0.903, 2.497e-6
-0.904, 2.501e-6
-0.905, 2.505e-6
-0.906, 2.508e-6
-0.907, 2.513e-6
-0.908, 2.519e-6
-0.909, 2.525e-6
-0.910, 2.530e-6
-0.911, 2.533e-6
-0.912, 2.537e-6
-0.913, 2.542e-6
-0.914, 2.547e-6
-0.915, 2.551e-6
-0.916, 2.555e-6
-0.917, 2.561e-6
-0.918, 2.565e-6
-0.919, 2.569e-6
-0.920, 2.574e-6
-0.921, 2.578e-6
-0.922, 2.584e-6
-0.923, 2.590e-6
-0.924, 2.594e-6
-0.925, 2.597e-6
-0.926, 2.602e-6
-0.927, 2.605e-6
-0.928, 2.611e-6
-0.929, 2.617e-6
-0.930, 2.619e-6
-0.931, 2.625e-6
-0.932, 2.631e-6
-0.933, 2.635e-6
-0.934, 2.641e-6
-0.935, 2.644e-6
-0.936, 2.649e-6
-0.937, 2.656e-6
-0.938, 2.660e-6
-0.939, 2.664e-6
-0.940, 2.668e-6
-0.941, 2.673e-6
-0.942, 2.679e-6
-0.943, 2.683e-6
-0.944, 2.688e-6
-0.945, 2.692e-6
-0.946, 2.696e-6
-0.947, 2.702e-6
-0.948, 2.708e-6
-0.949, 2.713e-6
-0.950, 2.717e-6
-0.951, 2.721e-6
-0.952, 2.726e-6
-0.953, 2.731e-6
-0.954, 2.735e-6
-0.955, 2.740e-6
-0.956, 2.746e-6
-0.957, 2.751e-6
-0.958, 2.757e-6
-0.959, 2.761e-6
-0.960, 2.766e-6
-0.961, 2.771e-6
-0.962, 2.774e-6
-0.963, 2.782e-6
-0.964, 2.787e-6
-0.965, 2.791e-6
-0.966, 2.799e-6
-0.967, 2.803e-6
-0.968, 2.807e-6
-0.969, 2.813e-6
-0.970, 2.816e-6
-0.971, 2.821e-6
-0.972, 2.828e-6
-0.973, 2.836e-6
-0.974, 2.842e-6
-0.975, 2.844e-6
-0.976, 2.849e-6
-0.977, 2.854e-6
-0.978, 2.859e-6
-0.979, 2.866e-6
-0.980, 2.870e-6
-0.981, 2.875e-6
-0.982, 2.881e-6
-0.983, 2.886e-6
-0.984, 2.891e-6
-0.985, 2.898e-6
-0.986, 2.901e-6
-0.987, 2.908e-6
-0.988, 2.914e-6
-0.989, 2.918e-6
-0.990, 2.924e-6
-0.991, 2.929e-6
-0.992, 2.936e-6
-0.993, 2.942e-6
-0.994, 2.946e-6
-0.995, 2.951e-6
-0.996, 2.956e-6
-0.997, 2.962e-6
-0.998, 2.969e-6
-0.999, 2.976e-6
-1.000, 2.981e-6
-1.001, 2.987e-6
-1.002, 2.990e-6
-1.003, 2.995e-6
-1.004, 3.000e-6
-1.005, 3.005e-6
-1.006, 3.012e-6
-1.007, 3.018e-6
-1.008, 3.024e-6
-1.009, 3.030e-6
-1.010, 3.034e-6
-1.011, 3.040e-6
-1.012, 3.045e-6
-1.013, 3.051e-6
-1.014, 3.056e-6
-1.015, 3.061e-6
-1.016, 3.067e-6
-1.017, 3.075e-6
-1.018, 3.078e-6
-1.019, 3.085e-6
-1.020, 3.089e-6
-1.021, 3.093e-6
-1.022, 3.099e-6
-1.023, 3.104e-6
-1.024, 3.112e-6
-1.025, 3.118e-6
-1.026, 3.121e-6
-1.027, 3.127e-6
-1.028, 3.132e-6
-1.029, 3.137e-6
-1.030, 3.142e-6
-1.031, 3.147e-6
-1.032, 3.152e-6
-1.033, 3.158e-6
-1.034, 3.163e-6
-1.035, 3.168e-6
-1.036, 3.174e-6
-1.037, 3.180e-6
-1.038, 3.186e-6
-1.039, 3.189e-6
-1.040, 3.194e-6
-1.041, 3.199e-6
-1.042, 3.203e-6
-1.043, 3.209e-6
-1.044, 3.216e-6
-1.045, 3.220e-6
-1.046, 3.225e-6
-1.047, 3.228e-6
-1.048, 3.231e-6
-1.049, 3.239e-6
-1.050, 3.243e-6
-1.051, 3.248e-6
-1.052, 3.254e-6
-1.053, 3.258e-6
-1.054, 3.263e-6
-1.055, 3.267e-6
-1.056, 3.272e-6
-1.057, 3.277e-6
-1.058, 3.281e-6
-1.059, 3.286e-6
-1.060, 3.291e-6
-1.061, 3.294e-6
-1.062, 3.302e-6
-1.063, 3.305e-6
-1.064, 3.311e-6
-1.065, 3.317e-6
-1.066, 3.320e-6
-1.067, 3.326e-6
-1.068, 3.331e-6
-1.069, 3.335e-6
-1.070, 3.340e-6
-1.071, 3.344e-6
-1.072, 3.350e-6
-1.073, 3.357e-6
-1.074, 3.360e-6
-1.075, 3.367e-6
-1.076, 3.372e-6
-1.077, 3.375e-6
-1.078, 3.379e-6
-1.079, 3.384e-6
-1.080, 3.389e-6
-1.081, 3.393e-6
-1.082, 3.398e-6
-1.083, 3.404e-6
-1.084, 3.408e-6
-1.085, 3.411e-6
-1.086, 3.415e-6
-1.087, 3.419e-6
-1.088, 3.425e-6
-1.089, 3.432e-6
-1.090, 3.435e-6
-1.091, 3.441e-6
-1.092, 3.444e-6
-1.093, 3.447e-6
-1.094, 3.453e-6
-1.095, 3.456e-6
-1.096, 3.459e-6
-1.097, 3.466e-6
-1.098, 3.470e-6
-1.099, 3.475e-6
-1.100, 3.481e-6
-1.101, 3.485e-6
-1.102, 3.490e-6
-1.103, 3.493e-6
-1.104, 3.497e-6
-1.105, 3.501e-6
-1.106, 3.505e-6
-1.107, 3.512e-6
-1.108, 3.517e-6
-1.109, 3.520e-6
-1.110, 3.525e-6
-1.111, 3.528e-6
-1.112, 3.532e-6
-1.113, 3.537e-6
-1.114, 3.543e-6
-1.115, 3.546e-6
-1.116, 3.550e-6
-1.117, 3.553e-6
-1.118, 3.559e-6
-1.119, 3.562e-6
-1.120, 3.566e-6
-1.121, 3.570e-6
-1.122, 3.576e-6
-1.123, 3.581e-6
-1.124, 3.587e-6
-1.125, 3.589e-6
-1.126, 3.595e-6
-1.127, 3.597e-6
-1.128, 3.602e-6
-1.129, 3.608e-6
-1.130, 3.611e-6
-1.131, 3.615e-6
-1.132, 3.621e-6
-1.133, 3.624e-6
-1.134, 3.631e-6
-1.135, 3.633e-6
-1.136, 3.638e-6
-1.137, 3.645e-6
-1.138, 3.649e-6
-1.139, 3.656e-6
-1.140, 3.661e-6
-1.141, 3.662e-6
-1.142, 3.667e-6
-1.143, 3.670e-6
-1.144, 3.674e-6
-1.145, 3.681e-6
-1.146, 3.685e-6
-1.147, 3.690e-6
-1.148, 3.694e-6
-1.149, 3.697e-6
-1.150, 3.701e-6
-1.151, 3.706e-6
-1.152, 3.710e-6
-1.153, 3.715e-6
-1.154, 3.718e-6
-1.155, 3.723e-6
-1.156, 3.728e-6
-1.157, 3.732e-6
-1.158, 3.738e-6
-1.159, 3.741e-6
-1.160, 3.745e-6
-1.161, 3.749e-6
-1.162, 3.753e-6
-1.163, 3.757e-6
-1.164, 3.762e-6
-1.165, 3.766e-6
-1.166, 3.771e-6
-1.167, 3.775e-6
-1.168, 3.779e-6
-1.169, 3.785e-6
-1.170, 3.787e-6
-1.171, 3.793e-6
-1.172, 3.798e-6
-1.173, 3.801e-6
-1.174, 3.806e-6
-1.175, 3.810e-6
-1.176, 3.815e-6
-1.177, 3.821e-6
-1.178, 3.826e-6
-1.179, 3.831e-6
-1.180, 3.833e-6
-1.181, 3.836e-6
-1.182, 3.841e-6
-1.183, 3.846e-6
-1.184, 3.852e-6
-1.185, 3.855e-6
-1.186, 3.857e-6
-1.187, 3.863e-6
-1.188, 3.868e-6
-1.189, 3.872e-6
-1.190, 3.877e-6
-1.191, 3.879e-6
-1.192, 3.884e-6
-1.193, 3.889e-6
-1.194, 3.890e-6
-1.195, 3.896e-6
-1.196, 3.901e-6
-1.197, 3.906e-6
-1.198, 3.912e-6
-1.199, 3.916e-6
-1.200, 3.917e-6
-1.201, 3.922e-6
-1.202, 3.924e-6
-1.203, 3.930e-6
-1.204, 3.936e-6
-1.205, 3.939e-6
-1.206, 3.945e-6
-1.207, 3.947e-6
-1.208, 3.950e-6
-1.209, 3.955e-6
-1.210, 3.959e-6
-1.211, 3.962e-6
-1.212, 3.966e-6
-1.213, 3.969e-6
-1.214, 3.975e-6
-1.215, 3.978e-6
-1.216, 3.983e-6
-1.217, 3.990e-6
-1.218, 3.991e-6
-1.219, 3.996e-6
-1.220, 3.999e-6
-1.221, 4.000e-6
-1.222, 4.008e-6
-1.223, 4.010e-6
-1.224, 4.016e-6
-1.225, 4.023e-6
-1.226, 4.024e-6
-1.227, 4.029e-6
-1.228, 4.034e-6
-1.229, 4.046e-6
-1.230, 4.045e-6
-1.231, 4.045e-6
-1.232, 4.050e-6
-1.233, 4.055e-6
-1.234, 4.058e-6
-1.235, 4.064e-6
-1.236, 4.068e-6
-1.237, 4.071e-6
-1.238, 4.075e-6
-1.239, 4.078e-6
-1.240, 4.080e-6
-1.241, 4.084e-6
-1.242, 4.091e-6
-1.243, 4.097e-6
-1.244, 4.102e-6
-1.245, 4.105e-6
-1.246, 4.108e-6
-1.247, 4.111e-6
-1.248, 4.114e-6
-1.249, 4.120e-6
-1.250, 4.121e-6
-1.251, 4.127e-6
-1.252, 4.131e-6
-1.253, 4.135e-6
-1.254, 4.141e-6
-1.255, 4.144e-6
-1.256, 4.146e-6
-1.257, 4.151e-6
-1.258, 4.153e-6
-1.259, 4.159e-6
-1.260, 4.163e-6
-1.261, 4.167e-6
-1.262, 4.172e-6
-1.263, 4.174e-6
-1.264, 4.180e-6
-1.265, 4.182e-6
-1.266, 4.183e-6
-1.267, 4.189e-6
-1.268, 4.193e-6
-1.269, 4.197e-6
-1.270, 4.200e-6
-1.271, 4.202e-6
-1.272, 4.206e-6
-1.273, 4.212e-6
-1.274, 4.216e-6
-1.275, 4.221e-6
-1.276, 4.224e-6
-1.277, 4.227e-6
-1.278, 4.232e-6
-1.279, 4.235e-6
-1.280, 4.241e-6
-1.281, 4.246e-6
-1.282, 4.249e-6
-1.283, 4.252e-6
-1.284, 4.256e-6
-1.285, 4.257e-6
-1.286, 4.261e-6
-1.287, 4.267e-6
-1.288, 4.271e-6
-1.289, 4.278e-6
-1.290, 4.282e-6
-1.291, 4.286e-6
-1.292, 4.290e-6
-1.293, 4.292e-6
-1.294, 4.297e-6
-1.295, 4.299e-6
-1.296, 4.303e-6
-1.297, 4.310e-6
-1.298, 4.313e-6
-1.299, 4.318e-6
-1.300, 4.323e-6
-1.301, 4.324e-6
-1.302, 4.330e-6
-1.303, 4.332e-6
-1.304, 4.337e-6
-1.305, 4.341e-6
-1.306, 4.344e-6
-1.307, 4.349e-6
-1.308, 4.353e-6
-1.309, 4.357e-6
-1.310, 4.363e-6
-1.311, 4.366e-6
-1.312, 4.374e-6
-1.313, 4.378e-6
-1.314, 4.382e-6
-1.315, 4.387e-6
-1.316, 4.388e-6
-1.317, 4.390e-6
-1.318, 4.396e-6
-1.319, 4.400e-6
-1.320, 4.404e-6
-1.321, 4.409e-6
-1.322, 4.413e-6
-1.323, 4.419e-6
-1.324, 4.423e-6
-1.325, 4.428e-6
-1.326, 4.432e-6
-1.327, 4.435e-6
-1.328, 4.438e-6
-1.329, 4.444e-6
-1.330, 4.447e-6
-1.331, 4.453e-6
-1.332, 4.461e-6
-1.333, 4.463e-6
-1.334, 4.468e-6
-1.335, 4.472e-6
-1.336, 4.473e-6
-1.337, 4.479e-6
-1.338, 4.481e-6
-1.339, 4.488e-6
-1.340, 4.494e-6
-1.341, 4.496e-6
-1.342, 4.503e-6
-1.343, 4.508e-6
-1.344, 4.516e-6
-1.345, 4.520e-6
-1.346, 4.520e-6
-1.347, 4.525e-6
-1.348, 4.529e-6
-1.349, 4.535e-6
-1.350, 4.542e-6
-1.351, 4.545e-6
-1.352, 4.550e-6
-1.353, 4.556e-6
-1.354, 4.558e-6
-1.355, 4.562e-6
-1.356, 4.566e-6
-1.357, 4.571e-6
-1.358, 4.576e-6
-1.359, 4.580e-6
-1.360, 4.584e-6
-1.361, 4.591e-6
-1.362, 4.593e-6
-1.363, 4.601e-6
-1.364, 4.608e-6
-1.365, 4.611e-6
-1.366, 4.616e-6
-1.367, 4.620e-6
-1.368, 4.624e-6
-1.369, 4.630e-6
-1.370, 4.632e-6
-1.371, 4.636e-6
-1.372, 4.642e-6
-1.373, 4.646e-6
-1.374, 4.653e-6
-1.375, 4.657e-6
-1.376, 4.662e-6
-1.377, 4.668e-6
-1.378, 4.672e-6
-1.379, 4.677e-6
-1.380, 4.681e-6
-1.381, 4.684e-6
-1.382, 4.694e-6
-1.383, 4.699e-6
-1.384, 4.702e-6
-1.385, 4.707e-6
-1.386, 4.709e-6
-1.387, 4.717e-6
-1.388, 4.722e-6
-1.389, 4.726e-6
-1.390, 4.733e-6
-1.391, 4.735e-6
-1.392, 4.743e-6
-1.393, 4.747e-6
-1.394, 4.750e-6
-1.395, 4.756e-6
-1.396, 4.761e-6
-1.397, 4.765e-6
-1.398, 4.772e-6
-1.399, 4.778e-6
-1.400, 4.785e-6
-1.401, 4.788e-6
-1.402, 4.793e-6
-1.403, 4.797e-6
-1.404, 4.802e-6
-1.405, 4.807e-6
-1.406, 4.814e-6
-1.407, 4.818e-6
-1.408, 4.822e-6
-1.409, 4.830e-6
-1.410, 4.833e-6
-1.411, 4.840e-6
-1.412, 4.847e-6
-1.413, 4.850e-6
-1.414, 4.857e-6
-1.415, 4.860e-6
-1.416, 4.864e-6
-1.417, 4.870e-6
-1.418, 4.873e-6
-1.419, 4.883e-6
-1.420, 4.890e-6
-1.421, 4.896e-6
-1.422, 4.901e-6
-1.423, 4.903e-6
-1.424, 4.910e-6
-1.425, 4.915e-6
-1.426, 4.919e-6
-1.427, 4.926e-6
-1.428, 4.930e-6
-1.429, 4.936e-6
-1.430, 4.943e-6
-1.431, 4.946e-6
-1.432, 4.955e-6
-1.433, 4.963e-6
-1.434, 4.970e-6
-1.435, 4.975e-6
-1.436, 4.978e-6
-1.437, 4.985e-6
-1.438, 4.995e-6
-1.439, 5.000e-6
-1.440, 5.005e-6
-1.441, 5.008e-6
-1.442, 5.013e-6
-1.443, 5.022e-6
-1.444, 5.029e-6
-1.445, 5.035e-6
-1.446, 5.045e-6
-1.447, 5.054e-6
-1.448, 5.061e-6
-1.449, 5.069e-6
-1.450, 5.071e-6
-1.451, 5.077e-6
-1.452, 5.083e-6
-1.453, 5.089e-6
-1.454, 5.103e-6
-1.455, 5.111e-6
-1.456, 5.116e-6
-1.457, 5.122e-6
-1.458, 5.126e-6
-1.459, 5.133e-6
-1.460, 5.139e-6
-1.461, 5.143e-6
-1.462, 5.156e-6
-1.463, 5.162e-6
-1.464, 5.171e-6
-1.465, 5.179e-6
-1.466, 5.182e-6
-1.467, 5.192e-6
-1.468, 5.199e-6
-1.469, 5.205e-6
-1.470, 5.217e-6
-1.471, 5.221e-6
-1.472, 5.230e-6
-1.473, 5.241e-6
-1.474, 5.247e-6
-1.475, 5.259e-6
-1.476, 5.269e-6
-1.477, 5.278e-6
-1.478, 5.287e-6
-1.479, 5.294e-6
-1.480, 5.304e-6
-1.481, 5.312e-6
-1.482, 5.320e-6
-1.483, 5.333e-6
-1.484, 5.345e-6
-1.485, 5.360e-6
-1.486, 5.367e-6
-1.487, 5.375e-6
-1.488, 5.383e-6
-1.489, 5.393e-6
-1.490, 5.403e-6
-1.491, 5.413e-6
-1.492, 5.426e-6
-1.493, 5.435e-6
-1.494, 5.445e-6
-1.495, 5.453e-6
-1.496, 5.464e-6
-1.497, 5.480e-6
-1.498, 5.490e-6
-1.499, 5.506e-6
-1.500, 5.517e-6
-1.501, 5.525e-6
-1.502, 5.540e-6
-1.503, 5.551e-6
-1.504, 5.566e-6
-1.505, 5.581e-6
-1.506, 5.588e-6
-1.507, 5.603e-6
-1.508, 5.615e-6
-1.509, 5.628e-6
-1.510, 5.646e-6
-1.511, 5.658e-6
-1.512, 5.673e-6
-1.513, 5.688e-6
-1.514, 5.699e-6
-1.515, 5.717e-6
-1.516, 5.728e-6
-1.517, 5.744e-6
-1.518, 5.760e-6
-1.519, 5.776e-6
-1.520, 5.797e-6
-1.521, 5.815e-6
-1.522, 5.827e-6
-1.523, 5.844e-6
-1.524, 5.861e-6
-1.525, 5.877e-6
-1.526, 5.892e-6
-1.527, 5.908e-6
-1.528, 5.925e-6
-1.529, 5.946e-6
-1.530, 5.965e-6
-1.531, 5.985e-6
-1.532, 6.003e-6
-1.533, 6.023e-6
-1.534, 6.045e-6
-1.535, 6.064e-6
-1.536, 6.082e-6
-1.537, 6.105e-6
-1.538, 6.126e-6
-1.539, 6.148e-6
-1.540, 6.170e-6
-1.541, 6.189e-6
-1.542, 6.213e-6
-1.543, 6.232e-6
-1.544, 6.253e-6
-1.545, 6.277e-6
-1.546, 6.296e-6
-1.547, 6.323e-6
-1.548, 6.348e-6
-1.549, 6.372e-6
-1.550, 6.399e-6
-1.551, 6.420e-6
-1.552, 6.448e-6
-1.553, 6.476e-6
-1.554, 6.498e-6
-1.555, 6.527e-6
-1.556, 6.554e-6
-1.557, 6.583e-6
-1.558, 6.612e-6
-1.559, 6.640e-6
-1.560, 6.670e-6
-1.561, 6.699e-6
-1.562, 6.725e-6
-1.563, 6.756e-6
-1.564, 6.790e-6
-1.565, 6.821e-6
-1.566, 6.855e-6
-1.567, 6.881e-6
-1.568, 6.913e-6
-1.569, 6.944e-6
-1.570, 6.973e-6
-1.571, 7.006e-6
-1.572, 7.038e-6
-1.573, 7.072e-6
-1.574, 7.109e-6
-1.575, 7.142e-6
-1.576, 7.174e-6
-1.577, 7.214e-6
-1.578, 7.245e-6
-1.579, 7.280e-6
-1.580, 7.317e-6
-1.581, 7.351e-6
-1.582, 7.388e-6
-1.583, 7.422e-6
-1.584, 7.461e-6
-1.585, 7.502e-6
-1.586, 7.536e-6
-1.587, 7.582e-6
-1.588, 7.624e-6
-1.589, 7.662e-6
-1.590, 7.707e-6
-1.591, 7.749e-6
-1.592, 7.806e-6
-1.593, 7.842e-6
-1.594, 7.879e-6
-1.595, 7.927e-6
-1.596, 7.970e-6
-1.597, 8.015e-6
-1.598, 8.066e-6
-1.599, 8.114e-6
-1.600, 8.169e-6
-1.601, 8.226e-6
-1.602, 8.276e-6
-1.603, 8.327e-6
-1.604, 8.379e-6
-1.605, 8.431e-6
-1.606, 8.490e-6
-1.607, 8.543e-6
-1.608, 8.603e-6
-1.609, 8.667e-6
-1.610, 8.726e-6
-1.611, 8.789e-6
-1.612, 8.849e-6
-1.613, 8.909e-6
-1.614, 8.974e-6
-1.615, 9.041e-6
-1.616, 9.111e-6
-1.617, 9.184e-6
-1.618, 9.256e-6
-1.619, 9.328e-6
-1.620, 9.397e-6
-1.621, 9.465e-6
-1.622, 9.545e-6
-1.623, 9.624e-6
-1.624, 9.705e-6
-1.625, 9.793e-6
-1.626, 9.876e-6
-1.627, 9.965e-6
-1.628, 1.005e-5
-1.629, 1.014e-5
-1.630, 1.024e-5
-1.631, 1.033e-5
-1.632, 1.042e-5
-1.633, 1.053e-5
-1.634, 1.063e-5
-1.635, 1.073e-5
-1.636, 1.083e-5
-1.637, 1.094e-5
-1.638, 1.107e-5
-1.639, 1.119e-5
-1.640, 1.130e-5
-1.641, 1.142e-5
-1.642, 1.153e-5
-1.643, 1.166e-5
-1.644, 1.179e-5
-1.645, 1.192e-5
-1.646, 1.205e-5
-1.647, 1.217e-5
-1.648, 1.232e-5
-1.649, 1.247e-5
-1.650, 1.262e-5
-1.651, 1.277e-5
-1.652, 1.293e-5
-1.653, 1.309e-5
-1.654, 1.325e-5
-1.655, 1.341e-5
-1.656, 1.357e-5
-1.657, 1.375e-5
-1.658, 1.392e-5
-1.659, 1.410e-5
-1.660, 1.428e-5
-1.661, 1.447e-5
-1.662, 1.467e-5
-1.663, 1.486e-5
-1.664, 1.507e-5
-1.665, 1.528e-5
-1.666, 1.548e-5
-1.667, 1.570e-5
-1.668, 1.593e-5
-1.669, 1.616e-5
-1.670, 1.639e-5
-1.671, 1.663e-5
-1.672, 1.688e-5
-1.673, 1.714e-5
-1.674, 1.739e-5
-1.675, 1.765e-5
-1.676, 1.792e-5
-1.677, 1.819e-5
-1.678, 1.848e-5
-1.679, 1.877e-5
-1.680, 1.907e-5
-1.681, 1.938e-5
-1.682, 1.969e-5
-1.683, 2.001e-5
-1.684, 2.033e-5
-1.685, 2.067e-5
-1.686, 2.101e-5
-1.687, 2.136e-5
-1.688, 2.173e-5
-1.689, 2.210e-5
-1.690, 2.248e-5
-1.691, 2.287e-5
-1.692, 2.327e-5
-1.693, 2.369e-5
-1.694, 2.412e-5
-1.695, 2.455e-5
-1.696, 2.499e-5
-1.697, 2.545e-5
-1.698, 2.591e-5
-1.699, 2.639e-5
