Sept. 24, 2024   21:56:37
Linear Sweep Voltammetry
File: c:/users/guazh/data/20240922_batch_417_500/2024-09-22-exp438\regeneratedgce-2024-09-24t21_53_34-lsvinkoh\regeneratedgce_lsv_50mvs_efin_-1700mv.bin
Data Source:  Experiment
Instrument Model:  CHI760E
Header: LSV ran at 50 mVs with Efin at -1700mV
Note: 

Init E (V) = -0.6
Final E (V) = -1.7
Scan Rate (V/s) = 0.05
Sample Interval (V) = 0.001
Quiet Time (sec) = 2
Sensitivity (A/V) = 1e-4
Comp R (ohm) = 4.0

Results:

Channel 1:

Potential/V, Current/A

-0.600, 1.232e-6
-0.601, 1.357e-6
-0.602, 1.388e-6
-0.603, 1.402e-6
-0.604, 1.415e-6
-0.605, 1.424e-6
-0.606, 1.434e-6
-0.607, 1.443e-6
-0.608, 1.450e-6
-0.609, 1.460e-6
-0.610, 1.466e-6
-0.611, 1.473e-6
-0.612, 1.480e-6
-0.613, 1.486e-6
-0.614, 1.495e-6
-0.615, 1.501e-6
-0.616, 1.507e-6
-0.617, 1.513e-6
-0.618, 1.517e-6
-0.619, 1.523e-6
-0.620, 1.529e-6
-0.621, 1.535e-6
-0.622, 1.541e-6
-0.623, 1.546e-6
-0.624, 1.551e-6
-0.625, 1.557e-6
-0.626, 1.561e-6
-0.627, 1.567e-6
-0.628, 1.572e-6
-0.629, 1.577e-6
-0.630, 1.582e-6
-0.631, 1.587e-6
-0.632, 1.592e-6
-0.633, 1.598e-6
-0.634, 1.602e-6
-0.635, 1.607e-6
-0.636, 1.612e-6
-0.637, 1.616e-6
-0.638, 1.621e-6
-0.639, 1.625e-6
-0.640, 1.631e-6
-0.641, 1.637e-6
-0.642, 1.640e-6
-0.643, 1.645e-6
-0.644, 1.650e-6
-0.645, 1.652e-6
-0.646, 1.658e-6
-0.647, 1.662e-6
-0.648, 1.666e-6
-0.649, 1.673e-6
-0.650, 1.675e-6
-0.651, 1.681e-6
-0.652, 1.685e-6
-0.653, 1.689e-6
-0.654, 1.694e-6
-0.655, 1.698e-6
-0.656, 1.702e-6
-0.657, 1.708e-6
-0.658, 1.711e-6
-0.659, 1.717e-6
-0.660, 1.720e-6
-0.661, 1.724e-6
-0.662, 1.730e-6
-0.663, 1.731e-6
-0.664, 1.737e-6
-0.665, 1.742e-6
-0.666, 1.748e-6
-0.667, 1.751e-6
-0.668, 1.754e-6
-0.669, 1.759e-6
-0.670, 1.763e-6
-0.671, 1.767e-6
-0.672, 1.772e-6
-0.673, 1.776e-6
-0.674, 1.779e-6
-0.675, 1.782e-6
-0.676, 1.788e-6
-0.677, 1.792e-6
-0.678, 1.795e-6
-0.679, 1.801e-6
-0.680, 1.804e-6
-0.681, 1.809e-6
-0.682, 1.813e-6
-0.683, 1.816e-6
-0.684, 1.821e-6
-0.685, 1.824e-6
-0.686, 1.830e-6
-0.687, 1.831e-6
-0.688, 1.836e-6
-0.689, 1.841e-6
-0.690, 1.845e-6
-0.691, 1.850e-6
-0.692, 1.856e-6
-0.693, 1.857e-6
-0.694, 1.864e-6
-0.695, 1.866e-6
-0.696, 1.870e-6
-0.697, 1.875e-6
-0.698, 1.877e-6
-0.699, 1.882e-6
-0.700, 1.886e-6
-0.701, 1.890e-6
-0.702, 1.894e-6
-0.703, 1.897e-6
-0.704, 1.902e-6
-0.705, 1.907e-6
-0.706, 1.909e-6
-0.707, 1.914e-6
-0.708, 1.917e-6
-0.709, 1.920e-6
-0.710, 1.926e-6
-0.711, 1.929e-6
-0.712, 1.932e-6
-0.713, 1.937e-6
-0.714, 1.939e-6
-0.715, 1.944e-6
-0.716, 1.947e-6
-0.717, 1.953e-6
-0.718, 1.956e-6
-0.719, 1.960e-6
-0.720, 1.963e-6
-0.721, 1.967e-6
-0.722, 1.971e-6
-0.723, 1.974e-6
-0.724, 1.980e-6
-0.725, 1.982e-6
-0.726, 1.987e-6
-0.727, 1.989e-6
-0.728, 1.992e-6
-0.729, 1.999e-6
-0.730, 2.001e-6
-0.731, 2.006e-6
-0.732, 2.010e-6
-0.733, 2.011e-6
-0.734, 2.018e-6
-0.735, 2.020e-6
-0.736, 2.026e-6
-0.737, 2.030e-6
-0.738, 2.032e-6
-0.739, 2.037e-6
-0.740, 2.040e-6
-0.741, 2.043e-6
-0.742, 2.049e-6
-0.743, 2.052e-6
-0.744, 2.055e-6
-0.745, 2.060e-6
-0.746, 2.062e-6
-0.747, 2.067e-6
-0.748, 2.070e-6
-0.749, 2.073e-6
-0.750, 2.078e-6
-0.751, 2.082e-6
-0.752, 2.085e-6
-0.753, 2.089e-6
-0.754, 2.093e-6
-0.755, 2.097e-6
-0.756, 2.102e-6
-0.757, 2.103e-6
-0.758, 2.108e-6
-0.759, 2.112e-6
-0.760, 2.116e-6
-0.761, 2.120e-6
-0.762, 2.123e-6
-0.763, 2.126e-6
-0.764, 2.131e-6
-0.765, 2.133e-6
-0.766, 2.138e-6
-0.767, 2.141e-6
-0.768, 2.147e-6
-0.769, 2.152e-6
-0.770, 2.152e-6
-0.771, 2.157e-6
-0.772, 2.161e-6
-0.773, 2.162e-6
-0.774, 2.168e-6
-0.775, 2.170e-6
-0.776, 2.174e-6
-0.777, 2.178e-6
-0.778, 2.180e-6
-0.779, 2.185e-6
-0.780, 2.189e-6
-0.781, 2.193e-6
-0.782, 2.197e-6
-0.783, 2.198e-6
-0.784, 2.202e-6
-0.785, 2.207e-6
-0.786, 2.209e-6
-0.787, 2.214e-6
-0.788, 2.218e-6
-0.789, 2.221e-6
-0.790, 2.225e-6
-0.791, 2.228e-6
-0.792, 2.232e-6
-0.793, 2.235e-6
-0.794, 2.239e-6
-0.795, 2.243e-6
-0.796, 2.247e-6
-0.797, 2.249e-6
-0.798, 2.252e-6
-0.799, 2.257e-6
-0.800, 2.260e-6
-0.801, 2.265e-6
-0.802, 2.268e-6
-0.803, 2.272e-6
-0.804, 2.275e-6
-0.805, 2.280e-6
-0.806, 2.284e-6
-0.807, 2.288e-6
-0.808, 2.291e-6
-0.809, 2.294e-6
-0.810, 2.298e-6
-0.811, 2.302e-6
-0.812, 2.306e-6
-0.813, 2.308e-6
-0.814, 2.314e-6
-0.815, 2.316e-6
-0.816, 2.321e-6
-0.817, 2.324e-6
-0.818, 2.327e-6
-0.819, 2.338e-6
-0.820, 2.341e-6
-0.821, 2.342e-6
-0.822, 2.345e-6
-0.823, 2.347e-6
-0.824, 2.353e-6
-0.825, 2.358e-6
-0.826, 2.360e-6
-0.827, 2.364e-6
-0.828, 2.367e-6
-0.829, 2.371e-6
-0.830, 2.376e-6
-0.831, 2.380e-6
-0.832, 2.384e-6
-0.833, 2.388e-6
-0.834, 2.391e-6
-0.835, 2.395e-6
-0.836, 2.400e-6
-0.837, 2.403e-6
-0.838, 2.406e-6
-0.839, 2.412e-6
-0.840, 2.415e-6
-0.841, 2.420e-6
-0.842, 2.422e-6
-0.843, 2.425e-6
-0.844, 2.430e-6
-0.845, 2.434e-6
-0.846, 2.439e-6
-0.847, 2.441e-6
-0.848, 2.445e-6
-0.849, 2.449e-6
-0.850, 2.452e-6
-0.851, 2.456e-6
-0.852, 2.460e-6
-0.853, 2.462e-6
-0.854, 2.468e-6
-0.855, 2.469e-6
-0.856, 2.475e-6
-0.857, 2.478e-6
-0.858, 2.481e-6
-0.859, 2.486e-6
-0.860, 2.490e-6
-0.861, 2.493e-6
-0.862, 2.496e-6
-0.863, 2.501e-6
-0.864, 2.506e-6
-0.865, 2.510e-6
-0.866, 2.513e-6
-0.867, 2.518e-6
-0.868, 2.520e-6
-0.869, 2.525e-6
-0.870, 2.530e-6
-0.871, 2.536e-6
-0.872, 2.539e-6
-0.873, 2.543e-6
-0.874, 2.546e-6
-0.875, 2.550e-6
-0.876, 2.555e-6
-0.877, 2.559e-6
-0.878, 2.562e-6
-0.879, 2.566e-6
-0.880, 2.570e-6
-0.881, 2.576e-6
-0.882, 2.578e-6
-0.883, 2.582e-6
-0.884, 2.588e-6
-0.885, 2.591e-6
-0.886, 2.596e-6
-0.887, 2.599e-6
-0.888, 2.602e-6
-0.889, 2.608e-6
-0.890, 2.612e-6
-0.891, 2.618e-6
-0.892, 2.621e-6
-0.893, 2.625e-6
-0.894, 2.629e-6
-0.895, 2.633e-6
-0.896, 2.638e-6
-0.897, 2.644e-6
-0.898, 2.645e-6
-0.899, 2.652e-6
-0.900, 2.656e-6
-0.901, 2.659e-6
-0.902, 2.664e-6
-0.903, 2.668e-6
-0.904, 2.672e-6
-0.905, 2.677e-6
-0.906, 2.680e-6
-0.907, 2.684e-6
-0.908, 2.688e-6
-0.909, 2.693e-6
-0.910, 2.698e-6
-0.911, 2.700e-6
-0.912, 2.704e-6
-0.913, 2.709e-6
-0.914, 2.714e-6
-0.915, 2.718e-6
-0.916, 2.723e-6
-0.917, 2.727e-6
-0.918, 2.731e-6
-0.919, 2.733e-6
-0.920, 2.737e-6
-0.921, 2.743e-6
-0.922, 2.748e-6
-0.923, 2.751e-6
-0.924, 2.758e-6
-0.925, 2.759e-6
-0.926, 2.765e-6
-0.927, 2.768e-6
-0.928, 2.773e-6
-0.929, 2.779e-6
-0.930, 2.783e-6
-0.931, 2.789e-6
-0.932, 2.792e-6
-0.933, 2.795e-6
-0.934, 2.801e-6
-0.935, 2.806e-6
-0.936, 2.809e-6
-0.937, 2.814e-6
-0.938, 2.816e-6
-0.939, 2.821e-6
-0.940, 2.827e-6
-0.941, 2.832e-6
-0.942, 2.835e-6
-0.943, 2.839e-6
-0.944, 2.843e-6
-0.945, 2.848e-6
-0.946, 2.852e-6
-0.947, 2.857e-6
-0.948, 2.862e-6
-0.949, 2.867e-6
-0.950, 2.872e-6
-0.951, 2.875e-6
-0.952, 2.880e-6
-0.953, 2.884e-6
-0.954, 2.890e-6
-0.955, 2.894e-6
-0.956, 2.899e-6
-0.957, 2.901e-6
-0.958, 2.907e-6
-0.959, 2.912e-6
-0.960, 2.916e-6
-0.961, 2.923e-6
-0.962, 2.926e-6
-0.963, 2.931e-6
-0.964, 2.937e-6
-0.965, 2.940e-6
-0.966, 2.947e-6
-0.967, 2.950e-6
-0.968, 2.955e-6
-0.969, 2.959e-6
-0.970, 2.963e-6
-0.971, 2.968e-6
-0.972, 2.972e-6
-0.973, 2.979e-6
-0.974, 2.983e-6
-0.975, 2.986e-6
-0.976, 2.991e-6
-0.977, 2.996e-6
-0.978, 3.000e-6
-0.979, 3.007e-6
-0.980, 3.011e-6
-0.981, 3.015e-6
-0.982, 3.019e-6
-0.983, 3.024e-6
-0.984, 3.029e-6
-0.985, 3.035e-6
-0.986, 3.041e-6
-0.987, 3.044e-6
-0.988, 3.048e-6
-0.989, 3.053e-6
-0.990, 3.059e-6
-0.991, 3.065e-6
-0.992, 3.069e-6
-0.993, 3.074e-6
-0.994, 3.078e-6
-0.995, 3.085e-6
-0.996, 3.090e-6
-0.997, 3.093e-6
-0.998, 3.100e-6
-0.999, 3.105e-6
-1.000, 3.110e-6
-1.001, 3.115e-6
-1.002, 3.119e-6
-1.003, 3.124e-6
-1.004, 3.129e-6
-1.005, 3.134e-6
-1.006, 3.140e-6
-1.007, 3.144e-6
-1.008, 3.149e-6
-1.009, 3.154e-6
-1.010, 3.159e-6
-1.011, 3.166e-6
-1.012, 3.170e-6
-1.013, 3.172e-6
-1.014, 3.179e-6
-1.015, 3.183e-6
-1.016, 3.188e-6
-1.017, 3.193e-6
-1.018, 3.198e-6
-1.019, 3.204e-6
-1.020, 3.207e-6
-1.021, 3.212e-6
-1.022, 3.217e-6
-1.023, 3.221e-6
-1.024, 3.228e-6
-1.025, 3.233e-6
-1.026, 3.237e-6
-1.027, 3.242e-6
-1.028, 3.245e-6
-1.029, 3.250e-6
-1.030, 3.255e-6
-1.031, 3.260e-6
-1.032, 3.264e-6
-1.033, 3.269e-6
-1.034, 3.273e-6
-1.035, 3.278e-6
-1.036, 3.283e-6
-1.037, 3.287e-6
-1.038, 3.293e-6
-1.039, 3.296e-6
-1.040, 3.299e-6
-1.041, 3.308e-6
-1.042, 3.309e-6
-1.043, 3.315e-6
-1.044, 3.321e-6
-1.045, 3.324e-6
-1.046, 3.330e-6
-1.047, 3.331e-6
-1.048, 3.337e-6
-1.049, 3.344e-6
-1.050, 3.348e-6
-1.051, 3.352e-6
-1.052, 3.357e-6
-1.053, 3.361e-6
-1.054, 3.368e-6
-1.055, 3.371e-6
-1.056, 3.376e-6
-1.057, 3.380e-6
-1.058, 3.384e-6
-1.059, 3.389e-6
-1.060, 3.394e-6
-1.061, 3.398e-6
-1.062, 3.404e-6
-1.063, 3.407e-6
-1.064, 3.413e-6
-1.065, 3.417e-6
-1.066, 3.422e-6
-1.067, 3.425e-6
-1.068, 3.431e-6
-1.069, 3.435e-6
-1.070, 3.439e-6
-1.071, 3.443e-6
-1.072, 3.448e-6
-1.073, 3.453e-6
-1.074, 3.457e-6
-1.075, 3.463e-6
-1.076, 3.468e-6
-1.077, 3.470e-6
-1.078, 3.476e-6
-1.079, 3.481e-6
-1.080, 3.484e-6
-1.081, 3.490e-6
-1.082, 3.493e-6
-1.083, 3.496e-6
-1.084, 3.501e-6
-1.085, 3.504e-6
-1.086, 3.512e-6
-1.087, 3.515e-6
-1.088, 3.521e-6
-1.089, 3.525e-6
-1.090, 3.528e-6
-1.091, 3.531e-6
-1.092, 3.536e-6
-1.093, 3.540e-6
-1.094, 3.547e-6
-1.095, 3.551e-6
-1.096, 3.555e-6
-1.097, 3.559e-6
-1.098, 3.561e-6
-1.099, 3.566e-6
-1.100, 3.571e-6
-1.101, 3.577e-6
-1.102, 3.582e-6
-1.103, 3.586e-6
-1.104, 3.591e-6
-1.105, 3.596e-6
-1.106, 3.599e-6
-1.107, 3.603e-6
-1.108, 3.608e-6
-1.109, 3.612e-6
-1.110, 3.616e-6
-1.111, 3.621e-6
-1.112, 3.625e-6
-1.113, 3.630e-6
-1.114, 3.635e-6
-1.115, 3.639e-6
-1.116, 3.644e-6
-1.117, 3.646e-6
-1.118, 3.651e-6
-1.119, 3.656e-6
-1.120, 3.660e-6
-1.121, 3.666e-6
-1.122, 3.668e-6
-1.123, 3.674e-6
-1.124, 3.678e-6
-1.125, 3.682e-6
-1.126, 3.688e-6
-1.127, 3.691e-6
-1.128, 3.695e-6
-1.129, 3.701e-6
-1.130, 3.704e-6
-1.131, 3.710e-6
-1.132, 3.714e-6
-1.133, 3.716e-6
-1.134, 3.723e-6
-1.135, 3.728e-6
-1.136, 3.733e-6
-1.137, 3.735e-6
-1.138, 3.738e-6
-1.139, 3.745e-6
-1.140, 3.748e-6
-1.141, 3.752e-6
-1.142, 3.757e-6
-1.143, 3.760e-6
-1.144, 3.766e-6
-1.145, 3.770e-6
-1.146, 3.774e-6
-1.147, 3.777e-6
-1.148, 3.783e-6
-1.149, 3.787e-6
-1.150, 3.791e-6
-1.151, 3.795e-6
-1.152, 3.800e-6
-1.153, 3.807e-6
-1.154, 3.809e-6
-1.155, 3.814e-6
-1.156, 3.819e-6
-1.157, 3.821e-6
-1.158, 3.826e-6
-1.159, 3.830e-6
-1.160, 3.836e-6
-1.161, 3.841e-6
-1.162, 3.843e-6
-1.163, 3.848e-6
-1.164, 3.853e-6
-1.165, 3.857e-6
-1.166, 3.863e-6
-1.167, 3.865e-6
-1.168, 3.869e-6
-1.169, 3.875e-6
-1.170, 3.878e-6
-1.171, 3.884e-6
-1.172, 3.888e-6
-1.173, 3.892e-6
-1.174, 3.896e-6
-1.175, 3.900e-6
-1.176, 3.905e-6
-1.177, 3.910e-6
-1.178, 3.915e-6
-1.179, 3.920e-6
-1.180, 3.923e-6
-1.181, 3.926e-6
-1.182, 3.931e-6
-1.183, 3.933e-6
-1.184, 3.938e-6
-1.185, 3.944e-6
-1.186, 3.947e-6
-1.187, 3.950e-6
-1.188, 3.956e-6
-1.189, 3.958e-6
-1.190, 3.964e-6
-1.191, 3.969e-6
-1.192, 3.971e-6
-1.193, 3.977e-6
-1.194, 3.981e-6
-1.195, 3.987e-6
-1.196, 3.993e-6
-1.197, 3.992e-6
-1.198, 3.998e-6
-1.199, 4.002e-6
-1.200, 4.006e-6
-1.201, 4.012e-6
-1.202, 4.015e-6
-1.203, 4.020e-6
-1.204, 4.026e-6
-1.205, 4.029e-6
-1.206, 4.034e-6
-1.207, 4.036e-6
-1.208, 4.040e-6
-1.209, 4.046e-6
-1.210, 4.049e-6
-1.211, 4.054e-6
-1.212, 4.059e-6
-1.213, 4.061e-6
-1.214, 4.067e-6
-1.215, 4.070e-6
-1.216, 4.077e-6
-1.217, 4.081e-6
-1.218, 4.083e-6
-1.219, 4.089e-6
-1.220, 4.093e-6
-1.221, 4.096e-6
-1.222, 4.101e-6
-1.223, 4.104e-6
-1.224, 4.109e-6
-1.225, 4.114e-6
-1.226, 4.117e-6
-1.227, 4.124e-6
-1.228, 4.128e-6
-1.229, 4.139e-6
-1.230, 4.139e-6
-1.231, 4.141e-6
-1.232, 4.144e-6
-1.233, 4.150e-6
-1.234, 4.155e-6
-1.235, 4.160e-6
-1.236, 4.164e-6
-1.237, 4.165e-6
-1.238, 4.171e-6
-1.239, 4.174e-6
-1.240, 4.179e-6
-1.241, 4.183e-6
-1.242, 4.186e-6
-1.243, 4.192e-6
-1.244, 4.196e-6
-1.245, 4.200e-6
-1.246, 4.206e-6
-1.247, 4.208e-6
-1.248, 4.212e-6
-1.249, 4.216e-6
-1.250, 4.218e-6
-1.251, 4.227e-6
-1.252, 4.229e-6
-1.253, 4.233e-6
-1.254, 4.238e-6
-1.255, 4.243e-6
-1.256, 4.246e-6
-1.257, 4.249e-6
-1.258, 4.253e-6
-1.259, 4.260e-6
-1.260, 4.263e-6
-1.261, 4.267e-6
-1.262, 4.272e-6
-1.263, 4.275e-6
-1.264, 4.279e-6
-1.265, 4.283e-6
-1.266, 4.288e-6
-1.267, 4.291e-6
-1.268, 4.298e-6
-1.269, 4.300e-6
-1.270, 4.307e-6
-1.271, 4.310e-6
-1.272, 4.314e-6
-1.273, 4.319e-6
-1.274, 4.321e-6
-1.275, 4.326e-6
-1.276, 4.333e-6
-1.277, 4.335e-6
-1.278, 4.340e-6
-1.279, 4.344e-6
-1.280, 4.352e-6
-1.281, 4.357e-6
-1.282, 4.357e-6
-1.283, 4.361e-6
-1.284, 4.366e-6
-1.285, 4.371e-6
-1.286, 4.376e-6
-1.287, 4.378e-6
-1.288, 4.383e-6
-1.289, 4.389e-6
-1.290, 4.392e-6
-1.291, 4.397e-6
-1.292, 4.399e-6
-1.293, 4.403e-6
-1.294, 4.410e-6
-1.295, 4.411e-6
-1.296, 4.417e-6
-1.297, 4.422e-6
-1.298, 4.425e-6
-1.299, 4.432e-6
-1.300, 4.436e-6
-1.301, 4.440e-6
-1.302, 4.443e-6
-1.303, 4.446e-6
-1.304, 4.451e-6
-1.305, 4.457e-6
-1.306, 4.462e-6
-1.307, 4.466e-6
-1.308, 4.470e-6
-1.309, 4.475e-6
-1.310, 4.479e-6
-1.311, 4.483e-6
-1.312, 4.487e-6
-1.313, 4.492e-6
-1.314, 4.495e-6
-1.315, 4.500e-6
-1.316, 4.506e-6
-1.317, 4.509e-6
-1.318, 4.514e-6
-1.319, 4.518e-6
-1.320, 4.524e-6
-1.321, 4.529e-6
-1.322, 4.531e-6
-1.323, 4.537e-6
-1.324, 4.542e-6
-1.325, 4.547e-6
-1.326, 4.552e-6
-1.327, 4.552e-6
-1.328, 4.556e-6
-1.329, 4.563e-6
-1.330, 4.566e-6
-1.331, 4.574e-6
-1.332, 4.579e-6
-1.333, 4.580e-6
-1.334, 4.587e-6
-1.335, 4.588e-6
-1.336, 4.594e-6
-1.337, 4.598e-6
-1.338, 4.601e-6
-1.339, 4.607e-6
-1.340, 4.610e-6
-1.341, 4.614e-6
-1.342, 4.622e-6
-1.343, 4.623e-6
-1.344, 4.628e-6
-1.345, 4.635e-6
-1.346, 4.637e-6
-1.347, 4.642e-6
-1.348, 4.645e-6
-1.349, 4.649e-6
-1.350, 4.655e-6
-1.351, 4.659e-6
-1.352, 4.663e-6
-1.353, 4.669e-6
-1.354, 4.672e-6
-1.355, 4.678e-6
-1.356, 4.683e-6
-1.357, 4.685e-6
-1.358, 4.692e-6
-1.359, 4.696e-6
-1.360, 4.699e-6
-1.361, 4.707e-6
-1.362, 4.708e-6
-1.363, 4.712e-6
-1.364, 4.719e-6
-1.365, 4.722e-6
-1.366, 4.729e-6
-1.367, 4.731e-6
-1.368, 4.736e-6
-1.369, 4.741e-6
-1.370, 4.747e-6
-1.371, 4.751e-6
-1.372, 4.756e-6
-1.373, 4.760e-6
-1.374, 4.764e-6
-1.375, 4.769e-6
-1.376, 4.775e-6
-1.377, 4.778e-6
-1.378, 4.782e-6
-1.379, 4.789e-6
-1.380, 4.793e-6
-1.381, 4.797e-6
-1.382, 4.805e-6
-1.383, 4.811e-6
-1.384, 4.813e-6
-1.385, 4.818e-6
-1.386, 4.824e-6
-1.387, 4.827e-6
-1.388, 4.833e-6
-1.389, 4.837e-6
-1.390, 4.843e-6
-1.391, 4.846e-6
-1.392, 4.850e-6
-1.393, 4.856e-6
-1.394, 4.861e-6
-1.395, 4.870e-6
-1.396, 4.874e-6
-1.397, 4.875e-6
-1.398, 4.881e-6
-1.399, 4.886e-6
-1.400, 4.889e-6
-1.401, 4.894e-6
-1.402, 4.896e-6
-1.403, 4.902e-6
-1.404, 4.907e-6
-1.405, 4.910e-6
-1.406, 4.916e-6
-1.407, 4.919e-6
-1.408, 4.925e-6
-1.409, 4.932e-6
-1.410, 4.936e-6
-1.411, 4.942e-6
-1.412, 4.947e-6
-1.413, 4.947e-6
-1.414, 4.953e-6
-1.415, 4.958e-6
-1.416, 4.961e-6
-1.417, 4.967e-6
-1.418, 4.972e-6
-1.419, 4.979e-6
-1.420, 4.984e-6
-1.421, 4.989e-6
-1.422, 4.994e-6
-1.423, 4.996e-6
-1.424, 5.001e-6
-1.425, 5.007e-6
-1.426, 5.011e-6
-1.427, 5.018e-6
-1.428, 5.023e-6
-1.429, 5.024e-6
-1.430, 5.033e-6
-1.431, 5.038e-6
-1.432, 5.042e-6
-1.433, 5.048e-6
-1.434, 5.053e-6
-1.435, 5.059e-6
-1.436, 5.064e-6
-1.437, 5.065e-6
-1.438, 5.071e-6
-1.439, 5.074e-6
-1.440, 5.079e-6
-1.441, 5.087e-6
-1.442, 5.089e-6
-1.443, 5.094e-6
-1.444, 5.099e-6
-1.445, 5.103e-6
-1.446, 5.109e-6
-1.447, 5.114e-6
-1.448, 5.118e-6
-1.449, 5.124e-6
-1.450, 5.127e-6
-1.451, 5.135e-6
-1.452, 5.139e-6
-1.453, 5.142e-6
-1.454, 5.150e-6
-1.455, 5.155e-6
-1.456, 5.161e-6
-1.457, 5.165e-6
-1.458, 5.168e-6
-1.459, 5.175e-6
-1.460, 5.180e-6
-1.461, 5.185e-6
-1.462, 5.191e-6
-1.463, 5.196e-6
-1.464, 5.202e-6
-1.465, 5.208e-6
-1.466, 5.212e-6
-1.467, 5.219e-6
-1.468, 5.223e-6
-1.469, 5.228e-6
-1.470, 5.236e-6
-1.471, 5.240e-6
-1.472, 5.245e-6
-1.473, 5.251e-6
-1.474, 5.257e-6
-1.475, 5.264e-6
-1.476, 5.269e-6
-1.477, 5.274e-6
-1.478, 5.282e-6
-1.479, 5.287e-6
-1.480, 5.294e-6
-1.481, 5.300e-6
-1.482, 5.303e-6
-1.483, 5.312e-6
-1.484, 5.320e-6
-1.485, 5.329e-6
-1.486, 5.335e-6
-1.487, 5.336e-6
-1.488, 5.345e-6
-1.489, 5.353e-6
-1.490, 5.356e-6
-1.491, 5.366e-6
-1.492, 5.372e-6
-1.493, 5.378e-6
-1.494, 5.385e-6
-1.495, 5.392e-6
-1.496, 5.400e-6
-1.497, 5.405e-6
-1.498, 5.411e-6
-1.499, 5.419e-6
-1.500, 5.429e-6
-1.501, 5.436e-6
-1.502, 5.444e-6
-1.503, 5.450e-6
-1.504, 5.456e-6
-1.505, 5.464e-6
-1.506, 5.471e-6
-1.507, 5.480e-6
-1.508, 5.487e-6
-1.509, 5.495e-6
-1.510, 5.506e-6
-1.511, 5.514e-6
-1.512, 5.519e-6
-1.513, 5.529e-6
-1.514, 5.533e-6
-1.515, 5.542e-6
-1.516, 5.553e-6
-1.517, 5.559e-6
-1.518, 5.570e-6
-1.519, 5.579e-6
-1.520, 5.589e-6
-1.521, 5.600e-6
-1.522, 5.606e-6
-1.523, 5.616e-6
-1.524, 5.625e-6
-1.525, 5.633e-6
-1.526, 5.645e-6
-1.527, 5.652e-6
-1.528, 5.660e-6
-1.529, 5.673e-6
-1.530, 5.682e-6
-1.531, 5.692e-6
-1.532, 5.704e-6
-1.533, 5.714e-6
-1.534, 5.729e-6
-1.535, 5.739e-6
-1.536, 5.752e-6
-1.537, 5.761e-6
-1.538, 5.769e-6
-1.539, 5.783e-6
-1.540, 5.796e-6
-1.541, 5.807e-6
-1.542, 5.822e-6
-1.543, 5.836e-6
-1.544, 5.850e-6
-1.545, 5.863e-6
-1.546, 5.870e-6
-1.547, 5.881e-6
-1.548, 5.894e-6
-1.549, 5.906e-6
-1.550, 5.921e-6
-1.551, 5.934e-6
-1.552, 5.947e-6
-1.553, 5.961e-6
-1.554, 5.972e-6
-1.555, 5.990e-6
-1.556, 6.004e-6
-1.557, 6.018e-6
-1.558, 6.037e-6
-1.559, 6.050e-6
-1.560, 6.068e-6
-1.561, 6.088e-6
-1.562, 6.104e-6
-1.563, 6.123e-6
-1.564, 6.137e-6
-1.565, 6.155e-6
-1.566, 6.176e-6
-1.567, 6.192e-6
-1.568, 6.210e-6
-1.569, 6.231e-6
-1.570, 6.250e-6
-1.571, 6.273e-6
-1.572, 6.291e-6
-1.573, 6.308e-6
-1.574, 6.332e-6
-1.575, 6.354e-6
-1.576, 6.380e-6
-1.577, 6.403e-6
-1.578, 6.424e-6
-1.579, 6.451e-6
-1.580, 6.473e-6
-1.581, 6.499e-6
-1.582, 6.525e-6
-1.583, 6.552e-6
-1.584, 6.582e-6
-1.585, 6.609e-6
-1.586, 6.637e-6
-1.587, 6.671e-6
-1.588, 6.704e-6
-1.589, 6.733e-6
-1.590, 6.766e-6
-1.591, 6.796e-6
-1.592, 6.828e-6
-1.593, 6.863e-6
-1.594, 6.900e-6
-1.595, 6.937e-6
-1.596, 6.974e-6
-1.597, 7.011e-6
-1.598, 7.053e-6
-1.599, 7.090e-6
-1.600, 7.136e-6
-1.601, 7.182e-6
-1.602, 7.223e-6
-1.603, 7.268e-6
-1.604, 7.317e-6
-1.605, 7.364e-6
-1.606, 7.418e-6
-1.607, 7.466e-6
-1.608, 7.520e-6
-1.609, 7.576e-6
-1.610, 7.633e-6
-1.611, 7.691e-6
-1.612, 7.754e-6
-1.613, 7.818e-6
-1.614, 7.881e-6
-1.615, 7.952e-6
-1.616, 8.022e-6
-1.617, 8.095e-6
-1.618, 8.169e-6
-1.619, 8.250e-6
-1.620, 8.332e-6
-1.621, 8.411e-6
-1.622, 8.497e-6
-1.623, 8.579e-6
-1.624, 8.670e-6
-1.625, 8.767e-6
-1.626, 8.860e-6
-1.627, 8.959e-6
-1.628, 9.063e-6
-1.629, 9.171e-6
-1.630, 9.286e-6
-1.631, 9.398e-6
-1.632, 9.515e-6
-1.633, 9.640e-6
-1.634, 9.764e-6
-1.635, 9.898e-6
-1.636, 1.003e-5
-1.637, 1.017e-5
-1.638, 1.032e-5
-1.639, 1.048e-5
-1.640, 1.062e-5
-1.641, 1.079e-5
-1.642, 1.095e-5
-1.643, 1.112e-5
-1.644, 1.130e-5
-1.645, 1.148e-5
-1.646, 1.168e-5
-1.647, 1.187e-5
-1.648, 1.207e-5
-1.649, 1.227e-5
-1.650, 1.249e-5
-1.651, 1.272e-5
-1.652, 1.295e-5
-1.653, 1.319e-5
-1.654, 1.344e-5
-1.655, 1.370e-5
-1.656, 1.396e-5
-1.657, 1.423e-5
-1.658, 1.451e-5
-1.659, 1.481e-5
-1.660, 1.512e-5
-1.661, 1.544e-5
-1.662, 1.576e-5
-1.663, 1.610e-5
-1.664, 1.645e-5
-1.665, 1.681e-5
-1.666, 1.718e-5
-1.667, 1.756e-5
-1.668, 1.796e-5
-1.669, 1.837e-5
-1.670, 1.880e-5
-1.671, 1.923e-5
-1.672, 1.969e-5
-1.673, 2.015e-5
-1.674, 2.063e-5
-1.675, 2.114e-5
-1.676, 2.165e-5
-1.677, 2.217e-5
-1.678, 2.273e-5
-1.679, 2.330e-5
-1.680, 2.389e-5
-1.681, 2.450e-5
-1.682, 2.512e-5
-1.683, 2.577e-5
-1.684, 2.643e-5
-1.685, 2.712e-5
-1.686, 2.783e-5
-1.687, 2.856e-5
-1.688, 2.931e-5
-1.689, 3.010e-5
-1.690, 3.091e-5
-1.691, 3.175e-5
-1.692, 3.261e-5
-1.693, 3.351e-5
-1.694, 3.442e-5
-1.695, 3.538e-5
-1.696, 3.636e-5
-1.697, 3.738e-5
-1.698, 3.842e-5
-1.699, 3.950e-5
