Potential V vs RHE, Current mA cm-2
0.013299999999999867,9.025858093138934
0.012299999999999978,7.674808801767824
0.011299999999999866,6.410056899688482
0.010299999999999976,5.145304997609139
0.009299999999999864,3.9668504848215624
0.008299999999999974,2.7898106833338523
0.007299999999999862,1.6113561705462767
0.006299999999999972,0.3903188476327636
0.00529999999999986,-0.7001406223032067
0.0042999999999999705,-1.7910245056291363
0.0032999999999998586,-2.794054817233447
0.0022999999999999687,-3.7532290785419424
0.0012999999999998568,-4.626105950558669
0.00029999999999996696,-5.497568111275533
-0.000700000000000145,-6.37044498329226
-0.0017000000000000348,-7.28576319430494
-0.0027000000000001467,-8.202496116617484
-0.0037000000000000366,-9.11781432763016
-0.0047000000000001485,-10.034547249942705
-0.005700000000000038,-10.906009410659568
-0.00670000000000015,-11.691174182084664
-0.00770000000000004,-12.476338953509758
-0.008700000000000152,-13.175206335643086
-0.009700000000000042,-13.916515056772363
-0.010700000000000154,-14.61396772760583
-0.011700000000000044,-15.3920589425316
-0.012700000000000156,-16.141855931460068
-0.013700000000000045,-16.919947146385837
-0.014700000000000157,-17.669744135314307
-0.015700000000000047,-18.362952672248177
-0.01670000000000016,-19.056161209182044
-0.01770000000000005,-19.721075520118614
-0.01870000000000016,-20.286960040064624
-0.01970000000000005,-20.93772723800254
-0.020700000000000163,-21.54605309694451
-0.021700000000000053,-22.253408746877028
-0.022700000000000164,-22.989058622806844
-0.023700000000000054,-23.823738289727217
-0.024700000000000166,-24.601829504652986
-0.025700000000000056,-25.39406783257741
-0.026700000000000168,-26.129717708507226
-0.027700000000000058,-26.822926245441096
-0.02870000000000017,-27.487840556377662
-0.02970000000000006,-28.13860775431558
-0.03070000000000017,-28.789374952253496
-0.03170000000000006,-29.440142150191413
-0.03270000000000017,-30.189939139119886
-0.03370000000000006,-30.88314767605375
-0.034700000000000175,-31.533914873991666
-0.035700000000000065,-32.14224073293363
-0.03670000000000018,-32.70812525287965
-0.03770000000000007,-33.18912709483376
-0.03870000000000018,-33.627687597791926
-0.03970000000000007,-34.06624810075008
-0.04070000000000018,-34.50480860370825
-0.04170000000000007,-34.98581044566235
-0.04270000000000018,-35.50925362661242
-0.04370000000000007,-36.11757948555439
-0.044700000000000184,-36.6834640055004
-0.045700000000000074,-37.249348525446415
-0.046700000000000186,-37.81523304539243
-0.047700000000000076,-38.29623488734655
-0.04870000000000019,-38.81967806829661
-0.04970000000000008,-39.34312124924667
-0.05070000000000019,-39.86656443019674
-0.05170000000000008,-40.43244895014274
-0.05270000000000019,-41.04077480908471
-0.05370000000000008,-41.70568912002128
-0.05470000000000019,-42.2715736399673
-0.05570000000000008,-42.79501682091736
-0.056700000000000195,-43.27601866287147
-0.057700000000000085,-43.70043205283099
-0.058700000000000196,-44.096551216793195
-0.059700000000000086,-44.45022904175945
-0.0607000000000002,-44.80390686672572
-0.06170000000000009,-45.18587891768927
-0.0627000000000002,-45.624439420647434
-0.06370000000000009,-46.062999923605595
-0.0647000000000002,-46.501560426563756
-0.06570000000000009,-46.88353247752732
-0.0667000000000002,-47.32209298048547
-0.0677000000000001,-47.67577080545174
-0.0687000000000002,-48.071889969413945
-0.0697000000000001,-48.45386202037751
-0.07070000000000021,-48.84998118433972
-0.0717000000000001,-49.373424365289786
-0.07270000000000021,-49.939308885235796
-0.0737000000000001,-50.547634744177756
-0.07470000000000021,-51.21254905511432
-0.0757000000000001,-51.86331625305225
-0.07670000000000021,-52.471642111994214
-0.0777000000000001,-53.079967970936174
-0.07870000000000021,-53.74488228187274
-0.0797000000000001,-54.43809081880661
-0.08070000000000022,-55.13129935574048
-0.0817000000000001,-55.9235376836649
-0.08270000000000022,-56.74407023758662
-0.08370000000000011,-57.62119124350295
-0.08470000000000022,-58.45587091042332
-0.08570000000000011,-59.31884480334099
-0.08670000000000022,-60.15352447026136
-0.08770000000000011,-60.93161568518713
-0.08870000000000022,-61.63897133511965
-0.08970000000000011,-62.20485585506566
-0.09070000000000022,-62.72829903601572
-0.09170000000000011,-63.20930087796983
-0.09270000000000023,-63.732744058919906
-0.09370000000000012,-64.19959878787537
-0.09470000000000023,-64.68060062982947
-0.09570000000000012,-65.03427845479574
-0.09670000000000023,-65.43039761875795
-0.09770000000000012,-65.7274869917296
-0.09870000000000023,-66.12360615569182
-0.09970000000000012,-66.60460799764593
-0.10070000000000023,-67.17049251759194
-0.10170000000000012,-67.86370105452582
-0.10270000000000024,-68.65593938245023
-0.10370000000000013,-69.57550172736251
-0.10470000000000024,-70.53750541127073
-0.10570000000000013,-71.6268331121668
-0.10670000000000024,-72.71616081306288
-0.10770000000000013,-73.89037119195086
-0.10870000000000024,-75.06458157083884
-0.10970000000000013,-76.29538040172143
-0.11070000000000024,-77.42714944161345
-0.11170000000000013,-78.55891848150549
-0.11270000000000002,-79.60580484340561
-0.11370000000000013,-80.61024986630979
-0.11470000000000002,-81.43078242023151
-0.11570000000000014,-82.13813807016405
-0.11670000000000003,-82.70402259011003
-0.11770000000000014,-83.26990711005605
-0.11870000000000003,-83.75090895201016
-0.11970000000000014,-84.23191079396429
-0.12070000000000003,-84.7129126359184
-0.12170000000000014,-85.17976736487385
-0.12270000000000003,-85.66076920682796
-0.12370000000000014,-86.09932970978613
-0.12470000000000003,-86.41056619575643
-0.12570000000000014,-86.6227728907362
-0.12670000000000003,-86.75009690772404
-0.12770000000000015,-86.84912669871461
-0.12870000000000004,-86.89156803771054
-0.12970000000000015,-87.01889205469841
-0.13070000000000004,-87.14621607168625
-0.13170000000000015,-87.41501121866061
-0.13270000000000004,-87.75454193062824
-0.13370000000000015,-88.23554377258235
-0.13470000000000004,-88.63166293654454
-0.13570000000000015,-89.23998879548651
-0.13670000000000004,-89.89075599342443
-0.13770000000000016,-90.55567030436099
-0.13870000000000005,-91.20643750229891
-0.13970000000000016,-91.94208737822873
-0.14070000000000005,-92.81920838414506
-0.14170000000000016,-93.82365340704924
-0.14270000000000005,-94.95542244694126
-0.14370000000000016,-96.0871914868333
-0.14470000000000005,-97.26140186572127
-0.14570000000000016,-98.364876679616
-0.14670000000000005,-99.45420438051207
-0.14770000000000016,-100.23229559543785
-0.14870000000000005,-100.92550413237171
-0.14970000000000017,-101.54797710431234
-0.15070000000000006,-102.07142028526239
-0.15170000000000017,-102.63730480520842
-0.15270000000000006,-103.16074798615847
-0.15370000000000017,-103.68419116710854
-0.15470000000000006,-104.16519300906265
-0.15570000000000017,-104.58960639902216
-0.15670000000000006,-104.90084288499246
-0.15770000000000017,-105.25452070995874
-0.15870000000000006,-105.5516100829304
-0.15970000000000018,-105.90528790789664
-0.16070000000000007,-106.30140707185885
-0.16170000000000018,-106.68337912282242
-0.16270000000000007,-107.12193962578058
-0.16370000000000018,-107.6029414677347
-0.16470000000000007,-108.0839433096888
-0.16570000000000018,-108.56494515164292
-0.16670000000000007,-109.04594699359701
-0.16770000000000018,-109.61183151354304
-0.16870000000000007,-110.26259871148096
-0.16970000000000018,-110.96995436141347
-0.17070000000000007,-111.66316289834735
-0.17170000000000019,-112.54028390426367
-0.17270000000000008,-113.36081645818538
-0.1737000000000002,-114.3228201420936
-0.17470000000000008,-115.32726516499778
-0.1757000000000002,-116.41659286589388
-0.17670000000000008,-117.50592056678994
-0.1777000000000002,-118.51036558969413
-0.17870000000000008,-119.4299279346064
-0.1797000000000002,-120.20801914953216
-0.18070000000000008,-120.95781613846064
-0.1817000000000002,-121.69346601439047
-0.18270000000000008,-122.48570434231489
-0.1837000000000002,-123.1364715402528
-0.1847000000000001,-123.78723873819072
-0.1857000000000002,-124.22579924114888
-0.1867000000000001,-124.57947706611512
-0.1877000000000002,-124.83412510009084
-0.1887000000000001,-125.04633179507057
-0.1897000000000002,-125.31512694204494
-0.1907000000000001,-125.6688047670112
-0.1917000000000001,-126.14980660896532
-0.19269999999999998,-126.75813246790726
-0.1937000000000001,-127.4937823438371
-0.19469999999999998,-128.28602067176152
-0.1957000000000001,-129.0641118866873
-0.19669999999999999,-129.79976176261712
-0.1977000000000001,-130.46467607355368
-0.1987,-131.07300193249566
-0.1997000000000001,-131.68132779143764
-0.2007,-132.33209498937555
-0.2017000000000001,-133.20921599529186
-0.2027,-134.34098503518388
-0.2037000000000001,-135.65666654405837
-0.2047,-137.04308361792607
-0.2057000000000001,-138.40120646579655
-0.2067,-139.6602995226764
-0.2077000000000001,-140.79206856256846
-0.2087,-141.75407224647665
-0.2097000000000001,-142.7443701563822
-0.2107,-143.5931969363012
-0.2117000000000001,-144.44202371622026
-0.2127,-145.43232162612577
-0.2137000000000001,-146.4226195360313
-0.2147,-147.27144631595033
-0.2157000000000001,-147.97880196588284
-0.2167,-148.54468648582886
-0.21770000000000012,-149.1105710057749
-0.2187,-149.53498439573437
-0.21970000000000012,-149.95939778569388
-0.2207,-150.38381117565342
-0.22170000000000012,-150.8082245656129
-0.2227,-151.09116682558593
-0.22370000000000012,-151.37410908555893
-0.2247,-151.65705134553193
-0.22570000000000012,-151.93999360550492
-0.2267,-152.22293586547795
-0.22770000000000012,-152.50587812545095
-0.22870000000000001,-152.78882038542397
-0.22970000000000013,-153.21323377538346
-0.23070000000000002,-153.63764716534297
-0.23170000000000013,-154.203531685289
-0.23270000000000002,-154.76941620523502
-0.23370000000000013,-155.33530072518104
-0.23470000000000002,-156.04265637511355
-0.23570000000000013,-156.60854089505958
-0.23670000000000002,-157.31589654499206
-0.2376999999999999,-158.02325219492457
-0.23870000000000002,-158.73060784485713
-0.2396999999999999,-159.57943462477613
-0.24070000000000003,-160.28679027470866
-0.24169999999999991,-161.1356170546277
-0.24270000000000003,-161.9844438345467
-0.24369999999999992,-162.8332706144657
-0.24470000000000003,-163.54062626439824
-0.24569999999999992,-164.38945304431726
-0.24670000000000003,-165.2382798242363
-0.24769999999999992,-165.94563547416882
-0.24870000000000003,-166.79446225408785
-0.24969999999999992,-167.50181790402033
-0.25070000000000003,-168.06770242396635
-0.2516999999999999,-168.77505807389886
-0.25270000000000004,-169.3409425938449
-0.2536999999999999,-169.9068271137909
-0.25470000000000004,-170.47271163373694
-0.2556999999999999,-171.03859615368293
-0.25670000000000004,-171.60448067362896
-0.25769999999999993,-172.0288940635885
-0.25870000000000004,-172.45330745354798
-0.25969999999999993,-172.87772084350746
-0.26070000000000004,-173.302134233467
-0.26169999999999993,-173.86801875341303
-0.26270000000000004,-174.2924321433725
-0.26369999999999993,-174.85831666331853
-0.26470000000000005,-175.28273005327804
-0.26569999999999994,-175.84861457322407
-0.26670000000000005,-176.4144990931701
-0.26769999999999994,-176.8389124831296
-0.26870000000000005,-177.4047970030756
-0.26969999999999994,-177.82921039303508
-0.27070000000000005,-178.3950949129811
-0.27169999999999994,-179.10245056291362
-0.27270000000000005,-179.95127734283267
-0.27369999999999994,-180.94157525273818
-0.27470000000000006,-181.79040203265723
-0.27569999999999995,-182.63922881257625
-0.27670000000000006,-183.34658446250873
-0.27769999999999995,-184.05394011244127
-0.27870000000000006,-184.9027668923603
-0.27969999999999995,-185.6101225422928
-0.28070000000000006,-186.60042045219836
-0.28169999999999995,-187.59071836210387
-0.28270000000000006,-188.72248740199586
-0.28369999999999995,-189.71278531190143
-0.28470000000000006,-190.70308322180696
-0.28569999999999995,-191.69338113171247
-0.28670000000000007,-192.40073678164498
-0.28769999999999996,-192.966621301591
-0.28870000000000007,-193.532505821537
-0.28969999999999996,-194.2398614714695
-0.29070000000000007,-194.94721712140205
-0.29169999999999996,-195.65457277133459
-0.29270000000000007,-196.50339955125358
-0.29369999999999996,-197.63516859114563
-0.2947000000000001,-198.90840876102413
-0.29569999999999996,-198.90840876102413
-0.2967000000000001,-199.61576441095667
-0.29769999999999996,-200.3231200608892
-0.2987000000000001,-200.88900458083523
-0.29969999999999997,-201.59636023076774
-0.3007000000000001,-202.44518701068677
-0.30169999999999997,-203.15254266061928
-0.3027000000000001,-203.85989831055176
-0.30369999999999997,-204.5672539604843
-0.3047000000000001,-205.13313848043032
-0.30569999999999997,-205.69902300037634
-0.3067000000000001,-206.12343639033585
-0.3077,-206.40637865030885
-0.3087000000000001,-206.68932091028185
-0.3097,-207.1137343002414
-0.3107000000000001,-207.3966765602144
-0.3117,-207.8210899501739
-0.3127000000000001,-208.3869744701199
-0.3137,-208.95285899006592
-0.3147000000000001,-209.66021463999843
-0.3157,-210.36757028993094
-0.3167000000000001,-210.93345480987696
-0.3177,-211.64081045980947
-0.3187000000000001,-212.2066949797555
-0.3197,-212.914050629688
-0.3207000000000001,-213.62140627962054
-0.3217,-214.47023305953954
-0.3227000000000001,-215.17758870947208
-0.3237,-216.0264154893911
-0.3247000000000001,-216.73377113932364
-0.3257,-217.58259791924263
-0.3267000000000001,-218.14848243918865
-0.3277,-218.85583808912116
-0.3287000000000001,-219.5631937390537
-0.3297,-220.2705493889862
-0.3307000000000001,-220.5534916489592
-0.3317,-220.97790503891872
-0.3327000000000001,-221.26084729889175
-0.3337,-221.40231842887826
-0.3347000000000001,-221.68526068885126
-0.3357,-221.82673181883774
-0.3367000000000001,-222.25114520879725
-0.3377,-222.53408746877028
-0.3387000000000001,-222.81702972874328
-0.3397,-223.2414431187028
-0.3407000000000001,-223.52438537867582
-0.3417,-223.80732763864881
-0.3427000000000001,-224.2317410286083
-0.3437,-224.37321215859478
-0.3447000000000001,-224.37321215859478
-0.3457,-224.37321215859478
-0.3467000000000001,-224.37321215859478
-0.3477,-224.5146832885813
-0.3487000000000001,-224.79762554855435
-0.3497,-225.08056780852735
-0.3507000000000001,-225.50498119848683
-0.3517,-226.07086571843288
-0.3527000000000001,-226.77822136836537
-0.3537,-227.4855770182979
-0.3547000000000001,-228.0514615382439
-0.3557,-228.75881718817644
-0.35670000000000013,-229.18323057813595
-0.3577,-229.60764396809546
-0.35870000000000013,-230.03205735805497
-0.3597,-230.45647074801445
-0.36070000000000013,-231.0223552679605
-0.3617,-231.8711820478795
-0.3626999999999999,-232.72000882779852
-0.3637,-233.85177786769057
-0.3646999999999999,-235.12501803756908
-0.3657,-236.6812004674206
-0.3666999999999999,-238.2373828972722
-0.3677,-239.7935653271237
-0.3686999999999999,-241.20827662698875
-0.36970000000000003,-242.34004566688077
-0.3706999999999999,-243.47181470677282
-0.37170000000000003,-244.46211261667833
-0.3726999999999999,-245.31093939659738
-0.37370000000000003,-246.15976617651637
-0.3746999999999999,-246.8671218264489
-0.37570000000000003,-247.4330063463949
-0.3766999999999999,-247.85741973635444
-0.37770000000000004,-248.14036199632744
-0.3786999999999999,-248.28183312631393
-0.37970000000000004,-248.28183312631393
-0.3806999999999999,-248.14036199632744
-0.38170000000000004,-247.85741973635444
-0.38269999999999993,-247.57447747638145
-0.38370000000000004,-247.0085929564354
-0.38469999999999993,-246.4427084364894
-0.38570000000000004,-245.73535278655686
-0.38669999999999993,-244.8865260066378
-0.38770000000000004,-244.17917035670533
-0.38869999999999993,-243.47181470677282
-0.38970000000000005,-242.76445905684034
-0.39069999999999994,-242.19857453689428
-0.39170000000000005,-241.9156322769213
-0.39269999999999994,-241.77416114693477
-0.39370000000000005,-241.6326900169483
-0.39469999999999994,-241.9156322769213
-0.39570000000000005,-242.19857453689428
-0.39669999999999994,-242.76445905684034
-0.39770000000000005,-243.3303435767863
-0.39869999999999994,-244.03769922671884
-0.39970000000000006,-244.8865260066378
-0.40069999999999995,-245.59388165657037
-0.40170000000000006,-246.30123730650286
-0.40269999999999995,-247.1500640864219
-0.40370000000000006,-247.99889086634093
-0.40469999999999995,-248.84771764625998
-0.40570000000000006,-249.41360216620598
-0.40669999999999995,-250.1209578161385
-0.40770000000000006,-250.545371206098
-0.40869999999999995,-251.111255726044
-0.40970000000000006,-251.53566911600356
-0.41069999999999995,-251.81861137597656
-0.41170000000000007,-251.96008250596302
-0.41269999999999996,-252.10155363594956
-0.41370000000000007,-252.10155363594956
-0.41469999999999996,-251.96008250596302
-0.41570000000000007,-251.67714024599002
-0.41669999999999996,-251.25272685603056
-0.41770000000000007,-250.6868423360845
-0.41869999999999996,-250.1209578161385
-0.4197000000000001,-249.5550732961925
-0.42069999999999996,-248.9891887762465
-0.4217000000000001,-248.28183312631393
-0.42269999999999996,-247.71594860636796
-0.4237000000000001,-247.2915352164084
-0.42469999999999997,-247.0085929564354
-0.4257000000000001,-247.0085929564354
-0.42669999999999997,-247.0085929564354
-0.4277000000000001,-247.2915352164084
-0.42869999999999997,-247.4330063463949
-0.4297000000000001,-247.71594860636796
-0.43069999999999997,-248.14036199632744
-0.4317000000000001,-248.56477538628693
-0.4327,-249.13065990623298
-0.4337000000000001,-249.69654442617897
-0.4347,-250.4039000761115
-0.4357000000000001,-251.111255726044
-0.4367,-251.81861137597656
-0.4377000000000001,-252.52596702590907
-0.4387,-253.09185154585506
-0.4397000000000001,-253.79920719578757
-0.4407,-254.36509171573357
-0.4417000000000001,-255.21391849565262
-0.4427,-255.92127414558513
-0.4437000000000001,-256.77010092550415
-0.4447,-257.4774565754367
-0.4457000000000001,-258.0433410953827
-0.4467,-258.4677544853422
-0.4477000000000001,-258.4677544853422
-0.4487,-258.18481222536917
-0.4497000000000001,-257.76039883540966
-0.4507,-257.1945143154637
-0.4517000000000001,-256.4871586655312
-0.4527,-255.77980301559862
-0.4537000000000001,-254.93097623567962
-0.4547,-254.08214945576057
-0.4557000000000001,-252.95038041586852
-0.4567,-251.96008250596302
-0.4577000000000001,-250.828313466071
-0.4587,-249.979486686152
-0.4597000000000001,-249.13065990623298
-0.4607,-248.56477538628693
-0.4617000000000001,-248.14036199632744
-0.4627,-247.71594860636796
-0.4637000000000001,-247.2915352164084
-0.4647,-247.1500640864219
-0.4657000000000001,-246.8671218264489
-0.4667,-246.7256506964624
-0.4677000000000001,-246.7256506964624
-0.4687,-246.8671218264489
-0.4697000000000001,-247.0085929564354
-0.4707,-247.4330063463949
-0.4717000000000001,-247.99889086634093
-0.4727,-248.56477538628693
-0.4737000000000001,-248.9891887762465
-0.4747,-249.5550732961925
-0.4757000000000001,-249.83801555616546
-0.4767,-249.979486686152
-0.4777000000000001,-249.979486686152
-0.4787,-249.979486686152
-0.4797000000000001,-249.69654442617897
-0.4807,-249.5550732961925
-0.48170000000000013,-249.41360216620598
-0.4827,-249.13065990623298
-0.48370000000000013,-248.84771764625998
-0.4847,-248.42330425630044
-0.48570000000000013,-247.99889086634093
-0.4867,-246.4427084364894
-0.48570000000000013,-242.90593018682682
-0.4847,-239.5106230671507
-0.48370000000000013,-236.1153159474746
-0.4827,-232.72000882779852
-0.48170000000000013,-229.60764396809546
-0.4807,-226.35380797840588
-0.4797000000000001,-223.09997198871628
-0.4787,-219.7046648690402
-0.4777000000000001,-216.4508288793506
-0.4767,-213.19699288966103
-0.4757000000000001,-209.8016857699849
-0.4747,-206.54784978029537
-0.4737000000000001,-203.43548492059227
-0.4727,-200.3231200608892
-0.4717000000000001,-197.35222633117263
-0.4707,-194.52280373144254
-0.4697000000000001,-191.83485226169896
-0.4687,-189.1469007919554
-0.4677000000000001,-186.45894932221185
-0.4667,-183.91246898245475
-0.4657000000000001,-181.5074597726842
