Potential V vs RHE, Current mA cm-2
0.05339999999999995,-0.04228572075296595
0.05239999999999995,-0.043912638747810734
0.051399999999999946,-0.044874642431718965
0.050399999999999945,-0.04556785096865284
0.049399999999999944,-0.0461761768275948
0.04839999999999994,-0.046699620008544857
0.04739999999999994,-0.047265504528490876
0.04639999999999994,-0.04777480059644229
0.04539999999999994,-0.048284096664393705
0.04439999999999994,-0.04877924561934646
0.04339999999999994,-0.049260247461300574
0.04239999999999994,-0.049727102190256035
0.04139999999999994,-0.0501656626932142
0.040399999999999936,-0.05063251742216966
0.039399999999999935,-0.051127666377122426
0.038399999999999934,-0.05159452110607789
0.03739999999999993,-0.0520472287220347
0.03639999999999993,-0.05248578922499286
0.03539999999999993,-0.052938496840949666
0.03439999999999993,-0.05339120445690649
0.03339999999999993,-0.0538439120728633
0.03239999999999993,-0.05429661968882011
0.03139999999999993,-0.05476347441777557
0.030399999999999927,-0.055202034920733736
0.029399999999999926,-0.055640595423691895
0.028399999999999925,-0.05607915592665005
0.027399999999999924,-0.05651771642960821
0.026399999999999924,-0.05697042404556502
0.025399999999999923,-0.05743727877452049
0.024399999999999922,-0.057875839277478656
0.02339999999999992,-0.058328546893435466
0.02239999999999992,-0.058752960283394974
0.02139999999999992,-0.05917737367335448
0.020399999999999918,-0.0596300812893113
0.019399999999999917,-0.06006864179226945
0.018399999999999916,-0.060507202295227616
0.017399999999999916,-0.060974057024183084
0.016399999999999915,-0.061398470414142585
0.015399999999999914,-0.0618511780300994
0.014399999999999913,-0.06231803275905486
0.013399999999999912,-0.06277074037501168
0.012399999999999911,-0.06323759510396713
0.01139999999999991,-0.0636761556069253
0.01039999999999991,-0.06414301033588077
0.009399999999999908,-0.06462401217783488
0.008399999999999908,-0.06506257268079305
0.007399999999999907,-0.06551528029674986
0.006399999999999906,-0.065953840799708
0.005399999999999905,-0.06642069552866348
0.004399999999999904,-0.06687340314462027
0.003399999999999903,-0.0672978165345798
0.002399999999999902,-0.06776467126353526
0.0013999999999999013,-0.06821737887949207
0.00039999999999990044,-0.06867008649544887
-0.0006000000000001005,-0.06913694122440435
-0.0016000000000001013,-0.0695472075013652
-0.0026000000000001022,-0.07001406223032067
-0.003600000000000103,-0.07046676984627748
-0.004600000000000104,-0.07091947746223429
-0.005600000000000105,-0.07138633219118974
-0.006600000000000106,-0.07183903980714657
-0.007600000000000107,-0.07229174742310338
-0.008600000000000108,-0.07273030792606154
-0.009600000000000108,-0.07315472131602105
-0.01060000000000011,-0.0736215760449765
-0.01160000000000011,-0.07407428366093333
-0.012600000000000111,-0.07454113838988878
-0.013600000000000112,-0.07499384600584559
-0.014600000000000113,-0.07543240650880376
-0.015600000000000114,-0.07588511412476057
-0.016600000000000115,-0.07630952751472009
-0.017600000000000116,-0.07671979379168092
-0.018600000000000116,-0.07717250140763775
-0.019600000000000117,-0.07762520902359457
-0.020600000000000118,-0.07806376952655272
-0.02160000000000012,-0.07851647714250953
-0.02260000000000012,-0.0789550376454677
-0.02360000000000012,-0.07937945103542722
-0.024600000000000122,-0.07981801153838537
-0.025600000000000123,-0.08025657204134354
-0.026600000000000124,-0.08066683831830439
-0.027600000000000124,-0.08113369304725986
-0.028600000000000125,-0.08154395932422072
-0.029600000000000126,-0.08196837271418023
-0.030600000000000127,-0.08242108033013704
-0.03160000000000013,-0.0828313466070979
-0.03260000000000013,-0.08324161288405875
-0.03360000000000013,-0.08360943782202368
-0.03460000000000002,-0.08401970409898453
-0.03560000000000002,-0.08442997037594539
-0.03660000000000002,-0.0848260895399076
-0.03760000000000002,-0.08526465004286575
-0.03860000000000002,-0.08567491631982663
-0.039600000000000024,-0.08607103548378882
-0.040600000000000025,-0.086509595986747
-0.041600000000000026,-0.08689156803771056
-0.04260000000000003,-0.08728768720167276
-0.04360000000000003,-0.08765551213963767
-0.04460000000000003,-0.08802333707760258
-0.04560000000000003,-0.0884194562415648
-0.04660000000000003,-0.08878728117952969
-0.04760000000000003,-0.08919754745649056
-0.04860000000000003,-0.08956537239445547
-0.04960000000000003,-0.08994734444541903
-0.050600000000000034,-0.0903576107223799
-0.051600000000000035,-0.0907254356603448
-0.052600000000000036,-0.09110740771130836
-0.053600000000000037,-0.09144693842327598
-0.05460000000000004,-0.09180061624824223
-0.05560000000000004,-0.09215429407320849
-0.05660000000000004,-0.09253626612417204
-0.05760000000000004,-0.09288994394913831
-0.05860000000000004,-0.09322947466110591
-0.05960000000000004,-0.09358315248607219
-0.06060000000000004,-0.09395097742403709
-0.061600000000000044,-0.0942622139100074
-0.06260000000000004,-0.094601744621975
-0.06360000000000005,-0.09494127533394262
-0.06460000000000005,-0.09526665893291157
-0.06560000000000005,-0.09559204253188053
-0.06660000000000005,-0.09590327901785084
-0.06760000000000005,-0.0962286626168198
-0.06860000000000005,-0.09653989910279011
-0.06960000000000005,-0.09685113558876042
-0.07060000000000005,-0.09716237207473072
-0.07160000000000005,-0.09741702010870643
-0.07260000000000005,-0.0977424037076754
-0.07360000000000005,-0.09799705174165109
-0.07460000000000006,-0.09827999400162409
-0.07560000000000006,-0.09857708337459577
-0.07660000000000006,-0.09883173140857146
-0.07760000000000006,-0.09911467366854448
-0.07860000000000006,-0.09935517458952153
-0.07960000000000006,-0.09962396973649587
-0.08060000000000006,-0.09987861777047159
-0.08160000000000006,-0.1001332658044473
-0.08260000000000006,-0.100387913838423
-0.08360000000000006,-0.1006142676464014
-0.08460000000000006,-0.10085476856737846
-0.08560000000000006,-0.10109526948835552
-0.08660000000000007,-0.10132162329633393
-0.08760000000000007,-0.10153382999131368
-0.08860000000000007,-0.1017601837992921
-0.08960000000000007,-0.10197239049427186
-0.09060000000000007,-0.1021845971892516
-0.09160000000000007,-0.10236850965823405
-0.09260000000000007,-0.10255242212721652
-0.09360000000000007,-0.10273633459619896
-0.09460000000000007,-0.10290609995218276
-0.09560000000000007,-0.10309001242116521
-0.09660000000000007,-0.1032739248901477
-0.09760000000000008,-0.10342954313313284
-0.09860000000000008,-0.10358516137611798
-0.09960000000000008,-0.10374077961910314
-0.10060000000000008,-0.10389639786208829
-0.10160000000000008,-0.10405201610507345
-0.10260000000000008,-0.1042076343480586
-0.10360000000000008,-0.10430666413904917
-0.10460000000000008,-0.10446228238203431
-0.10560000000000008,-0.10457545928602352
-0.10660000000000008,-0.10468863619001273
-0.10760000000000008,-0.10483010731999923
-0.10860000000000009,-0.10492913711098976
-0.10960000000000009,-0.10507060824097628
-0.11060000000000009,-0.10515549091896817
-0.11160000000000009,-0.10525452070995873
-0.11260000000000009,-0.10538184472694657
-0.11360000000000009,-0.10545258029193984
-0.11460000000000009,-0.10556575719592905
-0.11560000000000009,-0.10567893409991824
-0.11660000000000009,-0.1057213754389142
-0.1176000000000001,-0.10580625811690608
-0.1186000000000001,-0.10587699368189933
-0.1196000000000001,-0.1059477292468926
-0.1206000000000001,-0.10601846481188584
-0.1216000000000001,-0.10606090615088182
-0.1226000000000001,-0.10608920037687909
-0.1236000000000001,-0.10615993594187234
-0.1246000000000001,-0.10618823016786964
-0.1256000000000001,-0.10625896573286289
-0.1266000000000001,-0.10627311284586156
-0.1276000000000001,-0.10632970129785616
-0.1286000000000001,-0.10635799552385346
-0.1296000000000001,-0.1063721426368521
-0.1306000000000001,-0.10638628974985076
-0.1316000000000001,-0.10641458397584806
-0.1326000000000001,-0.1064287310888467
-0.1336000000000001,-0.1064287310888467
-0.1346000000000001,-0.10644287820184536
-0.1356000000000001,-0.10645702531484401
-0.1366000000000001,-0.10645702531484401
-0.1376000000000001,-0.10645702531484401
-0.1386000000000001,-0.10644287820184536
-0.1396000000000001,-0.10647117242784265
-0.1406000000000001,-0.10644287820184536
-0.14160000000000011,-0.1064287310888467
-0.14260000000000012,-0.1064287310888467
-0.14360000000000012,-0.1064004368628494
-0.14460000000000012,-0.10638628974985076
-0.14560000000000012,-0.1063721426368521
-0.14660000000000012,-0.10632970129785616
-0.14760000000000012,-0.10630140707185885
-0.14860000000000012,-0.10625896573286289
-0.14960000000000012,-0.10621652439386696
-0.15060000000000012,-0.10620237728086832
-0.15160000000000012,-0.1061457888288737
-0.15260000000000012,-0.10610334748987776
-0.15360000000000013,-0.1060326119248845
-0.15460000000000013,-0.1060043176988872
-0.15560000000000013,-0.1059760234728899
-0.15660000000000013,-0.10591943502089529
-0.15760000000000013,-0.10587699368189933
-0.15860000000000013,-0.1058628465689007
-0.15960000000000002,-0.1058345523429034
-0.16060000000000002,-0.10582040522990475
-0.16160000000000002,-0.10576381677791014
-0.16260000000000002,-0.1057213754389142
-0.16360000000000002,-0.10566478698691958
-0.16460000000000002,-0.105608198534925
-0.16560000000000002,-0.105608198534925
-0.16660000000000003,-0.10559405142192634
-0.16760000000000003,-0.10549502163093578
-0.16860000000000003,-0.10542428606594254
-0.16960000000000003,-0.10535355050094929
-0.17060000000000003,-0.10529696204895468
-0.17160000000000003,-0.10519793225796412
-0.17260000000000003,-0.10512719669297087
-0.17360000000000003,-0.10501401978898167
-0.17460000000000003,-0.10490084288499248
-0.17560000000000003,-0.10480181309400192
-0.17660000000000003,-0.10466034196401541
-0.17760000000000004,-0.10453301794702756
-0.17860000000000004,-0.10441984104303836
-0.17960000000000004,-0.1042925170260505
-0.18060000000000004,-0.10416519300906264
-0.18160000000000004,-0.1040378689920748
-0.18260000000000004,-0.10391054497508695
-0.18360000000000004,-0.1038115151840964
-0.18460000000000004,-0.10371248539310583
-0.18560000000000004,-0.10362760271511394
-0.18660000000000004,-0.10352857292412339
-0.18760000000000004,-0.10348613158512744
-0.18860000000000005,-0.10341539602013419
-0.18960000000000005,-0.10341539602013419
-0.19060000000000005,-0.10347198447212877
-0.19160000000000005,-0.10352857292412339
-0.19260000000000005,-0.10354272003712203
-0.19360000000000005,-0.10344369024613147
-0.19460000000000005,-0.10323148355115172
-0.19560000000000005,-0.10296268840417737
-0.19660000000000005,-0.10259486346621245
-0.19760000000000005,-0.10225533275424485
-0.19860000000000005,-0.10191580204227724
-0.19960000000000006,-0.10160456555630692
-0.20060000000000006,-0.10134991752233123
-0.20160000000000006,-0.10108112237535687
-0.20260000000000006,-0.10089720990637441
-0.20360000000000006,-0.10068500321139465
-0.20460000000000006,-0.10051523785541085
-0.20560000000000006,-0.10037376672542435
-0.20660000000000006,-0.10018985425644189
-0.20760000000000006,-0.10002008890045809
-0.20860000000000006,-0.09987861777047159
-0.20960000000000006,-0.09973714664048508
-0.21060000000000006,-0.09959567551049858
-0.21160000000000007,-0.09946835149351073
-0.21260000000000007,-0.09931273325052556
-0.21360000000000007,-0.09918540923353773
-0.21460000000000007,-0.09904393810355122
-0.21560000000000007,-0.09891661408656337
-0.21660000000000007,-0.09878929006957551
-0.21760000000000007,-0.09869026027858496
-0.21860000000000007,-0.0985346420355998
-0.21960000000000007,-0.09840731801861195
-0.22060000000000007,-0.09826584688862545
-0.22160000000000007,-0.09813852287163759
-0.22260000000000008,-0.09802534596764839
-0.22360000000000008,-0.0978838748376619
-0.22460000000000008,-0.09778484504667133
-0.22560000000000008,-0.09765752102968349
-0.22660000000000008,-0.09753019701269564
-0.22760000000000008,-0.09743116722170508
-0.22860000000000008,-0.09728969609171857
-0.22960000000000008,-0.09719066630072802
-0.23060000000000008,-0.09709163650973747
-0.23160000000000008,-0.09695016537975096
-0.23260000000000008,-0.09685113558876042
-0.23360000000000009,-0.09670966445877392
-0.2346000000000001,-0.096624781780782
-0.2356000000000001,-0.09652575198979144
-0.2366000000000001,-0.09639842797280361
-0.2376000000000001,-0.09629939818181305
-0.2386000000000001,-0.09618622127782384
-0.2396000000000001,-0.09607304437383464
-0.2406000000000001,-0.09598816169584275
-0.2416000000000001,-0.09587498479185352
-0.2426000000000001,-0.09577595500086299
-0.2436000000000001,-0.09566277809687378
-0.2446000000000001,-0.09556374830588323
-0.2456000000000001,-0.09546471851489266
-0.2466000000000001,-0.09533739449790483
-0.2476000000000001,-0.09526665893291157
-0.2486000000000001,-0.09518177625491966
-0.2496000000000001,-0.09509689357692777
-0.2506000000000001,-0.09501201089893586
-0.2516000000000001,-0.09489883399494665
-0.2526000000000001,-0.09481395131695476
-0.2536000000000001,-0.09470077441296555
-0.2546000000000001,-0.0946300388479723
-0.2556000000000001,-0.0945451561699804
-0.2566000000000001,-0.0944602734919885
-0.2576000000000001,-0.0943753908139966
-0.2586000000000001,-0.09429050813600469
-0.2596000000000001,-0.0942056254580128
-0.2606000000000001,-0.09413488989301955
-0.2616000000000001,-0.094035860102029
-0.2626000000000001,-0.09397927165003438
-0.2636000000000001,-0.09389438897204248
-0.2646000000000001,-0.09382365340704923
-0.2656000000000001,-0.09372462361605868
-0.2666000000000001,-0.09365388805106543
-0.2676000000000001,-0.09358315248607219
-0.2686000000000001,-0.09349826980808028
-0.2696000000000001,-0.09344168135608567
-0.2706000000000001,-0.09339924001708971
-0.2716000000000001,-0.09330021022609918
-0.2726000000000001,-0.09322947466110591
-0.2736000000000001,-0.09315873909611266
-0.2746000000000001,-0.09310215064411806
-0.2756000000000001,-0.09304556219212347
-0.2766000000000001,-0.0929465324011329
-0.2776000000000001,-0.09288994394913831
-0.2786000000000001,-0.09281920838414506
-0.2796000000000001,-0.0927484728191518
-0.2806000000000001,-0.09272017859315451
-0.28160000000000013,-0.09264944302816126
-0.28260000000000013,-0.09259285457616664
-0.28360000000000013,-0.0925221190111734
-0.2846,-0.09245138344618015
-0.2856,-0.0924089421071842
-0.2866,-0.09233820654219095
-0.2876,-0.09228161809019635
-0.2886,-0.09222502963820174
-0.2896,-0.09216844118620715
-0.2906,-0.09214014696020983
-0.2916,-0.09208355850821524
-0.2926,-0.09204111716921928
-0.2936,-0.09202697005622064
-0.29460000000000003,-0.09197038160422603
-0.29560000000000003,-0.09191379315223143
-0.29660000000000003,-0.09184305758723818
-0.29760000000000003,-0.09180061624824223
-0.29860000000000003,-0.09175817490924627
-0.29960000000000003,-0.09171573357025031
-0.30060000000000003,-0.09165914511825574
-0.30160000000000003,-0.09160255666626112
-0.30260000000000004,-0.09157426244026382
-0.30360000000000004,-0.09151767398826924
-0.30460000000000004,-0.09148937976227192
-0.30560000000000004,-0.09143279131027732
-0.30660000000000004,-0.09140449708428001
-0.30760000000000004,-0.09136205574528407
-0.30860000000000004,-0.09130546729328948
-0.30960000000000004,-0.0912630259542935
-0.31060000000000004,-0.09124887884129487
-0.31160000000000004,-0.09119229038930025
-0.31260000000000004,-0.09117814327630162
-0.31360000000000005,-0.091121554824307
-0.31460000000000005,-0.09109326059830972
-0.31560000000000005,-0.09106496637231241
-0.31660000000000005,-0.09099423080731917
-0.31760000000000005,-0.09099423080731917
-0.31860000000000005,-0.0909517894683232
-0.31960000000000005,-0.0909517894683232
-0.32060000000000005,-0.0909234952423259
-0.32160000000000005,-0.09086690679033131
-0.32260000000000005,-0.09085275967733265
-0.32360000000000005,-0.09079617122533806
-0.32460000000000006,-0.09076787699934075
-0.32560000000000006,-0.09073958277334346
-0.32660000000000006,-0.09071128854734616
-0.32760000000000006,-0.09066884720835021
-0.32860000000000006,-0.0906405529823529
-0.32960000000000006,-0.09059811164335696
-0.33060000000000006,-0.09056981741735964
-0.33160000000000006,-0.090555670304361
-0.33260000000000006,-0.09051322896536505
-0.33360000000000006,-0.0904990818523664
-0.33460000000000006,-0.09047078762636909
-0.33560000000000006,-0.09045664051337043
-0.33660000000000007,-0.0904141991743745
-0.33760000000000007,-0.09040005206137584
-0.33860000000000007,-0.0903576107223799
-0.33960000000000007,-0.0903293164963826
-0.34060000000000007,-0.09030102227038528
-0.34160000000000007,-0.09027272804438799
-0.34260000000000007,-0.09024443381839069
-0.34360000000000007,-0.09020199247939473
-0.3446000000000001,-0.09020199247939473
-0.3456000000000001,-0.09017369825339744
-0.3466000000000001,-0.09013125691440148
-0.34759999999999996,-0.09011710980140283
-0.3486000000000001,-0.09007466846240689
-0.34959999999999997,-0.09007466846240689
-0.3506000000000001,-0.09004637423640958
-0.35159999999999997,-0.09001808001041228
-0.3526000000000001,-0.08998978578441498
-0.35359999999999997,-0.08996149155841768
-0.3546000000000001,-0.08991905021942173
-0.35559999999999997,-0.08991905021942173
-0.3566000000000001,-0.08987660888042578
-0.3576,-0.08986246176742714
-0.3586000000000001,-0.08982002042843118
-0.3596,-0.08980587331543252
-0.3606000000000001,-0.08979172620243389
-0.3616,-0.08976343197643659
-0.3626000000000001,-0.08974928486343793
-0.3636,-0.08972099063744063
-0.3646000000000001,-0.08967854929844467
-0.3656,-0.08967854929844467
-0.3666000000000001,-0.08963610795944872
-0.3676,-0.08960781373345142
-0.3686000000000001,-0.08957951950745412
-0.3696,-0.08955122528145683
-0.3706000000000001,-0.08957951950745412
-0.3716,-0.08955122528145683
-0.3726000000000001,-0.08952293105545953
-0.3736,-0.08950878394246087
-0.3746000000000001,-0.08949463682946222
-0.3756,-0.08946634260346491
-0.3766000000000001,-0.08943804837746762
-0.3776,-0.08942390126446896
-0.3786000000000001,-0.08940975415147032
-0.3796,-0.08939560703847166
-0.3806000000000001,-0.08936731281247437
-0.3816,-0.08935316569947571
-0.3826000000000001,-0.08932487147347841
-0.3836,-0.08929657724748112
-0.3846000000000001,-0.08928243013448246
-0.3856,-0.08925413590848516
-0.3866000000000001,-0.08922584168248787
-0.3876,-0.08921169456948921
-0.3886000000000001,-0.08916925323049325
-0.3896,-0.08916925323049325
-0.3906000000000001,-0.08915510611749461
-0.3916,-0.0891268118914973
-0.3926000000000001,-0.0890985176655
-0.3936,-0.08905607632650406
-0.3946000000000001,-0.08905607632650406
-0.3956,-0.08905607632650406
-0.3966000000000001,-0.08902778210050676
-0.3976,-0.08901363498750811
-0.3986000000000001,-0.08898534076151081
-0.3996,-0.08897119364851215
-0.4006000000000001,-0.08894289942251486
-0.4016,-0.08891460519651756
-0.4026000000000001,-0.08891460519651756
-0.4036,-0.08888631097052026
-0.4046000000000001,-0.08887216385752161
-0.4056,-0.08884386963152431
-0.40660000000000013,-0.088815575405527
-0.4076,-0.088815575405527
-0.40860000000000013,-0.08880142829252836
-0.4096,-0.08878728117952969
-0.41060000000000013,-0.08880142829252836
-0.4116,-0.08877313406653106
-0.41260000000000013,-0.0887589869535324
-0.4136,-0.08874483984053375
-0.41460000000000014,-0.08873069272753512
-0.4156,-0.08873069272753512
-0.41660000000000014,-0.08871654561453644
-0.4176,-0.08871654561453644
-0.41860000000000014,-0.08868825138853914
-0.41960000000000003,-0.0886741042755405
-0.42060000000000014,-0.08865995716254185
-0.42160000000000003,-0.08868825138853914
-0.42260000000000014,-0.08868825138853914
-0.42360000000000003,-0.0886741042755405
-0.42460000000000014,-0.08865995716254185
-0.42560000000000003,-0.0886458100495432
-0.42660000000000015,-0.0886458100495432
-0.42760000000000004,-0.0886458100495432
-0.42860000000000015,-0.08863166293654455
-0.42960000000000004,-0.08863166293654455
-0.43060000000000015,-0.08863166293654455
-0.43160000000000004,-0.0886458100495432
-0.43260000000000015,-0.0886458100495432
-0.43360000000000004,-0.08863166293654455
-0.43460000000000015,-0.08865995716254185
-0.43560000000000004,-0.0886741042755405
-0.43660000000000015,-0.08865995716254185
-0.43760000000000004,-0.0886741042755405
