Sept. 23, 2024   14:50:22
Linear Sweep Voltammetry
File: c:/users/guazh/data/20240922_batch_417_500/2024-09-22-exp426\post-regen1-2024-09-23t14_47_10-lsvinphos\post-regen1_lsv_50mvs_efin_-2300mv.bin
Data Source:  Experiment
Instrument Model:  CHI760E
Header: LSV ran at 50 mVs with Efin at -2300mV
Note: 

Init E (V) = -0.6
Final E (V) = -2.3
Scan Rate (V/s) = 0.05
Sample Interval (V) = 0.001
Quiet Time (sec) = 2
Sensitivity (A/V) = 1e-4
Comp R (ohm) = 11.8

Results:

Channel 1:
Ep = -1.958V
ip = 7.059e-4A
Ah = 1.079e-3C

Potential/V, Current/A

-0.600, 2.366e-6
-0.601, 2.449e-6
-0.602, 2.483e-6
-0.603, 2.510e-6
-0.604, 2.538e-6
-0.605, 2.563e-6
-0.606, 2.590e-6
-0.607, 2.615e-6
-0.608, 2.640e-6
-0.609, 2.666e-6
-0.610, 2.689e-6
-0.611, 2.715e-6
-0.612, 2.738e-6
-0.613, 2.763e-6
-0.614, 2.791e-6
-0.615, 2.816e-6
-0.616, 2.841e-6
-0.617, 2.867e-6
-0.618, 2.891e-6
-0.619, 2.916e-6
-0.620, 2.942e-6
-0.621, 2.969e-6
-0.622, 2.993e-6
-0.623, 3.018e-6
-0.624, 3.044e-6
-0.625, 3.070e-6
-0.626, 3.097e-6
-0.627, 3.123e-6
-0.628, 3.149e-6
-0.629, 3.176e-6
-0.630, 3.202e-6
-0.631, 3.228e-6
-0.632, 3.254e-6
-0.633, 3.280e-6
-0.634, 3.307e-6
-0.635, 3.335e-6
-0.636, 3.362e-6
-0.637, 3.389e-6
-0.638, 3.416e-6
-0.639, 3.443e-6
-0.640, 3.472e-6
-0.641, 3.499e-6
-0.642, 3.525e-6
-0.643, 3.553e-6
-0.644, 3.582e-6
-0.645, 3.609e-6
-0.646, 3.638e-6
-0.647, 3.665e-6
-0.648, 3.694e-6
-0.649, 3.722e-6
-0.650, 3.749e-6
-0.651, 3.778e-6
-0.652, 3.806e-6
-0.653, 3.836e-6
-0.654, 3.866e-6
-0.655, 3.893e-6
-0.656, 3.922e-6
-0.657, 3.951e-6
-0.658, 3.977e-6
-0.659, 4.007e-6
-0.660, 4.037e-6
-0.661, 4.064e-6
-0.662, 4.093e-6
-0.663, 4.121e-6
-0.664, 4.151e-6
-0.665, 4.179e-6
-0.666, 4.209e-6
-0.667, 4.236e-6
-0.668, 4.264e-6
-0.669, 4.294e-6
-0.670, 4.323e-6
-0.671, 4.353e-6
-0.672, 4.381e-6
-0.673, 4.410e-6
-0.674, 4.440e-6
-0.675, 4.469e-6
-0.676, 4.500e-6
-0.677, 4.529e-6
-0.678, 4.559e-6
-0.679, 4.589e-6
-0.680, 4.618e-6
-0.681, 4.648e-6
-0.682, 4.676e-6
-0.683, 4.705e-6
-0.684, 4.736e-6
-0.685, 4.763e-6
-0.686, 4.793e-6
-0.687, 4.822e-6
-0.688, 4.850e-6
-0.689, 4.880e-6
-0.690, 4.908e-6
-0.691, 4.938e-6
-0.692, 4.968e-6
-0.693, 4.996e-6
-0.694, 5.026e-6
-0.695, 5.054e-6
-0.696, 5.085e-6
-0.697, 5.112e-6
-0.698, 5.138e-6
-0.699, 5.167e-6
-0.700, 5.195e-6
-0.701, 5.224e-6
-0.702, 5.251e-6
-0.703, 5.278e-6
-0.704, 5.308e-6
-0.705, 5.335e-6
-0.706, 5.362e-6
-0.707, 5.389e-6
-0.708, 5.415e-6
-0.709, 5.442e-6
-0.710, 5.470e-6
-0.711, 5.496e-6
-0.712, 5.523e-6
-0.713, 5.550e-6
-0.714, 5.576e-6
-0.715, 5.602e-6
-0.716, 5.628e-6
-0.717, 5.653e-6
-0.718, 5.678e-6
-0.719, 5.701e-6
-0.720, 5.727e-6
-0.721, 5.753e-6
-0.722, 5.776e-6
-0.723, 5.800e-6
-0.724, 5.826e-6
-0.725, 5.849e-6
-0.726, 5.873e-6
-0.727, 5.894e-6
-0.728, 5.915e-6
-0.729, 5.937e-6
-0.730, 5.958e-6
-0.731, 5.980e-6
-0.732, 6.003e-6
-0.733, 6.024e-6
-0.734, 6.046e-6
-0.735, 6.065e-6
-0.736, 6.088e-6
-0.737, 6.106e-6
-0.738, 6.126e-6
-0.739, 6.147e-6
-0.740, 6.164e-6
-0.741, 6.183e-6
-0.742, 6.201e-6
-0.743, 6.218e-6
-0.744, 6.234e-6
-0.745, 6.252e-6
-0.746, 6.270e-6
-0.747, 6.287e-6
-0.748, 6.303e-6
-0.749, 6.320e-6
-0.750, 6.336e-6
-0.751, 6.352e-6
-0.752, 6.367e-6
-0.753, 6.382e-6
-0.754, 6.396e-6
-0.755, 6.412e-6
-0.756, 6.426e-6
-0.757, 6.438e-6
-0.758, 6.451e-6
-0.759, 6.465e-6
-0.760, 6.476e-6
-0.761, 6.490e-6
-0.762, 6.501e-6
-0.763, 6.512e-6
-0.764, 6.523e-6
-0.765, 6.533e-6
-0.766, 6.545e-6
-0.767, 6.554e-6
-0.768, 6.565e-6
-0.769, 6.576e-6
-0.770, 6.585e-6
-0.771, 6.593e-6
-0.772, 6.601e-6
-0.773, 6.609e-6
-0.774, 6.618e-6
-0.775, 6.625e-6
-0.776, 6.632e-6
-0.777, 6.638e-6
-0.778, 6.643e-6
-0.779, 6.650e-6
-0.780, 6.656e-6
-0.781, 6.662e-6
-0.782, 6.665e-6
-0.783, 6.670e-6
-0.784, 6.674e-6
-0.785, 6.679e-6
-0.786, 6.681e-6
-0.787, 6.686e-6
-0.788, 6.688e-6
-0.789, 6.690e-6
-0.790, 6.695e-6
-0.791, 6.697e-6
-0.792, 6.698e-6
-0.793, 6.700e-6
-0.794, 6.702e-6
-0.795, 6.702e-6
-0.796, 6.704e-6
-0.797, 6.704e-6
-0.798, 6.705e-6
-0.799, 6.706e-6
-0.800, 6.705e-6
-0.801, 6.705e-6
-0.802, 6.703e-6
-0.803, 6.703e-6
-0.804, 6.702e-6
-0.805, 6.700e-6
-0.806, 6.700e-6
-0.807, 6.698e-6
-0.808, 6.696e-6
-0.809, 6.693e-6
-0.810, 6.690e-6
-0.811, 6.688e-6
-0.812, 6.685e-6
-0.813, 6.681e-6
-0.814, 6.679e-6
-0.815, 6.676e-6
-0.816, 6.672e-6
-0.817, 6.668e-6
-0.818, 6.664e-6
-0.819, 6.664e-6
-0.820, 6.661e-6
-0.821, 6.656e-6
-0.822, 6.651e-6
-0.823, 6.646e-6
-0.824, 6.641e-6
-0.825, 6.637e-6
-0.826, 6.632e-6
-0.827, 6.626e-6
-0.828, 6.621e-6
-0.829, 6.616e-6
-0.830, 6.610e-6
-0.831, 6.605e-6
-0.832, 6.599e-6
-0.833, 6.593e-6
-0.834, 6.588e-6
-0.835, 6.581e-6
-0.836, 6.577e-6
-0.837, 6.569e-6
-0.838, 6.562e-6
-0.839, 6.556e-6
-0.840, 6.550e-6
-0.841, 6.544e-6
-0.842, 6.536e-6
-0.843, 6.529e-6
-0.844, 6.523e-6
-0.845, 6.517e-6
-0.846, 6.511e-6
-0.847, 6.505e-6
-0.848, 6.498e-6
-0.849, 6.492e-6
-0.850, 6.484e-6
-0.851, 6.478e-6
-0.852, 6.470e-6
-0.853, 6.463e-6
-0.854, 6.458e-6
-0.855, 6.450e-6
-0.856, 6.444e-6
-0.857, 6.437e-6
-0.858, 6.430e-6
-0.859, 6.424e-6
-0.860, 6.416e-6
-0.861, 6.410e-6
-0.862, 6.403e-6
-0.863, 6.394e-6
-0.864, 6.388e-6
-0.865, 6.380e-6
-0.866, 6.374e-6
-0.867, 6.367e-6
-0.868, 6.360e-6
-0.869, 6.353e-6
-0.870, 6.346e-6
-0.871, 6.340e-6
-0.872, 6.333e-6
-0.873, 6.326e-6
-0.874, 6.319e-6
-0.875, 6.312e-6
-0.876, 6.305e-6
-0.877, 6.298e-6
-0.878, 6.292e-6
-0.879, 6.284e-6
-0.880, 6.277e-6
-0.881, 6.272e-6
-0.882, 6.262e-6
-0.883, 6.258e-6
-0.884, 6.252e-6
-0.885, 6.244e-6
-0.886, 6.239e-6
-0.887, 6.232e-6
-0.888, 6.224e-6
-0.889, 6.219e-6
-0.890, 6.214e-6
-0.891, 6.208e-6
-0.892, 6.202e-6
-0.893, 6.195e-6
-0.894, 6.189e-6
-0.895, 6.183e-6
-0.896, 6.179e-6
-0.897, 6.174e-6
-0.898, 6.166e-6
-0.899, 6.161e-6
-0.900, 6.155e-6
-0.901, 6.149e-6
-0.902, 6.143e-6
-0.903, 6.138e-6
-0.904, 6.132e-6
-0.905, 6.127e-6
-0.906, 6.120e-6
-0.907, 6.114e-6
-0.908, 6.108e-6
-0.909, 6.104e-6
-0.910, 6.097e-6
-0.911, 6.092e-6
-0.912, 6.087e-6
-0.913, 6.080e-6
-0.914, 6.075e-6
-0.915, 6.070e-6
-0.916, 6.066e-6
-0.917, 6.059e-6
-0.918, 6.054e-6
-0.919, 6.049e-6
-0.920, 6.044e-6
-0.921, 6.040e-6
-0.922, 6.034e-6
-0.923, 6.029e-6
-0.924, 6.024e-6
-0.925, 6.019e-6
-0.926, 6.016e-6
-0.927, 6.009e-6
-0.928, 6.004e-6
-0.929, 6.001e-6
-0.930, 5.995e-6
-0.931, 5.991e-6
-0.932, 5.985e-6
-0.933, 5.980e-6
-0.934, 5.977e-6
-0.935, 5.972e-6
-0.936, 5.969e-6
-0.937, 5.964e-6
-0.938, 5.958e-6
-0.939, 5.955e-6
-0.940, 5.951e-6
-0.941, 5.947e-6
-0.942, 5.943e-6
-0.943, 5.937e-6
-0.944, 5.934e-6
-0.945, 5.930e-6
-0.946, 5.927e-6
-0.947, 5.923e-6
-0.948, 5.921e-6
-0.949, 5.918e-6
-0.950, 5.914e-6
-0.951, 5.910e-6
-0.952, 5.906e-6
-0.953, 5.903e-6
-0.954, 5.901e-6
-0.955, 5.897e-6
-0.956, 5.892e-6
-0.957, 5.890e-6
-0.958, 5.886e-6
-0.959, 5.882e-6
-0.960, 5.881e-6
-0.961, 5.878e-6
-0.962, 5.873e-6
-0.963, 5.870e-6
-0.964, 5.866e-6
-0.965, 5.864e-6
-0.966, 5.861e-6
-0.967, 5.857e-6
-0.968, 5.854e-6
-0.969, 5.851e-6
-0.970, 5.847e-6
-0.971, 5.844e-6
-0.972, 5.842e-6
-0.973, 5.841e-6
-0.974, 5.837e-6
-0.975, 5.834e-6
-0.976, 5.832e-6
-0.977, 5.828e-6
-0.978, 5.824e-6
-0.979, 5.823e-6
-0.980, 5.819e-6
-0.981, 5.817e-6
-0.982, 5.812e-6
-0.983, 5.810e-6
-0.984, 5.807e-6
-0.985, 5.806e-6
-0.986, 5.804e-6
-0.987, 5.800e-6
-0.988, 5.798e-6
-0.989, 5.795e-6
-0.990, 5.793e-6
-0.991, 5.792e-6
-0.992, 5.788e-6
-0.993, 5.787e-6
-0.994, 5.783e-6
-0.995, 5.781e-6
-0.996, 5.779e-6
-0.997, 5.776e-6
-0.998, 5.775e-6
-0.999, 5.773e-6
-1.000, 5.770e-6
-1.001, 5.769e-6
-1.002, 5.766e-6
-1.003, 5.764e-6
-1.004, 5.761e-6
-1.005, 5.760e-6
-1.006, 5.759e-6
-1.007, 5.755e-6
-1.008, 5.754e-6
-1.009, 5.752e-6
-1.010, 5.750e-6
-1.011, 5.749e-6
-1.012, 5.746e-6
-1.013, 5.743e-6
-1.014, 5.743e-6
-1.015, 5.741e-6
-1.016, 5.740e-6
-1.017, 5.738e-6
-1.018, 5.736e-6
-1.019, 5.734e-6
-1.020, 5.732e-6
-1.021, 5.731e-6
-1.022, 5.729e-6
-1.023, 5.727e-6
-1.024, 5.728e-6
-1.025, 5.726e-6
-1.026, 5.724e-6
-1.027, 5.721e-6
-1.028, 5.721e-6
-1.029, 5.720e-6
-1.030, 5.718e-6
-1.031, 5.718e-6
-1.032, 5.715e-6
-1.033, 5.716e-6
-1.034, 5.713e-6
-1.035, 5.712e-6
-1.036, 5.711e-6
-1.037, 5.710e-6
-1.038, 5.709e-6
-1.039, 5.707e-6
-1.040, 5.707e-6
-1.041, 5.707e-6
-1.042, 5.704e-6
-1.043, 5.703e-6
-1.044, 5.702e-6
-1.045, 5.701e-6
-1.046, 5.701e-6
-1.047, 5.699e-6
-1.048, 5.698e-6
-1.049, 5.698e-6
-1.050, 5.696e-6
-1.051, 5.696e-6
-1.052, 5.694e-6
-1.053, 5.695e-6
-1.054, 5.694e-6
-1.055, 5.693e-6
-1.056, 5.694e-6
-1.057, 5.691e-6
-1.058, 5.691e-6
-1.059, 5.690e-6
-1.060, 5.690e-6
-1.061, 5.690e-6
-1.062, 5.687e-6
-1.063, 5.688e-6
-1.064, 5.687e-6
-1.065, 5.687e-6
-1.066, 5.686e-6
-1.067, 5.685e-6
-1.068, 5.685e-6
-1.069, 5.685e-6
-1.070, 5.686e-6
-1.071, 5.684e-6
-1.072, 5.685e-6
-1.073, 5.685e-6
-1.074, 5.682e-6
-1.075, 5.685e-6
-1.076, 5.686e-6
-1.077, 5.684e-6
-1.078, 5.684e-6
-1.079, 5.684e-6
-1.080, 5.684e-6
-1.081, 5.685e-6
-1.082, 5.683e-6
-1.083, 5.685e-6
-1.084, 5.684e-6
-1.085, 5.684e-6
-1.086, 5.684e-6
-1.087, 5.683e-6
-1.088, 5.685e-6
-1.089, 5.685e-6
-1.090, 5.685e-6
-1.091, 5.686e-6
-1.092, 5.685e-6
-1.093, 5.687e-6
-1.094, 5.687e-6
-1.095, 5.687e-6
-1.096, 5.688e-6
-1.097, 5.688e-6
-1.098, 5.688e-6
-1.099, 5.688e-6
-1.100, 5.689e-6
-1.101, 5.690e-6
-1.102, 5.692e-6
-1.103, 5.693e-6
-1.104, 5.692e-6
-1.105, 5.694e-6
-1.106, 5.695e-6
-1.107, 5.694e-6
-1.108, 5.696e-6
-1.109, 5.695e-6
-1.110, 5.698e-6
-1.111, 5.700e-6
-1.112, 5.699e-6
-1.113, 5.702e-6
-1.114, 5.702e-6
-1.115, 5.704e-6
-1.116, 5.705e-6
-1.117, 5.704e-6
-1.118, 5.708e-6
-1.119, 5.707e-6
-1.120, 5.709e-6
-1.121, 5.712e-6
-1.122, 5.711e-6
-1.123, 5.714e-6
-1.124, 5.714e-6
-1.125, 5.716e-6
-1.126, 5.719e-6
-1.127, 5.719e-6
-1.128, 5.721e-6
-1.129, 5.722e-6
-1.130, 5.724e-6
-1.131, 5.726e-6
-1.132, 5.727e-6
-1.133, 5.730e-6
-1.134, 5.731e-6
-1.135, 5.732e-6
-1.136, 5.736e-6
-1.137, 5.736e-6
-1.138, 5.738e-6
-1.139, 5.740e-6
-1.140, 5.744e-6
-1.141, 5.745e-6
-1.142, 5.747e-6
-1.143, 5.750e-6
-1.144, 5.750e-6
-1.145, 5.754e-6
-1.146, 5.756e-6
-1.147, 5.758e-6
-1.148, 5.761e-6
-1.149, 5.763e-6
-1.150, 5.765e-6
-1.151, 5.767e-6
-1.152, 5.770e-6
-1.153, 5.774e-6
-1.154, 5.775e-6
-1.155, 5.780e-6
-1.156, 5.781e-6
-1.157, 5.781e-6
-1.158, 5.786e-6
-1.159, 5.788e-6
-1.160, 5.791e-6
-1.161, 5.795e-6
-1.162, 5.795e-6
-1.163, 5.800e-6
-1.164, 5.803e-6
-1.165, 5.806e-6
-1.166, 5.809e-6
-1.167, 5.811e-6
-1.168, 5.815e-6
-1.169, 5.818e-6
-1.170, 5.819e-6
-1.171, 5.825e-6
-1.172, 5.826e-6
-1.173, 5.829e-6
-1.174, 5.833e-6
-1.175, 5.836e-6
-1.176, 5.839e-6
-1.177, 5.843e-6
-1.178, 5.849e-6
-1.179, 5.850e-6
-1.180, 5.853e-6
-1.181, 5.856e-6
-1.182, 5.860e-6
-1.183, 5.865e-6
-1.184, 5.867e-6
-1.185, 5.871e-6
-1.186, 5.874e-6
-1.187, 5.877e-6
-1.188, 5.881e-6
-1.189, 5.883e-6
-1.190, 5.888e-6
-1.191, 5.891e-6
-1.192, 5.893e-6
-1.193, 5.898e-6
-1.194, 5.901e-6
-1.195, 5.905e-6
-1.196, 5.910e-6
-1.197, 5.912e-6
-1.198, 5.917e-6
-1.199, 5.919e-6
-1.200, 5.925e-6
-1.201, 5.929e-6
-1.202, 5.931e-6
-1.203, 5.937e-6
-1.204, 5.940e-6
-1.205, 5.944e-6
-1.206, 5.948e-6
-1.207, 5.951e-6
-1.208, 5.956e-6
-1.209, 5.960e-6
-1.210, 5.964e-6
-1.211, 5.969e-6
-1.212, 5.974e-6
-1.213, 5.979e-6
-1.214, 5.982e-6
-1.215, 5.987e-6
-1.216, 5.992e-6
-1.217, 5.997e-6
-1.218, 6.001e-6
-1.219, 6.005e-6
-1.220, 6.011e-6
-1.221, 6.015e-6
-1.222, 6.020e-6
-1.223, 6.025e-6
-1.224, 6.030e-6
-1.225, 6.035e-6
-1.226, 6.039e-6
-1.227, 6.044e-6
-1.228, 6.050e-6
-1.229, 6.057e-6
-1.230, 6.062e-6
-1.231, 6.067e-6
-1.232, 6.071e-6
-1.233, 6.077e-6
-1.234, 6.080e-6
-1.235, 6.086e-6
-1.236, 6.092e-6
-1.237, 6.096e-6
-1.238, 6.102e-6
-1.239, 6.105e-6
-1.240, 6.113e-6
-1.241, 6.119e-6
-1.242, 6.122e-6
-1.243, 6.129e-6
-1.244, 6.134e-6
-1.245, 6.140e-6
-1.246, 6.146e-6
-1.247, 6.149e-6
-1.248, 6.155e-6
-1.249, 6.161e-6
-1.250, 6.164e-6
-1.251, 6.170e-6
-1.252, 6.175e-6
-1.253, 6.181e-6
-1.254, 6.187e-6
-1.255, 6.193e-6
-1.256, 6.198e-6
-1.257, 6.202e-6
-1.258, 6.208e-6
-1.259, 6.213e-6
-1.260, 6.219e-6
-1.261, 6.224e-6
-1.262, 6.230e-6
-1.263, 6.236e-6
-1.264, 6.240e-6
-1.265, 6.246e-6
-1.266, 6.252e-6
-1.267, 6.259e-6
-1.268, 6.265e-6
-1.269, 6.270e-6
-1.270, 6.276e-6
-1.271, 6.282e-6
-1.272, 6.288e-6
-1.273, 6.296e-6
-1.274, 6.301e-6
-1.275, 6.308e-6
-1.276, 6.314e-6
-1.277, 6.319e-6
-1.278, 6.327e-6
-1.279, 6.333e-6
-1.280, 6.342e-6
-1.281, 6.348e-6
-1.282, 6.352e-6
-1.283, 6.360e-6
-1.284, 6.363e-6
-1.285, 6.371e-6
-1.286, 6.378e-6
-1.287, 6.384e-6
-1.288, 6.392e-6
-1.289, 6.398e-6
-1.290, 6.404e-6
-1.291, 6.410e-6
-1.292, 6.417e-6
-1.293, 6.425e-6
-1.294, 6.431e-6
-1.295, 6.437e-6
-1.296, 6.445e-6
-1.297, 6.450e-6
-1.298, 6.456e-6
-1.299, 6.463e-6
-1.300, 6.472e-6
-1.301, 6.477e-6
-1.302, 6.484e-6
-1.303, 6.491e-6
-1.304, 6.497e-6
-1.305, 6.504e-6
-1.306, 6.512e-6
-1.307, 6.519e-6
-1.308, 6.526e-6
-1.309, 6.532e-6
-1.310, 6.539e-6
-1.311, 6.546e-6
-1.312, 6.553e-6
-1.313, 6.562e-6
-1.314, 6.568e-6
-1.315, 6.575e-6
-1.316, 6.583e-6
-1.317, 6.588e-6
-1.318, 6.599e-6
-1.319, 6.605e-6
-1.320, 6.613e-6
-1.321, 6.621e-6
-1.322, 6.625e-6
-1.323, 6.634e-6
-1.324, 6.641e-6
-1.325, 6.648e-6
-1.326, 6.656e-6
-1.327, 6.663e-6
-1.328, 6.673e-6
-1.329, 6.680e-6
-1.330, 6.686e-6
-1.331, 6.695e-6
-1.332, 6.702e-6
-1.333, 6.710e-6
-1.334, 6.717e-6
-1.335, 6.724e-6
-1.336, 6.732e-6
-1.337, 6.739e-6
-1.338, 6.748e-6
-1.339, 6.756e-6
-1.340, 6.764e-6
-1.341, 6.771e-6
-1.342, 6.780e-6
-1.343, 6.786e-6
-1.344, 6.796e-6
-1.345, 6.805e-6
-1.346, 6.812e-6
-1.347, 6.819e-6
-1.348, 6.828e-6
-1.349, 6.835e-6
-1.350, 6.845e-6
-1.351, 6.853e-6
-1.352, 6.861e-6
-1.353, 6.869e-6
-1.354, 6.875e-6
-1.355, 6.884e-6
-1.356, 6.892e-6
-1.357, 6.901e-6
-1.358, 6.909e-6
-1.359, 6.918e-6
-1.360, 6.928e-6
-1.361, 6.936e-6
-1.362, 6.943e-6
-1.363, 6.953e-6
-1.364, 6.961e-6
-1.365, 6.970e-6
-1.366, 6.978e-6
-1.367, 6.988e-6
-1.368, 6.996e-6
-1.369, 7.004e-6
-1.370, 7.014e-6
-1.371, 7.023e-6
-1.372, 7.031e-6
-1.373, 7.040e-6
-1.374, 7.050e-6
-1.375, 7.060e-6
-1.376, 7.068e-6
-1.377, 7.078e-6
-1.378, 7.086e-6
-1.379, 7.097e-6
-1.380, 7.107e-6
-1.381, 7.116e-6
-1.382, 7.126e-6
-1.383, 7.137e-6
-1.384, 7.145e-6
-1.385, 7.156e-6
-1.386, 7.165e-6
-1.387, 7.175e-6
-1.388, 7.185e-6
-1.389, 7.195e-6
-1.390, 7.204e-6
-1.391, 7.213e-6
-1.392, 7.223e-6
-1.393, 7.234e-6
-1.394, 7.243e-6
-1.395, 7.254e-6
-1.396, 7.264e-6
-1.397, 7.273e-6
-1.398, 7.284e-6
-1.399, 7.294e-6
-1.400, 7.304e-6
-1.401, 7.316e-6
-1.402, 7.324e-6
-1.403, 7.338e-6
-1.404, 7.347e-6
-1.405, 7.358e-6
-1.406, 7.369e-6
-1.407, 7.378e-6
-1.408, 7.391e-6
-1.409, 7.403e-6
-1.410, 7.412e-6
-1.411, 7.424e-6
-1.412, 7.433e-6
-1.413, 7.446e-6
-1.414, 7.458e-6
-1.415, 7.470e-6
-1.416, 7.483e-6
-1.417, 7.494e-6
-1.418, 7.505e-6
-1.419, 7.518e-6
-1.420, 7.530e-6
-1.421, 7.541e-6
-1.422, 7.553e-6
-1.423, 7.566e-6
-1.424, 7.578e-6
-1.425, 7.591e-6
-1.426, 7.603e-6
-1.427, 7.617e-6
-1.428, 7.629e-6
-1.429, 7.642e-6
-1.430, 7.656e-6
-1.431, 7.667e-6
-1.432, 7.680e-6
-1.433, 7.694e-6
-1.434, 7.709e-6
-1.435, 7.724e-6
-1.436, 7.738e-6
-1.437, 7.749e-6
-1.438, 7.764e-6
-1.439, 7.776e-6
-1.440, 7.791e-6
-1.441, 7.804e-6
-1.442, 7.817e-6
-1.443, 7.834e-6
-1.444, 7.847e-6
-1.445, 7.861e-6
-1.446, 7.877e-6
-1.447, 7.889e-6
-1.448, 7.905e-6
-1.449, 7.921e-6
-1.450, 7.935e-6
-1.451, 7.952e-6
-1.452, 7.966e-6
-1.453, 7.982e-6
-1.454, 7.997e-6
-1.455, 8.012e-6
-1.456, 8.029e-6
-1.457, 8.044e-6
-1.458, 8.061e-6
-1.459, 8.078e-6
-1.460, 8.094e-6
-1.461, 8.109e-6
-1.462, 8.125e-6
-1.463, 8.142e-6
-1.464, 8.159e-6
-1.465, 8.177e-6
-1.466, 8.196e-6
-1.467, 8.214e-6
-1.468, 8.234e-6
-1.469, 8.251e-6
-1.470, 8.271e-6
-1.471, 8.287e-6
-1.472, 8.307e-6
-1.473, 8.325e-6
-1.474, 8.343e-6
-1.475, 8.363e-6
-1.476, 8.380e-6
-1.477, 8.395e-6
-1.478, 8.417e-6
-1.479, 8.436e-6
-1.480, 8.456e-6
-1.481, 8.476e-6
-1.482, 8.493e-6
-1.483, 8.515e-6
-1.484, 8.536e-6
-1.485, 8.559e-6
-1.486, 8.579e-6
-1.487, 8.598e-6
-1.488, 8.618e-6
-1.489, 8.637e-6
-1.490, 8.657e-6
-1.491, 8.680e-6
-1.492, 8.701e-6
-1.493, 8.722e-6
-1.494, 8.747e-6
-1.495, 8.768e-6
-1.496, 8.792e-6
-1.497, 8.814e-6
-1.498, 8.835e-6
-1.499, 8.858e-6
-1.500, 8.881e-6
-1.501, 8.904e-6
-1.502, 8.926e-6
-1.503, 8.949e-6
-1.504, 8.975e-6
-1.505, 9.001e-6
-1.506, 9.024e-6
-1.507, 9.050e-6
-1.508, 9.075e-6
-1.509, 9.100e-6
-1.510, 9.125e-6
-1.511, 9.150e-6
-1.512, 9.176e-6
-1.513, 9.205e-6
-1.514, 9.230e-6
-1.515, 9.258e-6
-1.516, 9.287e-6
-1.517, 9.313e-6
-1.518, 9.341e-6
-1.519, 9.367e-6
-1.520, 9.394e-6
-1.521, 9.420e-6
-1.522, 9.447e-6
-1.523, 9.478e-6
-1.524, 9.506e-6
-1.525, 9.537e-6
-1.526, 9.568e-6
-1.527, 9.596e-6
-1.528, 9.628e-6
-1.529, 9.658e-6
-1.530, 9.689e-6
-1.531, 9.719e-6
-1.532, 9.752e-6
-1.533, 9.783e-6
-1.534, 9.815e-6
-1.535, 9.849e-6
-1.536, 9.882e-6
-1.537, 9.915e-6
-1.538, 9.947e-6
-1.539, 9.982e-6
-1.540, 1.002e-5
-1.541, 1.005e-5
-1.542, 1.008e-5
-1.543, 1.012e-5
-1.544, 1.015e-5
-1.545, 1.019e-5
-1.546, 1.022e-5
-1.547, 1.026e-5
-1.548, 1.030e-5
-1.549, 1.033e-5
-1.550, 1.037e-5
-1.551, 1.041e-5
-1.552, 1.045e-5
-1.553, 1.049e-5
-1.554, 1.053e-5
-1.555, 1.057e-5
-1.556, 1.061e-5
-1.557, 1.065e-5
-1.558, 1.070e-5
-1.559, 1.074e-5
-1.560, 1.078e-5
-1.561, 1.082e-5
-1.562, 1.087e-5
-1.563, 1.091e-5
-1.564, 1.096e-5
-1.565, 1.100e-5
-1.566, 1.105e-5
-1.567, 1.109e-5
-1.568, 1.114e-5
-1.569, 1.119e-5
-1.570, 1.124e-5
-1.571, 1.129e-5
-1.572, 1.133e-5
-1.573, 1.139e-5
-1.574, 1.144e-5
-1.575, 1.149e-5
-1.576, 1.154e-5
-1.577, 1.159e-5
-1.578, 1.166e-5
-1.579, 1.170e-5
-1.580, 1.176e-5
-1.581, 1.181e-5
-1.582, 1.187e-5
-1.583, 1.193e-5
-1.584, 1.199e-5
-1.585, 1.204e-5
-1.586, 1.209e-5
-1.587, 1.215e-5
-1.588, 1.221e-5
-1.589, 1.227e-5
-1.590, 1.234e-5
-1.591, 1.240e-5
-1.592, 1.247e-5
-1.593, 1.254e-5
-1.594, 1.260e-5
-1.595, 1.267e-5
-1.596, 1.274e-5
-1.597, 1.281e-5
-1.598, 1.289e-5
-1.599, 1.296e-5
-1.600, 1.304e-5
-1.601, 1.312e-5
-1.602, 1.319e-5
-1.603, 1.327e-5
-1.604, 1.335e-5
-1.605, 1.343e-5
-1.606, 1.352e-5
-1.607, 1.360e-5
-1.608, 1.369e-5
-1.609, 1.377e-5
-1.610, 1.386e-5
-1.611, 1.395e-5
-1.612, 1.404e-5
-1.613, 1.413e-5
-1.614, 1.423e-5
-1.615, 1.433e-5
-1.616, 1.443e-5
-1.617, 1.453e-5
-1.618, 1.463e-5
-1.619, 1.474e-5
-1.620, 1.484e-5
-1.621, 1.495e-5
-1.622, 1.506e-5
-1.623, 1.517e-5
-1.624, 1.529e-5
-1.625, 1.541e-5
-1.626, 1.553e-5
-1.627, 1.565e-5
-1.628, 1.577e-5
-1.629, 1.590e-5
-1.630, 1.603e-5
-1.631, 1.617e-5
-1.632, 1.630e-5
-1.633, 1.644e-5
-1.634, 1.658e-5
-1.635, 1.673e-5
-1.636, 1.687e-5
-1.637, 1.702e-5
-1.638, 1.718e-5
-1.639, 1.734e-5
-1.640, 1.750e-5
-1.641, 1.766e-5
-1.642, 1.782e-5
-1.643, 1.799e-5
-1.644, 1.816e-5
-1.645, 1.834e-5
-1.646, 1.852e-5
-1.647, 1.870e-5
-1.648, 1.890e-5
-1.649, 1.909e-5
-1.650, 1.928e-5
-1.651, 1.949e-5
-1.652, 1.969e-5
-1.653, 1.990e-5
-1.654, 2.011e-5
-1.655, 2.033e-5
-1.656, 2.056e-5
-1.657, 2.079e-5
-1.658, 2.102e-5
-1.659, 2.126e-5
-1.660, 2.151e-5
-1.661, 2.176e-5
-1.662, 2.201e-5
-1.663, 2.228e-5
-1.664, 2.255e-5
-1.665, 2.282e-5
-1.666, 2.309e-5
-1.667, 2.338e-5
-1.668, 2.368e-5
-1.669, 2.398e-5
-1.670, 2.429e-5
-1.671, 2.460e-5
-1.672, 2.492e-5
-1.673, 2.525e-5
-1.674, 2.558e-5
-1.675, 2.592e-5
-1.676, 2.627e-5
-1.677, 2.663e-5
-1.678, 2.700e-5
-1.679, 2.737e-5
-1.680, 2.775e-5
-1.681, 2.813e-5
-1.682, 2.853e-5
-1.683, 2.894e-5
-1.684, 2.937e-5
-1.685, 2.979e-5
-1.686, 3.023e-5
-1.687, 3.067e-5
-1.688, 3.113e-5
-1.689, 3.160e-5
-1.690, 3.209e-5
-1.691, 3.258e-5
-1.692, 3.307e-5
-1.693, 3.359e-5
-1.694, 3.411e-5
-1.695, 3.464e-5
-1.696, 3.519e-5
-1.697, 3.574e-5
-1.698, 3.631e-5
-1.699, 3.689e-5
-1.700, 3.749e-5
-1.701, 3.809e-5
-1.702, 3.871e-5
-1.703, 3.935e-5
-1.704, 4.000e-5
-1.705, 4.067e-5
-1.706, 4.134e-5
-1.707, 4.203e-5
-1.708, 4.274e-5
-1.709, 4.346e-5
-1.710, 4.419e-5
-1.711, 4.494e-5
-1.712, 4.571e-5
-1.713, 4.649e-5
-1.714, 4.729e-5
-1.715, 4.811e-5
-1.716, 4.895e-5
-1.717, 4.980e-5
-1.718, 5.067e-5
-1.719, 5.156e-5
-1.720, 5.246e-5
-1.721, 5.339e-5
-1.722, 5.432e-5
-1.723, 5.529e-5
-1.724, 5.628e-5
-1.725, 5.728e-5
-1.726, 5.830e-5
-1.727, 5.934e-5
-1.728, 6.040e-5
-1.729, 6.148e-5
-1.730, 6.258e-5
-1.731, 6.371e-5
-1.732, 6.485e-5
-1.733, 6.602e-5
-1.734, 6.722e-5
-1.735, 6.844e-5
-1.736, 6.968e-5
-1.737, 7.094e-5
-1.738, 7.223e-5
-1.739, 7.353e-5
-1.740, 7.486e-5
-1.741, 7.621e-5
-1.742, 7.759e-5
-1.743, 7.900e-5
-1.744, 8.044e-5
-1.745, 8.190e-5
-1.746, 8.338e-5
-1.747, 8.488e-5
-1.748, 8.642e-5
-1.749, 8.798e-5
-1.750, 8.958e-5
-1.751, 9.118e-5
-1.752, 9.282e-5
-1.753, 9.449e-5
-1.754, 9.619e-5
-1.755, 9.791e-5
-1.756, 9.966e-5
-1.757, 1.014e-4
-1.758, 1.033e-4
-1.759, 1.051e-4
-1.760, 1.070e-4
-1.761, 1.089e-4
-1.762, 1.108e-4
-1.763, 1.128e-4
-1.764, 1.147e-4
-1.765, 1.168e-4
-1.766, 1.188e-4
-1.767, 1.209e-4
-1.768, 1.230e-4
-1.769, 1.252e-4
-1.770, 1.273e-4
-1.771, 1.295e-4
-1.772, 1.318e-4
-1.773, 1.340e-4
-1.774, 1.363e-4
-1.775, 1.387e-4
-1.776, 1.410e-4
-1.777, 1.434e-4
-1.778, 1.459e-4
-1.779, 1.483e-4
-1.780, 1.508e-4
-1.781, 1.533e-4
-1.782, 1.558e-4
-1.783, 1.584e-4
-1.784, 1.610e-4
-1.785, 1.637e-4
-1.786, 1.664e-4
-1.787, 1.691e-4
-1.788, 1.717e-4
-1.789, 1.745e-4
-1.790, 1.773e-4
-1.791, 1.801e-4
-1.792, 1.829e-4
-1.793, 1.858e-4
-1.794, 1.887e-4
-1.795, 1.916e-4
-1.796, 1.945e-4
-1.797, 1.974e-4
-1.798, 2.004e-4
-1.799, 2.034e-4
-1.800, 2.063e-4
-1.801, 2.093e-4
-1.802, 2.123e-4
-1.803, 2.153e-4
-1.804, 2.182e-4
-1.805, 2.212e-4
-1.806, 2.242e-4
-1.807, 2.271e-4
-1.808, 2.300e-4
-1.809, 2.329e-4
-1.810, 2.358e-4
-1.811, 2.387e-4
-1.812, 2.416e-4
-1.813, 2.446e-4
-1.814, 2.475e-4
-1.815, 2.505e-4
-1.816, 2.536e-4
-1.817, 2.567e-4
-1.818, 2.598e-4
-1.819, 2.629e-4
-1.820, 2.661e-4
-1.821, 2.694e-4
-1.822, 2.727e-4
-1.823, 2.760e-4
-1.824, 2.793e-4
-1.825, 2.827e-4
-1.826, 2.862e-4
-1.827, 2.896e-4
-1.828, 2.931e-4
-1.829, 2.967e-4
-1.830, 3.002e-4
-1.831, 3.038e-4
-1.832, 3.075e-4
-1.833, 3.112e-4
-1.834, 3.149e-4
-1.835, 3.187e-4
-1.836, 3.225e-4
-1.837, 3.263e-4
-1.838, 3.302e-4
-1.839, 3.341e-4
-1.840, 3.381e-4
-1.841, 3.421e-4
-1.842, 3.461e-4
-1.843, 3.501e-4
-1.844, 3.543e-4
-1.845, 3.584e-4
-1.846, 3.626e-4
-1.847, 3.668e-4
-1.848, 3.710e-4
-1.849, 3.753e-4
-1.850, 3.796e-4
-1.851, 3.840e-4
-1.852, 3.883e-4
-1.853, 3.927e-4
-1.854, 3.972e-4
-1.855, 4.017e-4
-1.856, 4.062e-4
-1.857, 4.108e-4
-1.858, 4.154e-4
-1.859, 4.200e-4
-1.860, 4.246e-4
-1.861, 4.293e-4
-1.862, 4.340e-4
-1.863, 4.387e-4
-1.864, 4.435e-4
-1.865, 4.483e-4
-1.866, 4.532e-4
-1.867, 4.580e-4
-1.868, 4.630e-4
-1.869, 4.679e-4
-1.870, 4.728e-4
-1.871, 4.778e-4
-1.872, 4.829e-4
-1.873, 4.879e-4
-1.874, 4.930e-4
-1.875, 4.981e-4
-1.876, 5.032e-4
-1.877, 5.084e-4
-1.878, 5.137e-4
-1.879, 5.189e-4
-1.880, 5.242e-4
-1.881, 5.295e-4
-1.882, 5.348e-4
-1.883, 5.401e-4
-1.884, 5.455e-4
-1.885, 5.509e-4
-1.886, 5.563e-4
-1.887, 5.618e-4
-1.888, 5.673e-4
-1.889, 5.728e-4
-1.890, 5.784e-4
-1.891, 5.839e-4
-1.892, 5.895e-4
-1.893, 5.952e-4
-1.894, 6.008e-4
-1.895, 6.066e-4
-1.896, 6.123e-4
-1.897, 6.180e-4
-1.898, 6.238e-4
-1.899, 6.296e-4
-1.900, 6.354e-4
-1.901, 6.413e-4
-1.902, 6.472e-4
-1.903, 6.530e-4
-1.904, 6.590e-4
-1.905, 6.649e-4
-1.906, 6.709e-4
-1.907, 6.769e-4
-1.908, 6.829e-4
-1.909, 6.890e-4
-1.910, 6.951e-4
-1.911, 7.012e-4
-1.912, 7.073e-4
-1.913, 7.135e-4
-1.914, 7.197e-4
-1.915, 7.259e-4
-1.916, 7.322e-4
-1.917, 7.384e-4
-1.918, 7.447e-4
-1.919, 7.510e-4
-1.920, 7.574e-4
-1.921, 7.638e-4
-1.922, 7.701e-4
-1.923, 7.765e-4
-1.924, 7.830e-4
-1.925, 7.894e-4
-1.926, 7.959e-4
-1.927, 8.025e-4
-1.928, 8.090e-4
-1.929, 8.156e-4
-1.930, 8.222e-4
-1.931, 8.288e-4
-1.932, 8.355e-4
-1.933, 8.421e-4
-1.934, 8.488e-4
-1.935, 8.556e-4
-1.936, 8.623e-4
-1.937, 8.691e-4
-1.938, 8.759e-4
-1.939, 8.827e-4
-1.940, 8.896e-4
-1.941, 8.965e-4
-1.942, 9.033e-4
-1.943, 9.102e-4
-1.944, 9.172e-4
-1.945, 9.241e-4
-1.946, 9.311e-4
-1.947, 9.381e-4
-1.948, 9.452e-4
-1.949, 9.522e-4
-1.950, 9.593e-4
-1.951, 9.664e-4
-1.952, 9.735e-4
-1.953, 9.806e-4
-1.954, 9.878e-4
-1.955, 9.950e-4
-1.956, 1.002e-3
-1.957, 1.009e-3
-1.958, 1.011e-3
-1.959, 1.011e-3
-1.960, 1.011e-3
-1.961, 1.011e-3
-1.962, 1.011e-3
-1.963, 1.011e-3
-1.964, 1.011e-3
-1.965, 1.011e-3
-1.966, 1.011e-3
-1.967, 1.011e-3
-1.968, 1.011e-3
-1.969, 1.011e-3
-1.970, 1.011e-3
-1.971, 1.011e-3
-1.972, 1.011e-3
-1.973, 1.011e-3
-1.974, 1.011e-3
-1.975, 1.011e-3
-1.976, 1.011e-3
-1.977, 1.011e-3
-1.978, 1.011e-3
-1.979, 1.011e-3
-1.980, 1.011e-3
-1.981, 1.011e-3
-1.982, 1.011e-3
-1.983, 1.011e-3
-1.984, 1.011e-3
-1.985, 1.011e-3
-1.986, 1.011e-3
-1.987, 1.011e-3
-1.988, 1.011e-3
-1.989, 1.011e-3
-1.990, 1.011e-3
-1.991, 1.011e-3
-1.992, 1.011e-3
-1.993, 1.011e-3
-1.994, 1.011e-3
-1.995, 1.011e-3
-1.996, 1.011e-3
-1.997, 1.011e-3
-1.998, 1.011e-3
-1.999, 1.011e-3
-2.000, 1.011e-3
-2.001, 1.011e-3
-2.002, 1.011e-3
-2.003, 1.011e-3
-2.004, 1.011e-3
-2.005, 1.011e-3
-2.006, 1.011e-3
-2.007, 1.011e-3
-2.008, 1.011e-3
-2.009, 1.011e-3
-2.010, 1.011e-3
-2.011, 1.011e-3
-2.012, 1.011e-3
-2.013, 1.011e-3
-2.014, 1.011e-3
-2.015, 1.011e-3
-2.016, 1.011e-3
-2.017, 1.011e-3
-2.018, 1.011e-3
-2.019, 1.011e-3
-2.020, 1.011e-3
-2.021, 1.011e-3
-2.022, 1.011e-3
-2.023, 1.011e-3
-2.024, 1.011e-3
-2.025, 1.011e-3
-2.026, 1.011e-3
-2.027, 1.011e-3
-2.028, 1.011e-3
-2.029, 1.011e-3
-2.030, 1.011e-3
-2.031, 1.011e-3
-2.032, 1.011e-3
-2.033, 1.011e-3
-2.034, 1.011e-3
-2.035, 1.011e-3
-2.036, 1.011e-3
-2.037, 1.011e-3
-2.038, 1.011e-3
-2.039, 1.011e-3
-2.040, 1.011e-3
-2.041, 1.011e-3
-2.042, 1.011e-3
-2.043, 1.011e-3
-2.044, 1.011e-3
-2.045, 1.011e-3
-2.046, 1.011e-3
-2.047, 1.011e-3
-2.048, 1.011e-3
-2.049, 1.011e-3
-2.050, 1.011e-3
-2.051, 1.011e-3
-2.052, 1.011e-3
-2.053, 1.011e-3
-2.054, 1.011e-3
-2.055, 1.011e-3
-2.056, 1.011e-3
-2.057, 1.011e-3
-2.058, 1.011e-3
-2.059, 1.011e-3
-2.060, 1.011e-3
-2.061, 1.011e-3
-2.062, 1.011e-3
-2.063, 1.011e-3
-2.064, 1.011e-3
-2.065, 1.011e-3
-2.066, 1.011e-3
-2.067, 1.011e-3
-2.068, 1.011e-3
-2.069, 1.011e-3
-2.070, 1.011e-3
-2.071, 1.011e-3
-2.072, 1.011e-3
-2.073, 1.011e-3
-2.074, 1.011e-3
-2.075, 1.011e-3
-2.076, 1.011e-3
-2.077, 1.011e-3
-2.078, 1.011e-3
-2.079, 1.011e-3
-2.080, 1.011e-3
-2.081, 1.011e-3
-2.082, 1.011e-3
-2.083, 1.011e-3
-2.084, 1.011e-3
-2.085, 1.011e-3
-2.086, 1.011e-3
-2.087, 1.011e-3
-2.088, 1.011e-3
-2.089, 1.011e-3
-2.090, 1.011e-3
-2.091, 1.011e-3
-2.092, 1.011e-3
-2.093, 1.011e-3
-2.094, 1.011e-3
-2.095, 1.011e-3
-2.096, 1.011e-3
-2.097, 1.011e-3
-2.098, 1.011e-3
-2.099, 1.011e-3
-2.100, 1.011e-3
-2.101, 1.011e-3
-2.102, 1.011e-3
-2.103, 1.011e-3
-2.104, 1.011e-3
-2.105, 1.011e-3
-2.106, 1.011e-3
-2.107, 1.011e-3
-2.108, 1.011e-3
-2.109, 1.011e-3
-2.110, 1.011e-3
-2.111, 1.011e-3
-2.112, 1.011e-3
-2.113, 1.011e-3
-2.114, 1.011e-3
-2.115, 1.011e-3
-2.116, 1.011e-3
-2.117, 1.011e-3
-2.118, 1.011e-3
-2.119, 1.011e-3
-2.120, 1.011e-3
-2.121, 1.011e-3
-2.122, 1.011e-3
-2.123, 1.011e-3
-2.124, 1.011e-3
-2.125, 1.011e-3
-2.126, 1.011e-3
-2.127, 1.011e-3
-2.128, 1.011e-3
-2.129, 1.011e-3
-2.130, 1.011e-3
-2.131, 1.011e-3
-2.132, 1.011e-3
-2.133, 1.011e-3
-2.134, 1.011e-3
-2.135, 1.011e-3
-2.136, 1.011e-3
-2.137, 1.011e-3
-2.138, 1.011e-3
-2.139, 1.011e-3
-2.140, 1.011e-3
-2.141, 1.011e-3
-2.142, 1.011e-3
-2.143, 1.011e-3
-2.144, 1.011e-3
-2.145, 1.011e-3
-2.146, 1.011e-3
-2.147, 1.011e-3
-2.148, 1.011e-3
-2.149, 1.011e-3
-2.150, 1.011e-3
-2.151, 1.011e-3
-2.152, 1.011e-3
-2.153, 1.011e-3
-2.154, 1.011e-3
-2.155, 1.011e-3
-2.156, 1.011e-3
-2.157, 1.011e-3
-2.158, 1.011e-3
-2.159, 1.011e-3
-2.160, 1.011e-3
-2.161, 1.011e-3
-2.162, 1.011e-3
-2.163, 1.011e-3
-2.164, 1.011e-3
-2.165, 1.011e-3
-2.166, 1.011e-3
-2.167, 1.011e-3
-2.168, 1.011e-3
-2.169, 1.011e-3
-2.170, 1.011e-3
-2.171, 1.011e-3
-2.172, 1.011e-3
-2.173, 1.011e-3
-2.174, 1.011e-3
-2.175, 1.011e-3
-2.176, 1.011e-3
-2.177, 1.011e-3
-2.178, 1.011e-3
-2.179, 1.011e-3
-2.180, 1.011e-3
-2.181, 1.011e-3
-2.182, 1.011e-3
-2.183, 1.011e-3
-2.184, 1.011e-3
-2.185, 1.011e-3
-2.186, 1.011e-3
-2.187, 1.011e-3
-2.188, 1.011e-3
-2.189, 1.011e-3
-2.190, 1.011e-3
-2.191, 1.011e-3
-2.192, 1.011e-3
-2.193, 1.011e-3
-2.194, 1.011e-3
-2.195, 1.011e-3
-2.196, 1.011e-3
-2.197, 1.011e-3
-2.198, 1.011e-3
-2.199, 1.011e-3
-2.200, 1.011e-3
-2.201, 1.011e-3
-2.202, 1.011e-3
-2.203, 1.011e-3
-2.204, 1.011e-3
-2.205, 1.011e-3
-2.206, 1.011e-3
-2.207, 1.011e-3
-2.208, 1.011e-3
-2.209, 1.011e-3
-2.210, 1.011e-3
-2.211, 1.011e-3
-2.212, 1.011e-3
-2.213, 1.011e-3
-2.214, 1.011e-3
-2.215, 1.011e-3
-2.216, 1.011e-3
-2.217, 1.011e-3
-2.218, 1.011e-3
-2.219, 1.011e-3
-2.220, 1.011e-3
-2.221, 1.011e-3
-2.222, 1.011e-3
-2.223, 1.011e-3
-2.224, 1.011e-3
-2.225, 1.011e-3
-2.226, 1.011e-3
-2.227, 1.011e-3
-2.228, 1.011e-3
-2.229, 1.011e-3
-2.230, 1.011e-3
-2.231, 1.011e-3
-2.232, 1.011e-3
-2.233, 1.011e-3
-2.234, 1.011e-3
-2.235, 1.011e-3
-2.236, 1.011e-3
-2.237, 1.011e-3
-2.238, 1.011e-3
-2.239, 1.011e-3
-2.240, 1.011e-3
-2.241, 1.011e-3
-2.242, 1.011e-3
-2.243, 1.011e-3
-2.244, 1.011e-3
-2.245, 1.011e-3
-2.246, 1.011e-3
-2.247, 1.011e-3
-2.248, 1.011e-3
-2.249, 1.011e-3
-2.250, 1.011e-3
-2.251, 1.011e-3
-2.252, 1.011e-3
-2.253, 1.011e-3
-2.254, 1.011e-3
-2.255, 1.011e-3
-2.256, 1.011e-3
-2.257, 1.011e-3
-2.258, 1.011e-3
-2.259, 1.011e-3
-2.260, 1.011e-3
-2.261, 1.011e-3
-2.262, 1.011e-3
-2.263, 1.011e-3
-2.264, 1.011e-3
-2.265, 1.011e-3
-2.266, 1.011e-3
-2.267, 1.011e-3
-2.268, 1.011e-3
-2.269, 1.011e-3
-2.270, 1.011e-3
-2.271, 1.011e-3
-2.272, 1.011e-3
-2.273, 1.011e-3
-2.274, 1.011e-3
-2.275, 1.011e-3
-2.276, 1.011e-3
-2.277, 1.011e-3
-2.278, 1.011e-3
-2.279, 1.011e-3
-2.280, 1.011e-3
-2.281, 1.011e-3
-2.282, 1.011e-3
-2.283, 1.011e-3
-2.284, 1.011e-3
-2.285, 1.011e-3
-2.286, 1.011e-3
-2.287, 1.011e-3
-2.288, 1.011e-3
-2.289, 1.011e-3
-2.290, 1.011e-3
-2.291, 1.011e-3
-2.292, 1.011e-3
-2.293, 1.011e-3
-2.294, 1.011e-3
-2.295, 1.011e-3
-2.296, 1.011e-3
-2.297, 1.011e-3
-2.298, 1.011e-3
-2.299, 1.011e-3
