Jan. 12, 2025   02:35:47
Cyclic Voltammetry
File: c:/users/guazh/data/banditlqround7_x0exp772_r5/2025-01-10-exp819\exp819-2025-01-12t02_19_51-h2koh\exp819_cv_sr_700mvs_efin_-1600mv.bin
Data Source:  Experiment
Instrument Model:  CHI760E
Header: CV ran at 700 mVs
Note: 

Init E (V) = -1
High E (V) = -1
Low E (V) = -1.6
Final E (V) = -1
Init P/N = N
Scan Rate (V/s) = 0.7
Segment = 3
Sample Interval (V) = 0.001
Quiet Time (sec) = 2
Sensitivity (A/V) = 0.01
Comp R (ohm) = 1.3

Results:

Channel 1:
Segment 1:

Segment 2:

Segment 3:

Potential/V, Current/A

-1.000, -6.010e-6
-1.001, 1.111e-4
-1.002, 2.098e-4
-1.003, 2.961e-4
-1.004, 3.670e-4
-1.005, 4.256e-4
-1.006, 4.780e-4
-1.007, 5.243e-4
-1.008, 5.644e-4
-1.009, 6.044e-4
-1.010, 6.445e-4
-1.011, 6.877e-4
-1.012, 7.247e-4
-1.013, 7.617e-4
-1.014, 7.925e-4
-1.015, 8.233e-4
-1.016, 8.449e-4
-1.017, 8.603e-4
-1.018, 8.758e-4
-1.019, 8.881e-4
-1.020, 9.035e-4
-1.021, 9.158e-4
-1.022, 9.343e-4
-1.023, 9.559e-4
-1.024, 9.744e-4
-1.025, 9.960e-4
-1.026, 1.011e-3
-1.027, 1.021e-3
-1.028, 1.030e-3
-1.029, 1.033e-3
-1.030, 1.036e-3
-1.031, 1.039e-3
-1.032, 1.042e-3
-1.033, 1.051e-3
-1.034, 1.064e-3
-1.035, 1.076e-3
-1.036, 1.092e-3
-1.037, 1.104e-3
-1.038, 1.113e-3
-1.039, 1.116e-3
-1.040, 1.122e-3
-1.041, 1.122e-3
-1.042, 1.116e-3
-1.043, 1.119e-3
-1.044, 1.125e-3
-1.045, 1.132e-3
-1.046, 1.141e-3
-1.047, 1.156e-3
-1.048, 1.169e-3
-1.049, 1.175e-3
-1.050, 1.184e-3
-1.051, 1.187e-3
-1.052, 1.184e-3
-1.053, 1.181e-3
-1.054, 1.178e-3
-1.055, 1.181e-3
-1.056, 1.181e-3
-1.057, 1.187e-3
-1.058, 1.196e-3
-1.059, 1.206e-3
-1.060, 1.215e-3
-1.061, 1.221e-3
-1.062, 1.224e-3
-1.063, 1.224e-3
-1.064, 1.221e-3
-1.065, 1.218e-3
-1.066, 1.218e-3
-1.067, 1.218e-3
-1.068, 1.221e-3
-1.069, 1.230e-3
-1.070, 1.240e-3
-1.071, 1.249e-3
-1.072, 1.258e-3
-1.073, 1.267e-3
-1.074, 1.267e-3
-1.075, 1.267e-3
-1.076, 1.267e-3
-1.077, 1.264e-3
-1.078, 1.261e-3
-1.079, 1.261e-3
-1.080, 1.267e-3
-1.081, 1.277e-3
-1.082, 1.286e-3
-1.083, 1.295e-3
-1.084, 1.304e-3
-1.085, 1.307e-3
-1.086, 1.307e-3
-1.087, 1.304e-3
-1.088, 1.301e-3
-1.089, 1.295e-3
-1.090, 1.295e-3
-1.091, 1.295e-3
-1.092, 1.301e-3
-1.093, 1.307e-3
-1.094, 1.317e-3
-1.095, 1.329e-3
-1.096, 1.335e-3
-1.097, 1.338e-3
-1.098, 1.341e-3
-1.099, 1.338e-3
-1.100, 1.335e-3
-1.101, 1.329e-3
-1.102, 1.329e-3
-1.103, 1.335e-3
-1.104, 1.338e-3
-1.105, 1.351e-3
-1.106, 1.360e-3
-1.107, 1.369e-3
-1.108, 1.372e-3
-1.109, 1.372e-3
-1.110, 1.372e-3
-1.111, 1.366e-3
-1.112, 1.357e-3
-1.113, 1.354e-3
-1.114, 1.354e-3
-1.115, 1.357e-3
-1.116, 1.363e-3
-1.117, 1.375e-3
-1.118, 1.388e-3
-1.119, 1.394e-3
-1.120, 1.400e-3
-1.121, 1.400e-3
-1.122, 1.397e-3
-1.123, 1.394e-3
-1.124, 1.388e-3
-1.125, 1.388e-3
-1.126, 1.388e-3
-1.127, 1.397e-3
-1.128, 1.403e-3
-1.129, 1.406e-3
-1.130, 1.415e-3
-1.131, 1.421e-3
-1.132, 1.425e-3
-1.133, 1.425e-3
-1.134, 1.425e-3
-1.135, 1.425e-3
-1.136, 1.425e-3
-1.137, 1.428e-3
-1.138, 1.434e-3
-1.139, 1.443e-3
-1.140, 1.455e-3
-1.141, 1.465e-3
-1.142, 1.474e-3
-1.143, 1.480e-3
-1.144, 1.477e-3
-1.145, 1.474e-3
-1.146, 1.468e-3
-1.147, 1.458e-3
-1.148, 1.455e-3
-1.149, 1.455e-3
-1.150, 1.458e-3
-1.151, 1.468e-3
-1.152, 1.474e-3
-1.153, 1.483e-3
-1.154, 1.489e-3
-1.155, 1.492e-3
-1.156, 1.495e-3
-1.157, 1.495e-3
-1.158, 1.495e-3
-1.159, 1.492e-3
-1.160, 1.495e-3
-1.161, 1.499e-3
-1.162, 1.508e-3
-1.163, 1.514e-3
-1.164, 1.526e-3
-1.165, 1.536e-3
-1.166, 1.545e-3
-1.167, 1.545e-3
-1.168, 1.548e-3
-1.169, 1.542e-3
-1.170, 1.539e-3
-1.171, 1.536e-3
-1.172, 1.529e-3
-1.173, 1.532e-3
-1.174, 1.536e-3
-1.175, 1.545e-3
-1.176, 1.554e-3
-1.177, 1.560e-3
-1.178, 1.569e-3
-1.179, 1.569e-3
-1.180, 1.569e-3
-1.181, 1.566e-3
-1.182, 1.563e-3
-1.183, 1.563e-3
-1.184, 1.563e-3
-1.185, 1.569e-3
-1.186, 1.582e-3
-1.187, 1.588e-3
-1.188, 1.597e-3
-1.189, 1.603e-3
-1.190, 1.610e-3
-1.191, 1.610e-3
-1.192, 1.606e-3
-1.193, 1.606e-3
-1.194, 1.600e-3
-1.195, 1.600e-3
-1.196, 1.600e-3
-1.197, 1.610e-3
-1.198, 1.616e-3
-1.199, 1.625e-3
-1.200, 1.634e-3
-1.201, 1.643e-3
-1.202, 1.643e-3
-1.203, 1.643e-3
-1.204, 1.640e-3
-1.205, 1.637e-3
-1.206, 1.637e-3
-1.207, 1.637e-3
-1.208, 1.643e-3
-1.209, 1.650e-3
-1.210, 1.659e-3
-1.211, 1.671e-3
-1.212, 1.680e-3
-1.213, 1.690e-3
-1.214, 1.690e-3
-1.215, 1.690e-3
-1.216, 1.687e-3
-1.217, 1.680e-3
-1.218, 1.680e-3
-1.219, 1.677e-3
-1.220, 1.680e-3
-1.221, 1.690e-3
-1.222, 1.699e-3
-1.223, 1.711e-3
-1.224, 1.717e-3
-1.225, 1.724e-3
-1.226, 1.724e-3
-1.227, 1.724e-3
-1.228, 1.721e-3
-1.229, 1.721e-3
-1.230, 1.721e-3
-1.231, 1.724e-3
-1.232, 1.730e-3
-1.233, 1.739e-3
-1.234, 1.751e-3
-1.235, 1.761e-3
-1.236, 1.770e-3
-1.237, 1.773e-3
-1.238, 1.773e-3
-1.239, 1.770e-3
-1.240, 1.767e-3
-1.241, 1.767e-3
-1.242, 1.764e-3
-1.243, 1.770e-3
-1.244, 1.776e-3
-1.245, 1.785e-3
-1.246, 1.791e-3
-1.247, 1.801e-3
-1.248, 1.807e-3
-1.249, 1.810e-3
-1.250, 1.810e-3
-1.251, 1.810e-3
-1.252, 1.807e-3
-1.253, 1.804e-3
-1.254, 1.804e-3
-1.255, 1.810e-3
-1.256, 1.819e-3
-1.257, 1.828e-3
-1.258, 1.844e-3
-1.259, 1.853e-3
-1.260, 1.859e-3
-1.261, 1.859e-3
-1.262, 1.856e-3
-1.263, 1.853e-3
-1.264, 1.850e-3
-1.265, 1.853e-3
-1.266, 1.856e-3
-1.267, 1.862e-3
-1.268, 1.872e-3
-1.269, 1.881e-3
-1.270, 1.893e-3
-1.271, 1.899e-3
-1.272, 1.899e-3
-1.273, 1.902e-3
-1.274, 1.899e-3
-1.275, 1.896e-3
-1.276, 1.893e-3
-1.277, 1.893e-3
-1.278, 1.899e-3
-1.279, 1.902e-3
-1.280, 1.915e-3
-1.281, 1.927e-3
-1.282, 1.936e-3
-1.283, 1.943e-3
-1.284, 1.946e-3
-1.285, 1.946e-3
-1.286, 1.943e-3
-1.287, 1.939e-3
-1.288, 1.939e-3
-1.289, 1.939e-3
-1.290, 1.946e-3
-1.291, 1.955e-3
-1.292, 1.964e-3
-1.293, 1.973e-3
-1.294, 1.976e-3
-1.295, 1.983e-3
-1.296, 1.980e-3
-1.297, 1.976e-3
-1.298, 1.970e-3
-1.299, 1.964e-3
-1.300, 1.964e-3
-1.301, 1.967e-3
-1.302, 1.973e-3
-1.303, 1.980e-3
-1.304, 1.983e-3
-1.305, 1.992e-3
-1.306, 1.998e-3
-1.307, 2.001e-3
-1.308, 2.001e-3
-1.309, 1.995e-3
-1.310, 1.995e-3
-1.311, 1.989e-3
-1.312, 1.983e-3
-1.313, 1.986e-3
-1.314, 1.989e-3
-1.315, 1.992e-3
-1.316, 2.001e-3
-1.317, 2.007e-3
-1.318, 2.013e-3
-1.319, 2.010e-3
-1.320, 2.010e-3
-1.321, 2.007e-3
-1.322, 2.001e-3
-1.323, 1.998e-3
-1.324, 1.995e-3
-1.325, 1.998e-3
-1.326, 2.004e-3
-1.327, 2.010e-3
-1.328, 2.017e-3
-1.329, 2.020e-3
-1.330, 2.020e-3
-1.331, 2.013e-3
-1.332, 2.007e-3
-1.333, 2.001e-3
-1.334, 1.989e-3
-1.335, 1.986e-3
-1.336, 1.986e-3
-1.337, 1.989e-3
-1.338, 1.995e-3
-1.339, 2.004e-3
-1.340, 2.013e-3
-1.341, 2.017e-3
-1.342, 2.017e-3
-1.343, 2.017e-3
-1.344, 2.010e-3
-1.345, 2.007e-3
-1.346, 2.007e-3
-1.347, 2.007e-3
-1.348, 2.010e-3
-1.349, 2.013e-3
-1.350, 2.023e-3
-1.351, 2.029e-3
-1.352, 2.032e-3
-1.353, 2.035e-3
-1.354, 2.035e-3
-1.355, 2.029e-3
-1.356, 2.026e-3
-1.357, 2.017e-3
-1.358, 2.013e-3
-1.359, 2.010e-3
-1.360, 2.013e-3
-1.361, 2.020e-3
-1.362, 2.026e-3
-1.363, 2.038e-3
-1.364, 2.044e-3
-1.365, 2.050e-3
-1.366, 2.054e-3
-1.367, 2.050e-3
-1.368, 2.050e-3
-1.369, 2.044e-3
-1.370, 2.044e-3
-1.371, 2.047e-3
-1.372, 2.054e-3
-1.373, 2.066e-3
-1.374, 2.075e-3
-1.375, 2.084e-3
-1.376, 2.094e-3
-1.377, 2.097e-3
-1.378, 2.097e-3
-1.379, 2.097e-3
-1.380, 2.097e-3
-1.381, 2.097e-3
-1.382, 2.097e-3
-1.383, 2.109e-3
-1.384, 2.118e-3
-1.385, 2.128e-3
-1.386, 2.143e-3
-1.387, 2.158e-3
-1.388, 2.168e-3
-1.389, 2.174e-3
-1.390, 2.180e-3
-1.391, 2.183e-3
-1.392, 2.183e-3
-1.393, 2.186e-3
-1.394, 2.192e-3
-1.395, 2.201e-3
-1.396, 2.217e-3
-1.397, 2.229e-3
-1.398, 2.248e-3
-1.399, 2.260e-3
-1.400, 2.269e-3
-1.401, 2.279e-3
-1.402, 2.285e-3
-1.403, 2.291e-3
-1.404, 2.297e-3
-1.405, 2.309e-3
-1.406, 2.322e-3
-1.407, 2.337e-3
-1.408, 2.359e-3
-1.409, 2.380e-3
-1.410, 2.402e-3
-1.411, 2.420e-3
-1.412, 2.436e-3
-1.413, 2.448e-3
-1.414, 2.457e-3
-1.415, 2.467e-3
-1.416, 2.479e-3
-1.417, 2.488e-3
-1.418, 2.507e-3
-1.419, 2.525e-3
-1.420, 2.547e-3
-1.421, 2.568e-3
-1.422, 2.590e-3
-1.423, 2.608e-3
-1.424, 2.627e-3
-1.425, 2.639e-3
-1.426, 2.652e-3
-1.427, 2.664e-3
-1.428, 2.679e-3
-1.429, 2.695e-3
-1.430, 2.719e-3
-1.431, 2.744e-3
-1.432, 2.772e-3
-1.433, 2.800e-3
-1.434, 2.830e-3
-1.435, 2.858e-3
-1.436, 2.880e-3
-1.437, 2.898e-3
-1.438, 2.920e-3
-1.439, 2.938e-3
-1.440, 2.960e-3
-1.441, 2.985e-3
-1.442, 3.015e-3
-1.443, 3.046e-3
-1.444, 3.080e-3
-1.445, 3.117e-3
-1.446, 3.148e-3
-1.447, 3.173e-3
-1.448, 3.200e-3
-1.449, 3.222e-3
-1.450, 3.241e-3
-1.451, 3.262e-3
-1.452, 3.287e-3
-1.453, 3.314e-3
-1.454, 3.345e-3
-1.455, 3.376e-3
-1.456, 3.413e-3
-1.457, 3.444e-3
-1.458, 3.478e-3
-1.459, 3.503e-3
-1.460, 3.533e-3
-1.461, 3.558e-3
-1.462, 3.586e-3
-1.463, 3.620e-3
-1.464, 3.654e-3
-1.465, 3.694e-3
-1.466, 3.734e-3
-1.467, 3.780e-3
-1.468, 3.826e-3
-1.469, 3.866e-3
-1.470, 3.910e-3
-1.471, 3.950e-3
-1.472, 3.980e-3
-1.473, 4.014e-3
-1.474, 4.045e-3
-1.475, 4.082e-3
-1.476, 4.116e-3
-1.477, 4.159e-3
-1.478, 4.202e-3
-1.479, 4.246e-3
-1.480, 4.292e-3
-1.481, 4.338e-3
-1.482, 4.378e-3
-1.483, 4.421e-3
-1.484, 4.458e-3
-1.485, 4.498e-3
-1.486, 4.542e-3
-1.487, 4.582e-3
-1.488, 4.631e-3
-1.489, 4.680e-3
-1.490, 4.733e-3
-1.491, 4.788e-3
-1.492, 4.838e-3
-1.493, 4.887e-3
-1.494, 4.930e-3
-1.495, 4.973e-3
-1.496, 5.019e-3
-1.497, 5.066e-3
-1.498, 5.112e-3
-1.499, 5.161e-3
-1.500, 5.217e-3
-1.501, 5.269e-3
-1.502, 5.325e-3
-1.503, 5.386e-3
-1.504, 5.445e-3
-1.505, 5.507e-3
-1.506, 5.562e-3
-1.507, 5.618e-3
-1.508, 5.673e-3
-1.509, 5.719e-3
-1.510, 5.772e-3
-1.511, 5.824e-3
-1.512, 5.880e-3
-1.513, 5.941e-3
-1.514, 6.003e-3
-1.515, 6.068e-3
-1.516, 6.129e-3
-1.517, 6.185e-3
-1.518, 6.247e-3
-1.519, 6.296e-3
-1.520, 6.370e-3
-1.521, 6.453e-3
-1.522, 6.493e-3
-1.523, 6.546e-3
-1.524, 6.607e-3
-1.525, 6.678e-3
-1.526, 6.755e-3
-1.527, 6.826e-3
-1.528, 6.897e-3
-1.529, 6.965e-3
-1.530, 7.027e-3
-1.531, 7.088e-3
-1.532, 7.153e-3
-1.533, 7.221e-3
-1.534, 7.286e-3
-1.535, 7.356e-3
-1.536, 7.437e-3
-1.537, 7.517e-3
-1.538, 7.591e-3
-1.539, 7.659e-3
-1.540, 7.723e-3
-1.541, 7.782e-3
-1.542, 7.834e-3
-1.543, 7.884e-3
-1.544, 7.930e-3
-1.545, 7.992e-3
-1.546, 8.044e-3
-1.547, 8.099e-3
-1.548, 8.161e-3
-1.549, 8.223e-3
-1.550, 8.284e-3
-1.551, 8.349e-3
-1.552, 8.408e-3
-1.553, 8.473e-3
-1.554, 8.537e-3
-1.555, 8.608e-3
-1.556, 8.676e-3
-1.557, 8.735e-3
-1.558, 8.818e-3
-1.559, 8.889e-3
-1.560, 8.975e-3
-1.561, 9.068e-3
-1.562, 9.157e-3
-1.563, 9.253e-3
-1.564, 9.336e-3
-1.565, 9.413e-3
-1.566, 9.481e-3
-1.567, 9.549e-3
-1.568, 9.607e-3
-1.569, 9.669e-3
-1.570, 9.743e-3
-1.571, 9.820e-3
-1.572, 9.906e-3
-1.573, 9.993e-3
-1.574, 1.007e-2
-1.575, 1.013e-2
-1.576, 1.020e-2
-1.577, 1.026e-2
-1.578, 1.031e-2
-1.579, 1.035e-2
-1.580, 1.040e-2
-1.581, 1.046e-2
-1.582, 1.053e-2
-1.583, 1.059e-2
-1.584, 1.067e-2
-1.585, 1.077e-2
-1.586, 1.083e-2
-1.587, 1.090e-2
-1.588, 1.097e-2
-1.589, 1.104e-2
-1.590, 1.112e-2
-1.591, 1.120e-2
-1.592, 1.128e-2
-1.593, 1.137e-2
-1.594, 1.146e-2
-1.595, 1.154e-2
-1.596, 1.164e-2
-1.597, 1.172e-2
-1.598, 1.180e-2
-1.599, 1.189e-2
-1.600, 1.187e-2
-1.599, 1.172e-2
-1.598, 1.160e-2
-1.597, 1.149e-2
-1.596, 1.138e-2
-1.595, 1.126e-2
-1.594, 1.117e-2
-1.593, 1.107e-2
-1.592, 1.099e-2
-1.591, 1.090e-2
-1.590, 1.081e-2
-1.589, 1.072e-2
-1.588, 1.065e-2
-1.587, 1.055e-2
-1.586, 1.045e-2
-1.585, 1.040e-2
-1.584, 1.031e-2
-1.583, 1.023e-2
-1.582, 1.015e-2
-1.581, 1.007e-2
-1.580, 9.993e-3
-1.579, 9.928e-3
-1.578, 9.851e-3
-1.577, 9.764e-3
-1.576, 9.663e-3
-1.575, 9.579e-3
-1.574, 9.487e-3
-1.573, 9.401e-3
-1.572, 9.330e-3
-1.571, 9.259e-3
-1.570, 9.191e-3
-1.569, 9.123e-3
-1.568, 9.049e-3
-1.567, 8.969e-3
-1.566, 8.892e-3
-1.565, 8.818e-3
-1.564, 8.725e-3
-1.563, 8.630e-3
-1.562, 8.543e-3
-1.561, 8.460e-3
-1.560, 8.389e-3
-1.559, 8.325e-3
-1.558, 8.263e-3
-1.557, 8.195e-3
-1.556, 8.130e-3
-1.555, 8.075e-3
-1.554, 8.007e-3
-1.553, 7.939e-3
-1.552, 7.862e-3
-1.551, 7.791e-3
-1.550, 7.720e-3
-1.549, 7.652e-3
-1.548, 7.582e-3
-1.547, 7.517e-3
-1.546, 7.449e-3
-1.545, 7.378e-3
-1.544, 7.310e-3
-1.543, 7.236e-3
-1.542, 7.162e-3
-1.541, 7.085e-3
-1.540, 7.008e-3
-1.539, 6.934e-3
-1.538, 6.860e-3
-1.537, 6.792e-3
-1.536, 6.731e-3
-1.535, 6.669e-3
-1.534, 6.604e-3
-1.533, 6.539e-3
-1.532, 6.478e-3
-1.531, 6.410e-3
-1.530, 6.336e-3
-1.529, 6.268e-3
-1.528, 6.197e-3
-1.527, 6.132e-3
-1.526, 6.068e-3
-1.525, 6.009e-3
-1.524, 5.951e-3
-1.523, 5.898e-3
-1.522, 5.846e-3
-1.521, 5.787e-3
-1.520, 5.729e-3
-1.519, 5.664e-3
-1.518, 5.596e-3
-1.517, 5.528e-3
-1.516, 5.460e-3
-1.515, 5.396e-3
-1.514, 5.334e-3
-1.513, 5.278e-3
-1.512, 5.220e-3
-1.511, 5.167e-3
-1.510, 5.115e-3
-1.509, 5.060e-3
-1.508, 5.001e-3
-1.507, 4.942e-3
-1.506, 4.881e-3
-1.505, 4.819e-3
-1.504, 4.757e-3
-1.503, 4.699e-3
-1.502, 4.640e-3
-1.501, 4.585e-3
-1.500, 4.532e-3
-1.499, 4.480e-3
-1.498, 4.424e-3
-1.497, 4.369e-3
-1.496, 4.317e-3
-1.495, 4.258e-3
-1.494, 4.199e-3
-1.493, 4.138e-3
-1.492, 4.079e-3
-1.491, 4.024e-3
-1.490, 3.971e-3
-1.489, 3.925e-3
-1.488, 3.879e-3
-1.487, 3.839e-3
-1.486, 3.789e-3
-1.485, 3.740e-3
-1.484, 3.691e-3
-1.483, 3.635e-3
-1.482, 3.580e-3
-1.481, 3.524e-3
-1.480, 3.472e-3
-1.479, 3.422e-3
-1.478, 3.376e-3
-1.477, 3.336e-3
-1.476, 3.293e-3
-1.475, 3.253e-3
-1.474, 3.210e-3
-1.473, 3.160e-3
-1.472, 3.108e-3
-1.471, 3.056e-3
-1.470, 3.006e-3
-1.469, 2.957e-3
-1.468, 2.904e-3
-1.467, 2.858e-3
-1.466, 2.818e-3
-1.465, 2.775e-3
-1.464, 2.735e-3
-1.463, 2.692e-3
-1.462, 2.649e-3
-1.461, 2.602e-3
-1.460, 2.556e-3
-1.459, 2.513e-3
-1.458, 2.464e-3
-1.457, 2.414e-3
-1.456, 2.368e-3
-1.455, 2.331e-3
-1.454, 2.291e-3
-1.453, 2.257e-3
-1.452, 2.226e-3
-1.451, 2.189e-3
-1.450, 2.149e-3
-1.449, 2.109e-3
-1.448, 2.066e-3
-1.447, 2.020e-3
-1.446, 1.973e-3
-1.445, 1.933e-3
-1.444, 1.893e-3
-1.443, 1.856e-3
-1.442, 1.825e-3
-1.441, 1.795e-3
-1.440, 1.761e-3
-1.439, 1.727e-3
-1.438, 1.687e-3
-1.437, 1.647e-3
-1.436, 1.600e-3
-1.435, 1.557e-3
-1.434, 1.514e-3
-1.433, 1.477e-3
-1.432, 1.443e-3
-1.431, 1.412e-3
-1.430, 1.384e-3
-1.429, 1.357e-3
-1.428, 1.323e-3
-1.427, 1.292e-3
-1.426, 1.258e-3
-1.425, 1.221e-3
-1.424, 1.187e-3
-1.423, 1.147e-3
-1.422, 1.113e-3
-1.421, 1.079e-3
-1.420, 1.048e-3
-1.419, 1.021e-3
-1.418, 9.960e-4
-1.417, 9.713e-4
-1.416, 9.405e-4
-1.415, 9.128e-4
-1.414, 8.788e-4
-1.413, 8.449e-4
-1.412, 8.079e-4
-1.411, 7.771e-4
-1.410, 7.432e-4
-1.409, 7.124e-4
-1.408, 6.908e-4
-1.407, 6.661e-4
-1.406, 6.445e-4
-1.405, 6.229e-4
-1.404, 5.983e-4
-1.403, 5.736e-4
-1.402, 5.428e-4
-1.401, 5.120e-4
-1.400, 4.811e-4
-1.399, 4.503e-4
-1.398, 4.225e-4
-1.397, 4.010e-4
-1.396, 3.794e-4
-1.395, 3.640e-4
-1.394, 3.455e-4
-1.393, 3.270e-4
-1.392, 3.085e-4
-1.391, 2.807e-4
-1.390, 2.530e-4
-1.389, 2.283e-4
-1.388, 1.975e-4
-1.387, 1.697e-4
-1.386, 1.481e-4
-1.385, 1.266e-4
-1.384, 1.111e-4
-1.383, 9.573e-5
-1.382, 8.032e-5
-1.381, 6.182e-5
-1.380, 4.332e-5
-1.379, 2.482e-5
-1.378, -2.927e-6
-1.377, -2.759e-5
-1.376, -5.534e-5
-1.375, -7.692e-5
-1.374, -9.542e-5
-1.373, -1.108e-4
-1.372, -1.263e-4
-1.371, -1.355e-4
-1.370, -1.478e-4
-1.369, -1.632e-4
-1.368, -1.787e-4
-1.367, -2.002e-4
-1.366, -2.218e-4
-1.365, -2.465e-4
-1.364, -2.681e-4
-1.363, -2.866e-4
-1.362, -3.051e-4
-1.361, -3.174e-4
-1.360, -3.236e-4
-1.359, -3.359e-4
-1.358, -3.452e-4
-1.357, -3.544e-4
-1.356, -3.729e-4
-1.355, -3.914e-4
-1.354, -4.130e-4
-1.353, -4.346e-4
-1.352, -4.500e-4
-1.351, -4.654e-4
-1.350, -4.777e-4
-1.349, -4.870e-4
-1.348, -4.931e-4
-1.347, -4.993e-4
-1.346, -5.086e-4
-1.345, -5.178e-4
-1.344, -5.332e-4
-1.343, -5.517e-4
-1.342, -5.671e-4
-1.341, -5.887e-4
-1.340, -6.041e-4
-1.339, -6.134e-4
-1.338, -6.226e-4
-1.337, -6.288e-4
-1.336, -6.350e-4
-1.335, -6.380e-4
-1.334, -6.473e-4
-1.333, -6.565e-4
-1.332, -6.720e-4
-1.331, -6.843e-4
-1.330, -7.028e-4
-1.329, -7.182e-4
-1.328, -7.305e-4
-1.327, -7.398e-4
-1.326, -7.460e-4
-1.325, -7.490e-4
-1.324, -7.521e-4
-1.323, -7.552e-4
-1.322, -7.614e-4
-1.321, -7.706e-4
-1.320, -7.830e-4
-1.319, -7.984e-4
-1.318, -8.138e-4
-1.317, -8.261e-4
-1.316, -8.385e-4
-1.315, -8.446e-4
-1.314, -8.477e-4
-1.313, -8.477e-4
-1.312, -8.477e-4
-1.311, -8.539e-4
-1.310, -8.600e-4
-1.309, -8.693e-4
-1.308, -8.847e-4
-1.307, -8.970e-4
-1.306, -9.094e-4
-1.305, -9.186e-4
-1.304, -9.248e-4
-1.303, -9.309e-4
-1.302, -9.309e-4
-1.301, -9.309e-4
-1.300, -9.309e-4
-1.299, -9.309e-4
-1.298, -9.371e-4
-1.297, -9.464e-4
-1.296, -9.556e-4
-1.295, -9.649e-4
-1.294, -9.741e-4
-1.293, -9.834e-4
-1.292, -9.864e-4
-1.291, -9.864e-4
-1.290, -9.864e-4
-1.289, -9.864e-4
-1.288, -9.864e-4
-1.287, -9.926e-4
-1.286, -9.988e-4
-1.285, -1.008e-3
-1.284, -1.017e-3
-1.283, -1.030e-3
-1.282, -1.042e-3
-1.281, -1.048e-3
-1.280, -1.051e-3
-1.279, -1.054e-3
-1.278, -1.051e-3
-1.277, -1.048e-3
-1.276, -1.051e-3
-1.275, -1.051e-3
-1.274, -1.060e-3
-1.273, -1.070e-3
-1.272, -1.076e-3
-1.271, -1.088e-3
-1.270, -1.094e-3
-1.269, -1.097e-3
-1.268, -1.097e-3
-1.267, -1.094e-3
-1.266, -1.091e-3
-1.265, -1.088e-3
-1.264, -1.085e-3
-1.263, -1.091e-3
-1.262, -1.094e-3
-1.261, -1.104e-3
-1.260, -1.116e-3
-1.259, -1.122e-3
-1.258, -1.131e-3
-1.257, -1.131e-3
-1.256, -1.131e-3
-1.255, -1.125e-3
-1.254, -1.122e-3
-1.253, -1.119e-3
-1.252, -1.119e-3
-1.251, -1.122e-3
-1.250, -1.131e-3
-1.249, -1.141e-3
-1.248, -1.147e-3
-1.247, -1.156e-3
-1.246, -1.162e-3
-1.245, -1.162e-3
-1.244, -1.162e-3
-1.243, -1.159e-3
-1.242, -1.156e-3
-1.241, -1.156e-3
-1.240, -1.156e-3
-1.239, -1.162e-3
-1.238, -1.171e-3
-1.237, -1.178e-3
-1.236, -1.187e-3
-1.235, -1.193e-3
-1.234, -1.193e-3
-1.233, -1.193e-3
-1.232, -1.190e-3
-1.231, -1.187e-3
-1.230, -1.181e-3
-1.229, -1.181e-3
-1.228, -1.187e-3
-1.227, -1.190e-3
-1.226, -1.196e-3
-1.225, -1.205e-3
-1.224, -1.212e-3
-1.223, -1.218e-3
-1.222, -1.215e-3
-1.221, -1.215e-3
-1.220, -1.212e-3
-1.219, -1.205e-3
-1.218, -1.202e-3
-1.217, -1.202e-3
-1.216, -1.205e-3
-1.215, -1.212e-3
-1.214, -1.218e-3
-1.213, -1.227e-3
-1.212, -1.233e-3
-1.211, -1.236e-3
-1.210, -1.236e-3
-1.209, -1.233e-3
-1.208, -1.230e-3
-1.207, -1.224e-3
-1.206, -1.224e-3
-1.205, -1.224e-3
-1.204, -1.224e-3
-1.203, -1.233e-3
-1.202, -1.239e-3
-1.201, -1.252e-3
-1.200, -1.255e-3
-1.199, -1.255e-3
-1.198, -1.255e-3
-1.197, -1.252e-3
-1.196, -1.245e-3
-1.195, -1.242e-3
-1.194, -1.239e-3
-1.193, -1.245e-3
-1.192, -1.245e-3
-1.191, -1.255e-3
-1.190, -1.264e-3
-1.189, -1.267e-3
-1.188, -1.273e-3
-1.187, -1.273e-3
-1.186, -1.273e-3
-1.185, -1.267e-3
-1.184, -1.261e-3
-1.183, -1.258e-3
-1.182, -1.255e-3
-1.181, -1.258e-3
-1.180, -1.264e-3
-1.179, -1.270e-3
-1.178, -1.279e-3
-1.177, -1.286e-3
-1.176, -1.289e-3
-1.175, -1.289e-3
-1.174, -1.282e-3
-1.173, -1.279e-3
-1.172, -1.276e-3
-1.171, -1.273e-3
-1.170, -1.273e-3
-1.169, -1.279e-3
-1.168, -1.289e-3
-1.167, -1.292e-3
-1.166, -1.301e-3
-1.165, -1.307e-3
-1.164, -1.307e-3
-1.163, -1.307e-3
-1.162, -1.301e-3
-1.161, -1.298e-3
-1.160, -1.289e-3
-1.159, -1.286e-3
-1.158, -1.289e-3
-1.157, -1.292e-3
-1.156, -1.298e-3
-1.155, -1.307e-3
-1.154, -1.313e-3
-1.153, -1.316e-3
-1.152, -1.316e-3
-1.151, -1.316e-3
-1.150, -1.310e-3
-1.149, -1.307e-3
-1.148, -1.304e-3
-1.147, -1.301e-3
-1.146, -1.304e-3
-1.145, -1.313e-3
-1.144, -1.319e-3
-1.143, -1.329e-3
-1.142, -1.335e-3
-1.141, -1.338e-3
-1.140, -1.338e-3
-1.139, -1.332e-3
-1.138, -1.326e-3
-1.137, -1.322e-3
-1.136, -1.322e-3
-1.135, -1.322e-3
-1.134, -1.326e-3
-1.133, -1.335e-3
-1.132, -1.341e-3
-1.131, -1.347e-3
-1.130, -1.350e-3
-1.129, -1.353e-3
-1.128, -1.353e-3
-1.127, -1.353e-3
-1.126, -1.350e-3
-1.125, -1.344e-3
-1.124, -1.344e-3
-1.123, -1.344e-3
-1.122, -1.350e-3
-1.121, -1.359e-3
-1.120, -1.366e-3
-1.119, -1.375e-3
-1.118, -1.381e-3
-1.117, -1.381e-3
-1.116, -1.378e-3
-1.115, -1.375e-3
-1.114, -1.372e-3
-1.113, -1.369e-3
-1.112, -1.366e-3
-1.111, -1.372e-3
-1.110, -1.378e-3
-1.109, -1.384e-3
-1.108, -1.396e-3
-1.107, -1.403e-3
-1.106, -1.406e-3
-1.105, -1.406e-3
-1.104, -1.400e-3
-1.103, -1.396e-3
-1.102, -1.393e-3
-1.101, -1.390e-3
-1.100, -1.393e-3
-1.099, -1.396e-3
-1.098, -1.406e-3
-1.097, -1.415e-3
-1.096, -1.424e-3
-1.095, -1.427e-3
-1.094, -1.427e-3
-1.093, -1.430e-3
-1.092, -1.427e-3
-1.091, -1.424e-3
-1.090, -1.421e-3
-1.089, -1.421e-3
-1.088, -1.424e-3
-1.087, -1.430e-3
-1.086, -1.443e-3
-1.085, -1.452e-3
-1.084, -1.461e-3
-1.083, -1.467e-3
-1.082, -1.470e-3
-1.081, -1.474e-3
-1.080, -1.467e-3
-1.079, -1.464e-3
-1.078, -1.461e-3
-1.077, -1.461e-3
-1.076, -1.464e-3
-1.075, -1.474e-3
-1.074, -1.480e-3
-1.073, -1.486e-3
-1.072, -1.492e-3
-1.071, -1.498e-3
-1.070, -1.498e-3
-1.069, -1.495e-3
-1.068, -1.492e-3
-1.067, -1.489e-3
-1.066, -1.492e-3
-1.065, -1.495e-3
-1.064, -1.501e-3
-1.063, -1.514e-3
-1.062, -1.526e-3
-1.061, -1.541e-3
-1.060, -1.554e-3
-1.059, -1.560e-3
-1.058, -1.563e-3
-1.057, -1.563e-3
-1.056, -1.563e-3
-1.055, -1.560e-3
-1.054, -1.560e-3
-1.053, -1.563e-3
-1.052, -1.569e-3
-1.051, -1.575e-3
-1.050, -1.585e-3
-1.049, -1.594e-3
-1.048, -1.600e-3
-1.047, -1.603e-3
-1.046, -1.606e-3
-1.045, -1.606e-3
-1.044, -1.606e-3
-1.043, -1.606e-3
-1.042, -1.612e-3
-1.041, -1.618e-3
-1.040, -1.631e-3
-1.039, -1.640e-3
-1.038, -1.655e-3
-1.037, -1.668e-3
-1.036, -1.677e-3
-1.035, -1.683e-3
-1.034, -1.683e-3
-1.033, -1.686e-3
-1.032, -1.683e-3
-1.031, -1.683e-3
-1.030, -1.689e-3
-1.029, -1.692e-3
-1.028, -1.705e-3
-1.027, -1.717e-3
-1.026, -1.733e-3
-1.025, -1.742e-3
-1.024, -1.748e-3
-1.023, -1.754e-3
-1.022, -1.757e-3
-1.021, -1.757e-3
-1.020, -1.757e-3
-1.019, -1.763e-3
-1.018, -1.773e-3
-1.017, -1.785e-3
-1.016, -1.800e-3
-1.015, -1.816e-3
-1.014, -1.828e-3
-1.013, -1.837e-3
-1.012, -1.847e-3
-1.011, -1.850e-3
-1.010, -1.853e-3
-1.009, -1.862e-3
-1.008, -1.871e-3
-1.007, -1.881e-3
-1.006, -1.890e-3
-1.005, -1.905e-3
-1.004, -1.921e-3
-1.003, -1.933e-3
-1.002, -1.942e-3
-1.001, -1.951e-3
