Potential V vs RHE, Current mA cm-2
0.013299999999999867,0.04140859974704963
0.012299999999999978,-1.4415908145624723
0.011299999999999866,-2.662486666345999
0.010299999999999976,-3.7532290785419424
0.009299999999999864,-4.800115440442069
0.008299999999999974,-5.759289701750564
0.007299999999999862,-6.588310523471475
0.006299999999999972,-7.329619244600755
0.00529999999999986,-7.896918475846635
0.0042999999999999705,-8.332649556205066
0.0032999999999998586,-8.725939297567548
0.0022999999999999687,-9.031516938338395
0.0012999999999998568,-9.379535918105192
0.00029999999999996696,-9.728969609171857
-0.000700000000000145,-10.164700689530287
-0.0017000000000000348,-10.557990430892769
-0.0027000000000001467,-10.906009410659568
-0.0037000000000000366,-11.299299152022046
-0.0047000000000001485,-11.473308641905447
-0.005700000000000038,-11.604876792792895
-0.00670000000000015,-11.73503023238048
-0.00770000000000004,-11.778886282676295
-0.008700000000000152,-11.909039722263879
-0.009700000000000042,-12.084463923447142
-0.010700000000000154,-12.346185513922174
-0.011700000000000044,-12.607907104397206
-0.012700000000000156,-12.869628694872238
-0.013700000000000045,-13.043638184755638
-0.014700000000000157,-13.13135028534727
-0.015700000000000047,-13.13135028534727
-0.01670000000000016,-13.175206335643086
-0.01770000000000005,-13.175206335643086
-0.01870000000000016,-13.217647674639037
-0.01970000000000005,-13.349215825526485
-0.020700000000000163,-13.47936926511407
-0.021700000000000053,-13.654793466297335
-0.022700000000000164,-13.872659006476551
-0.023700000000000054,-14.002812446064135
-0.024700000000000166,-14.046668496359947
-0.025700000000000056,-14.046668496359947
-0.026700000000000168,-14.002812446064135
-0.027700000000000058,-13.916515056772363
-0.02870000000000017,-13.960371107068182
-0.02970000000000006,-14.002812446064135
-0.03070000000000017,-14.13438059695158
-0.03170000000000006,-14.345172580631472
-0.03270000000000017,-14.529085049613924
-0.03370000000000006,-14.65640906660178
-0.034700000000000175,-14.69885040559773
-0.035700000000000065,-14.741291744593681
-0.03670000000000018,-14.65640906660178
-0.03770000000000007,-14.57152638860988
-0.03870000000000018,-14.57152638860988
-0.03970000000000007,-14.57152638860988
-0.04070000000000018,-14.69885040559773
-0.04170000000000007,-14.826174422585586
-0.04270000000000018,-14.967645552572087
-0.04370000000000007,-15.094969569559943
-0.044700000000000184,-15.094969569559943
-0.045700000000000074,-15.05252823056399
-0.046700000000000186,-15.01008689156804
-0.047700000000000076,-14.967645552572087
-0.04870000000000019,-14.967645552572087
-0.04970000000000008,-15.094969569559943
-0.05070000000000019,-15.222293586547794
-0.05170000000000008,-15.3920589425316
-0.05270000000000019,-15.575971411514052
-0.05370000000000008,-15.660854089505953
-0.05470000000000019,-15.70329542850191
-0.05570000000000008,-15.618412750510005
-0.056700000000000195,-15.618412750510005
-0.057700000000000085,-15.533530072518102
-0.058700000000000196,-15.491088733522153
-0.059700000000000086,-15.533530072518102
-0.0607000000000002,-15.660854089505953
-0.06170000000000009,-15.78817810649381
-0.0627000000000002,-15.91550212348166
-0.06370000000000009,-16.056973253468165
-0.0647000000000002,-16.014531914472215
-0.06570000000000009,-15.972090575476265
-0.0667000000000002,-15.91550212348166
-0.0677000000000001,-15.830619445489761
-0.0687000000000002,-15.830619445489761
-0.0697000000000001,-15.91550212348166
-0.07070000000000021,-16.056973253468165
-0.0717000000000001,-16.184297270456018
-0.07270000000000021,-16.354062626439823
-0.0737000000000001,-16.438945304431726
-0.07470000000000021,-16.438945304431726
-0.0757000000000001,-16.438945304431726
-0.07670000000000021,-16.311621287443874
-0.0777000000000001,-16.22673860945197
-0.07870000000000021,-16.184297270456018
-0.0797000000000001,-16.22673860945197
-0.08070000000000022,-16.354062626439823
-0.0817000000000001,-16.495533756426326
-0.08270000000000022,-16.622857773414182
-0.08370000000000011,-16.70774045140608
-0.08470000000000022,-16.70774045140608
-0.08570000000000011,-16.70774045140608
-0.08670000000000022,-16.665299112410132
-0.08770000000000011,-16.622857773414182
-0.08870000000000022,-16.622857773414182
-0.08970000000000011,-16.665299112410132
-0.09070000000000022,-16.792623129397985
-0.09170000000000011,-16.919947146385837
-0.09270000000000023,-17.061418276372343
-0.09370000000000012,-17.146300954364243
-0.09470000000000023,-17.146300954364243
-0.09570000000000012,-17.103859615368293
-0.09670000000000023,-17.061418276372343
-0.09770000000000012,-16.962388485381787
-0.09870000000000023,-16.919947146385837
-0.09970000000000012,-16.962388485381787
-0.10070000000000023,-17.061418276372343
-0.10170000000000012,-17.188742293360193
-0.10270000000000024,-17.316066310348052
-0.10370000000000013,-17.358507649344002
-0.10470000000000024,-17.40094898833995
-0.10570000000000013,-17.358507649344002
-0.10670000000000024,-17.316066310348052
-0.10770000000000013,-17.231183632356142
-0.10870000000000024,-17.188742293360193
-0.10970000000000013,-17.2736249713521
-0.11070000000000024,-17.40094898833995
-0.11170000000000013,-17.542420118326454
-0.11270000000000002,-17.71218547431026
-0.11370000000000013,-17.797068152302163
-0.11470000000000002,-17.797068152302163
-0.11570000000000014,-17.75462681330621
-0.11670000000000003,-17.71218547431026
-0.11770000000000014,-17.627302796318357
-0.11870000000000003,-17.584861457322408
-0.11970000000000014,-17.627302796318357
-0.12070000000000003,-17.75462681330621
-0.12170000000000014,-17.881950830294063
-0.12270000000000003,-17.966833508285966
-0.12370000000000014,-18.10830463827247
-0.12470000000000003,-18.06586329927652
-0.12570000000000014,-18.06586329927652
-0.12670000000000003,-18.009274847281915
-0.12770000000000015,-17.924392169290012
-0.12870000000000004,-17.924392169290012
-0.12970000000000015,-18.009274847281915
-0.13070000000000004,-18.10830463827247
-0.13170000000000015,-18.27806999425627
-0.13270000000000004,-18.40539401124413
-0.13370000000000015,-18.49027668923603
-0.13470000000000004,-18.53271802823198
-0.13570000000000015,-18.49027668923603
-0.13670000000000004,-18.44783535024008
-0.13770000000000016,-18.362952672248177
-0.13870000000000005,-18.320511333252224
-0.13970000000000016,-18.40539401124413
-0.14070000000000005,-18.49027668923603
-0.14170000000000016,-18.631747819222536
-0.14270000000000005,-18.759071836210385
-0.14370000000000016,-18.843954514202288
-0.14470000000000005,-18.88639585319824
-0.14570000000000016,-18.80151317520634
-0.14670000000000005,-18.716630497214435
-0.14770000000000016,-18.631747819222536
-0.14870000000000005,-18.589306480226583
-0.14970000000000017,-18.674189158218486
-0.15070000000000006,-18.843954514202288
-0.15170000000000017,-18.97127853119014
-0.15270000000000006,-19.112749661176647
-0.15370000000000017,-19.197632339168546
-0.15470000000000006,-19.197632339168546
-0.15570000000000017,-19.112749661176647
-0.15670000000000006,-19.112749661176647
-0.15770000000000017,-19.01371987018609
-0.15870000000000006,-19.01371987018609
-0.15970000000000018,-19.112749661176647
-0.16070000000000007,-19.2400736781645
-0.16170000000000018,-19.3249563561564
-0.16270000000000007,-19.49472171214021
-0.16370000000000018,-19.636192842126707
-0.16470000000000007,-19.636192842126707
-0.16570000000000018,-19.579604390132108
-0.16670000000000007,-19.579604390132108
-0.16770000000000018,-19.49472171214021
-0.16870000000000007,-19.49472171214021
-0.16970000000000018,-19.537163051136158
-0.17070000000000007,-19.678634181122664
-0.17170000000000019,-19.763516859114564
-0.17270000000000008,-19.890840876102416
-0.1737000000000002,-19.97572355409432
-0.17470000000000008,-19.97572355409432
-0.1757000000000002,-19.93328221509837
-0.17670000000000008,-19.848399537106463
-0.1777000000000002,-19.763516859114564
-0.17870000000000008,-19.721075520118614
-0.1797000000000002,-19.805958198110513
-0.18070000000000008,-19.93328221509837
-0.1817000000000002,-20.10304757108217
-0.18270000000000008,-20.286960040064624
-0.1837000000000002,-20.371842718056527
-0.1847000000000001,-20.414284057052477
-0.1857000000000002,-20.371842718056527
-0.1867000000000001,-20.329401379060574
-0.1877000000000002,-20.286960040064624
-0.1887000000000001,-20.286960040064624
-0.1897000000000002,-20.371842718056527
-0.1907000000000001,-20.499166735044383
-0.1917000000000001,-20.626490752032236
-0.19269999999999998,-20.76796188201874
-0.1937000000000001,-20.85284456001064
-0.19469999999999998,-20.89528589900659
-0.1957000000000001,-20.85284456001064
-0.19669999999999999,-20.76796188201874
-0.1977000000000001,-20.72552054302279
-0.1987,-20.72552054302279
-0.1997000000000001,-20.72552054302279
-0.2007,-20.89528589900659
-0.2017000000000001,-21.022609915994444
-0.2027,-21.149933932982297
-0.2037000000000001,-21.291405062968803
-0.2047,-21.291405062968803
-0.2057000000000001,-21.248963723972853
-0.2067,-21.2065223849769
-0.2077000000000001,-21.107492593986347
-0.2087,-21.107492593986347
-0.2097000000000001,-21.2065223849769
-0.2107,-21.333846401964752
-0.2117000000000001,-21.461170418952605
-0.2127,-21.63093577493641
-0.2137000000000001,-21.729965565926964
-0.2147,-21.772406904922917
-0.2157000000000001,-21.772406904922917
-0.2167,-21.729965565926964
-0.21770000000000012,-21.63093577493641
-0.2187,-21.63093577493641
-0.21970000000000012,-21.772406904922917
-0.2207,-21.857289582914817
-0.22170000000000012,-21.98461359990267
-0.2227,-22.196820294882425
-0.22370000000000012,-22.295850085872978
-0.2247,-22.295850085872978
-0.22570000000000012,-22.295850085872978
-0.2267,-22.253408746877028
-0.22770000000000012,-22.15437895588647
-0.22870000000000001,-22.15437895588647
-0.22970000000000013,-22.253408746877028
-0.23070000000000002,-22.33829142486893
-0.23170000000000013,-22.508056780852733
-0.23270000000000002,-22.67782213683654
-0.23370000000000013,-22.776851927827092
-0.23470000000000002,-22.72026347583249
-0.23570000000000013,-22.72026347583249
-0.23670000000000002,-22.63538079784059
-0.2376999999999999,-22.592939458844636
-0.23870000000000002,-22.550498119848687
-0.2396999999999999,-22.63538079784059
-0.24070000000000003,-22.776851927827092
-0.24169999999999991,-22.946617283810895
-0.24270000000000003,-23.073941300798747
-0.24369999999999992,-23.2012653177866
-0.24470000000000003,-23.2012653177866
-0.24569999999999992,-23.15882397879065
-0.24670000000000003,-23.1163826397947
-0.24769999999999992,-23.073941300798747
-0.24870000000000003,-23.073941300798747
-0.24969999999999992,-23.1163826397947
-0.25070000000000003,-23.300295108777156
-0.2516999999999999,-23.427619125765005
-0.25270000000000004,-23.51250180375691
-0.2536999999999999,-23.597384481748815
-0.25470000000000004,-23.639825820744765
-0.2556999999999999,-23.55494314275286
-0.25670000000000004,-23.51250180375691
-0.25769999999999993,-23.427619125765005
-0.25870000000000004,-23.385177786769056
-0.25969999999999993,-23.427619125765005
-0.26070000000000004,-23.55494314275286
-0.26169999999999993,-23.682267159740714
-0.26270000000000004,-23.86617962872317
-0.26369999999999993,-23.993503645711023
-0.26470000000000005,-23.993503645711023
-0.26569999999999994,-23.951062306715073
-0.26670000000000005,-23.908620967719123
-0.26769999999999994,-23.86617962872317
-0.26870000000000005,-23.823738289727217
-0.26969999999999994,-23.908620967719123
-0.27070000000000005,-24.035944984706973
-0.27169999999999994,-24.120827662698876
-0.27270000000000005,-24.290593018682678
-0.27369999999999994,-24.389622809673234
-0.27470000000000006,-24.34718147067728
-0.27569999999999995,-24.290593018682678
-0.27670000000000006,-24.20571034069078
-0.27769999999999995,-24.078386323702922
-0.27870000000000006,-24.035944984706973
-0.27969999999999995,-24.078386323702922
-0.28070000000000006,-24.20571034069078
-0.28169999999999995,-24.34718147067728
-0.28270000000000006,-24.474505487665134
-0.28369999999999995,-24.559388165657033
-0.28470000000000006,-24.516946826661083
-0.28569999999999995,-24.516946826661083
-0.28670000000000007,-24.432064148669184
-0.28769999999999996,-24.34718147067728
-0.28870000000000007,-24.34718147067728
-0.28969999999999996,-24.389622809673234
-0.29070000000000007,-24.474505487665134
-0.29169999999999996,-24.601829504652986
-0.29270000000000007,-24.729153521640843
-0.29369999999999996,-24.771594860636792
-0.2947000000000001,-24.814036199632742
-0.29569999999999996,-24.729153521640843
-0.2967000000000001,-24.64427084364894
-0.29769999999999996,-24.516946826661083
-0.2987000000000001,-24.474505487665134
-0.29969999999999997,-24.474505487665134
-0.3007000000000001,-24.601829504652986
-0.30169999999999997,-24.686712182644893
-0.3027000000000001,-24.814036199632742
-0.30369999999999997,-24.870624651627345
-0.3047000000000001,-24.814036199632742
-0.30569999999999997,-24.729153521640843
-0.3067000000000001,-24.601829504652986
-0.3077,-24.516946826661083
-0.3087000000000001,-24.389622809673234
-0.3097,-24.432064148669184
-0.3107000000000001,-24.516946826661083
-0.3117,-24.64427084364894
-0.3127000000000001,-24.729153521640843
-0.3137,-24.870624651627345
-0.3147000000000001,-24.814036199632742
-0.3157,-24.771594860636792
-0.3167000000000001,-24.64427084364894
-0.3177,-24.559388165657033
-0.3187000000000001,-24.516946826661083
-0.3197,-24.559388165657033
-0.3207000000000001,-24.64427084364894
-0.3217,-24.686712182644893
-0.3227000000000001,-24.814036199632742
-0.3237,-24.9130659906233
-0.3247000000000001,-24.870624651627345
-0.3257,-24.771594860636792
-0.3267000000000001,-24.686712182644893
-0.3277,-24.559388165657033
-0.3287000000000001,-24.516946826661083
-0.3297,-24.559388165657033
-0.3307000000000001,-24.64427084364894
-0.3317,-24.729153521640843
-0.3327000000000001,-24.9130659906233
-0.3337,-24.95550732961925
-0.3347000000000001,-24.9130659906233
-0.3357,-24.9130659906233
-0.3367000000000001,-24.9130659906233
-0.3377,-24.814036199632742
-0.3387000000000001,-24.870624651627345
-0.3397,-24.997948668615198
-0.3407000000000001,-25.04039000761115
-0.3417,-25.12527268560305
-0.3427000000000001,-25.210155363594954
-0.3437,-25.252596702590903
-0.3447000000000001,-25.252596702590903
-0.3457,-25.210155363594954
-0.3467000000000001,-25.12527268560305
-0.3477,-25.04039000761115
-0.3487000000000001,-24.997948668615198
-0.3497,-24.997948668615198
-0.3507000000000001,-25.0828313466071
-0.3517,-25.252596702590903
-0.3527000000000001,-25.39406783257741
-0.3537,-25.521391849565262
-0.3547000000000001,-25.60627452755716
-0.3557,-25.563833188561212
-0.35670000000000013,-25.521391849565262
-0.3577,-25.521391849565262
-0.35870000000000013,-25.521391849565262
-0.3597,-25.648715866553115
-0.36070000000000013,-25.86092256153287
-0.3617,-26.044835030515326
-0.3626999999999999,-26.257041725495082
-0.3637,-26.440954194477534
-0.3646999999999999,-26.525836872469437
-0.3657,-26.525836872469437
-0.3666999999999999,-26.568278211465387
-0.3677,-26.61071955046134
-0.3686999999999999,-26.69560222845324
-0.36970000000000003,-26.86536758443705
-0.3706999999999999,-27.091721392415455
-0.37170000000000003,-27.261486748399253
-0.3726999999999999,-27.487840556377662
-0.37370000000000003,-27.615164573365515
-0.3746999999999999,-27.700047251357418
-0.37570000000000003,-27.700047251357418
-0.3766999999999999,-27.742488590353368
-0.37770000000000004,-27.700047251357418
-0.3786999999999999,-27.78492992934932
-0.37970000000000004,-27.954695285333123
-0.3806999999999999,-28.18104909331153
-0.38170000000000004,-28.435697127287238
-0.38269999999999993,-28.704492274261593
-0.38370000000000004,-28.8742576302454
-0.38469999999999993,-29.001581647233255
-0.38570000000000004,-29.14305277721976
-0.38669999999999993,-29.18549411621571
-0.38770000000000004,-29.27037679420761
-0.38869999999999993,-29.39770081119546
-0.38970000000000005,-29.581613280177915
-0.39069999999999994,-29.878702653149578
-0.39170000000000005,-30.189939139119886
-0.39269999999999994,-30.444587173095588
-0.39370000000000005,-30.71338232006995
-0.39469999999999994,-30.88314767605375
-0.39570000000000005,-31.052913032037555
-0.39669999999999994,-31.137795710029454
-0.39770000000000005,-31.36414951800786
-0.39869999999999994,-31.57635621298762
-0.39970000000000006,-31.887592698957924
-0.40069999999999995,-32.24127052392419
-0.40170000000000006,-32.62324257488775
-0.40269999999999995,-32.93447906085806
-0.40370000000000006,-33.231568433829715
-0.40469999999999995,-33.373039563816214
-0.40570000000000006,-33.50036358080407
-0.40669999999999995,-33.627687597791926
-0.40770000000000006,-33.755011614779775
-0.40869999999999995,-33.93892408376223
-0.40970000000000006,-34.193572117737936
-0.41069999999999995,-34.58969128170015
-0.41170000000000007,-35.02825178465831
-0.41269999999999996,-35.42437094862052
-0.41370000000000007,-35.806342999584075
-0.41469999999999996,-36.16002082455034
-0.41570000000000007,-36.4288159715247
-0.41669999999999996,-36.6834640055004
-0.41770000000000007,-36.95225915247476
-0.41869999999999996,-37.206907186450465
-0.4197000000000001,-37.60302635041268
-0.42069999999999996,-38.08402819236679
-0.4217000000000001,-38.522588695324956
-0.42269999999999996,-38.98944342428042
-0.4237000000000001,-39.38556258824262
-0.42469999999999997,-39.696799074212926
-0.4257000000000001,-39.95144710818864
-0.42669999999999997,-40.177800916167044
-0.4277000000000001,-40.43244895014274
-0.42869999999999997,-40.701244097117105
-0.4297000000000001,-41.139804600075266
-0.43069999999999997,-41.56421799003478
-0.4317000000000001,-42.087661170984845
-0.4327,-42.653545690930855
-0.4337000000000001,-43.134547532884966
-0.4347,-43.57310803584313
-0.4357000000000001,-43.96922719980534
-0.4367,-44.3229050247716
-0.4377000000000001,-44.66243573673921
-0.4387,-45.10099623969737
-0.4397000000000001,-45.581998081651484
-0.4407,-46.10544126260155
-0.4417000000000001,-46.628884443551605
-0.4427,-47.15232762450167
-0.4437000000000001,-47.633329466455784
-0.4447,-48.071889969413945
-0.4457000000000001,-48.41142068138156
-0.4467,-48.80753984534376
-0.4477000000000001,-49.20365900930597
-0.4487,-49.68466085126009
-0.4497000000000001,-50.20810403221015
-0.4507,-50.77398855215617
-0.4517000000000001,-51.424755750094086
-0.4527,-52.033081609036046
-0.4537000000000001,-52.69799591997262
-0.4547,-53.26388043991864
-0.4557000000000001,-53.7873236208687
-0.4567,-54.26832546282281
-0.4577000000000001,-54.791768643772876
-0.4587,-55.31521182472294
-0.4597000000000001,-55.881096344668954
-0.4607,-56.53186354260687
-0.4617000000000001,-57.22507207954074
-0.4627,-57.93242772947325
-0.4637000000000001,-58.583194927411164
-0.4647,-59.14907944735718
-0.4657000000000001,-59.6300812893113
-0.4667,-60.11108313126541
-0.4677000000000001,-60.59208497321952
-0.4687,-61.15796949316553
-0.4697000000000001,-61.80873669110345
-0.4707,-62.501945228037314
-0.4717000000000001,-63.251742216965795
-0.4727,-64.02983343189156
-0.4737000000000001,-64.77963042082003
-0.4747,-65.4728389577539
-0.4757000000000001,-66.08116481669586
-0.4767,-66.77437335362974
-0.4777000000000001,-67.2978165345798
-0.4787,-68.0051721845123
-0.4797000000000001,-68.69838072144618
-0.4807,-69.53306038836655
-0.48170000000000013,-70.35359294228827
-0.4827,-71.27315528720055
-0.48370000000000013,-72.15027629311687
-0.4847,-72.84348483005074
-0.48570000000000013,-73.53669336698461
-0.4867,-74.10257788693062
-0.4876999999999999,-74.80993353686314
-0.4887,-75.5880247517889
-0.4896999999999999,-76.46514575770523
-0.4907,-77.38470810261751
-0.4916999999999999,-78.29012333453113
-0.4927,-79.20968567944341
-0.4936999999999999,-80.04436534636378
-0.49470000000000003,-80.82245656128954
-0.4956999999999999,-81.51566509822342
-0.49670000000000003,-82.26546208715187
-0.4976999999999999,-83.0011119630817
-0.49870000000000003,-83.79335029100612
-0.4996999999999999,-84.6563241839238
-0.5007,-85.53344518984011
-0.5016999999999999,-86.45300753475239
-0.5027,-87.33012854066871
-0.5036999999999999,-88.15066109459043
-0.5047,-88.9853407615108
-0.5056999999999999,-89.94734444541903
