Potential V vs RHE, Current mA cm-2
0.013299999999999867,12.341941380022579
0.012299999999999978,10.509890246697358
0.011299999999999866,8.416117522897103
0.010299999999999976,6.278488748801033
0.009299999999999864,4.44643761547581
0.008299999999999974,3.0515322738088844
0.007299999999999862,1.7867803717295414
0.006299999999999972,0.21588494435940458
0.00529999999999986,-1.5717442541500557
0.0042999999999999705,-3.0996324580042955
0.0032999999999998586,-4.146518819904423
0.0022999999999999687,-5.191990470504685
0.0012999999999998568,-6.54445447317566
0.00029999999999996696,-8.070927965730034
-0.000700000000000145,-9.379535918105192
-0.0017000000000000348,-10.25241279012192
-0.0027000000000001467,-11.123874950838783
-0.0037000000000000366,-12.346185513922174
-0.0047000000000001485,-13.741090855589102
-0.005700000000000038,-14.925204213576137
-0.00670000000000015,-15.70329542850191
-0.00770000000000004,-16.438945304431726
-0.008700000000000152,-17.48583166633185
-0.009700000000000042,-18.759071836210385
-0.010700000000000154,-19.890840876102416
-0.011700000000000044,-20.541608074040333
-0.012700000000000156,-21.149933932982297
-0.013700000000000045,-22.15437895588647
-0.014700000000000157,-23.385177786769056
-0.015700000000000047,-24.34718147067728
-0.01670000000000016,-24.95550732961925
-0.01770000000000005,-25.521391849565262
-0.01870000000000016,-26.38436574248293
-0.01970000000000005,-27.572723234369565
-0.020700000000000163,-28.478138466283188
-0.021700000000000053,-29.001581647233255
-0.022700000000000164,-29.525024828183312
-0.023700000000000054,-30.359704495103685
-0.024700000000000166,-31.449032195999767
-0.025700000000000056,-32.368594540912035
-0.026700000000000168,-32.84959638286615
-0.027700000000000058,-33.330598224820264
-0.02870000000000017,-34.10868943974604
-0.02970000000000006,-35.198017140642115
-0.03070000000000017,-36.03269680756248
-0.03170000000000006,-36.47125731052064
-0.03270000000000017,-36.89567070048016
-0.03370000000000006,-37.73035036740053
-0.034700000000000175,-38.777236729300654
-0.035700000000000065,-39.61191639622103
-0.03670000000000018,-40.03632978618054
-0.03770000000000007,-40.43244895014274
-0.03870000000000018,-41.22468727806717
-0.03970000000000007,-42.229132300971344
-0.04070000000000018,-43.007223515897124
-0.04170000000000007,-43.44578401885527
-0.04270000000000018,-43.84190318281749
-0.04370000000000007,-44.619994397743255
-0.044700000000000184,-45.624439420647434
-0.045700000000000074,-46.41667774857186
-0.046700000000000186,-46.79864979953541
-0.047700000000000076,-47.19476896349763
-0.04870000000000019,-47.987007291422046
-0.04970000000000008,-48.93486386233162
-0.05070000000000019,-49.72710219025603
-0.05170000000000008,-50.12322135421825
-0.05270000000000019,-50.46275206618586
-0.05370000000000008,-51.25499039411028
-0.05470000000000019,-52.25943541701445
-0.05570000000000008,-52.995085292944275
-0.056700000000000195,-53.39120445690648
-0.057700000000000085,-53.74488228187274
-0.058700000000000196,-54.480532157802564
-0.059700000000000086,-55.484977180706736
-0.0607000000000002,-56.30550973462846
-0.06170000000000009,-56.70162889859067
-0.0627000000000002,-57.097748062552874
-0.06370000000000009,-57.8333979384827
-0.0647000000000002,-58.83784296138688
-0.06570000000000009,-59.6300812893113
-0.0667000000000002,-60.02620045327351
-0.0677000000000001,-60.40817250423707
-0.0687000000000002,-61.15796949316553
-0.0697000000000001,-62.16241451606972
-0.07070000000000021,-62.98294706999144
-0.0717000000000001,-63.3366248949577
-0.07270000000000021,-63.732744058919906
-0.0737000000000001,-64.46839393484973
-0.07470000000000021,-65.4728389577539
-0.0757000000000001,-66.29337151167562
-0.07670000000000021,-66.68949067563783
-0.0777000000000001,-67.04316850060408
-0.07870000000000021,-67.73637703753796
-0.0797000000000001,-68.69838072144618
-0.08070000000000022,-69.4906190493706
-0.0817000000000001,-69.87259110033416
-0.08270000000000022,-70.18382758630447
-0.08370000000000011,-70.91947746223428
-0.08470000000000022,-71.92392248513846
-0.08570000000000011,-72.67371947406694
-0.08670000000000022,-73.01325018603454
-0.08770000000000011,-73.3669280110008
-0.08870000000000022,-74.06013654793468
-0.08970000000000011,-75.06458157083884
-0.09070000000000022,-75.81437855976732
-0.09170000000000011,-76.19635061073087
-0.09270000000000023,-76.55002843569714
-0.09370000000000012,-77.28567831162695
-0.09470000000000023,-78.24768199553519
-0.09570000000000012,-79.0399203234596
-0.09670000000000023,-79.42189237442317
-0.09770000000000012,-79.7755701993894
-0.09870000000000023,-80.56780852731384
-0.09970000000000012,-81.51566509822342
-0.10070000000000023,-82.30790342614785
-0.10170000000000012,-82.70402259011003
-0.10270000000000024,-83.04355330207765
-0.10370000000000013,-83.79335029100612
-0.10470000000000024,-84.75535397491434
-0.10570000000000013,-85.49100385084417
-0.10670000000000024,-85.88712301480638
-0.10770000000000013,-86.22665372677399
-0.10870000000000024,-87.01889205469841
-0.10970000000000013,-88.02333707760259
-0.11070000000000024,-88.7589869535324
-0.11170000000000013,-89.15510611749461
-0.11270000000000002,-89.50878394246087
-0.11370000000000013,-90.20199247939475
-0.11470000000000002,-91.16399616330297
-0.11570000000000014,-91.94208737822873
-0.11670000000000003,-92.33820654219093
-0.11770000000000014,-92.73432570615316
-0.11870000000000003,-93.46997558208298
-0.11970000000000014,-94.5168619439831
-0.12070000000000003,-95.30910027190752
-0.12170000000000014,-95.69107232287108
-0.12270000000000003,-95.95986746984543
-0.12370000000000014,-96.69551734577524
-0.12470000000000003,-97.69996236867944
-0.12570000000000014,-98.4497593576079
-0.12670000000000003,-98.74684873057957
-0.12770000000000015,-99.10052655554581
-0.12870000000000004,-99.7937350924797
-0.12970000000000015,-100.79818011538387
-0.13070000000000004,-101.54797710431234
-0.13170000000000015,-101.88750781627995
-0.13270000000000004,-102.19874430225026
-0.13370000000000015,-102.84951150018817
-0.13470000000000004,-103.76907384510045
-0.13570000000000015,-104.46228238203432
-0.13670000000000004,-104.85840154599651
-0.13770000000000016,-105.11304957997223
-0.13870000000000005,-105.82040522990474
-0.13970000000000016,-106.68337912282242
-0.14070000000000005,-107.39073477275493
-0.14170000000000016,-107.68782414572658
-0.14270000000000005,-108.04150197069285
-0.14370000000000016,-108.69226916863077
-0.14470000000000005,-109.61183151354304
-0.14570000000000016,-110.34748138947285
-0.14670000000000005,-110.65871787544317
-0.14770000000000016,-110.96995436141347
-0.14870000000000005,-111.6207215593514
-0.14970000000000017,-112.54028390426367
-0.15070000000000006,-113.19105110220158
-0.15170000000000017,-113.53058181416918
-0.15270000000000006,-113.88425963913545
-0.15370000000000017,-114.53502683707337
-0.15470000000000006,-115.4970305209816
-0.15570000000000017,-116.20438617091412
-0.15670000000000006,-116.54391688288172
-0.15770000000000017,-116.81271202985609
-0.15870000000000006,-117.50592056678994
-0.15970000000000018,-118.42548291170223
-0.16070000000000007,-119.07625010964013
-0.16170000000000018,-119.38748659561045
-0.16270000000000007,-119.68457596858211
-0.16370000000000018,-120.33534316652002
-0.16470000000000007,-121.2549055114323
-0.16570000000000018,-122.00470250036076
-0.16670000000000007,-122.30179187333242
-0.16770000000000018,-122.57058702030677
-0.16870000000000007,-123.2213542182447
-0.16970000000000018,-124.18335790215292
-0.17070000000000007,-124.7916837610949
-0.17170000000000019,-125.10292024706521
-0.17270000000000008,-125.35756828104091
-0.1737000000000002,-126.00833547897882
-0.17470000000000008,-126.88545648489513
-0.1757000000000002,-127.4937823438371
-0.17670000000000008,-127.84746016880335
-0.1777000000000002,-128.01722552478716
-0.17870000000000008,-128.62555138372915
-0.1797000000000002,-129.50267238964545
-0.18070000000000008,-130.1534395875834
-0.1817000000000002,-130.46467607355368
-0.18270000000000008,-130.7193241075294
-0.1837000000000002,-131.32764996647134
-0.1847000000000001,-132.24721231138363
-0.1857000000000002,-132.9404208483175
-0.1867000000000001,-133.20921599529186
-0.1877000000000002,-133.4214226902716
-0.1887000000000001,-133.9873072102176
-0.1897000000000002,-134.86442821613394
-0.1907000000000001,-135.51519541407185
-0.1917000000000001,-135.78399056104624
-0.19269999999999998,-136.03863859502192
-0.1937000000000001,-136.66111156696255
-0.19469999999999998,-137.52408545988024
-0.1957000000000001,-138.13241131882216
-0.19669999999999999,-138.3587651268006
-0.1977000000000001,-138.57097182178035
-0.1987,-139.13685634172634
-0.1997000000000001,-139.97153600864672
-0.2007,-140.5798618675887
-0.2017000000000001,-140.79206856256846
-0.2027,-141.01842237054686
-0.2037000000000001,-141.61260111649017
-0.2047,-142.4614278964092
-0.2057000000000001,-143.0273124163552
-0.2067,-143.3102546763282
-0.2077000000000001,-143.4517258063147
-0.2087,-144.01761032626072
-0.2097000000000001,-145.00790823616626
-0.2107,-145.57379275611228
-0.2117000000000001,-145.7152638860988
-0.2127,-145.9982061460718
-0.2137000000000001,-146.5640906660178
-0.2147,-147.4129174459368
-0.2157000000000001,-148.12027309586935
-0.2167,-148.40321535584232
-0.21770000000000012,-148.54468648582886
-0.2187,-149.1105710057749
-0.21970000000000012,-149.8179266557074
-0.2207,-150.38381117565342
-0.22170000000000012,-150.5252823056399
-0.2227,-150.66675343562642
-0.22370000000000012,-151.23263795557244
-0.2247,-151.93999360550492
-0.22570000000000012,-152.64734925543743
-0.2267,-152.78882038542397
-0.22770000000000012,-152.93029151541046
-0.22870000000000001,-153.49617603535648
-0.22970000000000013,-154.3450028152755
-0.23070000000000002,-155.05235846520802
-0.23170000000000013,-155.47677185516753
-0.23270000000000002,-155.90118524512707
-0.23370000000000013,-156.60854089505958
-0.23470000000000002,-157.59883880496508
-0.23570000000000013,-158.3061944548976
-0.23670000000000002,-158.5891367148706
-0.2376999999999999,-158.87207897484362
-0.23870000000000002,-159.43796349478964
-0.2396999999999999,-160.28679027470866
-0.24070000000000003,-160.8526747946547
-0.24169999999999991,-160.99414592464117
-0.24270000000000003,-161.1356170546277
-0.24369999999999992,-161.5600304445872
-0.24470000000000003,-162.12591496453322
-0.24569999999999992,-162.5503283544927
-0.24670000000000003,-162.5503283544927
-0.24769999999999992,-162.5503283544927
-0.24870000000000003,-162.97474174445222
-0.24969999999999992,-163.68209739438475
-0.25070000000000003,-164.10651078434424
-0.2516999999999999,-164.10651078434424
-0.25270000000000004,-164.10651078434424
-0.2536999999999999,-164.53092417430375
-0.25470000000000004,-165.2382798242363
-0.2556999999999999,-165.8041643441823
-0.25670000000000004,-165.8041643441823
-0.25769999999999993,-165.8041643441823
-0.25870000000000004,-166.22857773414182
-0.25969999999999993,-166.93593338407433
-0.26070000000000004,-167.50181790402033
-0.26169999999999993,-167.50181790402033
-0.26270000000000004,-167.50181790402033
-0.26369999999999993,-167.92623129397984
-0.26470000000000005,-168.63358694391238
-0.26569999999999994,-169.19947146385837
-0.26670000000000005,-169.3409425938449
-0.26769999999999994,-169.3409425938449
-0.26870000000000005,-169.7653559838044
-0.26969999999999994,-170.47271163373694
-0.27070000000000005,-170.89712502369645
-0.27169999999999994,-170.89712502369645
-0.27270000000000005,-170.89712502369645
-0.27369999999999994,-171.32153841365593
-0.27470000000000006,-171.88742293360195
-0.27569999999999995,-172.31183632356147
-0.27670000000000006,-172.31183632356147
-0.27769999999999995,-172.17036519357498
-0.27870000000000006,-172.45330745354798
-0.27969999999999995,-173.01919197349397
-0.28070000000000006,-173.302134233467
-0.28169999999999995,-173.302134233467
-0.28270000000000006,-173.16066310348046
-0.28369999999999995,-173.44360536345349
-0.28470000000000006,-174.0094898833995
-0.28569999999999995,-174.150961013386
-0.28670000000000007,-174.150961013386
-0.28769999999999996,-174.0094898833995
-0.28870000000000007,-174.150961013386
-0.28969999999999996,-174.57537440334553
-0.29070000000000007,-174.99978779330505
-0.29169999999999996,-174.85831666331853
-0.29270000000000007,-174.57537440334553
-0.29369999999999996,-174.71684553333202
-0.2947000000000001,-175.28273005327804
-0.29569999999999996,-175.42420118326456
-0.2967000000000001,-175.28273005327804
-0.29769999999999996,-174.99978779330505
-0.2987000000000001,-175.14125892329156
-0.29969999999999997,-175.56567231325104
-0.3007000000000001,-175.84861457322407
-0.30169999999999997,-175.56567231325104
-0.3027000000000001,-175.28273005327804
-0.30369999999999997,-175.56567231325104
-0.3047000000000001,-175.99008570321055
-0.30569999999999997,-176.13155683319707
-0.3067000000000001,-175.84861457322407
-0.3077,-175.70714344323756
-0.3087000000000001,-175.84861457322407
-0.3097,-176.13155683319707
-0.3107000000000001,-176.27302796318358
-0.3117,-175.99008570321055
-0.3127000000000001,-175.70714344323756
-0.3137,-175.70714344323756
-0.3147000000000001,-175.99008570321055
-0.3157,-175.99008570321055
-0.3167000000000001,-175.70714344323756
-0.3177,-175.28273005327804
-0.3187000000000001,-175.42420118326456
-0.3197,-175.70714344323756
-0.3207000000000001,-175.84861457322407
-0.3217,-175.42420118326456
-0.3227000000000001,-174.99978779330505
-0.3237,-174.99978779330505
-0.3247000000000001,-175.28273005327804
-0.3257,-175.28273005327804
-0.3267000000000001,-174.99978779330505
-0.3277,-174.57537440334553
-0.3287000000000001,-174.57537440334553
-0.3297,-174.71684553333202
-0.3307000000000001,-174.71684553333202
-0.3317,-174.2924321433725
-0.3327000000000001,-174.0094898833995
-0.3337,-173.86801875341303
-0.3347000000000001,-174.0094898833995
-0.3357,-174.0094898833995
-0.3367000000000001,-173.44360536345349
-0.3377,-173.01919197349397
-0.3387000000000001,-172.87772084350746
-0.3397,-173.01919197349397
-0.3407000000000001,-173.01919197349397
-0.3417,-172.45330745354798
-0.3427000000000001,-172.0288940635885
-0.3437,-172.0288940635885
-0.3447000000000001,-172.17036519357498
-0.3457,-172.0288940635885
-0.3467000000000001,-171.60448067362896
-0.3477,-171.18006728366944
-0.3487000000000001,-171.18006728366944
-0.3497,-171.32153841365593
-0.3507000000000001,-171.18006728366944
-0.3517,-170.75565389370993
-0.3527000000000001,-170.33124050375042
-0.3537,-170.18976937376394
-0.3547000000000001,-170.33124050375042
-0.3557,-170.18976937376394
-0.35670000000000013,-169.6238848538179
-0.3577,-169.19947146385837
-0.35870000000000013,-168.91652920388537
-0.3597,-169.0580003338719
-0.36070000000000013,-168.91652920388537
-0.3617,-168.35064468393938
-0.3626999999999999,-167.92623129397984
-0.3637,-167.78476016399335
-0.3646999999999999,-167.92623129397984
-0.3657,-167.92623129397984
-0.3666999999999999,-167.50181790402033
-0.3677,-167.07740451406085
-0.3686999999999999,-166.93593338407433
-0.36970000000000003,-167.21887564404733
-0.3706999999999999,-167.07740451406085
-0.37170000000000003,-166.65299112410133
-0.3726999999999999,-166.22857773414182
-0.37370000000000003,-166.0871066041553
-0.3746999999999999,-166.22857773414182
-0.37570000000000003,-166.0871066041553
-0.3766999999999999,-165.8041643441823
-0.37770000000000004,-165.3797509542228
-0.3786999999999999,-165.2382798242363
-0.37970000000000004,-165.5212220842093
-0.3806999999999999,-165.3797509542228
-0.38170000000000004,-165.09680869424977
-0.38269999999999993,-164.81386643427678
-0.38370000000000004,-164.81386643427678
-0.38469999999999993,-165.09680869424977
-0.38570000000000004,-164.9553375642633
-0.38669999999999993,-162.97474174445222
-0.38570000000000004,-158.1647233249111
-0.38469999999999993,-153.920589425316
-0.38370000000000004,-150.24234004566688
-0.38269999999999993,-146.5640906660178
-0.38170000000000004,-142.7443701563822
-0.3806999999999999,-138.8397669687547
-0.37970000000000004,-135.51519541407185
-0.3786999999999999,-132.64333147534586
-0.37770000000000004,-129.5451137286414
-0.3766999999999999,-126.19224794796128
-0.37570000000000003,-122.86767639327843
-0.3746999999999999,-119.95337111555646
-0.37370000000000003,-117.46347922779398
-0.3726999999999999,-114.67649796705987
-0.37170000000000003,-111.6207215593514
-0.3706999999999999,-108.64982782963483
-0.36970000000000003,-106.07505326388046
-0.3686999999999999,-103.85395652309235
-0.3677,-101.44894731332178
-0.3666999999999999,-98.7044073915836
-0.3657,-96.0871914868333
-0.3646999999999999,-93.82365340704924
-0.3637,-91.89964603923279
-0.3626999999999999,-89.76343197643658
-0.3617,-87.27354008867411
-0.36070000000000013,-84.84023665290624
-0.3597,-82.87378794609386
-0.35870000000000013,-81.09125170826391
-0.3577,-79.16724434044745
-0.35670000000000013,-76.9037062606634
-0.3557,-74.62602106788069
-0.3547000000000001,-72.84348483005074
-0.3537,-71.2307139482046
-0.3527000000000001,-69.4906190493706
-0.3517,-67.39684632557035
-0.3507000000000001,-65.3030736017701
-0.3497,-63.633714267929356
-0.3487000000000001,-62.28973853305756
-0.3477,-60.67696765121143
-0.3467000000000001,-58.75296028339497
-0.3457,-56.82895291557852
-0.3447000000000001,-55.25862337272834
-0.3437,-54.0419716548444
-0.3427000000000001,-52.55652478998611
-0.3417,-50.73154721316022
-0.3407000000000001,-48.93486386233162
-0.3397,-47.506005449467935
-0.3387000000000001,-46.37423640957591
-0.3377,-45.01611356170547
-0.3367000000000001,-43.27601866287147
-0.3357,-41.606659329030734
-0.3347000000000001,-40.30512493315489
-0.3337,-39.30067991025072
-0.3327000000000001,-38.04158685337084
-0.3317,-36.4288159715247
-0.3307000000000001,-34.85848642867451
-0.3297,-33.670128936787876
-0.3287000000000001,-32.70812525287965
-0.3277,-31.57635621298762
-0.3267000000000001,-30.04846800913338
-0.3257,-28.577168257273744
-0.3247000000000001,-27.487840556377662
-0.3237,-26.61071955046134
-0.3227000000000001,-25.563833188561212
-0.3217,-24.16326900169483
-0.3207000000000001,-22.72026347583249
-0.3197,-21.772406904922917
-0.3187000000000001,-20.980168576998494
-0.3177,-19.97572355409432
-0.3167000000000001,-18.631747819222536
-0.3157,-17.316066310348052
-0.3147000000000001,-16.396503965435777
-0.3137,-15.70329542850191
-0.3127000000000001,-14.783733083589633
-0.3117,-13.47936926511407
-0.3107000000000001,-12.214617363034726
-0.3097,-11.343155202317865
-0.3087000000000001,-10.688143870480351
-0.3077,-9.85912304875944
-0.3067000000000001,-8.638227196975913
-0.30569999999999997,-7.4173313451923875
-0.3047000000000001,-6.588310523471475
-0.30369999999999997,-6.021011292225596
-0.3027000000000001,-5.235846520800501
-0.30169999999999997,-4.0588067193127895
-0.3007000000000001,-2.924208256821031
-0.29969999999999997,-2.1828995356917518
-0.2987000000000001,-1.7033124050375041
-0.29769999999999996,-0.9181476336124089
-0.2967000000000001,0.17231183632356148
-0.29569999999999996,1.2626298351295453
-0.2947000000000001,1.9607898616129409
-0.29369999999999996,2.396520941971372
-0.29270000000000007,3.0939736128048354
-0.29169999999999996,4.184716025000778
-0.29070000000000007,5.231602386900906
-0.28969999999999996,5.8427576684426015
-0.28870000000000007,6.278488748801033
-0.28769999999999996,6.933500080638546
-0.28670000000000007,7.936530392242855
-0.28569999999999995,8.939560703847167
-0.28470000000000006,9.549301274088998
-0.28369999999999995,9.898734965155663
-0.28270000000000006,10.509890246697358
-0.28169999999999995,11.469064508005852
-0.28070000000000006,12.428238769314348
-0.27969999999999995,12.995538000560227
-0.27870000000000006,13.344971691626892
-0.27769999999999995,13.868414872576954
-0.27670000000000006,14.783733083589633
-0.27569999999999995,15.70329542850191
-0.27470000000000006,16.22673860945197
-0.27369999999999994,16.52382798242363
-0.27270000000000005,17.047271163373694
-0.27169999999999994,17.966833508285966
-0.27070000000000005,18.843954514202288
-0.26969999999999994,19.3249563561564
-0.26870000000000005,19.537163051136158
-0.26769999999999994,20.06060623208622
