Potential V vs RHE, Current mA cm-2
0.013299999999999867,9.287579683613965
0.012299999999999978,6.933500080638546
0.011299999999999866,4.752015256246658
0.010299999999999976,2.6143864821505876
0.009299999999999864,0.6084673300719523
0.008299999999999974,-1.3543031273607997
0.007299999999999862,-3.317497998183511
0.006299999999999972,-5.191990470504685
0.00529999999999986,-7.111753704421539
0.0042999999999999705,-9.11781432763016
0.0032999999999998586,-11.037577561547016
0.0022999999999999687,-12.955926084164007
0.0012999999999998568,-14.868615761581536
0.00029999999999996696,-16.665299112410132
-0.000700000000000145,-18.44783535024008
-0.0017000000000000348,-20.10304757108217
-0.0027000000000001467,-21.67337711393236
-0.0037000000000000366,-23.24370665678255
-0.0047000000000001485,-24.686712182644893
-0.005700000000000038,-26.129717708507226
-0.00670000000000015,-27.530281895373616
-0.00770000000000004,-28.959140308237306
-0.008700000000000152,-30.402145834099635
-0.009700000000000042,-31.887592698957924
-0.010700000000000154,-33.45792224180811
-0.011700000000000044,-35.02825178465831
-0.012700000000000156,-36.5136986495166
-0.013700000000000045,-38.08402819236679
-0.014700000000000157,-39.51288660523048
-0.015700000000000047,-40.91345079209687
-0.01670000000000016,-42.229132300971344
-0.01770000000000005,-43.48822535785123
-0.01870000000000016,-44.74731841473111
-0.01970000000000005,-45.93567590661774
-0.020700000000000163,-47.02500360751382
-0.021700000000000053,-48.156772647405845
-0.022700000000000164,-49.373424365289786
-0.023700000000000054,-50.50519340518181
-0.024700000000000166,-51.82087491405629
-0.025700000000000056,-53.079967970936174
-0.026700000000000168,-54.39564947981066
-0.027700000000000058,-55.65474253669055
-0.02870000000000017,-57.05530672355693
-0.02970000000000006,-58.27195844144086
-0.03070000000000017,-59.44616882032884
-0.03170000000000006,-60.59208497321952
-0.03270000000000017,-61.63897133511965
-0.03370000000000006,-62.68585769701977
-0.034700000000000175,-63.6761556069253
-0.035700000000000065,-64.59571795183757
-0.03670000000000018,-65.64260431373769
-0.03770000000000007,-66.64704933664189
-0.03870000000000018,-67.73637703753796
-0.03970000000000007,-68.82570473843404
-0.04070000000000018,-70.05650356931662
-0.04170000000000007,-71.18827260920865
-0.04270000000000018,-72.40492432709259
-0.04370000000000007,-73.6781644969711
-0.044700000000000184,-74.76749219786718
-0.045700000000000074,-75.8992612377592
-0.046700000000000186,-76.9037062606634
-0.047700000000000076,-77.90815128356756
-0.04870000000000019,-78.91259630647174
-0.04970000000000008,-79.81801153838538
-0.05070000000000019,-80.65269120530574
-0.05170000000000008,-81.65713622820991
-0.05270000000000019,-82.61913991211814
-0.05370000000000008,-83.60943782202366
-0.05470000000000019,-84.61388284492786
-0.05570000000000008,-85.75979899781852
-0.056700000000000195,-86.89156803771054
-0.057700000000000085,-88.02333707760259
-0.058700000000000196,-89.23998879548651
-0.059700000000000086,-90.37175783537855
-0.0607000000000002,-91.46108553627462
-0.06170000000000009,-92.42308922018285
-0.0627000000000002,-93.42753424308701
-0.06370000000000009,-94.38953792699526
-0.0647000000000002,-95.26665893291157
-0.06570000000000009,-96.0871914868333
-0.0667000000000002,-97.09163650973747
-0.0677000000000001,-98.05364019364569
-0.0687000000000002,-98.97320253855796
-0.0697000000000001,-100.02008890045809
-0.07070000000000021,-101.15185794035013
-0.0717000000000001,-102.24118564124619
-0.07270000000000021,-103.37295468113824
-0.0737000000000001,-104.5471650600262
-0.07470000000000021,-105.63649276092228
-0.0757000000000001,-106.73996757481702
-0.07670000000000021,-107.73026548472255
-0.0777000000000001,-108.69226916863077
-0.07870000000000021,-109.654272852539
-0.0797000000000001,-110.57383519745127
-0.08070000000000022,-111.4509562033676
-0.0817000000000001,-112.44125411327312
-0.08270000000000022,-113.36081645818538
-0.08370000000000011,-114.3228201420936
-0.08470000000000022,-115.36970650399375
-0.08570000000000011,-116.45903420488982
-0.08670000000000022,-117.59080324478184
-0.08770000000000011,-118.76501362366983
-0.08870000000000022,-119.99581245455242
-0.08970000000000011,-121.0851401554485
-0.09070000000000022,-122.17446785634456
-0.09170000000000011,-123.2213542182447
-0.09270000000000023,-124.18335790215292
-0.09370000000000012,-125.14536158606113
-0.09470000000000023,-126.05077681797478
-0.09570000000000012,-126.9278978238911
-0.09670000000000023,-127.84746016880335
-0.09770000000000012,-128.8094638527116
-0.09870000000000023,-129.79976176261712
-0.09970000000000012,-130.84664812451723
-0.10070000000000023,-131.99256427740792
-0.10170000000000012,-133.12433331729994
-0.10270000000000024,-134.256102357192
-0.10370000000000013,-135.47275407507593
-0.10470000000000024,-136.562081775972
-0.10570000000000013,-137.75043926785864
-0.10670000000000024,-138.7548842907628
-0.10770000000000013,-139.74518220066832
-0.10870000000000024,-140.70718588457655
-0.10970000000000013,-141.75407224647665
-0.11070000000000024,-142.6028990263957
-0.11170000000000013,-143.5931969363012
-0.11270000000000002,-144.44202371622026
-0.11370000000000013,-145.57379275611228
-0.11470000000000002,-146.5640906660178
-0.11570000000000014,-147.6958597059098
-0.11670000000000003,-148.82762874580186
-0.11770000000000014,-149.95939778569388
-0.11870000000000003,-151.23263795557244
-0.11970000000000014,-152.36440699546444
-0.12070000000000003,-153.49617603535648
-0.12170000000000014,-154.486473945262
-0.12270000000000003,-155.47677185516753
-0.12370000000000014,-156.60854089505958
-0.12470000000000003,-157.45736767497857
-0.12570000000000014,-158.3061944548976
-0.12670000000000003,-159.29649236480313
-0.12770000000000015,-160.42826140469515
-0.12870000000000004,-161.41855931460069
-0.12970000000000015,-162.5503283544927
-0.13070000000000004,-163.68209739438475
-0.13170000000000015,-164.81386643427678
-0.13270000000000004,-165.94563547416882
-0.13370000000000015,-167.21887564404733
-0.13470000000000004,-168.35064468393938
-0.13570000000000015,-169.48241372383137
-0.13670000000000004,-170.61418276372342
-0.13770000000000016,-171.74595180361547
-0.13870000000000005,-172.73624971352098
-0.13970000000000016,-173.58507649344
-0.14070000000000005,-174.43390327335902
-0.14170000000000016,-175.56567231325104
-0.14270000000000005,-176.4144990931701
-0.14370000000000016,-177.54626813306209
-0.14470000000000005,-178.67803717295413
-0.14570000000000016,-179.80980621284618
-0.14670000000000005,-180.94157525273818
-0.14770000000000016,-182.07334429263022
-0.14870000000000005,-183.34658446250873
-0.14970000000000017,-184.47835350240078
-0.15070000000000006,-185.6101225422928
-0.15170000000000017,-186.60042045219836
-0.15270000000000006,-187.59071836210387
-0.15370000000000017,-188.58101627200938
-0.15470000000000006,-189.57131418191491
-0.15570000000000017,-190.56161209182042
-0.15670000000000006,-191.551910001726
-0.15770000000000017,-192.54220791163152
-0.15870000000000006,-193.532505821537
-0.15970000000000018,-194.66427486142905
-0.16070000000000007,-195.79604390132107
-0.16170000000000018,-196.92781294121312
-0.16270000000000007,-198.20105311109162
-0.16370000000000018,-199.47429328097016
-0.16470000000000007,-200.6060623208622
-0.16570000000000018,-201.73783136075423
-0.16670000000000007,-202.7281292706598
-0.16770000000000018,-203.71842718056527
-0.16870000000000007,-204.7087250904708
-0.16970000000000018,-205.69902300037634
-0.17070000000000007,-206.54784978029537
-0.17170000000000019,-207.3966765602144
-0.17270000000000008,-208.3869744701199
-0.1737000000000002,-209.37727238002543
-0.17470000000000008,-210.36757028993094
-0.1757000000000002,-211.499339329823
-0.17670000000000008,-212.48963723972852
-0.1777000000000002,-213.62140627962054
-0.17870000000000008,-214.75317531951256
-0.1797000000000002,-215.7434732294181
-0.18070000000000008,-216.73377113932364
-0.1817000000000002,-217.72406904922914
-0.18270000000000008,-218.57289582914817
-0.1837000000000002,-219.42172260906716
-0.1847000000000001,-220.41202051897272
-0.1857000000000002,-221.11937616890526
-0.1867000000000001,-222.10967407881074
-0.1877000000000002,-222.9585008587298
-0.1887000000000001,-223.9487987686353
-0.1897000000000002,-224.93909667854084
-0.1907000000000001,-226.07086571843288
-0.1917000000000001,-227.06116362833836
-0.19269999999999998,-228.1929326682304
-0.1937000000000001,-229.46617283810895
-0.19469999999999998,-230.59794187800094
-0.1957000000000001,-231.729710917893
-0.19669999999999999,-232.72000882779852
-0.1977000000000001,-233.56883560771757
-0.1987,-234.55913351762308
-0.1997000000000001,-235.40796029754208
-0.2007,-236.25678707746113
-0.2017000000000001,-237.10561385738015
-0.2027,-237.9544406372992
-0.2037000000000001,-238.94473854720468
-0.2047,-239.93503645711021
-0.2057000000000001,-241.06680549700224
-0.2067,-242.19857453689428
-0.2077000000000001,-243.3303435767863
-0.2087,-244.46211261667833
-0.2097000000000001,-245.59388165657037
-0.2107,-246.7256506964624
-0.2117000000000001,-247.57447747638145
-0.2127,-248.56477538628693
-0.2137000000000001,-249.41360216620598
-0.2147,-250.262428946125
-0.2157000000000001,-251.25272685603056
-0.2167,-252.10155363594956
-0.21770000000000012,-253.09185154585506
-0.2187,-253.94067832577412
-0.21970000000000012,-254.93097623567962
-0.2207,-256.0627452755717
-0.22170000000000012,-257.1945143154637
-0.2227,-258.18481222536917
-0.22370000000000012,-259.3165812652612
-0.2247,-260.4483503051532
-0.22570000000000012,-261.4386482150588
-0.2267,-262.42894612496434
-0.22770000000000012,-263.27777290488336
-0.22870000000000001,-264.2680708147888
-0.22970000000000013,-265.11689759470784
-0.23070000000000002,-265.9657243746269
-0.23170000000000013,-266.8145511545459
-0.23270000000000002,-267.80484906445145
-0.23370000000000013,-268.79514697435695
-0.23470000000000002,-269.78544488426246
-0.23570000000000013,-270.775742794168
-0.23670000000000002,-271.9075118340601
-0.2376999999999999,-273.03928087395207
-0.23870000000000002,-274.1710499138441
-0.2396999999999999,-275.1613478237496
-0.24070000000000003,-276.29311686364167
-0.24169999999999991,-277.2834147735472
-0.24270000000000003,-278.1322415534662
-0.24369999999999992,-279.1225394633717
-0.24470000000000003,-279.97136624329073
-0.24569999999999992,-280.82019302320975
-0.24670000000000003,-281.66901980312883
-0.24769999999999992,-282.51784658304786
-0.24870000000000003,-283.3666733629668
-0.24969999999999992,-284.35697127287233
-0.25070000000000003,-285.4887403127644
-0.2516999999999999,-286.47903822266994
-0.25270000000000004,-287.46933613257545
-0.2536999999999999,-288.6011051724675
-0.25470000000000004,-289.73287421235955
-0.2556999999999999,-290.723172122265
-0.25670000000000004,-291.571998902184
-0.25769999999999993,-292.56229681208964
-0.25870000000000004,-293.4111235920086
-0.25969999999999993,-294.2599503719276
-0.26070000000000004,-294.96730602186017
-0.26169999999999993,-295.8161328017792
-0.26270000000000004,-296.52348845171167
-0.26369999999999993,-297.3723152316307
-0.26470000000000005,-298.3626131415362
-0.26569999999999994,-299.49438218142825
-0.26670000000000005,-300.48468009133376
-0.26769999999999994,-301.6164491312258
-0.26870000000000005,-302.6067470411313
-0.26969999999999994,-303.5970449510368
-0.27070000000000005,-304.72881399092887
-0.27169999999999994,-305.57764077084795
-0.27270000000000005,-306.4264675507669
-0.27369999999999994,-307.27529433068594
-0.27470000000000006,-308.2655922405915
-0.27569999999999995,-309.1144190205105
-0.27670000000000006,-309.9632458004295
-0.27769999999999995,-310.81207258034857
-0.27870000000000006,-311.6608993602676
-0.27969999999999995,-312.65119727017316
-0.28070000000000006,-313.78296631006515
-0.28169999999999995,-314.77326421997066
-0.28270000000000006,-315.76356212987616
-0.28369999999999995,-317.03680229975475
-0.28470000000000006,-318.02710020966026
-0.28569999999999995,-319.15886924955225
-0.28670000000000007,-320.1491671594578
-0.28769999999999996,-320.9979939393768
-0.28870000000000007,-321.98829184928235
-0.28969999999999996,-322.83711862920137
-0.29070000000000007,-323.8274165391069
-0.29169999999999996,-324.67624331902596
-0.29270000000000007,-325.5250700989449
-0.29369999999999996,-326.373896878864
-0.2947000000000001,-327.3641947887695
-0.29569999999999996,-328.3544926986751
-0.2967000000000001,-329.20331947859404
-0.29769999999999996,-330.19361738849955
-0.2987000000000001,-331.3253864283916
-0.29969999999999997,-332.3156843382971
-0.3007000000000001,-333.30598224820267
-0.30169999999999997,-334.1548090281217
-0.3027000000000001,-335.00363580804066
-0.30369999999999997,-335.8524625879597
-0.3047000000000001,-336.5598182378922
-0.30569999999999997,-337.26717388782475
-0.3067000000000001,-338.1160006677438
-0.3077,-338.8233563176763
-0.3087000000000001,-339.6721830975953
-0.3097,-340.5210098775143
-0.3107000000000001,-341.51130778741987
-0.3117,-342.3601345673389
-0.3127000000000001,-343.3504324772444
-0.3137,-344.34073038714996
-0.3147000000000001,-345.33102829705547
-0.3157,-346.1798550769745
-0.3167000000000001,-347.17015298688
-0.3177,-347.87750863681254
-0.3187000000000001,-348.72633541673156
-0.3197,-349.43369106666404
-0.3207000000000001,-349.9995755866101
-0.3217,-350.7069312365426
-0.3227000000000001,-351.5557580164616
-0.3237,-352.26311366639413
-0.3247000000000001,-352.9704693163266
-0.3257,-353.8192960962457
-0.3267000000000001,-354.66812287616466
-0.3277,-355.51694965608374
-0.3287000000000001,-356.36577643600276
-0.3297,-357.2146032159218
-0.3307000000000001,-358.0634299958408
-0.3317,-358.7707856457733
-0.3327000000000001,-359.3366701657193
-0.3337,-360.0440258156518
-0.3347000000000001,-360.6099103355978
-0.3357,-361.17579485554387
-0.3367000000000001,-361.74167937548987
-0.3377,-362.4490350254224
-0.3387000000000001,-363.1563906753549
-0.3397,-363.8637463252875
-0.3407000000000001,-364.57110197521996
-0.3417,-365.56139988512547
-0.3427000000000001,-366.4102266650445
-0.3437,-367.117582314977
-0.3447000000000001,-367.96640909489605
-0.3457,-368.8152358748151
-0.3467000000000001,-369.3811203947611
-0.3477,-370.0884760446936
-0.3487000000000001,-370.6543605646396
-0.3497,-371.2202450845856
-0.3507000000000001,-371.78612960453165
-0.3517,-372.35201412447765
-0.3527000000000001,-372.9178986444237
-0.3537,-373.6252542943562
-0.3547000000000001,-374.3326099442887
-0.3557,-375.0399655942212
-0.35670000000000013,-375.8887923741402
-0.3577,-376.59614802407276
-0.35870000000000013,-377.4449748039917
-0.3597,-378.1523304539243
-0.36070000000000013,-379.00115723384334
-0.3617,-379.7085128837758
-0.3626999999999999,-380.2743974037219
-0.3637,-380.8402819236679
-0.3646999999999999,-381.4061664436139
-0.3657,-381.8305798335734
-0.3666999999999999,-382.3964643535194
-0.3677,-382.96234887346543
-0.3686999999999999,-383.5282333934114
-0.36970000000000003,-384.23558904334396
-0.3706999999999999,-384.9429446932765
-0.37170000000000003,-385.5088292132225
-0.3726999999999999,-386.3576559931415
-0.37370000000000003,-387.065011643074
-0.3746999999999999,-387.7723672930066
-0.37570000000000003,-388.479722942939
-0.3766999999999999,-389.0456074628851
-0.37770000000000004,-389.61149198283107
-0.3786999999999999,-390.03590537279064
-0.37970000000000004,-390.60178989273663
-0.3806999999999999,-390.88473215270966
-0.38170000000000004,-391.4506166726556
-0.38269999999999993,-391.87503006261517
-0.38370000000000004,-392.4409145825612
-0.38469999999999993,-393.00679910250716
-0.38570000000000004,-393.5726836224532
-0.38669999999999993,-392.4409145825612
-0.38570000000000004,-387.913838422993
-0.38469999999999993,-383.81117565338445
-0.38370000000000004,-379.56704175378934
-0.38269999999999993,-375.4643789841807
-0.38170000000000004,-371.3617162145721
-0.3806999999999999,-367.2590534449635
-0.37970000000000004,-363.1563906753549
-0.3786999999999999,-358.91225677575983
-0.37770000000000004,-354.8095940061512
-0.3766999999999999,-350.7069312365426
-0.37570000000000003,-346.7457395969205
-0.3746999999999999,-342.7845479572984
-0.37370000000000003,-338.96482744766274
-0.3726999999999999,-335.2865780680136
-0.37170000000000003,-331.4668575583781
-0.3706999999999999,-327.9300793087155
-0.36970000000000003,-324.25182992906645
-0.3686999999999999,-320.71505167940376
-0.3677,-317.03680229975475
-0.3666999999999999,-313.5000240500921
-0.3657,-309.821774670443
-0.3646999999999999,-306.28499642078043
-0.3637,-302.6067470411313
-0.3626999999999999,-298.9284976614822
-0.3617,-295.3917194118196
-0.36070000000000013,-291.71347003217056
-0.3597,-288.176691782508
-0.35870000000000013,-284.9228557928184
-0.3577,-281.52754867314235
-0.35670000000000013,-278.1322415534662
-0.3557,-274.87840556377665
-0.3547000000000001,-271.7660407040736
-0.3537,-268.512204714384
-0.3527000000000001,-265.2583687246944
-0.3517,-261.8630616050183
-0.3507000000000001,-258.60922561532874
-0.3497,-255.21391849565262
-0.3487000000000001,-251.96008250596302
-0.3477,-248.42330425630044
-0.3467000000000001,-245.16946826661086
-0.3457,-241.9156322769213
-0.3447000000000001,-238.8032674172182
-0.3437,-235.69090255751513
-0.3427000000000001,-232.72000882779852
-0.3417,-229.60764396809546
-0.3407000000000001,-226.77822136836537
-0.3397,-223.80732763864881
-0.3387000000000001,-220.83643390893224
-0.3377,-218.00701130920217
-0.3367000000000001,-214.89464644949908
-0.3357,-211.9237527197825
-0.3347000000000001,-208.8113878600794
-0.3337,-205.69902300037634
-0.3327000000000001,-202.58665814067325
-0.3317,-199.61576441095667
-0.3307000000000001,-196.7863418112266
-0.3297,-193.81544808151003
-0.3287000000000001,-190.98602548177996
-0.3277,-188.29807401203638
-0.3267000000000001,-185.6101225422928
-0.3257,-182.92217107254925
-0.3247000000000001,-180.37569073279218
-0.3237,-177.6877392630486
-0.3227000000000001,-174.99978779330505
-0.3217,-172.31183632356147
-0.3207000000000001,-169.6238848538179
-0.3197,-166.79446225408785
-0.3187000000000001,-164.10651078434424
-0.3177,-161.2770881846142
-0.3167000000000001,-158.5891367148706
-0.3157,-155.90118524512707
-0.3147000000000001,-153.21323377538346
-0.3137,-150.66675343562642
-0.3127000000000001,-148.26174422585584
-0.3117,-145.7152638860988
-0.3107000000000001,-143.3102546763282
-0.3097,-141.01842237054686
-0.3087000000000001,-138.61341316077628
-0.3077,-136.2225510640044
-0.3067000000000001,-133.73265917624192
-0.30569999999999997,-131.2003259494835
-0.3047000000000001,-128.71043406172103
-0.30369999999999997,-126.19224794796128
-0.3027000000000001,-123.6174733822069
-0.30169999999999997,-121.17002283344038
-0.3007000000000001,-118.72257228467387
-0.29969999999999997,-116.33171018790196
-0.2987000000000001,-113.96914231712736
-0.29769999999999996,-111.74804557633925
-0.2967000000000001,-109.52694883555114
-0.29569999999999996,-107.30585209476303
-0.2947000000000001,-105.25452070995874
-0.29369999999999996,-103.07586530816658
-0.29270000000000007,-100.88306279337576
-0.29169999999999996,-98.6195247135917
-0.29070000000000007,-96.35598663380765
-0.28969999999999996,-94.03586010202899
-0.28870000000000007,-91.72988068324898
-0.28769999999999996,-89.42390126446898
-0.28670000000000007,-87.14621607168625
-0.28569999999999995,-84.92511933089816
-0.28470000000000006,-82.70402259011003
-0.28369999999999995,-80.65269120530574
-0.28270000000000006,-78.55891848150549
-0.28169999999999995,-76.5924697746931
-0.28070000000000006,-74.58357972888473
-0.27969999999999995,-72.75860215205884
-0.27870000000000006,-70.74971210625048
-0.27769999999999995,-68.82570473843404
-0.27670000000000006,-66.68949067563783
-0.27569999999999995,-64.68060062982947
-0.27470000000000006,-62.58682790602922
-0.27369999999999994,-60.54964363422357
-0.27270000000000005,-58.39928245842871
-0.27169999999999994,-56.36209818662306
-0.27070000000000005,-54.31076680181876
-0.26969999999999994,-52.34431809500636
-0.26870000000000005,-50.42031072718991
-0.26769999999999994,-48.59533315036401
