Potential V vs RHE, Current mA cm-2
0.4132999999999999,0.006110138104117094
0.4122999999999999,0.004269598702992681
0.4112999999999999,0.003741911388143022
0.4102999999999999,0.0034023806761754134
0.4092999999999999,0.0031632944664982217
0.4082999999999999,0.0029892849766148225
0.4072999999999999,0.0027954695285333122
0.4062999999999999,0.0026129717708507226
0.4052999999999999,0.002393691519371642
0.4042999999999999,0.002204120205189727
0.4032999999999999,0.002110749259398635
0.4022999999999999,0.0019494721712140207
0.4012999999999999,0.0018051716186277867
0.4002999999999999,0.0016085267479465466
0.3992999999999999,0.0014500790823616626
0.3982999999999999,0.001354161656230813
0.3972999999999999,0.0012606492393097341
0.3962999999999999,0.0011014942180749175
0.3952999999999999,0.0009591742613084948
0.3942999999999999,0.0008293037639808845
0.39329999999999987,0.0007581437855976731
0.39229999999999987,0.0006353468447693881
0.39129999999999987,0.0005139646152409679
0.39029999999999987,0.00036740052457495003
0.38929999999999987,0.00024460358374666486
0.38829999999999987,0.0001706141827637234
0.38729999999999987,8.820724954658503e-05
0.38629999999999987,-2.762931168636417e-05
0.38529999999999986,-0.00019508868825138858
0.38429999999999986,-0.00028025430850326375
0.38329999999999986,-0.0003584878433858003
0.38229999999999986,-0.0004128127573006177
0.38129999999999986,-0.0005189161047904955
0.38029999999999986,-0.000672412280825852
0.37929999999999986,-0.0007506458157083885
0.37829999999999986,-0.0008232205053914648
0.37729999999999986,-0.0008860336871054724
0.37629999999999986,-0.0009823755266262816
0.37529999999999986,-0.0011344569913617729
0.37429999999999986,-0.001221037322913513
0.37329999999999985,-0.001275503707958317
0.37229999999999985,-0.0013466636863415282
0.37129999999999985,-0.0014430055258623374
0.37029999999999985,-0.0015986237688474915
0.36929999999999985,-0.001700482982437774
0.36829999999999985,-0.0017188742293360194
0.36729999999999985,-0.0017980980621284616
0.36629999999999985,-0.001888639585319824
0.36529999999999985,-0.0020060606232086223
0.36429999999999985,-0.0021036757028993097
0.36329999999999985,-0.00213196992889661
0.36229999999999984,-0.002198461359990267
0.36129999999999984,-0.0022904175944814943
0.36029999999999984,-0.002419156322769213
0.35929999999999984,-0.002501209578161385
0.35829999999999984,-0.002530918515458551
0.35729999999999984,-0.0025747745657543667
0.35629999999999984,-0.00268512204714384
0.35529999999999984,-0.002805372507632368
0.35429999999999984,-0.002877522783925485
0.35329999999999984,-0.002922793545521166
0.35229999999999984,-0.0029807967088156325
0.35129999999999983,-0.00308407063370578
0.35029999999999983,-0.0031986622489948474
0.34929999999999983,-0.0032594948348890446
0.34829999999999983,-0.003318912709483376
0.34729999999999983,-0.003400965964875548
0.34629999999999983,-0.0034872633541673153
0.34529999999999983,-0.0036075138146558433
0.34429999999999983,-0.00365136986495166
0.3432999999999998,-0.00369381120394761
0.3422999999999998,-0.0037603026350412675
0.3412999999999998,-0.003833867622634249
0.3402999999999998,-0.003954118083122777
0.3392999999999998,-0.004003632978618054
0.3382999999999998,-0.0040446596063141394
0.3372999999999998,-0.004109736326107932
0.3362999999999998,-0.004187545447600509
0.3352999999999998,-0.004313454753288497
0.3342999999999998,-0.004378531473082289
0.3332999999999998,-0.004399752142580264
0.3322999999999998,-0.004454925883275
0.3312999999999998,-0.004525661448268253
0.3302999999999998,-0.00464025306355732
0.3292999999999998,-0.004718062185049898
0.3282999999999998,-0.004727965164148953
0.3272999999999998,-0.0048029448630417994
0.3262999999999998,-0.004879339273234511
0.3252999999999999,-0.004971295507725739
0.3242999999999999,-0.0050476899179184515
0.3232999999999999,-0.005061837030917102
0.3222999999999999,-0.005131157884610488
0.3212999999999999,-0.005216040562602391
0.3202999999999999,-0.005322143910092268
0.3192999999999999,-0.0053942941863853846
0.3182999999999999,-0.005397123608985115
0.3172999999999999,-0.005439564947981066
0.3162999999999999,-0.005540009450271483
0.3152999999999999,-0.005648942220361092
0.3142999999999999,-0.005705530672355693
0.3132999999999999,-0.0057239219192539385
0.3122999999999999,-0.005770607392149484
0.3112999999999999,-0.0058653930492404424
0.3102999999999999,-0.00596866697413059
0.3092999999999999,-0.006039402539123841
0.3082999999999999,-0.006063452631221548
0.3072999999999999,-0.006079014455520062
0.3062999999999999,-0.00615965299961237
0.3052999999999999,-0.006251609234103597
0.3042999999999999,-0.006301124129598874
0.3032999999999999,-0.00634498017989469
0.3022999999999999,-0.0063959097866898304
0.3012999999999999,-0.006458157083883892
0.3002999999999999,-0.006564260431373771
0.2992999999999999,-0.006618019460768641
0.2982999999999999,-0.006622263594668237
0.2972999999999999,-0.006678852046662838
0.2962999999999999,-0.00675807587945528
0.2952999999999999,-0.006874082206044212
0.2942999999999999,-0.006917938256340029
0.2932999999999999,-0.0069448177710374655
0.2922999999999999,-0.006988673821333281
0.2912999999999999,-0.007049506407227478
0.2902999999999999,-0.0071499509095178946
0.2892999999999999,-0.007213612918011821
0.2882999999999999,-0.007212198206711956
0.2872999999999999,-0.007250395411808312
0.2862999999999999,-0.0073211309768015645
0.2852999999999999,-0.0074286490355913075
0.2842999999999999,-0.007500799311884425
0.2832999999999999,-0.007500799311884425
0.2822999999999999,-0.007553143629979431
0.2812999999999999,-0.007643685153170794
0.2802999999999999,-0.00772149427466337
0.2792999999999999,-0.007786570994457162
0.2782999999999999,-0.007789400417056893
0.2772999999999999,-0.007838915312552168
0.2762999999999999,-0.007902577321046095
0.2752999999999999,-0.007980386442538673
0.2742999999999999,-0.008038389605833139
0.2732999999999999,-0.008065269120530573
0.2722999999999999,-0.00810346632562693
0.2712999999999999,-0.008172787179320318
0.2702999999999999,-0.00827181697031087
0.2692999999999999,-0.008318502443206416
0.26829999999999987,-0.008334064267504932
0.26729999999999987,-0.008362358493502232
0.26629999999999987,-0.008450070594093865
0.26529999999999987,-0.00854202682858509
0.26429999999999987,-0.008578809322381583
0.26329999999999987,-0.008609932970978612
0.26229999999999987,-0.008641056619575645
0.26129999999999987,-0.008708962761969165
0.26029999999999986,-0.008834872067657155
0.25929999999999986,-0.008863166293654455
0.25829999999999986,-0.008871654561453645
0.25729999999999986,-0.008919754745649057
0.25629999999999986,-0.008980587331543255
0.25529999999999986,-0.009078202411233941
0.25429999999999986,-0.009119229038930027
0.25329999999999986,-0.009130546729328946
0.25229999999999986,-0.009197038160422603
0.25129999999999986,-0.009257870746316801
0.25029999999999986,-0.009346997558208298
0.24929999999999986,-0.009389438897204248
0.24829999999999985,-0.009386609474604518
0.24729999999999985,-0.009430465524900334
0.24629999999999985,-0.009505445223793181
0.24529999999999985,-0.009620036839082248
0.24429999999999985,-0.00968794298147577
0.24329999999999985,-0.009644086931179954
0.24229999999999985,-0.009706334228374016
0.24129999999999985,-0.009781313927266864
0.24029999999999985,-0.009852049492260116
0.23929999999999985,-0.009902979099055256
0.23829999999999985,-0.009910052655554582
0.23729999999999984,-0.009955323417150264
0.23629999999999984,-0.01001615600304446
0.23529999999999984,-0.010082647434138114
0.23429999999999984,-0.010146309442632043
0.23329999999999984,-0.010160456555630692
0.23229999999999984,-0.01019582433812732
0.23129999999999984,-0.010269389325720302
0.23029999999999984,-0.010340124890713552
0.22929999999999984,-0.010399542765307884
0.22829999999999984,-0.010389639786208828
0.22729999999999984,-0.010432081125204782
0.22629999999999983,-0.010514134380596953
0.22529999999999983,-0.010610334748987775
0.22429999999999983,-0.010642873108884671
0.22329999999999983,-0.010672582046181836
0.22229999999999983,-0.010688143870480352
0.22129999999999983,-0.01076878241457266
0.22029999999999983,-0.010886203452461458
0.21929999999999983,-0.010898935854160243
0.21829999999999983,-0.010918741812358352
0.21729999999999983,-0.010949865460955385
0.21629999999999983,-0.0110220157372485
0.21529999999999982,-0.011132363218637975
0.21429999999999982,-0.011163486867235005
0.21329999999999982,-0.01118470753673298
0.21229999999999982,-0.01121300176273028
0.21129999999999982,-0.011285152039023397
0.21029999999999982,-0.011378522984814489
0.20929999999999982,-0.011409646633411522
0.20829999999999982,-0.011429452591609632
0.20729999999999982,-0.011483211621004503
0.20629999999999982,-0.01154687362949843
0.20529999999999982,-0.011637415152689791
0.20429999999999982,-0.011674197646486282
0.20329999999999981,-0.011658635822187766
0.2022999999999998,-0.011709565428982908
0.2012999999999998,-0.011807180508673597
0.20029999999999992,-0.01186942780586766
0.19929999999999992,-0.011921772123962664
0.19829999999999992,-0.011917527990063069
0.19729999999999992,-0.01197411644205767
0.19629999999999992,-0.012057584408749707
0.19529999999999992,-0.012124075839843365
0.19429999999999992,-0.012231593898633108
0.19329999999999992,-0.012261302835930273
0.19229999999999992,-0.012237252743832566
0.19129999999999991,-0.012320720710524605
0.1902999999999999,-0.012419750501515156
0.1892999999999999,-0.012429653480614212
0.1882999999999999,-0.012459362417911377
0.1872999999999999,-0.012493315489108139
0.1862999999999999,-0.012579612878399905
0.1852999999999999,-0.012672983824190999
0.1842999999999999,-0.01270410747278803
0.1832999999999999,-0.01273240169878533
0.1822999999999999,-0.012753622368283304
0.1812999999999999,-0.012834260912375613
0.1802999999999999,-0.012936120125965896
0.1792999999999999,-0.012958755506763736
0.1782999999999999,-0.012981390887561577
0.1772999999999999,-0.013012514536158608
0.1762999999999999,-0.013081835389851994
0.1752999999999999,-0.013202085850340523
0.1742999999999999,-0.013220477097238767
0.1732999999999999,-0.013236038921537283
0.1722999999999999,-0.013284139105732696
0.1712999999999999,-0.013352045248126216
0.1702999999999999,-0.013448245616517038
0.1692999999999999,-0.013489272244213124
0.1682999999999999,-0.013486442821613395
0.1672999999999999,-0.013540201851008266
0.1662999999999999,-0.013623669817700303
0.1652999999999999,-0.01370996720699207
0.1642999999999999,-0.013766555658986672
0.1632999999999999,-0.013765140947686808
0.1622999999999999,-0.013808996997982624
0.1612999999999999,-0.013902367943773714
0.1602999999999999,-0.013985835910465752
0.1592999999999999,-0.014036765517260895
0.15829999999999989,-0.014028277249461702
0.15729999999999988,-0.014070718588457654
0.15629999999999988,-0.014161260111649017
0.15529999999999988,-0.01426028990263957
0.15429999999999988,-0.014288584128636872
0.15329999999999988,-0.014316878354634173
0.15229999999999988,-0.014345172580631472
0.15129999999999988,-0.014430055258623373
0.15029999999999988,-0.014514937936615275
0.14929999999999988,-0.014571526388609878
0.14829999999999988,-0.014585673501608528
0.14729999999999988,-0.014599820614607179
0.14629999999999987,-0.01469885040559773
0.14529999999999987,-0.014812027309586936
0.14429999999999987,-0.014826174422585584
0.14329999999999987,-0.014882762874580187
0.14229999999999987,-0.014939351326574786
0.14129999999999987,-0.014981792665570736
0.14029999999999987,-0.01509496956955994
0.13929999999999987,-0.015109116682558592
0.13829999999999987,-0.015137410908555892
0.13729999999999987,-0.015179852247551842
0.13629999999999987,-0.015250587812545097
0.13529999999999986,-0.015349617603535646
0.13429999999999986,-0.0153637647165343
0.13329999999999986,-0.015392058942531598
0.13229999999999986,-0.015448647394526203
0.13129999999999986,-0.015505235846520802
0.13029999999999986,-0.015604265637511355
0.12929999999999986,-0.015646706976507305
0.12829999999999986,-0.015646706976507305
0.12729999999999986,-0.015717442541500558
0.12629999999999986,-0.01578817810649381
0.12529999999999986,-0.01585891367148706
0.12429999999999986,-0.015901355010483013
0.12329999999999985,-0.01591550212348166
0.12229999999999985,-0.015957943462477614
0.12129999999999985,-0.016042826140469518
0.12029999999999985,-0.01611356170546277
0.11929999999999985,-0.01615600304445872
0.11829999999999985,-0.016170150157457368
0.11729999999999985,-0.016226738609451972
0.11629999999999985,-0.01629747417444522
0.11529999999999985,-0.016396503965435776
0.11429999999999985,-0.016424798191433075
0.11329999999999985,-0.016438945304431726
0.11229999999999984,-0.01648138664342768
0.11129999999999984,-0.01658041643441823
0.11029999999999984,-0.016679446225408782
0.10929999999999984,-0.01670774045140608
0.10829999999999984,-0.01673603467740338
0.10729999999999984,-0.016778476016399334
0.10629999999999984,-0.016863358694391237
0.10529999999999984,-0.016948241372383138
0.10429999999999984,-0.01697653559838044
0.10329999999999984,-0.017018976937376393
0.10229999999999984,-0.017047271163373692
0.10129999999999983,-0.017146300954364244
0.10029999999999983,-0.0172453307453548
0.09929999999999983,-0.017273624971352097
0.09829999999999983,-0.01728777208435075
0.09729999999999983,-0.0173302134233467
0.09629999999999983,-0.0174150961013386
0.09529999999999983,-0.0175282730053278
0.09429999999999983,-0.017542420118326456
0.09329999999999983,-0.017570714344323755
0.09229999999999983,-0.017627302796318356
0.09129999999999983,-0.01771218547431026
0.09029999999999982,-0.017797068152302163
0.08929999999999982,-0.017825362378299462
0.08829999999999982,-0.01785365660429676
0.08729999999999982,-0.017910245056291362
0.08629999999999982,-0.017995127734283266
0.08529999999999982,-0.018080010412275173
0.08429999999999982,-0.01812245175127112
0.08329999999999982,-0.01813659886426977
0.08229999999999982,-0.01817904020326572
0.08129999999999982,-0.018278069994256275
0.08029999999999982,-0.018362952672248176
0.07929999999999982,-0.018405394011244126
0.07829999999999981,-0.018447835350240076
0.07729999999999981,-0.01847612957623738
0.07629999999999981,-0.018575159367227933
0.07529999999999992,-0.018645894932221182
0.07429999999999992,-0.018702483384215783
0.07329999999999992,-0.018730777610213082
0.07229999999999992,-0.018773218949209036
0.07129999999999992,-0.01887224874019959
0.07029999999999992,-0.01897127853119014
0.06929999999999992,-0.018999572757187444
0.06829999999999992,-0.019042014096183394
0.06729999999999992,-0.019084455435179344
0.06629999999999991,-0.0191834852261699
0.06529999999999991,-0.0192966621301591
0.06429999999999991,-0.019310809243157753
0.06329999999999991,-0.019353250582153703
0.06229999999999991,-0.019395691921149656
0.06129999999999991,-0.019480574599141553
0.06029999999999991,-0.01959375150313076
0.05929999999999991,-0.019607898616129407
0.05829999999999991,-0.01965033995512536
0.05729999999999991,-0.01969278129412131
0.056299999999999906,-0.019791811085111865
0.055299999999999905,-0.019876693763103765
0.054299999999999904,-0.019919135102099715
0.0532999999999999,-0.019961576441095665
0.0522999999999999,-0.02003231200608892
0.0512999999999999,-0.02011719468408082
0.0502999999999999,-0.020216224475071376
0.0492999999999999,-0.020244518701068675
0.0482999999999999,-0.020258665814067326
0.0472999999999999,-0.020343548492059226
0.0462999999999999,-0.020442578283049778
0.045299999999999896,-0.02052746096104168
0.044299999999999895,-0.020569902300037635
0.043299999999999894,-0.020626490752032236
0.04229999999999989,-0.020668932091028186
0.04129999999999989,-0.02078210899501739
0.04029999999999989,-0.020909433012005242
0.03929999999999989,-0.020923580125003893
0.03829999999999989,-0.020980168576998495
0.03729999999999989,-0.021008462802995797
0.03629999999999989,-0.021121639706984996
0.03529999999999989,-0.02122066949797555
0.034299999999999886,-0.0212631108369715
0.033299999999999885,-0.021305552175967454
0.032299999999999884,-0.021347993514963404
0.031299999999999883,-0.021461170418952607
0.030299999999999883,-0.02153190598394586
0.02929999999999988,-0.02158849443594046
0.02829999999999988,-0.021645082887935062
0.02729999999999988,-0.021701671339929663
0.02629999999999988,-0.021828995356917517
0.025299999999999878,-0.021928025147908068
0.024299999999999877,-0.021956319373905367
0.023299999999999876,-0.02199876071290132
0.022299999999999875,-0.02208364339089322
0.021299999999999875,-0.022168526068885124
0.020299999999999874,-0.022281702972874327
0.019299999999999873,-0.02230999719887163
0.018299999999999872,-0.02235243853786758
0.01729999999999987,-0.02242317410286083
0.01629999999999987,-0.022522203893851383
0.01529999999999987,-0.02264952791083924
0.014299999999999868,-0.02270611636283384
0.013299999999999867,-0.02272026347583249
0.012299999999999978,-0.02279099904082574
0.011299999999999866,-0.022890028831816296
0.010299999999999976,-0.022989058622806844
0.009299999999999864,-0.023031499961802798
0.008299999999999974,-0.0230880884137974
0.007299999999999862,-0.023144676865792004
0.006299999999999972,-0.02324370665678255
0.00529999999999986,-0.023356883560771757
0.0042999999999999705,-0.023399324899767704
0.0032999999999998586,-0.02341347201276636
0.0022999999999999687,-0.02352664891675556
0.0012999999999998568,-0.023625678707746112
0.00029999999999996696,-0.023710561385738016
-0.000700000000000145,-0.023767149837732617
-0.0017000000000000348,-0.023809591176728567
-0.0027000000000001467,-0.02388032674172182
-0.0037000000000000366,-0.023993503645711022
-0.0047000000000001485,-0.024092533436701577
-0.005700000000000038,-0.024163269001694826
-0.00670000000000015,-0.024191563227692125
-0.00770000000000004,-0.02427644590568403
-0.008700000000000152,-0.024375475696674583
-0.009700000000000042,-0.024488652600663786
-0.010700000000000154,-0.02457353527865569
-0.011700000000000044,-0.024630123730650287
-0.012700000000000156,-0.024644270843648942
-0.013700000000000045,-0.024771594860636792
-0.014700000000000157,-0.024884771764625994
-0.015700000000000047,-0.024913065990623297
-0.01670000000000016,-0.024969654442617898
-0.01770000000000005,-0.025040390007611147
-0.01870000000000016,-0.025139419798601705
-0.01970000000000005,-0.025266743815589552
-0.020700000000000163,-0.025295038041586858
-0.021700000000000053,-0.02537992071957876
-0.022700000000000164,-0.02543650917157336
-0.023700000000000054,-0.02554968607556256
-0.024700000000000166,-0.025648715866553113
-0.025700000000000056,-0.025691157205549067
-0.026700000000000168,-0.025747745657543668
-0.027700000000000058,-0.025832628335535568
-0.02870000000000017,-0.02591751101352747
-0.02970000000000006,-0.026044835030515325
-0.03070000000000017,-0.026115570595508578
-0.03170000000000006,-0.026158011934504528
-0.03270000000000017,-0.02621460038649913
-0.03370000000000006,-0.026313630177489684
-0.034700000000000175,-0.026426807081478886
-0.035700000000000065,-0.02649754264647214
-0.03670000000000018,-0.026539983985468085
-0.03770000000000007,-0.02661071955046134
-0.03870000000000018,-0.02673804356744919
-0.03970000000000007,-0.026837073358439746
-0.04070000000000018,-0.026879514697435696
-0.04170000000000007,-0.026936103149430297
-0.04270000000000018,-0.026992691601424906
-0.04370000000000007,-0.027120015618412752
-0.044700000000000184,-0.02723319252240196
-0.045700000000000074,-0.02727563386139791
-0.046700000000000186,-0.027332222313392506
-0.047700000000000076,-0.027374663652388463
-0.04870000000000019,-0.02750198766937631
-0.04970000000000008,-0.027615164573365516
-0.05070000000000019,-0.027657605912361466
-0.05170000000000008,-0.027714194364356067
-0.05270000000000019,-0.027784929929349323
-0.05370000000000008,-0.027898106833338522
-0.05470000000000019,-0.028011283737327728
-0.05570000000000008,-0.028053725076323675
-0.056700000000000195,-0.028124460641316927
-0.057700000000000085,-0.02819519620631018
-0.058700000000000196,-0.028322520223298033
-0.059700000000000086,-0.028449844240285887
-0.0607000000000002,-0.028463991353284535
-0.06170000000000009,-0.028563021144275093
-0.0627000000000002,-0.02861960959626969
