Potential V vs RHE, Current mA cm-2
0.013299999999999867,21.899730921910766
0.012299999999999978,20.414284057052477
0.011299999999999866,18.97127853119014
0.010299999999999976,17.528273005327804
0.009299999999999864,16.141855931460068
0.008299999999999974,14.741291744593681
0.007299999999999862,13.344971691626892
0.006299999999999972,11.992507688955916
0.00529999999999986,10.683899736580756
0.0042999999999999705,9.375291784205599
0.0032999999999998586,8.154395932422071
0.0022999999999999687,6.975941419634496
0.0012999999999998568,5.798901618146785
0.00029999999999996696,4.708159205950842
-0.000700000000000145,3.5749754547589476
-0.0017000000000000348,2.4403769922671885
-0.0027000000000001467,1.2626298351295453
-0.0037000000000000366,0.08502414912188871
-0.0047000000000001485,-1.0925815368857679
-0.005700000000000038,-2.2706116362833835
-0.00670000000000015,-3.403795387475278
-0.00770000000000004,-4.450681749375406
-0.008700000000000152,-5.497568111275533
-0.009700000000000042,-6.54445447317566
-0.010700000000000154,-7.50504344578402
-0.011700000000000044,-8.55051509638428
-0.012700000000000156,-9.511104068992642
-0.013700000000000045,-10.557990430892769
-0.014700000000000157,-11.604876792792895
-0.015700000000000047,-12.651763154693022
-0.01670000000000016,-13.741090855589102
-0.01770000000000005,-14.741291744593681
-0.01870000000000016,-15.74573676749786
-0.01970000000000005,-16.70774045140608
-0.020700000000000163,-17.627302796318357
-0.021700000000000053,-18.53271802823198
-0.022700000000000164,-19.409839034148305
-0.023700000000000054,-20.329401379060574
-0.024700000000000166,-21.248963723972853
-0.025700000000000056,-22.15437895588647
-0.026700000000000168,-23.15882397879065
-0.027700000000000058,-24.16326900169483
-0.02870000000000017,-25.12527268560305
-0.02970000000000006,-26.044835030515326
-0.03070000000000017,-27.00683871442355
-0.03170000000000006,-27.869812607341224
-0.03270000000000017,-28.746933613257543
-0.03370000000000006,-29.581613280177915
-0.034700000000000175,-30.402145834099635
-0.035700000000000065,-31.23682550102001
-0.03670000000000018,-32.09979939393769
-0.03770000000000007,-33.01936173884996
-0.03870000000000018,-33.89648274476628
-0.03970000000000007,-34.8018979766799
-0.04070000000000018,-35.721460321592176
-0.04170000000000007,-36.5985813275085
-0.04270000000000018,-37.47570233342482
-0.04370000000000007,-38.253793548350586
-0.044700000000000184,-39.08847321527096
-0.045700000000000074,-39.82412309120078
-0.046700000000000186,-40.616361419125205
-0.047700000000000076,-41.43689397304693
-0.04870000000000019,-42.2715736399673
-0.04970000000000008,-43.134547532884966
-0.05070000000000019,-43.96922719980534
-0.05170000000000008,-44.88878954471762
-0.05270000000000019,-45.75176343763528
-0.05370000000000008,-46.628884443551605
-0.05470000000000019,-47.40697565847737
-0.05570000000000008,-48.1992139864018
-0.056700000000000195,-48.93486386233162
-0.057700000000000085,-49.68466085126009
-0.058700000000000196,-50.46275206618586
-0.059700000000000086,-51.21254905511432
-0.0607000000000002,-52.033081609036046
-0.06170000000000009,-52.86776127595642
-0.0627000000000002,-53.74488228187274
-0.06370000000000009,-54.60785617479041
-0.0647000000000002,-55.442535841710786
-0.06570000000000009,-56.22062705663656
-0.0667000000000002,-57.012865384560975
-0.0677000000000001,-57.7485152604908
-0.0687000000000002,-58.498312249419264
-0.0697000000000001,-59.19152078635314
-0.07070000000000021,-59.9696120012789
-0.0717000000000001,-60.71940899020737
-0.07270000000000021,-61.53994154412909
-0.0737000000000001,-62.33217987205352
-0.07470000000000021,-63.20930087796983
-0.0757000000000001,-64.02983343189156
-0.07670000000000021,-64.82207175981598
-0.0777000000000001,-65.60016297474175
-0.07870000000000021,-66.34995996367022
-0.0797000000000001,-67.08560983960004
-0.08070000000000022,-67.82125971552985
-0.0817000000000001,-68.57105670445833
-0.08270000000000022,-69.26426524139221
-0.08370000000000011,-70.05650356931662
-0.08470000000000022,-70.87703612323833
-0.08570000000000011,-71.7117157901587
-0.08670000000000022,-72.53224834408043
-0.08770000000000011,-73.32448667200485
-0.08870000000000022,-74.14501922592657
-0.08970000000000011,-74.93725755385098
-0.09070000000000022,-75.6729074297808
-0.09170000000000011,-76.38026307971333
-0.09270000000000023,-77.0734716166472
-0.09370000000000012,-77.80912149257702
-0.09470000000000023,-78.55891848150549
-0.09570000000000012,-79.37945103542721
-0.09670000000000023,-80.17168936335163
-0.09770000000000012,-81.04881036926795
-0.09870000000000023,-81.82690158419373
-0.09970000000000012,-82.6615812511141
-0.10070000000000023,-83.48211380503581
-0.10170000000000012,-84.23191079396429
-0.10270000000000024,-84.96756066989411
-0.10370000000000013,-85.66076920682796
-0.10470000000000024,-86.41056619575643
-0.10570000000000013,-87.14621607168625
-0.10670000000000024,-87.93845439961068
-0.10770000000000013,-88.7589869535324
-0.10870000000000024,-89.59366662045278
-0.10970000000000013,-90.41419917437449
-0.11070000000000024,-91.29132018029082
-0.11170000000000013,-92.12599984721119
-0.11270000000000002,-92.90409106213696
-0.11370000000000013,-93.69632939006138
-0.11470000000000002,-94.4319792659912
-0.11570000000000014,-95.12518780292505
-0.11670000000000003,-95.87498479185354
-0.11770000000000014,-96.65307600677932
-0.11870000000000003,-97.40287299570777
-0.11970000000000014,-98.2234055496295
-0.12070000000000003,-99.05808521654988
-0.12170000000000014,-99.93520622246619
-0.12270000000000003,-100.75573877638791
-0.12370000000000014,-101.59041844330828
-0.12470000000000003,-102.3260683192381
-0.12570000000000014,-103.07586530816658
-0.12670000000000003,-103.85395652309235
-0.12770000000000015,-104.50472372103027
-0.12870000000000004,-105.29696204895468
-0.12970000000000015,-106.07505326388046
-0.13070000000000004,-106.86729159180487
-0.13170000000000015,-107.73026548472255
-0.13270000000000004,-108.60738649063886
-0.13370000000000015,-109.44206615755924
-0.13470000000000004,-110.3050400504769
-0.13570000000000015,-111.13971971739728
-0.13670000000000004,-111.91781093232305
-0.13770000000000016,-112.71004926024747
-0.13870000000000005,-113.44569913617728
-0.13970000000000016,-114.19549612510575
-0.14070000000000005,-114.93114600103557
-0.14170000000000016,-115.72338432896
-0.14270000000000005,-116.54391688288172
-0.14370000000000016,-117.29371387181018
-0.14470000000000005,-118.11424642573192
-0.14570000000000016,-118.90648475365633
-0.14670000000000005,-119.68457596858211
-0.14770000000000016,-120.43437295751058
-0.14870000000000005,-121.17002283344038
-0.14970000000000017,-121.96226116136481
-0.15070000000000006,-122.69791103729463
-0.15170000000000017,-123.4760022522204
-0.15270000000000006,-124.31068191914078
-0.15370000000000017,-125.14536158606113
-0.15470000000000006,-125.96589413998288
-0.15570000000000017,-126.84301514589919
-0.15670000000000006,-127.72013615181551
-0.15770000000000017,-128.62555138372915
-0.15870000000000006,-129.50267238964545
-0.15970000000000018,-130.32320494356716
-0.16070000000000007,-131.1154432714916
-0.16170000000000018,-131.8510931474214
-0.16270000000000007,-132.60089013634988
-0.16370000000000018,-133.37898135127566
-0.16470000000000007,-134.17121967920008
-0.16570000000000018,-134.9917522331218
-0.16670000000000007,-135.82643190004217
-0.16770000000000018,-136.66111156696255
-0.16870000000000007,-137.52408545988024
-0.16970000000000018,-138.3163237878046
-0.17070000000000007,-139.13685634172634
-0.17170000000000019,-139.9290946696508
-0.17270000000000008,-140.70718588457655
-0.1737000000000002,-141.456982873505
-0.17470000000000008,-142.17848563643616
-0.1757000000000002,-142.8858412863687
-0.17670000000000008,-143.73466806628772
-0.1777000000000002,-144.58349484620675
-0.17870000000000008,-145.43232162612577
-0.1797000000000002,-146.28114840604482
-0.18070000000000008,-147.1299751859638
-0.1817000000000002,-147.97880196588284
-0.18270000000000008,-148.82762874580186
-0.1837000000000002,-149.53498439573437
-0.1847000000000001,-150.38381117565342
-0.1857000000000002,-151.09116682558593
-0.1867000000000001,-151.7985224755184
-0.1877000000000002,-152.64734925543743
-0.1887000000000001,-153.35470490536997
-0.1897000000000002,-154.3450028152755
-0.1907000000000001,-155.05235846520802
-0.1917000000000001,-156.04265637511355
-0.19269999999999998,-156.89148315503257
-0.1937000000000001,-157.7403099349516
-0.19469999999999998,-158.5891367148706
-0.1957000000000001,-159.43796349478964
-0.19669999999999999,-160.14531914472215
-0.1977000000000001,-160.99414592464117
-0.1987,-161.70150157457368
-0.1997000000000001,-162.5503283544927
-0.2007,-163.39915513441173
-0.2017000000000001,-164.24798191433075
-0.2027,-165.09680869424977
-0.2037000000000001,-166.0871066041553
-0.2047,-166.93593338407433
-0.2057000000000001,-167.78476016399335
-0.2067,-168.63358694391238
-0.2077000000000001,-169.3409425938449
-0.2087,-170.0482982437774
-0.2097000000000001,-170.75565389370993
-0.2107,-171.60448067362896
-0.2117000000000001,-172.31183632356147
-0.2127,-173.16066310348046
-0.2137000000000001,-174.0094898833995
-0.2147,-174.85831666331853
-0.2157000000000001,-175.84861457322407
-0.2167,-176.8389124831296
-0.21770000000000012,-177.6877392630486
-0.2187,-178.3950949129811
-0.21970000000000012,-179.24392169290016
-0.2207,-179.95127734283267
-0.22170000000000012,-180.8001041227517
-0.2227,-181.64893090267074
-0.22370000000000012,-182.49775768258974
-0.2247,-183.34658446250873
-0.22570000000000012,-184.19541124242778
-0.2267,-185.0442380223468
-0.22770000000000012,-186.03453593225234
-0.22870000000000001,-186.88336271217133
-0.22970000000000013,-187.59071836210387
-0.23070000000000002,-188.29807401203638
-0.23170000000000013,-189.1469007919554
-0.23270000000000002,-189.8542564418879
-0.23370000000000013,-190.56161209182042
-0.23470000000000002,-191.41043887173947
-0.23570000000000013,-192.2592656516585
-0.23670000000000002,-193.249563561564
-0.2376999999999999,-194.09839034148303
-0.23870000000000002,-194.94721712140205
-0.2396999999999999,-195.93751503130758
-0.24070000000000003,-196.7863418112266
-0.24169999999999991,-197.63516859114563
-0.24270000000000003,-198.3425242410781
-0.24369999999999992,-199.19135102099716
-0.24470000000000003,-199.89870667092967
-0.24569999999999992,-200.7475334508487
-0.24670000000000003,-201.59636023076774
-0.24769999999999992,-202.44518701068677
-0.24870000000000003,-203.29401379060576
-0.24969999999999992,-204.2843117005113
-0.25070000000000003,-205.13313848043032
-0.2516999999999999,-205.98196526034934
-0.25270000000000004,-206.83079204026836
-0.2536999999999999,-207.67961882018741
-0.25470000000000004,-208.52844560010638
-0.2556999999999999,-209.37727238002543
-0.25670000000000004,-210.08462802995794
-0.25769999999999993,-210.93345480987696
-0.25870000000000004,-211.782281589796
-0.25969999999999993,-212.77257949970152
-0.26070000000000004,-213.62140627962054
-0.26169999999999993,-214.47023305953954
-0.26270000000000004,-215.4605309694451
-0.26369999999999993,-216.3093577493641
-0.26470000000000005,-217.15818452928315
-0.26569999999999994,-218.00701130920217
-0.26670000000000005,-218.99730921910768
-0.26769999999999994,-219.8461359990267
-0.26870000000000005,-220.6949627789457
-0.26969999999999994,-221.54378955886475
-0.27070000000000005,-222.3926163387838
-0.27169999999999994,-223.2414431187028
-0.27270000000000005,-224.2317410286083
-0.27369999999999994,-225.08056780852735
-0.27470000000000006,-225.92939458844637
-0.27569999999999995,-226.91969249835188
-0.27670000000000006,-227.7685192782709
-0.27769999999999995,-228.61734605818995
-0.27870000000000006,-229.46617283810895
-0.27969999999999995,-230.31499961802797
-0.28070000000000006,-231.163826397947
-0.28169999999999995,-232.01265317786604
-0.28270000000000006,-232.86147995778504
-0.28369999999999995,-233.85177786769057
-0.28470000000000006,-234.84207577759608
-0.28569999999999995,-235.69090255751513
-0.28670000000000007,-236.53972933743412
-0.28769999999999996,-237.38855611735315
-0.28870000000000007,-238.2373828972722
-0.28969999999999996,-239.0862096771912
-0.29070000000000007,-239.7935653271237
-0.29169999999999996,-240.64239210704275
-0.29270000000000007,-241.49121888696175
-0.29369999999999996,-242.19857453689428
-0.2947000000000001,-243.04740131681334
-0.29569999999999996,-243.8962280967323
-0.2967000000000001,-244.74505487665132
-0.29769999999999996,-245.59388165657037
-0.2987000000000001,-246.4427084364894
-0.29969999999999997,-247.2915352164084
-0.3007000000000001,-248.28183312631393
-0.30169999999999997,-249.13065990623298
-0.3027000000000001,-249.979486686152
-0.30369999999999997,-250.828313466071
-0.3047000000000001,-251.81861137597656
-0.30569999999999997,-252.66743815589555
-0.3067000000000001,-253.65773606580112
-0.3077,-254.78950510569314
-0.3087000000000001,-255.77980301559862
-0.3097,-256.91157205549064
-0.3107000000000001,-257.76039883540966
-0.3117,-258.7506967453152
-0.3127000000000001,-259.59952352523425
-0.3137,-260.58982143513975
-0.3147000000000001,-261.2971770850723
-0.3157,-262.2874749949778
-0.3167000000000001,-262.9948306449103
-0.3177,-263.98512855481584
-0.3187000000000001,-264.83395533473487
-0.3197,-265.82425324464043
-0.3207000000000001,-266.8145511545459
-0.3217,-267.6633779344649
-0.3227000000000001,-268.512204714384
-0.3237,-269.361031494303
-0.3247000000000001,-270.20985827422203
-0.3257,-271.05868505414105
-0.3267000000000001,-271.7660407040736
-0.3277,-272.61486748399255
-0.3287000000000001,-273.4636942639116
-0.3297,-274.31252104383066
-0.3307000000000001,-275.1613478237496
-0.3317,-276.15164573365513
-0.3327000000000001,-276.8590013835877
-0.3337,-277.7078281635067
-0.3347000000000001,-278.5566549434257
-0.3357,-279.40548172334474
-0.3367000000000001,-280.25430850326376
-0.3377,-280.9616641531963
-0.3387000000000001,-281.9519620631018
-0.3397,-282.8007888430208
-0.3407000000000001,-283.79108675292633
-0.3417,-284.7813846628319
-0.3427000000000001,-285.6302114427509
-0.3437,-286.6205093526564
-0.3447000000000001,-287.610807262562
-0.3457,-288.45963404248096
-0.3467000000000001,-289.3084608224
-0.3477,-290.29875873230554
-0.3487000000000001,-291.0061143822381
-0.3497,-291.85494116215705
-0.3507000000000001,-292.8452390720626
-0.3517,-293.6940658519816
-0.3527000000000001,-294.54289263190066
-0.3537,-295.3917194118196
-0.3547000000000001,-296.3820173217252
-0.3557,-297.23084410164427
-0.35670000000000013,-298.07967088156323
-0.3577,-298.9284976614822
-0.35870000000000013,-299.6358533114148
-0.3597,-300.2017378313608
-0.36070000000000013,-300.9090934812933
-0.3617,-301.7579202612123
-0.3626999999999999,-302.4652759111449
-0.3637,-303.31410269106385
-0.3646999999999999,-304.3044006009694
-0.3657,-305.29469851087487
-0.3666999999999999,-306.28499642078043
-0.3677,-307.1338232006995
-0.3686999999999999,-308.124121110605
-0.36970000000000003,-309.1144190205105
-0.3706999999999999,-309.9632458004295
-0.37170000000000003,-310.81207258034857
-0.3726999999999999,-311.6608993602676
-0.37370000000000003,-312.50972614018656
-0.3746999999999999,-313.5000240500921
-0.37570000000000003,-314.34885083001114
-0.3766999999999999,-315.3391487399167
-0.37770000000000004,-316.47091777980876
-0.3786999999999999,-317.46121568971427
-0.37970000000000004,-318.4515135996198
-0.3806999999999999,-319.30034037953874
-0.38170000000000004,-320.2906382894443
-0.38269999999999993,-321.1394650693634
-0.38370000000000004,-321.98829184928235
-0.38469999999999993,-322.83711862920137
-0.38570000000000004,-323.5444742791339
-0.38669999999999993,-323.2615320191609
-0.38570000000000004,-320.8565228093903
-0.38469999999999993,-318.59298472960626
-0.38370000000000004,-316.47091777980876
-0.38269999999999993,-314.20737970002466
-0.38170000000000004,-312.2267838802136
-0.3806999999999999,-310.10471693041603
-0.37970000000000004,-307.98264998061853
-0.3786999999999999,-305.8605830308209
-0.37770000000000004,-303.73851608102336
-0.3766999999999999,-301.6164491312258
-0.37570000000000003,-299.49438218142825
-0.3746999999999999,-297.3723152316307
-0.37370000000000003,-295.3917194118196
-0.3726999999999999,-293.4111235920086
-0.37170000000000003,-291.4305277721976
-0.3706999999999999,-289.4499319523865
-0.36970000000000003,-287.46933613257545
-0.3686999999999999,-285.4887403127644
-0.3677,-283.5081444929533
-0.3666999999999999,-281.52754867314235
-0.3657,-279.5469528533313
-0.3646999999999999,-277.56635703352015
-0.3637,-275.58576121370913
-0.3626999999999999,-273.7466365238846
-0.3617,-271.9075118340601
-0.36070000000000013,-269.926916014249
-0.3597,-268.0877913244245
-0.35870000000000013,-266.2486666345999
-0.3577,-264.40954194477536
-0.35670000000000013,-262.42894612496434
-0.3557,-260.58982143513975
-0.3547000000000001,-258.60922561532874
-0.3537,-256.62862979551767
-0.3527000000000001,-254.78950510569314
-0.3517,-252.95038041586852
-0.3507000000000001,-251.111255726044
-0.3497,-249.41360216620598
-0.3487000000000001,-247.57447747638145
-0.3477,-245.73535278655686
-0.3467000000000001,-244.03769922671884
-0.3457,-242.19857453689428
-0.3447000000000001,-240.35944984706975
-0.3437,-238.5203251572452
-0.3427000000000001,-236.6812004674206
-0.3417,-234.84207577759608
-0.3407000000000001,-233.1444222177581
-0.3397,-231.3052975279335
-0.3387000000000001,-229.60764396809546
-0.3377,-227.9099904082574
-0.3367000000000001,-226.21233684841937
-0.3357,-224.5146832885813
-0.3347000000000001,-222.81702972874328
-0.3337,-221.11937616890526
-0.3327000000000001,-219.28025147908068
-0.3317,-217.44112678925615
-0.3307000000000001,-215.7434732294181
-0.3297,-213.90434853959354
-0.3287000000000001,-212.2066949797555
-0.3277,-210.50904141991748
-0.3267000000000001,-208.8113878600794
-0.3257,-207.1137343002414
-0.3247000000000001,-205.55755187038983
-0.3237,-203.85989831055176
-0.3227000000000001,-202.16224475071377
-0.3217,-200.4645911908757
-0.3207000000000001,-198.76693763103765
-0.3197,-197.0692840711996
-0.3187000000000001,-195.23015938137505
-0.3177,-193.532505821537
-0.3167000000000001,-191.83485226169896
-0.3157,-190.27866983184742
-0.3147000000000001,-188.58101627200938
-0.3137,-187.02483384215788
-0.3127000000000001,-185.3271802823198
-0.3117,-183.77099785246824
-0.3107000000000001,-182.07334429263022
-0.3097,-180.5171618627787
-0.3087000000000001,-178.81950830294062
-0.3077,-177.1218547431026
-0.3067000000000001,-175.56567231325104
-0.30569999999999997,-173.86801875341303
-0.3047000000000001,-172.31183632356147
-0.30369999999999997,-170.75565389370993
-0.3027000000000001,-169.19947146385837
-0.30169999999999997,-167.78476016399335
-0.3007000000000001,-166.22857773414182
-0.29969999999999997,-164.67239530429026
-0.2987000000000001,-162.97474174445222
-0.29769999999999996,-161.41855931460069
-0.2967000000000001,-159.86237688474912
-0.29569999999999996,-158.1647233249111
-0.2947000000000001,-156.60854089505958
-0.29369999999999996,-155.05235846520802
-0.29270000000000007,-153.49617603535648
-0.29169999999999996,-151.93999360550492
-0.29070000000000007,-150.38381117565342
-0.28969999999999996,-148.96909987578834
-0.28870000000000007,-147.4129174459368
-0.28769999999999996,-145.85673501608528
-0.28670000000000007,-144.30055258623375
-0.28569999999999995,-142.7443701563822
-0.28470000000000006,-141.18818772653066
-0.28369999999999995,-139.61785818368048
-0.28270000000000006,-138.08996997982624
-0.28169999999999995,-136.51964043697603
-0.28070000000000006,-135.03419357211774
-0.27969999999999995,-133.5628938202581
-0.27870000000000006,-132.11988829439576
-0.27769999999999995,-130.67688276853346
-0.27670000000000006,-129.19143590367514
-0.27569999999999995,-127.76257749081147
-0.27470000000000006,-126.23468928695722
-0.27369999999999994,-124.74924242209892
-0.27270000000000005,-123.17891287924873
-0.27169999999999994,-121.69346601439047
-0.27070000000000005,-120.16557781053622
-0.26969999999999994,-118.72257228467387
-0.26870000000000005,-117.33615521080614
-0.26769999999999994,-115.93559102393975
