Potential V vs RHE, Current mA cm-2
0.013299999999999867,29.850408427152274
0.012299999999999978,28.435697127287238
0.011299999999999866,27.134162731411404
0.010299999999999976,26.058982143513976
0.009299999999999864,24.842330425630045
0.008299999999999974,23.823738289727217
0.007299999999999862,22.790999040825742
0.006299999999999972,21.71581845292831
0.00529999999999986,20.85284456001064
0.0042999999999999705,19.820105311109163
0.0032999999999998586,18.97127853119014
0.0022999999999999687,18.09415752527382
0.0012999999999998568,17.146300954364243
0.00029999999999996696,16.424798191433077
-0.000700000000000145,15.505235846520803
-0.0017000000000000348,14.755438857592333
-0.0027000000000001467,13.977347642666562
-0.0037000000000000366,13.137009130546732
-0.0047000000000001485,12.48765664390868
-0.005700000000000038,11.660050533487633
-0.00670000000000015,10.98523324345201
-0.00770000000000004,10.282121727419087
-0.008700000000000152,9.508274646392913
-0.009700000000000042,8.912681189149732
-0.010700000000000154,8.124686995124907
-0.011700000000000044,7.51919055878267
-0.012700000000000156,6.875496917344078
-0.013700000000000045,6.158238288312504
-0.014700000000000157,5.6192332830639256
-0.015700000000000047,4.911877633131407
-0.01670000000000016,4.353066669684718
-0.01770000000000005,3.747570233342482
-0.01870000000000016,3.07841178850632
-0.01970000000000005,2.590336390052882
-0.020700000000000163,1.9155191000172598
-0.021700000000000053,1.4014130136463054
-0.022700000000000164,0.8281719949409925
-0.023700000000000054,0.20173783136075424
-0.024700000000000166,-0.2547895051056931
-0.025700000000000056,-0.909800836943205
-0.026700000000000168,-1.3908026788973176
-0.027700000000000058,-1.92683679041618
-0.02870000000000017,-2.5238449589592253
-0.02970000000000006,-2.9482583489187366
-0.03070000000000017,-3.5679018982596227
-0.03170000000000006,-4.01636538031684
-0.03270000000000017,-4.521417314368658
-0.03370000000000006,-5.097204813413727
-0.034700000000000175,-5.496153399975667
-0.035700000000000065,-6.087502723319252
-0.03670000000000018,-6.523233803677684
-0.03770000000000007,-6.999991511732201
-0.03870000000000018,-7.555973052579161
-0.03970000000000007,-7.935115680942991
-0.04070000000000018,-8.51656202518752
-0.04170000000000007,-8.932487147347842
-0.04270000000000018,-9.39792716500344
-0.04370000000000007,-9.936932170252017
-0.044700000000000184,-10.299098263017466
-0.045700000000000074,-10.863568071663616
-0.046700000000000186,-11.266760792125151
-0.047700000000000076,-11.73220080978075
-0.04870000000000019,-12.249985145531353
-0.04970000000000008,-12.599418836598016
-0.05070000000000019,-13.153985666145111
-0.05170000000000008,-13.548690118807457
-0.05270000000000019,-13.991494755665215
-0.05370000000000008,-14.500790823616628
-0.05470000000000019,-14.854468648582884
-0.05570000000000008,-15.3920589425316
-0.056700000000000195,-15.78817810649381
-0.057700000000000085,-16.22673860945197
-0.058700000000000196,-16.721887564404735
-0.059700000000000086,-17.061418276372343
-0.0607000000000002,-17.599008570321057
-0.06170000000000009,-17.980980621284615
-0.0627000000000002,-18.433688237241427
-0.06370000000000009,-18.91469007919554
-0.0647000000000002,-19.22592656516585
-0.06570000000000009,-19.749369746115914
-0.0667000000000002,-20.07475334508487
-0.0677000000000001,-20.48501962204573
-0.0687000000000002,-20.966021463999844
-0.0697000000000001,-21.30555217596745
-0.07070000000000021,-21.857289582914817
-0.0717000000000001,-22.225114520879725
-0.07270000000000021,-22.66367502383789
-0.0737000000000001,-23.1729710917893
-0.07470000000000021,-23.526648916755562
-0.0757000000000001,-24.064239210704276
-0.07670000000000021,-24.417917035670534
-0.0777000000000001,-24.856477538628695
-0.07870000000000021,-25.351626493581456
-0.0797000000000001,-25.662862979551768
-0.08070000000000022,-26.21460038649913
-0.0817000000000001,-26.58242532446404
-0.08270000000000022,-27.00683871442355
-0.08370000000000011,-27.501987669376312
-0.08470000000000022,-27.827371268345274
-0.08570000000000011,-28.350814449295335
-0.08670000000000022,-28.704492274261593
-0.08770000000000011,-29.128905664221104
-0.08870000000000022,-29.609907506175215
-0.08970000000000011,-29.935291105144174
-0.09070000000000022,-30.45873428609424
-0.09170000000000011,-30.82655922405915
-0.09270000000000023,-31.23682550102001
-0.09370000000000012,-31.731974455972775
-0.09470000000000023,-32.07150516794038
-0.09570000000000012,-32.6090954618891
-0.09670000000000023,-32.97692039985401
-0.09770000000000012,-33.40133378981351
-0.09870000000000023,-33.89648274476628
-0.09970000000000012,-34.25016056973254
-0.10070000000000023,-34.787750863681254
-0.10170000000000012,-35.183870027643465
-0.10270000000000024,-35.594136304604326
-0.10370000000000013,-36.04684392056114
-0.10470000000000024,-36.35808040653144
-0.10570000000000013,-36.89567070048016
-0.10670000000000024,-37.26349563844507
-0.10770000000000013,-37.702056141403226
-0.10870000000000024,-38.18305798335734
-0.10970000000000013,-38.480147356329
-0.11070000000000024,-39.03188476327636
-0.11170000000000013,-39.41385681423992
-0.11270000000000002,-39.85241731719808
-0.11370000000000013,-40.37586049814815
-0.11470000000000002,-40.729538323114404
-0.11570000000000014,-41.29542284306042
-0.11670000000000003,-41.649100668026676
-0.11770000000000014,-42.073514057986195
-0.11870000000000003,-42.582810125937606
-0.11970000000000014,-42.93648795090387
-0.12070000000000003,-43.48822535785123
-0.12170000000000014,-43.82775606981884
-0.12270000000000003,-44.266316572776994
-0.12370000000000014,-44.76146552772976
-0.12470000000000003,-45.12929046569467
-0.12570000000000014,-45.70932209863933
-0.12670000000000003,-46.077147036604245
-0.12770000000000015,-46.515707539562406
-0.12870000000000004,-47.053297833511124
-0.12970000000000015,-47.37868143248008
-0.13070000000000004,-47.91627172642879
-0.13170000000000015,-48.29824377739235
-0.13270000000000004,-48.75095139334916
-0.13370000000000015,-49.28854168729788
-0.13470000000000004,-49.642219512264134
-0.13570000000000015,-50.1656626932142
-0.13670000000000004,-50.50519340518181
-0.13770000000000016,-50.92960679514132
-0.13870000000000005,-51.410608637095436
-0.13970000000000016,-51.7642864620617
-0.14070000000000005,-52.33017098200771
-0.14170000000000016,-52.69799591997262
-0.14270000000000005,-53.136556422930774
-0.14370000000000016,-53.65999960388084
-0.14470000000000005,-54.0419716548444
-0.14570000000000016,-54.59370906179176
-0.14670000000000005,-54.975681112755325
-0.14770000000000016,-55.428388728712136
-0.14870000000000005,-55.93768479666355
-0.14970000000000017,-56.29136262162981
-0.15070000000000006,-56.857247141575826
-0.15170000000000017,-57.19677785354343
-0.15270000000000006,-57.7202210344935
-0.15370000000000017,-58.25781132844221
-0.15470000000000006,-58.68222471840172
-0.15570000000000017,-59.23396212534908
-0.15670000000000006,-59.6300812893113
-0.15770000000000017,-60.02620045327351
-0.15870000000000006,-60.43646673023436
-0.15970000000000018,-60.74770321620468
-0.16070000000000007,-61.29944062315204
-0.16170000000000018,-61.6814126741156
-0.16270000000000007,-62.14826740307106
-0.16370000000000018,-62.72829903601572
-0.16470000000000007,-63.12441819997794
-0.16570000000000018,-63.66200849392664
-0.16670000000000007,-64.08642188388616
-0.16770000000000018,-64.55327661284163
-0.16870000000000007,-65.0767197937917
-0.16970000000000018,-65.45869184475525
-0.17070000000000007,-66.02457636470128
-0.17170000000000019,-66.40654841566483
-0.17270000000000008,-66.85925603162164
-0.1737000000000002,-67.41099343856901
-0.17470000000000008,-67.7788183765339
-0.1757000000000002,-68.37299712247722
-0.17670000000000008,-68.76911628643943
-0.1777000000000002,-69.26426524139221
-0.17870000000000008,-69.8301497613382
-0.1797000000000002,-70.19797469930313
-0.18070000000000008,-70.76385921924914
-0.1817000000000002,-71.15997838321134
-0.18270000000000008,-71.6551273381641
-0.1837000000000002,-72.22101185811013
-0.1847000000000001,-72.58883679607503
-0.1857000000000002,-73.16886842901971
-0.1867000000000001,-73.5649875929819
-0.1877000000000002,-74.10257788693062
-0.1887000000000001,-74.66846240687663
-0.1897000000000002,-75.0504344578402
-0.1907000000000001,-75.6729074297808
-0.1917000000000001,-76.09732081974033
-0.19269999999999998,-76.5924697746931
-0.1937000000000001,-77.14420718164045
-0.19469999999999998,-77.58276768459861
-0.1957000000000001,-78.21938776953787
-0.19669999999999999,-78.67209538549469
-0.1977000000000001,-79.19553856644475
-0.1987,-79.7472759733921
-0.1997000000000001,-80.12924802435568
-0.2007,-80.72342677029899
-0.2017000000000001,-81.13369304725985
-0.2027,-81.74201890620182
-0.2037000000000001,-82.26546208715187
-0.2047,-82.67572836411274
-0.2057000000000001,-83.28405422305471
-0.2067,-83.75090895201016
-0.2077000000000001,-84.26020501996159
-0.2087,-84.8543837659049
-0.2097000000000001,-85.32123849486035
-0.2107,-85.94371146680098
-0.2117000000000001,-86.38227196975915
-0.2127,-86.86327381171324
-0.2137000000000001,-87.44330544465792
-0.2147,-87.89601306061473
-0.2157000000000001,-88.61751582354589
-0.2167,-89.08437055250135
-0.21770000000000012,-89.63610795944872
-0.2187,-90.3576107223799
-0.21970000000000012,-90.88105390332996
-0.2207,-91.53182110126787
-0.22170000000000012,-91.97038160422603
-0.2227,-92.47967767217744
-0.22370000000000012,-93.05970930512211
-0.2247,-93.51241692107894
-0.22570000000000012,-94.14903700601819
-0.2267,-94.58759750897636
-0.22770000000000012,-95.15348202892238
-0.22870000000000001,-95.71936654886838
-0.22970000000000013,-96.10133859983195
-0.23070000000000002,-96.75210579776986
-0.23170000000000013,-97.23310763972397
-0.23270000000000002,-97.78484504667132
-0.23370000000000013,-98.364876679616
-0.23470000000000002,-98.90246697356471
-0.23570000000000013,-99.73714664048508
-0.23670000000000002,-100.23229559543785
-0.2376999999999999,-100.81232722838251
-0.23870000000000002,-101.43480020032314
-0.2396999999999999,-101.95824338127319
-0.24070000000000003,-102.56656924021516
-0.24169999999999991,-103.00512974317333
-0.24270000000000003,-103.54272003712204
-0.24369999999999992,-104.2076343480586
-0.24470000000000003,-104.66034196401542
-0.24569999999999992,-105.18378514496547
-0.24670000000000003,-105.608198534925
-0.24769999999999992,-106.1457888288737
-0.24870000000000003,-106.64093778382647
-0.24969999999999992,-107.03705694778867
-0.25070000000000003,-107.70197125872524
-0.2516999999999999,-108.1688259876807
-0.25270000000000004,-108.72056339462807
-0.2536999999999999,-109.32888925357003
-0.25470000000000004,-109.76744975652821
-0.2556999999999999,-110.37577561547016
-0.25670000000000004,-110.82848323142699
-0.25769999999999993,-111.42266197737027
-0.25870000000000004,-112.04513494931089
-0.25969999999999993,-112.48369545226906
-0.26070000000000004,-113.17690398920294
-0.26169999999999993,-113.62961160515974
-0.26270000000000004,-114.19549612510575
-0.26369999999999993,-114.83211621004502
-0.26470000000000005,-115.28482382600184
-0.26569999999999994,-115.94973813693841
-0.26670000000000005,-116.38829863989656
-0.26769999999999994,-116.99662449883853
-0.26870000000000005,-117.6615388097751
-0.26969999999999994,-118.01521663474136
-0.27070000000000005,-118.60939538068469
-0.27169999999999994,-118.9772203186496
-0.27270000000000005,-119.44407504760505
-0.27369999999999994,-119.7977528725713
-0.27470000000000006,-120.17972492353488
-0.27569999999999995,-120.83049212147279
-0.27670000000000006,-121.31149396342688
-0.27769999999999995,-121.84908425737562
-0.27870000000000006,-122.38667455132433
-0.27969999999999995,-122.76864660228789
-0.28070000000000006,-123.3628253482312
-0.28169999999999995,-123.6457676082042
-0.28270000000000006,-124.15506367615562
-0.28369999999999995,-124.73509530910029
-0.28470000000000006,-125.21609715105438
-0.28569999999999995,-125.79612878399907
-0.28670000000000007,-126.121512382968
-0.28769999999999996,-126.5317786599289
-0.28870000000000007,-127.11181029287356
-0.28969999999999996,-127.4937823438371
-0.29070000000000007,-128.11625531577772
-0.29169999999999996,-128.39919757575075
-0.29270000000000007,-128.8094638527116
-0.29369999999999996,-129.33290703366166
-0.2947000000000001,-129.67243774562928
-0.29569999999999996,-130.18173381358068
-0.2967000000000001,-130.492970299551
-0.29769999999999996,-130.93153080250914
-0.2987000000000001,-131.38423841846597
-0.29969999999999997,-131.6530335654403
-0.3007000000000001,-132.10574118139715
-0.30169999999999997,-132.37453632837148
-0.3027000000000001,-132.81309683132966
-0.30369999999999997,-133.23751022128917
-0.3047000000000001,-133.47801114226624
-0.30569999999999997,-133.9165716452244
-0.3067000000000001,-134.28439658318928
-0.3077,-134.70880997314876
-0.3087000000000001,-135.09078202411234
-0.3097,-135.14737047610697
-0.3107000000000001,-135.40201851008266
-0.3117,-135.68496077005568
-0.3127000000000001,-136.20840395100572
-0.3137,-136.74599424495443
-0.3147000000000001,-137.11381918291934
-0.3157,-137.59482102487348
-0.3167000000000001,-137.87776328484648
-0.3177,-138.1889997708168
-0.3187000000000001,-138.54267759578303
-0.3197,-138.76903140376146
-0.3207000000000001,-139.2641803587142
-0.3217,-139.74518220066832
-0.3227000000000001,-140.0988600256346
-0.3237,-140.25447826861972
-0.3247000000000001,-140.2403311556211
-0.3257,-140.65059743258192
-0.3267000000000001,-140.79206856256846
-0.3277,-141.00427525754822
-0.3287000000000001,-141.25892329152393
-0.3297,-141.24477617852526
-0.3307000000000001,-141.47112998650366
-0.3317,-141.61260111649017
-0.3327000000000001,-141.75407224647665
-0.3337,-141.89554337646317
-0.3347000000000001,-141.89554337646317
-0.3357,-142.17848563643616
-0.3367000000000001,-142.17848563643616
-0.3377,-142.4614278964092
-0.3387000000000001,-142.7443701563822
-0.3397,-142.8858412863687
-0.3407000000000001,-143.16878354634173
-0.3417,-143.3102546763282
-0.3427000000000001,-143.5931969363012
-0.3437,-143.73466806628772
-0.3447000000000001,-143.87613919627424
-0.3457,-144.15908145624724
-0.3467000000000001,-144.01761032626072
-0.3477,-144.01761032626072
-0.3487000000000001,-144.15908145624724
-0.3497,-144.15908145624724
-0.3507000000000001,-144.30055258623375
-0.3517,-144.15908145624724
-0.3527000000000001,-144.30055258623375
-0.3537,-144.44202371622026
-0.3547000000000001,-144.44202371622026
-0.3557,-144.72496597619326
-0.35670000000000013,-144.86643710617977
-0.3577,-145.00790823616626
-0.35870000000000013,-145.00790823616626
-0.3597,-145.00790823616626
-0.36070000000000013,-145.29085049613926
-0.3617,-145.29085049613926
-0.3626999999999999,-145.43232162612577
-0.3637,-145.43232162612577
-0.3646999999999999,-145.43232162612577
-0.3657,-145.57379275611228
-0.3666999999999999,-145.57379275611228
-0.3677,-145.7152638860988
-0.3686999999999999,-145.7152638860988
-0.36970000000000003,-145.7152638860988
-0.3706999999999999,-145.9982061460718
-0.37170000000000003,-146.1396772760583
-0.3726999999999999,-146.1396772760583
-0.37370000000000003,-146.1396772760583
-0.3746999999999999,-146.1396772760583
-0.37570000000000003,-146.4226195360313
-0.3766999999999999,-146.4226195360313
-0.37770000000000004,-146.5640906660178
-0.3786999999999999,-146.5640906660178
-0.37970000000000004,-146.4226195360313
-0.3806999999999999,-146.5640906660178
-0.38170000000000004,-146.5640906660178
-0.38269999999999993,-146.5640906660178
-0.38370000000000004,-146.7055617960043
-0.38469999999999993,-146.5640906660178
-0.38570000000000004,-146.8470329259908
-0.38669999999999993,-145.43232162612577
-0.38570000000000004,-142.6028990263957
-0.38469999999999993,-139.98568312164537
-0.38370000000000004,-137.2977316519018
-0.38269999999999993,-134.89272244213123
-0.38170000000000004,-132.40283055436876
-0.3806999999999999,-130.09685113558876
-0.37970000000000004,-127.88990150779931
-0.3786999999999999,-125.58392208901931
-0.37770000000000004,-123.532590704215
-0.3766999999999999,-121.38222952842017
-0.37570000000000003,-119.51481061259831
-0.3746999999999999,-117.61909747077915
-0.37370000000000003,-115.63850165096811
-0.3726999999999999,-113.78522984814491
-0.37170000000000003,-111.77633980233655
-0.3706999999999999,-109.95136222551065
-0.36970000000000003,-108.15467887468205
-0.3686999999999999,-106.24481861986426
-0.3677,-104.63204773801812
-0.3666999999999999,-102.82121727419087
-0.3657,-101.15185794035013
-0.3646999999999999,-99.55323417150264
-0.3637,-97.77069793367268
-0.3626999999999999,-96.31354529481169
-0.3617,-94.71492152596421
-0.36070000000000013,-93.18703332210997
-0.3597,-91.68743934425302
-0.35870000000000013,-89.97563867141633
-0.3577,-88.61751582354589
-0.35670000000000013,-87.10377473269031
-0.3557,-85.67491631982661
-0.3547000000000001,-84.23191079396429
-0.3537,-82.60499279911949
-0.3527000000000001,-81.41663530723285
-0.3517,-80.03021823336512
-0.3507000000000001,-78.72868383748929
-0.3497,-77.42714944161345
-0.3487000000000001,-75.99829102874978
-0.3477,-74.80993353686314
-0.3467000000000001,-73.45181068899271
-0.3457,-72.20686474511147
-0.3447000000000001,-70.96191880123024
-0.3437,-69.64623729235576
-0.3427000000000001,-68.54276247846103
-0.3417,-67.19878674358924
-0.3407000000000001,-66.01042925170262
-0.3397,-64.90695443780788
-0.3387000000000001,-63.69030271992394
-0.3377,-62.65756347102247
-0.3367000000000001,-61.440911753138536
-0.3357,-60.35158405224246
-0.3347000000000001,-59.290550577343694
-0.3337,-58.116340198455696
-0.3327000000000001,-57.12604228855018
-0.3317,-55.93768479666355
-0.3307000000000001,-54.904945547762075
-0.3297,-53.84391207286329
-0.3287000000000001,-52.74043725896857
-0.3277,-51.8774633660509
-0.3267000000000001,-50.73154721316022
-0.3257,-49.76954352925199
-0.3247000000000001,-48.77924561934647
-0.3237,-47.73235925744634
-0.3227000000000001,-46.91182670352462
-0.3217,-45.83664611562718
-0.3207000000000001,-44.87464243171897
-0.3197,-43.94093297380804
-0.3187000000000001,-42.93648795090387
-0.3177,-42.10180828398349
-0.3167000000000001,-41.083216148080666
-0.3157,-40.20609514216434
-0.3147000000000001,-39.34312124924667
-0.3137,-38.3669704523398
-0.3127000000000001,-37.58887923741403
-0.3117,-36.5985813275085
-0.3107000000000001,-35.763901660588125
-0.3097,-34.95751621966506
-0.3087000000000001,-34.05210098775143
-0.3077,-33.316451111821614
-0.3067000000000001,-32.39688876690934
-0.30569999999999997,-31.64709177798087
-0.3047000000000001,-30.897294789052403
-0.30369999999999997,-29.977732444140123
-0.3027000000000001,-29.31281813320356
-0.30169999999999997,-28.421550014288584
-0.3007000000000001,-27.685900138358768
-0.29969999999999997,-27.00683871442355
-0.2987000000000001,-26.17215904750318
-0.29769999999999996,-25.521391849565262
-0.2967000000000001,-24.64427084364894
-0.29569999999999996,-23.92276808071777
-0.2947000000000001,-23.2012653177866
-0.29369999999999996,-22.352438537867577
-0.29270000000000007,-21.729965565926964
-0.29169999999999996,-20.89528589900659
-0.29070000000000007,-20.21622447507137
-0.28969999999999996,-19.537163051136158
-0.28870000000000007,-18.744924723211735
-0.28769999999999996,-18.15074597726842
-0.28670000000000007,-17.386801875341302
-0.28569999999999995,-16.764328903400685
-0.28470000000000006,-16.141855931460068
-0.28369999999999995,-15.3920589425316
-0.28270000000000006,-14.854468648582884
-0.28169999999999995,-14.121648195252797
-0.28070000000000006,-13.50766349111137
-0.27969999999999995,-12.899337632169406
-0.27870000000000006,-12.15944362233999
-0.27769999999999995,-11.637415152689792
-0.27670000000000006,-10.914497678458758
-0.27569999999999995,-10.338710179413688
-0.27470000000000006,-9.772825659467674
-0.27369999999999994,-9.065470009535154
-0.27270000000000005,-8.568906343282526
-0.27169999999999994,-7.88701549674758
-0.27070000000000005,-7.33952222369981
-0.26969999999999994,-6.796273084551637
-0.26870000000000005,-6.134188196214799
-0.26769999999999994,-5.680065868958122
-0.26670000000000005,-5.002419156322769
-0.26569999999999994,-4.483220109272302
