Potential V vs RHE, Current mA cm-2
0.05339999999999995,-0.05701286538456098
0.05239999999999995,-0.058653930492404416
0.051399999999999946,-0.059488610159324794
0.050399999999999945,-0.06011108313126542
0.049399999999999944,-0.06069111476421007
0.04839999999999994,-0.06122870505815879
0.04739999999999994,-0.0617380011261102
0.04639999999999994,-0.062247297194061614
0.04539999999999994,-0.06275659326201304
0.04439999999999994,-0.06326588932996444
0.04339999999999994,-0.06373274405891989
0.04239999999999994,-0.06424204012687132
0.04139999999999994,-0.06473718908182408
0.040399999999999936,-0.06518989669778089
0.039399999999999935,-0.0656991927657323
0.038399999999999934,-0.06616604749468777
0.03739999999999993,-0.06664704933664188
0.03639999999999993,-0.06714219829159464
0.03539999999999993,-0.0675807587945528
0.03439999999999993,-0.06807590774950557
0.03339999999999993,-0.06854276247846103
0.03239999999999993,-0.06900961720741648
0.03139999999999993,-0.06947647193637195
0.030399999999999927,-0.06992917955232876
0.029399999999999926,-0.07042432850728152
0.028399999999999925,-0.07090533034923564
0.027399999999999924,-0.07138633219118974
0.026399999999999924,-0.07189562825914117
0.025399999999999923,-0.07233418876209932
0.024399999999999922,-0.07281519060405345
0.02339999999999992,-0.07329619244600755
0.02239999999999992,-0.07377719428796166
0.02139999999999992,-0.07425819612991578
0.020399999999999918,-0.07472505085887124
0.019399999999999917,-0.07523434692682264
0.018399999999999916,-0.07571534876877677
0.017399999999999916,-0.07618220349773222
0.016399999999999915,-0.07666320533968635
0.015399999999999914,-0.07714420718164045
0.014399999999999913,-0.0776393561365932
0.013399999999999912,-0.07812035797854733
0.012399999999999911,-0.07864380115949739
0.01139999999999991,-0.0791248030014515
0.01039999999999991,-0.07960580484340561
0.009399999999999908,-0.08008680668535972
0.008399999999999908,-0.08056780852731382
0.007399999999999907,-0.08107710459526525
0.006399999999999906,-0.08158640066321667
0.005399999999999905,-0.08206740250517078
0.004399999999999904,-0.08256255146012353
0.003399999999999903,-0.08304355330207766
0.002399999999999902,-0.08349626091803447
0.0013999999999999013,-0.08394896853399128
0.00039999999999990044,-0.08441582326294673
-0.0006000000000001005,-0.08492511933089815
-0.0016000000000001013,-0.0854202682858509
-0.0026000000000001022,-0.08588712301480637
-0.003600000000000103,-0.08639641908275779
-0.004600000000000104,-0.0868491266987146
-0.005600000000000105,-0.08734427565366736
-0.006600000000000106,-0.08779698326962418
-0.007600000000000107,-0.08826383799857963
-0.008600000000000108,-0.0887589869535324
-0.009600000000000108,-0.08923998879548652
-0.01060000000000011,-0.08970684352444197
-0.01160000000000011,-0.09020199247939473
-0.012600000000000111,-0.09071128854734616
-0.013600000000000112,-0.09119229038930025
-0.014600000000000113,-0.09164499800525706
-0.015600000000000114,-0.09211185273421253
-0.016600000000000115,-0.09260700168916529
-0.017600000000000116,-0.09307385641812077
-0.018600000000000116,-0.09354071114707624
-0.019600000000000117,-0.09402171298903034
-0.020600000000000118,-0.0944885677179858
-0.02160000000000012,-0.09495542244694127
-0.02260000000000012,-0.09542227717589671
-0.02360000000000012,-0.09588913190485218
-0.024600000000000122,-0.09635598663380765
-0.025600000000000123,-0.09680869424976446
-0.026600000000000124,-0.09724725475272263
-0.027600000000000124,-0.09771410948167808
-0.028600000000000125,-0.09815266998463625
-0.029600000000000126,-0.0985912304875944
-0.030600000000000127,-0.09904393810355122
-0.03160000000000013,-0.09945420438051207
-0.03260000000000013,-0.0999069119964689
-0.03360000000000013,-0.10034547249942705
-0.03460000000000002,-0.10078403300238521
-0.03560000000000002,-0.10122259350534336
-0.03660000000000002,-0.10163285978230424
-0.03760000000000002,-0.1020714202852624
-0.03860000000000002,-0.10249583367522191
-0.039600000000000024,-0.10287780572618546
-0.040600000000000025,-0.10328807200314633
-0.041600000000000026,-0.10368419116710853
-0.04260000000000003,-0.1040944574440694
-0.04360000000000003,-0.10449057660803161
-0.04460000000000003,-0.10487254865899517
-0.04560000000000003,-0.10525452070995873
-0.04660000000000003,-0.1056364927609223
-0.04760000000000003,-0.10601846481188584
-0.04860000000000003,-0.10641458397584806
-0.04960000000000003,-0.10673996757481702
-0.050600000000000034,-0.10712193962578058
-0.051600000000000035,-0.10750391167674413
-0.052600000000000036,-0.1078575895017104
-0.053600000000000037,-0.10821126732667666
-0.05460000000000004,-0.10856494515164292
-0.05560000000000004,-0.10890447586361052
-0.05660000000000004,-0.10925815368857679
-0.05760000000000004,-0.1095976844005444
-0.05860000000000004,-0.10992306799951335
-0.05960000000000004,-0.1102484515984823
-0.06060000000000004,-0.11053139385845531
-0.061600000000000044,-0.11085677745742427
-0.06260000000000004,-0.11116801394339458
-0.06360000000000005,-0.1114792504293649
-0.06460000000000005,-0.1117621926893379
-0.06560000000000005,-0.11204513494931091
-0.06660000000000005,-0.11232807720928391
-0.06760000000000005,-0.11261101946925692
-0.06860000000000005,-0.11287981461623127
-0.06960000000000005,-0.11314860976320563
-0.07060000000000005,-0.1133891106841827
-0.07160000000000005,-0.11362961160515975
-0.07260000000000005,-0.11388425963913544
-0.07360000000000005,-0.11411061344711387
-0.07460000000000006,-0.11433696725509226
-0.07560000000000006,-0.11456332106307067
-0.07660000000000006,-0.11480382198404772
-0.07760000000000006,-0.11501602867902748
-0.07860000000000006,-0.11524238248700588
-0.07960000000000006,-0.11542629495598833
-0.08060000000000006,-0.1156385016509681
-0.08160000000000006,-0.11582241411995055
-0.08260000000000006,-0.11602047370193166
-0.08360000000000006,-0.11621853328391277
-0.08460000000000006,-0.11638829863989655
-0.08560000000000006,-0.11657221110887903
-0.08660000000000007,-0.11672782935186417
-0.08760000000000007,-0.11686930048185068
-0.08860000000000007,-0.1170390658378345
-0.08960000000000007,-0.11718053696782099
-0.09060000000000007,-0.1173220080978075
-0.09160000000000007,-0.117463479227794
-0.09260000000000007,-0.11756250901878454
-0.09360000000000007,-0.11768983303577239
-0.09460000000000007,-0.11777471571376431
-0.09560000000000007,-0.11785959839175622
-0.09660000000000007,-0.1179727752957454
-0.09760000000000008,-0.11804351086073867
-0.09860000000000008,-0.11815668776472787
-0.09960000000000008,-0.11824157044271978
-0.10060000000000008,-0.11829815889471437
-0.10160000000000008,-0.11836889445970761
-0.10260000000000008,-0.11842548291170223
-0.10360000000000008,-0.11848207136369682
-0.10460000000000008,-0.11855280692869007
-0.10560000000000008,-0.11875086651067117
-0.10660000000000008,-0.118920631866655
-0.10760000000000008,-0.11893477897965361
-0.10860000000000009,-0.118920631866655
-0.10960000000000009,-0.118920631866655
-0.11060000000000009,-0.118920631866655
-0.11160000000000009,-0.11890648475365632
-0.11260000000000009,-0.11889233764065768
-0.11360000000000009,-0.11887819052765905
-0.11460000000000009,-0.11890648475365632
-0.11560000000000009,-0.11890648475365632
-0.11660000000000009,-0.11884989630166173
-0.1176000000000001,-0.11884989630166173
-0.1186000000000001,-0.11883574918866308
-0.1196000000000001,-0.11877916073666848
-0.1206000000000001,-0.11876501362366983
-0.1216000000000001,-0.11872257228467388
-0.1226000000000001,-0.11868013094567793
-0.1236000000000001,-0.11866598383267928
-0.1246000000000001,-0.11858110115468738
-0.1256000000000001,-0.11853865981569144
-0.1266000000000001,-0.11848207136369682
-0.1276000000000001,-0.11843963002470087
-0.1286000000000001,-0.11836889445970761
-0.1296000000000001,-0.11829815889471437
-0.1306000000000001,-0.11822742332972111
-0.1316000000000001,-0.11815668776472787
-0.1326000000000001,-0.11807180508673595
-0.1336000000000001,-0.11801521663474136
-0.1346000000000001,-0.11791618684375081
-0.1356000000000001,-0.11784545127875755
-0.1366000000000001,-0.11777471571376431
-0.1376000000000001,-0.11768983303577239
-0.1386000000000001,-0.11761909747077916
-0.1396000000000001,-0.11749177345379128
-0.1406000000000001,-0.11740689077579938
-0.14160000000000011,-0.11735030232380478
-0.14260000000000012,-0.1172371254198156
-0.14360000000000012,-0.11712394851582639
-0.14460000000000012,-0.11702491872483582
-0.14560000000000012,-0.11691174182084664
-0.14660000000000012,-0.11681271202985609
-0.14760000000000012,-0.11669953512586688
-0.14860000000000012,-0.11658635822187767
-0.14960000000000012,-0.11645903420488982
-0.15060000000000012,-0.11633171018790198
-0.15160000000000012,-0.11620438617091411
-0.15260000000000012,-0.11607706215392626
-0.15360000000000013,-0.11594973813693843
-0.15460000000000013,-0.11582241411995055
-0.15560000000000013,-0.11570923721596137
-0.15660000000000013,-0.1155536189729762
-0.15760000000000013,-0.11544044206898699
-0.15860000000000013,-0.11534141227799644
-0.15960000000000002,-0.11518579403501128
-0.16060000000000002,-0.11505847001802343
-0.16160000000000002,-0.11493114600103559
-0.16260000000000002,-0.11478967487104909
-0.16360000000000002,-0.11467649796705988
-0.16460000000000002,-0.11453502683707338
-0.16560000000000002,-0.11446429127208012
-0.16660000000000003,-0.11436526148108955
-0.16760000000000003,-0.11419549612510577
-0.16860000000000003,-0.11408231922111656
-0.16960000000000003,-0.11391255386513276
-0.17060000000000003,-0.11377108273514626
-0.17160000000000003,-0.1136437587181584
-0.17260000000000003,-0.11351643470117054
-0.17360000000000003,-0.11340325779718134
-0.17460000000000003,-0.11327593378019349
-0.17560000000000003,-0.11313446265020698
-0.17660000000000003,-0.11299299152022048
-0.17760000000000004,-0.11286566750323263
-0.17860000000000004,-0.11276663771224207
-0.17960000000000004,-0.11261101946925692
-0.18060000000000004,-0.11244125411327312
-0.18160000000000004,-0.11232807720928391
-0.18260000000000004,-0.11218660607929741
-0.18360000000000004,-0.1120734291753082
-0.18460000000000004,-0.1119319580453217
-0.18560000000000004,-0.1117904869153352
-0.18660000000000004,-0.11166316289834735
-0.18760000000000004,-0.11152169176836085
-0.18860000000000005,-0.11140851486437164
-0.18960000000000005,-0.11125289662138649
-0.19060000000000005,-0.11112557260439863
-0.19160000000000005,-0.11099824858741078
-0.19260000000000005,-0.11088507168342157
-0.19360000000000005,-0.11074360055343507
-0.19460000000000005,-0.11063042364944586
-0.19560000000000005,-0.11050309963245801
-0.19660000000000005,-0.11036162850247151
-0.19760000000000005,-0.11026259871148097
-0.19860000000000005,-0.1101352746944931
-0.19960000000000006,-0.1099938035645066
-0.20060000000000006,-0.10989477377351606
-0.20160000000000006,-0.10975330264352953
-0.20260000000000006,-0.10964012573954035
-0.20360000000000006,-0.10951280172255247
-0.20460000000000006,-0.10938547770556464
-0.20560000000000006,-0.10927230080157543
-0.20660000000000006,-0.10913082967158892
-0.20760000000000006,-0.10900350565460108
-0.20860000000000006,-0.10886203452461457
-0.20960000000000006,-0.10872056339462807
-0.21060000000000006,-0.10862153360363752
-0.21160000000000007,-0.10849420958664967
-0.21260000000000007,-0.1083668855696618
-0.21360000000000007,-0.10825370866567262
-0.21460000000000007,-0.10812638464868475
-0.21560000000000007,-0.1079990606316969
-0.21660000000000007,-0.10791417795370499
-0.21760000000000007,-0.1078292952757131
-0.21860000000000007,-0.10771611837172389
-0.21960000000000007,-0.10758879435473605
-0.22060000000000007,-0.10744732322474954
-0.22160000000000007,-0.10733414632076034
-0.22260000000000008,-0.10719267519077383
-0.22360000000000008,-0.10710779251278192
-0.22460000000000008,-0.10698046849579408
-0.22560000000000008,-0.10685314447880623
-0.22660000000000008,-0.10675411468781566
-0.22760000000000008,-0.10664093778382645
-0.22860000000000008,-0.10652776087983726
-0.22960000000000008,-0.1064287310888467
-0.23060000000000008,-0.10631555418485751
-0.23160000000000008,-0.10618823016786964
-0.23260000000000008,-0.10606090615088182
-0.23360000000000009,-0.1059477292468926
-0.2346000000000001,-0.1058345523429034
-0.2356000000000001,-0.10574966966491149
-0.2366000000000001,-0.10565063987392094
-0.2376000000000001,-0.10552331585693309
-0.2386000000000001,-0.10542428606594254
-0.2396000000000001,-0.10529696204895468
-0.2406000000000001,-0.10516963803196683
-0.2416000000000001,-0.10504231401497897
-0.2426000000000001,-0.10494328422398842
-0.2436000000000001,-0.10483010731999923
-0.2446000000000001,-0.10470278330301136
-0.2456000000000001,-0.10457545928602352
-0.2466000000000001,-0.10446228238203431
-0.2476000000000001,-0.1043491054780451
-0.2486000000000001,-0.10425007568705455
-0.2496000000000001,-0.1041227516700667
-0.2506000000000001,-0.10399542765307884
-0.2516000000000001,-0.10388225074908965
-0.2526000000000001,-0.10374077961910314
-0.2536000000000001,-0.10362760271511394
-0.2546000000000001,-0.10350027869812609
-0.2556000000000001,-0.10338710179413689
-0.2566000000000001,-0.10325977777714902
-0.2576000000000001,-0.10314660087315983
-0.2586000000000001,-0.10303342396917063
-0.2596000000000001,-0.10289195283918412
-0.2606000000000001,-0.10277877593519492
-0.2616000000000001,-0.10267974614420436
-0.2626000000000001,-0.10256656924021516
-0.2636000000000001,-0.10243924522322731
-0.2646000000000001,-0.1023260683192381
-0.2656000000000001,-0.1022128914152489
-0.2666000000000001,-0.10211386162425835
-0.2676000000000001,-0.10200068472026914
-0.2686000000000001,-0.1019016549292786
-0.2696000000000001,-0.10177433091229074
-0.2706000000000001,-0.10166115400830154
-0.2716000000000001,-0.10151968287831505
-0.2726000000000001,-0.10140650597432584
-0.2736000000000001,-0.10129332907033663
-0.2746000000000001,-0.10113771082735147
-0.2756000000000001,-0.10102453392336228
-0.2766000000000001,-0.10089720990637441
-0.2776000000000001,-0.10078403300238521
-0.2786000000000001,-0.10065670898539736
-0.2796000000000001,-0.10052938496840952
-0.2806000000000001,-0.10040206095142165
-0.28160000000000013,-0.10028888404743246
-0.28260000000000013,-0.10014741291744596
-0.28360000000000013,-0.10004838312645539
-0.2846,-0.09992105910946754
-0.2856,-0.09979373509247969
-0.2866,-0.09969470530148912
-0.2876,-0.09955323417150262
-0.2886,-0.09945420438051207
-0.2896,-0.09929858613752693
-0.2906,-0.09919955634653636
-0.2916,-0.09908637944254717
-0.2926,-0.09894490831256067
-0.2936,-0.09886002563456876
-0.29460000000000003,-0.09874684873057955
-0.29560000000000003,-0.09861952471359171
-0.29660000000000003,-0.09850634780960252
-0.29760000000000003,-0.09837902379261465
-0.29860000000000003,-0.0982516997756268
-0.29960000000000003,-0.09813852287163759
-0.30060000000000003,-0.09803949308064704
-0.30160000000000003,-0.09794046328965648
-0.30260000000000004,-0.09779899215966999
-0.30360000000000004,-0.09767166814268213
-0.30460000000000004,-0.09755849123869292
-0.30560000000000004,-0.09744531433470371
-0.30660000000000004,-0.09734628454371318
-0.30760000000000004,-0.09723310763972397
-0.30860000000000004,-0.09711993073573477
-0.30960000000000004,-0.09699260671874692
-0.31060000000000004,-0.09687942981475771
-0.31160000000000004,-0.0967662529107685
-0.31260000000000004,-0.0966813702327766
-0.31360000000000005,-0.09653989910279011
-0.31460000000000005,-0.09646916353779686
-0.31560000000000005,-0.09637013374680631
-0.31660000000000005,-0.09624280972981844
-0.31760000000000005,-0.09617207416482519
-0.31860000000000005,-0.096058897260836
-0.31960000000000005,-0.09597401458284409
-0.32060000000000005,-0.09584669056585624
-0.32160000000000005,-0.09570521943586972
-0.32260000000000005,-0.09559204253188053
-0.32360000000000005,-0.09553545407988592
-0.32460000000000006,-0.09542227717589671
-0.32560000000000006,-0.09535154161090346
-0.32660000000000006,-0.09526665893291157
-0.32760000000000006,-0.09513933491592372
-0.32860000000000006,-0.09505445223793182
-0.32960000000000006,-0.09495542244694127
-0.33060000000000006,-0.09487053976894937
-0.33160000000000006,-0.09481395131695476
-0.33260000000000006,-0.09471492152596421
-0.33360000000000006,-0.09461589173497365
-0.33460000000000006,-0.09455930328297905
-0.33560000000000006,-0.09443197926599119
-0.33660000000000007,-0.09436124370099794
-0.33760000000000007,-0.09427636102300604
-0.33860000000000007,-0.0941773312320155
-0.33960000000000007,-0.09407830144102494
-0.34060000000000007,-0.09405000721502763
-0.34160000000000007,-0.0939226831980398
-0.34260000000000007,-0.09382365340704923
-0.34360000000000007,-0.09376706495505463
-0.3446000000000001,-0.09390853608504113
-0.3456000000000001,-0.09382365340704923
-0.3466000000000001,-0.09371047650306003
-0.34759999999999996,-0.09366803516406408
-0.3486000000000001,-0.09358315248607219
-0.34959999999999997,-0.09349826980808028
-0.3506000000000001,-0.09344168135608567
-0.35159999999999997,-0.09338509290409107
-0.3526000000000001,-0.09334265156509512
-0.35359999999999997,-0.09328606311310052
-0.3546000000000001,-0.09322947466110591
-0.35559999999999997,-0.09317288620911131
-0.3566000000000001,-0.09313044487011536
-0.3576,-0.09310215064411806
-0.3586000000000001,-0.09305970930512211
-0.3596,-0.0929748266271302
-0.3606000000000001,-0.09293238528813427
-0.3616,-0.09290409106213696
-0.3626000000000001,-0.09286164972314101
-0.3636,-0.09281920838414506
-0.3646000000000001,-0.0927484728191518
-0.3656,-0.09273432570615316
-0.3666000000000001,-0.09270603148015585
-0.3676,-0.09263529591516259
-0.3686000000000001,-0.09263529591516259
-0.3696,-0.09256456035016934
-0.3706000000000001,-0.09256456035016934
-0.3716,-0.09255041323717071
-0.3726000000000001,-0.0925221190111734
-0.3736,-0.09250797189817477
-0.3746000000000001,-0.0924938247851761
-0.3756,-0.09246553055917879
-0.3766000000000001,-0.09246553055917879
-0.3776,-0.09245138344618015
-0.3786000000000001,-0.0924372363331815
-0.3796,-0.0924089421071842
-0.3806000000000001,-0.0924089421071842
-0.3816,-0.0924089421071842
-0.3826000000000001,-0.0924089421071842
-0.3836,-0.09239479499418554
-0.3846000000000001,-0.0924089421071842
-0.3856,-0.09239479499418554
-0.3866000000000001,-0.09242308922018284
-0.3876,-0.09242308922018284
-0.3886000000000001,-0.09242308922018284
-0.3896,-0.09242308922018284
-0.3906000000000001,-0.09242308922018284
-0.3916,-0.09245138344618015
-0.3926000000000001,-0.09245138344618015
-0.3936,-0.09246553055917879
-0.3946000000000001,-0.0924938247851761
-0.3956,-0.09250797189817477
-0.3966000000000001,-0.09256456035016934
-0.3976,-0.09259285457616664
-0.3986000000000001,-0.09263529591516259
-0.3996,-0.09267773725415854
-0.4006000000000001,-0.09272017859315451
-0.4016,-0.0927484728191518
-0.4026000000000001,-0.0927767670451491
-0.4036,-0.09283335549714371
-0.4046000000000001,-0.09287579683613965
-0.4056,-0.09290409106213696
-0.40660000000000013,-0.09296067951413156
-0.4076,-0.09298897374012885
-0.40860000000000013,-0.09307385641812077
-0.4096,-0.09315873909611266
-0.41060000000000013,-0.09321532754810727
-0.4116,-0.09330021022609918
-0.41260000000000013,-0.09335679867809377
-0.4136,-0.09342753424308703
-0.41460000000000014,-0.09344168135608567
-0.4156,-0.09349826980808028
-0.41660000000000014,-0.09358315248607219
-0.4176,-0.09365388805106543
-0.41860000000000014,-0.09373877072905733
-0.41960000000000003,-0.09380950629405059
-0.42060000000000014,-0.09389438897204248
-0.42160000000000003,-0.09402171298903034
-0.42260000000000014,-0.09409244855402359
-0.42360000000000003,-0.09419147834501414
-0.42460000000000014,-0.09427636102300604
-0.42560000000000003,-0.0943470965879993
-0.42660000000000015,-0.0944602734919885
-0.42760000000000004,-0.09455930328297905
-0.42860000000000015,-0.0946583330739696
-0.42960000000000004,-0.09475736286496016
-0.43060000000000015,-0.09485639265595071
-0.43160000000000004,-0.0949695695599399
-0.43260000000000015,-0.09509689357692777
-0.43360000000000004,-0.09522421759391562
-0.43460000000000015,-0.09532324738490616
-0.43560000000000004,-0.09545057140189403
-0.43660000000000015,-0.09557789541888188
