Potential V vs RHE, Current mA cm-2
0.013299999999999867,27.035132940420848
0.012299999999999978,25.337479380582806
0.011299999999999866,23.597384481748815
0.010299999999999976,21.899730921910766
0.009299999999999864,20.10304757108217
0.008299999999999974,18.44783535024008
0.007299999999999862,16.877505807389888
0.006299999999999972,15.3920589425316
0.00529999999999986,13.998568312164537
0.0042999999999999705,12.646104309493563
0.0032999999999998586,11.295055018122452
0.0022999999999999687,9.811022864564029
0.0012999999999998568,8.372261472601286
0.00029999999999996696,6.933500080638546
-0.000700000000000145,5.537180027671754
-0.0017000000000000348,4.272428125592412
-0.0027000000000001467,3.0515322738088844
-0.0037000000000000366,1.8730777610213083
-0.0047000000000001485,0.6956135461436386
-0.005700000000000038,-0.5692798270656908
-0.00670000000000015,-1.8773218949209036
-0.00770000000000004,-3.1859298472960624
-0.008700000000000152,-4.450681749375406
-0.009700000000000042,-5.672992312458796
-0.010700000000000154,-6.762320013354876
-0.011700000000000044,-7.809206375255003
-0.012700000000000156,-8.85609273715513
-0.013700000000000045,-9.946835149351072
-0.014700000000000157,-11.1677310011346
-0.015700000000000047,-12.346185513922174
-0.01670000000000016,-13.567081365705702
-0.01770000000000005,-14.65640906660178
-0.01870000000000016,-15.660854089505953
-0.01970000000000005,-16.665299112410132
-0.020700000000000163,-17.584861457322408
-0.021700000000000053,-18.53271802823198
-0.022700000000000164,-19.636192842126707
-0.023700000000000054,-20.72552054302279
-0.024700000000000166,-21.857289582914817
-0.025700000000000056,-22.946617283810895
-0.026700000000000168,-23.908620967719123
-0.027700000000000058,-24.814036199632742
-0.02870000000000017,-25.73359854454502
-0.02970000000000006,-26.61071955046134
-0.03070000000000017,-27.615164573365515
-0.03170000000000006,-28.619609596269694
-0.03270000000000017,-29.66649595816982
-0.03370000000000006,-30.71338232006995
-0.034700000000000175,-31.618797551983565
-0.035700000000000065,-32.53835989689585
-0.03670000000000018,-33.330598224820264
-0.03770000000000007,-34.193572117737936
-0.03870000000000018,-35.11313446265021
-0.03970000000000007,-36.11757948555439
-0.04070000000000018,-37.164465847454515
-0.04170000000000007,-38.16891087035869
-0.04270000000000018,-39.130914554266916
-0.04370000000000007,-39.99388844718459
-0.044700000000000184,-40.78612677510901
-0.045700000000000074,-41.56421799003478
-0.046700000000000186,-42.39889765695515
-0.047700000000000076,-43.31846000186743
-0.04870000000000019,-44.28046368577565
-0.04970000000000008,-45.27076159568118
-0.05070000000000019,-46.2327652795894
-0.05170000000000008,-47.10988628550572
-0.05270000000000019,-47.93041883942744
-0.05370000000000008,-48.68021582835591
-0.05470000000000019,-49.50074838227763
-0.05570000000000008,-50.37786938819396
-0.056700000000000195,-51.33987307210218
-0.057700000000000085,-52.34431809500636
-0.058700000000000196,-53.26388043991864
-0.059700000000000086,-54.1268543328363
-0.0607000000000002,-54.961533999756675
-0.06170000000000009,-55.6971838756865
-0.0627000000000002,-56.53186354260687
-0.06370000000000009,-57.30995475753264
-0.0647000000000002,-58.22951710244491
-0.06570000000000009,-59.14907944735718
-0.0667000000000002,-60.11108313126541
-0.0677000000000001,-61.01649836317903
-0.0687000000000002,-61.80873669110345
-0.0697000000000001,-62.544386567033264
-0.07070000000000021,-63.29418355596174
-0.0717000000000001,-64.0722747708875
-0.07270000000000021,-64.94939577680383
-0.0737000000000001,-65.86895812171612
-0.07470000000000021,-66.81681469262568
-0.0757000000000001,-67.693935698542
-0.07670000000000021,-68.52861536546239
-0.0777000000000001,-69.30670658038814
-0.07870000000000021,-70.01406223032066
-0.0797000000000001,-70.70727076725453
-0.08070000000000022,-71.52780332117625
-0.0817000000000001,-72.36248298809663
-0.08270000000000022,-73.2820453330089
-0.08370000000000011,-74.20160767792116
-0.08470000000000022,-74.97969889284694
-0.08570000000000011,-75.77193722077136
-0.08670000000000022,-76.46514575770523
-0.08770000000000011,-77.20079563363505
-0.08870000000000022,-77.99303396155948
-0.08970000000000011,-78.85600785447714
-0.09070000000000022,-79.7755701993894
-0.09170000000000011,-80.69513254430169
-0.09270000000000023,-81.57225355021802
-0.09370000000000012,-82.30790342614785
-0.09470000000000023,-83.0011119630817
-0.09570000000000012,-83.70846761301424
-0.09670000000000023,-84.44411748894404
-0.09770000000000012,-85.36367983385631
-0.09870000000000023,-86.22665372677399
-0.09970000000000012,-87.18865741068221
-0.10070000000000023,-88.10821975559449
-0.10170000000000012,-88.9004580835189
-0.10270000000000024,-89.67854929844468
-0.10370000000000013,-90.37175783537855
-0.10470000000000024,-91.16399616330297
-0.10570000000000013,-91.98452871722468
-0.10670000000000024,-92.81920838414506
-0.10770000000000013,-93.73877072905732
-0.10870000000000024,-94.601744621975
-0.10970000000000013,-95.39398294989942
-0.11070000000000024,-96.12963282582925
-0.11170000000000013,-96.83698847576176
-0.11270000000000002,-97.53019701269562
-0.11370000000000013,-98.3082882276214
-0.11470000000000002,-99.18540923353773
-0.11570000000000014,-100.10497157844999
-0.11670000000000003,-101.06697526235823
-0.11770000000000014,-101.92994915527588
-0.11870000000000003,-102.76462882219626
-0.11970000000000014,-103.50027869812607
-0.12070000000000003,-104.2076343480586
-0.12170000000000014,-104.94328422398843
-0.12270000000000003,-105.7779638909088
-0.12370000000000014,-106.68337912282242
-0.12470000000000003,-107.6029414677347
-0.12570000000000014,-108.48006247365102
-0.12670000000000003,-109.30059502757274
-0.12770000000000015,-110.09283335549715
-0.12870000000000004,-110.87092457042293
-0.12970000000000015,-111.7056042373433
-0.13070000000000004,-112.58272524325962
-0.13170000000000015,-113.53058181416918
-0.13270000000000004,-114.57746817606933
-0.13370000000000015,-115.53947185997755
-0.13470000000000004,-116.37415152689792
-0.13570000000000015,-117.19468408081964
-0.13670000000000004,-117.85959839175621
-0.13770000000000016,-118.59524826768603
-0.13870000000000005,-119.3450452566145
-0.13970000000000016,-120.25046048852812
-0.14070000000000005,-121.17002283344038
-0.14170000000000016,-122.1320265173486
-0.14270000000000005,-123.00914752326493
-0.14370000000000016,-123.74479739919475
-0.14470000000000005,-124.43800593612862
-0.14570000000000016,-125.14536158606113
-0.14670000000000005,-125.88101146199097
-0.14770000000000016,-126.80057380690324
-0.14870000000000005,-127.72013615181551
-0.14970000000000017,-128.71043406172103
-0.15070000000000006,-129.58755506763737
-0.15170000000000017,-130.42223473455772
-0.15270000000000006,-131.24276728847948
-0.15370000000000017,-131.89353448641737
-0.15470000000000006,-132.6857728143418
-0.15570000000000017,-133.52045248126214
-0.15670000000000006,-134.42586771317576
-0.15770000000000017,-135.387871397084
-0.15870000000000006,-136.30743374199628
-0.15970000000000018,-137.12796629591801
-0.16070000000000007,-137.9626459628384
-0.16170000000000018,-138.65585449977226
-0.16270000000000007,-139.4056514887007
-0.16370000000000018,-140.22618404262244
-0.16470000000000007,-141.14574638753473
-0.16570000000000018,-142.03701450644968
-0.16670000000000007,-143.0273124163552
-0.16770000000000018,-143.87613919627424
-0.16870000000000007,-144.72496597619326
-0.16970000000000018,-145.57379275611228
-0.17070000000000007,-146.28114840604482
-0.17170000000000019,-147.1299751859638
-0.17270000000000008,-147.97880196588284
-0.1737000000000002,-148.96909987578834
-0.17470000000000008,-149.8179266557074
-0.1757000000000002,-150.8082245656129
-0.17670000000000008,-151.65705134553193
-0.1777000000000002,-152.50587812545095
-0.17870000000000008,-153.21323377538346
-0.1797000000000002,-153.920589425316
-0.18070000000000008,-154.9108873352215
-0.1817000000000002,-155.75971411514055
-0.18270000000000008,-156.75001202504606
-0.1837000000000002,-157.7403099349516
-0.1847000000000001,-158.4476655848841
-0.1857000000000002,-159.29649236480313
-0.1867000000000001,-160.00384801473567
-0.1877000000000002,-160.71120366466818
-0.1887000000000001,-161.5600304445872
-0.1897000000000002,-162.5503283544927
-0.1907000000000001,-163.54062626439824
-0.1917000000000001,-164.38945304431726
-0.19269999999999998,-165.3797509542228
-0.1937000000000001,-166.0871066041553
-0.19469999999999998,-166.93593338407433
-0.1957000000000001,-167.6432890340068
-0.19669999999999999,-168.49211581392586
-0.1977000000000001,-169.3409425938449
-0.1987,-170.33124050375042
-0.1997000000000001,-171.32153841365593
-0.2007,-172.31183632356147
-0.2017000000000001,-173.16066310348046
-0.2027,-174.0094898833995
-0.2037000000000001,-174.71684553333202
-0.2047,-175.56567231325104
-0.2057000000000001,-176.4144990931701
-0.2067,-177.4047970030756
-0.2077000000000001,-178.25362378299462
-0.2087,-179.24392169290016
-0.2097000000000001,-180.09274847281918
-0.2107,-180.94157525273818
-0.2117000000000001,-181.64893090267074
-0.2127,-182.49775768258974
-0.2137000000000001,-183.34658446250873
-0.2147,-184.33688237241427
-0.2157000000000001,-185.3271802823198
-0.2167,-186.31747819222534
-0.21770000000000012,-187.30777610213087
-0.2187,-188.15660288204987
-0.21970000000000012,-188.8639585319824
-0.2207,-189.71278531190143
-0.22170000000000012,-190.56161209182042
-0.2227,-191.551910001726
-0.22370000000000012,-192.54220791163152
-0.2247,-193.3910346915505
-0.22570000000000012,-194.38133260145605
-0.2267,-195.23015938137505
-0.22770000000000012,-196.0789861612941
-0.22870000000000001,-196.7863418112266
-0.22970000000000013,-197.63516859114563
-0.23070000000000002,-198.62546650105114
-0.23170000000000013,-199.61576441095667
-0.23270000000000002,-200.6060623208622
-0.23370000000000013,-201.59636023076774
-0.23470000000000002,-202.58665814067325
-0.23570000000000013,-203.43548492059227
-0.23670000000000002,-204.14284057052478
-0.2376999999999999,-204.9916673504438
-0.23870000000000002,-205.84049413036286
-0.2396999999999999,-206.83079204026836
-0.24070000000000003,-207.8210899501739
-0.24169999999999991,-208.6699167300929
-0.24270000000000003,-209.66021463999843
-0.24369999999999992,-210.50904141991748
-0.24470000000000003,-211.35786819983647
-0.24569999999999992,-212.065223849769
-0.24670000000000003,-213.05552175967455
-0.24769999999999992,-213.90434853959354
-0.24870000000000003,-214.89464644949908
-0.24969999999999992,-215.88494435940459
-0.25070000000000003,-216.87524226931012
-0.2516999999999999,-217.86554017921566
-0.25270000000000004,-218.71436695913465
-0.2536999999999999,-219.5631937390537
-0.25470000000000004,-220.5534916489592
-0.2556999999999999,-221.40231842887826
-0.25670000000000004,-222.3926163387838
-0.25769999999999993,-223.38291424868927
-0.25870000000000004,-224.37321215859478
-0.25969999999999993,-225.22203893851383
-0.26070000000000004,-226.07086571843288
-0.26169999999999993,-226.91969249835188
-0.26270000000000004,-227.7685192782709
-0.26369999999999993,-228.61734605818995
-0.26470000000000005,-229.60764396809546
-0.26569999999999994,-230.59794187800094
-0.26670000000000005,-231.729710917893
-0.26769999999999994,-232.72000882779852
-0.26870000000000005,-233.56883560771757
-0.26969999999999994,-234.4176623876366
-0.27070000000000005,-235.26648916755556
-0.27169999999999994,-236.25678707746113
-0.27270000000000005,-237.24708498736666
-0.27369999999999994,-238.2373828972722
-0.27470000000000006,-239.2276808071777
-0.27569999999999995,-240.21797871708318
-0.27670000000000006,-240.92533436701575
-0.27769999999999995,-241.77416114693477
-0.27870000000000006,-242.62298792685377
-0.27969999999999995,-243.47181470677282
-0.28070000000000006,-244.46211261667833
-0.28169999999999995,-245.45241052658386
-0.28270000000000006,-246.4427084364894
-0.28369999999999995,-247.57447747638145
-0.28470000000000006,-248.56477538628693
-0.28569999999999995,-249.41360216620598
-0.28670000000000007,-250.262428946125
-0.28769999999999996,-251.111255726044
-0.28870000000000007,-252.10155363594956
-0.28969999999999996,-253.09185154585506
-0.29070000000000007,-254.2236205857471
-0.29169999999999996,-255.21391849565262
-0.29270000000000007,-256.0627452755717
-0.29369999999999996,-256.91157205549064
-0.2947000000000001,-257.90186996539614
-0.29569999999999996,-258.8921678753017
-0.2967000000000001,-260.02393691519376
-0.29769999999999996,-261.1557059550858
-0.2987000000000001,-262.42894612496434
-0.29969999999999997,-263.56071516485633
-0.3007000000000001,-264.6924842047484
-0.30169999999999997,-265.82425324464043
-0.3027000000000001,-266.6730800245594
-0.30369999999999997,-267.38043567449193
-0.3047000000000001,-268.22926245441096
-0.30569999999999997,-269.07808923433
-0.3067000000000001,-270.0683871442355
-0.3077,-271.05868505414105
-0.3087000000000001,-272.04898296404656
-0.3097,-272.8978097439656
-0.3107000000000001,-273.7466365238846
-0.3117,-274.5954633038036
-0.3127000000000001,-275.44429008372265
-0.3137,-276.29311686364167
-0.3147000000000001,-277.1419436435607
-0.3157,-278.1322415534662
-0.3167000000000001,-279.1225394633717
-0.3177,-280.11283737327733
-0.3187000000000001,-280.9616641531963
-0.3197,-281.9519620631018
-0.3207000000000001,-282.8007888430208
-0.3217,-283.79108675292633
-0.3227000000000001,-284.7813846628319
-0.3237,-285.9131537027239
-0.3247000000000001,-286.9034516126294
-0.3257,-288.03522065252145
-0.3267000000000001,-289.02551856242695
-0.3277,-289.87434534234603
-0.3287000000000001,-290.723172122265
-0.3297,-291.571998902184
-0.3307000000000001,-292.56229681208964
-0.3317,-293.6940658519816
-0.3327000000000001,-294.96730602186017
-0.3337,-296.0990750617522
-0.3347000000000001,-297.23084410164427
-0.3357,-298.07967088156323
-0.3367000000000001,-299.06996879146874
-0.3377,-300.06026670137425
-0.3387000000000001,-301.0505646112798
-0.3397,-302.18233365117186
-0.3407000000000001,-303.17263156107737
-0.3417,-304.3044006009694
-0.3427000000000001,-305.29469851087487
-0.3437,-306.28499642078043
-0.3447000000000001,-307.1338232006995
-0.3457,-308.124121110605
-0.3467000000000001,-309.1144190205105
-0.3477,-310.2461880604026
-0.3487000000000001,-311.2364859703081
-0.3497,-312.50972614018656
-0.3507000000000001,-313.6414951800786
-0.3517,-314.6317930899841
-0.3527000000000001,-315.6220909998897
-0.3537,-316.6123889097952
-0.3547000000000001,-317.46121568971427
-0.3557,-318.4515135996198
-0.35670000000000013,-319.4418115095253
-0.3577,-320.4321094194308
-0.35870000000000013,-321.56387845932284
-0.3597,-322.6956474992149
-0.36070000000000013,-323.68594540912045
-0.3617,-324.5347721890394
-0.3626999999999999,-325.3835989689584
-0.3637,-326.373896878864
-0.3646999999999999,-327.505665918756
-0.3657,-328.63743495864804
-0.3666999999999999,-329.76920399854004
-0.3677,-330.7595019084456
-0.3686999999999999,-331.74979981835105
-0.36970000000000003,-332.59862659827013
-0.3706999999999999,-333.44745337818915
-0.37170000000000003,-334.2962801581082
-0.3726999999999999,-335.2865780680136
-0.37370000000000003,-336.4183471079057
-0.3746999999999999,-337.5501161477977
-0.37570000000000003,-338.6818851876898
-0.3766999999999999,-339.8136542275818
-0.37770000000000004,-340.80395213748733
-0.3786999999999999,-341.7942500473929
-0.37970000000000004,-342.7845479572984
-0.3806999999999999,-343.9163169971904
-0.38170000000000004,-345.04808603708244
-0.38269999999999993,-346.1798550769745
-0.38370000000000004,-347.3116241168665
-0.38469999999999993,-348.44339315675853
-0.38570000000000004,-349.5751621966506
-0.38669999999999993,-349.15074880669107
-0.38570000000000004,-346.3213262069609
-0.38469999999999993,-343.7748458672039
-0.38370000000000004,-341.22836552744684
-0.38269999999999993,-338.8233563176763
-0.38170000000000004,-336.27687597791925
-0.3806999999999999,-333.87186676814866
-0.37970000000000004,-331.18391529840505
-0.3786999999999999,-328.63743495864804
-0.37770000000000004,-326.090954618891
-0.3766999999999999,-323.68594540912045
-0.37570000000000003,-321.42240732933635
-0.3746999999999999,-319.15886924955225
-0.37370000000000003,-317.03680229975475
-0.3726999999999999,-314.77326421997066
-0.37170000000000003,-312.36825501020013
-0.3706999999999999,-310.10471693041603
-0.36970000000000003,-307.69970772064545
-0.3686999999999999,-305.43616964086146
-0.3677,-303.17263156107737
-0.3666999999999999,-300.9090934812933
-0.3657,-298.78702653149577
-0.3646999999999999,-296.6649595816982
-0.3637,-294.4014215019141
-0.3626999999999999,-292.1378834221301
-0.3617,-289.87434534234603
-0.36070000000000013,-287.610807262562
-0.3597,-285.4887403127644
-0.35870000000000013,-283.3666733629668
-0.3577,-281.3860775431558
-0.35670000000000013,-279.26401059335825
-0.3557,-277.1419436435607
-0.3547000000000001,-275.0198766937631
-0.3537,-272.8978097439656
-0.3527000000000001,-270.49280053419506
-0.3517,-268.37073358439744
-0.3507000000000001,-266.3901377645864
-0.3497,-264.2680708147888
-0.3487000000000001,-262.2874749949778
-0.3477,-260.16540804518024
-0.3467000000000001,-258.0433410953827
-0.3457,-255.92127414558513
-0.3447000000000001,-253.65773606580112
-0.3437,-251.39419798601702
-0.3427000000000001,-249.2721310362195
-0.3417,-247.1500640864219
-0.3407000000000001,-245.02799713662432
-0.3397,-243.18887244679982
-0.3387000000000001,-241.34974775697523
-0.3377,-239.36915193716422
-0.3367000000000001,-237.38855611735315
-0.3357,-235.26648916755556
-0.3347000000000001,-233.28589334774458
-0.3337,-231.3052975279335
-0.3327000000000001,-229.46617283810895
-0.3317,-227.62704814828442
-0.3307000000000001,-225.64645232847332
-0.3297,-223.6658565086623
-0.3287000000000001,-221.54378955886475
-0.3277,-219.42172260906716
-0.3267000000000001,-217.44112678925615
-0.3257,-215.6020020994316
-0.3247000000000001,-213.76287740960703
-0.3237,-211.9237527197825
-0.3227000000000001,-210.08462802995794
-0.3217,-208.1040322101469
-0.3207000000000001,-206.12343639033585
-0.3197,-204.0013694405383
-0.3187000000000001,-202.02077362072723
-0.3177,-200.04017780091618
-0.3167000000000001,-198.20105311109162
-0.3157,-196.3619284212671
-0.3147000000000001,-194.66427486142905
-0.3137,-192.683679041618
-0.3127000000000001,-190.84455435179345
-0.3117,-188.72248740199586
-0.3107000000000001,-186.74189158218485
-0.3097,-184.7612957623738
-0.3087000000000001,-182.92217107254925
-0.3077,-181.08304638272472
-0.3067000000000001,-179.24392169290016
-0.30569999999999997,-177.4047970030756
-0.3047000000000001,-175.56567231325104
-0.30369999999999997,-173.58507649344
-0.3027000000000001,-171.60448067362896
-0.30169999999999997,-169.7653559838044
-0.3007000000000001,-167.92623129397984
-0.29969999999999997,-166.22857773414182
-0.2987000000000001,-164.53092417430375
-0.29769999999999996,-162.6917994844792
-0.2967000000000001,-160.8526747946547
-0.29569999999999996,-158.87207897484362
-0.2947000000000001,-156.89148315503257
-0.29369999999999996,-154.9108873352215
-0.29270000000000007,-153.21323377538346
-0.29169999999999996,-151.37410908555893
-0.29070000000000007,-149.8179266557074
-0.28969999999999996,-148.12027309586935
-0.28870000000000007,-146.28114840604482
-0.28769999999999996,-144.44202371622026
-0.28670000000000007,-142.6028990263957
-0.28569999999999995,-140.70718588457655
-0.28470000000000006,-138.88220830775063
-0.28369999999999995,-137.1845547479126
-0.28270000000000006,-135.51519541407185
-0.28169999999999995,-133.8599831932298
-0.28070000000000006,-132.16232963339172
-0.27969999999999995,-130.37979339556176
-0.27870000000000006,-128.4982273667413
-0.27769999999999995,-126.6732497899154
-0.27670000000000006,-124.87656643908679
-0.27569999999999995,-123.17891287924873
-0.27470000000000006,-121.56614199740261
-0.27369999999999994,-119.99581245455242
-0.27270000000000005,-118.38304157270628
-0.27169999999999994,-116.67124089986959
-0.27070000000000005,-114.93114600103557
-0.26969999999999994,-113.10616842420968
-0.26870000000000005,-111.35192641237703
-0.26769999999999994,-109.73915553053091
