Potential V vs RHE, Current mA cm-2
0.013299999999999867,33.344745337818914
0.012299999999999978,31.618797551983565
0.011299999999999866,30.06261512213203
0.010299999999999976,28.718639387260247
0.009299999999999864,27.473693443379013
0.008299999999999974,26.32777729048833
0.007299999999999862,25.196008250596304
0.006299999999999972,24.106680549700226
0.00529999999999986,23.031499961802798
0.0042999999999999705,22.027054938898623
0.0032999999999998586,21.079198367989047
0.0022999999999999687,20.13134179707947
0.0012999999999998568,19.197632339168546
0.00029999999999996696,18.292217107254928
-0.000700000000000145,17.4433903273359
-0.0017000000000000348,16.622857773414182
-0.0027000000000001467,15.816472332491113
-0.0037000000000000366,14.98179266557074
-0.0047000000000001485,14.189554337646317
-0.005700000000000038,13.432683792218524
-0.00670000000000015,12.711181029287355
-0.00770000000000004,11.985434132456591
-0.008700000000000152,11.244125411327312
-0.009700000000000042,10.522622648396142
-0.010700000000000154,9.84780535836052
-0.011700000000000044,9.208355850821524
-0.012700000000000156,8.557588652883606
-0.013700000000000045,7.894089053246905
-0.014700000000000157,7.243321855308987
-0.015700000000000047,6.651972531965402
-0.01670000000000016,6.0719408990207375
-0.01770000000000005,5.479176864377286
-0.01870000000000016,4.8849981184339715
-0.01970000000000005,4.2936487950903865
-0.020700000000000163,3.747570233342482
-0.021700000000000053,3.2227123410925533
-0.022700000000000164,2.670974934145189
-0.023700000000000054,2.116408104598095
-0.024700000000000166,1.5675001202504606
-0.025700000000000056,1.0727755786876572
-0.026700000000000168,0.5916322656035584
-0.027700000000000058,0.07888430208047445
-0.02870000000000017,-0.44039962764798596
-0.02970000000000006,-0.9513933491592371
-0.03070000000000017,-1.426028990263957
-0.03170000000000006,-1.8645894932221183
-0.03270000000000017,-2.3413472012766356
-0.03370000000000006,-2.8308373110299385
-0.034700000000000175,-3.2948626173856703
-0.035700000000000065,-3.734837831643697
-0.03670000000000018,-4.152177665103882
-0.03770000000000007,-4.597811724561368
-0.03870000000000018,-5.066081164816696
-0.03970000000000007,-5.508885801674452
-0.04070000000000018,-5.909249099536258
-0.04170000000000007,-6.294050573099549
-0.04270000000000018,-6.7085609839600036
-0.04370000000000007,-7.159853888616951
-0.044700000000000184,-7.589926123775921
-0.045700000000000074,-7.9690687521397505
-0.046700000000000186,-8.341137824004257
-0.047700000000000076,-8.742915833165926
-0.04870000000000019,-9.168743934425303
-0.04970000000000008,-9.579010211386164
-0.05070000000000019,-9.946835149351072
-0.05170000000000008,-10.311830664716252
-0.05270000000000019,-10.689558581780219
-0.05370000000000008,-11.089921879642024
-0.05470000000000019,-11.490285177503829
-0.05570000000000008,-11.852451270269277
-0.056700000000000195,-12.211787940434995
-0.057700000000000085,-12.585271723599366
-0.058700000000000196,-12.982805598861441
-0.059700000000000086,-13.373265917624192
-0.0607000000000002,-13.719870186091127
-0.06170000000000009,-14.056571475459005
-0.0627000000000002,-14.430055258623375
-0.06370000000000009,-14.812027309586934
-0.0647000000000002,-15.179852247551842
-0.06570000000000009,-15.533530072518102
-0.0667000000000002,-15.844766558488407
-0.0677000000000001,-16.21259149645332
-0.0687000000000002,-16.60871066041553
-0.0697000000000001,-16.962388485381787
-0.07070000000000021,-17.28777208435075
-0.0717000000000001,-17.613155683319707
-0.07270000000000021,-17.966833508285966
-0.0737000000000001,-18.334658446250877
-0.07470000000000021,-18.688336271217132
-0.0757000000000001,-19.01371987018609
-0.07670000000000021,-19.3249563561564
-0.0777000000000001,-19.70692840711996
-0.07870000000000021,-20.10304757108217
-0.0797000000000001,-20.456725396048434
-0.08070000000000022,-20.79625610801604
-0.0817000000000001,-21.149933932982297
-0.08270000000000022,-21.489464644949905
-0.08370000000000011,-21.857289582914817
-0.08470000000000022,-22.196820294882425
-0.08570000000000011,-22.508056780852733
-0.08670000000000022,-22.776851927827092
-0.08770000000000011,-23.13052975279335
-0.08870000000000022,-23.526648916755562
-0.08970000000000011,-23.908620967719123
-0.09070000000000022,-24.24815167968673
-0.09170000000000011,-24.57353527865569
-0.09270000000000023,-24.927213103621945
-0.09370000000000012,-25.295038041586857
-0.09470000000000023,-25.620421640555815
-0.09570000000000012,-25.931658126526123
-0.09670000000000023,-26.27118883849373
-0.09770000000000012,-26.667308002455943
-0.09870000000000023,-27.0209858274222
-0.09970000000000012,-27.36051653938981
-0.10070000000000023,-27.62931168636417
-0.10170000000000012,-27.898106833338524
-0.10270000000000024,-28.22349043230748
-0.10370000000000013,-28.577168257273744
-0.10470000000000024,-28.97328742123595
-0.10570000000000013,-29.369406585198163
-0.10670000000000024,-29.708937297165768
-0.10770000000000013,-30.04846800913338
-0.10870000000000024,-30.387998721100992
-0.10970000000000013,-30.71338232006995
-0.11070000000000024,-30.99632458004295
-0.11170000000000013,-31.321708179011907
-0.11270000000000002,-31.703680229975475
-0.11370000000000013,-32.08565228093904
-0.11470000000000002,-32.42518299290664
-0.11570000000000014,-32.79300793087155
-0.11670000000000003,-33.14668575583781
-0.11770000000000014,-33.52865780680137
-0.11870000000000003,-33.88233563176763
-0.11970000000000014,-34.221866343735236
-0.12070000000000003,-34.56139705570285
-0.12170000000000014,-34.84433931567585
-0.12270000000000003,-35.183870027643465
-0.12370000000000014,-35.594136304604326
-0.12470000000000003,-35.99025546856653
-0.12570000000000014,-36.329786180534136
-0.12670000000000003,-36.64102266650445
-0.12770000000000015,-36.99470049147071
-0.12870000000000004,-37.34837831643697
-0.12970000000000015,-37.645467689408626
-0.13070000000000004,-37.97085128837759
-0.13170000000000015,-38.32452911334384
-0.13270000000000004,-38.664059825311455
-0.13370000000000015,-39.046031876275016
-0.13470000000000004,-39.41385681423992
-0.13570000000000015,-39.75338752620753
-0.13670000000000004,-40.02218267318189
-0.13770000000000016,-40.37586049814815
-0.13870000000000005,-40.743685436113054
-0.13970000000000016,-41.15395171307392
-0.14070000000000005,-41.73398334601858
-0.14170000000000016,-42.130102509980794
-0.14270000000000005,-42.45548610894975
-0.14370000000000016,-42.82331104691466
-0.14470000000000005,-43.17698887188092
-0.14570000000000016,-43.544813809845834
-0.14670000000000005,-43.88434452181344
-0.14770000000000016,-44.33705213777025
-0.14870000000000005,-44.78975975372706
-0.14970000000000017,-45.030260674704124
-0.15070000000000006,-45.31320293467712
-0.15170000000000017,-45.70932209863933
-0.15270000000000006,-46.176176827594794
-0.15370000000000017,-46.61473733055296
-0.15470000000000006,-46.99670938151652
-0.15570000000000017,-47.33624009348412
-0.15670000000000006,-47.647476579454434
-0.15770000000000017,-48.01530151741934
-0.15870000000000006,-48.43971490737886
-0.15970000000000018,-48.82168695834242
-0.16070000000000007,-49.24610034830193
-0.16170000000000018,-49.642219512264134
-0.16270000000000007,-50.06663290222365
-0.16370000000000018,-50.491046292183164
-0.16470000000000007,-50.90131256914402
-0.16570000000000018,-51.24084328111163
-0.16670000000000007,-51.594521106077885
-0.16770000000000018,-51.976493157041446
-0.16870000000000007,-52.44334788599691
-0.16970000000000018,-52.896055501953725
-0.17070000000000007,-53.32046889191324
-0.17170000000000019,-53.70244094287679
-0.17270000000000008,-54.09856010683901
-0.1737000000000002,-54.537120609797164
-0.17470000000000008,-54.975681112755325
-0.1757000000000002,-55.442535841710786
-0.17670000000000008,-55.8952434576676
-0.1777000000000002,-56.31965684762711
-0.17870000000000008,-56.786511576582576
-0.1797000000000002,-57.26751341853669
-0.18070000000000008,-57.7768094864881
-0.1817000000000002,-58.116340198455696
-0.18270000000000008,-58.583194927411164
-0.1837000000000002,-59.12078522135989
-0.1847000000000001,-59.60178706331399
-0.1857000000000002,-59.95546488828025
-0.1867000000000001,-60.36573116524111
-0.1877000000000002,-60.87502723319253
-0.1887000000000001,-61.398470414142594
-0.1897000000000002,-61.8228838041021
-0.1907000000000001,-62.24729719406162
-0.1917000000000001,-62.68585769701977
-0.19269999999999998,-63.15271242597524
-0.1937000000000001,-63.69030271992394
-0.19469999999999998,-64.213745900874
-0.1957000000000001,-64.49668816084701
-0.19669999999999999,-64.90695443780788
-0.1977000000000001,-65.3596620537647
-0.1987,-65.93969368670936
-0.1997000000000001,-66.53387243265267
-0.2007,-67.0997569525987
-0.2017000000000001,-67.7222299245393
-0.2027,-68.21737887949207
-0.2037000000000001,-68.69838072144618
-0.2047,-69.06620565941108
-0.2057000000000001,-69.47647193637195
-0.2067,-69.98576800432336
-0.2077000000000001,-70.50921118527343
-0.2087,-71.13168415721405
-0.2097000000000001,-71.69756867716005
-0.2107,-72.20686474511147
-0.2117000000000001,-72.70201370006424
-0.2127,-73.32448667200485
-0.2137000000000001,-73.86207696595356
-0.2147,-74.47040282489553
-0.2157000000000001,-75.06458157083884
-0.2167,-75.54558341279296
-0.21770000000000012,-76.09732081974033
-0.2187,-76.69149956568363
-0.21970000000000012,-77.17250140763775
-0.2207,-77.7242388145851
-0.22170000000000012,-78.27597622153247
-0.2227,-78.84186074147848
-0.22370000000000012,-79.49262793941642
-0.2247,-80.01607112036648
-0.22570000000000012,-80.55366141431519
-0.2267,-81.02051614327065
-0.22770000000000012,-81.54395932422072
-0.22870000000000001,-82.10984384416672
-0.22970000000000013,-82.64743413811544
-0.23070000000000002,-83.14258309306821
-0.23170000000000013,-83.69432050001558
-0.23270000000000002,-84.24605790696293
-0.23370000000000013,-84.7977953139103
-0.23470000000000002,-85.40612117285227
-0.23570000000000013,-86.12762393578342
-0.23670000000000002,-86.7359497947254
-0.2376999999999999,-87.37256987966467
-0.23870000000000002,-87.83942460862012
-0.2396999999999999,-88.23554377258235
-0.24070000000000003,-88.7306927275351
-0.24169999999999991,-89.35316569947572
-0.24270000000000003,-90.04637423640959
-0.24369999999999992,-90.7537298863421
-0.24470000000000003,-91.33376151928677
-0.24569999999999992,-91.91379315223143
-0.24670000000000003,-92.4655305591788
-0.24769999999999992,-93.01726796612617
-0.24870000000000003,-93.63974093806678
-0.24969999999999992,-94.24806679700876
-0.25070000000000003,-94.81395131695474
-0.2516999999999999,-95.30910027190752
-0.25270000000000004,-95.84669056585624
-0.2536999999999999,-96.55404621578876
-0.25470000000000004,-97.19066630072803
-0.2556999999999999,-97.69996236867944
-0.25670000000000004,-98.2234055496295
-0.25769999999999993,-98.74684873057957
-0.25870000000000004,-99.38346881551882
-0.25969999999999993,-100.1332658044473
-0.26070000000000004,-100.86891568037711
-0.26169999999999993,-101.29332907033663
-0.26270000000000004,-101.77433091229074
-0.26369999999999993,-102.22703852824755
-0.26470000000000005,-102.87780572618546
-0.26569999999999994,-103.50027869812607
-0.26670000000000005,-104.16519300906265
-0.26769999999999994,-104.87254865899517
-0.26870000000000005,-105.50916874393444
-0.26969999999999994,-106.13164171587505
-0.27070000000000005,-106.72582046181837
-0.27169999999999994,-107.30585209476303
-0.27270000000000005,-107.8292952757131
-0.27369999999999994,-108.38103268266046
-0.27470000000000006,-108.89032875061187
-0.27569999999999995,-109.39962481856328
-0.27670000000000006,-109.90892088651471
-0.27769999999999995,-110.48895251945936
-0.27870000000000006,-111.11142549139997
-0.27969999999999995,-111.7056042373433
-0.28070000000000006,-112.37051854827988
-0.28169999999999995,-112.66760792125153
-0.28270000000000006,-113.3042280061908
-0.28369999999999995,-113.85596541313815
-0.28470000000000006,-114.33696725509228
-0.28569999999999995,-114.84626332304367
-0.28670000000000007,-115.3838536169924
-0.28769999999999996,-115.90729679794246
-0.28870000000000007,-116.28926884890602
-0.28969999999999996,-116.65709378687092
-0.29070000000000007,-117.19468408081964
-0.29169999999999996,-117.78886282676295
-0.29270000000000007,-118.43963002470086
-0.29369999999999996,-119.03380877064419
-0.2947000000000001,-119.64213462958614
-0.29569999999999996,-120.02410668054972
-0.2967000000000001,-120.34949027951868
-0.29769999999999996,-120.77390366947817
-0.2987000000000001,-121.21246417243634
-0.29969999999999997,-121.66517178839315
-0.3007000000000001,-121.99055538736212
-0.30169999999999997,-122.40082166432298
-0.3027000000000001,-122.98085329726763
-0.30369999999999997,-123.57503204321095
-0.3047000000000001,-124.28238769314346
-0.30569999999999997,-124.73509530910029
-0.3067000000000001,-124.91900777808273
-0.3077,-125.18780292505707
-0.3087000000000001,-125.58392208901931
-0.3097,-125.79612878399907
-0.3107000000000001,-126.02248259197746
-0.3117,-126.44689598193698
-0.3127000000000001,-126.9278978238911
-0.3137,-127.45134100484115
-0.3147000000000001,-127.97478418579122
-0.3157,-128.3001677847602
-0.3167000000000001,-128.56896293173452
-0.3177,-128.71043406172103
-0.3187000000000001,-129.0075234346927
-0.3197,-129.24802435566977
-0.3207000000000001,-129.5168195026441
-0.3217,-129.89879155360765
-0.3227000000000001,-130.23832226557528
-0.3237,-130.81835389851994
-0.3247000000000001,-130.87494235051454
-0.3257,-130.84664812451723
-0.3267000000000001,-130.87494235051454
-0.3277,-131.10129615849294
-0.3287000000000001,-131.49741532245514
-0.3297,-131.73791624343224
-0.3307000000000001,-131.95012293841197
-0.3317,-132.23306519838496
-0.3327000000000001,-132.44527189336475
-0.3337,-132.71406704033907
-0.3347000000000001,-132.89797950932152
-0.3357,-132.9687150743148
-0.3367000000000001,-133.11018620430133
-0.3377,-133.3365400122797
-0.3387000000000001,-133.5063053682635
-0.3397,-133.67607072424732
-0.3407000000000001,-133.71851206324328
-0.3417,-133.74680628924057
-0.3427000000000001,-133.88827741922708
-0.3437,-134.00145432321628
-0.3447000000000001,-134.18536679219872
-0.3457,-134.17121967920008
-0.3467000000000001,-134.21366101819604
-0.3477,-134.42586771317576
-0.3487000000000001,-134.56733884316228
-0.3497,-134.6239272951569
-0.3507000000000001,-134.58148595616095
-0.3517,-134.6097801821582
-0.3527000000000001,-134.6239272951569
-0.3537,-134.69466286015015
-0.3547000000000001,-134.72295708614746
-0.3557,-134.89272244213123
-0.35670000000000013,-134.70880997314876
-0.3577,-134.5107503911677
-0.35870000000000013,-134.5956330691596
-0.3597,-134.86442821613394
-0.36070000000000013,-134.8502811031353
-0.3617,-134.77954553814206
-0.3626999999999999,-134.7653984251434
-0.3637,-134.80783976413935
-0.3646999999999999,-134.89272244213123
-0.3657,-134.83613399013663
-0.3666999999999999,-134.75125131214475
-0.3677,-134.55319173016363
-0.3686999999999999,-134.35513214818255
-0.36970000000000003,-134.48245616517042
-0.3706999999999999,-134.55319173016363
-0.37170000000000003,-134.6522215211542
-0.3726999999999999,-134.6239272951569
-0.37370000000000003,-134.539044617165
-0.3746999999999999,-134.5107503911677
-0.37570000000000003,-134.539044617165
-0.3766999999999999,-134.5107503911677
-0.37770000000000004,-134.69466286015015
-0.3786999999999999,-134.7653984251434
-0.37970000000000004,-134.83613399013663
-0.3806999999999999,-134.56733884316228
-0.38170000000000004,-134.56733884316228
-0.38269999999999993,-134.75125131214475
-0.38370000000000004,-135.06248779811506
-0.38469999999999993,-135.18981181510293
-0.38570000000000004,-135.27469449309478
-0.38669999999999993,-133.54874670725948
-0.38570000000000004,-130.05440979659284
-0.38469999999999993,-127.012780501883
-0.38370000000000004,-124.31068191914078
-0.38269999999999993,-121.70761312738911
-0.38170000000000004,-119.21772123962666
-0.3806999999999999,-116.77027069086012
-0.37970000000000004,-114.50673261107607
-0.3786999999999999,-112.22904741829338
-0.37770000000000004,-109.90892088651471
-0.3766999999999999,-107.87173661470905
-0.37570000000000003,-105.87699368189935
-0.3746999999999999,-103.88225074908964
-0.37370000000000003,-101.8167722512867
-0.3726999999999999,-99.80788220547834
-0.37170000000000003,-97.88387483766188
-0.3706999999999999,-96.0871914868333
-0.36970000000000003,-94.30465524900335
-0.3686999999999999,-92.6070016891653
-0.3677,-90.8669067903313
-0.3666999999999999,-89.12681189149731
-0.3657,-87.48574678365387
-0.3646999999999999,-85.78809322381582
-0.3637,-84.20361656796698
-0.3626999999999999,-82.59084568612084
-0.3617,-80.96392769127604
-0.36070000000000013,-79.43603948742181
-0.3597,-78.02132818755678
-0.35870000000000013,-76.60661688769173
-0.3577,-75.14946424883075
-0.35670000000000013,-73.5649875929819
-0.3557,-72.09368784112228
-0.3547000000000001,-70.69312365425588
-0.3537,-69.22182390239624
-0.3527000000000001,-67.93443661951906
-0.3517,-66.50557820665539
-0.3507000000000001,-65.16160247178358
-0.3497,-63.88836230190506
-0.3487000000000001,-62.629269245025185
-0.3477,-61.384323301143944
-0.3467000000000001,-60.15352447026136
-0.3457,-58.894431413381476
-0.3447000000000001,-57.649485469500235
-0.3437,-56.34795107362442
-0.3427000000000001,-55.032269564749924
-0.3417,-53.7873236208687
-0.3407000000000001,-52.65555458097666
-0.3397,-51.566226880080585
-0.3387000000000001,-50.47689917918451
-0.3377,-49.31683591329518
-0.3367000000000001,-48.1709197604045
-0.3357,-47.095739172507066
-0.3347000000000001,-46.091294149602895
-0.3337,-44.98781933570817
-0.3327000000000001,-43.88434452181344
-0.3317,-42.79501682091736
-0.3307000000000001,-41.79057179801318
-0.3297,-40.85686234010226
-0.3287000000000001,-39.86656443019674
-0.3277,-38.84797229429391
-0.3267000000000001,-37.82938015839108
-0.3257,-36.8249351354869
-0.3247000000000001,-35.848784338580025
-0.3237,-34.92922199366775
-0.3227000000000001,-33.93892408376223
-0.3217,-32.97692039985401
-0.3207000000000001,-32.12809361993498
-0.3197,-31.321708179011907
-0.3187000000000001,-30.47288139909289
-0.3177,-29.609907506175215
-0.3167000000000001,-28.718639387260247
-0.3157,-27.869812607341224
-0.3147000000000001,-27.0775742794168
-0.3137,-26.257041725495082
-0.3127000000000001,-25.43650917157336
-0.3117,-24.630123730650286
-0.3107000000000001,-23.83788540272587
-0.3097,-23.059794187800097
-0.3087000000000001,-22.295850085872978
-0.3077,-21.531905983945855
-0.3067000000000001,-20.79625610801604
-0.30569999999999997,-20.07475334508487
-0.3047000000000001,-19.367397695152352
-0.30369999999999997,-18.660042045219836
-0.3027000000000001,-17.924392169290012
-0.30169999999999997,-17.20288940635885
-0.3007000000000001,-16.53797509542228
-0.29969999999999997,-15.88720789748436
-0.2987000000000001,-15.236440699546446
-0.29769999999999996,-14.57152638860988
-0.2967000000000001,-13.908026788973176
-0.29569999999999996,-13.278480260533234
-0.2947000000000001,-12.651763154693022
-0.29369999999999996,-12.032119605352138
-0.29270000000000007,-11.371449428315165
-0.29169999999999996,-10.731999920776168
-0.29070000000000007,-10.139235886132717
-0.28969999999999996,-9.588913190485219
-0.28870000000000007,-9.017369825339744
-0.28769999999999996,-8.428849924595887
-0.28670000000000007,-7.823353488253653
-0.28569999999999995,-7.260298390907368
-0.28470000000000006,-6.729781653457979
-0.28369999999999995,-6.182288380410211
-0.28270000000000006,-5.640453952561901
-0.28169999999999995,-5.083057700415077
-0.28070000000000006,-4.548296829066093
-0.27969999999999995,-4.05314787411333
-0.27870000000000006,-3.550925362661242
-0.27769999999999995,-3.0147497800123935
-0.27670000000000006,-2.4870624651627344
-0.27569999999999995,-1.9777663972113213
-0.27470000000000006,-1.512326379555724
-0.27369999999999994,-1.0324563066415038
-0.27270000000000005,-0.5244334788599692
-0.27169999999999994,-0.022861734605818994
-0.27070000000000005,0.45100996239697366
-0.26969999999999994,0.8963610795944873
-0.26870000000000005,1.3477954553814204
-0.26769999999999994,1.8391246898245475
-0.26670000000000005,2.3328589334774454
