Mar. 16, 2025   02:51:57
Cyclic Voltammetry
File: c:/users/guazh/data/banditlqround7_x0exp891_r5/2025-03-03-exp908\exp908-2025-03-16t02_36_44-h2koh\exp908_cv_sr_500mvs_efin_-1600mv.bin
Data Source:  Experiment
Instrument Model:  CHI760E
Header: CV ran at 500 mVs
Note: 

Init E (V) = -1
High E (V) = -1
Low E (V) = -1.6
Final E (V) = -1
Init P/N = N
Scan Rate (V/s) = 0.5
Segment = 3
Sample Interval (V) = 0.001
Quiet Time (sec) = 2
Sensitivity (A/V) = 0.01
Comp R (ohm) = 1.8

Results:

Channel 1:
Segment 1:

Segment 2:

Segment 3:

Potential/V, Current/A

-1.000, 2.174e-5
-1.001, 3.715e-5
-1.002, 3.715e-5
-1.003, 4.024e-5
-1.004, 4.024e-5
-1.005, 4.024e-5
-1.006, 4.024e-5
-1.007, 4.024e-5
-1.008, 4.332e-5
-1.009, 4.332e-5
-1.010, 4.024e-5
-1.011, 4.024e-5
-1.012, 4.024e-5
-1.013, 4.024e-5
-1.014, 4.332e-5
-1.015, 4.332e-5
-1.016, 4.332e-5
-1.017, 4.332e-5
-1.018, 4.332e-5
-1.019, 4.332e-5
-1.020, 4.024e-5
-1.021, 4.332e-5
-1.022, 4.332e-5
-1.023, 4.332e-5
-1.024, 4.332e-5
-1.025, 4.332e-5
-1.026, 4.332e-5
-1.027, 4.332e-5
-1.028, 4.332e-5
-1.029, 4.332e-5
-1.030, 4.332e-5
-1.031, 4.332e-5
-1.032, 4.332e-5
-1.033, 4.332e-5
-1.034, 4.332e-5
-1.035, 4.332e-5
-1.036, 4.332e-5
-1.037, 4.332e-5
-1.038, 4.332e-5
-1.039, 4.332e-5
-1.040, 4.640e-5
-1.041, 4.640e-5
-1.042, 4.640e-5
-1.043, 4.332e-5
-1.044, 4.332e-5
-1.045, 4.332e-5
-1.046, 4.332e-5
-1.047, 4.332e-5
-1.048, 4.332e-5
-1.049, 4.332e-5
-1.050, 4.640e-5
-1.051, 4.640e-5
-1.052, 4.332e-5
-1.053, 4.332e-5
-1.054, 4.332e-5
-1.055, 4.332e-5
-1.056, 4.332e-5
-1.057, 4.640e-5
-1.058, 4.640e-5
-1.059, 4.640e-5
-1.060, 4.332e-5
-1.061, 4.332e-5
-1.062, 4.332e-5
-1.063, 4.332e-5
-1.064, 4.332e-5
-1.065, 4.332e-5
-1.066, 4.640e-5
-1.067, 4.640e-5
-1.068, 4.640e-5
-1.069, 4.332e-5
-1.070, 4.640e-5
-1.071, 4.332e-5
-1.072, 4.640e-5
-1.073, 4.640e-5
-1.074, 4.640e-5
-1.075, 4.640e-5
-1.076, 4.640e-5
-1.077, 4.640e-5
-1.078, 4.332e-5
-1.079, 4.640e-5
-1.080, 4.332e-5
-1.081, 4.640e-5
-1.082, 4.640e-5
-1.083, 4.640e-5
-1.084, 4.640e-5
-1.085, 4.640e-5
-1.086, 4.332e-5
-1.087, 4.640e-5
-1.088, 4.640e-5
-1.089, 4.640e-5
-1.090, 4.640e-5
-1.091, 4.640e-5
-1.092, 4.640e-5
-1.093, 4.640e-5
-1.094, 4.640e-5
-1.095, 4.332e-5
-1.096, 4.640e-5
-1.097, 4.640e-5
-1.098, 4.640e-5
-1.099, 4.640e-5
-1.100, 4.640e-5
-1.101, 4.640e-5
-1.102, 4.640e-5
-1.103, 4.640e-5
-1.104, 4.332e-5
-1.105, 4.640e-5
-1.106, 4.640e-5
-1.107, 4.640e-5
-1.108, 4.640e-5
-1.109, 4.640e-5
-1.110, 4.640e-5
-1.111, 4.640e-5
-1.112, 4.640e-5
-1.113, 4.640e-5
-1.114, 4.640e-5
-1.115, 4.640e-5
-1.116, 4.640e-5
-1.117, 4.640e-5
-1.118, 4.640e-5
-1.119, 4.640e-5
-1.120, 4.640e-5
-1.121, 4.640e-5
-1.122, 4.640e-5
-1.123, 4.640e-5
-1.124, 4.949e-5
-1.125, 4.640e-5
-1.126, 4.640e-5
-1.127, 4.640e-5
-1.128, 4.640e-5
-1.129, 4.640e-5
-1.130, 4.640e-5
-1.131, 4.640e-5
-1.132, 4.949e-5
-1.133, 4.640e-5
-1.134, 4.640e-5
-1.135, 4.640e-5
-1.136, 4.640e-5
-1.137, 4.640e-5
-1.138, 4.640e-5
-1.139, 4.640e-5
-1.140, 4.640e-5
-1.141, 4.640e-5
-1.142, 4.640e-5
-1.143, 4.640e-5
-1.144, 4.640e-5
-1.145, 4.640e-5
-1.146, 4.640e-5
-1.147, 4.640e-5
-1.148, 4.640e-5
-1.149, 4.640e-5
-1.150, 4.949e-5
-1.151, 4.949e-5
-1.152, 4.640e-5
-1.153, 4.640e-5
-1.154, 4.640e-5
-1.155, 4.640e-5
-1.156, 4.640e-5
-1.157, 4.949e-5
-1.158, 4.949e-5
-1.159, 4.949e-5
-1.160, 4.640e-5
-1.161, 4.640e-5
-1.162, 4.640e-5
-1.163, 4.640e-5
-1.164, 4.640e-5
-1.165, 4.949e-5
-1.166, 4.949e-5
-1.167, 4.949e-5
-1.168, 4.949e-5
-1.169, 4.640e-5
-1.170, 4.640e-5
-1.171, 4.640e-5
-1.172, 4.949e-5
-1.173, 4.949e-5
-1.174, 4.949e-5
-1.175, 4.949e-5
-1.176, 4.949e-5
-1.177, 4.949e-5
-1.178, 4.949e-5
-1.179, 4.949e-5
-1.180, 4.949e-5
-1.181, 4.949e-5
-1.182, 4.949e-5
-1.183, 4.949e-5
-1.184, 4.949e-5
-1.185, 4.949e-5
-1.186, 4.949e-5
-1.187, 4.949e-5
-1.188, 4.949e-5
-1.189, 4.949e-5
-1.190, 4.949e-5
-1.191, 5.257e-5
-1.192, 5.257e-5
-1.193, 4.949e-5
-1.194, 4.949e-5
-1.195, 4.949e-5
-1.196, 4.949e-5
-1.197, 4.949e-5
-1.198, 5.257e-5
-1.199, 5.257e-5
-1.200, 5.257e-5
-1.201, 5.257e-5
-1.202, 5.257e-5
-1.203, 5.257e-5
-1.204, 5.257e-5
-1.205, 5.257e-5
-1.206, 5.257e-5
-1.207, 5.565e-5
-1.208, 5.257e-5
-1.209, 5.565e-5
-1.210, 5.257e-5
-1.211, 5.257e-5
-1.212, 5.257e-5
-1.213, 5.257e-5
-1.214, 5.565e-5
-1.215, 5.565e-5
-1.216, 5.565e-5
-1.217, 5.565e-5
-1.218, 5.565e-5
-1.219, 5.565e-5
-1.220, 5.565e-5
-1.221, 5.565e-5
-1.222, 5.873e-5
-1.223, 5.873e-5
-1.224, 5.873e-5
-1.225, 5.873e-5
-1.226, 5.873e-5
-1.227, 5.873e-5
-1.228, 5.873e-5
-1.229, 5.873e-5
-1.230, 5.873e-5
-1.231, 6.182e-5
-1.232, 6.182e-5
-1.233, 6.182e-5
-1.234, 6.182e-5
-1.235, 6.182e-5
-1.236, 6.490e-5
-1.237, 6.490e-5
-1.238, 6.490e-5
-1.239, 6.490e-5
-1.240, 6.490e-5
-1.241, 6.798e-5
-1.242, 6.798e-5
-1.243, 6.798e-5
-1.244, 6.798e-5
-1.245, 6.798e-5
-1.246, 6.798e-5
-1.247, 6.798e-5
-1.248, 7.107e-5
-1.249, 7.107e-5
-1.250, 7.415e-5
-1.251, 7.415e-5
-1.252, 7.415e-5
-1.253, 7.415e-5
-1.254, 7.415e-5
-1.255, 7.723e-5
-1.256, 7.723e-5
-1.257, 7.723e-5
-1.258, 8.032e-5
-1.259, 8.032e-5
-1.260, 8.032e-5
-1.261, 8.032e-5
-1.262, 8.032e-5
-1.263, 8.340e-5
-1.264, 8.340e-5
-1.265, 8.648e-5
-1.266, 8.648e-5
-1.267, 8.648e-5
-1.268, 8.957e-5
-1.269, 8.957e-5
-1.270, 8.957e-5
-1.271, 9.265e-5
-1.272, 9.265e-5
-1.273, 9.573e-5
-1.274, 9.573e-5
-1.275, 9.882e-5
-1.276, 9.882e-5
-1.277, 9.882e-5
-1.278, 1.019e-4
-1.279, 1.019e-4
-1.280, 1.050e-4
-1.281, 1.050e-4
-1.282, 1.081e-4
-1.283, 1.081e-4
-1.284, 1.111e-4
-1.285, 1.111e-4
-1.286, 1.142e-4
-1.287, 1.142e-4
-1.288, 1.173e-4
-1.289, 1.173e-4
-1.290, 1.204e-4
-1.291, 1.235e-4
-1.292, 1.235e-4
-1.293, 1.266e-4
-1.294, 1.266e-4
-1.295, 1.296e-4
-1.296, 1.327e-4
-1.297, 1.327e-4
-1.298, 1.358e-4
-1.299, 1.389e-4
-1.300, 1.420e-4
-1.301, 1.420e-4
-1.302, 1.451e-4
-1.303, 1.481e-4
-1.304, 1.481e-4
-1.305, 1.512e-4
-1.306, 1.543e-4
-1.307, 1.574e-4
-1.308, 1.605e-4
-1.309, 1.636e-4
-1.310, 1.636e-4
-1.311, 1.666e-4
-1.312, 1.697e-4
-1.313, 1.728e-4
-1.314, 1.759e-4
-1.315, 1.790e-4
-1.316, 1.851e-4
-1.317, 1.851e-4
-1.318, 1.882e-4
-1.319, 1.913e-4
-1.320, 1.944e-4
-1.321, 1.975e-4
-1.322, 2.006e-4
-1.323, 2.067e-4
-1.324, 2.098e-4
-1.325, 2.129e-4
-1.326, 2.160e-4
-1.327, 2.191e-4
-1.328, 2.221e-4
-1.329, 2.252e-4
-1.330, 2.314e-4
-1.331, 2.345e-4
-1.332, 2.406e-4
-1.333, 2.468e-4
-1.334, 2.499e-4
-1.335, 2.530e-4
-1.336, 2.591e-4
-1.337, 2.622e-4
-1.338, 2.653e-4
-1.339, 2.715e-4
-1.340, 2.776e-4
-1.341, 2.838e-4
-1.342, 2.900e-4
-1.343, 2.931e-4
-1.344, 2.961e-4
-1.345, 3.023e-4
-1.346, 3.085e-4
-1.347, 3.115e-4
-1.348, 3.208e-4
-1.349, 3.239e-4
-1.350, 3.300e-4
-1.351, 3.362e-4
-1.352, 3.424e-4
-1.353, 3.485e-4
-1.354, 3.547e-4
-1.355, 3.640e-4
-1.356, 3.701e-4
-1.357, 3.763e-4
-1.358, 3.855e-4
-1.359, 3.917e-4
-1.360, 3.979e-4
-1.361, 4.040e-4
-1.362, 4.133e-4
-1.363, 4.195e-4
-1.364, 4.256e-4
-1.365, 4.349e-4
-1.366, 4.441e-4
-1.367, 4.503e-4
-1.368, 4.595e-4
-1.369, 4.657e-4
-1.370, 4.750e-4
-1.371, 4.811e-4
-1.372, 4.904e-4
-1.373, 4.996e-4
-1.374, 5.120e-4
-1.375, 5.212e-4
-1.376, 5.305e-4
-1.377, 5.366e-4
-1.378, 5.489e-4
-1.379, 5.551e-4
-1.380, 5.674e-4
-1.381, 5.767e-4
-1.382, 5.890e-4
-1.383, 5.983e-4
-1.384, 6.106e-4
-1.385, 6.199e-4
-1.386, 6.291e-4
-1.387, 6.384e-4
-1.388, 6.507e-4
-1.389, 6.599e-4
-1.390, 6.723e-4
-1.391, 6.846e-4
-1.392, 6.969e-4
-1.393, 7.062e-4
-1.394, 7.185e-4
-1.395, 7.309e-4
-1.396, 7.432e-4
-1.397, 7.555e-4
-1.398, 7.679e-4
-1.399, 7.802e-4
-1.400, 7.925e-4
-1.401, 8.079e-4
-1.402, 8.203e-4
-1.403, 8.326e-4
-1.404, 8.449e-4
-1.405, 8.573e-4
-1.406, 8.727e-4
-1.407, 8.850e-4
-1.408, 9.004e-4
-1.409, 9.128e-4
-1.410, 9.282e-4
-1.411, 9.405e-4
-1.412, 9.559e-4
-1.413, 9.713e-4
-1.414, 9.868e-4
-1.415, 1.002e-3
-1.416, 1.014e-3
-1.417, 1.030e-3
-1.418, 1.042e-3
-1.419, 1.055e-3
-1.420, 1.070e-3
-1.421, 1.085e-3
-1.422, 1.098e-3
-1.423, 1.113e-3
-1.424, 1.129e-3
-1.425, 1.144e-3
-1.426, 1.159e-3
-1.427, 1.175e-3
-1.428, 1.190e-3
-1.429, 1.206e-3
-1.430, 1.221e-3
-1.431, 1.243e-3
-1.432, 1.261e-3
-1.433, 1.280e-3
-1.434, 1.298e-3
-1.435, 1.314e-3
-1.436, 1.332e-3
-1.437, 1.347e-3
-1.438, 1.363e-3
-1.439, 1.381e-3
-1.440, 1.400e-3
-1.441, 1.418e-3
-1.442, 1.434e-3
-1.443, 1.452e-3
-1.444, 1.468e-3
-1.445, 1.486e-3
-1.446, 1.505e-3
-1.447, 1.523e-3
-1.448, 1.542e-3
-1.449, 1.560e-3
-1.450, 1.579e-3
-1.451, 1.600e-3
-1.452, 1.619e-3
-1.453, 1.637e-3
-1.454, 1.656e-3
-1.455, 1.677e-3
-1.456, 1.696e-3
-1.457, 1.717e-3
-1.458, 1.739e-3
-1.459, 1.761e-3
-1.460, 1.779e-3
-1.461, 1.798e-3
-1.462, 1.816e-3
-1.463, 1.838e-3
-1.464, 1.859e-3
-1.465, 1.881e-3
-1.466, 1.902e-3
-1.467, 1.924e-3
-1.468, 1.943e-3
-1.469, 1.964e-3
-1.470, 1.986e-3
-1.471, 2.007e-3
-1.472, 2.029e-3
-1.473, 2.050e-3
-1.474, 2.075e-3
-1.475, 2.097e-3
-1.476, 2.121e-3
-1.477, 2.143e-3
-1.478, 2.164e-3
-1.479, 2.189e-3
-1.480, 2.211e-3
-1.481, 2.238e-3
-1.482, 2.263e-3
-1.483, 2.288e-3
-1.484, 2.312e-3
-1.485, 2.340e-3
-1.486, 2.362e-3
-1.487, 2.386e-3
-1.488, 2.411e-3
-1.489, 2.436e-3
-1.490, 2.460e-3
-1.491, 2.485e-3
-1.492, 2.510e-3
-1.493, 2.538e-3
-1.494, 2.562e-3
-1.495, 2.590e-3
-1.496, 2.615e-3
-1.497, 2.642e-3
-1.498, 2.673e-3
-1.499, 2.704e-3
-1.500, 2.735e-3
-1.501, 2.763e-3
-1.502, 2.790e-3
-1.503, 2.815e-3
-1.504, 2.840e-3
-1.505, 2.871e-3
-1.506, 2.895e-3
-1.507, 2.923e-3
-1.508, 2.951e-3
-1.509, 2.978e-3
-1.510, 3.006e-3
-1.511, 3.034e-3
-1.512, 3.062e-3
-1.513, 3.093e-3
-1.514, 3.123e-3
-1.515, 3.154e-3
-1.516, 3.185e-3
-1.517, 3.216e-3
-1.518, 3.247e-3
-1.519, 3.278e-3
-1.520, 3.308e-3
-1.521, 3.342e-3
-1.522, 3.373e-3
-1.523, 3.404e-3
-1.524, 3.441e-3
-1.525, 3.475e-3
-1.526, 3.512e-3
-1.527, 3.546e-3
-1.528, 3.583e-3
-1.529, 3.617e-3
-1.530, 3.651e-3
-1.531, 3.688e-3
-1.532, 3.725e-3
-1.533, 3.765e-3
-1.534, 3.799e-3
-1.535, 3.836e-3
-1.536, 3.869e-3
-1.537, 3.903e-3
-1.538, 3.937e-3
-1.539, 3.971e-3
-1.540, 4.008e-3
-1.541, 4.048e-3
-1.542, 4.082e-3
-1.543, 4.122e-3
-1.544, 4.159e-3
-1.545, 4.196e-3
-1.546, 4.236e-3
-1.547, 4.273e-3
-1.548, 4.313e-3
-1.549, 4.350e-3
-1.550, 4.391e-3
-1.551, 4.434e-3
-1.552, 4.474e-3
-1.553, 4.520e-3
-1.554, 4.563e-3
-1.555, 4.606e-3
-1.556, 4.653e-3
-1.557, 4.699e-3
-1.558, 4.745e-3
-1.559, 4.791e-3
-1.560, 4.838e-3
-1.561, 4.881e-3
-1.562, 4.924e-3
-1.563, 4.967e-3
-1.564, 5.010e-3
-1.565, 5.060e-3
-1.566, 5.103e-3
-1.567, 5.146e-3
-1.568, 5.183e-3
-1.569, 5.220e-3
-1.570, 5.257e-3
-1.571, 5.288e-3
-1.572, 5.322e-3
-1.573, 5.356e-3
-1.574, 5.389e-3
-1.575, 5.426e-3
-1.576, 5.470e-3
-1.577, 5.522e-3
-1.578, 5.578e-3
-1.579, 5.642e-3
-1.580, 5.707e-3
-1.581, 5.775e-3
-1.582, 5.843e-3
-1.583, 5.914e-3
-1.584, 5.981e-3
-1.585, 6.049e-3
-1.586, 6.120e-3
-1.587, 6.188e-3
-1.588, 6.247e-3
-1.589, 6.290e-3
-1.590, 6.296e-3
-1.591, 6.271e-3
-1.592, 6.243e-3
-1.593, 6.231e-3
-1.594, 6.231e-3
-1.595, 6.234e-3
-1.596, 6.277e-3
-1.597, 6.351e-3
-1.598, 6.435e-3
-1.599, 6.530e-3
-1.600, 6.583e-3
-1.599, 6.567e-3
-1.598, 6.558e-3
-1.597, 6.543e-3
-1.596, 6.521e-3
-1.595, 6.493e-3
-1.594, 6.450e-3
-1.593, 6.395e-3
-1.592, 6.327e-3
-1.591, 6.253e-3
-1.590, 6.169e-3
-1.589, 6.086e-3
-1.588, 5.994e-3
-1.587, 5.904e-3
-1.586, 5.821e-3
-1.585, 5.738e-3
-1.584, 5.667e-3
-1.583, 5.608e-3
-1.582, 5.565e-3
-1.581, 5.537e-3
-1.580, 5.513e-3
-1.579, 5.494e-3
-1.578, 5.479e-3
-1.577, 5.460e-3
-1.576, 5.430e-3
-1.575, 5.383e-3
-1.574, 5.325e-3
-1.573, 5.260e-3
-1.572, 5.189e-3
-1.571, 5.118e-3
-1.570, 5.044e-3
-1.569, 4.973e-3
-1.568, 4.908e-3
-1.567, 4.850e-3
-1.566, 4.801e-3
-1.565, 4.764e-3
-1.564, 4.727e-3
-1.563, 4.693e-3
-1.562, 4.649e-3
-1.561, 4.609e-3
-1.560, 4.572e-3
-1.559, 4.535e-3
-1.558, 4.498e-3
-1.557, 4.458e-3
-1.556, 4.415e-3
-1.555, 4.372e-3
-1.554, 4.329e-3
-1.553, 4.286e-3
-1.552, 4.246e-3
-1.551, 4.206e-3
-1.550, 4.162e-3
-1.549, 4.113e-3
-1.548, 4.064e-3
-1.547, 4.021e-3
-1.546, 3.977e-3
-1.545, 3.937e-3
-1.544, 3.900e-3
-1.543, 3.866e-3
-1.542, 3.829e-3
-1.541, 3.795e-3
-1.540, 3.765e-3
-1.539, 3.731e-3
-1.538, 3.694e-3
-1.537, 3.654e-3
-1.536, 3.614e-3
-1.535, 3.570e-3
-1.534, 3.527e-3
-1.533, 3.487e-3
-1.532, 3.447e-3
-1.531, 3.410e-3
-1.530, 3.373e-3
-1.529, 3.339e-3
-1.528, 3.305e-3
-1.527, 3.274e-3
-1.526, 3.247e-3
-1.525, 3.216e-3
-1.524, 3.182e-3
-1.523, 3.148e-3
-1.522, 3.114e-3
-1.521, 3.074e-3
-1.520, 3.037e-3
-1.519, 3.003e-3
-1.518, 2.969e-3
-1.517, 2.932e-3
-1.516, 2.898e-3
-1.515, 2.861e-3
-1.514, 2.830e-3
-1.513, 2.797e-3
-1.512, 2.769e-3
-1.511, 2.738e-3
-1.510, 2.713e-3
-1.509, 2.689e-3
-1.508, 2.661e-3
-1.507, 2.636e-3
-1.506, 2.612e-3
-1.505, 2.584e-3
-1.504, 2.556e-3
-1.503, 2.528e-3
-1.502, 2.497e-3
-1.501, 2.467e-3
-1.500, 2.436e-3
-1.499, 2.408e-3
-1.498, 2.377e-3
-1.497, 2.349e-3
-1.496, 2.322e-3
-1.495, 2.294e-3
-1.494, 2.269e-3
-1.493, 2.245e-3
-1.492, 2.223e-3
-1.491, 2.198e-3
-1.490, 2.174e-3
-1.489, 2.152e-3
-1.488, 2.128e-3
-1.487, 2.106e-3
-1.486, 2.084e-3
-1.485, 2.060e-3
-1.484, 2.038e-3
-1.483, 2.017e-3
-1.482, 1.989e-3
-1.481, 1.964e-3
-1.480, 1.939e-3
-1.479, 1.918e-3
-1.478, 1.893e-3
-1.477, 1.872e-3
-1.476, 1.850e-3
-1.475, 1.832e-3
-1.474, 1.810e-3
-1.473, 1.788e-3
-1.472, 1.767e-3
-1.471, 1.745e-3
-1.470, 1.727e-3
-1.469, 1.708e-3
-1.468, 1.690e-3
-1.467, 1.674e-3
-1.466, 1.653e-3
-1.465, 1.634e-3
-1.464, 1.616e-3
-1.463, 1.594e-3
-1.462, 1.576e-3
-1.461, 1.557e-3
-1.460, 1.539e-3
-1.459, 1.520e-3
-1.458, 1.502e-3
-1.457, 1.480e-3
-1.456, 1.458e-3
-1.455, 1.437e-3
-1.454, 1.418e-3
-1.453, 1.400e-3
-1.452, 1.384e-3
-1.451, 1.369e-3
-1.450, 1.357e-3
-1.449, 1.341e-3
-1.448, 1.326e-3
-1.447, 1.307e-3
-1.446, 1.292e-3
-1.445, 1.277e-3
-1.444, 1.261e-3
-1.443, 1.249e-3
-1.442, 1.233e-3
-1.441, 1.218e-3
-1.440, 1.203e-3
-1.439, 1.187e-3
-1.438, 1.172e-3
-1.437, 1.156e-3
-1.436, 1.141e-3
-1.435, 1.129e-3
-1.434, 1.113e-3
-1.433, 1.098e-3
-1.432, 1.085e-3
-1.431, 1.070e-3
-1.430, 1.055e-3
-1.429, 1.042e-3
-1.428, 1.027e-3
-1.427, 1.014e-3
-1.426, 1.005e-3
-1.425, 9.898e-4
-1.424, 9.775e-4
-1.423, 9.621e-4
-1.422, 9.498e-4
-1.421, 9.374e-4
-1.420, 9.220e-4
-1.419, 9.128e-4
-1.418, 9.004e-4
-1.417, 8.881e-4
-1.416, 8.758e-4
-1.415, 8.634e-4
-1.414, 8.511e-4
-1.413, 8.388e-4
-1.412, 8.264e-4
-1.411, 8.141e-4
-1.410, 8.048e-4
-1.409, 7.925e-4
-1.408, 7.833e-4
-1.407, 7.709e-4
-1.406, 7.586e-4
-1.405, 7.494e-4
-1.404, 7.370e-4
-1.403, 7.278e-4
-1.402, 7.154e-4
-1.401, 7.062e-4
-1.400, 6.969e-4
-1.399, 6.877e-4
-1.398, 6.754e-4
-1.397, 6.661e-4
-1.396, 6.538e-4
-1.395, 6.445e-4
-1.394, 6.353e-4
-1.393, 6.260e-4
-1.392, 6.199e-4
-1.391, 6.106e-4
-1.390, 5.983e-4
-1.389, 5.890e-4
-1.388, 5.798e-4
-1.387, 5.705e-4
-1.386, 5.613e-4
-1.385, 5.551e-4
-1.384, 5.459e-4
-1.383, 5.366e-4
-1.382, 5.274e-4
-1.381, 5.181e-4
-1.380, 5.120e-4
-1.379, 5.027e-4
-1.378, 4.935e-4
-1.377, 4.873e-4
-1.376, 4.811e-4
-1.375, 4.719e-4
-1.374, 4.657e-4
-1.373, 4.565e-4
-1.372, 4.472e-4
-1.371, 4.380e-4
-1.370, 4.318e-4
-1.369, 4.256e-4
-1.368, 4.195e-4
-1.367, 4.133e-4
-1.366, 4.040e-4
-1.365, 3.979e-4
-1.364, 3.917e-4
-1.363, 3.825e-4
-1.362, 3.794e-4
-1.361, 3.732e-4
-1.360, 3.640e-4
-1.359, 3.609e-4
-1.358, 3.547e-4
-1.357, 3.455e-4
-1.356, 3.393e-4
-1.355, 3.331e-4
-1.354, 3.270e-4
-1.353, 3.208e-4
-1.352, 3.146e-4
-1.351, 3.085e-4
-1.350, 3.054e-4
-1.349, 2.992e-4
-1.348, 2.931e-4
-1.347, 2.869e-4
-1.346, 2.807e-4
-1.345, 2.746e-4
-1.344, 2.715e-4
-1.343, 2.653e-4
-1.342, 2.622e-4
-1.341, 2.561e-4
-1.340, 2.499e-4
-1.339, 2.437e-4
-1.338, 2.406e-4
-1.337, 2.345e-4
-1.336, 2.314e-4
-1.335, 2.252e-4
-1.334, 2.221e-4
-1.333, 2.191e-4
-1.332, 2.129e-4
-1.331, 2.067e-4
-1.330, 2.036e-4
-1.329, 1.975e-4
-1.328, 1.944e-4
-1.327, 1.913e-4
-1.326, 1.882e-4
-1.325, 1.851e-4
-1.324, 1.790e-4
-1.323, 1.759e-4
-1.322, 1.697e-4
-1.321, 1.666e-4
-1.320, 1.636e-4
-1.319, 1.605e-4
-1.318, 1.574e-4
-1.317, 1.543e-4
-1.316, 1.481e-4
-1.315, 1.451e-4
-1.314, 1.420e-4
-1.313, 1.389e-4
-1.312, 1.327e-4
-1.311, 1.327e-4
-1.310, 1.296e-4
-1.309, 1.266e-4
-1.308, 1.204e-4
-1.307, 1.173e-4
-1.306, 1.142e-4
-1.305, 1.111e-4
-1.304, 1.111e-4
-1.303, 1.081e-4
-1.302, 1.050e-4
-1.301, 1.019e-4
-1.300, 9.882e-5
-1.299, 9.573e-5
-1.298, 9.265e-5
-1.297, 8.957e-5
-1.296, 8.957e-5
-1.295, 8.648e-5
-1.294, 8.340e-5
-1.293, 8.032e-5
-1.292, 8.032e-5
-1.291, 7.723e-5
-1.290, 7.415e-5
-1.289, 7.107e-5
-1.288, 6.798e-5
-1.287, 6.798e-5
-1.286, 6.490e-5
-1.285, 6.182e-5
-1.284, 6.182e-5
-1.283, 5.873e-5
-1.282, 5.565e-5
-1.281, 5.257e-5
-1.280, 5.257e-5
-1.279, 4.949e-5
-1.278, 4.640e-5
-1.277, 4.640e-5
-1.276, 4.332e-5
-1.275, 4.332e-5
-1.274, 4.024e-5
-1.273, 3.715e-5
-1.272, 3.715e-5
-1.271, 3.407e-5
-1.270, 3.407e-5
-1.269, 3.099e-5
-1.268, 3.099e-5
-1.267, 3.099e-5
-1.266, 2.790e-5
-1.265, 2.482e-5
-1.264, 2.482e-5
-1.263, 2.174e-5
-1.262, 2.174e-5
-1.261, 2.174e-5
-1.260, 1.865e-5
-1.259, 1.865e-5
-1.258, 1.557e-5
-1.257, 1.249e-5
-1.256, 1.249e-5
-1.255, 9.405e-6
-1.254, 9.405e-6
-1.253, 9.405e-6
-1.252, 9.405e-6
-1.251, 9.405e-6
-1.250, 6.322e-6
-1.249, 3.239e-6
-1.248, 3.239e-6
-1.247, 3.239e-6
-1.246, 1.559e-7
-1.245, 1.559e-7
-1.244, 1.559e-7
-1.243, 1.559e-7
-1.242, -2.927e-6
-1.241, -2.927e-6
-1.240, -2.927e-6
-1.239, -6.010e-6
-1.238, -6.010e-6
-1.237, -6.010e-6
-1.236, -6.010e-6
-1.235, -6.010e-6
-1.234, -6.010e-6
-1.233, -9.093e-6
-1.232, -9.093e-6
-1.231, -1.218e-5
-1.230, -1.218e-5
-1.229, -1.526e-5
-1.228, -1.526e-5
-1.227, -1.526e-5
-1.226, -1.526e-5
-1.225, -1.526e-5
-1.224, -1.526e-5
-1.223, -1.834e-5
-1.222, -1.834e-5
-1.221, -1.834e-5
-1.220, -1.834e-5
-1.219, -1.834e-5
-1.218, -1.834e-5
-1.217, -1.834e-5
-1.216, -2.143e-5
-1.215, -2.143e-5
-1.214, -2.451e-5
-1.213, -2.143e-5
-1.212, -2.451e-5
-1.211, -2.451e-5
-1.210, -2.451e-5
-1.209, -2.143e-5
-1.208, -2.451e-5
-1.207, -2.451e-5
-1.206, -2.759e-5
-1.205, -2.759e-5
-1.204, -2.759e-5
-1.203, -2.759e-5
-1.202, -2.759e-5
-1.201, -2.759e-5
-1.200, -2.759e-5
-1.199, -2.759e-5
-1.198, -2.759e-5
-1.197, -2.759e-5
-1.196, -3.068e-5
-1.195, -3.068e-5
-1.194, -3.068e-5
-1.193, -2.759e-5
-1.192, -3.068e-5
-1.191, -3.068e-5
-1.190, -3.068e-5
-1.189, -3.068e-5
-1.188, -3.376e-5
-1.187, -3.376e-5
-1.186, -3.376e-5
-1.185, -3.068e-5
-1.184, -3.068e-5
-1.183, -3.376e-5
-1.182, -3.376e-5
-1.181, -3.376e-5
-1.180, -3.376e-5
-1.179, -3.376e-5
-1.178, -3.376e-5
-1.177, -3.376e-5
-1.176, -3.376e-5
-1.175, -3.376e-5
-1.174, -3.376e-5
-1.173, -3.684e-5
-1.172, -3.684e-5
-1.171, -3.684e-5
-1.170, -3.684e-5
-1.169, -3.684e-5
-1.168, -3.684e-5
-1.167, -3.684e-5
-1.166, -3.684e-5
-1.165, -3.684e-5
-1.164, -3.684e-5
-1.163, -3.992e-5
-1.162, -3.684e-5
-1.161, -3.684e-5
-1.160, -3.684e-5
-1.159, -3.684e-5
-1.158, -3.684e-5
-1.157, -3.992e-5
-1.156, -3.992e-5
-1.155, -3.992e-5
-1.154, -3.992e-5
-1.153, -3.992e-5
-1.152, -3.684e-5
-1.151, -3.684e-5
-1.150, -3.684e-5
-1.149, -3.992e-5
-1.148, -3.992e-5
-1.147, -3.992e-5
-1.146, -3.992e-5
-1.145, -3.992e-5
-1.144, -3.992e-5
-1.143, -3.992e-5
-1.142, -3.684e-5
-1.141, -3.992e-5
-1.140, -3.992e-5
-1.139, -3.992e-5
-1.138, -3.992e-5
-1.137, -4.301e-5
-1.136, -3.992e-5
-1.135, -3.992e-5
-1.134, -3.992e-5
-1.133, -3.992e-5
-1.132, -3.992e-5
-1.131, -4.301e-5
-1.130, -4.301e-5
-1.129, -4.301e-5
-1.128, -3.992e-5
-1.127, -4.301e-5
-1.126, -3.992e-5
-1.125, -3.992e-5
-1.124, -3.992e-5
-1.123, -4.301e-5
-1.122, -4.301e-5
-1.121, -4.301e-5
-1.120, -4.301e-5
-1.119, -4.301e-5
-1.118, -4.301e-5
-1.117, -4.301e-5
-1.116, -4.301e-5
-1.115, -4.301e-5
-1.114, -4.301e-5
-1.113, -4.301e-5
-1.112, -4.301e-5
-1.111, -4.301e-5
-1.110, -4.301e-5
-1.109, -4.301e-5
-1.108, -4.301e-5
-1.107, -4.301e-5
-1.106, -4.609e-5
-1.105, -4.609e-5
-1.104, -4.301e-5
-1.103, -4.609e-5
-1.102, -4.301e-5
-1.101, -4.301e-5
-1.100, -4.609e-5
-1.099, -4.301e-5
-1.098, -4.609e-5
-1.097, -4.609e-5
-1.096, -4.609e-5
-1.095, -4.609e-5
-1.094, -4.609e-5
-1.093, -4.301e-5
-1.092, -4.609e-5
-1.091, -4.609e-5
-1.090, -4.609e-5
-1.089, -4.609e-5
-1.088, -4.609e-5
-1.087, -4.609e-5
-1.086, -4.609e-5
-1.085, -4.609e-5
-1.084, -4.609e-5
-1.083, -4.609e-5
-1.082, -4.609e-5
-1.081, -4.609e-5
-1.080, -4.609e-5
-1.079, -4.917e-5
-1.078, -4.609e-5
-1.077, -4.609e-5
-1.076, -4.609e-5
-1.075, -4.609e-5
-1.074, -4.609e-5
-1.073, -4.917e-5
-1.072, -4.917e-5
-1.071, -4.917e-5
-1.070, -4.917e-5
-1.069, -4.917e-5
-1.068, -4.917e-5
-1.067, -4.609e-5
-1.066, -4.917e-5
-1.065, -4.917e-5
-1.064, -4.917e-5
-1.063, -5.226e-5
-1.062, -4.917e-5
-1.061, -4.917e-5
-1.060, -4.917e-5
-1.059, -4.917e-5
-1.058, -4.917e-5
-1.057, -4.917e-5
-1.056, -4.917e-5
-1.055, -5.226e-5
-1.054, -5.226e-5
-1.053, -4.917e-5
-1.052, -4.917e-5
-1.051, -4.917e-5
-1.050, -4.917e-5
-1.049, -4.917e-5
-1.048, -5.226e-5
-1.047, -5.226e-5
-1.046, -5.226e-5
-1.045, -5.226e-5
-1.044, -5.226e-5
-1.043, -4.917e-5
-1.042, -4.917e-5
-1.041, -5.226e-5
-1.040, -5.226e-5
-1.039, -5.226e-5
-1.038, -5.226e-5
-1.037, -5.226e-5
-1.036, -5.226e-5
-1.035, -5.226e-5
-1.034, -5.226e-5
-1.033, -5.226e-5
-1.032, -5.226e-5
-1.031, -5.226e-5
-1.030, -5.534e-5
-1.029, -5.226e-5
-1.028, -5.534e-5
-1.027, -5.226e-5
-1.026, -5.226e-5
-1.025, -5.226e-5
-1.024, -5.226e-5
-1.023, -5.534e-5
-1.022, -5.534e-5
-1.021, -5.534e-5
-1.020, -5.534e-5
-1.019, -5.534e-5
-1.018, -5.534e-5
-1.017, -5.534e-5
-1.016, -5.534e-5
-1.015, -5.534e-5
-1.014, -5.534e-5
-1.013, -5.842e-5
-1.012, -5.842e-5
-1.011, -5.534e-5
-1.010, -5.534e-5
-1.009, -5.534e-5
-1.008, -5.534e-5
-1.007, -5.534e-5
-1.006, -5.842e-5
-1.005, -5.842e-5
-1.004, -5.842e-5
-1.003, -5.842e-5
-1.002, -5.842e-5
-1.001, -5.534e-5
