Mar. 16, 2025   02:45:18
Cyclic Voltammetry
File: c:/users/guazh/data/banditlqround7_x0exp891_r5/2025-03-03-exp908\exp908-2025-03-16t02_36_44-h2koh\exp908_cv_50mvs_efin_-1500mv.bin
Data Source:  Experiment
Instrument Model:  CHI760E
Header: CV ran at 50 mVs
Note: 

Init E (V) = -1
High E (V) = -1
Low E (V) = -1.5
Final E (V) = -1
Init P/N = N
Scan Rate (V/s) = 0.05
Segment = 7
Sample Interval (V) = 0.001
Quiet Time (sec) = 60
Sensitivity (A/V) = 0.001
Comp R (ohm) = 1.8

Results:

Channel 1:
Segment 1:

Segment 2:

Segment 3:

Segment 4:

Segment 5:

Segment 6:

Segment 7:

Potential/V, Current/A

-1.000, 2.708e-6
-1.001, 3.029e-6
-1.002, 3.078e-6
-1.003, 3.145e-6
-1.004, 3.408e-6
-1.005, 3.570e-6
-1.006, 3.522e-6
-1.007, 3.492e-6
-1.008, 3.497e-6
-1.009, 3.745e-6
-1.010, 3.917e-6
-1.011, 3.813e-6
-1.012, 3.750e-6
-1.013, 3.890e-6
-1.014, 4.036e-6
-1.015, 4.241e-6
-1.016, 4.136e-6
-1.017, 4.000e-6
-1.018, 4.111e-6
-1.019, 4.255e-6
-1.020, 4.390e-6
-1.021, 4.372e-6
-1.022, 4.246e-6
-1.023, 4.284e-6
-1.024, 4.511e-6
-1.025, 4.621e-6
-1.026, 4.581e-6
-1.027, 4.440e-6
-1.028, 4.465e-6
-1.029, 4.667e-6
-1.030, 4.810e-6
-1.031, 4.726e-6
-1.032, 4.659e-6
-1.033, 4.654e-6
-1.034, 4.873e-6
-1.035, 4.933e-6
-1.036, 4.915e-6
-1.037, 4.824e-6
-1.038, 4.766e-6
-1.039, 5.023e-6
-1.040, 5.082e-6
-1.041, 5.070e-6
-1.042, 4.993e-6
-1.043, 4.983e-6
-1.044, 5.117e-6
-1.045, 5.308e-6
-1.046, 5.206e-6
-1.047, 5.098e-6
-1.048, 5.114e-6
-1.049, 5.251e-6
-1.050, 5.435e-6
-1.051, 5.305e-6
-1.052, 5.248e-6
-1.053, 5.230e-6
-1.054, 5.387e-6
-1.055, 5.577e-6
-1.056, 5.421e-6
-1.057, 5.333e-6
-1.058, 5.357e-6
-1.059, 5.543e-6
-1.060, 5.600e-6
-1.061, 5.572e-6
-1.062, 5.492e-6
-1.063, 5.503e-6
-1.064, 5.654e-6
-1.065, 5.756e-6
-1.066, 5.737e-6
-1.067, 5.543e-6
-1.068, 5.571e-6
-1.069, 5.743e-6
-1.070, 5.866e-6
-1.071, 5.828e-6
-1.072, 5.678e-6
-1.073, 5.684e-6
-1.074, 5.850e-6
-1.075, 5.950e-6
-1.076, 5.878e-6
-1.077, 5.833e-6
-1.078, 5.750e-6
-1.079, 5.976e-6
-1.080, 6.042e-6
-1.081, 6.012e-6
-1.082, 5.936e-6
-1.083, 5.879e-6
-1.084, 6.039e-6
-1.085, 6.191e-6
-1.086, 6.125e-6
-1.087, 6.037e-6
-1.088, 5.973e-6
-1.089, 6.206e-6
-1.090, 6.311e-6
-1.091, 6.216e-6
-1.092, 6.100e-6
-1.093, 6.105e-6
-1.094, 6.281e-6
-1.095, 6.443e-6
-1.096, 6.359e-6
-1.097, 6.217e-6
-1.098, 6.285e-6
-1.099, 6.390e-6
-1.100, 6.538e-6
-1.101, 6.527e-6
-1.102, 6.400e-6
-1.103, 6.376e-6
-1.104, 6.489e-6
-1.105, 6.643e-6
-1.106, 6.650e-6
-1.107, 6.479e-6
-1.108, 6.502e-6
-1.109, 6.673e-6
-1.110, 6.839e-6
-1.111, 6.763e-6
-1.112, 6.598e-6
-1.113, 6.627e-6
-1.114, 6.867e-6
-1.115, 6.931e-6
-1.116, 6.920e-6
-1.117, 6.791e-6
-1.118, 6.797e-6
-1.119, 6.998e-6
-1.120, 7.146e-6
-1.121, 7.078e-6
-1.122, 6.984e-6
-1.123, 6.980e-6
-1.124, 7.168e-6
-1.125, 7.321e-6
-1.126, 7.193e-6
-1.127, 7.174e-6
-1.128, 7.162e-6
-1.129, 7.365e-6
-1.130, 7.528e-6
-1.131, 7.418e-6
-1.132, 7.323e-6
-1.133, 7.394e-6
-1.134, 7.568e-6
-1.135, 7.753e-6
-1.136, 7.720e-6
-1.137, 7.624e-6
-1.138, 7.667e-6
-1.139, 7.800e-6
-1.140, 7.982e-6
-1.141, 7.919e-6
-1.142, 7.900e-6
-1.143, 7.890e-6
-1.144, 8.107e-6
-1.145, 8.229e-6
-1.146, 8.257e-6
-1.147, 8.165e-6
-1.148, 8.256e-6
-1.149, 8.423e-6
-1.150, 8.576e-6
-1.151, 8.571e-6
-1.152, 8.537e-6
-1.153, 8.520e-6
-1.154, 8.754e-6
-1.155, 8.929e-6
-1.156, 8.965e-6
-1.157, 8.847e-6
-1.158, 8.932e-6
-1.159, 9.227e-6
-1.160, 9.308e-6
-1.161, 9.371e-6
-1.162, 9.307e-6
-1.163, 9.408e-6
-1.164, 9.587e-6
-1.165, 9.862e-6
-1.166, 9.853e-6
-1.167, 9.834e-6
-1.168, 9.901e-6
-1.169, 1.011e-5
-1.170, 1.036e-5
-1.171, 1.042e-5
-1.172, 1.041e-5
-1.173, 1.054e-5
-1.174, 1.072e-5
-1.175, 1.099e-5
-1.176, 1.104e-5
-1.177, 1.109e-5
-1.178, 1.116e-5
-1.179, 1.141e-5
-1.180, 1.177e-5
-1.181, 1.180e-5
-1.182, 1.177e-5
-1.183, 1.192e-5
-1.184, 1.225e-5
-1.185, 1.248e-5
-1.186, 1.265e-5
-1.187, 1.263e-5
-1.188, 1.283e-5
-1.189, 1.315e-5
-1.190, 1.345e-5
-1.191, 1.360e-5
-1.192, 1.365e-5
-1.193, 1.382e-5
-1.194, 1.422e-5
-1.195, 1.456e-5
-1.196, 1.468e-5
-1.197, 1.481e-5
-1.198, 1.498e-5
-1.199, 1.538e-5
-1.200, 1.579e-5
-1.201, 1.594e-5
-1.202, 1.609e-5
-1.203, 1.632e-5
-1.204, 1.678e-5
-1.205, 1.721e-5
-1.206, 1.737e-5
-1.207, 1.759e-5
-1.208, 1.787e-5
-1.209, 1.833e-5
-1.210, 1.885e-5
-1.211, 1.909e-5
-1.212, 1.929e-5
-1.213, 1.965e-5
-1.214, 2.017e-5
-1.215, 2.070e-5
-1.216, 2.103e-5
-1.217, 2.129e-5
-1.218, 2.168e-5
-1.219, 2.224e-5
-1.220, 2.280e-5
-1.221, 2.320e-5
-1.222, 2.352e-5
-1.223, 2.401e-5
-1.224, 2.460e-5
-1.225, 2.524e-5
-1.226, 2.575e-5
-1.227, 2.609e-5
-1.228, 2.673e-5
-1.229, 2.739e-5
-1.230, 2.803e-5
-1.231, 2.864e-5
-1.232, 2.904e-5
-1.233, 2.968e-5
-1.234, 3.041e-5
-1.235, 3.125e-5
-1.236, 3.180e-5
-1.237, 3.240e-5
-1.238, 3.308e-5
-1.239, 3.396e-5
-1.240, 3.479e-5
-1.241, 3.554e-5
-1.242, 3.623e-5
-1.243, 3.700e-5
-1.244, 3.793e-5
-1.245, 3.894e-5
-1.246, 3.970e-5
-1.247, 4.052e-5
-1.248, 4.137e-5
-1.249, 4.242e-5
-1.250, 4.355e-5
-1.251, 4.448e-5
-1.252, 4.533e-5
-1.253, 4.634e-5
-1.254, 4.750e-5
-1.255, 4.876e-5
-1.256, 4.978e-5
-1.257, 5.079e-5
-1.258, 5.198e-5
-1.259, 5.326e-5
-1.260, 5.464e-5
-1.261, 5.583e-5
-1.262, 5.700e-5
-1.263, 5.829e-5
-1.264, 5.973e-5
-1.265, 6.119e-5
-1.266, 6.262e-5
-1.267, 6.397e-5
-1.268, 6.534e-5
-1.269, 6.699e-5
-1.270, 6.870e-5
-1.271, 7.025e-5
-1.272, 7.173e-5
-1.273, 7.328e-5
-1.274, 7.515e-5
-1.275, 7.707e-5
-1.276, 7.880e-5
-1.277, 8.047e-5
-1.278, 8.227e-5
-1.279, 8.427e-5
-1.280, 8.645e-5
-1.281, 8.839e-5
-1.282, 9.027e-5
-1.283, 9.230e-5
-1.284, 9.447e-5
-1.285, 9.685e-5
-1.286, 9.901e-5
-1.287, 1.012e-4
-1.288, 1.034e-4
-1.289, 1.058e-4
-1.290, 1.084e-4
-1.291, 1.108e-4
-1.292, 1.132e-4
-1.293, 1.157e-4
-1.294, 1.184e-4
-1.295, 1.212e-4
-1.296, 1.238e-4
-1.297, 1.264e-4
-1.298, 1.292e-4
-1.299, 1.321e-4
-1.300, 1.353e-4
-1.301, 1.383e-4
-1.302, 1.412e-4
-1.303, 1.443e-4
-1.304, 1.476e-4
-1.305, 1.510e-4
-1.306, 1.543e-4
-1.307, 1.575e-4
-1.308, 1.609e-4
-1.309, 1.645e-4
-1.310, 1.683e-4
-1.311, 1.719e-4
-1.312, 1.754e-4
-1.313, 1.791e-4
-1.314, 1.831e-4
-1.315, 1.871e-4
-1.316, 1.911e-4
-1.317, 1.950e-4
-1.318, 1.991e-4
-1.319, 2.034e-4
-1.320, 2.078e-4
-1.321, 2.121e-4
-1.322, 2.164e-4
-1.323, 2.207e-4
-1.324, 2.255e-4
-1.325, 2.303e-4
-1.326, 2.349e-4
-1.327, 2.397e-4
-1.328, 2.443e-4
-1.329, 2.495e-4
-1.330, 2.547e-4
-1.331, 2.598e-4
-1.332, 2.649e-4
-1.333, 2.701e-4
-1.334, 2.755e-4
-1.335, 2.810e-4
-1.336, 2.866e-4
-1.337, 2.921e-4
-1.338, 2.977e-4
-1.339, 3.035e-4
-1.340, 3.096e-4
-1.341, 3.156e-4
-1.342, 3.216e-4
-1.343, 3.278e-4
-1.344, 3.341e-4
-1.345, 3.408e-4
-1.346, 3.472e-4
-1.347, 3.535e-4
-1.348, 3.600e-4
-1.349, 3.669e-4
-1.350, 3.740e-4
-1.351, 3.810e-4
-1.352, 3.878e-4
-1.353, 3.950e-4
-1.354, 4.025e-4
-1.355, 4.101e-4
-1.356, 4.174e-4
-1.357, 4.249e-4
-1.358, 4.325e-4
-1.359, 4.404e-4
-1.360, 4.483e-4
-1.361, 4.565e-4
-1.362, 4.644e-4
-1.363, 4.725e-4
-1.364, 4.811e-4
-1.365, 4.898e-4
-1.366, 4.987e-4
-1.367, 5.073e-4
-1.368, 5.158e-4
-1.369, 5.245e-4
-1.370, 5.340e-4
-1.371, 5.432e-4
-1.372, 5.525e-4
-1.373, 5.618e-4
-1.374, 5.715e-4
-1.375, 5.815e-4
-1.376, 5.913e-4
-1.377, 6.011e-4
-1.378, 6.110e-4
-1.379, 6.215e-4
-1.380, 6.323e-4
-1.381, 6.429e-4
-1.382, 6.534e-4
-1.383, 6.643e-4
-1.384, 6.752e-4
-1.385, 6.862e-4
-1.386, 6.974e-4
-1.387, 7.086e-4
-1.388, 7.202e-4
-1.389, 7.322e-4
-1.390, 7.446e-4
-1.391, 7.560e-4
-1.392, 7.673e-4
-1.393, 7.794e-4
-1.394, 7.923e-4
-1.395, 8.054e-4
-1.396, 8.184e-4
-1.397, 8.310e-4
-1.398, 8.437e-4
-1.399, 8.569e-4
-1.400, 8.704e-4
-1.401, 8.841e-4
-1.402, 8.976e-4
-1.403, 9.111e-4
-1.404, 9.255e-4
-1.405, 9.398e-4
-1.406, 9.543e-4
-1.407, 9.689e-4
-1.408, 9.834e-4
-1.409, 9.987e-4
-1.410, 1.014e-3
-1.411, 1.030e-3
-1.412, 1.045e-3
-1.413, 1.061e-3
-1.414, 1.077e-3
-1.415, 1.093e-3
-1.416, 1.109e-3
-1.417, 1.126e-3
-1.418, 1.143e-3
-1.419, 1.160e-3
-1.420, 1.178e-3
-1.421, 1.196e-3
-1.422, 1.213e-3
-1.423, 1.231e-3
-1.424, 1.248e-3
-1.425, 1.266e-3
-1.426, 1.285e-3
-1.427, 1.303e-3
-1.428, 1.321e-3
-1.429, 1.339e-3
-1.430, 1.359e-3
-1.431, 1.379e-3
-1.432, 1.398e-3
-1.433, 1.417e-3
-1.434, 1.438e-3
-1.435, 1.459e-3
-1.436, 1.480e-3
-1.437, 1.500e-3
-1.438, 1.519e-3
-1.439, 1.541e-3
-1.440, 1.563e-3
-1.441, 1.586e-3
-1.442, 1.607e-3
-1.443, 1.630e-3
-1.444, 1.653e-3
-1.445, 1.675e-3
-1.446, 1.699e-3
-1.447, 1.724e-3
-1.448, 1.748e-3
-1.449, 1.772e-3
-1.450, 1.796e-3
-1.451, 1.821e-3
-1.452, 1.843e-3
-1.453, 1.868e-3
-1.454, 1.894e-3
-1.455, 1.922e-3
-1.456, 1.949e-3
-1.457, 1.974e-3
-1.458, 1.999e-3
-1.459, 2.022e-3
-1.460, 2.052e-3
-1.461, 2.081e-3
-1.462, 2.108e-3
-1.463, 2.136e-3
-1.464, 2.164e-3
-1.465, 2.191e-3
-1.466, 2.219e-3
-1.467, 2.249e-3
-1.468, 2.277e-3
-1.469, 2.309e-3
-1.470, 2.343e-3
-1.471, 2.374e-3
-1.472, 2.403e-3
-1.473, 2.437e-3
-1.474, 2.469e-3
-1.475, 2.501e-3
-1.476, 2.533e-3
-1.477, 2.563e-3
-1.478, 2.595e-3
-1.479, 2.627e-3
-1.480, 2.660e-3
-1.481, 2.692e-3
-1.482, 2.726e-3
-1.483, 2.764e-3
-1.484, 2.805e-3
-1.485, 2.842e-3
-1.486, 2.877e-3
-1.487, 2.912e-3
-1.488, 2.951e-3
-1.489, 2.989e-3
-1.490, 3.025e-3
-1.491, 3.063e-3
-1.492, 3.105e-3
-1.493, 3.142e-3
-1.494, 3.181e-3
-1.495, 3.220e-3
-1.496, 3.261e-3
-1.497, 3.302e-3
-1.498, 3.341e-3
-1.499, 3.381e-3
-1.500, 3.385e-3
-1.499, 3.344e-3
-1.498, 3.303e-3
-1.497, 3.260e-3
-1.496, 3.216e-3
-1.495, 3.172e-3
-1.494, 3.130e-3
-1.493, 3.090e-3
-1.492, 3.052e-3
-1.491, 3.012e-3
-1.490, 2.972e-3
-1.489, 2.933e-3
-1.488, 2.895e-3
-1.487, 2.857e-3
-1.486, 2.820e-3
-1.485, 2.788e-3
-1.484, 2.748e-3
-1.483, 2.711e-3
-1.482, 2.678e-3
-1.481, 2.638e-3
-1.480, 2.606e-3
-1.479, 2.571e-3
-1.478, 2.536e-3
-1.477, 2.502e-3
-1.476, 2.468e-3
-1.475, 2.435e-3
-1.474, 2.405e-3
-1.473, 2.373e-3
-1.472, 2.340e-3
-1.471, 2.309e-3
-1.470, 2.279e-3
-1.469, 2.250e-3
-1.468, 2.220e-3
-1.467, 2.190e-3
-1.466, 2.157e-3
-1.465, 2.127e-3
-1.464, 2.099e-3
-1.463, 2.072e-3
-1.462, 2.044e-3
-1.461, 2.014e-3
-1.460, 1.988e-3
-1.459, 1.961e-3
-1.458, 1.934e-3
-1.457, 1.907e-3
-1.456, 1.882e-3
-1.455, 1.857e-3
-1.454, 1.830e-3
-1.453, 1.802e-3
-1.452, 1.777e-3
-1.451, 1.752e-3
-1.450, 1.727e-3
-1.449, 1.704e-3
-1.448, 1.680e-3
-1.447, 1.655e-3
-1.446, 1.629e-3
-1.445, 1.607e-3
-1.444, 1.585e-3
-1.443, 1.563e-3
-1.442, 1.541e-3
-1.441, 1.520e-3
-1.440, 1.499e-3
-1.439, 1.479e-3
-1.438, 1.457e-3
-1.437, 1.436e-3
-1.436, 1.415e-3
-1.435, 1.395e-3
-1.434, 1.375e-3
-1.433, 1.355e-3
-1.432, 1.335e-3
-1.431, 1.316e-3
-1.430, 1.297e-3
-1.429, 1.278e-3
-1.428, 1.259e-3
-1.427, 1.241e-3
-1.426, 1.223e-3
-1.425, 1.206e-3
-1.424, 1.189e-3
-1.423, 1.171e-3
-1.422, 1.154e-3
-1.421, 1.138e-3
-1.420, 1.121e-3
-1.419, 1.105e-3
-1.418, 1.089e-3
-1.417, 1.073e-3
-1.416, 1.058e-3
-1.415, 1.043e-3
-1.414, 1.027e-3
-1.413, 1.012e-3
-1.412, 9.967e-4
-1.411, 9.819e-4
-1.410, 9.679e-4
-1.409, 9.544e-4
-1.408, 9.402e-4
-1.407, 9.261e-4
-1.406, 9.126e-4
-1.405, 8.996e-4
-1.404, 8.868e-4
-1.403, 8.739e-4
-1.402, 8.609e-4
-1.401, 8.479e-4
-1.400, 8.349e-4
-1.399, 8.229e-4
-1.398, 8.110e-4
-1.397, 7.993e-4
-1.396, 7.875e-4
-1.395, 7.759e-4
-1.394, 7.647e-4
-1.393, 7.535e-4
-1.392, 7.425e-4
-1.391, 7.316e-4
-1.390, 7.208e-4
-1.389, 7.101e-4
-1.388, 6.997e-4
-1.387, 6.893e-4
-1.386, 6.788e-4
-1.385, 6.687e-4
-1.384, 6.589e-4
-1.383, 6.487e-4
-1.382, 6.389e-4
-1.381, 6.294e-4
-1.380, 6.199e-4
-1.379, 6.110e-4
-1.378, 6.016e-4
-1.377, 5.926e-4
-1.376, 5.838e-4
-1.375, 5.750e-4
-1.374, 5.664e-4
-1.373, 5.581e-4
-1.372, 5.496e-4
-1.371, 5.412e-4
-1.370, 5.330e-4
-1.369, 5.250e-4
-1.368, 5.169e-4
-1.367, 5.088e-4
-1.366, 5.011e-4
-1.365, 4.938e-4
-1.364, 4.861e-4
-1.363, 4.785e-4
-1.362, 4.709e-4
-1.361, 4.635e-4
-1.360, 4.563e-4
-1.359, 4.493e-4
-1.358, 4.420e-4
-1.357, 4.351e-4
-1.356, 4.283e-4
-1.355, 4.217e-4
-1.354, 4.151e-4
-1.353, 4.083e-4
-1.352, 4.015e-4
-1.351, 3.949e-4
-1.350, 3.887e-4
-1.349, 3.825e-4
-1.348, 3.759e-4
-1.347, 3.697e-4
-1.346, 3.636e-4
-1.345, 3.577e-4
-1.344, 3.520e-4
-1.343, 3.458e-4
-1.342, 3.398e-4
-1.341, 3.343e-4
-1.340, 3.288e-4
-1.339, 3.232e-4
-1.338, 3.176e-4
-1.337, 3.121e-4
-1.336, 3.069e-4
-1.335, 3.017e-4
-1.334, 2.966e-4
-1.333, 2.914e-4
-1.332, 2.862e-4
-1.331, 2.812e-4
-1.330, 2.765e-4
-1.329, 2.718e-4
-1.328, 2.669e-4
-1.327, 2.622e-4
-1.326, 2.576e-4
-1.325, 2.531e-4
-1.324, 2.486e-4
-1.323, 2.439e-4
-1.322, 2.394e-4
-1.321, 2.351e-4
-1.320, 2.310e-4
-1.319, 2.269e-4
-1.318, 2.224e-4
-1.317, 2.181e-4
-1.316, 2.141e-4
-1.315, 2.103e-4
-1.314, 2.067e-4
-1.313, 2.026e-4
-1.312, 1.986e-4
-1.311, 1.949e-4
-1.310, 1.915e-4
-1.309, 1.880e-4
-1.308, 1.842e-4
-1.307, 1.805e-4
-1.306, 1.771e-4
-1.305, 1.736e-4
-1.304, 1.704e-4
-1.303, 1.669e-4
-1.302, 1.634e-4
-1.301, 1.603e-4
-1.300, 1.573e-4
-1.299, 1.541e-4
-1.298, 1.509e-4
-1.297, 1.476e-4
-1.296, 1.448e-4
-1.295, 1.419e-4
-1.294, 1.391e-4
-1.293, 1.361e-4
-1.292, 1.332e-4
-1.291, 1.304e-4
-1.290, 1.278e-4
-1.289, 1.252e-4
-1.288, 1.224e-4
-1.287, 1.198e-4
-1.286, 1.172e-4
-1.285, 1.149e-4
-1.284, 1.125e-4
-1.283, 1.099e-4
-1.282, 1.074e-4
-1.281, 1.051e-4
-1.280, 1.029e-4
-1.279, 1.007e-4
-1.278, 9.830e-5
-1.277, 9.596e-5
-1.276, 9.383e-5
-1.275, 9.181e-5
-1.274, 8.978e-5
-1.273, 8.750e-5
-1.272, 8.539e-5
-1.271, 8.342e-5
-1.270, 8.156e-5
-1.269, 7.975e-5
-1.268, 7.768e-5
-1.267, 7.571e-5
-1.266, 7.396e-5
-1.265, 7.227e-5
-1.264, 7.061e-5
-1.263, 6.869e-5
-1.262, 6.680e-5
-1.261, 6.526e-5
-1.260, 6.378e-5
-1.259, 6.222e-5
-1.258, 6.047e-5
-1.257, 5.888e-5
-1.256, 5.746e-5
-1.255, 5.610e-5
-1.254, 5.465e-5
-1.253, 5.311e-5
-1.252, 5.165e-5
-1.251, 5.027e-5
-1.250, 4.896e-5
-1.249, 4.779e-5
-1.248, 4.636e-5
-1.247, 4.493e-5
-1.246, 4.372e-5
-1.245, 4.267e-5
-1.244, 4.159e-5
-1.243, 4.015e-5
-1.242, 3.896e-5
-1.241, 3.789e-5
-1.240, 3.695e-5
-1.239, 3.596e-5
-1.238, 3.463e-5
-1.237, 3.364e-5
-1.236, 3.266e-5
-1.235, 3.178e-5
-1.234, 3.087e-5
-1.233, 2.977e-5
-1.232, 2.875e-5
-1.231, 2.795e-5
-1.230, 2.719e-5
-1.229, 2.628e-5
-1.228, 2.539e-5
-1.227, 2.440e-5
-1.226, 2.372e-5
-1.225, 2.304e-5
-1.224, 2.235e-5
-1.223, 2.145e-5
-1.222, 2.058e-5
-1.221, 1.999e-5
-1.220, 1.942e-5
-1.219, 1.878e-5
-1.218, 1.801e-5
-1.217, 1.725e-5
-1.216, 1.668e-5
-1.215, 1.618e-5
-1.214, 1.561e-5
-1.213, 1.496e-5
-1.212, 1.428e-5
-1.211, 1.370e-5
-1.210, 1.336e-5
-1.209, 1.287e-5
-1.208, 1.225e-5
-1.207, 1.164e-5
-1.206, 1.119e-5
-1.205, 1.086e-5
-1.204, 1.048e-5
-1.203, 9.823e-6
-1.202, 9.305e-6
-1.201, 8.965e-6
-1.200, 8.670e-6
-1.199, 8.435e-6
-1.198, 7.748e-6
-1.197, 7.331e-6
-1.196, 6.977e-6
-1.195, 6.764e-6
-1.194, 6.520e-6
-1.193, 5.983e-6
-1.192, 5.543e-6
-1.191, 5.288e-6
-1.190, 5.070e-6
-1.189, 4.927e-6
-1.188, 4.436e-6
-1.187, 3.969e-6
-1.186, 3.844e-6
-1.185, 3.674e-6
-1.184, 3.504e-6
-1.183, 3.094e-6
-1.182, 2.657e-6
-1.181, 2.522e-6
-1.180, 2.455e-6
-1.179, 2.232e-6
-1.178, 1.879e-6
-1.177, 1.521e-6
-1.176, 1.387e-6
-1.175, 1.424e-6
-1.174, 1.214e-6
-1.173, 8.996e-7
-1.172, 6.154e-7
-1.171, 4.526e-7
-1.170, 4.842e-7
-1.169, 3.007e-7
-1.168, 4.815e-8
-1.167, -2.429e-7
-1.166, -3.475e-7
-1.165, -3.031e-7
-1.164, -4.274e-7
-1.163, -7.530e-7
-1.162, -9.365e-7
-1.161, -1.039e-6
-1.160, -9.976e-7
-1.159, -1.054e-6
-1.158, -1.422e-6
-1.157, -1.569e-6
-1.156, -1.597e-6
-1.155, -1.619e-6
-1.154, -1.639e-6
-1.153, -1.937e-6
-1.152, -2.079e-6
-1.151, -2.150e-6
-1.150, -2.130e-6
-1.149, -2.120e-6
-1.148, -2.334e-6
-1.147, -2.571e-6
-1.146, -2.612e-6
-1.145, -2.515e-6
-1.144, -2.522e-6
-1.143, -2.725e-6
-1.142, -2.998e-6
-1.141, -2.915e-6
-1.140, -2.885e-6
-1.139, -2.922e-6
-1.138, -3.112e-6
-1.137, -3.285e-6
-1.136, -3.258e-6
-1.135, -3.197e-6
-1.134, -3.216e-6
-1.133, -3.398e-6
-1.132, -3.530e-6
-1.131, -3.550e-6
-1.130, -3.422e-6
-1.129, -3.498e-6
-1.128, -3.649e-6
-1.127, -3.797e-6
-1.126, -3.836e-6
-1.125, -3.669e-6
-1.124, -3.659e-6
-1.123, -3.924e-6
-1.122, -3.998e-6
-1.121, -4.015e-6
-1.120, -3.916e-6
-1.119, -3.850e-6
-1.118, -4.058e-6
-1.117, -4.177e-6
-1.116, -4.130e-6
-1.115, -4.131e-6
-1.114, -4.040e-6
-1.113, -4.259e-6
-1.112, -4.325e-6
-1.111, -4.336e-6
-1.110, -4.251e-6
-1.109, -4.175e-6
-1.108, -4.322e-6
-1.107, -4.521e-6
-1.106, -4.460e-6
-1.105, -4.397e-6
-1.104, -4.298e-6
-1.103, -4.486e-6
-1.102, -4.660e-6
-1.101, -4.551e-6
-1.100, -4.473e-6
-1.099, -4.514e-6
-1.098, -4.575e-6
-1.097, -4.771e-6
-1.096, -4.702e-6
-1.095, -4.593e-6
-1.094, -4.579e-6
-1.093, -4.695e-6
-1.092, -4.908e-6
-1.091, -4.906e-6
-1.090, -4.685e-6
-1.089, -4.706e-6
-1.088, -4.913e-6
-1.087, -5.022e-6
-1.086, -5.020e-6
-1.085, -4.880e-6
-1.084, -4.819e-6
-1.083, -5.009e-6
-1.082, -5.160e-6
-1.081, -5.141e-6
-1.080, -5.050e-6
-1.079, -4.935e-6
-1.078, -5.188e-6
-1.077, -5.282e-6
-1.076, -5.277e-6
-1.075, -5.178e-6
-1.074, -5.089e-6
-1.073, -5.318e-6
-1.072, -5.389e-6
-1.071, -5.377e-6
-1.070, -5.338e-6
-1.069, -5.260e-6
-1.068, -5.433e-6
-1.067, -5.610e-6
-1.066, -5.550e-6
-1.065, -5.465e-6
-1.064, -5.395e-6
-1.063, -5.593e-6
-1.062, -5.775e-6
-1.061, -5.711e-6
-1.060, -5.667e-6
-1.059, -5.604e-6
-1.058, -5.800e-6
-1.057, -5.963e-6
-1.056, -5.872e-6
-1.055, -5.809e-6
-1.054, -5.799e-6
-1.053, -5.949e-6
-1.052, -6.104e-6
-1.051, -6.187e-6
-1.050, -5.987e-6
-1.049, -6.032e-6
-1.048, -6.169e-6
-1.047, -6.304e-6
-1.046, -6.346e-6
-1.045, -6.237e-6
-1.044, -6.184e-6
-1.043, -6.456e-6
-1.042, -6.567e-6
-1.041, -6.572e-6
-1.040, -6.486e-6
-1.039, -6.466e-6
-1.038, -6.616e-6
-1.037, -6.843e-6
-1.036, -6.820e-6
-1.035, -6.752e-6
-1.034, -6.718e-6
-1.033, -6.933e-6
-1.032, -7.070e-6
-1.031, -7.091e-6
-1.030, -7.028e-6
-1.029, -6.965e-6
-1.028, -7.239e-6
-1.027, -7.433e-6
-1.026, -7.398e-6
-1.025, -7.321e-6
-1.024, -7.341e-6
-1.023, -7.558e-6
-1.022, -7.685e-6
-1.021, -7.650e-6
-1.020, -7.638e-6
-1.019, -7.642e-6
-1.018, -7.837e-6
-1.017, -8.033e-6
-1.016, -8.031e-6
-1.015, -7.971e-6
-1.014, -7.946e-6
-1.013, -8.165e-6
-1.012, -8.344e-6
-1.011, -8.431e-6
-1.010, -8.280e-6
-1.009, -8.274e-6
-1.008, -8.522e-6
-1.007, -8.714e-6
-1.006, -8.782e-6
-1.005, -8.641e-6
-1.004, -8.681e-6
-1.003, -8.937e-6
-1.002, -9.091e-6
-1.001, -9.128e-6
-1.000, -3.499e-6
-1.001, -2.271e-6
-1.002, -2.046e-6
-1.003, -1.869e-6
-1.004, -1.518e-6
-1.005, -1.047e-6
-1.006, -8.171e-7
-1.007, -7.500e-7
-1.008, -6.819e-7
-1.009, -4.205e-7
-1.010, -8.603e-8
-1.011, 1.162e-7
-1.012, 1.665e-7
-1.013, 1.932e-7
-1.014, 4.112e-7
-1.015, 6.993e-7
-1.016, 7.901e-7
-1.017, 8.611e-7
-1.018, 9.055e-7
-1.019, 9.607e-7
-1.020, 1.321e-6
-1.021, 1.494e-6
-1.022, 1.408e-6
-1.023, 1.408e-6
-1.024, 1.568e-6
-1.025, 1.800e-6
-1.026, 2.001e-6
-1.027, 1.924e-6
-1.028, 1.880e-6
-1.029, 2.022e-6
-1.030, 2.247e-6
-1.031, 2.450e-6
-1.032, 2.279e-6
-1.033, 2.294e-6
-1.034, 2.482e-6
-1.035, 2.593e-6
-1.036, 2.754e-6
-1.037, 2.680e-6
-1.038, 2.615e-6
-1.039, 2.745e-6
-1.040, 2.967e-6
-1.041, 3.031e-6
-1.042, 3.069e-6
-1.043, 2.928e-6
-1.044, 3.039e-6
-1.045, 3.242e-6
-1.046, 3.307e-6
-1.047, 3.299e-6
-1.048, 3.174e-6
-1.049, 3.279e-6
-1.050, 3.542e-6
-1.051, 3.610e-6
-1.052, 3.481e-6
-1.053, 3.458e-6
-1.054, 3.508e-6
-1.055, 3.737e-6
-1.056, 3.864e-6
-1.057, 3.706e-6
-1.058, 3.634e-6
-1.059, 3.743e-6
-1.060, 3.878e-6
-1.061, 4.058e-6
-1.062, 3.873e-6
-1.063, 3.888e-6
-1.064, 3.928e-6
-1.065, 4.112e-6
-1.066, 4.221e-6
-1.067, 4.064e-6
-1.068, 4.019e-6
-1.069, 4.121e-6
-1.070, 4.255e-6
-1.071, 4.339e-6
-1.072, 4.249e-6
-1.073, 4.170e-6
-1.074, 4.270e-6
-1.075, 4.407e-6
-1.076, 4.494e-6
-1.077, 4.443e-6
-1.078, 4.237e-6
-1.079, 4.414e-6
-1.080, 4.530e-6
-1.081, 4.637e-6
-1.082, 4.508e-6
-1.083, 4.378e-6
-1.084, 4.529e-6
-1.085, 4.645e-6
-1.086, 4.770e-6
-1.087, 4.661e-6
-1.088, 4.562e-6
-1.089, 4.625e-6
-1.090, 4.819e-6
-1.091, 4.823e-6
-1.092, 4.751e-6
-1.093, 4.678e-6
-1.094, 4.732e-6
-1.095, 4.943e-6
-1.096, 5.018e-6
-1.097, 4.897e-6
-1.098, 4.814e-6
-1.099, 4.876e-6
-1.100, 4.998e-6
-1.101, 5.174e-6
-1.102, 5.006e-6
-1.103, 4.927e-6
-1.104, 4.958e-6
-1.105, 5.151e-6
-1.106, 5.276e-6
-1.107, 5.137e-6
-1.108, 5.041e-6
-1.109, 5.149e-6
-1.110, 5.286e-6
-1.111, 5.395e-6
-1.112, 5.242e-6
-1.113, 5.192e-6
-1.114, 5.339e-6
-1.115, 5.397e-6
-1.116, 5.499e-6
-1.117, 5.498e-6
-1.118, 5.337e-6
-1.119, 5.454e-6
-1.120, 5.596e-6
-1.121, 5.698e-6
-1.122, 5.604e-6
-1.123, 5.499e-6
-1.124, 5.593e-6
-1.125, 5.804e-6
-1.126, 5.868e-6
-1.127, 5.771e-6
-1.128, 5.726e-6
-1.129, 5.795e-6
-1.130, 6.016e-6
-1.131, 6.100e-6
-1.132, 5.974e-6
-1.133, 5.905e-6
-1.134, 6.003e-6
-1.135, 6.225e-6
-1.136, 6.269e-6
-1.137, 6.195e-6
-1.138, 6.200e-6
-1.139, 6.213e-6
-1.140, 6.381e-6
-1.141, 6.607e-6
-1.142, 6.490e-6
-1.143, 6.419e-6
-1.144, 6.553e-6
-1.145, 6.673e-6
-1.146, 6.904e-6
-1.147, 6.789e-6
-1.148, 6.731e-6
-1.149, 6.877e-6
-1.150, 7.041e-6
-1.151, 7.216e-6
-1.152, 7.153e-6
-1.153, 7.079e-6
-1.154, 7.285e-6
-1.155, 7.416e-6
-1.156, 7.601e-6
-1.157, 7.574e-6
-1.158, 7.471e-6
-1.159, 7.702e-6
-1.160, 7.858e-6
-1.161, 8.063e-6
-1.162, 8.039e-6
-1.163, 7.971e-6
-1.164, 8.169e-6
-1.165, 8.382e-6
-1.166, 8.587e-6
-1.167, 8.583e-6
-1.168, 8.470e-6
-1.169, 8.726e-6
-1.170, 8.969e-6
-1.171, 9.159e-6
-1.172, 9.168e-6
-1.173, 9.149e-6
-1.174, 9.381e-6
-1.175, 9.668e-6
-1.176, 9.835e-6
-1.177, 9.892e-6
-1.178, 9.910e-6
-1.179, 1.011e-5
-1.180, 1.038e-5
-1.181, 1.065e-5
-1.182, 1.069e-5
-1.183, 1.072e-5
-1.184, 1.098e-5
-1.185, 1.128e-5
-1.186, 1.156e-5
-1.187, 1.155e-5
-1.188, 1.168e-5
-1.189, 1.197e-5
-1.190, 1.229e-5
-1.191, 1.260e-5
-1.192, 1.267e-5
-1.193, 1.277e-5
-1.194, 1.310e-5
-1.195, 1.340e-5
-1.196, 1.380e-5
-1.197, 1.391e-5
-1.198, 1.404e-5
-1.199, 1.440e-5
-1.200, 1.473e-5
-1.201, 1.516e-5
-1.202, 1.537e-5
-1.203, 1.548e-5
-1.204, 1.583e-5
-1.205, 1.631e-5
-1.206, 1.676e-5
-1.207, 1.693e-5
-1.208, 1.715e-5
-1.209, 1.753e-5
-1.210, 1.814e-5
-1.211, 1.846e-5
-1.212, 1.880e-5
-1.213, 1.906e-5
-1.214, 1.952e-5
-1.215, 2.005e-5
-1.216, 2.058e-5
-1.217, 2.081e-5
-1.218, 2.122e-5
-1.219, 2.169e-5
-1.220, 2.229e-5
-1.221, 2.291e-5
-1.222, 2.321e-5
-1.223, 2.366e-5
-1.224, 2.415e-5
-1.225, 2.487e-5
-1.226, 2.558e-5
-1.227, 2.590e-5
-1.228, 2.647e-5
-1.229, 2.707e-5
-1.230, 2.776e-5
-1.231, 2.855e-5
-1.232, 2.905e-5
-1.233, 2.947e-5
-1.234, 3.028e-5
-1.235, 3.104e-5
-1.236, 3.185e-5
-1.237, 3.243e-5
-1.238, 3.298e-5
-1.239, 3.384e-5
-1.240, 3.468e-5
-1.241, 3.555e-5
-1.242, 3.630e-5
-1.243, 3.690e-5
-1.244, 3.785e-5
-1.245, 3.882e-5
-1.246, 3.978e-5
-1.247, 4.060e-5
-1.248, 4.132e-5
-1.249, 4.231e-5
-1.250, 4.346e-5
-1.251, 4.444e-5
-1.252, 4.534e-5
-1.253, 4.622e-5
-1.254, 4.732e-5
-1.255, 4.852e-5
-1.256, 4.966e-5
-1.257, 5.069e-5
-1.258, 5.170e-5
-1.259, 5.283e-5
-1.260, 5.418e-5
-1.261, 5.548e-5
-1.262, 5.658e-5
-1.263, 5.770e-5
-1.264, 5.896e-5
-1.265, 6.040e-5
-1.266, 6.192e-5
-1.267, 6.312e-5
-1.268, 6.432e-5
-1.269, 6.583e-5
-1.270, 6.732e-5
-1.271, 6.895e-5
-1.272, 7.030e-5
-1.273, 7.171e-5
-1.274, 7.336e-5
-1.275, 7.500e-5
-1.276, 7.677e-5
-1.277, 7.831e-5
-1.278, 7.984e-5
-1.279, 8.165e-5
-1.280, 8.349e-5
-1.281, 8.535e-5
-1.282, 8.710e-5
-1.283, 8.876e-5
-1.284, 9.075e-5
-1.285, 9.275e-5
-1.286, 9.482e-5
-1.287, 9.672e-5
-1.288, 9.854e-5
-1.289, 1.007e-4
-1.290, 1.029e-4
-1.291, 1.051e-4
-1.292, 1.071e-4
-1.293, 1.092e-4
-1.294, 1.115e-4
-1.295, 1.139e-4
-1.296, 1.163e-4
-1.297, 1.185e-4
-1.298, 1.207e-4
-1.299, 1.232e-4
-1.300, 1.258e-4
-1.301, 1.283e-4
-1.302, 1.308e-4
-1.303, 1.333e-4
-1.304, 1.360e-4
-1.305, 1.388e-4
-1.306, 1.417e-4
-1.307, 1.443e-4
-1.308, 1.469e-4
-1.309, 1.499e-4
-1.310, 1.529e-4
-1.311, 1.561e-4
-1.312, 1.589e-4
-1.313, 1.618e-4
-1.314, 1.650e-4
-1.315, 1.683e-4
-1.316, 1.716e-4
-1.317, 1.747e-4
-1.318, 1.779e-4
-1.319, 1.814e-4
-1.320, 1.848e-4
-1.321, 1.884e-4
-1.322, 1.919e-4
-1.323, 1.952e-4
-1.324, 1.989e-4
-1.325, 2.026e-4
-1.326, 2.065e-4
-1.327, 2.102e-4
-1.328, 2.138e-4
-1.329, 2.177e-4
-1.330, 2.217e-4
-1.331, 2.259e-4
-1.332, 2.299e-4
-1.333, 2.339e-4
-1.334, 2.381e-4
-1.335, 2.425e-4
-1.336, 2.469e-4
-1.337, 2.512e-4
-1.338, 2.555e-4
-1.339, 2.600e-4
-1.340, 2.646e-4
-1.341, 2.693e-4
-1.342, 2.739e-4
-1.343, 2.785e-4
-1.344, 2.833e-4
-1.345, 2.883e-4
-1.346, 2.935e-4
-1.347, 2.984e-4
-1.348, 3.033e-4
-1.349, 3.085e-4
-1.350, 3.138e-4
-1.351, 3.194e-4
-1.352, 3.248e-4
-1.353, 3.300e-4
-1.354, 3.356e-4
-1.355, 3.413e-4
-1.356, 3.472e-4
-1.357, 3.530e-4
-1.358, 3.585e-4
-1.359, 3.645e-4
-1.360, 3.706e-4
-1.361, 3.768e-4
-1.362, 3.829e-4
-1.363, 3.888e-4
-1.364, 3.951e-4
-1.365, 4.016e-4
-1.366, 4.084e-4
-1.367, 4.149e-4
-1.368, 4.214e-4
-1.369, 4.282e-4
-1.370, 4.352e-4
-1.371, 4.422e-4
-1.372, 4.493e-4
-1.373, 4.562e-4
-1.374, 4.634e-4
-1.375, 4.707e-4
-1.376, 4.784e-4
-1.377, 4.859e-4
-1.378, 4.931e-4
-1.379, 5.010e-4
-1.380, 5.090e-4
-1.381, 5.171e-4
-1.382, 5.252e-4
-1.383, 5.331e-4
-1.384, 5.412e-4
-1.385, 5.496e-4
-1.386, 5.580e-4
-1.387, 5.666e-4
-1.388, 5.753e-4
-1.389, 5.839e-4
-1.390, 5.928e-4
-1.391, 6.021e-4
-1.392, 6.111e-4
-1.393, 6.204e-4
-1.394, 6.296e-4
-1.395, 6.391e-4
-1.396, 6.489e-4
-1.397, 6.585e-4
-1.398, 6.684e-4
-1.399, 6.782e-4
-1.400, 6.883e-4
-1.401, 6.987e-4
-1.402, 7.090e-4
-1.403, 7.195e-4
-1.404, 7.304e-4
-1.405, 7.413e-4
-1.406, 7.523e-4
-1.407, 7.636e-4
-1.408, 7.745e-4
-1.409, 7.861e-4
-1.410, 7.977e-4
-1.411, 8.095e-4
-1.412, 8.214e-4
-1.413, 8.335e-4
-1.414, 8.453e-4
-1.415, 8.578e-4
-1.416, 8.705e-4
-1.417, 8.829e-4
-1.418, 8.955e-4
-1.419, 9.087e-4
-1.420, 9.220e-4
-1.421, 9.354e-4
-1.422, 9.485e-4
-1.423, 9.626e-4
-1.424, 9.765e-4
-1.425, 9.911e-4
-1.426, 1.006e-3
-1.427, 1.020e-3
-1.428, 1.034e-3
-1.429, 1.049e-3
-1.430, 1.064e-3
-1.431, 1.079e-3
-1.432, 1.094e-3
-1.433, 1.110e-3
-1.434, 1.125e-3
-1.435, 1.140e-3
-1.436, 1.157e-3
-1.437, 1.174e-3
-1.438, 1.191e-3
-1.439, 1.208e-3
-1.440, 1.225e-3
-1.441, 1.243e-3
-1.442, 1.261e-3
-1.443, 1.278e-3
-1.444, 1.296e-3
-1.445, 1.314e-3
-1.446, 1.333e-3
-1.447, 1.352e-3
-1.448, 1.370e-3
-1.449, 1.390e-3
-1.450, 1.410e-3
-1.451, 1.429e-3
-1.452, 1.449e-3
-1.453, 1.469e-3
-1.454, 1.490e-3
-1.455, 1.512e-3
-1.456, 1.534e-3
-1.457, 1.556e-3
-1.458, 1.577e-3
-1.459, 1.598e-3
-1.460, 1.622e-3
-1.461, 1.645e-3
-1.462, 1.668e-3
-1.463, 1.691e-3
-1.464, 1.715e-3
-1.465, 1.739e-3
-1.466, 1.765e-3
-1.467, 1.789e-3
-1.468, 1.814e-3
-1.469, 1.839e-3
-1.470, 1.864e-3
-1.471, 1.891e-3
-1.472, 1.917e-3
-1.473, 1.944e-3
-1.474, 1.971e-3
-1.475, 1.998e-3
-1.476, 2.025e-3
-1.477, 2.052e-3
-1.478, 2.081e-3
-1.479, 2.110e-3
-1.480, 2.138e-3
-1.481, 2.168e-3
-1.482, 2.197e-3
-1.483, 2.227e-3
-1.484, 2.258e-3
-1.485, 2.290e-3
-1.486, 2.322e-3
-1.487, 2.353e-3
-1.488, 2.384e-3
-1.489, 2.415e-3
-1.490, 2.450e-3
-1.491, 2.484e-3
-1.492, 2.521e-3
-1.493, 2.557e-3
-1.494, 2.591e-3
-1.495, 2.623e-3
-1.496, 2.659e-3
-1.497, 2.697e-3
-1.498, 2.732e-3
-1.499, 2.769e-3
-1.500, 2.769e-3
-1.499, 2.732e-3
-1.498, 2.698e-3
-1.497, 2.663e-3
-1.496, 2.629e-3
-1.495, 2.597e-3
-1.494, 2.562e-3
-1.493, 2.528e-3
-1.492, 2.493e-3
-1.491, 2.462e-3
-1.490, 2.430e-3
-1.489, 2.397e-3
-1.488, 2.366e-3
-1.487, 2.336e-3
-1.486, 2.303e-3
-1.485, 2.276e-3
-1.484, 2.248e-3
-1.483, 2.219e-3
-1.482, 2.189e-3
-1.481, 2.161e-3
-1.480, 2.133e-3
-1.479, 2.105e-3
-1.478, 2.078e-3
-1.477, 2.050e-3
-1.476, 2.024e-3
-1.475, 1.999e-3
-1.474, 1.970e-3
-1.473, 1.941e-3
-1.472, 1.915e-3
-1.471, 1.890e-3
-1.470, 1.867e-3
-1.469, 1.843e-3
-1.468, 1.818e-3
-1.467, 1.795e-3
-1.466, 1.771e-3
-1.465, 1.748e-3
-1.464, 1.727e-3
-1.463, 1.705e-3
-1.462, 1.682e-3
-1.461, 1.659e-3
-1.460, 1.637e-3
-1.459, 1.615e-3
-1.458, 1.594e-3
-1.457, 1.572e-3
-1.456, 1.550e-3
-1.455, 1.529e-3
-1.454, 1.509e-3
-1.453, 1.488e-3
-1.452, 1.468e-3
-1.451, 1.448e-3
-1.450, 1.428e-3
-1.449, 1.409e-3
-1.448, 1.389e-3
-1.447, 1.371e-3
-1.446, 1.352e-3
-1.445, 1.334e-3
-1.444, 1.316e-3
-1.443, 1.298e-3
-1.442, 1.281e-3
-1.441, 1.263e-3
-1.440, 1.247e-3
-1.439, 1.230e-3
-1.438, 1.213e-3
-1.437, 1.196e-3
-1.436, 1.180e-3
-1.435, 1.164e-3
-1.434, 1.148e-3
-1.433, 1.133e-3
-1.432, 1.118e-3
-1.431, 1.102e-3
-1.430, 1.088e-3
-1.429, 1.073e-3
-1.428, 1.058e-3
-1.427, 1.043e-3
-1.426, 1.029e-3
-1.425, 1.016e-3
-1.424, 1.002e-3
-1.423, 9.888e-4
-1.422, 9.752e-4
-1.421, 9.616e-4
-1.420, 9.482e-4
-1.419, 9.351e-4
-1.418, 9.218e-4
-1.417, 9.091e-4
-1.416, 8.967e-4
-1.415, 8.843e-4
-1.414, 8.724e-4
-1.413, 8.606e-4
-1.412, 8.487e-4
-1.411, 8.370e-4
-1.410, 8.255e-4
-1.409, 8.144e-4
-1.408, 8.033e-4
-1.407, 7.919e-4
-1.406, 7.808e-4
-1.405, 7.704e-4
-1.404, 7.604e-4
-1.403, 7.500e-4
-1.402, 7.391e-4
-1.401, 7.286e-4
-1.400, 7.183e-4
-1.399, 7.083e-4
-1.398, 6.986e-4
-1.397, 6.888e-4
-1.396, 6.791e-4
-1.395, 6.699e-4
-1.394, 6.607e-4
-1.393, 6.515e-4
-1.392, 6.421e-4
-1.391, 6.324e-4
-1.390, 6.232e-4
-1.389, 6.148e-4
-1.388, 6.060e-4
-1.387, 5.975e-4
-1.386, 5.894e-4
-1.385, 5.813e-4
-1.384, 5.735e-4
-1.383, 5.655e-4
-1.382, 5.573e-4
-1.381, 5.493e-4
-1.380, 5.415e-4
-1.379, 5.341e-4
-1.378, 5.266e-4
-1.377, 5.187e-4
-1.376, 5.112e-4
-1.375, 5.041e-4
-1.374, 4.968e-4
-1.373, 4.896e-4
-1.372, 4.821e-4
-1.371, 4.749e-4
-1.370, 4.682e-4
-1.369, 4.613e-4
-1.368, 4.545e-4
-1.367, 4.478e-4
-1.366, 4.411e-4
-1.365, 4.348e-4
-1.364, 4.284e-4
-1.363, 4.219e-4
-1.362, 4.154e-4
-1.361, 4.091e-4
-1.360, 4.030e-4
-1.359, 3.971e-4
-1.358, 3.910e-4
-1.357, 3.848e-4
-1.356, 3.790e-4
-1.355, 3.732e-4
-1.354, 3.678e-4
-1.353, 3.620e-4
-1.352, 3.564e-4
-1.351, 3.507e-4
-1.350, 3.454e-4
-1.349, 3.403e-4
-1.348, 3.349e-4
-1.347, 3.294e-4
-1.346, 3.239e-4
-1.345, 3.188e-4
-1.344, 3.140e-4
-1.343, 3.090e-4
-1.342, 3.039e-4
-1.341, 2.989e-4
-1.340, 2.942e-4
-1.339, 2.895e-4
-1.338, 2.848e-4
-1.337, 2.799e-4
-1.336, 2.753e-4
-1.335, 2.709e-4
-1.334, 2.665e-4
-1.333, 2.621e-4
-1.332, 2.575e-4
-1.331, 2.530e-4
-1.330, 2.488e-4
-1.329, 2.446e-4
-1.328, 2.404e-4
-1.327, 2.360e-4
-1.326, 2.318e-4
-1.325, 2.280e-4
-1.324, 2.242e-4
-1.323, 2.202e-4
-1.322, 2.163e-4
-1.321, 2.124e-4
-1.320, 2.088e-4
-1.319, 2.052e-4
-1.318, 2.016e-4
-1.317, 1.978e-4
-1.316, 1.941e-4
-1.315, 1.907e-4
-1.314, 1.874e-4
-1.313, 1.839e-4
-1.312, 1.804e-4
-1.311, 1.770e-4
-1.310, 1.738e-4
-1.309, 1.707e-4
-1.308, 1.675e-4
-1.307, 1.641e-4
-1.306, 1.610e-4
-1.305, 1.580e-4
-1.304, 1.551e-4
-1.303, 1.521e-4
-1.302, 1.489e-4
-1.301, 1.460e-4
-1.300, 1.432e-4
-1.299, 1.406e-4
-1.298, 1.378e-4
-1.297, 1.348e-4
-1.296, 1.321e-4
-1.295, 1.295e-4
-1.294, 1.269e-4
-1.293, 1.243e-4
-1.292, 1.215e-4
-1.291, 1.189e-4
-1.290, 1.166e-4
-1.289, 1.143e-4
-1.288, 1.119e-4
-1.287, 1.094e-4
-1.286, 1.069e-4
-1.285, 1.047e-4
-1.284, 1.026e-4
-1.283, 1.002e-4
-1.282, 9.786e-5
-1.281, 9.558e-5
-1.280, 9.353e-5
-1.279, 9.158e-5
-1.278, 8.947e-5
-1.277, 8.726e-5
-1.276, 8.522e-5
-1.275, 8.330e-5
-1.274, 8.159e-5
-1.273, 7.961e-5
-1.272, 7.763e-5
-1.271, 7.568e-5
-1.270, 7.402e-5
-1.269, 7.239e-5
-1.268, 7.062e-5
-1.267, 6.878e-5
-1.266, 6.703e-5
-1.265, 6.550e-5
-1.264, 6.403e-5
-1.263, 6.242e-5
-1.262, 6.068e-5
-1.261, 5.915e-5
-1.260, 5.773e-5
-1.259, 5.642e-5
-1.258, 5.500e-5
-1.257, 5.340e-5
-1.256, 5.198e-5
-1.255, 5.071e-5
-1.254, 4.949e-5
-1.253, 4.815e-5
-1.252, 4.680e-5
-1.251, 4.541e-5
-1.250, 4.434e-5
-1.249, 4.326e-5
-1.248, 4.210e-5
-1.247, 4.082e-5
-1.246, 3.955e-5
-1.245, 3.856e-5
-1.244, 3.765e-5
-1.243, 3.648e-5
-1.242, 3.535e-5
-1.241, 3.418e-5
-1.240, 3.334e-5
-1.239, 3.251e-5
-1.238, 3.147e-5
-1.237, 3.045e-5
-1.236, 2.943e-5
-1.235, 2.861e-5
-1.234, 2.796e-5
-1.233, 2.701e-5
-1.232, 2.610e-5
-1.231, 2.518e-5
-1.230, 2.449e-5
-1.229, 2.378e-5
-1.228, 2.300e-5
-1.227, 2.208e-5
-1.226, 2.134e-5
-1.225, 2.075e-5
-1.224, 2.019e-5
-1.223, 1.949e-5
-1.222, 1.866e-5
-1.221, 1.796e-5
-1.220, 1.746e-5
-1.219, 1.700e-5
-1.218, 1.631e-5
-1.217, 1.556e-5
-1.216, 1.498e-5
-1.215, 1.458e-5
-1.214, 1.415e-5
-1.213, 1.360e-5
-1.212, 1.291e-5
-1.211, 1.228e-5
-1.210, 1.199e-5
-1.209, 1.157e-5
-1.208, 1.112e-5
-1.207, 1.054e-5
-1.206, 9.989e-6
-1.205, 9.705e-6
-1.204, 9.419e-6
-1.203, 8.901e-6
-1.202, 8.391e-6
-1.201, 7.933e-6
-1.200, 7.660e-6
-1.199, 7.499e-6
-1.198, 7.019e-6
-1.197, 6.591e-6
-1.196, 6.154e-6
-1.195, 5.941e-6
-1.194, 5.771e-6
-1.193, 5.371e-6
-1.192, 5.027e-6
-1.191, 4.638e-6
-1.190, 4.414e-6
-1.189, 4.317e-6
-1.188, 4.000e-6
-1.187, 3.541e-6
-1.186, 3.207e-6
-1.185, 3.115e-6
-1.184, 2.997e-6
-1.183, 2.774e-6
-1.182, 2.391e-6
-1.181, 2.069e-6
-1.180, 1.999e-6
-1.179, 1.898e-6
-1.178, 1.672e-6
-1.177, 1.339e-6
-1.176, 1.098e-6
-1.175, 9.992e-7
-1.174, 9.568e-7
-1.173, 7.881e-7
-1.172, 4.408e-7
-1.171, 2.021e-7
-1.170, 1.330e-7
-1.169, 1.142e-7
-1.168, -2.881e-8
-1.167, -3.090e-7
-1.166, -5.438e-7
-1.165, -5.803e-7
-1.164, -5.330e-7
-1.163, -7.253e-7
-1.162, -1.015e-6
-1.161, -1.176e-6
-1.160, -1.181e-6
-1.159, -1.124e-6
-1.158, -1.329e-6
-1.157, -1.546e-6
-1.156, -1.697e-6
-1.155, -1.730e-6
-1.154, -1.671e-6
-1.153, -1.823e-6
-1.152, -1.996e-6
-1.151, -2.171e-6
-1.150, -2.181e-6
-1.149, -2.083e-6
-1.148, -2.185e-6
-1.147, -2.459e-6
-1.146, -2.545e-6
-1.145, -2.566e-6
-1.144, -2.493e-6
-1.143, -2.553e-6
-1.142, -2.864e-6
-1.141, -2.849e-6
-1.140, -2.847e-6
-1.139, -2.825e-6
-1.138, -2.864e-6
-1.137, -3.110e-6
-1.136, -3.155e-6
-1.135, -3.175e-6
-1.134, -3.089e-6
-1.133, -3.120e-6
-1.132, -3.345e-6
-1.131, -3.488e-6
-1.130, -3.433e-6
-1.129, -3.353e-6
-1.128, -3.366e-6
-1.127, -3.593e-6
-1.126, -3.753e-6
-1.125, -3.611e-6
-1.124, -3.520e-6
-1.123, -3.603e-6
-1.122, -3.803e-6
-1.121, -3.896e-6
-1.120, -3.848e-6
-1.119, -3.708e-6
-1.118, -3.828e-6
-1.117, -3.998e-6
-1.116, -4.082e-6
-1.115, -4.082e-6
-1.114, -3.884e-6
-1.113, -3.964e-6
-1.112, -4.157e-6
-1.111, -4.271e-6
-1.110, -4.202e-6
-1.109, -4.070e-6
-1.108, -4.095e-6
-1.107, -4.358e-6
-1.106, -4.366e-6
-1.105, -4.399e-6
-1.104, -4.241e-6
-1.103, -4.244e-6
-1.102, -4.526e-6
-1.101, -4.511e-6
-1.100, -4.499e-6
-1.099, -4.436e-6
-1.098, -4.378e-6
-1.097, -4.652e-6
-1.096, -4.700e-6
-1.095, -4.647e-6
-1.094, -4.594e-6
-1.093, -4.511e-6
-1.092, -4.739e-6
-1.091, -4.859e-6
-1.090, -4.766e-6
-1.089, -4.721e-6
-1.088, -4.645e-6
-1.087, -4.860e-6
-1.086, -5.053e-6
-1.085, -4.910e-6
-1.084, -4.850e-6
-1.083, -4.843e-6
-1.082, -5.039e-6
-1.081, -5.182e-6
-1.080, -5.088e-6
-1.079, -4.936e-6
-1.078, -4.983e-6
-1.077, -5.144e-6
-1.076, -5.317e-6
-1.075, -5.299e-6
-1.074, -5.135e-6
-1.073, -5.147e-6
-1.072, -5.358e-6
-1.071, -5.465e-6
-1.070, -5.463e-6
-1.069, -5.301e-6
-1.068, -5.284e-6
-1.067, -5.544e-6
-1.066, -5.630e-6
-1.065, -5.650e-6
-1.064, -5.503e-6
-1.063, -5.453e-6
-1.062, -5.729e-6
-1.061, -5.850e-6
-1.060, -5.806e-6
-1.059, -5.686e-6
-1.058, -5.685e-6
-1.057, -5.916e-6
-1.056, -6.074e-6
-1.055, -6.032e-6
-1.054, -5.939e-6
-1.053, -5.891e-6
-1.052, -6.168e-6
-1.051, -6.292e-6
-1.050, -6.198e-6
-1.049, -6.181e-6
-1.048, -6.123e-6
-1.047, -6.339e-6
-1.046, -6.573e-6
-1.045, -6.462e-6
-1.044, -6.372e-6
-1.043, -6.400e-6
-1.042, -6.651e-6
-1.041, -6.769e-6
-1.040, -6.743e-6
-1.039, -6.640e-6
-1.038, -6.650e-6
-1.037, -6.836e-6
-1.036, -7.044e-6
-1.035, -7.010e-6
-1.034, -6.948e-6
-1.033, -6.979e-6
-1.032, -7.159e-6
-1.031, -7.333e-6
-1.030, -7.369e-6
-1.029, -7.202e-6
-1.028, -7.199e-6
-1.027, -7.496e-6
-1.026, -7.651e-6
-1.025, -7.649e-6
-1.024, -7.599e-6
-1.023, -7.546e-6
-1.022, -7.805e-6
-1.021, -7.995e-6
-1.020, -7.948e-6
-1.019, -7.940e-6
-1.018, -7.894e-6
-1.017, -8.194e-6
-1.016, -8.340e-6
-1.015, -8.291e-6
-1.014, -8.283e-6
-1.013, -8.242e-6
-1.012, -8.502e-6
-1.011, -8.685e-6
-1.010, -8.718e-6
-1.009, -8.702e-6
-1.008, -8.628e-6
-1.007, -8.854e-6
-1.006, -9.113e-6
-1.005, -9.060e-6
-1.004, -9.021e-6
-1.003, -9.014e-6
-1.002, -9.286e-6
-1.001, -9.477e-6
-1.000, -3.769e-6
-1.001, -2.468e-6
-1.002, -1.943e-6
-1.003, -1.811e-6
-1.004, -1.662e-6
-1.005, -1.332e-6
-1.006, -9.404e-7
-1.007, -6.454e-7
-1.008, -6.671e-7
-1.009, -5.803e-7
-1.010, -2.715e-7
-1.011, -5.939e-8
-1.012, 2.484e-7
-1.013, 2.366e-7
-1.014, 2.129e-7
-1.015, 4.783e-7
-1.016, 6.529e-7
-1.017, 8.946e-7
-1.018, 9.006e-7
-1.019, 8.137e-7
-1.020, 9.982e-7
-1.021, 1.318e-6
-1.022, 1.436e-6
-1.023, 1.443e-6
-1.024, 1.425e-6
-1.025, 1.547e-6
-1.026, 1.812e-6
-1.027, 1.925e-6
-1.028, 1.844e-6
-1.029, 1.839e-6
-1.030, 1.966e-6
-1.031, 2.224e-6
-1.032, 2.337e-6
-1.033, 2.294e-6
-1.034, 2.250e-6
-1.035, 2.319e-6
-1.036, 2.554e-6
-1.037, 2.731e-6
-1.038, 2.645e-6
-1.039, 2.631e-6
-1.040, 2.674e-6
-1.041, 2.864e-6
-1.042, 3.049e-6
-1.043, 2.915e-6
-1.044, 2.859e-6
-1.045, 3.023e-6
-1.046, 3.132e-6
-1.047, 3.336e-6
-1.048, 3.195e-6
-1.049, 3.123e-6
-1.050, 3.291e-6
-1.051, 3.410e-6
-1.052, 3.550e-6
-1.053, 3.446e-6
-1.054, 3.336e-6
-1.055, 3.517e-6
-1.056, 3.619e-6
-1.057, 3.736e-6
-1.058, 3.690e-6
-1.059, 3.527e-6
-1.060, 3.691e-6
-1.061, 3.854e-6
-1.062, 3.918e-6
-1.063, 3.908e-6
-1.064, 3.731e-6
-1.065, 3.841e-6
-1.066, 4.047e-6
-1.067, 4.125e-6
-1.068, 3.985e-6
-1.069, 3.960e-6
-1.070, 4.018e-6
-1.071, 4.134e-6
-1.072, 4.279e-6
-1.073, 4.183e-6
-1.074, 4.063e-6
-1.075, 4.183e-6
-1.076, 4.320e-6
-1.077, 4.401e-6
-1.078, 4.336e-6
-1.079, 4.214e-6
-1.080, 4.291e-6
-1.081, 4.428e-6
-1.082, 4.591e-6
-1.083, 4.457e-6
-1.084, 4.357e-6
-1.085, 4.400e-6
-1.086, 4.571e-6
-1.087, 4.699e-6
-1.088, 4.569e-6
-1.089, 4.435e-6
-1.090, 4.550e-6
-1.091, 4.703e-6
-1.092, 4.752e-6
-1.093, 4.676e-6
-1.094, 4.550e-6
-1.095, 4.707e-6
-1.096, 4.791e-6
-1.097, 4.889e-6
-1.098, 4.841e-6
-1.099, 4.681e-6
-1.100, 4.788e-6
-1.101, 4.899e-6
-1.102, 5.028e-6
-1.103, 4.934e-6
-1.104, 4.776e-6
-1.105, 4.857e-6
-1.106, 5.076e-6
-1.107, 5.128e-6
-1.108, 5.032e-6
-1.109, 4.945e-6
-1.110, 4.955e-6
-1.111, 5.211e-6
-1.112, 5.296e-6
-1.113, 5.148e-6
-1.114, 5.017e-6
-1.115, 5.106e-6
-1.116, 5.275e-6
-1.117, 5.375e-6
-1.118, 5.300e-6
-1.119, 5.193e-6
-1.120, 5.302e-6
-1.121, 5.429e-6
-1.122, 5.533e-6
-1.123, 5.457e-6
-1.124, 5.339e-6
-1.125, 5.447e-6
-1.126, 5.544e-6
-1.127, 5.768e-6
-1.128, 5.630e-6
-1.129, 5.503e-6
-1.130, 5.646e-6
-1.131, 5.789e-6
-1.132, 5.871e-6
-1.133, 5.860e-6
-1.134, 5.682e-6
-1.135, 5.830e-6
-1.136, 5.996e-6
-1.137, 6.060e-6
-1.138, 6.091e-6
-1.139, 5.901e-6
-1.140, 6.059e-6
-1.141, 6.212e-6
-1.142, 6.348e-6
-1.143, 6.306e-6
-1.144, 6.212e-6
-1.145, 6.308e-6
-1.146, 6.526e-6
-1.147, 6.593e-6
-1.148, 6.589e-6
-1.149, 6.483e-6
-1.150, 6.575e-6
-1.151, 6.794e-6
-1.152, 6.911e-6
-1.153, 6.867e-6
-1.154, 6.876e-6
-1.155, 6.920e-6
-1.156, 7.161e-6
-1.157, 7.320e-6
-1.158, 7.252e-6
-1.159, 7.229e-6
-1.160, 7.298e-6
-1.161, 7.541e-6
-1.162, 7.784e-6
-1.163, 7.674e-6
-1.164, 7.687e-6
-1.165, 7.820e-6
-1.166, 8.029e-6
-1.167, 8.288e-6
-1.168, 8.191e-6
-1.169, 8.178e-6
-1.170, 8.359e-6
-1.171, 8.581e-6
-1.172, 8.745e-6
-1.173, 8.817e-6
-1.174, 8.760e-6
-1.175, 8.951e-6
-1.176, 9.148e-6
-1.177, 9.439e-6
-1.178, 9.533e-6
-1.179, 9.441e-6
-1.180, 9.601e-6
-1.181, 9.958e-6
-1.182, 1.020e-5
-1.183, 1.030e-5
-1.184, 1.022e-5
-1.185, 1.045e-5
-1.186, 1.083e-5
-1.187, 1.105e-5
-1.188, 1.117e-5
-1.189, 1.116e-5
-1.190, 1.139e-5
-1.191, 1.181e-5
-1.192, 1.204e-5
-1.193, 1.216e-5
-1.194, 1.227e-5
-1.195, 1.244e-5
-1.196, 1.288e-5
-1.197, 1.323e-5
-1.198, 1.332e-5
-1.199, 1.348e-5
-1.200, 1.369e-5
-1.201, 1.417e-5
-1.202, 1.453e-5
-1.203, 1.468e-5
-1.204, 1.487e-5
-1.205, 1.516e-5
-1.206, 1.561e-5
-1.207, 1.605e-5
-1.208, 1.625e-5
-1.209, 1.638e-5
-1.210, 1.683e-5
-1.211, 1.724e-5
-1.212, 1.775e-5
-1.213, 1.802e-5
-1.214, 1.824e-5
-1.215, 1.868e-5
-1.216, 1.924e-5
-1.217, 1.969e-5
-1.218, 2.005e-5
-1.219, 2.034e-5
-1.220, 2.076e-5
-1.221, 2.140e-5
-1.222, 2.196e-5
-1.223, 2.240e-5
-1.224, 2.270e-5
-1.225, 2.316e-5
-1.226, 2.388e-5
-1.227, 2.450e-5
-1.228, 2.507e-5
-1.229, 2.538e-5
-1.230, 2.597e-5
-1.231, 2.670e-5
-1.232, 2.742e-5
-1.233, 2.790e-5
-1.234, 2.845e-5
-1.235, 2.904e-5
-1.236, 2.985e-5
-1.237, 3.062e-5
-1.238, 3.122e-5
-1.239, 3.187e-5
-1.240, 3.249e-5
-1.241, 3.340e-5
-1.242, 3.435e-5
-1.243, 3.494e-5
-1.244, 3.565e-5
-1.245, 3.643e-5
-1.246, 3.743e-5
-1.247, 3.840e-5
-1.248, 3.914e-5
-1.249, 3.994e-5
-1.250, 4.082e-5
-1.251, 4.184e-5
-1.252, 4.288e-5
-1.253, 4.389e-5
-1.254, 4.460e-5
-1.255, 4.567e-5
-1.256, 4.680e-5
-1.257, 4.798e-5
-1.258, 4.902e-5
-1.259, 4.990e-5
-1.260, 5.099e-5
-1.261, 5.236e-5
-1.262, 5.363e-5
-1.263, 5.475e-5
-1.264, 5.582e-5
-1.265, 5.697e-5
-1.266, 5.846e-5
-1.267, 5.978e-5
-1.268, 6.108e-5
-1.269, 6.227e-5
-1.270, 6.357e-5
-1.271, 6.515e-5
-1.272, 6.665e-5
-1.273, 6.804e-5
-1.274, 6.937e-5
-1.275, 7.077e-5
-1.276, 7.245e-5
-1.277, 7.419e-5
-1.278, 7.568e-5
-1.279, 7.720e-5
-1.280, 7.881e-5
-1.281, 8.059e-5
-1.282, 8.247e-5
-1.283, 8.415e-5
-1.284, 8.574e-5
-1.285, 8.747e-5
-1.286, 8.947e-5
-1.287, 9.149e-5
-1.288, 9.330e-5
-1.289, 9.501e-5
-1.290, 9.699e-5
-1.291, 9.908e-5
-1.292, 1.012e-4
-1.293, 1.032e-4
-1.294, 1.051e-4
-1.295, 1.072e-4
-1.296, 1.095e-4
-1.297, 1.118e-4
-1.298, 1.140e-4
-1.299, 1.160e-4
-1.300, 1.183e-4
-1.301, 1.207e-4
-1.302, 1.232e-4
-1.303, 1.256e-4
-1.304, 1.278e-4
-1.305, 1.303e-4
-1.306, 1.329e-4
-1.307, 1.356e-4
-1.308, 1.381e-4
-1.309, 1.407e-4
-1.310, 1.433e-4
-1.311, 1.461e-4
-1.312, 1.489e-4
-1.313, 1.517e-4
-1.314, 1.545e-4
-1.315, 1.572e-4
-1.316, 1.604e-4
-1.317, 1.635e-4
-1.318, 1.665e-4
-1.319, 1.694e-4
-1.320, 1.724e-4
-1.321, 1.757e-4
-1.322, 1.791e-4
-1.323, 1.823e-4
-1.324, 1.855e-4
-1.325, 1.887e-4
-1.326, 1.922e-4
-1.327, 1.958e-4
-1.328, 1.992e-4
-1.329, 2.025e-4
-1.330, 2.060e-4
-1.331, 2.097e-4
-1.332, 2.135e-4
-1.333, 2.172e-4
-1.334, 2.208e-4
-1.335, 2.247e-4
-1.336, 2.286e-4
-1.337, 2.327e-4
-1.338, 2.367e-4
-1.339, 2.406e-4
-1.340, 2.447e-4
-1.341, 2.490e-4
-1.342, 2.533e-4
-1.343, 2.576e-4
-1.344, 2.617e-4
-1.345, 2.661e-4
-1.346, 2.707e-4
-1.347, 2.753e-4
-1.348, 2.799e-4
-1.349, 2.843e-4
-1.350, 2.890e-4
-1.351, 2.939e-4
-1.352, 2.989e-4
-1.353, 3.038e-4
-1.354, 3.086e-4
-1.355, 3.136e-4
-1.356, 3.188e-4
-1.357, 3.242e-4
-1.358, 3.294e-4
-1.359, 3.347e-4
-1.360, 3.399e-4
-1.361, 3.454e-4
-1.362, 3.511e-4
-1.363, 3.566e-4
-1.364, 3.622e-4
-1.365, 3.678e-4
-1.366, 3.737e-4
-1.367, 3.799e-4
-1.368, 3.857e-4
-1.369, 3.916e-4
-1.370, 3.976e-4
-1.371, 4.039e-4
-1.372, 4.104e-4
-1.373, 4.167e-4
-1.374, 4.230e-4
-1.375, 4.295e-4
-1.376, 4.362e-4
-1.377, 4.432e-4
-1.378, 4.499e-4
-1.379, 4.566e-4
-1.380, 4.636e-4
-1.381, 4.706e-4
-1.382, 4.779e-4
-1.383, 4.852e-4
-1.384, 4.924e-4
-1.385, 4.999e-4
-1.386, 5.074e-4
-1.387, 5.151e-4
-1.388, 5.227e-4
-1.389, 5.304e-4
-1.390, 5.383e-4
-1.391, 5.461e-4
-1.392, 5.542e-4
-1.393, 5.626e-4
-1.394, 5.709e-4
-1.395, 5.791e-4
-1.396, 5.879e-4
-1.397, 5.966e-4
-1.398, 6.053e-4
-1.399, 6.141e-4
-1.400, 6.229e-4
-1.401, 6.321e-4
-1.402, 6.416e-4
-1.403, 6.508e-4
-1.404, 6.603e-4
-1.405, 6.700e-4
-1.406, 6.799e-4
-1.407, 6.899e-4
-1.408, 7.000e-4
-1.409, 7.100e-4
-1.410, 7.198e-4
-1.411, 7.304e-4
-1.412, 7.414e-4
-1.413, 7.522e-4
-1.414, 7.631e-4
-1.415, 7.740e-4
-1.416, 7.850e-4
-1.417, 7.962e-4
-1.418, 8.076e-4
-1.419, 8.193e-4
-1.420, 8.314e-4
-1.421, 8.430e-4
-1.422, 8.551e-4
-1.423, 8.675e-4
-1.424, 8.800e-4
-1.425, 8.925e-4
-1.426, 9.054e-4
-1.427, 9.182e-4
-1.428, 9.316e-4
-1.429, 9.449e-4
-1.430, 9.587e-4
-1.431, 9.726e-4
-1.432, 9.863e-4
-1.433, 1.000e-3
-1.434, 1.014e-3
-1.435, 1.029e-3
-1.436, 1.044e-3
-1.437, 1.059e-3
-1.438, 1.074e-3
-1.439, 1.089e-3
-1.440, 1.105e-3
-1.441, 1.121e-3
-1.442, 1.136e-3
-1.443, 1.153e-3
-1.444, 1.169e-3
-1.445, 1.185e-3
-1.446, 1.202e-3
-1.447, 1.218e-3
-1.448, 1.236e-3
-1.449, 1.254e-3
-1.450, 1.272e-3
-1.451, 1.288e-3
-1.452, 1.306e-3
-1.453, 1.324e-3
-1.454, 1.344e-3
-1.455, 1.363e-3
-1.456, 1.381e-3
-1.457, 1.400e-3
-1.458, 1.421e-3
-1.459, 1.443e-3
-1.460, 1.462e-3
-1.461, 1.483e-3
-1.462, 1.504e-3
-1.463, 1.526e-3
-1.464, 1.547e-3
-1.465, 1.568e-3
-1.466, 1.590e-3
-1.467, 1.612e-3
-1.468, 1.635e-3
-1.469, 1.659e-3
-1.470, 1.682e-3
-1.471, 1.705e-3
-1.472, 1.729e-3
-1.473, 1.752e-3
-1.474, 1.776e-3
-1.475, 1.801e-3
-1.476, 1.826e-3
-1.477, 1.852e-3
-1.478, 1.879e-3
-1.479, 1.906e-3
-1.480, 1.933e-3
-1.481, 1.959e-3
-1.482, 1.985e-3
-1.483, 2.012e-3
-1.484, 2.041e-3
-1.485, 2.068e-3
-1.486, 2.097e-3
-1.487, 2.128e-3
-1.488, 2.156e-3
-1.489, 2.185e-3
-1.490, 2.213e-3
-1.491, 2.241e-3
-1.492, 2.272e-3
-1.493, 2.305e-3
-1.494, 2.337e-3
-1.495, 2.369e-3
-1.496, 2.402e-3
-1.497, 2.434e-3
-1.498, 2.470e-3
-1.499, 2.503e-3
-1.500, 2.501e-3
-1.499, 2.466e-3
-1.498, 2.436e-3
-1.497, 2.405e-3
-1.496, 2.373e-3
-1.495, 2.341e-3
-1.494, 2.313e-3
-1.493, 2.283e-3
-1.492, 2.251e-3
-1.491, 2.222e-3
-1.490, 2.194e-3
-1.489, 2.164e-3
-1.488, 2.138e-3
-1.487, 2.112e-3
-1.486, 2.083e-3
-1.485, 2.055e-3
-1.484, 2.028e-3
-1.483, 2.002e-3
-1.482, 1.977e-3
-1.481, 1.953e-3
-1.480, 1.927e-3
-1.479, 1.899e-3
-1.478, 1.875e-3
-1.477, 1.851e-3
-1.476, 1.827e-3
-1.475, 1.802e-3
-1.474, 1.779e-3
-1.473, 1.757e-3
-1.472, 1.735e-3
-1.471, 1.712e-3
-1.470, 1.689e-3
-1.469, 1.667e-3
-1.468, 1.645e-3
-1.467, 1.623e-3
-1.466, 1.601e-3
-1.465, 1.578e-3
-1.464, 1.557e-3
-1.463, 1.534e-3
-1.462, 1.513e-3
-1.461, 1.492e-3
-1.460, 1.472e-3
-1.459, 1.453e-3
-1.458, 1.434e-3
-1.457, 1.416e-3
-1.456, 1.397e-3
-1.455, 1.380e-3
-1.454, 1.362e-3
-1.453, 1.344e-3
-1.452, 1.325e-3
-1.451, 1.307e-3
-1.450, 1.290e-3
-1.449, 1.273e-3
-1.448, 1.256e-3
-1.447, 1.239e-3
-1.446, 1.223e-3
-1.445, 1.206e-3
-1.444, 1.191e-3
-1.443, 1.176e-3
-1.442, 1.160e-3
-1.441, 1.144e-3
-1.440, 1.129e-3
-1.439, 1.113e-3
-1.438, 1.098e-3
-1.437, 1.084e-3
-1.436, 1.070e-3
-1.435, 1.055e-3
-1.434, 1.040e-3
-1.433, 1.026e-3
-1.432, 1.012e-3
-1.431, 9.982e-4
-1.430, 9.851e-4
-1.429, 9.715e-4
-1.428, 9.581e-4
-1.427, 9.452e-4
-1.426, 9.328e-4
-1.425, 9.201e-4
-1.424, 9.080e-4
-1.423, 8.963e-4
-1.422, 8.849e-4
-1.421, 8.727e-4
-1.420, 8.607e-4
-1.419, 8.485e-4
-1.418, 8.372e-4
-1.417, 8.260e-4
-1.416, 8.151e-4
-1.415, 8.038e-4
-1.414, 7.930e-4
-1.413, 7.827e-4
-1.412, 7.725e-4
-1.411, 7.620e-4
-1.410, 7.521e-4
-1.409, 7.420e-4
-1.408, 7.320e-4
-1.407, 7.219e-4
-1.406, 7.119e-4
-1.405, 7.025e-4
-1.404, 6.929e-4
-1.403, 6.837e-4
-1.402, 6.745e-4
-1.401, 6.652e-4
-1.400, 6.561e-4
-1.399, 6.474e-4
-1.398, 6.387e-4
-1.397, 6.302e-4
-1.396, 6.215e-4
-1.395, 6.129e-4
-1.394, 6.043e-4
-1.393, 5.960e-4
-1.392, 5.882e-4
-1.391, 5.803e-4
-1.390, 5.723e-4
-1.389, 5.645e-4
-1.388, 5.569e-4
-1.387, 5.492e-4
-1.386, 5.417e-4
-1.385, 5.341e-4
-1.384, 5.268e-4
-1.383, 5.195e-4
-1.382, 5.124e-4
-1.381, 5.052e-4
-1.380, 4.980e-4
-1.379, 4.909e-4
-1.378, 4.842e-4
-1.377, 4.774e-4
-1.376, 4.708e-4
-1.375, 4.639e-4
-1.374, 4.574e-4
-1.373, 4.511e-4
-1.372, 4.446e-4
-1.371, 4.381e-4
-1.370, 4.317e-4
-1.369, 4.254e-4
-1.368, 4.194e-4
-1.367, 4.134e-4
-1.366, 4.070e-4
-1.365, 4.009e-4
-1.364, 3.949e-4
-1.363, 3.894e-4
-1.362, 3.837e-4
-1.361, 3.780e-4
-1.360, 3.722e-4
-1.359, 3.666e-4
-1.358, 3.614e-4
-1.357, 3.561e-4
-1.356, 3.506e-4
-1.355, 3.452e-4
-1.354, 3.401e-4
-1.353, 3.351e-4
-1.352, 3.301e-4
-1.351, 3.249e-4
-1.350, 3.198e-4
-1.349, 3.150e-4
-1.348, 3.104e-4
-1.347, 3.055e-4
-1.346, 3.007e-4
-1.345, 2.959e-4
-1.344, 2.912e-4
-1.343, 2.869e-4
-1.342, 2.825e-4
-1.341, 2.780e-4
-1.340, 2.735e-4
-1.339, 2.691e-4
-1.338, 2.650e-4
-1.337, 2.608e-4
-1.336, 2.565e-4
-1.335, 2.521e-4
-1.334, 2.480e-4
-1.333, 2.442e-4
-1.332, 2.403e-4
-1.331, 2.361e-4
-1.330, 2.320e-4
-1.329, 2.281e-4
-1.328, 2.243e-4
-1.327, 2.206e-4
-1.326, 2.167e-4
-1.325, 2.128e-4
-1.324, 2.093e-4
-1.323, 2.057e-4
-1.322, 2.023e-4
-1.321, 1.987e-4
-1.320, 1.950e-4
-1.319, 1.916e-4
-1.318, 1.883e-4
-1.317, 1.851e-4
-1.316, 1.816e-4
-1.315, 1.781e-4
-1.314, 1.750e-4
-1.313, 1.720e-4
-1.312, 1.688e-4
-1.311, 1.655e-4
-1.310, 1.622e-4
-1.309, 1.592e-4
-1.308, 1.563e-4
-1.307, 1.534e-4
-1.306, 1.504e-4
-1.305, 1.473e-4
-1.304, 1.446e-4
-1.303, 1.419e-4
-1.302, 1.392e-4
-1.301, 1.364e-4
-1.300, 1.336e-4
-1.299, 1.309e-4
-1.298, 1.285e-4
-1.297, 1.260e-4
-1.296, 1.234e-4
-1.295, 1.207e-4
-1.294, 1.183e-4
-1.293, 1.160e-4
-1.292, 1.137e-4
-1.291, 1.112e-4
-1.290, 1.088e-4
-1.289, 1.065e-4
-1.288, 1.044e-4
-1.287, 1.023e-4
-1.286, 9.997e-5
-1.285, 9.772e-5
-1.284, 9.567e-5
-1.283, 9.366e-5
-1.282, 9.175e-5
-1.281, 8.956e-5
-1.280, 8.736e-5
-1.279, 8.552e-5
-1.278, 8.368e-5
-1.277, 8.198e-5
-1.276, 7.995e-5
-1.275, 7.790e-5
-1.274, 7.621e-5
-1.273, 7.448e-5
-1.272, 7.285e-5
-1.271, 7.098e-5
-1.270, 6.909e-5
-1.269, 6.761e-5
-1.268, 6.607e-5
-1.267, 6.455e-5
-1.266, 6.297e-5
-1.265, 6.120e-5
-1.264, 5.979e-5
-1.263, 5.844e-5
-1.262, 5.697e-5
-1.261, 5.546e-5
-1.260, 5.388e-5
-1.259, 5.257e-5
-1.258, 5.135e-5
-1.257, 5.011e-5
-1.256, 4.868e-5
-1.255, 4.728e-5
-1.254, 4.601e-5
-1.253, 4.494e-5
-1.252, 4.378e-5
-1.251, 4.244e-5
-1.250, 4.118e-5
-1.249, 4.010e-5
-1.248, 3.911e-5
-1.247, 3.813e-5
-1.246, 3.688e-5
-1.245, 3.574e-5
-1.244, 3.476e-5
-1.243, 3.383e-5
-1.242, 3.300e-5
-1.241, 3.188e-5
-1.240, 3.081e-5
-1.239, 2.998e-5
-1.238, 2.914e-5
-1.237, 2.841e-5
-1.236, 2.740e-5
-1.235, 2.641e-5
-1.234, 2.564e-5
-1.233, 2.495e-5
-1.232, 2.425e-5
-1.231, 2.347e-5
-1.230, 2.246e-5
-1.229, 2.176e-5
-1.228, 2.117e-5
-1.227, 2.057e-5
-1.226, 1.983e-5
-1.225, 1.898e-5
-1.224, 1.841e-5
-1.223, 1.792e-5
-1.222, 1.735e-5
-1.221, 1.667e-5
-1.220, 1.596e-5
-1.219, 1.534e-5
-1.218, 1.498e-5
-1.217, 1.450e-5
-1.216, 1.384e-5
-1.215, 1.322e-5
-1.214, 1.268e-5
-1.213, 1.238e-5
-1.212, 1.203e-5
-1.211, 1.140e-5
-1.210, 1.079e-5
-1.209, 1.039e-5
-1.208, 1.010e-5
-1.207, 9.783e-6
-1.206, 9.226e-6
-1.205, 8.731e-6
-1.204, 8.324e-6
-1.203, 8.081e-6
-1.202, 7.779e-6
-1.201, 7.334e-6
-1.200, 6.836e-6
-1.199, 6.543e-6
-1.198, 6.307e-6
-1.197, 6.153e-6
-1.196, 5.705e-6
-1.195, 5.190e-6
-1.194, 4.973e-6
-1.193, 4.779e-6
-1.192, 4.649e-6
-1.191, 4.291e-6
-1.190, 3.771e-6
-1.189, 3.597e-6
-1.188, 3.521e-6
-1.187, 3.317e-6
-1.186, 3.038e-6
-1.185, 2.602e-6
-1.184, 2.431e-6
-1.183, 2.396e-6
-1.182, 2.192e-6
-1.181, 1.908e-6
-1.180, 1.603e-6
-1.179, 1.368e-6
-1.178, 1.371e-6
-1.177, 1.273e-6
-1.176, 1.000e-6
-1.175, 6.293e-7
-1.174, 4.852e-7
-1.173, 5.247e-7
-1.172, 4.576e-7
-1.171, 1.636e-7
-1.170, -1.146e-7
-1.169, -2.705e-7
-1.168, -2.340e-7
-1.167, -2.587e-7
-1.166, -5.487e-7
-1.165, -7.717e-7
-1.164, -8.783e-7
-1.163, -8.684e-7
-1.162, -8.349e-7
-1.161, -1.127e-6
-1.160, -1.338e-6
-1.159, -1.381e-6
-1.158, -1.398e-6
-1.157, -1.362e-6
-1.156, -1.563e-6
-1.155, -1.861e-6
-1.154, -1.906e-6
-1.153, -1.858e-6
-1.152, -1.833e-6
-1.151, -2.011e-6
-1.150, -2.281e-6
-1.149, -2.326e-6
-1.148, -2.265e-6
-1.147, -2.268e-6
-1.146, -2.337e-6
-1.145, -2.649e-6
-1.144, -2.728e-6
-1.143, -2.533e-6
-1.142, -2.547e-6
-1.141, -2.734e-6
-1.140, -2.939e-6
-1.139, -2.961e-6
-1.138, -2.856e-6
-1.137, -2.883e-6
-1.136, -2.972e-6
-1.135, -3.152e-6
-1.134, -3.295e-6
-1.133, -3.109e-6
-1.132, -3.091e-6
-1.131, -3.245e-6
-1.130, -3.404e-6
-1.129, -3.506e-6
-1.128, -3.358e-6
-1.127, -3.295e-6
-1.126, -3.504e-6
-1.125, -3.653e-6
-1.124, -3.674e-6
-1.123, -3.578e-6
-1.122, -3.494e-6
-1.121, -3.625e-6
-1.120, -3.835e-6
-1.119, -3.869e-6
-1.118, -3.752e-6
-1.117, -3.675e-6
-1.116, -3.819e-6
-1.115, -4.059e-6
-1.114, -4.050e-6
-1.113, -3.954e-6
-1.112, -3.819e-6
-1.111, -3.989e-6
-1.110, -4.239e-6
-1.109, -4.169e-6
-1.108, -4.038e-6
-1.107, -4.058e-6
-1.106, -4.118e-6
-1.105, -4.362e-6
-1.104, -4.407e-6
-1.103, -4.216e-6
-1.102, -4.207e-6
-1.101, -4.303e-6
-1.100, -4.481e-6
-1.099, -4.576e-6
-1.098, -4.383e-6
-1.097, -4.362e-6
-1.096, -4.417e-6
-1.095, -4.668e-6
-1.094, -4.706e-6
-1.093, -4.518e-6
-1.092, -4.444e-6
-1.091, -4.606e-6
-1.090, -4.763e-6
-1.089, -4.894e-6
-1.088, -4.682e-6
-1.087, -4.610e-6
-1.086, -4.790e-6
-1.085, -4.935e-6
-1.084, -5.011e-6
-1.083, -4.880e-6
-1.082, -4.778e-6
-1.081, -4.968e-6
-1.080, -5.094e-6
-1.079, -5.129e-6
-1.078, -5.074e-6
-1.077, -4.912e-6
-1.076, -5.136e-6
-1.075, -5.329e-6
-1.074, -5.360e-6
-1.073, -5.200e-6
-1.072, -5.155e-6
-1.071, -5.249e-6
-1.070, -5.501e-6
-1.069, -5.488e-6
-1.068, -5.357e-6
-1.067, -5.322e-6
-1.066, -5.461e-6
-1.065, -5.669e-6
-1.064, -5.667e-6
-1.063, -5.531e-6
-1.062, -5.542e-6
-1.061, -5.623e-6
-1.060, -5.827e-6
-1.059, -5.932e-6
-1.058, -5.748e-6
-1.057, -5.751e-6
-1.056, -5.881e-6
-1.055, -6.070e-6
-1.054, -6.164e-6
-1.053, -5.953e-6
-1.052, -5.928e-6
-1.051, -6.119e-6
-1.050, -6.287e-6
-1.049, -6.411e-6
-1.048, -6.204e-6
-1.047, -6.231e-6
-1.046, -6.372e-6
-1.045, -6.513e-6
-1.044, -6.604e-6
-1.043, -6.506e-6
-1.042, -6.461e-6
-1.041, -6.640e-6
-1.040, -6.782e-6
-1.039, -6.872e-6
-1.038, -6.768e-6
-1.037, -6.718e-6
-1.036, -6.858e-6
-1.035, -7.136e-6
-1.034, -7.102e-6
-1.033, -7.076e-6
-1.032, -6.989e-6
-1.031, -7.141e-6
-1.030, -7.409e-6
-1.029, -7.412e-6
-1.028, -7.306e-6
-1.027, -7.386e-6
-1.026, -7.457e-6
-1.025, -7.694e-6
-1.024, -7.767e-6
-1.023, -7.691e-6
-1.022, -7.652e-6
-1.021, -7.799e-6
-1.020, -8.033e-6
-1.019, -8.087e-6
-1.018, -7.983e-6
-1.017, -7.988e-6
-1.016, -8.165e-6
-1.015, -8.325e-6
-1.014, -8.463e-6
-1.013, -8.385e-6
-1.012, -8.342e-6
-1.011, -8.538e-6
-1.010, -8.694e-6
-1.009, -8.811e-6
-1.008, -8.733e-6
-1.007, -8.663e-6
-1.006, -8.876e-6
-1.005, -9.039e-6
-1.004, -9.233e-6
-1.003, -9.129e-6
-1.002, -9.057e-6
-1.001, -9.245e-6
