Sept. 2, 2024   09:45:30
Cyclic Voltammetry
File: c:/users/guazh/data/20240829_batch_215_500/2024-08-29-exp246\exp246-2024-09-02t09_21_03-arkoh\exp246_cv_sr_200mvs_efin_-2000mv.bin
Data Source:  Experiment
Instrument Model:  CHI760E
Header: CV ran at 200 mVs
Note: 

Init E (V) = -1
High E (V) = -1
Low E (V) = -2
Final E (V) = -1
Init P/N = N
Scan Rate (V/s) = 0.2
Segment = 3
Sample Interval (V) = 0.001
Quiet Time (sec) = 2
Sensitivity (A/V) = 0.01
Comp R (ohm) = 1.6

Results:

Channel 1:
Segment 1:

Segment 2:

Segment 3:

Potential/V, Current/A

-1.000, -6.117e-8
-1.001, -1.500e-7
-1.002, 1.657e-7
-1.003, 1.657e-7
-1.004, 3.137e-7
-1.005, 5.505e-7
-1.006, 2.151e-7
-1.007, 3.729e-7
-1.008, 4.716e-7
-1.009, 4.420e-7
-1.010, 6.393e-7
-1.011, 3.729e-7
-1.012, 8.465e-7
-1.013, 6.985e-7
-1.014, 6.590e-7
-1.015, 8.761e-7
-1.016, 6.886e-7
-1.017, 8.465e-7
-1.018, 9.353e-7
-1.019, 7.478e-7
-1.020, 8.958e-7
-1.021, 7.478e-7
-1.022, 1.093e-6
-1.023, 8.366e-7
-1.024, 9.156e-7
-1.025, 1.212e-6
-1.026, 9.649e-7
-1.027, 1.103e-6
-1.028, 1.133e-6
-1.029, 1.162e-6
-1.030, 1.389e-6
-1.031, 1.172e-6
-1.032, 1.152e-6
-1.033, 1.231e-6
-1.034, 1.054e-6
-1.035, 1.083e-6
-1.036, 1.123e-6
-1.037, 1.399e-6
-1.038, 1.340e-6
-1.039, 1.350e-6
-1.040, 1.389e-6
-1.041, 1.241e-6
-1.042, 1.429e-6
-1.043, 1.547e-6
-1.044, 1.340e-6
-1.045, 1.468e-6
-1.046, 1.231e-6
-1.047, 1.547e-6
-1.048, 1.458e-6
-1.049, 1.409e-6
-1.050, 1.754e-6
-1.051, 1.330e-6
-1.052, 1.685e-6
-1.053, 1.586e-6
-1.054, 1.596e-6
-1.055, 1.774e-6
-1.056, 1.596e-6
-1.057, 1.616e-6
-1.058, 1.725e-6
-1.059, 1.656e-6
-1.060, 1.784e-6
-1.061, 1.567e-6
-1.062, 1.646e-6
-1.063, 1.725e-6
-1.064, 1.646e-6
-1.065, 1.734e-6
-1.066, 1.606e-6
-1.067, 1.863e-6
-1.068, 1.715e-6
-1.069, 1.675e-6
-1.070, 1.725e-6
-1.071, 1.665e-6
-1.072, 1.853e-6
-1.073, 1.734e-6
-1.074, 1.853e-6
-1.075, 1.823e-6
-1.076, 1.803e-6
-1.077, 1.922e-6
-1.078, 1.833e-6
-1.079, 1.902e-6
-1.080, 1.833e-6
-1.081, 1.715e-6
-1.082, 1.932e-6
-1.083, 2.040e-6
-1.084, 1.922e-6
-1.085, 1.942e-6
-1.086, 1.754e-6
-1.087, 1.892e-6
-1.088, 1.892e-6
-1.089, 2.070e-6
-1.090, 2.090e-6
-1.091, 1.744e-6
-1.092, 2.001e-6
-1.093, 2.099e-6
-1.094, 1.932e-6
-1.095, 2.119e-6
-1.096, 1.902e-6
-1.097, 2.307e-6
-1.098, 2.030e-6
-1.099, 2.119e-6
-1.100, 2.119e-6
-1.101, 2.030e-6
-1.102, 2.277e-6
-1.103, 2.356e-6
-1.104, 2.198e-6
-1.105, 2.376e-6
-1.106, 2.188e-6
-1.107, 2.287e-6
-1.108, 2.060e-6
-1.109, 2.356e-6
-1.110, 2.287e-6
-1.111, 2.109e-6
-1.112, 2.593e-6
-1.113, 2.297e-6
-1.114, 2.257e-6
-1.115, 2.277e-6
-1.116, 2.099e-6
-1.117, 2.395e-6
-1.118, 2.435e-6
-1.119, 2.445e-6
-1.120, 2.376e-6
-1.121, 2.247e-6
-1.122, 2.465e-6
-1.123, 2.326e-6
-1.124, 2.307e-6
-1.125, 2.435e-6
-1.126, 2.346e-6
-1.127, 2.563e-6
-1.128, 2.534e-6
-1.129, 2.514e-6
-1.130, 2.731e-6
-1.131, 2.465e-6
-1.132, 2.622e-6
-1.133, 2.583e-6
-1.134, 2.376e-6
-1.135, 2.465e-6
-1.136, 2.376e-6
-1.137, 2.474e-6
-1.138, 2.583e-6
-1.139, 2.751e-6
-1.140, 2.593e-6
-1.141, 2.662e-6
-1.142, 2.632e-6
-1.143, 2.741e-6
-1.144, 2.455e-6
-1.145, 2.672e-6
-1.146, 2.613e-6
-1.147, 2.741e-6
-1.148, 2.691e-6
-1.149, 2.741e-6
-1.150, 2.741e-6
-1.151, 2.553e-6
-1.152, 2.849e-6
-1.153, 2.830e-6
-1.154, 2.524e-6
-1.155, 2.810e-6
-1.156, 2.711e-6
-1.157, 2.849e-6
-1.158, 2.830e-6
-1.159, 2.849e-6
-1.160, 2.780e-6
-1.161, 2.652e-6
-1.162, 3.066e-6
-1.163, 2.869e-6
-1.164, 2.751e-6
-1.165, 3.037e-6
-1.166, 2.938e-6
-1.167, 2.899e-6
-1.168, 2.889e-6
-1.169, 2.751e-6
-1.170, 2.899e-6
-1.171, 2.780e-6
-1.172, 3.017e-6
-1.173, 3.027e-6
-1.174, 2.839e-6
-1.175, 3.047e-6
-1.176, 2.918e-6
-1.177, 3.244e-6
-1.178, 3.165e-6
-1.179, 2.918e-6
-1.180, 3.116e-6
-1.181, 3.027e-6
-1.182, 3.047e-6
-1.183, 3.037e-6
-1.184, 2.879e-6
-1.185, 3.027e-6
-1.186, 3.047e-6
-1.187, 3.214e-6
-1.188, 2.928e-6
-1.189, 3.017e-6
-1.190, 3.264e-6
-1.191, 3.126e-6
-1.192, 3.264e-6
-1.193, 3.204e-6
-1.194, 2.948e-6
-1.195, 3.254e-6
-1.196, 2.958e-6
-1.197, 3.313e-6
-1.198, 3.165e-6
-1.199, 3.096e-6
-1.200, 3.234e-6
-1.201, 2.928e-6
-1.202, 3.175e-6
-1.203, 3.175e-6
-1.204, 3.343e-6
-1.205, 3.352e-6
-1.206, 3.224e-6
-1.207, 3.323e-6
-1.208, 3.126e-6
-1.209, 3.224e-6
-1.210, 3.560e-6
-1.211, 3.106e-6
-1.212, 3.599e-6
-1.213, 3.382e-6
-1.214, 3.204e-6
-1.215, 3.303e-6
-1.216, 3.392e-6
-1.217, 3.560e-6
-1.218, 3.323e-6
-1.219, 3.224e-6
-1.220, 3.471e-6
-1.221, 3.126e-6
-1.222, 3.402e-6
-1.223, 3.481e-6
-1.224, 3.491e-6
-1.225, 3.491e-6
-1.226, 3.333e-6
-1.227, 3.708e-6
-1.228, 3.303e-6
-1.229, 3.540e-6
-1.230, 3.717e-6
-1.231, 3.471e-6
-1.232, 3.777e-6
-1.233, 3.619e-6
-1.234, 3.481e-6
-1.235, 3.727e-6
-1.236, 3.570e-6
-1.237, 3.777e-6
-1.238, 3.570e-6
-1.239, 3.629e-6
-1.240, 3.648e-6
-1.241, 3.451e-6
-1.242, 3.708e-6
-1.243, 3.658e-6
-1.244, 3.639e-6
-1.245, 3.727e-6
-1.246, 3.717e-6
-1.247, 3.915e-6
-1.248, 3.668e-6
-1.249, 3.688e-6
-1.250, 3.865e-6
-1.251, 3.865e-6
-1.252, 3.974e-6
-1.253, 3.688e-6
-1.254, 3.816e-6
-1.255, 3.796e-6
-1.256, 3.865e-6
-1.257, 3.925e-6
-1.258, 3.777e-6
-1.259, 3.915e-6
-1.260, 3.944e-6
-1.261, 3.767e-6
-1.262, 4.004e-6
-1.263, 3.737e-6
-1.264, 3.836e-6
-1.265, 3.796e-6
-1.266, 3.777e-6
-1.267, 3.944e-6
-1.268, 4.083e-6
-1.269, 4.053e-6
-1.270, 4.013e-6
-1.271, 3.974e-6
-1.272, 3.974e-6
-1.273, 4.063e-6
-1.274, 3.935e-6
-1.275, 4.122e-6
-1.276, 3.895e-6
-1.277, 4.073e-6
-1.278, 4.102e-6
-1.279, 4.191e-6
-1.280, 4.270e-6
-1.281, 4.073e-6
-1.282, 4.290e-6
-1.283, 4.221e-6
-1.284, 4.092e-6
-1.285, 4.122e-6
-1.286, 4.132e-6
-1.287, 4.260e-6
-1.288, 4.309e-6
-1.289, 4.201e-6
-1.290, 4.201e-6
-1.291, 4.092e-6
-1.292, 4.290e-6
-1.293, 4.408e-6
-1.294, 4.191e-6
-1.295, 4.349e-6
-1.296, 3.935e-6
-1.297, 4.300e-6
-1.298, 4.309e-6
-1.299, 4.112e-6
-1.300, 4.487e-6
-1.301, 4.063e-6
-1.302, 4.448e-6
-1.303, 4.398e-6
-1.304, 4.112e-6
-1.305, 4.438e-6
-1.306, 4.339e-6
-1.307, 4.428e-6
-1.308, 4.448e-6
-1.309, 4.438e-6
-1.310, 4.457e-6
-1.311, 4.132e-6
-1.312, 4.546e-6
-1.313, 4.507e-6
-1.314, 4.398e-6
-1.315, 4.586e-6
-1.316, 4.290e-6
-1.317, 4.605e-6
-1.318, 4.586e-6
-1.319, 4.507e-6
-1.320, 4.625e-6
-1.321, 4.231e-6
-1.322, 4.684e-6
-1.323, 4.803e-6
-1.324, 4.448e-6
-1.325, 4.822e-6
-1.326, 4.596e-6
-1.327, 4.744e-6
-1.328, 4.576e-6
-1.329, 4.704e-6
-1.330, 4.961e-6
-1.331, 4.684e-6
-1.332, 4.911e-6
-1.333, 4.980e-6
-1.334, 4.724e-6
-1.335, 4.822e-6
-1.336, 4.724e-6
-1.337, 5.079e-6
-1.338, 4.724e-6
-1.339, 4.901e-6
-1.340, 4.882e-6
-1.341, 4.931e-6
-1.342, 4.862e-6
-1.343, 4.901e-6
-1.344, 4.852e-6
-1.345, 5.099e-6
-1.346, 4.852e-6
-1.347, 4.951e-6
-1.348, 4.990e-6
-1.349, 4.862e-6
-1.350, 5.040e-6
-1.351, 5.020e-6
-1.352, 5.109e-6
-1.353, 5.118e-6
-1.354, 5.069e-6
-1.355, 5.059e-6
-1.356, 4.980e-6
-1.357, 5.296e-6
-1.358, 5.118e-6
-1.359, 4.921e-6
-1.360, 5.178e-6
-1.361, 5.040e-6
-1.362, 5.296e-6
-1.363, 5.227e-6
-1.364, 5.296e-6
-1.365, 5.266e-6
-1.366, 5.079e-6
-1.367, 5.257e-6
-1.368, 5.257e-6
-1.369, 5.257e-6
-1.370, 5.257e-6
-1.371, 5.178e-6
-1.372, 5.336e-6
-1.373, 5.375e-6
-1.374, 5.266e-6
-1.375, 5.424e-6
-1.376, 5.355e-6
-1.377, 5.434e-6
-1.378, 5.385e-6
-1.379, 5.375e-6
-1.380, 5.375e-6
-1.381, 5.523e-6
-1.382, 5.474e-6
-1.383, 5.671e-6
-1.384, 5.424e-6
-1.385, 5.730e-6
-1.386, 5.562e-6
-1.387, 5.553e-6
-1.388, 5.710e-6
-1.389, 5.533e-6
-1.390, 5.888e-6
-1.391, 5.533e-6
-1.392, 5.809e-6
-1.393, 5.602e-6
-1.394, 5.701e-6
-1.395, 5.927e-6
-1.396, 5.927e-6
-1.397, 5.977e-6
-1.398, 5.858e-6
-1.399, 6.036e-6
-1.400, 5.957e-6
-1.401, 6.036e-6
-1.402, 5.927e-6
-1.403, 6.026e-6
-1.404, 5.750e-6
-1.405, 6.105e-6
-1.406, 5.829e-6
-1.407, 6.006e-6
-1.408, 6.056e-6
-1.409, 6.095e-6
-1.410, 6.056e-6
-1.411, 5.918e-6
-1.412, 6.105e-6
-1.413, 6.174e-6
-1.414, 5.987e-6
-1.415, 6.223e-6
-1.416, 6.125e-6
-1.417, 6.342e-6
-1.418, 6.233e-6
-1.419, 6.115e-6
-1.420, 6.293e-6
-1.421, 6.184e-6
-1.422, 6.579e-6
-1.423, 6.529e-6
-1.424, 6.273e-6
-1.425, 6.510e-6
-1.426, 6.283e-6
-1.427, 6.283e-6
-1.428, 6.539e-6
-1.429, 6.440e-6
-1.430, 6.559e-6
-1.431, 6.362e-6
-1.432, 6.519e-6
-1.433, 6.736e-6
-1.434, 6.510e-6
-1.435, 6.904e-6
-1.436, 6.825e-6
-1.437, 7.052e-6
-1.438, 6.904e-6
-1.439, 6.648e-6
-1.440, 7.102e-6
-1.441, 6.776e-6
-1.442, 6.914e-6
-1.443, 6.954e-6
-1.444, 6.954e-6
-1.445, 7.151e-6
-1.446, 6.954e-6
-1.447, 7.319e-6
-1.448, 7.121e-6
-1.449, 7.013e-6
-1.450, 7.220e-6
-1.451, 7.042e-6
-1.452, 7.348e-6
-1.453, 7.309e-6
-1.454, 7.279e-6
-1.455, 7.526e-6
-1.456, 7.299e-6
-1.457, 7.328e-6
-1.458, 7.664e-6
-1.459, 7.309e-6
-1.460, 7.545e-6
-1.461, 7.378e-6
-1.462, 7.930e-6
-1.463, 7.674e-6
-1.464, 7.723e-6
-1.465, 7.753e-6
-1.466, 7.871e-6
-1.467, 7.733e-6
-1.468, 7.881e-6
-1.469, 7.713e-6
-1.470, 7.782e-6
-1.471, 7.585e-6
-1.472, 7.871e-6
-1.473, 7.901e-6
-1.474, 8.128e-6
-1.475, 7.999e-6
-1.476, 8.118e-6
-1.477, 8.039e-6
-1.478, 8.108e-6
-1.479, 8.246e-6
-1.480, 8.364e-6
-1.481, 8.098e-6
-1.482, 8.295e-6
-1.483, 8.246e-6
-1.484, 8.236e-6
-1.485, 8.591e-6
-1.486, 8.493e-6
-1.487, 8.650e-6
-1.488, 8.631e-6
-1.489, 8.660e-6
-1.490, 8.641e-6
-1.491, 8.729e-6
-1.492, 8.897e-6
-1.493, 8.887e-6
-1.494, 8.769e-6
-1.495, 9.203e-6
-1.496, 8.779e-6
-1.497, 9.144e-6
-1.498, 9.203e-6
-1.499, 9.233e-6
-1.500, 9.302e-6
-1.501, 9.144e-6
-1.502, 9.598e-6
-1.503, 9.538e-6
-1.504, 9.331e-6
-1.505, 9.499e-6
-1.506, 9.351e-6
-1.507, 9.716e-6
-1.508, 9.825e-6
-1.509, 9.785e-6
-1.510, 9.755e-6
-1.511, 9.973e-6
-1.512, 9.943e-6
-1.513, 9.913e-6
-1.514, 9.903e-6
-1.515, 1.017e-5
-1.516, 1.003e-5
-1.517, 1.009e-5
-1.518, 1.037e-5
-1.519, 1.013e-5
-1.520, 1.044e-5
-1.521, 1.036e-5
-1.522, 1.044e-5
-1.523, 1.076e-5
-1.524, 1.053e-5
-1.525, 1.068e-5
-1.526, 1.060e-5
-1.527, 1.103e-5
-1.528, 1.110e-5
-1.529, 1.129e-5
-1.530, 1.134e-5
-1.531, 1.125e-5
-1.532, 1.135e-5
-1.533, 1.155e-5
-1.534, 1.114e-5
-1.535, 1.148e-5
-1.536, 1.137e-5
-1.537, 1.165e-5
-1.538, 1.161e-5
-1.539, 1.187e-5
-1.540, 1.192e-5
-1.541, 1.176e-5
-1.542, 1.207e-5
-1.543, 1.217e-5
-1.544, 1.215e-5
-1.545, 1.222e-5
-1.546, 1.228e-5
-1.547, 1.249e-5
-1.548, 1.288e-5
-1.549, 1.303e-5
-1.550, 1.301e-5
-1.551, 1.283e-5
-1.552, 1.339e-5
-1.553, 1.338e-5
-1.554, 1.346e-5
-1.555, 1.378e-5
-1.556, 1.379e-5
-1.557, 1.370e-5
-1.558, 1.388e-5
-1.559, 1.377e-5
-1.560, 1.386e-5
-1.561, 1.381e-5
-1.562, 1.446e-5
-1.563, 1.433e-5
-1.564, 1.430e-5
-1.565, 1.459e-5
-1.566, 1.489e-5
-1.567, 1.511e-5
-1.568, 1.540e-5
-1.569, 1.537e-5
-1.570, 1.557e-5
-1.571, 1.554e-5
-1.572, 1.592e-5
-1.573, 1.577e-5
-1.574, 1.606e-5
-1.575, 1.622e-5
-1.576, 1.633e-5
-1.577, 1.676e-5
-1.578, 1.675e-5
-1.579, 1.688e-5
-1.580, 1.707e-5
-1.581, 1.701e-5
-1.582, 1.754e-5
-1.583, 1.787e-5
-1.584, 1.767e-5
-1.585, 1.792e-5
-1.586, 1.801e-5
-1.587, 1.827e-5
-1.588, 1.850e-5
-1.589, 1.865e-5
-1.590, 1.893e-5
-1.591, 1.903e-5
-1.592, 1.953e-5
-1.593, 1.994e-5
-1.594, 2.040e-5
-1.595, 2.016e-5
-1.596, 2.018e-5
-1.597, 2.066e-5
-1.598, 2.082e-5
-1.599, 2.096e-5
-1.600, 2.117e-5
-1.601, 2.144e-5
-1.602, 2.219e-5
-1.603, 2.277e-5
-1.604, 2.286e-5
-1.605, 2.294e-5
-1.606, 2.287e-5
-1.607, 2.339e-5
-1.608, 2.378e-5
-1.609, 2.365e-5
-1.610, 2.442e-5
-1.611, 2.449e-5
-1.612, 2.484e-5
-1.613, 2.515e-5
-1.614, 2.542e-5
-1.615, 2.582e-5
-1.616, 2.593e-5
-1.617, 2.643e-5
-1.618, 2.678e-5
-1.619, 2.704e-5
-1.620, 2.761e-5
-1.621, 2.762e-5
-1.622, 2.848e-5
-1.623, 2.875e-5
-1.624, 2.881e-5
-1.625, 2.938e-5
-1.626, 2.965e-5
-1.627, 3.013e-5
-1.628, 3.055e-5
-1.629, 3.085e-5
-1.630, 3.157e-5
-1.631, 3.151e-5
-1.632, 3.217e-5
-1.633, 3.268e-5
-1.634, 3.291e-5
-1.635, 3.373e-5
-1.636, 3.378e-5
-1.637, 3.463e-5
-1.638, 3.502e-5
-1.639, 3.574e-5
-1.640, 3.683e-5
-1.641, 3.688e-5
-1.642, 3.702e-5
-1.643, 3.786e-5
-1.644, 3.810e-5
-1.645, 3.905e-5
-1.646, 3.941e-5
-1.647, 4.014e-5
-1.648, 4.053e-5
-1.649, 4.103e-5
-1.650, 4.203e-5
-1.651, 4.263e-5
-1.652, 4.360e-5
-1.653, 4.447e-5
-1.654, 4.490e-5
-1.655, 4.611e-5
-1.656, 4.612e-5
-1.657, 4.717e-5
-1.658, 4.804e-5
-1.659, 4.892e-5
-1.660, 4.968e-5
-1.661, 5.038e-5
-1.662, 5.139e-5
-1.663, 5.239e-5
-1.664, 5.320e-5
-1.665, 5.427e-5
-1.666, 5.486e-5
-1.667, 5.615e-5
-1.668, 5.784e-5
-1.669, 5.870e-5
-1.670, 5.908e-5
-1.671, 6.061e-5
-1.672, 6.146e-5
-1.673, 6.210e-5
-1.674, 6.356e-5
-1.675, 6.478e-5
-1.676, 6.465e-5
-1.677, 6.755e-5
-1.678, 6.739e-5
-1.679, 6.946e-5
-1.680, 7.055e-5
-1.681, 7.197e-5
-1.682, 7.271e-5
-1.683, 7.449e-5
-1.684, 7.474e-5
-1.685, 7.706e-5
-1.686, 7.771e-5
-1.687, 8.021e-5
-1.688, 8.157e-5
-1.689, 8.318e-5
-1.690, 8.476e-5
-1.691, 8.579e-5
-1.692, 8.809e-5
-1.693, 8.900e-5
-1.694, 9.103e-5
-1.695, 9.227e-5
-1.696, 9.390e-5
-1.697, 9.582e-5
-1.698, 9.724e-5
-1.699, 1.003e-4
-1.700, 1.028e-4
-1.701, 1.027e-4
-1.702, 1.050e-4
-1.703, 1.062e-4
-1.704, 1.088e-4
-1.705, 1.105e-4
-1.706, 1.133e-4
-1.707, 1.151e-4
-1.708, 1.174e-4
-1.709, 1.197e-4
-1.710, 1.222e-4
-1.711, 1.242e-4
-1.712, 1.268e-4
-1.713, 1.288e-4
-1.714, 1.326e-4
-1.715, 1.357e-4
-1.716, 1.380e-4
-1.717, 1.407e-4
-1.718, 1.436e-4
-1.719, 1.458e-4
-1.720, 1.487e-4
-1.721, 1.510e-4
-1.722, 1.549e-4
-1.723, 1.586e-4
-1.724, 1.615e-4
-1.725, 1.647e-4
-1.726, 1.679e-4
-1.727, 1.723e-4
-1.728, 1.751e-4
-1.729, 1.782e-4
-1.730, 1.826e-4
-1.731, 1.865e-4
-1.732, 1.902e-4
-1.733, 1.941e-4
-1.734, 1.976e-4
-1.735, 2.010e-4
-1.736, 2.050e-4
-1.737, 2.094e-4
-1.738, 2.139e-4
-1.739, 2.189e-4
-1.740, 2.232e-4
-1.741, 2.281e-4
-1.742, 2.324e-4
-1.743, 2.375e-4
-1.744, 2.422e-4
-1.745, 2.471e-4
-1.746, 2.522e-4
-1.747, 2.579e-4
-1.748, 2.621e-4
-1.749, 2.673e-4
-1.750, 2.733e-4
-1.751, 2.792e-4
-1.752, 2.864e-4
-1.753, 2.916e-4
-1.754, 2.980e-4
-1.755, 3.036e-4
-1.756, 3.088e-4
-1.757, 3.154e-4
-1.758, 3.227e-4
-1.759, 3.298e-4
-1.760, 3.359e-4
-1.761, 3.438e-4
-1.762, 3.499e-4
-1.763, 3.575e-4
-1.764, 3.643e-4
-1.765, 3.721e-4
-1.766, 3.796e-4
-1.767, 3.888e-4
-1.768, 3.960e-4
-1.769, 4.050e-4
-1.770, 4.127e-4
-1.771, 4.215e-4
-1.772, 4.318e-4
-1.773, 4.406e-4
-1.774, 4.498e-4
-1.775, 4.590e-4
-1.776, 4.690e-4
-1.777, 4.782e-4
-1.778, 4.889e-4
-1.779, 4.981e-4
-1.780, 5.099e-4
-1.781, 5.191e-4
-1.782, 5.303e-4
-1.783, 5.399e-4
-1.784, 5.520e-4
-1.785, 5.602e-4
-1.786, 5.700e-4
-1.787, 5.801e-4
-1.788, 5.916e-4
-1.789, 6.047e-4
-1.790, 6.188e-4
-1.791, 6.322e-4
-1.792, 6.468e-4
-1.793, 6.604e-4
-1.794, 6.724e-4
-1.795, 6.852e-4
-1.796, 6.994e-4
-1.797, 7.148e-4
-1.798, 7.282e-4
-1.799, 7.424e-4
-1.800, 7.568e-4
-1.801, 7.714e-4
-1.802, 7.849e-4
-1.803, 7.991e-4
-1.804, 8.146e-4
-1.805, 8.291e-4
-1.806, 8.470e-4
-1.807, 8.653e-4
-1.808, 8.835e-4
-1.809, 9.014e-4
-1.810, 9.215e-4
-1.811, 9.387e-4
-1.812, 9.561e-4
-1.813, 9.725e-4
-1.814, 9.888e-4
-1.815, 1.007e-3
-1.816, 1.026e-3
-1.817, 1.044e-3
-1.818, 1.067e-3
-1.819, 1.084e-3
-1.820, 1.105e-3
-1.821, 1.124e-3
-1.822, 1.145e-3
-1.823, 1.165e-3
-1.824, 1.186e-3
-1.825, 1.207e-3
-1.826, 1.228e-3
-1.827, 1.250e-3
-1.828, 1.276e-3
-1.829, 1.294e-3
-1.830, 1.316e-3
-1.831, 1.338e-3
-1.832, 1.359e-3
-1.833, 1.381e-3
-1.834, 1.403e-3
-1.835, 1.427e-3
-1.836, 1.453e-3
-1.837, 1.480e-3
-1.838, 1.504e-3
-1.839, 1.529e-3
-1.840, 1.556e-3
-1.841, 1.580e-3
-1.842, 1.606e-3
-1.843, 1.632e-3
-1.844, 1.658e-3
-1.845, 1.686e-3
-1.846, 1.713e-3
-1.847, 1.741e-3
-1.848, 1.768e-3
-1.849, 1.797e-3
-1.850, 1.824e-3
-1.851, 1.851e-3
-1.852, 1.878e-3
-1.853, 1.906e-3
-1.854, 1.934e-3
-1.855, 1.962e-3
-1.856, 1.995e-3
-1.857, 2.021e-3
-1.858, 2.050e-3
-1.859, 2.080e-3
-1.860, 2.114e-3
-1.861, 2.151e-3
-1.862, 2.184e-3
-1.863, 2.213e-3
-1.864, 2.232e-3
-1.865, 2.248e-3
-1.866, 2.265e-3
-1.867, 2.298e-3
-1.868, 2.354e-3
-1.869, 2.415e-3
-1.870, 2.470e-3
-1.871, 2.522e-3
-1.872, 2.569e-3
-1.873, 2.612e-3
-1.874, 2.650e-3
-1.875, 2.675e-3
-1.876, 2.699e-3
-1.877, 2.727e-3
-1.878, 2.768e-3
-1.879, 2.812e-3
-1.880, 2.864e-3
-1.881, 2.912e-3
-1.882, 2.960e-3
-1.883, 3.003e-3
-1.884, 3.038e-3
-1.885, 3.075e-3
-1.886, 3.106e-3
-1.887, 3.138e-3
-1.888, 3.165e-3
-1.889, 3.201e-3
-1.890, 3.232e-3
-1.891, 3.264e-3
-1.892, 3.301e-3
-1.893, 3.340e-3
-1.894, 3.374e-3
-1.895, 3.405e-3
-1.896, 3.434e-3
-1.897, 3.462e-3
-1.898, 3.494e-3
-1.899, 3.533e-3
-1.900, 3.569e-3
-1.901, 3.614e-3
-1.902, 3.664e-3
-1.903, 3.713e-3
-1.904, 3.760e-3
-1.905, 3.808e-3
-1.906, 3.852e-3
-1.907, 3.899e-3
-1.908, 3.948e-3
-1.909, 3.994e-3
-1.910, 4.036e-3
-1.911, 4.069e-3
-1.912, 4.105e-3
-1.913, 4.140e-3
-1.914, 4.171e-3
-1.915, 4.210e-3
-1.916, 4.263e-3
-1.917, 4.308e-3
-1.918, 4.349e-3
-1.919, 4.390e-3
-1.920, 4.426e-3
-1.921, 4.458e-3
-1.922, 4.497e-3
-1.923, 4.542e-3
-1.924, 4.588e-3
-1.925, 4.632e-3
-1.926, 4.686e-3
-1.927, 4.737e-3
-1.928, 4.788e-3
-1.929, 4.847e-3
-1.930, 4.914e-3
-1.931, 4.976e-3
-1.932, 5.043e-3
-1.933, 5.110e-3
-1.934, 5.179e-3
-1.935, 5.236e-3
-1.936, 5.296e-3
-1.937, 5.355e-3
-1.938, 5.408e-3
-1.939, 5.471e-3
-1.940, 5.523e-3
-1.941, 5.580e-3
-1.942, 5.626e-3
-1.943, 5.668e-3
-1.944, 5.693e-3
-1.945, 5.711e-3
-1.946, 5.716e-3
-1.947, 5.728e-3
-1.948, 5.756e-3
-1.949, 5.814e-3
-1.950, 5.885e-3
-1.951, 5.951e-3
-1.952, 6.015e-3
-1.953, 6.062e-3
-1.954, 6.102e-3
-1.955, 6.127e-3
-1.956, 6.162e-3
-1.957, 6.199e-3
-1.958, 6.259e-3
-1.959, 6.331e-3
-1.960, 6.405e-3
-1.961, 6.470e-3
-1.962, 6.538e-3
-1.963, 6.596e-3
-1.964, 6.652e-3
-1.965, 6.704e-3
-1.966, 6.752e-3
-1.967, 6.795e-3
-1.968, 6.837e-3
-1.969, 6.884e-3
-1.970, 6.936e-3
-1.971, 6.986e-3
-1.972, 7.040e-3
-1.973, 7.102e-3
-1.974, 7.152e-3
-1.975, 7.188e-3
-1.976, 7.228e-3
-1.977, 7.273e-3
-1.978, 7.323e-3
-1.979, 7.374e-3
-1.980, 7.448e-3
-1.981, 7.522e-3
-1.982, 7.583e-3
-1.983, 7.645e-3
-1.984, 7.685e-3
-1.985, 7.730e-3
-1.986, 7.768e-3
-1.987, 7.839e-3
-1.988, 7.911e-3
-1.989, 8.005e-3
-1.990, 8.103e-3
-1.991, 8.207e-3
-1.992, 8.303e-3
-1.993, 8.389e-3
-1.994, 8.443e-3
-1.995, 8.512e-3
-1.996, 8.559e-3
-1.997, 8.607e-3
-1.998, 8.638e-3
-1.999, 8.680e-3
-2.000, 8.652e-3
-1.999, 8.576e-3
-1.998, 8.494e-3
-1.997, 8.416e-3
-1.996, 8.343e-3
-1.995, 8.289e-3
-1.994, 8.235e-3
-1.993, 8.182e-3
-1.992, 8.141e-3
-1.991, 8.088e-3
-1.990, 8.042e-3
-1.989, 7.987e-3
-1.988, 7.937e-3
-1.987, 7.898e-3
-1.986, 7.848e-3
-1.985, 7.814e-3
-1.984, 7.770e-3
-1.983, 7.720e-3
-1.982, 7.675e-3
-1.981, 7.637e-3
-1.980, 7.590e-3
-1.979, 7.535e-3
-1.978, 7.504e-3
-1.977, 7.437e-3
-1.976, 7.364e-3
-1.975, 7.302e-3
-1.974, 7.247e-3
-1.973, 7.192e-3
-1.972, 7.150e-3
-1.971, 7.106e-3
-1.970, 7.059e-3
-1.969, 6.998e-3
-1.968, 6.944e-3
-1.967, 6.890e-3
-1.966, 6.843e-3
-1.965, 6.796e-3
-1.964, 6.768e-3
-1.963, 6.712e-3
-1.962, 6.678e-3
-1.961, 6.646e-3
-1.960, 6.610e-3
-1.959, 6.584e-3
-1.958, 6.567e-3
-1.957, 6.550e-3
-1.956, 6.508e-3
-1.955, 6.475e-3
-1.954, 6.428e-3
-1.953, 6.360e-3
-1.952, 6.299e-3
-1.951, 6.241e-3
-1.950, 6.208e-3
-1.949, 6.159e-3
-1.948, 6.146e-3
-1.947, 6.113e-3
-1.946, 6.069e-3
-1.945, 6.001e-3
-1.944, 5.948e-3
-1.943, 5.859e-3
-1.942, 5.787e-3
-1.941, 5.716e-3
-1.940, 5.667e-3
-1.939, 5.625e-3
-1.938, 5.582e-3
-1.937, 5.551e-3
-1.936, 5.510e-3
-1.935, 5.456e-3
-1.934, 5.401e-3
-1.933, 5.348e-3
-1.932, 5.301e-3
-1.931, 5.259e-3
-1.930, 5.227e-3
-1.929, 5.198e-3
-1.928, 5.156e-3
-1.927, 5.113e-3
-1.926, 5.071e-3
-1.925, 5.021e-3
-1.924, 4.965e-3
-1.923, 4.933e-3
-1.922, 4.891e-3
-1.921, 4.840e-3
-1.920, 4.803e-3
-1.919, 4.764e-3
-1.918, 4.722e-3
-1.917, 4.676e-3
-1.916, 4.630e-3
-1.915, 4.587e-3
-1.914, 4.540e-3
-1.913, 4.497e-3
-1.912, 4.465e-3
-1.911, 4.433e-3
-1.910, 4.405e-3
-1.909, 4.374e-3
-1.908, 4.338e-3
-1.907, 4.305e-3
-1.906, 4.260e-3
-1.905, 4.218e-3
-1.904, 4.171e-3
-1.903, 4.146e-3
-1.902, 4.130e-3
-1.901, 4.112e-3
-1.900, 4.085e-3
-1.899, 4.052e-3
-1.898, 4.010e-3
-1.897, 3.967e-3
-1.896, 3.912e-3
-1.895, 3.865e-3
-1.894, 3.818e-3
-1.893, 3.785e-3
-1.892, 3.769e-3
-1.891, 3.740e-3
-1.890, 3.709e-3
-1.889, 3.661e-3
-1.888, 3.628e-3
-1.887, 3.575e-3
-1.886, 3.515e-3
-1.885, 3.469e-3
-1.884, 3.434e-3
-1.883, 3.404e-3
-1.882, 3.377e-3
-1.881, 3.348e-3
-1.880, 3.313e-3
-1.879, 3.277e-3
-1.878, 3.247e-3
-1.877, 3.210e-3
-1.876, 3.169e-3
-1.875, 3.136e-3
-1.874, 3.114e-3
-1.873, 3.086e-3
-1.872, 3.053e-3
-1.871, 3.020e-3
-1.870, 2.984e-3
-1.869, 2.957e-3
-1.868, 2.924e-3
-1.867, 2.885e-3
-1.866, 2.861e-3
-1.865, 2.834e-3
-1.864, 2.800e-3
-1.863, 2.770e-3
-1.862, 2.741e-3
-1.861, 2.708e-3
-1.860, 2.674e-3
-1.859, 2.643e-3
-1.858, 2.613e-3
-1.857, 2.580e-3
-1.856, 2.553e-3
-1.855, 2.528e-3
-1.854, 2.503e-3
-1.853, 2.479e-3
-1.852, 2.455e-3
-1.851, 2.432e-3
-1.850, 2.409e-3
-1.849, 2.384e-3
-1.848, 2.360e-3
-1.847, 2.338e-3
-1.846, 2.313e-3
-1.845, 2.288e-3
-1.844, 2.259e-3
-1.843, 2.231e-3
-1.842, 2.201e-3
-1.841, 2.176e-3
-1.840, 2.156e-3
-1.839, 2.130e-3
-1.838, 2.107e-3
-1.837, 2.081e-3
-1.836, 2.057e-3
-1.835, 2.030e-3
-1.834, 2.002e-3
-1.833, 1.974e-3
-1.832, 1.948e-3
-1.831, 1.921e-3
-1.830, 1.899e-3
-1.829, 1.876e-3
-1.828, 1.853e-3
-1.827, 1.825e-3
-1.826, 1.803e-3
-1.825, 1.780e-3
-1.824, 1.761e-3
-1.823, 1.740e-3
-1.822, 1.720e-3
-1.821, 1.699e-3
-1.820, 1.678e-3
-1.819, 1.657e-3
-1.818, 1.637e-3
-1.817, 1.612e-3
-1.816, 1.592e-3
-1.815, 1.570e-3
-1.814, 1.553e-3
-1.813, 1.536e-3
-1.812, 1.512e-3
-1.811, 1.491e-3
-1.810, 1.471e-3
-1.809, 1.452e-3
-1.808, 1.432e-3
-1.807, 1.412e-3
-1.806, 1.398e-3
-1.805, 1.382e-3
-1.804, 1.359e-3
-1.803, 1.338e-3
-1.802, 1.318e-3
-1.801, 1.297e-3
-1.800, 1.281e-3
-1.799, 1.265e-3
-1.798, 1.248e-3
-1.797, 1.233e-3
-1.796, 1.217e-3
-1.795, 1.201e-3
-1.794, 1.188e-3
-1.793, 1.174e-3
-1.792, 1.160e-3
-1.791, 1.146e-3
-1.790, 1.131e-3
-1.789, 1.115e-3
-1.788, 1.100e-3
-1.787, 1.084e-3
-1.786, 1.070e-3
-1.785, 1.053e-3
-1.784, 1.040e-3
-1.783, 1.026e-3
-1.782, 1.011e-3
-1.781, 9.968e-4
-1.780, 9.809e-4
-1.779, 9.670e-4
-1.778, 9.535e-4
-1.777, 9.387e-4
-1.776, 9.237e-4
-1.775, 9.101e-4
-1.774, 8.973e-4
-1.773, 8.845e-4
-1.772, 8.721e-4
-1.771, 8.584e-4
-1.770, 8.465e-4
-1.769, 8.344e-4
-1.768, 8.215e-4
-1.767, 8.102e-4
-1.766, 7.976e-4
-1.765, 7.876e-4
-1.764, 7.753e-4
-1.763, 7.645e-4
-1.762, 7.532e-4
-1.761, 7.434e-4
-1.760, 7.367e-4
-1.759, 7.251e-4
-1.758, 7.116e-4
-1.757, 6.980e-4
-1.756, 6.870e-4
-1.755, 6.751e-4
-1.754, 6.634e-4
-1.753, 6.546e-4
-1.752, 6.461e-4
-1.751, 6.384e-4
-1.750, 6.294e-4
-1.749, 6.204e-4
-1.748, 6.106e-4
-1.747, 5.998e-4
-1.746, 5.909e-4
-1.745, 5.819e-4
-1.744, 5.712e-4
-1.743, 5.604e-4
-1.742, 5.495e-4
-1.741, 5.389e-4
-1.740, 5.321e-4
-1.739, 5.271e-4
-1.738, 5.212e-4
-1.737, 5.134e-4
-1.736, 5.034e-4
-1.735, 4.956e-4
-1.734, 4.902e-4
-1.733, 4.840e-4
-1.732, 4.761e-4
-1.731, 4.678e-4
-1.730, 4.605e-4
-1.729, 4.544e-4
-1.728, 4.456e-4
-1.727, 4.370e-4
-1.726, 4.296e-4
-1.725, 4.225e-4
-1.724, 4.156e-4
-1.723, 4.087e-4
-1.722, 4.011e-4
-1.721, 3.965e-4
-1.720, 3.920e-4
-1.719, 3.865e-4
-1.718, 3.805e-4
-1.717, 3.725e-4
-1.716, 3.667e-4
-1.715, 3.630e-4
-1.714, 3.567e-4
-1.713, 3.511e-4
-1.712, 3.449e-4
-1.711, 3.369e-4
-1.710, 3.304e-4
-1.709, 3.250e-4
-1.708, 3.206e-4
-1.707, 3.158e-4
-1.706, 3.108e-4
-1.705, 3.049e-4
-1.704, 2.993e-4
-1.703, 2.941e-4
-1.702, 2.877e-4
-1.701, 2.820e-4
-1.700, 2.766e-4
-1.699, 2.716e-4
-1.698, 2.674e-4
-1.697, 2.626e-4
-1.696, 2.582e-4
-1.695, 2.533e-4
-1.694, 2.490e-4
-1.693, 2.448e-4
-1.692, 2.402e-4
-1.691, 2.360e-4
-1.690, 2.322e-4
-1.689, 2.281e-4
-1.688, 2.243e-4
-1.687, 2.205e-4
-1.686, 2.165e-4
-1.685, 2.119e-4
-1.684, 2.085e-4
-1.683, 2.062e-4
-1.682, 2.025e-4
-1.681, 1.995e-4
-1.680, 1.965e-4
-1.679, 1.922e-4
-1.678, 1.907e-4
-1.677, 1.883e-4
-1.676, 1.849e-4
-1.675, 1.819e-4
-1.674, 1.787e-4
-1.673, 1.754e-4
-1.672, 1.710e-4
-1.671, 1.676e-4
-1.670, 1.646e-4
-1.669, 1.611e-4
-1.668, 1.583e-4
-1.667, 1.558e-4
-1.666, 1.532e-4
-1.665, 1.498e-4
-1.664, 1.466e-4
-1.663, 1.441e-4
-1.662, 1.413e-4
-1.661, 1.388e-4
-1.660, 1.372e-4
-1.659, 1.337e-4
-1.658, 1.311e-4
-1.657, 1.269e-4
-1.656, 1.252e-4
-1.655, 1.226e-4
-1.654, 1.207e-4
-1.653, 1.187e-4
-1.652, 1.171e-4
-1.651, 1.149e-4
-1.650, 1.132e-4
-1.649, 1.107e-4
-1.648, 1.088e-4
-1.647, 1.063e-4
-1.646, 1.038e-4
-1.645, 1.018e-4
-1.644, 9.929e-5
-1.643, 9.717e-5
-1.642, 9.509e-5
-1.641, 9.330e-5
-1.640, 9.176e-5
-1.639, 8.967e-5
-1.638, 8.856e-5
-1.637, 8.732e-5
-1.636, 8.533e-5
-1.635, 8.406e-5
-1.634, 8.227e-5
-1.633, 8.038e-5
-1.632, 7.870e-5
-1.631, 7.727e-5
-1.630, 7.606e-5
-1.629, 7.479e-5
-1.628, 7.388e-5
-1.627, 7.240e-5
-1.626, 7.097e-5
-1.625, 6.905e-5
-1.624, 6.753e-5
-1.623, 6.635e-5
-1.622, 6.491e-5
-1.621, 6.352e-5
-1.620, 6.217e-5
-1.619, 6.084e-5
-1.618, 5.881e-5
-1.617, 5.732e-5
-1.616, 5.649e-5
-1.615, 5.579e-5
-1.614, 5.467e-5
-1.613, 5.342e-5
-1.612, 5.205e-5
-1.611, 5.073e-5
-1.610, 4.991e-5
-1.609, 4.853e-5
-1.608, 4.776e-5
-1.607, 4.657e-5
-1.606, 4.573e-5
-1.605, 4.488e-5
-1.604, 4.389e-5
-1.603, 4.317e-5
-1.602, 4.224e-5
-1.601, 4.128e-5
-1.600, 4.053e-5
-1.599, 3.963e-5
-1.598, 3.909e-5
-1.597, 3.840e-5
-1.596, 3.695e-5
-1.595, 3.624e-5
-1.594, 3.507e-5
-1.593, 3.446e-5
-1.592, 3.363e-5
-1.591, 3.276e-5
-1.590, 3.214e-5
-1.589, 3.148e-5
-1.588, 3.069e-5
-1.587, 2.994e-5
-1.586, 2.902e-5
-1.585, 2.849e-5
-1.584, 2.777e-5
-1.583, 2.727e-5
-1.582, 2.650e-5
-1.581, 2.585e-5
-1.580, 2.559e-5
-1.579, 2.460e-5
-1.578, 2.440e-5
-1.577, 2.368e-5
-1.576, 2.320e-5
-1.575, 2.262e-5
-1.574, 2.201e-5
-1.573, 2.186e-5
-1.572, 2.141e-5
-1.571, 2.107e-5
-1.570, 2.054e-5
-1.569, 1.962e-5
-1.568, 1.934e-5
-1.567, 1.834e-5
-1.566, 1.782e-5
-1.565, 1.775e-5
-1.564, 1.711e-5
-1.563, 1.690e-5
-1.562, 1.623e-5
-1.561, 1.601e-5
-1.560, 1.553e-5
-1.559, 1.518e-5
-1.558, 1.479e-5
-1.557, 1.422e-5
-1.556, 1.397e-5
-1.555, 1.378e-5
-1.554, 1.331e-5
-1.553, 1.311e-5
-1.552, 1.278e-5
-1.551, 1.230e-5
-1.550, 1.204e-5
-1.549, 1.129e-5
-1.548, 1.121e-5
-1.547, 1.081e-5
-1.546, 1.054e-5
-1.545, 1.006e-5
-1.544, 9.755e-6
-1.543, 9.696e-6
-1.542, 9.292e-6
-1.541, 8.927e-6
-1.540, 8.769e-6
-1.539, 8.512e-6
-1.538, 8.729e-6
-1.537, 8.216e-6
-1.536, 8.029e-6
-1.535, 7.615e-6
-1.534, 7.516e-6
-1.533, 7.447e-6
-1.532, 7.190e-6
-1.531, 7.052e-6
-1.530, 6.825e-6
-1.529, 6.322e-6
-1.528, 6.293e-6
-1.527, 5.997e-6
-1.526, 5.592e-6
-1.525, 5.513e-6
-1.524, 5.049e-6
-1.523, 5.049e-6
-1.522, 4.783e-6
-1.521, 4.655e-6
-1.520, 4.546e-6
-1.519, 3.984e-6
-1.518, 4.004e-6
-1.517, 3.895e-6
-1.516, 3.589e-6
-1.515, 3.658e-6
-1.514, 3.274e-6
-1.513, 3.175e-6
-1.512, 2.869e-6
-1.511, 3.106e-6
-1.510, 2.642e-6
-1.509, 2.603e-6
-1.508, 2.543e-6
-1.507, 2.613e-6
-1.506, 2.257e-6
-1.505, 2.198e-6
-1.504, 1.951e-6
-1.503, 1.932e-6
-1.502, 1.902e-6
-1.501, 1.754e-6
-1.500, 1.606e-6
-1.499, 1.162e-6
-1.498, 1.379e-6
-1.497, 1.152e-6
-1.496, 1.004e-6
-1.495, 1.044e-6
-1.494, 5.308e-7
-1.493, 8.366e-7
-1.492, 6.097e-7
-1.491, 5.801e-7
-1.490, 4.815e-7
-1.489, 1.855e-7
-1.488, 2.249e-7
-1.487, 6.709e-8
-1.486, 9.669e-8
-1.485, 1.066e-7
-1.484, -2.190e-7
-1.483, -2.289e-7
-1.482, -4.657e-7
-1.481, -3.769e-7
-1.480, -4.262e-7
-1.479, -4.065e-7
-1.478, -8.110e-7
-1.477, -4.953e-7
-1.476, -8.307e-7
-1.475, -9.195e-7
-1.474, -1.097e-6
-1.473, -7.617e-7
-1.472, -1.127e-6
-1.471, -1.018e-6
-1.470, -1.137e-6
-1.469, -1.314e-6
-1.468, -1.294e-6
-1.467, -1.373e-6
-1.466, -1.433e-6
-1.465, -1.462e-6
-1.464, -1.630e-6
-1.463, -1.571e-6
-1.462, -1.788e-6
-1.461, -1.719e-6
-1.460, -1.738e-6
-1.459, -1.946e-6
-1.458, -1.650e-6
-1.457, -1.857e-6
-1.456, -2.074e-6
-1.455, -1.867e-6
-1.454, -2.123e-6
-1.453, -1.906e-6
-1.452, -2.094e-6
-1.451, -2.182e-6
-1.450, -2.103e-6
-1.449, -2.459e-6
-1.448, -2.301e-6
-1.447, -2.498e-6
-1.446, -2.686e-6
-1.445, -2.281e-6
-1.444, -2.626e-6
-1.443, -2.478e-6
-1.442, -2.538e-6
-1.441, -2.705e-6
-1.440, -2.468e-6
-1.439, -2.784e-6
-1.438, -2.597e-6
-1.437, -2.764e-6
-1.436, -2.774e-6
-1.435, -2.755e-6
-1.434, -2.952e-6
-1.433, -2.843e-6
-1.432, -3.120e-6
-1.431, -3.100e-6
-1.430, -2.853e-6
-1.429, -3.080e-6
-1.428, -2.962e-6
-1.427, -3.060e-6
-1.426, -2.972e-6
-1.425, -3.248e-6
-1.424, -3.080e-6
-1.423, -3.258e-6
-1.422, -3.228e-6
-1.421, -3.307e-6
-1.420, -3.199e-6
-1.419, -3.347e-6
-1.418, -3.287e-6
-1.417, -3.386e-6
-1.416, -3.416e-6
-1.415, -3.258e-6
-1.414, -3.544e-6
-1.413, -3.307e-6
-1.412, -3.544e-6
-1.411, -3.524e-6
-1.410, -3.524e-6
-1.409, -3.721e-6
-1.408, -3.504e-6
-1.407, -3.425e-6
-1.406, -3.643e-6
-1.405, -3.593e-6
-1.404, -3.702e-6
-1.403, -3.702e-6
-1.402, -3.800e-6
-1.401, -3.652e-6
-1.400, -3.643e-6
-1.399, -3.712e-6
-1.398, -3.692e-6
-1.397, -3.613e-6
-1.396, -3.909e-6
-1.395, -3.800e-6
-1.394, -3.899e-6
-1.393, -3.761e-6
-1.392, -3.800e-6
-1.391, -3.751e-6
-1.390, -3.721e-6
-1.389, -3.889e-6
-1.388, -3.702e-6
-1.387, -3.850e-6
-1.386, -3.879e-6
-1.385, -3.988e-6
-1.384, -3.938e-6
-1.383, -3.830e-6
-1.382, -3.978e-6
-1.381, -3.889e-6
-1.380, -3.860e-6
-1.379, -4.008e-6
-1.378, -4.086e-6
-1.377, -3.860e-6
-1.376, -4.096e-6
-1.375, -3.938e-6
-1.374, -4.195e-6
-1.373, -3.968e-6
-1.372, -4.116e-6
-1.371, -3.929e-6
-1.370, -3.978e-6
-1.369, -4.037e-6
-1.368, -4.195e-6
-1.367, -3.929e-6
-1.366, -4.156e-6
-1.365, -4.047e-6
-1.364, -4.156e-6
-1.363, -4.008e-6
-1.362, -4.008e-6
-1.361, -4.017e-6
-1.360, -4.037e-6
-1.359, -4.195e-6
-1.358, -3.919e-6
-1.357, -4.106e-6
-1.356, -4.077e-6
-1.355, -4.205e-6
-1.354, -4.313e-6
-1.353, -4.284e-6
-1.352, -4.086e-6
-1.351, -4.225e-6
-1.350, -4.106e-6
-1.349, -4.363e-6
-1.348, -4.156e-6
-1.347, -4.165e-6
-1.346, -4.254e-6
-1.345, -4.264e-6
-1.344, -4.382e-6
-1.343, -4.136e-6
-1.342, -4.294e-6
-1.341, -4.274e-6
-1.340, -4.313e-6
-1.339, -4.452e-6
-1.338, -4.225e-6
-1.337, -4.353e-6
-1.336, -4.323e-6
-1.335, -4.136e-6
-1.334, -4.304e-6
-1.333, -4.175e-6
-1.332, -4.156e-6
-1.331, -4.333e-6
-1.330, -4.185e-6
-1.329, -4.323e-6
-1.328, -4.254e-6
-1.327, -4.343e-6
-1.326, -4.412e-6
-1.325, -4.304e-6
-1.324, -4.461e-6
-1.323, -4.471e-6
-1.322, -4.234e-6
-1.321, -4.284e-6
-1.320, -4.274e-6
-1.319, -4.402e-6
-1.318, -4.343e-6
-1.317, -4.313e-6
-1.316, -4.363e-6
-1.315, -4.412e-6
-1.314, -4.363e-6
-1.313, -4.392e-6
-1.312, -4.373e-6
-1.311, -4.343e-6
-1.310, -4.382e-6
-1.309, -4.491e-6
-1.308, -4.432e-6
-1.307, -4.205e-6
-1.306, -4.422e-6
-1.305, -4.521e-6
-1.304, -4.590e-6
-1.303, -4.106e-6
-1.302, -4.511e-6
-1.301, -4.343e-6
-1.300, -4.313e-6
-1.299, -4.747e-6
-1.298, -4.185e-6
-1.297, -4.452e-6
-1.296, -4.550e-6
-1.295, -4.392e-6
-1.294, -4.570e-6
-1.293, -4.323e-6
-1.292, -4.609e-6
-1.291, -4.304e-6
-1.290, -4.521e-6
-1.289, -4.629e-6
-1.288, -4.432e-6
-1.287, -4.264e-6
-1.286, -4.560e-6
-1.285, -4.422e-6
-1.284, -4.649e-6
-1.283, -4.373e-6
-1.282, -4.570e-6
-1.281, -4.323e-6
-1.280, -4.491e-6
-1.279, -4.540e-6
-1.278, -4.402e-6
-1.277, -4.501e-6
-1.276, -4.481e-6
-1.275, -4.511e-6
-1.274, -4.580e-6
-1.273, -4.481e-6
-1.272, -4.501e-6
-1.271, -4.461e-6
-1.270, -4.452e-6
-1.269, -4.639e-6
-1.268, -4.333e-6
-1.267, -4.521e-6
-1.266, -4.688e-6
-1.265, -4.373e-6
-1.264, -4.609e-6
-1.263, -4.452e-6
-1.262, -4.540e-6
-1.261, -4.382e-6
-1.260, -4.649e-6
-1.259, -4.511e-6
-1.258, -4.600e-6
-1.257, -4.639e-6
-1.256, -4.649e-6
-1.255, -4.353e-6
-1.254, -4.747e-6
-1.253, -4.629e-6
-1.252, -4.590e-6
-1.251, -4.669e-6
-1.250, -4.491e-6
-1.249, -4.777e-6
-1.248, -4.649e-6
-1.247, -4.530e-6
-1.246, -4.590e-6
-1.245, -4.442e-6
-1.244, -4.669e-6
-1.243, -4.471e-6
-1.242, -4.659e-6
-1.241, -4.560e-6
-1.240, -4.392e-6
-1.239, -4.708e-6
-1.238, -4.471e-6
-1.237, -4.600e-6
-1.236, -4.688e-6
-1.235, -4.511e-6
-1.234, -4.540e-6
-1.233, -4.323e-6
-1.232, -4.511e-6
-1.231, -4.649e-6
-1.230, -4.530e-6
-1.229, -4.905e-6
-1.228, -4.659e-6
-1.227, -4.718e-6
-1.226, -4.688e-6
-1.225, -4.738e-6
-1.224, -4.886e-6
-1.223, -4.570e-6
-1.222, -4.629e-6
-1.221, -4.639e-6
-1.220, -4.560e-6
-1.219, -4.817e-6
-1.218, -4.491e-6
-1.217, -4.728e-6
-1.216, -4.609e-6
-1.215, -4.540e-6
-1.214, -4.945e-6
-1.213, -4.708e-6
-1.212, -4.817e-6
-1.211, -4.866e-6
-1.210, -4.471e-6
-1.209, -4.817e-6
-1.208, -4.678e-6
-1.207, -4.639e-6
-1.206, -4.570e-6
-1.205, -4.609e-6
-1.204, -4.678e-6
-1.203, -4.708e-6
-1.202, -4.886e-6
-1.201, -4.550e-6
-1.200, -4.688e-6
-1.199, -4.965e-6
-1.198, -4.698e-6
-1.197, -4.639e-6
-1.196, -4.807e-6
-1.195, -4.590e-6
-1.194, -4.757e-6
-1.193, -4.570e-6
-1.192, -4.600e-6
-1.191, -4.609e-6
-1.190, -4.590e-6
-1.189, -4.797e-6
-1.188, -4.461e-6
-1.187, -4.659e-6
-1.186, -4.708e-6
-1.185, -4.609e-6
-1.184, -4.728e-6
-1.183, -4.521e-6
-1.182, -4.659e-6
-1.181, -4.639e-6
-1.180, -4.688e-6
-1.179, -4.846e-6
-1.178, -4.669e-6
-1.177, -4.935e-6
-1.176, -4.728e-6
-1.175, -4.767e-6
-1.174, -4.945e-6
-1.173, -4.718e-6
-1.172, -4.728e-6
-1.171, -4.797e-6
-1.170, -4.718e-6
-1.169, -4.895e-6
-1.168, -4.530e-6
-1.167, -4.866e-6
-1.166, -4.807e-6
-1.165, -4.669e-6
-1.164, -4.807e-6
-1.163, -4.846e-6
-1.162, -4.836e-6
-1.161, -4.787e-6
-1.160, -4.738e-6
-1.159, -5.063e-6
-1.158, -4.757e-6
-1.157, -4.698e-6
-1.156, -4.757e-6
-1.155, -4.708e-6
-1.154, -4.787e-6
-1.153, -4.511e-6
-1.152, -4.965e-6
-1.151, -4.767e-6
-1.150, -4.876e-6
-1.149, -5.162e-6
-1.148, -4.718e-6
-1.147, -4.767e-6
-1.146, -4.895e-6
-1.145, -4.777e-6
-1.144, -4.974e-6
-1.143, -4.817e-6
-1.142, -4.757e-6
-1.141, -4.747e-6
-1.140, -4.659e-6
-1.139, -4.905e-6
-1.138, -4.718e-6
-1.137, -4.826e-6
-1.136, -4.738e-6
-1.135, -4.787e-6
-1.134, -4.836e-6
-1.133, -4.718e-6
-1.132, -4.886e-6
-1.131, -4.767e-6
-1.130, -4.698e-6
-1.129, -4.994e-6
-1.128, -4.678e-6
-1.127, -4.905e-6
-1.126, -4.886e-6
-1.125, -4.984e-6
-1.124, -4.994e-6
-1.123, -4.846e-6
-1.122, -4.925e-6
-1.121, -4.728e-6
-1.120, -4.876e-6
-1.119, -4.856e-6
-1.118, -4.747e-6
-1.117, -4.895e-6
-1.116, -4.876e-6
-1.115, -4.698e-6
-1.114, -4.945e-6
-1.113, -4.905e-6
-1.112, -4.895e-6
-1.111, -4.935e-6
-1.110, -4.826e-6
-1.109, -5.073e-6
-1.108, -4.698e-6
-1.107, -4.856e-6
-1.106, -4.945e-6
-1.105, -4.817e-6
-1.104, -5.004e-6
-1.103, -4.955e-6
-1.102, -4.826e-6
-1.101, -5.024e-6
-1.100, -4.866e-6
-1.099, -5.201e-6
-1.098, -4.994e-6
-1.097, -4.965e-6
-1.096, -4.935e-6
-1.095, -4.797e-6
-1.094, -5.201e-6
-1.093, -4.649e-6
-1.092, -5.014e-6
-1.091, -4.925e-6
-1.090, -4.876e-6
-1.089, -5.241e-6
-1.088, -4.836e-6
-1.087, -4.984e-6
-1.086, -4.935e-6
-1.085, -4.886e-6
-1.084, -5.103e-6
-1.083, -4.787e-6
-1.082, -5.142e-6
-1.081, -5.004e-6
-1.080, -4.915e-6
-1.079, -5.093e-6
-1.078, -4.935e-6
-1.077, -5.024e-6
-1.076, -5.162e-6
-1.075, -4.876e-6
-1.074, -5.132e-6
-1.073, -4.984e-6
-1.072, -5.162e-6
-1.071, -4.955e-6
-1.070, -5.122e-6
-1.069, -5.280e-6
-1.068, -5.073e-6
-1.067, -5.004e-6
-1.066, -5.004e-6
-1.065, -5.093e-6
-1.064, -5.142e-6
-1.063, -5.014e-6
-1.062, -5.172e-6
-1.061, -4.925e-6
-1.060, -5.063e-6
-1.059, -5.122e-6
-1.058, -4.945e-6
-1.057, -5.053e-6
-1.056, -5.093e-6
-1.055, -4.826e-6
-1.054, -5.300e-6
-1.053, -5.113e-6
-1.052, -4.945e-6
-1.051, -4.984e-6
-1.050, -4.955e-6
-1.049, -5.339e-6
-1.048, -5.024e-6
-1.047, -5.152e-6
-1.046, -5.280e-6
-1.045, -5.024e-6
-1.044, -5.310e-6
-1.043, -4.915e-6
-1.042, -5.241e-6
-1.041, -5.152e-6
-1.040, -5.053e-6
-1.039, -5.231e-6
-1.038, -5.142e-6
-1.037, -5.172e-6
-1.036, -5.093e-6
-1.035, -5.142e-6
-1.034, -5.261e-6
-1.033, -5.182e-6
-1.032, -5.300e-6
-1.031, -5.113e-6
-1.030, -5.103e-6
-1.029, -5.182e-6
-1.028, -5.063e-6
-1.027, -5.103e-6
-1.026, -5.063e-6
-1.025, -5.359e-6
-1.024, -5.586e-6
-1.023, -5.290e-6
-1.022, -5.320e-6
-1.021, -5.448e-6
-1.020, -5.310e-6
-1.019, -5.438e-6
-1.018, -5.172e-6
-1.017, -5.270e-6
-1.016, -5.320e-6
-1.015, -5.182e-6
-1.014, -5.300e-6
-1.013, -5.330e-6
-1.012, -5.359e-6
-1.011, -5.547e-6
-1.010, -5.004e-6
-1.009, -5.369e-6
-1.008, -5.142e-6
-1.007, -5.487e-6
-1.006, -5.438e-6
-1.005, -5.349e-6
-1.004, -5.399e-6
-1.003, -5.182e-6
-1.002, -5.458e-6
-1.001, -5.300e-6
