Sept. 2, 2024   09:48:34
Cyclic Voltammetry
File: c:/users/guazh/data/20240829_batch_215_500/2024-08-29-exp246\exp246-2024-09-02t09_21_03-arkoh\exp246_cv_sr_900mvs_efin_-2000mv.bin
Data Source:  Experiment
Instrument Model:  CHI760E
Header: CV ran at 900 mVs
Note: 

Init E (V) = -1
High E (V) = -1
Low E (V) = -2
Final E (V) = -1
Init P/N = N
Scan Rate (V/s) = 0.9
Segment = 3
Sample Interval (V) = 0.001
Quiet Time (sec) = 2
Sensitivity (A/V) = 0.01
Comp R (ohm) = 1.6

Results:

Channel 1:
Segment 1:

Segment 2:

Segment 3:

Potential/V, Current/A

-1.000, 3.239e-6
-1.001, 3.239e-6
-1.002, 3.239e-6
-1.003, 3.239e-6
-1.004, 3.239e-6
-1.005, 3.239e-6
-1.006, 3.239e-6
-1.007, 3.239e-6
-1.008, 3.239e-6
-1.009, 3.239e-6
-1.010, 6.322e-6
-1.011, 3.239e-6
-1.012, 3.239e-6
-1.013, 3.239e-6
-1.014, 3.239e-6
-1.015, 3.239e-6
-1.016, 6.322e-6
-1.017, 3.239e-6
-1.018, 6.322e-6
-1.019, 6.322e-6
-1.020, 3.239e-6
-1.021, 6.322e-6
-1.022, 3.239e-6
-1.023, 6.322e-6
-1.024, 3.239e-6
-1.025, 6.322e-6
-1.026, 3.239e-6
-1.027, 6.322e-6
-1.028, 6.322e-6
-1.029, 3.239e-6
-1.030, 6.322e-6
-1.031, 3.239e-6
-1.032, 6.322e-6
-1.033, 6.322e-6
-1.034, 6.322e-6
-1.035, 6.322e-6
-1.036, 6.322e-6
-1.037, 6.322e-6
-1.038, 6.322e-6
-1.039, 6.322e-6
-1.040, 6.322e-6
-1.041, 6.322e-6
-1.042, 6.322e-6
-1.043, 6.322e-6
-1.044, 6.322e-6
-1.045, 6.322e-6
-1.046, 6.322e-6
-1.047, 6.322e-6
-1.048, 6.322e-6
-1.049, 6.322e-6
-1.050, 6.322e-6
-1.051, 6.322e-6
-1.052, 6.322e-6
-1.053, 6.322e-6
-1.054, 6.322e-6
-1.055, 6.322e-6
-1.056, 6.322e-6
-1.057, 6.322e-6
-1.058, 6.322e-6
-1.059, 6.322e-6
-1.060, 6.322e-6
-1.061, 6.322e-6
-1.062, 6.322e-6
-1.063, 6.322e-6
-1.064, 6.322e-6
-1.065, 6.322e-6
-1.066, 9.405e-6
-1.067, 6.322e-6
-1.068, 6.322e-6
-1.069, 6.322e-6
-1.070, 6.322e-6
-1.071, 9.405e-6
-1.072, 6.322e-6
-1.073, 6.322e-6
-1.074, 6.322e-6
-1.075, 6.322e-6
-1.076, 6.322e-6
-1.077, 9.405e-6
-1.078, 9.405e-6
-1.079, 6.322e-6
-1.080, 9.405e-6
-1.081, 6.322e-6
-1.082, 6.322e-6
-1.083, 9.405e-6
-1.084, 6.322e-6
-1.085, 9.405e-6
-1.086, 6.322e-6
-1.087, 9.405e-6
-1.088, 6.322e-6
-1.089, 6.322e-6
-1.090, 6.322e-6
-1.091, 9.405e-6
-1.092, 9.405e-6
-1.093, 6.322e-6
-1.094, 6.322e-6
-1.095, 9.405e-6
-1.096, 9.405e-6
-1.097, 9.405e-6
-1.098, 6.322e-6
-1.099, 9.405e-6
-1.100, 9.405e-6
-1.101, 9.405e-6
-1.102, 6.322e-6
-1.103, 9.405e-6
-1.104, 9.405e-6
-1.105, 9.405e-6
-1.106, 6.322e-6
-1.107, 9.405e-6
-1.108, 9.405e-6
-1.109, 9.405e-6
-1.110, 9.405e-6
-1.111, 9.405e-6
-1.112, 9.405e-6
-1.113, 9.405e-6
-1.114, 9.405e-6
-1.115, 9.405e-6
-1.116, 9.405e-6
-1.117, 9.405e-6
-1.118, 9.405e-6
-1.119, 9.405e-6
-1.120, 9.405e-6
-1.121, 9.405e-6
-1.122, 9.405e-6
-1.123, 9.405e-6
-1.124, 9.405e-6
-1.125, 9.405e-6
-1.126, 9.405e-6
-1.127, 9.405e-6
-1.128, 9.405e-6
-1.129, 9.405e-6
-1.130, 9.405e-6
-1.131, 9.405e-6
-1.132, 9.405e-6
-1.133, 9.405e-6
-1.134, 9.405e-6
-1.135, 9.405e-6
-1.136, 9.405e-6
-1.137, 9.405e-6
-1.138, 9.405e-6
-1.139, 9.405e-6
-1.140, 1.249e-5
-1.141, 9.405e-6
-1.142, 1.249e-5
-1.143, 9.405e-6
-1.144, 9.405e-6
-1.145, 9.405e-6
-1.146, 9.405e-6
-1.147, 9.405e-6
-1.148, 9.405e-6
-1.149, 9.405e-6
-1.150, 9.405e-6
-1.151, 9.405e-6
-1.152, 9.405e-6
-1.153, 9.405e-6
-1.154, 1.249e-5
-1.155, 9.405e-6
-1.156, 9.405e-6
-1.157, 9.405e-6
-1.158, 9.405e-6
-1.159, 9.405e-6
-1.160, 1.249e-5
-1.161, 9.405e-6
-1.162, 9.405e-6
-1.163, 1.249e-5
-1.164, 9.405e-6
-1.165, 1.249e-5
-1.166, 9.405e-6
-1.167, 1.249e-5
-1.168, 1.249e-5
-1.169, 1.249e-5
-1.170, 1.249e-5
-1.171, 1.249e-5
-1.172, 1.249e-5
-1.173, 1.249e-5
-1.174, 1.249e-5
-1.175, 9.405e-6
-1.176, 1.249e-5
-1.177, 9.405e-6
-1.178, 9.405e-6
-1.179, 1.249e-5
-1.180, 9.405e-6
-1.181, 1.249e-5
-1.182, 1.249e-5
-1.183, 1.249e-5
-1.184, 1.249e-5
-1.185, 1.249e-5
-1.186, 9.405e-6
-1.187, 9.405e-6
-1.188, 1.249e-5
-1.189, 9.405e-6
-1.190, 1.249e-5
-1.191, 1.249e-5
-1.192, 1.249e-5
-1.193, 1.249e-5
-1.194, 9.405e-6
-1.195, 1.249e-5
-1.196, 1.249e-5
-1.197, 1.249e-5
-1.198, 1.249e-5
-1.199, 1.249e-5
-1.200, 1.249e-5
-1.201, 1.249e-5
-1.202, 1.249e-5
-1.203, 1.249e-5
-1.204, 1.249e-5
-1.205, 1.249e-5
-1.206, 1.249e-5
-1.207, 1.249e-5
-1.208, 1.249e-5
-1.209, 1.249e-5
-1.210, 1.249e-5
-1.211, 1.249e-5
-1.212, 1.249e-5
-1.213, 1.249e-5
-1.214, 1.249e-5
-1.215, 1.249e-5
-1.216, 1.249e-5
-1.217, 1.249e-5
-1.218, 1.249e-5
-1.219, 1.249e-5
-1.220, 1.249e-5
-1.221, 1.249e-5
-1.222, 1.249e-5
-1.223, 1.249e-5
-1.224, 1.249e-5
-1.225, 1.249e-5
-1.226, 1.249e-5
-1.227, 1.249e-5
-1.228, 1.249e-5
-1.229, 1.249e-5
-1.230, 1.249e-5
-1.231, 1.249e-5
-1.232, 1.249e-5
-1.233, 1.249e-5
-1.234, 1.249e-5
-1.235, 1.557e-5
-1.236, 1.557e-5
-1.237, 1.249e-5
-1.238, 1.249e-5
-1.239, 1.249e-5
-1.240, 1.249e-5
-1.241, 1.249e-5
-1.242, 1.249e-5
-1.243, 1.249e-5
-1.244, 1.249e-5
-1.245, 1.557e-5
-1.246, 1.249e-5
-1.247, 1.249e-5
-1.248, 1.249e-5
-1.249, 1.249e-5
-1.250, 1.249e-5
-1.251, 1.249e-5
-1.252, 1.249e-5
-1.253, 1.249e-5
-1.254, 1.557e-5
-1.255, 1.249e-5
-1.256, 1.557e-5
-1.257, 1.249e-5
-1.258, 1.249e-5
-1.259, 1.557e-5
-1.260, 1.557e-5
-1.261, 1.557e-5
-1.262, 1.557e-5
-1.263, 1.557e-5
-1.264, 1.557e-5
-1.265, 1.557e-5
-1.266, 1.557e-5
-1.267, 1.249e-5
-1.268, 1.249e-5
-1.269, 1.557e-5
-1.270, 1.557e-5
-1.271, 1.249e-5
-1.272, 1.557e-5
-1.273, 1.557e-5
-1.274, 1.557e-5
-1.275, 1.557e-5
-1.276, 1.557e-5
-1.277, 1.557e-5
-1.278, 1.557e-5
-1.279, 1.557e-5
-1.280, 1.557e-5
-1.281, 1.557e-5
-1.282, 1.557e-5
-1.283, 1.557e-5
-1.284, 1.557e-5
-1.285, 1.557e-5
-1.286, 1.557e-5
-1.287, 1.557e-5
-1.288, 1.557e-5
-1.289, 1.557e-5
-1.290, 1.557e-5
-1.291, 1.557e-5
-1.292, 1.557e-5
-1.293, 1.557e-5
-1.294, 1.557e-5
-1.295, 1.557e-5
-1.296, 1.557e-5
-1.297, 1.557e-5
-1.298, 1.557e-5
-1.299, 1.557e-5
-1.300, 1.557e-5
-1.301, 1.557e-5
-1.302, 1.557e-5
-1.303, 1.557e-5
-1.304, 1.557e-5
-1.305, 1.557e-5
-1.306, 1.557e-5
-1.307, 1.557e-5
-1.308, 1.557e-5
-1.309, 1.557e-5
-1.310, 1.557e-5
-1.311, 1.557e-5
-1.312, 1.557e-5
-1.313, 1.557e-5
-1.314, 1.557e-5
-1.315, 1.557e-5
-1.316, 1.557e-5
-1.317, 1.557e-5
-1.318, 1.557e-5
-1.319, 1.557e-5
-1.320, 1.557e-5
-1.321, 1.557e-5
-1.322, 1.557e-5
-1.323, 1.557e-5
-1.324, 1.557e-5
-1.325, 1.865e-5
-1.326, 1.557e-5
-1.327, 1.557e-5
-1.328, 1.557e-5
-1.329, 1.557e-5
-1.330, 1.557e-5
-1.331, 1.557e-5
-1.332, 1.557e-5
-1.333, 1.557e-5
-1.334, 1.865e-5
-1.335, 1.557e-5
-1.336, 1.865e-5
-1.337, 1.865e-5
-1.338, 1.865e-5
-1.339, 1.865e-5
-1.340, 1.865e-5
-1.341, 1.865e-5
-1.342, 1.865e-5
-1.343, 1.557e-5
-1.344, 1.557e-5
-1.345, 1.557e-5
-1.346, 1.865e-5
-1.347, 1.865e-5
-1.348, 1.865e-5
-1.349, 1.865e-5
-1.350, 1.865e-5
-1.351, 1.865e-5
-1.352, 1.865e-5
-1.353, 1.865e-5
-1.354, 1.865e-5
-1.355, 1.865e-5
-1.356, 1.865e-5
-1.357, 1.865e-5
-1.358, 1.865e-5
-1.359, 1.865e-5
-1.360, 1.865e-5
-1.361, 1.557e-5
-1.362, 1.865e-5
-1.363, 1.865e-5
-1.364, 1.865e-5
-1.365, 1.865e-5
-1.366, 1.865e-5
-1.367, 1.865e-5
-1.368, 1.865e-5
-1.369, 1.865e-5
-1.370, 1.865e-5
-1.371, 1.865e-5
-1.372, 1.865e-5
-1.373, 1.865e-5
-1.374, 1.865e-5
-1.375, 1.865e-5
-1.376, 1.865e-5
-1.377, 1.865e-5
-1.378, 1.865e-5
-1.379, 1.865e-5
-1.380, 1.865e-5
-1.381, 1.865e-5
-1.382, 1.865e-5
-1.383, 1.865e-5
-1.384, 1.865e-5
-1.385, 1.865e-5
-1.386, 1.865e-5
-1.387, 1.865e-5
-1.388, 1.865e-5
-1.389, 1.865e-5
-1.390, 1.865e-5
-1.391, 1.865e-5
-1.392, 1.865e-5
-1.393, 1.865e-5
-1.394, 1.865e-5
-1.395, 1.865e-5
-1.396, 2.174e-5
-1.397, 1.865e-5
-1.398, 1.865e-5
-1.399, 1.865e-5
-1.400, 1.865e-5
-1.401, 2.174e-5
-1.402, 2.174e-5
-1.403, 1.865e-5
-1.404, 2.174e-5
-1.405, 2.174e-5
-1.406, 1.865e-5
-1.407, 2.174e-5
-1.408, 1.865e-5
-1.409, 2.174e-5
-1.410, 2.174e-5
-1.411, 1.865e-5
-1.412, 2.174e-5
-1.413, 1.865e-5
-1.414, 2.174e-5
-1.415, 2.174e-5
-1.416, 1.865e-5
-1.417, 2.174e-5
-1.418, 2.174e-5
-1.419, 2.174e-5
-1.420, 2.174e-5
-1.421, 2.174e-5
-1.422, 2.174e-5
-1.423, 2.174e-5
-1.424, 2.174e-5
-1.425, 2.174e-5
-1.426, 2.174e-5
-1.427, 1.865e-5
-1.428, 2.174e-5
-1.429, 2.174e-5
-1.430, 2.174e-5
-1.431, 2.174e-5
-1.432, 2.174e-5
-1.433, 2.174e-5
-1.434, 2.174e-5
-1.435, 2.174e-5
-1.436, 2.174e-5
-1.437, 2.174e-5
-1.438, 2.174e-5
-1.439, 2.174e-5
-1.440, 2.174e-5
-1.441, 2.174e-5
-1.442, 2.174e-5
-1.443, 2.174e-5
-1.444, 2.174e-5
-1.445, 2.174e-5
-1.446, 2.174e-5
-1.447, 2.174e-5
-1.448, 2.174e-5
-1.449, 2.482e-5
-1.450, 2.174e-5
-1.451, 2.174e-5
-1.452, 2.174e-5
-1.453, 2.174e-5
-1.454, 2.174e-5
-1.455, 2.174e-5
-1.456, 2.174e-5
-1.457, 2.174e-5
-1.458, 2.174e-5
-1.459, 2.174e-5
-1.460, 2.482e-5
-1.461, 2.174e-5
-1.462, 2.174e-5
-1.463, 2.482e-5
-1.464, 2.174e-5
-1.465, 2.482e-5
-1.466, 2.174e-5
-1.467, 2.482e-5
-1.468, 2.482e-5
-1.469, 2.482e-5
-1.470, 2.482e-5
-1.471, 2.482e-5
-1.472, 2.174e-5
-1.473, 2.174e-5
-1.474, 2.482e-5
-1.475, 2.174e-5
-1.476, 2.482e-5
-1.477, 2.482e-5
-1.478, 2.482e-5
-1.479, 2.482e-5
-1.480, 2.482e-5
-1.481, 2.482e-5
-1.482, 2.482e-5
-1.483, 2.790e-5
-1.484, 2.482e-5
-1.485, 2.482e-5
-1.486, 2.482e-5
-1.487, 2.482e-5
-1.488, 2.482e-5
-1.489, 2.482e-5
-1.490, 2.482e-5
-1.491, 2.482e-5
-1.492, 2.482e-5
-1.493, 2.482e-5
-1.494, 2.482e-5
-1.495, 2.482e-5
-1.496, 2.482e-5
-1.497, 2.482e-5
-1.498, 2.482e-5
-1.499, 2.790e-5
-1.500, 2.482e-5
-1.501, 2.482e-5
-1.502, 2.482e-5
-1.503, 2.482e-5
-1.504, 2.790e-5
-1.505, 2.482e-5
-1.506, 2.482e-5
-1.507, 2.482e-5
-1.508, 2.790e-5
-1.509, 2.482e-5
-1.510, 2.482e-5
-1.511, 2.790e-5
-1.512, 2.790e-5
-1.513, 2.790e-5
-1.514, 2.482e-5
-1.515, 2.790e-5
-1.516, 2.790e-5
-1.517, 2.790e-5
-1.518, 2.790e-5
-1.519, 2.790e-5
-1.520, 2.790e-5
-1.521, 2.790e-5
-1.522, 2.790e-5
-1.523, 2.790e-5
-1.524, 2.790e-5
-1.525, 2.790e-5
-1.526, 2.790e-5
-1.527, 2.790e-5
-1.528, 2.790e-5
-1.529, 2.790e-5
-1.530, 2.790e-5
-1.531, 2.790e-5
-1.532, 2.790e-5
-1.533, 2.790e-5
-1.534, 2.790e-5
-1.535, 2.790e-5
-1.536, 2.790e-5
-1.537, 2.790e-5
-1.538, 3.099e-5
-1.539, 2.790e-5
-1.540, 2.790e-5
-1.541, 3.099e-5
-1.542, 3.099e-5
-1.543, 3.099e-5
-1.544, 3.099e-5
-1.545, 3.099e-5
-1.546, 2.790e-5
-1.547, 3.099e-5
-1.548, 2.790e-5
-1.549, 3.099e-5
-1.550, 3.099e-5
-1.551, 2.790e-5
-1.552, 3.099e-5
-1.553, 3.099e-5
-1.554, 3.099e-5
-1.555, 3.099e-5
-1.556, 3.099e-5
-1.557, 3.099e-5
-1.558, 3.099e-5
-1.559, 3.099e-5
-1.560, 3.099e-5
-1.561, 3.099e-5
-1.562, 3.099e-5
-1.563, 3.407e-5
-1.564, 3.099e-5
-1.565, 3.099e-5
-1.566, 3.407e-5
-1.567, 3.407e-5
-1.568, 3.407e-5
-1.569, 3.407e-5
-1.570, 3.407e-5
-1.571, 3.407e-5
-1.572, 3.407e-5
-1.573, 3.407e-5
-1.574, 3.407e-5
-1.575, 3.407e-5
-1.576, 3.407e-5
-1.577, 3.715e-5
-1.578, 3.407e-5
-1.579, 3.407e-5
-1.580, 3.407e-5
-1.581, 3.715e-5
-1.582, 3.407e-5
-1.583, 3.407e-5
-1.584, 3.715e-5
-1.585, 3.715e-5
-1.586, 3.715e-5
-1.587, 3.715e-5
-1.588, 3.715e-5
-1.589, 3.715e-5
-1.590, 3.715e-5
-1.591, 3.715e-5
-1.592, 3.715e-5
-1.593, 3.715e-5
-1.594, 3.715e-5
-1.595, 4.024e-5
-1.596, 4.024e-5
-1.597, 4.024e-5
-1.598, 4.024e-5
-1.599, 3.715e-5
-1.600, 4.024e-5
-1.601, 4.024e-5
-1.602, 4.024e-5
-1.603, 4.024e-5
-1.604, 4.024e-5
-1.605, 4.024e-5
-1.606, 4.024e-5
-1.607, 4.332e-5
-1.608, 4.332e-5
-1.609, 4.332e-5
-1.610, 4.332e-5
-1.611, 4.332e-5
-1.612, 4.332e-5
-1.613, 4.332e-5
-1.614, 4.332e-5
-1.615, 4.332e-5
-1.616, 4.332e-5
-1.617, 4.640e-5
-1.618, 4.949e-5
-1.619, 4.640e-5
-1.620, 4.640e-5
-1.621, 4.640e-5
-1.622, 4.640e-5
-1.623, 4.949e-5
-1.624, 4.640e-5
-1.625, 4.949e-5
-1.626, 4.949e-5
-1.627, 4.949e-5
-1.628, 4.949e-5
-1.629, 4.949e-5
-1.630, 4.949e-5
-1.631, 5.257e-5
-1.632, 5.257e-5
-1.633, 5.257e-5
-1.634, 5.257e-5
-1.635, 5.257e-5
-1.636, 5.257e-5
-1.637, 5.565e-5
-1.638, 5.565e-5
-1.639, 5.565e-5
-1.640, 5.565e-5
-1.641, 5.565e-5
-1.642, 5.565e-5
-1.643, 5.565e-5
-1.644, 5.873e-5
-1.645, 5.873e-5
-1.646, 5.873e-5
-1.647, 5.873e-5
-1.648, 6.182e-5
-1.649, 6.182e-5
-1.650, 5.873e-5
-1.651, 6.182e-5
-1.652, 6.182e-5
-1.653, 6.182e-5
-1.654, 6.490e-5
-1.655, 6.490e-5
-1.656, 6.490e-5
-1.657, 6.798e-5
-1.658, 6.490e-5
-1.659, 6.798e-5
-1.660, 6.798e-5
-1.661, 6.798e-5
-1.662, 7.107e-5
-1.663, 7.107e-5
-1.664, 7.107e-5
-1.665, 7.107e-5
-1.666, 7.415e-5
-1.667, 7.415e-5
-1.668, 7.415e-5
-1.669, 7.723e-5
-1.670, 7.723e-5
-1.671, 7.723e-5
-1.672, 7.723e-5
-1.673, 8.032e-5
-1.674, 8.032e-5
-1.675, 8.340e-5
-1.676, 8.340e-5
-1.677, 8.340e-5
-1.678, 8.648e-5
-1.679, 8.648e-5
-1.680, 8.648e-5
-1.681, 8.957e-5
-1.682, 8.957e-5
-1.683, 8.957e-5
-1.684, 8.957e-5
-1.685, 9.265e-5
-1.686, 9.573e-5
-1.687, 9.573e-5
-1.688, 9.573e-5
-1.689, 9.882e-5
-1.690, 1.019e-4
-1.691, 1.019e-4
-1.692, 1.019e-4
-1.693, 1.050e-4
-1.694, 1.050e-4
-1.695, 1.050e-4
-1.696, 1.081e-4
-1.697, 1.111e-4
-1.698, 1.111e-4
-1.699, 1.142e-4
-1.700, 1.142e-4
-1.701, 1.173e-4
-1.702, 1.173e-4
-1.703, 1.204e-4
-1.704, 1.204e-4
-1.705, 1.235e-4
-1.706, 1.266e-4
-1.707, 1.266e-4
-1.708, 1.296e-4
-1.709, 1.327e-4
-1.710, 1.358e-4
-1.711, 1.358e-4
-1.712, 1.389e-4
-1.713, 1.420e-4
-1.714, 1.420e-4
-1.715, 1.451e-4
-1.716, 1.481e-4
-1.717, 1.481e-4
-1.718, 1.512e-4
-1.719, 1.574e-4
-1.720, 1.574e-4
-1.721, 1.605e-4
-1.722, 1.636e-4
-1.723, 1.666e-4
-1.724, 1.697e-4
-1.725, 1.697e-4
-1.726, 1.728e-4
-1.727, 1.759e-4
-1.728, 1.790e-4
-1.729, 1.821e-4
-1.730, 1.851e-4
-1.731, 1.882e-4
-1.732, 1.913e-4
-1.733, 1.975e-4
-1.734, 1.975e-4
-1.735, 2.036e-4
-1.736, 2.067e-4
-1.737, 2.098e-4
-1.738, 2.129e-4
-1.739, 2.160e-4
-1.740, 2.191e-4
-1.741, 2.252e-4
-1.742, 2.283e-4
-1.743, 2.314e-4
-1.744, 2.376e-4
-1.745, 2.437e-4
-1.746, 2.437e-4
-1.747, 2.499e-4
-1.748, 2.530e-4
-1.749, 2.591e-4
-1.750, 2.653e-4
-1.751, 2.715e-4
-1.752, 2.746e-4
-1.753, 2.807e-4
-1.754, 2.838e-4
-1.755, 2.900e-4
-1.756, 2.961e-4
-1.757, 2.992e-4
-1.758, 3.085e-4
-1.759, 3.115e-4
-1.760, 3.177e-4
-1.761, 3.239e-4
-1.762, 3.300e-4
-1.763, 3.362e-4
-1.764, 3.424e-4
-1.765, 3.485e-4
-1.766, 3.547e-4
-1.767, 3.609e-4
-1.768, 3.701e-4
-1.769, 3.732e-4
-1.770, 3.825e-4
-1.771, 3.886e-4
-1.772, 3.948e-4
-1.773, 4.040e-4
-1.774, 4.102e-4
-1.775, 4.195e-4
-1.776, 4.256e-4
-1.777, 4.318e-4
-1.778, 4.410e-4
-1.779, 4.503e-4
-1.780, 4.595e-4
-1.781, 4.657e-4
-1.782, 4.750e-4
-1.783, 4.842e-4
-1.784, 4.935e-4
-1.785, 5.027e-4
-1.786, 5.120e-4
-1.787, 5.212e-4
-1.788, 5.305e-4
-1.789, 5.397e-4
-1.790, 5.520e-4
-1.791, 5.613e-4
-1.792, 5.736e-4
-1.793, 5.829e-4
-1.794, 5.952e-4
-1.795, 6.044e-4
-1.796, 6.168e-4
-1.797, 6.291e-4
-1.798, 6.384e-4
-1.799, 6.507e-4
-1.800, 6.630e-4
-1.801, 6.754e-4
-1.802, 6.877e-4
-1.803, 7.031e-4
-1.804, 7.154e-4
-1.805, 7.278e-4
-1.806, 7.432e-4
-1.807, 7.555e-4
-1.808, 7.709e-4
-1.809, 7.833e-4
-1.810, 7.956e-4
-1.811, 8.141e-4
-1.812, 8.264e-4
-1.813, 8.418e-4
-1.814, 8.573e-4
-1.815, 8.758e-4
-1.816, 8.912e-4
-1.817, 9.066e-4
-1.818, 9.220e-4
-1.819, 9.436e-4
-1.820, 9.590e-4
-1.821, 9.775e-4
-1.822, 9.960e-4
-1.823, 1.011e-3
-1.824, 1.033e-3
-1.825, 1.051e-3
-1.826, 1.067e-3
-1.827, 1.085e-3
-1.828, 1.107e-3
-1.829, 1.125e-3
-1.830, 1.144e-3
-1.831, 1.166e-3
-1.832, 1.184e-3
-1.833, 1.206e-3
-1.834, 1.227e-3
-1.835, 1.246e-3
-1.836, 1.267e-3
-1.837, 1.289e-3
-1.838, 1.307e-3
-1.839, 1.329e-3
-1.840, 1.351e-3
-1.841, 1.372e-3
-1.842, 1.397e-3
-1.843, 1.421e-3
-1.844, 1.446e-3
-1.845, 1.471e-3
-1.846, 1.495e-3
-1.847, 1.520e-3
-1.848, 1.545e-3
-1.849, 1.573e-3
-1.850, 1.597e-3
-1.851, 1.625e-3
-1.852, 1.650e-3
-1.853, 1.677e-3
-1.854, 1.708e-3
-1.855, 1.733e-3
-1.856, 1.764e-3
-1.857, 1.791e-3
-1.858, 1.822e-3
-1.859, 1.850e-3
-1.860, 1.884e-3
-1.861, 1.909e-3
-1.862, 1.939e-3
-1.863, 1.973e-3
-1.864, 2.001e-3
-1.865, 2.032e-3
-1.866, 2.066e-3
-1.867, 2.097e-3
-1.868, 2.131e-3
-1.869, 2.161e-3
-1.870, 2.195e-3
-1.871, 2.232e-3
-1.872, 2.266e-3
-1.873, 2.300e-3
-1.874, 2.334e-3
-1.875, 2.368e-3
-1.876, 2.402e-3
-1.877, 2.439e-3
-1.878, 2.473e-3
-1.879, 2.510e-3
-1.880, 2.547e-3
-1.881, 2.584e-3
-1.882, 2.621e-3
-1.883, 2.658e-3
-1.884, 2.695e-3
-1.885, 2.735e-3
-1.886, 2.775e-3
-1.887, 2.815e-3
-1.888, 2.852e-3
-1.889, 2.892e-3
-1.890, 2.935e-3
-1.891, 2.975e-3
-1.892, 3.015e-3
-1.893, 3.056e-3
-1.894, 3.096e-3
-1.895, 3.139e-3
-1.896, 3.182e-3
-1.897, 3.225e-3
-1.898, 3.265e-3
-1.899, 3.308e-3
-1.900, 3.351e-3
-1.901, 3.395e-3
-1.902, 3.441e-3
-1.903, 3.487e-3
-1.904, 3.530e-3
-1.905, 3.577e-3
-1.906, 3.623e-3
-1.907, 3.669e-3
-1.908, 3.715e-3
-1.909, 3.762e-3
-1.910, 3.811e-3
-1.911, 3.857e-3
-1.912, 3.903e-3
-1.913, 3.953e-3
-1.914, 4.002e-3
-1.915, 4.051e-3
-1.916, 4.101e-3
-1.917, 4.150e-3
-1.918, 4.199e-3
-1.919, 4.252e-3
-1.920, 4.301e-3
-1.921, 4.354e-3
-1.922, 4.403e-3
-1.923, 4.452e-3
-1.924, 4.505e-3
-1.925, 4.557e-3
-1.926, 4.609e-3
-1.927, 4.662e-3
-1.928, 4.717e-3
-1.929, 4.770e-3
-1.930, 4.825e-3
-1.931, 4.878e-3
-1.932, 4.936e-3
-1.933, 4.989e-3
-1.934, 5.041e-3
-1.935, 5.090e-3
-1.936, 5.149e-3
-1.937, 5.204e-3
-1.938, 5.260e-3
-1.939, 5.315e-3
-1.940, 5.374e-3
-1.941, 5.433e-3
-1.942, 5.491e-3
-1.943, 5.547e-3
-1.944, 5.611e-3
-1.945, 5.667e-3
-1.946, 5.729e-3
-1.947, 5.787e-3
-1.948, 5.846e-3
-1.949, 5.901e-3
-1.950, 5.960e-3
-1.951, 6.015e-3
-1.952, 6.074e-3
-1.953, 6.132e-3
-1.954, 6.191e-3
-1.955, 6.253e-3
-1.956, 6.314e-3
-1.957, 6.373e-3
-1.958, 6.432e-3
-1.959, 6.490e-3
-1.960, 6.552e-3
-1.961, 6.610e-3
-1.962, 6.672e-3
-1.963, 6.734e-3
-1.964, 6.792e-3
-1.965, 6.854e-3
-1.966, 6.922e-3
-1.967, 6.983e-3
-1.968, 7.048e-3
-1.969, 7.116e-3
-1.970, 7.178e-3
-1.971, 7.239e-3
-1.972, 7.301e-3
-1.973, 7.369e-3
-1.974, 7.430e-3
-1.975, 7.498e-3
-1.976, 7.563e-3
-1.977, 7.634e-3
-1.978, 7.705e-3
-1.979, 7.767e-3
-1.980, 7.831e-3
-1.981, 7.896e-3
-1.982, 7.958e-3
-1.983, 8.022e-3
-1.984, 8.087e-3
-1.985, 8.155e-3
-1.986, 8.223e-3
-1.987, 8.297e-3
-1.988, 8.362e-3
-1.989, 8.429e-3
-1.990, 8.491e-3
-1.991, 8.556e-3
-1.992, 8.624e-3
-1.993, 8.701e-3
-1.994, 8.775e-3
-1.995, 8.852e-3
-1.996, 8.923e-3
-1.997, 8.997e-3
-1.998, 9.071e-3
-1.999, 9.145e-3
-2.000, 9.172e-3
-1.999, 9.129e-3
-1.998, 9.089e-3
-1.997, 9.052e-3
-1.996, 9.009e-3
-1.995, 8.969e-3
-1.994, 8.923e-3
-1.993, 8.876e-3
-1.992, 8.833e-3
-1.991, 8.787e-3
-1.990, 8.738e-3
-1.989, 8.691e-3
-1.988, 8.651e-3
-1.987, 8.614e-3
-1.986, 8.574e-3
-1.985, 8.528e-3
-1.984, 8.482e-3
-1.983, 8.436e-3
-1.982, 8.389e-3
-1.981, 8.343e-3
-1.980, 8.288e-3
-1.979, 8.244e-3
-1.978, 8.195e-3
-1.977, 8.152e-3
-1.976, 8.099e-3
-1.975, 8.041e-3
-1.974, 7.992e-3
-1.973, 7.936e-3
-1.972, 7.881e-3
-1.971, 7.822e-3
-1.970, 7.767e-3
-1.969, 7.711e-3
-1.968, 7.659e-3
-1.967, 7.603e-3
-1.966, 7.545e-3
-1.965, 7.492e-3
-1.964, 7.440e-3
-1.963, 7.387e-3
-1.962, 7.335e-3
-1.961, 7.286e-3
-1.960, 7.239e-3
-1.959, 7.184e-3
-1.958, 7.131e-3
-1.957, 7.076e-3
-1.956, 7.020e-3
-1.955, 6.968e-3
-1.954, 6.919e-3
-1.953, 6.872e-3
-1.952, 6.820e-3
-1.951, 6.771e-3
-1.950, 6.721e-3
-1.949, 6.672e-3
-1.948, 6.620e-3
-1.947, 6.570e-3
-1.946, 6.509e-3
-1.945, 6.456e-3
-1.944, 6.410e-3
-1.943, 6.367e-3
-1.942, 6.317e-3
-1.941, 6.271e-3
-1.940, 6.225e-3
-1.939, 6.176e-3
-1.938, 6.129e-3
-1.937, 6.080e-3
-1.936, 6.034e-3
-1.935, 5.988e-3
-1.934, 5.941e-3
-1.933, 5.895e-3
-1.932, 5.846e-3
-1.931, 5.796e-3
-1.930, 5.747e-3
-1.929, 5.701e-3
-1.928, 5.658e-3
-1.927, 5.611e-3
-1.926, 5.568e-3
-1.925, 5.522e-3
-1.924, 5.479e-3
-1.923, 5.433e-3
-1.922, 5.386e-3
-1.921, 5.337e-3
-1.920, 5.297e-3
-1.919, 5.251e-3
-1.918, 5.204e-3
-1.917, 5.155e-3
-1.916, 5.106e-3
-1.915, 5.063e-3
-1.914, 5.013e-3
-1.913, 4.973e-3
-1.912, 4.927e-3
-1.911, 4.881e-3
-1.910, 4.841e-3
-1.909, 4.794e-3
-1.908, 4.748e-3
-1.907, 4.702e-3
-1.906, 4.656e-3
-1.905, 4.612e-3
-1.904, 4.569e-3
-1.903, 4.526e-3
-1.902, 4.483e-3
-1.901, 4.440e-3
-1.900, 4.394e-3
-1.899, 4.354e-3
-1.898, 4.313e-3
-1.897, 4.273e-3
-1.896, 4.233e-3
-1.895, 4.193e-3
-1.894, 4.156e-3
-1.893, 4.119e-3
-1.892, 4.082e-3
-1.891, 4.048e-3
-1.890, 4.008e-3
-1.889, 3.971e-3
-1.888, 3.934e-3
-1.887, 3.900e-3
-1.886, 3.860e-3
-1.885, 3.826e-3
-1.884, 3.789e-3
-1.883, 3.752e-3
-1.882, 3.715e-3
-1.881, 3.681e-3
-1.880, 3.644e-3
-1.879, 3.610e-3
-1.878, 3.577e-3
-1.877, 3.543e-3
-1.876, 3.509e-3
-1.875, 3.469e-3
-1.874, 3.435e-3
-1.873, 3.401e-3
-1.872, 3.367e-3
-1.871, 3.333e-3
-1.870, 3.302e-3
-1.869, 3.268e-3
-1.868, 3.234e-3
-1.867, 3.204e-3
-1.866, 3.170e-3
-1.865, 3.139e-3
-1.864, 3.108e-3
-1.863, 3.074e-3
-1.862, 3.043e-3
-1.861, 3.012e-3
-1.860, 2.982e-3
-1.859, 2.948e-3
-1.858, 2.917e-3
-1.857, 2.886e-3
-1.856, 2.855e-3
-1.855, 2.827e-3
-1.854, 2.797e-3
-1.853, 2.766e-3
-1.852, 2.738e-3
-1.851, 2.710e-3
-1.850, 2.682e-3
-1.849, 2.655e-3
-1.848, 2.627e-3
-1.847, 2.599e-3
-1.846, 2.568e-3
-1.845, 2.544e-3
-1.844, 2.513e-3
-1.843, 2.485e-3
-1.842, 2.457e-3
-1.841, 2.433e-3
-1.840, 2.405e-3
-1.839, 2.380e-3
-1.838, 2.353e-3
-1.837, 2.325e-3
-1.836, 2.297e-3
-1.835, 2.272e-3
-1.834, 2.248e-3
-1.833, 2.223e-3
-1.832, 2.198e-3
-1.831, 2.171e-3
-1.830, 2.146e-3
-1.829, 2.121e-3
-1.828, 2.094e-3
-1.827, 2.066e-3
-1.826, 2.041e-3
-1.825, 2.020e-3
-1.824, 1.995e-3
-1.823, 1.973e-3
-1.822, 1.949e-3
-1.821, 1.927e-3
-1.820, 1.902e-3
-1.819, 1.881e-3
-1.818, 1.856e-3
-1.817, 1.835e-3
-1.816, 1.813e-3
-1.815, 1.791e-3
-1.814, 1.770e-3
-1.813, 1.751e-3
-1.812, 1.730e-3
-1.811, 1.711e-3
-1.810, 1.690e-3
-1.809, 1.671e-3
-1.808, 1.650e-3
-1.807, 1.628e-3
-1.806, 1.606e-3
-1.805, 1.588e-3
-1.804, 1.569e-3
-1.803, 1.548e-3
-1.802, 1.529e-3
-1.801, 1.511e-3
-1.800, 1.495e-3
-1.799, 1.474e-3
-1.798, 1.455e-3
-1.797, 1.437e-3
-1.796, 1.418e-3
-1.795, 1.400e-3
-1.794, 1.381e-3
-1.793, 1.363e-3
-1.792, 1.347e-3
-1.791, 1.329e-3
-1.790, 1.310e-3
-1.789, 1.295e-3
-1.788, 1.277e-3
-1.787, 1.261e-3
-1.786, 1.246e-3
-1.785, 1.227e-3
-1.784, 1.212e-3
-1.783, 1.196e-3
-1.782, 1.184e-3
-1.781, 1.166e-3
-1.780, 1.150e-3
-1.779, 1.135e-3
-1.778, 1.119e-3
-1.777, 1.107e-3
-1.776, 1.088e-3
-1.775, 1.076e-3
-1.774, 1.061e-3
-1.773, 1.045e-3
-1.772, 1.030e-3
-1.771, 1.018e-3
-1.770, 1.005e-3
-1.769, 9.898e-4
-1.768, 9.775e-4
-1.767, 9.621e-4
-1.766, 9.498e-4
-1.765, 9.343e-4
-1.764, 9.220e-4
-1.763, 9.128e-4
-1.762, 8.973e-4
-1.761, 8.850e-4
-1.760, 8.727e-4
-1.759, 8.603e-4
-1.758, 8.480e-4
-1.757, 8.357e-4
-1.756, 8.233e-4
-1.755, 8.110e-4
-1.754, 8.018e-4
-1.753, 7.894e-4
-1.752, 7.740e-4
-1.751, 7.648e-4
-1.750, 7.555e-4
-1.749, 7.432e-4
-1.748, 7.339e-4
-1.747, 7.216e-4
-1.746, 7.124e-4
-1.745, 7.031e-4
-1.744, 6.908e-4
-1.743, 6.815e-4
-1.742, 6.723e-4
-1.741, 6.630e-4
-1.740, 6.507e-4
-1.739, 6.414e-4
-1.738, 6.322e-4
-1.737, 6.229e-4
-1.736, 6.106e-4
-1.735, 6.044e-4
-1.734, 5.952e-4
-1.733, 5.859e-4
-1.732, 5.767e-4
-1.731, 5.674e-4
-1.730, 5.582e-4
-1.729, 5.520e-4
-1.728, 5.428e-4
-1.727, 5.335e-4
-1.726, 5.243e-4
-1.725, 5.150e-4
-1.724, 5.058e-4
-1.723, 4.965e-4
-1.722, 4.904e-4
-1.721, 4.842e-4
-1.720, 4.750e-4
-1.719, 4.688e-4
-1.718, 4.595e-4
-1.717, 4.534e-4
-1.716, 4.441e-4
-1.715, 4.380e-4
-1.714, 4.287e-4
-1.713, 4.225e-4
-1.712, 4.164e-4
-1.711, 4.102e-4
-1.710, 4.040e-4
-1.709, 3.948e-4
-1.708, 3.917e-4
-1.707, 3.855e-4
-1.706, 3.794e-4
-1.705, 3.732e-4
-1.704, 3.670e-4
-1.703, 3.578e-4
-1.702, 3.547e-4
-1.701, 3.485e-4
-1.700, 3.424e-4
-1.699, 3.393e-4
-1.698, 3.331e-4
-1.697, 3.270e-4
-1.696, 3.208e-4
-1.695, 3.146e-4
-1.694, 3.085e-4
-1.693, 3.054e-4
-1.692, 3.023e-4
-1.691, 2.961e-4
-1.690, 2.931e-4
-1.689, 2.869e-4
-1.688, 2.838e-4
-1.687, 2.776e-4
-1.686, 2.715e-4
-1.685, 2.684e-4
-1.684, 2.622e-4
-1.683, 2.591e-4
-1.682, 2.561e-4
-1.681, 2.499e-4
-1.680, 2.437e-4
-1.679, 2.406e-4
-1.678, 2.376e-4
-1.677, 2.314e-4
-1.676, 2.283e-4
-1.675, 2.252e-4
-1.674, 2.221e-4
-1.673, 2.160e-4
-1.672, 2.129e-4
-1.671, 2.098e-4
-1.670, 2.067e-4
-1.669, 2.006e-4
-1.668, 1.975e-4
-1.667, 1.944e-4
-1.666, 1.913e-4
-1.665, 1.882e-4
-1.664, 1.821e-4
-1.663, 1.790e-4
-1.662, 1.759e-4
-1.661, 1.728e-4
-1.660, 1.697e-4
-1.659, 1.666e-4
-1.658, 1.636e-4
-1.657, 1.605e-4
-1.656, 1.574e-4
-1.655, 1.543e-4
-1.654, 1.512e-4
-1.653, 1.512e-4
-1.652, 1.451e-4
-1.651, 1.451e-4
-1.650, 1.420e-4
-1.649, 1.389e-4
-1.648, 1.358e-4
-1.647, 1.327e-4
-1.646, 1.296e-4
-1.645, 1.266e-4
-1.644, 1.235e-4
-1.643, 1.235e-4
-1.642, 1.204e-4
-1.641, 1.173e-4
-1.640, 1.173e-4
-1.639, 1.142e-4
-1.638, 1.111e-4
-1.637, 1.111e-4
-1.636, 1.050e-4
-1.635, 1.050e-4
-1.634, 1.019e-4
-1.633, 9.882e-5
-1.632, 9.882e-5
-1.631, 9.573e-5
-1.630, 9.573e-5
-1.629, 9.265e-5
-1.628, 8.957e-5
-1.627, 8.648e-5
-1.626, 8.648e-5
-1.625, 8.648e-5
-1.624, 8.340e-5
-1.623, 8.032e-5
-1.622, 8.032e-5
-1.621, 7.723e-5
-1.620, 7.415e-5
-1.619, 7.415e-5
-1.618, 7.415e-5
-1.617, 7.107e-5
-1.616, 7.107e-5
-1.615, 6.798e-5
-1.614, 6.798e-5
-1.613, 6.490e-5
-1.612, 6.490e-5
-1.611, 6.182e-5
-1.610, 6.182e-5
-1.609, 5.873e-5
-1.608, 5.873e-5
-1.607, 5.565e-5
-1.606, 5.565e-5
-1.605, 5.565e-5
-1.604, 5.257e-5
-1.603, 5.257e-5
-1.602, 4.949e-5
-1.601, 4.949e-5
-1.600, 4.640e-5
-1.599, 4.640e-5
-1.598, 4.640e-5
-1.597, 4.332e-5
-1.596, 4.332e-5
-1.595, 4.332e-5
-1.594, 4.332e-5
-1.593, 4.024e-5
-1.592, 4.024e-5
-1.591, 3.715e-5
-1.590, 3.715e-5
-1.589, 3.715e-5
-1.588, 3.407e-5
-1.587, 3.407e-5
-1.586, 3.407e-5
-1.585, 3.099e-5
-1.584, 3.099e-5
-1.583, 3.099e-5
-1.582, 2.790e-5
-1.581, 2.790e-5
-1.580, 2.790e-5
-1.579, 2.790e-5
-1.578, 2.790e-5
-1.577, 2.790e-5
-1.576, 2.482e-5
-1.575, 2.482e-5
-1.574, 2.174e-5
-1.573, 2.174e-5
-1.572, 2.174e-5
-1.571, 2.174e-5
-1.570, 1.865e-5
-1.569, 1.865e-5
-1.568, 1.865e-5
-1.567, 1.865e-5
-1.566, 1.865e-5
-1.565, 1.557e-5
-1.564, 1.557e-5
-1.563, 1.557e-5
-1.562, 1.557e-5
-1.561, 1.557e-5
-1.560, 1.557e-5
-1.559, 1.249e-5
-1.558, 1.249e-5
-1.557, 1.249e-5
-1.556, 1.249e-5
-1.555, 1.249e-5
-1.554, 9.405e-6
-1.553, 9.405e-6
-1.552, 9.405e-6
-1.551, 9.405e-6
-1.550, 9.405e-6
-1.549, 9.405e-6
-1.548, 6.322e-6
-1.547, 9.405e-6
-1.546, 9.405e-6
-1.545, 6.322e-6
-1.544, 6.322e-6
-1.543, 6.322e-6
-1.542, 6.322e-6
-1.541, 6.322e-6
-1.540, 6.322e-6
-1.539, 6.322e-6
-1.538, 3.239e-6
-1.537, 3.239e-6
-1.536, 3.239e-6
-1.535, 3.239e-6
-1.534, 3.239e-6
-1.533, 3.239e-6
-1.532, 3.239e-6
-1.531, 1.559e-7
-1.530, 3.239e-6
-1.529, 1.559e-7
-1.528, 1.559e-7
-1.527, 1.559e-7
-1.526, 1.559e-7
-1.525, 1.559e-7
-1.524, 1.559e-7
-1.523, 1.559e-7
-1.522, 1.559e-7
-1.521, 1.559e-7
-1.520, 1.559e-7
-1.519, -2.927e-6
-1.518, 1.559e-7
-1.517, -2.927e-6
-1.516, 1.559e-7
-1.515, -2.927e-6
-1.514, -2.927e-6
-1.513, -2.927e-6
-1.512, -2.927e-6
-1.511, -2.927e-6
-1.510, -2.927e-6
-1.509, -2.927e-6
-1.508, -2.927e-6
-1.507, -2.927e-6
-1.506, -2.927e-6
-1.505, -2.927e-6
-1.504, -2.927e-6
-1.503, -6.010e-6
-1.502, -2.927e-6
-1.501, -6.010e-6
-1.500, -2.927e-6
-1.499, -6.010e-6
-1.498, -6.010e-6
-1.497, -6.010e-6
-1.496, -6.010e-6
-1.495, -6.010e-6
-1.494, -6.010e-6
-1.493, -6.010e-6
-1.492, -6.010e-6
-1.491, -6.010e-6
-1.490, -6.010e-6
-1.489, -6.010e-6
-1.488, -6.010e-6
-1.487, -6.010e-6
-1.486, -6.010e-6
-1.485, -6.010e-6
-1.484, -6.010e-6
-1.483, -6.010e-6
-1.482, -6.010e-6
-1.481, -6.010e-6
-1.480, -9.093e-6
-1.479, -6.010e-6
-1.478, -9.093e-6
-1.477, -6.010e-6
-1.476, -9.093e-6
-1.475, -6.010e-6
-1.474, -9.093e-6
-1.473, -9.093e-6
-1.472, -9.093e-6
-1.471, -9.093e-6
-1.470, -6.010e-6
-1.469, -9.093e-6
-1.468, -6.010e-6
-1.467, -9.093e-6
-1.466, -9.093e-6
-1.465, -9.093e-6
-1.464, -9.093e-6
-1.463, -9.093e-6
-1.462, -9.093e-6
-1.461, -9.093e-6
-1.460, -9.093e-6
-1.459, -6.010e-6
-1.458, -9.093e-6
-1.457, -9.093e-6
-1.456, -9.093e-6
-1.455, -9.093e-6
-1.454, -9.093e-6
-1.453, -9.093e-6
-1.452, -9.093e-6
-1.451, -9.093e-6
-1.450, -9.093e-6
-1.449, -9.093e-6
-1.448, -9.093e-6
-1.447, -9.093e-6
-1.446, -9.093e-6
-1.445, -9.093e-6
-1.444, -1.218e-5
-1.443, -9.093e-6
-1.442, -9.093e-6
-1.441, -1.218e-5
-1.440, -9.093e-6
-1.439, -9.093e-6
-1.438, -9.093e-6
-1.437, -9.093e-6
-1.436, -9.093e-6
-1.435, -1.218e-5
-1.434, -9.093e-6
-1.433, -9.093e-6
-1.432, -1.218e-5
-1.431, -9.093e-6
-1.430, -9.093e-6
-1.429, -9.093e-6
-1.428, -9.093e-6
-1.427, -9.093e-6
-1.426, -9.093e-6
-1.425, -1.218e-5
-1.424, -9.093e-6
-1.423, -1.218e-5
-1.422, -1.218e-5
-1.421, -9.093e-6
-1.420, -9.093e-6
-1.419, -9.093e-6
-1.418, -1.218e-5
-1.417, -1.218e-5
-1.416, -1.218e-5
-1.415, -1.218e-5
-1.414, -1.218e-5
-1.413, -1.218e-5
-1.412, -1.218e-5
-1.411, -9.093e-6
-1.410, -1.218e-5
-1.409, -1.218e-5
-1.408, -9.093e-6
-1.407, -1.218e-5
-1.406, -9.093e-6
-1.405, -1.218e-5
-1.404, -1.218e-5
-1.403, -9.093e-6
-1.402, -1.218e-5
-1.401, -1.218e-5
-1.400, -9.093e-6
-1.399, -9.093e-6
-1.398, -1.218e-5
-1.397, -9.093e-6
-1.396, -1.218e-5
-1.395, -1.218e-5
-1.394, -1.218e-5
-1.393, -1.218e-5
-1.392, -9.093e-6
-1.391, -9.093e-6
-1.390, -9.093e-6
-1.389, -1.218e-5
-1.388, -1.218e-5
-1.387, -1.218e-5
-1.386, -1.218e-5
-1.385, -1.218e-5
-1.384, -1.218e-5
-1.383, -1.218e-5
-1.382, -1.218e-5
-1.381, -9.093e-6
-1.380, -1.218e-5
-1.379, -1.218e-5
-1.378, -1.218e-5
-1.377, -1.218e-5
-1.376, -1.218e-5
-1.375, -1.218e-5
-1.374, -9.093e-6
-1.373, -1.218e-5
-1.372, -9.093e-6
-1.371, -1.218e-5
-1.370, -1.218e-5
-1.369, -1.218e-5
-1.368, -1.218e-5
-1.367, -1.218e-5
-1.366, -1.218e-5
-1.365, -9.093e-6
-1.364, -1.218e-5
-1.363, -1.218e-5
-1.362, -1.218e-5
-1.361, -1.218e-5
-1.360, -1.218e-5
-1.359, -1.218e-5
-1.358, -9.093e-6
-1.357, -1.218e-5
-1.356, -1.218e-5
-1.355, -1.218e-5
-1.354, -1.218e-5
-1.353, -1.218e-5
-1.352, -1.218e-5
-1.351, -1.218e-5
-1.350, -1.218e-5
-1.349, -9.093e-6
-1.348, -1.218e-5
-1.347, -1.218e-5
-1.346, -1.218e-5
-1.345, -1.218e-5
-1.344, -1.218e-5
-1.343, -1.218e-5
-1.342, -1.218e-5
-1.341, -1.218e-5
-1.340, -1.218e-5
-1.339, -1.218e-5
-1.338, -1.218e-5
-1.337, -1.218e-5
-1.336, -1.218e-5
-1.335, -1.218e-5
-1.334, -1.218e-5
-1.333, -1.218e-5
-1.332, -1.218e-5
-1.331, -1.218e-5
-1.330, -1.218e-5
-1.329, -1.218e-5
-1.328, -1.218e-5
-1.327, -1.218e-5
-1.326, -1.218e-5
-1.325, -1.218e-5
-1.324, -1.218e-5
-1.323, -1.218e-5
-1.322, -1.218e-5
-1.321, -1.218e-5
-1.320, -1.218e-5
-1.319, -1.218e-5
-1.318, -9.093e-6
-1.317, -1.218e-5
-1.316, -1.218e-5
-1.315, -1.218e-5
-1.314, -1.218e-5
-1.313, -1.218e-5
-1.312, -1.218e-5
-1.311, -1.218e-5
-1.310, -9.093e-6
-1.309, -1.218e-5
-1.308, -1.218e-5
-1.307, -1.218e-5
-1.306, -1.218e-5
-1.305, -1.218e-5
-1.304, -1.218e-5
-1.303, -1.218e-5
-1.302, -1.218e-5
-1.301, -1.218e-5
-1.300, -1.218e-5
-1.299, -1.218e-5
-1.298, -1.218e-5
-1.297, -1.218e-5
-1.296, -1.218e-5
-1.295, -1.218e-5
-1.294, -1.218e-5
-1.293, -1.218e-5
-1.292, -1.218e-5
-1.291, -1.218e-5
-1.290, -1.218e-5
-1.289, -1.218e-5
-1.288, -1.218e-5
-1.287, -1.218e-5
-1.286, -1.218e-5
-1.285, -1.218e-5
-1.284, -1.218e-5
-1.283, -1.218e-5
-1.282, -1.218e-5
-1.281, -1.218e-5
-1.280, -1.218e-5
-1.279, -1.218e-5
-1.278, -1.218e-5
-1.277, -1.218e-5
-1.276, -1.218e-5
-1.275, -1.218e-5
-1.274, -1.218e-5
-1.273, -1.218e-5
-1.272, -1.218e-5
-1.271, -1.218e-5
-1.270, -1.218e-5
-1.269, -1.218e-5
-1.268, -1.218e-5
-1.267, -1.218e-5
-1.266, -1.218e-5
-1.265, -1.218e-5
-1.264, -1.218e-5
-1.263, -1.218e-5
-1.262, -1.218e-5
-1.261, -1.218e-5
-1.260, -1.218e-5
-1.259, -1.218e-5
-1.258, -1.218e-5
-1.257, -1.218e-5
-1.256, -1.218e-5
-1.255, -1.218e-5
-1.254, -1.218e-5
-1.253, -1.218e-5
-1.252, -1.218e-5
-1.251, -1.218e-5
-1.250, -1.218e-5
-1.249, -1.218e-5
-1.248, -1.218e-5
-1.247, -1.218e-5
-1.246, -1.218e-5
-1.245, -1.218e-5
-1.244, -1.218e-5
-1.243, -1.218e-5
-1.242, -1.218e-5
-1.241, -1.218e-5
-1.240, -1.218e-5
-1.239, -1.218e-5
-1.238, -1.218e-5
-1.237, -1.218e-5
-1.236, -1.218e-5
-1.235, -1.218e-5
-1.234, -1.218e-5
-1.233, -1.218e-5
-1.232, -1.218e-5
-1.231, -1.218e-5
-1.230, -1.218e-5
-1.229, -1.218e-5
-1.228, -1.218e-5
-1.227, -1.218e-5
-1.226, -1.218e-5
-1.225, -1.218e-5
-1.224, -1.218e-5
-1.223, -1.218e-5
-1.222, -1.218e-5
-1.221, -1.218e-5
-1.220, -1.218e-5
-1.219, -1.218e-5
-1.218, -1.218e-5
-1.217, -1.218e-5
-1.216, -1.218e-5
-1.215, -1.218e-5
-1.214, -1.218e-5
-1.213, -1.218e-5
-1.212, -1.218e-5
-1.211, -1.218e-5
-1.210, -1.218e-5
-1.209, -1.218e-5
-1.208, -1.218e-5
-1.207, -1.218e-5
-1.206, -1.218e-5
-1.205, -1.218e-5
-1.204, -1.218e-5
-1.203, -1.218e-5
-1.202, -1.218e-5
-1.201, -1.218e-5
-1.200, -1.218e-5
-1.199, -1.218e-5
-1.198, -9.093e-6
-1.197, -1.218e-5
-1.196, -1.218e-5
-1.195, -1.218e-5
-1.194, -1.218e-5
-1.193, -1.218e-5
-1.192, -1.218e-5
-1.191, -1.218e-5
-1.190, -1.218e-5
-1.189, -1.218e-5
-1.188, -1.218e-5
-1.187, -1.218e-5
-1.186, -1.218e-5
-1.185, -1.218e-5
-1.184, -1.218e-5
-1.183, -1.218e-5
-1.182, -1.218e-5
-1.181, -1.218e-5
-1.180, -1.218e-5
-1.179, -1.218e-5
-1.178, -1.218e-5
-1.177, -1.218e-5
-1.176, -1.218e-5
-1.175, -1.218e-5
-1.174, -1.218e-5
-1.173, -1.218e-5
-1.172, -1.218e-5
-1.171, -1.218e-5
-1.170, -1.218e-5
-1.169, -1.218e-5
-1.168, -1.218e-5
-1.167, -1.218e-5
-1.166, -9.093e-6
-1.165, -1.218e-5
-1.164, -1.218e-5
-1.163, -1.218e-5
-1.162, -1.218e-5
-1.161, -1.218e-5
-1.160, -1.218e-5
-1.159, -1.218e-5
-1.158, -1.218e-5
-1.157, -1.218e-5
-1.156, -1.218e-5
-1.155, -1.218e-5
-1.154, -1.218e-5
-1.153, -1.218e-5
-1.152, -1.218e-5
-1.151, -1.218e-5
-1.150, -1.218e-5
-1.149, -1.218e-5
-1.148, -1.218e-5
-1.147, -1.218e-5
-1.146, -1.218e-5
-1.145, -1.218e-5
-1.144, -1.218e-5
-1.143, -1.218e-5
-1.142, -1.218e-5
-1.141, -1.218e-5
-1.140, -1.218e-5
-1.139, -1.218e-5
-1.138, -1.218e-5
-1.137, -1.218e-5
-1.136, -1.218e-5
-1.135, -1.218e-5
-1.134, -1.218e-5
-1.133, -1.218e-5
-1.132, -1.218e-5
-1.131, -1.218e-5
-1.130, -1.218e-5
-1.129, -1.218e-5
-1.128, -1.218e-5
-1.127, -1.218e-5
-1.126, -1.218e-5
-1.125, -1.218e-5
-1.124, -1.218e-5
-1.123, -1.218e-5
-1.122, -1.218e-5
-1.121, -1.218e-5
-1.120, -1.218e-5
-1.119, -1.218e-5
-1.118, -1.218e-5
-1.117, -1.218e-5
-1.116, -1.218e-5
-1.115, -1.218e-5
-1.114, -1.218e-5
-1.113, -1.218e-5
-1.112, -1.218e-5
-1.111, -1.218e-5
-1.110, -1.218e-5
-1.109, -1.218e-5
-1.108, -1.218e-5
-1.107, -1.218e-5
-1.106, -1.218e-5
-1.105, -1.218e-5
-1.104, -1.218e-5
-1.103, -1.218e-5
-1.102, -1.218e-5
-1.101, -1.218e-5
-1.100, -1.218e-5
-1.099, -1.218e-5
-1.098, -1.218e-5
-1.097, -1.218e-5
-1.096, -1.218e-5
-1.095, -1.218e-5
-1.094, -1.218e-5
-1.093, -1.218e-5
-1.092, -1.218e-5
-1.091, -1.218e-5
-1.090, -1.218e-5
-1.089, -1.218e-5
-1.088, -1.218e-5
-1.087, -1.218e-5
-1.086, -1.218e-5
-1.085, -1.218e-5
-1.084, -1.218e-5
-1.083, -1.218e-5
-1.082, -1.218e-5
-1.081, -1.218e-5
-1.080, -1.218e-5
-1.079, -1.218e-5
-1.078, -1.218e-5
-1.077, -1.218e-5
-1.076, -1.218e-5
-1.075, -1.218e-5
-1.074, -1.218e-5
-1.073, -1.218e-5
-1.072, -1.218e-5
-1.071, -1.218e-5
-1.070, -1.218e-5
-1.069, -1.218e-5
-1.068, -1.218e-5
-1.067, -1.218e-5
-1.066, -1.218e-5
-1.065, -1.218e-5
-1.064, -1.218e-5
-1.063, -1.218e-5
-1.062, -1.218e-5
-1.061, -1.218e-5
-1.060, -1.218e-5
-1.059, -1.218e-5
-1.058, -1.218e-5
-1.057, -1.218e-5
-1.056, -1.218e-5
-1.055, -1.218e-5
-1.054, -1.218e-5
-1.053, -1.218e-5
-1.052, -1.218e-5
-1.051, -1.218e-5
-1.050, -1.218e-5
-1.049, -1.218e-5
-1.048, -1.218e-5
-1.047, -1.218e-5
-1.046, -1.218e-5
-1.045, -1.218e-5
-1.044, -1.218e-5
-1.043, -1.218e-5
-1.042, -1.218e-5
-1.041, -1.218e-5
-1.040, -1.218e-5
-1.039, -1.218e-5
-1.038, -1.218e-5
-1.037, -1.218e-5
-1.036, -1.218e-5
-1.035, -1.218e-5
-1.034, -1.218e-5
-1.033, -1.218e-5
-1.032, -1.218e-5
-1.031, -1.218e-5
-1.030, -1.218e-5
-1.029, -1.218e-5
-1.028, -1.218e-5
-1.027, -1.218e-5
-1.026, -1.218e-5
-1.025, -1.218e-5
-1.024, -1.218e-5
-1.023, -1.218e-5
-1.022, -1.218e-5
-1.021, -1.218e-5
-1.020, -1.218e-5
-1.019, -1.218e-5
-1.018, -1.218e-5
-1.017, -1.218e-5
-1.016, -1.218e-5
-1.015, -1.218e-5
-1.014, -1.218e-5
-1.013, -1.218e-5
-1.012, -1.218e-5
-1.011, -1.218e-5
-1.010, -1.218e-5
-1.009, -1.218e-5
-1.008, -1.218e-5
-1.007, -1.218e-5
-1.006, -1.218e-5
-1.005, -1.218e-5
-1.004, -1.218e-5
-1.003, -1.218e-5
-1.002, -1.218e-5
-1.001, -1.218e-5
