Jan. 15, 2025   18:59:57
Linear Sweep Voltammetry
File: c:/users/guazh/data/banditlqround7_x0exp772_r5/2025-01-10-exp855\1acid_1ac-2025-01-15t18_56_46-lsvinphos\1acid_1ac_lsv_50mvs_efin_-2100mv.bin
Data Source:  Experiment
Instrument Model:  CHI760E
Header: LSV ran at 50 mVs with Efin at -2100mV
Note: 

Init E (V) = -0.6
Final E (V) = -2.1
Scan Rate (V/s) = 0.05
Sample Interval (V) = 0.001
Quiet Time (sec) = 2
Sensitivity (A/V) = 1e-4
Comp R (ohm) = 9.5

Results:

Channel 1:
Ep = -1.947V
ip = 8.297e-4A
Ah = 1.169e-3C

Potential/V, Current/A

-0.600, 3.092e-6
-0.601, 3.207e-6
-0.602, 3.256e-6
-0.603, 3.294e-6
-0.604, 3.327e-6
-0.605, 3.361e-6
-0.606, 3.397e-6
-0.607, 3.434e-6
-0.608, 3.468e-6
-0.609, 3.498e-6
-0.610, 3.529e-6
-0.611, 3.562e-6
-0.612, 3.600e-6
-0.613, 3.632e-6
-0.614, 3.665e-6
-0.615, 3.696e-6
-0.616, 3.731e-6
-0.617, 3.768e-6
-0.618, 3.800e-6
-0.619, 3.834e-6
-0.620, 3.865e-6
-0.621, 3.900e-6
-0.622, 3.937e-6
-0.623, 3.969e-6
-0.624, 4.001e-6
-0.625, 4.035e-6
-0.626, 4.068e-6
-0.627, 4.107e-6
-0.628, 4.140e-6
-0.629, 4.171e-6
-0.630, 4.203e-6
-0.631, 4.237e-6
-0.632, 4.274e-6
-0.633, 4.309e-6
-0.634, 4.342e-6
-0.635, 4.375e-6
-0.636, 4.411e-6
-0.637, 4.450e-6
-0.638, 4.485e-6
-0.639, 4.519e-6
-0.640, 4.554e-6
-0.641, 4.590e-6
-0.642, 4.628e-6
-0.643, 4.664e-6
-0.644, 4.697e-6
-0.645, 4.731e-6
-0.646, 4.767e-6
-0.647, 4.806e-6
-0.648, 4.843e-6
-0.649, 4.875e-6
-0.650, 4.909e-6
-0.651, 4.945e-6
-0.652, 4.985e-6
-0.653, 5.022e-6
-0.654, 5.056e-6
-0.655, 5.091e-6
-0.656, 5.126e-6
-0.657, 5.164e-6
-0.658, 5.201e-6
-0.659, 5.234e-6
-0.660, 5.269e-6
-0.661, 5.304e-6
-0.662, 5.344e-6
-0.663, 5.380e-6
-0.664, 5.413e-6
-0.665, 5.447e-6
-0.666, 5.486e-6
-0.667, 5.523e-6
-0.668, 5.560e-6
-0.669, 5.593e-6
-0.670, 5.627e-6
-0.671, 5.661e-6
-0.672, 5.699e-6
-0.673, 5.735e-6
-0.674, 5.767e-6
-0.675, 5.802e-6
-0.676, 5.837e-6
-0.677, 5.873e-6
-0.678, 5.908e-6
-0.679, 5.936e-6
-0.680, 5.968e-6
-0.681, 6.003e-6
-0.682, 6.040e-6
-0.683, 6.074e-6
-0.684, 6.105e-6
-0.685, 6.136e-6
-0.686, 6.169e-6
-0.687, 6.202e-6
-0.688, 6.233e-6
-0.689, 6.263e-6
-0.690, 6.293e-6
-0.691, 6.326e-6
-0.692, 6.362e-6
-0.693, 6.392e-6
-0.694, 6.423e-6
-0.695, 6.451e-6
-0.696, 6.481e-6
-0.697, 6.514e-6
-0.698, 6.545e-6
-0.699, 6.573e-6
-0.700, 6.601e-6
-0.701, 6.630e-6
-0.702, 6.661e-6
-0.703, 6.690e-6
-0.704, 6.716e-6
-0.705, 6.742e-6
-0.706, 6.770e-6
-0.707, 6.801e-6
-0.708, 6.829e-6
-0.709, 6.851e-6
-0.710, 6.876e-6
-0.711, 6.901e-6
-0.712, 6.929e-6
-0.713, 6.954e-6
-0.714, 6.975e-6
-0.715, 6.998e-6
-0.716, 7.022e-6
-0.717, 7.048e-6
-0.718, 7.071e-6
-0.719, 7.091e-6
-0.720, 7.110e-6
-0.721, 7.135e-6
-0.722, 7.157e-6
-0.723, 7.178e-6
-0.724, 7.195e-6
-0.725, 7.213e-6
-0.726, 7.233e-6
-0.727, 7.256e-6
-0.728, 7.271e-6
-0.729, 7.287e-6
-0.730, 7.303e-6
-0.731, 7.321e-6
-0.732, 7.340e-6
-0.733, 7.356e-6
-0.734, 7.369e-6
-0.735, 7.380e-6
-0.736, 7.397e-6
-0.737, 7.415e-6
-0.738, 7.427e-6
-0.739, 7.439e-6
-0.740, 7.449e-6
-0.741, 7.461e-6
-0.742, 7.478e-6
-0.743, 7.490e-6
-0.744, 7.498e-6
-0.745, 7.508e-6
-0.746, 7.518e-6
-0.747, 7.529e-6
-0.748, 7.540e-6
-0.749, 7.544e-6
-0.750, 7.551e-6
-0.751, 7.559e-6
-0.752, 7.570e-6
-0.753, 7.578e-6
-0.754, 7.580e-6
-0.755, 7.587e-6
-0.756, 7.592e-6
-0.757, 7.600e-6
-0.758, 7.604e-6
-0.759, 7.605e-6
-0.760, 7.608e-6
-0.761, 7.612e-6
-0.762, 7.617e-6
-0.763, 7.620e-6
-0.764, 7.620e-6
-0.765, 7.620e-6
-0.766, 7.622e-6
-0.767, 7.624e-6
-0.768, 7.627e-6
-0.769, 7.626e-6
-0.770, 7.622e-6
-0.771, 7.623e-6
-0.772, 7.624e-6
-0.773, 7.622e-6
-0.774, 7.619e-6
-0.775, 7.615e-6
-0.776, 7.612e-6
-0.777, 7.613e-6
-0.778, 7.610e-6
-0.779, 7.604e-6
-0.780, 7.598e-6
-0.781, 7.595e-6
-0.782, 7.594e-6
-0.783, 7.589e-6
-0.784, 7.581e-6
-0.785, 7.574e-6
-0.786, 7.567e-6
-0.787, 7.566e-6
-0.788, 7.560e-6
-0.789, 7.551e-6
-0.790, 7.544e-6
-0.791, 7.536e-6
-0.792, 7.532e-6
-0.793, 7.526e-6
-0.794, 7.515e-6
-0.795, 7.507e-6
-0.796, 7.498e-6
-0.797, 7.494e-6
-0.798, 7.487e-6
-0.799, 7.475e-6
-0.800, 7.464e-6
-0.801, 7.455e-6
-0.802, 7.448e-6
-0.803, 7.440e-6
-0.804, 7.428e-6
-0.805, 7.416e-6
-0.806, 7.408e-6
-0.807, 7.400e-6
-0.808, 7.391e-6
-0.809, 7.378e-6
-0.810, 7.366e-6
-0.811, 7.356e-6
-0.812, 7.350e-6
-0.813, 7.339e-6
-0.814, 7.325e-6
-0.815, 7.312e-6
-0.816, 7.303e-6
-0.817, 7.294e-6
-0.818, 7.282e-6
-0.819, 7.273e-6
-0.820, 7.262e-6
-0.821, 7.248e-6
-0.822, 7.240e-6
-0.823, 7.229e-6
-0.824, 7.215e-6
-0.825, 7.201e-6
-0.826, 7.188e-6
-0.827, 7.181e-6
-0.828, 7.169e-6
-0.829, 7.154e-6
-0.830, 7.140e-6
-0.831, 7.128e-6
-0.832, 7.119e-6
-0.833, 7.108e-6
-0.834, 7.092e-6
-0.835, 7.079e-6
-0.836, 7.067e-6
-0.837, 7.056e-6
-0.838, 7.045e-6
-0.839, 7.029e-6
-0.840, 7.017e-6
-0.841, 7.005e-6
-0.842, 6.994e-6
-0.843, 6.983e-6
-0.844, 6.968e-6
-0.845, 6.954e-6
-0.846, 6.943e-6
-0.847, 6.933e-6
-0.848, 6.922e-6
-0.849, 6.906e-6
-0.850, 6.892e-6
-0.851, 6.882e-6
-0.852, 6.873e-6
-0.853, 6.861e-6
-0.854, 6.846e-6
-0.855, 6.833e-6
-0.856, 6.821e-6
-0.857, 6.813e-6
-0.858, 6.801e-6
-0.859, 6.786e-6
-0.860, 6.772e-6
-0.861, 6.759e-6
-0.862, 6.751e-6
-0.863, 6.738e-6
-0.864, 6.725e-6
-0.865, 6.713e-6
-0.866, 6.700e-6
-0.867, 6.692e-6
-0.868, 6.681e-6
-0.869, 6.667e-6
-0.870, 6.654e-6
-0.871, 6.644e-6
-0.872, 6.635e-6
-0.873, 6.624e-6
-0.874, 6.609e-6
-0.875, 6.597e-6
-0.876, 6.585e-6
-0.877, 6.577e-6
-0.878, 6.567e-6
-0.879, 6.552e-6
-0.880, 6.538e-6
-0.881, 6.529e-6
-0.882, 6.520e-6
-0.883, 6.511e-6
-0.884, 6.498e-6
-0.885, 6.487e-6
-0.886, 6.474e-6
-0.887, 6.466e-6
-0.888, 6.457e-6
-0.889, 6.445e-6
-0.890, 6.432e-6
-0.891, 6.423e-6
-0.892, 6.415e-6
-0.893, 6.405e-6
-0.894, 6.393e-6
-0.895, 6.380e-6
-0.896, 6.371e-6
-0.897, 6.364e-6
-0.898, 6.355e-6
-0.899, 6.342e-6
-0.900, 6.330e-6
-0.901, 6.321e-6
-0.902, 6.314e-6
-0.903, 6.305e-6
-0.904, 6.292e-6
-0.905, 6.283e-6
-0.906, 6.272e-6
-0.907, 6.265e-6
-0.908, 6.257e-6
-0.909, 6.245e-6
-0.910, 6.235e-6
-0.911, 6.227e-6
-0.912, 6.221e-6
-0.913, 6.213e-6
-0.914, 6.201e-6
-0.915, 6.192e-6
-0.916, 6.184e-6
-0.917, 6.178e-6
-0.918, 6.171e-6
-0.919, 6.160e-6
-0.920, 6.150e-6
-0.921, 6.144e-6
-0.922, 6.136e-6
-0.923, 6.130e-6
-0.924, 6.119e-6
-0.925, 6.108e-6
-0.926, 6.100e-6
-0.927, 6.095e-6
-0.928, 6.088e-6
-0.929, 6.078e-6
-0.930, 6.067e-6
-0.931, 6.060e-6
-0.932, 6.055e-6
-0.933, 6.047e-6
-0.934, 6.038e-6
-0.935, 6.029e-6
-0.936, 6.021e-6
-0.937, 6.016e-6
-0.938, 6.008e-6
-0.939, 5.999e-6
-0.940, 5.991e-6
-0.941, 5.982e-6
-0.942, 5.978e-6
-0.943, 5.970e-6
-0.944, 5.961e-6
-0.945, 5.953e-6
-0.946, 5.945e-6
-0.947, 5.943e-6
-0.948, 5.936e-6
-0.949, 5.926e-6
-0.950, 5.920e-6
-0.951, 5.913e-6
-0.952, 5.910e-6
-0.953, 5.905e-6
-0.954, 5.896e-6
-0.955, 5.890e-6
-0.956, 5.883e-6
-0.957, 5.879e-6
-0.958, 5.873e-6
-0.959, 5.865e-6
-0.960, 5.858e-6
-0.961, 5.851e-6
-0.962, 5.848e-6
-0.963, 5.842e-6
-0.964, 5.834e-6
-0.965, 5.826e-6
-0.966, 5.820e-6
-0.967, 5.817e-6
-0.968, 5.811e-6
-0.969, 5.803e-6
-0.970, 5.796e-6
-0.971, 5.789e-6
-0.972, 5.787e-6
-0.973, 5.782e-6
-0.974, 5.774e-6
-0.975, 5.766e-6
-0.976, 5.760e-6
-0.977, 5.758e-6
-0.978, 5.752e-6
-0.979, 5.744e-6
-0.980, 5.736e-6
-0.981, 5.731e-6
-0.982, 5.730e-6
-0.983, 5.725e-6
-0.984, 5.716e-6
-0.985, 5.711e-6
-0.986, 5.704e-6
-0.987, 5.702e-6
-0.988, 5.698e-6
-0.989, 5.689e-6
-0.990, 5.683e-6
-0.991, 5.678e-6
-0.992, 5.676e-6
-0.993, 5.673e-6
-0.994, 5.665e-6
-0.995, 5.658e-6
-0.996, 5.653e-6
-0.997, 5.652e-6
-0.998, 5.648e-6
-0.999, 5.641e-6
-1.000, 5.635e-6
-1.001, 5.630e-6
-1.002, 5.627e-6
-1.003, 5.624e-6
-1.004, 5.616e-6
-1.005, 5.610e-6
-1.006, 5.605e-6
-1.007, 5.604e-6
-1.008, 5.600e-6
-1.009, 5.593e-6
-1.010, 5.586e-6
-1.011, 5.583e-6
-1.012, 5.580e-6
-1.013, 5.577e-6
-1.014, 5.570e-6
-1.015, 5.564e-6
-1.016, 5.559e-6
-1.017, 5.558e-6
-1.018, 5.554e-6
-1.019, 5.547e-6
-1.020, 5.541e-6
-1.021, 5.536e-6
-1.022, 5.534e-6
-1.023, 5.531e-6
-1.024, 5.525e-6
-1.025, 5.520e-6
-1.026, 5.514e-6
-1.027, 5.514e-6
-1.028, 5.510e-6
-1.029, 5.503e-6
-1.030, 5.498e-6
-1.031, 5.494e-6
-1.032, 5.491e-6
-1.033, 5.490e-6
-1.034, 5.483e-6
-1.035, 5.476e-6
-1.036, 5.473e-6
-1.037, 5.471e-6
-1.038, 5.469e-6
-1.039, 5.461e-6
-1.040, 5.456e-6
-1.041, 5.452e-6
-1.042, 5.450e-6
-1.043, 5.447e-6
-1.044, 5.441e-6
-1.045, 5.436e-6
-1.046, 5.432e-6
-1.047, 5.431e-6
-1.048, 5.427e-6
-1.049, 5.422e-6
-1.050, 5.418e-6
-1.051, 5.414e-6
-1.052, 5.413e-6
-1.053, 5.409e-6
-1.054, 5.404e-6
-1.055, 5.398e-6
-1.056, 5.394e-6
-1.057, 5.395e-6
-1.058, 5.390e-6
-1.059, 5.386e-6
-1.060, 5.381e-6
-1.061, 5.377e-6
-1.062, 5.377e-6
-1.063, 5.372e-6
-1.064, 5.368e-6
-1.065, 5.363e-6
-1.066, 5.360e-6
-1.067, 5.358e-6
-1.068, 5.357e-6
-1.069, 5.350e-6
-1.070, 5.346e-6
-1.071, 5.341e-6
-1.072, 5.342e-6
-1.073, 5.340e-6
-1.074, 5.335e-6
-1.075, 5.331e-6
-1.076, 5.328e-6
-1.077, 5.327e-6
-1.078, 5.325e-6
-1.079, 5.319e-6
-1.080, 5.314e-6
-1.081, 5.311e-6
-1.082, 5.310e-6
-1.083, 5.308e-6
-1.084, 5.302e-6
-1.085, 5.298e-6
-1.086, 5.295e-6
-1.087, 5.294e-6
-1.088, 5.293e-6
-1.089, 5.288e-6
-1.090, 5.283e-6
-1.091, 5.280e-6
-1.092, 5.281e-6
-1.093, 5.280e-6
-1.094, 5.273e-6
-1.095, 5.270e-6
-1.096, 5.267e-6
-1.097, 5.267e-6
-1.098, 5.264e-6
-1.099, 5.260e-6
-1.100, 5.257e-6
-1.101, 5.253e-6
-1.102, 5.254e-6
-1.103, 5.251e-6
-1.104, 5.246e-6
-1.105, 5.243e-6
-1.106, 5.239e-6
-1.107, 5.240e-6
-1.108, 5.238e-6
-1.109, 5.234e-6
-1.110, 5.231e-6
-1.111, 5.228e-6
-1.112, 5.228e-6
-1.113, 5.227e-6
-1.114, 5.224e-6
-1.115, 5.218e-6
-1.116, 5.218e-6
-1.117, 5.217e-6
-1.118, 5.218e-6
-1.119, 5.213e-6
-1.120, 5.210e-6
-1.121, 5.208e-6
-1.122, 5.207e-6
-1.123, 5.208e-6
-1.124, 5.203e-6
-1.125, 5.200e-6
-1.126, 5.199e-6
-1.127, 5.200e-6
-1.128, 5.199e-6
-1.129, 5.195e-6
-1.130, 5.192e-6
-1.131, 5.189e-6
-1.132, 5.191e-6
-1.133, 5.190e-6
-1.134, 5.188e-6
-1.135, 5.185e-6
-1.136, 5.184e-6
-1.137, 5.184e-6
-1.138, 5.183e-6
-1.139, 5.181e-6
-1.140, 5.178e-6
-1.141, 5.177e-6
-1.142, 5.179e-6
-1.143, 5.177e-6
-1.144, 5.175e-6
-1.145, 5.173e-6
-1.146, 5.172e-6
-1.147, 5.174e-6
-1.148, 5.175e-6
-1.149, 5.169e-6
-1.150, 5.169e-6
-1.151, 5.169e-6
-1.152, 5.171e-6
-1.153, 5.172e-6
-1.154, 5.169e-6
-1.155, 5.167e-6
-1.156, 5.167e-6
-1.157, 5.168e-6
-1.158, 5.169e-6
-1.159, 5.167e-6
-1.160, 5.165e-6
-1.161, 5.165e-6
-1.162, 5.168e-6
-1.163, 5.168e-6
-1.164, 5.167e-6
-1.165, 5.166e-6
-1.166, 5.167e-6
-1.167, 5.169e-6
-1.168, 5.171e-6
-1.169, 5.169e-6
-1.170, 5.167e-6
-1.171, 5.168e-6
-1.172, 5.170e-6
-1.173, 5.172e-6
-1.174, 5.172e-6
-1.175, 5.170e-6
-1.176, 5.170e-6
-1.177, 5.175e-6
-1.178, 5.177e-6
-1.179, 5.174e-6
-1.180, 5.174e-6
-1.181, 5.173e-6
-1.182, 5.178e-6
-1.183, 5.178e-6
-1.184, 5.177e-6
-1.185, 5.178e-6
-1.186, 5.177e-6
-1.187, 5.181e-6
-1.188, 5.183e-6
-1.189, 5.180e-6
-1.190, 5.182e-6
-1.191, 5.182e-6
-1.192, 5.187e-6
-1.193, 5.188e-6
-1.194, 5.187e-6
-1.195, 5.187e-6
-1.196, 5.189e-6
-1.197, 5.192e-6
-1.198, 5.194e-6
-1.199, 5.193e-6
-1.200, 5.192e-6
-1.201, 5.193e-6
-1.202, 5.197e-6
-1.203, 5.201e-6
-1.204, 5.199e-6
-1.205, 5.198e-6
-1.206, 5.200e-6
-1.207, 5.203e-6
-1.208, 5.205e-6
-1.209, 5.205e-6
-1.210, 5.205e-6
-1.211, 5.206e-6
-1.212, 5.210e-6
-1.213, 5.213e-6
-1.214, 5.213e-6
-1.215, 5.212e-6
-1.216, 5.214e-6
-1.217, 5.218e-6
-1.218, 5.219e-6
-1.219, 5.220e-6
-1.220, 5.219e-6
-1.221, 5.220e-6
-1.222, 5.224e-6
-1.223, 5.226e-6
-1.224, 5.226e-6
-1.225, 5.227e-6
-1.226, 5.228e-6
-1.227, 5.232e-6
-1.228, 5.235e-6
-1.229, 5.238e-6
-1.230, 5.237e-6
-1.231, 5.237e-6
-1.232, 5.241e-6
-1.233, 5.244e-6
-1.234, 5.243e-6
-1.235, 5.243e-6
-1.236, 5.244e-6
-1.237, 5.249e-6
-1.238, 5.252e-6
-1.239, 5.253e-6
-1.240, 5.252e-6
-1.241, 5.255e-6
-1.242, 5.258e-6
-1.243, 5.261e-6
-1.244, 5.261e-6
-1.245, 5.260e-6
-1.246, 5.263e-6
-1.247, 5.267e-6
-1.248, 5.270e-6
-1.249, 5.271e-6
-1.250, 5.269e-6
-1.251, 5.273e-6
-1.252, 5.276e-6
-1.253, 5.279e-6
-1.254, 5.280e-6
-1.255, 5.281e-6
-1.256, 5.280e-6
-1.257, 5.285e-6
-1.258, 5.289e-6
-1.259, 5.288e-6
-1.260, 5.289e-6
-1.261, 5.291e-6
-1.262, 5.296e-6
-1.263, 5.299e-6
-1.264, 5.299e-6
-1.265, 5.299e-6
-1.266, 5.300e-6
-1.267, 5.305e-6
-1.268, 5.309e-6
-1.269, 5.308e-6
-1.270, 5.310e-6
-1.271, 5.311e-6
-1.272, 5.315e-6
-1.273, 5.319e-6
-1.274, 5.319e-6
-1.275, 5.320e-6
-1.276, 5.321e-6
-1.277, 5.326e-6
-1.278, 5.330e-6
-1.279, 5.330e-6
-1.280, 5.332e-6
-1.281, 5.334e-6
-1.282, 5.338e-6
-1.283, 5.342e-6
-1.284, 5.341e-6
-1.285, 5.343e-6
-1.286, 5.345e-6
-1.287, 5.350e-6
-1.288, 5.353e-6
-1.289, 5.354e-6
-1.290, 5.354e-6
-1.291, 5.356e-6
-1.292, 5.361e-6
-1.293, 5.364e-6
-1.294, 5.366e-6
-1.295, 5.365e-6
-1.296, 5.368e-6
-1.297, 5.373e-6
-1.298, 5.375e-6
-1.299, 5.377e-6
-1.300, 5.378e-6
-1.301, 5.380e-6
-1.302, 5.385e-6
-1.303, 5.388e-6
-1.304, 5.390e-6
-1.305, 5.390e-6
-1.306, 5.392e-6
-1.307, 5.396e-6
-1.308, 5.402e-6
-1.309, 5.402e-6
-1.310, 5.404e-6
-1.311, 5.406e-6
-1.312, 5.410e-6
-1.313, 5.416e-6
-1.314, 5.415e-6
-1.315, 5.417e-6
-1.316, 5.419e-6
-1.317, 5.423e-6
-1.318, 5.429e-6
-1.319, 5.429e-6
-1.320, 5.430e-6
-1.321, 5.432e-6
-1.322, 5.439e-6
-1.323, 5.442e-6
-1.324, 5.443e-6
-1.325, 5.445e-6
-1.326, 5.447e-6
-1.327, 5.452e-6
-1.328, 5.457e-6
-1.329, 5.458e-6
-1.330, 5.460e-6
-1.331, 5.463e-6
-1.332, 5.471e-6
-1.333, 5.473e-6
-1.334, 5.476e-6
-1.335, 5.476e-6
-1.336, 5.478e-6
-1.337, 5.485e-6
-1.338, 5.488e-6
-1.339, 5.490e-6
-1.340, 5.492e-6
-1.341, 5.495e-6
-1.342, 5.501e-6
-1.343, 5.506e-6
-1.344, 5.509e-6
-1.345, 5.510e-6
-1.346, 5.513e-6
-1.347, 5.519e-6
-1.348, 5.525e-6
-1.349, 5.525e-6
-1.350, 5.528e-6
-1.351, 5.532e-6
-1.352, 5.537e-6
-1.353, 5.544e-6
-1.354, 5.544e-6
-1.355, 5.545e-6
-1.356, 5.550e-6
-1.357, 5.555e-6
-1.358, 5.562e-6
-1.359, 5.563e-6
-1.360, 5.567e-6
-1.361, 5.570e-6
-1.362, 5.574e-6
-1.363, 5.582e-6
-1.364, 5.586e-6
-1.365, 5.585e-6
-1.366, 5.589e-6
-1.367, 5.595e-6
-1.368, 5.601e-6
-1.369, 5.605e-6
-1.370, 5.607e-6
-1.371, 5.610e-6
-1.372, 5.618e-6
-1.373, 5.623e-6
-1.374, 5.626e-6
-1.375, 5.628e-6
-1.376, 5.634e-6
-1.377, 5.640e-6
-1.378, 5.645e-6
-1.379, 5.648e-6
-1.380, 5.651e-6
-1.381, 5.653e-6
-1.382, 5.662e-6
-1.383, 5.670e-6
-1.384, 5.670e-6
-1.385, 5.674e-6
-1.386, 5.678e-6
-1.387, 5.686e-6
-1.388, 5.691e-6
-1.389, 5.694e-6
-1.390, 5.698e-6
-1.391, 5.700e-6
-1.392, 5.710e-6
-1.393, 5.717e-6
-1.394, 5.719e-6
-1.395, 5.723e-6
-1.396, 5.728e-6
-1.397, 5.737e-6
-1.398, 5.744e-6
-1.399, 5.747e-6
-1.400, 5.751e-6
-1.401, 5.756e-6
-1.402, 5.765e-6
-1.403, 5.773e-6
-1.404, 5.776e-6
-1.405, 5.779e-6
-1.406, 5.785e-6
-1.407, 5.793e-6
-1.408, 5.802e-6
-1.409, 5.807e-6
-1.410, 5.810e-6
-1.411, 5.816e-6
-1.412, 5.825e-6
-1.413, 5.832e-6
-1.414, 5.838e-6
-1.415, 5.840e-6
-1.416, 5.846e-6
-1.417, 5.855e-6
-1.418, 5.863e-6
-1.419, 5.868e-6
-1.420, 5.874e-6
-1.421, 5.879e-6
-1.422, 5.888e-6
-1.423, 5.894e-6
-1.424, 5.900e-6
-1.425, 5.906e-6
-1.426, 5.909e-6
-1.427, 5.919e-6
-1.428, 5.929e-6
-1.429, 5.935e-6
-1.430, 5.940e-6
-1.431, 5.945e-6
-1.432, 5.954e-6
-1.433, 5.965e-6
-1.434, 5.973e-6
-1.435, 5.977e-6
-1.436, 5.985e-6
-1.437, 5.995e-6
-1.438, 6.005e-6
-1.439, 6.011e-6
-1.440, 6.017e-6
-1.441, 6.024e-6
-1.442, 6.035e-6
-1.443, 6.046e-6
-1.444, 6.052e-6
-1.445, 6.059e-6
-1.446, 6.067e-6
-1.447, 6.077e-6
-1.448, 6.090e-6
-1.449, 6.098e-6
-1.450, 6.103e-6
-1.451, 6.111e-6
-1.452, 6.125e-6
-1.453, 6.137e-6
-1.454, 6.144e-6
-1.455, 6.150e-6
-1.456, 6.158e-6
-1.457, 6.171e-6
-1.458, 6.181e-6
-1.459, 6.190e-6
-1.460, 6.198e-6
-1.461, 6.205e-6
-1.462, 6.217e-6
-1.463, 6.231e-6
-1.464, 6.239e-6
-1.465, 6.246e-6
-1.466, 6.255e-6
-1.467, 6.269e-6
-1.468, 6.281e-6
-1.469, 6.291e-6
-1.470, 6.299e-6
-1.471, 6.310e-6
-1.472, 6.325e-6
-1.473, 6.339e-6
-1.474, 6.348e-6
-1.475, 6.358e-6
-1.476, 6.369e-6
-1.477, 6.383e-6
-1.478, 6.399e-6
-1.479, 6.409e-6
-1.480, 6.418e-6
-1.481, 6.431e-6
-1.482, 6.445e-6
-1.483, 6.460e-6
-1.484, 6.471e-6
-1.485, 6.483e-6
-1.486, 6.495e-6
-1.487, 6.509e-6
-1.488, 6.527e-6
-1.489, 6.537e-6
-1.490, 6.548e-6
-1.491, 6.561e-6
-1.492, 6.579e-6
-1.493, 6.595e-6
-1.494, 6.608e-6
-1.495, 6.619e-6
-1.496, 6.632e-6
-1.497, 6.651e-6
-1.498, 6.667e-6
-1.499, 6.680e-6
-1.500, 6.692e-6
-1.501, 6.706e-6
-1.502, 6.725e-6
-1.503, 6.741e-6
-1.504, 6.754e-6
-1.505, 6.767e-6
-1.506, 6.781e-6
-1.507, 6.800e-6
-1.508, 6.819e-6
-1.509, 6.833e-6
-1.510, 6.846e-6
-1.511, 6.862e-6
-1.512, 6.880e-6
-1.513, 6.900e-6
-1.514, 6.914e-6
-1.515, 6.929e-6
-1.516, 6.946e-6
-1.517, 6.965e-6
-1.518, 6.987e-6
-1.519, 6.999e-6
-1.520, 7.014e-6
-1.521, 7.033e-6
-1.522, 7.051e-6
-1.523, 7.074e-6
-1.524, 7.090e-6
-1.525, 7.105e-6
-1.526, 7.124e-6
-1.527, 7.146e-6
-1.528, 7.169e-6
-1.529, 7.187e-6
-1.530, 7.204e-6
-1.531, 7.221e-6
-1.532, 7.242e-6
-1.533, 7.266e-6
-1.534, 7.286e-6
-1.535, 7.301e-6
-1.536, 7.322e-6
-1.537, 7.346e-6
-1.538, 7.370e-6
-1.539, 7.389e-6
-1.540, 7.408e-6
-1.541, 7.429e-6
-1.542, 7.455e-6
-1.543, 7.482e-6
-1.544, 7.503e-6
-1.545, 7.523e-6
-1.546, 7.546e-6
-1.547, 7.573e-6
-1.548, 7.601e-6
-1.549, 7.624e-6
-1.550, 7.649e-6
-1.551, 7.672e-6
-1.552, 7.701e-6
-1.553, 7.732e-6
-1.554, 7.756e-6
-1.555, 7.782e-6
-1.556, 7.808e-6
-1.557, 7.838e-6
-1.558, 7.870e-6
-1.559, 7.896e-6
-1.560, 7.923e-6
-1.561, 7.953e-6
-1.562, 7.987e-6
-1.563, 8.020e-6
-1.564, 8.050e-6
-1.565, 8.078e-6
-1.566, 8.108e-6
-1.567, 8.142e-6
-1.568, 8.181e-6
-1.569, 8.217e-6
-1.570, 8.248e-6
-1.571, 8.285e-6
-1.572, 8.325e-6
-1.573, 8.362e-6
-1.574, 8.396e-6
-1.575, 8.430e-6
-1.576, 8.468e-6
-1.577, 8.512e-6
-1.578, 8.554e-6
-1.579, 8.591e-6
-1.580, 8.627e-6
-1.581, 8.665e-6
-1.582, 8.714e-6
-1.583, 8.760e-6
-1.584, 8.802e-6
-1.585, 8.844e-6
-1.586, 8.884e-6
-1.587, 8.936e-6
-1.588, 8.988e-6
-1.589, 9.031e-6
-1.590, 9.077e-6
-1.591, 9.124e-6
-1.592, 9.178e-6
-1.593, 9.235e-6
-1.594, 9.286e-6
-1.595, 9.335e-6
-1.596, 9.385e-6
-1.597, 9.443e-6
-1.598, 9.503e-6
-1.599, 9.559e-6
-1.600, 9.614e-6
-1.601, 9.673e-6
-1.602, 9.736e-6
-1.603, 9.803e-6
-1.604, 9.865e-6
-1.605, 9.923e-6
-1.606, 9.990e-6
-1.607, 1.006e-5
-1.608, 1.013e-5
-1.609, 1.020e-5
-1.610, 1.027e-5
-1.611, 1.034e-5
-1.612, 1.042e-5
-1.613, 1.050e-5
-1.614, 1.059e-5
-1.615, 1.066e-5
-1.616, 1.074e-5
-1.617, 1.083e-5
-1.618, 1.091e-5
-1.619, 1.100e-5
-1.620, 1.107e-5
-1.621, 1.116e-5
-1.622, 1.125e-5
-1.623, 1.135e-5
-1.624, 1.144e-5
-1.625, 1.152e-5
-1.626, 1.161e-5
-1.627, 1.172e-5
-1.628, 1.182e-5
-1.629, 1.192e-5
-1.630, 1.202e-5
-1.631, 1.211e-5
-1.632, 1.222e-5
-1.633, 1.233e-5
-1.634, 1.244e-5
-1.635, 1.256e-5
-1.636, 1.267e-5
-1.637, 1.279e-5
-1.638, 1.292e-5
-1.639, 1.305e-5
-1.640, 1.317e-5
-1.641, 1.330e-5
-1.642, 1.343e-5
-1.643, 1.357e-5
-1.644, 1.370e-5
-1.645, 1.384e-5
-1.646, 1.398e-5
-1.647, 1.412e-5
-1.648, 1.427e-5
-1.649, 1.442e-5
-1.650, 1.458e-5
-1.651, 1.473e-5
-1.652, 1.490e-5
-1.653, 1.507e-5
-1.654, 1.524e-5
-1.655, 1.541e-5
-1.656, 1.558e-5
-1.657, 1.576e-5
-1.658, 1.594e-5
-1.659, 1.613e-5
-1.660, 1.632e-5
-1.661, 1.651e-5
-1.662, 1.672e-5
-1.663, 1.692e-5
-1.664, 1.713e-5
-1.665, 1.733e-5
-1.666, 1.754e-5
-1.667, 1.777e-5
-1.668, 1.799e-5
-1.669, 1.821e-5
-1.670, 1.844e-5
-1.671, 1.868e-5
-1.672, 1.893e-5
-1.673, 1.919e-5
-1.674, 1.943e-5
-1.675, 1.970e-5
-1.676, 1.996e-5
-1.677, 2.023e-5
-1.678, 2.051e-5
-1.679, 2.079e-5
-1.680, 2.108e-5
-1.681, 2.137e-5
-1.682, 2.168e-5
-1.683, 2.198e-5
-1.684, 2.229e-5
-1.685, 2.261e-5
-1.686, 2.294e-5
-1.687, 2.327e-5
-1.688, 2.361e-5
-1.689, 2.396e-5
-1.690, 2.432e-5
-1.691, 2.468e-5
-1.692, 2.506e-5
-1.693, 2.545e-5
-1.694, 2.583e-5
-1.695, 2.622e-5
-1.696, 2.663e-5
-1.697, 2.705e-5
-1.698, 2.748e-5
-1.699, 2.791e-5
-1.700, 2.834e-5
-1.701, 2.879e-5
-1.702, 2.926e-5
-1.703, 2.973e-5
-1.704, 3.020e-5
-1.705, 3.069e-5
-1.706, 3.119e-5
-1.707, 3.170e-5
-1.708, 3.223e-5
-1.709, 3.276e-5
-1.710, 3.330e-5
-1.711, 3.385e-5
-1.712, 3.441e-5
-1.713, 3.500e-5
-1.714, 3.558e-5
-1.715, 3.618e-5
-1.716, 3.678e-5
-1.717, 3.740e-5
-1.718, 3.804e-5
-1.719, 3.868e-5
-1.720, 3.934e-5
-1.721, 4.002e-5
-1.722, 4.072e-5
-1.723, 4.143e-5
-1.724, 4.215e-5
-1.725, 4.287e-5
-1.726, 4.360e-5
-1.727, 4.436e-5
-1.728, 4.514e-5
-1.729, 4.592e-5
-1.730, 4.672e-5
-1.731, 4.754e-5
-1.732, 4.839e-5
-1.733, 4.923e-5
-1.734, 5.008e-5
-1.735, 5.097e-5
-1.736, 5.185e-5
-1.737, 5.278e-5
-1.738, 5.372e-5
-1.739, 5.469e-5
-1.740, 5.566e-5
-1.741, 5.659e-5
-1.742, 5.750e-5
-1.743, 5.848e-5
-1.744, 5.950e-5
-1.745, 6.055e-5
-1.746, 6.163e-5
-1.747, 6.275e-5
-1.748, 6.389e-5
-1.749, 6.504e-5
-1.750, 6.620e-5
-1.751, 6.739e-5
-1.752, 6.859e-5
-1.753, 6.983e-5
-1.754, 7.110e-5
-1.755, 7.238e-5
-1.756, 7.367e-5
-1.757, 7.501e-5
-1.758, 7.636e-5
-1.759, 7.775e-5
-1.760, 7.916e-5
-1.761, 8.061e-5
-1.762, 8.207e-5
-1.763, 8.357e-5
-1.764, 8.511e-5
-1.765, 8.667e-5
-1.766, 8.825e-5
-1.767, 8.984e-5
-1.768, 9.147e-5
-1.769, 9.315e-5
-1.770, 9.484e-5
-1.771, 9.657e-5
-1.772, 9.834e-5
-1.773, 1.002e-4
-1.774, 1.020e-4
-1.775, 1.038e-4
-1.776, 1.057e-4
-1.777, 1.076e-4
-1.778, 1.096e-4
-1.779, 1.116e-4
-1.780, 1.136e-4
-1.781, 1.157e-4
-1.782, 1.177e-4
-1.783, 1.199e-4
-1.784, 1.221e-4
-1.785, 1.243e-4
-1.786, 1.266e-4
-1.787, 1.289e-4
-1.788, 1.313e-4
-1.789, 1.336e-4
-1.790, 1.361e-4
-1.791, 1.386e-4
-1.792, 1.412e-4
-1.793, 1.438e-4
-1.794, 1.464e-4
-1.795, 1.491e-4
-1.796, 1.518e-4
-1.797, 1.546e-4
-1.798, 1.575e-4
-1.799, 1.603e-4
-1.800, 1.633e-4
-1.801, 1.662e-4
-1.802, 1.692e-4
-1.803, 1.723e-4
-1.804, 1.755e-4
-1.805, 1.786e-4
-1.806, 1.819e-4
-1.807, 1.852e-4
-1.808, 1.885e-4
-1.809, 1.919e-4
-1.810, 1.954e-4
-1.811, 1.989e-4
-1.812, 2.024e-4
-1.813, 2.059e-4
-1.814, 2.095e-4
-1.815, 2.132e-4
-1.816, 2.168e-4
-1.817, 2.205e-4
-1.818, 2.243e-4
-1.819, 2.281e-4
-1.820, 2.320e-4
-1.821, 2.359e-4
-1.822, 2.398e-4
-1.823, 2.438e-4
-1.824, 2.478e-4
-1.825, 2.519e-4
-1.826, 2.559e-4
-1.827, 2.600e-4
-1.828, 2.641e-4
-1.829, 2.682e-4
-1.830, 2.723e-4
-1.831, 2.764e-4
-1.832, 2.806e-4
-1.833, 2.847e-4
-1.834, 2.889e-4
-1.835, 2.931e-4
-1.836, 2.973e-4
-1.837, 3.015e-4
-1.838, 3.057e-4
-1.839, 3.099e-4
-1.840, 3.141e-4
-1.841, 3.184e-4
-1.842, 3.227e-4
-1.843, 3.270e-4
-1.844, 3.314e-4
-1.845, 3.357e-4
-1.846, 3.402e-4
-1.847, 3.446e-4
-1.848, 3.492e-4
-1.849, 3.538e-4
-1.850, 3.583e-4
-1.851, 3.630e-4
-1.852, 3.676e-4
-1.853, 3.724e-4
-1.854, 3.772e-4
-1.855, 3.819e-4
-1.856, 3.867e-4
-1.857, 3.916e-4
-1.858, 3.966e-4
-1.859, 4.015e-4
-1.860, 4.065e-4
-1.861, 4.116e-4
-1.862, 4.167e-4
-1.863, 4.219e-4
-1.864, 4.271e-4
-1.865, 4.323e-4
-1.866, 4.376e-4
-1.867, 4.430e-4
-1.868, 4.484e-4
-1.869, 4.538e-4
-1.870, 4.593e-4
-1.871, 4.648e-4
-1.872, 4.705e-4
-1.873, 4.761e-4
-1.874, 4.818e-4
-1.875, 4.875e-4
-1.876, 4.934e-4
-1.877, 4.992e-4
-1.878, 5.051e-4
-1.879, 5.110e-4
-1.880, 5.170e-4
-1.881, 5.230e-4
-1.882, 5.290e-4
-1.883, 5.351e-4
-1.884, 5.413e-4
-1.885, 5.474e-4
-1.886, 5.535e-4
-1.887, 5.598e-4
-1.888, 5.661e-4
-1.889, 5.724e-4
-1.890, 5.788e-4
-1.891, 5.853e-4
-1.892, 5.918e-4
-1.893, 5.983e-4
-1.894, 6.049e-4
-1.895, 6.116e-4
-1.896, 6.183e-4
-1.897, 6.250e-4
-1.898, 6.318e-4
-1.899, 6.387e-4
-1.900, 6.455e-4
-1.901, 6.525e-4
-1.902, 6.594e-4
-1.903, 6.665e-4
-1.904, 6.735e-4
-1.905, 6.806e-4
-1.906, 6.878e-4
-1.907, 6.950e-4
-1.908, 7.023e-4
-1.909, 7.096e-4
-1.910, 7.169e-4
-1.911, 7.243e-4
-1.912, 7.317e-4
-1.913, 7.393e-4
-1.914, 7.468e-4
-1.915, 7.545e-4
-1.916, 7.621e-4
-1.917, 7.698e-4
-1.918, 7.776e-4
-1.919, 7.855e-4
-1.920, 7.934e-4
-1.921, 8.013e-4
-1.922, 8.091e-4
-1.923, 8.170e-4
-1.924, 8.250e-4
-1.925, 8.330e-4
-1.926, 8.410e-4
-1.927, 8.491e-4
-1.928, 8.574e-4
-1.929, 8.656e-4
-1.930, 8.739e-4
-1.931, 8.822e-4
-1.932, 8.906e-4
-1.933, 8.991e-4
-1.934, 9.075e-4
-1.935, 9.161e-4
-1.936, 9.246e-4
-1.937, 9.333e-4
-1.938, 9.421e-4
-1.939, 9.509e-4
-1.940, 9.596e-4
-1.941, 9.684e-4
-1.942, 9.773e-4
-1.943, 9.862e-4
-1.944, 9.951e-4
-1.945, 1.004e-3
-1.946, 1.011e-3
-1.947, 1.011e-3
-1.948, 1.011e-3
-1.949, 1.011e-3
-1.950, 1.011e-3
-1.951, 1.011e-3
-1.952, 1.011e-3
-1.953, 1.011e-3
-1.954, 1.011e-3
-1.955, 1.011e-3
-1.956, 1.011e-3
-1.957, 1.011e-3
-1.958, 1.011e-3
-1.959, 1.011e-3
-1.960, 1.011e-3
-1.961, 1.011e-3
-1.962, 1.011e-3
-1.963, 1.011e-3
-1.964, 1.011e-3
-1.965, 1.011e-3
-1.966, 1.011e-3
-1.967, 1.011e-3
-1.968, 1.011e-3
-1.969, 1.011e-3
-1.970, 1.011e-3
-1.971, 1.011e-3
-1.972, 1.011e-3
-1.973, 1.011e-3
-1.974, 1.011e-3
-1.975, 1.011e-3
-1.976, 1.011e-3
-1.977, 1.011e-3
-1.978, 1.011e-3
-1.979, 1.011e-3
-1.980, 1.011e-3
-1.981, 1.011e-3
-1.982, 1.011e-3
-1.983, 1.011e-3
-1.984, 1.011e-3
-1.985, 1.011e-3
-1.986, 1.011e-3
-1.987, 1.011e-3
-1.988, 1.011e-3
-1.989, 1.011e-3
-1.990, 1.011e-3
-1.991, 1.011e-3
-1.992, 1.011e-3
-1.993, 1.011e-3
-1.994, 1.011e-3
-1.995, 1.011e-3
-1.996, 1.011e-3
-1.997, 1.011e-3
-1.998, 1.011e-3
-1.999, 1.011e-3
-2.000, 1.011e-3
-2.001, 1.011e-3
-2.002, 1.011e-3
-2.003, 1.011e-3
-2.004, 1.011e-3
-2.005, 1.011e-3
-2.006, 1.011e-3
-2.007, 1.011e-3
-2.008, 1.011e-3
-2.009, 1.011e-3
-2.010, 1.011e-3
-2.011, 1.011e-3
-2.012, 1.011e-3
-2.013, 1.011e-3
-2.014, 1.011e-3
-2.015, 1.011e-3
-2.016, 1.011e-3
-2.017, 1.011e-3
-2.018, 1.011e-3
-2.019, 1.011e-3
-2.020, 1.011e-3
-2.021, 1.011e-3
-2.022, 1.011e-3
-2.023, 1.011e-3
-2.024, 1.011e-3
-2.025, 1.011e-3
-2.026, 1.011e-3
-2.027, 1.011e-3
-2.028, 1.011e-3
-2.029, 1.011e-3
-2.030, 1.011e-3
-2.031, 1.011e-3
-2.032, 1.011e-3
-2.033, 1.011e-3
-2.034, 1.011e-3
-2.035, 1.011e-3
-2.036, 1.011e-3
-2.037, 1.011e-3
-2.038, 1.011e-3
-2.039, 1.011e-3
-2.040, 1.011e-3
-2.041, 1.011e-3
-2.042, 1.011e-3
-2.043, 1.011e-3
-2.044, 1.011e-3
-2.045, 1.011e-3
-2.046, 1.011e-3
-2.047, 1.011e-3
-2.048, 1.011e-3
-2.049, 1.011e-3
-2.050, 1.011e-3
-2.051, 1.011e-3
-2.052, 1.011e-3
-2.053, 1.011e-3
-2.054, 1.011e-3
-2.055, 1.011e-3
-2.056, 1.011e-3
-2.057, 1.011e-3
-2.058, 1.011e-3
-2.059, 1.011e-3
-2.060, 1.011e-3
-2.061, 1.011e-3
-2.062, 1.011e-3
-2.063, 1.011e-3
-2.064, 1.011e-3
-2.065, 1.011e-3
-2.066, 1.011e-3
-2.067, 1.011e-3
-2.068, 1.011e-3
-2.069, 1.011e-3
-2.070, 1.011e-3
-2.071, 1.011e-3
-2.072, 1.011e-3
-2.073, 1.011e-3
-2.074, 1.011e-3
-2.075, 1.011e-3
-2.076, 1.011e-3
-2.077, 1.011e-3
-2.078, 1.011e-3
-2.079, 1.011e-3
-2.080, 1.011e-3
-2.081, 1.011e-3
-2.082, 1.011e-3
-2.083, 1.011e-3
-2.084, 1.011e-3
-2.085, 1.011e-3
-2.086, 1.011e-3
-2.087, 1.011e-3
-2.088, 1.011e-3
-2.089, 1.011e-3
-2.090, 1.011e-3
-2.091, 1.011e-3
-2.092, 1.011e-3
-2.093, 1.011e-3
-2.094, 1.011e-3
-2.095, 1.011e-3
-2.096, 1.011e-3
-2.097, 1.011e-3
-2.098, 1.011e-3
-2.099, 1.011e-3
