Dec. 29, 2024   19:41:31
Cyclic Voltammetry
File: c:/users/guazh/data/banditlqround7_x0exp136_r20/2024-12-24-exp780\exp780-2024-12-29t19_36_35-arkoh\exp780_cv_50mvs_efin_-1400mv.bin
Data Source:  Experiment
Instrument Model:  CHI760E
Header: CV ran at 50 mVs
Note: 

Init E (V) = -1
High E (V) = -1
Low E (V) = -1.4
Final E (V) = -1
Init P/N = N
Scan Rate (V/s) = 0.05
Segment = 7
Sample Interval (V) = 0.001
Quiet Time (sec) = 60
Sensitivity (A/V) = 0.001
Comp R (ohm) = 1.3

Results:

Channel 1:
Segment 1:

Segment 2:

Segment 3:

Segment 4:

Segment 5:

Segment 6:

Segment 7:

Potential/V, Current/A

-1.000, 6.005e-5
-1.001, 1.589e-4
-1.002, 2.096e-4
-1.003, 2.367e-4
-1.004, 2.576e-4
-1.005, 2.735e-4
-1.006, 2.823e-4
-1.007, 2.828e-4
-1.008, 2.812e-4
-1.009, 2.853e-4
-1.010, 2.918e-4
-1.011, 2.948e-4
-1.012, 2.924e-4
-1.013, 2.888e-4
-1.014, 2.904e-4
-1.015, 2.963e-4
-1.016, 2.978e-4
-1.017, 2.942e-4
-1.018, 2.901e-4
-1.019, 2.909e-4
-1.020, 2.971e-4
-1.021, 2.988e-4
-1.022, 2.952e-4
-1.023, 2.921e-4
-1.024, 2.938e-4
-1.025, 2.991e-4
-1.026, 3.001e-4
-1.027, 2.955e-4
-1.028, 2.914e-4
-1.029, 2.922e-4
-1.030, 2.979e-4
-1.031, 3.001e-4
-1.032, 2.956e-4
-1.033, 2.920e-4
-1.034, 2.926e-4
-1.035, 2.971e-4
-1.036, 3.000e-4
-1.037, 2.956e-4
-1.038, 2.915e-4
-1.039, 2.925e-4
-1.040, 2.962e-4
-1.041, 2.989e-4
-1.042, 2.960e-4
-1.043, 2.919e-4
-1.044, 2.932e-4
-1.045, 2.978e-4
-1.046, 2.989e-4
-1.047, 2.951e-4
-1.048, 2.910e-4
-1.049, 2.922e-4
-1.050, 2.974e-4
-1.051, 2.995e-4
-1.052, 2.964e-4
-1.053, 2.910e-4
-1.054, 2.920e-4
-1.055, 2.973e-4
-1.056, 2.989e-4
-1.057, 2.952e-4
-1.058, 2.912e-4
-1.059, 2.918e-4
-1.060, 2.967e-4
-1.061, 2.989e-4
-1.062, 2.957e-4
-1.063, 2.914e-4
-1.064, 2.917e-4
-1.065, 2.967e-4
-1.066, 2.990e-4
-1.067, 2.951e-4
-1.068, 2.917e-4
-1.069, 2.920e-4
-1.070, 2.966e-4
-1.071, 2.995e-4
-1.072, 2.954e-4
-1.073, 2.914e-4
-1.074, 2.919e-4
-1.075, 2.982e-4
-1.076, 3.014e-4
-1.077, 2.962e-4
-1.078, 2.917e-4
-1.079, 2.921e-4
-1.080, 2.964e-4
-1.081, 2.997e-4
-1.082, 2.969e-4
-1.083, 2.917e-4
-1.084, 2.916e-4
-1.085, 2.961e-4
-1.086, 2.991e-4
-1.087, 2.966e-4
-1.088, 2.928e-4
-1.089, 2.938e-4
-1.090, 2.966e-4
-1.091, 2.991e-4
-1.092, 2.965e-4
-1.093, 2.918e-4
-1.094, 2.933e-4
-1.095, 2.984e-4
-1.096, 3.010e-4
-1.097, 2.980e-4
-1.098, 2.929e-4
-1.099, 2.932e-4
-1.100, 2.981e-4
-1.101, 3.008e-4
-1.102, 2.985e-4
-1.103, 2.947e-4
-1.104, 2.946e-4
-1.105, 2.995e-4
-1.106, 3.026e-4
-1.107, 2.986e-4
-1.108, 2.949e-4
-1.109, 2.949e-4
-1.110, 2.994e-4
-1.111, 3.030e-4
-1.112, 3.002e-4
-1.113, 2.960e-4
-1.114, 2.967e-4
-1.115, 3.009e-4
-1.116, 3.041e-4
-1.117, 3.006e-4
-1.118, 2.964e-4
-1.119, 2.976e-4
-1.120, 3.016e-4
-1.121, 3.058e-4
-1.122, 3.031e-4
-1.123, 2.980e-4
-1.124, 2.994e-4
-1.125, 3.033e-4
-1.126, 3.073e-4
-1.127, 3.051e-4
-1.128, 2.993e-4
-1.129, 3.000e-4
-1.130, 3.051e-4
-1.131, 3.091e-4
-1.132, 3.073e-4
-1.133, 3.017e-4
-1.134, 3.017e-4
-1.135, 3.071e-4
-1.136, 3.103e-4
-1.137, 3.091e-4
-1.138, 3.042e-4
-1.139, 3.043e-4
-1.140, 3.091e-4
-1.141, 3.123e-4
-1.142, 3.106e-4
-1.143, 3.068e-4
-1.144, 3.066e-4
-1.145, 3.119e-4
-1.146, 3.155e-4
-1.147, 3.135e-4
-1.148, 3.096e-4
-1.149, 3.095e-4
-1.150, 3.148e-4
-1.151, 3.196e-4
-1.152, 3.170e-4
-1.153, 3.126e-4
-1.154, 3.136e-4
-1.155, 3.184e-4
-1.156, 3.223e-4
-1.157, 3.199e-4
-1.158, 3.163e-4
-1.159, 3.176e-4
-1.160, 3.225e-4
-1.161, 3.271e-4
-1.162, 3.252e-4
-1.163, 3.211e-4
-1.164, 3.221e-4
-1.165, 3.267e-4
-1.166, 3.313e-4
-1.167, 3.305e-4
-1.168, 3.262e-4
-1.169, 3.275e-4
-1.170, 3.330e-4
-1.171, 3.376e-4
-1.172, 3.371e-4
-1.173, 3.327e-4
-1.174, 3.335e-4
-1.175, 3.397e-4
-1.176, 3.438e-4
-1.177, 3.442e-4
-1.178, 3.410e-4
-1.179, 3.411e-4
-1.180, 3.478e-4
-1.181, 3.517e-4
-1.182, 3.514e-4
-1.183, 3.486e-4
-1.184, 3.492e-4
-1.185, 3.557e-4
-1.186, 3.612e-4
-1.187, 3.607e-4
-1.188, 3.579e-4
-1.189, 3.588e-4
-1.190, 3.658e-4
-1.191, 3.718e-4
-1.192, 3.716e-4
-1.193, 3.693e-4
-1.194, 3.711e-4
-1.195, 3.776e-4
-1.196, 3.841e-4
-1.197, 3.844e-4
-1.198, 3.824e-4
-1.199, 3.842e-4
-1.200, 3.915e-4
-1.201, 3.985e-4
-1.202, 3.995e-4
-1.203, 3.979e-4
-1.204, 4.015e-4
-1.205, 4.081e-4
-1.206, 4.147e-4
-1.207, 4.170e-4
-1.208, 4.156e-4
-1.209, 4.178e-4
-1.210, 4.271e-4
-1.211, 4.356e-4
-1.212, 4.379e-4
-1.213, 4.361e-4
-1.214, 4.406e-4
-1.215, 4.499e-4
-1.216, 4.576e-4
-1.217, 4.609e-4
-1.218, 4.597e-4
-1.219, 4.633e-4
-1.220, 4.733e-4
-1.221, 4.827e-4
-1.222, 4.876e-4
-1.223, 4.897e-4
-1.224, 4.939e-4
-1.225, 5.040e-4
-1.226, 5.143e-4
-1.227, 5.196e-4
-1.228, 5.221e-4
-1.229, 5.294e-4
-1.230, 5.396e-4
-1.231, 5.505e-4
-1.232, 5.556e-4
-1.233, 5.603e-4
-1.234, 5.665e-4
-1.235, 5.783e-4
-1.236, 5.918e-4
-1.237, 5.978e-4
-1.238, 6.022e-4
-1.239, 6.098e-4
-1.240, 6.230e-4
-1.241, 6.374e-4
-1.242, 6.468e-4
-1.243, 6.526e-4
-1.244, 6.616e-4
-1.245, 6.763e-4
-1.246, 6.918e-4
-1.247, 7.022e-4
-1.248, 7.089e-4
-1.249, 7.202e-4
-1.250, 7.369e-4
-1.251, 7.542e-4
-1.252, 7.677e-4
-1.253, 7.752e-4
-1.254, 7.883e-4
-1.255, 8.070e-4
-1.256, 8.251e-4
-1.257, 8.397e-4
-1.258, 8.504e-4
-1.259, 8.646e-4
-1.260, 8.859e-4
-1.261, 9.059e-4
-1.262, 9.216e-4
-1.263, 9.338e-4
-1.264, 9.497e-4
-1.265, 9.738e-4
-1.266, 9.995e-4
-1.267, 1.017e-3
-1.268, 1.034e-3
-1.269, 1.052e-3
-1.270, 1.078e-3
-1.271, 1.104e-3
-1.272, 1.123e-3
-1.273, 1.141e-3
-1.274, 1.162e-3
-1.275, 1.191e-3
-1.276, 1.220e-3
-1.277, 1.244e-3
-1.278, 1.264e-3
-1.279, 1.288e-3
-1.280, 1.320e-3
-1.281, 1.352e-3
-1.282, 1.380e-3
-1.283, 1.403e-3
-1.284, 1.430e-3
-1.285, 1.463e-3
-1.286, 1.498e-3
-1.287, 1.527e-3
-1.288, 1.552e-3
-1.289, 1.584e-3
-1.290, 1.622e-3
-1.291, 1.661e-3
-1.292, 1.695e-3
-1.293, 1.727e-3
-1.294, 1.761e-3
-1.295, 1.802e-3
-1.296, 1.840e-3
-1.297, 1.877e-3
-1.298, 1.908e-3
-1.299, 1.945e-3
-1.300, 1.990e-3
-1.301, 2.036e-3
-1.302, 2.078e-3
-1.303, 2.115e-3
-1.304, 2.156e-3
-1.305, 2.202e-3
-1.306, 2.251e-3
-1.307, 2.294e-3
-1.308, 2.333e-3
-1.309, 2.379e-3
-1.310, 2.429e-3
-1.311, 2.482e-3
-1.312, 2.530e-3
-1.313, 2.574e-3
-1.314, 2.621e-3
-1.315, 2.675e-3
-1.316, 2.731e-3
-1.317, 2.783e-3
-1.318, 2.831e-3
-1.319, 2.882e-3
-1.320, 2.947e-3
-1.321, 3.009e-3
-1.322, 3.060e-3
-1.323, 3.109e-3
-1.324, 3.156e-3
-1.325, 3.226e-3
-1.326, 3.293e-3
-1.327, 3.353e-3
-1.328, 3.406e-3
-1.329, 3.461e-3
-1.330, 3.523e-3
-1.331, 3.589e-3
-1.332, 3.652e-3
-1.333, 3.710e-3
-1.334, 3.767e-3
-1.335, 3.835e-3
-1.336, 3.905e-3
-1.337, 3.967e-3
-1.338, 4.033e-3
-1.339, 4.097e-3
-1.340, 4.163e-3
-1.341, 4.228e-3
-1.342, 4.292e-3
-1.343, 4.354e-3
-1.344, 4.413e-3
-1.345, 4.493e-3
-1.346, 4.562e-3
-1.347, 4.632e-3
-1.348, 4.694e-3
-1.349, 4.760e-3
-1.350, 4.831e-3
-1.351, 4.904e-3
-1.352, 4.974e-3
-1.353, 5.043e-3
-1.354, 5.111e-3
-1.355, 5.197e-3
-1.356, 5.275e-3
-1.357, 5.357e-3
-1.358, 5.432e-3
-1.359, 5.496e-3
-1.360, 5.567e-3
-1.361, 5.637e-3
-1.362, 5.702e-3
-1.363, 5.772e-3
-1.364, 5.846e-3
-1.365, 5.924e-3
-1.366, 6.011e-3
-1.367, 6.082e-3
-1.368, 6.156e-3
-1.369, 6.226e-3
-1.370, 6.300e-3
-1.371, 6.375e-3
-1.372, 6.449e-3
-1.373, 6.514e-3
-1.374, 6.563e-3
-1.375, 6.642e-3
-1.376, 6.727e-3
-1.377, 6.813e-3
-1.378, 6.891e-3
-1.379, 6.965e-3
-1.380, 7.044e-3
-1.381, 7.120e-3
-1.382, 7.188e-3
-1.383, 7.259e-3
-1.384, 7.336e-3
-1.385, 7.422e-3
-1.386, 7.528e-3
-1.387, 7.610e-3
-1.388, 7.679e-3
-1.389, 7.751e-3
-1.390, 7.827e-3
-1.391, 7.892e-3
-1.392, 7.970e-3
-1.393, 8.034e-3
-1.394, 8.098e-3
-1.395, 8.178e-3
-1.396, 8.265e-3
-1.397, 8.336e-3
-1.398, 8.447e-3
-1.399, 8.490e-3
-1.400, 8.444e-3
-1.399, 8.307e-3
-1.398, 8.181e-3
-1.397, 8.055e-3
-1.396, 7.941e-3
-1.395, 7.855e-3
-1.394, 7.755e-3
-1.393, 7.652e-3
-1.392, 7.557e-3
-1.391, 7.452e-3
-1.390, 7.335e-3
-1.389, 7.235e-3
-1.388, 7.136e-3
-1.387, 7.042e-3
-1.386, 6.945e-3
-1.385, 6.875e-3
-1.384, 6.779e-3
-1.383, 6.682e-3
-1.382, 6.575e-3
-1.381, 6.467e-3
-1.380, 6.398e-3
-1.379, 6.314e-3
-1.378, 6.238e-3
-1.377, 6.164e-3
-1.376, 6.080e-3
-1.375, 6.004e-3
-1.374, 5.921e-3
-1.373, 5.829e-3
-1.372, 5.744e-3
-1.371, 5.660e-3
-1.370, 5.572e-3
-1.369, 5.495e-3
-1.368, 5.409e-3
-1.367, 5.336e-3
-1.366, 5.248e-3
-1.365, 5.163e-3
-1.364, 5.097e-3
-1.363, 5.024e-3
-1.362, 4.949e-3
-1.361, 4.860e-3
-1.360, 4.793e-3
-1.359, 4.722e-3
-1.358, 4.646e-3
-1.357, 4.573e-3
-1.356, 4.500e-3
-1.355, 4.424e-3
-1.354, 4.348e-3
-1.353, 4.289e-3
-1.352, 4.209e-3
-1.351, 4.140e-3
-1.350, 4.063e-3
-1.349, 4.054e-3
-1.348, 3.987e-3
-1.347, 3.921e-3
-1.346, 3.879e-3
-1.345, 3.804e-3
-1.344, 3.737e-3
-1.343, 3.657e-3
-1.342, 3.589e-3
-1.341, 3.525e-3
-1.340, 3.460e-3
-1.339, 3.403e-3
-1.338, 3.347e-3
-1.337, 3.281e-3
-1.336, 3.216e-3
-1.335, 3.141e-3
-1.334, 3.096e-3
-1.333, 3.036e-3
-1.332, 2.983e-3
-1.331, 2.921e-3
-1.330, 2.861e-3
-1.329, 2.806e-3
-1.328, 2.746e-3
-1.327, 2.684e-3
-1.326, 2.629e-3
-1.325, 2.581e-3
-1.324, 2.528e-3
-1.323, 2.475e-3
-1.322, 2.422e-3
-1.321, 2.372e-3
-1.320, 2.319e-3
-1.319, 2.274e-3
-1.318, 2.230e-3
-1.317, 2.177e-3
-1.316, 2.125e-3
-1.315, 2.078e-3
-1.314, 2.032e-3
-1.313, 1.995e-3
-1.312, 1.946e-3
-1.311, 1.895e-3
-1.310, 1.847e-3
-1.309, 1.807e-3
-1.308, 1.762e-3
-1.307, 1.717e-3
-1.306, 1.673e-3
-1.305, 1.633e-3
-1.304, 1.596e-3
-1.303, 1.553e-3
-1.302, 1.509e-3
-1.301, 1.466e-3
-1.300, 1.428e-3
-1.299, 1.395e-3
-1.298, 1.362e-3
-1.297, 1.319e-3
-1.296, 1.276e-3
-1.295, 1.240e-3
-1.294, 1.211e-3
-1.293, 1.181e-3
-1.292, 1.148e-3
-1.291, 1.105e-3
-1.290, 1.069e-3
-1.289, 1.041e-3
-1.288, 1.011e-3
-1.287, 9.769e-4
-1.286, 9.408e-4
-1.285, 9.128e-4
-1.284, 8.902e-4
-1.283, 8.597e-4
-1.282, 8.239e-4
-1.281, 7.923e-4
-1.280, 7.649e-4
-1.279, 7.413e-4
-1.278, 7.151e-4
-1.277, 6.851e-4
-1.276, 6.558e-4
-1.275, 6.319e-4
-1.274, 6.103e-4
-1.273, 5.858e-4
-1.272, 5.596e-4
-1.271, 5.313e-4
-1.270, 5.100e-4
-1.269, 4.922e-4
-1.268, 4.703e-4
-1.267, 4.458e-4
-1.266, 4.300e-4
-1.265, 4.064e-4
-1.264, 3.889e-4
-1.263, 3.691e-4
-1.262, 3.442e-4
-1.261, 3.230e-4
-1.260, 3.047e-4
-1.259, 2.904e-4
-1.258, 2.738e-4
-1.257, 2.525e-4
-1.256, 2.317e-4
-1.255, 2.160e-4
-1.254, 2.042e-4
-1.253, 1.898e-4
-1.252, 1.702e-4
-1.251, 1.520e-4
-1.250, 1.379e-4
-1.249, 1.271e-4
-1.248, 1.148e-4
-1.247, 9.739e-5
-1.246, 8.082e-5
-1.245, 6.931e-5
-1.244, 6.068e-5
-1.243, 4.977e-5
-1.242, 3.444e-5
-1.241, 1.834e-5
-1.240, 8.749e-6
-1.239, 1.893e-6
-1.238, -7.574e-6
-1.237, -2.078e-5
-1.236, -3.438e-5
-1.235, -4.316e-5
-1.234, -4.856e-5
-1.233, -5.681e-5
-1.232, -6.857e-5
-1.231, -8.076e-5
-1.230, -8.842e-5
-1.229, -9.470e-5
-1.228, -1.013e-4
-1.227, -1.117e-4
-1.226, -1.222e-4
-1.225, -1.284e-4
-1.224, -1.302e-4
-1.223, -1.355e-4
-1.222, -1.455e-4
-1.221, -1.553e-4
-1.220, -1.603e-4
-1.219, -1.616e-4
-1.218, -1.658e-4
-1.217, -1.757e-4
-1.216, -1.839e-4
-1.215, -1.880e-4
-1.214, -1.886e-4
-1.213, -1.913e-4
-1.212, -2.011e-4
-1.211, -2.133e-4
-1.210, -2.137e-4
-1.209, -2.139e-4
-1.208, -2.156e-4
-1.207, -2.227e-4
-1.206, -2.303e-4
-1.205, -2.323e-4
-1.204, -2.323e-4
-1.203, -2.345e-4
-1.202, -2.407e-4
-1.201, -2.465e-4
-1.200, -2.484e-4
-1.199, -2.471e-4
-1.198, -2.488e-4
-1.197, -2.550e-4
-1.196, -2.618e-4
-1.195, -2.627e-4
-1.194, -2.602e-4
-1.193, -2.612e-4
-1.192, -2.669e-4
-1.191, -2.733e-4
-1.190, -2.741e-4
-1.189, -2.710e-4
-1.188, -2.717e-4
-1.187, -2.778e-4
-1.186, -2.827e-4
-1.185, -2.836e-4
-1.184, -2.808e-4
-1.183, -2.805e-4
-1.182, -2.864e-4
-1.181, -2.901e-4
-1.180, -2.910e-4
-1.179, -2.883e-4
-1.178, -2.886e-4
-1.177, -2.936e-4
-1.176, -2.971e-4
-1.175, -2.969e-4
-1.174, -2.946e-4
-1.173, -2.949e-4
-1.172, -3.004e-4
-1.171, -3.040e-4
-1.170, -3.043e-4
-1.169, -3.002e-4
-1.168, -2.981e-4
-1.167, -3.020e-4
-1.166, -3.064e-4
-1.165, -3.069e-4
-1.164, -3.047e-4
-1.163, -3.032e-4
-1.162, -3.070e-4
-1.161, -3.111e-4
-1.160, -3.095e-4
-1.159, -3.058e-4
-1.158, -3.051e-4
-1.157, -3.091e-4
-1.156, -3.133e-4
-1.155, -3.147e-4
-1.154, -3.103e-4
-1.153, -3.090e-4
-1.152, -3.115e-4
-1.151, -3.158e-4
-1.150, -3.152e-4
-1.149, -3.109e-4
-1.148, -3.100e-4
-1.147, -3.138e-4
-1.146, -3.182e-4
-1.145, -3.183e-4
-1.144, -3.137e-4
-1.143, -3.118e-4
-1.142, -3.159e-4
-1.141, -3.199e-4
-1.140, -3.188e-4
-1.139, -3.154e-4
-1.138, -3.138e-4
-1.137, -3.172e-4
-1.136, -3.206e-4
-1.135, -3.200e-4
-1.134, -3.160e-4
-1.133, -3.157e-4
-1.132, -3.205e-4
-1.131, -3.215e-4
-1.130, -3.216e-4
-1.129, -3.176e-4
-1.128, -3.158e-4
-1.127, -3.198e-4
-1.126, -3.228e-4
-1.125, -3.227e-4
-1.124, -3.187e-4
-1.123, -3.166e-4
-1.122, -3.199e-4
-1.121, -3.248e-4
-1.120, -3.243e-4
-1.119, -3.213e-4
-1.118, -3.196e-4
-1.117, -3.223e-4
-1.116, -3.254e-4
-1.115, -3.375e-4
-1.114, -3.263e-4
-1.113, -3.223e-4
-1.112, -3.245e-4
-1.111, -3.281e-4
-1.110, -3.277e-4
-1.109, -3.229e-4
-1.108, -3.212e-4
-1.107, -3.242e-4
-1.106, -3.276e-4
-1.105, -3.268e-4
-1.104, -3.217e-4
-1.103, -3.205e-4
-1.102, -3.243e-4
-1.101, -3.283e-4
-1.100, -3.285e-4
-1.099, -3.235e-4
-1.098, -3.212e-4
-1.097, -3.251e-4
-1.096, -3.287e-4
-1.095, -3.285e-4
-1.094, -3.237e-4
-1.093, -3.220e-4
-1.092, -3.257e-4
-1.091, -3.294e-4
-1.090, -3.289e-4
-1.089, -3.248e-4
-1.088, -3.224e-4
-1.087, -3.266e-4
-1.086, -3.306e-4
-1.085, -3.298e-4
-1.084, -3.260e-4
-1.083, -3.241e-4
-1.082, -3.273e-4
-1.081, -3.315e-4
-1.080, -3.309e-4
-1.079, -3.267e-4
-1.078, -3.254e-4
-1.077, -3.278e-4
-1.076, -3.327e-4
-1.075, -3.338e-4
-1.074, -3.292e-4
-1.073, -3.272e-4
-1.072, -3.301e-4
-1.071, -3.340e-4
-1.070, -3.339e-4
-1.069, -3.286e-4
-1.068, -3.273e-4
-1.067, -3.307e-4
-1.066, -3.347e-4
-1.065, -3.355e-4
-1.064, -3.311e-4
-1.063, -3.288e-4
-1.062, -3.319e-4
-1.061, -3.362e-4
-1.060, -3.361e-4
-1.059, -3.399e-4
-1.058, -3.355e-4
-1.057, -3.375e-4
-1.056, -3.396e-4
-1.055, -3.390e-4
-1.054, -3.343e-4
-1.053, -3.312e-4
-1.052, -3.353e-4
-1.051, -3.396e-4
-1.050, -3.397e-4
-1.049, -3.361e-4
-1.048, -3.339e-4
-1.047, -3.378e-4
-1.046, -3.424e-4
-1.045, -3.418e-4
-1.044, -3.377e-4
-1.043, -3.354e-4
-1.042, -3.393e-4
-1.041, -3.438e-4
-1.040, -3.427e-4
-1.039, -3.401e-4
-1.038, -3.383e-4
-1.037, -3.417e-4
-1.036, -3.466e-4
-1.035, -3.461e-4
-1.034, -3.422e-4
-1.033, -3.411e-4
-1.032, -3.440e-4
-1.031, -3.494e-4
-1.030, -3.499e-4
-1.029, -3.464e-4
-1.028, -3.427e-4
-1.027, -3.475e-4
-1.026, -3.540e-4
-1.025, -3.546e-4
-1.024, -3.503e-4
-1.023, -3.491e-4
-1.022, -3.524e-4
-1.021, -3.565e-4
-1.020, -3.560e-4
-1.019, -3.520e-4
-1.018, -3.519e-4
-1.017, -3.565e-4
-1.016, -3.621e-4
-1.015, -3.616e-4
-1.014, -3.591e-4
-1.013, -3.572e-4
-1.012, -3.618e-4
-1.011, -3.667e-4
-1.010, -3.660e-4
-1.009, -3.626e-4
-1.008, -3.613e-4
-1.007, -3.668e-4
-1.006, -3.729e-4
-1.005, -3.733e-4
-1.004, -3.705e-4
-1.003, -3.690e-4
-1.002, -3.732e-4
-1.001, -3.791e-4
-1.000, -2.621e-4
-1.001, -7.352e-5
-1.002, 3.906e-5
-1.003, 1.038e-4
-1.004, 1.441e-4
-1.005, 1.728e-4
-1.006, 1.976e-4
-1.007, 2.146e-4
-1.008, 2.216e-4
-1.009, 2.247e-4
-1.010, 2.320e-4
-1.011, 2.416e-4
-1.012, 2.484e-4
-1.013, 2.484e-4
-1.014, 2.473e-4
-1.015, 2.505e-4
-1.016, 2.564e-4
-1.017, 2.616e-4
-1.018, 2.606e-4
-1.019, 2.580e-4
-1.020, 2.602e-4
-1.021, 2.652e-4
-1.022, 2.694e-4
-1.023, 2.677e-4
-1.024, 2.649e-4
-1.025, 2.663e-4
-1.026, 2.710e-4
-1.027, 2.739e-4
-1.028, 2.723e-4
-1.029, 2.685e-4
-1.030, 2.696e-4
-1.031, 2.746e-4
-1.032, 2.772e-4
-1.033, 2.746e-4
-1.034, 2.708e-4
-1.035, 2.720e-4
-1.036, 2.769e-4
-1.037, 2.796e-4
-1.038, 2.772e-4
-1.039, 2.746e-4
-1.040, 2.739e-4
-1.041, 2.780e-4
-1.042, 2.806e-4
-1.043, 2.779e-4
-1.044, 2.743e-4
-1.045, 2.744e-4
-1.046, 2.801e-4
-1.047, 2.822e-4
-1.048, 2.785e-4
-1.049, 2.752e-4
-1.050, 2.761e-4
-1.051, 2.811e-4
-1.052, 2.848e-4
-1.053, 2.808e-4
-1.054, 2.765e-4
-1.055, 2.759e-4
-1.056, 2.800e-4
-1.057, 2.851e-4
-1.058, 2.819e-4
-1.059, 2.764e-4
-1.060, 2.764e-4
-1.061, 2.801e-4
-1.062, 2.838e-4
-1.063, 2.813e-4
-1.064, 2.767e-4
-1.065, 2.774e-4
-1.066, 2.822e-4
-1.067, 2.846e-4
-1.068, 2.816e-4
-1.069, 2.770e-4
-1.070, 2.769e-4
-1.071, 2.821e-4
-1.072, 2.838e-4
-1.073, 2.817e-4
-1.074, 2.776e-4
-1.075, 2.788e-4
-1.076, 2.839e-4
-1.077, 2.852e-4
-1.078, 2.817e-4
-1.079, 2.778e-4
-1.080, 2.774e-4
-1.081, 2.831e-4
-1.082, 2.863e-4
-1.083, 2.829e-4
-1.084, 2.782e-4
-1.085, 2.778e-4
-1.086, 2.818e-4
-1.087, 2.852e-4
-1.088, 2.826e-4
-1.089, 2.790e-4
-1.090, 2.796e-4
-1.091, 2.835e-4
-1.092, 2.876e-4
-1.093, 2.840e-4
-1.094, 2.793e-4
-1.095, 2.794e-4
-1.096, 2.827e-4
-1.097, 2.861e-4
-1.098, 2.839e-4
-1.099, 2.792e-4
-1.100, 2.806e-4
-1.101, 2.844e-4
-1.102, 2.867e-4
-1.103, 2.844e-4
-1.104, 2.800e-4
-1.105, 2.792e-4
-1.106, 2.844e-4
-1.107, 2.882e-4
-1.108, 2.901e-4
-1.109, 2.835e-4
-1.110, 2.835e-4
-1.111, 2.860e-4
-1.112, 2.879e-4
-1.113, 2.848e-4
-1.114, 2.807e-4
-1.115, 2.814e-4
-1.116, 2.871e-4
-1.117, 2.907e-4
-1.118, 2.872e-4
-1.119, 2.818e-4
-1.120, 2.817e-4
-1.121, 2.872e-4
-1.122, 2.899e-4
-1.123, 2.877e-4
-1.124, 2.839e-4
-1.125, 2.850e-4
-1.126, 2.893e-4
-1.127, 2.923e-4
-1.128, 2.883e-4
-1.129, 2.842e-4
-1.130, 2.849e-4
-1.131, 2.898e-4
-1.132, 2.936e-4
-1.133, 2.908e-4
-1.134, 2.867e-4
-1.135, 2.869e-4
-1.136, 2.913e-4
-1.137, 2.949e-4
-1.138, 2.918e-4
-1.139, 2.879e-4
-1.140, 2.891e-4
-1.141, 2.932e-4
-1.142, 2.969e-4
-1.143, 2.948e-4
-1.144, 2.902e-4
-1.145, 2.912e-4
-1.146, 2.958e-4
-1.147, 2.989e-4
-1.148, 2.972e-4
-1.149, 2.934e-4
-1.150, 2.933e-4
-1.151, 2.981e-4
-1.152, 3.025e-4
-1.153, 2.999e-4
-1.154, 2.957e-4
-1.155, 2.964e-4
-1.156, 3.018e-4
-1.157, 3.046e-4
-1.158, 3.032e-4
-1.159, 2.995e-4
-1.160, 3.001e-4
-1.161, 3.056e-4
-1.162, 3.092e-4
-1.163, 3.065e-4
-1.164, 3.026e-4
-1.165, 3.035e-4
-1.166, 3.091e-4
-1.167, 3.136e-4
-1.168, 3.112e-4
-1.169, 3.083e-4
-1.170, 3.090e-4
-1.171, 3.144e-4
-1.172, 3.187e-4
-1.173, 3.174e-4
-1.174, 3.137e-4
-1.175, 3.155e-4
-1.176, 3.204e-4
-1.177, 3.244e-4
-1.178, 3.234e-4
-1.179, 3.197e-4
-1.180, 3.234e-4
-1.181, 3.273e-4
-1.182, 3.312e-4
-1.183, 3.297e-4
-1.184, 3.266e-4
-1.185, 3.296e-4
-1.186, 3.351e-4
-1.187, 3.397e-4
-1.188, 3.395e-4
-1.189, 3.363e-4
-1.190, 3.378e-4
-1.191, 3.443e-4
-1.192, 3.506e-4
-1.193, 3.508e-4
-1.194, 3.485e-4
-1.195, 3.488e-4
-1.196, 3.547e-4
-1.197, 3.595e-4
-1.198, 3.598e-4
-1.199, 3.590e-4
-1.200, 3.617e-4
-1.201, 3.694e-4
-1.202, 3.752e-4
-1.203, 3.750e-4
-1.204, 3.735e-4
-1.205, 3.753e-4
-1.206, 3.837e-4
-1.207, 3.907e-4
-1.208, 3.916e-4
-1.209, 3.891e-4
-1.210, 3.922e-4
-1.211, 4.007e-4
-1.212, 4.091e-4
-1.213, 4.098e-4
-1.214, 4.099e-4
-1.215, 4.136e-4
-1.216, 4.219e-4
-1.217, 4.291e-4
-1.218, 4.315e-4
-1.219, 4.316e-4
-1.220, 4.370e-4
-1.221, 4.460e-4
-1.222, 4.553e-4
-1.223, 4.578e-4
-1.224, 4.573e-4
-1.225, 4.643e-4
-1.226, 4.733e-4
-1.227, 4.835e-4
-1.228, 4.880e-4
-1.229, 4.924e-4
-1.230, 4.978e-4
-1.231, 5.083e-4
-1.232, 5.180e-4
-1.233, 5.229e-4
-1.234, 5.244e-4
-1.235, 5.321e-4
-1.236, 5.449e-4
-1.237, 5.572e-4
-1.238, 5.630e-4
-1.239, 5.674e-4
-1.240, 5.755e-4
-1.241, 5.892e-4
-1.242, 6.016e-4
-1.243, 6.089e-4
-1.244, 6.135e-4
-1.245, 6.242e-4
-1.246, 6.395e-4
-1.247, 6.526e-4
-1.248, 6.613e-4
-1.249, 6.675e-4
-1.250, 6.791e-4
-1.251, 6.951e-4
-1.252, 7.117e-4
-1.253, 7.225e-4
-1.254, 7.308e-4
-1.255, 7.458e-4
-1.256, 7.620e-4
-1.257, 7.784e-4
-1.258, 7.918e-4
-1.259, 8.015e-4
-1.260, 8.162e-4
-1.261, 8.388e-4
-1.262, 8.607e-4
-1.263, 8.738e-4
-1.264, 8.843e-4
-1.265, 8.989e-4
-1.266, 9.225e-4
-1.267, 9.446e-4
-1.268, 9.620e-4
-1.269, 9.746e-4
-1.270, 9.942e-4
-1.271, 1.018e-3
-1.272, 1.041e-3
-1.273, 1.062e-3
-1.274, 1.077e-3
-1.275, 1.099e-3
-1.276, 1.128e-3
-1.277, 1.154e-3
-1.278, 1.177e-3
-1.279, 1.195e-3
-1.280, 1.219e-3
-1.281, 1.250e-3
-1.282, 1.277e-3
-1.283, 1.301e-3
-1.284, 1.323e-3
-1.285, 1.349e-3
-1.286, 1.381e-3
-1.287, 1.417e-3
-1.288, 1.445e-3
-1.289, 1.470e-3
-1.290, 1.498e-3
-1.291, 1.532e-3
-1.292, 1.562e-3
-1.293, 1.594e-3
-1.294, 1.627e-3
-1.295, 1.661e-3
-1.296, 1.697e-3
-1.297, 1.733e-3
-1.298, 1.766e-3
-1.299, 1.797e-3
-1.300, 1.838e-3
-1.301, 1.877e-3
-1.302, 1.916e-3
-1.303, 1.953e-3
-1.304, 1.989e-3
-1.305, 2.026e-3
-1.306, 2.073e-3
-1.307, 2.113e-3
-1.308, 2.153e-3
-1.309, 2.187e-3
-1.310, 2.232e-3
-1.311, 2.290e-3
-1.312, 2.335e-3
-1.313, 2.376e-3
-1.314, 2.412e-3
-1.315, 2.453e-3
-1.316, 2.506e-3
-1.317, 2.563e-3
-1.318, 2.608e-3
-1.319, 2.653e-3
-1.320, 2.702e-3
-1.321, 2.751e-3
-1.322, 2.800e-3
-1.323, 2.853e-3
-1.324, 2.900e-3
-1.325, 2.953e-3
-1.326, 3.011e-3
-1.327, 3.065e-3
-1.328, 3.113e-3
-1.329, 3.169e-3
-1.330, 3.217e-3
-1.331, 3.285e-3
-1.332, 3.357e-3
-1.333, 3.409e-3
-1.334, 3.452e-3
-1.335, 3.512e-3
-1.336, 3.551e-3
-1.337, 3.614e-3
-1.338, 3.675e-3
-1.339, 3.743e-3
-1.340, 3.805e-3
-1.341, 3.866e-3
-1.342, 3.934e-3
-1.343, 4.000e-3
-1.344, 4.059e-3
-1.345, 4.114e-3
-1.346, 4.165e-3
-1.347, 4.234e-3
-1.348, 4.304e-3
-1.349, 4.371e-3
-1.350, 4.432e-3
-1.351, 4.498e-3
-1.352, 4.560e-3
-1.353, 4.623e-3
-1.354, 4.693e-3
-1.355, 4.766e-3
-1.356, 4.837e-3
-1.357, 4.915e-3
-1.358, 4.983e-3
-1.359, 5.036e-3
-1.360, 5.096e-3
-1.361, 5.161e-3
-1.362, 5.245e-3
-1.363, 5.311e-3
-1.364, 5.377e-3
-1.365, 5.451e-3
-1.366, 5.525e-3
-1.367, 5.608e-3
-1.368, 5.677e-3
-1.369, 5.739e-3
-1.370, 5.799e-3
-1.371, 5.880e-3
-1.372, 5.971e-3
-1.373, 6.040e-3
-1.374, 6.110e-3
-1.375, 6.176e-3
-1.376, 6.239e-3
-1.377, 6.308e-3
-1.378, 6.385e-3
-1.379, 6.460e-3
-1.380, 6.539e-3
-1.381, 6.623e-3
-1.382, 6.692e-3
-1.383, 6.757e-3
-1.384, 6.839e-3
-1.385, 6.914e-3
-1.386, 6.991e-3
-1.387, 7.040e-3
-1.388, 7.115e-3
-1.389, 7.200e-3
-1.390, 7.288e-3
-1.391, 7.370e-3
-1.392, 7.434e-3
-1.393, 7.493e-3
-1.394, 7.561e-3
-1.395, 7.634e-3
-1.396, 7.722e-3
-1.397, 7.794e-3
-1.398, 7.888e-3
-1.399, 7.951e-3
-1.400, 7.929e-3
-1.399, 7.805e-3
-1.398, 7.688e-3
-1.397, 7.573e-3
-1.396, 7.464e-3
-1.395, 7.364e-3
-1.394, 7.277e-3
-1.393, 7.183e-3
-1.392, 7.092e-3
-1.391, 6.986e-3
-1.390, 6.890e-3
-1.389, 6.809e-3
-1.388, 6.726e-3
-1.387, 6.661e-3
-1.386, 6.602e-3
-1.385, 6.494e-3
-1.384, 6.404e-3
-1.383, 6.286e-3
-1.382, 6.228e-3
-1.381, 6.162e-3
-1.380, 6.057e-3
-1.379, 6.017e-3
-1.378, 5.942e-3
-1.377, 5.875e-3
-1.376, 5.810e-3
-1.375, 5.703e-3
-1.374, 5.611e-3
-1.373, 5.527e-3
-1.372, 5.444e-3
-1.371, 5.369e-3
-1.370, 5.284e-3
-1.369, 5.218e-3
-1.368, 5.148e-3
-1.367, 5.081e-3
-1.366, 5.019e-3
-1.365, 4.913e-3
-1.364, 4.838e-3
-1.363, 4.783e-3
-1.362, 4.702e-3
-1.361, 4.618e-3
-1.360, 4.542e-3
-1.359, 4.482e-3
-1.358, 4.399e-3
-1.357, 4.351e-3
-1.356, 4.267e-3
-1.355, 4.199e-3
-1.354, 4.133e-3
-1.353, 4.072e-3
-1.352, 4.023e-3
-1.351, 3.959e-3
-1.350, 3.879e-3
-1.349, 3.815e-3
-1.348, 3.749e-3
-1.347, 3.677e-3
-1.346, 3.627e-3
-1.345, 3.563e-3
-1.344, 3.520e-3
-1.343, 3.462e-3
-1.342, 3.396e-3
-1.341, 3.347e-3
-1.340, 3.280e-3
-1.339, 3.232e-3
-1.338, 3.175e-3
-1.337, 3.115e-3
-1.336, 3.051e-3
-1.335, 2.995e-3
-1.334, 2.953e-3
-1.333, 2.900e-3
-1.332, 2.839e-3
-1.331, 2.773e-3
-1.330, 2.717e-3
-1.329, 2.665e-3
-1.328, 2.624e-3
-1.327, 2.594e-3
-1.326, 2.518e-3
-1.325, 2.477e-3
-1.324, 2.403e-3
-1.323, 2.363e-3
-1.322, 2.311e-3
-1.321, 2.264e-3
-1.320, 2.221e-3
-1.319, 2.185e-3
-1.318, 2.136e-3
-1.317, 2.084e-3
-1.316, 2.029e-3
-1.315, 1.973e-3
-1.314, 1.932e-3
-1.313, 1.897e-3
-1.312, 1.857e-3
-1.311, 1.810e-3
-1.310, 1.766e-3
-1.309, 1.725e-3
-1.308, 1.683e-3
-1.307, 1.634e-3
-1.306, 1.590e-3
-1.305, 1.552e-3
-1.304, 1.530e-3
-1.303, 1.481e-3
-1.302, 1.434e-3
-1.301, 1.394e-3
-1.300, 1.358e-3
-1.299, 1.329e-3
-1.298, 1.294e-3
-1.297, 1.254e-3
-1.296, 1.215e-3
-1.295, 1.180e-3
-1.294, 1.148e-3
-1.293, 1.117e-3
-1.292, 1.084e-3
-1.291, 1.054e-3
-1.290, 1.018e-3
-1.289, 9.890e-4
-1.288, 9.600e-4
-1.287, 9.329e-4
-1.286, 8.954e-4
-1.285, 8.645e-4
-1.284, 8.347e-4
-1.283, 8.098e-4
-1.282, 7.800e-4
-1.281, 7.490e-4
-1.280, 7.182e-4
-1.279, 6.977e-4
-1.278, 6.761e-4
-1.277, 6.499e-4
-1.276, 6.186e-4
-1.275, 5.937e-4
-1.274, 5.727e-4
-1.273, 5.599e-4
-1.272, 5.311e-4
-1.271, 5.040e-4
-1.270, 4.785e-4
-1.269, 4.602e-4
-1.268, 4.429e-4
-1.267, 4.210e-4
-1.266, 3.954e-4
-1.265, 3.742e-4
-1.264, 3.575e-4
-1.263, 3.407e-4
-1.262, 3.217e-4
-1.261, 2.994e-4
-1.260, 2.809e-4
-1.259, 2.661e-4
-1.258, 2.529e-4
-1.257, 2.347e-4
-1.256, 2.148e-4
-1.255, 1.966e-4
-1.254, 1.835e-4
-1.253, 1.720e-4
-1.252, 1.563e-4
-1.251, 1.390e-4
-1.250, 1.232e-4
-1.249, 1.119e-4
-1.248, 1.033e-4
-1.247, 8.926e-5
-1.246, 7.223e-5
-1.245, 5.867e-5
-1.244, 4.933e-5
-1.243, 4.090e-5
-1.242, 2.873e-5
-1.241, 1.378e-5
-1.240, 2.089e-6
-1.239, -5.525e-6
-1.238, -1.268e-5
-1.237, -2.317e-5
-1.236, -3.683e-5
-1.235, -4.766e-5
-1.234, -5.322e-5
-1.233, -5.893e-5
-1.232, -6.768e-5
-1.231, -7.998e-5
-1.230, -9.068e-5
-1.229, -9.792e-5
-1.228, -1.021e-4
-1.227, -1.094e-4
-1.226, -1.213e-4
-1.225, -1.286e-4
-1.224, -1.316e-4
-1.223, -1.343e-4
-1.222, -1.418e-4
-1.221, -1.520e-4
-1.220, -1.597e-4
-1.219, -1.625e-4
-1.218, -1.640e-4
-1.217, -1.705e-4
-1.216, -1.787e-4
-1.215, -1.857e-4
-1.214, -1.878e-4
-1.213, -1.890e-4
-1.212, -1.944e-4
-1.211, -2.033e-4
-1.210, -2.088e-4
-1.209, -2.100e-4
-1.208, -2.102e-4
-1.207, -2.146e-4
-1.206, -2.230e-4
-1.205, -2.272e-4
-1.204, -2.282e-4
-1.203, -2.284e-4
-1.202, -2.320e-4
-1.201, -2.396e-4
-1.200, -2.436e-4
-1.199, -2.437e-4
-1.198, -2.436e-4
-1.197, -2.458e-4
-1.196, -2.530e-4
-1.195, -2.564e-4
-1.194, -2.555e-4
-1.193, -2.545e-4
-1.192, -2.579e-4
-1.191, -2.648e-4
-1.190, -2.693e-4
-1.189, -2.665e-4
-1.188, -2.650e-4
-1.187, -2.685e-4
-1.186, -2.747e-4
-1.185, -2.779e-4
-1.184, -2.750e-4
-1.183, -2.735e-4
-1.182, -2.760e-4
-1.181, -2.818e-4
-1.180, -2.861e-4
-1.179, -2.836e-4
-1.178, -2.814e-4
-1.177, -2.838e-4
-1.176, -2.881e-4
-1.175, -2.910e-4
-1.174, -2.894e-4
-1.173, -2.866e-4
-1.172, -2.887e-4
-1.171, -2.936e-4
-1.170, -2.967e-4
-1.169, -2.951e-4
-1.168, -2.911e-4
-1.167, -2.936e-4
-1.166, -2.977e-4
-1.165, -3.001e-4
-1.164, -2.977e-4
-1.163, -2.953e-4
-1.162, -2.972e-4
-1.161, -3.087e-4
-1.160, -3.145e-4
-1.159, -3.073e-4
-1.158, -3.030e-4
-1.157, -3.022e-4
-1.156, -3.063e-4
-1.155, -3.079e-4
-1.154, -3.052e-4
-1.153, -3.025e-4
-1.152, -3.031e-4
-1.151, -3.076e-4
-1.150, -3.099e-4
-1.149, -3.071e-4
-1.148, -3.059e-4
-1.147, -3.061e-4
-1.146, -3.102e-4
-1.145, -3.145e-4
-1.144, -3.089e-4
-1.143, -3.037e-4
-1.142, -3.062e-4
-1.141, -3.112e-4
-1.140, -3.139e-4
-1.139, -3.114e-4
-1.138, -3.082e-4
-1.137, -3.092e-4
-1.136, -3.125e-4
-1.135, -3.153e-4
-1.134, -3.122e-4
-1.133, -3.084e-4
-1.132, -3.092e-4
-1.131, -3.135e-4
-1.130, -3.162e-4
-1.129, -3.136e-4
-1.128, -3.105e-4
-1.127, -3.122e-4
-1.126, -3.154e-4
-1.125, -3.165e-4
-1.124, -3.143e-4
-1.123, -3.118e-4
-1.122, -3.129e-4
-1.121, -3.172e-4
-1.120, -3.174e-4
-1.119, -3.149e-4
-1.118, -3.122e-4
-1.117, -3.123e-4
-1.116, -3.173e-4
-1.115, -3.185e-4
-1.114, -3.161e-4
-1.113, -3.131e-4
-1.112, -3.133e-4
-1.111, -3.191e-4
-1.110, -3.211e-4
-1.109, -3.173e-4
-1.108, -3.149e-4
-1.107, -3.143e-4
-1.106, -3.203e-4
-1.105, -3.216e-4
-1.104, -3.209e-4
-1.103, -3.282e-4
-1.102, -3.229e-4
-1.101, -3.248e-4
-1.100, -3.257e-4
-1.099, -3.221e-4
-1.098, -3.176e-4
-1.097, -3.176e-4
-1.096, -3.220e-4
-1.095, -3.249e-4
-1.094, -3.218e-4
-1.093, -3.181e-4
-1.092, -3.196e-4
-1.091, -3.215e-4
-1.090, -3.245e-4
-1.089, -3.222e-4
-1.088, -3.192e-4
-1.087, -3.200e-4
-1.086, -3.244e-4
-1.085, -3.252e-4
-1.084, -3.229e-4
-1.083, -3.190e-4
-1.082, -3.211e-4
-1.081, -3.249e-4
-1.080, -3.266e-4
-1.079, -3.243e-4
-1.078, -3.218e-4
-1.077, -3.209e-4
-1.076, -3.269e-4
-1.075, -3.288e-4
-1.074, -3.264e-4
-1.073, -3.228e-4
-1.072, -3.233e-4
-1.071, -3.277e-4
-1.070, -3.307e-4
-1.069, -3.268e-4
-1.068, -3.239e-4
-1.067, -3.256e-4
-1.066, -3.330e-4
-1.065, -3.358e-4
-1.064, -3.315e-4
-1.063, -3.267e-4
-1.062, -3.266e-4
-1.061, -3.325e-4
-1.060, -3.358e-4
-1.059, -3.326e-4
-1.058, -3.284e-4
-1.057, -3.287e-4
-1.056, -3.324e-4
-1.055, -3.357e-4
-1.054, -3.342e-4
-1.053, -3.307e-4
-1.052, -3.345e-4
-1.051, -3.342e-4
-1.050, -3.376e-4
-1.049, -3.351e-4
-1.048, -3.324e-4
-1.047, -3.324e-4
-1.046, -3.383e-4
-1.045, -3.393e-4
-1.044, -3.386e-4
-1.043, -3.342e-4
-1.042, -3.355e-4
-1.041, -3.404e-4
-1.040, -3.425e-4
-1.039, -3.408e-4
-1.038, -3.373e-4
-1.037, -3.381e-4
-1.036, -3.431e-4
-1.035, -3.448e-4
-1.034, -3.440e-4
-1.033, -3.411e-4
-1.032, -3.415e-4
-1.031, -3.477e-4
-1.030, -3.492e-4
-1.029, -3.459e-4
-1.028, -3.430e-4
-1.027, -3.449e-4
-1.026, -3.498e-4
-1.025, -3.535e-4
-1.024, -3.522e-4
-1.023, -3.494e-4
-1.022, -3.489e-4
-1.021, -3.535e-4
-1.020, -3.576e-4
-1.019, -3.554e-4
-1.018, -3.533e-4
-1.017, -3.552e-4
-1.016, -3.590e-4
-1.015, -3.636e-4
-1.014, -3.610e-4
-1.013, -3.581e-4
-1.012, -3.589e-4
-1.011, -3.646e-4
-1.010, -3.677e-4
-1.009, -3.689e-4
-1.008, -3.618e-4
-1.007, -3.701e-4
-1.006, -3.723e-4
-1.005, -3.749e-4
-1.004, -3.757e-4
-1.003, -3.726e-4
-1.002, -3.724e-4
-1.001, -3.856e-4
-1.000, -2.806e-4
-1.001, -9.617e-5
-1.002, 1.861e-5
-1.003, 8.945e-5
-1.004, 1.333e-4
-1.005, 1.620e-4
-1.006, 1.864e-4
-1.007, 2.071e-4
-1.008, 2.194e-4
-1.009, 2.242e-4
-1.010, 2.293e-4
-1.011, 2.379e-4
-1.012, 2.466e-4
-1.013, 2.490e-4
-1.014, 2.486e-4
-1.015, 2.496e-4
-1.016, 2.545e-4
-1.017, 2.616e-4
-1.018, 2.634e-4
-1.019, 2.611e-4
-1.020, 2.605e-4
-1.021, 2.638e-4
-1.022, 2.695e-4
-1.023, 2.718e-4
-1.024, 2.683e-4
-1.025, 2.663e-4
-1.026, 2.694e-4
-1.027, 2.753e-4
-1.028, 2.761e-4
-1.029, 2.733e-4
-1.030, 2.709e-4
-1.031, 2.730e-4
-1.032, 2.776e-4
-1.033, 2.782e-4
-1.034, 2.747e-4
-1.035, 2.734e-4
-1.036, 2.758e-4
-1.037, 2.816e-4
-1.038, 2.803e-4
-1.039, 2.766e-4
-1.040, 2.753e-4
-1.041, 2.764e-4
-1.042, 2.817e-4
-1.043, 2.829e-4
-1.044, 2.791e-4
-1.045, 2.770e-4
-1.046, 2.789e-4
-1.047, 2.830e-4
-1.048, 2.820e-4
-1.049, 2.805e-4
-1.050, 2.764e-4
-1.051, 2.799e-4
-1.052, 2.839e-4
-1.053, 2.841e-4
-1.054, 2.793e-4
-1.055, 2.779e-4
-1.056, 2.797e-4
-1.057, 2.850e-4
-1.058, 2.853e-4
-1.059, 2.809e-4
-1.060, 2.783e-4
-1.061, 2.799e-4
-1.062, 2.846e-4
-1.063, 2.843e-4
-1.064, 2.806e-4
-1.065, 2.786e-4
-1.066, 2.813e-4
-1.067, 2.854e-4
-1.068, 2.854e-4
-1.069, 2.806e-4
-1.070, 2.775e-4
-1.071, 2.822e-4
-1.072, 2.855e-4
-1.073, 2.853e-4
-1.074, 2.814e-4
-1.075, 2.795e-4
-1.076, 2.824e-4
-1.077, 2.864e-4
-1.078, 2.860e-4
-1.079, 2.828e-4
-1.080, 2.792e-4
-1.081, 2.809e-4
-1.082, 2.853e-4
-1.083, 2.857e-4
-1.084, 2.808e-4
-1.085, 2.788e-4
-1.086, 2.824e-4
-1.087, 2.866e-4
-1.088, 2.869e-4
-1.089, 2.817e-4
-1.090, 2.794e-4
-1.091, 2.806e-4
-1.092, 2.861e-4
-1.093, 2.857e-4
-1.094, 2.838e-4
-1.095, 2.807e-4
-1.096, 2.820e-4
-1.097, 2.868e-4
-1.098, 2.858e-4
-1.099, 2.830e-4
-1.100, 2.797e-4
-1.101, 2.821e-4
-1.102, 2.880e-4
-1.103, 2.872e-4
-1.104, 2.839e-4
-1.105, 2.821e-4
-1.106, 2.840e-4
-1.107, 2.863e-4
-1.108, 2.868e-4
-1.109, 2.820e-4
-1.110, 2.805e-4
-1.111, 2.835e-4
-1.112, 2.878e-4
-1.113, 2.892e-4
-1.114, 2.844e-4
-1.115, 2.819e-4
-1.116, 2.839e-4
-1.117, 2.880e-4
-1.118, 2.891e-4
-1.119, 2.849e-4
-1.120, 2.846e-4
-1.121, 2.846e-4
-1.122, 2.903e-4
-1.123, 2.880e-4
-1.124, 2.874e-4
-1.125, 2.829e-4
-1.126, 2.868e-4
-1.127, 2.910e-4
-1.128, 2.912e-4
-1.129, 2.872e-4
-1.130, 2.851e-4
-1.131, 2.860e-4
-1.132, 2.921e-4
-1.133, 2.916e-4
-1.134, 2.891e-4
-1.135, 2.871e-4
-1.136, 2.888e-4
-1.137, 2.929e-4
-1.138, 2.936e-4
-1.139, 2.900e-4
-1.140, 2.886e-4
-1.141, 2.900e-4
-1.142, 2.944e-4
-1.143, 2.955e-4
-1.144, 2.924e-4
-1.145, 2.914e-4
-1.146, 2.926e-4
-1.147, 2.970e-4
-1.148, 2.975e-4
-1.149, 2.936e-4
-1.150, 2.924e-4
-1.151, 2.948e-4
-1.152, 2.994e-4
-1.153, 3.015e-4
-1.154, 2.976e-4
-1.155, 2.954e-4
-1.156, 2.978e-4
-1.157, 3.021e-4
-1.158, 3.040e-4
-1.159, 3.011e-4
-1.160, 2.981e-4
-1.161, 3.011e-4
-1.162, 3.057e-4
-1.163, 3.072e-4
-1.164, 3.048e-4
-1.165, 3.033e-4
-1.166, 3.072e-4
-1.167, 3.082e-4
-1.168, 3.108e-4
-1.169, 3.076e-4
-1.170, 3.079e-4
-1.171, 3.116e-4
-1.172, 3.161e-4
-1.173, 3.158e-4
-1.174, 3.128e-4
-1.175, 3.112e-4
-1.176, 3.138e-4
-1.177, 3.209e-4
-1.178, 3.241e-4
-1.179, 3.209e-4
-1.180, 3.189e-4
-1.181, 3.223e-4
-1.182, 3.364e-4
-1.183, 3.357e-4
-1.184, 3.291e-4
-1.185, 3.274e-4
-1.186, 3.284e-4
-1.187, 3.368e-4
-1.188, 3.387e-4
-1.189, 3.367e-4
-1.190, 3.337e-4
-1.191, 3.378e-4
-1.192, 3.450e-4
-1.193, 3.473e-4
-1.194, 3.464e-4
-1.195, 3.443e-4
-1.196, 3.496e-4
-1.197, 3.527e-4
-1.198, 3.593e-4
-1.199, 3.574e-4
-1.200, 3.573e-4
-1.201, 3.611e-4
-1.202, 3.707e-4
-1.203, 3.701e-4
-1.204, 3.692e-4
-1.205, 3.712e-4
-1.206, 3.760e-4
-1.207, 3.845e-4
-1.208, 3.874e-4
-1.209, 3.858e-4
-1.210, 3.852e-4
-1.211, 3.913e-4
-1.212, 3.993e-4
-1.213, 4.044e-4
-1.214, 4.056e-4
-1.215, 4.071e-4
-1.216, 4.126e-4
-1.217, 4.223e-4
-1.218, 4.263e-4
-1.219, 4.263e-4
-1.220, 4.282e-4
-1.221, 4.340e-4
-1.222, 4.433e-4
-1.223, 4.515e-4
-1.224, 4.521e-4
-1.225, 4.551e-4
-1.226, 4.621e-4
-1.227, 4.733e-4
-1.228, 4.792e-4
-1.229, 4.851e-4
-1.230, 4.845e-4
-1.231, 4.935e-4
-1.232, 5.065e-4
-1.233, 5.132e-4
-1.234, 5.185e-4
-1.235, 5.179e-4
-1.236, 5.307e-4
-1.237, 5.399e-4
-1.238, 5.544e-4
-1.239, 5.588e-4
-1.240, 5.627e-4
-1.241, 5.665e-4
-1.242, 5.804e-4
-1.243, 5.904e-4
-1.244, 5.995e-4
-1.245, 6.095e-4
-1.246, 6.224e-4
-1.247, 6.331e-4
-1.248, 6.452e-4
-1.249, 6.579e-4
-1.250, 6.661e-4
-1.251, 6.730e-4
-1.252, 6.855e-4
-1.253, 7.013e-4
-1.254, 7.137e-4
-1.255, 7.226e-4
-1.256, 7.406e-4
-1.257, 7.552e-4
-1.258, 7.699e-4
-1.259, 7.817e-4
-1.260, 7.917e-4
-1.261, 8.074e-4
-1.262, 8.299e-4
-1.263, 8.464e-4
-1.264, 8.581e-4
-1.265, 8.720e-4
-1.266, 8.918e-4
-1.267, 9.146e-4
-1.268, 9.349e-4
-1.269, 9.451e-4
-1.270, 9.632e-4
-1.271, 9.818e-4
-1.272, 1.008e-3
-1.273, 1.028e-3
-1.274, 1.046e-3
-1.275, 1.062e-3
-1.276, 1.087e-3
-1.277, 1.113e-3
-1.278, 1.137e-3
-1.279, 1.156e-3
-1.280, 1.181e-3
-1.281, 1.205e-3
-1.282, 1.228e-3
-1.283, 1.259e-3
-1.284, 1.284e-3
-1.285, 1.297e-3
-1.286, 1.330e-3
-1.287, 1.358e-3
-1.288, 1.393e-3
-1.289, 1.419e-3
-1.290, 1.441e-3
-1.291, 1.466e-3
-1.292, 1.512e-3
-1.293, 1.547e-3
-1.294, 1.577e-3
-1.295, 1.605e-3
-1.296, 1.633e-3
-1.297, 1.665e-3
-1.298, 1.702e-3
-1.299, 1.725e-3
-1.300, 1.763e-3
-1.301, 1.798e-3
-1.302, 1.846e-3
-1.303, 1.884e-3
-1.304, 1.914e-3
-1.305, 1.951e-3
-1.306, 1.991e-3
-1.307, 2.027e-3
-1.308, 2.071e-3
-1.309, 2.109e-3
-1.310, 2.146e-3
-1.311, 2.185e-3
-1.312, 2.234e-3
-1.313, 2.276e-3
-1.314, 2.322e-3
-1.315, 2.359e-3
-1.316, 2.405e-3
-1.317, 2.460e-3
-1.318, 2.514e-3
-1.319, 2.548e-3
-1.320, 2.597e-3
-1.321, 2.632e-3
-1.322, 2.684e-3
-1.323, 2.736e-3
-1.324, 2.785e-3
-1.325, 2.829e-3
-1.326, 2.887e-3
-1.327, 2.934e-3
-1.328, 2.993e-3
-1.329, 3.047e-3
-1.330, 3.084e-3
-1.331, 3.128e-3
-1.332, 3.197e-3
-1.333, 3.249e-3
-1.334, 3.298e-3
-1.335, 3.359e-3
-1.336, 3.418e-3
-1.337, 3.479e-3
-1.338, 3.534e-3
-1.339, 3.589e-3
-1.340, 3.632e-3
-1.341, 3.697e-3
-1.342, 3.750e-3
-1.343, 3.817e-3
-1.344, 3.869e-3
-1.345, 3.933e-3
-1.346, 3.998e-3
-1.347, 4.072e-3
-1.348, 4.126e-3
-1.349, 4.166e-3
-1.350, 4.235e-3
-1.351, 4.299e-3
-1.352, 4.373e-3
-1.353, 4.437e-3
-1.354, 4.504e-3
-1.355, 4.531e-3
-1.356, 4.618e-3
-1.357, 4.675e-3
-1.358, 4.764e-3
-1.359, 4.809e-3
-1.360, 4.880e-3
-1.361, 4.937e-3
-1.362, 5.007e-3
-1.363, 5.082e-3
-1.364, 5.154e-3
-1.365, 5.204e-3
-1.366, 5.291e-3
-1.367, 5.347e-3
-1.368, 5.414e-3
-1.369, 5.487e-3
-1.370, 5.532e-3
-1.371, 5.628e-3
-1.372, 5.690e-3
-1.373, 5.766e-3
-1.374, 5.831e-3
-1.375, 5.861e-3
-1.376, 5.968e-3
-1.377, 6.029e-3
-1.378, 6.197e-3
-1.379, 6.244e-3
-1.380, 6.286e-3
-1.381, 6.351e-3
-1.382, 6.383e-3
-1.383, 6.436e-3
-1.384, 6.497e-3
-1.385, 6.584e-3
-1.386, 6.690e-3
-1.387, 6.768e-3
-1.388, 6.826e-3
-1.389, 6.896e-3
-1.390, 6.944e-3
-1.391, 7.043e-3
-1.392, 7.096e-3
-1.393, 7.201e-3
-1.394, 7.238e-3
-1.395, 7.310e-3
-1.396, 7.399e-3
-1.397, 7.456e-3
-1.398, 7.523e-3
-1.399, 7.605e-3
-1.400, 7.578e-3
-1.399, 7.436e-3
-1.398, 7.332e-3
-1.397, 7.237e-3
-1.396, 7.182e-3
-1.395, 7.072e-3
-1.394, 6.972e-3
-1.393, 6.892e-3
-1.392, 6.796e-3
-1.391, 6.716e-3
-1.390, 6.623e-3
-1.389, 6.538e-3
-1.388, 6.500e-3
-1.387, 6.398e-3
-1.386, 6.329e-3
-1.385, 6.240e-3
-1.384, 6.160e-3
-1.383, 6.088e-3
-1.382, 5.986e-3
-1.381, 5.914e-3
-1.380, 5.872e-3
-1.379, 5.796e-3
-1.378, 5.702e-3
-1.377, 5.622e-3
-1.376, 5.569e-3
-1.375, 5.476e-3
-1.374, 5.430e-3
-1.373, 5.341e-3
-1.372, 5.253e-3
-1.371, 5.167e-3
-1.370, 5.097e-3
-1.369, 5.051e-3
-1.368, 4.956e-3
-1.367, 4.881e-3
-1.366, 4.800e-3
-1.365, 4.729e-3
-1.364, 4.658e-3
-1.363, 4.617e-3
-1.362, 4.524e-3
-1.361, 4.466e-3
-1.360, 4.389e-3
-1.359, 4.325e-3
-1.358, 4.254e-3
-1.357, 4.213e-3
-1.356, 4.129e-3
-1.355, 4.066e-3
-1.354, 4.017e-3
-1.353, 3.946e-3
-1.352, 3.878e-3
-1.351, 3.805e-3
-1.350, 3.733e-3
-1.349, 3.671e-3
-1.348, 3.620e-3
-1.347, 3.574e-3
-1.346, 3.514e-3
-1.345, 3.448e-3
-1.344, 3.398e-3
-1.343, 3.323e-3
-1.342, 3.269e-3
-1.341, 3.210e-3
-1.340, 3.161e-3
-1.339, 3.104e-3
-1.338, 3.046e-3
-1.337, 2.983e-3
-1.336, 2.959e-3
-1.335, 2.899e-3
-1.334, 2.845e-3
-1.333, 2.804e-3
-1.332, 2.732e-3
-1.331, 2.680e-3
-1.330, 2.637e-3
-1.329, 2.584e-3
-1.328, 2.542e-3
-1.327, 2.478e-3
-1.326, 2.424e-3
-1.325, 2.365e-3
-1.324, 2.325e-3
-1.323, 2.279e-3
-1.322, 2.235e-3
-1.321, 2.184e-3
-1.320, 2.141e-3
-1.319, 2.091e-3
-1.318, 2.043e-3
-1.317, 2.000e-3
-1.316, 1.988e-3
-1.315, 1.936e-3
-1.314, 1.899e-3
-1.313, 1.859e-3
-1.312, 1.822e-3
-1.311, 1.780e-3
-1.310, 1.731e-3
-1.309, 1.696e-3
-1.308, 1.655e-3
-1.307, 1.617e-3
-1.306, 1.574e-3
-1.305, 1.538e-3
-1.304, 1.498e-3
-1.303, 1.467e-3
-1.302, 1.435e-3
-1.301, 1.383e-3
-1.300, 1.350e-3
-1.299, 1.314e-3
-1.298, 1.286e-3
-1.297, 1.246e-3
-1.296, 1.205e-3
-1.295, 1.166e-3
-1.294, 1.130e-3
-1.293, 1.103e-3
-1.292, 1.067e-3
-1.291, 1.041e-3
-1.290, 1.006e-3
-1.289, 9.728e-4
-1.288, 9.448e-4
-1.287, 9.152e-4
-1.286, 8.820e-4
-1.285, 8.482e-4
-1.284, 8.184e-4
-1.283, 7.967e-4
-1.282, 7.703e-4
-1.281, 7.384e-4
-1.280, 7.079e-4
-1.279, 6.820e-4
-1.278, 6.602e-4
-1.277, 6.371e-4
-1.276, 6.101e-4
-1.275, 5.838e-4
-1.274, 5.594e-4
-1.273, 5.392e-4
-1.272, 5.179e-4
-1.271, 4.928e-4
-1.270, 4.682e-4
-1.269, 4.488e-4
-1.268, 4.296e-4
-1.267, 4.138e-4
-1.266, 3.876e-4
-1.265, 3.656e-4
-1.264, 3.450e-4
-1.263, 3.303e-4
-1.262, 3.139e-4
-1.261, 2.965e-4
-1.260, 2.740e-4
-1.259, 2.571e-4
-1.258, 2.434e-4
-1.257, 2.294e-4
-1.256, 2.120e-4
-1.255, 1.928e-4
-1.254, 1.753e-4
-1.253, 1.642e-4
-1.252, 1.519e-4
-1.251, 1.362e-4
-1.250, 1.184e-4
-1.249, 1.051e-4
-1.248, 9.619e-5
-1.247, 8.543e-5
-1.246, 7.087e-5
-1.245, 5.561e-5
-1.244, 4.329e-5
-1.243, 3.574e-5
-1.242, 2.650e-5
-1.241, 1.368e-5
-1.240, -3.041e-7
-1.239, -1.062e-5
-1.238, -1.746e-5
-1.237, -2.440e-5
-1.236, -3.594e-5
-1.235, -4.915e-5
-1.234, -5.841e-5
-1.233, -6.454e-5
-1.232, -6.898e-5
-1.231, -7.991e-5
-1.230, -9.084e-5
-1.229, -1.008e-4
-1.228, -1.056e-4
-1.227, -1.090e-4
-1.226, -1.175e-4
-1.225, -1.282e-4
-1.224, -1.335e-4
-1.223, -1.361e-4
-1.222, -1.406e-4
-1.221, -1.487e-4
-1.220, -1.597e-4
-1.219, -1.660e-4
-1.218, -1.685e-4
-1.217, -1.695e-4
-1.216, -1.763e-4
-1.215, -1.844e-4
-1.214, -1.899e-4
-1.213, -1.906e-4
-1.212, -1.930e-4
-1.211, -1.983e-4
-1.210, -2.081e-4
-1.209, -2.121e-4
-1.208, -2.121e-4
-1.207, -2.132e-4
-1.206, -2.180e-4
-1.205, -2.241e-4
-1.204, -2.267e-4
-1.203, -2.271e-4
-1.202, -2.307e-4
-1.201, -2.331e-4
-1.200, -2.427e-4
-1.199, -2.457e-4
-1.198, -2.450e-4
-1.197, -2.425e-4
-1.196, -2.493e-4
-1.195, -2.579e-4
-1.194, -2.557e-4
-1.193, -2.540e-4
-1.192, -2.533e-4
-1.191, -2.581e-4
-1.190, -2.660e-4
-1.189, -2.695e-4
-1.188, -2.688e-4
-1.187, -2.658e-4
-1.186, -2.695e-4
-1.185, -2.731e-4
-1.184, -2.756e-4
-1.183, -2.738e-4
-1.182, -2.725e-4
-1.181, -2.753e-4
-1.180, -2.810e-4
-1.179, -2.829e-4
-1.178, -2.812e-4
-1.177, -2.808e-4
-1.176, -2.838e-4
-1.175, -2.886e-4
-1.174, -2.890e-4
-1.173, -2.862e-4
-1.172, -2.868e-4
-1.171, -2.879e-4
-1.170, -2.959e-4
-1.169, -2.983e-4
-1.168, -2.932e-4
-1.167, -2.893e-4
-1.166, -2.916e-4
-1.165, -2.965e-4
-1.164, -3.058e-4
-1.163, -3.017e-4
-1.162, -2.983e-4
-1.161, -2.994e-4
-1.160, -3.029e-4
-1.159, -3.031e-4
-1.158, -3.009e-4
-1.157, -2.985e-4
-1.156, -3.002e-4
-1.155, -3.036e-4
-1.154, -3.036e-4
-1.153, -3.027e-4
-1.152, -3.005e-4
-1.151, -3.019e-4
-1.150, -3.062e-4
-1.149, -3.067e-4
-1.148, -3.027e-4
-1.147, -3.034e-4
-1.146, -3.079e-4
-1.145, -3.086e-4
-1.144, -3.091e-4
-1.143, -3.045e-4
-1.142, -3.030e-4
-1.141, -3.047e-4
-1.140, -3.104e-4
-1.139, -3.110e-4
-1.138, -3.074e-4
-1.137, -3.055e-4
-1.136, -3.063e-4
-1.135, -3.107e-4
-1.134, -3.122e-4
-1.133, -3.100e-4
-1.132, -3.051e-4
-1.131, -3.098e-4
-1.130, -3.132e-4
-1.129, -3.121e-4
-1.128, -3.100e-4
-1.127, -3.069e-4
-1.126, -3.086e-4
-1.125, -3.128e-4
-1.124, -3.147e-4
-1.123, -3.119e-4
-1.122, -3.103e-4
-1.121, -3.106e-4
-1.120, -3.150e-4
-1.119, -3.158e-4
-1.118, -3.115e-4
-1.117, -3.094e-4
-1.116, -3.111e-4
-1.115, -3.133e-4
-1.114, -3.206e-4
-1.113, -3.139e-4
-1.112, -3.111e-4
-1.111, -3.124e-4
-1.110, -3.173e-4
-1.109, -3.168e-4
-1.108, -3.150e-4
-1.107, -3.100e-4
-1.106, -3.135e-4
-1.105, -3.185e-4
-1.104, -3.175e-4
-1.103, -3.161e-4
-1.102, -3.134e-4
-1.101, -3.167e-4
-1.100, -3.193e-4
-1.099, -3.190e-4
-1.098, -3.237e-4
-1.097, -3.286e-4
-1.096, -3.201e-4
-1.095, -3.239e-4
-1.094, -3.283e-4
-1.093, -3.203e-4
-1.092, -3.162e-4
-1.091, -3.217e-4
-1.090, -3.222e-4
-1.089, -3.231e-4
-1.088, -3.195e-4
-1.087, -3.178e-4
-1.086, -3.193e-4
-1.085, -3.231e-4
-1.084, -3.248e-4
-1.083, -3.188e-4
-1.082, -3.175e-4
-1.081, -3.216e-4
-1.080, -3.242e-4
-1.079, -3.238e-4
-1.078, -3.224e-4
-1.077, -3.202e-4
-1.076, -3.209e-4
-1.075, -3.263e-4
-1.074, -3.270e-4
-1.073, -3.236e-4
-1.072, -3.189e-4
-1.071, -3.217e-4
-1.070, -3.277e-4
-1.069, -3.272e-4
-1.068, -3.253e-4
-1.067, -3.223e-4
-1.066, -3.232e-4
-1.065, -3.276e-4
-1.064, -3.324e-4
-1.063, -3.246e-4
-1.062, -3.223e-4
-1.061, -3.250e-4
-1.060, -3.299e-4
-1.059, -3.335e-4
-1.058, -3.299e-4
-1.057, -3.257e-4
-1.056, -3.259e-4
-1.055, -3.294e-4
-1.054, -3.375e-4
-1.053, -3.261e-4
-1.052, -3.259e-4
-1.051, -3.299e-4
-1.050, -3.366e-4
-1.049, -3.376e-4
-1.048, -3.350e-4
-1.047, -3.290e-4
-1.046, -3.310e-4
-1.045, -3.363e-4
-1.044, -3.392e-4
-1.043, -3.341e-4
-1.042, -3.320e-4
-1.041, -3.402e-4
-1.040, -3.424e-4
-1.039, -3.422e-4
-1.038, -3.391e-4
-1.037, -3.348e-4
-1.036, -3.374e-4
-1.035, -3.435e-4
-1.034, -3.453e-4
-1.033, -3.438e-4
-1.032, -3.425e-4
-1.031, -3.420e-4
-1.030, -3.457e-4
-1.029, -3.471e-4
-1.028, -3.445e-4
-1.027, -3.442e-4
-1.026, -3.457e-4
-1.025, -3.496e-4
-1.024, -3.538e-4
-1.023, -3.514e-4
-1.022, -3.494e-4
-1.021, -3.511e-4
-1.020, -3.567e-4
-1.019, -3.592e-4
-1.018, -3.555e-4
-1.017, -3.553e-4
-1.016, -3.534e-4
-1.015, -3.604e-4
-1.014, -3.640e-4
-1.013, -3.600e-4
-1.012, -3.584e-4
-1.011, -3.641e-4
-1.010, -3.673e-4
-1.009, -3.702e-4
-1.008, -3.687e-4
-1.007, -3.665e-4
-1.006, -3.696e-4
-1.005, -3.755e-4
-1.004, -3.755e-4
-1.003, -3.784e-4
-1.002, -3.771e-4
-1.001, -3.795e-4
