Potential V vs RHE, Current mA cm-2
0.013299999999999867,-0.48199213986401795
0.012299999999999978,-2.662486666345999
0.011299999999999866,-4.712403339850438
0.010299999999999976,-6.632166573767292
0.009299999999999864,-8.4203616567967
0.008299999999999974,-10.120844639234473
0.007299999999999862,-11.691174182084664
0.006299999999999972,-13.13135028534727
0.00529999999999986,-14.486643710617974
0.0042999999999999705,-15.91550212348166
0.0032999999999998586,-17.188742293360193
0.0022999999999999687,-18.631747819222536
0.0012999999999998568,-20.01816489309027
0.00029999999999996696,-21.376287740960702
-0.000700000000000145,-22.819293266823045
-0.0017000000000000348,-24.16326900169483
-0.0027000000000001467,-25.43650917157336
-0.0037000000000000366,-26.65316088945729
-0.0047000000000001485,-27.78492992934932
-0.005700000000000038,-28.746933613257543
-0.00670000000000015,-29.751378636161718
-0.00770000000000004,-30.571911190083444
-0.008700000000000152,-31.449032195999767
-0.009700000000000042,-32.32615320191609
-0.010700000000000154,-33.231568433829715
-0.011700000000000044,-34.236013456733886
-0.012700000000000156,-35.15557580164616
-0.013700000000000045,-36.11757948555439
-0.014700000000000157,-37.07958316946261
-0.015700000000000047,-37.94255706238028
-0.01670000000000016,-38.81967806829661
-0.01770000000000005,-39.47044526623452
-0.01870000000000016,-40.092918238175145
-0.01970000000000005,-40.701244097117105
-0.020700000000000163,-41.22468727806717
-0.021700000000000053,-41.70568912002128
-0.022700000000000164,-42.229132300971344
-0.023700000000000054,-42.79501682091736
-0.024700000000000166,-43.40334267985933
-0.025700000000000056,-44.096551216793195
-0.026700000000000168,-44.80390686672572
-0.027700000000000058,-45.53955674265553
-0.02870000000000017,-46.19032394059345
-0.02970000000000006,-46.79864979953541
-0.03070000000000017,-47.32209298048547
-0.03170000000000006,-47.76065348344364
-0.03270000000000017,-48.114331308409895
-0.03370000000000006,-48.45386202037751
-0.034700000000000175,-48.68021582835591
-0.035700000000000065,-49.03389365332217
-0.03670000000000018,-49.373424365289786
-0.03770000000000007,-49.76954352925199
-0.03870000000000018,-50.2505453712061
-0.03970000000000007,-50.64666453516831
-0.04070000000000018,-51.17010771611838
-0.04170000000000007,-51.65110955807249
-0.04270000000000018,-52.033081609036046
-0.04370000000000007,-52.42920077299826
-0.044700000000000184,-52.74043725896857
-0.045700000000000074,-52.95264395394832
-0.046700000000000186,-53.12240930993213
-0.047700000000000076,-53.26388043991864
-0.04870000000000019,-53.433645795902436
-0.04970000000000008,-53.603411151886235
-0.05070000000000019,-53.872206298860604
-0.05170000000000008,-54.2117370108282
-0.05270000000000019,-54.480532157802564
-0.05370000000000008,-54.834209982768826
-0.05470000000000019,-55.25862337272834
-0.05570000000000008,-55.527418519702685
-0.056700000000000195,-55.838655005673
-0.057700000000000085,-56.008420361656796
-0.058700000000000196,-56.093303039648696
-0.059700000000000086,-56.1781857176406
-0.0607000000000002,-56.22062705663656
-0.06170000000000009,-56.30550973462846
-0.0627000000000002,-56.36209818662306
-0.06370000000000009,-56.44698086461496
-0.0647000000000002,-56.65918755959472
-0.06570000000000009,-56.88554136757313
-0.0667000000000002,-57.14018940154883
-0.0677000000000001,-57.45142588751914
-0.0687000000000002,-57.66363258249889
-0.0697000000000001,-57.93242772947325
-0.07070000000000021,-58.05975174646111
-0.0717000000000001,-58.14463442445301
-0.07270000000000021,-58.14463442445301
-0.0737000000000001,-58.14463442445301
-0.07470000000000021,-58.05975174646111
-0.0757000000000001,-58.10219308545706
-0.07670000000000021,-58.10219308545706
-0.0777000000000001,-58.22951710244491
-0.07870000000000021,-58.45587091042332
-0.0797000000000001,-58.62563626640712
-0.08070000000000022,-58.880284300382826
-0.0817000000000001,-59.14907944735718
-0.08270000000000022,-59.31884480334099
-0.08370000000000011,-59.502757272323436
-0.08470000000000022,-59.54519861131939
-0.08570000000000011,-59.54519861131939
-0.08670000000000022,-59.502757272323436
-0.08770000000000011,-59.36128614233694
-0.08870000000000022,-59.36128614233694
-0.08970000000000011,-59.31884480334099
-0.09070000000000022,-59.36128614233694
-0.09170000000000011,-59.502757272323436
-0.09270000000000023,-59.6300812893113
-0.09370000000000012,-59.7998466452951
-0.09470000000000023,-60.11108313126541
-0.09570000000000012,-60.23840714825326
-0.09670000000000023,-60.40817250423707
-0.09770000000000012,-60.40817250423707
-0.09870000000000023,-60.40817250423707
-0.09970000000000012,-60.36573116524111
-0.10070000000000023,-60.28084848724921
-0.10170000000000012,-60.15352447026136
-0.10270000000000024,-60.15352447026136
-0.10370000000000013,-60.06864179226946
-0.10470000000000024,-60.15352447026136
-0.10570000000000013,-60.28084848724921
-0.10670000000000024,-60.40817250423707
-0.10770000000000013,-60.67696765121143
-0.10870000000000024,-60.80429166819927
-0.10970000000000013,-60.974057024183075
-0.11070000000000024,-61.01649836317903
-0.11170000000000013,-61.07308681517363
-0.11270000000000002,-61.01649836317903
-0.11370000000000013,-60.93161568518713
-0.11470000000000002,-60.761850329203334
-0.11570000000000014,-60.761850329203334
-0.11670000000000003,-60.67696765121143
-0.11770000000000014,-60.761850329203334
-0.11870000000000003,-60.84673300719523
-0.11970000000000014,-60.93161568518713
-0.12070000000000003,-61.11552815416958
-0.12170000000000014,-61.28529351015339
-0.12270000000000003,-61.37017618814529
-0.12370000000000014,-61.49750020513315
-0.12470000000000003,-61.455058866137186
-0.12570000000000014,-61.412617527141244
-0.12670000000000003,-61.327734849149344
-0.12770000000000015,-61.15796949316553
-0.12870000000000004,-61.11552815416958
-0.12970000000000015,-61.01649836317903
-0.13070000000000004,-61.01649836317903
-0.13170000000000015,-61.07308681517363
-0.13270000000000004,-61.20041083216149
-0.13370000000000015,-61.37017618814529
-0.13470000000000004,-61.63897133511965
-0.13570000000000015,-61.72385401311155
-0.13670000000000004,-61.851178030099405
-0.13770000000000016,-61.851178030099405
-0.13870000000000005,-61.80873669110345
-0.13970000000000016,-61.7662953521075
-0.14070000000000005,-61.63897133511965
-0.14170000000000016,-61.49750020513315
-0.14270000000000005,-61.455058866137186
-0.14370000000000016,-61.37017618814529
-0.14470000000000005,-61.455058866137186
-0.14570000000000016,-61.5965299961237
-0.14670000000000005,-61.6814126741156
-0.14770000000000016,-61.89361936909536
-0.14870000000000005,-61.97850204708726
-0.14970000000000017,-62.11997317707376
-0.15070000000000006,-62.11997317707376
-0.15170000000000017,-62.11997317707376
-0.15270000000000006,-62.02094338608321
-0.15370000000000017,-61.936060708091304
-0.15470000000000006,-61.7662953521075
-0.15570000000000017,-61.7662953521075
-0.15670000000000006,-61.6814126741156
-0.15770000000000017,-61.72385401311155
-0.15870000000000006,-61.851178030099405
-0.15970000000000018,-61.97850204708726
-0.16070000000000007,-62.11997317707376
-0.16170000000000018,-62.33217987205352
-0.16270000000000007,-62.41706255004542
-0.16370000000000018,-62.544386567033264
-0.16470000000000007,-62.544386567033264
-0.16570000000000018,-62.501945228037314
-0.16670000000000007,-62.37462121104946
-0.16770000000000018,-62.20485585506566
-0.16870000000000007,-62.11997317707376
-0.16970000000000018,-62.02094338608321
-0.17070000000000007,-62.02094338608321
-0.17170000000000019,-62.06338472507916
-0.17270000000000008,-62.16241451606972
-0.1737000000000002,-62.33217987205352
-0.17470000000000008,-62.58682790602922
-0.1757000000000002,-62.64341635802381
-0.17670000000000008,-62.81318171400764
-0.1777000000000002,-62.81318171400764
-0.17870000000000008,-62.77074037501168
-0.1797000000000002,-62.72829903601572
-0.18070000000000008,-62.64341635802381
-0.1817000000000002,-62.501945228037314
-0.18270000000000008,-62.501945228037314
-0.1837000000000002,-62.459503889041365
-0.1847000000000001,-62.544386567033264
-0.1857000000000002,-62.68585769701977
-0.1867000000000001,-62.77074037501168
-0.1877000000000002,-62.98294706999144
-0.1887000000000001,-63.06782974798333
-0.1897000000000002,-63.20930087796983
-0.1907000000000001,-63.20930087796983
-0.1917000000000001,-63.15271242597524
-0.19269999999999998,-63.06782974798333
-0.1937000000000001,-62.98294706999144
-0.19469999999999998,-62.81318171400764
-0.1957000000000001,-62.77074037501168
-0.19669999999999999,-62.72829903601572
-0.1977000000000001,-62.855623053003576
-0.1987,-62.98294706999144
-0.1997000000000001,-63.15271242597524
-0.2007,-63.37906623395363
-0.2017000000000001,-63.59127292893339
-0.2027,-63.732744058919906
-0.2037000000000001,-63.902509414903705
-0.2047,-63.902509414903705
-0.2057000000000001,-63.860068075907755
-0.2067,-63.81762673691181
-0.2077000000000001,-63.6761556069253
-0.2087,-63.633714267929356
-0.2097000000000001,-63.59127292893339
-0.2107,-63.59127292893339
-0.2117000000000001,-63.59127292893339
-0.2127,-63.732744058919906
-0.2137000000000001,-63.860068075907755
-0.2147,-64.02983343189156
-0.2157000000000001,-64.15715744887942
-0.2167,-64.25618723986996
-0.21770000000000012,-64.29862857886593
-0.2187,-64.25618723986996
-0.21970000000000012,-64.19959878787537
-0.2207,-64.0722747708875
-0.22170000000000012,-64.02983343189156
-0.2227,-64.02983343189156
-0.22370000000000012,-64.0722747708875
-0.2247,-64.25618723986996
-0.22570000000000012,-64.42595259585376
-0.2267,-64.59571795183757
-0.22770000000000012,-64.90695443780788
-0.22870000000000001,-65.0767197937917
-0.22970000000000013,-65.2464851497755
-0.23070000000000002,-65.34551494076604
-0.23170000000000013,-65.34551494076604
-0.23270000000000002,-65.3030736017701
-0.23370000000000013,-65.20404381077954
-0.23470000000000002,-65.03427845479574
-0.23570000000000013,-64.99183711579978
-0.23670000000000002,-64.90695443780788
-0.2376999999999999,-64.94939577680383
-0.23870000000000002,-65.0767197937917
-0.2396999999999999,-65.20404381077954
-0.24070000000000003,-65.43039761875795
-0.24169999999999991,-65.64260431373769
-0.24270000000000003,-65.82651678272015
-0.24369999999999992,-65.99628213870396
-0.24470000000000003,-66.03872347769992
-0.24569999999999992,-66.03872347769992
-0.24670000000000003,-65.99628213870396
-0.24769999999999992,-65.95384079970802
-0.24870000000000003,-65.95384079970802
-0.24969999999999992,-65.95384079970802
-0.25070000000000003,-66.03872347769992
-0.2516999999999999,-66.16604749468777
-0.25270000000000004,-66.39240130266617
-0.2536999999999999,-66.64704933664189
-0.25470000000000004,-66.91584448361623
-0.2556999999999999,-67.08560983960004
-0.25670000000000004,-67.21293385658788
-0.25769999999999993,-67.2978165345798
-0.25870000000000004,-67.34025787357575
-0.25969999999999993,-67.34025787357575
-0.26070000000000004,-67.25537519558385
-0.26169999999999993,-67.21293385658788
-0.26270000000000004,-67.25537519558385
-0.26369999999999993,-67.2978165345798
-0.26470000000000005,-67.48172900356225
-0.26569999999999994,-67.65149435954605
-0.26670000000000005,-67.9202895065204
-0.26769999999999994,-68.25982021848802
-0.26870000000000005,-68.48617402646643
-0.26969999999999994,-68.69838072144618
-0.27070000000000005,-68.91058741642594
-0.27169999999999994,-69.0096172074165
-0.27270000000000005,-69.0944998854084
-0.27369999999999994,-69.1793825634003
-0.27470000000000006,-69.13694122440434
-0.27569999999999995,-69.22182390239624
-0.27670000000000006,-69.30670658038814
-0.27769999999999995,-69.53306038836655
-0.27870000000000006,-69.8301497613382
-0.27969999999999995,-70.09894490831257
-0.28070000000000006,-70.39603428128423
-0.28169999999999995,-70.74971210625048
-0.28270000000000006,-71.06094859222078
-0.28369999999999995,-71.31559662619651
-0.28470000000000006,-71.48536198218031
-0.28569999999999995,-71.52780332117625
-0.28670000000000007,-71.6268331121668
-0.28769999999999996,-71.6268331121668
-0.28870000000000007,-71.75415712915466
-0.28969999999999996,-71.7965984681506
-0.29070000000000007,-71.96636382413442
-0.29169999999999996,-72.23515897110877
-0.29270000000000007,-72.53224834408043
-0.29369999999999996,-72.92836750804264
-0.2947000000000001,-73.2820453330089
-0.29569999999999996,-73.57913470598055
-0.2967000000000001,-73.97525386994278
-0.29769999999999996,-74.14501922592657
-0.2987000000000001,-74.41381437290093
-0.29969999999999997,-74.58357972888473
-0.3007000000000001,-74.76749219786718
-0.30169999999999997,-74.8523748758591
-0.3027000000000001,-75.1070229098348
-0.30369999999999997,-75.33337671781321
-0.3047000000000001,-75.6729074297808
-0.30569999999999997,-76.06902659374302
-0.3067000000000001,-76.50758709670117
-0.3077,-76.98858893865528
-0.3087000000000001,-77.38470810261751
-0.3097,-77.80912149257702
-0.3107000000000001,-78.16279931754329
-0.3117,-78.47403580351359
-0.3127000000000001,-78.72868383748929
-0.3137,-78.9550376454677
-0.3147000000000001,-79.08236166245555
-0.3157,-79.33700969643127
-0.3167000000000001,-79.56336350440966
-0.3177,-79.94533555537322
-0.3187000000000001,-80.38389605833139
-0.3197,-80.86489790028548
-0.3207000000000001,-81.38834108123557
-0.3217,-82.03910827917348
-0.3227000000000001,-82.56255146012353
-0.3237,-83.14258309306821
-0.3247000000000001,-83.56699648302772
-0.3257,-83.92067430799398
-0.3267000000000001,-84.27435213296022
-0.3277,-84.48655882793999
-0.3287000000000001,-84.84023665290624
-0.3297,-85.09488468688197
-0.3307000000000001,-85.49100385084417
-0.3317,-85.97200569279828
-0.3327000000000001,-86.49544887374834
-0.3337,-87.06133339369435
-0.3347000000000001,-87.66965925263632
-0.3357,-88.23554377258235
-0.3367000000000001,-88.9004580835189
-0.3377,-89.42390126446898
-0.3387000000000001,-89.94734444541903
-0.3397,-90.41419917437449
-0.3407000000000001,-90.89520101632861
-0.3417,-91.33376151928677
-0.3427000000000001,-91.89964603923279
-0.3437,-92.42308922018285
-0.3447000000000001,-93.08800353111941
-0.3457,-93.78121206805329
-0.3467000000000001,-94.5168619439831
-0.3477,-95.30910027190752
-0.3487000000000001,-96.04475014783733
-0.3497,-96.73795868477121
-0.3507000000000001,-97.36043165671182
-0.3517,-97.96875751565379
-0.3527000000000001,-98.5346420355998
-0.3537,-99.05808521654988
-0.3547000000000001,-99.53908705850398
-0.3557,-100.10497157844999
-0.35670000000000013,-100.670856098396
-0.3577,-101.44894731332178
-0.35870000000000013,-102.24118564124619
-0.3597,-103.07586530816658
-0.36070000000000013,-103.98128054008019
-0.3617,-104.98572556298437
-0.3626999999999999,-105.82040522990474
-0.3637,-106.68337912282242
-0.3646999999999999,-107.4331761117509
-0.3657,-108.12638464868475
-0.3666999999999999,-108.83374029861727
-0.3677,-109.44206615755924
-0.3686999999999999,-110.1352746944931
-0.36970000000000003,-110.82848323142699
-0.3706999999999999,-111.6207215593514
-0.37170000000000003,-112.48369545226906
-0.3726999999999999,-113.40325779718134
-0.37370000000000003,-114.36526148108955
-0.3746999999999999,-115.4121478429897
-0.37570000000000003,-116.37415152689792
-0.3766999999999999,-117.33615521080614
-0.37770000000000004,-118.24157044271978
-0.3786999999999999,-119.03380877064419
-0.37970000000000004,-119.86848843756455
-0.3806999999999999,-120.64657965249035
-0.38170000000000004,-121.33978818942418
-0.38269999999999993,-122.17446785634456
-0.38370000000000004,-122.95255907127036
-0.38469999999999993,-123.91456275517855
-0.38570000000000004,-124.9614491170787
-0.38669999999999993,-124.52288861412055
-0.38570000000000004,-121.52370065840667
-0.38469999999999993,-118.72257228467387
-0.38370000000000004,-116.06291504092759
-0.38269999999999993,-113.48814047517324
-0.38170000000000004,-110.96995436141347
-0.3806999999999999,-108.52250381264696
-0.37970000000000004,-106.11749460287639
-0.3786999999999999,-103.7266325061045
-0.37770000000000004,-101.44894731332178
-0.3766999999999999,-99.27029191152963
-0.37570000000000003,-97.26140186572127
-0.3746999999999999,-95.39398294989942
-0.37370000000000003,-93.61144671206948
-0.3726999999999999,-91.89964603923279
-0.37170000000000003,-90.20199247939475
-0.3706999999999999,-88.54678025855264
-0.36970000000000003,-86.84912669871461
-0.3686999999999999,-85.13732602587791
-0.3677,-83.35478978804795
-0.3666999999999999,-81.61469488921396
-0.3657,-79.7755701993894
-0.3646999999999999,-78.03547530055542
-0.3637,-76.33782174071737
-0.3626999999999999,-74.76749219786718
-0.3617,-73.2820453330089
-0.36070000000000013,-71.8814811461425
-0.3597,-70.53750541127073
-0.35870000000000013,-69.30670658038814
-0.3577,-67.96273084551636
-0.35670000000000013,-66.60460799764593
-0.3557,-65.16160247178358
-0.3547000000000001,-63.77518539791585
-0.3537,-62.33217987205352
-0.3527000000000001,-60.889174346191176
-0.3517,-59.44616882032884
-0.3507000000000001,-58.05975174646111
-0.3497,-56.65918755959472
-0.3487000000000001,-55.400094502714836
-0.3477,-54.2117370108282
-0.3467000000000001,-53.079967970936174
-0.3457,-51.990640270040096
-0.3447000000000001,-50.85887123014807
-0.3437,-49.72710219025603
-0.3427000000000001,-48.51045047237211
-0.3417,-47.23721030249357
-0.3407000000000001,-45.97811724561369
-0.3397,-44.619994397743255
-0.3387000000000001,-43.23357732387552
-0.3377,-42.00277849299294
-0.3367000000000001,-40.743685436113054
-0.3357,-39.61191639622103
-0.3347000000000001,-38.522588695324956
-0.3337,-37.51814367242077
-0.3327000000000001,-36.55613998851254
-0.3317,-35.636577643600276
-0.3307000000000001,-34.632132620696105
-0.3297,-33.58524625879597
-0.3287000000000001,-32.49591855789989
-0.3277,-31.321708179011907
-0.3267000000000001,-30.189939139119886
-0.3257,-28.959140308237306
-0.3247000000000001,-27.742488590353368
-0.3237,-26.568278211465387
-0.3227000000000001,-25.521391849565262
-0.3217,-24.474505487665134
-0.3207000000000001,-23.51250180375691
-0.3197,-22.63538079784059
-0.3187000000000001,-21.814848243918867
-0.3177,-20.89528589900659
-0.3167000000000001,-20.01816489309027
-0.3157,-19.01371987018609
-0.3147000000000001,-17.966833508285966
-0.3137,-16.962388485381787
-0.3127000000000001,-15.87306078448571
-0.3117,-14.741291744593681
-0.3107000000000001,-13.654793466297335
-0.3097,-12.607907104397206
-0.3087000000000001,-11.691174182084664
-0.3077,-10.819712021367803
-0.3067000000000001,-9.99069119964689
-0.30569999999999997,-9.205526428221793
-0.3047000000000001,-8.376505606500881
-0.30369999999999997,-7.591340835075788
-0.3027000000000001,-6.719878674358924
-0.30169999999999997,-5.80314575204638
-0.3007000000000001,-4.843971490737885
-0.29969999999999997,-3.840941179133574
-0.2987000000000001,-2.7501987669376318
-0.29769999999999996,-1.7910245056291363
-0.2967000000000001,-0.8745745255765657
-0.29569999999999996,-0.002205534916489592
-0.2947000000000001,0.8264743413811545
-0.29369999999999996,1.5675001202504606
-0.29270000000000007,2.30880884137974
-0.29169999999999996,2.963820173217252
-0.29070000000000007,3.7051288943465317
-0.28969999999999996,4.490293665771627
-0.28870000000000007,5.319314487492538
-0.28769999999999996,6.1907766482094
-0.28670000000000007,7.107509570521944
-0.28569999999999995,8.066683831830439
-0.28470000000000006,8.983416754142983
-0.28369999999999995,9.898734965155663
-0.28270000000000006,10.683899736580756
-0.28169999999999995,11.469064508005852
-0.28070000000000006,12.166517178839316
-0.27969999999999995,12.77767246038101
-0.27870000000000006,13.344971691626892
-0.27769999999999995,13.998568312164537
-0.27670000000000006,14.65640906660178
-0.27569999999999995,15.3920589425316
-0.27470000000000006,16.184297270456018
-0.27369999999999994,17.00482982437774
-0.27270000000000005,17.839509491298113
-0.27169999999999994,18.702483384215785
-0.27070000000000005,19.537163051136158
-0.26969999999999994,20.329401379060574
-0.26870000000000005,20.980168576998494
-0.26769999999999994,21.54605309694451
-0.26670000000000005,22.15437895588647
-0.26569999999999994,22.67782213683654
-0.26470000000000005,23.2012653177866
-0.26369999999999993,23.724708498736668
