Potential V vs RHE, Current mA cm-2
0.013299999999999867,-0.5692798270656908
0.012299999999999978,-2.7501987669376318
0.011299999999999866,-4.626105950558669
0.010299999999999976,-6.238876832404812
0.009299999999999864,-7.679052935667419
0.008299999999999974,-9.031516938338395
0.007299999999999862,-10.382566229709504
0.006299999999999972,-11.86659838326793
0.00529999999999986,-13.3930718758223
0.0042999999999999705,-14.868615761581536
0.0032999999999998586,-16.22673860945197
0.0022999999999999687,-17.2736249713521
0.0012999999999998568,-18.19318731626437
0.00029999999999996696,-18.92883719219419
-0.000700000000000145,-19.805958198110513
-0.0017000000000000348,-20.76796188201874
-0.0027000000000001467,-21.814848243918867
-0.0037000000000000366,-22.946617283810895
-0.0047000000000001485,-23.951062306715073
-0.005700000000000038,-24.686712182644893
-0.00670000000000015,-25.295038041586857
-0.00770000000000004,-25.73359854454502
-0.008700000000000152,-26.257041725495082
-0.009700000000000042,-26.822926245441096
-0.010700000000000154,-27.572723234369565
-0.011700000000000044,-28.393255788291288
-0.012700000000000156,-29.100611438223805
-0.013700000000000045,-29.708937297165768
-0.014700000000000157,-30.10505646112798
-0.015700000000000047,-30.359704495103685
-0.01670000000000016,-30.614352529079397
-0.01770000000000005,-30.925589015049702
-0.01870000000000016,-31.40659085700382
-0.01970000000000005,-31.972475376949827
-0.020700000000000163,-32.58080123589179
-0.021700000000000053,-33.06180307784591
-0.022700000000000164,-33.373039563816214
-0.023700000000000054,-33.50036358080407
-0.024700000000000166,-33.54280491980002
-0.025700000000000056,-33.712570275783825
-0.026700000000000168,-34.02380676175414
-0.027700000000000058,-34.462367264712285
-0.02870000000000017,-34.98581044566235
-0.02970000000000006,-35.38192960962457
-0.03070000000000017,-35.594136304604326
-0.03170000000000006,-35.636577643600276
-0.03270000000000017,-35.55169496560837
-0.03370000000000006,-35.55169496560837
-0.034700000000000175,-35.636577643600276
-0.035700000000000065,-35.90537279057463
-0.03670000000000018,-36.28734484153819
-0.03770000000000007,-36.725905344496354
-0.03870000000000018,-37.037141830466666
-0.03970000000000007,-37.122024508458566
-0.04070000000000018,-37.07958316946261
-0.04170000000000007,-36.99470049147071
-0.04270000000000018,-36.89567070048016
-0.04370000000000007,-37.037141830466666
-0.044700000000000184,-37.249348525446415
-0.045700000000000074,-37.51814367242077
-0.046700000000000186,-37.77279170639648
-0.047700000000000076,-37.77279170639648
-0.04870000000000019,-37.77279170639648
-0.04970000000000008,-37.645467689408626
-0.05070000000000019,-37.645467689408626
-0.05170000000000008,-37.77279170639648
-0.05270000000000019,-37.94255706238028
-0.05370000000000008,-38.253793548350586
-0.05470000000000019,-38.522588695324956
-0.05570000000000008,-38.522588695324956
-0.056700000000000195,-38.42355890433439
-0.057700000000000085,-38.253793548350586
-0.058700000000000196,-38.16891087035869
-0.059700000000000086,-38.16891087035869
-0.0607000000000002,-38.33867622634249
-0.06170000000000009,-38.607471373316855
-0.0627000000000002,-38.86211940729255
-0.06370000000000009,-38.98944342428042
-0.0647000000000002,-38.94700208528445
-0.06570000000000009,-38.86211940729255
-0.0667000000000002,-38.692354051308754
-0.0677000000000001,-38.6499127123128
-0.0687000000000002,-38.777236729300654
-0.0697000000000001,-38.94700208528445
-0.07070000000000021,-39.173355893262865
-0.0717000000000001,-39.258238571254765
-0.07270000000000021,-39.21579723225882
-0.0737000000000001,-39.08847321527096
-0.07470000000000021,-38.81967806829661
-0.0757000000000001,-38.734795390304704
-0.07670000000000021,-38.81967806829661
-0.0777000000000001,-39.046031876275016
-0.07870000000000021,-39.34312124924667
-0.0797000000000001,-39.51288660523048
-0.08070000000000022,-39.56947505722508
-0.0817000000000001,-39.42800392723857
-0.08270000000000022,-39.173355893262865
-0.08370000000000011,-38.98944342428042
-0.08470000000000022,-38.94700208528445
-0.08570000000000011,-39.08847321527096
-0.08670000000000022,-39.34312124924667
-0.08770000000000011,-39.51288660523048
-0.08870000000000022,-39.654357735216976
-0.08970000000000011,-39.56947505722508
-0.09070000000000022,-39.38556258824262
-0.09170000000000011,-39.173355893262865
-0.09270000000000023,-39.08847321527096
-0.09370000000000012,-39.130914554266916
-0.09470000000000023,-39.30067991025072
-0.09570000000000012,-39.42800392723857
-0.09670000000000023,-39.51288660523048
-0.09770000000000012,-39.42800392723857
-0.09870000000000023,-39.258238571254765
-0.09970000000000012,-39.046031876275016
-0.10070000000000023,-38.90456074628851
-0.10170000000000012,-38.98944342428042
-0.10270000000000024,-39.173355893262865
-0.10370000000000013,-39.47044526623452
-0.10470000000000024,-39.61191639622103
-0.10570000000000013,-39.61191639622103
-0.10670000000000024,-39.42800392723857
-0.10770000000000013,-39.21579723225882
-0.10870000000000024,-38.98944342428042
-0.10970000000000013,-38.94700208528445
-0.11070000000000024,-39.08847321527096
-0.11170000000000013,-39.34312124924667
-0.11270000000000002,-39.56947505722508
-0.11370000000000013,-39.654357735216976
-0.11470000000000002,-39.61191639622103
-0.11570000000000014,-39.38556258824262
-0.11670000000000003,-39.21579723225882
-0.11770000000000014,-39.130914554266916
-0.11870000000000003,-39.21579723225882
-0.11970000000000014,-39.38556258824262
-0.12070000000000003,-39.61191639622103
-0.12170000000000014,-39.696799074212926
-0.12270000000000003,-39.654357735216976
-0.12370000000000014,-39.47044526623452
-0.12470000000000003,-39.258238571254765
-0.12570000000000014,-39.08847321527096
-0.12670000000000003,-39.173355893262865
-0.12770000000000015,-39.30067991025072
-0.12870000000000004,-39.56947505722508
-0.12970000000000015,-39.78168175220483
-0.13070000000000004,-39.78168175220483
-0.13170000000000015,-39.696799074212926
-0.13270000000000004,-39.42800392723857
-0.13370000000000015,-39.30067991025072
-0.13470000000000004,-39.258238571254765
-0.13570000000000015,-39.38556258824262
-0.13670000000000004,-39.61191639622103
-0.13770000000000016,-39.78168175220483
-0.13870000000000005,-39.82412309120078
-0.13970000000000016,-39.78168175220483
-0.14070000000000005,-39.56947505722508
-0.14170000000000016,-39.42800392723857
-0.14270000000000005,-39.34312124924667
-0.14370000000000016,-39.42800392723857
-0.14470000000000005,-39.654357735216976
-0.14570000000000016,-39.86656443019674
-0.14670000000000005,-39.99388844718459
-0.14770000000000016,-39.95144710818864
-0.14870000000000005,-39.739240413208876
-0.14970000000000017,-39.51288660523048
-0.15070000000000006,-39.38556258824262
-0.15170000000000017,-39.42800392723857
-0.15270000000000006,-39.654357735216976
-0.15370000000000017,-39.90900576919269
-0.15470000000000006,-40.092918238175145
-0.15570000000000017,-40.135359577171094
-0.15670000000000006,-39.99388844718459
-0.15770000000000017,-39.78168175220483
-0.15870000000000006,-39.654357735216976
-0.15970000000000018,-39.56947505722508
-0.16070000000000007,-39.696799074212926
-0.16170000000000018,-39.90900576919269
-0.16270000000000007,-40.092918238175145
-0.16370000000000018,-40.220242255162994
-0.16470000000000007,-40.177800916167044
-0.16570000000000018,-39.99388844718459
-0.16670000000000007,-39.82412309120078
-0.16770000000000018,-39.78168175220483
-0.16870000000000007,-39.90900576919269
-0.16970000000000018,-40.092918238175145
-0.17070000000000007,-40.34756627215084
-0.17170000000000019,-40.4748902891387
-0.17270000000000008,-40.43244895014274
-0.1737000000000002,-40.30512493315489
-0.17470000000000008,-40.092918238175145
-0.1757000000000002,-39.99388844718459
-0.17670000000000008,-40.092918238175145
-0.1777000000000002,-40.30512493315489
-0.17870000000000008,-40.559772967130606
-0.1797000000000002,-40.78612677510901
-0.18070000000000008,-40.78612677510901
-0.1817000000000002,-40.65880275812115
-0.18270000000000008,-40.34756627215084
-0.1837000000000002,-40.177800916167044
-0.1847000000000001,-40.135359577171094
-0.1857000000000002,-40.30512493315489
-0.1867000000000001,-40.51733162813464
-0.1877000000000002,-40.78612677510901
-0.1887000000000001,-40.91345079209687
-0.1897000000000002,-40.87100945310091
-0.1907000000000001,-40.743685436113054
-0.1917000000000001,-40.51733162813464
-0.19269999999999998,-40.43244895014274
-0.1937000000000001,-40.559772967130606
-0.19469999999999998,-40.743685436113054
-0.1957000000000001,-40.99833347008877
-0.19669999999999999,-41.182245939071215
-0.1977000000000001,-41.182245939071215
-0.1987,-41.04077480908471
-0.1997000000000001,-40.828568114104954
-0.2007,-40.743685436113054
-0.2017000000000001,-40.828568114104954
-0.2027,-41.04077480908471
-0.2037000000000001,-41.30956995605907
-0.2047,-41.52177665103883
-0.2057000000000001,-41.56421799003478
-0.2067,-41.47933531204288
-0.2077000000000001,-41.267128617063115
-0.2087,-41.182245939071215
-0.2097000000000001,-41.139804600075266
-0.2107,-41.30956995605907
-0.2117000000000001,-41.56421799003478
-0.2127,-41.79057179801318
-0.2137000000000001,-41.96033715399699
-0.2147,-41.91789581500104
-0.2157000000000001,-41.83301313700913
-0.2167,-41.66324778102533
-0.21770000000000012,-41.606659329030734
-0.2187,-41.74813045901723
-0.21970000000000012,-41.96033715399699
-0.2207,-42.2715736399673
-0.22170000000000012,-42.39889765695515
-0.2227,-42.4413389959511
-0.22370000000000012,-42.31401497896325
-0.2247,-42.087661170984845
-0.22570000000000012,-42.04521983198889
-0.2267,-42.087661170984845
-0.22770000000000012,-42.31401497896325
-0.22870000000000001,-42.6111043519349
-0.22970000000000013,-42.837458159913304
-0.23070000000000002,-42.92234083790521
-0.23170000000000013,-42.87989949890926
-0.23270000000000002,-42.71013414292546
-0.23370000000000013,-42.6111043519349
-0.23470000000000002,-42.653545690930855
-0.23570000000000013,-42.87989949890926
-0.23670000000000002,-43.17698887188092
-0.2376999999999999,-43.40334267985933
-0.23870000000000002,-43.61554937483908
-0.2396999999999999,-43.61554937483908
-0.24070000000000003,-43.53066669684718
-0.24169999999999991,-43.40334267985933
-0.24270000000000003,-43.40334267985933
-0.24369999999999992,-43.61554937483908
-0.24470000000000003,-43.88434452181344
-0.24569999999999992,-44.223875233781044
-0.24670000000000003,-44.4926703807554
-0.24769999999999992,-44.577553058747306
-0.24870000000000003,-44.4926703807554
-0.24969999999999992,-44.36534636376755
-0.25070000000000003,-44.3229050247716
-0.2516999999999999,-44.4926703807554
-0.25270000000000004,-44.74731841473111
-0.2536999999999999,-45.10099623969737
-0.25470000000000004,-45.412232725667685
-0.2556999999999999,-45.53955674265553
-0.25670000000000004,-45.581998081651484
-0.25769999999999993,-45.497115403659585
-0.25870000000000004,-45.45467406466363
-0.25969999999999993,-45.581998081651484
-0.26070000000000004,-45.85079322862584
-0.26169999999999993,-46.2327652795894
-0.26270000000000004,-46.586443104555656
-0.26369999999999993,-46.88353247752732
-0.26470000000000005,-46.982562268517874
-0.26569999999999994,-46.94012092952192
-0.26670000000000005,-46.94012092952192
-0.26769999999999994,-47.067444946509774
-0.26870000000000005,-47.27965164148953
-0.26969999999999994,-47.633329466455784
-0.27070000000000005,-48.071889969413945
-0.27169999999999994,-48.41142068138156
-0.27270000000000005,-48.55289181136806
-0.27369999999999994,-48.59533315036401
-0.27470000000000006,-48.55289181136806
-0.27569999999999995,-48.63777448935996
-0.27670000000000006,-48.84998118433972
-0.27769999999999995,-49.24610034830193
-0.27870000000000006,-49.72710219025603
-0.27969999999999995,-50.12322135421825
-0.28070000000000006,-50.42031072718991
-0.28169999999999995,-50.547634744177756
-0.28270000000000006,-50.547634744177756
-0.28369999999999995,-50.68910587416426
-0.28470000000000006,-50.85887123014807
-0.28569999999999995,-51.29743173310623
-0.28670000000000007,-51.82087491405629
-0.28769999999999996,-52.25943541701445
-0.28870000000000007,-52.64140746797801
-0.28969999999999996,-52.82531993696047
-0.29070000000000007,-52.95264395394832
-0.29169999999999996,-53.03752663194023
-0.29270000000000007,-53.22143910092268
-0.29369999999999996,-53.64585249088219
-0.2947000000000001,-54.1268543328363
-0.29569999999999996,-54.69273885278232
-0.2967000000000001,-55.17374069473642
-0.29769999999999996,-55.484977180706736
-0.2987000000000001,-55.65474253669055
-0.29969999999999997,-55.7820665536784
-0.3007000000000001,-55.96597902266086
-0.30169999999999997,-56.30550973462846
-0.3027000000000001,-56.82895291557852
-0.30369999999999997,-57.493867226515086
-0.3047000000000001,-58.10219308545706
-0.30569999999999997,-58.54075358841522
-0.3067000000000001,-58.83784296138688
-0.3077,-59.10663810836124
-0.3087000000000001,-59.36128614233694
-0.3097,-59.7149639673032
-0.3107000000000001,-60.28084848724921
-0.3117,-60.889174346191176
-0.3127000000000001,-61.53994154412909
-0.3137,-62.06338472507916
-0.3147000000000001,-62.41706255004542
-0.3157,-62.77074037501168
-0.3167000000000001,-63.11027108697928
-0.3177,-63.59127292893339
-0.3187000000000001,-64.25618723986996
-0.3197,-64.99183711579978
-0.3207000000000001,-65.76992833072556
-0.3217,-66.39240130266617
-0.3227000000000001,-66.77437335362974
-0.3237,-67.04316850060408
-0.3247000000000001,-67.2978165345798
-0.3257,-67.693935698542
-0.3267000000000001,-68.34470289647993
-0.3277,-69.0944998854084
-0.3287000000000001,-70.01406223032066
-0.3297,-70.8345947842424
-0.3307000000000001,-71.48536198218031
-0.3317,-72.00880516313036
-0.3327000000000001,-72.36248298809663
-0.3337,-72.80104349105478
-0.3347000000000001,-73.3669280110008
-0.3357,-74.10257788693062
-0.3367000000000001,-74.97969889284694
-0.3377,-75.85681989876326
-0.3387000000000001,-76.5924697746931
-0.3397,-77.243236972631
-0.3407000000000001,-77.76668015358106
-0.3417,-78.33256467352709
-0.3427000000000001,-78.9550376454677
-0.3437,-79.73312886039348
-0.3447000000000001,-80.65269120530574
-0.3457,-81.65713622820991
-0.3467000000000001,-82.52011012112759
-0.3477,-83.26990711005605
-0.3487000000000001,-83.83579163000208
-0.3497,-84.31679347195619
-0.3507000000000001,-84.96756066989411
-0.3517,-85.75979899781852
-0.3527000000000001,-86.7076555687281
-0.3537,-87.75454193062824
-0.3547000000000001,-88.71654561453644
-0.3557,-89.59366662045278
-0.35670000000000013,-90.32931649638259
-0.3577,-90.93764235532454
-0.35870000000000013,-91.64499800525708
-0.3597,-92.33820654219093
-0.36070000000000013,-93.30021022609918
-0.3617,-94.4319792659912
-0.3626999999999999,-95.47886562789132
-0.3637,-96.5681933287874
-0.3646999999999999,-97.40287299570777
-0.3657,-98.18096421063355
-0.3666999999999999,-98.88831986056607
-0.3677,-99.66641107549184
-0.3686999999999999,-100.670856098396
-0.36970000000000003,-101.80262513828804
-0.3706999999999999,-102.97683551717601
-0.37170000000000003,-104.06616321807209
-0.3726999999999999,-105.07060824097626
-0.37370000000000003,-105.90528790789664
-0.3746999999999999,-106.59849644483052
-0.37570000000000003,-107.47561745074682
-0.3766999999999999,-108.48006247365102
-0.37770000000000004,-109.654272852539
-0.3786999999999999,-110.87092457042293
-0.37970000000000004,-112.05928206230955
-0.3806999999999999,-113.10616842420968
-0.38170000000000004,-114.0115836561233
-0.38269999999999993,-114.84626332304367
-0.38370000000000004,-115.76582566795594
-0.38469999999999993,-116.77027069086012
-0.38570000000000004,-117.94448106974811
-0.38669999999999993,-117.81715705276027
-0.38570000000000004,-115.05847001802343
-0.38469999999999993,-112.48369545226906
-0.38370000000000004,-109.92306799951335
-0.38269999999999993,-107.39073477275493
-0.38170000000000004,-104.98572556298437
-0.3806999999999999,-102.80707016119221
-0.37970000000000004,-100.92550413237171
-0.3786999999999999,-99.22785057253368
-0.37770000000000004,-97.6575210296835
-0.3766999999999999,-96.0871914868333
-0.37570000000000003,-94.38953792699526
-0.3746999999999999,-92.6070016891653
-0.37370000000000003,-90.76787699934074
-0.3726999999999999,-89.11266477849867
-0.37170000000000003,-87.62721791364037
-0.3706999999999999,-86.32568351776455
-0.36970000000000003,-85.09488468688197
-0.3686999999999999,-83.83579163000208
-0.3677,-82.43522744313569
-0.3666999999999999,-80.99222191727335
-0.3657,-79.33700969643127
-0.3646999999999999,-77.80912149257702
-0.3637,-76.38026307971333
-0.3626999999999999,-75.14946424883075
-0.3617,-74.14501922592657
-0.36070000000000013,-73.09813286402644
-0.3597,-72.00880516313036
-0.35870000000000013,-70.70727076725453
-0.3577,-69.30670658038814
-0.35670000000000013,-67.9202895065204
-0.3557,-66.60460799764593
-0.3547000000000001,-65.4728389577539
-0.3537,-64.46839393484973
-0.3527000000000001,-63.46394891194555
-0.3517,-62.41706255004542
-0.3507000000000001,-61.242852171157445
-0.3497,-59.92717066228296
-0.3487000000000001,-58.54075358841522
-0.3477,-57.22507207954074
-0.3467000000000001,-56.13574437864466
-0.3457,-55.13129935574048
-0.3447000000000001,-54.31076680181876
-0.3437,-53.39120445690648
-0.3427000000000001,-52.386759434002315
-0.3417,-51.17010771611838
-0.3407000000000001,-49.85442620724389
-0.3397,-48.59533315036401
-0.3387000000000001,-47.46356411047198
-0.3377,-46.501560426563756
-0.3367000000000001,-45.666880759643384
-0.3357,-44.80390686672572
-0.3347000000000001,-43.84190318281749
-0.3337,-42.71013414292546
-0.3327000000000001,-41.56421799003478
-0.3317,-40.30512493315489
-0.3307000000000001,-39.173355893262865
-0.3297,-38.253793548350586
-0.3287000000000001,-37.41911388143023
-0.3277,-36.725905344496354
-0.3267000000000001,-35.848784338580025
-0.3257,-34.85848642867451
-0.3247000000000001,-33.670128936787876
-0.3237,-32.45347721890394
-0.3227000000000001,-31.321708179011907
-0.3217,-30.402145834099635
-0.3207000000000001,-29.581613280177915
-0.3197,-28.8742576302454
-0.3187000000000001,-28.09616641531963
-0.3177,-27.176604070407354
-0.3167000000000001,-26.129717708507226
-0.3157,-24.997948668615198
-0.3147000000000001,-23.951062306715073
-0.3137,-22.946617283810895
-0.3127000000000001,-22.196820294882425
-0.3117,-21.54605309694451
-0.3107000000000001,-20.85284456001064
-0.3097,-20.06060623208622
-0.3087000000000001,-19.112749661176647
-0.3077,-18.06586329927652
-0.3067000000000001,-17.018976937376394
-0.30569999999999997,-16.014531914472215
-0.3047000000000001,-15.264734925543747
-0.30369999999999997,-14.61396772760583
-0.3027000000000001,-14.046668496359947
-0.30169999999999997,-13.3930718758223
-0.3007000000000001,-12.520195003805576
-0.29969999999999997,-11.517164692201263
-0.2987000000000001,-10.470278330301136
-0.29769999999999996,-9.511104068992642
-0.2967000000000001,-8.725939297567548
-0.29569999999999996,-8.070927965730034
-0.2947000000000001,-7.5474847847799715
-0.29369999999999996,-6.93774421453814
-0.29270000000000007,-6.196435493408861
-0.29169999999999996,-5.323558621392133
-0.29070000000000007,-4.364384360083638
-0.28969999999999996,-3.447651437771094
-0.28870000000000007,-2.618630616050183
-0.28769999999999996,-2.008890045808352
-0.28670000000000007,-1.4854468648582886
-0.28569999999999995,-1.0054353208140816
-0.28470000000000006,-0.3947044526623452
-0.28369999999999995,0.3903188476327636
-0.28270000000000006,1.2626298351295453
-0.28169999999999995,2.178655401792157
-0.28070000000000006,2.963820173217252
-0.27969999999999995,3.5749754547589476
-0.27870000000000006,4.098418635709011
-0.27769999999999995,4.490293665771627
-0.27670000000000006,5.01373684672169
-0.27569999999999995,5.667333467259336
-0.27470000000000006,6.452498238684432
-0.27369999999999994,7.369231160996977
-0.27270000000000005,8.110539882126256
-0.27169999999999994,8.677839113372134
-0.27070000000000005,9.157426244026382
-0.26969999999999994,9.549301274088998
-0.26870000000000005,9.942591015451477
-0.26769999999999994,10.509890246697358
-0.26670000000000005,11.295055018122452
-0.26569999999999994,12.080219789547549
-0.26470000000000005,12.821528510676828
