Potential V vs RHE, Current mA cm-2
0.013299999999999867,3.539607672262322
0.012299999999999978,2.90157287602319
0.011299999999999866,2.5295038041586855
0.010299999999999976,2.2649527910839233
0.009299999999999864,2.0286960040064623
0.008299999999999974,1.8377099785246829
0.007299999999999862,1.6877505807389888
0.006299999999999972,1.5533530072518102
0.00529999999999986,1.431687835463417
0.0042999999999999705,1.3086079523751588
0.0032999999999998586,1.1961384040358884
0.0022999999999999687,1.1006453912949985
0.0012999999999998568,1.0150553576531638
0.00029999999999996696,0.9405000721502763
-0.000700000000000145,0.8498170778289276
-0.0017000000000000348,0.7574364299477406
-0.0027000000000001467,0.6867008649544888
-0.0037000000000000366,0.6217656162906836
-0.0047000000000001485,0.5576791944067975
-0.005700000000000038,0.48496303359373455
-0.00670000000000015,0.4113980460007527
-0.00770000000000004,0.3545266517461782
-0.008700000000000152,0.3031726315610774
-0.009700000000000042,0.24898918877624646
-0.010700000000000154,0.18037569073279217
-0.011700000000000044,0.11699662449883853
-0.012700000000000156,0.0678637010545258
-0.013700000000000045,0.027657605912361466
-0.014700000000000157,-0.024403769922671882
-0.015700000000000047,-0.07422990190391847
-0.01670000000000016,-0.1366186702279666
-0.01770000000000005,-0.1860345359322523
-0.01870000000000016,-0.21828995356917516
-0.01970000000000005,-0.26327777290488336
-0.020700000000000163,-0.3176026868197007
-0.021700000000000053,-0.36994700491470706
-0.022700000000000164,-0.4156421799003478
-0.023700000000000054,-0.4483220109272302
-0.024700000000000166,-0.4900559942732487
-0.025700000000000056,-0.5391464763785655
-0.026700000000000168,-0.5830025266743816
-0.027700000000000058,-0.6265756347102247
-0.02870000000000017,-0.652747793757728
-0.02970000000000006,-0.6803346641050962
-0.03070000000000017,-0.734518106889927
-0.03170000000000006,-0.7778082726657971
-0.03270000000000017,-0.8147322375922746
-0.03370000000000006,-0.8427435213296024
-0.034700000000000175,-0.868491266987146
-0.035700000000000065,-0.9119229038930027
-0.03670000000000018,-0.96058897260836
-0.03770000000000007,-0.9928443902452826
-0.03870000000000018,-1.0202897894626646
-0.03970000000000007,-1.0402372187907614
-0.04070000000000018,-1.0835273845666316
-0.04170000000000007,-1.1304957997221508
-0.04270000000000018,-1.1596388524993706
-0.04370000000000007,-1.1831230600771303
-0.044700000000000184,-1.2104269881645253
-0.045700000000000074,-1.2489071355208543
-0.046700000000000186,-1.2988464444060903
-0.047700000000000076,-1.3238868344137014
-0.04870000000000019,-1.34539044617165
-0.04970000000000008,-1.3743920278188833
-0.05070000000000019,-1.40891098353559
-0.05170000000000008,-1.4543232162612578
-0.05270000000000019,-1.4840321535584236
-0.05370000000000008,-1.506667534356264
-0.05470000000000019,-1.5363764716534298
-0.05570000000000008,-1.5703295428501907
-0.056700000000000195,-1.6113561705462767
-0.057700000000000085,-1.643894530443173
-0.058700000000000196,-1.660871066041553
-0.059700000000000086,-1.7033124050375041
-0.0607000000000002,-1.7556567231325106
-0.06170000000000009,-1.7825362378299463
-0.0627000000000002,-1.8037569073279218
-0.06370000000000009,-1.815074597726842
-0.0647000000000002,-1.8348805559249526
-0.06570000000000009,-1.8716630497214433
-0.0667000000000002,-1.9112749661176645
-0.0677000000000001,-1.9423986147146954
-0.0687000000000002,-1.9622045729128061
-0.0697000000000001,-1.9834252424107812
-0.07070000000000021,-2.0286960040064623
-0.0717000000000001,-2.0668932091028185
-0.07270000000000021,-2.102260991599445
-0.0737000000000001,-2.122066949797555
-0.07470000000000021,-2.1447023305953956
-0.0757000000000001,-2.1871436695913467
-0.07670000000000021,-2.229585008587298
-0.0777000000000001,-2.2592939458844636
-0.07870000000000021,-2.286173460581899
-0.0797000000000001,-2.307394130079875
-0.08070000000000022,-2.352664891675556
-0.0817000000000001,-2.396520941971372
-0.08270000000000022,-2.427644590568403
-0.08370000000000011,-2.4531093939659736
-0.08470000000000022,-2.4799889086634095
-0.08570000000000011,-2.5210155363594953
-0.08670000000000022,-2.5677010092550416
-0.08770000000000011,-2.6016540804518025
-0.08870000000000022,-2.6327777290488332
-0.08970000000000011,-2.6653160889457292
-0.09070000000000022,-2.7049280053419507
-0.09170000000000011,-2.754442900837226
-0.09270000000000023,-2.791225394633717
-0.09370000000000012,-2.818104909331153
-0.09470000000000023,-2.8506432692280486
-0.09570000000000012,-2.8916698969241352
-0.09670000000000023,-2.9369406585198163
-0.09770000000000012,-2.9822114201154974
-0.09870000000000023,-3.002017378313608
-0.09970000000000012,-3.0373851608102336
-0.10070000000000023,-3.08972947890524
-0.10170000000000012,-3.1364149518007864
-0.10270000000000024,-3.174612156897142
-0.10370000000000013,-3.202906382894443
-0.10470000000000024,-3.238274165391069
-0.10570000000000013,-3.2920331947859403
-0.10670000000000024,-3.3429628015810815
-0.10770000000000013,-3.3740864501781123
-0.10870000000000024,-3.3967218309759533
-0.10970000000000013,-3.4419925925716344
-0.11070000000000024,-3.504239889765696
-0.11170000000000013,-3.556584207860702
-0.11270000000000002,-3.6075138146558436
-0.11370000000000013,-3.641466885852605
-0.11470000000000002,-3.669761111849905
-0.11570000000000014,-3.715031873445586
-0.11670000000000003,-3.768790902840458
-0.11770000000000014,-3.821135220935464
-0.11870000000000003,-3.8649912712312804
-0.11970000000000014,-3.9003590537279056
-0.12070000000000003,-3.9555327944226426
-0.12170000000000014,-4.014950669016974
-0.12270000000000003,-4.05597729671306
-0.12370000000000014,-4.099833347008876
-0.12470000000000003,-4.139445263405097
-0.12570000000000014,-4.190374870200238
-0.12670000000000003,-4.254036878694166
-0.12770000000000015,-4.307795908089036
-0.12870000000000004,-4.350237247084988
-0.12970000000000015,-4.398337431280399
-0.13070000000000004,-4.454925883275001
-0.13170000000000015,-4.524246736968387
-0.13270000000000004,-4.572346921163798
-0.13370000000000015,-4.597811724561368
-0.13470000000000004,-4.647326620056646
-0.13570000000000015,-4.696841515551922
-0.13670000000000004,-4.763332946645578
-0.13770000000000016,-4.82275082123991
-0.13870000000000005,-4.873680428035052
-0.13970000000000016,-4.918951189630732
-0.14070000000000005,-4.9840279094245235
-0.14170000000000016,-5.050519340518181
-0.14270000000000005,-5.114181349012108
-0.14370000000000016,-5.153793265408329
-0.14470000000000005,-5.208967006103065
-0.14570000000000016,-5.279702571096316
-0.14670000000000005,-5.332046889191323
-0.14770000000000016,-5.394294186385385
-0.14870000000000005,-5.453712060979717
-0.14970000000000017,-5.498982822575398
-0.15070000000000006,-5.57537723276811
-0.15170000000000017,-5.647527509061226
-0.15270000000000006,-5.712604228855018
-0.15370000000000017,-5.766363258249889
-0.15470000000000006,-5.813048731145436
-0.15570000000000017,-5.889443141338147
-0.15670000000000006,-5.961593417631265
-0.15770000000000017,-6.022426003525461
-0.15870000000000006,-6.077599744220197
-0.15970000000000018,-6.134188196214799
-0.16070000000000007,-6.204923761208051
-0.16170000000000018,-6.281318171400763
-0.16270000000000007,-6.339321334695229
-0.16370000000000018,-6.415715744887942
-0.16470000000000007,-6.483621887281464
-0.16570000000000018,-6.5515280296749845
-0.16670000000000007,-6.625093017267967
-0.16770000000000018,-6.684510891862298
-0.16870000000000007,-6.74958761165609
-0.16970000000000018,-6.830226155748398
-0.17070000000000007,-6.906620565941108
-0.17170000000000019,-6.98584439873355
-0.17270000000000008,-7.048091695927613
-0.1737000000000002,-7.120241972220731
-0.17470000000000008,-7.2065393615124975
-0.1757000000000002,-7.280104349105479
-0.17670000000000008,-7.379134140096031
-0.1777000000000002,-7.459772684188338
-0.17870000000000008,-7.514946424883075
-0.1797000000000002,-7.585681989876327
-0.18070000000000008,-7.66490582266877
-0.1817000000000002,-7.745544366761076
-0.18270000000000008,-7.833256467352707
-0.1837000000000002,-7.912480300145149
-0.1847000000000001,-7.993118844237457
-0.1857000000000002,-8.082245656128954
-0.1867000000000001,-8.177031313219912
-0.1877000000000002,-8.270402259011005
-0.1887000000000001,-8.34538195790385
-0.1897000000000002,-8.410458677697642
-0.1907000000000001,-8.491097221789948
-0.1917000000000001,-8.588712301480637
-0.19269999999999998,-8.669350845572946
-0.1937000000000001,-8.738671699266332
-0.19469999999999998,-8.816480820758908
-0.1957000000000001,-8.923998879548652
-0.19669999999999999,-9.020199247939473
-0.1977000000000001,-9.105081925931376
-0.1987,-9.191379315223143
-0.1997000000000001,-9.253626612417206
-0.2007,-9.337094579109243
-0.2017000000000001,-9.42622139100074
-0.2027,-9.49695695599399
-0.2037000000000001,-9.59740145828441
-0.2047,-9.675210579776985
-0.2057000000000001,-9.768581525568079
-0.2067,-9.891661408656336
-0.2077000000000001,-9.99069119964689
-0.2087,-10.0670856098396
-0.2097000000000001,-10.143480020032312
-0.2107,-10.234021543223676
-0.2117000000000001,-10.345783735913013
-0.2127,-10.45471650600262
-0.2137000000000001,-10.533940338795064
-0.2147,-10.642873108884672
-0.2157000000000001,-10.747561745074684
-0.2167,-10.838103268266046
-0.21770000000000012,-10.932888925357005
-0.2187,-11.014942180749173
-0.21970000000000012,-11.108313126540267
-0.2207,-11.205928206230956
-0.22170000000000012,-11.302128574621777
-0.2227,-11.39267009781314
-0.22370000000000012,-11.507261713102208
-0.2247,-11.603462081493031
-0.22570000000000012,-11.682685914285473
-0.2267,-11.794448106974812
-0.22770000000000012,-11.91752799006307
-0.22870000000000001,-12.000995956755107
-0.22970000000000013,-12.066072676548897
-0.23070000000000002,-12.182079003137831
-0.23170000000000013,-12.293841195827168
-0.23270000000000002,-12.390041564217992
-0.23370000000000013,-12.470680108310297
-0.23470000000000002,-12.56688047670112
-0.23570000000000013,-12.671569112891135
-0.23670000000000002,-12.770598903881686
-0.2376999999999999,-12.880946385271157
-0.23870000000000002,-12.972902619762385
-0.2396999999999999,-13.05778529775429
-0.24070000000000003,-13.158229800044706
-0.24169999999999991,-13.264333147534584
-0.24270000000000003,-13.357704093325674
-0.24369999999999992,-13.439757348717848
-0.24470000000000003,-13.52746944930948
-0.24569999999999992,-13.629328662899765
-0.24670000000000003,-13.742505566888967
-0.24769999999999992,-13.851438336978573
-0.24870000000000003,-13.946223994069532
-0.24969999999999992,-14.011300713863324
-0.25070000000000003,-14.1174040613532
-0.2516999999999999,-14.24614278964092
-0.25270000000000004,-14.345172580631472
-0.2536999999999999,-14.430055258623375
-0.25470000000000004,-14.529085049613924
-0.2556999999999999,-14.62811484060448
-0.25670000000000004,-14.741291744593681
-0.25769999999999993,-14.868615761581536
-0.25870000000000004,-14.98179266557074
-0.25969999999999993,-15.06667534356264
-0.26070000000000004,-15.165705134553193
-0.26169999999999993,-15.293029151541045
-0.26270000000000004,-15.406206055530248
-0.26369999999999993,-15.505235846520803
-0.26470000000000005,-15.590118524512702
-0.26569999999999994,-15.731589654499205
-0.26670000000000005,-15.844766558488407
-0.26769999999999994,-15.972090575476265
-0.26870000000000005,-16.071120366466815
-0.26969999999999994,-16.22673860945197
-0.27070000000000005,-16.339915513441174
-0.27169999999999994,-16.453092417430376
-0.27270000000000005,-16.622857773414182
-0.27369999999999994,-16.750181790402035
-0.27470000000000006,-16.849211581392588
-0.27569999999999995,-16.94824137238314
-0.27670000000000006,-17.089712502369647
-0.27769999999999995,-17.2453307453548
-0.27870000000000006,-17.37265476234265
-0.27969999999999995,-17.499978779330505
-0.28070000000000006,-17.641449909317007
-0.28169999999999995,-17.782921039303513
-0.28270000000000006,-17.924392169290012
-0.28369999999999995,-18.06586329927652
-0.28470000000000006,-18.19318731626437
-0.28569999999999995,-18.306364220253574
-0.28670000000000007,-18.49027668923603
-0.28769999999999996,-18.674189158218486
-0.28870000000000007,-18.829807401203638
-0.28969999999999996,-18.985425644188794
-0.29070000000000007,-19.169338113171246
-0.29169999999999996,-19.353250582153702
-0.29270000000000007,-19.523015938137508
-0.29369999999999996,-19.678634181122664
-0.2947000000000001,-19.848399537106463
-0.29569999999999996,-20.03231200608892
-0.2967000000000001,-20.21622447507137
-0.29769999999999996,-20.42843117005113
-0.2987000000000001,-20.598196526034933
-0.29969999999999997,-20.78210899501739
-0.3007000000000001,-20.980168576998494
-0.30169999999999997,-21.16408104598095
-0.3027000000000001,-21.347993514963402
-0.30369999999999997,-21.51775887094721
-0.3047000000000001,-21.701671339929664
-0.30569999999999997,-21.92802514790807
-0.3067000000000001,-22.126084729889175
-0.3077,-22.295850085872978
-0.3087000000000001,-22.522203893851387
-0.3097,-22.748557701829792
-0.3107000000000001,-22.974911509808198
-0.3117,-23.1729710917893
-0.3127000000000001,-23.41347201276636
-0.3137,-23.62567870774611
-0.3147000000000001,-23.823738289727217
-0.3157,-24.050092097705623
-0.3167000000000001,-24.304740131681328
-0.3177,-24.545241052658387
-0.3187000000000001,-24.757447747638142
-0.3197,-24.997948668615198
-0.3207000000000001,-25.266743815589557
-0.3217,-25.535538962563912
-0.3227000000000001,-25.747745657543668
-0.3237,-25.974099465522073
-0.3247000000000001,-26.20045327350048
-0.3257,-26.483395533473487
-0.3267000000000001,-26.780484906445146
-0.3277,-27.06342716641815
-0.3287000000000001,-27.332222313392506
-0.3297,-27.58687034736821
-0.3307000000000001,-27.770782816350668
-0.3317,-28.02543085032638
-0.3327000000000001,-28.308373110299385
-0.3337,-28.577168257273744
-0.3347000000000001,-28.8459634042481
-0.3357,-29.114758551222454
-0.3367000000000001,-29.411847924194117
-0.3377,-29.76552574916037
-0.3387000000000001,-30.03432089613473
-0.3397,-30.317263156107735
-0.3407000000000001,-30.600205416080744
-0.3417,-30.925589015049702
-0.3427000000000001,-31.23682550102001
-0.3437,-31.519767760993016
-0.3447000000000001,-31.83100424696332
-0.3457,-32.15638784593229
-0.3467000000000001,-32.4676243319026
-0.3477,-32.79300793087155
-0.3487000000000001,-33.09009730384321
-0.3497,-33.41548090281216
-0.3507000000000001,-33.726717388782475
-0.3517,-34.05210098775143
-0.3527000000000001,-34.34919036072309
-0.3537,-34.61798550769744
-0.3547000000000001,-34.99995755866101
-0.3557,-35.53754785260972
-0.35670000000000013,-35.87707856457733
-0.3577,-36.244903502542236
-0.35870000000000013,-36.61272844050715
-0.3597,-36.9381120394761
-0.36070000000000013,-37.249348525446415
-0.3617,-37.58887923741403
-0.3626999999999999,-37.97085128837759
-0.3637,-38.31038200034519
-0.3646999999999999,-38.664059825311455
-0.3657,-39.060178989273666
-0.3666999999999999,-39.49873949223183
-0.3677,-39.85241731719808
-0.3686999999999999,-40.220242255162994
-0.36970000000000003,-40.616361419125205
-0.3706999999999999,-40.94174501809416
-0.37170000000000003,-41.29542284306042
-0.3726999999999999,-41.56421799003478
-0.37370000000000003,-41.96033715399699
-0.3746999999999999,-42.4696332219484
-0.37570000000000003,-42.85160527291196
-0.3766999999999999,-43.219430210876865
-0.37770000000000004,-43.72872627882828
-0.3786999999999999,-44.181433894785094
-0.37970000000000004,-44.577553058747306
-0.3806999999999999,-45.00196644870681
-0.38170000000000004,-45.412232725667685
-0.38269999999999993,-45.82249900262854
-0.38370000000000004,-46.2327652795894
-0.38469999999999993,-46.65717866954891
-0.38570000000000004,-47.08159205950842
-0.38669999999999993,-47.449416997473335
-0.38770000000000004,-47.87383038743284
-0.38869999999999993,-48.312390890391
-0.38970000000000005,-48.76509850634781
-0.39069999999999994,-49.27439457429922
-0.39170000000000005,-49.78369064225064
-0.39269999999999994,-50.1939569192115
-0.39370000000000005,-50.56178185717641
-0.39469999999999994,-50.88716545614537
-0.39570000000000005,-51.36816729809948
-0.39669999999999994,-51.83502202705494
-0.39770000000000005,-52.25943541701445
-0.39869999999999994,-52.74043725896857
-0.39970000000000006,-53.22143910092268
-0.40069999999999995,-53.70244094287679
-0.40170000000000006,-54.1268543328363
-0.40269999999999995,-54.551267722795814
-0.40370000000000006,-55.088858016744524
-0.40469999999999995,-55.5840069716973
-0.40570000000000006,-56.05086170065276
-0.40669999999999995,-56.546010655605514
-0.40770000000000006,-57.097748062552874
-0.40869999999999995,-57.52216145251239
-0.40970000000000006,-58.017310407465146
-0.41069999999999995,-58.52660647541657
-0.41170000000000007,-59.02175543036933
-0.41269999999999996,-59.47446304632614
-0.41370000000000007,-59.983759114277554
-0.41469999999999996,-60.46476095623167
-0.41570000000000007,-60.94576279818578
-0.41669999999999996,-61.46920597913584
-0.41770000000000007,-62.04923761208051
-0.41869999999999996,-62.629269245025185
-0.4197000000000001,-63.20930087796983
-0.42069999999999996,-63.71859694592126
-0.4217000000000001,-64.213745900874
-0.42269999999999996,-64.66645351683083
-0.4237000000000001,-65.09086690679034
-0.42469999999999997,-65.5011331837512
-0.4257000000000001,-65.9821350257053
-0.42669999999999997,-66.47728398065809
-0.4277000000000001,-67.02902138760544
-0.42869999999999997,-67.5807587945528
-0.4297000000000001,-68.10420197550286
-0.43069999999999997,-68.62764515645293
-0.4317000000000001,-69.151088337403
-0.4327,-69.75941419634496
-0.4337000000000001,-70.18382758630447
-0.4347,-70.70727076725453
-0.4357000000000001,-71.38633219118975
-0.4367,-71.93806959813712
-0.4377000000000001,-72.53224834408043
-0.4387,-73.0556915250305
-0.4397000000000001,-73.5649875929819
-0.4407,-74.14501922592657
-0.4417000000000001,-74.75334508486853
-0.4427,-75.31922960481455
-0.4437000000000001,-76.05487948074436
-0.4447,-76.67735245268499
-0.4457000000000001,-77.20079563363505
-0.4467,-77.76668015358106
-0.4477000000000001,-78.38915312552167
-0.4487,-79.11065588845284
-0.4497000000000001,-80.03021823336512
-0.4507,-80.44048451032599
-0.4517000000000001,-80.73757388329766
-0.4527,-81.3176055162423
-0.4537000000000001,-81.82690158419373
-0.4547,-82.29375631314919
-0.4557000000000001,-82.95867062408576
-0.4567,-83.77920317800748
-0.4577000000000001,-84.33094058495485
-0.4587,-84.89682510490086
-0.4597000000000001,-85.2222087038698
-0.4607,-85.75979899781852
-0.4617000000000001,-86.49544887374834
-0.4627,-87.17451029768355
-0.4637000000000001,-87.82527749562148
-0.4647,-88.63166293654454
-0.4657000000000001,-89.33901858647707
-0.4667,-90.03222712341093
-0.4677000000000001,-90.7820241123394
-0.4687,-91.46108553627462
-0.4697000000000001,-92.11185273421255
-0.4707,-92.73432570615316
-0.4717000000000001,-93.28606311310051
-0.4727,-93.88024185904384
-0.4737000000000001,-94.44612637898985
-0.4747,-95.04030512493317
-0.4757000000000001,-95.6344838708765
-0.4767,-96.29939818181305
-0.4777000000000001,-97.00675383174556
-0.4787,-97.68581525568078
-0.4797000000000001,-98.2799940016241
-0.4807,-99.00149676455526
-0.48170000000000013,-99.76544086648238
-0.4827,-100.44450229041762
-0.48370000000000013,-100.99623969736497
-0.4847,-101.71774246029614
-0.48570000000000013,-102.36850965823406
-0.4867,-102.1563029632543
-0.48570000000000013,-101.08112237535688
-0.4847,-100.06253023945405
-0.48370000000000013,-99.17126212053905
-0.4827,-98.32243534062005
-0.48170000000000013,-97.54434412569428
-0.4807,-96.86528270175907
-0.4797000000000001,-96.32769240781035
-0.4787,-95.46471851489268
-0.4777000000000001,-94.67248018696824
-0.4767,-93.73877072905732
-0.4757000000000001,-92.6918843671572
-0.4747,-91.92794026523009
-0.4737000000000001,-91.12155482430701
-0.4727,-90.17369825339743
-0.4717000000000001,-89.19754745649055
-0.4707,-88.32042645057423
-0.4697000000000001,-87.49989389665252
-0.4687,-86.6227728907362
-0.4677000000000001,-85.84468167581042
-0.4667,-85.1939144778725
-0.4657000000000001,-84.5148530539373
-0.4647,-83.59529070902502
-0.4637000000000001,-82.8313466070979
-0.4627,-82.08154961816942
