Potential V vs RHE, Current mA cm-2
0.013299999999999867,0.059771552419297796
0.012299999999999978,0.051113519264123775
0.011299999999999866,0.04692597381652327
0.010299999999999976,0.04316284175888227
0.009299999999999864,0.03966850484821563
0.008299999999999974,0.036032696807562485
0.007299999999999862,0.03184515135996198
0.006299999999999972,0.03157635621298762
0.00529999999999986,0.029199641229214358
0.0042999999999999705,0.02682292624544109
0.0032999999999998586,0.024035944984706972
0.0022999999999999687,0.020683079204026837
0.0012999999999998568,0.019013719870186095
0.00029999999999996696,0.018447835350240076
-0.000700000000000145,0.015377911829532949
-0.0017000000000000348,0.0127295722761856
-0.0027000000000001467,0.012030704894052273
-0.0037000000000000366,0.010217045007625295
-0.0047000000000001485,0.00854202682858509
-0.005700000000000038,0.0071457067756183
-0.00670000000000015,0.005051934051818046
-0.00770000000000004,0.004354481380984583
-0.008700000000000152,0.002819519620631018
-0.009700000000000042,0.002819519620631018
-0.010700000000000154,0.0007257468968307638
-0.011700000000000044,-0.0015080822456561291
-0.012700000000000156,-0.0026242894612496428
-0.013700000000000045,-0.004019194802916569
-0.014700000000000157,-0.005136816729809948
-0.015700000000000047,-0.00443794934767662
-0.01670000000000016,-0.007369231160996976
-0.01770000000000005,-0.008206740250517076
-0.01870000000000016,-0.007928042124443665
-0.01970000000000005,-0.008346796669203717
-0.020700000000000163,-0.009881758429557281
-0.021700000000000053,-0.012254229279430947
-0.022700000000000164,-0.012672983824190999
-0.023700000000000054,-0.013371851206324326
-0.024700000000000166,-0.012672983824190999
-0.025700000000000056,-0.013231794787637688
-0.026700000000000168,-0.01588720789748436
-0.027700000000000058,-0.01615600304445872
-0.02870000000000017,-0.016721887564404736
-0.02970000000000006,-0.017273624971352097
-0.03070000000000017,-0.017839509491298113
-0.03170000000000006,-0.019933282215098366
-0.03270000000000017,-0.02007475334508487
-0.03370000000000006,-0.019367397695152354
-0.034700000000000175,-0.019367397695152354
-0.035700000000000065,-0.019240073678164497
-0.03670000000000018,-0.021602641548939108
-0.03770000000000007,-0.023696414272739365
-0.03870000000000018,-0.023696414272739365
-0.03970000000000007,-0.022578792345845984
-0.04070000000000018,-0.022168526068885124
-0.04170000000000007,-0.02426229879268538
-0.04270000000000018,-0.024814036199632745
-0.04370000000000007,-0.024955507329619247
-0.044700000000000184,-0.02453109393965974
-0.045700000000000074,-0.023286147995778505
-0.046700000000000186,-0.026356071516485634
-0.047700000000000076,-0.02509697845960575
-0.04870000000000019,-0.02802543085032638
-0.04970000000000008,-0.02649754264647214
-0.05070000000000019,-0.025507244736566608
-0.05170000000000008,-0.028718639387260245
-0.05270000000000019,-0.028166901980312884
-0.05370000000000008,-0.027049280053419503
-0.05470000000000019,-0.02802543085032638
-0.05570000000000008,-0.028166901980312884
-0.056700000000000195,-0.029836261314153626
-0.057700000000000085,-0.028860110517246747
-0.058700000000000196,-0.029284523907206258
-0.059700000000000086,-0.029001581647233248
-0.0607000000000002,-0.029143052777219756
-0.06170000000000009,-0.03166123889097952
-0.0627000000000002,-0.03166123889097952
-0.06370000000000009,-0.030543616964086147
-0.0647000000000002,-0.03040214583409964
-0.06570000000000009,-0.03151976776099302
-0.0667000000000002,-0.032637389687886396
-0.0677000000000001,-0.03235444742791339
-0.0687000000000002,-0.03166123889097952
-0.0697000000000001,-0.030685088094072648
-0.07070000000000021,-0.03137829663100652
-0.0717000000000001,-0.03249591855789989
-0.07270000000000021,-0.03375501161477978
-0.0737000000000001,-0.032637389687886396
-0.07470000000000021,-0.03361354048479327
-0.0757000000000001,-0.03375501161477978
-0.07670000000000021,-0.03584878433858003
-0.0777000000000001,-0.034999957558661005
-0.07870000000000021,-0.03347206935480676
-0.0797000000000001,-0.03416527789174064
-0.08070000000000022,-0.03361354048479327
-0.0817000000000001,-0.03625905061554088
-0.08270000000000022,-0.03444822015171364
-0.08370000000000011,-0.034306749021727145
-0.08470000000000022,-0.035282899818634014
-0.08570000000000011,-0.03514142868864751
-0.08670000000000022,-0.03625905061554088
-0.08770000000000011,-0.03625905061554088
-0.08870000000000022,-0.0369664062654734
-0.08970000000000011,-0.035565842078607024
-0.09070000000000022,-0.0368249351354869
-0.09170000000000011,-0.037518143672420776
-0.09270000000000023,-0.0366834640055004
-0.09370000000000012,-0.03584878433858003
-0.09470000000000023,-0.0368249351354869
-0.09570000000000012,-0.036117579485554385
-0.09670000000000023,-0.03947044526623452
-0.09770000000000012,-0.03709373028246127
-0.09870000000000023,-0.03765961480240728
-0.09970000000000012,-0.0369664062654734
-0.10070000000000023,-0.039328974136248016
-0.10170000000000012,-0.03975338752620753
-0.10270000000000024,-0.038777236729300654
-0.10370000000000013,-0.03737667254243427
-0.10470000000000024,-0.039046031876275006
-0.10570000000000013,-0.037518143672420776
-0.10670000000000024,-0.039611916396221025
-0.10770000000000013,-0.03918750300626152
-0.10870000000000024,-0.039328974136248016
-0.10970000000000013,-0.03918750300626152
-0.11070000000000024,-0.03975338752620753
-0.11170000000000013,-0.04128127573006177
-0.11270000000000002,-0.04142274686004828
-0.11370000000000013,-0.040729538323114406
-0.11470000000000002,-0.0403051249331549
-0.11570000000000014,-0.04156421799003478
-0.11670000000000003,-0.04142274686004828
-0.11770000000000014,-0.04239889765695515
-0.11870000000000003,-0.04170568912002128
-0.11970000000000014,-0.04113980460007527
-0.12070000000000003,-0.04142274686004828
-0.12170000000000014,-0.042823311046914656
-0.12270000000000003,-0.041012480583087416
-0.12370000000000014,-0.04268183991692816
-0.12470000000000003,-0.04156421799003478
-0.12570000000000014,-0.04254036878694165
-0.12670000000000003,-0.04365799071383503
-0.12770000000000015,-0.04365799071383503
-0.12870000000000004,-0.04351651958384853
-0.12970000000000015,-0.04394093297380804
-0.13070000000000004,-0.042823311046914656
-0.13170000000000015,-0.044223875233781046
-0.13270000000000004,-0.044492670380755404
-0.13370000000000015,-0.04408240410379454
-0.13470000000000004,-0.04337504845386203
-0.13570000000000015,-0.044223875233781046
-0.13670000000000004,-0.044492670380755404
-0.13770000000000016,-0.045327350047675775
-0.13870000000000005,-0.045893234567621795
-0.13970000000000016,-0.04491708377071492
-0.14070000000000005,-0.04491708377071492
-0.14170000000000016,-0.04672791423454216
-0.14270000000000005,-0.046317647957581295
-0.14370000000000016,-0.046317647957581295
-0.14470000000000005,-0.04784553616143554
-0.14570000000000016,-0.046586443104555654
-0.14670000000000005,-0.04770406503144904
-0.14770000000000016,-0.04756259390146254
-0.14870000000000005,-0.04756259390146254
-0.14970000000000017,-0.0461761768275948
-0.15070000000000006,-0.046869385364528664
-0.15170000000000017,-0.04868021582835592
-0.15270000000000006,-0.049939308885235796
-0.15370000000000017,-0.04951489549527628
-0.15470000000000006,-0.048821686958342415
-0.15570000000000017,-0.048821686958342415
-0.15670000000000006,-0.050080780015222294
-0.15770000000000017,-0.049939308885235796
-0.15870000000000006,-0.05050519340518181
-0.15970000000000018,-0.04938757147828843
-0.16070000000000007,-0.04896315808832892
-0.16170000000000018,-0.051481344202088684
-0.16270000000000007,-0.05077398855215617
-0.16370000000000018,-0.05119840194211568
-0.16470000000000007,-0.05217455273902255
-0.16570000000000018,-0.051481344202088684
-0.16670000000000007,-0.053150703535929426
-0.16770000000000018,-0.05217455273902255
-0.16870000000000007,-0.052316023869009055
-0.16970000000000018,-0.053150703535929426
-0.17070000000000007,-0.053433645795902436
-0.17170000000000019,-0.05398538320284981
-0.17270000000000008,-0.05412685433283631
-0.1737000000000002,-0.0538439120728633
-0.17470000000000008,-0.053150703535929426
-0.1757000000000002,-0.054820062869770175
-0.17670000000000008,-0.05524447625972968
-0.1777000000000002,-0.056362098186623064
-0.17870000000000008,-0.05467859173978367
-0.1797000000000002,-0.055527418519702686
-0.18070000000000008,-0.055668889649689184
-0.1817000000000002,-0.05733824898352994
-0.18270000000000008,-0.05776266237348945
-0.1837000000000002,-0.05762119124350294
-0.1847000000000001,-0.05733824898352994
-0.1857000000000002,-0.056362098186623064
-0.1867000000000001,-0.05873881317039633
-0.1877000000000002,-0.05762119124350294
-0.1887000000000001,-0.0598564350972897
-0.1897000000000002,-0.05971496396730319
-0.1907000000000001,-0.05831439978043681
-0.1917000000000001,-0.06054964363422357
-0.19269999999999998,-0.06152579443113045
-0.1937000000000001,-0.05971496396730319
-0.19469999999999998,-0.05998375911427755
-0.1957000000000001,-0.0598564350972897
-0.19669999999999999,-0.06305368263498468
-0.1977000000000001,-0.060832585894196586
-0.1987,-0.06207753183807782
-0.1997000000000001,-0.06319515376497119
-0.2007,-0.06138432330114395
-0.2017000000000001,-0.0636195671549307
-0.2027,-0.06473718908182408
-0.2037000000000001,-0.0634780960249442
-0.2047,-0.0634780960249442
-0.2057000000000001,-0.0639025094149037
-0.2067,-0.06640654841566482
-0.2077000000000001,-0.06585481100871747
-0.2087,-0.06543039761875795
-0.2097000000000001,-0.06697243293561084
-0.2107,-0.06640654841566482
-0.2117000000000001,-0.06835885000947857
-0.2127,-0.0673826992125717
-0.2137000000000001,-0.0673826992125717
-0.2147,-0.06878326339943809
-0.2157000000000001,-0.0692076767893976
-0.2167,-0.07073556499325184
-0.21770000000000012,-0.07115997838321135
-0.2187,-0.07045262273327882
-0.21970000000000012,-0.07073556499325184
-0.2207,-0.07115997838321135
-0.22170000000000012,-0.07282933771705208
-0.2227,-0.07422990190391847
-0.22370000000000012,-0.07213612918011822
-0.2247,-0.07254639545707908
-0.22570000000000012,-0.07254639545707908
-0.2267,-0.07506458157083885
-0.22770000000000012,-0.07534752383081185
-0.22870000000000001,-0.07437137303390498
-0.22970000000000013,-0.07575779010777271
-0.23070000000000002,-0.07548899496079836
-0.23170000000000013,-0.0771583542946391
-0.23270000000000002,-0.0768754120346661
-0.23370000000000013,-0.0774412965546121
-0.23470000000000002,-0.0767339409046796
-0.23570000000000013,-0.07868624249849335
-0.23670000000000002,-0.07896918475846634
-0.2376999999999999,-0.07925212701843935
-0.23870000000000002,-0.07994533555537323
-0.2396999999999999,-0.07896918475846634
-0.24070000000000003,-0.0809214863522801
-0.24169999999999991,-0.08232205053914649
-0.24270000000000003,-0.08218057940915997
-0.24369999999999992,-0.08232205053914649
-0.24470000000000003,-0.08301525907608036
-0.24569999999999992,-0.08329820133605337
-0.24670000000000003,-0.08384993874300072
-0.24769999999999992,-0.08399140987298723
-0.24870000000000003,-0.08358114359602638
-0.24969999999999992,-0.08455729439293323
-0.25070000000000003,-0.08608518259678749
-0.2516999999999999,-0.086509595986747
-0.25270000000000004,-0.08622665372677399
-0.2536999999999999,-0.08720280452368086
-0.25470000000000004,-0.08791016017361337
-0.2556999999999999,-0.08776868904362688
-0.25670000000000004,-0.08860336871054725
-0.25769999999999993,-0.08943804837746762
-0.25870000000000004,-0.08888631097052026
-0.25969999999999993,-0.08986246176742714
-0.26070000000000004,-0.09027272804438799
-0.26169999999999993,-0.09110740771130836
-0.26270000000000004,-0.09209770562121389
-0.26369999999999993,-0.09098008369432051
-0.26470000000000005,-0.09098008369432051
-0.26569999999999994,-0.09153182110126787
-0.26670000000000005,-0.09431880236200199
-0.26769999999999994,-0.09431880236200199
-0.26870000000000005,-0.09543642428889539
-0.26969999999999994,-0.0947432157519615
-0.27070000000000005,-0.09502615801193452
-0.27169999999999994,-0.09738872588270912
-0.27270000000000005,-0.09683698847576175
-0.27369999999999994,-0.0958608376788549
-0.27470000000000006,-0.09697845960574826
-0.27569999999999995,-0.09767166814268213
-0.27670000000000006,-0.09823755266262815
-0.27769999999999995,-0.09907223232954852
-0.27870000000000006,-0.09907223232954852
-0.27969999999999995,-0.0997654408664824
-0.28070000000000006,-0.10018985425644189
-0.28169999999999995,-0.1003313253864284
-0.28270000000000006,-0.10060012053340277
-0.28369999999999995,-0.10185921359028265
-0.28470000000000006,-0.10185921359028265
-0.28569999999999995,-0.10256656924021516
-0.28670000000000007,-0.10340124890713552
-0.28769999999999996,-0.10325977777714902
-0.28870000000000007,-0.10256656924021516
-0.28969999999999996,-0.10507060824097628
-0.29070000000000007,-0.1040944574440694
-0.29169999999999996,-0.10604675903788315
-0.29270000000000007,-0.10673996757481702
-0.29369999999999996,-0.1079990606316969
-0.2947000000000001,-0.10828200289166989
-0.29569999999999996,-0.10730585209476304
-0.2967000000000001,-0.10911668255859029
-0.29769999999999996,-0.10995136222551065
-0.2987000000000001,-0.10954109594854979
-0.29969999999999997,-0.10954109594854979
-0.3007000000000001,-0.1098240382085228
-0.30169999999999997,-0.11149339754236354
-0.3027000000000001,-0.11232807720928391
-0.30369999999999997,-0.11065871787544318
-0.3047000000000001,-0.11372864139615031
-0.30569999999999997,-0.11275249059924342
-0.3067000000000001,-0.11456332106307067
-0.3077,-0.11401158365612331
-0.3087000000000001,-0.11484626332304368
-0.3097,-0.11568094298996405
-0.3107000000000001,-0.11470479219305717
-0.3117,-0.11637415152689792
-0.3127000000000001,-0.11735030232380478
-0.3137,-0.11791618684375081
-0.3147000000000001,-0.11777471571376431
-0.3157,-0.11763324458377779
-0.3167000000000001,-0.11944407504760506
-0.3177,-0.12070316810448493
-0.3187000000000001,-0.1219622611613648
-0.3197,-0.12112758149444444
-0.3207000000000001,-0.1219622611613648
-0.3217,-0.12405603388516506
-0.3227000000000001,-0.12446630016212593
-0.3237,-0.12336282534823118
-0.3247000000000001,-0.12405603388516506
-0.3257,-0.12419750501515157
-0.3267000000000001,-0.1268430151458992
-0.3277,-0.12629127773895182
-0.3287000000000001,-0.1269844862758857
-0.3297,-0.1268430151458992
-0.3307000000000001,-0.1268430151458992
-0.3317,-0.12852652159273859
-0.3327000000000001,-0.1297714675366198
-0.3337,-0.12796063707279257
-0.3347000000000001,-0.13200671139040657
-0.3357,-0.1307476183335267
-0.3367000000000001,-0.13257259591035261
-0.3377,-0.13257259591035261
-0.3387000000000001,-0.13172376913043357
-0.3397,-0.13312433331729995
-0.3407000000000001,-0.1338175418542338
-0.3417,-0.13466636863415282
-0.3427000000000001,-0.13424195524419333
-0.3437,-0.13647719909798006
-0.3447000000000001,-0.13787776328484647
-0.3457,-0.13814655843182086
-0.3467000000000001,-0.1392641803587142
-0.3477,-0.1406647445455806
-0.3487000000000001,-0.14038180228560757
-0.3497,-0.14108915793554008
-0.3507000000000001,-0.14038180228560757
-0.3517,-0.1437346680662877
-0.3527000000000001,-0.1427443701563822
-0.3537,-0.1433102546763282
-0.3547000000000001,-0.14472496597619325
-0.3557,-0.14415908145624726
-0.35670000000000013,-0.14727144631595032
-0.3577,-0.14882762874580185
-0.35870000000000013,-0.14896909987578838
-0.3597,-0.14911057100577488
-0.36070000000000013,-0.1502423400456669
-0.3617,-0.15236440699546444
-0.3626999999999999,-0.15321323377538346
-0.3637,-0.15236440699546444
-0.3646999999999999,-0.15377911829532948
-0.3657,-0.15377911829532948
-0.3666999999999999,-0.15689148315503257
-0.3677,-0.15575971411514053
-0.3686999999999999,-0.1585891367148706
-0.36970000000000003,-0.15929649236480314
-0.3706999999999999,-0.16028679027470866
-0.37170000000000003,-0.16085267479465465
-0.3726999999999999,-0.1629747417444522
-0.37370000000000003,-0.16368209739438472
-0.3746999999999999,-0.16523827982423628
-0.37570000000000003,-0.16509680869424978
-0.3766999999999999,-0.16721887564404736
-0.37770000000000004,-0.1689165292038854
-0.3786999999999999,-0.1697653559838044
-0.37970000000000004,-0.17061418276372342
-0.3806999999999999,-0.17103859615368294
-0.38170000000000004,-0.17471684553333205
-0.38269999999999993,-0.17655597022315658
-0.38370000000000004,-0.17599008570321056
-0.38469999999999993,-0.17782921039303512
-0.38570000000000004,-0.1782536237829946
-0.38669999999999993,-0.18009274847281917
-0.38770000000000004,-0.18179040203265723
-0.38869999999999993,-0.18348805559249526
-0.38970000000000005,-0.18419541124242778
-0.39069999999999994,-0.1856101225422928
-0.39170000000000005,-0.18645894932221183
-0.39269999999999994,-0.18985425644188791
-0.39370000000000005,-0.19042014096183393
-0.39469999999999994,-0.192966621301591
-0.39570000000000005,-0.19395691921149652
-0.39669999999999994,-0.19565457277133455
-0.39770000000000005,-0.19876693763103764
-0.39869999999999994,-0.19876693763103764
-0.39970000000000006,-0.2011719468408082
-0.40069999999999995,-0.20046459119087567
-0.40170000000000006,-0.20527460961041682
-0.40269999999999995,-0.20541608074040332
-0.40370000000000006,-0.2075381476902009
-0.40469999999999995,-0.2082455033401334
-0.40570000000000006,-0.21135786819983648
-0.40669999999999995,-0.2119237527197825
-0.40770000000000006,-0.21701671339929662
-0.40869999999999995,-0.21744112678925615
-0.40970000000000006,-0.2189973092191077
-0.41069999999999995,-0.2195631937390537
-0.41170000000000007,-0.2235243853786758
-0.41269999999999996,-0.22748557701829786
-0.41370000000000007,-0.2267782213683654
-0.41469999999999996,-0.22974911509808196
-0.41570000000000007,-0.23144676865792
-0.41669999999999996,-0.23484207577759608
-0.41770000000000007,-0.23724708498736666
-0.41869999999999996,-0.2365397293374341
-0.4197000000000001,-0.24106680549700227
-0.42069999999999996,-0.24502799713662435
-0.4217000000000001,-0.2460182950465299
-0.42269999999999996,-0.25026242894612494
-0.4237000000000001,-0.2521015536359495
-0.42469999999999997,-0.25394067832577405
-0.4257000000000001,-0.2571945143154637
-0.42669999999999997,-0.25903363900528825
-0.4277000000000001,-0.2621460038649913
-0.42869999999999997,-0.2646924842047484
-0.4297000000000001,-0.2666730800245595
-0.43069999999999997,-0.2686536758443705
-0.4317000000000001,-0.27148309844410057
-0.4327,-0.2751613478237496
-0.4337000000000001,-0.27898106833338526
-0.4347,-0.2799713662432907
-0.4357000000000001,-0.28251784658304785
-0.4367,-0.2854887403127644
-0.4377000000000001,-0.290157287602319
-0.4387,-0.2915719989021841
-0.4397000000000001,-0.29482583489187364
-0.4407,-0.2976552574916037
-0.4417000000000001,-0.30105056461127977
-0.4427,-0.3050117562509019
-0.4437000000000001,-0.3071338232006995
-0.4447,-0.3108120725803486
-0.4457000000000001,-0.3139244374400516
-0.4467,-0.3181685713396467
-0.4477000000000001,-0.3219882918492823
-0.4487,-0.3248177144490124
-0.4497000000000001,-0.328637434958648
-0.4507,-0.3313253864283916
-0.4517000000000001,-0.3345792224180812
-0.4527,-0.3385404140577033
-0.4537000000000001,-0.3405210098775144
-0.4547,-0.34434073038714996
-0.4557000000000001,-0.3499995755866101
-0.4567,-0.35240458479638065
-0.4577000000000001,-0.3580634299958408
-0.4587,-0.3610343237255574
-0.4597000000000001,-0.3652784576251525
-0.4607,-0.36810788022488256
-0.4617000000000001,-0.3724934852544642
-0.4627,-0.3780108593239378
-0.4637000000000001,-0.3809817530536544
-0.4647,-0.385933242603182
-0.4657000000000001,-0.38862119407292556
-0.4667,-0.3944215104023722
-0.4677000000000001,-0.39937299995189984
-0.4687,-0.4020609514216434
-0.4697000000000001,-0.40531478741133303
-0.4707,-0.40970039244091466
-0.4717000000000001,-0.41748130459017235
-0.4727,-0.42200838074974045
-0.4737000000000001,-0.42568663012938956
-0.4747,-0.4307795908089037
-0.4757000000000001,-0.4343163690585663
-0.4767,-0.43955080086806686
-0.4777000000000001,-0.4457755305874731
-0.4787,-0.45086849126698714
-0.4797000000000001,-0.45511262516658224
-0.4807,-0.4573761632463663
-0.48170000000000013,-0.46544001765559706
-0.4827,-0.47053297833511115
-0.48370000000000013,-0.47590888127459835
-0.4847,-0.4807188996941395
-0.48570000000000013,-0.48651921602358617
