July 13, 2024   08:27:28
Cyclic Voltammetry
File: c:/users/guazh/data/20240709_batch67/2024-07-10-exp30\exp30-2024-07-13t08_14_45-h2koh\exp30_cv_50mvs_efin_-1700mv.bin
Data Source:  Experiment
Instrument Model:  CHI760E
Header: CV ran at 50 mVs
Note: 

Init E (V) = -1
High E (V) = -1
Low E (V) = -1.7
Final E (V) = -1
Init P/N = N
Scan Rate (V/s) = 0.05
Segment = 7
Sample Interval (V) = 0.001
Quiet Time (sec) = 60
Sensitivity (A/V) = 0.001
Comp R (ohm) = 1.8

Results:

Channel 1:
Segment 1:

Segment 2:

Segment 3:

Segment 4:

Segment 5:

Segment 6:

Segment 7:

Potential/V, Current/A

-1.000, -1.547e-6
-1.001, -4.550e-7
-1.002, 2.553e-7
-1.003, 6.283e-7
-1.004, 7.575e-7
-1.005, 9.390e-7
-1.006, 1.190e-6
-1.007, 1.518e-6
-1.008, 1.696e-6
-1.009, 1.726e-6
-1.010, 1.775e-6
-1.011, 1.939e-6
-1.012, 2.154e-6
-1.013, 2.276e-6
-1.014, 2.294e-6
-1.015, 2.329e-6
-1.016, 2.485e-6
-1.017, 2.672e-6
-1.018, 2.737e-6
-1.019, 2.706e-6
-1.020, 2.813e-6
-1.021, 3.030e-6
-1.022, 3.029e-6
-1.023, 3.190e-6
-1.024, 3.187e-6
-1.025, 3.189e-6
-1.026, 3.361e-6
-1.027, 3.414e-6
-1.028, 3.553e-6
-1.029, 3.559e-6
-1.030, 3.593e-6
-1.031, 3.646e-6
-1.032, 3.784e-6
-1.033, 3.883e-6
-1.034, 3.808e-6
-1.035, 3.814e-6
-1.036, 3.900e-6
-1.037, 4.099e-6
-1.038, 4.057e-6
-1.039, 4.091e-6
-1.040, 4.016e-6
-1.041, 4.266e-6
-1.042, 4.356e-6
-1.043, 4.362e-6
-1.044, 4.379e-6
-1.045, 4.317e-6
-1.046, 4.480e-6
-1.047, 4.615e-6
-1.048, 4.634e-6
-1.049, 4.587e-6
-1.050, 4.531e-6
-1.051, 4.721e-6
-1.052, 4.773e-6
-1.053, 4.853e-6
-1.054, 4.818e-6
-1.055, 4.788e-6
-1.056, 4.891e-6
-1.057, 4.996e-6
-1.058, 5.106e-6
-1.059, 5.005e-6
-1.060, 5.029e-6
-1.061, 5.098e-6
-1.062, 5.206e-6
-1.063, 5.330e-6
-1.064, 5.212e-6
-1.065, 5.174e-6
-1.066, 5.351e-6
-1.067, 5.534e-6
-1.068, 5.468e-6
-1.069, 5.449e-6
-1.070, 5.377e-6
-1.071, 5.516e-6
-1.072, 5.622e-6
-1.073, 5.591e-6
-1.074, 5.569e-6
-1.075, 5.579e-6
-1.076, 5.730e-6
-1.077, 5.820e-6
-1.078, 5.843e-6
-1.079, 5.759e-6
-1.080, 5.747e-6
-1.081, 5.809e-6
-1.082, 5.953e-6
-1.083, 6.017e-6
-1.084, 5.904e-6
-1.085, 5.948e-6
-1.086, 5.974e-6
-1.087, 6.129e-6
-1.088, 6.127e-6
-1.089, 6.058e-6
-1.090, 6.067e-6
-1.091, 6.103e-6
-1.092, 6.259e-6
-1.093, 6.284e-6
-1.094, 6.269e-6
-1.095, 6.240e-6
-1.096, 6.257e-6
-1.097, 6.425e-6
-1.098, 6.431e-6
-1.099, 6.411e-6
-1.100, 6.377e-6
-1.101, 6.410e-6
-1.102, 6.566e-6
-1.103, 6.636e-6
-1.104, 6.525e-6
-1.105, 6.524e-6
-1.106, 6.624e-6
-1.107, 6.680e-6
-1.108, 6.759e-6
-1.109, 6.646e-6
-1.110, 6.687e-6
-1.111, 6.730e-6
-1.112, 6.870e-6
-1.113, 6.846e-6
-1.114, 6.810e-6
-1.115, 6.834e-6
-1.116, 6.884e-6
-1.117, 6.969e-6
-1.118, 6.979e-6
-1.119, 6.947e-6
-1.120, 6.985e-6
-1.121, 7.052e-6
-1.122, 7.187e-6
-1.123, 7.179e-6
-1.124, 7.165e-6
-1.125, 7.068e-6
-1.126, 7.190e-6
-1.127, 7.262e-6
-1.128, 7.372e-6
-1.129, 7.248e-6
-1.130, 7.287e-6
-1.131, 7.298e-6
-1.132, 7.540e-6
-1.133, 7.524e-6
-1.134, 7.324e-6
-1.135, 7.336e-6
-1.136, 7.469e-6
-1.137, 7.581e-6
-1.138, 7.632e-6
-1.139, 7.533e-6
-1.140, 7.526e-6
-1.141, 7.654e-6
-1.142, 7.775e-6
-1.143, 7.855e-6
-1.144, 7.702e-6
-1.145, 7.728e-6
-1.146, 7.774e-6
-1.147, 8.000e-6
-1.148, 7.952e-6
-1.149, 7.814e-6
-1.150, 7.955e-6
-1.151, 7.970e-6
-1.152, 8.090e-6
-1.153, 8.112e-6
-1.154, 8.107e-6
-1.155, 8.019e-6
-1.156, 8.147e-6
-1.157, 8.280e-6
-1.158, 8.273e-6
-1.159, 8.271e-6
-1.160, 8.254e-6
-1.161, 8.375e-6
-1.162, 8.413e-6
-1.163, 8.523e-6
-1.164, 8.428e-6
-1.165, 8.424e-6
-1.166, 8.563e-6
-1.167, 8.643e-6
-1.168, 8.665e-6
-1.169, 8.582e-6
-1.170, 8.613e-6
-1.171, 8.718e-6
-1.172, 8.904e-6
-1.173, 8.864e-6
-1.174, 8.869e-6
-1.175, 8.811e-6
-1.176, 8.943e-6
-1.177, 9.037e-6
-1.178, 9.130e-6
-1.179, 9.064e-6
-1.180, 9.073e-6
-1.181, 9.149e-6
-1.182, 9.246e-6
-1.183, 9.338e-6
-1.184, 9.215e-6
-1.185, 9.329e-6
-1.186, 9.478e-6
-1.187, 9.547e-6
-1.188, 9.553e-6
-1.189, 9.514e-6
-1.190, 9.522e-6
-1.191, 9.678e-6
-1.192, 9.721e-6
-1.193, 9.740e-6
-1.194, 9.720e-6
-1.195, 9.794e-6
-1.196, 9.871e-6
-1.197, 1.000e-5
-1.198, 1.003e-5
-1.199, 1.005e-5
-1.200, 1.004e-5
-1.201, 1.019e-5
-1.202, 1.027e-5
-1.203, 1.030e-5
-1.204, 1.033e-5
-1.205, 1.025e-5
-1.206, 1.047e-5
-1.207, 1.058e-5
-1.208, 1.062e-5
-1.209, 1.060e-5
-1.210, 1.061e-5
-1.211, 1.070e-5
-1.212, 1.083e-5
-1.213, 1.088e-5
-1.214, 1.081e-5
-1.215, 1.090e-5
-1.216, 1.105e-5
-1.217, 1.127e-5
-1.218, 1.122e-5
-1.219, 1.114e-5
-1.220, 1.122e-5
-1.221, 1.141e-5
-1.222, 1.153e-5
-1.223, 1.146e-5
-1.224, 1.156e-5
-1.225, 1.157e-5
-1.226, 1.170e-5
-1.227, 1.184e-5
-1.228, 1.184e-5
-1.229, 1.190e-5
-1.230, 1.193e-5
-1.231, 1.207e-5
-1.232, 1.217e-5
-1.233, 1.223e-5
-1.234, 1.220e-5
-1.235, 1.237e-5
-1.236, 1.239e-5
-1.237, 1.254e-5
-1.238, 1.263e-5
-1.239, 1.261e-5
-1.240, 1.271e-5
-1.241, 1.281e-5
-1.242, 1.301e-5
-1.243, 1.297e-5
-1.244, 1.304e-5
-1.245, 1.297e-5
-1.246, 1.327e-5
-1.247, 1.342e-5
-1.248, 1.345e-5
-1.249, 1.347e-5
-1.250, 1.347e-5
-1.251, 1.367e-5
-1.252, 1.385e-5
-1.253, 1.387e-5
-1.254, 1.388e-5
-1.255, 1.396e-5
-1.256, 1.416e-5
-1.257, 1.424e-5
-1.258, 1.432e-5
-1.259, 1.428e-5
-1.260, 1.436e-5
-1.261, 1.459e-5
-1.262, 1.471e-5
-1.263, 1.474e-5
-1.264, 1.479e-5
-1.265, 1.489e-5
-1.266, 1.507e-5
-1.267, 1.517e-5
-1.268, 1.524e-5
-1.269, 1.532e-5
-1.270, 1.535e-5
-1.271, 1.554e-5
-1.272, 1.570e-5
-1.273, 1.575e-5
-1.274, 1.582e-5
-1.275, 1.587e-5
-1.276, 1.607e-5
-1.277, 1.620e-5
-1.278, 1.630e-5
-1.279, 1.631e-5
-1.280, 1.641e-5
-1.281, 1.656e-5
-1.282, 1.671e-5
-1.283, 1.681e-5
-1.284, 1.687e-5
-1.285, 1.694e-5
-1.286, 1.716e-5
-1.287, 1.736e-5
-1.288, 1.738e-5
-1.289, 1.741e-5
-1.290, 1.752e-5
-1.291, 1.774e-5
-1.292, 1.795e-5
-1.293, 1.799e-5
-1.294, 1.800e-5
-1.295, 1.816e-5
-1.296, 1.839e-5
-1.297, 1.857e-5
-1.298, 1.857e-5
-1.299, 1.864e-5
-1.300, 1.878e-5
-1.301, 1.904e-5
-1.302, 1.923e-5
-1.303, 1.920e-5
-1.304, 1.930e-5
-1.305, 1.939e-5
-1.306, 1.966e-5
-1.307, 1.979e-5
-1.308, 1.986e-5
-1.309, 1.993e-5
-1.310, 2.013e-5
-1.311, 2.027e-5
-1.312, 2.038e-5
-1.313, 2.059e-5
-1.314, 2.063e-5
-1.315, 2.080e-5
-1.316, 2.095e-5
-1.317, 2.113e-5
-1.318, 2.125e-5
-1.319, 2.132e-5
-1.320, 2.147e-5
-1.321, 2.160e-5
-1.322, 2.181e-5
-1.323, 2.187e-5
-1.324, 2.198e-5
-1.325, 2.206e-5
-1.326, 2.227e-5
-1.327, 2.251e-5
-1.328, 2.252e-5
-1.329, 2.261e-5
-1.330, 2.270e-5
-1.331, 2.295e-5
-1.332, 2.307e-5
-1.333, 2.311e-5
-1.334, 2.316e-5
-1.335, 2.327e-5
-1.336, 2.344e-5
-1.337, 2.358e-5
-1.338, 2.372e-5
-1.339, 2.371e-5
-1.340, 2.386e-5
-1.341, 2.403e-5
-1.342, 2.410e-5
-1.343, 2.421e-5
-1.344, 2.421e-5
-1.345, 2.440e-5
-1.346, 2.452e-5
-1.347, 2.465e-5
-1.348, 2.467e-5
-1.349, 2.476e-5
-1.350, 2.500e-5
-1.351, 2.507e-5
-1.352, 2.523e-5
-1.353, 2.523e-5
-1.354, 2.534e-5
-1.355, 2.546e-5
-1.356, 2.565e-5
-1.357, 2.579e-5
-1.358, 2.581e-5
-1.359, 2.592e-5
-1.360, 2.603e-5
-1.361, 2.619e-5
-1.362, 2.632e-5
-1.363, 2.644e-5
-1.364, 2.652e-5
-1.365, 2.659e-5
-1.366, 2.680e-5
-1.367, 2.701e-5
-1.368, 2.708e-5
-1.369, 2.708e-5
-1.370, 2.728e-5
-1.371, 2.751e-5
-1.372, 2.770e-5
-1.373, 2.774e-5
-1.374, 2.780e-5
-1.375, 2.797e-5
-1.376, 2.822e-5
-1.377, 2.836e-5
-1.378, 2.844e-5
-1.379, 2.853e-5
-1.380, 2.868e-5
-1.381, 2.892e-5
-1.382, 2.911e-5
-1.383, 2.918e-5
-1.384, 2.931e-5
-1.385, 2.944e-5
-1.386, 2.973e-5
-1.387, 2.987e-5
-1.388, 2.996e-5
-1.389, 3.005e-5
-1.390, 3.025e-5
-1.391, 3.057e-5
-1.392, 3.069e-5
-1.393, 3.079e-5
-1.394, 3.087e-5
-1.395, 3.111e-5
-1.396, 3.137e-5
-1.397, 3.154e-5
-1.398, 3.175e-5
-1.399, 3.180e-5
-1.400, 3.198e-5
-1.401, 3.221e-5
-1.402, 3.242e-5
-1.403, 3.250e-5
-1.404, 3.261e-5
-1.405, 3.284e-5
-1.406, 3.309e-5
-1.407, 3.327e-5
-1.408, 3.338e-5
-1.409, 3.356e-5
-1.410, 3.370e-5
-1.411, 3.401e-5
-1.412, 3.421e-5
-1.413, 3.427e-5
-1.414, 3.451e-5
-1.415, 3.468e-5
-1.416, 3.500e-5
-1.417, 3.523e-5
-1.418, 3.544e-5
-1.419, 3.549e-5
-1.420, 3.574e-5
-1.421, 3.602e-5
-1.422, 3.618e-5
-1.423, 3.644e-5
-1.424, 3.651e-5
-1.425, 3.682e-5
-1.426, 3.709e-5
-1.427, 3.729e-5
-1.428, 3.752e-5
-1.429, 3.760e-5
-1.430, 3.790e-5
-1.431, 3.816e-5
-1.432, 3.839e-5
-1.433, 3.857e-5
-1.434, 3.881e-5
-1.435, 3.908e-5
-1.436, 3.935e-5
-1.437, 3.960e-5
-1.438, 3.975e-5
-1.439, 3.999e-5
-1.440, 4.025e-5
-1.441, 4.063e-5
-1.442, 4.096e-5
-1.443, 4.107e-5
-1.444, 4.137e-5
-1.445, 4.158e-5
-1.446, 4.199e-5
-1.447, 4.229e-5
-1.448, 4.246e-5
-1.449, 4.270e-5
-1.450, 4.298e-5
-1.451, 4.341e-5
-1.452, 4.366e-5
-1.453, 4.391e-5
-1.454, 4.414e-5
-1.455, 4.448e-5
-1.456, 4.489e-5
-1.457, 4.515e-5
-1.458, 4.539e-5
-1.459, 4.567e-5
-1.460, 4.607e-5
-1.461, 4.643e-5
-1.462, 4.678e-5
-1.463, 4.700e-5
-1.464, 4.730e-5
-1.465, 4.765e-5
-1.466, 4.809e-5
-1.467, 4.847e-5
-1.468, 4.873e-5
-1.469, 4.897e-5
-1.470, 4.943e-5
-1.471, 4.986e-5
-1.472, 5.021e-5
-1.473, 5.047e-5
-1.474, 5.087e-5
-1.475, 5.120e-5
-1.476, 5.170e-5
-1.477, 5.204e-5
-1.478, 5.240e-5
-1.479, 5.274e-5
-1.480, 5.319e-5
-1.481, 5.371e-5
-1.482, 5.400e-5
-1.483, 5.439e-5
-1.484, 5.480e-5
-1.485, 5.521e-5
-1.486, 5.572e-5
-1.487, 5.617e-5
-1.488, 5.650e-5
-1.489, 5.685e-5
-1.490, 5.735e-5
-1.491, 5.788e-5
-1.492, 5.833e-5
-1.493, 5.872e-5
-1.494, 5.912e-5
-1.495, 5.961e-5
-1.496, 6.007e-5
-1.497, 6.064e-5
-1.498, 6.101e-5
-1.499, 6.137e-5
-1.500, 6.193e-5
-1.501, 6.247e-5
-1.502, 6.298e-5
-1.503, 6.338e-5
-1.504, 6.391e-5
-1.505, 6.439e-5
-1.506, 6.494e-5
-1.507, 6.548e-5
-1.508, 6.597e-5
-1.509, 6.638e-5
-1.510, 6.693e-5
-1.511, 6.757e-5
-1.512, 6.809e-5
-1.513, 6.859e-5
-1.514, 6.905e-5
-1.515, 6.966e-5
-1.516, 7.030e-5
-1.517, 7.087e-5
-1.518, 7.139e-5
-1.519, 7.184e-5
-1.520, 7.244e-5
-1.521, 7.314e-5
-1.522, 7.378e-5
-1.523, 7.432e-5
-1.524, 7.480e-5
-1.525, 7.556e-5
-1.526, 7.621e-5
-1.527, 7.683e-5
-1.528, 7.740e-5
-1.529, 7.796e-5
-1.530, 7.867e-5
-1.531, 7.947e-5
-1.532, 8.008e-5
-1.533, 8.059e-5
-1.534, 8.120e-5
-1.535, 8.190e-5
-1.536, 8.270e-5
-1.537, 8.331e-5
-1.538, 8.396e-5
-1.539, 8.463e-5
-1.540, 8.530e-5
-1.541, 8.617e-5
-1.542, 8.686e-5
-1.543, 8.751e-5
-1.544, 8.811e-5
-1.545, 8.891e-5
-1.546, 8.978e-5
-1.547, 9.046e-5
-1.548, 9.113e-5
-1.549, 9.181e-5
-1.550, 9.274e-5
-1.551, 9.356e-5
-1.552, 9.429e-5
-1.553, 9.503e-5
-1.554, 9.586e-5
-1.555, 9.670e-5
-1.556, 9.755e-5
-1.557, 9.845e-5
-1.558, 9.912e-5
-1.559, 9.995e-5
-1.560, 1.008e-4
-1.561, 1.018e-4
-1.562, 1.026e-4
-1.563, 1.035e-4
-1.564, 1.043e-4
-1.565, 1.052e-4
-1.566, 1.063e-4
-1.567, 1.073e-4
-1.568, 1.081e-4
-1.569, 1.090e-4
-1.570, 1.099e-4
-1.571, 1.109e-4
-1.572, 1.119e-4
-1.573, 1.127e-4
-1.574, 1.136e-4
-1.575, 1.147e-4
-1.576, 1.158e-4
-1.577, 1.167e-4
-1.578, 1.177e-4
-1.579, 1.186e-4
-1.580, 1.198e-4
-1.581, 1.209e-4
-1.582, 1.219e-4
-1.583, 1.230e-4
-1.584, 1.240e-4
-1.585, 1.253e-4
-1.586, 1.264e-4
-1.587, 1.276e-4
-1.588, 1.286e-4
-1.589, 1.297e-4
-1.590, 1.310e-4
-1.591, 1.323e-4
-1.592, 1.334e-4
-1.593, 1.346e-4
-1.594, 1.358e-4
-1.595, 1.371e-4
-1.596, 1.385e-4
-1.597, 1.397e-4
-1.598, 1.409e-4
-1.599, 1.422e-4
-1.600, 1.436e-4
-1.601, 1.451e-4
-1.602, 1.463e-4
-1.603, 1.477e-4
-1.604, 1.490e-4
-1.605, 1.504e-4
-1.606, 1.520e-4
-1.607, 1.534e-4
-1.608, 1.548e-4
-1.609, 1.561e-4
-1.610, 1.577e-4
-1.611, 1.594e-4
-1.612, 1.608e-4
-1.613, 1.622e-4
-1.614, 1.637e-4
-1.615, 1.655e-4
-1.616, 1.673e-4
-1.617, 1.688e-4
-1.618, 1.704e-4
-1.619, 1.720e-4
-1.620, 1.737e-4
-1.621, 1.755e-4
-1.622, 1.772e-4
-1.623, 1.789e-4
-1.624, 1.807e-4
-1.625, 1.826e-4
-1.626, 1.845e-4
-1.627, 1.864e-4
-1.628, 1.881e-4
-1.629, 1.899e-4
-1.630, 1.919e-4
-1.631, 1.940e-4
-1.632, 1.960e-4
-1.633, 1.979e-4
-1.634, 2.000e-4
-1.635, 2.023e-4
-1.636, 2.045e-4
-1.637, 2.066e-4
-1.638, 2.086e-4
-1.639, 2.108e-4
-1.640, 2.131e-4
-1.641, 2.153e-4
-1.642, 2.175e-4
-1.643, 2.198e-4
-1.644, 2.221e-4
-1.645, 2.245e-4
-1.646, 2.270e-4
-1.647, 2.295e-4
-1.648, 2.319e-4
-1.649, 2.341e-4
-1.650, 2.366e-4
-1.651, 2.394e-4
-1.652, 2.419e-4
-1.653, 2.446e-4
-1.654, 2.474e-4
-1.655, 2.501e-4
-1.656, 2.529e-4
-1.657, 2.557e-4
-1.658, 2.585e-4
-1.659, 2.613e-4
-1.660, 2.644e-4
-1.661, 2.674e-4
-1.662, 2.707e-4
-1.663, 2.735e-4
-1.664, 2.764e-4
-1.665, 2.799e-4
-1.666, 2.833e-4
-1.667, 2.864e-4
-1.668, 2.896e-4
-1.669, 2.930e-4
-1.670, 2.965e-4
-1.671, 3.001e-4
-1.672, 3.037e-4
-1.673, 3.074e-4
-1.674, 3.108e-4
-1.675, 3.144e-4
-1.676, 3.180e-4
-1.677, 3.219e-4
-1.678, 3.256e-4
-1.679, 3.291e-4
-1.680, 3.331e-4
-1.681, 3.371e-4
-1.682, 3.410e-4
-1.683, 3.452e-4
-1.684, 3.496e-4
-1.685, 3.540e-4
-1.686, 3.585e-4
-1.687, 3.626e-4
-1.688, 3.667e-4
-1.689, 3.712e-4
-1.690, 3.756e-4
-1.691, 3.799e-4
-1.692, 3.843e-4
-1.693, 3.886e-4
-1.694, 3.932e-4
-1.695, 3.977e-4
-1.696, 4.028e-4
-1.697, 4.077e-4
-1.698, 4.122e-4
-1.699, 4.172e-4
-1.700, 4.179e-4
-1.699, 4.142e-4
-1.698, 4.103e-4
-1.697, 4.064e-4
-1.696, 4.028e-4
-1.695, 3.993e-4
-1.694, 3.959e-4
-1.693, 3.927e-4
-1.692, 3.891e-4
-1.691, 3.852e-4
-1.690, 3.817e-4
-1.689, 3.787e-4
-1.688, 3.757e-4
-1.687, 3.718e-4
-1.686, 3.684e-4
-1.685, 3.650e-4
-1.684, 3.611e-4
-1.683, 3.573e-4
-1.682, 3.542e-4
-1.681, 3.508e-4
-1.680, 3.472e-4
-1.679, 3.440e-4
-1.678, 3.407e-4
-1.677, 3.373e-4
-1.676, 3.338e-4
-1.675, 3.306e-4
-1.674, 3.271e-4
-1.673, 3.234e-4
-1.672, 3.198e-4
-1.671, 3.164e-4
-1.670, 3.134e-4
-1.669, 3.107e-4
-1.668, 3.076e-4
-1.667, 3.045e-4
-1.666, 3.013e-4
-1.665, 2.978e-4
-1.664, 2.949e-4
-1.663, 2.919e-4
-1.662, 2.886e-4
-1.661, 2.855e-4
-1.660, 2.828e-4
-1.659, 2.802e-4
-1.658, 2.774e-4
-1.657, 2.744e-4
-1.656, 2.717e-4
-1.655, 2.689e-4
-1.654, 2.662e-4
-1.653, 2.634e-4
-1.652, 2.606e-4
-1.651, 2.578e-4
-1.650, 2.552e-4
-1.649, 2.527e-4
-1.648, 2.501e-4
-1.647, 2.473e-4
-1.646, 2.447e-4
-1.645, 2.421e-4
-1.644, 2.398e-4
-1.643, 2.372e-4
-1.642, 2.348e-4
-1.641, 2.323e-4
-1.640, 2.297e-4
-1.639, 2.273e-4
-1.638, 2.250e-4
-1.637, 2.224e-4
-1.636, 2.201e-4
-1.635, 2.179e-4
-1.634, 2.157e-4
-1.633, 2.133e-4
-1.632, 2.110e-4
-1.631, 2.087e-4
-1.630, 2.066e-4
-1.629, 2.046e-4
-1.628, 2.024e-4
-1.627, 2.001e-4
-1.626, 1.979e-4
-1.625, 1.959e-4
-1.624, 1.940e-4
-1.623, 1.919e-4
-1.622, 1.897e-4
-1.621, 1.877e-4
-1.620, 1.858e-4
-1.619, 1.839e-4
-1.618, 1.819e-4
-1.617, 1.798e-4
-1.616, 1.780e-4
-1.615, 1.762e-4
-1.614, 1.745e-4
-1.613, 1.726e-4
-1.612, 1.708e-4
-1.611, 1.690e-4
-1.610, 1.673e-4
-1.609, 1.656e-4
-1.608, 1.638e-4
-1.607, 1.619e-4
-1.606, 1.601e-4
-1.605, 1.586e-4
-1.604, 1.570e-4
-1.603, 1.553e-4
-1.602, 1.535e-4
-1.601, 1.519e-4
-1.600, 1.504e-4
-1.599, 1.489e-4
-1.598, 1.474e-4
-1.597, 1.458e-4
-1.596, 1.442e-4
-1.595, 1.427e-4
-1.594, 1.413e-4
-1.593, 1.397e-4
-1.592, 1.382e-4
-1.591, 1.367e-4
-1.590, 1.354e-4
-1.589, 1.341e-4
-1.588, 1.327e-4
-1.587, 1.311e-4
-1.586, 1.298e-4
-1.585, 1.284e-4
-1.584, 1.271e-4
-1.583, 1.256e-4
-1.582, 1.243e-4
-1.581, 1.230e-4
-1.580, 1.217e-4
-1.579, 1.206e-4
-1.578, 1.192e-4
-1.577, 1.179e-4
-1.576, 1.166e-4
-1.575, 1.155e-4
-1.574, 1.143e-4
-1.573, 1.132e-4
-1.572, 1.119e-4
-1.571, 1.107e-4
-1.570, 1.095e-4
-1.569, 1.085e-4
-1.568, 1.074e-4
-1.567, 1.062e-4
-1.566, 1.050e-4
-1.565, 1.040e-4
-1.564, 1.030e-4
-1.563, 1.018e-4
-1.562, 1.007e-4
-1.561, 9.961e-5
-1.560, 9.864e-5
-1.559, 9.764e-5
-1.558, 9.664e-5
-1.557, 9.545e-5
-1.556, 9.440e-5
-1.555, 9.346e-5
-1.554, 9.254e-5
-1.553, 9.157e-5
-1.552, 9.051e-5
-1.551, 8.955e-5
-1.550, 8.858e-5
-1.549, 8.772e-5
-1.548, 8.679e-5
-1.547, 8.576e-5
-1.546, 8.477e-5
-1.545, 8.395e-5
-1.544, 8.323e-5
-1.543, 8.220e-5
-1.542, 8.119e-5
-1.541, 8.039e-5
-1.540, 7.959e-5
-1.539, 7.883e-5
-1.538, 7.784e-5
-1.537, 7.701e-5
-1.536, 7.612e-5
-1.535, 7.534e-5
-1.534, 7.456e-5
-1.533, 7.384e-5
-1.532, 7.289e-5
-1.531, 7.201e-5
-1.530, 7.136e-5
-1.529, 7.066e-5
-1.528, 6.985e-5
-1.527, 6.899e-5
-1.526, 6.819e-5
-1.525, 6.753e-5
-1.524, 6.680e-5
-1.523, 6.605e-5
-1.522, 6.524e-5
-1.521, 6.456e-5
-1.520, 6.385e-5
-1.519, 6.319e-5
-1.518, 6.245e-5
-1.517, 6.170e-5
-1.516, 6.102e-5
-1.515, 6.037e-5
-1.514, 5.980e-5
-1.513, 5.910e-5
-1.512, 5.835e-5
-1.511, 5.765e-5
-1.510, 5.705e-5
-1.509, 5.652e-5
-1.508, 5.579e-5
-1.507, 5.506e-5
-1.506, 5.439e-5
-1.505, 5.387e-5
-1.504, 5.330e-5
-1.503, 5.265e-5
-1.502, 5.195e-5
-1.501, 5.135e-5
-1.500, 5.085e-5
-1.499, 5.029e-5
-1.498, 4.972e-5
-1.497, 4.900e-5
-1.496, 4.846e-5
-1.495, 4.801e-5
-1.494, 4.743e-5
-1.493, 4.689e-5
-1.492, 4.626e-5
-1.491, 4.569e-5
-1.490, 4.516e-5
-1.489, 4.480e-5
-1.488, 4.420e-5
-1.487, 4.360e-5
-1.486, 4.307e-5
-1.485, 4.264e-5
-1.484, 4.220e-5
-1.483, 4.166e-5
-1.482, 4.111e-5
-1.481, 4.059e-5
-1.480, 4.023e-5
-1.479, 3.976e-5
-1.478, 3.922e-5
-1.477, 3.863e-5
-1.476, 3.814e-5
-1.475, 3.781e-5
-1.474, 3.740e-5
-1.473, 3.691e-5
-1.472, 3.637e-5
-1.471, 3.590e-5
-1.470, 3.554e-5
-1.469, 3.510e-5
-1.468, 3.468e-5
-1.467, 3.416e-5
-1.466, 3.375e-5
-1.465, 3.343e-5
-1.464, 3.310e-5
-1.463, 3.258e-5
-1.462, 3.204e-5
-1.461, 3.171e-5
-1.460, 3.139e-5
-1.459, 3.101e-5
-1.458, 3.056e-5
-1.457, 3.011e-5
-1.456, 2.976e-5
-1.455, 2.942e-5
-1.454, 2.917e-5
-1.453, 2.872e-5
-1.452, 2.827e-5
-1.451, 2.787e-5
-1.450, 2.770e-5
-1.449, 2.737e-5
-1.448, 2.694e-5
-1.447, 2.657e-5
-1.446, 2.614e-5
-1.445, 2.596e-5
-1.444, 2.563e-5
-1.443, 2.529e-5
-1.442, 2.488e-5
-1.441, 2.455e-5
-1.440, 2.429e-5
-1.439, 2.402e-5
-1.438, 2.371e-5
-1.437, 2.330e-5
-1.436, 2.295e-5
-1.435, 2.278e-5
-1.434, 2.251e-5
-1.433, 2.219e-5
-1.432, 2.178e-5
-1.431, 2.153e-5
-1.430, 2.131e-5
-1.429, 2.106e-5
-1.428, 2.074e-5
-1.427, 2.037e-5
-1.426, 2.012e-5
-1.425, 1.991e-5
-1.424, 1.974e-5
-1.423, 1.941e-5
-1.422, 1.908e-5
-1.421, 1.883e-5
-1.420, 1.864e-5
-1.419, 1.849e-5
-1.418, 1.811e-5
-1.417, 1.785e-5
-1.416, 1.756e-5
-1.415, 1.744e-5
-1.414, 1.727e-5
-1.413, 1.693e-5
-1.412, 1.670e-5
-1.411, 1.641e-5
-1.410, 1.626e-5
-1.409, 1.606e-5
-1.408, 1.584e-5
-1.407, 1.553e-5
-1.406, 1.529e-5
-1.405, 1.520e-5
-1.404, 1.501e-5
-1.403, 1.478e-5
-1.402, 1.444e-5
-1.401, 1.428e-5
-1.400, 1.413e-5
-1.399, 1.401e-5
-1.398, 1.370e-5
-1.397, 1.350e-5
-1.396, 1.325e-5
-1.395, 1.316e-5
-1.394, 1.302e-5
-1.393, 1.272e-5
-1.392, 1.254e-5
-1.391, 1.233e-5
-1.390, 1.218e-5
-1.389, 1.208e-5
-1.388, 1.186e-5
-1.387, 1.158e-5
-1.386, 1.137e-5
-1.385, 1.126e-5
-1.384, 1.120e-5
-1.383, 1.097e-5
-1.382, 1.067e-5
-1.381, 1.055e-5
-1.380, 1.049e-5
-1.379, 1.035e-5
-1.378, 1.012e-5
-1.377, 9.870e-6
-1.376, 9.750e-6
-1.375, 9.666e-6
-1.374, 9.591e-6
-1.373, 9.339e-6
-1.372, 9.114e-6
-1.371, 8.935e-6
-1.370, 8.891e-6
-1.369, 8.821e-6
-1.368, 8.575e-6
-1.367, 8.380e-6
-1.366, 8.177e-6
-1.365, 8.225e-6
-1.364, 8.103e-6
-1.363, 7.889e-6
-1.362, 7.625e-6
-1.361, 7.523e-6
-1.360, 7.506e-6
-1.359, 7.389e-6
-1.358, 7.184e-6
-1.357, 6.940e-6
-1.356, 6.889e-6
-1.355, 6.796e-6
-1.354, 6.738e-6
-1.353, 6.516e-6
-1.352, 6.265e-6
-1.351, 6.183e-6
-1.350, 6.094e-6
-1.349, 6.102e-6
-1.348, 5.861e-6
-1.347, 5.673e-6
-1.346, 5.525e-6
-1.345, 5.480e-6
-1.344, 5.422e-6
-1.343, 5.271e-6
-1.342, 5.014e-6
-1.341, 4.907e-6
-1.340, 4.880e-6
-1.339, 4.816e-6
-1.338, 4.627e-6
-1.337, 4.388e-6
-1.336, 4.323e-6
-1.335, 4.290e-6
-1.334, 4.220e-6
-1.333, 4.048e-6
-1.332, 3.796e-6
-1.331, 3.729e-6
-1.330, 3.680e-6
-1.329, 3.662e-6
-1.328, 3.476e-6
-1.327, 3.279e-6
-1.326, 3.105e-6
-1.325, 3.097e-6
-1.324, 3.096e-6
-1.323, 2.857e-6
-1.322, 2.676e-6
-1.321, 2.584e-6
-1.320, 2.585e-6
-1.319, 2.494e-6
-1.318, 2.349e-6
-1.317, 2.156e-6
-1.316, 1.988e-6
-1.315, 2.039e-6
-1.314, 2.016e-6
-1.313, 1.763e-6
-1.312, 1.589e-6
-1.311, 1.457e-6
-1.310, 1.472e-6
-1.309, 1.427e-6
-1.308, 1.269e-6
-1.307, 1.054e-6
-1.306, 9.262e-7
-1.305, 9.302e-7
-1.304, 8.887e-7
-1.303, 7.358e-7
-1.302, 5.266e-7
-1.301, 3.974e-7
-1.300, 4.408e-7
-1.299, 3.589e-7
-1.298, 1.823e-7
-1.297, -2.782e-8
-1.296, -7.123e-8
-1.295, -1.215e-7
-1.294, -2.074e-7
-1.293, -3.297e-7
-1.292, -5.231e-7
-1.291, -6.089e-7
-1.290, -6.711e-7
-1.289, -7.214e-7
-1.288, -8.349e-7
-1.287, -1.058e-6
-1.286, -1.111e-6
-1.285, -1.186e-6
-1.284, -1.206e-6
-1.283, -1.450e-6
-1.282, -1.563e-6
-1.281, -1.721e-6
-1.280, -1.739e-6
-1.279, -1.747e-6
-1.278, -1.971e-6
-1.277, -2.099e-6
-1.276, -2.251e-6
-1.275, -2.198e-6
-1.274, -2.257e-6
-1.273, -2.473e-6
-1.272, -2.620e-6
-1.271, -2.747e-6
-1.270, -2.750e-6
-1.269, -2.812e-6
-1.268, -2.913e-6
-1.267, -3.204e-6
-1.266, -3.276e-6
-1.265, -3.307e-6
-1.264, -3.282e-6
-1.263, -3.415e-6
-1.262, -3.711e-6
-1.261, -3.763e-6
-1.260, -3.804e-6
-1.259, -3.827e-6
-1.258, -4.023e-6
-1.257, -4.246e-6
-1.256, -4.317e-6
-1.255, -4.308e-6
-1.254, -4.359e-6
-1.253, -4.515e-6
-1.252, -4.728e-6
-1.251, -4.826e-6
-1.250, -4.779e-6
-1.249, -4.822e-6
-1.248, -4.983e-6
-1.247, -5.202e-6
-1.246, -5.306e-6
-1.245, -5.324e-6
-1.244, -5.345e-6
-1.243, -5.502e-6
-1.242, -5.716e-6
-1.241, -5.831e-6
-1.240, -5.849e-6
-1.239, -5.846e-6
-1.238, -6.068e-6
-1.237, -6.221e-6
-1.236, -6.326e-6
-1.235, -6.264e-6
-1.234, -6.349e-6
-1.233, -6.520e-6
-1.232, -6.721e-6
-1.231, -6.807e-6
-1.230, -6.853e-6
-1.229, -6.939e-6
-1.228, -7.033e-6
-1.227, -7.272e-6
-1.226, -7.359e-6
-1.225, -7.364e-6
-1.224, -7.411e-6
-1.223, -7.539e-6
-1.222, -7.723e-6
-1.221, -7.860e-6
-1.220, -7.890e-6
-1.219, -7.875e-6
-1.218, -8.089e-6
-1.217, -8.264e-6
-1.216, -8.381e-6
-1.215, -8.395e-6
-1.214, -8.482e-6
-1.213, -8.619e-6
-1.212, -8.781e-6
-1.211, -8.934e-6
-1.210, -8.931e-6
-1.209, -8.980e-6
-1.208, -9.130e-6
-1.207, -9.417e-6
-1.206, -9.477e-6
-1.205, -9.486e-6
-1.204, -9.541e-6
-1.203, -9.736e-6
-1.202, -9.981e-6
-1.201, -1.004e-5
-1.200, -1.010e-5
-1.199, -1.015e-5
-1.198, -1.033e-5
-1.197, -1.052e-5
-1.196, -1.068e-5
-1.195, -1.069e-5
-1.194, -1.075e-5
-1.193, -1.095e-5
-1.192, -1.116e-5
-1.191, -1.130e-5
-1.190, -1.131e-5
-1.189, -1.140e-5
-1.188, -1.156e-5
-1.187, -1.183e-5
-1.186, -1.191e-5
-1.185, -1.196e-5
-1.184, -1.201e-5
-1.183, -1.222e-5
-1.182, -1.247e-5
-1.181, -1.252e-5
-1.180, -1.269e-5
-1.179, -1.270e-5
-1.178, -1.295e-5
-1.177, -1.324e-5
-1.176, -1.332e-5
-1.175, -1.340e-5
-1.174, -1.347e-5
-1.173, -1.367e-5
-1.172, -1.390e-5
-1.171, -1.413e-5
-1.170, -1.416e-5
-1.169, -1.422e-5
-1.168, -1.441e-5
-1.167, -1.471e-5
-1.166, -1.493e-5
-1.165, -1.493e-5
-1.164, -1.509e-5
-1.163, -1.524e-5
-1.162, -1.556e-5
-1.161, -1.574e-5
-1.160, -1.582e-5
-1.159, -1.586e-5
-1.158, -1.620e-5
-1.157, -1.644e-5
-1.156, -1.660e-5
-1.155, -1.672e-5
-1.154, -1.673e-5
-1.153, -1.704e-5
-1.152, -1.728e-5
-1.151, -1.750e-5
-1.150, -1.758e-5
-1.149, -1.764e-5
-1.148, -1.792e-5
-1.147, -1.830e-5
-1.146, -1.853e-5
-1.145, -1.856e-5
-1.144, -1.860e-5
-1.143, -1.894e-5
-1.142, -1.924e-5
-1.141, -1.951e-5
-1.140, -1.958e-5
-1.139, -1.972e-5
-1.138, -1.997e-5
-1.137, -2.028e-5
-1.136, -2.049e-5
-1.135, -2.060e-5
-1.134, -2.078e-5
-1.133, -2.099e-5
-1.132, -2.139e-5
-1.131, -2.151e-5
-1.130, -2.169e-5
-1.129, -2.179e-5
-1.128, -2.212e-5
-1.127, -2.244e-5
-1.126, -2.273e-5
-1.125, -2.279e-5
-1.124, -2.292e-5
-1.123, -2.333e-5
-1.122, -2.357e-5
-1.121, -2.385e-5
-1.120, -2.394e-5
-1.119, -2.409e-5
-1.118, -2.441e-5
-1.117, -2.470e-5
-1.116, -2.500e-5
-1.115, -2.514e-5
-1.114, -2.534e-5
-1.113, -2.556e-5
-1.112, -2.593e-5
-1.111, -2.622e-5
-1.110, -2.634e-5
-1.109, -2.652e-5
-1.108, -2.681e-5
-1.107, -2.716e-5
-1.106, -2.734e-5
-1.105, -2.753e-5
-1.104, -2.774e-5
-1.103, -2.804e-5
-1.102, -2.842e-5
-1.101, -2.861e-5
-1.100, -2.872e-5
-1.099, -2.889e-5
-1.098, -2.926e-5
-1.097, -2.955e-5
-1.096, -2.985e-5
-1.095, -2.996e-5
-1.094, -3.008e-5
-1.093, -3.039e-5
-1.092, -3.078e-5
-1.091, -3.112e-5
-1.090, -3.118e-5
-1.089, -3.137e-5
-1.088, -3.166e-5
-1.087, -3.206e-5
-1.086, -3.228e-5
-1.085, -3.238e-5
-1.084, -3.259e-5
-1.083, -3.288e-5
-1.082, -3.326e-5
-1.081, -3.345e-5
-1.080, -3.363e-5
-1.079, -3.378e-5
-1.078, -3.404e-5
-1.077, -3.449e-5
-1.076, -3.472e-5
-1.075, -3.481e-5
-1.074, -3.498e-5
-1.073, -3.533e-5
-1.072, -3.566e-5
-1.071, -3.592e-5
-1.070, -3.602e-5
-1.069, -3.616e-5
-1.068, -3.651e-5
-1.067, -3.683e-5
-1.066, -3.708e-5
-1.065, -3.720e-5
-1.064, -3.732e-5
-1.063, -3.764e-5
-1.062, -3.797e-5
-1.061, -3.821e-5
-1.060, -3.834e-5
-1.059, -3.848e-5
-1.058, -3.875e-5
-1.057, -3.904e-5
-1.056, -3.930e-5
-1.055, -3.945e-5
-1.054, -3.958e-5
-1.053, -3.984e-5
-1.052, -4.014e-5
-1.051, -4.039e-5
-1.050, -4.040e-5
-1.049, -4.064e-5
-1.048, -4.089e-5
-1.047, -4.112e-5
-1.046, -4.129e-5
-1.045, -4.140e-5
-1.044, -4.154e-5
-1.043, -4.174e-5
-1.042, -4.191e-5
-1.041, -4.225e-5
-1.040, -4.226e-5
-1.039, -4.236e-5
-1.038, -4.262e-5
-1.037, -4.295e-5
-1.036, -4.301e-5
-1.035, -4.313e-5
-1.034, -4.325e-5
-1.033, -4.341e-5
-1.032, -4.372e-5
-1.031, -4.388e-5
-1.030, -4.392e-5
-1.029, -4.404e-5
-1.028, -4.423e-5
-1.027, -4.445e-5
-1.026, -4.468e-5
-1.025, -4.467e-5
-1.024, -4.464e-5
-1.023, -4.499e-5
-1.022, -4.521e-5
-1.021, -4.536e-5
-1.020, -4.537e-5
-1.019, -4.551e-5
-1.018, -4.569e-5
-1.017, -4.591e-5
-1.016, -4.607e-5
-1.015, -4.610e-5
-1.014, -4.628e-5
-1.013, -4.632e-5
-1.012, -4.659e-5
-1.011, -4.677e-5
-1.010, -4.675e-5
-1.009, -4.687e-5
-1.008, -4.709e-5
-1.007, -4.725e-5
-1.006, -4.733e-5
-1.005, -4.745e-5
-1.004, -4.745e-5
-1.003, -4.769e-5
-1.002, -4.797e-5
-1.001, -4.807e-5
-1.000, -4.534e-5
-1.001, -4.195e-5
-1.002, -3.962e-5
-1.003, -3.772e-5
-1.004, -3.592e-5
-1.005, -3.425e-5
-1.006, -3.246e-5
-1.007, -3.105e-5
-1.008, -2.981e-5
-1.009, -2.849e-5
-1.010, -2.707e-5
-1.011, -2.582e-5
-1.012, -2.469e-5
-1.013, -2.366e-5
-1.014, -2.269e-5
-1.015, -2.154e-5
-1.016, -2.058e-5
-1.017, -1.966e-5
-1.018, -1.896e-5
-1.019, -1.809e-5
-1.020, -1.719e-5
-1.021, -1.635e-5
-1.022, -1.572e-5
-1.023, -1.511e-5
-1.024, -1.439e-5
-1.025, -1.367e-5
-1.026, -1.299e-5
-1.027, -1.243e-5
-1.028, -1.201e-5
-1.029, -1.142e-5
-1.030, -1.078e-5
-1.031, -1.016e-5
-1.032, -9.754e-6
-1.033, -9.322e-6
-1.034, -8.932e-6
-1.035, -8.326e-6
-1.036, -7.838e-6
-1.037, -7.525e-6
-1.038, -7.189e-6
-1.039, -6.857e-6
-1.040, -6.339e-6
-1.041, -5.966e-6
-1.042, -5.697e-6
-1.043, -5.420e-6
-1.044, -5.075e-6
-1.045, -4.760e-6
-1.046, -4.354e-6
-1.047, -4.066e-6
-1.048, -3.991e-6
-1.049, -3.644e-6
-1.050, -3.270e-6
-1.051, -2.982e-6
-1.052, -2.815e-6
-1.053, -2.657e-6
-1.054, -2.477e-6
-1.055, -2.089e-6
-1.056, -1.816e-6
-1.057, -1.702e-6
-1.058, -1.552e-6
-1.059, -1.354e-6
-1.060, -1.049e-6
-1.061, -7.974e-7
-1.062, -7.214e-7
-1.063, -5.606e-7
-1.064, -4.304e-7
-1.065, -2.064e-7
-1.066, -2.289e-8
-1.067, 1.034e-7
-1.068, 1.784e-7
-1.069, 3.303e-7
-1.070, 5.089e-7
-1.071, 7.812e-7
-1.072, 8.443e-7
-1.073, 8.808e-7
-1.074, 1.020e-6
-1.075, 1.178e-6
-1.076, 1.403e-6
-1.077, 1.439e-6
-1.078, 1.416e-6
-1.079, 1.530e-6
-1.080, 1.754e-6
-1.081, 1.936e-6
-1.082, 1.966e-6
-1.083, 2.003e-6
-1.084, 2.092e-6
-1.085, 2.241e-6
-1.086, 2.407e-6
-1.087, 2.451e-6
-1.088, 2.498e-6
-1.089, 2.506e-6
-1.090, 2.638e-6
-1.091, 2.805e-6
-1.092, 2.870e-6
-1.093, 2.792e-6
-1.094, 2.920e-6
-1.095, 3.064e-6
-1.096, 3.120e-6
-1.097, 3.200e-6
-1.098, 3.180e-6
-1.099, 3.224e-6
-1.100, 3.447e-6
-1.101, 3.565e-6
-1.102, 3.516e-6
-1.103, 3.513e-6
-1.104, 3.518e-6
-1.105, 3.827e-6
-1.106, 3.832e-6
-1.107, 3.775e-6
-1.108, 3.811e-6
-1.109, 3.863e-6
-1.110, 3.980e-6
-1.111, 4.109e-6
-1.112, 4.065e-6
-1.113, 4.036e-6
-1.114, 4.084e-6
-1.115, 4.290e-6
-1.116, 4.269e-6
-1.117, 4.416e-6
-1.118, 4.255e-6
-1.119, 4.347e-6
-1.120, 4.450e-6
-1.121, 4.577e-6
-1.122, 4.566e-6
-1.123, 4.525e-6
-1.124, 4.569e-6
-1.125, 4.664e-6
-1.126, 4.777e-6
-1.127, 4.718e-6
-1.128, 4.709e-6
-1.129, 4.710e-6
-1.130, 4.943e-6
-1.131, 4.947e-6
-1.132, 4.930e-6
-1.133, 4.942e-6
-1.134, 4.929e-6
-1.135, 5.070e-6
-1.136, 5.099e-6
-1.137, 5.154e-6
-1.138, 5.085e-6
-1.139, 5.142e-6
-1.140, 5.222e-6
-1.141, 5.298e-6
-1.142, 5.287e-6
-1.143, 5.228e-6
-1.144, 5.291e-6
-1.145, 5.379e-6
-1.146, 5.495e-6
-1.147, 5.454e-6
-1.148, 5.414e-6
-1.149, 5.447e-6
-1.150, 5.676e-6
-1.151, 5.699e-6
-1.152, 5.559e-6
-1.153, 5.599e-6
-1.154, 5.616e-6
-1.155, 5.803e-6
-1.156, 5.764e-6
-1.157, 5.821e-6
-1.158, 5.788e-6
-1.159, 5.796e-6
-1.160, 5.903e-6
-1.161, 5.985e-6
-1.162, 5.989e-6
-1.163, 5.994e-6
-1.164, 5.960e-6
-1.165, 6.106e-6
-1.166, 6.172e-6
-1.167, 6.225e-6
-1.168, 6.086e-6
-1.169, 6.131e-6
-1.170, 6.226e-6
-1.171, 6.368e-6
-1.172, 6.331e-6
-1.173, 6.278e-6
-1.174, 6.294e-6
-1.175, 6.466e-6
-1.176, 6.586e-6
-1.177, 6.528e-6
-1.178, 6.483e-6
-1.179, 6.516e-6
-1.180, 6.737e-6
-1.181, 6.749e-6
-1.182, 6.722e-6
-1.183, 6.724e-6
-1.184, 6.712e-6
-1.185, 6.956e-6
-1.186, 6.926e-6
-1.187, 6.932e-6
-1.188, 6.924e-6
-1.189, 7.026e-6
-1.190, 7.162e-6
-1.191, 7.158e-6
-1.192, 7.187e-6
-1.193, 7.119e-6
-1.194, 7.229e-6
-1.195, 7.345e-6
-1.196, 7.468e-6
-1.197, 7.386e-6
-1.198, 7.326e-6
-1.199, 7.344e-6
-1.200, 7.590e-6
-1.201, 7.622e-6
-1.202, 7.664e-6
-1.203, 7.650e-6
-1.204, 7.683e-6
-1.205, 7.870e-6
-1.206, 7.850e-6
-1.207, 7.907e-6
-1.208, 7.849e-6
-1.209, 7.967e-6
-1.210, 8.096e-6
-1.211, 8.128e-6
-1.212, 8.211e-6
-1.213, 8.144e-6
-1.214, 8.262e-6
-1.215, 8.349e-6
-1.216, 8.463e-6
-1.217, 8.502e-6
-1.218, 8.423e-6
-1.219, 8.539e-6
-1.220, 8.666e-6
-1.221, 8.747e-6
-1.222, 8.757e-6
-1.223, 8.784e-6
-1.224, 8.794e-6
-1.225, 8.978e-6
-1.226, 9.027e-6
-1.227, 9.042e-6
-1.228, 9.024e-6
-1.229, 9.182e-6
-1.230, 9.317e-6
-1.231, 9.338e-6
-1.232, 9.424e-6
-1.233, 9.382e-6
-1.234, 9.500e-6
-1.235, 9.602e-6
-1.236, 9.747e-6
-1.237, 9.733e-6
-1.238, 9.756e-6
-1.239, 9.817e-6
-1.240, 9.946e-6
-1.241, 1.006e-5
-1.242, 1.013e-5
-1.243, 1.014e-5
-1.244, 1.013e-5
-1.245, 1.036e-5
-1.246, 1.047e-5
-1.247, 1.044e-5
-1.248, 1.050e-5
-1.249, 1.053e-5
-1.250, 1.077e-5
-1.251, 1.083e-5
-1.252, 1.086e-5
-1.253, 1.080e-5
-1.254, 1.098e-5
-1.255, 1.113e-5
-1.256, 1.122e-5
-1.257, 1.124e-5
-1.258, 1.135e-5
-1.259, 1.137e-5
-1.260, 1.152e-5
-1.261, 1.169e-5
-1.262, 1.169e-5
-1.263, 1.169e-5
-1.264, 1.180e-5
-1.265, 1.197e-5
-1.266, 1.207e-5
-1.267, 1.213e-5
-1.268, 1.217e-5
-1.269, 1.215e-5
-1.270, 1.246e-5
-1.271, 1.252e-5
-1.272, 1.258e-5
-1.273, 1.251e-5
-1.274, 1.265e-5
-1.275, 1.286e-5
-1.276, 1.295e-5
-1.277, 1.298e-5
-1.278, 1.297e-5
-1.279, 1.315e-5
-1.280, 1.327e-5
-1.281, 1.346e-5
-1.282, 1.343e-5
-1.283, 1.352e-5
-1.284, 1.363e-5
-1.285, 1.378e-5
-1.286, 1.393e-5
-1.287, 1.386e-5
-1.288, 1.398e-5
-1.289, 1.408e-5
-1.290, 1.430e-5
-1.291, 1.437e-5
-1.292, 1.448e-5
-1.293, 1.449e-5
-1.294, 1.454e-5
-1.295, 1.481e-5
-1.296, 1.485e-5
-1.297, 1.491e-5
-1.298, 1.493e-5
-1.299, 1.509e-5
-1.300, 1.535e-5
-1.301, 1.547e-5
-1.302, 1.552e-5
-1.303, 1.554e-5
-1.304, 1.570e-5
-1.305, 1.583e-5
-1.306, 1.595e-5
-1.307, 1.595e-5
-1.308, 1.605e-5
-1.309, 1.617e-5
-1.310, 1.632e-5
-1.311, 1.644e-5
-1.312, 1.656e-5
-1.313, 1.657e-5
-1.314, 1.664e-5
-1.315, 1.689e-5
-1.316, 1.697e-5
-1.317, 1.703e-5
-1.318, 1.704e-5
-1.319, 1.715e-5
-1.320, 1.743e-5
-1.321, 1.751e-5
-1.322, 1.763e-5
-1.323, 1.759e-5
-1.324, 1.773e-5
-1.325, 1.799e-5
-1.326, 1.802e-5
-1.327, 1.813e-5
-1.328, 1.813e-5
-1.329, 1.836e-5
-1.330, 1.853e-5
-1.331, 1.867e-5
-1.332, 1.864e-5
-1.333, 1.875e-5
-1.334, 1.890e-5
-1.335, 1.908e-5
-1.336, 1.919e-5
-1.337, 1.922e-5
-1.338, 1.929e-5
-1.339, 1.942e-5
-1.340, 1.963e-5
-1.341, 1.969e-5
-1.342, 1.982e-5
-1.343, 1.987e-5
-1.344, 2.003e-5
-1.345, 2.023e-5
-1.346, 2.037e-5
-1.347, 2.042e-5
-1.348, 2.040e-5
-1.349, 2.067e-5
-1.350, 2.084e-5
-1.351, 2.094e-5
-1.352, 2.099e-5
-1.353, 2.100e-5
-1.354, 2.127e-5
-1.355, 2.142e-5
-1.356, 2.150e-5
-1.357, 2.164e-5
-1.358, 2.170e-5
-1.359, 2.184e-5
-1.360, 2.210e-5
-1.361, 2.213e-5
-1.362, 2.226e-5
-1.363, 2.235e-5
-1.364, 2.250e-5
-1.365, 2.270e-5
-1.366, 2.281e-5
-1.367, 2.287e-5
-1.368, 2.295e-5
-1.369, 2.312e-5
-1.370, 2.338e-5
-1.371, 2.347e-5
-1.372, 2.353e-5
-1.373, 2.360e-5
-1.374, 2.382e-5
-1.375, 2.398e-5
-1.376, 2.420e-5
-1.377, 2.419e-5
-1.378, 2.427e-5
-1.379, 2.451e-5
-1.380, 2.471e-5
-1.381, 2.485e-5
-1.382, 2.492e-5
-1.383, 2.505e-5
-1.384, 2.520e-5
-1.385, 2.545e-5
-1.386, 2.557e-5
-1.387, 2.568e-5
-1.388, 2.576e-5
-1.389, 2.597e-5
-1.390, 2.621e-5
-1.391, 2.633e-5
-1.392, 2.638e-5
-1.393, 2.651e-5
-1.394, 2.677e-5
-1.395, 2.694e-5
-1.396, 2.713e-5
-1.397, 2.715e-5
-1.398, 2.736e-5
-1.399, 2.756e-5
-1.400, 2.776e-5
-1.401, 2.799e-5
-1.402, 2.801e-5
-1.403, 2.817e-5
-1.404, 2.840e-5
-1.405, 2.865e-5
-1.406, 2.877e-5
-1.407, 2.891e-5
-1.408, 2.907e-5
-1.409, 2.925e-5
-1.410, 2.956e-5
-1.411, 2.970e-5
-1.412, 2.990e-5
-1.413, 2.999e-5
-1.414, 3.022e-5
-1.415, 3.047e-5
-1.416, 3.069e-5
-1.417, 3.085e-5
-1.418, 3.100e-5
-1.419, 3.123e-5
-1.420, 3.155e-5
-1.421, 3.171e-5
-1.422, 3.181e-5
-1.423, 3.205e-5
-1.424, 3.227e-5
-1.425, 3.260e-5
-1.426, 3.283e-5
-1.427, 3.293e-5
-1.428, 3.317e-5
-1.429, 3.342e-5
-1.430, 3.373e-5
-1.431, 3.392e-5
-1.432, 3.409e-5
-1.433, 3.427e-5
-1.434, 3.462e-5
-1.435, 3.489e-5
-1.436, 3.516e-5
-1.437, 3.532e-5
-1.438, 3.550e-5
-1.439, 3.581e-5
-1.440, 3.618e-5
-1.441, 3.644e-5
-1.442, 3.662e-5
-1.443, 3.684e-5
-1.444, 3.716e-5
-1.445, 3.752e-5
-1.446, 3.770e-5
-1.447, 3.790e-5
-1.448, 3.824e-5
-1.449, 3.854e-5
-1.450, 3.894e-5
-1.451, 3.910e-5
-1.452, 3.940e-5
-1.453, 3.967e-5
-1.454, 4.000e-5
-1.455, 4.042e-5
-1.456, 4.069e-5
-1.457, 4.094e-5
-1.458, 4.120e-5
-1.459, 4.164e-5
-1.460, 4.198e-5
-1.461, 4.230e-5
-1.462, 4.254e-5
-1.463, 4.284e-5
-1.464, 4.320e-5
-1.465, 4.364e-5
-1.466, 4.395e-5
-1.467, 4.417e-5
-1.468, 4.454e-5
-1.469, 4.488e-5
-1.470, 4.544e-5
-1.471, 4.566e-5
-1.472, 4.597e-5
-1.473, 4.633e-5
-1.474, 4.678e-5
-1.475, 4.716e-5
-1.476, 4.753e-5
-1.477, 4.781e-5
-1.478, 4.820e-5
-1.479, 4.872e-5
-1.480, 4.911e-5
-1.481, 4.949e-5
-1.482, 4.983e-5
-1.483, 5.020e-5
-1.484, 5.068e-5
-1.485, 5.115e-5
-1.486, 5.152e-5
-1.487, 5.186e-5
-1.488, 5.227e-5
-1.489, 5.273e-5
-1.490, 5.327e-5
-1.491, 5.365e-5
-1.492, 5.403e-5
-1.493, 5.441e-5
-1.494, 5.501e-5
-1.495, 5.554e-5
-1.496, 5.591e-5
-1.497, 5.632e-5
-1.498, 5.677e-5
-1.499, 5.733e-5
-1.500, 5.779e-5
-1.501, 5.829e-5
-1.502, 5.865e-5
-1.503, 5.921e-5
-1.504, 5.974e-5
-1.505, 6.028e-5
-1.506, 6.085e-5
-1.507, 6.119e-5
-1.508, 6.177e-5
-1.509, 6.229e-5
-1.510, 6.289e-5
-1.511, 6.344e-5
-1.512, 6.387e-5
-1.513, 6.439e-5
-1.514, 6.501e-5
-1.515, 6.571e-5
-1.516, 6.612e-5
-1.517, 6.664e-5
-1.518, 6.716e-5
-1.519, 6.790e-5
-1.520, 6.851e-5
-1.521, 6.900e-5
-1.522, 6.954e-5
-1.523, 7.006e-5
-1.524, 7.084e-5
-1.525, 7.145e-5
-1.526, 7.211e-5
-1.527, 7.262e-5
-1.528, 7.324e-5
-1.529, 7.391e-5
-1.530, 7.461e-5
-1.531, 7.528e-5
-1.532, 7.581e-5
-1.533, 7.643e-5
-1.534, 7.720e-5
-1.535, 7.795e-5
-1.536, 7.861e-5
-1.537, 7.930e-5
-1.538, 7.995e-5
-1.539, 8.075e-5
-1.540, 8.155e-5
-1.541, 8.215e-5
-1.542, 8.281e-5
-1.543, 8.354e-5
-1.544, 8.434e-5
-1.545, 8.514e-5
-1.546, 8.590e-5
-1.547, 8.651e-5
-1.548, 8.731e-5
-1.549, 8.818e-5
-1.550, 8.902e-5
-1.551, 8.978e-5
-1.552, 9.044e-5
-1.553, 9.128e-5
-1.554, 9.213e-5
-1.555, 9.302e-5
-1.556, 9.384e-5
-1.557, 9.463e-5
-1.558, 9.543e-5
-1.559, 9.637e-5
-1.560, 9.733e-5
-1.561, 9.817e-5
-1.562, 9.903e-5
-1.563, 9.985e-5
-1.564, 1.009e-4
-1.565, 1.018e-4
-1.566, 1.028e-4
-1.567, 1.036e-4
-1.568, 1.047e-4
-1.569, 1.056e-4
-1.570, 1.067e-4
-1.571, 1.076e-4
-1.572, 1.085e-4
-1.573, 1.095e-4
-1.574, 1.106e-4
-1.575, 1.118e-4
-1.576, 1.127e-4
-1.577, 1.137e-4
-1.578, 1.148e-4
-1.579, 1.160e-4
-1.580, 1.171e-4
-1.581, 1.182e-4
-1.582, 1.192e-4
-1.583, 1.204e-4
-1.584, 1.216e-4
-1.585, 1.228e-4
-1.586, 1.240e-4
-1.587, 1.250e-4
-1.588, 1.262e-4
-1.589, 1.276e-4
-1.590, 1.290e-4
-1.591, 1.300e-4
-1.592, 1.311e-4
-1.593, 1.323e-4
-1.594, 1.337e-4
-1.595, 1.350e-4
-1.596, 1.362e-4
-1.597, 1.375e-4
-1.598, 1.389e-4
-1.599, 1.404e-4
-1.600, 1.418e-4
-1.601, 1.432e-4
-1.602, 1.446e-4
-1.603, 1.459e-4
-1.604, 1.475e-4
-1.605, 1.490e-4
-1.606, 1.504e-4
-1.607, 1.519e-4
-1.608, 1.534e-4
-1.609, 1.550e-4
-1.610, 1.568e-4
-1.611, 1.582e-4
-1.612, 1.598e-4
-1.613, 1.614e-4
-1.614, 1.630e-4
-1.615, 1.647e-4
-1.616, 1.664e-4
-1.617, 1.680e-4
-1.618, 1.698e-4
-1.619, 1.716e-4
-1.620, 1.735e-4
-1.621, 1.753e-4
-1.622, 1.770e-4
-1.623, 1.789e-4
-1.624, 1.809e-4
-1.625, 1.829e-4
-1.626, 1.847e-4
-1.627, 1.866e-4
-1.628, 1.887e-4
-1.629, 1.906e-4
-1.630, 1.927e-4
-1.631, 1.946e-4
-1.632, 1.967e-4
-1.633, 1.987e-4
-1.634, 2.009e-4
-1.635, 2.030e-4
-1.636, 2.052e-4
-1.637, 2.072e-4
-1.638, 2.096e-4
-1.639, 2.120e-4
-1.640, 2.145e-4
-1.641, 2.168e-4
-1.642, 2.189e-4
-1.643, 2.214e-4
-1.644, 2.239e-4
-1.645, 2.264e-4
-1.646, 2.289e-4
-1.647, 2.314e-4
-1.648, 2.339e-4
-1.649, 2.366e-4
-1.650, 2.394e-4
-1.651, 2.421e-4
-1.652, 2.448e-4
-1.653, 2.474e-4
-1.654, 2.504e-4
-1.655, 2.532e-4
-1.656, 2.560e-4
-1.657, 2.588e-4
-1.658, 2.618e-4
-1.659, 2.650e-4
-1.660, 2.679e-4
-1.661, 2.710e-4
-1.662, 2.739e-4
-1.663, 2.770e-4
-1.664, 2.802e-4
-1.665, 2.839e-4
-1.666, 2.871e-4
-1.667, 2.903e-4
-1.668, 2.938e-4
-1.669, 2.974e-4
-1.670, 3.009e-4
-1.671, 3.042e-4
-1.672, 3.077e-4
-1.673, 3.112e-4
-1.674, 3.143e-4
-1.675, 3.181e-4
-1.676, 3.219e-4
-1.677, 3.254e-4
-1.678, 3.290e-4
-1.679, 3.334e-4
-1.680, 3.373e-4
-1.681, 3.412e-4
-1.682, 3.452e-4
-1.683, 3.493e-4
-1.684, 3.537e-4
-1.685, 3.578e-4
-1.686, 3.621e-4
-1.687, 3.664e-4
-1.688, 3.707e-4
-1.689, 3.752e-4
-1.690, 3.797e-4
-1.691, 3.842e-4
-1.692, 3.885e-4
-1.693, 3.932e-4
-1.694, 3.981e-4
-1.695, 4.033e-4
-1.696, 4.079e-4
-1.697, 4.131e-4
-1.698, 4.181e-4
-1.699, 4.233e-4
-1.700, 4.234e-4
-1.699, 4.191e-4
-1.698, 4.150e-4
-1.697, 4.113e-4
-1.696, 4.077e-4
-1.695, 4.039e-4
-1.694, 3.997e-4
-1.693, 3.955e-4
-1.692, 3.921e-4
-1.691, 3.886e-4
-1.690, 3.852e-4
-1.689, 3.812e-4
-1.688, 3.771e-4
-1.687, 3.726e-4
-1.686, 3.680e-4
-1.685, 3.645e-4
-1.684, 3.607e-4
-1.683, 3.571e-4
-1.682, 3.534e-4
-1.681, 3.501e-4
-1.680, 3.469e-4
-1.679, 3.436e-4
-1.678, 3.398e-4
-1.677, 3.364e-4
-1.676, 3.333e-4
-1.675, 3.297e-4
-1.674, 3.262e-4
-1.673, 3.229e-4
-1.672, 3.199e-4
-1.671, 3.165e-4
-1.670, 3.132e-4
-1.669, 3.098e-4
-1.668, 3.066e-4
-1.667, 3.034e-4
-1.666, 3.004e-4
-1.665, 2.973e-4
-1.664, 2.942e-4
-1.663, 2.909e-4
-1.662, 2.876e-4
-1.661, 2.846e-4
-1.660, 2.817e-4
-1.659, 2.784e-4
-1.658, 2.753e-4
-1.657, 2.724e-4
-1.656, 2.697e-4
-1.655, 2.670e-4
-1.654, 2.644e-4
-1.653, 2.617e-4
-1.652, 2.589e-4
-1.651, 2.562e-4
-1.650, 2.537e-4
-1.649, 2.507e-4
-1.648, 2.478e-4
-1.647, 2.453e-4
-1.646, 2.430e-4
-1.645, 2.403e-4
-1.644, 2.376e-4
-1.643, 2.350e-4
-1.642, 2.326e-4
-1.641, 2.300e-4
-1.640, 2.277e-4
-1.639, 2.251e-4
-1.638, 2.227e-4
-1.637, 2.204e-4
-1.636, 2.181e-4
-1.635, 2.158e-4
-1.634, 2.134e-4
-1.633, 2.110e-4
-1.632, 2.088e-4
-1.631, 2.066e-4
-1.630, 2.043e-4
-1.629, 2.020e-4
-1.628, 1.997e-4
-1.627, 1.978e-4
-1.626, 1.957e-4
-1.625, 1.936e-4
-1.624, 1.916e-4
-1.623, 1.893e-4
-1.622, 1.874e-4
-1.621, 1.854e-4
-1.620, 1.833e-4
-1.619, 1.811e-4
-1.618, 1.792e-4
-1.617, 1.773e-4
-1.616, 1.755e-4
-1.615, 1.737e-4
-1.614, 1.717e-4
-1.613, 1.697e-4
-1.612, 1.681e-4
-1.611, 1.664e-4
-1.610, 1.647e-4
-1.609, 1.628e-4
-1.608, 1.610e-4
-1.607, 1.594e-4
-1.606, 1.576e-4
-1.605, 1.560e-4
-1.604, 1.541e-4
-1.603, 1.524e-4
-1.602, 1.508e-4
-1.601, 1.492e-4
-1.600, 1.476e-4
-1.599, 1.459e-4
-1.598, 1.443e-4
-1.597, 1.429e-4
-1.596, 1.414e-4
-1.595, 1.398e-4
-1.594, 1.382e-4
-1.593, 1.367e-4
-1.592, 1.353e-4
-1.591, 1.339e-4
-1.590, 1.324e-4
-1.589, 1.309e-4
-1.588, 1.294e-4
-1.587, 1.280e-4
-1.586, 1.267e-4
-1.585, 1.252e-4
-1.584, 1.238e-4
-1.583, 1.224e-4
-1.582, 1.212e-4
-1.581, 1.199e-4
-1.580, 1.187e-4
-1.579, 1.172e-4
-1.578, 1.160e-4
-1.577, 1.148e-4
-1.576, 1.136e-4
-1.575, 1.123e-4
-1.574, 1.111e-4
-1.573, 1.099e-4
-1.572, 1.086e-4
-1.571, 1.076e-4
-1.570, 1.064e-4
-1.569, 1.052e-4
-1.568, 1.040e-4
-1.567, 1.029e-4
-1.566, 1.019e-4
-1.565, 1.008e-4
-1.564, 9.958e-5
-1.563, 9.839e-5
-1.562, 9.745e-5
-1.561, 9.642e-5
-1.560, 9.541e-5
-1.559, 9.423e-5
-1.558, 9.318e-5
-1.557, 9.229e-5
-1.556, 9.128e-5
-1.555, 9.030e-5
-1.554, 8.912e-5
-1.553, 8.820e-5
-1.552, 8.722e-5
-1.551, 8.642e-5
-1.550, 8.539e-5
-1.549, 8.439e-5
-1.548, 8.345e-5
-1.547, 8.255e-5
-1.546, 8.177e-5
-1.545, 8.083e-5
-1.544, 7.985e-5
-1.543, 7.893e-5
-1.542, 7.816e-5
-1.541, 7.738e-5
-1.540, 7.641e-5
-1.539, 7.550e-5
-1.538, 7.460e-5
-1.537, 7.387e-5
-1.536, 7.310e-5
-1.535, 7.223e-5
-1.534, 7.128e-5
-1.533, 7.054e-5
-1.532, 6.981e-5
-1.531, 6.906e-5
-1.530, 6.820e-5
-1.529, 6.734e-5
-1.528, 6.665e-5
-1.527, 6.593e-5
-1.526, 6.527e-5
-1.525, 6.448e-5
-1.524, 6.366e-5
-1.523, 6.291e-5
-1.522, 6.225e-5
-1.521, 6.161e-5
-1.520, 6.082e-5
-1.519, 6.012e-5
-1.518, 5.931e-5
-1.517, 5.871e-5
-1.516, 5.812e-5
-1.515, 5.741e-5
-1.514, 5.662e-5
-1.513, 5.590e-5
-1.512, 5.542e-5
-1.511, 5.478e-5
-1.510, 5.405e-5
-1.509, 5.333e-5
-1.508, 5.272e-5
-1.507, 5.216e-5
-1.506, 5.159e-5
-1.505, 5.096e-5
-1.504, 5.023e-5
-1.503, 4.969e-5
-1.502, 4.912e-5
-1.501, 4.863e-5
-1.500, 4.794e-5
-1.499, 4.731e-5
-1.498, 4.669e-5
-1.497, 4.621e-5
-1.496, 4.574e-5
-1.495, 4.513e-5
-1.494, 4.448e-5
-1.493, 4.394e-5
-1.492, 4.352e-5
-1.491, 4.301e-5
-1.490, 4.242e-5
-1.489, 4.186e-5
-1.488, 4.137e-5
-1.487, 4.100e-5
-1.486, 4.050e-5
-1.485, 3.991e-5
-1.484, 3.935e-5
-1.483, 3.889e-5
-1.482, 3.843e-5
-1.481, 3.800e-5
-1.480, 3.747e-5
-1.479, 3.694e-5
-1.478, 3.648e-5
-1.477, 3.608e-5
-1.476, 3.569e-5
-1.475, 3.513e-5
-1.474, 3.469e-5
-1.473, 3.415e-5
-1.472, 3.384e-5
-1.471, 3.341e-5
-1.470, 3.297e-5
-1.469, 3.245e-5
-1.468, 3.200e-5
-1.467, 3.173e-5
-1.466, 3.136e-5
-1.465, 3.087e-5
-1.464, 3.037e-5
-1.463, 3.000e-5
-1.462, 2.969e-5
-1.461, 2.937e-5
-1.460, 2.891e-5
-1.459, 2.843e-5
-1.458, 2.810e-5
-1.457, 2.776e-5
-1.456, 2.744e-5
-1.455, 2.698e-5
-1.454, 2.657e-5
-1.453, 2.626e-5
-1.452, 2.600e-5
-1.451, 2.571e-5
-1.450, 2.528e-5
-1.449, 2.490e-5
-1.448, 2.451e-5
-1.447, 2.427e-5
-1.446, 2.399e-5
-1.445, 2.364e-5
-1.444, 2.323e-5
-1.443, 2.289e-5
-1.442, 2.266e-5
-1.441, 2.242e-5
-1.440, 2.204e-5
-1.439, 2.164e-5
-1.438, 2.132e-5
-1.437, 2.114e-5
-1.436, 2.095e-5
-1.435, 2.049e-5
-1.434, 2.012e-5
-1.433, 1.989e-5
-1.432, 1.968e-5
-1.431, 1.945e-5
-1.430, 1.907e-5
-1.429, 1.875e-5
-1.428, 1.852e-5
-1.427, 1.837e-5
-1.426, 1.811e-5
-1.425, 1.778e-5
-1.424, 1.748e-5
-1.423, 1.724e-5
-1.422, 1.707e-5
-1.421, 1.682e-5
-1.420, 1.652e-5
-1.419, 1.627e-5
-1.418, 1.600e-5
-1.417, 1.586e-5
-1.416, 1.561e-5
-1.415, 1.541e-5
-1.414, 1.505e-5
-1.413, 1.487e-5
-1.412, 1.468e-5
-1.411, 1.451e-5
-1.410, 1.420e-5
-1.409, 1.391e-5
-1.408, 1.374e-5
-1.407, 1.363e-5
-1.406, 1.349e-5
-1.405, 1.321e-5
-1.404, 1.288e-5
-1.403, 1.271e-5
-1.402, 1.265e-5
-1.401, 1.247e-5
-1.400, 1.217e-5
-1.399, 1.199e-5
-1.398, 1.174e-5
-1.397, 1.168e-5
-1.396, 1.153e-5
-1.395, 1.124e-5
-1.394, 1.104e-5
-1.393, 1.085e-5
-1.392, 1.080e-5
-1.391, 1.053e-5
-1.390, 1.036e-5
-1.389, 1.014e-5
-1.388, 9.971e-6
-1.387, 9.865e-6
-1.386, 9.751e-6
-1.385, 9.547e-6
-1.384, 9.237e-6
-1.383, 9.188e-6
-1.382, 9.034e-6
-1.381, 8.972e-6
-1.380, 8.757e-6
-1.379, 8.476e-6
-1.378, 8.389e-6
-1.377, 8.296e-6
-1.376, 8.225e-6
-1.375, 7.980e-6
-1.374, 7.734e-6
-1.373, 7.669e-6
-1.372, 7.613e-6
-1.371, 7.488e-6
-1.370, 7.256e-6
-1.369, 7.054e-6
-1.368, 6.980e-6
-1.367, 6.921e-6
-1.366, 6.788e-6
-1.365, 6.596e-6
-1.364, 6.376e-6
-1.363, 6.314e-6
-1.362, 6.254e-6
-1.361, 6.103e-6
-1.360, 5.989e-6
-1.359, 5.758e-6
-1.358, 5.649e-6
-1.357, 5.577e-6
-1.356, 5.502e-6
-1.355, 5.323e-6
-1.354, 5.153e-6
-1.353, 5.062e-6
-1.352, 5.005e-6
-1.351, 4.949e-6
-1.350, 4.682e-6
-1.349, 4.536e-6
-1.348, 4.435e-6
-1.347, 4.502e-6
-1.346, 4.356e-6
-1.345, 4.166e-6
-1.344, 3.984e-6
-1.343, 3.908e-6
-1.342, 3.903e-6
-1.341, 3.790e-6
-1.340, 3.630e-6
-1.339, 3.448e-6
-1.338, 3.448e-6
-1.337, 3.354e-6
-1.336, 3.258e-6
-1.335, 3.128e-6
-1.334, 2.956e-6
-1.333, 2.902e-6
-1.332, 2.892e-6
-1.331, 2.750e-6
-1.330, 2.566e-6
-1.329, 2.489e-6
-1.328, 2.417e-6
-1.327, 2.384e-6
-1.326, 2.323e-6
-1.325, 2.120e-6
-1.324, 1.972e-6
-1.323, 1.891e-6
-1.322, 1.935e-6
-1.321, 1.841e-6
-1.320, 1.660e-6
-1.319, 1.488e-6
-1.318, 1.455e-6
-1.317, 1.510e-6
-1.316, 1.381e-6
-1.315, 1.197e-6
-1.314, 1.015e-6
-1.313, 9.923e-7
-1.312, 1.000e-6
-1.311, 8.996e-7
-1.310, 6.973e-7
-1.309, 5.730e-7
-1.308, 5.464e-7
-1.307, 5.572e-7
-1.306, 4.142e-7
-1.305, 3.303e-7
-1.304, 1.142e-7
-1.303, 7.281e-8
-1.302, 1.172e-7
-1.301, 2.249e-8
-1.300, -1.028e-7
-1.299, -2.981e-7
-1.298, -3.741e-7
-1.297, -3.169e-7
-1.296, -4.047e-7
-1.295, -5.951e-7
-1.294, -7.470e-7
-1.293, -7.806e-7
-1.292, -7.520e-7
-1.291, -8.575e-7
-1.290, -1.031e-6
-1.289, -1.231e-6
-1.288, -1.183e-6
-1.287, -1.176e-6
-1.286, -1.284e-6
-1.285, -1.480e-6
-1.284, -1.587e-6
-1.283, -1.616e-6
-1.282, -1.627e-6
-1.281, -1.719e-6
-1.280, -1.934e-6
-1.279, -1.980e-6
-1.278, -2.064e-6
-1.277, -2.092e-6
-1.276, -2.146e-6
-1.275, -2.318e-6
-1.274, -2.437e-6
-1.273, -2.549e-6
-1.272, -2.498e-6
-1.271, -2.598e-6
-1.270, -2.703e-6
-1.269, -2.874e-6
-1.268, -2.918e-6
-1.267, -2.906e-6
-1.266, -3.003e-6
-1.265, -3.227e-6
-1.264, -3.349e-6
-1.263, -3.358e-6
-1.262, -3.368e-6
-1.261, -3.405e-6
-1.260, -3.620e-6
-1.259, -3.791e-6
-1.258, -3.782e-6
-1.257, -3.771e-6
-1.256, -3.852e-6
-1.255, -4.111e-6
-1.254, -4.226e-6
-1.253, -4.230e-6
-1.252, -4.262e-6
-1.251, -4.289e-6
-1.250, -4.514e-6
-1.249, -4.625e-6
-1.248, -4.676e-6
-1.247, -4.688e-6
-1.246, -4.780e-6
-1.245, -4.941e-6
-1.244, -5.099e-6
-1.243, -5.133e-6
-1.242, -5.114e-6
-1.241, -5.258e-6
-1.240, -5.421e-6
-1.239, -5.630e-6
-1.238, -5.597e-6
-1.237, -5.599e-6
-1.236, -5.670e-6
-1.235, -5.890e-6
-1.234, -6.059e-6
-1.233, -6.009e-6
-1.232, -6.001e-6
-1.231, -6.092e-6
-1.230, -6.339e-6
-1.229, -6.500e-6
-1.228, -6.434e-6
-1.227, -6.516e-6
-1.226, -6.625e-6
-1.225, -6.865e-6
-1.224, -6.938e-6
-1.223, -6.973e-6
-1.222, -6.972e-6
-1.221, -7.077e-6
-1.220, -7.274e-6
-1.219, -7.508e-6
-1.218, -7.476e-6
-1.217, -7.421e-6
-1.216, -7.546e-6
-1.215, -7.760e-6
-1.214, -7.918e-6
-1.213, -7.891e-6
-1.212, -7.895e-6
-1.211, -8.022e-6
-1.210, -8.234e-6
-1.209, -8.409e-6
-1.208, -8.419e-6
-1.207, -8.431e-6
-1.206, -8.485e-6
-1.205, -8.784e-6
-1.204, -8.884e-6
-1.203, -8.966e-6
-1.202, -8.923e-6
-1.201, -9.082e-6
-1.200, -9.274e-6
-1.199, -9.402e-6
-1.198, -9.434e-6
-1.197, -9.418e-6
-1.196, -9.656e-6
-1.195, -9.833e-6
-1.194, -9.893e-6
-1.193, -1.002e-5
-1.192, -1.001e-5
-1.191, -1.015e-5
-1.190, -1.038e-5
-1.189, -1.055e-5
-1.188, -1.054e-5
-1.187, -1.059e-5
-1.186, -1.075e-5
-1.185, -1.095e-5
-1.184, -1.116e-5
-1.183, -1.117e-5
-1.182, -1.116e-5
-1.181, -1.130e-5
-1.180, -1.161e-5
-1.179, -1.175e-5
-1.178, -1.182e-5
-1.177, -1.186e-5
-1.176, -1.200e-5
-1.175, -1.224e-5
-1.174, -1.237e-5
-1.173, -1.240e-5
-1.172, -1.252e-5
-1.171, -1.268e-5
-1.170, -1.290e-5
-1.169, -1.310e-5
-1.168, -1.311e-5
-1.167, -1.314e-5
-1.166, -1.332e-5
-1.165, -1.360e-5
-1.164, -1.386e-5
-1.163, -1.388e-5
-1.162, -1.394e-5
-1.161, -1.413e-5
-1.160, -1.445e-5
-1.159, -1.452e-5
-1.158, -1.467e-5
-1.157, -1.476e-5
-1.156, -1.486e-5
-1.155, -1.522e-5
-1.154, -1.527e-5
-1.153, -1.540e-5
-1.152, -1.547e-5
-1.151, -1.569e-5
-1.150, -1.594e-5
-1.149, -1.620e-5
-1.148, -1.629e-5
-1.147, -1.634e-5
-1.146, -1.652e-5
-1.145, -1.679e-5
-1.144, -1.700e-5
-1.143, -1.713e-5
-1.142, -1.722e-5
-1.141, -1.740e-5
-1.140, -1.773e-5
-1.139, -1.794e-5
-1.138, -1.802e-5
-1.137, -1.812e-5
-1.136, -1.840e-5
-1.135, -1.871e-5
-1.134, -1.892e-5
-1.133, -1.898e-5
-1.132, -1.904e-5
-1.131, -1.939e-5
-1.130, -1.964e-5
-1.129, -1.988e-5
-1.128, -1.996e-5
-1.127, -2.009e-5
-1.126, -2.035e-5
-1.125, -2.062e-5
-1.124, -2.087e-5
-1.123, -2.102e-5
-1.122, -2.116e-5
-1.121, -2.140e-5
-1.120, -2.171e-5
-1.119, -2.195e-5
-1.118, -2.207e-5
-1.117, -2.221e-5
-1.116, -2.237e-5
-1.115, -2.283e-5
-1.114, -2.305e-5
-1.113, -2.319e-5
-1.112, -2.329e-5
-1.111, -2.352e-5
-1.110, -2.394e-5
-1.109, -2.414e-5
-1.108, -2.423e-5
-1.107, -2.437e-5
-1.106, -2.471e-5
-1.105, -2.500e-5
-1.104, -2.530e-5
-1.103, -2.541e-5
-1.102, -2.563e-5
-1.101, -2.599e-5
-1.100, -2.619e-5
-1.099, -2.652e-5
-1.098, -2.661e-5
-1.097, -2.680e-5
-1.096, -2.704e-5
-1.095, -2.742e-5
-1.094, -2.765e-5
-1.093, -2.776e-5
-1.092, -2.790e-5
-1.091, -2.825e-5
-1.090, -2.866e-5
-1.089, -2.882e-5
-1.088, -2.907e-5
-1.087, -2.916e-5
-1.086, -2.945e-5
-1.085, -2.985e-5
-1.084, -3.011e-5
-1.083, -3.024e-5
-1.082, -3.035e-5
-1.081, -3.071e-5
-1.080, -3.106e-5
-1.079, -3.130e-5
-1.078, -3.146e-5
-1.077, -3.156e-5
-1.076, -3.193e-5
-1.075, -3.226e-5
-1.074, -3.252e-5
-1.073, -3.269e-5
-1.072, -3.277e-5
-1.071, -3.317e-5
-1.070, -3.356e-5
-1.069, -3.378e-5
-1.068, -3.394e-5
-1.067, -3.405e-5
-1.066, -3.441e-5
-1.065, -3.476e-5
-1.064, -3.498e-5
-1.063, -3.512e-5
-1.062, -3.525e-5
-1.061, -3.557e-5
-1.060, -3.591e-5
-1.059, -3.624e-5
-1.058, -3.627e-5
-1.057, -3.654e-5
-1.056, -3.675e-5
-1.055, -3.706e-5
-1.054, -3.743e-5
-1.053, -3.755e-5
-1.052, -3.770e-5
-1.051, -3.799e-5
-1.050, -3.836e-5
-1.049, -3.856e-5
-1.048, -3.868e-5
-1.047, -3.886e-5
-1.046, -3.918e-5
-1.045, -3.954e-5
-1.044, -3.977e-5
-1.043, -3.982e-5
-1.042, -3.997e-5
-1.041, -4.032e-5
-1.040, -4.059e-5
-1.039, -4.085e-5
-1.038, -4.104e-5
-1.037, -4.118e-5
-1.036, -4.139e-5
-1.035, -4.173e-5
-1.034, -4.192e-5
-1.033, -4.209e-5
-1.032, -4.221e-5
-1.031, -4.246e-5
-1.030, -4.279e-5
-1.029, -4.296e-5
-1.028, -4.320e-5
-1.027, -4.328e-5
-1.026, -4.355e-5
-1.025, -4.392e-5
-1.024, -4.411e-5
-1.023, -4.415e-5
-1.022, -4.429e-5
-1.021, -4.457e-5
-1.020, -4.487e-5
-1.019, -4.504e-5
-1.018, -4.505e-5
-1.017, -4.523e-5
-1.016, -4.548e-5
-1.015, -4.584e-5
-1.014, -4.595e-5
-1.013, -4.604e-5
-1.012, -4.624e-5
-1.011, -4.643e-5
-1.010, -4.680e-5
-1.009, -4.696e-5
-1.008, -4.713e-5
-1.007, -4.722e-5
-1.006, -4.752e-5
-1.005, -4.787e-5
-1.004, -4.802e-5
-1.003, -4.802e-5
-1.002, -4.817e-5
-1.001, -4.851e-5
-1.000, -4.593e-5
-1.001, -4.268e-5
-1.002, -4.025e-5
-1.003, -3.817e-5
-1.004, -3.630e-5
-1.005, -3.471e-5
-1.006, -3.301e-5
-1.007, -3.133e-5
-1.008, -2.994e-5
-1.009, -2.858e-5
-1.010, -2.743e-5
-1.011, -2.614e-5
-1.012, -2.489e-5
-1.013, -2.376e-5
-1.014, -2.276e-5
-1.015, -2.175e-5
-1.016, -2.081e-5
-1.017, -1.981e-5
-1.018, -1.878e-5
-1.019, -1.804e-5
-1.020, -1.733e-5
-1.021, -1.661e-5
-1.022, -1.568e-5
-1.023, -1.491e-5
-1.024, -1.433e-5
-1.025, -1.376e-5
-1.026, -1.313e-5
-1.027, -1.235e-5
-1.028, -1.181e-5
-1.029, -1.128e-5
-1.030, -1.091e-5
-1.031, -1.025e-5
-1.032, -9.676e-6
-1.033, -9.187e-6
-1.034, -8.810e-6
-1.035, -8.468e-6
-1.036, -7.910e-6
-1.037, -7.450e-6
-1.038, -7.081e-6
-1.039, -6.710e-6
-1.040, -6.410e-6
-1.041, -6.116e-6
-1.042, -5.589e-6
-1.043, -5.255e-6
-1.044, -4.953e-6
-1.045, -4.775e-6
-1.046, -4.490e-6
-1.047, -4.012e-6
-1.048, -3.708e-6
-1.049, -3.498e-6
-1.050, -3.347e-6
-1.051, -3.098e-6
-1.052, -2.672e-6
-1.053, -2.354e-6
-1.054, -2.316e-6
-1.055, -2.183e-6
-1.056, -1.894e-6
-1.057, -1.652e-6
-1.058, -1.371e-6
-1.059, -1.273e-6
-1.060, -1.177e-6
-1.061, -9.444e-7
-1.062, -6.425e-7
-1.063, -4.649e-7
-1.064, -3.396e-7
-1.065, -2.725e-7
-1.066, -8.406e-8
-1.067, 2.099e-7
-1.068, 3.293e-7
-1.069, 4.181e-7
-1.070, 4.526e-7
-1.071, 6.677e-7
-1.072, 8.128e-7
-1.073, 1.031e-6
-1.074, 1.116e-6
-1.075, 1.106e-6
-1.076, 1.298e-6
-1.077, 1.472e-6
-1.078, 1.706e-6
-1.079, 1.604e-6
-1.080, 1.677e-6
-1.081, 1.794e-6
-1.082, 2.047e-6
-1.083, 2.191e-6
-1.084, 2.176e-6
-1.085, 2.134e-6
-1.086, 2.254e-6
-1.087, 2.524e-6
-1.088, 2.550e-6
-1.089, 2.512e-6
-1.090, 2.546e-6
-1.091, 2.676e-6
-1.092, 2.897e-6
-1.093, 2.941e-6
-1.094, 2.910e-6
-1.095, 2.946e-6
-1.096, 3.090e-6
-1.097, 3.191e-6
-1.098, 3.325e-6
-1.099, 3.286e-6
-1.100, 3.261e-6
-1.101, 3.348e-6
-1.102, 3.523e-6
-1.103, 3.620e-6
-1.104, 3.543e-6
-1.105, 3.583e-6
-1.106, 3.608e-6
-1.107, 3.803e-6
-1.108, 3.902e-6
-1.109, 3.811e-6
-1.110, 3.794e-6
-1.111, 3.936e-6
-1.112, 4.053e-6
-1.113, 4.090e-6
-1.114, 4.057e-6
-1.115, 4.071e-6
-1.116, 4.202e-6
-1.117, 4.311e-6
-1.118, 4.357e-6
-1.119, 4.307e-6
-1.120, 4.242e-6
-1.121, 4.353e-6
-1.122, 4.514e-6
-1.123, 4.511e-6
-1.124, 4.534e-6
-1.125, 4.442e-6
-1.126, 4.651e-6
-1.127, 4.736e-6
-1.128, 4.742e-6
-1.129, 4.671e-6
-1.130, 4.628e-6
-1.131, 4.732e-6
-1.132, 4.879e-6
-1.133, 4.920e-6
-1.134, 4.799e-6
-1.135, 4.799e-6
-1.136, 4.889e-6
-1.137, 5.046e-6
-1.138, 5.127e-6
-1.139, 5.048e-6
-1.140, 5.019e-6
-1.141, 5.097e-6
-1.142, 5.248e-6
-1.143, 5.234e-6
-1.144, 5.228e-6
-1.145, 5.253e-6
-1.146, 5.254e-6
-1.147, 5.405e-6
-1.148, 5.384e-6
-1.149, 5.310e-6
-1.150, 5.365e-6
-1.151, 5.426e-6
-1.152, 5.613e-6
-1.153, 5.574e-6
-1.154, 5.526e-6
-1.155, 5.463e-6
-1.156, 5.582e-6
-1.157, 5.739e-6
-1.158, 5.744e-6
-1.159, 5.751e-6
-1.160, 5.672e-6
-1.161, 5.800e-6
-1.162, 5.920e-6
-1.163, 5.937e-6
-1.164, 5.857e-6
-1.165, 5.874e-6
-1.166, 5.959e-6
-1.167, 6.037e-6
-1.168, 6.095e-6
-1.169, 6.027e-6
-1.170, 6.053e-6
-1.171, 6.105e-6
-1.172, 6.209e-6
-1.173, 6.266e-6
-1.174, 6.147e-6
-1.175, 6.178e-6
-1.176, 6.354e-6
-1.177, 6.431e-6
-1.178, 6.477e-6
-1.179, 6.374e-6
-1.180, 6.395e-6
-1.181, 6.453e-6
-1.182, 6.656e-6
-1.183, 6.688e-6
-1.184, 6.617e-6
-1.185, 6.591e-6
-1.186, 6.641e-6
-1.187, 6.756e-6
-1.188, 6.859e-6
-1.189, 6.798e-6
-1.190, 6.837e-6
-1.191, 6.865e-6
-1.192, 7.042e-6
-1.193, 7.108e-6
-1.194, 7.036e-6
-1.195, 7.025e-6
-1.196, 7.158e-6
-1.197, 7.284e-6
-1.198, 7.286e-6
-1.199, 7.247e-6
-1.200, 7.226e-6
-1.201, 7.416e-6
-1.202, 7.557e-6
-1.203, 7.529e-6
-1.204, 7.528e-6
-1.205, 7.603e-6
-1.206, 7.563e-6
-1.207, 7.843e-6
-1.208, 7.775e-6
-1.209, 7.764e-6
-1.210, 7.788e-6
-1.211, 7.860e-6
-1.212, 8.049e-6
-1.213, 8.045e-6
-1.214, 8.035e-6
-1.215, 8.108e-6
-1.216, 8.151e-6
-1.217, 8.351e-6
-1.218, 8.344e-6
-1.219, 8.301e-6
-1.220, 8.326e-6
-1.221, 8.537e-6
-1.222, 8.638e-6
-1.223, 8.637e-6
-1.224, 8.607e-6
-1.225, 8.572e-6
-1.226, 8.790e-6
-1.227, 8.964e-6
-1.228, 8.981e-6
-1.229, 9.038e-6
-1.230, 8.971e-6
-1.231, 9.097e-6
-1.232, 9.255e-6
-1.233, 9.308e-6
-1.234, 9.291e-6
-1.235, 9.314e-6
-1.236, 9.455e-6
-1.237, 9.574e-6
-1.238, 9.608e-6
-1.239, 9.681e-6
-1.240, 9.661e-6
-1.241, 9.819e-6
-1.242, 9.902e-6
-1.243, 9.967e-6
-1.244, 9.950e-6
-1.245, 9.974e-6
-1.246, 1.017e-5
-1.247, 1.031e-5
-1.248, 1.035e-5
-1.249, 1.028e-5
-1.250, 1.035e-5
-1.251, 1.053e-5
-1.252, 1.068e-5
-1.253, 1.071e-5
-1.254, 1.075e-5
-1.255, 1.074e-5
-1.256, 1.092e-5
-1.257, 1.104e-5
-1.258, 1.108e-5
-1.259, 1.112e-5
-1.260, 1.114e-5
-1.261, 1.129e-5
-1.262, 1.140e-5
-1.263, 1.147e-5
-1.264, 1.151e-5
-1.265, 1.161e-5
-1.266, 1.171e-5
-1.267, 1.190e-5
-1.268, 1.192e-5
-1.269, 1.188e-5
-1.270, 1.198e-5
-1.271, 1.213e-5
-1.272, 1.232e-5
-1.273, 1.239e-5
-1.274, 1.237e-5
-1.275, 1.247e-5
-1.276, 1.261e-5
-1.277, 1.278e-5
-1.278, 1.281e-5
-1.279, 1.282e-5
-1.280, 1.290e-5
-1.281, 1.301e-5
-1.282, 1.325e-5
-1.283, 1.325e-5
-1.284, 1.333e-5
-1.285, 1.339e-5
-1.286, 1.355e-5
-1.287, 1.372e-5
-1.288, 1.371e-5
-1.289, 1.377e-5
-1.290, 1.389e-5
-1.291, 1.400e-5
-1.292, 1.410e-5
-1.293, 1.421e-5
-1.294, 1.425e-5
-1.295, 1.432e-5
-1.296, 1.445e-5
-1.297, 1.461e-5
-1.298, 1.469e-5
-1.299, 1.470e-5
-1.300, 1.480e-5
-1.301, 1.507e-5
-1.302, 1.515e-5
-1.303, 1.520e-5
-1.304, 1.516e-5
-1.305, 1.526e-5
-1.306, 1.546e-5
-1.307, 1.572e-5
-1.308, 1.567e-5
-1.309, 1.565e-5
-1.310, 1.584e-5
-1.311, 1.595e-5
-1.312, 1.619e-5
-1.313, 1.618e-5
-1.314, 1.619e-5
-1.315, 1.627e-5
-1.316, 1.656e-5
-1.317, 1.660e-5
-1.318, 1.669e-5
-1.319, 1.673e-5
-1.320, 1.689e-5
-1.321, 1.698e-5
-1.322, 1.721e-5
-1.323, 1.721e-5
-1.324, 1.730e-5
-1.325, 1.740e-5
-1.326, 1.756e-5
-1.327, 1.776e-5
-1.328, 1.774e-5
-1.329, 1.779e-5
-1.330, 1.790e-5
-1.331, 1.811e-5
-1.332, 1.824e-5
-1.333, 1.835e-5
-1.334, 1.835e-5
-1.335, 1.849e-5
-1.336, 1.863e-5
-1.337, 1.884e-5
-1.338, 1.890e-5
-1.339, 1.888e-5
-1.340, 1.909e-5
-1.341, 1.925e-5
-1.342, 1.937e-5
-1.343, 1.940e-5
-1.344, 1.946e-5
-1.345, 1.960e-5
-1.346, 1.979e-5
-1.347, 1.995e-5
-1.348, 1.997e-5
-1.349, 2.003e-5
-1.350, 2.013e-5
-1.351, 2.038e-5
-1.352, 2.052e-5
-1.353, 2.057e-5
-1.354, 2.066e-5
-1.355, 2.076e-5
-1.356, 2.094e-5
-1.357, 2.107e-5
-1.358, 2.114e-5
-1.359, 2.122e-5
-1.360, 2.138e-5
-1.361, 2.156e-5
-1.362, 2.171e-5
-1.363, 2.177e-5
-1.364, 2.180e-5
-1.365, 2.197e-5
-1.366, 2.222e-5
-1.367, 2.239e-5
-1.368, 2.246e-5
-1.369, 2.246e-5
-1.370, 2.265e-5
-1.371, 2.274e-5
-1.372, 2.298e-5
-1.373, 2.306e-5
-1.374, 2.314e-5
-1.375, 2.332e-5
-1.376, 2.349e-5
-1.377, 2.366e-5
-1.378, 2.370e-5
-1.379, 2.379e-5
-1.380, 2.397e-5
-1.381, 2.423e-5
-1.382, 2.440e-5
-1.383, 2.443e-5
-1.384, 2.456e-5
-1.385, 2.468e-5
-1.386, 2.496e-5
-1.387, 2.513e-5
-1.388, 2.515e-5
-1.389, 2.524e-5
-1.390, 2.540e-5
-1.391, 2.569e-5
-1.392, 2.581e-5
-1.393, 2.595e-5
-1.394, 2.608e-5
-1.395, 2.623e-5
-1.396, 2.648e-5
-1.397, 2.662e-5
-1.398, 2.669e-5
-1.399, 2.684e-5
-1.400, 2.709e-5
-1.401, 2.732e-5
-1.402, 2.750e-5
-1.403, 2.759e-5
-1.404, 2.772e-5
-1.405, 2.790e-5
-1.406, 2.819e-5
-1.407, 2.837e-5
-1.408, 2.847e-5
-1.409, 2.863e-5
-1.410, 2.884e-5
-1.411, 2.915e-5
-1.412, 2.931e-5
-1.413, 2.951e-5
-1.414, 2.960e-5
-1.415, 2.987e-5
-1.416, 3.014e-5
-1.417, 3.031e-5
-1.418, 3.048e-5
-1.419, 3.063e-5
-1.420, 3.091e-5
-1.421, 3.119e-5
-1.422, 3.138e-5
-1.423, 3.155e-5
-1.424, 3.171e-5
-1.425, 3.197e-5
-1.426, 3.229e-5
-1.427, 3.253e-5
-1.428, 3.271e-5
-1.429, 3.283e-5
-1.430, 3.313e-5
-1.431, 3.341e-5
-1.432, 3.367e-5
-1.433, 3.388e-5
-1.434, 3.411e-5
-1.435, 3.439e-5
-1.436, 3.466e-5
-1.437, 3.496e-5
-1.438, 3.510e-5
-1.439, 3.540e-5
-1.440, 3.563e-5
-1.441, 3.596e-5
-1.442, 3.634e-5
-1.443, 3.643e-5
-1.444, 3.678e-5
-1.445, 3.704e-5
-1.446, 3.744e-5
-1.447, 3.771e-5
-1.448, 3.787e-5
-1.449, 3.814e-5
-1.450, 3.847e-5
-1.451, 3.891e-5
-1.452, 3.920e-5
-1.453, 3.943e-5
-1.454, 3.965e-5
-1.455, 4.001e-5
-1.456, 4.040e-5
-1.457, 4.073e-5
-1.458, 4.102e-5
-1.459, 4.127e-5
-1.460, 4.167e-5
-1.461, 4.204e-5
-1.462, 4.232e-5
-1.463, 4.261e-5
-1.464, 4.291e-5
-1.465, 4.338e-5
-1.466, 4.377e-5
-1.467, 4.413e-5
-1.468, 4.437e-5
-1.469, 4.465e-5
-1.470, 4.505e-5
-1.471, 4.555e-5
-1.472, 4.593e-5
-1.473, 4.619e-5
-1.474, 4.657e-5
-1.475, 4.694e-5
-1.476, 4.737e-5
-1.477, 4.782e-5
-1.478, 4.812e-5
-1.479, 4.855e-5
-1.480, 4.894e-5
-1.481, 4.945e-5
-1.482, 4.980e-5
-1.483, 5.018e-5
-1.484, 5.061e-5
-1.485, 5.108e-5
-1.486, 5.158e-5
-1.487, 5.197e-5
-1.488, 5.234e-5
-1.489, 5.271e-5
-1.490, 5.322e-5
-1.491, 5.382e-5
-1.492, 5.416e-5
-1.493, 5.459e-5
-1.494, 5.498e-5
-1.495, 5.548e-5
-1.496, 5.605e-5
-1.497, 5.656e-5
-1.498, 5.697e-5
-1.499, 5.736e-5
-1.500, 5.791e-5
-1.501, 5.847e-5
-1.502, 5.892e-5
-1.503, 5.944e-5
-1.504, 5.986e-5
-1.505, 6.048e-5
-1.506, 6.104e-5
-1.507, 6.157e-5
-1.508, 6.199e-5
-1.509, 6.250e-5
-1.510, 6.311e-5
-1.511, 6.375e-5
-1.512, 6.428e-5
-1.513, 6.473e-5
-1.514, 6.526e-5
-1.515, 6.590e-5
-1.516, 6.657e-5
-1.517, 6.713e-5
-1.518, 6.763e-5
-1.519, 6.815e-5
-1.520, 6.874e-5
-1.521, 6.948e-5
-1.522, 7.006e-5
-1.523, 7.056e-5
-1.524, 7.121e-5
-1.525, 7.187e-5
-1.526, 7.260e-5
-1.527, 7.320e-5
-1.528, 7.370e-5
-1.529, 7.432e-5
-1.530, 7.508e-5
-1.531, 7.583e-5
-1.532, 7.645e-5
-1.533, 7.707e-5
-1.534, 7.768e-5
-1.535, 7.847e-5
-1.536, 7.923e-5
-1.537, 7.988e-5
-1.538, 8.053e-5
-1.539, 8.119e-5
-1.540, 8.208e-5
-1.541, 8.284e-5
-1.542, 8.356e-5
-1.543, 8.424e-5
-1.544, 8.495e-5
-1.545, 8.582e-5
-1.546, 8.662e-5
-1.547, 8.742e-5
-1.548, 8.810e-5
-1.549, 8.876e-5
-1.550, 8.972e-5
-1.551, 9.052e-5
-1.552, 9.134e-5
-1.553, 9.205e-5
-1.554, 9.285e-5
-1.555, 9.377e-5
-1.556, 9.461e-5
-1.557, 9.556e-5
-1.558, 9.630e-5
-1.559, 9.725e-5
-1.560, 9.819e-5
-1.561, 9.907e-5
-1.562, 1.001e-4
-1.563, 1.007e-4
-1.564, 1.016e-4
-1.565, 1.027e-4
-1.566, 1.038e-4
-1.567, 1.047e-4
-1.568, 1.056e-4
-1.569, 1.065e-4
-1.570, 1.075e-4
-1.571, 1.087e-4
-1.572, 1.096e-4
-1.573, 1.105e-4
-1.574, 1.115e-4
-1.575, 1.125e-4
-1.576, 1.137e-4
-1.577, 1.147e-4
-1.578, 1.158e-4
-1.579, 1.168e-4
-1.580, 1.180e-4
-1.581, 1.191e-4
-1.582, 1.202e-4
-1.583, 1.213e-4
-1.584, 1.224e-4
-1.585, 1.237e-4
-1.586, 1.250e-4
-1.587, 1.262e-4
-1.588, 1.273e-4
-1.589, 1.285e-4
-1.590, 1.298e-4
-1.591, 1.311e-4
-1.592, 1.324e-4
-1.593, 1.336e-4
-1.594, 1.349e-4
-1.595, 1.362e-4
-1.596, 1.376e-4
-1.597, 1.390e-4
-1.598, 1.402e-4
-1.599, 1.417e-4
-1.600, 1.431e-4
-1.601, 1.446e-4
-1.602, 1.460e-4
-1.603, 1.473e-4
-1.604, 1.488e-4
-1.605, 1.502e-4
-1.606, 1.519e-4
-1.607, 1.534e-4
-1.608, 1.548e-4
-1.609, 1.564e-4
-1.610, 1.580e-4
-1.611, 1.597e-4
-1.612, 1.611e-4
-1.613, 1.628e-4
-1.614, 1.643e-4
-1.615, 1.661e-4
-1.616, 1.679e-4
-1.617, 1.696e-4
-1.618, 1.712e-4
-1.619, 1.730e-4
-1.620, 1.748e-4
-1.621, 1.768e-4
-1.622, 1.786e-4
-1.623, 1.805e-4
-1.624, 1.822e-4
-1.625, 1.843e-4
-1.626, 1.864e-4
-1.627, 1.882e-4
-1.628, 1.902e-4
-1.629, 1.921e-4
-1.630, 1.942e-4
-1.631, 1.962e-4
-1.632, 1.983e-4
-1.633, 2.003e-4
-1.634, 2.025e-4
-1.635, 2.048e-4
-1.636, 2.072e-4
-1.637, 2.095e-4
-1.638, 2.116e-4
-1.639, 2.139e-4
-1.640, 2.163e-4
-1.641, 2.189e-4
-1.642, 2.213e-4
-1.643, 2.235e-4
-1.644, 2.259e-4
-1.645, 2.285e-4
-1.646, 2.311e-4
-1.647, 2.337e-4
-1.648, 2.363e-4
-1.649, 2.390e-4
-1.650, 2.418e-4
-1.651, 2.447e-4
-1.652, 2.474e-4
-1.653, 2.502e-4
-1.654, 2.530e-4
-1.655, 2.559e-4
-1.656, 2.589e-4
-1.657, 2.617e-4
-1.658, 2.648e-4
-1.659, 2.678e-4
-1.660, 2.709e-4
-1.661, 2.739e-4
-1.662, 2.771e-4
-1.663, 2.801e-4
-1.664, 2.832e-4
-1.665, 2.865e-4
-1.666, 2.898e-4
-1.667, 2.930e-4
-1.668, 2.961e-4
-1.669, 2.995e-4
-1.670, 3.033e-4
-1.671, 3.073e-4
-1.672, 3.106e-4
-1.673, 3.141e-4
-1.674, 3.178e-4
-1.675, 3.215e-4
-1.676, 3.254e-4
-1.677, 3.294e-4
-1.678, 3.332e-4
-1.679, 3.371e-4
-1.680, 3.413e-4
-1.681, 3.456e-4
-1.682, 3.497e-4
-1.683, 3.537e-4
-1.684, 3.581e-4
-1.685, 3.625e-4
-1.686, 3.670e-4
-1.687, 3.713e-4
-1.688, 3.756e-4
-1.689, 3.800e-4
-1.690, 3.842e-4
-1.691, 3.889e-4
-1.692, 3.935e-4
-1.693, 3.984e-4
-1.694, 4.033e-4
-1.695, 4.085e-4
-1.696, 4.135e-4
-1.697, 4.187e-4
-1.698, 4.237e-4
-1.699, 4.284e-4
-1.700, 4.288e-4
-1.699, 4.248e-4
-1.698, 4.208e-4
-1.697, 4.164e-4
-1.696, 4.123e-4
-1.695, 4.081e-4
-1.694, 4.047e-4
-1.693, 4.011e-4
-1.692, 3.973e-4
-1.691, 3.933e-4
-1.690, 3.895e-4
-1.689, 3.858e-4
-1.688, 3.818e-4
-1.687, 3.779e-4
-1.686, 3.741e-4
-1.685, 3.705e-4
-1.684, 3.667e-4
-1.683, 3.629e-4
-1.682, 3.592e-4
-1.681, 3.554e-4
-1.680, 3.518e-4
-1.679, 3.484e-4
-1.678, 3.450e-4
-1.677, 3.412e-4
-1.676, 3.374e-4
-1.675, 3.341e-4
-1.674, 3.309e-4
-1.673, 3.275e-4
-1.672, 3.240e-4
-1.671, 3.206e-4
-1.670, 3.175e-4
-1.669, 3.141e-4
-1.668, 3.106e-4
-1.667, 3.074e-4
-1.666, 3.041e-4
-1.665, 3.011e-4
-1.664, 2.979e-4
-1.663, 2.948e-4
-1.662, 2.916e-4
-1.661, 2.887e-4
-1.660, 2.856e-4
-1.659, 2.825e-4
-1.658, 2.795e-4
-1.657, 2.763e-4
-1.656, 2.731e-4
-1.655, 2.703e-4
-1.654, 2.676e-4
-1.653, 2.646e-4
-1.652, 2.615e-4
-1.651, 2.587e-4
-1.650, 2.560e-4
-1.649, 2.531e-4
-1.648, 2.501e-4
-1.647, 2.473e-4
-1.646, 2.442e-4
-1.645, 2.418e-4
-1.644, 2.395e-4
-1.643, 2.368e-4
-1.642, 2.341e-4
-1.641, 2.315e-4
-1.640, 2.291e-4
-1.639, 2.266e-4
-1.638, 2.239e-4
-1.637, 2.213e-4
-1.636, 2.188e-4
-1.635, 2.165e-4
-1.634, 2.142e-4
-1.633, 2.118e-4
-1.632, 2.093e-4
-1.631, 2.072e-4
-1.630, 2.049e-4
-1.629, 2.029e-4
-1.628, 2.004e-4
-1.627, 1.982e-4
-1.626, 1.962e-4
-1.625, 1.941e-4
-1.624, 1.921e-4
-1.623, 1.898e-4
-1.622, 1.879e-4
-1.621, 1.857e-4
-1.620, 1.838e-4
-1.619, 1.818e-4
-1.618, 1.797e-4
-1.617, 1.776e-4
-1.616, 1.757e-4
-1.615, 1.739e-4
-1.614, 1.720e-4
-1.613, 1.701e-4
-1.612, 1.681e-4
-1.611, 1.663e-4
-1.610, 1.647e-4
-1.609, 1.628e-4
-1.608, 1.610e-4
-1.607, 1.592e-4
-1.606, 1.574e-4
-1.605, 1.558e-4
-1.604, 1.542e-4
-1.603, 1.524e-4
-1.602, 1.506e-4
-1.601, 1.489e-4
-1.600, 1.474e-4
-1.599, 1.459e-4
-1.598, 1.442e-4
-1.597, 1.425e-4
-1.596, 1.410e-4
-1.595, 1.395e-4
-1.594, 1.381e-4
-1.593, 1.364e-4
-1.592, 1.349e-4
-1.591, 1.334e-4
-1.590, 1.321e-4
-1.589, 1.308e-4
-1.588, 1.292e-4
-1.587, 1.277e-4
-1.586, 1.262e-4
-1.585, 1.251e-4
-1.584, 1.237e-4
-1.583, 1.222e-4
-1.582, 1.209e-4
-1.581, 1.195e-4
-1.580, 1.184e-4
-1.579, 1.171e-4
-1.578, 1.158e-4
-1.577, 1.144e-4
-1.576, 1.132e-4
-1.575, 1.121e-4
-1.574, 1.109e-4
-1.573, 1.096e-4
-1.572, 1.084e-4
-1.571, 1.072e-4
-1.570, 1.061e-4
-1.569, 1.050e-4
-1.568, 1.038e-4
-1.567, 1.026e-4
-1.566, 1.015e-4
-1.565, 1.005e-4
-1.564, 9.944e-5
-1.563, 9.832e-5
-1.562, 9.720e-5
-1.561, 9.608e-5
-1.560, 9.513e-5
-1.559, 9.416e-5
-1.558, 9.301e-5
-1.557, 9.197e-5
-1.556, 9.089e-5
-1.555, 9.001e-5
-1.554, 8.906e-5
-1.553, 8.802e-5
-1.552, 8.695e-5
-1.551, 8.602e-5
-1.550, 8.517e-5
-1.549, 8.418e-5
-1.548, 8.330e-5
-1.547, 8.234e-5
-1.546, 8.144e-5
-1.545, 8.062e-5
-1.544, 7.974e-5
-1.543, 7.880e-5
-1.542, 7.781e-5
-1.541, 7.697e-5
-1.540, 7.622e-5
-1.539, 7.535e-5
-1.538, 7.449e-5
-1.537, 7.349e-5
-1.536, 7.277e-5
-1.535, 7.201e-5
-1.534, 7.117e-5
-1.533, 7.038e-5
-1.532, 6.941e-5
-1.531, 6.879e-5
-1.530, 6.800e-5
-1.529, 6.730e-5
-1.528, 6.647e-5
-1.527, 6.559e-5
-1.526, 6.492e-5
-1.525, 6.423e-5
-1.524, 6.352e-5
-1.523, 6.272e-5
-1.522, 6.192e-5
-1.521, 6.122e-5
-1.520, 6.065e-5
-1.519, 5.995e-5
-1.518, 5.915e-5
-1.517, 5.843e-5
-1.516, 5.774e-5
-1.515, 5.720e-5
-1.514, 5.647e-5
-1.513, 5.573e-5
-1.512, 5.503e-5
-1.511, 5.439e-5
-1.510, 5.389e-5
-1.509, 5.320e-5
-1.508, 5.253e-5
-1.507, 5.175e-5
-1.506, 5.129e-5
-1.505, 5.079e-5
-1.504, 5.013e-5
-1.503, 4.947e-5
-1.502, 4.880e-5
-1.501, 4.829e-5
-1.500, 4.776e-5
-1.499, 4.718e-5
-1.498, 4.648e-5
-1.497, 4.586e-5
-1.496, 4.533e-5
-1.495, 4.487e-5
-1.494, 4.431e-5
-1.493, 4.368e-5
-1.492, 4.310e-5
-1.491, 4.261e-5
-1.490, 4.223e-5
-1.489, 4.166e-5
-1.488, 4.110e-5
-1.487, 4.047e-5
-1.486, 4.003e-5
-1.485, 3.968e-5
-1.484, 3.907e-5
-1.483, 3.855e-5
-1.482, 3.798e-5
-1.481, 3.752e-5
-1.480, 3.714e-5
-1.479, 3.666e-5
-1.478, 3.615e-5
-1.477, 3.561e-5
-1.476, 3.517e-5
-1.475, 3.479e-5
-1.474, 3.439e-5
-1.473, 3.392e-5
-1.472, 3.334e-5
-1.471, 3.292e-5
-1.470, 3.257e-5
-1.469, 3.223e-5
-1.468, 3.172e-5
-1.467, 3.122e-5
-1.466, 3.087e-5
-1.465, 3.051e-5
-1.464, 3.016e-5
-1.463, 2.970e-5
-1.462, 2.921e-5
-1.461, 2.884e-5
-1.460, 2.857e-5
-1.459, 2.814e-5
-1.458, 2.773e-5
-1.457, 2.733e-5
-1.456, 2.702e-5
-1.455, 2.669e-5
-1.454, 2.629e-5
-1.453, 2.587e-5
-1.452, 2.550e-5
-1.451, 2.518e-5
-1.450, 2.497e-5
-1.449, 2.454e-5
-1.448, 2.417e-5
-1.447, 2.380e-5
-1.446, 2.349e-5
-1.445, 2.330e-5
-1.444, 2.289e-5
-1.443, 2.253e-5
-1.442, 2.214e-5
-1.441, 2.191e-5
-1.440, 2.168e-5
-1.439, 2.136e-5
-1.438, 2.097e-5
-1.437, 2.061e-5
-1.436, 2.043e-5
-1.435, 2.013e-5
-1.434, 1.986e-5
-1.433, 1.947e-5
-1.432, 1.915e-5
-1.431, 1.896e-5
-1.430, 1.876e-5
-1.429, 1.857e-5
-1.428, 1.811e-5
-1.427, 1.775e-5
-1.426, 1.757e-5
-1.425, 1.741e-5
-1.424, 1.714e-5
-1.423, 1.683e-5
-1.422, 1.650e-5
-1.421, 1.628e-5
-1.420, 1.614e-5
-1.419, 1.593e-5
-1.418, 1.559e-5
-1.417, 1.532e-5
-1.416, 1.511e-5
-1.415, 1.498e-5
-1.414, 1.471e-5
-1.413, 1.441e-5
-1.412, 1.415e-5
-1.411, 1.402e-5
-1.410, 1.383e-5
-1.409, 1.364e-5
-1.408, 1.334e-5
-1.407, 1.310e-5
-1.406, 1.289e-5
-1.405, 1.279e-5
-1.404, 1.255e-5
-1.403, 1.227e-5
-1.402, 1.208e-5
-1.401, 1.190e-5
-1.400, 1.180e-5
-1.399, 1.163e-5
-1.398, 1.137e-5
-1.397, 1.116e-5
-1.396, 1.096e-5
-1.395, 1.088e-5
-1.394, 1.060e-5
-1.393, 1.048e-5
-1.392, 1.024e-5
-1.391, 1.010e-5
-1.390, 9.948e-6
-1.389, 9.818e-6
-1.388, 9.559e-6
-1.387, 9.329e-6
-1.386, 9.295e-6
-1.385, 9.120e-6
-1.384, 9.020e-6
-1.383, 8.709e-6
-1.382, 8.488e-6
-1.381, 8.475e-6
-1.380, 8.343e-6
-1.379, 8.208e-6
-1.378, 7.906e-6
-1.377, 7.768e-6
-1.376, 7.702e-6
-1.375, 7.645e-6
-1.374, 7.484e-6
-1.373, 7.215e-6
-1.372, 7.062e-6
-1.371, 6.940e-6
-1.370, 6.984e-6
-1.369, 6.789e-6
-1.368, 6.540e-6
-1.367, 6.314e-6
-1.366, 6.259e-6
-1.365, 6.267e-6
-1.364, 6.121e-6
-1.363, 5.884e-6
-1.362, 5.703e-6
-1.361, 5.616e-6
-1.360, 5.622e-6
-1.359, 5.444e-6
-1.358, 5.291e-6
-1.357, 5.106e-6
-1.356, 5.039e-6
-1.355, 4.965e-6
-1.354, 4.868e-6
-1.353, 4.664e-6
-1.352, 4.518e-6
-1.351, 4.479e-6
-1.350, 4.435e-6
-1.349, 4.327e-6
-1.348, 4.129e-6
-1.347, 3.989e-6
-1.346, 3.936e-6
-1.345, 3.918e-6
-1.344, 3.793e-6
-1.343, 3.561e-6
-1.342, 3.488e-6
-1.341, 3.440e-6
-1.340, 3.412e-6
-1.339, 3.299e-6
-1.338, 3.091e-6
-1.337, 2.906e-6
-1.336, 2.905e-6
-1.335, 2.936e-6
-1.334, 2.827e-6
-1.333, 2.646e-6
-1.332, 2.455e-6
-1.331, 2.482e-6
-1.330, 2.448e-6
-1.329, 2.342e-6
-1.328, 2.121e-6
-1.327, 2.018e-6
-1.326, 1.952e-6
-1.325, 1.988e-6
-1.324, 1.883e-6
-1.323, 1.697e-6
-1.322, 1.604e-6
-1.321, 1.571e-6
-1.320, 1.568e-6
-1.319, 1.429e-6
-1.318, 1.282e-6
-1.317, 1.164e-6
-1.316, 1.169e-6
-1.315, 1.143e-6
-1.314, 1.039e-6
-1.313, 8.374e-7
-1.312, 7.131e-7
-1.311, 7.427e-7
-1.310, 6.924e-7
-1.309, 6.470e-7
-1.308, 4.122e-7
-1.307, 3.185e-7
-1.306, 2.770e-7
-1.305, 3.352e-7
-1.304, 2.425e-7
-1.303, 3.729e-8
-1.302, -1.107e-7
-1.301, -1.363e-7
-1.300, -8.702e-8
-1.299, -1.590e-7
-1.298, -3.445e-7
-1.297, -5.280e-7
-1.296, -5.053e-7
-1.295, -5.211e-7
-1.294, -5.695e-7
-1.293, -7.214e-7
-1.292, -9.118e-7
-1.291, -8.289e-7
-1.290, -9.542e-7
-1.289, -1.004e-6
-1.288, -1.112e-6
-1.287, -1.228e-6
-1.286, -1.316e-6
-1.285, -1.268e-6
-1.284, -1.339e-6
-1.283, -1.532e-6
-1.282, -1.682e-6
-1.281, -1.683e-6
-1.280, -1.626e-6
-1.279, -1.694e-6
-1.278, -1.876e-6
-1.277, -2.064e-6
-1.276, -2.071e-6
-1.275, -2.068e-6
-1.274, -2.110e-6
-1.273, -2.286e-6
-1.272, -2.457e-6
-1.271, -2.360e-6
-1.270, -2.531e-6
-1.269, -2.502e-6
-1.268, -2.660e-6
-1.267, -2.786e-6
-1.266, -2.834e-6
-1.265, -2.811e-6
-1.264, -2.881e-6
-1.263, -3.091e-6
-1.262, -3.194e-6
-1.261, -3.233e-6
-1.260, -3.183e-6
-1.259, -3.308e-6
-1.258, -3.441e-6
-1.257, -3.608e-6
-1.256, -3.569e-6
-1.255, -3.637e-6
-1.254, -3.731e-6
-1.253, -3.845e-6
-1.252, -4.009e-6
-1.251, -4.007e-6
-1.250, -4.001e-6
-1.249, -4.112e-6
-1.248, -4.279e-6
-1.247, -4.412e-6
-1.246, -4.413e-6
-1.245, -4.392e-6
-1.244, -4.526e-6
-1.243, -4.701e-6
-1.242, -4.787e-6
-1.241, -4.841e-6
-1.240, -4.825e-6
-1.239, -4.904e-6
-1.238, -5.151e-6
-1.237, -5.214e-6
-1.236, -5.240e-6
-1.235, -5.200e-6
-1.234, -5.340e-6
-1.233, -5.501e-6
-1.232, -5.634e-6
-1.231, -5.683e-6
-1.230, -5.601e-6
-1.229, -5.840e-6
-1.228, -5.989e-6
-1.227, -6.147e-6
-1.226, -6.106e-6
-1.225, -6.087e-6
-1.224, -6.190e-6
-1.223, -6.322e-6
-1.222, -6.504e-6
-1.221, -6.496e-6
-1.220, -6.496e-6
-1.219, -6.625e-6
-1.218, -6.800e-6
-1.217, -6.946e-6
-1.216, -6.957e-6
-1.215, -6.982e-6
-1.214, -7.014e-6
-1.213, -7.240e-6
-1.212, -7.344e-6
-1.211, -7.433e-6
-1.210, -7.389e-6
-1.209, -7.445e-6
-1.208, -7.690e-6
-1.207, -7.819e-6
-1.206, -7.856e-6
-1.205, -7.805e-6
-1.204, -7.926e-6
-1.203, -8.162e-6
-1.202, -8.314e-6
-1.201, -8.340e-6
-1.200, -8.298e-6
-1.199, -8.427e-6
-1.198, -8.626e-6
-1.197, -8.793e-6
-1.196, -8.800e-6
-1.195, -8.757e-6
-1.194, -8.881e-6
-1.193, -9.074e-6
-1.192, -9.292e-6
-1.191, -9.264e-6
-1.190, -9.343e-6
-1.189, -9.396e-6
-1.188, -9.625e-6
-1.187, -9.809e-6
-1.186, -9.769e-6
-1.185, -9.876e-6
-1.184, -9.899e-6
-1.183, -1.017e-5
-1.182, -1.034e-5
-1.181, -1.036e-5
-1.180, -1.037e-5
-1.179, -1.054e-5
-1.178, -1.076e-5
-1.177, -1.086e-5
-1.176, -1.094e-5
-1.175, -1.101e-5
-1.174, -1.111e-5
-1.173, -1.129e-5
-1.172, -1.147e-5
-1.171, -1.157e-5
-1.170, -1.159e-5
-1.169, -1.170e-5
-1.168, -1.190e-5
-1.167, -1.209e-5
-1.166, -1.222e-5
-1.165, -1.220e-5
-1.164, -1.235e-5
-1.163, -1.253e-5
-1.162, -1.274e-5
-1.161, -1.285e-5
-1.160, -1.289e-5
-1.159, -1.302e-5
-1.158, -1.320e-5
-1.157, -1.344e-5
-1.156, -1.354e-5
-1.155, -1.357e-5
-1.154, -1.373e-5
-1.153, -1.398e-5
-1.152, -1.419e-5
-1.151, -1.424e-5
-1.150, -1.433e-5
-1.149, -1.453e-5
-1.148, -1.472e-5
-1.147, -1.488e-5
-1.146, -1.499e-5
-1.145, -1.512e-5
-1.144, -1.528e-5
-1.143, -1.560e-5
-1.142, -1.580e-5
-1.141, -1.574e-5
-1.140, -1.586e-5
-1.139, -1.608e-5
-1.138, -1.637e-5
-1.137, -1.654e-5
-1.136, -1.664e-5
-1.135, -1.673e-5
-1.134, -1.690e-5
-1.133, -1.719e-5
-1.132, -1.743e-5
-1.131, -1.747e-5
-1.130, -1.756e-5
-1.129, -1.785e-5
-1.128, -1.811e-5
-1.127, -1.830e-5
-1.126, -1.846e-5
-1.125, -1.851e-5
-1.124, -1.875e-5
-1.123, -1.902e-5
-1.122, -1.931e-5
-1.121, -1.937e-5
-1.120, -1.942e-5
-1.119, -1.967e-5
-1.118, -1.996e-5
-1.117, -2.025e-5
-1.116, -2.033e-5
-1.115, -2.043e-5
-1.114, -2.062e-5
-1.113, -2.098e-5
-1.112, -2.118e-5
-1.111, -2.135e-5
-1.110, -2.146e-5
-1.109, -2.161e-5
-1.108, -2.198e-5
-1.107, -2.217e-5
-1.106, -2.241e-5
-1.105, -2.252e-5
-1.104, -2.274e-5
-1.103, -2.301e-5
-1.102, -2.325e-5
-1.101, -2.344e-5
-1.100, -2.355e-5
-1.099, -2.382e-5
-1.098, -2.415e-5
-1.097, -2.443e-5
-1.096, -2.457e-5
-1.095, -2.468e-5
-1.094, -2.501e-5
-1.093, -2.534e-5
-1.092, -2.557e-5
-1.091, -2.565e-5
-1.090, -2.585e-5
-1.089, -2.609e-5
-1.088, -2.646e-5
-1.087, -2.667e-5
-1.086, -2.693e-5
-1.085, -2.697e-5
-1.084, -2.720e-5
-1.083, -2.754e-5
-1.082, -2.785e-5
-1.081, -2.801e-5
-1.080, -2.809e-5
-1.079, -2.842e-5
-1.078, -2.875e-5
-1.077, -2.906e-5
-1.076, -2.918e-5
-1.075, -2.933e-5
-1.074, -2.964e-5
-1.073, -2.997e-5
-1.072, -3.028e-5
-1.071, -3.049e-5
-1.070, -3.055e-5
-1.069, -3.078e-5
-1.068, -3.112e-5
-1.067, -3.148e-5
-1.066, -3.162e-5
-1.065, -3.175e-5
-1.064, -3.196e-5
-1.063, -3.230e-5
-1.062, -3.258e-5
-1.061, -3.280e-5
-1.060, -3.296e-5
-1.059, -3.321e-5
-1.058, -3.362e-5
-1.057, -3.377e-5
-1.056, -3.404e-5
-1.055, -3.416e-5
-1.054, -3.442e-5
-1.053, -3.467e-5
-1.052, -3.502e-5
-1.051, -3.524e-5
-1.050, -3.536e-5
-1.049, -3.565e-5
-1.048, -3.597e-5
-1.047, -3.631e-5
-1.046, -3.638e-5
-1.045, -3.657e-5
-1.044, -3.681e-5
-1.043, -3.720e-5
-1.042, -3.749e-5
-1.041, -3.766e-5
-1.040, -3.781e-5
-1.039, -3.805e-5
-1.038, -3.845e-5
-1.037, -3.865e-5
-1.036, -3.879e-5
-1.035, -3.905e-5
-1.034, -3.926e-5
-1.033, -3.961e-5
-1.032, -3.986e-5
-1.031, -4.012e-5
-1.030, -4.019e-5
-1.029, -4.040e-5
-1.028, -4.082e-5
-1.027, -4.114e-5
-1.026, -4.124e-5
-1.025, -4.128e-5
-1.024, -4.159e-5
-1.023, -4.197e-5
-1.022, -4.228e-5
-1.021, -4.237e-5
-1.020, -4.255e-5
-1.019, -4.280e-5
-1.018, -4.314e-5
-1.017, -4.338e-5
-1.016, -4.362e-5
-1.015, -4.368e-5
-1.014, -4.393e-5
-1.013, -4.442e-5
-1.012, -4.451e-5
-1.011, -4.475e-5
-1.010, -4.481e-5
-1.009, -4.511e-5
-1.008, -4.543e-5
-1.007, -4.577e-5
-1.006, -4.589e-5
-1.005, -4.595e-5
-1.004, -4.629e-5
-1.003, -4.651e-5
-1.002, -4.685e-5
-1.001, -4.707e-5
