Potential V vs RHE, Current mA cm-2
0.013299999999999867,3.4872633541673155
0.012299999999999978,2.352664891675556
0.011299999999999866,1.4812027309586933
0.010299999999999976,0.870188920546984
0.009299999999999864,0.3031726315610774
0.008299999999999974,-0.1330535977523067
0.007299999999999862,-0.5255652478998613
0.006299999999999972,-0.8308599464107361
0.00529999999999986,-1.1362961160515976
0.0042999999999999705,-1.4415908145624723
0.0032999999999998586,-1.6594563547416883
0.0022999999999999687,-1.8773218949209036
0.0012999999999998568,-2.1390434853959355
0.00029999999999996696,-2.3569090255751513
-0.000700000000000145,-2.532333226758415
-0.0017000000000000348,-2.7501987669376318
-0.0027000000000001467,-2.8803522065252145
-0.0037000000000000366,-3.055776407708479
-0.0047000000000001485,-3.1859298472960624
-0.005700000000000038,-3.317497998183511
-0.00670000000000015,-3.4915074880669104
-0.00770000000000004,-3.623075638954359
-0.008700000000000152,-3.7532290785419424
-0.009700000000000042,-3.884797229429391
-0.010700000000000154,-4.014950669016974
-0.011700000000000044,-4.146518819904423
-0.012700000000000156,-4.3205283097878215
-0.013700000000000045,-4.406825699079589
-0.014700000000000157,-4.538393849967037
-0.015700000000000047,-4.668547289554621
-0.01670000000000016,-4.756259390146253
-0.01770000000000005,-4.887827541033701
-0.01870000000000016,-4.974124930325469
-0.01970000000000005,-5.0618370309171015
-0.020700000000000163,-5.149549131508733
-0.021700000000000053,-5.279702571096316
-0.022700000000000164,-5.367414671687949
-0.023700000000000054,-5.453712060979717
-0.024700000000000166,-5.585280211867165
-0.025700000000000056,-5.672992312458796
-0.026700000000000168,-5.759289701750564
-0.027700000000000058,-5.847001802342197
-0.02870000000000017,-5.977155241929781
-0.02970000000000006,-6.064867342521412
-0.03070000000000017,-6.196435493408861
-0.03170000000000006,-6.282732882700628
-0.03270000000000017,-6.326588932996443
-0.03370000000000006,-6.458157083883892
-0.034700000000000175,-6.54445447317566
-0.035700000000000065,-6.6760226240631075
-0.03670000000000018,-6.762320013354876
-0.03770000000000007,-6.893888164242324
-0.03870000000000018,-7.024041603829907
-0.03970000000000007,-7.111753704421539
-0.04070000000000018,-7.243321855308987
-0.04170000000000007,-7.37347529489657
-0.04270000000000018,-7.461187395488204
-0.04370000000000007,-7.635196885371603
-0.044700000000000184,-7.679052935667419
-0.045700000000000074,-7.7653503249591855
-0.046700000000000186,-7.940774526142452
-0.047700000000000076,-8.070927965730034
-0.04870000000000019,-8.202496116617484
-0.04970000000000008,-8.288793505909249
-0.05070000000000019,-8.4203616567967
-0.05170000000000008,-8.55051509638428
-0.05270000000000019,-8.725939297567548
-0.05370000000000008,-8.812236686859313
-0.05470000000000019,-8.943804837746763
-0.05570000000000008,-9.073958277334345
-0.056700000000000195,-9.205526428221793
-0.057700000000000085,-9.335679867809377
-0.058700000000000196,-9.467248018696827
-0.059700000000000086,-9.59740145828441
-0.0607000000000002,-9.728969609171857
-0.06170000000000009,-9.85912304875944
-0.0627000000000002,-10.034547249942705
-0.06370000000000009,-10.164700689530287
-0.0647000000000002,-10.340124890713554
-0.06570000000000009,-10.514134380596953
-0.0667000000000002,-10.644287820184536
-0.0677000000000001,-10.775855971071984
-0.0687000000000002,-10.993721511251199
-0.0697000000000001,-11.123874950838783
-0.07070000000000021,-11.299299152022046
-0.0717000000000001,-11.385596541313816
-0.07270000000000021,-11.56102074249708
-0.0737000000000001,-11.73503023238048
-0.07470000000000021,-11.909039722263879
-0.0757000000000001,-12.084463923447142
-0.07670000000000021,-12.258473413330542
-0.0777000000000001,-12.432482903213943
-0.07870000000000021,-12.651763154693022
-0.0797000000000001,-12.825772644576423
-0.08070000000000022,-12.99978213445982
-0.0817000000000001,-13.175206335643086
-0.08270000000000022,-13.349215825526485
-0.08370000000000011,-13.567081365705702
-0.08470000000000022,-13.698649516593148
-0.08570000000000011,-13.872659006476551
-0.08670000000000022,-14.13438059695158
-0.08770000000000011,-14.30273124163552
-0.08870000000000022,-14.486643710617974
-0.08970000000000011,-14.69885040559773
-0.09070000000000022,-14.925204213576137
-0.09170000000000011,-15.094969569559943
-0.09270000000000023,-15.307176264539699
-0.09370000000000012,-15.491088733522153
-0.09470000000000023,-15.660854089505953
-0.09570000000000012,-15.830619445489761
-0.09670000000000023,-15.972090575476265
-0.09770000000000012,-16.056973253468165
-0.09870000000000023,-16.184297270456018
-0.09970000000000012,-16.311621287443874
-0.10070000000000023,-16.495533756426326
-0.10170000000000012,-16.580416434418233
-0.10270000000000024,-16.70774045140608
-0.10370000000000013,-16.792623129397985
-0.10470000000000024,-16.962388485381787
-0.10570000000000013,-17.061418276372343
-0.10670000000000024,-17.103859615368293
-0.10770000000000013,-17.188742293360193
-0.10870000000000024,-17.316066310348052
-0.10970000000000013,-17.40094898833995
-0.11070000000000024,-17.48583166633185
-0.11170000000000013,-17.584861457322408
-0.11270000000000002,-17.669744135314307
-0.11370000000000013,-17.797068152302163
-0.11470000000000002,-17.881950830294063
-0.11570000000000014,-17.966833508285966
-0.11670000000000003,-18.06586329927652
-0.11770000000000014,-18.19318731626437
-0.11870000000000003,-18.27806999425627
-0.11970000000000014,-18.40539401124413
-0.12070000000000003,-18.49027668923603
-0.12170000000000014,-18.631747819222536
-0.12270000000000003,-18.674189158218486
-0.12370000000000014,-18.759071836210385
-0.12470000000000003,-18.80151317520634
-0.12570000000000014,-18.88639585319824
-0.12670000000000003,-19.01371987018609
-0.12770000000000015,-19.112749661176647
-0.12870000000000004,-19.197632339168546
-0.12970000000000015,-19.28251501716045
-0.13070000000000004,-19.409839034148305
-0.13170000000000015,-19.537163051136158
-0.13270000000000004,-19.678634181122664
-0.13370000000000015,-19.805958198110513
-0.13470000000000004,-19.93328221509837
-0.13570000000000015,-20.06060623208622
-0.13670000000000004,-20.202077362072725
-0.13770000000000016,-20.329401379060574
-0.13870000000000005,-20.456725396048434
-0.13970000000000016,-20.626490752032236
-0.14070000000000005,-20.810403221014692
-0.14170000000000016,-20.93772723800254
-0.14270000000000005,-21.107492593986347
-0.14370000000000016,-21.291405062968803
-0.14470000000000005,-21.461170418952605
-0.14570000000000016,-21.63093577493641
-0.14670000000000005,-21.814848243918867
-0.14770000000000016,-22.027054938898623
-0.14870000000000005,-22.253408746877028
-0.14970000000000017,-22.42317410286083
-0.15070000000000006,-22.592939458844636
-0.15170000000000017,-22.776851927827092
-0.15270000000000006,-22.946617283810895
-0.15370000000000017,-23.15882397879065
-0.15470000000000006,-23.385177786769056
-0.15570000000000017,-23.55494314275286
-0.15670000000000006,-23.767149837732617
-0.15770000000000017,-23.993503645711023
-0.15870000000000006,-24.20571034069078
-0.15970000000000018,-24.432064148669184
-0.16070000000000007,-24.64427084364894
-0.16170000000000018,-24.870624651627345
-0.16270000000000007,-25.0828313466071
-0.16370000000000018,-25.295038041586857
-0.16470000000000007,-25.521391849565262
-0.16570000000000018,-25.73359854454502
-0.16670000000000007,-26.002393691519377
-0.16770000000000018,-26.21460038649913
-0.16870000000000007,-26.440954194477534
-0.16970000000000018,-26.69560222845324
-0.17070000000000007,-26.9643973754276
-0.17170000000000019,-27.219045409403304
-0.17270000000000008,-27.43125210438306
-0.1737000000000002,-27.615164573365515
-0.17470000000000008,-27.912253946337174
-0.1757000000000002,-28.13860775431558
-0.17670000000000008,-28.350814449295335
-0.1777000000000002,-28.577168257273744
-0.17870000000000008,-28.789374952253496
-0.1797000000000002,-29.058170099227848
-0.18070000000000008,-29.27037679420761
-0.1817000000000002,-29.482583489187363
-0.18270000000000008,-29.751378636161718
-0.1837000000000002,-30.00602667013743
-0.1847000000000001,-30.232380478115836
-0.1857000000000002,-30.444587173095588
-0.1867000000000001,-30.614352529079397
-0.1877000000000002,-30.88314767605375
-0.1887000000000001,-31.095354371033505
-0.1897000000000002,-31.321708179011907
-0.1907000000000001,-31.57635621298762
-0.1917000000000001,-31.802710020966025
-0.19269999999999998,-32.05735805494172
-0.1937000000000001,-32.283711862920136
-0.19469999999999998,-32.53835989689585
-0.1957000000000001,-32.764713704874254
-0.19669999999999999,-32.97692039985401
-0.1977000000000001,-33.231568433829715
-0.1987,-33.45792224180811
-0.1997000000000001,-33.670128936787876
-0.2007,-33.85404140577033
-0.2017000000000001,-34.10868943974604
-0.2027,-34.278454795729836
-0.2037000000000001,-34.5472499427042
-0.2047,-34.717015298688004
-0.2057000000000001,-34.94336910666641
-0.2067,-35.198017140642115
-0.2077000000000001,-35.38192960962457
-0.2087,-35.594136304604326
-0.2097000000000001,-35.848784338580025
-0.2107,-36.11757948555439
-0.2117000000000001,-36.37222751953009
-0.2127,-36.5985813275085
-0.2137000000000001,-36.768346683492304
-0.2147,-36.99470049147071
-0.2157000000000001,-37.249348525446415
-0.2167,-37.376672542434264
-0.21770000000000012,-37.60302635041268
-0.2187,-37.81523304539243
-0.21970000000000012,-38.08402819236679
-0.2207,-38.33867622634249
-0.22170000000000012,-38.607471373316855
-0.2227,-38.90456074628851
-0.22370000000000012,-39.21579723225882
-0.2247,-39.51288660523048
-0.22570000000000012,-39.82412309120078
-0.2267,-40.03632978618054
-0.22770000000000012,-40.34756627215084
-0.22870000000000001,-40.616361419125205
-0.22970000000000013,-40.828568114104954
-0.23070000000000002,-41.04077480908471
-0.23170000000000013,-41.267128617063115
-0.23270000000000002,-41.47933531204288
-0.23370000000000013,-41.74813045901723
-0.23470000000000002,-41.91789581500104
-0.23570000000000013,-42.130102509980794
-0.23670000000000002,-42.39889765695515
-0.2376999999999999,-42.6111043519349
-0.23870000000000002,-42.87989949890926
-0.2396999999999999,-43.04966485489307
-0.24070000000000003,-43.36090134086337
-0.24169999999999991,-43.57310803584313
-0.24270000000000003,-43.75702050482558
-0.24369999999999992,-43.96922719980534
-0.24470000000000003,-44.138992555789144
-0.24569999999999992,-44.3229050247716
-0.24670000000000003,-44.535111719751356
-0.24769999999999992,-44.66243573673921
-0.24870000000000003,-44.88878954471762
-0.24969999999999992,-45.05855490070142
-0.25070000000000003,-45.27076159568118
-0.2516999999999999,-45.45467406466363
-0.25270000000000004,-45.624439420647434
-0.2536999999999999,-45.79420477663124
-0.25470000000000004,-46.02055858460964
-0.2556999999999999,-46.19032394059345
-0.25670000000000004,-46.37423640957591
-0.25769999999999993,-46.544001765559706
-0.25870000000000004,-46.713767121543505
-0.25969999999999993,-46.88353247752732
-0.26070000000000004,-47.02500360751382
-0.26169999999999993,-47.15232762450167
-0.26270000000000004,-47.40697565847737
-0.26369999999999993,-47.590888127459834
-0.26470000000000005,-47.76065348344364
-0.26569999999999994,-47.93041883942744
-0.26670000000000005,-48.114331308409895
-0.26769999999999994,-48.2840966643937
-0.26870000000000005,-48.45386202037751
-0.26969999999999994,-48.59533315036401
-0.27070000000000005,-48.76509850634781
-0.27169999999999994,-48.93486386233162
-0.27270000000000005,-49.16121767031002
-0.27369999999999994,-49.28854168729788
-0.27470000000000006,-49.458307043281685
-0.27569999999999995,-49.68466085126009
-0.27670000000000006,-49.89686754623985
-0.27769999999999995,-50.0807800152223
-0.27870000000000006,-50.29298671020206
-0.27969999999999995,-50.50519340518181
-0.28070000000000006,-50.77398855215617
-0.28169999999999995,-51.028636586131874
-0.28270000000000006,-51.21254905511432
-0.28369999999999995,-51.424755750094086
-0.28470000000000006,-51.69355089706845
-0.28569999999999995,-51.948198931044146
-0.28670000000000007,-52.2169940780185
-0.28769999999999996,-52.386759434002315
-0.28870000000000007,-52.471642111994214
-0.28969999999999996,-52.86776127595642
-0.29070000000000007,-53.16485064892808
-0.29169999999999996,-53.433645795902436
-0.29270000000000007,-53.64585249088219
-0.29369999999999996,-53.91464763785655
-0.2947000000000001,-54.16929567183226
-0.29569999999999996,-54.39564947981066
-0.2967000000000001,-54.56541483579447
-0.29769999999999996,-54.876651321764776
-0.2987000000000001,-55.088858016744524
-0.29969999999999997,-55.31521182472294
-0.3007000000000001,-55.527418519702685
-0.30169999999999997,-55.73962521468245
-0.3027000000000001,-56.008420361656796
-0.30369999999999997,-56.26306839563251
-0.3047000000000001,-56.489422203610914
-0.30569999999999997,-56.70162889859067
-0.3067000000000001,-56.88554136757313
-0.3077,-57.14018940154883
-0.3087000000000001,-57.30995475753264
-0.3097,-57.493867226515086
-0.3107000000000001,-57.70607392149485
-0.3117,-57.87583927747865
-0.3127000000000001,-58.10219308545706
-0.3137,-58.31439978043681
-0.3147000000000001,-58.45587091042332
-0.3157,-58.66807760540307
-0.3167000000000001,-58.880284300382826
-0.3177,-59.10663810836124
-0.3187000000000001,-59.31884480334099
-0.3197,-59.54519861131939
-0.3207000000000001,-59.757405306299155
-0.3217,-60.02620045327351
-0.3227000000000001,-60.19596580925731
-0.3237,-60.40817250423707
-0.3247000000000001,-60.67696765121143
-0.3257,-60.84673300719523
-0.3267000000000001,-61.07308681517363
-0.3277,-61.28529351015339
-0.3287000000000001,-61.49750020513315
-0.3297,-61.72385401311155
-0.3307000000000001,-61.936060708091304
-0.3317,-62.11997317707376
-0.3327000000000001,-62.33217987205352
-0.3337,-62.501945228037314
-0.3347000000000001,-62.77074037501168
-0.3357,-62.94050573099548
-0.3367000000000001,-63.20930087796983
-0.3377,-63.46394891194555
-0.3387000000000001,-63.6761556069253
-0.3397,-63.98739209289561
-0.3407000000000001,-64.25618723986996
-0.3417,-64.51083527384567
-0.3427000000000001,-64.82207175981598
-0.3437,-65.0767197937917
-0.3447000000000001,-65.38795627976201
-0.3457,-65.64260431373769
-0.3467000000000001,-65.86895812171612
-0.3477,-66.16604749468777
-0.3487000000000001,-66.43484264166212
-0.3497,-66.64704933664189
-0.3507000000000001,-66.9582858226122
-0.3517,-67.25537519558385
-0.3527000000000001,-67.52417034255821
-0.3537,-67.82125971552985
-0.3547000000000001,-68.0900548625042
-0.3557,-68.38714423547587
-0.35670000000000013,-68.69838072144618
-0.3577,-68.96717586842054
-0.35870000000000013,-69.1793825634003
-0.3597,-69.43403059737601
-0.36070000000000013,-69.70282574435035
-0.3617,-69.95747377832606
-0.3626999999999999,-70.14138624730852
-0.3637,-70.39603428128423
-0.3646999999999999,-70.62238808926263
-0.3657,-70.87703612323833
-0.3666999999999999,-71.10338993121674
-0.3677,-71.35803796519245
-0.3686999999999999,-71.58439177317086
-0.36970000000000003,-71.8814811461425
-0.3706999999999999,-72.10783495412092
-0.37170000000000003,-72.27760031010472
-0.3726999999999999,-72.48980700508447
-0.37370000000000003,-72.75860215205884
-0.3746999999999999,-72.97080884703858
-0.37570000000000003,-73.15472131602105
-0.3766999999999999,-73.32448667200485
-0.37770000000000004,-73.53669336698461
-0.3786999999999999,-73.76304717496302
-0.37970000000000004,-73.97525386994278
-0.3806999999999999,-74.20160767792116
-0.38170000000000004,-74.41381437290093
-0.38269999999999993,-74.66846240687663
-0.38370000000000004,-74.89481621485504
-0.38469999999999993,-75.1070229098348
-0.38570000000000004,-75.33337671781321
-0.38669999999999993,-75.54558341279296
-0.38770000000000004,-75.81437855976732
-0.38869999999999993,-76.02658525474708
-0.38970000000000005,-76.15390927173492
-0.39069999999999994,-76.38026307971333
-0.39170000000000005,-76.5924697746931
-0.39269999999999994,-76.81882358267148
-0.39370000000000005,-76.98858893865528
-0.39469999999999994,-77.20079563363505
-0.39570000000000005,-77.46959078060941
-0.39669999999999994,-77.7242388145851
-0.39770000000000005,-77.95059262256353
-0.39869999999999994,-78.20524065653922
-0.39970000000000006,-78.43159446451764
-0.40069999999999995,-78.72868383748929
-0.40170000000000006,-78.99747898446365
-0.40269999999999995,-79.20968567944341
-0.40370000000000006,-79.37945103542721
-0.40469999999999995,-79.56336350440966
-0.40570000000000006,-79.73312886039348
-0.40669999999999995,-79.90289421637728
-0.40770000000000006,-80.04436534636378
-0.40869999999999995,-80.21413070234757
-0.40970000000000006,-80.42633739732734
-0.41069999999999995,-80.65269120530574
-0.41170000000000007,-80.90733923928146
-0.41269999999999996,-81.21857572525175
-0.41370000000000007,-81.57225355021802
-0.41469999999999996,-81.91178426218562
-0.41570000000000007,-82.26546208715187
-0.41669999999999996,-82.6615812511141
-0.41770000000000007,-83.08599464107361
-0.41869999999999996,-83.48211380503581
-0.4197000000000001,-83.83579163000208
-0.42069999999999996,-84.23191079396429
-0.4217000000000001,-84.57144150593189
-0.42269999999999996,-85.01000200889004
-0.4237000000000001,-85.36367983385631
-0.42469999999999997,-85.75979899781852
-0.4257000000000001,-86.14177104878208
-0.42669999999999997,-86.45300753475239
-0.4277000000000001,-86.80668535971866
-0.42869999999999997,-87.10377473269031
-0.4297000000000001,-87.41501121866061
-0.43069999999999997,-87.75454193062824
-0.4317000000000001,-88.10821975559449
-0.4327,-88.46189758056073
-0.4337000000000001,-88.80142829252836
-0.4347,-89.23998879548651
-0.4357000000000001,-89.63610795944872
-0.4367,-90.07466846240689
-0.4377000000000001,-90.47078762636909
-0.4387,-90.85275967733266
-0.4397000000000001,-91.24887884129487
-0.4407,-91.60255666626112
-0.4417000000000001,-91.98452871722468
-0.4427,-92.25332386419905
-0.4437000000000001,-92.64944302816124
-0.4447,-92.94653240113291
-0.4457000000000001,-93.34265156509512
-0.4467,-93.73877072905732
-0.4477000000000001,-94.07830144102493
-0.4487,-94.47442060498715
-0.4497000000000001,-94.87053976894937
-0.4507,-95.26665893291157
-0.4517000000000001,-95.64863098387512
-0.4527,-96.0871914868333
-0.4537000000000001,-96.52575198979144
-0.4547,-96.96431249274961
-0.4557000000000001,-97.36043165671182
-0.4567,-97.84143349866595
-0.4577000000000001,-98.3082882276214
-0.4587,-98.74684873057957
-0.4597000000000001,-99.18540923353773
-0.4607,-99.62396973649588
-0.4617000000000001,-100.10497157844999
-0.4627,-100.62841475940007
-0.4637000000000001,-101.10941660135417
-0.4647,-101.59041844330828
-0.4657000000000001,-102.1563029632543
-0.4667,-102.72218748320032
-0.4677000000000001,-103.28807200314633
-0.4687,-103.81151518409638
-0.4697000000000001,-104.41984104303836
-0.4707,-104.98572556298437
-0.4717000000000001,-105.59405142192634
-0.4727,-106.15993594187235
-0.4737000000000001,-106.73996757481702
-0.4747,-107.26341075576708
-0.4757000000000001,-107.87173661470905
-0.4767,-108.48006247365102
-0.4777000000000001,-109.04594699359701
-0.4787,-109.654272852539
-0.4797000000000001,-110.3050400504769
-0.4807,-111.01239570040943
-0.48170000000000013,-111.66316289834735
-0.4827,-112.3563714352812
-0.48370000000000013,-113.00713863321914
-0.4847,-113.71449428315165
-0.48570000000000013,-114.3228201420936
-0.4867,-113.84181830013951
-0.48570000000000013,-111.6207215593514
-0.4847,-109.654272852539
-0.48370000000000013,-107.914177953705
-0.4827,-106.30140707185885
-0.48170000000000013,-104.73107752900866
-0.4807,-103.28807200314633
-0.4797000000000001,-101.92994915527588
-0.4787,-100.54353208140815
-0.4777000000000001,-99.18540923353773
-0.4767,-97.92631617665783
-0.4757000000000001,-96.69551734577524
-0.4747,-95.47886562789132
-0.4737000000000001,-94.21977257101145
-0.4727,-93.03141507912481
-0.4717000000000001,-91.81476336124088
-0.4707,-90.68299432134886
-0.4697000000000001,-89.50878394246087
-0.4687,-88.37701490256885
-0.4677000000000001,-87.33012854066871
-0.4667,-86.36812485676049
-0.4657000000000001,-85.40612117285227
-0.4647,-84.48655882793999
-0.4637000000000001,-83.56699648302772
-0.4627,-82.61913991211814
