Potential V vs RHE, Current mA cm-2
0.4132999999999999,0.00845997357319292
0.4122999999999999,0.0067693935698542
0.4112999999999999,0.006057793786022087
0.4102999999999999,0.005614989149164331
0.4092999999999999,0.005261311324198071
0.4082999999999999,0.004938757147828843
0.4072999999999999,0.00463459421835786
0.4062999999999999,0.004399752142580264
0.4052999999999999,0.004187545447600509
0.4042999999999999,0.003978168175220483
0.4032999999999999,0.003771620325440188
0.4022999999999999,0.003556584207860702
0.4012999999999999,0.003427845479572984
0.4002999999999999,0.003276471370487425
0.3992999999999999,0.0030996324580042952
0.3982999999999999,0.0029270376794207614
0.3972999999999999,0.002771419436435607
0.3962999999999999,0.0026356071516485634
0.3952999999999999,0.0024997948668615197
0.3942999999999999,0.0023696414272739367
0.39329999999999987,0.0022140231842887824
0.39229999999999987,0.0020654784978029537
0.39129999999999987,0.0019523015938137506
0.39029999999999987,0.001849027668923603
0.38929999999999987,0.00173868018753413
0.38829999999999987,0.0016056973253468167
0.38729999999999987,0.0014854468648582886
0.38629999999999987,0.0013736846721689507
0.38529999999999986,0.0012759281213482767
0.38429999999999986,0.0011921772123962666
0.38329999999999986,0.0010526866782295738
0.38229999999999986,0.0009368218227706272
0.38129999999999986,0.0008461388284492785
0.38029999999999986,0.0007414501922592657
0.37929999999999986,0.0006674607912763243
0.37829999999999986,0.0005473518019177827
0.37729999999999986,0.0004147933531204288
0.37629999999999986,0.00034646279733694746
0.37529999999999986,0.00026271188838493734
0.37429999999999986,0.0002082455033401334
0.37329999999999985,8.401970409898453e-05
0.37229999999999985,-2.624289461249643e-05
0.37129999999999985,-7.230589453610203e-05
0.37029999999999985,-0.00013790605751084377
0.36929999999999985,-0.00021885583808912116
0.36829999999999985,-0.000308124121110605
0.36729999999999985,-0.00042130102509980793
0.36629999999999985,-0.0004729379875448818
0.36529999999999985,-0.0005258481901598342
0.36429999999999985,-0.0005845587091042331
0.36329999999999985,-0.000692076767893976
0.36229999999999984,-0.000768754120346661
0.36129999999999984,-0.0008358114359602637
0.36029999999999984,-0.0008986246176742713
0.35929999999999984,-0.00098647818939589
0.35829999999999984,-0.0010576381677791014
0.35729999999999984,-0.001140115836561233
0.35629999999999984,-0.001190338087706442
0.35529999999999984,-0.0012517365581205843
0.35429999999999984,-0.0013088908946351319
0.35329999999999984,-0.001409476868055536
0.35229999999999984,-0.0014585673501608528
0.35129999999999983,-0.0015250587812545096
0.35029999999999983,-0.0015547677185516753
0.34929999999999983,-0.0016368209739438474
0.34829999999999983,-0.0017174595180361543
0.34729999999999983,-0.001808001041227517
0.34629999999999983,-0.001851857091523333
0.34529999999999983,-0.0019084455435179344
0.34429999999999983,-0.0019296662130159098
0.3432999999999998,-0.0020286960040064627
0.3422999999999998,-0.0020824550334013338
0.3412999999999998,-0.0021418729079956656
0.3402999999999998,-0.002194217226090672
0.3392999999999998,-0.0022210967407881076
0.3382999999999998,-0.0023045647074801446
0.3372999999999998,-0.002380959117672857
0.3362999999999998,-0.0024120827662698877
0.3352999999999998,-0.002477159486063679
0.3342999999999998,-0.00249696544426179
0.3332999999999998,-0.002573359854454502
0.3322999999999998,-0.0026497542646472133
0.3312999999999998,-0.0026780484906445143
0.3302999999999998,-0.002721904540940331
0.3292999999999998,-0.0027671753025360116
0.3282999999999998,-0.002843569712728724
0.3272999999999998,-0.0029157199890218408
0.3262999999999998,-0.0029383553698196807
0.3252999999999999,-0.002970893729716577
0.3242999999999999,-0.0030204086252118532
0.3232999999999999,-0.00308972947890524
0.3222999999999999,-0.0031689533116976824
0.3212999999999999,-0.003197247537694983
0.3202999999999999,-0.0032227123410925535
0.3192999999999999,-0.00327788608178729
0.3182999999999999,-0.003340133378981352
0.3172999999999999,-0.0033995512535756832
0.3162999999999999,-0.0034349190360723086
0.3152999999999999,-0.0034674573959692047
0.3142999999999999,-0.0035141428688647506
0.3132999999999999,-0.0035820490112582733
0.3122999999999999,-0.0036174167937548986
0.3112999999999999,-0.00365985813275085
0.3102999999999999,-0.0036824935135486908
0.3092999999999999,-0.003744740810742752
0.3082999999999999,-0.00383103820003452
0.3072999999999999,-0.0038565030034320895
0.3062999999999999,-0.0038862119407292554
0.3052999999999999,-0.003922994434525746
0.3042999999999999,-0.0039512886605230476
0.3032999999999999,-0.0040446596063141394
0.3022999999999999,-0.004070124409711711
0.3012999999999999,-0.0041012480583087416
0.3002999999999999,-0.004153592376403748
0.2992999999999999,-0.004181886602401049
0.2982999999999999,-0.004234230920496055
0.2972999999999999,-0.004293648795090386
0.2962999999999999,-0.004321943021087687
0.2952999999999999,-0.004360140226184043
0.2942999999999999,-0.004381360895682018
0.2932999999999999,-0.00444077877027635
0.2922999999999999,-0.004508684912669872
0.2912999999999999,-0.004500196644870682
0.2902999999999999,-0.004548296829066094
0.2892999999999999,-0.0045893234567621795
0.2882999999999999,-0.004630350084458265
0.2872999999999999,-0.0046883532477527325
0.2862999999999999,-0.004706744494650977
0.2852999999999999,-0.004733624009348412
0.2842999999999999,-0.004778894770944094
0.2832999999999999,-0.00485104504723721
0.2822999999999999,-0.004904804076632082
0.2812999999999999,-0.004920365900930597
0.2802999999999999,-0.004933098302629383
0.2792999999999999,-0.0049826131981246585
0.2782999999999999,-0.005029298671020205
0.2772999999999999,-0.005057592897017506
0.2762999999999999,-0.0050858871230148065
0.2752999999999999,-0.005100034236013457
0.2742999999999999,-0.005142475575009409
0.2732999999999999,-0.005190575759204819
0.2722999999999999,-0.005234431809500636
0.2712999999999999,-0.005258481901598342
0.2702999999999999,-0.005278287859796452
0.2692999999999999,-0.005315070353592943
0.26829999999999987,-0.005382976495986465
0.26729999999999987,-0.005392879475085519
0.26629999999999987,-0.005414100144583496
0.26529999999999987,-0.005442394370580797
0.26429999999999987,-0.005480591575677152
0.26329999999999987,-0.005547083006770809
0.26229999999999987,-0.005564059542369189
0.26129999999999987,-0.0055909390570666245
0.26029999999999986,-0.00560650088136514
0.25929999999999986,-0.005616403860464196
0.25829999999999986,-0.005688554136757312
0.25729999999999986,-0.0057408984548523185
0.25629999999999986,-0.005735239609652859
0.25529999999999986,-0.00578051037124854
0.25429999999999986,-0.005796072195547055
0.25329999999999986,-0.005862563626640712
0.25229999999999986,-0.005888028430038283
0.25129999999999986,-0.0058993461204372025
0.25029999999999986,-0.005931884480334099
0.24929999999999986,-0.005948861015932479
0.24829999999999985,-0.006019596580925731
0.24729999999999985,-0.0060535496521224915
0.24629999999999985,-0.006073355610320603
0.24529999999999985,-0.006104479258917633
0.24429999999999985,-0.006151164731813179
0.24329999999999985,-0.006178044246510615
0.24229999999999985,-0.006217656162906836
0.24129999999999985,-0.006221900296806431
0.24029999999999985,-0.006233217987205352
0.23929999999999985,-0.006285562305300358
0.23829999999999985,-0.006337906623395365
0.23729999999999984,-0.006347809602494419
0.23629999999999984,-0.006367615560692531
0.23529999999999984,-0.006383177384991045
0.23429999999999984,-0.006424204012687132
0.23329999999999984,-0.006476548330782138
0.23229999999999984,-0.0065076719793791685
0.23129999999999984,-0.006526063226277414
0.23029999999999984,-0.0065387956279762
0.22929999999999984,-0.006584066389571881
0.22829999999999984,-0.006647728398065807
0.22729999999999984,-0.006656216665864997
0.22629999999999983,-0.006677437335362973
0.22529999999999983,-0.006701487427460679
0.22429999999999983,-0.006719878674358924
0.22329999999999983,-0.006773637703753795
0.22229999999999983,-0.00678919952805231
0.22129999999999983,-0.0067991025071513665
0.22029999999999983,-0.006834470289647992
0.21929999999999983,-0.006864179226945159
0.21829999999999983,-0.006934914791938409
0.21729999999999983,-0.006958964884036116
0.21629999999999983,-0.006966038440535441
0.21529999999999982,-0.0069716972857349
0.21429999999999982,-0.007001406223032067
0.21329999999999982,-0.007066482942825859
0.21229999999999982,-0.007079215344524643
0.21129999999999982,-0.00710043601402262
0.21029999999999982,-0.007117412549620999
0.20929999999999982,-0.00713438908521938
0.20829999999999982,-0.007192392248513846
0.20729999999999982,-0.007216442340611552
0.20629999999999982,-0.007223515897110878
0.20529999999999982,-0.007261713102207234
0.20429999999999982,-0.007295666173403994
0.20329999999999981,-0.007345181068899271
0.2022999999999998,-0.007384792985295492
0.2012999999999998,-0.0073862076965953575
0.20029999999999992,-0.007414501922592657
0.19929999999999992,-0.007437137303390498
0.19829999999999992,-0.0075022140231842905
0.19729999999999992,-0.007513531713583209
0.19629999999999992,-0.007541825939580511
0.19529999999999992,-0.007538996516980781
0.19429999999999992,-0.007632367462771873
0.19329999999999992,-0.00770451773906499
0.19229999999999992,-0.00767905293566742
0.19129999999999991,-0.00770168831646526
0.1902999999999999,-0.007705932450364854
0.1892999999999999,-0.007745544366761076
0.1882999999999999,-0.007797888684856083
0.1872999999999999,-0.007812035797854733
0.1862999999999999,-0.007827597622153248
0.1852999999999999,-0.007845988869051492
0.1842999999999999,-0.007870038961149198
0.1832999999999999,-0.007926627413143799
0.1822999999999999,-0.00793511568094299
0.1812999999999999,-0.00796058048434056
0.1802999999999999,-0.007977557019938943
0.1792999999999999,-0.007991704132937592
0.1782999999999999,-0.008061024986630978
0.1772999999999999,-0.008076586810929494
0.1762999999999999,-0.008073757388329763
0.1752999999999999,-0.008102051614327066
0.1742999999999999,-0.00814590766462288
0.1732999999999999,-0.008184104869719239
0.1722999999999999,-0.008206740250517076
0.1712999999999999,-0.008206740250517076
0.1702999999999999,-0.008244937455613433
0.1692999999999999,-0.008278890526810195
0.1682999999999999,-0.00835387022570304
0.1672999999999999,-0.00836801733870169
0.1662999999999999,-0.008383579163000207
0.1652999999999999,-0.008392067430799397
0.1642999999999999,-0.008426020501996158
0.1632999999999999,-0.008469876552291974
0.1622999999999999,-0.008481194242690896
0.1612999999999999,-0.008496756066989412
0.1602999999999999,-0.008501000200889005
0.1592999999999999,-0.008553344518984013
0.15829999999999989,-0.008602859414479289
0.15729999999999988,-0.008607103548378882
0.15629999999999988,-0.008635397774376184
0.15529999999999988,-0.008635397774376184
0.15429999999999988,-0.008672180268172675
0.15329999999999988,-0.008733012854066871
0.15229999999999988,-0.008745745255765656
0.15129999999999988,-0.008754233523564848
0.15029999999999988,-0.008775454193062823
0.14929999999999988,-0.00881931024335864
0.14829999999999988,-0.008878728117952971
0.14729999999999988,-0.008874483984053376
0.14629999999999987,-0.008894289942251485
0.14529999999999987,-0.008911266477849865
0.14429999999999987,-0.008952293105545952
0.14329999999999987,-0.009004637423640958
0.14229999999999987,-0.009032931649638259
0.14129999999999987,-0.009051322896536505
0.14029999999999987,-0.00906971414343475
0.13929999999999987,-0.009092349524232591
0.13829999999999987,-0.009139034997128138
0.13729999999999987,-0.009160255666626113
0.13629999999999987,-0.009172988068324898
0.13529999999999986,-0.009180061624824223
0.13429999999999986,-0.009208355850821524
0.13329999999999986,-0.009270603148015586
0.13229999999999986,-0.009310215064411806
0.13129999999999986,-0.009308800353111941
0.13029999999999986,-0.009338509290409108
0.12929999999999986,-0.009373877072905734
0.12829999999999986,-0.009402171298903033
0.12729999999999986,-0.00943753908139966
0.12629999999999986,-0.009451686194398309
0.12529999999999986,-0.00944885677179858
0.12429999999999986,-0.009505445223793181
0.12329999999999985,-0.009552130696688728
0.12229999999999985,-0.009564863098387513
0.12129999999999985,-0.009579010211386164
0.12029999999999985,-0.009597401458284409
0.11929999999999985,-0.009649745776379415
0.11829999999999985,-0.009686528270175906
0.11729999999999985,-0.009711993073573478
0.11629999999999985,-0.009736043165671183
0.11529999999999985,-0.009734628454371317
0.11429999999999985,-0.009798290462865246
0.11329999999999985,-0.0098364876679616
0.11229999999999984,-0.00983931709056133
0.11129999999999984,-0.009861952471359169
0.11029999999999984,-0.009873270161758091
0.10929999999999984,-0.009922785057253367
0.10829999999999984,-0.009977958797948105
0.10729999999999984,-0.009975129375348375
0.10629999999999984,-0.010009082446545133
0.10529999999999984,-0.010014741291744594
0.10429999999999984,-0.010048694362941356
0.10329999999999984,-0.010122259350534337
0.10229999999999984,-0.010136406463532989
0.10129999999999983,-0.010154797710431233
0.10029999999999983,-0.010180262513828803
0.09929999999999983,-0.010221289141524889
0.09829999999999983,-0.010279292304819356
0.09729999999999983,-0.010299098263017467
0.09629999999999983,-0.010301927685617196
0.09529999999999983,-0.010331636622914362
0.09429999999999983,-0.01035285729241234
0.09329999999999983,-0.010413689878306535
0.09229999999999983,-0.010425007568705454
0.09129999999999983,-0.0104433988156037
0.09029999999999982,-0.010475937175500598
0.08929999999999982,-0.010524037359696007
0.08829999999999982,-0.010559405142192634
0.08729999999999982,-0.010576381677791015
0.08629999999999982,-0.010596187635989124
0.08529999999999982,-0.010627311284586155
0.08429999999999982,-0.010679655602681162
0.08329999999999982,-0.010705120406078732
0.08229999999999982,-0.010741902899875222
0.08129999999999982,-0.01075180587897428
0.08029999999999982,-0.010763123569373199
0.07929999999999982,-0.010826785577867126
0.07829999999999981,-0.010884788741161593
0.07729999999999981,-0.010894691720260648
0.07629999999999981,-0.010932888925357003
0.07529999999999992,-0.010956939017454708
0.07429999999999992,-0.01101635689204904
0.07329999999999992,-0.011071530632743777
0.07229999999999992,-0.011071530632743777
0.07129999999999992,-0.011106898415240403
0.07029999999999992,-0.011108313126540268
0.06929999999999992,-0.011171975135034195
0.06829999999999992,-0.011227148875728931
0.06729999999999992,-0.011225734164429065
0.06629999999999991,-0.011278078482524071
0.06529999999999991,-0.011299299152022046
0.06429999999999991,-0.01136437587181584
0.06329999999999991,-0.011415305478610981
0.06229999999999991,-0.011429452591609632
0.06129999999999991,-0.011450673261107608
0.06029999999999991,-0.011471893930605584
0.05929999999999991,-0.011528482382600184
0.05829999999999991,-0.011572338432896002
0.05729999999999991,-0.011599217947593436
0.056299999999999906,-0.011619023905791547
0.055299999999999905,-0.011657221110887902
0.054299999999999904,-0.011686930048185069
0.0532999999999999,-0.011754836190578589
0.0522999999999999,-0.011798692240874405
0.0512999999999999,-0.011808595219973463
0.0502999999999999,-0.011838304157270628
0.0492999999999999,-0.011903380877064417
0.0482999999999999,-0.01193733394826118
0.0472999999999999,-0.011981189998556995
0.0462999999999999,-0.011996751822855511
0.045299999999999896,-0.012025046048852812
0.044299999999999895,-0.012105684592945119
0.043299999999999894,-0.012132564107642555
0.04229999999999989,-0.01215378477714053
0.04129999999999989,-0.012183493714437697
0.04029999999999989,-0.012242911589032027
0.03929999999999989,-0.012299500041026628
0.03829999999999989,-0.012357503204321095
0.03729999999999989,-0.012368820894720016
0.03629999999999989,-0.012392870986817722
0.03529999999999989,-0.012416921078915425
0.034299999999999886,-0.012489071355208544
0.033299999999999885,-0.012537171539403955
0.032299999999999884,-0.012556977497602066
0.031299999999999883,-0.012613565949596667
0.030299999999999883,-0.012640445464294103
0.02929999999999988,-0.012702692761488166
0.02829999999999988,-0.012750792945683573
0.02729999999999988,-0.012777672460381011
0.02629999999999988,-0.012808796108978043
0.025299999999999878,-0.012838505046275208
0.024299999999999877,-0.012897922920869538
0.023299999999999876,-0.01295734079546387
0.022299999999999875,-0.012958755506763736
0.021299999999999875,-0.013009685113558878
0.020299999999999874,-0.013036564628256312
0.019299999999999873,-0.013098811925450374
0.018299999999999872,-0.013165303356544032
0.01729999999999987,-0.01319359758254133
0.01629999999999987,-0.013217647674639038
0.01529999999999987,-0.013281309683132965
0.014299999999999868,-0.013343556980327026
0.013299999999999867,-0.013383168896723247
0.012299999999999978,-0.013414292545320276
0.011299999999999866,-0.013441172060017713
0.010299999999999976,-0.013497760512012314
0.009299999999999864,-0.013554348964006917
0.008299999999999974,-0.013602449148202328
0.007299999999999862,-0.013633572796799357
0.006299999999999972,-0.013666111156696253
0.00529999999999986,-0.013698649516593149
0.0042999999999999705,-0.013765140947686808
0.0032999999999998586,-0.013823144110981272
0.0022999999999999687,-0.013874073717776415
0.0012999999999998568,-0.013905197366373445
0.00029999999999996696,-0.013941979860169935
-0.000700000000000145,-0.014028277249461702
-0.0017000000000000348,-0.014059400898058733
-0.0027000000000001467,-0.014079206856256845
-0.0037000000000000366,-0.014107501082254146
-0.0047000000000001485,-0.014161260111649017
-0.005700000000000038,-0.014231995676642267
-0.00670000000000015,-0.014288584128636872
-0.00770000000000004,-0.01430273124163552
-0.008700000000000152,-0.014345172580631472
-0.009700000000000042,-0.014387613919627423
-0.010700000000000154,-0.014472496597619325
-0.011700000000000044,-0.014543232162612576
-0.012700000000000156,-0.014543232162612576
-0.013700000000000045,-0.014628114840604478
-0.014700000000000157,-0.014670556179600431
-0.015700000000000047,-0.014712997518596381
-0.01670000000000016,-0.014769585970590984
-0.01770000000000005,-0.014797880196588285
-0.01870000000000016,-0.014826174422585584
-0.01970000000000005,-0.014868615761581536
-0.020700000000000163,-0.014896909987578835
-0.021700000000000053,-0.014967645552572089
-0.022700000000000164,-0.014981792665570736
-0.023700000000000054,-0.01503838111756534
-0.024700000000000166,-0.015066675343562642
-0.025700000000000056,-0.015123263795557243
-0.026700000000000168,-0.015179852247551842
-0.027700000000000058,-0.015193999360550494
-0.02870000000000017,-0.015222293586547794
-0.02970000000000006,-0.015264734925543746
-0.03070000000000017,-0.015349617603535646
-0.03170000000000006,-0.015392058942531598
-0.03270000000000017,-0.015420353168528897
-0.03370000000000006,-0.01543450028152755
-0.034700000000000175,-0.015476941620523503
-0.035700000000000065,-0.015547677185516754
-0.03670000000000018,-0.015590118524512706
-0.03770000000000007,-0.015632559863508654
-0.03870000000000018,-0.015646706976507305
-0.03970000000000007,-0.01568914831550326
-0.04070000000000018,-0.015745736767497857
-0.04170000000000007,-0.015774030993495156
-0.04270000000000018,-0.01581647233249111
-0.04370000000000007,-0.01585891367148706
-0.044700000000000184,-0.015873060784485714
-0.045700000000000074,-0.015943796349478963
-0.046700000000000186,-0.016000384801473564
-0.047700000000000076,-0.016000384801473564
-0.04870000000000019,-0.016042826140469518
-0.04970000000000008,-0.01608526747946547
-0.05070000000000019,-0.01615600304445872
-0.05170000000000008,-0.01619844438345467
-0.05270000000000019,-0.016212591496453318
-0.05370000000000008,-0.01624088572245062
-0.05470000000000019,-0.016269179948447923
-0.05570000000000008,-0.016339915513441175
-0.056700000000000195,-0.01638235685243712
-0.057700000000000085,-0.016396503965435776
-0.058700000000000196,-0.016424798191433075
-0.059700000000000086,-0.01648138664342768
-0.0607000000000002,-0.016537975095422278
