Apr. 1, 2025   16:16:14
Cyclic Voltammetry
File: c:/users/guazh/data/banditlqround7_x0exp518_r20/2025-03-28-exp1011\exp1011-2025-04-01t16_05_55-arkoh\exp1011_cv_sr_300mvs_efin_-1500mv.bin
Data Source:  Experiment
Instrument Model:  CHI760E
Header: CV ran at 300 mVs
Note: 

Init E (V) = -1
High E (V) = -1
Low E (V) = -1.5
Final E (V) = -1
Init P/N = N
Scan Rate (V/s) = 0.3
Segment = 3
Sample Interval (V) = 0.001
Quiet Time (sec) = 2
Sensitivity (A/V) = 0.01
Comp R (ohm) = 1.8

Results:

Channel 1:
Segment 1:

Segment 2:

Segment 3:

Potential/V, Current/A

-1.000, -9.063e-4
-1.001, -8.261e-4
-1.002, -7.521e-4
-1.003, -6.781e-4
-1.004, -6.041e-4
-1.005, -5.394e-4
-1.006, -4.808e-4
-1.007, -4.284e-4
-1.008, -3.760e-4
-1.009, -3.236e-4
-1.010, -2.681e-4
-1.011, -2.157e-4
-1.012, -1.694e-4
-1.013, -1.263e-4
-1.014, -7.692e-5
-1.015, -3.068e-5
-1.016, 1.249e-5
-1.017, 5.257e-5
-1.018, 9.265e-5
-1.019, 1.358e-4
-1.020, 1.759e-4
-1.021, 2.160e-4
-1.022, 2.499e-4
-1.023, 2.869e-4
-1.024, 3.270e-4
-1.025, 3.640e-4
-1.026, 4.010e-4
-1.027, 4.349e-4
-1.028, 4.719e-4
-1.029, 5.089e-4
-1.030, 5.489e-4
-1.031, 5.798e-4
-1.032, 6.106e-4
-1.033, 6.414e-4
-1.034, 6.754e-4
-1.035, 7.124e-4
-1.036, 7.432e-4
-1.037, 7.740e-4
-1.038, 8.048e-4
-1.039, 8.418e-4
-1.040, 8.758e-4
-1.041, 9.066e-4
-1.042, 9.343e-4
-1.043, 9.652e-4
-1.044, 9.991e-4
-1.045, 1.030e-3
-1.046, 1.058e-3
-1.047, 1.088e-3
-1.048, 1.119e-3
-1.049, 1.156e-3
-1.050, 1.190e-3
-1.051, 1.218e-3
-1.052, 1.246e-3
-1.053, 1.273e-3
-1.054, 1.307e-3
-1.055, 1.338e-3
-1.056, 1.366e-3
-1.057, 1.388e-3
-1.058, 1.412e-3
-1.059, 1.440e-3
-1.060, 1.471e-3
-1.061, 1.499e-3
-1.062, 1.529e-3
-1.063, 1.563e-3
-1.064, 1.594e-3
-1.065, 1.625e-3
-1.066, 1.650e-3
-1.067, 1.677e-3
-1.068, 1.708e-3
-1.069, 1.748e-3
-1.070, 1.785e-3
-1.071, 1.810e-3
-1.072, 1.828e-3
-1.073, 1.853e-3
-1.074, 1.884e-3
-1.075, 1.924e-3
-1.076, 1.961e-3
-1.077, 1.995e-3
-1.078, 2.023e-3
-1.079, 2.047e-3
-1.080, 2.069e-3
-1.081, 2.091e-3
-1.082, 2.112e-3
-1.083, 2.143e-3
-1.084, 2.177e-3
-1.085, 2.205e-3
-1.086, 2.235e-3
-1.087, 2.263e-3
-1.088, 2.291e-3
-1.089, 2.328e-3
-1.090, 2.368e-3
-1.091, 2.411e-3
-1.092, 2.454e-3
-1.093, 2.491e-3
-1.094, 2.513e-3
-1.095, 2.522e-3
-1.096, 2.531e-3
-1.097, 2.547e-3
-1.098, 2.581e-3
-1.099, 2.630e-3
-1.100, 2.686e-3
-1.101, 2.729e-3
-1.102, 2.756e-3
-1.103, 2.772e-3
-1.104, 2.775e-3
-1.105, 2.775e-3
-1.106, 2.775e-3
-1.107, 2.790e-3
-1.108, 2.827e-3
-1.109, 2.880e-3
-1.110, 2.932e-3
-1.111, 2.975e-3
-1.112, 3.003e-3
-1.113, 3.012e-3
-1.114, 3.019e-3
-1.115, 3.040e-3
-1.116, 3.083e-3
-1.117, 3.145e-3
-1.118, 3.188e-3
-1.119, 3.207e-3
-1.120, 3.213e-3
-1.121, 3.219e-3
-1.122, 3.231e-3
-1.123, 3.262e-3
-1.124, 3.321e-3
-1.125, 3.379e-3
-1.126, 3.432e-3
-1.127, 3.472e-3
-1.128, 3.496e-3
-1.129, 3.512e-3
-1.130, 3.524e-3
-1.131, 3.540e-3
-1.132, 3.567e-3
-1.133, 3.607e-3
-1.134, 3.666e-3
-1.135, 3.721e-3
-1.136, 3.749e-3
-1.137, 3.765e-3
-1.138, 3.771e-3
-1.139, 3.780e-3
-1.140, 3.792e-3
-1.141, 3.805e-3
-1.142, 3.832e-3
-1.143, 3.876e-3
-1.144, 3.922e-3
-1.145, 3.953e-3
-1.146, 3.974e-3
-1.147, 3.990e-3
-1.148, 4.021e-3
-1.149, 4.067e-3
-1.150, 4.113e-3
-1.151, 4.147e-3
-1.152, 4.172e-3
-1.153, 4.181e-3
-1.154, 4.181e-3
-1.155, 4.178e-3
-1.156, 4.184e-3
-1.157, 4.215e-3
-1.158, 4.264e-3
-1.159, 4.317e-3
-1.160, 4.357e-3
-1.161, 4.391e-3
-1.162, 4.409e-3
-1.163, 4.418e-3
-1.164, 4.440e-3
-1.165, 4.474e-3
-1.166, 4.508e-3
-1.167, 4.545e-3
-1.168, 4.572e-3
-1.169, 4.597e-3
-1.170, 4.622e-3
-1.171, 4.653e-3
-1.172, 4.690e-3
-1.173, 4.730e-3
-1.174, 4.773e-3
-1.175, 4.807e-3
-1.176, 4.816e-3
-1.177, 4.819e-3
-1.178, 4.828e-3
-1.179, 4.844e-3
-1.180, 4.878e-3
-1.181, 4.905e-3
-1.182, 4.945e-3
-1.183, 4.982e-3
-1.184, 5.023e-3
-1.185, 5.056e-3
-1.186, 5.075e-3
-1.187, 5.078e-3
-1.188, 5.081e-3
-1.189, 5.087e-3
-1.190, 5.109e-3
-1.191, 5.143e-3
-1.192, 5.198e-3
-1.193, 5.275e-3
-1.194, 5.334e-3
-1.195, 5.346e-3
-1.196, 5.322e-3
-1.197, 5.285e-3
-1.198, 5.266e-3
-1.199, 5.294e-3
-1.200, 5.362e-3
-1.201, 5.442e-3
-1.202, 5.510e-3
-1.203, 5.547e-3
-1.204, 5.559e-3
-1.205, 5.550e-3
-1.206, 5.537e-3
-1.207, 5.531e-3
-1.208, 5.565e-3
-1.209, 5.624e-3
-1.210, 5.667e-3
-1.211, 5.688e-3
-1.212, 5.695e-3
-1.213, 5.701e-3
-1.214, 5.704e-3
-1.215, 5.713e-3
-1.216, 5.738e-3
-1.217, 5.769e-3
-1.218, 5.806e-3
-1.219, 5.858e-3
-1.220, 5.892e-3
-1.221, 5.892e-3
-1.222, 5.877e-3
-1.223, 5.873e-3
-1.224, 5.886e-3
-1.225, 5.920e-3
-1.226, 5.972e-3
-1.227, 6.025e-3
-1.228, 6.049e-3
-1.229, 6.052e-3
-1.230, 6.040e-3
-1.231, 6.031e-3
-1.232, 6.034e-3
-1.233, 6.062e-3
-1.234, 6.126e-3
-1.235, 6.194e-3
-1.236, 6.225e-3
-1.237, 6.225e-3
-1.238, 6.213e-3
-1.239, 6.200e-3
-1.240, 6.197e-3
-1.241, 6.219e-3
-1.242, 6.259e-3
-1.243, 6.302e-3
-1.244, 6.345e-3
-1.245, 6.373e-3
-1.246, 6.391e-3
-1.247, 6.398e-3
-1.248, 6.413e-3
-1.249, 6.441e-3
-1.250, 6.475e-3
-1.251, 6.484e-3
-1.252, 6.481e-3
-1.253, 6.496e-3
-1.254, 6.521e-3
-1.255, 6.549e-3
-1.256, 6.583e-3
-1.257, 6.607e-3
-1.258, 6.626e-3
-1.259, 6.638e-3
-1.260, 6.650e-3
-1.261, 6.663e-3
-1.262, 6.681e-3
-1.263, 6.700e-3
-1.264, 6.731e-3
-1.265, 6.768e-3
-1.266, 6.771e-3
-1.267, 6.764e-3
-1.268, 6.768e-3
-1.269, 6.795e-3
-1.270, 6.823e-3
-1.271, 6.851e-3
-1.272, 6.882e-3
-1.273, 6.897e-3
-1.274, 6.912e-3
-1.275, 6.928e-3
-1.276, 6.949e-3
-1.277, 6.959e-3
-1.278, 6.953e-3
-1.279, 6.949e-3
-1.280, 6.959e-3
-1.281, 6.962e-3
-1.282, 6.959e-3
-1.283, 6.956e-3
-1.284, 6.977e-3
-1.285, 7.017e-3
-1.286, 7.054e-3
-1.287, 7.073e-3
-1.288, 7.070e-3
-1.289, 7.033e-3
-1.290, 6.999e-3
-1.291, 6.986e-3
-1.292, 6.996e-3
-1.293, 7.017e-3
-1.294, 7.039e-3
-1.295, 7.064e-3
-1.296, 7.073e-3
-1.297, 7.064e-3
-1.298, 7.057e-3
-1.299, 7.073e-3
-1.300, 7.101e-3
-1.301, 7.128e-3
-1.302, 7.156e-3
-1.303, 7.175e-3
-1.304, 7.175e-3
-1.305, 7.171e-3
-1.306, 7.159e-3
-1.307, 7.144e-3
-1.308, 7.150e-3
-1.309, 7.187e-3
-1.310, 7.233e-3
-1.311, 7.279e-3
-1.312, 7.295e-3
-1.313, 7.273e-3
-1.314, 7.236e-3
-1.315, 7.208e-3
-1.316, 7.202e-3
-1.317, 7.230e-3
-1.318, 7.286e-3
-1.319, 7.347e-3
-1.320, 7.375e-3
-1.321, 7.387e-3
-1.322, 7.372e-3
-1.323, 7.323e-3
-1.324, 7.276e-3
-1.325, 7.255e-3
-1.326, 7.261e-3
-1.327, 7.298e-3
-1.328, 7.366e-3
-1.329, 7.446e-3
-1.330, 7.483e-3
-1.331, 7.495e-3
-1.332, 7.483e-3
-1.333, 7.461e-3
-1.334, 7.424e-3
-1.335, 7.381e-3
-1.336, 7.347e-3
-1.337, 7.341e-3
-1.338, 7.372e-3
-1.339, 7.427e-3
-1.340, 7.458e-3
-1.341, 7.471e-3
-1.342, 7.467e-3
-1.343, 7.452e-3
-1.344, 7.446e-3
-1.345, 7.449e-3
-1.346, 7.458e-3
-1.347, 7.486e-3
-1.348, 7.523e-3
-1.349, 7.535e-3
-1.350, 7.532e-3
-1.351, 7.535e-3
-1.352, 7.551e-3
-1.353, 7.582e-3
-1.354, 7.612e-3
-1.355, 7.643e-3
-1.356, 7.634e-3
-1.357, 7.609e-3
-1.358, 7.591e-3
-1.359, 7.575e-3
-1.360, 7.560e-3
-1.361, 7.548e-3
-1.362, 7.541e-3
-1.363, 7.541e-3
-1.364, 7.557e-3
-1.365, 7.572e-3
-1.366, 7.572e-3
-1.367, 7.554e-3
-1.368, 7.538e-3
-1.369, 7.529e-3
-1.370, 7.535e-3
-1.371, 7.560e-3
-1.372, 7.588e-3
-1.373, 7.612e-3
-1.374, 7.622e-3
-1.375, 7.606e-3
-1.376, 7.585e-3
-1.377, 7.551e-3
-1.378, 7.517e-3
-1.379, 7.514e-3
-1.380, 7.563e-3
-1.381, 7.649e-3
-1.382, 7.733e-3
-1.383, 7.791e-3
-1.384, 7.800e-3
-1.385, 7.760e-3
-1.386, 7.696e-3
-1.387, 7.640e-3
-1.388, 7.622e-3
-1.389, 7.652e-3
-1.390, 7.702e-3
-1.391, 7.754e-3
-1.392, 7.785e-3
-1.393, 7.791e-3
-1.394, 7.779e-3
-1.395, 7.754e-3
-1.396, 7.720e-3
-1.397, 7.689e-3
-1.398, 7.677e-3
-1.399, 7.702e-3
-1.400, 7.757e-3
-1.401, 7.797e-3
-1.402, 7.819e-3
-1.403, 7.813e-3
-1.404, 7.791e-3
-1.405, 7.770e-3
-1.406, 7.751e-3
-1.407, 7.748e-3
-1.408, 7.773e-3
-1.409, 7.791e-3
-1.410, 7.819e-3
-1.411, 7.831e-3
-1.412, 7.825e-3
-1.413, 7.828e-3
-1.414, 7.847e-3
-1.415, 7.881e-3
-1.416, 7.905e-3
-1.417, 7.918e-3
-1.418, 7.918e-3
-1.419, 7.911e-3
-1.420, 7.902e-3
-1.421, 7.899e-3
-1.422, 7.908e-3
-1.423, 7.958e-3
-1.424, 7.985e-3
-1.425, 7.976e-3
-1.426, 7.948e-3
-1.427, 7.918e-3
-1.428, 7.911e-3
-1.429, 7.970e-3
-1.430, 8.050e-3
-1.431, 8.106e-3
-1.432, 8.121e-3
-1.433, 8.115e-3
-1.434, 8.099e-3
-1.435, 8.062e-3
-1.436, 8.025e-3
-1.437, 8.022e-3
-1.438, 8.047e-3
-1.439, 8.075e-3
-1.440, 8.103e-3
-1.441, 8.124e-3
-1.442, 8.140e-3
-1.443, 8.152e-3
-1.444, 8.161e-3
-1.445, 8.177e-3
-1.446, 8.195e-3
-1.447, 8.214e-3
-1.448, 8.229e-3
-1.449, 8.229e-3
-1.450, 8.207e-3
-1.451, 8.195e-3
-1.452, 8.198e-3
-1.453, 8.232e-3
-1.454, 8.294e-3
-1.455, 8.371e-3
-1.456, 8.426e-3
-1.457, 8.454e-3
-1.458, 8.463e-3
-1.459, 8.469e-3
-1.460, 8.469e-3
-1.461, 8.451e-3
-1.462, 8.451e-3
-1.463, 8.469e-3
-1.464, 8.519e-3
-1.465, 8.605e-3
-1.466, 8.670e-3
-1.467, 8.682e-3
-1.468, 8.667e-3
-1.469, 8.621e-3
-1.470, 8.593e-3
-1.471, 8.617e-3
-1.472, 8.695e-3
-1.473, 8.799e-3
-1.474, 8.855e-3
-1.475, 8.861e-3
-1.476, 8.839e-3
-1.477, 8.802e-3
-1.478, 8.806e-3
-1.479, 8.812e-3
-1.480, 8.815e-3
-1.481, 8.836e-3
-1.482, 8.886e-3
-1.483, 8.944e-3
-1.484, 8.991e-3
-1.485, 8.997e-3
-1.486, 8.987e-3
-1.487, 8.981e-3
-1.488, 8.975e-3
-1.489, 8.997e-3
-1.490, 9.021e-3
-1.491, 9.049e-3
-1.492, 9.086e-3
-1.493, 9.126e-3
-1.494, 9.188e-3
-1.495, 9.259e-3
-1.496, 9.317e-3
-1.497, 9.364e-3
-1.498, 9.401e-3
-1.499, 9.441e-3
-1.500, 9.410e-3
-1.499, 9.277e-3
-1.498, 9.169e-3
-1.497, 9.068e-3
-1.496, 8.984e-3
-1.495, 8.898e-3
-1.494, 8.815e-3
-1.493, 8.738e-3
-1.492, 8.661e-3
-1.491, 8.577e-3
-1.490, 8.485e-3
-1.489, 8.402e-3
-1.488, 8.334e-3
-1.487, 8.257e-3
-1.486, 8.195e-3
-1.485, 8.146e-3
-1.484, 8.087e-3
-1.483, 8.022e-3
-1.482, 7.951e-3
-1.481, 7.884e-3
-1.480, 7.816e-3
-1.479, 7.754e-3
-1.478, 7.714e-3
-1.477, 7.686e-3
-1.476, 7.656e-3
-1.475, 7.609e-3
-1.474, 7.538e-3
-1.473, 7.467e-3
-1.472, 7.406e-3
-1.471, 7.356e-3
-1.470, 7.316e-3
-1.469, 7.267e-3
-1.468, 7.208e-3
-1.467, 7.147e-3
-1.466, 7.082e-3
-1.465, 7.027e-3
-1.464, 6.974e-3
-1.463, 6.922e-3
-1.462, 6.869e-3
-1.461, 6.814e-3
-1.460, 6.752e-3
-1.459, 6.687e-3
-1.458, 6.626e-3
-1.457, 6.576e-3
-1.456, 6.530e-3
-1.455, 6.481e-3
-1.454, 6.425e-3
-1.453, 6.361e-3
-1.452, 6.299e-3
-1.451, 6.231e-3
-1.450, 6.151e-3
-1.449, 6.086e-3
-1.448, 6.021e-3
-1.447, 5.972e-3
-1.446, 5.935e-3
-1.445, 5.892e-3
-1.444, 5.836e-3
-1.443, 5.778e-3
-1.442, 5.732e-3
-1.441, 5.685e-3
-1.440, 5.624e-3
-1.439, 5.547e-3
-1.438, 5.473e-3
-1.437, 5.396e-3
-1.436, 5.325e-3
-1.435, 5.257e-3
-1.434, 5.192e-3
-1.433, 5.130e-3
-1.432, 5.066e-3
-1.431, 4.998e-3
-1.430, 4.933e-3
-1.429, 4.875e-3
-1.428, 4.825e-3
-1.427, 4.776e-3
-1.426, 4.727e-3
-1.425, 4.668e-3
-1.424, 4.594e-3
-1.423, 4.529e-3
-1.422, 4.464e-3
-1.421, 4.415e-3
-1.420, 4.372e-3
-1.419, 4.323e-3
-1.418, 4.264e-3
-1.417, 4.193e-3
-1.416, 4.119e-3
-1.415, 4.064e-3
-1.414, 4.008e-3
-1.413, 3.962e-3
-1.412, 3.922e-3
-1.411, 3.876e-3
-1.410, 3.811e-3
-1.409, 3.740e-3
-1.408, 3.675e-3
-1.407, 3.617e-3
-1.406, 3.558e-3
-1.405, 3.503e-3
-1.404, 3.444e-3
-1.403, 3.392e-3
-1.402, 3.355e-3
-1.401, 3.318e-3
-1.400, 3.274e-3
-1.399, 3.216e-3
-1.398, 3.145e-3
-1.397, 3.071e-3
-1.396, 3.000e-3
-1.395, 2.938e-3
-1.394, 2.883e-3
-1.393, 2.837e-3
-1.392, 2.797e-3
-1.391, 2.763e-3
-1.390, 2.723e-3
-1.389, 2.670e-3
-1.388, 2.608e-3
-1.387, 2.553e-3
-1.386, 2.504e-3
-1.385, 2.451e-3
-1.384, 2.393e-3
-1.383, 2.331e-3
-1.382, 2.275e-3
-1.381, 2.232e-3
-1.380, 2.192e-3
-1.379, 2.149e-3
-1.378, 2.097e-3
-1.377, 2.047e-3
-1.376, 1.998e-3
-1.375, 1.943e-3
-1.374, 1.896e-3
-1.373, 1.850e-3
-1.372, 1.807e-3
-1.371, 1.764e-3
-1.370, 1.717e-3
-1.369, 1.662e-3
-1.368, 1.610e-3
-1.367, 1.557e-3
-1.366, 1.514e-3
-1.365, 1.474e-3
-1.364, 1.434e-3
-1.363, 1.388e-3
-1.362, 1.341e-3
-1.361, 1.292e-3
-1.360, 1.246e-3
-1.359, 1.206e-3
-1.358, 1.166e-3
-1.357, 1.132e-3
-1.356, 1.095e-3
-1.355, 1.055e-3
-1.354, 1.008e-3
-1.353, 9.528e-4
-1.352, 9.066e-4
-1.351, 8.696e-4
-1.350, 8.357e-4
-1.349, 7.956e-4
-1.348, 7.555e-4
-1.347, 7.185e-4
-1.346, 6.815e-4
-1.345, 6.414e-4
-1.344, 6.014e-4
-1.343, 5.613e-4
-1.342, 5.243e-4
-1.341, 4.935e-4
-1.340, 4.595e-4
-1.339, 4.225e-4
-1.338, 3.825e-4
-1.337, 3.424e-4
-1.336, 3.115e-4
-1.335, 2.807e-4
-1.334, 2.437e-4
-1.333, 2.067e-4
-1.332, 1.728e-4
-1.331, 1.420e-4
-1.330, 1.111e-4
-1.329, 7.415e-5
-1.328, 4.024e-5
-1.327, 6.322e-6
-1.326, -2.143e-5
-1.325, -5.226e-5
-1.324, -8.309e-5
-1.323, -1.201e-4
-1.322, -1.509e-4
-1.321, -1.787e-4
-1.320, -2.064e-4
-1.319, -2.372e-4
-1.318, -2.712e-4
-1.317, -2.989e-4
-1.316, -3.267e-4
-1.315, -3.513e-4
-1.314, -3.821e-4
-1.313, -4.130e-4
-1.312, -4.407e-4
-1.311, -4.654e-4
-1.310, -4.901e-4
-1.309, -5.209e-4
-1.308, -5.517e-4
-1.307, -5.733e-4
-1.306, -5.949e-4
-1.305, -6.195e-4
-1.304, -6.504e-4
-1.303, -6.812e-4
-1.302, -7.059e-4
-1.301, -7.275e-4
-1.300, -7.521e-4
-1.299, -7.768e-4
-1.298, -8.045e-4
-1.297, -8.292e-4
-1.296, -8.477e-4
-1.295, -8.724e-4
-1.294, -9.001e-4
-1.293, -9.309e-4
-1.292, -9.525e-4
-1.291, -9.741e-4
-1.290, -9.926e-4
-1.289, -1.020e-3
-1.288, -1.051e-3
-1.287, -1.079e-3
-1.286, -1.104e-3
-1.285, -1.122e-3
-1.284, -1.141e-3
-1.283, -1.156e-3
-1.282, -1.168e-3
-1.281, -1.181e-3
-1.280, -1.199e-3
-1.279, -1.230e-3
-1.278, -1.261e-3
-1.277, -1.289e-3
-1.276, -1.310e-3
-1.275, -1.322e-3
-1.274, -1.338e-3
-1.273, -1.356e-3
-1.272, -1.378e-3
-1.271, -1.400e-3
-1.270, -1.418e-3
-1.269, -1.437e-3
-1.268, -1.452e-3
-1.267, -1.464e-3
-1.266, -1.480e-3
-1.265, -1.498e-3
-1.264, -1.532e-3
-1.263, -1.563e-3
-1.262, -1.581e-3
-1.261, -1.594e-3
-1.260, -1.609e-3
-1.259, -1.628e-3
-1.258, -1.649e-3
-1.257, -1.668e-3
-1.256, -1.686e-3
-1.255, -1.708e-3
-1.254, -1.729e-3
-1.253, -1.745e-3
-1.252, -1.754e-3
-1.251, -1.760e-3
-1.250, -1.770e-3
-1.249, -1.788e-3
-1.248, -1.813e-3
-1.247, -1.837e-3
-1.246, -1.853e-3
-1.245, -1.874e-3
-1.244, -1.893e-3
-1.243, -1.905e-3
-1.242, -1.905e-3
-1.241, -1.911e-3
-1.240, -1.930e-3
-1.239, -1.958e-3
-1.238, -1.995e-3
-1.237, -2.022e-3
-1.236, -2.041e-3
-1.235, -2.053e-3
-1.234, -2.066e-3
-1.233, -2.072e-3
-1.232, -2.081e-3
-1.231, -2.096e-3
-1.230, -2.115e-3
-1.229, -2.143e-3
-1.228, -2.164e-3
-1.227, -2.180e-3
-1.226, -2.192e-3
-1.225, -2.198e-3
-1.224, -2.207e-3
-1.223, -2.217e-3
-1.222, -2.232e-3
-1.221, -2.251e-3
-1.220, -2.275e-3
-1.219, -2.297e-3
-1.218, -2.312e-3
-1.217, -2.315e-3
-1.216, -2.315e-3
-1.215, -2.321e-3
-1.214, -2.346e-3
-1.213, -2.383e-3
-1.212, -2.420e-3
-1.211, -2.448e-3
-1.210, -2.466e-3
-1.209, -2.476e-3
-1.208, -2.485e-3
-1.207, -2.491e-3
-1.206, -2.500e-3
-1.205, -2.513e-3
-1.204, -2.537e-3
-1.203, -2.562e-3
-1.202, -2.574e-3
-1.201, -2.583e-3
-1.200, -2.605e-3
-1.199, -2.627e-3
-1.198, -2.648e-3
-1.197, -2.664e-3
-1.196, -2.667e-3
-1.195, -2.664e-3
-1.194, -2.670e-3
-1.193, -2.676e-3
-1.192, -2.691e-3
-1.191, -2.713e-3
-1.190, -2.741e-3
-1.189, -2.768e-3
-1.188, -2.802e-3
-1.187, -2.824e-3
-1.186, -2.839e-3
-1.185, -2.849e-3
-1.184, -2.855e-3
-1.183, -2.870e-3
-1.182, -2.898e-3
-1.181, -2.923e-3
-1.180, -2.941e-3
-1.179, -2.957e-3
-1.178, -2.969e-3
-1.177, -2.975e-3
-1.176, -2.981e-3
-1.175, -2.997e-3
-1.174, -3.024e-3
-1.173, -3.049e-3
-1.172, -3.068e-3
-1.171, -3.080e-3
-1.170, -3.092e-3
-1.169, -3.105e-3
-1.168, -3.120e-3
-1.167, -3.135e-3
-1.166, -3.148e-3
-1.165, -3.160e-3
-1.164, -3.182e-3
-1.163, -3.206e-3
-1.162, -3.231e-3
-1.161, -3.256e-3
-1.160, -3.274e-3
-1.159, -3.293e-3
-1.158, -3.302e-3
-1.157, -3.308e-3
-1.156, -3.327e-3
-1.155, -3.354e-3
-1.154, -3.391e-3
-1.153, -3.428e-3
-1.152, -3.450e-3
-1.151, -3.450e-3
-1.150, -3.450e-3
-1.149, -3.462e-3
-1.148, -3.490e-3
-1.147, -3.515e-3
-1.146, -3.536e-3
-1.145, -3.549e-3
-1.144, -3.570e-3
-1.143, -3.607e-3
-1.142, -3.629e-3
-1.141, -3.635e-3
-1.140, -3.647e-3
-1.139, -3.659e-3
-1.138, -3.693e-3
-1.137, -3.724e-3
-1.136, -3.752e-3
-1.135, -3.777e-3
-1.134, -3.807e-3
-1.133, -3.820e-3
-1.132, -3.832e-3
-1.131, -3.854e-3
-1.130, -3.881e-3
-1.129, -3.912e-3
-1.128, -3.928e-3
-1.127, -3.931e-3
-1.126, -3.918e-3
-1.125, -3.909e-3
-1.124, -3.915e-3
-1.123, -3.940e-3
-1.122, -3.977e-3
-1.121, -4.020e-3
-1.120, -4.054e-3
-1.119, -4.070e-3
-1.118, -4.073e-3
-1.117, -4.070e-3
-1.116, -4.070e-3
-1.115, -4.079e-3
-1.114, -4.103e-3
-1.113, -4.144e-3
-1.112, -4.187e-3
-1.111, -4.214e-3
-1.110, -4.233e-3
-1.109, -4.255e-3
-1.108, -4.279e-3
-1.107, -4.295e-3
-1.106, -4.319e-3
-1.105, -4.341e-3
-1.104, -4.362e-3
-1.103, -4.403e-3
-1.102, -4.427e-3
-1.101, -4.452e-3
-1.100, -4.464e-3
-1.099, -4.483e-3
-1.098, -4.520e-3
-1.097, -4.569e-3
-1.096, -4.615e-3
-1.095, -4.652e-3
-1.094, -4.671e-3
-1.093, -4.674e-3
-1.092, -4.668e-3
-1.091, -4.665e-3
-1.090, -4.686e-3
-1.089, -4.720e-3
-1.088, -4.748e-3
-1.087, -4.779e-3
-1.086, -4.800e-3
-1.085, -4.819e-3
-1.084, -4.837e-3
-1.083, -4.846e-3
-1.082, -4.856e-3
-1.081, -4.871e-3
-1.080, -4.902e-3
-1.079, -4.942e-3
-1.078, -4.991e-3
-1.077, -5.022e-3
-1.076, -5.031e-3
-1.075, -5.035e-3
-1.074, -5.044e-3
-1.073, -5.059e-3
-1.072, -5.068e-3
-1.071, -5.087e-3
-1.070, -5.096e-3
-1.069, -5.099e-3
-1.068, -5.112e-3
-1.067, -5.152e-3
-1.066, -5.195e-3
-1.065, -5.220e-3
-1.064, -5.247e-3
-1.063, -5.269e-3
-1.062, -5.284e-3
-1.061, -5.309e-3
-1.060, -5.343e-3
-1.059, -5.377e-3
-1.058, -5.383e-3
-1.057, -5.389e-3
-1.056, -5.392e-3
-1.055, -5.395e-3
-1.054, -5.414e-3
-1.053, -5.451e-3
-1.052, -5.509e-3
-1.051, -5.546e-3
-1.050, -5.568e-3
-1.049, -5.571e-3
-1.048, -5.574e-3
-1.047, -5.562e-3
-1.046, -5.553e-3
-1.045, -5.565e-3
-1.044, -5.605e-3
-1.043, -5.645e-3
-1.042, -5.673e-3
-1.041, -5.697e-3
-1.040, -5.719e-3
-1.039, -5.734e-3
-1.038, -5.738e-3
-1.037, -5.744e-3
-1.036, -5.775e-3
-1.035, -5.830e-3
-1.034, -5.889e-3
-1.033, -5.926e-3
-1.032, -5.932e-3
-1.031, -5.935e-3
-1.030, -5.947e-3
-1.029, -5.956e-3
-1.028, -5.966e-3
-1.027, -5.972e-3
-1.026, -5.984e-3
-1.025, -6.018e-3
-1.024, -6.058e-3
-1.023, -6.101e-3
-1.022, -6.154e-3
-1.021, -6.181e-3
-1.020, -6.178e-3
-1.019, -6.185e-3
-1.018, -6.188e-3
-1.017, -6.206e-3
-1.016, -6.222e-3
-1.015, -6.243e-3
-1.014, -6.252e-3
-1.013, -6.265e-3
-1.012, -6.277e-3
-1.011, -6.277e-3
-1.010, -6.277e-3
-1.009, -6.283e-3
-1.008, -6.286e-3
-1.007, -6.286e-3
-1.006, -6.280e-3
-1.005, -6.292e-3
-1.004, -6.342e-3
-1.003, -6.385e-3
-1.002, -6.419e-3
-1.001, -6.440e-3
