Apr. 1, 2025   16:17:50
Cyclic Voltammetry
File: c:/users/guazh/data/banditlqround7_x0exp518_r20/2025-03-28-exp1011\exp1011-2025-04-01t16_05_55-arkoh\exp1011_cv_sr_800mvs_efin_-1500mv.bin
Data Source:  Experiment
Instrument Model:  CHI760E
Header: CV ran at 800 mVs
Note: 

Init E (V) = -1
High E (V) = -1
Low E (V) = -1.5
Final E (V) = -1
Init P/N = N
Scan Rate (V/s) = 0.8
Segment = 3
Sample Interval (V) = 0.001
Quiet Time (sec) = 2
Sensitivity (A/V) = 0.01
Comp R (ohm) = 1.8

Results:

Channel 1:
Segment 1:

Segment 2:

Segment 3:

Potential/V, Current/A

-1.000, -8.385e-4
-1.001, -7.490e-4
-1.002, -6.689e-4
-1.003, -5.887e-4
-1.004, -5.147e-4
-1.005, -4.407e-4
-1.006, -3.698e-4
-1.007, -2.989e-4
-1.008, -2.280e-4
-1.009, -1.632e-4
-1.010, -9.542e-5
-1.011, -3.068e-5
-1.012, 3.099e-5
-1.013, 8.957e-5
-1.014, 1.512e-4
-1.015, 2.098e-4
-1.016, 2.653e-4
-1.017, 3.239e-4
-1.018, 3.825e-4
-1.019, 4.380e-4
-1.020, 4.965e-4
-1.021, 5.520e-4
-1.022, 6.075e-4
-1.023, 6.599e-4
-1.024, 7.154e-4
-1.025, 7.648e-4
-1.026, 8.141e-4
-1.027, 8.634e-4
-1.028, 9.066e-4
-1.029, 9.498e-4
-1.030, 9.960e-4
-1.031, 1.042e-3
-1.032, 1.088e-3
-1.033, 1.138e-3
-1.034, 1.184e-3
-1.035, 1.230e-3
-1.036, 1.280e-3
-1.037, 1.329e-3
-1.038, 1.378e-3
-1.039, 1.425e-3
-1.040, 1.468e-3
-1.041, 1.514e-3
-1.042, 1.560e-3
-1.043, 1.603e-3
-1.044, 1.650e-3
-1.045, 1.690e-3
-1.046, 1.736e-3
-1.047, 1.776e-3
-1.048, 1.819e-3
-1.049, 1.859e-3
-1.050, 1.902e-3
-1.051, 1.939e-3
-1.052, 1.983e-3
-1.053, 2.023e-3
-1.054, 2.066e-3
-1.055, 2.109e-3
-1.056, 2.152e-3
-1.057, 2.195e-3
-1.058, 2.242e-3
-1.059, 2.285e-3
-1.060, 2.331e-3
-1.061, 2.371e-3
-1.062, 2.414e-3
-1.063, 2.454e-3
-1.064, 2.491e-3
-1.065, 2.528e-3
-1.066, 2.562e-3
-1.067, 2.599e-3
-1.068, 2.633e-3
-1.069, 2.670e-3
-1.070, 2.704e-3
-1.071, 2.741e-3
-1.072, 2.778e-3
-1.073, 2.818e-3
-1.074, 2.861e-3
-1.075, 2.901e-3
-1.076, 2.945e-3
-1.077, 2.988e-3
-1.078, 3.031e-3
-1.079, 3.077e-3
-1.080, 3.117e-3
-1.081, 3.163e-3
-1.082, 3.207e-3
-1.083, 3.253e-3
-1.084, 3.296e-3
-1.085, 3.342e-3
-1.086, 3.385e-3
-1.087, 3.425e-3
-1.088, 3.469e-3
-1.089, 3.506e-3
-1.090, 3.546e-3
-1.091, 3.583e-3
-1.092, 3.620e-3
-1.093, 3.660e-3
-1.094, 3.700e-3
-1.095, 3.740e-3
-1.096, 3.777e-3
-1.097, 3.814e-3
-1.098, 3.851e-3
-1.099, 3.888e-3
-1.100, 3.928e-3
-1.101, 3.965e-3
-1.102, 4.008e-3
-1.103, 4.045e-3
-1.104, 4.085e-3
-1.105, 4.125e-3
-1.106, 4.165e-3
-1.107, 4.202e-3
-1.108, 4.239e-3
-1.109, 4.276e-3
-1.110, 4.313e-3
-1.111, 4.354e-3
-1.112, 4.394e-3
-1.113, 4.440e-3
-1.114, 4.486e-3
-1.115, 4.535e-3
-1.116, 4.585e-3
-1.117, 4.634e-3
-1.118, 4.680e-3
-1.119, 4.723e-3
-1.120, 4.770e-3
-1.121, 4.816e-3
-1.122, 4.859e-3
-1.123, 4.905e-3
-1.124, 4.952e-3
-1.125, 4.998e-3
-1.126, 5.044e-3
-1.127, 5.087e-3
-1.128, 5.130e-3
-1.129, 5.167e-3
-1.130, 5.201e-3
-1.131, 5.235e-3
-1.132, 5.269e-3
-1.133, 5.306e-3
-1.134, 5.340e-3
-1.135, 5.377e-3
-1.136, 5.414e-3
-1.137, 5.451e-3
-1.138, 5.491e-3
-1.139, 5.528e-3
-1.140, 5.571e-3
-1.141, 5.614e-3
-1.142, 5.661e-3
-1.143, 5.710e-3
-1.144, 5.756e-3
-1.145, 5.806e-3
-1.146, 5.855e-3
-1.147, 5.898e-3
-1.148, 5.941e-3
-1.149, 5.984e-3
-1.150, 6.031e-3
-1.151, 6.080e-3
-1.152, 6.126e-3
-1.153, 6.169e-3
-1.154, 6.206e-3
-1.155, 6.243e-3
-1.156, 6.277e-3
-1.157, 6.308e-3
-1.158, 6.342e-3
-1.159, 6.373e-3
-1.160, 6.401e-3
-1.161, 6.432e-3
-1.162, 6.459e-3
-1.163, 6.493e-3
-1.164, 6.536e-3
-1.165, 6.586e-3
-1.166, 6.635e-3
-1.167, 6.687e-3
-1.168, 6.743e-3
-1.169, 6.792e-3
-1.170, 6.848e-3
-1.171, 6.897e-3
-1.172, 6.946e-3
-1.173, 6.996e-3
-1.174, 7.048e-3
-1.175, 7.097e-3
-1.176, 7.147e-3
-1.177, 7.190e-3
-1.178, 7.230e-3
-1.179, 7.264e-3
-1.180, 7.295e-3
-1.181, 7.326e-3
-1.182, 7.363e-3
-1.183, 7.409e-3
-1.184, 7.452e-3
-1.185, 7.489e-3
-1.186, 7.517e-3
-1.187, 7.548e-3
-1.188, 7.585e-3
-1.189, 7.625e-3
-1.190, 7.662e-3
-1.191, 7.702e-3
-1.192, 7.745e-3
-1.193, 7.791e-3
-1.194, 7.834e-3
-1.195, 7.878e-3
-1.196, 7.918e-3
-1.197, 7.955e-3
-1.198, 7.988e-3
-1.199, 8.019e-3
-1.200, 8.053e-3
-1.201, 8.084e-3
-1.202, 8.115e-3
-1.203, 8.146e-3
-1.204, 8.180e-3
-1.205, 8.217e-3
-1.206, 8.260e-3
-1.207, 8.306e-3
-1.208, 8.358e-3
-1.209, 8.411e-3
-1.210, 8.463e-3
-1.211, 8.513e-3
-1.212, 8.562e-3
-1.213, 8.611e-3
-1.214, 8.661e-3
-1.215, 8.710e-3
-1.216, 8.759e-3
-1.217, 8.809e-3
-1.218, 8.846e-3
-1.219, 8.880e-3
-1.220, 8.904e-3
-1.221, 8.926e-3
-1.222, 8.944e-3
-1.223, 8.963e-3
-1.224, 8.981e-3
-1.225, 9.003e-3
-1.226, 9.028e-3
-1.227, 9.052e-3
-1.228, 9.080e-3
-1.229, 9.108e-3
-1.230, 9.135e-3
-1.231, 9.169e-3
-1.232, 9.206e-3
-1.233, 9.253e-3
-1.234, 9.308e-3
-1.235, 9.370e-3
-1.236, 9.434e-3
-1.237, 9.502e-3
-1.238, 9.564e-3
-1.239, 9.616e-3
-1.240, 9.666e-3
-1.241, 9.706e-3
-1.242, 9.749e-3
-1.243, 9.786e-3
-1.244, 9.829e-3
-1.245, 9.869e-3
-1.246, 9.903e-3
-1.247, 9.931e-3
-1.248, 9.949e-3
-1.249, 9.965e-3
-1.250, 9.974e-3
-1.251, 9.983e-3
-1.252, 9.996e-3
-1.253, 1.002e-2
-1.254, 1.005e-2
-1.255, 1.009e-2
-1.256, 1.014e-2
-1.257, 1.019e-2
-1.258, 1.024e-2
-1.259, 1.029e-2
-1.260, 1.035e-2
-1.261, 1.040e-2
-1.262, 1.046e-2
-1.263, 1.051e-2
-1.264, 1.056e-2
-1.265, 1.061e-2
-1.266, 1.065e-2
-1.267, 1.068e-2
-1.268, 1.069e-2
-1.269, 1.070e-2
-1.270, 1.071e-2
-1.271, 1.073e-2
-1.272, 1.075e-2
-1.273, 1.078e-2
-1.274, 1.081e-2
-1.275, 1.085e-2
-1.276, 1.089e-2
-1.277, 1.093e-2
-1.278, 1.097e-2
-1.279, 1.101e-2
-1.280, 1.106e-2
-1.281, 1.111e-2
-1.282, 1.116e-2
-1.283, 1.122e-2
-1.284, 1.127e-2
-1.285, 1.132e-2
-1.286, 1.136e-2
-1.287, 1.140e-2
-1.288, 1.143e-2
-1.289, 1.145e-2
-1.290, 1.146e-2
-1.291, 1.147e-2
-1.292, 1.148e-2
-1.293, 1.149e-2
-1.294, 1.150e-2
-1.295, 1.151e-2
-1.296, 1.153e-2
-1.297, 1.154e-2
-1.298, 1.156e-2
-1.299, 1.159e-2
-1.300, 1.162e-2
-1.301, 1.165e-2
-1.302, 1.169e-2
-1.303, 1.173e-2
-1.304, 1.178e-2
-1.305, 1.184e-2
-1.306, 1.189e-2
-1.307, 1.195e-2
-1.308, 1.200e-2
-1.309, 1.205e-2
-1.310, 1.210e-2
-1.311, 1.214e-2
-1.312, 1.219e-2
-1.313, 1.223e-2
-1.314, 1.227e-2
-1.315, 1.230e-2
-1.316, 1.233e-2
-1.317, 1.234e-2
-1.318, 1.235e-2
-1.319, 1.236e-2
-1.320, 1.235e-2
-1.321, 1.236e-2
-1.322, 1.236e-2
-1.323, 1.237e-2
-1.324, 1.238e-2
-1.325, 1.240e-2
-1.326, 1.242e-2
-1.327, 1.245e-2
-1.328, 1.247e-2
-1.329, 1.250e-2
-1.330, 1.253e-2
-1.331, 1.256e-2
-1.332, 1.260e-2
-1.333, 1.263e-2
-1.334, 1.267e-2
-1.335, 1.271e-2
-1.336, 1.275e-2
-1.337, 1.279e-2
-1.338, 1.283e-2
-1.339, 1.287e-2
-1.340, 1.289e-2
-1.341, 1.292e-2
-1.342, 1.296e-2
-1.343, 1.301e-2
-1.344, 1.305e-2
-1.345, 1.308e-2
-1.346, 1.311e-2
-1.347, 1.313e-2
-1.348, 1.315e-2
-1.349, 1.316e-2
-1.350, 1.316e-2
-1.351, 1.317e-2
-1.352, 1.317e-2
-1.353, 1.317e-2
-1.354, 1.318e-2
-1.355, 1.320e-2
-1.356, 1.322e-2
-1.357, 1.325e-2
-1.358, 1.328e-2
-1.359, 1.332e-2
-1.360, 1.336e-2
-1.361, 1.341e-2
-1.362, 1.345e-2
-1.363, 1.350e-2
-1.364, 1.355e-2
-1.365, 1.360e-2
-1.366, 1.364e-2
-1.367, 1.368e-2
-1.368, 1.372e-2
-1.369, 1.375e-2
-1.370, 1.378e-2
-1.371, 1.379e-2
-1.372, 1.380e-2
-1.373, 1.381e-2
-1.374, 1.381e-2
-1.375, 1.381e-2
-1.376, 1.379e-2
-1.377, 1.377e-2
-1.378, 1.375e-2
-1.379, 1.373e-2
-1.380, 1.371e-2
-1.381, 1.370e-2
-1.382, 1.370e-2
-1.383, 1.372e-2
-1.384, 1.374e-2
-1.385, 1.377e-2
-1.386, 1.381e-2
-1.387, 1.386e-2
-1.388, 1.392e-2
-1.389, 1.398e-2
-1.390, 1.403e-2
-1.391, 1.407e-2
-1.392, 1.411e-2
-1.393, 1.415e-2
-1.394, 1.418e-2
-1.395, 1.420e-2
-1.396, 1.422e-2
-1.397, 1.424e-2
-1.398, 1.426e-2
-1.399, 1.427e-2
-1.400, 1.428e-2
-1.401, 1.428e-2
-1.402, 1.428e-2
-1.403, 1.427e-2
-1.404, 1.427e-2
-1.405, 1.427e-2
-1.406, 1.427e-2
-1.407, 1.427e-2
-1.408, 1.427e-2
-1.409, 1.427e-2
-1.410, 1.428e-2
-1.411, 1.428e-2
-1.412, 1.429e-2
-1.413, 1.430e-2
-1.414, 1.432e-2
-1.415, 1.433e-2
-1.416, 1.436e-2
-1.417, 1.439e-2
-1.418, 1.443e-2
-1.419, 1.448e-2
-1.420, 1.453e-2
-1.421, 1.459e-2
-1.422, 1.464e-2
-1.423, 1.468e-2
-1.424, 1.473e-2
-1.425, 1.476e-2
-1.426, 1.478e-2
-1.427, 1.480e-2
-1.428, 1.481e-2
-1.429, 1.483e-2
-1.430, 1.485e-2
-1.431, 1.486e-2
-1.432, 1.487e-2
-1.433, 1.488e-2
-1.434, 1.488e-2
-1.435, 1.488e-2
-1.436, 1.488e-2
-1.437, 1.488e-2
-1.438, 1.489e-2
-1.439, 1.490e-2
-1.440, 1.491e-2
-1.441, 1.493e-2
-1.442, 1.495e-2
-1.443, 1.498e-2
-1.444, 1.501e-2
-1.445, 1.503e-2
-1.446, 1.506e-2
-1.447, 1.510e-2
-1.448, 1.513e-2
-1.449, 1.516e-2
-1.450, 1.520e-2
-1.451, 1.523e-2
-1.452, 1.526e-2
-1.453, 1.527e-2
-1.454, 1.528e-2
-1.455, 1.529e-2
-1.456, 1.529e-2
-1.457, 1.529e-2
-1.458, 1.528e-2
-1.459, 1.528e-2
-1.460, 1.528e-2
-1.461, 1.528e-2
-1.462, 1.529e-2
-1.463, 1.530e-2
-1.464, 1.532e-2
-1.465, 1.535e-2
-1.466, 1.538e-2
-1.467, 1.542e-2
-1.468, 1.546e-2
-1.469, 1.550e-2
-1.470, 1.552e-2
-1.471, 1.554e-2
-1.472, 1.554e-2
-1.473, 1.555e-2
-1.474, 1.556e-2
-1.475, 1.558e-2
-1.476, 1.560e-2
-1.477, 1.561e-2
-1.478, 1.563e-2
-1.479, 1.566e-2
-1.480, 1.568e-2
-1.481, 1.571e-2
-1.482, 1.574e-2
-1.483, 1.576e-2
-1.484, 1.579e-2
-1.485, 1.582e-2
-1.486, 1.584e-2
-1.487, 1.587e-2
-1.488, 1.589e-2
-1.489, 1.592e-2
-1.490, 1.594e-2
-1.491, 1.596e-2
-1.492, 1.598e-2
-1.493, 1.599e-2
-1.494, 1.600e-2
-1.495, 1.601e-2
-1.496, 1.602e-2
-1.497, 1.603e-2
-1.498, 1.603e-2
-1.499, 1.604e-2
-1.500, 1.598e-2
-1.499, 1.578e-2
-1.498, 1.561e-2
-1.497, 1.544e-2
-1.496, 1.529e-2
-1.495, 1.515e-2
-1.494, 1.501e-2
-1.493, 1.488e-2
-1.492, 1.475e-2
-1.491, 1.462e-2
-1.490, 1.448e-2
-1.489, 1.435e-2
-1.488, 1.420e-2
-1.487, 1.406e-2
-1.486, 1.391e-2
-1.485, 1.378e-2
-1.484, 1.364e-2
-1.483, 1.350e-2
-1.482, 1.337e-2
-1.481, 1.324e-2
-1.480, 1.311e-2
-1.479, 1.300e-2
-1.478, 1.288e-2
-1.477, 1.277e-2
-1.476, 1.266e-2
-1.475, 1.255e-2
-1.474, 1.244e-2
-1.473, 1.233e-2
-1.472, 1.222e-2
-1.471, 1.211e-2
-1.470, 1.200e-2
-1.469, 1.189e-2
-1.468, 1.176e-2
-1.467, 1.164e-2
-1.466, 1.152e-2
-1.465, 1.140e-2
-1.464, 1.127e-2
-1.463, 1.114e-2
-1.462, 1.101e-2
-1.461, 1.088e-2
-1.460, 1.075e-2
-1.459, 1.062e-2
-1.458, 1.050e-2
-1.457, 1.038e-2
-1.456, 1.027e-2
-1.455, 1.017e-2
-1.454, 1.007e-2
-1.453, 9.980e-3
-1.452, 9.888e-3
-1.451, 9.795e-3
-1.450, 9.703e-3
-1.449, 9.610e-3
-1.448, 9.521e-3
-1.447, 9.434e-3
-1.446, 9.348e-3
-1.445, 9.259e-3
-1.444, 9.172e-3
-1.443, 9.086e-3
-1.442, 9.003e-3
-1.441, 8.920e-3
-1.440, 8.827e-3
-1.439, 8.732e-3
-1.438, 8.636e-3
-1.437, 8.540e-3
-1.436, 8.448e-3
-1.435, 8.358e-3
-1.434, 8.272e-3
-1.433, 8.189e-3
-1.432, 8.112e-3
-1.431, 8.025e-3
-1.430, 7.939e-3
-1.429, 7.853e-3
-1.428, 7.760e-3
-1.427, 7.662e-3
-1.426, 7.560e-3
-1.425, 7.458e-3
-1.424, 7.356e-3
-1.423, 7.255e-3
-1.422, 7.159e-3
-1.421, 7.070e-3
-1.420, 6.983e-3
-1.419, 6.903e-3
-1.418, 6.826e-3
-1.417, 6.752e-3
-1.416, 6.681e-3
-1.415, 6.610e-3
-1.414, 6.546e-3
-1.413, 6.481e-3
-1.412, 6.416e-3
-1.411, 6.354e-3
-1.410, 6.290e-3
-1.409, 6.225e-3
-1.408, 6.154e-3
-1.407, 6.083e-3
-1.406, 6.006e-3
-1.405, 5.926e-3
-1.404, 5.843e-3
-1.403, 5.759e-3
-1.402, 5.673e-3
-1.401, 5.590e-3
-1.400, 5.504e-3
-1.399, 5.414e-3
-1.398, 5.331e-3
-1.397, 5.245e-3
-1.396, 5.164e-3
-1.395, 5.084e-3
-1.394, 5.007e-3
-1.393, 4.930e-3
-1.392, 4.859e-3
-1.391, 4.785e-3
-1.390, 4.714e-3
-1.389, 4.646e-3
-1.388, 4.579e-3
-1.387, 4.508e-3
-1.386, 4.443e-3
-1.385, 4.378e-3
-1.384, 4.313e-3
-1.383, 4.249e-3
-1.382, 4.181e-3
-1.381, 4.116e-3
-1.380, 4.048e-3
-1.379, 3.980e-3
-1.378, 3.913e-3
-1.377, 3.845e-3
-1.376, 3.780e-3
-1.375, 3.709e-3
-1.374, 3.641e-3
-1.373, 3.580e-3
-1.372, 3.515e-3
-1.371, 3.450e-3
-1.370, 3.388e-3
-1.369, 3.327e-3
-1.368, 3.268e-3
-1.367, 3.210e-3
-1.366, 3.148e-3
-1.365, 3.093e-3
-1.364, 3.031e-3
-1.363, 2.972e-3
-1.362, 2.914e-3
-1.361, 2.855e-3
-1.360, 2.797e-3
-1.359, 2.735e-3
-1.358, 2.679e-3
-1.357, 2.618e-3
-1.356, 2.559e-3
-1.355, 2.504e-3
-1.354, 2.442e-3
-1.353, 2.383e-3
-1.352, 2.325e-3
-1.351, 2.263e-3
-1.350, 2.201e-3
-1.349, 2.143e-3
-1.348, 2.081e-3
-1.347, 2.023e-3
-1.346, 1.964e-3
-1.345, 1.909e-3
-1.344, 1.850e-3
-1.343, 1.795e-3
-1.342, 1.742e-3
-1.341, 1.690e-3
-1.340, 1.637e-3
-1.339, 1.588e-3
-1.338, 1.536e-3
-1.337, 1.486e-3
-1.336, 1.434e-3
-1.335, 1.381e-3
-1.334, 1.329e-3
-1.333, 1.280e-3
-1.332, 1.224e-3
-1.331, 1.175e-3
-1.330, 1.122e-3
-1.329, 1.070e-3
-1.328, 1.021e-3
-1.327, 9.713e-4
-1.326, 9.251e-4
-1.325, 8.758e-4
-1.324, 8.264e-4
-1.323, 7.771e-4
-1.322, 7.278e-4
-1.321, 6.784e-4
-1.320, 6.291e-4
-1.319, 5.798e-4
-1.318, 5.335e-4
-1.317, 4.873e-4
-1.316, 4.410e-4
-1.315, 3.948e-4
-1.314, 3.516e-4
-1.313, 3.085e-4
-1.312, 2.653e-4
-1.311, 2.191e-4
-1.310, 1.759e-4
-1.309, 1.296e-4
-1.308, 8.340e-5
-1.307, 3.715e-5
-1.306, -1.218e-5
-1.305, -5.842e-5
-1.304, -1.047e-4
-1.303, -1.509e-4
-1.302, -1.941e-4
-1.301, -2.372e-4
-1.300, -2.804e-4
-1.299, -3.236e-4
-1.298, -3.667e-4
-1.297, -4.068e-4
-1.296, -4.500e-4
-1.295, -4.931e-4
-1.294, -5.363e-4
-1.293, -5.795e-4
-1.292, -6.226e-4
-1.291, -6.658e-4
-1.290, -7.120e-4
-1.289, -7.552e-4
-1.288, -7.984e-4
-1.287, -8.385e-4
-1.286, -8.816e-4
-1.285, -9.186e-4
-1.284, -9.618e-4
-1.283, -9.988e-4
-1.282, -1.042e-3
-1.281, -1.082e-3
-1.280, -1.125e-3
-1.279, -1.168e-3
-1.278, -1.208e-3
-1.277, -1.249e-3
-1.276, -1.286e-3
-1.275, -1.322e-3
-1.274, -1.356e-3
-1.273, -1.390e-3
-1.272, -1.424e-3
-1.271, -1.461e-3
-1.270, -1.498e-3
-1.269, -1.541e-3
-1.268, -1.581e-3
-1.267, -1.625e-3
-1.266, -1.665e-3
-1.265, -1.705e-3
-1.264, -1.742e-3
-1.263, -1.782e-3
-1.262, -1.819e-3
-1.261, -1.859e-3
-1.260, -1.899e-3
-1.259, -1.936e-3
-1.258, -1.973e-3
-1.257, -2.010e-3
-1.256, -2.047e-3
-1.255, -2.084e-3
-1.254, -2.115e-3
-1.253, -2.149e-3
-1.252, -2.180e-3
-1.251, -2.210e-3
-1.250, -2.244e-3
-1.249, -2.275e-3
-1.248, -2.303e-3
-1.247, -2.334e-3
-1.246, -2.362e-3
-1.245, -2.392e-3
-1.244, -2.423e-3
-1.243, -2.451e-3
-1.242, -2.482e-3
-1.241, -2.519e-3
-1.240, -2.559e-3
-1.239, -2.599e-3
-1.238, -2.639e-3
-1.237, -2.679e-3
-1.236, -2.719e-3
-1.235, -2.756e-3
-1.234, -2.793e-3
-1.233, -2.827e-3
-1.232, -2.861e-3
-1.231, -2.895e-3
-1.230, -2.926e-3
-1.229, -2.960e-3
-1.228, -2.994e-3
-1.227, -3.031e-3
-1.226, -3.068e-3
-1.225, -3.105e-3
-1.224, -3.142e-3
-1.223, -3.172e-3
-1.222, -3.203e-3
-1.221, -3.228e-3
-1.220, -3.253e-3
-1.219, -3.277e-3
-1.218, -3.305e-3
-1.217, -3.333e-3
-1.216, -3.364e-3
-1.215, -3.394e-3
-1.214, -3.425e-3
-1.213, -3.453e-3
-1.212, -3.481e-3
-1.211, -3.512e-3
-1.210, -3.542e-3
-1.209, -3.573e-3
-1.208, -3.604e-3
-1.207, -3.641e-3
-1.206, -3.672e-3
-1.205, -3.706e-3
-1.204, -3.733e-3
-1.203, -3.764e-3
-1.202, -3.795e-3
-1.201, -3.826e-3
-1.200, -3.860e-3
-1.199, -3.897e-3
-1.198, -3.931e-3
-1.197, -3.971e-3
-1.196, -4.002e-3
-1.195, -4.029e-3
-1.194, -4.060e-3
-1.193, -4.091e-3
-1.192, -4.119e-3
-1.191, -4.153e-3
-1.190, -4.184e-3
-1.189, -4.218e-3
-1.188, -4.248e-3
-1.187, -4.279e-3
-1.186, -4.304e-3
-1.185, -4.325e-3
-1.184, -4.344e-3
-1.183, -4.366e-3
-1.182, -4.384e-3
-1.181, -4.403e-3
-1.180, -4.424e-3
-1.179, -4.446e-3
-1.178, -4.470e-3
-1.177, -4.498e-3
-1.176, -4.517e-3
-1.175, -4.538e-3
-1.174, -4.557e-3
-1.173, -4.578e-3
-1.172, -4.603e-3
-1.171, -4.631e-3
-1.170, -4.662e-3
-1.169, -4.699e-3
-1.168, -4.742e-3
-1.167, -4.788e-3
-1.166, -4.831e-3
-1.165, -4.877e-3
-1.164, -4.920e-3
-1.163, -4.961e-3
-1.162, -5.001e-3
-1.161, -5.035e-3
-1.160, -5.065e-3
-1.159, -5.093e-3
-1.158, -5.118e-3
-1.157, -5.136e-3
-1.156, -5.155e-3
-1.155, -5.170e-3
-1.154, -5.183e-3
-1.153, -5.198e-3
-1.152, -5.210e-3
-1.151, -5.229e-3
-1.150, -5.253e-3
-1.149, -5.278e-3
-1.148, -5.306e-3
-1.147, -5.337e-3
-1.146, -5.368e-3
-1.145, -5.395e-3
-1.144, -5.423e-3
-1.143, -5.451e-3
-1.142, -5.475e-3
-1.141, -5.500e-3
-1.140, -5.525e-3
-1.139, -5.546e-3
-1.138, -5.571e-3
-1.137, -5.599e-3
-1.136, -5.627e-3
-1.135, -5.657e-3
-1.134, -5.691e-3
-1.133, -5.725e-3
-1.132, -5.762e-3
-1.131, -5.802e-3
-1.130, -5.842e-3
-1.129, -5.882e-3
-1.128, -5.922e-3
-1.127, -5.959e-3
-1.126, -5.993e-3
-1.125, -6.030e-3
-1.124, -6.058e-3
-1.123, -6.089e-3
-1.122, -6.117e-3
-1.121, -6.144e-3
-1.120, -6.172e-3
-1.119, -6.197e-3
-1.118, -6.218e-3
-1.117, -6.237e-3
-1.116, -6.255e-3
-1.115, -6.271e-3
-1.114, -6.289e-3
-1.113, -6.308e-3
-1.112, -6.333e-3
-1.111, -6.357e-3
-1.110, -6.382e-3
-1.109, -6.413e-3
-1.108, -6.444e-3
-1.107, -6.474e-3
-1.106, -6.502e-3
-1.105, -6.533e-3
-1.104, -6.567e-3
-1.103, -6.598e-3
-1.102, -6.635e-3
-1.101, -6.672e-3
-1.100, -6.709e-3
-1.099, -6.743e-3
-1.098, -6.780e-3
-1.097, -6.814e-3
-1.096, -6.847e-3
-1.095, -6.875e-3
-1.094, -6.903e-3
-1.093, -6.931e-3
-1.092, -6.949e-3
-1.091, -6.968e-3
-1.090, -6.989e-3
-1.089, -7.014e-3
-1.088, -7.042e-3
-1.087, -7.072e-3
-1.086, -7.113e-3
-1.085, -7.150e-3
-1.084, -7.190e-3
-1.083, -7.230e-3
-1.082, -7.270e-3
-1.081, -7.313e-3
-1.080, -7.359e-3
-1.079, -7.405e-3
-1.078, -7.449e-3
-1.077, -7.495e-3
-1.076, -7.535e-3
-1.075, -7.566e-3
-1.074, -7.587e-3
-1.073, -7.597e-3
-1.072, -7.603e-3
-1.071, -7.606e-3
-1.070, -7.615e-3
-1.069, -7.631e-3
-1.068, -7.652e-3
-1.067, -7.677e-3
-1.066, -7.717e-3
-1.065, -7.763e-3
-1.064, -7.809e-3
-1.063, -7.856e-3
-1.062, -7.896e-3
-1.061, -7.930e-3
-1.060, -7.970e-3
-1.059, -8.010e-3
-1.058, -8.053e-3
-1.057, -8.093e-3
-1.056, -8.130e-3
-1.055, -8.164e-3
-1.054, -8.195e-3
-1.053, -8.226e-3
-1.052, -8.253e-3
-1.051, -8.281e-3
-1.050, -8.309e-3
-1.049, -8.327e-3
-1.048, -8.333e-3
-1.047, -8.337e-3
-1.046, -8.337e-3
-1.045, -8.346e-3
-1.044, -8.361e-3
-1.043, -8.386e-3
-1.042, -8.420e-3
-1.041, -8.463e-3
-1.040, -8.512e-3
-1.039, -8.574e-3
-1.038, -8.636e-3
-1.037, -8.697e-3
-1.036, -8.750e-3
-1.035, -8.793e-3
-1.034, -8.833e-3
-1.033, -8.867e-3
-1.032, -8.898e-3
-1.031, -8.935e-3
-1.030, -8.972e-3
-1.029, -8.999e-3
-1.028, -9.024e-3
-1.027, -9.033e-3
-1.026, -9.040e-3
-1.025, -9.036e-3
-1.024, -9.036e-3
-1.023, -9.043e-3
-1.022, -9.061e-3
-1.021, -9.086e-3
-1.020, -9.123e-3
-1.019, -9.169e-3
-1.018, -9.218e-3
-1.017, -9.265e-3
-1.016, -9.302e-3
-1.015, -9.332e-3
-1.014, -9.354e-3
-1.013, -9.366e-3
-1.012, -9.379e-3
-1.011, -9.394e-3
-1.010, -9.413e-3
-1.009, -9.440e-3
-1.008, -9.474e-3
-1.007, -9.514e-3
-1.006, -9.554e-3
-1.005, -9.594e-3
-1.004, -9.635e-3
-1.003, -9.665e-3
-1.002, -9.696e-3
-1.001, -9.727e-3
