Potential V vs RHE, Current mA cm-2
0.4132999999999999,0.007052335829827208
0.4122999999999999,0.005162281533207518
0.4112999999999999,0.004596397013261504
0.4102999999999999,0.0042851605272911965
0.4092999999999999,0.004065880275812115
0.4082999999999999,0.003840941179133575
0.4072999999999999,0.0035933667016571935
0.4062999999999999,0.0033995512535756832
0.4052999999999999,0.003217053495893093
0.4042999999999999,0.0030755823659065896
0.4032999999999999,0.0029383553698196807
0.4022999999999999,0.0027544429008372266
0.4012999999999999,0.0025450656284572008
0.4002999999999999,0.0024389622809673234
0.3992999999999999,0.002273441058883114
0.3982999999999999,0.002124896372397285
0.3972999999999999,0.001974936974611591
0.3962999999999999,0.0018051716186277867
0.3952999999999999,0.001707556538937099
0.3942999999999999,0.0016056973253468167
0.39329999999999987,0.001469885040559773
0.39229999999999987,0.0013374680628924056
0.39129999999999987,0.0011685515336885201
0.39029999999999987,0.00108480062473651
0.38929999999999987,0.0009941176304151614
0.38829999999999987,0.0008851848603255534
0.38729999999999987,0.0007526264115281995
0.38629999999999987,0.0005837098823243142
0.38529999999999986,0.00048453862020377507
0.38429999999999986,0.00043162841758882266
0.38329999999999986,0.00031434885083001115
0.38229999999999986,0.00018730777610213086
0.38129999999999986,6.588310523471476e-05
0.38029999999999986,-2.624289461249643e-05
0.37929999999999986,-7.649343998370254e-05
0.37829999999999986,-0.00017146300954364247
0.37729999999999986,-0.00030953883241047
0.37629999999999986,-0.0004463414151074191
0.37529999999999986,-0.0005231602386900905
0.37429999999999986,-0.0005859734204040983
0.37329999999999985,-0.0006612360615569181
0.37229999999999985,-0.0008008680668535972
0.37129999999999985,-0.0008915510611749462
0.37029999999999985,-0.000985063478096025
0.36929999999999985,-0.001039529863140829
0.36829999999999985,-0.0011149339754236356
0.36729999999999985,-0.0012600833547897882
0.36629999999999985,-0.0013619425683800708
0.36529999999999985,-0.0014274437015638218
0.36429999999999985,-0.0014925204213576137
0.36329999999999985,-0.0015307176264539697
0.36229999999999984,-0.001658041643441823
0.36129999999999984,-0.0017910245056291367
0.36029999999999984,-0.001844783535024008
0.35929999999999984,-0.0019112749661176645
0.35829999999999984,-0.001974936974611591
0.35729999999999984,-0.002092358012500389
0.35629999999999984,-0.002205534916489592
0.35529999999999984,-0.0022564645232847334
0.35429999999999984,-0.00231729710917893
0.35329999999999984,-0.002396520941971372
0.35229999999999984,-0.0024814036199632744
0.35129999999999983,-0.002597409946552207
0.35029999999999983,-0.002648339553347349
0.34929999999999983,-0.00268512204714384
0.34829999999999983,-0.0027954695285333122
0.34729999999999983,-0.0029171347003217056
0.34629999999999983,-0.0029935291105144175
0.34529999999999983,-0.003040214583409964
0.34429999999999983,-0.0030869000563055102
0.3432999999999998,-0.003164709177798087
0.3422999999999998,-0.003251006567089854
0.3412999999999998,-0.003351451069380272
0.3402999999999998,-0.003430674902172714
0.3392999999999998,-0.00346604268466934
0.3382999999999998,-0.003516972291464481
0.3372999999999998,-0.003638637463252874
0.3362999999999998,-0.0037433260994428866
0.3352999999999998,-0.003780108593239378
0.3342999999999998,-0.0038480147356328995
0.3332999999999998,-0.0038989443424280413
0.3322999999999998,-0.004005047689917919
0.3312999999999998,-0.0041012480583087416
0.3302999999999998,-0.004146518819904422
0.3292999999999998,-0.004191789581500104
0.3282999999999998,-0.004217254384897675
0.3272999999999998,-0.004350237247084989
0.3262999999999998,-0.0044478523267756755
0.3252999999999999,-0.0044775612640728405
0.3242999999999999,-0.004528490870867982
0.3232999999999999,-0.004566688075964338
0.3222999999999999,-0.004675620846053946
0.3212999999999999,-0.004776065348344364
0.3202999999999999,-0.004812847842140855
0.3192999999999999,-0.00485104504723721
0.3182999999999999,-0.004916121767031002
0.3172999999999999,-0.00500241915632277
0.3162999999999999,-0.0050901312569144016
0.3152999999999999,-0.005117010771611838
0.3142999999999999,-0.00516794037840698
0.3132999999999999,-0.005228772964301175
0.3122999999999999,-0.005316485064892808
0.3112999999999999,-0.005412685433283631
0.3102999999999999,-0.005449467927080121
0.3092999999999999,-0.005489079843476342
0.3082999999999999,-0.005549912429370539
0.3072999999999999,-0.005633380396062576
0.3062999999999999,-0.005721092496654209
0.3052999999999999,-0.005749386722651509
0.3042999999999999,-0.005779095659948674
0.3032999999999999,-0.005852660647541657
0.3022999999999999,-0.005943202170733019
0.3012999999999999,-0.0060153524470261364
0.3002999999999999,-0.006050720229522762
0.2992999999999999,-0.006070526187720872
0.2982999999999999,-0.006129944062315204
0.2972999999999999,-0.006236047409805081
0.2962999999999999,-0.006316685953897388
0.2952999999999999,-0.006354883158993745
0.2942999999999999,-0.006367615560692531
0.2932999999999999,-0.006417130456187806
0.2922999999999999,-0.0065161602471783585
0.2912999999999999,-0.006588310523471475
0.2902999999999999,-0.006618019460768641
0.2892999999999999,-0.006660460799764593
0.2882999999999999,-0.006685925603162163
0.2872999999999999,-0.006794858373251771
0.2862999999999999,-0.006847202691346778
0.2852999999999999,-0.006872667494744348
0.2842999999999999,-0.00694057363713787
0.2832999999999999,-0.006964623729235576
0.2822999999999999,-0.007067897654125722
0.2812999999999999,-0.007144292064318436
0.2802999999999999,-0.007169756867716005
0.2792999999999999,-0.0072022952276129025
0.2782999999999999,-0.007239077721409393
0.2772999999999999,-0.007349425202798865
0.2762999999999999,-0.0074201607677921175
0.2752999999999999,-0.007437137303390498
0.2742999999999999,-0.007459772684188339
0.2732999999999999,-0.007514946424883075
0.2722999999999999,-0.0076125615045737624
0.2712999999999999,-0.007687541203466609
0.2702999999999999,-0.00771583542946391
0.2692999999999999,-0.00774695907806094
0.26829999999999987,-0.007799303396155947
0.26729999999999987,-0.007857306559450413
0.26629999999999987,-0.007922383279244206
0.26529999999999987,-0.007974727597339212
0.26429999999999987,-0.008005851245936241
0.26329999999999987,-0.008052536718831788
0.26229999999999987,-0.008137419396823692
0.26129999999999987,-0.008195422560118158
0.26029999999999986,-0.008223716786115458
0.25929999999999986,-0.00824352274431357
0.25829999999999986,-0.008317087731906552
0.25729999999999986,-0.008393482142099264
0.25629999999999986,-0.008461388284492785
0.25529999999999986,-0.008492511933089815
0.25429999999999986,-0.008512317891287926
0.25329999999999986,-0.008549100385084416
0.25229999999999986,-0.008643886042175374
0.25129999999999986,-0.008700474494169977
0.25029999999999986,-0.008721695163667952
0.24929999999999986,-0.008749989389665251
0.24829999999999985,-0.008796674862560798
0.24729999999999985,-0.00887306927275351
0.24629999999999985,-0.008940975415147032
0.24529999999999985,-0.008994734444541904
0.24429999999999985,-0.00903859049483772
0.24329999999999985,-0.009065470009535155
0.24229999999999985,-0.009157426244026382
0.24129999999999985,-0.00923806478811869
0.24029999999999985,-0.009229576520319499
0.23929999999999985,-0.009273432570615317
0.23829999999999985,-0.009310215064411806
0.23729999999999984,-0.009396512453703574
0.23629999999999984,-0.00948280984299534
0.23529999999999984,-0.009491298110794532
0.23429999999999984,-0.009526665893291156
0.23329999999999984,-0.009573351366186703
0.23229999999999984,-0.009661063466778334
0.23129999999999984,-0.009733213743071453
0.23029999999999984,-0.009745946144770238
0.22929999999999984,-0.009762922680368618
0.22829999999999984,-0.009812437575863895
0.22729999999999984,-0.009895905542555932
0.22629999999999983,-0.009968055818849048
0.22529999999999983,-0.00999635004484635
0.22429999999999983,-0.010009082446545133
0.22329999999999983,-0.010072744455039062
0.22229999999999983,-0.010144894731332177
0.22129999999999983,-0.01020714202852624
0.22029999999999983,-0.010245339233622594
0.21929999999999983,-0.010266559903120571
0.21829999999999983,-0.010318904221215576
0.21729999999999983,-0.010385395652309235
0.21629999999999983,-0.010450472372103026
0.21529999999999982,-0.010490084288499247
0.21429999999999982,-0.010494328422398842
0.21329999999999982,-0.010548087451793715
0.21229999999999982,-0.010651361376683863
0.21129999999999982,-0.010712193962578057
0.21029999999999982,-0.010723511652976978
0.20929999999999982,-0.010757464724173738
0.20829999999999982,-0.010790003084070635
0.20729999999999982,-0.010906009410659567
0.20629999999999982,-0.01094562132705579
0.20529999999999982,-0.01098240382085228
0.20429999999999982,-0.011030504005047691
0.20329999999999981,-0.011064457076244451
0.2022999999999998,-0.01115075446553622
0.2012999999999998,-0.011225734164429065
0.20029999999999992,-0.011238466566127852
0.19929999999999992,-0.011271004926024748
0.19829999999999992,-0.011300713863321913
0.19729999999999992,-0.01140115836561233
0.19629999999999992,-0.011474723353205311
0.19529999999999992,-0.011476138064505176
0.19429999999999992,-0.011579411989395324
0.19329999999999992,-0.011644488709189117
0.19229999999999992,-0.011675612357786148
0.19129999999999991,-0.01173785965498021
0.1902999999999999,-0.01176049503577805
0.1892999999999999,-0.011797277529574539
0.1882999999999999,-0.011826986466871706
0.1872999999999999,-0.011900551454464687
0.1862999999999999,-0.011979775287257131
0.1852999999999999,-0.01199392240025578
0.1842999999999999,-0.012008069513254432
0.1832999999999999,-0.012067487387848764
0.1822999999999999,-0.01214246708674161
0.1812999999999999,-0.012223105630833916
0.1802999999999999,-0.012244326300331893
0.1792999999999999,-0.012269791103729463
0.1782999999999999,-0.0123249648444242
0.1772999999999999,-0.012408432811116237
0.1762999999999999,-0.012443800593612862
0.1752999999999999,-0.012486241932608813
0.1742999999999999,-0.012508877313406655
0.1732999999999999,-0.012561221631501661
0.1722999999999999,-0.012648933732093293
0.1712999999999999,-0.012699863338888435
0.1702999999999999,-0.012722498719686275
0.1692999999999999,-0.0127578665021829
0.1682999999999999,-0.012820113799376963
0.1672999999999999,-0.012907825899968596
0.1662999999999999,-0.012970073197162656
0.1652999999999999,-0.012999782134459821
0.1642999999999999,-0.013033735205656581
0.1632999999999999,-0.013060614720354018
0.1622999999999999,-0.013156815088744842
0.1612999999999999,-0.013223306519838498
0.1602999999999999,-0.013236038921537283
0.1592999999999999,-0.01328555381703256
0.15829999999999989,-0.013329409867328374
0.15729999999999988,-0.013415707256620142
0.15629999999999988,-0.013480783976413935
0.15529999999999988,-0.013496345800712453
0.15429999999999988,-0.0135387871397084
0.15329999999999988,-0.013581228478704351
0.15229999999999988,-0.013657622888897063
0.15129999999999988,-0.01372411431999072
0.15029999999999988,-0.013734017299089777
0.14929999999999988,-0.013796264596283837
0.14829999999999988,-0.013858511893477898
0.14729999999999988,-0.013930662169771017
0.14629999999999987,-0.013990080044365347
0.14529999999999987,-0.014018374270362647
0.14429999999999987,-0.014039594939860626
0.14329999999999987,-0.014125892329152392
0.14229999999999987,-0.014217848563643616
0.14129999999999987,-0.01426028990263957
0.14029999999999987,-0.014288584128636872
0.13929999999999987,-0.014288584128636872
0.13829999999999987,-0.014373466806628774
0.13729999999999987,-0.014458349484620674
0.13629999999999987,-0.014514937936615275
0.13529999999999986,-0.014543232162612576
0.13429999999999986,-0.014571526388609878
0.13329999999999986,-0.014628114840604478
0.13229999999999986,-0.014712997518596381
0.13129999999999986,-0.014755438857592333
0.13029999999999986,-0.014783733083589632
0.12929999999999986,-0.014840321535584235
0.12829999999999986,-0.014882762874580187
0.12729999999999986,-0.014995939778569388
0.12629999999999986,-0.01505252823056399
0.12529999999999986,-0.015080822456561293
0.12429999999999986,-0.01509496956955994
0.12329999999999985,-0.015137410908555892
0.12229999999999985,-0.015236440699546445
0.12129999999999985,-0.015307176264539698
0.12029999999999985,-0.015307176264539698
0.11929999999999985,-0.0153637647165343
0.11829999999999985,-0.015420353168528897
0.11729999999999985,-0.015519382959519455
0.11629999999999985,-0.015575971411514053
0.11529999999999985,-0.015590118524512706
0.11429999999999985,-0.015618412750510005
0.11329999999999985,-0.01568914831550326
0.11229999999999984,-0.015745736767497857
0.11129999999999984,-0.01584476655848841
0.11029999999999984,-0.01585891367148706
0.10929999999999984,-0.01588720789748436
0.10829999999999984,-0.015943796349478963
0.10729999999999984,-0.016028679027470863
0.10629999999999984,-0.01611356170546277
0.10529999999999984,-0.016099414592464115
0.10429999999999984,-0.016170150157457368
0.10329999999999984,-0.016226738609451972
0.10229999999999984,-0.01629747417444522
0.10129999999999983,-0.016368209739438477
0.10029999999999983,-0.016410651078434424
0.09929999999999983,-0.016424798191433075
0.09829999999999983,-0.016495533756426328
0.09729999999999983,-0.01660871066041553
0.09629999999999983,-0.01665115199941148
0.09529999999999983,-0.016679446225408782
0.09429999999999983,-0.016721887564404736
0.09329999999999983,-0.016792623129397985
0.09229999999999983,-0.01687750580738989
0.09129999999999983,-0.016948241372383138
0.09029999999999982,-0.016962388485381792
0.08929999999999982,-0.017018976937376393
0.08829999999999982,-0.017075565389370995
0.08729999999999982,-0.017174595180361543
0.08629999999999982,-0.017217036519357496
0.08529999999999982,-0.017259477858353446
0.08429999999999982,-0.0173019191973494
0.08329999999999982,-0.017358507649344
0.08229999999999982,-0.017457537440334552
0.08129999999999982,-0.0175282730053278
0.08029999999999982,-0.017542420118326456
0.07929999999999982,-0.017599008570321057
0.07829999999999981,-0.01765559702231566
0.07729999999999981,-0.017754626813306213
0.07629999999999981,-0.01781121526530081
0.07529999999999992,-0.017825362378299462
0.07429999999999992,-0.017881950830294063
0.07329999999999992,-0.017952686395287316
0.07229999999999992,-0.018051716186277867
0.07129999999999992,-0.01813659886426977
0.07029999999999992,-0.018150745977268422
0.06929999999999992,-0.018193187316264375
0.06829999999999992,-0.018263922881257624
0.06729999999999992,-0.018348805559249524
0.06629999999999991,-0.018419541124242777
0.06529999999999991,-0.018433688237241428
0.06429999999999991,-0.01847612957623738
0.06329999999999991,-0.018575159367227933
0.06229999999999991,-0.018674189158218484
0.06129999999999991,-0.018716630497214438
0.06029999999999991,-0.018759071836210388
0.05929999999999991,-0.018801513175206338
0.05829999999999991,-0.018886395853198238
0.05729999999999991,-0.01897127853119014
0.056299999999999906,-0.019027866983184743
0.055299999999999905,-0.019070308322180696
0.054299999999999904,-0.019098602548177995
0.0532999999999999,-0.019197632339168547
0.0522999999999999,-0.019310809243157753
0.0512999999999999,-0.019353250582153703
0.0502999999999999,-0.019395691921149656
0.0492999999999999,-0.019438133260145606
0.0482999999999999,-0.01950886882513886
0.0472999999999999,-0.01963619284212671
0.0462999999999999,-0.01967863418112266
0.045299999999999896,-0.01970692840711996
0.044299999999999895,-0.019763516859114563
0.043299999999999894,-0.019834252424107815
0.04229999999999989,-0.019947429328097017
0.04129999999999989,-0.020018164893090266
0.04029999999999989,-0.02006060623208622
0.03929999999999989,-0.020131341797079472
0.03829999999999989,-0.02020207736207272
0.03729999999999989,-0.020301107153063276
0.03629999999999989,-0.020357695605057877
0.03529999999999989,-0.020371842718056525
0.034299999999999886,-0.020442578283049778
0.033299999999999885,-0.02052746096104168
0.032299999999999884,-0.020612343639033585
0.031299999999999883,-0.02071137343002414
0.030299999999999883,-0.020725520543022787
0.02929999999999988,-0.020767961882018737
0.02829999999999988,-0.02085284456001064
0.02729999999999988,-0.020980168576998495
0.02629999999999988,-0.021036757028993096
0.025299999999999878,-0.021079198367989046
0.024299999999999877,-0.021149933932982302
0.023299999999999876,-0.02122066949797555
0.022299999999999875,-0.021333846401964753
0.021299999999999875,-0.021376287740960703
0.020299999999999874,-0.021447023305953956
0.019299999999999873,-0.021489464644949906
0.018299999999999872,-0.02157434732294181
0.01729999999999987,-0.021687524226931015
0.01629999999999987,-0.021772406904922915
0.01529999999999987,-0.021814848243918866
0.014299999999999868,-0.02185728958291482
0.013299999999999867,-0.021956319373905367
0.012299999999999978,-0.02205534916489592
0.011299999999999866,-0.022140231842887825
0.010299999999999976,-0.02218267318188378
0.009299999999999864,-0.022253408746877028
0.008299999999999974,-0.02235243853786758
0.007299999999999862,-0.02245146832885813
0.006299999999999972,-0.022522203893851383
0.00529999999999986,-0.022564645232847336
0.0042999999999999705,-0.022621233684841938
0.0032999999999998586,-0.02272026347583249
0.0022999999999999687,-0.022833440379821688
0.0012999999999998568,-0.022904175944814944
0.00029999999999996696,-0.022932470170812246
-0.000700000000000145,-0.023017352848804146
-0.0017000000000000348,-0.0230880884137974
-0.0027000000000001467,-0.02318711820478795
-0.0037000000000000366,-0.023300295108777156
-0.0047000000000001485,-0.023314442221775804
-0.005700000000000038,-0.02338517778676906
-0.00670000000000015,-0.02347006046476096
-0.00770000000000004,-0.023583237368750162
-0.008700000000000152,-0.023668120046742062
-0.009700000000000042,-0.023682267159740714
-0.010700000000000154,-0.02378129695073127
-0.011700000000000044,-0.02388032674172182
-0.012700000000000156,-0.02397935653271237
-0.013700000000000045,-0.024064239210704275
-0.014700000000000157,-0.024106680549700225
-0.015700000000000047,-0.024149121888696175
-0.01670000000000016,-0.02426229879268538
-0.01770000000000005,-0.024375475696674583
-0.01870000000000016,-0.024432064148669184
-0.01970000000000005,-0.024488652600663786
-0.020700000000000163,-0.02453109393965974
-0.021700000000000053,-0.024644270843648942
-0.022700000000000164,-0.024785741973635443
-0.023700000000000054,-0.024856477538628696
-0.024700000000000166,-0.024898918877624646
-0.025700000000000056,-0.024969654442617898
-0.026700000000000168,-0.025040390007611147
-0.027700000000000058,-0.025167714024599004
-0.02870000000000017,-0.025224302476593602
-0.02970000000000006,-0.025280890928588207
-0.03070000000000017,-0.025365773606580107
-0.03170000000000006,-0.02545065628457201
-0.03270000000000017,-0.025577980301559864
-0.03370000000000006,-0.025648715866553113
-0.034700000000000175,-0.025691157205549067
-0.035700000000000065,-0.02577603988354097
-0.03670000000000018,-0.02587506967453152
-0.03770000000000007,-0.02600239369151937
-0.03870000000000018,-0.026087276369511275
-0.03970000000000007,-0.02612971770850723
-0.04070000000000018,-0.02620045327350048
-0.04170000000000007,-0.02628533595149238
-0.04270000000000018,-0.026426807081478886
-0.04370000000000007,-0.02652583687246944
-0.044700000000000184,-0.02655413109846674
-0.045700000000000074,-0.02661071955046134
-0.046700000000000186,-0.026723896454450544
-0.047700000000000076,-0.02682292624544109
-0.04870000000000019,-0.026907808923433
-0.04970000000000008,-0.02695025026242895
-0.05070000000000019,-0.0270209858274222
-0.05170000000000008,-0.027134162731411407
-0.05270000000000019,-0.027247339635400606
-0.05370000000000008,-0.02731807520039386
-0.05470000000000019,-0.02736051653938981
-0.05570000000000008,-0.027445399217381712
-0.056700000000000195,-0.027544429008372267
-0.057700000000000085,-0.027657605912361466
-0.058700000000000196,-0.027714194364356067
-0.059700000000000086,-0.027784929929349323
-0.0607000000000002,-0.02782737126834527
-0.06170000000000009,-0.027982989511330426
-0.0627000000000002,-0.02809616641531963
