Potential V vs RHE, Current mA cm-2
0.4132999999999999,0.003318912709483376
0.4122999999999999,-0.001311720317234862
0.4112999999999999,-0.0027700047251357413
0.4102999999999999,-0.003606099103355978
0.4092999999999999,-0.004319113598487957
0.4082999999999999,-0.004924610034830193
0.4072999999999999,-0.005579621366667705
0.4062999999999999,-0.00617945895781048
0.4052999999999999,-0.006668949067563782
0.4042999999999999,-0.0071202419722207295
0.4032999999999999,-0.0074668462406876634
0.4022999999999999,-0.0078983331871465
0.4012999999999999,-0.008317087731906552
0.4002999999999999,-0.00866510671167335
0.3992999999999999,-0.009047078762636909
0.3982999999999999,-0.009389438897204248
0.3972999999999999,-0.009716237207473073
0.3962999999999999,-0.010096794547136767
0.3952999999999999,-0.010320318932515442
0.3942999999999999,-0.0106174083054871
0.39329999999999987,-0.010872056339462808
0.39229999999999987,-0.01120734291753082
0.39129999999999987,-0.011505847001802343
0.39029999999999987,-0.011749177345379131
0.38929999999999987,-0.011958554617759154
0.38829999999999987,-0.012224520342133782
0.38729999999999987,-0.01250463317950706
0.38629999999999987,-0.012793234284679527
0.38529999999999986,-0.012994123289260362
0.38429999999999986,-0.013161059222644435
0.38329999999999986,-0.013425610235719199
0.38229999999999986,-0.01370147893919288
0.38129999999999986,-0.013920759190671962
0.38029999999999986,-0.014137210019551311
0.37929999999999986,-0.014288584128636872
0.37829999999999986,-0.014514937936615275
0.37729999999999986,-0.014783733083589632
0.37629999999999986,-0.014981792665570736
0.37529999999999986,-0.015179852247551842
0.37429999999999986,-0.015321323377538347
0.37329999999999985,-0.015519382959519455
0.37229999999999985,-0.01573158965449921
0.37129999999999985,-0.01591550212348166
0.37029999999999985,-0.01611356170546277
0.36929999999999985,-0.01624088572245062
0.36829999999999985,-0.016396503965435776
0.36729999999999985,-0.01665115199941148
0.36629999999999985,-0.016863358694391237
0.36529999999999985,-0.01699068271137909
0.36429999999999985,-0.017174595180361543
0.36329999999999985,-0.0173019191973494
0.36229999999999984,-0.017542420118326456
0.36129999999999984,-0.017797068152302163
0.36029999999999984,-0.017952686395287316
0.35929999999999984,-0.018065863299276518
0.35829999999999984,-0.018193187316264375
0.35729999999999984,-0.018377099785246823
0.35629999999999984,-0.018603453593225232
0.35529999999999984,-0.018730777610213082
0.35429999999999984,-0.018843954514202284
0.35329999999999984,-0.019042014096183394
0.35229999999999984,-0.019254220791163148
0.35129999999999983,-0.019537163051136158
0.35029999999999983,-0.019664487068124008
0.34929999999999983,-0.019721075520118612
0.34829999999999983,-0.019890840876102416
0.34729999999999983,-0.020145488910078124
0.34629999999999983,-0.020301107153063276
0.34529999999999983,-0.02041428405705248
0.34429999999999983,-0.02052746096104168
0.3432999999999998,-0.020683079204026837
0.3422999999999998,-0.020909433012005242
0.3412999999999998,-0.021065051254990398
0.3402999999999998,-0.0212631108369715
0.3392999999999998,-0.021376287740960703
0.3382999999999998,-0.021390434853959358
0.3372999999999998,-0.021475317531951258
0.3362999999999998,-0.021772406904922915
0.3352999999999998,-0.02194217226090672
0.3342999999999998,-0.022027054938898623
0.3332999999999998,-0.022126084729889174
0.3322999999999998,-0.02235243853786758
0.3312999999999998,-0.022578792345845984
0.3302999999999998,-0.02267782213683654
0.3292999999999998,-0.02276270481482844
0.3282999999999998,-0.02287588171881764
0.3272999999999998,-0.02310223552679605
0.3262999999999998,-0.023158823978790648
0.3252999999999999,-0.02324370665678255
0.3242999999999999,-0.02341347201276636
0.3232999999999999,-0.02347006046476096
0.3222999999999999,-0.023724708498736664
0.3212999999999999,-0.023823738289727222
0.3202999999999999,-0.02390862096771912
0.3192999999999999,-0.02393691519371642
0.3182999999999999,-0.024120827662698876
0.3172999999999999,-0.02420571034069078
0.3162999999999999,-0.02436132858367593
0.3152999999999999,-0.024432064148669184
0.3142999999999999,-0.02438962280967323
0.3132999999999999,-0.024601829504652988
0.3122999999999999,-0.02468671218264489
0.3112999999999999,-0.024856477538628696
0.3102999999999999,-0.024856477538628696
0.3092999999999999,-0.024898918877624646
0.3082999999999999,-0.0249413602166206
0.3072999999999999,-0.02506868423360845
0.3062999999999999,-0.02515356691160035
0.3052999999999999,-0.02515356691160035
0.3042999999999999,-0.025196008250596303
0.3032999999999999,-0.025238449589592253
0.3022999999999999,-0.02546480339757066
0.3012999999999999,-0.025521391849565263
0.3002999999999999,-0.025677010092550415
0.2992999999999999,-0.025677010092550415
0.2982999999999999,-0.02573359854454502
0.2972999999999999,-0.025818481222536924
0.2962999999999999,-0.025818481222536924
0.2952999999999999,-0.025974099465522073
0.2942999999999999,-0.026030687917516674
0.2932999999999999,-0.026370218629484285
0.2922999999999999,-0.026511689759470786
0.2912999999999999,-0.02658242532446404
0.2902999999999999,-0.02668145511545459
0.2892999999999999,-0.026695602228453245
0.2882999999999999,-0.026695602228453245
0.2872999999999999,-0.026709749341451892
0.2862999999999999,-0.02661071955046134
0.2852999999999999,-0.02668145511545459
0.2842999999999999,-0.02668145511545459
0.2832999999999999,-0.026752190680447843
0.2822999999999999,-0.026780484906445145
0.2812999999999999,-0.026893661810434347
0.2802999999999999,-0.026865367584437045
0.2792999999999999,-0.02692195603643165
0.2782999999999999,-0.027049280053419503
0.2772999999999999,-0.027176604070407354
0.2762999999999999,-0.027459546330380363
0.2752999999999999,-0.02755857612137091
0.2742999999999999,-0.02755857612137091
0.2732999999999999,-0.027459546330380363
0.2722999999999999,-0.027601017460366868
0.2712999999999999,-0.02772834147735472
0.2702999999999999,-0.02774248859035337
0.2692999999999999,-0.027671753025360117
0.26829999999999987,-0.02743125210438306
0.26729999999999987,-0.02750198766937631
0.26629999999999987,-0.02764345879936281
0.26529999999999987,-0.027572723234369562
0.26429999999999987,-0.027671753025360117
0.26329999999999987,-0.027940548172334476
0.26229999999999987,-0.028181049093311532
0.26129999999999987,-0.028393255788291286
0.26029999999999986,-0.028393255788291286
0.25929999999999986,-0.028251784658304784
0.25829999999999986,-0.028237637545306133
0.25729999999999986,-0.028223490432307482
0.25629999999999986,-0.02819519620631018
0.25529999999999986,-0.02811031352831828
0.25429999999999986,-0.027982989511330426
0.25329999999999986,-0.027954695285333123
0.25229999999999986,-0.02811031352831828
0.25129999999999986,-0.028053725076323675
0.25029999999999986,-0.028053725076323675
0.24929999999999986,-0.02811031352831828
0.24829999999999985,-0.02802543085032638
0.24729999999999985,-0.028039577963325023
0.24629999999999985,-0.02796884239833177
0.24529999999999985,-0.027841518381343924
0.24429999999999985,-0.027770782816350672
0.24329999999999985,-0.02768590013835877
0.24229999999999985,-0.027671753025360117
0.24129999999999985,-0.02770004725135742
0.24029999999999985,-0.02770004725135742
0.23929999999999985,-0.02764345879936281
0.23829999999999985,-0.027784929929349323
0.23729999999999984,-0.027770782816350672
0.23629999999999984,-0.027784929929349323
0.23529999999999984,-0.02772834147735472
0.23429999999999984,-0.02764345879936281
0.23329999999999984,-0.027784929929349323
0.23229999999999984,-0.02775663570335202
0.23129999999999984,-0.027841518381343924
0.23029999999999984,-0.02770004725135742
0.22929999999999984,-0.028166901980312884
0.22829999999999984,-0.028662050935265648
0.22729999999999984,-0.028563021144275093
0.22629999999999983,-0.028647903822266993
0.22529999999999983,-0.02850643269228049
0.22429999999999983,-0.028251784658304784
0.22329999999999983,-0.028251784658304784
0.22229999999999983,-0.028251784658304784
0.22129999999999983,-0.028407402901289937
0.22029999999999983,-0.028435697127287232
0.21929999999999983,-0.028308373110299385
0.21829999999999983,-0.028393255788291286
0.21729999999999983,-0.028379108675292634
0.21629999999999983,-0.028322520223298033
0.21529999999999982,-0.027982989511330426
0.21429999999999982,-0.027615164573365516
0.21329999999999982,-0.027855665494342572
0.21229999999999982,-0.027997136624329073
0.21129999999999982,-0.027898106833338522
0.21029999999999982,-0.028011283737327728
0.20929999999999982,-0.028082019302320977
0.20829999999999982,-0.028053725076323675
0.20729999999999982,-0.02813860775431558
0.20629999999999982,-0.02811031352831828
0.20529999999999982,-0.027516134782374965
0.20429999999999982,-0.027544429008372267
0.20329999999999981,-0.027516134782374965
0.2022999999999998,-0.02772834147735472
0.2012999999999998,-0.027841518381343924
0.20029999999999992,-0.027784929929349323
0.19929999999999992,-0.027898106833338522
0.19829999999999992,-0.028053725076323675
0.19729999999999992,-0.028350814449295336
0.19629999999999992,-0.028449844240285887
0.19529999999999992,-0.02802543085032638
0.19429999999999992,-0.028223490432307482
0.19329999999999992,-0.028280078884302083
0.19229999999999992,-0.02813860775431558
0.19129999999999991,-0.028082019302320977
0.1902999999999999,-0.027954695285333123
0.1892999999999999,-0.02796884239833177
0.1882999999999999,-0.028124460641316927
0.1872999999999999,-0.02809616641531963
0.1862999999999999,-0.02820934331930883
0.1852999999999999,-0.028421550014288588
0.1842999999999999,-0.028364961562293983
0.1832999999999999,-0.028577168257273744
0.1822999999999999,-0.029044022986229205
0.1812999999999999,-0.0290723172122265
0.1802999999999999,-0.029058170099227856
0.1792999999999999,-0.028817669178250797
0.1782999999999999,-0.028647903822266993
0.1772999999999999,-0.029001581647233248
0.1762999999999999,-0.028831816291249444
0.1752999999999999,-0.028916698969241348
0.1742999999999999,-0.02893084608224
0.1732999999999999,-0.029284523907206258
0.1722999999999999,-0.029935291105144177
0.1712999999999999,-0.030218233365117184
0.1702999999999999,-0.02979381997515767
0.1692999999999999,-0.02946843637618871
0.1682999999999999,-0.029482583489187364
0.1672999999999999,-0.02939770081119546
0.1662999999999999,-0.029765525749160374
0.1652999999999999,-0.02966649595816982
0.1642999999999999,-0.02982211420115497
0.1632999999999999,-0.02969479018416712
0.1622999999999999,-0.02969479018416712
0.1612999999999999,-0.029850408427152274
0.1602999999999999,-0.030232380478115835
0.1592999999999999,-0.030260674704113137
0.15829999999999989,-0.030303116043109087
0.15729999999999988,-0.03044458717309559
0.15629999999999988,-0.030487028512091542
0.15529999999999988,-0.030317263156107735
0.15429999999999988,-0.03011920357412663
0.15329999999999988,-0.030416292947098293
0.15229999999999988,-0.030628499642078044
0.15129999999999988,-0.031010471693041605
0.15029999999999988,-0.03127926684001596
0.14929999999999988,-0.03132170817901191
0.14829999999999988,-0.031350002405009215
0.14729999999999988,-0.03110950148403216
0.14629999999999987,-0.03140659085700381
0.14529999999999987,-0.031533914873991674
0.14429999999999987,-0.03137829663100652
0.14329999999999987,-0.031151942823028106
0.14229999999999987,-0.031166089936026757
0.14129999999999987,-0.03137829663100652
0.14029999999999987,-0.031505620647994365
0.13929999999999987,-0.03149147353499571
0.13829999999999987,-0.031731974455972776
0.13729999999999987,-0.03195832826395118
0.13629999999999987,-0.032156387845932284
0.13529999999999986,-0.03224127052392419
0.13429999999999986,-0.03228371186292014
0.13329999999999986,-0.03231200608891744
0.13229999999999986,-0.032538359896895845
0.13129999999999986,-0.032708125252879645
0.13029999999999986,-0.0328354492698675
0.12929999999999986,-0.03284959638286615
0.12829999999999986,-0.0328637434958648
0.12729999999999986,-0.03301936173884996
0.12629999999999986,-0.03316083286883646
0.12529999999999986,-0.033104244416841865
0.12429999999999986,-0.033274009772825665
0.12329999999999985,-0.033344745337818914
0.12229999999999985,-0.03333059822482026
0.12129999999999985,-0.03351451069380272
0.12029999999999985,-0.033797452953775724
0.11929999999999985,-0.033967218309759524
0.11829999999999985,-0.03395307119676088
0.11729999999999985,-0.03416527789174064
0.11629999999999985,-0.034335043247724434
0.11529999999999985,-0.034335043247724434
0.11429999999999985,-0.034462367264712294
0.11329999999999985,-0.034617985507697444
0.11229999999999984,-0.0348301922026772
0.11129999999999984,-0.03508484023665291
0.11029999999999984,-0.03514142868864751
0.10929999999999984,-0.03507069312365426
0.10829999999999984,-0.03514142868864751
0.10729999999999984,-0.035127281575648865
0.10629999999999984,-0.035282899818634014
0.10529999999999984,-0.03539607672262322
0.10429999999999984,-0.035381929609624566
0.10329999999999984,-0.035509253626612426
0.10229999999999984,-0.035594136304604326
0.10129999999999983,-0.03560828341760297
0.10029999999999983,-0.03573560743459083
0.09929999999999983,-0.03584878433858003
0.09829999999999983,-0.03593366701657193
0.09729999999999983,-0.036103432372555734
0.09629999999999983,-0.036188315050547634
0.09529999999999983,-0.03624490350254224
0.09429999999999983,-0.03624490350254224
0.09329999999999983,-0.03644296308452335
0.09229999999999983,-0.03644296308452335
0.09129999999999983,-0.036471257310520644
0.09029999999999982,-0.03652784576251525
0.08929999999999982,-0.03655613998851255
0.08829999999999982,-0.036570287101511195
0.08729999999999982,-0.03679664090948961
0.08629999999999982,-0.036768346683492305
0.08529999999999982,-0.03679664090948961
0.08429999999999982,-0.03695225915247476
0.08329999999999982,-0.03703714183046666
0.08229999999999982,-0.03724934852544641
0.08129999999999982,-0.03733423120343832
0.08029999999999982,-0.03736252542943562
0.07929999999999982,-0.03744740810742752
0.07829999999999981,-0.03747570233342482
0.07729999999999981,-0.03748984944642347
0.07629999999999981,-0.03765961480240728
0.07529999999999992,-0.03754643789841807
0.07429999999999992,-0.03763132057640997
0.07329999999999992,-0.03768790902840457
0.07229999999999992,-0.03774449748039918
0.07129999999999992,-0.037843527271389725
0.07029999999999992,-0.038055733966369486
0.06929999999999992,-0.038126469531362735
0.06829999999999992,-0.03832452911334384
0.06729999999999992,-0.03821135220935464
0.06629999999999991,-0.03828208777434789
0.06529999999999991,-0.038239646435351944
0.06429999999999991,-0.03778693881939513
0.06329999999999991,-0.03727764275144372
0.06229999999999991,-0.037291789864442364
0.06129999999999991,-0.03757473212441537
0.06029999999999991,-0.03765961480240728
0.05929999999999991,-0.03764546768940863
0.05829999999999991,-0.03765961480240728
0.05729999999999991,-0.037801085932393785
0.056299999999999906,-0.0383103820003452
0.055299999999999905,-0.038621618486315505
0.054299999999999904,-0.038423558904334396
0.0532999999999999,-0.03806988107936814
0.0522999999999999,-0.03801329262737353
0.0512999999999999,-0.03792840994938163
0.0502999999999999,-0.037390819655432915
0.0492999999999999,-0.037235201412447766
0.0482999999999999,-0.037404966768431566
0.0472999999999999,-0.03757473212441537
0.0462999999999999,-0.03754643789841807
0.045299999999999896,-0.037772791706396476
0.044299999999999895,-0.03808402819236679
0.043299999999999894,-0.037970851288377586
0.04229999999999989,-0.03791426283638299
0.04129999999999989,-0.03773035036740053
0.04029999999999989,-0.03773035036740053
0.03929999999999989,-0.037772791706396476
0.03829999999999989,-0.03814061664436139
0.03729999999999989,-0.03818305798335734
0.03629999999999989,-0.03829623488734655
0.03529999999999989,-0.038409411791335744
0.034299999999999886,-0.03822549932235329
0.033299999999999885,-0.03801329262737353
0.032299999999999884,-0.03785767438438838
0.031299999999999883,-0.03806988107936814
0.030299999999999883,-0.037970851288377586
0.02929999999999988,-0.03866405982531145
0.02829999999999988,-0.0388196780682966
0.02729999999999988,-0.039046031876275006
0.02629999999999988,-0.03913091455426691
0.025299999999999878,-0.038763089616302
0.024299999999999877,-0.03838111756533845
0.023299999999999876,-0.03799914551437489
0.022299999999999875,-0.0383103820003452
0.021299999999999875,-0.03874894250330335
0.020299999999999874,-0.03893285497228581
0.019299999999999873,-0.039003590537279066
0.018299999999999872,-0.039343121249246674
0.01729999999999987,-0.039527033718229125
0.01629999999999987,-0.03935726836224532
0.01529999999999987,-0.03948459237923317
0.014299999999999868,-0.03937141547524397
0.013299999999999867,-0.03948459237923317
0.012299999999999978,-0.03958362217022373
0.011299999999999866,-0.03954118083122777
0.010299999999999976,-0.03955532794422643
0.009299999999999864,-0.039597769283222374
0.008299999999999974,-0.039456298153235876
0.007299999999999862,-0.03975338752620753
0.006299999999999972,-0.03978168175220483
0.00529999999999986,-0.039682651961214274
0.0042999999999999705,-0.039611916396221025
0.0032999999999998586,-0.03976753463920618
0.0022999999999999687,-0.04009291823817514
0.0012999999999998568,-0.040333419159152194
0.00029999999999996696,-0.04020609514216435
-0.000700000000000145,-0.04023438936816164
-0.0017000000000000348,-0.04047489028913869
-0.0027000000000001467,-0.040347566272150845
-0.0037000000000000366,-0.04065880275812116
-0.0047000000000001485,-0.0404465960631414
-0.005700000000000038,-0.04051733162813465
-0.00670000000000015,-0.04058806719312791
-0.00770000000000004,-0.04058806719312791
-0.008700000000000152,-0.040630508532123855
-0.009700000000000042,-0.04040415472414544
-0.010700000000000154,-0.04046074317614005
-0.011700000000000044,-0.04070124409711711
-0.012700000000000156,-0.04047489028913869
-0.013700000000000045,-0.040630508532123855
-0.014700000000000157,-0.0406729498711198
-0.015700000000000047,-0.04074368543611305
-0.01670000000000016,-0.04094174501809417
-0.01770000000000005,-0.040814421001106306
-0.01870000000000016,-0.04070124409711711
-0.01970000000000005,-0.04098418635709011
-0.020700000000000163,-0.04094174501809417
-0.021700000000000053,-0.040800273888107655
-0.022700000000000164,-0.04082856811410496
-0.023700000000000054,-0.04087100945310092
-0.024700000000000166,-0.040899303679098206
-0.025700000000000056,-0.04078612677510901
-0.026700000000000168,-0.040927597905095515
-0.027700000000000058,-0.040955892131092804
-0.02870000000000017,-0.040885156566099555
-0.02970000000000006,-0.041182245939071216
-0.03070000000000017,-0.040955892131092804
-0.03170000000000006,-0.04077197966211036
-0.03270000000000017,-0.04115395171307392
-0.03370000000000006,-0.04084271522710361
-0.034700000000000175,-0.040899303679098206
-0.035700000000000065,-0.040927597905095515
-0.03670000000000018,-0.04077197966211036
-0.03770000000000007,-0.040715391210115755
-0.03870000000000018,-0.040729538323114406
-0.03970000000000007,-0.04077197966211036
-0.04070000000000018,-0.04075783254911171
-0.04170000000000007,-0.040644655645122506
-0.04270000000000018,-0.040729538323114406
-0.04370000000000007,-0.04070124409711711
-0.044700000000000184,-0.04065880275812116
-0.045700000000000074,-0.0406163614191252
-0.046700000000000186,-0.04068709698411845
-0.047700000000000076,-0.04058806719312791
-0.04870000000000019,-0.040545625854131954
-0.04970000000000008,-0.0404465960631414
-0.05070000000000019,-0.04040415472414544
-0.05170000000000008,-0.04017780091616704
-0.05270000000000019,-0.04012121246417244
-0.05370000000000008,-0.04013535957717109
-0.05470000000000019,-0.04003632978618053
-0.05570000000000008,-0.039965594221187284
-0.056700000000000195,-0.04002218267318189
-0.057700000000000085,-0.04006462401217784
-0.058700000000000196,-0.04017780091616704
-0.059700000000000086,-0.04016365380316839
-0.0607000000000002,-0.04010706535117379
-0.06170000000000009,-0.040347566272150845
-0.0627000000000002,-0.04023438936816164
-0.06370000000000009,-0.04009291823817514
-0.0647000000000002,-0.04017780091616704
-0.06570000000000009,-0.04013535957717109
-0.0667000000000002,-0.04006462401217784
