May 5, 2025   00:51:35
Cyclic Voltammetry
File: c:/users/guazh/data/banditlqround7_x0exp1108_r5/2025-04-30-exp1243\exp1243-2025-05-05t00_43_06-h2koh\exp1243_cv_sr_900mvs_efin_-1400mv.bin
Data Source:  Experiment
Instrument Model:  CHI760E
Header: CV ran at 900 mVs
Note: 

Init E (V) = -1
High E (V) = -1
Low E (V) = -1.4
Final E (V) = -1
Init P/N = N
Scan Rate (V/s) = 0.9
Segment = 3
Sample Interval (V) = 0.001
Quiet Time (sec) = 2
Sensitivity (A/V) = 0.01
Comp R (ohm) = 1.1

Results:

Channel 1:
Segment 1:

Segment 2:

Segment 3:

Potential/V, Current/A

-1.000, 1.058e-3
-1.001, 1.233e-3
-1.002, 1.400e-3
-1.003, 1.554e-3
-1.004, 1.702e-3
-1.005, 1.847e-3
-1.006, 1.986e-3
-1.007, 2.118e-3
-1.008, 2.251e-3
-1.009, 2.380e-3
-1.010, 2.504e-3
-1.011, 2.627e-3
-1.012, 2.744e-3
-1.013, 2.852e-3
-1.014, 2.963e-3
-1.015, 3.065e-3
-1.016, 3.163e-3
-1.017, 3.262e-3
-1.018, 3.351e-3
-1.019, 3.438e-3
-1.020, 3.527e-3
-1.021, 3.614e-3
-1.022, 3.697e-3
-1.023, 3.783e-3
-1.024, 3.866e-3
-1.025, 3.950e-3
-1.026, 4.027e-3
-1.027, 4.107e-3
-1.028, 4.181e-3
-1.029, 4.255e-3
-1.030, 4.326e-3
-1.031, 4.394e-3
-1.032, 4.461e-3
-1.033, 4.526e-3
-1.034, 4.588e-3
-1.035, 4.656e-3
-1.036, 4.720e-3
-1.037, 4.785e-3
-1.038, 4.850e-3
-1.039, 4.915e-3
-1.040, 4.979e-3
-1.041, 5.044e-3
-1.042, 5.103e-3
-1.043, 5.164e-3
-1.044, 5.223e-3
-1.045, 5.275e-3
-1.046, 5.331e-3
-1.047, 5.380e-3
-1.048, 5.433e-3
-1.049, 5.482e-3
-1.050, 5.528e-3
-1.051, 5.581e-3
-1.052, 5.630e-3
-1.053, 5.682e-3
-1.054, 5.732e-3
-1.055, 5.781e-3
-1.056, 5.833e-3
-1.057, 5.883e-3
-1.058, 5.929e-3
-1.059, 5.975e-3
-1.060, 6.021e-3
-1.061, 6.065e-3
-1.062, 6.111e-3
-1.063, 6.154e-3
-1.064, 6.197e-3
-1.065, 6.243e-3
-1.066, 6.287e-3
-1.067, 6.333e-3
-1.068, 6.379e-3
-1.069, 6.428e-3
-1.070, 6.475e-3
-1.071, 6.521e-3
-1.072, 6.564e-3
-1.073, 6.607e-3
-1.074, 6.647e-3
-1.075, 6.687e-3
-1.076, 6.728e-3
-1.077, 6.764e-3
-1.078, 6.798e-3
-1.079, 6.835e-3
-1.080, 6.872e-3
-1.081, 6.912e-3
-1.082, 6.953e-3
-1.083, 6.993e-3
-1.084, 7.033e-3
-1.085, 7.076e-3
-1.086, 7.122e-3
-1.087, 7.162e-3
-1.088, 7.202e-3
-1.089, 7.242e-3
-1.090, 7.279e-3
-1.091, 7.313e-3
-1.092, 7.347e-3
-1.093, 7.381e-3
-1.094, 7.412e-3
-1.095, 7.449e-3
-1.096, 7.483e-3
-1.097, 7.517e-3
-1.098, 7.554e-3
-1.099, 7.591e-3
-1.100, 7.634e-3
-1.101, 7.671e-3
-1.102, 7.708e-3
-1.103, 7.748e-3
-1.104, 7.782e-3
-1.105, 7.816e-3
-1.106, 7.850e-3
-1.107, 7.881e-3
-1.108, 7.911e-3
-1.109, 7.942e-3
-1.110, 7.973e-3
-1.111, 8.004e-3
-1.112, 8.038e-3
-1.113, 8.069e-3
-1.114, 8.106e-3
-1.115, 8.136e-3
-1.116, 8.173e-3
-1.117, 8.207e-3
-1.118, 8.244e-3
-1.119, 8.278e-3
-1.120, 8.309e-3
-1.121, 8.337e-3
-1.122, 8.368e-3
-1.123, 8.399e-3
-1.124, 8.423e-3
-1.125, 8.457e-3
-1.126, 8.488e-3
-1.127, 8.522e-3
-1.128, 8.556e-3
-1.129, 8.593e-3
-1.130, 8.627e-3
-1.131, 8.664e-3
-1.132, 8.698e-3
-1.133, 8.732e-3
-1.134, 8.765e-3
-1.135, 8.796e-3
-1.136, 8.824e-3
-1.137, 8.852e-3
-1.138, 8.880e-3
-1.139, 8.907e-3
-1.140, 8.935e-3
-1.141, 8.963e-3
-1.142, 8.994e-3
-1.143, 9.021e-3
-1.144, 9.052e-3
-1.145, 9.086e-3
-1.146, 9.117e-3
-1.147, 9.151e-3
-1.148, 9.182e-3
-1.149, 9.216e-3
-1.150, 9.246e-3
-1.151, 9.274e-3
-1.152, 9.305e-3
-1.153, 9.333e-3
-1.154, 9.360e-3
-1.155, 9.388e-3
-1.156, 9.419e-3
-1.157, 9.447e-3
-1.158, 9.478e-3
-1.159, 9.512e-3
-1.160, 9.545e-3
-1.161, 9.576e-3
-1.162, 9.610e-3
-1.163, 9.641e-3
-1.164, 9.672e-3
-1.165, 9.700e-3
-1.166, 9.727e-3
-1.167, 9.755e-3
-1.168, 9.783e-3
-1.169, 9.811e-3
-1.170, 9.835e-3
-1.171, 9.863e-3
-1.172, 9.891e-3
-1.173, 9.919e-3
-1.174, 9.949e-3
-1.175, 9.980e-3
-1.176, 1.001e-2
-1.177, 1.004e-2
-1.178, 1.008e-2
-1.179, 1.011e-2
-1.180, 1.013e-2
-1.181, 1.016e-2
-1.182, 1.019e-2
-1.183, 1.021e-2
-1.184, 1.024e-2
-1.185, 1.027e-2
-1.186, 1.029e-2
-1.187, 1.032e-2
-1.188, 1.036e-2
-1.189, 1.038e-2
-1.190, 1.042e-2
-1.191, 1.045e-2
-1.192, 1.048e-2
-1.193, 1.052e-2
-1.194, 1.055e-2
-1.195, 1.058e-2
-1.196, 1.061e-2
-1.197, 1.064e-2
-1.198, 1.067e-2
-1.199, 1.070e-2
-1.200, 1.073e-2
-1.201, 1.076e-2
-1.202, 1.079e-2
-1.203, 1.082e-2
-1.204, 1.085e-2
-1.205, 1.087e-2
-1.206, 1.091e-2
-1.207, 1.094e-2
-1.208, 1.096e-2
-1.209, 1.099e-2
-1.210, 1.102e-2
-1.211, 1.105e-2
-1.212, 1.107e-2
-1.213, 1.110e-2
-1.214, 1.112e-2
-1.215, 1.115e-2
-1.216, 1.119e-2
-1.217, 1.122e-2
-1.218, 1.125e-2
-1.219, 1.128e-2
-1.220, 1.132e-2
-1.221, 1.136e-2
-1.222, 1.139e-2
-1.223, 1.143e-2
-1.224, 1.146e-2
-1.225, 1.150e-2
-1.226, 1.153e-2
-1.227, 1.156e-2
-1.228, 1.160e-2
-1.229, 1.163e-2
-1.230, 1.167e-2
-1.231, 1.170e-2
-1.232, 1.173e-2
-1.233, 1.177e-2
-1.234, 1.181e-2
-1.235, 1.184e-2
-1.236, 1.188e-2
-1.237, 1.192e-2
-1.238, 1.195e-2
-1.239, 1.199e-2
-1.240, 1.202e-2
-1.241, 1.206e-2
-1.242, 1.209e-2
-1.243, 1.212e-2
-1.244, 1.215e-2
-1.245, 1.219e-2
-1.246, 1.223e-2
-1.247, 1.227e-2
-1.248, 1.231e-2
-1.249, 1.235e-2
-1.250, 1.239e-2
-1.251, 1.244e-2
-1.252, 1.248e-2
-1.253, 1.253e-2
-1.254, 1.257e-2
-1.255, 1.261e-2
-1.256, 1.265e-2
-1.257, 1.270e-2
-1.258, 1.274e-2
-1.259, 1.277e-2
-1.260, 1.281e-2
-1.261, 1.285e-2
-1.262, 1.289e-2
-1.263, 1.294e-2
-1.264, 1.298e-2
-1.265, 1.303e-2
-1.266, 1.307e-2
-1.267, 1.312e-2
-1.268, 1.316e-2
-1.269, 1.321e-2
-1.270, 1.325e-2
-1.271, 1.329e-2
-1.272, 1.333e-2
-1.273, 1.337e-2
-1.274, 1.341e-2
-1.275, 1.346e-2
-1.276, 1.351e-2
-1.277, 1.355e-2
-1.278, 1.360e-2
-1.279, 1.366e-2
-1.280, 1.371e-2
-1.281, 1.376e-2
-1.282, 1.382e-2
-1.283, 1.387e-2
-1.284, 1.392e-2
-1.285, 1.397e-2
-1.286, 1.402e-2
-1.287, 1.407e-2
-1.288, 1.411e-2
-1.289, 1.415e-2
-1.290, 1.419e-2
-1.291, 1.424e-2
-1.292, 1.428e-2
-1.293, 1.433e-2
-1.294, 1.437e-2
-1.295, 1.442e-2
-1.296, 1.447e-2
-1.297, 1.452e-2
-1.298, 1.457e-2
-1.299, 1.462e-2
-1.300, 1.467e-2
-1.301, 1.472e-2
-1.302, 1.476e-2
-1.303, 1.481e-2
-1.304, 1.486e-2
-1.305, 1.491e-2
-1.306, 1.497e-2
-1.307, 1.503e-2
-1.308, 1.509e-2
-1.309, 1.514e-2
-1.310, 1.520e-2
-1.311, 1.526e-2
-1.312, 1.532e-2
-1.313, 1.538e-2
-1.314, 1.544e-2
-1.315, 1.550e-2
-1.316, 1.555e-2
-1.317, 1.560e-2
-1.318, 1.565e-2
-1.319, 1.571e-2
-1.320, 1.576e-2
-1.321, 1.581e-2
-1.322, 1.587e-2
-1.323, 1.593e-2
-1.324, 1.599e-2
-1.325, 1.605e-2
-1.326, 1.612e-2
-1.327, 1.618e-2
-1.328, 1.624e-2
-1.329, 1.630e-2
-1.330, 1.636e-2
-1.331, 1.641e-2
-1.332, 1.647e-2
-1.333, 1.652e-2
-1.334, 1.658e-2
-1.335, 1.663e-2
-1.336, 1.669e-2
-1.337, 1.674e-2
-1.338, 1.680e-2
-1.339, 1.686e-2
-1.340, 1.692e-2
-1.341, 1.698e-2
-1.342, 1.704e-2
-1.343, 1.710e-2
-1.344, 1.716e-2
-1.345, 1.722e-2
-1.346, 1.728e-2
-1.347, 1.734e-2
-1.348, 1.740e-2
-1.349, 1.745e-2
-1.350, 1.752e-2
-1.351, 1.757e-2
-1.352, 1.764e-2
-1.353, 1.770e-2
-1.354, 1.777e-2
-1.355, 1.784e-2
-1.356, 1.791e-2
-1.357, 1.798e-2
-1.358, 1.805e-2
-1.359, 1.812e-2
-1.360, 1.818e-2
-1.361, 1.825e-2
-1.362, 1.831e-2
-1.363, 1.838e-2
-1.364, 1.844e-2
-1.365, 1.850e-2
-1.366, 1.856e-2
-1.367, 1.863e-2
-1.368, 1.869e-2
-1.369, 1.876e-2
-1.370, 1.883e-2
-1.371, 1.889e-2
-1.372, 1.896e-2
-1.373, 1.903e-2
-1.374, 1.909e-2
-1.375, 1.916e-2
-1.376, 1.923e-2
-1.377, 1.929e-2
-1.378, 1.936e-2
-1.379, 1.943e-2
-1.380, 1.950e-2
-1.381, 1.956e-2
-1.382, 1.964e-2
-1.383, 1.971e-2
-1.384, 1.979e-2
-1.385, 1.986e-2
-1.386, 1.994e-2
-1.387, 2.002e-2
-1.388, 2.010e-2
-1.389, 2.017e-2
-1.390, 2.024e-2
-1.391, 2.032e-2
-1.392, 2.039e-2
-1.393, 2.046e-2
-1.394, 2.053e-2
-1.395, 2.060e-2
-1.396, 2.067e-2
-1.397, 2.075e-2
-1.398, 2.082e-2
-1.399, 2.090e-2
-1.400, 2.085e-2
-1.399, 2.058e-2
-1.398, 2.033e-2
-1.397, 2.009e-2
-1.396, 1.986e-2
-1.395, 1.963e-2
-1.394, 1.941e-2
-1.393, 1.918e-2
-1.392, 1.897e-2
-1.391, 1.875e-2
-1.390, 1.854e-2
-1.389, 1.834e-2
-1.388, 1.814e-2
-1.387, 1.794e-2
-1.386, 1.775e-2
-1.385, 1.757e-2
-1.384, 1.739e-2
-1.383, 1.721e-2
-1.382, 1.704e-2
-1.381, 1.686e-2
-1.380, 1.668e-2
-1.379, 1.651e-2
-1.378, 1.633e-2
-1.377, 1.616e-2
-1.376, 1.598e-2
-1.375, 1.580e-2
-1.374, 1.563e-2
-1.373, 1.546e-2
-1.372, 1.529e-2
-1.371, 1.512e-2
-1.370, 1.496e-2
-1.369, 1.480e-2
-1.368, 1.464e-2
-1.367, 1.448e-2
-1.366, 1.432e-2
-1.365, 1.416e-2
-1.364, 1.399e-2
-1.363, 1.383e-2
-1.362, 1.368e-2
-1.361, 1.352e-2
-1.360, 1.337e-2
-1.359, 1.321e-2
-1.358, 1.305e-2
-1.357, 1.290e-2
-1.356, 1.275e-2
-1.355, 1.260e-2
-1.354, 1.245e-2
-1.353, 1.231e-2
-1.352, 1.216e-2
-1.351, 1.202e-2
-1.350, 1.187e-2
-1.349, 1.173e-2
-1.348, 1.158e-2
-1.347, 1.144e-2
-1.346, 1.129e-2
-1.345, 1.115e-2
-1.344, 1.100e-2
-1.343, 1.086e-2
-1.342, 1.072e-2
-1.341, 1.059e-2
-1.340, 1.045e-2
-1.339, 1.032e-2
-1.338, 1.018e-2
-1.337, 1.005e-2
-1.336, 9.915e-3
-1.335, 9.780e-3
-1.334, 9.641e-3
-1.333, 9.505e-3
-1.332, 9.373e-3
-1.331, 9.237e-3
-1.330, 9.105e-3
-1.329, 8.975e-3
-1.328, 8.849e-3
-1.327, 8.716e-3
-1.326, 8.593e-3
-1.325, 8.473e-3
-1.324, 8.349e-3
-1.323, 8.229e-3
-1.322, 8.106e-3
-1.321, 7.982e-3
-1.320, 7.859e-3
-1.319, 7.733e-3
-1.318, 7.612e-3
-1.317, 7.486e-3
-1.316, 7.363e-3
-1.315, 7.242e-3
-1.314, 7.119e-3
-1.313, 6.999e-3
-1.312, 6.885e-3
-1.311, 6.768e-3
-1.310, 6.654e-3
-1.309, 6.543e-3
-1.308, 6.425e-3
-1.307, 6.314e-3
-1.306, 6.200e-3
-1.305, 6.083e-3
-1.304, 5.966e-3
-1.303, 5.852e-3
-1.302, 5.738e-3
-1.301, 5.618e-3
-1.300, 5.507e-3
-1.299, 5.393e-3
-1.298, 5.282e-3
-1.297, 5.174e-3
-1.296, 5.069e-3
-1.295, 4.961e-3
-1.294, 4.856e-3
-1.293, 4.751e-3
-1.292, 4.646e-3
-1.291, 4.545e-3
-1.290, 4.437e-3
-1.289, 4.332e-3
-1.288, 4.227e-3
-1.287, 4.122e-3
-1.286, 4.014e-3
-1.285, 3.913e-3
-1.284, 3.808e-3
-1.283, 3.706e-3
-1.282, 3.607e-3
-1.281, 3.512e-3
-1.280, 3.416e-3
-1.279, 3.324e-3
-1.278, 3.231e-3
-1.277, 3.139e-3
-1.276, 3.046e-3
-1.275, 2.948e-3
-1.274, 2.855e-3
-1.273, 2.760e-3
-1.272, 2.667e-3
-1.271, 2.571e-3
-1.270, 2.476e-3
-1.269, 2.377e-3
-1.268, 2.282e-3
-1.267, 2.189e-3
-1.266, 2.100e-3
-1.265, 2.010e-3
-1.264, 1.924e-3
-1.263, 1.838e-3
-1.262, 1.751e-3
-1.261, 1.665e-3
-1.260, 1.576e-3
-1.259, 1.486e-3
-1.258, 1.400e-3
-1.257, 1.310e-3
-1.256, 1.227e-3
-1.255, 1.138e-3
-1.254, 1.055e-3
-1.253, 9.683e-4
-1.252, 8.850e-4
-1.251, 8.018e-4
-1.250, 7.216e-4
-1.249, 6.414e-4
-1.248, 5.644e-4
-1.247, 4.842e-4
-1.246, 4.071e-4
-1.245, 3.270e-4
-1.244, 2.437e-4
-1.243, 1.636e-4
-1.242, 8.340e-5
-1.241, -2.927e-6
-1.240, -8.309e-5
-1.239, -1.663e-4
-1.238, -2.465e-4
-1.237, -3.267e-4
-1.236, -4.068e-4
-1.235, -4.839e-4
-1.234, -5.610e-4
-1.233, -6.380e-4
-1.232, -7.182e-4
-1.231, -7.984e-4
-1.230, -8.785e-4
-1.229, -9.649e-4
-1.228, -1.045e-3
-1.227, -1.125e-3
-1.226, -1.205e-3
-1.225, -1.282e-3
-1.224, -1.356e-3
-1.223, -1.430e-3
-1.222, -1.501e-3
-1.221, -1.572e-3
-1.220, -1.643e-3
-1.219, -1.711e-3
-1.218, -1.779e-3
-1.217, -1.850e-3
-1.216, -1.914e-3
-1.215, -1.985e-3
-1.214, -2.059e-3
-1.213, -2.130e-3
-1.212, -2.201e-3
-1.211, -2.272e-3
-1.210, -2.343e-3
-1.209, -2.411e-3
-1.208, -2.479e-3
-1.207, -2.543e-3
-1.206, -2.605e-3
-1.205, -2.670e-3
-1.204, -2.731e-3
-1.203, -2.790e-3
-1.202, -2.855e-3
-1.201, -2.920e-3
-1.200, -2.984e-3
-1.199, -3.052e-3
-1.198, -3.123e-3
-1.197, -3.188e-3
-1.196, -3.259e-3
-1.195, -3.323e-3
-1.194, -3.388e-3
-1.193, -3.453e-3
-1.192, -3.515e-3
-1.191, -3.576e-3
-1.190, -3.635e-3
-1.189, -3.696e-3
-1.188, -3.755e-3
-1.187, -3.814e-3
-1.186, -3.875e-3
-1.185, -3.940e-3
-1.184, -4.005e-3
-1.183, -4.070e-3
-1.182, -4.134e-3
-1.181, -4.199e-3
-1.180, -4.261e-3
-1.179, -4.325e-3
-1.178, -4.390e-3
-1.177, -4.449e-3
-1.176, -4.507e-3
-1.175, -4.563e-3
-1.174, -4.618e-3
-1.173, -4.674e-3
-1.172, -4.736e-3
-1.171, -4.791e-3
-1.170, -4.850e-3
-1.169, -4.911e-3
-1.168, -4.967e-3
-1.167, -5.028e-3
-1.166, -5.087e-3
-1.165, -5.146e-3
-1.164, -5.204e-3
-1.163, -5.263e-3
-1.162, -5.318e-3
-1.161, -5.374e-3
-1.160, -5.429e-3
-1.159, -5.485e-3
-1.158, -5.540e-3
-1.157, -5.596e-3
-1.156, -5.651e-3
-1.155, -5.710e-3
-1.154, -5.768e-3
-1.153, -5.830e-3
-1.152, -5.889e-3
-1.151, -5.950e-3
-1.150, -6.009e-3
-1.149, -6.064e-3
-1.148, -6.120e-3
-1.147, -6.178e-3
-1.146, -6.231e-3
-1.145, -6.283e-3
-1.144, -6.339e-3
-1.143, -6.388e-3
-1.142, -6.440e-3
-1.141, -6.490e-3
-1.140, -6.545e-3
-1.139, -6.601e-3
-1.138, -6.653e-3
-1.137, -6.709e-3
-1.136, -6.764e-3
-1.135, -6.817e-3
-1.134, -6.869e-3
-1.133, -6.915e-3
-1.132, -6.965e-3
-1.131, -7.014e-3
-1.130, -7.057e-3
-1.129, -7.103e-3
-1.128, -7.146e-3
-1.127, -7.196e-3
-1.126, -7.239e-3
-1.125, -7.288e-3
-1.124, -7.341e-3
-1.123, -7.387e-3
-1.122, -7.439e-3
-1.121, -7.492e-3
-1.120, -7.538e-3
-1.119, -7.587e-3
-1.118, -7.634e-3
-1.117, -7.680e-3
-1.116, -7.726e-3
-1.115, -7.766e-3
-1.114, -7.809e-3
-1.113, -7.853e-3
-1.112, -7.896e-3
-1.111, -7.936e-3
-1.110, -7.982e-3
-1.109, -8.028e-3
-1.108, -8.071e-3
-1.107, -8.118e-3
-1.106, -8.167e-3
-1.105, -8.210e-3
-1.104, -8.253e-3
-1.103, -8.296e-3
-1.102, -8.340e-3
-1.101, -8.380e-3
-1.100, -8.417e-3
-1.099, -8.457e-3
-1.098, -8.491e-3
-1.097, -8.531e-3
-1.096, -8.571e-3
-1.095, -8.611e-3
-1.094, -8.654e-3
-1.093, -8.694e-3
-1.092, -8.737e-3
-1.091, -8.781e-3
-1.090, -8.821e-3
-1.089, -8.861e-3
-1.088, -8.898e-3
-1.087, -8.935e-3
-1.086, -8.966e-3
-1.085, -8.999e-3
-1.084, -9.030e-3
-1.083, -9.061e-3
-1.082, -9.089e-3
-1.081, -9.120e-3
-1.080, -9.154e-3
-1.079, -9.188e-3
-1.078, -9.218e-3
-1.077, -9.249e-3
-1.076, -9.286e-3
-1.075, -9.317e-3
-1.074, -9.348e-3
-1.073, -9.376e-3
-1.072, -9.403e-3
-1.071, -9.425e-3
-1.070, -9.450e-3
-1.069, -9.474e-3
-1.068, -9.496e-3
-1.067, -9.520e-3
-1.066, -9.542e-3
-1.065, -9.567e-3
-1.064, -9.591e-3
-1.063, -9.616e-3
-1.062, -9.644e-3
-1.061, -9.668e-3
-1.060, -9.693e-3
-1.059, -9.715e-3
-1.058, -9.736e-3
-1.057, -9.758e-3
-1.056, -9.776e-3
-1.055, -9.792e-3
-1.054, -9.807e-3
-1.053, -9.823e-3
-1.052, -9.835e-3
-1.051, -9.847e-3
-1.050, -9.866e-3
-1.049, -9.881e-3
-1.048, -9.897e-3
-1.047, -9.912e-3
-1.046, -9.927e-3
-1.045, -9.940e-3
-1.044, -9.952e-3
-1.043, -9.961e-3
-1.042, -9.971e-3
-1.041, -9.977e-3
-1.040, -9.980e-3
-1.039, -9.986e-3
-1.038, -9.989e-3
-1.037, -9.992e-3
-1.036, -9.998e-3
-1.035, -1.000e-2
-1.034, -1.001e-2
-1.033, -1.001e-2
-1.032, -1.002e-2
-1.031, -1.003e-2
-1.030, -1.004e-2
-1.029, -1.004e-2
-1.028, -1.004e-2
-1.027, -1.004e-2
-1.026, -1.004e-2
-1.025, -1.004e-2
-1.024, -1.004e-2
-1.023, -1.004e-2
-1.022, -1.004e-2
-1.021, -1.004e-2
-1.020, -1.004e-2
-1.019, -1.004e-2
-1.018, -1.004e-2
-1.017, -1.004e-2
-1.016, -1.004e-2
-1.015, -1.004e-2
-1.014, -1.004e-2
-1.013, -1.004e-2
-1.012, -1.004e-2
-1.011, -1.003e-2
-1.010, -1.002e-2
-1.009, -1.001e-2
-1.008, -9.998e-3
-1.007, -9.989e-3
-1.006, -9.980e-3
-1.005, -9.974e-3
-1.004, -9.971e-3
-1.003, -9.964e-3
-1.002, -9.958e-3
-1.001, -9.958e-3
