Potential V vs RHE, Current mA cm-2
0.4132999999999999,-0.005542838872871214
0.4122999999999999,-0.007478163931086584
0.4112999999999999,-0.0081289311290245
0.4102999999999999,-0.00844299703759454
0.4092999999999999,-0.008717451029768357
0.4082999999999999,-0.008901363498750812
0.4072999999999999,-0.00904990818523664
0.4062999999999999,-0.009144693842327595
0.4052999999999999,-0.009284750261014236
0.4042999999999999,-0.0094318802362002
0.4032999999999999,-0.009530910027190751
0.4022999999999999,-0.00960871914868333
0.4012999999999999,-0.009693601826675231
0.4002999999999999,-0.009767166814268213
0.3992999999999999,-0.009880343718257415
0.3982999999999999,-0.009980788220547833
0.3972999999999999,-0.010014741291744594
0.3962999999999999,-0.010071329743739196
0.3952999999999999,-0.010115185794035012
0.3942999999999999,-0.01020997145112597
0.39329999999999987,-0.010283536438718951
0.39229999999999987,-0.0103302219116145
0.39129999999999987,-0.010374077961910316
0.39029999999999987,-0.010396713342708155
0.38929999999999987,-0.010497157844998571
0.38829999999999987,-0.010574966966491151
0.38729999999999987,-0.010566478698691957
0.38629999999999987,-0.010632970129785617
0.38529999999999986,-0.010678240891381297
0.38429999999999986,-0.01074897645637455
0.38329999999999986,-0.010795661929270096
0.38229999999999986,-0.010838103268266045
0.38129999999999986,-0.010877715184662266
0.38029999999999986,-0.01093147421405714
0.37929999999999986,-0.011017771603348906
0.37829999999999986,-0.011063042364944587
0.37729999999999986,-0.011092751302241754
0.37629999999999986,-0.011104068992640673
0.37529999999999986,-0.011132363218637975
0.37429999999999986,-0.011198854649731629
0.37329999999999985,-0.011273834348624478
0.37229999999999985,-0.011309202131121104
0.37129999999999985,-0.011313446265020698
0.37029999999999985,-0.01135305818141692
0.36929999999999985,-0.011419549612510575
0.36829999999999985,-0.011478967487104906
0.36729999999999985,-0.011498773445303019
0.36629999999999985,-0.011521408826100858
0.36529999999999985,-0.01154687362949843
0.36429999999999985,-0.011634585730090062
0.36329999999999985,-0.011669953512586689
0.36229999999999984,-0.011699662449883852
0.36129999999999984,-0.011719468408081964
0.36029999999999984,-0.011761909747077914
0.35929999999999984,-0.011859524826768601
0.35829999999999984,-0.011887819052765904
0.35729999999999984,-0.011900551454464687
0.35629999999999984,-0.011924601546562394
0.35529999999999984,-0.011941578082160776
0.35429999999999984,-0.012020801914953217
0.35329999999999984,-0.012054754986149977
0.35229999999999984,-0.012071731521748359
0.35129999999999983,-0.012092952191246332
0.35029999999999983,-0.012122661128543499
0.34929999999999983,-0.012187737848337292
0.34829999999999983,-0.012231593898633108
0.34729999999999983,-0.012281108794128383
0.34629999999999983,-0.012279694082828519
0.34529999999999983,-0.012316476576625008
0.34429999999999983,-0.01236174733822069
0.3432999999999998,-0.012414091656315695
0.3422999999999998,-0.012436727037113538
0.3412999999999998,-0.012450874150112189
0.3402999999999998,-0.01251029202470652
0.3392999999999998,-0.0125555627863022
0.3382999999999998,-0.012598004125298152
0.3372999999999998,-0.012613565949596667
0.3362999999999998,-0.012619224794796127
0.3352999999999998,-0.012647519020793429
0.3342999999999998,-0.012716839874486815
0.3332999999999998,-0.012749378234383713
0.3322999999999998,-0.012770598903881686
0.3312999999999998,-0.012767769481281955
0.3302999999999998,-0.012810210820277905
0.3292999999999998,-0.012869628694872239
0.3282999999999998,-0.012919143590367515
0.3272999999999998,-0.01292904656946657
0.3262999999999998,-0.012944608393765086
0.3252999999999999,-0.012982805598861443
0.3242999999999999,-0.013037979339556178
0.3232999999999999,-0.013081835389851994
0.3222999999999999,-0.01309456779155078
0.3212999999999999,-0.013118617883648485
0.3202999999999999,-0.013148326820945652
0.3192999999999999,-0.013219062385938904
0.3182999999999999,-0.013238868344137013
0.3172999999999999,-0.013254430168435529
0.3162999999999999,-0.01328555381703256
0.3152999999999999,-0.013301115641331076
0.3142999999999999,-0.013378924762823652
0.3132999999999999,-0.013402974854921357
0.3122999999999999,-0.013412877834020412
0.3112999999999999,-0.01343692792611812
0.3102999999999999,-0.013458148595616094
0.3092999999999999,-0.013530298871909211
0.3082999999999999,-0.013593960880403138
0.3072999999999999,-0.013591131457803407
0.3062999999999999,-0.013595375591703002
0.3052999999999999,-0.01361376683860125
0.3042999999999999,-0.01367318471319558
0.3032999999999999,-0.01373826143298937
0.3022999999999999,-0.013729773165190182
0.3012999999999999,-0.0137410908555891
0.3002999999999999,-0.013762311525087077
0.2992999999999999,-0.013831632378780464
0.2982999999999999,-0.013891050253374797
0.2972999999999999,-0.013874073717776415
0.2962999999999999,-0.01391227092287277
0.2952999999999999,-0.013934906303670613
0.2942999999999999,-0.014002812446064133
0.2932999999999999,-0.014031106672061432
0.2922999999999999,-0.014039594939860626
0.2912999999999999,-0.014042424362460355
0.2902999999999999,-0.014082036278856576
0.2892999999999999,-0.014134380596951582
0.2882999999999999,-0.014175407224647668
0.2872999999999999,-0.014203701450644968
0.2862999999999999,-0.014189554337646317
0.2852999999999999,-0.014217848563643616
0.2842999999999999,-0.01430273124163552
0.2832999999999999,-0.014331025467632824
0.2822999999999999,-0.014331025467632824
0.2812999999999999,-0.014345172580631472
0.2802999999999999,-0.014373466806628774
0.2792999999999999,-0.014444202371622025
0.2782999999999999,-0.014472496597619325
0.2772999999999999,-0.014472496597619325
0.2762999999999999,-0.014500790823616624
0.2752999999999999,-0.014514937936615275
0.2742999999999999,-0.014585673501608528
0.2732999999999999,-0.014642261953603129
0.2722999999999999,-0.014628114840604478
0.2712999999999999,-0.01465640906660178
0.2702999999999999,-0.014684703292599082
0.2692999999999999,-0.014727144631595034
0.26829999999999987,-0.014797880196588285
0.26729999999999987,-0.014769585970590984
0.26629999999999987,-0.014797880196588285
0.26529999999999987,-0.014826174422585584
0.26429999999999987,-0.014868615761581536
0.26329999999999987,-0.014939351326574786
0.26229999999999987,-0.014925204213576137
0.26129999999999987,-0.014939351326574786
0.26029999999999986,-0.014967645552572089
0.25929999999999986,-0.014995939778569388
0.25829999999999986,-0.015080822456561293
0.25729999999999986,-0.01509496956955994
0.25629999999999986,-0.015080822456561293
0.25529999999999986,-0.015109116682558592
0.25429999999999986,-0.015165705134553195
0.25329999999999986,-0.015222293586547794
0.25229999999999986,-0.015222293586547794
0.25129999999999986,-0.015250587812545097
0.25029999999999986,-0.015278882038542396
0.24929999999999986,-0.015335470490536997
0.24829999999999985,-0.015377911829532949
0.24729999999999985,-0.015392058942531598
0.24629999999999985,-0.015377911829532949
0.24529999999999985,-0.01543450028152755
0.24429999999999985,-0.015491088733522153
0.24329999999999985,-0.015505235846520802
0.24229999999999985,-0.015533530072518101
0.24129999999999985,-0.015533530072518101
0.24029999999999985,-0.015547677185516754
0.23929999999999985,-0.015618412750510005
0.23829999999999985,-0.015646706976507305
0.23729999999999984,-0.015660854089505957
0.23629999999999984,-0.015675001202504608
0.23529999999999984,-0.01568914831550326
0.23429999999999984,-0.01575988388049651
0.23329999999999984,-0.01578817810649381
0.23229999999999984,-0.01580232521949246
0.23129999999999984,-0.01580232521949246
0.23029999999999984,-0.01584476655848841
0.22929999999999984,-0.015901355010483013
0.22829999999999984,-0.015957943462477614
0.22729999999999984,-0.015943796349478963
0.22629999999999983,-0.015957943462477614
0.22529999999999983,-0.015986237688474913
0.22429999999999983,-0.016028679027470863
0.22329999999999983,-0.016099414592464115
0.22229999999999983,-0.01608526747946547
0.22129999999999983,-0.01608526747946547
0.22029999999999983,-0.01614185593146007
0.21929999999999983,-0.01619844438345467
0.21829999999999983,-0.01624088572245062
0.21729999999999983,-0.01625503283544927
0.21629999999999983,-0.01625503283544927
0.21529999999999982,-0.01629747417444522
0.21429999999999982,-0.016354062626439823
0.21329999999999982,-0.016410651078434424
0.21229999999999982,-0.016410651078434424
0.21129999999999982,-0.016424798191433075
0.21029999999999982,-0.016453092417430374
0.20929999999999982,-0.01650968086942498
0.20829999999999982,-0.016552122208420932
0.20729999999999982,-0.01658041643441823
0.20629999999999982,-0.01658041643441823
0.20529999999999982,-0.01662285777341418
0.20429999999999982,-0.016679446225408782
0.20329999999999981,-0.01673603467740338
0.2022999999999998,-0.016721887564404736
0.2012999999999998,-0.01673603467740338
0.20029999999999992,-0.016778476016399334
0.19929999999999992,-0.01683506446839394
0.19829999999999992,-0.016891652920388536
0.19729999999999992,-0.016891652920388536
0.19629999999999992,-0.01691994714638584
0.19529999999999992,-0.01693409425938449
0.19429999999999992,-0.01706141827637234
0.19329999999999992,-0.017132153841365592
0.19229999999999992,-0.017089712502369642
0.19129999999999991,-0.017103859615368294
0.1902999999999999,-0.017118006728366945
0.1892999999999999,-0.017202889406358845
0.1882999999999999,-0.017231183632356147
0.1872999999999999,-0.017259477858353446
0.1862999999999999,-0.017273624971352097
0.1852999999999999,-0.01728777208435075
0.1842999999999999,-0.017372654762342652
0.1832999999999999,-0.0174150961013386
0.1822999999999999,-0.0174150961013386
0.1812999999999999,-0.017457537440334552
0.1802999999999999,-0.01748583166633185
0.1792999999999999,-0.017542420118326456
0.1782999999999999,-0.017613155683319705
0.1772999999999999,-0.017627302796318356
0.1762999999999999,-0.017627302796318356
0.1752999999999999,-0.01766974413531431
0.1742999999999999,-0.01772633258730891
0.1732999999999999,-0.017782921039303512
0.1722999999999999,-0.017797068152302163
0.1712999999999999,-0.017797068152302163
0.1702999999999999,-0.017839509491298113
0.1692999999999999,-0.017910245056291362
0.1682999999999999,-0.017980980621284618
0.1672999999999999,-0.018009274847281917
0.1662999999999999,-0.018009274847281917
0.1652999999999999,-0.018065863299276518
0.1642999999999999,-0.018108304638272472
0.1632999999999999,-0.01816489309026707
0.1622999999999999,-0.018193187316264375
0.1612999999999999,-0.01820733442926302
0.1602999999999999,-0.018235628655260322
0.1592999999999999,-0.018320511333252226
0.15829999999999989,-0.018334658446250877
0.15729999999999988,-0.018362952672248176
0.15629999999999988,-0.018405394011244126
0.15529999999999988,-0.018419541124242777
0.15429999999999988,-0.01851857091523333
0.15329999999999988,-0.01856101225422928
0.15229999999999988,-0.018575159367227933
0.15129999999999988,-0.018617600706223883
0.15029999999999988,-0.018631747819222534
0.14929999999999988,-0.018688336271217135
0.14829999999999988,-0.018773218949209036
0.14729999999999988,-0.018773218949209036
0.14629999999999987,-0.018801513175206338
0.14529999999999987,-0.018843954514202284
0.14429999999999987,-0.01891469007919554
0.14329999999999987,-0.018999572757187444
0.14229999999999987,-0.019027866983184743
0.14129999999999987,-0.019042014096183394
0.14029999999999987,-0.019084455435179344
0.13929999999999987,-0.019141043887173945
0.13829999999999987,-0.019197632339168547
0.13729999999999987,-0.019240073678164497
0.13629999999999987,-0.019254220791163148
0.13529999999999986,-0.0192966621301591
0.13429999999999986,-0.019367397695152354
0.13329999999999986,-0.019423986147146955
0.13229999999999986,-0.019452280373144254
0.13129999999999986,-0.019466427486142905
0.13029999999999986,-0.019523015938137503
0.12929999999999986,-0.01959375150313076
0.12829999999999986,-0.01965033995512536
0.12729999999999986,-0.019664487068124008
0.12629999999999986,-0.01969278129412131
0.12529999999999986,-0.019749369746115915
0.12429999999999986,-0.019848399537106463
0.12329999999999985,-0.019876693763103765
0.12229999999999985,-0.019904987989101064
0.12129999999999985,-0.019947429328097017
0.12029999999999985,-0.019989870667092968
0.11929999999999985,-0.02007475334508487
0.11829999999999985,-0.02011719468408082
0.11729999999999985,-0.020145488910078124
0.11629999999999985,-0.02020207736207272
0.11529999999999985,-0.020230371588070024
0.11429999999999985,-0.020315254266061927
0.11329999999999985,-0.02038598983105518
0.11229999999999984,-0.020400136944053827
0.11129999999999984,-0.020442578283049778
0.11029999999999984,-0.02048501962204573
0.10929999999999984,-0.020569902300037635
0.10829999999999984,-0.020654784978029535
0.10729999999999984,-0.020654784978029535
0.10629999999999984,-0.02071137343002414
0.10529999999999984,-0.02075381476902009
0.10429999999999984,-0.02085284456001064
0.10329999999999984,-0.020937727238002544
0.10229999999999984,-0.020966021463999843
0.10129999999999983,-0.020994315689997142
0.10029999999999983,-0.021036757028993096
0.09929999999999983,-0.021107492593986348
0.09829999999999983,-0.02119237527197825
0.09729999999999983,-0.0212065223849769
0.09629999999999983,-0.02124896372397285
0.09529999999999983,-0.021305552175967454
0.09429999999999983,-0.021376287740960703
0.09329999999999983,-0.021447023305953956
0.09229999999999983,-0.021489464644949906
0.09129999999999983,-0.021517758870947205
0.09029999999999982,-0.02157434732294181
0.08929999999999982,-0.02167337711393236
0.08829999999999982,-0.021744112678925617
0.08729999999999982,-0.021786554017921567
0.08629999999999982,-0.021800701130920214
0.08529999999999982,-0.021871436695913467
0.08429999999999982,-0.021956319373905367
0.08329999999999982,-0.022012907825899968
0.08229999999999982,-0.02205534916489592
0.08129999999999982,-0.022111937616890523
0.08029999999999982,-0.022140231842887825
0.07929999999999982,-0.022253408746877028
0.07829999999999981,-0.02232414431187028
0.07729999999999981,-0.02238073276386488
0.07629999999999981,-0.02240902698986218
0.07529999999999992,-0.02245146832885813
0.07429999999999992,-0.022564645232847336
0.07329999999999992,-0.022621233684841938
0.07229999999999992,-0.022663675023837888
0.07129999999999992,-0.02272026347583249
0.07029999999999992,-0.02276270481482844
0.06929999999999992,-0.022861734605818994
0.06829999999999992,-0.022932470170812246
0.06729999999999992,-0.022960764396809545
0.06629999999999991,-0.023031499961802798
0.06529999999999991,-0.0230880884137974
0.06429999999999991,-0.023172971091789302
0.06329999999999991,-0.023257853769781203
0.06229999999999991,-0.023286147995778505
0.06129999999999991,-0.023328589334774455
0.06029999999999991,-0.023399324899767704
0.05929999999999991,-0.023484207577759608
0.05829999999999991,-0.02356909025575151
0.05729999999999991,-0.02359738448174881
0.056299999999999906,-0.023639825820744764
0.055299999999999905,-0.023724708498736664
0.054299999999999904,-0.023795444063729916
0.0532999999999999,-0.02389447385472047
0.0522999999999999,-0.02395106230671507
0.0512999999999999,-0.023993503645711022
0.0502999999999999,-0.024064239210704275
0.0492999999999999,-0.024163269001694826
0.0482999999999999,-0.024219857453689427
0.0472999999999999,-0.02429059301868268
0.0462999999999999,-0.02433303435767863
0.045299999999999896,-0.02438962280967323
0.044299999999999895,-0.024516946826661085
0.043299999999999894,-0.024587682391654337
0.04229999999999989,-0.024644270843648942
0.04129999999999989,-0.02468671218264489
0.04029999999999989,-0.02479988908663409
0.03929999999999989,-0.024913065990623297
0.03829999999999989,-0.024983801555616546
0.03729999999999989,-0.025012095781613848
0.03629999999999989,-0.0250828313466071
0.03529999999999989,-0.025139419798601705
0.034299999999999886,-0.025266743815589552
0.033299999999999885,-0.025365773606580107
0.032299999999999884,-0.02539406783257741
0.031299999999999883,-0.02546480339757066
0.030299999999999883,-0.02553553896256391
0.02929999999999988,-0.025634568753554465
0.02829999999999988,-0.02576189277054232
0.02729999999999988,-0.02580433410953827
0.02629999999999988,-0.02587506967453152
0.025299999999999878,-0.025931658126526123
0.024299999999999877,-0.026058982143513973
0.023299999999999876,-0.026172159047503182
0.022299999999999875,-0.02621460038649913
0.021299999999999875,-0.02629948306449103
0.020299999999999874,-0.026370218629484285
0.019299999999999873,-0.026483395533473487
0.018299999999999872,-0.02659657243746269
0.01729999999999987,-0.02665316088945729
0.01629999999999987,-0.026723896454450544
0.01529999999999987,-0.02682292624544109
0.014299999999999868,-0.02692195603643165
0.013299999999999867,-0.02703513294042085
0.012299999999999978,-0.02709172139241545
0.011299999999999866,-0.027148309844410055
0.010299999999999976,-0.027247339635400606
0.009299999999999864,-0.027374663652388463
0.008299999999999974,-0.027487840556377662
0.007299999999999862,-0.027544429008372267
0.006299999999999972,-0.027601017460366868
0.00529999999999986,-0.02770004725135742
0.0042999999999999705,-0.027841518381343924
0.0032999999999998586,-0.027940548172334476
0.0022999999999999687,-0.02802543085032638
0.0012999999999998568,-0.02811031352831828
0.00029999999999996696,-0.028181049093311532
-0.000700000000000145,-0.028336667336296688
-0.0017000000000000348,-0.028435697127287232
-0.0027000000000001467,-0.02852057980527914
-0.0037000000000000366,-0.02861960959626969
-0.0047000000000001485,-0.028704492274261594
-0.005700000000000038,-0.028831816291249444
-0.00670000000000015,-0.0289591403082373
-0.00770000000000004,-0.02902987587323055
-0.008700000000000152,-0.029114758551222454
-0.009700000000000042,-0.029199641229214358
-0.010700000000000154,-0.029369406585198165
-0.011700000000000044,-0.029510877715184666
-0.012700000000000156,-0.02953917194118197
-0.013700000000000045,-0.029624054619173872
-0.014700000000000157,-0.02973723152316307
-0.015700000000000047,-0.029850408427152274
-0.01670000000000016,-0.029991879557138775
-0.01770000000000005,-0.03007676223513068
-0.01870000000000016,-0.030161644913122586
-0.01970000000000005,-0.030274821817111785
-0.020700000000000163,-0.030387998721100987
-0.021700000000000053,-0.03051532273808884
-0.022700000000000164,-0.03058605830308209
-0.023700000000000054,-0.03065679386807535
-0.024700000000000166,-0.030784117885063196
-0.025700000000000056,-0.030911441902051046
-0.026700000000000168,-0.03103876591903891
-0.027700000000000058,-0.03110950148403216
-0.02870000000000017,-0.031166089936026757
-0.02970000000000006,-0.03126511972701731
-0.03070000000000017,-0.031420737970002464
-0.03170000000000006,-0.03151976776099302
-0.03270000000000017,-0.03163294466498222
-0.03370000000000006,-0.03168953311697682
-0.034700000000000175,-0.031788562907967374
-0.035700000000000065,-0.03193003403795388
-0.03670000000000018,-0.03204321094194308
-0.03770000000000007,-0.03212809361993498
-0.03870000000000018,-0.032184682071929586
-0.03970000000000007,-0.03229785897591879
-0.04070000000000018,-0.032453477218903945
-0.04170000000000007,-0.03256665412289315
-0.04270000000000018,-0.03265153680088505
-0.04370000000000007,-0.032722272365878304
-0.044700000000000184,-0.03282130215686885
-0.045700000000000074,-0.032976920399854
-0.046700000000000186,-0.033090097303843206
-0.047700000000000076,-0.033146685755837804
-0.04870000000000019,-0.033274009772825665
-0.04970000000000008,-0.03337303956381622
-0.05070000000000019,-0.03350036358080407
-0.05170000000000008,-0.03364183471079057
-0.05270000000000019,-0.033712570275783824
-0.05370000000000008,-0.03381160006677438
-0.05470000000000019,-0.033896482744766275
-0.05570000000000008,-0.03402380676175413
-0.056700000000000195,-0.03415113077874199
-0.057700000000000085,-0.03422186634373524
-0.058700000000000196,-0.03429260190872849
-0.059700000000000086,-0.03441992592571634
-0.0607000000000002,-0.034547249942704195
-0.06170000000000009,-0.03470286818568935
-0.0627000000000002,-0.03478775086368125
-0.06370000000000009,-0.0348301922026772
-0.0647000000000002,-0.034929221993667756
