Potential V vs RHE, Current mA cm-2
0.013299999999999867,0.7829012333453113
0.012299999999999978,-0.7437137303390498
0.011299999999999866,-2.226755585987568
0.010299999999999976,-3.6655169779503103
0.009299999999999864,-5.279702571096316
0.008299999999999974,-6.93774421453814
0.007299999999999862,-8.594371146680096
0.006299999999999972,-10.164700689530287
0.00529999999999986,-11.56102074249708
0.0042999999999999705,-12.56405105410139
0.0032999999999998586,-13.47936926511407
0.0022999999999999687,-14.175407224647667
0.0012999999999998568,-14.868615761581536
0.00029999999999996696,-15.618412750510005
-0.000700000000000145,-16.622857773414182
-0.0017000000000000348,-17.669744135314307
-0.0027000000000001467,-18.80151317520634
-0.0037000000000000366,-19.890840876102416
-0.0047000000000001485,-20.85284456001064
-0.005700000000000038,-21.461170418952605
-0.00670000000000015,-21.98461359990267
-0.00770000000000004,-22.295850085872978
-0.008700000000000152,-22.72026347583249
-0.009700000000000042,-23.15882397879065
-0.010700000000000154,-23.86617962872317
-0.011700000000000044,-24.64427084364894
-0.012700000000000156,-25.478950510569312
-0.013700000000000045,-26.21460038649913
-0.014700000000000157,-26.822926245441096
-0.015700000000000047,-27.176604070407354
-0.01670000000000016,-27.303928087395207
-0.01770000000000005,-27.303928087395207
-0.01870000000000016,-27.34636942639116
-0.01970000000000005,-27.530281895373616
-0.020700000000000163,-27.912253946337174
-0.021700000000000053,-28.478138466283188
-0.022700000000000164,-29.18549411621571
-0.023700000000000054,-29.751378636161718
-0.024700000000000166,-30.232380478115836
-0.025700000000000056,-30.487028512091538
-0.026700000000000168,-30.571911190083444
-0.027700000000000058,-30.529469851087494
-0.02870000000000017,-30.571911190083444
-0.02970000000000006,-30.670940981073993
-0.03070000000000017,-31.010471693041605
-0.03170000000000006,-31.449032195999767
-0.03270000000000017,-32.01491671594578
-0.03370000000000006,-32.45347721890394
-0.034700000000000175,-32.892037721862096
-0.035700000000000065,-32.97692039985401
-0.03670000000000018,-32.93447906085806
-0.03770000000000007,-32.70812525287965
-0.03870000000000018,-32.62324257488775
-0.03970000000000007,-32.53835989689585
-0.04070000000000018,-32.807155043870196
-0.04170000000000007,-33.18912709483376
-0.04270000000000018,-33.670128936787876
-0.04370000000000007,-34.02380676175414
-0.044700000000000184,-34.377484586720385
-0.045700000000000074,-34.377484586720385
-0.046700000000000186,-34.236013456733886
-0.047700000000000076,-34.06624810075008
-0.04870000000000019,-33.93892408376223
-0.04970000000000008,-33.85404140577033
-0.05070000000000019,-34.06624810075008
-0.05170000000000008,-34.462367264712285
-0.05270000000000019,-34.85848642867451
-0.05370000000000008,-35.198017140642115
-0.05470000000000019,-35.55169496560837
-0.05570000000000008,-35.55169496560837
-0.056700000000000195,-35.38192960962457
-0.057700000000000085,-35.15557580164616
-0.058700000000000196,-34.98581044566235
-0.059700000000000086,-34.8018979766799
-0.0607000000000002,-35.02825178465831
-0.06170000000000009,-35.32534115762997
-0.0627000000000002,-35.679018982596226
-0.06370000000000009,-35.99025546856653
-0.0647000000000002,-36.244903502542236
-0.06570000000000009,-36.16002082455034
-0.0667000000000002,-36.03269680756248
-0.0677000000000001,-35.763901660588125
-0.0687000000000002,-35.594136304604326
-0.0697000000000001,-35.42437094862052
-0.07070000000000021,-35.594136304604326
-0.0717000000000001,-35.848784338580025
-0.07270000000000021,-36.244903502542236
-0.0737000000000001,-36.55613998851254
-0.07470000000000021,-36.8532293614842
-0.0757000000000001,-36.768346683492304
-0.07670000000000021,-36.64102266650445
-0.0777000000000001,-36.329786180534136
-0.07870000000000021,-36.11757948555439
-0.0797000000000001,-35.99025546856653
-0.08070000000000022,-36.16002082455034
-0.0817000000000001,-36.4288159715247
-0.08270000000000022,-36.768346683492304
-0.08370000000000011,-37.037141830466666
-0.08470000000000022,-37.249348525446415
-0.08570000000000011,-37.164465847454515
-0.08670000000000022,-36.99470049147071
-0.08770000000000011,-36.6834640055004
-0.08870000000000022,-36.4288159715247
-0.08970000000000011,-36.244903502542236
-0.09070000000000022,-36.37222751953009
-0.09170000000000011,-36.64102266650445
-0.09270000000000023,-37.037141830466666
-0.09370000000000012,-37.334231203438314
-0.09470000000000023,-37.51814367242077
-0.09570000000000012,-37.41911388143023
-0.09670000000000023,-37.249348525446415
-0.09770000000000012,-36.89567070048016
-0.09870000000000023,-36.6834640055004
-0.09970000000000012,-36.55613998851254
-0.10070000000000023,-36.725905344496354
-0.10170000000000012,-36.89567070048016
-0.10270000000000024,-37.334231203438314
-0.10370000000000013,-37.56058501141672
-0.10470000000000024,-37.77279170639648
-0.10570000000000013,-37.73035036740053
-0.10670000000000024,-37.56058501141672
-0.10770000000000013,-37.206907186450465
-0.10870000000000024,-37.037141830466666
-0.10970000000000013,-36.89567070048016
-0.11070000000000024,-36.99470049147071
-0.11170000000000013,-37.291789864442364
-0.11270000000000002,-37.687909028404576
-0.11370000000000013,-37.94255706238028
-0.11470000000000002,-38.12646953136274
-0.11570000000000014,-38.08402819236679
-0.11670000000000003,-37.81523304539243
-0.11770000000000014,-37.51814367242077
-0.11870000000000003,-37.249348525446415
-0.11970000000000014,-37.122024508458566
-0.12070000000000003,-37.206907186450465
-0.12170000000000014,-37.47570233342482
-0.12270000000000003,-37.81523304539243
-0.12370000000000014,-38.08402819236679
-0.12470000000000003,-38.29623488734655
-0.12570000000000014,-38.29623488734655
-0.12670000000000003,-38.04158685337084
-0.12770000000000015,-37.73035036740053
-0.12870000000000004,-37.56058501141672
-0.12970000000000015,-37.376672542434264
-0.13070000000000004,-37.60302635041268
-0.13170000000000015,-37.90011572338433
-0.13270000000000004,-38.253793548350586
-0.13370000000000015,-38.5650300343209
-0.13470000000000004,-38.81967806829661
-0.13570000000000015,-38.734795390304704
-0.13670000000000004,-38.46600024333035
-0.13770000000000016,-38.211352209354644
-0.13870000000000005,-38.04158685337084
-0.13970000000000016,-37.81523304539243
-0.14070000000000005,-38.04158685337084
-0.14170000000000016,-38.33867622634249
-0.14270000000000005,-38.734795390304704
-0.14370000000000016,-39.046031876275016
-0.14470000000000005,-39.21579723225882
-0.14570000000000016,-39.130914554266916
-0.14670000000000005,-38.81967806829661
-0.14770000000000016,-38.46600024333035
-0.14870000000000005,-38.16891087035869
-0.14970000000000017,-37.94255706238028
-0.15070000000000006,-38.04158685337084
-0.15170000000000017,-38.253793548350586
-0.15270000000000006,-38.46600024333035
-0.15370000000000017,-38.777236729300654
-0.15470000000000006,-38.94700208528445
-0.15570000000000017,-38.90456074628851
-0.15670000000000006,-38.777236729300654
-0.15770000000000017,-38.607471373316855
-0.15870000000000006,-38.42355890433439
-0.15970000000000018,-38.42355890433439
-0.16070000000000007,-38.6499127123128
-0.16170000000000018,-38.94700208528445
-0.16270000000000007,-39.38556258824262
-0.16370000000000018,-39.739240413208876
-0.16470000000000007,-40.03632978618054
-0.16570000000000018,-39.95144710818864
-0.16670000000000007,-39.82412309120078
-0.16770000000000018,-39.51288660523048
-0.16870000000000007,-39.258238571254765
-0.16970000000000018,-39.130914554266916
-0.17070000000000007,-39.21579723225882
-0.17170000000000019,-39.42800392723857
-0.17270000000000008,-39.82412309120078
-0.1737000000000002,-40.092918238175145
-0.17470000000000008,-40.26268359415894
-0.1757000000000002,-40.220242255162994
-0.17670000000000008,-39.95144710818864
-0.1777000000000002,-39.61191639622103
-0.17870000000000008,-39.38556258824262
-0.1797000000000002,-39.30067991025072
-0.18070000000000008,-39.47044526623452
-0.1817000000000002,-39.78168175220483
-0.18270000000000008,-40.177800916167044
-0.1837000000000002,-40.43244895014274
-0.1847000000000001,-40.616361419125205
-0.1857000000000002,-40.559772967130606
-0.1867000000000001,-40.34756627215084
-0.1877000000000002,-40.092918238175145
-0.1887000000000001,-39.95144710818864
-0.1897000000000002,-39.86656443019674
-0.1907000000000001,-40.03632978618054
-0.1917000000000001,-40.34756627215084
-0.19269999999999998,-40.828568114104954
-0.1937000000000001,-41.182245939071215
-0.19469999999999998,-41.52177665103883
-0.1957000000000001,-41.56421799003478
-0.19669999999999999,-41.43689397304693
-0.1977000000000001,-41.139804600075266
-0.1987,-40.99833347008877
-0.1997000000000001,-40.828568114104954
-0.2007,-40.95589213109281
-0.2017000000000001,-41.22468727806717
-0.2027,-41.52177665103883
-0.2037000000000001,-41.70568912002128
-0.2047,-41.87545447600508
-0.2057000000000001,-41.74813045901723
-0.2067,-41.43689397304693
-0.2077000000000001,-41.139804600075266
-0.2087,-40.95589213109281
-0.2097000000000001,-40.78612677510901
-0.2107,-40.91345079209687
-0.2117000000000001,-41.22468727806717
-0.2127,-41.56421799003478
-0.2137000000000001,-41.91789581500104
-0.2147,-42.186690961975394
-0.2157000000000001,-42.2715736399673
-0.2167,-42.130102509980794
-0.21770000000000012,-42.00277849299294
-0.2187,-41.91789581500104
-0.21970000000000012,-41.87545447600508
-0.2207,-42.186690961975394
-0.22170000000000012,-42.6111043519349
-0.2227,-43.04966485489307
-0.22370000000000012,-43.44578401885527
-0.2247,-43.70043205283099
-0.22570000000000012,-43.657990713835034
-0.2267,-43.48822535785123
-0.22770000000000012,-43.134547532884966
-0.22870000000000001,-42.92234083790521
-0.22970000000000013,-42.752575481921404
-0.23070000000000002,-42.92234083790521
-0.23170000000000013,-43.134547532884966
-0.23270000000000002,-43.53066669684718
-0.23370000000000013,-43.88434452181344
-0.23470000000000002,-44.096551216793195
-0.23570000000000013,-44.011668538801295
-0.23670000000000002,-43.88434452181344
-0.2376999999999999,-43.57310803584313
-0.23870000000000002,-43.44578401885527
-0.2396999999999999,-43.36090134086337
-0.24070000000000003,-43.61554937483908
-0.24169999999999991,-43.96922719980534
-0.24270000000000003,-44.4077877027635
-0.24369999999999992,-44.80390686672572
-0.24470000000000003,-45.05855490070142
-0.24569999999999992,-45.10099623969737
-0.24670000000000003,-44.97367222270952
-0.24769999999999992,-44.74731841473111
-0.24870000000000003,-44.619994397743255
-0.24969999999999992,-44.535111719751356
-0.25070000000000003,-44.704877075735155
-0.2516999999999999,-45.01611356170547
-0.25270000000000004,-45.412232725667685
-0.2536999999999999,-45.666880759643384
-0.25470000000000004,-45.85079322862584
-0.2556999999999999,-45.85079322862584
-0.25670000000000004,-45.666880759643384
-0.25769999999999993,-45.412232725667685
-0.25870000000000004,-45.36979138667173
-0.25969999999999993,-45.36979138667173
-0.26070000000000004,-45.666880759643384
-0.26169999999999993,-46.147882601597495
-0.26270000000000004,-46.67132578254756
-0.26369999999999993,-47.10988628550572
-0.26470000000000005,-47.506005449467935
-0.26569999999999994,-47.54844678846388
-0.26670000000000005,-47.46356411047198
-0.26769999999999994,-47.15232762450167
-0.26870000000000005,-47.02500360751382
-0.26969999999999994,-46.94012092952192
-0.27070000000000005,-47.067444946509774
-0.27169999999999994,-47.40697565847737
-0.27270000000000005,-47.84553616143554
-0.27369999999999994,-48.1992139864018
-0.27470000000000006,-48.51045047237211
-0.27569999999999995,-48.59533315036401
-0.27670000000000006,-48.55289181136806
-0.27769999999999995,-48.36897934238561
-0.27870000000000006,-48.36897934238561
-0.27969999999999995,-48.36897934238561
-0.28070000000000006,-48.59533315036401
-0.28169999999999995,-48.97730520132757
-0.28270000000000006,-49.458307043281685
-0.28369999999999995,-49.85442620724389
-0.28470000000000006,-50.20810403221015
-0.28569999999999995,-50.335428049198
-0.28670000000000007,-50.20810403221015
-0.28769999999999996,-49.98175022423175
-0.28870000000000007,-49.89686754623985
-0.28969999999999996,-49.85442620724389
-0.29070000000000007,-50.1656626932142
-0.29169999999999996,-50.64666453516831
-0.29270000000000007,-51.21254905511432
-0.29369999999999996,-51.65110955807249
-0.2947000000000001,-52.075522948032
-0.29569999999999996,-52.075522948032
-0.2967000000000001,-52.075522948032
-0.29769999999999996,-51.948198931044146
-0.2987000000000001,-51.990640270040096
-0.29969999999999997,-52.033081609036046
-0.3007000000000001,-52.42920077299826
-0.30169999999999997,-52.91020261495237
-0.3027000000000001,-53.433645795902436
-0.30369999999999997,-53.872206298860604
-0.3047000000000001,-54.31076680181876
-0.30569999999999997,-54.43809081880661
-0.3067000000000001,-54.43809081880661
-0.3077,-54.35320814081471
-0.3087000000000001,-54.35320814081471
-0.3097,-54.480532157802564
-0.3107000000000001,-54.834209982768826
-0.3117,-55.357653163718886
-0.3127000000000001,-56.008420361656796
-0.3137,-56.57430488160282
-0.3147000000000001,-57.14018940154883
-0.3157,-57.408984548523186
-0.3167000000000001,-57.53630856551105
-0.3177,-57.45142588751914
-0.3187000000000001,-57.493867226515086
-0.3197,-57.57874990450699
-0.3207000000000001,-57.974869068469204
-0.3217,-58.498312249419264
-0.3227000000000001,-59.23396212534908
-0.3237,-59.842287984291055
-0.3247000000000001,-60.36573116524111
-0.3257,-60.63452631221547
-0.3267000000000001,-60.761850329203334
-0.3277,-60.761850329203334
-0.3287000000000001,-60.889174346191176
-0.3297,-61.15796949316553
-0.3307000000000001,-61.6814126741156
-0.3317,-62.24729719406162
-0.3327000000000001,-62.98294706999144
-0.3337,-63.633714267929356
-0.3347000000000001,-64.19959878787537
-0.3357,-64.46839393484973
-0.3367000000000001,-64.55327661284163
-0.3377,-64.46839393484973
-0.3387000000000001,-64.55327661284163
-0.3397,-64.68060062982947
-0.3407000000000001,-65.11916113278764
-0.3417,-65.7274869917296
-0.3427000000000001,-66.56216665864997
-0.3437,-67.21293385658788
-0.3447000000000001,-67.82125971552985
-0.3457,-68.25982021848802
-0.3467000000000001,-68.48617402646643
-0.3477,-68.65593938245023
-0.3487000000000001,-69.0096172074165
-0.3497,-69.4906190493706
-0.3507000000000001,-70.14138624730852
-0.3517,-70.96191880123024
-0.3527000000000001,-71.8814811461425
-0.3537,-72.63127813507097
-0.3547000000000001,-73.32448667200485
-0.3557,-73.76304717496302
-0.35670000000000013,-74.0176952089387
-0.3577,-74.14501922592657
-0.35870000000000013,-74.49869705089283
-0.3597,-74.8523748758591
-0.36070000000000013,-75.46070073480107
-0.3617,-76.29538040172143
-0.3626999999999999,-77.1583542946391
-0.3637,-77.86570994457162
-0.3646999999999999,-78.60135982050144
-0.3657,-78.99747898446365
-0.3666999999999999,-79.20968567944341
-0.3677,-79.37945103542721
-0.3686999999999999,-79.73312886039348
-0.36970000000000003,-80.12924802435568
-0.3706999999999999,-80.86489790028548
-0.37170000000000003,-81.78446024519776
-0.3726999999999999,-82.746463929106
-0.37370000000000003,-83.56699648302772
-0.3746999999999999,-84.35923481095215
-0.37570000000000003,-84.8826779919022
-0.3766999999999999,-85.36367983385631
-0.37770000000000004,-85.70321054582392
-0.3786999999999999,-86.22665372677399
-0.37970000000000004,-86.75009690772404
-0.3806999999999999,-87.62721791364037
-0.38170000000000004,-88.63166293654454
-0.38269999999999993,-89.67854929844468
-0.38370000000000004,-90.55567030436099
-0.38469999999999993,-91.33376151928677
-0.38570000000000004,-91.81476336124088
-0.38669999999999993,-92.2108825252031
-0.38770000000000004,-92.50797189817473
-0.38869999999999993,-92.90409106213696
-0.38970000000000005,-93.38509290409107
-0.39069999999999994,-94.17733123201549
-0.39170000000000005,-95.12518780292505
-0.39269999999999994,-96.21451550382113
-0.39370000000000005,-97.17651918772938
-0.39469999999999994,-98.09608153264163
-0.39570000000000005,-98.7044073915836
-0.39669999999999994,-99.18540923353773
-0.39770000000000005,-99.53908705850398
-0.39869999999999994,-100.06253023945405
-0.39970000000000006,-100.670856098396
-0.40069999999999995,-101.59041844330828
-0.40170000000000006,-102.67974614420436
-0.40269999999999995,-103.89639786208829
-0.40370000000000006,-105.07060824097626
-0.40469999999999995,-106.11749460287639
-0.40570000000000006,-106.99461560879273
-0.40669999999999995,-107.78685393671715
-0.40770000000000006,-108.39517979565912
-0.40869999999999995,-109.00350565460108
-0.40970000000000006,-109.69671419153494
-0.41069999999999995,-110.57383519745127
-0.41170000000000007,-111.66316289834735
-0.41269999999999996,-112.83737327723534
-0.41370000000000007,-113.92670097813141
-0.41469999999999996,-114.88870466203963
-0.41570000000000007,-115.68094298996405
-0.41669999999999996,-116.24682750991008
-0.41770000000000007,-116.67124089986959
-0.41869999999999996,-117.29371387181018
-0.4197000000000001,-117.90203973075215
-0.42069999999999996,-118.86404341466037
-0.4217000000000001,-119.86848843756455
-0.42269999999999996,-121.0851401554485
-0.4237000000000001,-122.17446785634456
-0.42469999999999997,-123.2213542182447
-0.4257000000000001,-124.05603388516508
-0.42669999999999997,-124.83412510009084
-0.4277000000000001,-125.44245095903281
-0.42869999999999997,-126.27713062595316
-0.4297000000000001,-127.09766317987489
-0.43069999999999997,-128.2294322197669
-0.4317000000000001,-129.58755506763737
-0.4327,-131.03056059349967
-0.4337000000000001,-132.2896536503796
-0.4347,-133.60533515925405
-0.4357000000000001,-134.69466286015015
-0.4367,-135.5576367530678
-0.4377000000000001,-136.34987508099226
-0.4387,-137.2694374259045
-0.4397000000000001,-138.17485265781812
-0.4407,-139.3207688107088
-0.4417000000000001,-140.62230320658463
-0.4427,-142.03701450644968
-0.4437000000000001,-143.16878354634173
-0.4447,-144.44202371622026
-0.4457000000000001,-145.29085049613926
-0.4467,-145.9982061460718
-0.4477000000000001,-146.5640906660178
-0.4487,-147.27144631595033
-0.4497000000000001,-147.97880196588284
-0.4507,-148.96909987578834
-0.4517000000000001,-150.24234004566688
-0.4527,-151.37410908555893
-0.4537000000000001,-152.50587812545095
-0.4547,-153.63764716534297
-0.4557000000000001,-154.486473945262
-0.4567,-155.47677185516753
-0.4577000000000001,-156.46706976507306
-0.4587,-157.59883880496508
-0.4597000000000001,-158.87207897484362
-0.4607,-160.42826140469515
-0.4617000000000001,-161.9844438345467
-0.4627,-163.68209739438475
-0.4637000000000001,-165.09680869424977
-0.4647,-166.51151999411482
-0.4657000000000001,-167.6432890340068
-0.4667,-168.35064468393938
-0.4677000000000001,-169.0580003338719
-0.4687,-169.6238848538179
-0.4697000000000001,-170.33124050375042
-0.4707,-171.18006728366944
-0.4717000000000001,-172.17036519357498
-0.4727,-173.302134233467
-0.4737000000000001,-174.2924321433725
-0.4747,-175.28273005327804
-0.4757000000000001,-176.27302796318358
-0.4767,-177.1218547431026
-0.4777000000000001,-178.1121526530081
-0.4787,-179.10245056291362
-0.4797000000000001,-180.37569073279218
-0.4807,-181.93187316264374
-0.48170000000000013,-183.48805559249527
-0.4827,-185.1857091523333
-0.48370000000000013,-186.74189158218485
-0.4847,-188.29807401203638
-0.48570000000000013,-189.42984305192843
-0.4867,-189.1469007919554
-0.48570000000000013,-186.31747819222534
-0.4847,-183.91246898245475
-0.48370000000000013,-181.64893090267074
-0.4827,-179.80980621284618
-0.48170000000000013,-178.1121526530081
-0.4807,-176.55597022315658
-0.4797000000000001,-175.14125892329156
-0.4787,-173.44360536345349
-0.4777000000000001,-171.46300954364247
-0.4767,-169.48241372383137
-0.4757000000000001,-167.36034677403384
-0.4747,-165.3797509542228
-0.4737000000000001,-163.68209739438475
-0.4727,-162.2673860945197
-0.4717000000000001,-161.1356170546277
-0.4707,-160.14531914472215
-0.4697000000000001,-159.01355010483013
-0.4687,-157.7403099349516
-0.4677000000000001,-156.04265637511355
-0.4667,-154.3450028152755
-0.4657000000000001,-152.36440699546444
-0.4647,-150.66675343562642
-0.4637000000000001,-148.96909987578834
