Potential V vs RHE, Current mA cm-2
0.013299999999999867,-0.014967645552572089
0.012299999999999978,-0.0193249563561564
0.011299999999999866,-0.021871436695913467
0.010299999999999976,-0.024304740131681327
0.009299999999999864,-0.026172159047503182
0.008299999999999974,-0.027586870347368214
0.007299999999999862,-0.02922793545521166
0.006299999999999972,-0.030840706337057794
0.00529999999999986,-0.0329203319478594
0.0042999999999999705,-0.034278454795729836
0.0032999999999998586,-0.035282899818634014
0.0022999999999999687,-0.036485404423519295
0.0012999999999998568,-0.03822549932235329
0.00029999999999996696,-0.039824123091200786
-0.000700000000000145,-0.04087100945310092
-0.0017000000000000348,-0.040998333470088764
-0.0027000000000001467,-0.04190374870200239
-0.0037000000000000366,-0.043389195566860675
-0.0047000000000001485,-0.04474731841473111
-0.005700000000000038,-0.045115143352696015
-0.00670000000000015,-0.04549711540365958
-0.00770000000000004,-0.04667132578254756
-0.008700000000000152,-0.047166474737500325
-0.009700000000000042,-0.048609480263362655
-0.010700000000000154,-0.04903389365332217
-0.011700000000000044,-0.04913292344431273
-0.012700000000000156,-0.050208104032210155
-0.013700000000000045,-0.05088716545614537
-0.014700000000000157,-0.05145304997609138
-0.015700000000000047,-0.05179258068805899
-0.01670000000000016,-0.05227358253001311
-0.01770000000000005,-0.05237261232100365
-0.01870000000000016,-0.05347608713489838
-0.01970000000000005,-0.05405611876784306
-0.020700000000000163,-0.05442394370580796
-0.021700000000000053,-0.054438090818806614
-0.022700000000000164,-0.05472103307877962
-0.023700000000000054,-0.055640595423691895
-0.024700000000000166,-0.05643283375161631
-0.025700000000000056,-0.05637624529962171
-0.026700000000000168,-0.056560157768604166
-0.027700000000000058,-0.05678651157658257
-0.02870000000000017,-0.057479720113516444
-0.02970000000000006,-0.0578899863904773
-0.03070000000000017,-0.058554900701413864
-0.03170000000000006,-0.05820122287644761
-0.03270000000000017,-0.058144634424453
-0.03370000000000006,-0.05907834388236394
-0.034700000000000175,-0.0599130235492843
-0.035700000000000065,-0.059771552419297796
-0.03670000000000018,-0.05955934572431805
-0.03770000000000007,-0.05989887643628565
-0.03870000000000018,-0.060507202295227616
-0.03970000000000007,-0.061087233928172294
-0.04070000000000018,-0.06152579443113045
-0.04170000000000007,-0.061412617527141236
-0.04270000000000018,-0.06156823577012639
-0.04370000000000007,-0.06241706255004542
-0.044700000000000184,-0.06250194522803733
-0.045700000000000074,-0.06240291543704677
-0.046700000000000186,-0.06264341635802383
-0.047700000000000076,-0.06278488748801032
-0.04870000000000019,-0.06323759510396713
-0.04970000000000008,-0.06391665652790236
-0.05070000000000019,-0.06366200849392664
-0.05170000000000008,-0.06354883158993745
-0.05270000000000019,-0.06422789301387266
-0.05370000000000008,-0.06434106991786188
-0.05470000000000019,-0.06496354288980248
-0.05570000000000008,-0.06507671979379169
-0.056700000000000195,-0.06468060062982947
-0.057700000000000085,-0.06526063226277413
-0.058700000000000196,-0.06562845720073905
-0.059700000000000086,-0.06615190038168911
-0.0607000000000002,-0.06637825418966752
-0.06170000000000009,-0.06634995996367023
-0.0627000000000002,-0.06656216665864997
-0.06370000000000009,-0.06725537519558383
-0.0647000000000002,-0.0676656414725447
-0.06570000000000009,-0.06804761352350826
-0.0667000000000002,-0.06779296548953255
-0.0677000000000001,-0.06776467126353526
-0.0687000000000002,-0.06878326339943809
-0.0697000000000001,-0.06919352967639894
-0.07070000000000021,-0.06886814607742998
-0.0717000000000001,-0.06893888164242323
-0.07270000000000021,-0.06905205854641244
-0.0737000000000001,-0.07004235645631796
-0.07470000000000021,-0.07052335829827208
-0.0757000000000001,-0.07059409386326533
-0.07670000000000021,-0.07057994675026667
-0.0777000000000001,-0.07073556499325184
-0.07870000000000021,-0.07161268599916816
-0.0797000000000001,-0.07205124650212633
-0.08070000000000022,-0.07215027629311688
-0.0817000000000001,-0.07207954072812363
-0.08270000000000022,-0.07243321855308989
-0.08370000000000011,-0.07315472131602105
-0.08470000000000022,-0.07360742893197786
-0.08570000000000011,-0.07404598943493602
-0.08670000000000022,-0.07352254625398597
-0.08770000000000011,-0.07451284416389148
-0.08870000000000022,-0.07500799311884425
-0.08970000000000011,-0.07526264115281994
-0.09070000000000022,-0.0756163189777862
-0.09170000000000011,-0.07577193722077137
-0.09270000000000023,-0.07575779010777271
-0.09370000000000012,-0.07650758709670118
-0.09470000000000023,-0.0773281196506229
-0.09570000000000012,-0.07700273605165395
-0.09670000000000023,-0.07711591295564316
-0.09770000000000012,-0.07773838592758377
-0.09870000000000023,-0.07830427044752979
-0.09970000000000012,-0.07936530392242855
-0.10070000000000023,-0.07940774526142451
-0.10170000000000012,-0.0794360394874218
-0.10270000000000024,-0.08000192400736782
-0.10370000000000013,-0.0804121902843287
-0.10470000000000024,-0.08085075078728685
-0.10570000000000013,-0.08128931129024501
-0.10670000000000024,-0.08141663530723285
-0.10770000000000013,-0.08209569673116808
-0.10870000000000024,-0.08267572836411274
-0.10970000000000013,-0.08310014175407225
-0.11070000000000024,-0.08360943782202368
-0.11170000000000013,-0.08338308401404526
-0.11270000000000002,-0.08403385121198319
-0.11370000000000013,-0.0849958548958914
-0.11470000000000002,-0.0849109722178995
-0.11570000000000014,-0.08546270962484687
-0.11670000000000003,-0.08567491631982663
-0.11770000000000014,-0.08598615280579694
-0.11870000000000003,-0.08666521422973215
-0.11970000000000014,-0.08772624770463092
-0.12070000000000003,-0.08798089573860662
-0.12170000000000014,-0.08783942460862013
-0.12270000000000003,-0.08810821975559449
-0.12370000000000014,-0.08857507448454995
-0.12470000000000003,-0.08983416754142984
-0.12570000000000014,-0.09006052134940823
-0.12670000000000003,-0.09027272804438799
-0.12770000000000015,-0.09062640586935425
-0.12870000000000004,-0.09165914511825574
-0.12970000000000015,-0.09255041323717071
-0.13070000000000004,-0.09233820654219095
-0.13170000000000015,-0.09272017859315451
-0.13270000000000004,-0.09279091415814776
-0.13370000000000015,-0.09380950629405059
-0.13470000000000004,-0.0943753908139966
-0.13570000000000015,-0.09470077441296555
-0.13670000000000004,-0.09467248018696825
-0.13770000000000016,-0.09504030512493315
-0.13870000000000005,-0.09635598663380765
-0.13970000000000016,-0.09669551734577525
-0.14070000000000005,-0.09699260671874692
-0.14170000000000016,-0.09734628454371318
-0.14270000000000005,-0.09745946144770237
-0.14370000000000016,-0.09857708337459577
-0.14470000000000005,-0.09966641107549183
-0.14570000000000016,-0.09959567551049858
-0.14670000000000005,-0.09936932170252018
-0.14770000000000016,-0.0999917946744608
-0.14870000000000005,-0.10082647434138116
-0.14970000000000017,-0.10153382999131368
-0.15070000000000006,-0.10150553576531639
-0.15170000000000017,-0.10164700689530289
-0.15270000000000006,-0.10126503484433932
-0.15370000000000017,-0.10243924522322731
-0.15470000000000006,-0.10334466045514094
-0.15570000000000017,-0.10324563066415038
-0.15670000000000006,-0.10311830664716252
-0.15770000000000017,-0.10341539602013419
-0.15870000000000006,-0.10427836991305185
-0.15970000000000018,-0.10461790062501947
-0.16070000000000007,-0.10453301794702756
-0.16170000000000018,-0.10444813526903567
-0.16270000000000007,-0.1048866957719938
-0.16370000000000018,-0.10574966966491149
-0.16470000000000007,-0.10618823016786964
-0.16570000000000018,-0.10576381677791014
-0.16670000000000007,-0.105608198534925
-0.16770000000000018,-0.10584869945590204
-0.16870000000000007,-0.10659849644483052
-0.16970000000000018,-0.10733414632076034
-0.17070000000000007,-0.10693802715679812
-0.17170000000000019,-0.10649946665383996
-0.17270000000000008,-0.10662679067082782
-0.1737000000000002,-0.10709364539978329
-0.17470000000000008,-0.10797076640569962
-0.1757000000000002,-0.10761708858073335
-0.17670000000000008,-0.10699461560879273
-0.1777000000000002,-0.10724926364276843
-0.17870000000000008,-0.10758879435473605
-0.1797000000000002,-0.10798491351869824
-0.18070000000000008,-0.10832444423066585
-0.1817000000000002,-0.10777270682371849
-0.18270000000000008,-0.10758879435473605
-0.1837000000000002,-0.10804150197069286
-0.1847000000000001,-0.10852250381264696
-0.1857000000000002,-0.10821126732667666
-0.1867000000000001,-0.10825370866567262
-0.1877000000000002,-0.10802735485769419
-0.1887000000000001,-0.10828200289166989
-0.1897000000000002,-0.10894691720260646
-0.1907000000000001,-0.10866397494263345
-0.1917000000000001,-0.10863568071663617
-0.19269999999999998,-0.10852250381264696
-0.1937000000000001,-0.10906009410659567
-0.19469999999999998,-0.10918741812358353
-0.1957000000000001,-0.10921571234958084
-0.19669999999999999,-0.10907424121959435
-0.1977000000000001,-0.10911668255859029
-0.1987,-0.10947036038355652
-0.1997000000000001,-0.10971086130453359
-0.2007,-0.1101918631464877
-0.2017000000000001,-0.10938547770556464
-0.2027,-0.10955524306154844
-0.2037000000000001,-0.10983818532152145
-0.2047,-0.11043236406746475
-0.2057000000000001,-0.11050309963245801
-0.2067,-0.1101069804684958
-0.2077000000000001,-0.11050309963245801
-0.2087,-0.11058798231044992
-0.2097000000000001,-0.11142266197737029
-0.2107,-0.11092751302241752
-0.2117000000000001,-0.11055968808445263
-0.2127,-0.11068701210144047
-0.2137000000000001,-0.11194610515832035
-0.2147,-0.11286566750323263
-0.2157000000000001,-0.11208757628830686
-0.2167,-0.11232807720928391
-0.21770000000000012,-0.11187536959332708
-0.2187,-0.11297884440722182
-0.21970000000000012,-0.11354472892716785
-0.2207,-0.11347399336217459
-0.22170000000000012,-0.11324763955419619
-0.2227,-0.11334666934518675
-0.22370000000000012,-0.11429452591609632
-0.2247,-0.1142379374641017
-0.22570000000000012,-0.11476138064505177
-0.2267,-0.11403987788212061
-0.22770000000000012,-0.11425208457710037
-0.22870000000000001,-0.11522823537400724
-0.22970000000000013,-0.11544044206898699
-0.23070000000000002,-0.11538385361699238
-0.23170000000000013,-0.11573753144195865
-0.23270000000000002,-0.11539800072999104
-0.23370000000000013,-0.11616194483191816
-0.23470000000000002,-0.11705321295083315
-0.23570000000000013,-0.11691174182084664
-0.23670000000000002,-0.11671368223886554
-0.2376999999999999,-0.11654391688288172
-0.23870000000000002,-0.11800106952174272
-0.2396999999999999,-0.11866598383267928
-0.24070000000000003,-0.11832645312071166
-0.24169999999999991,-0.1181142464257319
-0.24270000000000003,-0.11828401178171571
-0.24369999999999992,-0.11945822216060371
-0.24470000000000003,-0.11976945864657401
-0.24569999999999992,-0.11981189998556994
-0.24670000000000003,-0.11986848843756456
-0.24769999999999992,-0.12016557781053622
-0.24870000000000003,-0.120943669025462
-0.24969999999999992,-0.12170761312738912
-0.25070000000000003,-0.12183493714437695
-0.2516999999999999,-0.12186323137037425
-0.25270000000000004,-0.12199055538736212
-0.2536999999999999,-0.12289597061927575
-0.25470000000000004,-0.1233062368962366
-0.2556999999999999,-0.12394285698117587
-0.25670000000000004,-0.12411262233715968
-0.25769999999999993,-0.12401359254616913
-0.25870000000000004,-0.12456532995311646
-0.25969999999999993,-0.12534342116804223
-0.26070000000000004,-0.12571124610600715
-0.26169999999999993,-0.12542830384603415
-0.26270000000000004,-0.12578198167100044
-0.26369999999999993,-0.1263620133039451
-0.26470000000000005,-0.1275503707958317
-0.26569999999999994,-0.12757866502182902
-0.26670000000000005,-0.1276635476998209
-0.26769999999999994,-0.1276352534738236
-0.26870000000000005,-0.1287245811747197
-0.26969999999999994,-0.12954511372864141
-0.27070000000000005,-0.1297148790846252
-0.27169999999999994,-0.12965829063263062
-0.27270000000000005,-0.12998367423159957
-0.27369999999999994,-0.1313135028534727
-0.27470000000000006,-0.131907681599416
-0.27569999999999995,-0.13210574118139712
-0.27670000000000006,-0.13219062385938904
-0.27769999999999995,-0.13264333147534585
-0.27870000000000006,-0.13404389566221223
-0.27969999999999995,-0.13487857532913258
-0.28070000000000006,-0.13465222152115416
-0.28169999999999995,-0.1346805157471515
-0.28270000000000006,-0.13547275407507592
-0.28369999999999995,-0.13637816930698954
-0.28470000000000006,-0.13680258269694906
-0.28569999999999995,-0.13725529031290584
-0.28670000000000007,-0.1373260258778991
-0.28769999999999996,-0.13728358453890316
-0.28870000000000007,-0.1384436478047925
-0.28969999999999996,-0.1393773572627034
-0.29070000000000007,-0.13980177065266292
-0.29169999999999996,-0.14065059743258196
-0.29270000000000007,-0.1407213329975752
-0.29369999999999996,-0.14161260111649018
-0.2947000000000001,-0.1426028990263957
-0.29569999999999996,-0.1434517258063147
-0.2967000000000001,-0.1433102546763282
-0.29769999999999996,-0.14415908145624726
-0.2987000000000001,-0.14500790823616627
-0.29969999999999997,-0.14628114840604478
-0.3007000000000001,-0.1467055617960043
-0.30169999999999997,-0.1467055617960043
-0.3027000000000001,-0.14769585970590982
-0.30369999999999997,-0.14840321535584233
-0.3047000000000001,-0.14939351326574787
-0.30569999999999997,-0.1506667534356264
-0.3067000000000001,-0.1503838111756534
-0.3077,-0.1510911668255859
-0.3087000000000001,-0.15222293586547794
-0.3097,-0.15335470490536995
-0.3107000000000001,-0.15349617603535648
-0.3117,-0.15363764716534298
-0.3127000000000001,-0.154203531685289
-0.3137,-0.15604265637511353
-0.3147000000000001,-0.15689148315503257
-0.3157,-0.15802325219492458
-0.3167000000000001,-0.15802325219492458
-0.3177,-0.1585891367148706
-0.3187000000000001,-0.15986237688474914
-0.3197,-0.16099414592464115
-0.3207000000000001,-0.1615600304445872
-0.3217,-0.1624088572245062
-0.3227000000000001,-0.1626917994844792
-0.3237,-0.16410651078434427
-0.3247000000000001,-0.1655212220842093
-0.3257,-0.16495533756426325
-0.3267000000000001,-0.1655212220842093
-0.3277,-0.16707740451406086
-0.3287000000000001,-0.16778476016399335
-0.3297,-0.16919947146385841
-0.3307000000000001,-0.1696238848538179
-0.3317,-0.17004829824377743
-0.3327000000000001,-0.17118006728366944
-0.3337,-0.172736249713521
-0.3347000000000001,-0.17358507649344
-0.3357,-0.17443390327335903
-0.3367000000000001,-0.17528273005327805
-0.3377,-0.17556567231325104
-0.3387000000000001,-0.1771218547431026
-0.3397,-0.17797068152302162
-0.3407000000000001,-0.17881950830294063
-0.3417,-0.17924392169290015
-0.3427000000000001,-0.17952686395287318
-0.3437,-0.18094157525273818
-0.3447000000000001,-0.18207334429263022
-0.3457,-0.18278069994256274
-0.3467000000000001,-0.18334658446250876
-0.3477,-0.18405394011244128
-0.3487000000000001,-0.1847612957623738
-0.3497,-0.18674189158218485
-0.3507000000000001,-0.18759071836210386
-0.3517,-0.18759071836210386
-0.3527000000000001,-0.18858101627200938
-0.3537,-0.19027866983184744
-0.3547000000000001,-0.19098602548177993
-0.3557,-0.19183485226169897
-0.35670000000000013,-0.19268367904161798
-0.3577,-0.193249563561564
-0.35870000000000013,-0.19423986147146954
-0.3597,-0.19551310164134805
-0.36070000000000013,-0.19692781294121312
-0.3617,-0.1976351685911456
-0.3626999999999999,-0.19820105311109162
-0.3637,-0.19919135102099716
-0.3646999999999999,-0.2010304757108217
-0.3657,-0.20187930249074074
-0.3666999999999999,-0.20230371588070023
-0.3677,-0.2035769560505788
-0.3686999999999999,-0.20485019622045733
-0.36970000000000003,-0.20598196526034934
-0.3706999999999999,-0.20697226317025488
-0.37170000000000003,-0.2075381476902009
-0.3726999999999999,-0.2089528589900659
-0.37370000000000003,-0.21362140627962053
-0.3746999999999999,-0.21503611757948557
-0.37570000000000003,-0.21489464644949907
-0.3766999999999999,-0.21390434853959353
-0.37770000000000004,-0.21418729079956658
-0.3786999999999999,-0.21461170418952608
-0.37970000000000004,-0.2167337711393236
-0.3806999999999999,-0.21701671339929662
-0.38170000000000004,-0.21970466486904017
-0.38269999999999993,-0.21942172260906717
-0.38370000000000004,-0.21970466486904017
-0.38469999999999993,-0.22154378955886472
-0.38570000000000004,-0.22239261633878374
-0.38669999999999993,-0.22225114520879727
-0.38770000000000004,-0.22338291424868928
-0.38869999999999993,-0.22465615441856782
-0.38970000000000005,-0.22621233684841938
-0.39069999999999994,-0.22649527910839237
-0.39170000000000005,-0.22748557701829786
-0.39269999999999994,-0.22946617283810894
-0.39370000000000005,-0.23144676865792
-0.39469999999999994,-0.2321541243078525
-0.39570000000000005,-0.232578537697812
-0.39669999999999994,-0.23356883560771755
-0.39770000000000005,-0.23441766238763656
-0.39869999999999994,-0.23554943142752863
-0.39970000000000006,-0.23668120046742064
-0.40069999999999995,-0.23795444063729917
-0.40170000000000006,-0.2382373828972722
-0.40269999999999995,-0.2392276808071777
-0.40370000000000006,-0.24035944984706975
-0.40469999999999995,-0.2423400456668808
-0.40570000000000006,-0.24361328583675934
-0.40669999999999995,-0.24502799713662435
-0.40770000000000006,-0.24559388165657034
-0.40869999999999995,-0.24630123730650288
-0.40970000000000006,-0.24842330425630044
-0.41069999999999995,-0.24983801555616547
-0.41170000000000007,-0.2518186113759765
-0.41269999999999996,-0.251960082505963
-0.41370000000000007,-0.2532333226758416
-0.41469999999999996,-0.2552139184956526
-0.41570000000000007,-0.25634568753554465
-0.41669999999999996,-0.25691157205549064
-0.41770000000000007,-0.25705304318547717
-0.41869999999999996,-0.2581848122253692
-0.4197000000000001,-0.26030687917516676
-0.42069999999999996,-0.2617215904750318
-0.4217000000000001,-0.26299483064491036
-0.42269999999999996,-0.2637021862948429
-0.4237000000000001,-0.2653998398546809
-0.42469999999999997,-0.26738043567449193
-0.4257000000000001,-0.26808779132442445
-0.42669999999999997,-0.26837073358439745
-0.4277000000000001,-0.2695025026242895
-0.42869999999999997,-0.27077574279416805
-0.4297000000000001,-0.2731807520039386
-0.43069999999999997,-0.2737466365238846
-0.4317000000000001,-0.27431252104383064
-0.4327,-0.27601017460366867
-0.4337000000000001,-0.2774248859035337
-0.4347,-0.27855665494342574
-0.4357000000000001,-0.2801128373732773
-0.4367,-0.2815275486731423
-0.4377000000000001,-0.28251784658304785
-0.4387,-0.2840740290128994
-0.4397000000000001,-0.28633756709268343
-0.4407,-0.28761080726256194
-0.4417000000000001,-0.28973287421235955
-0.4427,-0.29044022986229207
-0.4437000000000001,-0.2932696524620221
-0.4447,-0.2949673060218601
-0.4457000000000001,-0.2959576039317657
-0.4467,-0.29652348845171167
-0.4477000000000001,-0.29850408427152275
-0.4487,-0.3033141026910639
-0.4497000000000001,-0.3038799872110099
-0.4507,-0.3044458717309559
-0.4517000000000001,-0.30571911190083445
-0.4527,-0.30685088094072643
-0.4537000000000001,-0.30883147676053746
-0.4547,-0.31123648597030806
-0.4557000000000001,-0.31236825501020005
-0.4567,-0.3142073797000246
-0.4577000000000001,-0.31576356212987616
-0.4587,-0.3178856290796737
-0.4597000000000001,-0.32014916715945774
-0.4607,-0.3221297629792688
-0.4617000000000001,-0.3251006567089854
-0.4627,-0.32651536800885045
-0.4637000000000001,-0.328637434958648
-0.4647,-0.3316083286883646
-0.4657000000000001,-0.3350036358080407
-0.4667,-0.3362768759779193
-0.4677000000000001,-0.3379745295377573
-0.4687,-0.3419357211773794
-0.4697000000000001,-0.3456139705570285
-0.4707,-0.3461798550769745
-0.4717000000000001,-0.34830192202677207
-0.4727,-0.3495751621966506
-0.4737000000000001,-0.35268752705635364
-0.4747,-0.35495106513613767
-0.4757000000000001,-0.35693166095594875
-0.4767,-0.35933667016571935
-0.4777000000000001,-0.3616002082455034
-0.4787,-0.36414668858526045
-0.4797000000000001,-0.3675419957049365
-0.4807,-0.3698055337847206
-0.48170000000000013,-0.37221054299449113
-0.4827,-0.37390819655432916
-0.48370000000000013,-0.3770205614140323
-0.4847,-0.38084028192366787
-0.48570000000000013,-0.3838111756533844
-0.4867,-0.386216184863155
-0.4876999999999999,-0.3890456074628851
