Apr. 3, 2025   20:19:56
Cyclic Voltammetry
File: c:/users/guazh/data/banditlqround7_x0exp518_r20/2025-03-28-exp1033\exp1033-2025-04-03t20_09_00-h2koh\exp1033_cv_sr_500mvs_efin_-1500mv.bin
Data Source:  Experiment
Instrument Model:  CHI760E
Header: CV ran at 500 mVs
Note: 

Init E (V) = -1
High E (V) = -1
Low E (V) = -1.5
Final E (V) = -1
Init P/N = N
Scan Rate (V/s) = 0.5
Segment = 3
Sample Interval (V) = 0.001
Quiet Time (sec) = 2
Sensitivity (A/V) = 0.01
Comp R (ohm) = 1.9

Results:

Channel 1:
Segment 1:

Segment 2:

Segment 3:

Potential/V, Current/A

-1.000, -1.632e-4
-1.001, -3.068e-5
-1.002, 9.265e-5
-1.003, 2.067e-4
-1.004, 3.177e-4
-1.005, 4.225e-4
-1.006, 5.243e-4
-1.007, 6.229e-4
-1.008, 7.124e-4
-1.009, 7.987e-4
-1.010, 8.788e-4
-1.011, 9.559e-4
-1.012, 1.033e-3
-1.013, 1.107e-3
-1.014, 1.181e-3
-1.015, 1.252e-3
-1.016, 1.323e-3
-1.017, 1.388e-3
-1.018, 1.446e-3
-1.019, 1.505e-3
-1.020, 1.560e-3
-1.021, 1.616e-3
-1.022, 1.674e-3
-1.023, 1.730e-3
-1.024, 1.785e-3
-1.025, 1.841e-3
-1.026, 1.890e-3
-1.027, 1.939e-3
-1.028, 1.989e-3
-1.029, 2.041e-3
-1.030, 2.091e-3
-1.031, 2.140e-3
-1.032, 2.186e-3
-1.033, 2.226e-3
-1.034, 2.263e-3
-1.035, 2.300e-3
-1.036, 2.334e-3
-1.037, 2.365e-3
-1.038, 2.405e-3
-1.039, 2.439e-3
-1.040, 2.479e-3
-1.041, 2.516e-3
-1.042, 2.547e-3
-1.043, 2.578e-3
-1.044, 2.605e-3
-1.045, 2.639e-3
-1.046, 2.673e-3
-1.047, 2.704e-3
-1.048, 2.738e-3
-1.049, 2.769e-3
-1.050, 2.793e-3
-1.051, 2.818e-3
-1.052, 2.840e-3
-1.053, 2.858e-3
-1.054, 2.880e-3
-1.055, 2.904e-3
-1.056, 2.932e-3
-1.057, 2.957e-3
-1.058, 2.978e-3
-1.059, 3.000e-3
-1.060, 3.019e-3
-1.061, 3.040e-3
-1.062, 3.065e-3
-1.063, 3.089e-3
-1.064, 3.117e-3
-1.065, 3.145e-3
-1.066, 3.170e-3
-1.067, 3.191e-3
-1.068, 3.213e-3
-1.069, 3.225e-3
-1.070, 3.237e-3
-1.071, 3.250e-3
-1.072, 3.262e-3
-1.073, 3.274e-3
-1.074, 3.287e-3
-1.075, 3.296e-3
-1.076, 3.305e-3
-1.077, 3.314e-3
-1.078, 3.327e-3
-1.079, 3.342e-3
-1.080, 3.361e-3
-1.081, 3.382e-3
-1.082, 3.401e-3
-1.083, 3.419e-3
-1.084, 3.432e-3
-1.085, 3.435e-3
-1.086, 3.441e-3
-1.087, 3.444e-3
-1.088, 3.453e-3
-1.089, 3.466e-3
-1.090, 3.478e-3
-1.091, 3.490e-3
-1.092, 3.496e-3
-1.093, 3.496e-3
-1.094, 3.493e-3
-1.095, 3.493e-3
-1.096, 3.496e-3
-1.097, 3.509e-3
-1.098, 3.524e-3
-1.099, 3.540e-3
-1.100, 3.549e-3
-1.101, 3.549e-3
-1.102, 3.546e-3
-1.103, 3.543e-3
-1.104, 3.540e-3
-1.105, 3.540e-3
-1.106, 3.546e-3
-1.107, 3.552e-3
-1.108, 3.558e-3
-1.109, 3.555e-3
-1.110, 3.552e-3
-1.111, 3.546e-3
-1.112, 3.543e-3
-1.113, 3.543e-3
-1.114, 3.543e-3
-1.115, 3.546e-3
-1.116, 3.546e-3
-1.117, 3.546e-3
-1.118, 3.546e-3
-1.119, 3.546e-3
-1.120, 3.549e-3
-1.121, 3.555e-3
-1.122, 3.558e-3
-1.123, 3.558e-3
-1.124, 3.555e-3
-1.125, 3.546e-3
-1.126, 3.533e-3
-1.127, 3.521e-3
-1.128, 3.509e-3
-1.129, 3.503e-3
-1.130, 3.493e-3
-1.131, 3.493e-3
-1.132, 3.487e-3
-1.133, 3.481e-3
-1.134, 3.478e-3
-1.135, 3.469e-3
-1.136, 3.459e-3
-1.137, 3.453e-3
-1.138, 3.447e-3
-1.139, 3.444e-3
-1.140, 3.441e-3
-1.141, 3.438e-3
-1.142, 3.432e-3
-1.143, 3.425e-3
-1.144, 3.416e-3
-1.145, 3.407e-3
-1.146, 3.401e-3
-1.147, 3.395e-3
-1.148, 3.395e-3
-1.149, 3.392e-3
-1.150, 3.385e-3
-1.151, 3.379e-3
-1.152, 3.370e-3
-1.153, 3.364e-3
-1.154, 3.355e-3
-1.155, 3.355e-3
-1.156, 3.351e-3
-1.157, 3.348e-3
-1.158, 3.339e-3
-1.159, 3.330e-3
-1.160, 3.321e-3
-1.161, 3.308e-3
-1.162, 3.299e-3
-1.163, 3.293e-3
-1.164, 3.287e-3
-1.165, 3.284e-3
-1.166, 3.274e-3
-1.167, 3.265e-3
-1.168, 3.250e-3
-1.169, 3.237e-3
-1.170, 3.225e-3
-1.171, 3.216e-3
-1.172, 3.219e-3
-1.173, 3.222e-3
-1.174, 3.225e-3
-1.175, 3.222e-3
-1.176, 3.216e-3
-1.177, 3.204e-3
-1.178, 3.191e-3
-1.179, 3.179e-3
-1.180, 3.170e-3
-1.181, 3.163e-3
-1.182, 3.154e-3
-1.183, 3.148e-3
-1.184, 3.142e-3
-1.185, 3.136e-3
-1.186, 3.130e-3
-1.187, 3.126e-3
-1.188, 3.126e-3
-1.189, 3.126e-3
-1.190, 3.126e-3
-1.191, 3.120e-3
-1.192, 3.108e-3
-1.193, 3.096e-3
-1.194, 3.083e-3
-1.195, 3.071e-3
-1.196, 3.062e-3
-1.197, 3.056e-3
-1.198, 3.056e-3
-1.199, 3.056e-3
-1.200, 3.049e-3
-1.201, 3.043e-3
-1.202, 3.031e-3
-1.203, 3.025e-3
-1.204, 3.019e-3
-1.205, 3.015e-3
-1.206, 3.015e-3
-1.207, 3.015e-3
-1.208, 3.009e-3
-1.209, 3.006e-3
-1.210, 2.997e-3
-1.211, 2.988e-3
-1.212, 2.982e-3
-1.213, 2.978e-3
-1.214, 2.978e-3
-1.215, 2.978e-3
-1.216, 2.972e-3
-1.217, 2.969e-3
-1.218, 2.960e-3
-1.219, 2.951e-3
-1.220, 2.945e-3
-1.221, 2.938e-3
-1.222, 2.938e-3
-1.223, 2.941e-3
-1.224, 2.941e-3
-1.225, 2.941e-3
-1.226, 2.941e-3
-1.227, 2.938e-3
-1.228, 2.941e-3
-1.229, 2.945e-3
-1.230, 2.948e-3
-1.231, 2.948e-3
-1.232, 2.948e-3
-1.233, 2.948e-3
-1.234, 2.938e-3
-1.235, 2.932e-3
-1.236, 2.929e-3
-1.237, 2.923e-3
-1.238, 2.920e-3
-1.239, 2.920e-3
-1.240, 2.920e-3
-1.241, 2.920e-3
-1.242, 2.914e-3
-1.243, 2.908e-3
-1.244, 2.901e-3
-1.245, 2.898e-3
-1.246, 2.898e-3
-1.247, 2.898e-3
-1.248, 2.904e-3
-1.249, 2.908e-3
-1.250, 2.904e-3
-1.251, 2.904e-3
-1.252, 2.895e-3
-1.253, 2.892e-3
-1.254, 2.889e-3
-1.255, 2.889e-3
-1.256, 2.892e-3
-1.257, 2.892e-3
-1.258, 2.892e-3
-1.259, 2.889e-3
-1.260, 2.886e-3
-1.261, 2.883e-3
-1.262, 2.880e-3
-1.263, 2.880e-3
-1.264, 2.883e-3
-1.265, 2.886e-3
-1.266, 2.889e-3
-1.267, 2.886e-3
-1.268, 2.883e-3
-1.269, 2.880e-3
-1.270, 2.880e-3
-1.271, 2.880e-3
-1.272, 2.883e-3
-1.273, 2.886e-3
-1.274, 2.886e-3
-1.275, 2.883e-3
-1.276, 2.880e-3
-1.277, 2.871e-3
-1.278, 2.864e-3
-1.279, 2.861e-3
-1.280, 2.867e-3
-1.281, 2.871e-3
-1.282, 2.874e-3
-1.283, 2.877e-3
-1.284, 2.877e-3
-1.285, 2.867e-3
-1.286, 2.867e-3
-1.287, 2.864e-3
-1.288, 2.864e-3
-1.289, 2.864e-3
-1.290, 2.864e-3
-1.291, 2.861e-3
-1.292, 2.861e-3
-1.293, 2.855e-3
-1.294, 2.855e-3
-1.295, 2.852e-3
-1.296, 2.855e-3
-1.297, 2.858e-3
-1.298, 2.858e-3
-1.299, 2.858e-3
-1.300, 2.855e-3
-1.301, 2.852e-3
-1.302, 2.849e-3
-1.303, 2.849e-3
-1.304, 2.852e-3
-1.305, 2.858e-3
-1.306, 2.871e-3
-1.307, 2.877e-3
-1.308, 2.877e-3
-1.309, 2.874e-3
-1.310, 2.867e-3
-1.311, 2.861e-3
-1.312, 2.855e-3
-1.313, 2.852e-3
-1.314, 2.855e-3
-1.315, 2.858e-3
-1.316, 2.861e-3
-1.317, 2.858e-3
-1.318, 2.861e-3
-1.319, 2.855e-3
-1.320, 2.852e-3
-1.321, 2.852e-3
-1.322, 2.852e-3
-1.323, 2.849e-3
-1.324, 2.846e-3
-1.325, 2.840e-3
-1.326, 2.840e-3
-1.327, 2.837e-3
-1.328, 2.840e-3
-1.329, 2.849e-3
-1.330, 2.858e-3
-1.331, 2.871e-3
-1.332, 2.874e-3
-1.333, 2.877e-3
-1.334, 2.874e-3
-1.335, 2.874e-3
-1.336, 2.871e-3
-1.337, 2.871e-3
-1.338, 2.877e-3
-1.339, 2.883e-3
-1.340, 2.895e-3
-1.341, 2.901e-3
-1.342, 2.901e-3
-1.343, 2.895e-3
-1.344, 2.886e-3
-1.345, 2.880e-3
-1.346, 2.874e-3
-1.347, 2.871e-3
-1.348, 2.871e-3
-1.349, 2.877e-3
-1.350, 2.886e-3
-1.351, 2.895e-3
-1.352, 2.904e-3
-1.353, 2.911e-3
-1.354, 2.917e-3
-1.355, 2.923e-3
-1.356, 2.926e-3
-1.357, 2.929e-3
-1.358, 2.929e-3
-1.359, 2.932e-3
-1.360, 2.935e-3
-1.361, 2.948e-3
-1.362, 2.957e-3
-1.363, 2.969e-3
-1.364, 2.978e-3
-1.365, 2.985e-3
-1.366, 2.991e-3
-1.367, 2.991e-3
-1.368, 2.991e-3
-1.369, 2.994e-3
-1.370, 2.997e-3
-1.371, 3.000e-3
-1.372, 3.006e-3
-1.373, 3.015e-3
-1.374, 3.019e-3
-1.375, 3.015e-3
-1.376, 3.015e-3
-1.377, 3.015e-3
-1.378, 3.022e-3
-1.379, 3.031e-3
-1.380, 3.046e-3
-1.381, 3.062e-3
-1.382, 3.077e-3
-1.383, 3.086e-3
-1.384, 3.096e-3
-1.385, 3.102e-3
-1.386, 3.108e-3
-1.387, 3.111e-3
-1.388, 3.117e-3
-1.389, 3.130e-3
-1.390, 3.145e-3
-1.391, 3.160e-3
-1.392, 3.167e-3
-1.393, 3.173e-3
-1.394, 3.179e-3
-1.395, 3.182e-3
-1.396, 3.191e-3
-1.397, 3.197e-3
-1.398, 3.207e-3
-1.399, 3.216e-3
-1.400, 3.222e-3
-1.401, 3.234e-3
-1.402, 3.247e-3
-1.403, 3.262e-3
-1.404, 3.287e-3
-1.405, 3.308e-3
-1.406, 3.333e-3
-1.407, 3.355e-3
-1.408, 3.373e-3
-1.409, 3.388e-3
-1.410, 3.401e-3
-1.411, 3.410e-3
-1.412, 3.422e-3
-1.413, 3.432e-3
-1.414, 3.444e-3
-1.415, 3.456e-3
-1.416, 3.466e-3
-1.417, 3.475e-3
-1.418, 3.484e-3
-1.419, 3.496e-3
-1.420, 3.512e-3
-1.421, 3.533e-3
-1.422, 3.558e-3
-1.423, 3.583e-3
-1.424, 3.607e-3
-1.425, 3.629e-3
-1.426, 3.644e-3
-1.427, 3.663e-3
-1.428, 3.684e-3
-1.429, 3.706e-3
-1.430, 3.731e-3
-1.431, 3.755e-3
-1.432, 3.777e-3
-1.433, 3.799e-3
-1.434, 3.817e-3
-1.435, 3.832e-3
-1.436, 3.851e-3
-1.437, 3.869e-3
-1.438, 3.891e-3
-1.439, 3.919e-3
-1.440, 3.943e-3
-1.441, 3.968e-3
-1.442, 3.990e-3
-1.443, 4.014e-3
-1.444, 4.036e-3
-1.445, 4.061e-3
-1.446, 4.091e-3
-1.447, 4.122e-3
-1.448, 4.153e-3
-1.449, 4.184e-3
-1.450, 4.209e-3
-1.451, 4.230e-3
-1.452, 4.255e-3
-1.453, 4.280e-3
-1.454, 4.307e-3
-1.455, 4.335e-3
-1.456, 4.363e-3
-1.457, 4.394e-3
-1.458, 4.424e-3
-1.459, 4.452e-3
-1.460, 4.483e-3
-1.461, 4.520e-3
-1.462, 4.557e-3
-1.463, 4.594e-3
-1.464, 4.628e-3
-1.465, 4.659e-3
-1.466, 4.683e-3
-1.467, 4.702e-3
-1.468, 4.727e-3
-1.469, 4.754e-3
-1.470, 4.791e-3
-1.471, 4.838e-3
-1.472, 4.890e-3
-1.473, 4.939e-3
-1.474, 4.982e-3
-1.475, 5.016e-3
-1.476, 5.047e-3
-1.477, 5.069e-3
-1.478, 5.097e-3
-1.479, 5.121e-3
-1.480, 5.152e-3
-1.481, 5.189e-3
-1.482, 5.223e-3
-1.483, 5.260e-3
-1.484, 5.300e-3
-1.485, 5.337e-3
-1.486, 5.374e-3
-1.487, 5.411e-3
-1.488, 5.451e-3
-1.489, 5.491e-3
-1.490, 5.531e-3
-1.491, 5.568e-3
-1.492, 5.602e-3
-1.493, 5.633e-3
-1.494, 5.664e-3
-1.495, 5.695e-3
-1.496, 5.735e-3
-1.497, 5.775e-3
-1.498, 5.815e-3
-1.499, 5.858e-3
-1.500, 5.796e-3
-1.499, 5.568e-3
-1.498, 5.368e-3
-1.497, 5.189e-3
-1.496, 5.026e-3
-1.495, 4.878e-3
-1.494, 4.739e-3
-1.493, 4.606e-3
-1.492, 4.477e-3
-1.491, 4.354e-3
-1.490, 4.230e-3
-1.489, 4.119e-3
-1.488, 4.011e-3
-1.487, 3.913e-3
-1.486, 3.826e-3
-1.485, 3.743e-3
-1.484, 3.663e-3
-1.483, 3.580e-3
-1.482, 3.496e-3
-1.481, 3.416e-3
-1.480, 3.339e-3
-1.479, 3.262e-3
-1.478, 3.188e-3
-1.477, 3.120e-3
-1.476, 3.046e-3
-1.475, 2.978e-3
-1.474, 2.908e-3
-1.473, 2.837e-3
-1.472, 2.772e-3
-1.471, 2.710e-3
-1.470, 2.652e-3
-1.469, 2.599e-3
-1.468, 2.541e-3
-1.467, 2.482e-3
-1.466, 2.427e-3
-1.465, 2.365e-3
-1.464, 2.309e-3
-1.463, 2.254e-3
-1.462, 2.201e-3
-1.461, 2.152e-3
-1.460, 2.100e-3
-1.459, 2.047e-3
-1.458, 1.995e-3
-1.457, 1.939e-3
-1.456, 1.887e-3
-1.455, 1.835e-3
-1.454, 1.791e-3
-1.453, 1.748e-3
-1.452, 1.705e-3
-1.451, 1.662e-3
-1.450, 1.613e-3
-1.449, 1.560e-3
-1.448, 1.511e-3
-1.447, 1.458e-3
-1.446, 1.412e-3
-1.445, 1.369e-3
-1.444, 1.326e-3
-1.443, 1.286e-3
-1.442, 1.240e-3
-1.441, 1.199e-3
-1.440, 1.153e-3
-1.439, 1.110e-3
-1.438, 1.073e-3
-1.437, 1.036e-3
-1.436, 9.991e-4
-1.435, 9.652e-4
-1.434, 9.251e-4
-1.433, 8.850e-4
-1.432, 8.418e-4
-1.431, 8.018e-4
-1.430, 7.617e-4
-1.429, 7.278e-4
-1.428, 6.908e-4
-1.427, 6.599e-4
-1.426, 6.260e-4
-1.425, 5.890e-4
-1.424, 5.520e-4
-1.423, 5.150e-4
-1.422, 4.780e-4
-1.421, 4.503e-4
-1.420, 4.164e-4
-1.419, 3.886e-4
-1.418, 3.609e-4
-1.417, 3.270e-4
-1.416, 2.931e-4
-1.415, 2.591e-4
-1.414, 2.252e-4
-1.413, 1.944e-4
-1.412, 1.666e-4
-1.411, 1.420e-4
-1.410, 1.142e-4
-1.409, 8.340e-5
-1.408, 5.565e-5
-1.407, 2.174e-5
-1.406, -9.093e-6
-1.405, -3.684e-5
-1.404, -6.459e-5
-1.403, -8.617e-5
-1.402, -1.108e-4
-1.401, -1.355e-4
-1.400, -1.602e-4
-1.399, -1.910e-4
-1.398, -2.187e-4
-1.397, -2.465e-4
-1.396, -2.712e-4
-1.395, -2.927e-4
-1.394, -3.143e-4
-1.393, -3.359e-4
-1.392, -3.575e-4
-1.391, -3.852e-4
-1.390, -4.130e-4
-1.389, -4.376e-4
-1.388, -4.592e-4
-1.387, -4.777e-4
-1.386, -4.993e-4
-1.385, -5.178e-4
-1.384, -5.363e-4
-1.383, -5.610e-4
-1.382, -5.856e-4
-1.381, -6.103e-4
-1.380, -6.319e-4
-1.379, -6.504e-4
-1.378, -6.689e-4
-1.377, -6.843e-4
-1.376, -7.028e-4
-1.375, -7.213e-4
-1.374, -7.429e-4
-1.373, -7.645e-4
-1.372, -7.830e-4
-1.371, -8.015e-4
-1.370, -8.169e-4
-1.369, -8.292e-4
-1.368, -8.477e-4
-1.367, -8.662e-4
-1.366, -8.847e-4
-1.365, -9.063e-4
-1.364, -9.248e-4
-1.363, -9.433e-4
-1.362, -9.556e-4
-1.361, -9.679e-4
-1.360, -9.803e-4
-1.359, -9.957e-4
-1.358, -1.014e-3
-1.357, -1.033e-3
-1.356, -1.051e-3
-1.355, -1.067e-3
-1.354, -1.079e-3
-1.353, -1.091e-3
-1.352, -1.104e-3
-1.351, -1.116e-3
-1.350, -1.131e-3
-1.349, -1.147e-3
-1.348, -1.165e-3
-1.347, -1.178e-3
-1.346, -1.190e-3
-1.345, -1.199e-3
-1.344, -1.208e-3
-1.343, -1.221e-3
-1.342, -1.233e-3
-1.341, -1.245e-3
-1.340, -1.258e-3
-1.339, -1.273e-3
-1.338, -1.286e-3
-1.337, -1.292e-3
-1.336, -1.298e-3
-1.335, -1.307e-3
-1.334, -1.316e-3
-1.333, -1.329e-3
-1.332, -1.344e-3
-1.331, -1.359e-3
-1.330, -1.375e-3
-1.329, -1.384e-3
-1.328, -1.390e-3
-1.327, -1.400e-3
-1.326, -1.409e-3
-1.325, -1.421e-3
-1.324, -1.437e-3
-1.323, -1.449e-3
-1.322, -1.461e-3
-1.321, -1.467e-3
-1.320, -1.474e-3
-1.319, -1.480e-3
-1.318, -1.486e-3
-1.317, -1.492e-3
-1.316, -1.507e-3
-1.315, -1.520e-3
-1.314, -1.529e-3
-1.313, -1.541e-3
-1.312, -1.548e-3
-1.311, -1.551e-3
-1.310, -1.557e-3
-1.309, -1.563e-3
-1.308, -1.572e-3
-1.307, -1.581e-3
-1.306, -1.594e-3
-1.305, -1.603e-3
-1.304, -1.606e-3
-1.303, -1.609e-3
-1.302, -1.615e-3
-1.301, -1.622e-3
-1.300, -1.628e-3
-1.299, -1.640e-3
-1.298, -1.652e-3
-1.297, -1.665e-3
-1.296, -1.674e-3
-1.295, -1.680e-3
-1.294, -1.686e-3
-1.293, -1.692e-3
-1.292, -1.699e-3
-1.291, -1.708e-3
-1.290, -1.717e-3
-1.289, -1.723e-3
-1.288, -1.726e-3
-1.287, -1.729e-3
-1.286, -1.729e-3
-1.285, -1.736e-3
-1.284, -1.742e-3
-1.283, -1.751e-3
-1.282, -1.760e-3
-1.281, -1.773e-3
-1.280, -1.782e-3
-1.279, -1.785e-3
-1.278, -1.788e-3
-1.277, -1.791e-3
-1.276, -1.794e-3
-1.275, -1.800e-3
-1.274, -1.810e-3
-1.273, -1.819e-3
-1.272, -1.828e-3
-1.271, -1.834e-3
-1.270, -1.837e-3
-1.269, -1.840e-3
-1.268, -1.847e-3
-1.267, -1.853e-3
-1.266, -1.862e-3
-1.265, -1.871e-3
-1.264, -1.877e-3
-1.263, -1.884e-3
-1.262, -1.884e-3
-1.261, -1.884e-3
-1.260, -1.884e-3
-1.259, -1.887e-3
-1.258, -1.890e-3
-1.257, -1.896e-3
-1.256, -1.899e-3
-1.255, -1.905e-3
-1.254, -1.908e-3
-1.253, -1.908e-3
-1.252, -1.911e-3
-1.251, -1.918e-3
-1.250, -1.927e-3
-1.249, -1.939e-3
-1.248, -1.948e-3
-1.247, -1.958e-3
-1.246, -1.961e-3
-1.245, -1.961e-3
-1.244, -1.961e-3
-1.243, -1.958e-3
-1.242, -1.961e-3
-1.241, -1.964e-3
-1.240, -1.970e-3
-1.239, -1.976e-3
-1.238, -1.979e-3
-1.237, -1.979e-3
-1.236, -1.982e-3
-1.235, -1.979e-3
-1.234, -1.982e-3
-1.233, -1.988e-3
-1.232, -1.998e-3
-1.231, -2.007e-3
-1.230, -2.019e-3
-1.229, -2.025e-3
-1.228, -2.032e-3
-1.227, -2.035e-3
-1.226, -2.038e-3
-1.225, -2.047e-3
-1.224, -2.050e-3
-1.223, -2.059e-3
-1.222, -2.066e-3
-1.221, -2.066e-3
-1.220, -2.066e-3
-1.219, -2.062e-3
-1.218, -2.066e-3
-1.217, -2.066e-3
-1.216, -2.069e-3
-1.215, -2.078e-3
-1.214, -2.087e-3
-1.213, -2.090e-3
-1.212, -2.096e-3
-1.211, -2.099e-3
-1.210, -2.103e-3
-1.209, -2.109e-3
-1.208, -2.115e-3
-1.207, -2.124e-3
-1.206, -2.127e-3
-1.205, -2.130e-3
-1.204, -2.130e-3
-1.203, -2.124e-3
-1.202, -2.121e-3
-1.201, -2.118e-3
-1.200, -2.118e-3
-1.199, -2.121e-3
-1.198, -2.127e-3
-1.197, -2.133e-3
-1.196, -2.133e-3
-1.195, -2.133e-3
-1.194, -2.136e-3
-1.193, -2.140e-3
-1.192, -2.149e-3
-1.191, -2.158e-3
-1.190, -2.170e-3
-1.189, -2.177e-3
-1.188, -2.183e-3
-1.187, -2.183e-3
-1.186, -2.183e-3
-1.185, -2.183e-3
-1.184, -2.183e-3
-1.183, -2.189e-3
-1.182, -2.198e-3
-1.181, -2.204e-3
-1.180, -2.214e-3
-1.179, -2.214e-3
-1.178, -2.214e-3
-1.177, -2.217e-3
-1.176, -2.214e-3
-1.175, -2.217e-3
-1.174, -2.220e-3
-1.173, -2.226e-3
-1.172, -2.229e-3
-1.171, -2.229e-3
-1.170, -2.229e-3
-1.169, -2.232e-3
-1.168, -2.229e-3
-1.167, -2.235e-3
-1.166, -2.241e-3
-1.165, -2.251e-3
-1.164, -2.257e-3
-1.163, -2.260e-3
-1.162, -2.260e-3
-1.161, -2.257e-3
-1.160, -2.257e-3
-1.159, -2.260e-3
-1.158, -2.266e-3
-1.157, -2.269e-3
-1.156, -2.275e-3
-1.155, -2.272e-3
-1.154, -2.272e-3
-1.153, -2.266e-3
-1.152, -2.263e-3
-1.151, -2.263e-3
-1.150, -2.266e-3
-1.149, -2.269e-3
-1.148, -2.278e-3
-1.147, -2.281e-3
-1.146, -2.288e-3
-1.145, -2.288e-3
-1.144, -2.288e-3
-1.143, -2.284e-3
-1.142, -2.288e-3
-1.141, -2.291e-3
-1.140, -2.297e-3
-1.139, -2.303e-3
-1.138, -2.306e-3
-1.137, -2.303e-3
-1.136, -2.303e-3
-1.135, -2.306e-3
-1.134, -2.309e-3
-1.133, -2.312e-3
-1.132, -2.321e-3
-1.131, -2.331e-3
-1.130, -2.334e-3
-1.129, -2.337e-3
-1.128, -2.340e-3
-1.127, -2.343e-3
-1.126, -2.346e-3
-1.125, -2.352e-3
-1.124, -2.358e-3
-1.123, -2.365e-3
-1.122, -2.371e-3
-1.121, -2.374e-3
-1.120, -2.374e-3
-1.119, -2.374e-3
-1.118, -2.377e-3
-1.117, -2.380e-3
-1.116, -2.383e-3
-1.115, -2.389e-3
-1.114, -2.395e-3
-1.113, -2.399e-3
-1.112, -2.399e-3
-1.111, -2.399e-3
-1.110, -2.399e-3
-1.109, -2.402e-3
-1.108, -2.408e-3
-1.107, -2.414e-3
-1.106, -2.420e-3
-1.105, -2.423e-3
-1.104, -2.423e-3
-1.103, -2.423e-3
-1.102, -2.423e-3
-1.101, -2.423e-3
-1.100, -2.426e-3
-1.099, -2.432e-3
-1.098, -2.442e-3
-1.097, -2.448e-3
-1.096, -2.451e-3
-1.095, -2.451e-3
-1.094, -2.451e-3
-1.093, -2.451e-3
-1.092, -2.457e-3
-1.091, -2.463e-3
-1.090, -2.472e-3
-1.089, -2.482e-3
-1.088, -2.485e-3
-1.087, -2.491e-3
-1.086, -2.494e-3
-1.085, -2.497e-3
-1.084, -2.503e-3
-1.083, -2.513e-3
-1.082, -2.525e-3
-1.081, -2.534e-3
-1.080, -2.543e-3
-1.079, -2.550e-3
-1.078, -2.553e-3
-1.077, -2.556e-3
-1.076, -2.559e-3
-1.075, -2.568e-3
-1.074, -2.574e-3
-1.073, -2.580e-3
-1.072, -2.583e-3
-1.071, -2.583e-3
-1.070, -2.583e-3
-1.069, -2.583e-3
-1.068, -2.590e-3
-1.067, -2.599e-3
-1.066, -2.611e-3
-1.065, -2.630e-3
-1.064, -2.639e-3
-1.063, -2.651e-3
-1.062, -2.661e-3
-1.061, -2.664e-3
-1.060, -2.670e-3
-1.059, -2.676e-3
-1.058, -2.685e-3
-1.057, -2.694e-3
-1.056, -2.698e-3
-1.055, -2.704e-3
-1.054, -2.707e-3
-1.053, -2.707e-3
-1.052, -2.707e-3
-1.051, -2.716e-3
-1.050, -2.728e-3
-1.049, -2.744e-3
-1.048, -2.765e-3
-1.047, -2.781e-3
-1.046, -2.796e-3
-1.045, -2.809e-3
-1.044, -2.818e-3
-1.043, -2.827e-3
-1.042, -2.839e-3
-1.041, -2.852e-3
-1.040, -2.861e-3
-1.039, -2.867e-3
-1.038, -2.870e-3
-1.037, -2.873e-3
-1.036, -2.873e-3
-1.035, -2.873e-3
-1.034, -2.879e-3
-1.033, -2.892e-3
-1.032, -2.904e-3
-1.031, -2.920e-3
-1.030, -2.935e-3
-1.029, -2.950e-3
-1.028, -2.966e-3
-1.027, -2.981e-3
-1.026, -2.997e-3
-1.025, -3.018e-3
-1.024, -3.040e-3
-1.023, -3.061e-3
-1.022, -3.077e-3
-1.021, -3.086e-3
-1.020, -3.089e-3
-1.019, -3.089e-3
-1.018, -3.089e-3
-1.017, -3.095e-3
-1.016, -3.101e-3
-1.015, -3.111e-3
-1.014, -3.120e-3
-1.013, -3.129e-3
-1.012, -3.142e-3
-1.011, -3.151e-3
-1.010, -3.169e-3
-1.009, -3.191e-3
-1.008, -3.212e-3
-1.007, -3.240e-3
-1.006, -3.265e-3
-1.005, -3.286e-3
-1.004, -3.302e-3
-1.003, -3.317e-3
-1.002, -3.330e-3
-1.001, -3.342e-3
