Potential V vs RHE, Current mA cm-2
0.013299999999999867,0.17231183632356148
0.012299999999999978,-1.2671569112891135
0.011299999999999866,-2.4007650758709675
0.010299999999999976,-3.273641947887695
0.009299999999999864,-4.1889601589003735
0.008299999999999974,-4.974124930325469
0.007299999999999862,-5.759289701750564
0.006299999999999972,-6.54445447317566
0.00529999999999986,-7.28576319430494
0.0042999999999999705,-8.070927965730034
0.0032999999999998586,-8.594371146680096
0.0022999999999999687,-9.161670377925978
0.0012999999999998568,-9.55496011928846
0.00029999999999996696,-9.81668170976349
-0.000700000000000145,-10.078403300238522
-0.0017000000000000348,-10.25241279012192
-0.0027000000000001467,-10.557990430892769
-0.0037000000000000366,-10.819712021367803
-0.0047000000000001485,-11.211587051430415
-0.005700000000000038,-11.604876792792895
-0.00670000000000015,-12.040607873151327
-0.00770000000000004,-12.476338953509758
-0.008700000000000152,-12.825772644576423
-0.009700000000000042,-13.087494235051453
-0.010700000000000154,-13.349215825526485
-0.011700000000000044,-13.47936926511407
-0.012700000000000156,-13.610937416001518
-0.013700000000000045,-13.741090855589102
-0.014700000000000157,-13.916515056772363
-0.015700000000000047,-14.217848563643619
-0.01670000000000016,-14.529085049613924
-0.01770000000000005,-14.925204213576137
-0.01870000000000016,-15.307176264539699
-0.01970000000000005,-15.660854089505953
-0.020700000000000163,-15.972090575476265
-0.021700000000000053,-16.141855931460068
-0.022700000000000164,-16.311621287443874
-0.023700000000000054,-16.396503965435777
-0.024700000000000166,-16.495533756426326
-0.025700000000000056,-16.665299112410132
-0.026700000000000168,-16.750181790402035
-0.027700000000000058,-17.103859615368293
-0.02870000000000017,-17.4433903273359
-0.02970000000000006,-17.797068152302163
-0.03070000000000017,-18.27806999425627
-0.03170000000000006,-18.53271802823198
-0.03270000000000017,-18.92883719219419
-0.03370000000000006,-19.056161209182044
-0.034700000000000175,-19.2400736781645
-0.035700000000000065,-19.3249563561564
-0.03670000000000018,-19.409839034148305
-0.03770000000000007,-19.579604390132108
-0.03870000000000018,-19.848399537106463
-0.03970000000000007,-20.159636023076775
-0.04070000000000018,-20.584049413036283
-0.04170000000000007,-20.93772723800254
-0.04270000000000018,-21.418729079956652
-0.04370000000000007,-21.772406904922917
-0.044700000000000184,-21.98461359990267
-0.045700000000000074,-22.253408746877028
-0.046700000000000186,-22.38073276386488
-0.047700000000000076,-22.550498119848687
-0.04870000000000019,-22.72026347583249
-0.04970000000000008,-22.946617283810895
-0.05070000000000019,-23.24370665678255
-0.05170000000000008,-23.597384481748815
-0.05270000000000019,-24.035944984706973
-0.05370000000000008,-24.474505487665134
-0.05470000000000019,-24.870624651627345
-0.05570000000000008,-25.210155363594954
-0.056700000000000195,-25.478950510569312
-0.057700000000000085,-25.691157205549064
-0.058700000000000196,-25.81848122253692
-0.059700000000000086,-25.959952352523427
-0.0607000000000002,-26.17215904750318
-0.06170000000000009,-26.440954194477534
-0.0627000000000002,-26.780484906445146
-0.06370000000000009,-27.176604070407354
-0.0647000000000002,-27.615164573365515
-0.06570000000000009,-28.13860775431558
-0.0667000000000002,-28.478138466283188
-0.0677000000000001,-28.8742576302454
-0.0687000000000002,-29.14305277721976
-0.0697000000000001,-29.35525947219951
-0.07070000000000021,-29.525024828183312
-0.0717000000000001,-29.66649595816982
-0.07270000000000021,-29.921143992145527
-0.0737000000000001,-30.189939139119886
-0.07470000000000021,-30.571911190083444
-0.0757000000000001,-31.052913032037555
-0.07670000000000021,-31.533914873991666
-0.0777000000000001,-32.01491671594578
-0.07870000000000021,-32.49591855789989
-0.0797000000000001,-32.84959638286615
-0.08070000000000022,-33.14668575583781
-0.0817000000000001,-33.373039563816214
-0.08270000000000022,-33.58524625879597
-0.08370000000000011,-33.85404140577033
-0.08470000000000022,-34.06624810075008
-0.08570000000000011,-34.377484586720385
-0.08670000000000022,-34.75945663768395
-0.08770000000000011,-35.240458479638065
-0.08870000000000022,-35.763901660588125
-0.08970000000000011,-36.20246216354629
-0.09070000000000022,-36.6834640055004
-0.09170000000000011,-36.99470049147071
-0.09270000000000023,-37.206907186450465
-0.09370000000000012,-37.47570233342482
-0.09470000000000023,-37.60302635041268
-0.09570000000000012,-37.81523304539243
-0.09670000000000023,-38.04158685337084
-0.09770000000000012,-38.38111756533845
-0.09870000000000023,-38.81967806829661
-0.09970000000000012,-39.30067991025072
-0.10070000000000023,-39.78168175220483
-0.10170000000000012,-40.220242255162994
-0.10270000000000024,-40.65880275812115
-0.10370000000000013,-40.91345079209687
-0.10470000000000024,-41.182245939071215
-0.10570000000000013,-41.39445263405098
-0.10670000000000024,-41.52177665103883
-0.10770000000000013,-41.79057179801318
-0.10870000000000024,-42.087661170984845
-0.10970000000000013,-42.483780334947056
-0.11070000000000024,-42.96478217690117
-0.11170000000000013,-43.44578401885527
-0.11270000000000002,-44.011668538801295
-0.11370000000000013,-44.4926703807554
-0.11470000000000002,-44.88878954471762
-0.11570000000000014,-45.22832025668522
-0.11670000000000003,-45.497115403659585
-0.11770000000000014,-45.70932209863933
-0.11870000000000003,-45.93567590661774
-0.11970000000000014,-46.19032394059345
-0.12070000000000003,-46.586443104555656
-0.12170000000000014,-46.982562268517874
-0.12270000000000003,-47.46356411047198
-0.12370000000000014,-48.029448630417996
-0.12470000000000003,-48.45386202037751
-0.12570000000000014,-48.93486386233162
-0.12670000000000003,-49.28854168729788
-0.12770000000000015,-49.59977817326819
-0.12870000000000004,-49.81198486824794
-0.12970000000000015,-49.98175022423175
-0.13070000000000004,-50.20810403221015
-0.13170000000000015,-50.37786938819396
-0.13270000000000004,-50.68910587416426
-0.13370000000000015,-51.028636586131874
-0.13470000000000004,-51.424755750094086
-0.13570000000000015,-51.86331625305225
-0.13670000000000004,-52.2169940780185
-0.13770000000000016,-52.514083450990164
-0.13870000000000005,-52.78287859796452
-0.13970000000000016,-52.995085292944275
-0.14070000000000005,-53.16485064892808
-0.14170000000000016,-53.26388043991864
-0.14270000000000005,-53.518528473894335
-0.14370000000000016,-53.82976495986464
-0.14470000000000005,-54.16929567183226
-0.14570000000000016,-54.65029751378637
-0.14670000000000005,-55.088858016744524
-0.14770000000000016,-55.612301197694585
-0.14870000000000005,-56.093303039648696
-0.14970000000000017,-56.53186354260687
-0.15070000000000006,-56.88554136757313
-0.15170000000000017,-57.14018940154883
-0.15270000000000006,-57.408984548523186
-0.15370000000000017,-57.66363258249889
-0.15470000000000006,-57.93242772947325
-0.15570000000000017,-58.27195844144086
-0.15670000000000006,-58.66807760540307
-0.15770000000000017,-59.14907944735718
-0.15870000000000006,-59.67252262830725
-0.15970000000000018,-60.11108313126541
-0.16070000000000007,-60.59208497321952
-0.16170000000000018,-60.93161568518713
-0.16270000000000007,-61.15796949316553
-0.16370000000000018,-61.455058866137186
-0.16470000000000007,-61.63897133511965
-0.16570000000000018,-61.89361936909536
-0.16670000000000007,-62.06338472507916
-0.16770000000000018,-62.37462121104946
-0.16870000000000007,-62.77074037501168
-0.16970000000000018,-63.20930087796983
-0.17070000000000007,-63.6761556069253
-0.17170000000000019,-64.0722747708875
-0.17270000000000008,-64.42595259585376
-0.1737000000000002,-64.68060062982947
-0.17470000000000008,-64.86451309881193
-0.1757000000000002,-65.0767197937917
-0.17670000000000008,-65.16160247178358
-0.1777000000000002,-65.34551494076604
-0.17870000000000008,-65.5577216357458
-0.1797000000000002,-65.91139946071206
-0.18070000000000008,-66.29337151167562
-0.1817000000000002,-66.64704933664189
-0.18270000000000008,-67.128051178596
-0.1837000000000002,-67.52417034255821
-0.1847000000000001,-67.86370105452582
-0.1857000000000002,-68.13249620150016
-0.1867000000000001,-68.38714423547587
-0.1877000000000002,-68.57105670445833
-0.1887000000000001,-68.74082206044213
-0.1897000000000002,-68.96717586842054
-0.1907000000000001,-69.30670658038814
-0.1917000000000001,-69.6603844053544
-0.19269999999999998,-70.22626892530042
-0.1937000000000001,-70.79215344524643
-0.19469999999999998,-71.35803796519245
-0.1957000000000001,-71.92392248513846
-0.19669999999999999,-72.36248298809663
-0.1977000000000001,-72.71616081306288
-0.1987,-73.0556915250305
-0.1997000000000001,-73.2820453330089
-0.2007,-73.62157604497652
-0.2017000000000001,-73.97525386994278
-0.2027,-74.45625571189689
-0.2037000000000001,-74.93725755385098
-0.2047,-75.50314207379701
-0.2057000000000001,-76.06902659374302
-0.2067,-76.46514575770523
-0.2077000000000001,-76.9037062606634
-0.2087,-77.243236972631
-0.2097000000000001,-77.51203211960537
-0.2107,-77.7242388145851
-0.2117000000000001,-77.90815128356756
-0.2127,-78.24768199553519
-0.2137000000000001,-78.55891848150549
-0.2147,-78.9550376454677
-0.2157000000000001,-79.47848082641775
-0.2167,-80.00192400736783
-0.21770000000000012,-80.46877873632329
-0.2187,-80.9497805782774
-0.21970000000000012,-81.3458997422396
-0.2207,-81.69957756720586
-0.22170000000000012,-81.95422560118158
-0.2227,-82.22302074815593
-0.22370000000000012,-82.52011012112759
-0.2247,-82.87378794609386
-0.22570000000000012,-83.39723112704392
-0.2267,-84.00555698598588
-0.22770000000000012,-84.75535397491434
-0.22870000000000001,-85.61832786783202
-0.22970000000000013,-86.49544887374834
-0.23070000000000002,-87.37256987966467
-0.23170000000000013,-88.10821975559449
-0.23270000000000002,-88.71654561453644
-0.23370000000000013,-89.15510611749461
-0.23470000000000002,-89.50878394246087
-0.23570000000000013,-89.89075599342443
-0.23670000000000002,-90.20199247939475
-0.2376999999999999,-90.59811164335694
-0.23870000000000002,-91.03667214631511
-0.2396999999999999,-91.46108553627462
-0.24070000000000003,-91.94208737822873
-0.24169999999999991,-92.3806478811869
-0.24270000000000003,-92.73432570615316
-0.24369999999999992,-92.98897374012887
-0.24470000000000003,-93.08800353111941
-0.24569999999999992,-93.08800353111941
-0.24670000000000003,-92.94653240113291
-0.24769999999999992,-92.86164972314101
-0.24870000000000003,-92.6918843671572
-0.24969999999999992,-92.6070016891653
-0.25070000000000003,-92.4655305591788
-0.2516999999999999,-92.3806478811869
-0.25270000000000004,-92.33820654219093
-0.2536999999999999,-92.29576520319499
-0.25470000000000004,-92.16844118620713
-0.2556999999999999,-92.2108825252031
-0.25670000000000004,-92.3806478811869
-0.25769999999999993,-92.6070016891653
-0.25870000000000004,-92.90409106213696
-0.25969999999999993,-93.34265156509512
-0.26070000000000004,-93.99341876303303
-0.26169999999999993,-94.7432157519615
-0.26270000000000004,-95.47886562789132
-0.26369999999999993,-96.17207416482519
-0.26470000000000005,-96.79454713676581
-0.26569999999999994,-97.31799031771587
-0.26670000000000005,-97.61507969068752
-0.26769999999999994,-97.78484504667132
-0.26870000000000005,-97.88387483766188
-0.26969999999999994,-97.84143349866595
-0.27070000000000005,-97.88387483766188
-0.27169999999999994,-97.92631617665783
-0.27270000000000005,-98.09608153264163
-0.27369999999999994,-98.18096421063355
-0.27470000000000006,-98.26584688862545
-0.27569999999999995,-98.4497593576079
-0.27670000000000006,-98.364876679616
-0.27769999999999995,-98.26584688862545
-0.27870000000000006,-98.13852287163759
-0.27969999999999995,-98.01119885464975
-0.28070000000000006,-97.96875751565379
-0.28169999999999995,-97.92631617665783
-0.28270000000000006,-97.96875751565379
-0.28369999999999995,-98.18096421063355
-0.28470000000000006,-98.49220069660386
-0.28569999999999995,-98.83173140857146
-0.28670000000000007,-99.27029191152963
-0.28769999999999996,-99.70885241448778
-0.28870000000000007,-100.14741291744595
-0.28969999999999996,-100.5010907424122
-0.29070000000000007,-100.84062145437981
-0.29169999999999996,-101.15185794035013
-0.29270000000000007,-101.32162329633393
-0.29369999999999996,-101.54797710431234
-0.2947000000000001,-101.76018379929208
-0.29569999999999996,-102.07142028526239
-0.2967000000000001,-102.3260683192381
-0.29769999999999996,-102.63730480520842
-0.2987000000000001,-102.97683551717601
-0.29969999999999997,-103.20318932515443
-0.3007000000000001,-103.37295468113824
-0.30169999999999997,-103.45783735913014
-0.3027000000000001,-103.45783735913014
-0.30369999999999997,-103.45783735913014
-0.3047000000000001,-103.33051334214227
-0.30569999999999997,-103.37295468113824
-0.3067000000000001,-103.37295468113824
-0.3077,-103.50027869812607
-0.3087000000000001,-103.7266325061045
-0.3097,-103.93883920108425
-0.3107000000000001,-104.25007568705455
-0.3117,-104.3773997040424
-0.3127000000000001,-104.5471650600262
-0.3137,-104.5471650600262
-0.3147000000000001,-104.41984104303836
-0.3157,-104.2925170260505
-0.3167000000000001,-104.02372187907615
-0.3177,-103.81151518409638
-0.3187000000000001,-103.64174982811258
-0.3197,-103.54272003712204
-0.3207000000000001,-103.50027869812607
-0.3217,-103.50027869812607
-0.3227000000000001,-103.45783735913014
-0.3237,-103.41539602013418
-0.3247000000000001,-103.24563066415038
-0.3257,-102.97683551717601
-0.3267000000000001,-102.63730480520842
-0.3277,-102.28362698024215
-0.3287000000000001,-101.97239049427183
-0.3297,-101.6753011213002
-0.3307000000000001,-101.50553576531638
-0.3317,-101.44894731332178
-0.3327000000000001,-101.3640646353299
-0.3337,-101.40650597432582
-0.3347000000000001,-101.32162329633393
-0.3357,-101.27918195733798
-0.3367000000000001,-101.02453392336226
-0.3377,-100.62841475940007
-0.3387000000000001,-100.2747369344338
-0.3397,-99.83617643147564
-0.3407000000000001,-99.53908705850398
-0.3417,-99.18540923353773
-0.3427000000000001,-99.05808521654988
-0.3437,-98.93076119956201
-0.3447000000000001,-98.7892900695755
-0.3457,-98.7044073915836
-0.3467000000000001,-98.49220069660386
-0.3477,-98.18096421063355
-0.3487000000000001,-97.78484504667132
-0.3497,-97.26140186572127
-0.3507000000000001,-96.73795868477121
-0.3517,-96.12963282582925
-0.3527000000000001,-95.69107232287108
-0.3537,-95.30910027190752
-0.3547000000000001,-94.95542244694126
-0.3557,-94.7432157519615
-0.35670000000000013,-94.4319792659912
-0.3577,-94.17733123201549
-0.35870000000000013,-93.82365340704924
-0.3597,-93.30021022609918
-0.36070000000000013,-92.81920838414506
-0.3617,-92.29576520319499
-0.3626999999999999,-91.72988068324898
-0.3637,-91.24887884129487
-0.3646999999999999,-90.85275967733266
-0.3657,-90.55567030436099
-0.3666999999999999,-90.37175783537855
-0.3677,-90.20199247939475
-0.3686999999999999,-90.07466846240689
-0.36970000000000003,-89.84831465442848
-0.3706999999999999,-89.59366662045278
-0.37170000000000003,-89.23998879548651
-0.3726999999999999,-88.8438696315243
-0.37370000000000003,-88.46189758056073
-0.3746999999999999,-88.02333707760259
-0.37570000000000003,-87.71210059163228
-0.3766999999999999,-87.45745255765657
-0.37770000000000004,-87.27354008867411
-0.3786999999999999,-87.23109874967815
-0.37970000000000004,-87.18865741068221
-0.3806999999999999,-87.18865741068221
-0.38170000000000004,-87.06133339369435
-0.38269999999999993,-86.97645071570246
-0.38370000000000004,-86.7076555687281
-0.38469999999999993,-86.45300753475239
-0.38570000000000004,-86.18421238777805
-0.38669999999999993,-85.88712301480638
-0.38770000000000004,-85.70321054582392
-0.38869999999999993,-85.57588652883607
-0.38970000000000005,-85.53344518984011
-0.39069999999999994,-85.57588652883607
-0.39170000000000005,-85.61832786783202
-0.39269999999999994,-85.66076920682796
-0.39370000000000005,-85.70321054582392
-0.39469999999999994,-85.61832786783202
-0.39570000000000005,-85.53344518984011
-0.39669999999999994,-85.32123849486035
-0.39770000000000005,-85.13732602587791
-0.39869999999999994,-84.96756066989411
-0.39970000000000006,-84.8826779919022
-0.40069999999999995,-84.96756066989411
-0.40170000000000006,-85.17976736487385
-0.40269999999999995,-85.44856251184822
-0.40370000000000006,-85.75979899781852
-0.40469999999999995,-86.01444703179425
-0.40570000000000006,-86.28324217876859
-0.40669999999999995,-86.41056619575643
-0.40770000000000006,-86.45300753475239
-0.40869999999999995,-86.5378902127443
-0.40970000000000006,-86.5378902127443
-0.41069999999999995,-86.7076555687281
-0.41170000000000007,-86.89156803771054
-0.41269999999999996,-87.23109874967815
-0.41370000000000007,-87.62721791364037
-0.41469999999999996,-88.06577841659853
-0.41570000000000007,-88.54678025855264
-0.41669999999999996,-88.9004580835189
-0.41770000000000007,-89.19754745649055
-0.41869999999999996,-89.42390126446898
-0.4197000000000001,-89.55122528145681
-0.42069999999999996,-89.72099063744062
-0.4217000000000001,-89.84831465442848
-0.42269999999999996,-90.15955114039879
-0.4237000000000001,-90.47078762636909
-0.42469999999999997,-90.81031833833671
-0.4257000000000001,-91.29132018029082
-0.42669999999999997,-91.81476336124088
-0.4277000000000001,-92.33820654219093
-0.42869999999999997,-92.73432570615316
-0.4297000000000001,-93.03141507912481
-0.43069999999999997,-93.34265156509512
-0.4317000000000001,-93.61144671206948
-0.4327,-93.90853608504113
-0.4337000000000001,-94.26221391000739
-0.4347,-94.6583330739696
-0.4357000000000001,-95.18177625491967
-0.4367,-95.79010211386164
-0.4377000000000001,-96.3984279728036
-0.4387,-97.09163650973747
-0.4397000000000001,-97.69996236867944
-0.4407,-98.2234055496295
-0.4417000000000001,-98.7044073915836
-0.4427,-99.10052655554581
-0.4437000000000001,-99.53908705850398
-0.4447,-99.93520622246619
-0.4457000000000001,-100.45864940341626
-0.4467,-100.92550413237171
-0.4477000000000001,-101.54797710431234
-0.4487,-102.19874430225026
-0.4497000000000001,-102.84951150018817
-0.4507,-103.50027869812607
-0.4517000000000001,-104.02372187907615
-0.4527,-104.5471650600262
-0.4537000000000001,-104.98572556298437
-0.4547,-105.38184472694657
-0.4557000000000001,-105.69308121291688
-0.4567,-106.0326119248845
-0.4577000000000001,-106.38628974985076
-0.4587,-106.82485025280893
-0.4597000000000001,-107.30585209476303
-0.4607,-107.8292952757131
-0.4617000000000001,-108.35273845666316
-0.4627,-108.87618163761321
-0.4637000000000001,-109.44206615755924
-0.4647,-109.8806266605174
-0.4657000000000001,-110.3050400504769
-0.4667,-110.74360055343507
-0.4677000000000001,-111.13971971739728
-0.4687,-111.6207215593514
-0.4697000000000001,-112.10172340130552
-0.4707,-112.71004926024747
-0.4717000000000001,-113.48814047517324
-0.4727,-114.19549612510575
-0.4737000000000001,-114.97358734003153
-0.4747,-115.72338432896
-0.4757000000000001,-116.45903420488982
-0.4767,-117.10980140282774
-0.4777000000000001,-117.71812726176971
-0.4787,-118.38304157270628
-0.4797000000000001,-118.94892609265229
-0.4807,-119.64213462958614
-0.48170000000000013,-120.39193161851462
-0.4827,-121.2549055114323
-0.48370000000000013,-122.17446785634456
-0.4847,-123.09403020125686
-0.48570000000000013,-124.18335790215292
-0.4867,-123.95700409417452
-0.48570000000000013,-121.77834869238235
-0.4847,-119.95337111555646
-0.48370000000000013,-118.24157044271978
-0.4827,-116.67124089986959
-0.48170000000000013,-115.19994114800993
-0.4807,-113.84181830013951
-0.4797000000000001,-112.66760792125153
-0.4787,-111.57828022035544
-0.4777000000000001,-110.6162765364472
-0.4767,-109.73915553053091
-0.4757000000000001,-108.87618163761321
-0.4747,-108.0839433096888
-0.4737000000000001,-107.16438096477653
-0.4727,-106.30140707185885
-0.4717000000000001,-105.38184472694657
-0.4707,-104.3773997040424
-0.4697000000000001,-103.50027869812607
-0.4687,-102.63730480520842
-0.4677000000000001,-101.84506647728399
-0.4667,-101.15185794035013
-0.4657000000000001,-100.40206095142165
-0.4647,-99.7937350924797
-0.4637000000000001,-99.05808521654988
-0.4627,-98.3082882276214
-0.4617000000000001,-97.53019701269562
