Potential V vs RHE, Current mA cm-2
0.05339999999999995,-0.04518587891768927
0.05239999999999995,-0.04660059021755431
0.051399999999999946,-0.04746356411047198
0.050399999999999945,-0.0481426255344072
0.049399999999999944,-0.048750951393349166
0.04839999999999994,-0.04933098302629382
0.04739999999999994,-0.0498827204332412
0.04639999999999994,-0.050392016501192606
0.04539999999999994,-0.05095790102113862
0.04439999999999994,-0.05146719708909004
0.04339999999999994,-0.0519906402700401
0.04239999999999994,-0.052514083450990165
0.04139999999999994,-0.05300923240594292
0.040399999999999936,-0.053518528473894336
0.039399999999999935,-0.05402782454184575
0.038399999999999934,-0.05456541483579446
0.03739999999999993,-0.05506056379074723
0.03639999999999993,-0.055541565632701344
0.03539999999999993,-0.0560367145876541
0.03439999999999993,-0.05653186354260687
0.03339999999999993,-0.05701286538456098
0.03239999999999993,-0.05750801433951374
0.03139999999999993,-0.058003163294466496
0.030399999999999927,-0.058526606475416576
0.029399999999999926,-0.05899346120437202
0.028399999999999925,-0.05947446304632614
0.027399999999999924,-0.05994131777528161
0.026399999999999924,-0.060478908069230314
0.025399999999999923,-0.06098820413718173
0.024399999999999922,-0.06146920597913584
0.02339999999999992,-0.06197850204708726
0.02239999999999992,-0.06248779811503867
0.02139999999999992,-0.0629970941829901
0.020399999999999918,-0.06352053736394014
0.019399999999999917,-0.06402983343189157
0.018399999999999916,-0.06455327661284163
0.017399999999999916,-0.06507671979379169
0.016399999999999915,-0.0655860158617431
0.015399999999999914,-0.06612360615569181
0.014399999999999913,-0.06661875511064458
0.013399999999999912,-0.06715634540459328
0.012399999999999911,-0.06767978858554335
0.01139999999999991,-0.06821737887949207
0.01039999999999991,-0.06875496917344079
0.009399999999999908,-0.06925011812839355
0.008399999999999908,-0.06975941419634496
0.007399999999999907,-0.07031115160329232
0.006399999999999906,-0.07084874189724104
0.005399999999999905,-0.07138633219118974
0.004399999999999904,-0.07192392248513847
0.003399999999999903,-0.07244736566608852
0.002399999999999902,-0.07298495596003725
0.0013999999999999013,-0.0735083991409873
0.00039999999999990044,-0.07407428366093333
-0.0006000000000001005,-0.07461187395488203
-0.0016000000000001013,-0.0751353171358321
-0.0026000000000001022,-0.07570120165577811
-0.003600000000000103,-0.07625293906272547
-0.004600000000000104,-0.0767622351306769
-0.005600000000000105,-0.07731397253762426
-0.006600000000000106,-0.07786570994457162
-0.007600000000000107,-0.07841744735151898
-0.008600000000000108,-0.078983331871465
-0.009600000000000108,-0.07953506927841236
-0.01060000000000011,-0.08004436534636378
-0.01160000000000011,-0.08059610275331114
-0.012600000000000111,-0.08119028149925445
-0.013600000000000112,-0.08174201890620184
-0.014600000000000113,-0.08232205053914649
-0.015600000000000114,-0.08285964083309519
-0.016600000000000115,-0.08338308401404526
-0.017600000000000116,-0.08387823296899803
-0.018600000000000116,-0.08440167614994809
-0.019600000000000117,-0.0849675606698941
-0.020600000000000118,-0.08550515096384281
-0.02160000000000012,-0.08607103548378882
-0.02260000000000012,-0.0866227728907362
-0.02360000000000012,-0.08716036318468491
-0.024600000000000122,-0.08768380636563497
-0.025600000000000123,-0.08819310243358638
-0.026600000000000124,-0.08871654561453644
-0.027600000000000124,-0.08926828302148382
-0.028600000000000125,-0.08980587331543252
-0.029600000000000126,-0.09037175783537854
-0.030600000000000127,-0.09089520101632861
-0.03160000000000013,-0.09143279131027732
-0.03260000000000013,-0.09197038160422603
-0.03360000000000013,-0.09250797189817477
-0.03460000000000002,-0.09304556219212347
-0.03560000000000002,-0.09356900537307353
-0.03660000000000002,-0.09409244855402359
-0.03760000000000002,-0.09464418596097096
-0.03860000000000002,-0.09516762914192102
-0.039600000000000024,-0.09567692520987243
-0.040600000000000025,-0.09618622127782384
-0.041600000000000026,-0.09670966445877392
-0.04260000000000003,-0.09721896052672531
-0.04360000000000003,-0.09772825659467674
-0.04460000000000003,-0.0982234055496295
-0.04560000000000003,-0.09871855450458226
-0.04660000000000003,-0.09919955634653636
-0.04760000000000003,-0.09970885241448779
-0.04860000000000003,-0.10018985425644189
-0.04960000000000003,-0.10068500321139465
-0.050600000000000034,-0.10118015216634743
-0.051600000000000035,-0.10166115400830154
-0.052600000000000036,-0.10214215585025564
-0.053600000000000037,-0.10259486346621245
-0.05460000000000004,-0.10304757108216928
-0.05560000000000004,-0.10350027869812609
-0.05660000000000004,-0.10396713342708154
-0.05760000000000004,-0.10441984104303836
-0.05860000000000004,-0.10484425443299787
-0.05960000000000004,-0.10531110916195333
-0.06060000000000004,-0.10573552255191283
-0.061600000000000044,-0.10617408305487101
-0.06260000000000004,-0.10659849644483052
-0.06360000000000005,-0.10703705694778867
-0.06460000000000005,-0.10747561745074685
-0.06560000000000005,-0.1078575895017104
-0.06660000000000005,-0.10826785577867125
-0.06760000000000005,-0.10870641628162941
-0.06860000000000005,-0.10907424121959435
-0.06960000000000005,-0.1094845074965552
-0.07060000000000005,-0.10986647954751874
-0.07160000000000005,-0.11022015737248501
-0.07260000000000005,-0.11060212942344858
-0.07360000000000005,-0.11096995436141348
-0.07460000000000006,-0.11132363218637975
-0.07560000000000006,-0.111677310011346
-0.07660000000000006,-0.1120168407233136
-0.07760000000000006,-0.11238466566127853
-0.07860000000000006,-0.11269590214724882
-0.07960000000000006,-0.11303543285921643
-0.08060000000000006,-0.1133325222321881
-0.08160000000000006,-0.11362961160515975
-0.08260000000000006,-0.1139549952041287
-0.08360000000000006,-0.1142379374641017
-0.08460000000000006,-0.11453502683707338
-0.08560000000000006,-0.11480382198404772
-0.08660000000000007,-0.1150726171310221
-0.08760000000000007,-0.11534141227799644
-0.08860000000000007,-0.11562435453796945
-0.08960000000000007,-0.11589314968494381
-0.09060000000000007,-0.11614779771891949
-0.09160000000000007,-0.11640244575289523
-0.09260000000000007,-0.11665709378687093
-0.09360000000000007,-0.11686930048185068
-0.09460000000000007,-0.1170956542898291
-0.09560000000000007,-0.11730786098480883
-0.09660000000000007,-0.11750592056678995
-0.09760000000000008,-0.11768983303577239
-0.09860000000000008,-0.11788789261775351
-0.09960000000000008,-0.11805765797373731
-0.10060000000000008,-0.11821327621672245
-0.10160000000000008,-0.11838304157270628
-0.10260000000000008,-0.11852451270269278
-0.10360000000000008,-0.11866598383267928
-0.10460000000000008,-0.11880745496266579
-0.10560000000000008,-0.11894892609265229
-0.10660000000000008,-0.11907625010964012
-0.10760000000000008,-0.1192318683526253
-0.10860000000000009,-0.11931675103061717
-0.10960000000000009,-0.11942992793460638
-0.11060000000000009,-0.11950066349959966
-0.11160000000000009,-0.11959969329059021
-0.11260000000000009,-0.1196845759685821
-0.11360000000000009,-0.11974116442057671
-0.11460000000000009,-0.11985434132456589
-0.11560000000000009,-0.11991092977656051
-0.11660000000000009,-0.11995337111555646
-0.1176000000000001,-0.12000995956755106
-0.1186000000000001,-0.12005240090654701
-0.1196000000000001,-0.12006654801954567
-0.1206000000000001,-0.12009484224554295
-0.1216000000000001,-0.12012313647154027
-0.1226000000000001,-0.1201372835845389
-0.1236000000000001,-0.1201372835845389
-0.1246000000000001,-0.12012313647154027
-0.1256000000000001,-0.1201372835845389
-0.1266000000000001,-0.12012313647154027
-0.1276000000000001,-0.12010898935854163
-0.1286000000000001,-0.12006654801954567
-0.1296000000000001,-0.12006654801954567
-0.1306000000000001,-0.12000995956755106
-0.1316000000000001,-0.1199675182285551
-0.1326000000000001,-0.11991092977656051
-0.1336000000000001,-0.11986848843756456
-0.1346000000000001,-0.1198260470985686
-0.1356000000000001,-0.11975531153357535
-0.1366000000000001,-0.11967042885558345
-0.1376000000000001,-0.11961384040358886
-0.1386000000000001,-0.11952895772559695
-0.1396000000000001,-0.11945822216060371
-0.1406000000000001,-0.11937333948261179
-0.14160000000000011,-0.11928845680461989
-0.14260000000000012,-0.11920357412662799
-0.14360000000000012,-0.11907625010964012
-0.14460000000000012,-0.11899136743164823
-0.14560000000000012,-0.11887819052765905
-0.14660000000000012,-0.11877916073666848
-0.14760000000000012,-0.11868013094567793
-0.14860000000000012,-0.11855280692869007
-0.14960000000000012,-0.11845377713769951
-0.15060000000000012,-0.11832645312071166
-0.15160000000000012,-0.11818498199072516
-0.15260000000000012,-0.11808595219973461
-0.15360000000000013,-0.11795862818274677
-0.15460000000000013,-0.11783130416575889
-0.15560000000000013,-0.11768983303577239
-0.15660000000000013,-0.1175483619057859
-0.15760000000000013,-0.11742103788879804
-0.15860000000000013,-0.11726541964581289
-0.15960000000000002,-0.11713809562882503
-0.16060000000000002,-0.11699662449883853
-0.16160000000000002,-0.11681271202985609
-0.16260000000000002,-0.11668538801286822
-0.16360000000000002,-0.11652976976988305
-0.16460000000000002,-0.11637415152689792
-0.16560000000000002,-0.11624682750991006
-0.16660000000000003,-0.1161195034929222
-0.16760000000000003,-0.11593559102393976
-0.16860000000000003,-0.11573753144195865
-0.16960000000000003,-0.11558191319897348
-0.17060000000000003,-0.1154121478429897
-0.17160000000000003,-0.11522823537400724
-0.17260000000000003,-0.11508676424402071
-0.17360000000000003,-0.11491699888803693
-0.17460000000000003,-0.11476138064505177
-0.17560000000000003,-0.11459161528906797
-0.17660000000000003,-0.11442184993308416
-0.17760000000000004,-0.1142379374641017
-0.17860000000000004,-0.1140964663341152
-0.17960000000000004,-0.11392670097813141
-0.18060000000000004,-0.11377108273514626
-0.18160000000000004,-0.11360131737916243
-0.18260000000000004,-0.1134456991361773
-0.18360000000000004,-0.11327593378019349
-0.18460000000000004,-0.11314860976320563
-0.18560000000000004,-0.11296469729422319
-0.18660000000000004,-0.11279493193823936
-0.18760000000000004,-0.1126393136952542
-0.18860000000000005,-0.11246954833927042
-0.18960000000000005,-0.11229978298328659
-0.19060000000000005,-0.1121300176273028
-0.19160000000000005,-0.11197439938431765
-0.19260000000000005,-0.11183292825433114
-0.19360000000000005,-0.1116490157853487
-0.19460000000000005,-0.1115075446553622
-0.19560000000000005,-0.11133777929937837
-0.19660000000000005,-0.11118216105639324
-0.19760000000000005,-0.11102654281340808
-0.19860000000000005,-0.11085677745742427
-0.19960000000000006,-0.11070115921443913
-0.20060000000000006,-0.11055968808445263
-0.20160000000000006,-0.11037577561547016
-0.20260000000000006,-0.11023430448548364
-0.20360000000000006,-0.1100786862424985
-0.20460000000000006,-0.10995136222551065
-0.20560000000000006,-0.1097957439825255
-0.20660000000000006,-0.10964012573954035
-0.20760000000000006,-0.10951280172255247
-0.20860000000000006,-0.10935718347956734
-0.20960000000000006,-0.10920156523658218
-0.21060000000000006,-0.10904594699359701
-0.21160000000000007,-0.10889032875061187
-0.21260000000000007,-0.10874885762062536
-0.21360000000000007,-0.10860738649063886
-0.21460000000000007,-0.10846591536065237
-0.21560000000000007,-0.10833859134366451
-0.21660000000000007,-0.10821126732667666
-0.21760000000000007,-0.10809809042268745
-0.21860000000000007,-0.10794247217970229
-0.21960000000000007,-0.1078292952757131
-0.22060000000000007,-0.1076878241457266
-0.22160000000000007,-0.1075463530157401
-0.22260000000000008,-0.10741902899875223
-0.22360000000000008,-0.10729170498176437
-0.22460000000000008,-0.10717852807777517
-0.22560000000000008,-0.10702290983479003
-0.22660000000000008,-0.10689558581780217
-0.22760000000000008,-0.10678240891381298
-0.22860000000000008,-0.10664093778382645
-0.22960000000000008,-0.10654190799283592
-0.23060000000000008,-0.1064287310888467
-0.23160000000000008,-0.10630140707185885
-0.23260000000000008,-0.10620237728086832
-0.23360000000000009,-0.10607505326388045
-0.2346000000000001,-0.10596187635989125
-0.2356000000000001,-0.10584869945590204
-0.2366000000000001,-0.10573552255191283
-0.2376000000000001,-0.1056364927609223
-0.2386000000000001,-0.10552331585693309
-0.2396000000000001,-0.10541013895294389
-0.2406000000000001,-0.10529696204895468
-0.2416000000000001,-0.10518378514496549
-0.2426000000000001,-0.10512719669297087
-0.2436000000000001,-0.10499987267598301
-0.2446000000000001,-0.10490084288499248
-0.2456000000000001,-0.10478766598100327
-0.2466000000000001,-0.10467448907701406
-0.2476000000000001,-0.10460375351202081
-0.2486000000000001,-0.10451887083402892
-0.2496000000000001,-0.1044056939300397
-0.2506000000000001,-0.1043208112520478
-0.2516000000000001,-0.1042076343480586
-0.2526000000000001,-0.104151045896064
-0.2536000000000001,-0.10405201610507345
-0.2546000000000001,-0.10396713342708154
-0.2556000000000001,-0.10389639786208829
-0.2566000000000001,-0.10379736807109774
-0.2576000000000001,-0.10372663250610449
-0.2586000000000001,-0.10364174982811258
-0.2596000000000001,-0.10355686715012069
-0.2606000000000001,-0.10345783735913014
-0.2616000000000001,-0.10337295468113822
-0.2626000000000001,-0.10331636622914364
-0.2636000000000001,-0.10323148355115172
-0.2646000000000001,-0.10316074798615847
-0.2656000000000001,-0.10307586530816658
-0.2666000000000001,-0.10299098263017467
-0.2676000000000001,-0.10294854129117871
-0.2686000000000001,-0.10286365861318682
-0.2696000000000001,-0.10279292304819357
-0.2706000000000001,-0.1027221874832003
-0.2716000000000001,-0.10265145191820706
-0.2726000000000001,-0.10258071635321381
-0.2736000000000001,-0.10250998078822056
-0.2746000000000001,-0.10245339233622595
-0.2756000000000001,-0.10239680388423136
-0.2766000000000001,-0.10234021543223674
-0.2776000000000001,-0.1022694798672435
-0.2786000000000001,-0.1022128914152489
-0.2796000000000001,-0.10214215585025564
-0.2806000000000001,-0.10208556739826105
-0.28160000000000013,-0.1020148318332678
-0.28260000000000013,-0.10197239049427186
-0.28360000000000013,-0.10191580204227724
-0.2846,-0.10183091936428534
-0.2856,-0.10177433091229074
-0.2866,-0.10173188957329479
-0.2876,-0.10168944823429883
-0.2886,-0.10161871266930558
-0.2896,-0.10156212421731098
-0.2906,-0.10151968287831505
-0.2916,-0.10144894731332177
-0.2926,-0.10142065308732448
-0.2936,-0.10136406463532988
-0.29460000000000003,-0.10132162329633393
-0.29560000000000003,-0.10125088773134068
-0.29660000000000003,-0.10120844639234472
-0.29760000000000003,-0.10115185794035012
-0.29860000000000003,-0.10110941660135417
-0.29960000000000003,-0.10106697526235821
-0.30060000000000003,-0.10103868103636092
-0.30160000000000003,-0.10096794547136766
-0.30260000000000004,-0.10092550413237171
-0.30360000000000004,-0.10088306279337576
-0.30460000000000004,-0.10084062145437982
-0.30560000000000004,-0.10078403300238521
-0.30660000000000004,-0.10076988588938657
-0.30760000000000004,-0.10072744455039061
-0.30860000000000004,-0.10065670898539736
-0.30960000000000004,-0.10062841475940007
-0.31060000000000004,-0.10060012053340277
-0.31160000000000004,-0.10054353208140815
-0.31260000000000004,-0.10051523785541085
-0.31360000000000005,-0.10048694362941356
-0.31460000000000005,-0.1004445022904176
-0.31560000000000005,-0.10040206095142165
-0.31660000000000005,-0.1003596196124257
-0.31760000000000005,-0.1003313253864284
-0.31860000000000005,-0.1002747369344338
-0.31960000000000005,-0.1002747369344338
-0.32060000000000005,-0.1002464427084365
-0.32160000000000005,-0.10017570714344325
-0.32260000000000005,-0.10016156003044459
-0.32360000000000005,-0.10011911869144864
-0.32460000000000006,-0.10006253023945405
-0.32560000000000006,-0.10004838312645539
-0.32660000000000006,-0.10002008890045809
-0.32760000000000006,-0.09997764756146214
-0.32860000000000006,-0.09993520622246618
-0.32960000000000006,-0.09992105910946754
-0.33060000000000006,-0.09987861777047159
-0.33160000000000006,-0.09986447065747293
-0.33260000000000006,-0.09982202931847699
-0.33360000000000006,-0.09979373509247969
-0.33460000000000006,-0.0997654408664824
-0.33560000000000006,-0.09973714664048508
-0.33660000000000007,-0.09969470530148912
-0.33760000000000007,-0.09968055818849049
-0.33860000000000007,-0.09963811684949454
-0.33960000000000007,-0.09962396973649587
-0.34060000000000007,-0.09959567551049858
-0.34160000000000007,-0.0995673812845013
-0.34260000000000007,-0.09955323417150262
-0.34360000000000007,-0.09951079283250668
-0.3446000000000001,-0.09949664571950805
-0.3456000000000001,-0.09948249860650937
-0.3466000000000001,-0.09945420438051207
-0.34759999999999996,-0.09945420438051207
-0.3486000000000001,-0.09939761592851748
-0.34959999999999997,-0.09938346881551882
-0.3506000000000001,-0.09936932170252018
-0.35159999999999997,-0.09935517458952153
-0.3526000000000001,-0.09932688036352423
-0.35359999999999997,-0.09928443902452828
-0.3546000000000001,-0.09927029191152963
-0.35559999999999997,-0.09925614479853098
-0.3566000000000001,-0.09921370345953502
-0.3576,-0.09924199768553231
-0.3586000000000001,-0.09919955634653636
-0.3596,-0.09918540923353773
-0.3606000000000001,-0.09918540923353773
-0.3616,-0.09915711500754042
-0.3626000000000001,-0.09915711500754042
-0.3636,-0.09912882078154311
-0.3646000000000001,-0.09911467366854448
-0.3656,-0.09910052655554581
-0.3666000000000001,-0.09908637944254717
-0.3676,-0.09908637944254717
-0.3686000000000001,-0.09907223232954852
-0.3696,-0.09905808521654987
-0.3706000000000001,-0.09905808521654987
-0.3716,-0.09905808521654987
-0.3726000000000001,-0.09905808521654987
-0.3736,-0.09904393810355122
-0.3746000000000001,-0.09904393810355122
-0.3756,-0.09904393810355122
-0.3766000000000001,-0.09904393810355122
-0.3776,-0.09904393810355122
-0.3786000000000001,-0.09902979099055256
-0.3796,-0.09902979099055256
-0.3806000000000001,-0.09900149676455527
-0.3816,-0.09900149676455527
-0.3826000000000001,-0.09902979099055256
-0.3836,-0.09902979099055256
-0.3846000000000001,-0.09904393810355122
-0.3856,-0.09904393810355122
-0.3866000000000001,-0.09902979099055256
-0.3876,-0.09904393810355122
-0.3886000000000001,-0.09902979099055256
-0.3896,-0.09904393810355122
-0.3906000000000001,-0.09905808521654987
-0.3916,-0.09905808521654987
-0.3926000000000001,-0.09907223232954852
-0.3936,-0.09905808521654987
-0.3946000000000001,-0.09908637944254717
-0.3956,-0.09911467366854448
-0.3966000000000001,-0.09910052655554581
-0.3976,-0.09914296789454177
-0.3986000000000001,-0.09914296789454177
-0.3996,-0.09912882078154311
-0.4006000000000001,-0.09915711500754042
-0.4016,-0.09915711500754042
-0.4026000000000001,-0.09918540923353773
-0.4036,-0.09919955634653636
-0.4046000000000001,-0.09919955634653636
-0.4056,-0.09922785057253368
-0.40660000000000013,-0.09922785057253368
-0.4076,-0.09925614479853098
-0.40860000000000013,-0.09927029191152963
-0.4096,-0.09929858613752693
-0.41060000000000013,-0.09931273325052556
-0.4116,-0.09932688036352423
-0.41260000000000013,-0.09934102747652288
-0.4136,-0.09936932170252018
-0.41460000000000014,-0.09939761592851748
-0.4156,-0.09942591015451478
-0.41660000000000014,-0.09944005726751343
-0.4176,-0.09948249860650937
-0.41860000000000014,-0.09949664571950805
-0.41960000000000003,-0.09952493994550533
-0.42060000000000014,-0.09955323417150262
-0.42160000000000003,-0.09960982262349724
-0.42260000000000014,-0.09966641107549183
-0.42360000000000003,-0.09968055818849049
-0.42460000000000014,-0.09972299952748644
-0.42560000000000003,-0.09975129375348374
-0.42660000000000015,-0.0997654408664824
-0.42760000000000004,-0.09980788220547833
-0.42860000000000015,-0.09983617643147565
-0.42960000000000004,-0.09989276488347024
-0.43060000000000015,-0.09993520622246618
-0.43160000000000004,-0.09997764756146214
-0.43260000000000015,-0.10002008890045809
-0.43360000000000004,-0.10004838312645539
-0.43460000000000015,-0.10011911869144864
-0.43560000000000004,-0.10018985425644189
-0.43660000000000015,-0.10023229559543784
