Aug. 12, 2024   03:55:57
Linear Sweep Voltammetry
File: c:/users/guazh/data/20240802_batch_500/2024-08-02-exp88\regeneratedgce-2024-08-12t03_52_54-lsvinkoh\regeneratedgce_lsv_50mvs_efin_-1700mv.bin
Data Source:  Experiment
Instrument Model:  CHI760E
Header: LSV ran at 50 mVs with Efin at -1700mV
Note: 

Init E (V) = -0.6
Final E (V) = -1.7
Scan Rate (V/s) = 0.05
Sample Interval (V) = 0.001
Quiet Time (sec) = 2
Sensitivity (A/V) = 1e-4
Comp R (ohm) = 1.7

Results:

Channel 1:

Potential/V, Current/A

-0.600, 3.868e-7
-0.601, 5.303e-7
-0.602, 5.742e-7
-0.603, 5.954e-7
-0.604, 6.123e-7
-0.605, 6.238e-7
-0.606, 6.336e-7
-0.607, 6.402e-7
-0.608, 6.482e-7
-0.609, 6.593e-7
-0.610, 6.656e-7
-0.611, 6.696e-7
-0.612, 6.743e-7
-0.613, 6.798e-7
-0.614, 6.903e-7
-0.615, 6.967e-7
-0.616, 6.983e-7
-0.617, 6.998e-7
-0.618, 7.018e-7
-0.619, 7.094e-7
-0.620, 7.139e-7
-0.621, 7.159e-7
-0.622, 7.182e-7
-0.623, 7.201e-7
-0.624, 7.265e-7
-0.625, 7.320e-7
-0.626, 7.327e-7
-0.627, 7.353e-7
-0.628, 7.373e-7
-0.629, 7.435e-7
-0.630, 7.506e-7
-0.631, 7.525e-7
-0.632, 7.544e-7
-0.633, 7.566e-7
-0.634, 7.612e-7
-0.635, 7.657e-7
-0.636, 7.656e-7
-0.637, 7.658e-7
-0.638, 7.695e-7
-0.639, 7.742e-7
-0.640, 7.796e-7
-0.641, 7.812e-7
-0.642, 7.797e-7
-0.643, 7.825e-7
-0.644, 7.875e-7
-0.645, 7.915e-7
-0.646, 7.930e-7
-0.647, 7.932e-7
-0.648, 7.949e-7
-0.649, 8.014e-7
-0.650, 8.046e-7
-0.651, 8.055e-7
-0.652, 8.062e-7
-0.653, 8.083e-7
-0.654, 8.143e-7
-0.655, 8.178e-7
-0.656, 8.192e-7
-0.657, 8.207e-7
-0.658, 8.209e-7
-0.659, 8.268e-7
-0.660, 8.327e-7
-0.661, 8.345e-7
-0.662, 8.370e-7
-0.663, 8.373e-7
-0.664, 8.408e-7
-0.665, 8.450e-7
-0.666, 8.470e-7
-0.667, 8.467e-7
-0.668, 8.479e-7
-0.669, 8.507e-7
-0.670, 8.567e-7
-0.671, 8.563e-7
-0.672, 8.572e-7
-0.673, 8.585e-7
-0.674, 8.624e-7
-0.675, 8.663e-7
-0.676, 8.681e-7
-0.677, 8.674e-7
-0.678, 8.684e-7
-0.679, 8.728e-7
-0.680, 8.775e-7
-0.681, 8.797e-7
-0.682, 8.774e-7
-0.683, 8.784e-7
-0.684, 8.837e-7
-0.685, 8.880e-7
-0.686, 8.894e-7
-0.687, 8.887e-7
-0.688, 8.900e-7
-0.689, 8.947e-7
-0.690, 9.002e-7
-0.691, 9.019e-7
-0.692, 9.001e-7
-0.693, 9.005e-7
-0.694, 9.058e-7
-0.695, 9.108e-7
-0.696, 9.104e-7
-0.697, 9.125e-7
-0.698, 9.134e-7
-0.699, 9.173e-7
-0.700, 9.224e-7
-0.701, 9.218e-7
-0.702, 9.224e-7
-0.703, 9.215e-7
-0.704, 9.279e-7
-0.705, 9.326e-7
-0.706, 9.328e-7
-0.707, 9.336e-7
-0.708, 9.341e-7
-0.709, 9.368e-7
-0.710, 9.432e-7
-0.711, 9.431e-7
-0.712, 9.430e-7
-0.713, 9.448e-7
-0.714, 9.473e-7
-0.715, 9.529e-7
-0.716, 9.528e-7
-0.717, 9.536e-7
-0.718, 9.549e-7
-0.719, 9.591e-7
-0.720, 9.644e-7
-0.721, 9.648e-7
-0.722, 9.636e-7
-0.723, 9.643e-7
-0.724, 9.679e-7
-0.725, 9.714e-7
-0.726, 9.746e-7
-0.727, 9.733e-7
-0.728, 9.728e-7
-0.729, 9.774e-7
-0.730, 9.821e-7
-0.731, 9.843e-7
-0.732, 9.826e-7
-0.733, 9.823e-7
-0.734, 9.873e-7
-0.735, 9.913e-7
-0.736, 9.940e-7
-0.737, 9.943e-7
-0.738, 9.944e-7
-0.739, 9.985e-7
-0.740, 1.004e-6
-0.741, 1.005e-6
-0.742, 1.004e-6
-0.743, 1.007e-6
-0.744, 1.011e-6
-0.745, 1.016e-6
-0.746, 1.015e-6
-0.747, 1.015e-6
-0.748, 1.015e-6
-0.749, 1.018e-6
-0.750, 1.023e-6
-0.751, 1.025e-6
-0.752, 1.024e-6
-0.753, 1.026e-6
-0.754, 1.026e-6
-0.755, 1.034e-6
-0.756, 1.039e-6
-0.757, 1.039e-6
-0.758, 1.042e-6
-0.759, 1.043e-6
-0.760, 1.047e-6
-0.761, 1.047e-6
-0.762, 1.046e-6
-0.763, 1.047e-6
-0.764, 1.050e-6
-0.765, 1.055e-6
-0.766, 1.057e-6
-0.767, 1.056e-6
-0.768, 1.058e-6
-0.769, 1.063e-6
-0.770, 1.065e-6
-0.771, 1.068e-6
-0.772, 1.068e-6
-0.773, 1.069e-6
-0.774, 1.072e-6
-0.775, 1.075e-6
-0.776, 1.077e-6
-0.777, 1.078e-6
-0.778, 1.079e-6
-0.779, 1.082e-6
-0.780, 1.086e-6
-0.781, 1.086e-6
-0.782, 1.088e-6
-0.783, 1.089e-6
-0.784, 1.092e-6
-0.785, 1.097e-6
-0.786, 1.097e-6
-0.787, 1.097e-6
-0.788, 1.096e-6
-0.789, 1.098e-6
-0.790, 1.105e-6
-0.791, 1.106e-6
-0.792, 1.106e-6
-0.793, 1.109e-6
-0.794, 1.114e-6
-0.795, 1.120e-6
-0.796, 1.121e-6
-0.797, 1.119e-6
-0.798, 1.119e-6
-0.799, 1.120e-6
-0.800, 1.127e-6
-0.801, 1.129e-6
-0.802, 1.127e-6
-0.803, 1.129e-6
-0.804, 1.131e-6
-0.805, 1.135e-6
-0.806, 1.138e-6
-0.807, 1.137e-6
-0.808, 1.138e-6
-0.809, 1.141e-6
-0.810, 1.145e-6
-0.811, 1.147e-6
-0.812, 1.148e-6
-0.813, 1.147e-6
-0.814, 1.152e-6
-0.815, 1.156e-6
-0.816, 1.158e-6
-0.817, 1.158e-6
-0.818, 1.157e-6
-0.819, 1.164e-6
-0.820, 1.172e-6
-0.821, 1.171e-6
-0.822, 1.175e-6
-0.823, 1.176e-6
-0.824, 1.177e-6
-0.825, 1.182e-6
-0.826, 1.181e-6
-0.827, 1.182e-6
-0.828, 1.182e-6
-0.829, 1.185e-6
-0.830, 1.192e-6
-0.831, 1.192e-6
-0.832, 1.192e-6
-0.833, 1.193e-6
-0.834, 1.195e-6
-0.835, 1.201e-6
-0.836, 1.203e-6
-0.837, 1.202e-6
-0.838, 1.204e-6
-0.839, 1.206e-6
-0.840, 1.211e-6
-0.841, 1.216e-6
-0.842, 1.215e-6
-0.843, 1.216e-6
-0.844, 1.219e-6
-0.845, 1.223e-6
-0.846, 1.226e-6
-0.847, 1.226e-6
-0.848, 1.228e-6
-0.849, 1.232e-6
-0.850, 1.237e-6
-0.851, 1.241e-6
-0.852, 1.241e-6
-0.853, 1.239e-6
-0.854, 1.244e-6
-0.855, 1.248e-6
-0.856, 1.251e-6
-0.857, 1.251e-6
-0.858, 1.254e-6
-0.859, 1.257e-6
-0.860, 1.263e-6
-0.861, 1.265e-6
-0.862, 1.265e-6
-0.863, 1.265e-6
-0.864, 1.269e-6
-0.865, 1.274e-6
-0.866, 1.276e-6
-0.867, 1.278e-6
-0.868, 1.278e-6
-0.869, 1.280e-6
-0.870, 1.288e-6
-0.871, 1.294e-6
-0.872, 1.293e-6
-0.873, 1.293e-6
-0.874, 1.294e-6
-0.875, 1.301e-6
-0.876, 1.306e-6
-0.877, 1.306e-6
-0.878, 1.310e-6
-0.879, 1.314e-6
-0.880, 1.321e-6
-0.881, 1.323e-6
-0.882, 1.322e-6
-0.883, 1.323e-6
-0.884, 1.327e-6
-0.885, 1.332e-6
-0.886, 1.335e-6
-0.887, 1.334e-6
-0.888, 1.334e-6
-0.889, 1.337e-6
-0.890, 1.343e-6
-0.891, 1.346e-6
-0.892, 1.347e-6
-0.893, 1.348e-6
-0.894, 1.351e-6
-0.895, 1.358e-6
-0.896, 1.363e-6
-0.897, 1.364e-6
-0.898, 1.362e-6
-0.899, 1.366e-6
-0.900, 1.371e-6
-0.901, 1.375e-6
-0.902, 1.377e-6
-0.903, 1.377e-6
-0.904, 1.380e-6
-0.905, 1.389e-6
-0.906, 1.392e-6
-0.907, 1.393e-6
-0.908, 1.393e-6
-0.909, 1.396e-6
-0.910, 1.405e-6
-0.911, 1.411e-6
-0.912, 1.414e-6
-0.913, 1.417e-6
-0.914, 1.415e-6
-0.915, 1.421e-6
-0.916, 1.424e-6
-0.917, 1.424e-6
-0.918, 1.426e-6
-0.919, 1.428e-6
-0.920, 1.434e-6
-0.921, 1.440e-6
-0.922, 1.441e-6
-0.923, 1.442e-6
-0.924, 1.444e-6
-0.925, 1.449e-6
-0.926, 1.455e-6
-0.927, 1.455e-6
-0.928, 1.457e-6
-0.929, 1.460e-6
-0.930, 1.465e-6
-0.931, 1.471e-6
-0.932, 1.472e-6
-0.933, 1.472e-6
-0.934, 1.477e-6
-0.935, 1.483e-6
-0.936, 1.486e-6
-0.937, 1.491e-6
-0.938, 1.496e-6
-0.939, 1.502e-6
-0.940, 1.507e-6
-0.941, 1.511e-6
-0.942, 1.511e-6
-0.943, 1.510e-6
-0.944, 1.513e-6
-0.945, 1.522e-6
-0.946, 1.526e-6
-0.947, 1.529e-6
-0.948, 1.530e-6
-0.949, 1.530e-6
-0.950, 1.538e-6
-0.951, 1.542e-6
-0.952, 1.544e-6
-0.953, 1.545e-6
-0.954, 1.548e-6
-0.955, 1.555e-6
-0.956, 1.561e-6
-0.957, 1.561e-6
-0.958, 1.566e-6
-0.959, 1.567e-6
-0.960, 1.577e-6
-0.961, 1.585e-6
-0.962, 1.584e-6
-0.963, 1.585e-6
-0.964, 1.587e-6
-0.965, 1.593e-6
-0.966, 1.599e-6
-0.967, 1.600e-6
-0.968, 1.603e-6
-0.969, 1.605e-6
-0.970, 1.611e-6
-0.971, 1.618e-6
-0.972, 1.619e-6
-0.973, 1.624e-6
-0.974, 1.626e-6
-0.975, 1.633e-6
-0.976, 1.643e-6
-0.977, 1.645e-6
-0.978, 1.645e-6
-0.979, 1.648e-6
-0.980, 1.653e-6
-0.981, 1.658e-6
-0.982, 1.660e-6
-0.983, 1.662e-6
-0.984, 1.666e-6
-0.985, 1.673e-6
-0.986, 1.678e-6
-0.987, 1.680e-6
-0.988, 1.683e-6
-0.989, 1.686e-6
-0.990, 1.695e-6
-0.991, 1.703e-6
-0.992, 1.705e-6
-0.993, 1.706e-6
-0.994, 1.707e-6
-0.995, 1.713e-6
-0.996, 1.720e-6
-0.997, 1.724e-6
-0.998, 1.728e-6
-0.999, 1.730e-6
-1.000, 1.736e-6
-1.001, 1.742e-6
-1.002, 1.743e-6
-1.003, 1.748e-6
-1.004, 1.751e-6
-1.005, 1.757e-6
-1.006, 1.765e-6
-1.007, 1.767e-6
-1.008, 1.769e-6
-1.009, 1.773e-6
-1.010, 1.780e-6
-1.011, 1.789e-6
-1.012, 1.791e-6
-1.013, 1.789e-6
-1.014, 1.793e-6
-1.015, 1.799e-6
-1.016, 1.808e-6
-1.017, 1.812e-6
-1.018, 1.813e-6
-1.019, 1.816e-6
-1.020, 1.823e-6
-1.021, 1.828e-6
-1.022, 1.833e-6
-1.023, 1.836e-6
-1.024, 1.842e-6
-1.025, 1.851e-6
-1.026, 1.859e-6
-1.027, 1.862e-6
-1.028, 1.862e-6
-1.029, 1.863e-6
-1.030, 1.871e-6
-1.031, 1.877e-6
-1.032, 1.882e-6
-1.033, 1.884e-6
-1.034, 1.886e-6
-1.035, 1.893e-6
-1.036, 1.898e-6
-1.037, 1.902e-6
-1.038, 1.907e-6
-1.039, 1.910e-6
-1.040, 1.918e-6
-1.041, 1.922e-6
-1.042, 1.924e-6
-1.043, 1.929e-6
-1.044, 1.932e-6
-1.045, 1.938e-6
-1.046, 1.947e-6
-1.047, 1.951e-6
-1.048, 1.953e-6
-1.049, 1.956e-6
-1.050, 1.961e-6
-1.051, 1.968e-6
-1.052, 1.972e-6
-1.053, 1.973e-6
-1.054, 1.978e-6
-1.055, 1.984e-6
-1.056, 1.991e-6
-1.057, 1.995e-6
-1.058, 1.998e-6
-1.059, 2.002e-6
-1.060, 2.010e-6
-1.061, 2.016e-6
-1.062, 2.020e-6
-1.063, 2.023e-6
-1.064, 2.023e-6
-1.065, 2.031e-6
-1.066, 2.036e-6
-1.067, 2.041e-6
-1.068, 2.045e-6
-1.069, 2.048e-6
-1.070, 2.054e-6
-1.071, 2.059e-6
-1.072, 2.062e-6
-1.073, 2.065e-6
-1.074, 2.067e-6
-1.075, 2.077e-6
-1.076, 2.085e-6
-1.077, 2.089e-6
-1.078, 2.095e-6
-1.079, 2.096e-6
-1.080, 2.100e-6
-1.081, 2.108e-6
-1.082, 2.109e-6
-1.083, 2.111e-6
-1.084, 2.113e-6
-1.085, 2.119e-6
-1.086, 2.128e-6
-1.087, 2.130e-6
-1.088, 2.131e-6
-1.089, 2.134e-6
-1.090, 2.140e-6
-1.091, 2.147e-6
-1.092, 2.149e-6
-1.093, 2.152e-6
-1.094, 2.155e-6
-1.095, 2.160e-6
-1.096, 2.166e-6
-1.097, 2.169e-6
-1.098, 2.171e-6
-1.099, 2.172e-6
-1.100, 2.180e-6
-1.101, 2.188e-6
-1.102, 2.192e-6
-1.103, 2.194e-6
-1.104, 2.198e-6
-1.105, 2.203e-6
-1.106, 2.208e-6
-1.107, 2.212e-6
-1.108, 2.214e-6
-1.109, 2.214e-6
-1.110, 2.221e-6
-1.111, 2.228e-6
-1.112, 2.231e-6
-1.113, 2.235e-6
-1.114, 2.237e-6
-1.115, 2.245e-6
-1.116, 2.253e-6
-1.117, 2.256e-6
-1.118, 2.261e-6
-1.119, 2.261e-6
-1.120, 2.265e-6
-1.121, 2.274e-6
-1.122, 2.274e-6
-1.123, 2.277e-6
-1.124, 2.279e-6
-1.125, 2.285e-6
-1.126, 2.295e-6
-1.127, 2.298e-6
-1.128, 2.298e-6
-1.129, 2.301e-6
-1.130, 2.305e-6
-1.131, 2.316e-6
-1.132, 2.319e-6
-1.133, 2.320e-6
-1.134, 2.324e-6
-1.135, 2.328e-6
-1.136, 2.336e-6
-1.137, 2.340e-6
-1.138, 2.340e-6
-1.139, 2.345e-6
-1.140, 2.354e-6
-1.141, 2.364e-6
-1.142, 2.369e-6
-1.143, 2.366e-6
-1.144, 2.368e-6
-1.145, 2.375e-6
-1.146, 2.381e-6
-1.147, 2.386e-6
-1.148, 2.387e-6
-1.149, 2.390e-6
-1.150, 2.396e-6
-1.151, 2.403e-6
-1.152, 2.407e-6
-1.153, 2.410e-6
-1.154, 2.411e-6
-1.155, 2.420e-6
-1.156, 2.430e-6
-1.157, 2.433e-6
-1.158, 2.434e-6
-1.159, 2.436e-6
-1.160, 2.440e-6
-1.161, 2.449e-6
-1.162, 2.452e-6
-1.163, 2.455e-6
-1.164, 2.457e-6
-1.165, 2.462e-6
-1.166, 2.473e-6
-1.167, 2.478e-6
-1.168, 2.484e-6
-1.169, 2.486e-6
-1.170, 2.490e-6
-1.171, 2.498e-6
-1.172, 2.500e-6
-1.173, 2.499e-6
-1.174, 2.501e-6
-1.175, 2.506e-6
-1.176, 2.516e-6
-1.177, 2.523e-6
-1.178, 2.525e-6
-1.179, 2.526e-6
-1.180, 2.530e-6
-1.181, 2.537e-6
-1.182, 2.543e-6
-1.183, 2.543e-6
-1.184, 2.548e-6
-1.185, 2.555e-6
-1.186, 2.563e-6
-1.187, 2.569e-6
-1.188, 2.568e-6
-1.189, 2.569e-6
-1.190, 2.577e-6
-1.191, 2.585e-6
-1.192, 2.591e-6
-1.193, 2.595e-6
-1.194, 2.594e-6
-1.195, 2.600e-6
-1.196, 2.609e-6
-1.197, 2.613e-6
-1.198, 2.616e-6
-1.199, 2.619e-6
-1.200, 2.624e-6
-1.201, 2.632e-6
-1.202, 2.635e-6
-1.203, 2.637e-6
-1.204, 2.640e-6
-1.205, 2.643e-6
-1.206, 2.653e-6
-1.207, 2.658e-6
-1.208, 2.659e-6
-1.209, 2.661e-6
-1.210, 2.665e-6
-1.211, 2.675e-6
-1.212, 2.679e-6
-1.213, 2.680e-6
-1.214, 2.684e-6
-1.215, 2.687e-6
-1.216, 2.696e-6
-1.217, 2.703e-6
-1.218, 2.702e-6
-1.219, 2.706e-6
-1.220, 2.710e-6
-1.221, 2.718e-6
-1.222, 2.725e-6
-1.223, 2.726e-6
-1.224, 2.728e-6
-1.225, 2.732e-6
-1.226, 2.741e-6
-1.227, 2.749e-6
-1.228, 2.755e-6
-1.229, 2.766e-6
-1.230, 2.769e-6
-1.231, 2.773e-6
-1.232, 2.775e-6
-1.233, 2.776e-6
-1.234, 2.776e-6
-1.235, 2.783e-6
-1.236, 2.793e-6
-1.237, 2.798e-6
-1.238, 2.799e-6
-1.239, 2.801e-6
-1.240, 2.810e-6
-1.241, 2.823e-6
-1.242, 2.829e-6
-1.243, 2.829e-6
-1.244, 2.830e-6
-1.245, 2.831e-6
-1.246, 2.841e-6
-1.247, 2.845e-6
-1.248, 2.850e-6
-1.249, 2.852e-6
-1.250, 2.857e-6
-1.251, 2.866e-6
-1.252, 2.870e-6
-1.253, 2.869e-6
-1.254, 2.872e-6
-1.255, 2.876e-6
-1.256, 2.885e-6
-1.257, 2.894e-6
-1.258, 2.895e-6
-1.259, 2.899e-6
-1.260, 2.903e-6
-1.261, 2.910e-6
-1.262, 2.916e-6
-1.263, 2.916e-6
-1.264, 2.918e-6
-1.265, 2.926e-6
-1.266, 2.932e-6
-1.267, 2.940e-6
-1.268, 2.942e-6
-1.269, 2.944e-6
-1.270, 2.949e-6
-1.271, 2.957e-6
-1.272, 2.963e-6
-1.273, 2.966e-6
-1.274, 2.967e-6
-1.275, 2.972e-6
-1.276, 2.982e-6
-1.277, 2.987e-6
-1.278, 2.989e-6
-1.279, 2.991e-6
-1.280, 3.000e-6
-1.281, 3.007e-6
-1.282, 3.009e-6
-1.283, 3.012e-6
-1.284, 3.014e-6
-1.285, 3.018e-6
-1.286, 3.026e-6
-1.287, 3.032e-6
-1.288, 3.034e-6
-1.289, 3.037e-6
-1.290, 3.040e-6
-1.291, 3.054e-6
-1.292, 3.063e-6
-1.293, 3.064e-6
-1.294, 3.066e-6
-1.295, 3.069e-6
-1.296, 3.078e-6
-1.297, 3.085e-6
-1.298, 3.083e-6
-1.299, 3.087e-6
-1.300, 3.091e-6
-1.301, 3.100e-6
-1.302, 3.110e-6
-1.303, 3.113e-6
-1.304, 3.115e-6
-1.305, 3.118e-6
-1.306, 3.122e-6
-1.307, 3.129e-6
-1.308, 3.132e-6
-1.309, 3.133e-6
-1.310, 3.138e-6
-1.311, 3.148e-6
-1.312, 3.155e-6
-1.313, 3.156e-6
-1.314, 3.155e-6
-1.315, 3.160e-6
-1.316, 3.169e-6
-1.317, 3.175e-6
-1.318, 3.178e-6
-1.319, 3.179e-6
-1.320, 3.186e-6
-1.321, 3.200e-6
-1.322, 3.205e-6
-1.323, 3.207e-6
-1.324, 3.208e-6
-1.325, 3.208e-6
-1.326, 3.217e-6
-1.327, 3.223e-6
-1.328, 3.226e-6
-1.329, 3.230e-6
-1.330, 3.232e-6
-1.331, 3.243e-6
-1.332, 3.252e-6
-1.333, 3.252e-6
-1.334, 3.252e-6
-1.335, 3.255e-6
-1.336, 3.266e-6
-1.337, 3.275e-6
-1.338, 3.278e-6
-1.339, 3.280e-6
-1.340, 3.282e-6
-1.341, 3.290e-6
-1.342, 3.301e-6
-1.343, 3.302e-6
-1.344, 3.308e-6
-1.345, 3.312e-6
-1.346, 3.319e-6
-1.347, 3.327e-6
-1.348, 3.327e-6
-1.349, 3.328e-6
-1.350, 3.334e-6
-1.351, 3.343e-6
-1.352, 3.351e-6
-1.353, 3.357e-6
-1.354, 3.356e-6
-1.355, 3.362e-6
-1.356, 3.377e-6
-1.357, 3.388e-6
-1.358, 3.393e-6
-1.359, 3.392e-6
-1.360, 3.397e-6
-1.361, 3.407e-6
-1.362, 3.415e-6
-1.363, 3.425e-6
-1.364, 3.427e-6
-1.365, 3.430e-6
-1.366, 3.441e-6
-1.367, 3.448e-6
-1.368, 3.452e-6
-1.369, 3.457e-6
-1.370, 3.462e-6
-1.371, 3.474e-6
-1.372, 3.483e-6
-1.373, 3.486e-6
-1.374, 3.490e-6
-1.375, 3.496e-6
-1.376, 3.508e-6
-1.377, 3.519e-6
-1.378, 3.524e-6
-1.379, 3.528e-6
-1.380, 3.538e-6
-1.381, 3.550e-6
-1.382, 3.563e-6
-1.383, 3.569e-6
-1.384, 3.570e-6
-1.385, 3.577e-6
-1.386, 3.588e-6
-1.387, 3.604e-6
-1.388, 3.611e-6
-1.389, 3.615e-6
-1.390, 3.624e-6
-1.391, 3.635e-6
-1.392, 3.653e-6
-1.393, 3.664e-6
-1.394, 3.667e-6
-1.395, 3.676e-6
-1.396, 3.689e-6
-1.397, 3.702e-6
-1.398, 3.713e-6
-1.399, 3.720e-6
-1.400, 3.730e-6
-1.401, 3.744e-6
-1.402, 3.756e-6
-1.403, 3.765e-6
-1.404, 3.773e-6
-1.405, 3.782e-6
-1.406, 3.800e-6
-1.407, 3.813e-6
-1.408, 3.824e-6
-1.409, 3.834e-6
-1.410, 3.843e-6
-1.411, 3.860e-6
-1.412, 3.877e-6
-1.413, 3.888e-6
-1.414, 3.901e-6
-1.415, 3.910e-6
-1.416, 3.926e-6
-1.417, 3.945e-6
-1.418, 3.956e-6
-1.419, 3.968e-6
-1.420, 3.981e-6
-1.421, 4.000e-6
-1.422, 4.021e-6
-1.423, 4.033e-6
-1.424, 4.045e-6
-1.425, 4.063e-6
-1.426, 4.081e-6
-1.427, 4.102e-6
-1.428, 4.117e-6
-1.429, 4.130e-6
-1.430, 4.147e-6
-1.431, 4.166e-6
-1.432, 4.190e-6
-1.433, 4.205e-6
-1.434, 4.223e-6
-1.435, 4.239e-6
-1.436, 4.261e-6
-1.437, 4.284e-6
-1.438, 4.303e-6
-1.439, 4.318e-6
-1.440, 4.339e-6
-1.441, 4.364e-6
-1.442, 4.391e-6
-1.443, 4.417e-6
-1.444, 4.444e-6
-1.445, 4.464e-6
-1.446, 4.490e-6
-1.447, 4.516e-6
-1.448, 4.539e-6
-1.449, 4.559e-6
-1.450, 4.582e-6
-1.451, 4.612e-6
-1.452, 4.644e-6
-1.453, 4.671e-6
-1.454, 4.694e-6
-1.455, 4.718e-6
-1.456, 4.749e-6
-1.457, 4.785e-6
-1.458, 4.812e-6
-1.459, 4.838e-6
-1.460, 4.867e-6
-1.461, 4.900e-6
-1.462, 4.940e-6
-1.463, 4.969e-6
-1.464, 4.999e-6
-1.465, 5.034e-6
-1.466, 5.070e-6
-1.467, 5.107e-6
-1.468, 5.142e-6
-1.469, 5.173e-6
-1.470, 5.207e-6
-1.471, 5.249e-6
-1.472, 5.293e-6
-1.473, 5.330e-6
-1.474, 5.361e-6
-1.475, 5.400e-6
-1.476, 5.443e-6
-1.477, 5.489e-6
-1.478, 5.532e-6
-1.479, 5.571e-6
-1.480, 5.611e-6
-1.481, 5.658e-6
-1.482, 5.706e-6
-1.483, 5.752e-6
-1.484, 5.795e-6
-1.485, 5.846e-6
-1.486, 5.897e-6
-1.487, 5.943e-6
-1.488, 5.989e-6
-1.489, 6.034e-6
-1.490, 6.078e-6
-1.491, 6.135e-6
-1.492, 6.189e-6
-1.493, 6.239e-6
-1.494, 6.288e-6
-1.495, 6.337e-6
-1.496, 6.396e-6
-1.497, 6.459e-6
-1.498, 6.514e-6
-1.499, 6.569e-6
-1.500, 6.622e-6
-1.501, 6.684e-6
-1.502, 6.753e-6
-1.503, 6.813e-6
-1.504, 6.869e-6
-1.505, 6.927e-6
-1.506, 6.989e-6
-1.507, 7.057e-6
-1.508, 7.119e-6
-1.509, 7.184e-6
-1.510, 7.249e-6
-1.511, 7.317e-6
-1.512, 7.390e-6
-1.513, 7.458e-6
-1.514, 7.518e-6
-1.515, 7.585e-6
-1.516, 7.660e-6
-1.517, 7.738e-6
-1.518, 7.812e-6
-1.519, 7.878e-6
-1.520, 7.952e-6
-1.521, 8.030e-6
-1.522, 8.109e-6
-1.523, 8.189e-6
-1.524, 8.263e-6
-1.525, 8.339e-6
-1.526, 8.425e-6
-1.527, 8.511e-6
-1.528, 8.592e-6
-1.529, 8.667e-6
-1.530, 8.742e-6
-1.531, 8.831e-6
-1.532, 8.919e-6
-1.533, 9.005e-6
-1.534, 9.091e-6
-1.535, 9.172e-6
-1.536, 9.264e-6
-1.537, 9.359e-6
-1.538, 9.444e-6
-1.539, 9.533e-6
-1.540, 9.621e-6
-1.541, 9.715e-6
-1.542, 9.817e-6
-1.543, 9.911e-6
-1.544, 1.000e-5
-1.545, 1.010e-5
-1.546, 1.019e-5
-1.547, 1.029e-5
-1.548, 1.039e-5
-1.549, 1.048e-5
-1.550, 1.058e-5
-1.551, 1.069e-5
-1.552, 1.080e-5
-1.553, 1.090e-5
-1.554, 1.100e-5
-1.555, 1.110e-5
-1.556, 1.121e-5
-1.557, 1.132e-5
-1.558, 1.143e-5
-1.559, 1.153e-5
-1.560, 1.164e-5
-1.561, 1.176e-5
-1.562, 1.187e-5
-1.563, 1.198e-5
-1.564, 1.208e-5
-1.565, 1.218e-5
-1.566, 1.231e-5
-1.567, 1.243e-5
-1.568, 1.255e-5
-1.569, 1.266e-5
-1.570, 1.277e-5
-1.571, 1.290e-5
-1.572, 1.302e-5
-1.573, 1.314e-5
-1.574, 1.326e-5
-1.575, 1.339e-5
-1.576, 1.351e-5
-1.577, 1.365e-5
-1.578, 1.377e-5
-1.579, 1.390e-5
-1.580, 1.402e-5
-1.581, 1.415e-5
-1.582, 1.429e-5
-1.583, 1.442e-5
-1.584, 1.455e-5
-1.585, 1.468e-5
-1.586, 1.481e-5
-1.587, 1.496e-5
-1.588, 1.510e-5
-1.589, 1.523e-5
-1.590, 1.537e-5
-1.591, 1.551e-5
-1.592, 1.565e-5
-1.593, 1.580e-5
-1.594, 1.593e-5
-1.595, 1.608e-5
-1.596, 1.623e-5
-1.597, 1.638e-5
-1.598, 1.653e-5
-1.599, 1.667e-5
-1.600, 1.681e-5
-1.601, 1.696e-5
-1.602, 1.712e-5
-1.603, 1.727e-5
-1.604, 1.742e-5
-1.605, 1.757e-5
-1.606, 1.773e-5
-1.607, 1.789e-5
-1.608, 1.804e-5
-1.609, 1.820e-5
-1.610, 1.835e-5
-1.611, 1.852e-5
-1.612, 1.868e-5
-1.613, 1.885e-5
-1.614, 1.901e-5
-1.615, 1.917e-5
-1.616, 1.934e-5
-1.617, 1.951e-5
-1.618, 1.968e-5
-1.619, 1.984e-5
-1.620, 2.000e-5
-1.621, 2.017e-5
-1.622, 2.035e-5
-1.623, 2.052e-5
-1.624, 2.069e-5
-1.625, 2.086e-5
-1.626, 2.104e-5
-1.627, 2.122e-5
-1.628, 2.140e-5
-1.629, 2.157e-5
-1.630, 2.175e-5
-1.631, 2.193e-5
-1.632, 2.212e-5
-1.633, 2.230e-5
-1.634, 2.248e-5
-1.635, 2.267e-5
-1.636, 2.285e-5
-1.637, 2.304e-5
-1.638, 2.324e-5
-1.639, 2.344e-5
-1.640, 2.362e-5
-1.641, 2.381e-5
-1.642, 2.401e-5
-1.643, 2.421e-5
-1.644, 2.440e-5
-1.645, 2.459e-5
-1.646, 2.479e-5
-1.647, 2.499e-5
-1.648, 2.519e-5
-1.649, 2.539e-5
-1.650, 2.558e-5
-1.651, 2.579e-5
-1.652, 2.600e-5
-1.653, 2.620e-5
-1.654, 2.641e-5
-1.655, 2.661e-5
-1.656, 2.681e-5
-1.657, 2.703e-5
-1.658, 2.724e-5
-1.659, 2.745e-5
-1.660, 2.766e-5
-1.661, 2.786e-5
-1.662, 2.808e-5
-1.663, 2.829e-5
-1.664, 2.851e-5
-1.665, 2.872e-5
-1.666, 2.894e-5
-1.667, 2.918e-5
-1.668, 2.940e-5
-1.669, 2.962e-5
-1.670, 2.984e-5
-1.671, 3.006e-5
-1.672, 3.029e-5
-1.673, 3.052e-5
-1.674, 3.074e-5
-1.675, 3.097e-5
-1.676, 3.120e-5
-1.677, 3.144e-5
-1.678, 3.168e-5
-1.679, 3.191e-5
-1.680, 3.214e-5
-1.681, 3.238e-5
-1.682, 3.263e-5
-1.683, 3.287e-5
-1.684, 3.311e-5
-1.685, 3.334e-5
-1.686, 3.358e-5
-1.687, 3.383e-5
-1.688, 3.407e-5
-1.689, 3.431e-5
-1.690, 3.455e-5
-1.691, 3.480e-5
-1.692, 3.505e-5
-1.693, 3.530e-5
-1.694, 3.555e-5
-1.695, 3.579e-5
-1.696, 3.604e-5
-1.697, 3.630e-5
-1.698, 3.655e-5
-1.699, 3.681e-5
