Potential V vs RHE, Current mA cm-2
0.4132999999999999,0.00790116260974623
0.4122999999999999,0.005933299191633964
0.4112999999999999,0.005098619524713593
0.4102999999999999,0.004587908745462314
0.4092999999999999,0.004235645631795919
0.4082999999999999,0.003955532794422643
0.4072999999999999,0.0036754199570493648
0.4062999999999999,0.003423601345673389
0.4052999999999999,0.0031632944664982217
0.4042999999999999,0.002966649595816982
0.4032999999999999,0.002802543085032638
0.4022999999999999,0.0026143864821505875
0.4012999999999999,0.0024177416114693475
0.4002999999999999,0.0022196820294882427
0.3992999999999999,0.0020414284057052477
0.3982999999999999,0.001897127853119014
0.3972999999999999,0.0017542420118326456
0.3962999999999999,0.0015887207897484362
0.3952999999999999,0.001426028990263957
0.3942999999999999,0.0013234624210237418
0.39329999999999987,0.0012104269881645256
0.39229999999999987,0.001093147421405714
0.39129999999999987,0.0009298897374012885
0.39029999999999987,0.0007902577321046095
0.38929999999999987,0.0006786370105452581
0.38829999999999987,0.000580880459724584
0.38729999999999987,0.0004720891607649628
0.38629999999999987,0.00033811600066774376
0.38529999999999986,0.0002054160807404033
0.38429999999999986,0.00012868213983572373
0.38329999999999986,3.797085128837758e-05
0.38229999999999986,-5.834269400643412e-05
0.38129999999999986,-0.00017273624971352096
0.38029999999999986,-0.0003178856290796737
0.37929999999999986,-0.0003863576559931415
0.37829999999999986,-0.00045751763437635283
0.37729999999999986,-0.000538439120728633
0.37629999999999986,-0.000633366248949577
0.37529999999999986,-0.0007534752383081186
0.37429999999999986,-0.0008203910827917348
0.37329999999999985,-0.0009153182110126787
0.37229999999999985,-0.0009935517458952152
0.37129999999999985,-0.0010856494515164292
0.37029999999999985,-0.0011875086651067118
0.36929999999999985,-0.0012600833547897882
0.36829999999999985,-0.001313135028534727
0.36729999999999985,-0.001406647445455806
0.36629999999999985,-0.0015080822456561291
0.36529999999999985,-0.0016141855931460067
0.36429999999999985,-0.0016665299112410131
0.36329999999999985,-0.0016962388485381793
0.36229999999999984,-0.0017641449909317009
0.36129999999999984,-0.0018660042045219834
0.36029999999999984,-0.0019650339955125363
0.35929999999999984,-0.0020202077362072727
0.35829999999999984,-0.0020654784978029537
0.35729999999999984,-0.002122066949797555
0.35629999999999984,-0.0022083643390893226
0.35529999999999984,-0.00232012653177866
0.35429999999999984,-0.0023639825820744764
0.35329999999999984,-0.002396520941971372
0.35229999999999984,-0.002433303435767863
0.35129999999999983,-0.002547895051056931
0.35029999999999983,-0.002631363017748968
0.34929999999999983,-0.0026808779132442445
0.34829999999999983,-0.002731807520039386
0.34729999999999983,-0.0027898106833338524
0.34629999999999983,-0.002856302114427509
0.34529999999999983,-0.002952502482818332
0.34429999999999983,-0.0029807967088156325
0.3432999999999998,-0.0030331410269106387
0.3422999999999998,-0.0030614352529079393
0.3412999999999998,-0.0031449032195999763
0.3402999999999998,-0.0032453477218903942
0.3392999999999998,-0.00327788608178729
0.3382999999999998,-0.003310424441684186
0.3372999999999998,-0.0033472069354806766
0.3362999999999998,-0.003413698366574334
0.3352999999999998,-0.0035240458479638063
0.3342999999999998,-0.003548095940061512
0.3332999999999998,-0.003577804877358678
0.3322999999999998,-0.0036244903502542234
0.3312999999999998,-0.003689567070048016
0.3302999999999998,-0.0037885968610385685
0.3292999999999998,-0.003825379354835059
0.3282999999999998,-0.0038437706017333045
0.3272999999999998,-0.003901773765027772
0.3262999999999998,-0.003965435773521698
0.3252999999999999,-0.004048903740213735
0.3242999999999999,-0.004088515656609956
0.3232999999999999,-0.004104077480908471
0.3222999999999999,-0.004153592376403748
0.3212999999999999,-0.004220083807497404
0.3202999999999999,-0.0042851605272911965
0.3192999999999999,-0.004336090134086337
0.3182999999999999,-0.004336090134086337
0.3172999999999999,-0.004362969648783773
0.3162999999999999,-0.004442193481576215
0.3152999999999999,-0.004505855490070141
0.3142999999999999,-0.004565273364664473
0.3132999999999999,-0.004573761632463663
0.3122999999999999,-0.004594982301961639
0.3112999999999999,-0.004667132578254756
0.3102999999999999,-0.004727965164148953
0.3092999999999999,-0.004770406503144903
0.3082999999999999,-0.004778894770944094
0.3072999999999999,-0.0048029448630417994
0.3062999999999999,-0.004872265716735186
0.3052999999999999,-0.004951489549527628
0.3042999999999999,-0.004981198486824794
0.3032999999999999,-0.00500241915632277
0.3022999999999999,-0.005009492712822095
0.3012999999999999,-0.005049104629218316
0.3002999999999999,-0.005133987307210219
0.2992999999999999,-0.005169355089706844
0.2982999999999999,-0.005177843357506035
0.2972999999999999,-0.0052273582530013105
0.2962999999999999,-0.005271214303297127
0.2952999999999999,-0.005356096981289029
0.2942999999999999,-0.005380147073386734
0.2932999999999999,-0.005392879475085519
0.2922999999999999,-0.005435320814081471
0.2912999999999999,-0.005470688596578096
0.2902999999999999,-0.005551327140670404
0.2892999999999999,-0.005588109634466895
0.2882999999999999,-0.00558103607796757
0.2872999999999999,-0.005609330303964871
0.2862999999999999,-0.005653186354260687
0.2852999999999999,-0.0057239219192539385
0.2842999999999999,-0.005764948546950025
0.2832999999999999,-0.005769192680849619
0.2822999999999999,-0.005804560463346245
0.2812999999999999,-0.0058314399780436815
0.2802999999999999,-0.005893687275237743
0.2792999999999999,-0.005938958036833424
0.2782999999999999,-0.005929055057734368
0.2772999999999999,-0.005964422840230995
0.2762999999999999,-0.005992717066228296
0.2752999999999999,-0.006066282053821277
0.2742999999999999,-0.006103064547617769
0.2732999999999999,-0.006093161568518714
0.2722999999999999,-0.006132773484914935
0.2712999999999999,-0.0061822883804102105
0.2702999999999999,-0.006241706255004542
0.2692999999999999,-0.006268585769701978
0.26829999999999987,-0.006284147594000493
0.26729999999999987,-0.006295465284399413
0.26629999999999987,-0.006320930087796984
0.26529999999999987,-0.00639873920928956
0.26429999999999987,-0.006427033435286861
0.26329999999999987,-0.006449668816084702
0.26229999999999987,-0.006455327661284162
0.26129999999999987,-0.006509086690679034
0.26029999999999986,-0.00656991927657323
0.25929999999999986,-0.006592554657371071
0.25829999999999986,-0.006618019460768641
0.25729999999999986,-0.006626507728567831
0.25629999999999986,-0.006650557820665538
0.25529999999999986,-0.006711390406559735
0.25429999999999986,-0.006753831745555685
0.25329999999999986,-0.00675807587945528
0.25229999999999986,-0.006790614239352176
0.25129999999999986,-0.0067991025071513665
0.25029999999999986,-0.006882570473843404
0.24929999999999986,-0.0069151088337402996
0.24829999999999985,-0.006898132298141919
0.24729999999999985,-0.006930670658038814
0.24629999999999985,-0.006956135461436385
0.24529999999999985,-0.007046676984627748
0.24429999999999985,-0.007077800633224779
0.24329999999999985,-0.0070650682315259936
0.24229999999999985,-0.007080630055824508
0.24129999999999985,-0.00710609485922208
0.24029999999999985,-0.007159853888616951
0.23929999999999985,-0.007209368784112226
0.23829999999999985,-0.0072065393615124975
0.23729999999999984,-0.007234833587509797
0.23629999999999984,-0.007277274926505748
0.23529999999999984,-0.0073126427090023744
0.23429999999999984,-0.00735366933669846
0.23329999999999984,-0.007374890006196436
0.23229999999999984,-0.007381963562695762
0.23129999999999984,-0.007413087211292792
0.23029999999999984,-0.007500799311884425
0.22929999999999984,-0.007527678826581859
0.22829999999999984,-0.007529093537881725
0.22729999999999984,-0.00751636113618294
0.22629999999999983,-0.00755597305257916
0.22529999999999983,-0.007623879194972683
0.22429999999999983,-0.007638026307971333
0.22329999999999983,-0.007667735245268498
0.22229999999999983,-0.007666320533968632
0.22129999999999983,-0.007686126492166745
0.22029999999999983,-0.0077752533040582415
0.21929999999999983,-0.007827597622153248
0.21829999999999983,-0.007812035797854733
0.21729999999999983,-0.007820524065653924
0.21629999999999983,-0.007841744735151899
0.21529999999999982,-0.00790682145494569
0.21429999999999982,-0.007928042124443665
0.21329999999999982,-0.007942189237442316
0.21229999999999982,-0.00795775106174083
0.21129999999999982,-0.007969068752139753
0.21029999999999982,-0.00804121902843287
0.20929999999999982,-0.008090733923928143
0.20829999999999982,-0.008063854409230709
0.20729999999999982,-0.00809214863522801
0.20629999999999982,-0.008096392769127604
0.20529999999999982,-0.008174201890620183
0.20429999999999982,-0.008222302074815594
0.20329999999999981,-0.008194007848818291
0.2022999999999998,-0.008223716786115458
0.2012999999999998,-0.00825484043471249
0.20029999999999992,-0.00831142888670709
0.19929999999999992,-0.008351040803103312
0.19829999999999992,-0.008346796669203717
0.19729999999999992,-0.008363773204802099
0.19629999999999992,-0.008403385121198318
0.19529999999999992,-0.00843450876979535
0.19429999999999992,-0.0085335385607859
0.19329999999999992,-0.00854202682858509
0.19229999999999992,-0.008515147313887656
0.19129999999999991,-0.008534953272085767
0.1902999999999999,-0.008591541724080368
0.1892999999999999,-0.008629738929176723
0.1882999999999999,-0.00863964190827578
0.1872999999999999,-0.00865378902127443
0.1862999999999999,-0.008672180268172675
0.1852999999999999,-0.008728768720167276
0.1842999999999999,-0.008761307080064173
0.1832999999999999,-0.008761307080064173
0.1822999999999999,-0.008761307080064173
0.1812999999999999,-0.008798089573860664
0.1802999999999999,-0.008864581004954318
0.1792999999999999,-0.008899948787450946
0.1782999999999999,-0.008907022343950272
0.1772999999999999,-0.008908437055250136
0.1762999999999999,-0.00892399887954865
0.1752999999999999,-0.009000393289741363
0.1742999999999999,-0.009023028670539205
0.1732999999999999,-0.009037175783537856
0.1722999999999999,-0.009041419917437449
0.1712999999999999,-0.009056981741735965
0.1702999999999999,-0.009124887884129487
0.1692999999999999,-0.009175817490924628
0.1682999999999999,-0.009172988068324898
0.1672999999999999,-0.009192794026523008
0.1662999999999999,-0.009192794026523008
0.1652999999999999,-0.00926070016891653
0.1642999999999999,-0.009305970930512211
0.1632999999999999,-0.00928050612711464
0.1622999999999999,-0.009303141507912482
0.1612999999999999,-0.009327191600010186
0.1602999999999999,-0.009378121206805328
0.1592999999999999,-0.0094318802362002
0.15829999999999989,-0.009424806679700873
0.15729999999999988,-0.009421977257101142
0.15629999999999988,-0.009453100905698175
0.15529999999999988,-0.009512518780292507
0.15429999999999988,-0.009566277809687378
0.15329999999999988,-0.009562033675787783
0.15229999999999988,-0.009566277809687378
0.15129999999999988,-0.009590327901785083
0.15029999999999988,-0.00964267221988009
0.14929999999999988,-0.009703504805774286
0.14829999999999988,-0.009699260671874693
0.14729999999999988,-0.009699260671874693
0.14629999999999987,-0.009714822496173206
0.14529999999999987,-0.009779899215966998
0.14429999999999987,-0.009802534596764839
0.14329999999999987,-0.0098364876679616
0.14229999999999987,-0.00985346420355998
0.14129999999999987,-0.00985912304875944
0.14029999999999987,-0.009924199768553231
0.13929999999999987,-0.009944005726751342
0.13829999999999987,-0.009969470530148914
0.13729999999999987,-0.009966641107549183
0.13629999999999987,-0.009982202931847697
0.13529999999999986,-0.01004727965164149
0.13429999999999986,-0.010075573877638792
0.13329999999999986,-0.010061426764640141
0.13229999999999986,-0.010091135701937308
0.13129999999999986,-0.01010103868103636
0.13029999999999986,-0.010157627133030964
0.12929999999999986,-0.010219874430225024
0.12829999999999986,-0.010222703852824755
0.12729999999999986,-0.010211386162425836
0.12629999999999986,-0.010225533275424485
0.12529999999999986,-0.010273633459619897
0.12429999999999986,-0.010350027869812609
0.12329999999999985,-0.010342954313313283
0.12229999999999985,-0.010350027869812609
0.12129999999999985,-0.01035285729241234
0.12029999999999985,-0.01040944574440694
0.11929999999999985,-0.010487254865899517
0.11829999999999985,-0.010487254865899517
0.11729999999999985,-0.010518378514496548
0.11629999999999985,-0.010552331585693308
0.11529999999999985,-0.010567893409991824
0.11429999999999985,-0.01062872599588602
0.11329999999999985,-0.010637214263685212
0.11229999999999984,-0.010627311284586155
0.11129999999999984,-0.010655605510583456
0.11029999999999984,-0.010707949828678464
0.10929999999999984,-0.01075180587897428
0.10829999999999984,-0.01076878241457266
0.10729999999999984,-0.010775855971071984
0.10629999999999984,-0.010788588372770769
0.10529999999999984,-0.010832444423066585
0.10429999999999984,-0.010898935854160243
0.10329999999999984,-0.010921571234958082
0.10229999999999984,-0.010911668255859028
0.10129999999999983,-0.010920156523658218
0.10029999999999983,-0.010975330264352956
0.09929999999999983,-0.011031918716347558
0.09829999999999983,-0.011044651118046341
0.09729999999999983,-0.011064457076244451
0.09629999999999983,-0.011060212942344856
0.09529999999999983,-0.011113971971739729
0.09429999999999983,-0.0111677310011346
0.09329999999999983,-0.011186122248032844
0.09229999999999983,-0.011198854649731629
0.09129999999999983,-0.01120734291753082
0.09029999999999982,-0.011280907905123802
0.08929999999999982,-0.011326178666719484
0.08829999999999982,-0.011343155202317863
0.08729999999999982,-0.01135022875881719
0.08629999999999982,-0.01135305818141692
0.08529999999999982,-0.011415305478610981
0.08429999999999982,-0.011471893930605584
0.08329999999999982,-0.011467649796705988
0.08229999999999982,-0.011491699888803693
0.08129999999999982,-0.011504432290502478
0.08029999999999982,-0.011555361897297618
0.07929999999999982,-0.011627512173590737
0.07829999999999981,-0.011648732843088714
0.07729999999999981,-0.011658635822187766
0.07629999999999981,-0.011661465244787497
0.07529999999999992,-0.011708150717683045
0.07429999999999992,-0.011787374550475486
0.07329999999999992,-0.011798692240874405
0.07229999999999992,-0.011807180508673597
0.07129999999999992,-0.01185245127026928
0.07029999999999992,-0.011893477897965363
0.06929999999999992,-0.01195713990645929
0.06829999999999992,-0.01196279875165875
0.06729999999999992,-0.011955725195159425
0.06629999999999991,-0.011979775287257131
0.06529999999999991,-0.012046266718350788
0.06429999999999991,-0.012105684592945119
0.06329999999999991,-0.012136808241542148
0.06229999999999991,-0.012132564107642555
0.06129999999999991,-0.012138222952842014
0.06029999999999991,-0.012200470250036077
0.05929999999999991,-0.012268376392429598
0.05829999999999991,-0.012295255907127035
0.05729999999999991,-0.012323550133124335
0.056299999999999906,-0.012337697246122985
0.055299999999999905,-0.012402773965916776
0.054299999999999904,-0.012456532995311648
0.0532999999999999,-0.012490486066508408
0.0522999999999999,-0.01250463317950706
0.0512999999999999,-0.012518780292505709
0.0502999999999999,-0.012558392208901932
0.0492999999999999,-0.012630542485195047
0.0482999999999999,-0.012639030752994237
0.0472999999999999,-0.012663080845091943
0.0462999999999999,-0.012677227958090592
0.045299999999999896,-0.012733816410085195
0.044299999999999895,-0.012790404862079796
0.043299999999999894,-0.012814454954177502
0.04229999999999989,-0.012838505046275208
0.04129999999999989,-0.012844163891474669
0.04029999999999989,-0.012933290703366164
0.03929999999999989,-0.012998367423159957
0.03829999999999989,-0.013011099824858742
0.03729999999999989,-0.013006855690959147
0.03629999999999989,-0.013030905783056851
0.03529999999999989,-0.013066273565553479
0.034299999999999886,-0.013149741532245515
0.033299999999999885,-0.013178035758242817
0.032299999999999884,-0.01319359758254133
0.031299999999999883,-0.013206329984240118
0.030299999999999883,-0.01325725959103526
0.02929999999999988,-0.01332233631082905
0.02829999999999988,-0.013360533515925407
0.02729999999999988,-0.013364777649825002
0.02629999999999988,-0.013388827741922706
0.025299999999999878,-0.013438342637417984
0.024299999999999877,-0.013517566470210424
0.023299999999999876,-0.01355010483010732
0.022299999999999875,-0.01355010483010732
0.021299999999999875,-0.01358688732390381
0.020299999999999874,-0.013643475775898415
0.019299999999999873,-0.013694405382693555
0.018299999999999872,-0.013729773165190182
0.01729999999999987,-0.013746749700788562
0.01629999999999987,-0.013766555658986672
0.01529999999999987,-0.013818899977081677
0.014299999999999868,-0.013888220830775067
0.013299999999999867,-0.01393773572627034
0.012299999999999978,-0.013953297550568856
0.011299999999999866,-0.013956126973168587
0.010299999999999976,-0.014002812446064133
0.009299999999999864,-0.014099012814454956
0.008299999999999974,-0.014120233483952931
0.007299999999999862,-0.014144283576050635
0.006299999999999972,-0.014147112998650365
0.00529999999999986,-0.014217848563643616
0.0042999999999999705,-0.014288584128636872
0.0032999999999998586,-0.014316878354634173
0.0022999999999999687,-0.014345172580631472
0.0012999999999998568,-0.014373466806628774
0.00029999999999996696,-0.014401761032626074
-0.000700000000000145,-0.014500790823616624
-0.0017000000000000348,-0.014514937936615275
-0.0027000000000001467,-0.014529085049613928
-0.0037000000000000366,-0.014557379275611227
-0.0047000000000001485,-0.01461396772760583
-0.005700000000000038,-0.014712997518596381
-0.00670000000000015,-0.014741291744593682
-0.00770000000000004,-0.014755438857592333
-0.008700000000000152,-0.014769585970590984
-0.009700000000000042,-0.014812027309586936
-0.010700000000000154,-0.014939351326574786
-0.011700000000000044,-0.014967645552572089
-0.012700000000000156,-0.014953498439573438
-0.013700000000000045,-0.014995939778569388
-0.014700000000000157,-0.01505252823056399
-0.015700000000000047,-0.015109116682558592
-0.01670000000000016,-0.015165705134553195
-0.01770000000000005,-0.015151558021554544
-0.01870000000000016,-0.015179852247551842
-0.01970000000000005,-0.015250587812545097
-0.020700000000000163,-0.015321323377538347
-0.021700000000000053,-0.0153637647165343
-0.022700000000000164,-0.0153637647165343
-0.023700000000000054,-0.015377911829532949
-0.024700000000000166,-0.01546279450752485
-0.025700000000000056,-0.015533530072518101
-0.026700000000000168,-0.015575971411514053
-0.027700000000000058,-0.015604265637511355
-0.02870000000000017,-0.015604265637511355
-0.02970000000000006,-0.015660854089505957
-0.03070000000000017,-0.015717442541500558
-0.03170000000000006,-0.015774030993495156
-0.03270000000000017,-0.01575988388049651
-0.03370000000000006,-0.01580232521949246
-0.034700000000000175,-0.01585891367148706
-0.035700000000000065,-0.015929649236480315
-0.03670000000000018,-0.015986237688474913
-0.03770000000000007,-0.01597209057547626
-0.03870000000000018,-0.016014531914472215
-0.03970000000000007,-0.016056973253468165
-0.04070000000000018,-0.016127708818461418
-0.04170000000000007,-0.016170150157457368
-0.04270000000000018,-0.01618429727045602
-0.04370000000000007,-0.01619844438345467
-0.044700000000000184,-0.01624088572245062
-0.045700000000000074,-0.016325768400442524
-0.046700000000000186,-0.01638235685243712
-0.047700000000000076,-0.01638235685243712
-0.04870000000000019,-0.016410651078434424
-0.04970000000000008,-0.01646723953042903
-0.05070000000000019,-0.016552122208420932
-0.05170000000000008,-0.01659456354741688
-0.05270000000000019,-0.01662285777341418
-0.05370000000000008,-0.016637004886412832
-0.05470000000000019,-0.01666529911241013
-0.05570000000000008,-0.016764328903400686
-0.056700000000000195,-0.016820917355395284
-0.057700000000000085,-0.01683506446839394
-0.058700000000000196,-0.016863358694391237
-0.059700000000000086,-0.016891652920388536
-0.0607000000000002,-0.016962388485381792
-0.06170000000000009,-0.01703312405037504
