Apr. 4, 2025   00:46:14
Cyclic Voltammetry
File: c:/users/guazh/data/banditlqround7_x0exp518_r20/2025-03-28-exp1035\exp1035-2025-04-04t00_34_59-h2koh\exp1035_cv_sr_600mvs_efin_-1500mv.bin
Data Source:  Experiment
Instrument Model:  CHI760E
Header: CV ran at 600 mVs
Note: 

Init E (V) = -1
High E (V) = -1
Low E (V) = -1.5
Final E (V) = -1
Init P/N = N
Scan Rate (V/s) = 0.6
Segment = 3
Sample Interval (V) = 0.001
Quiet Time (sec) = 2
Sensitivity (A/V) = 0.01
Comp R (ohm) = 1.9

Results:

Channel 1:
Segment 1:

Segment 2:

Segment 3:

Potential/V, Current/A

-1.000, -2.759e-5
-1.001, 5.873e-5
-1.002, 1.296e-4
-1.003, 1.821e-4
-1.004, 2.283e-4
-1.005, 2.684e-4
-1.006, 3.023e-4
-1.007, 3.300e-4
-1.008, 3.547e-4
-1.009, 3.794e-4
-1.010, 4.010e-4
-1.011, 4.195e-4
-1.012, 4.410e-4
-1.013, 4.626e-4
-1.014, 4.811e-4
-1.015, 4.965e-4
-1.016, 5.120e-4
-1.017, 5.274e-4
-1.018, 5.397e-4
-1.019, 5.520e-4
-1.020, 5.644e-4
-1.021, 5.767e-4
-1.022, 5.921e-4
-1.023, 6.075e-4
-1.024, 6.229e-4
-1.025, 6.353e-4
-1.026, 6.476e-4
-1.027, 6.569e-4
-1.028, 6.661e-4
-1.029, 6.754e-4
-1.030, 6.877e-4
-1.031, 7.000e-4
-1.032, 7.124e-4
-1.033, 7.247e-4
-1.034, 7.401e-4
-1.035, 7.524e-4
-1.036, 7.648e-4
-1.037, 7.740e-4
-1.038, 7.863e-4
-1.039, 7.956e-4
-1.040, 8.079e-4
-1.041, 8.203e-4
-1.042, 8.326e-4
-1.043, 8.480e-4
-1.044, 8.634e-4
-1.045, 8.727e-4
-1.046, 8.850e-4
-1.047, 8.973e-4
-1.048, 9.097e-4
-1.049, 9.189e-4
-1.050, 9.313e-4
-1.051, 9.436e-4
-1.052, 9.590e-4
-1.053, 9.744e-4
-1.054, 9.898e-4
-1.055, 1.002e-3
-1.056, 1.014e-3
-1.057, 1.027e-3
-1.058, 1.039e-3
-1.059, 1.048e-3
-1.060, 1.064e-3
-1.061, 1.076e-3
-1.062, 1.092e-3
-1.063, 1.107e-3
-1.064, 1.125e-3
-1.065, 1.141e-3
-1.066, 1.153e-3
-1.067, 1.166e-3
-1.068, 1.178e-3
-1.069, 1.190e-3
-1.070, 1.203e-3
-1.071, 1.215e-3
-1.072, 1.227e-3
-1.073, 1.246e-3
-1.074, 1.261e-3
-1.075, 1.280e-3
-1.076, 1.295e-3
-1.077, 1.307e-3
-1.078, 1.320e-3
-1.079, 1.332e-3
-1.080, 1.344e-3
-1.081, 1.360e-3
-1.082, 1.375e-3
-1.083, 1.391e-3
-1.084, 1.406e-3
-1.085, 1.421e-3
-1.086, 1.437e-3
-1.087, 1.449e-3
-1.088, 1.462e-3
-1.089, 1.474e-3
-1.090, 1.486e-3
-1.091, 1.502e-3
-1.092, 1.517e-3
-1.093, 1.532e-3
-1.094, 1.551e-3
-1.095, 1.566e-3
-1.096, 1.579e-3
-1.097, 1.594e-3
-1.098, 1.606e-3
-1.099, 1.619e-3
-1.100, 1.634e-3
-1.101, 1.650e-3
-1.102, 1.668e-3
-1.103, 1.684e-3
-1.104, 1.699e-3
-1.105, 1.714e-3
-1.106, 1.724e-3
-1.107, 1.736e-3
-1.108, 1.745e-3
-1.109, 1.758e-3
-1.110, 1.770e-3
-1.111, 1.785e-3
-1.112, 1.804e-3
-1.113, 1.819e-3
-1.114, 1.838e-3
-1.115, 1.853e-3
-1.116, 1.865e-3
-1.117, 1.878e-3
-1.118, 1.887e-3
-1.119, 1.896e-3
-1.120, 1.909e-3
-1.121, 1.924e-3
-1.122, 1.939e-3
-1.123, 1.952e-3
-1.124, 1.967e-3
-1.125, 1.976e-3
-1.126, 1.986e-3
-1.127, 1.998e-3
-1.128, 2.010e-3
-1.129, 2.023e-3
-1.130, 2.035e-3
-1.131, 2.050e-3
-1.132, 2.069e-3
-1.133, 2.084e-3
-1.134, 2.097e-3
-1.135, 2.106e-3
-1.136, 2.115e-3
-1.137, 2.121e-3
-1.138, 2.131e-3
-1.139, 2.137e-3
-1.140, 2.149e-3
-1.141, 2.161e-3
-1.142, 2.180e-3
-1.143, 2.195e-3
-1.144, 2.211e-3
-1.145, 2.223e-3
-1.146, 2.232e-3
-1.147, 2.242e-3
-1.148, 2.251e-3
-1.149, 2.260e-3
-1.150, 2.269e-3
-1.151, 2.282e-3
-1.152, 2.294e-3
-1.153, 2.306e-3
-1.154, 2.319e-3
-1.155, 2.328e-3
-1.156, 2.337e-3
-1.157, 2.346e-3
-1.158, 2.356e-3
-1.159, 2.365e-3
-1.160, 2.374e-3
-1.161, 2.386e-3
-1.162, 2.402e-3
-1.163, 2.417e-3
-1.164, 2.430e-3
-1.165, 2.442e-3
-1.166, 2.451e-3
-1.167, 2.460e-3
-1.168, 2.470e-3
-1.169, 2.479e-3
-1.170, 2.488e-3
-1.171, 2.497e-3
-1.172, 2.510e-3
-1.173, 2.525e-3
-1.174, 2.541e-3
-1.175, 2.553e-3
-1.176, 2.562e-3
-1.177, 2.571e-3
-1.178, 2.584e-3
-1.179, 2.590e-3
-1.180, 2.599e-3
-1.181, 2.608e-3
-1.182, 2.621e-3
-1.183, 2.633e-3
-1.184, 2.645e-3
-1.185, 2.655e-3
-1.186, 2.664e-3
-1.187, 2.670e-3
-1.188, 2.679e-3
-1.189, 2.686e-3
-1.190, 2.698e-3
-1.191, 2.707e-3
-1.192, 2.719e-3
-1.193, 2.735e-3
-1.194, 2.747e-3
-1.195, 2.760e-3
-1.196, 2.769e-3
-1.197, 2.775e-3
-1.198, 2.781e-3
-1.199, 2.787e-3
-1.200, 2.793e-3
-1.201, 2.803e-3
-1.202, 2.815e-3
-1.203, 2.830e-3
-1.204, 2.846e-3
-1.205, 2.858e-3
-1.206, 2.871e-3
-1.207, 2.880e-3
-1.208, 2.886e-3
-1.209, 2.892e-3
-1.210, 2.895e-3
-1.211, 2.901e-3
-1.212, 2.911e-3
-1.213, 2.920e-3
-1.214, 2.932e-3
-1.215, 2.945e-3
-1.216, 2.954e-3
-1.217, 2.963e-3
-1.218, 2.972e-3
-1.219, 2.978e-3
-1.220, 2.988e-3
-1.221, 2.997e-3
-1.222, 3.006e-3
-1.223, 3.019e-3
-1.224, 3.028e-3
-1.225, 3.040e-3
-1.226, 3.043e-3
-1.227, 3.052e-3
-1.228, 3.059e-3
-1.229, 3.065e-3
-1.230, 3.071e-3
-1.231, 3.077e-3
-1.232, 3.086e-3
-1.233, 3.093e-3
-1.234, 3.102e-3
-1.235, 3.108e-3
-1.236, 3.114e-3
-1.237, 3.120e-3
-1.238, 3.123e-3
-1.239, 3.126e-3
-1.240, 3.133e-3
-1.241, 3.142e-3
-1.242, 3.148e-3
-1.243, 3.154e-3
-1.244, 3.163e-3
-1.245, 3.167e-3
-1.246, 3.173e-3
-1.247, 3.176e-3
-1.248, 3.176e-3
-1.249, 3.179e-3
-1.250, 3.182e-3
-1.251, 3.182e-3
-1.252, 3.188e-3
-1.253, 3.191e-3
-1.254, 3.197e-3
-1.255, 3.200e-3
-1.256, 3.204e-3
-1.257, 3.207e-3
-1.258, 3.207e-3
-1.259, 3.207e-3
-1.260, 3.207e-3
-1.261, 3.207e-3
-1.262, 3.207e-3
-1.263, 3.207e-3
-1.264, 3.204e-3
-1.265, 3.204e-3
-1.266, 3.200e-3
-1.267, 3.197e-3
-1.268, 3.191e-3
-1.269, 3.185e-3
-1.270, 3.182e-3
-1.271, 3.182e-3
-1.272, 3.185e-3
-1.273, 3.185e-3
-1.274, 3.185e-3
-1.275, 3.185e-3
-1.276, 3.182e-3
-1.277, 3.176e-3
-1.278, 3.170e-3
-1.279, 3.160e-3
-1.280, 3.151e-3
-1.281, 3.145e-3
-1.282, 3.139e-3
-1.283, 3.136e-3
-1.284, 3.130e-3
-1.285, 3.123e-3
-1.286, 3.117e-3
-1.287, 3.111e-3
-1.288, 3.105e-3
-1.289, 3.099e-3
-1.290, 3.093e-3
-1.291, 3.086e-3
-1.292, 3.083e-3
-1.293, 3.077e-3
-1.294, 3.068e-3
-1.295, 3.059e-3
-1.296, 3.049e-3
-1.297, 3.046e-3
-1.298, 3.040e-3
-1.299, 3.031e-3
-1.300, 3.025e-3
-1.301, 3.019e-3
-1.302, 3.009e-3
-1.303, 3.003e-3
-1.304, 2.994e-3
-1.305, 2.982e-3
-1.306, 2.969e-3
-1.307, 2.951e-3
-1.308, 2.935e-3
-1.309, 2.917e-3
-1.310, 2.901e-3
-1.311, 2.886e-3
-1.312, 2.871e-3
-1.313, 2.861e-3
-1.314, 2.852e-3
-1.315, 2.840e-3
-1.316, 2.834e-3
-1.317, 2.827e-3
-1.318, 2.818e-3
-1.319, 2.803e-3
-1.320, 2.790e-3
-1.321, 2.778e-3
-1.322, 2.763e-3
-1.323, 2.750e-3
-1.324, 2.738e-3
-1.325, 2.723e-3
-1.326, 2.707e-3
-1.327, 2.692e-3
-1.328, 2.676e-3
-1.329, 2.661e-3
-1.330, 2.649e-3
-1.331, 2.636e-3
-1.332, 2.624e-3
-1.333, 2.612e-3
-1.334, 2.605e-3
-1.335, 2.593e-3
-1.336, 2.581e-3
-1.337, 2.568e-3
-1.338, 2.556e-3
-1.339, 2.538e-3
-1.340, 2.525e-3
-1.341, 2.513e-3
-1.342, 2.504e-3
-1.343, 2.494e-3
-1.344, 2.488e-3
-1.345, 2.479e-3
-1.346, 2.467e-3
-1.347, 2.454e-3
-1.348, 2.442e-3
-1.349, 2.427e-3
-1.350, 2.414e-3
-1.351, 2.402e-3
-1.352, 2.390e-3
-1.353, 2.380e-3
-1.354, 2.371e-3
-1.355, 2.359e-3
-1.356, 2.349e-3
-1.357, 2.340e-3
-1.358, 2.334e-3
-1.359, 2.325e-3
-1.360, 2.319e-3
-1.361, 2.312e-3
-1.362, 2.309e-3
-1.363, 2.306e-3
-1.364, 2.300e-3
-1.365, 2.294e-3
-1.366, 2.285e-3
-1.367, 2.275e-3
-1.368, 2.269e-3
-1.369, 2.263e-3
-1.370, 2.254e-3
-1.371, 2.251e-3
-1.372, 2.248e-3
-1.373, 2.245e-3
-1.374, 2.242e-3
-1.375, 2.238e-3
-1.376, 2.229e-3
-1.377, 2.226e-3
-1.378, 2.220e-3
-1.379, 2.217e-3
-1.380, 2.217e-3
-1.381, 2.214e-3
-1.382, 2.217e-3
-1.383, 2.220e-3
-1.384, 2.220e-3
-1.385, 2.220e-3
-1.386, 2.217e-3
-1.387, 2.214e-3
-1.388, 2.211e-3
-1.389, 2.208e-3
-1.390, 2.208e-3
-1.391, 2.208e-3
-1.392, 2.211e-3
-1.393, 2.217e-3
-1.394, 2.223e-3
-1.395, 2.232e-3
-1.396, 2.235e-3
-1.397, 2.238e-3
-1.398, 2.242e-3
-1.399, 2.245e-3
-1.400, 2.245e-3
-1.401, 2.248e-3
-1.402, 2.251e-3
-1.403, 2.257e-3
-1.404, 2.263e-3
-1.405, 2.269e-3
-1.406, 2.279e-3
-1.407, 2.285e-3
-1.408, 2.291e-3
-1.409, 2.297e-3
-1.410, 2.303e-3
-1.411, 2.309e-3
-1.412, 2.319e-3
-1.413, 2.325e-3
-1.414, 2.334e-3
-1.415, 2.343e-3
-1.416, 2.349e-3
-1.417, 2.359e-3
-1.418, 2.368e-3
-1.419, 2.380e-3
-1.420, 2.396e-3
-1.421, 2.408e-3
-1.422, 2.423e-3
-1.423, 2.439e-3
-1.424, 2.454e-3
-1.425, 2.464e-3
-1.426, 2.473e-3
-1.427, 2.479e-3
-1.428, 2.482e-3
-1.429, 2.491e-3
-1.430, 2.501e-3
-1.431, 2.513e-3
-1.432, 2.531e-3
-1.433, 2.550e-3
-1.434, 2.568e-3
-1.435, 2.587e-3
-1.436, 2.605e-3
-1.437, 2.621e-3
-1.438, 2.633e-3
-1.439, 2.649e-3
-1.440, 2.661e-3
-1.441, 2.676e-3
-1.442, 2.689e-3
-1.443, 2.701e-3
-1.444, 2.716e-3
-1.445, 2.732e-3
-1.446, 2.747e-3
-1.447, 2.763e-3
-1.448, 2.775e-3
-1.449, 2.787e-3
-1.450, 2.806e-3
-1.451, 2.821e-3
-1.452, 2.843e-3
-1.453, 2.864e-3
-1.454, 2.883e-3
-1.455, 2.901e-3
-1.456, 2.917e-3
-1.457, 2.935e-3
-1.458, 2.951e-3
-1.459, 2.969e-3
-1.460, 2.991e-3
-1.461, 3.012e-3
-1.462, 3.037e-3
-1.463, 3.059e-3
-1.464, 3.083e-3
-1.465, 3.102e-3
-1.466, 3.123e-3
-1.467, 3.136e-3
-1.468, 3.151e-3
-1.469, 3.163e-3
-1.470, 3.182e-3
-1.471, 3.207e-3
-1.472, 3.234e-3
-1.473, 3.265e-3
-1.474, 3.299e-3
-1.475, 3.327e-3
-1.476, 3.355e-3
-1.477, 3.376e-3
-1.478, 3.398e-3
-1.479, 3.416e-3
-1.480, 3.435e-3
-1.481, 3.456e-3
-1.482, 3.484e-3
-1.483, 3.515e-3
-1.484, 3.549e-3
-1.485, 3.586e-3
-1.486, 3.623e-3
-1.487, 3.654e-3
-1.488, 3.684e-3
-1.489, 3.715e-3
-1.490, 3.743e-3
-1.491, 3.774e-3
-1.492, 3.808e-3
-1.493, 3.842e-3
-1.494, 3.885e-3
-1.495, 3.931e-3
-1.496, 3.980e-3
-1.497, 4.030e-3
-1.498, 4.079e-3
-1.499, 4.128e-3
-1.500, 4.101e-3
-1.499, 3.965e-3
-1.498, 3.866e-3
-1.497, 3.795e-3
-1.496, 3.731e-3
-1.495, 3.675e-3
-1.494, 3.629e-3
-1.493, 3.583e-3
-1.492, 3.540e-3
-1.491, 3.503e-3
-1.490, 3.469e-3
-1.489, 3.438e-3
-1.488, 3.410e-3
-1.487, 3.385e-3
-1.486, 3.361e-3
-1.485, 3.339e-3
-1.484, 3.314e-3
-1.483, 3.290e-3
-1.482, 3.265e-3
-1.481, 3.237e-3
-1.480, 3.210e-3
-1.479, 3.182e-3
-1.478, 3.157e-3
-1.477, 3.133e-3
-1.476, 3.108e-3
-1.475, 3.083e-3
-1.474, 3.059e-3
-1.473, 3.031e-3
-1.472, 3.003e-3
-1.471, 2.975e-3
-1.470, 2.948e-3
-1.469, 2.923e-3
-1.468, 2.898e-3
-1.467, 2.871e-3
-1.466, 2.846e-3
-1.465, 2.815e-3
-1.464, 2.787e-3
-1.463, 2.756e-3
-1.462, 2.726e-3
-1.461, 2.695e-3
-1.460, 2.664e-3
-1.459, 2.633e-3
-1.458, 2.602e-3
-1.457, 2.571e-3
-1.456, 2.544e-3
-1.455, 2.510e-3
-1.454, 2.476e-3
-1.453, 2.442e-3
-1.452, 2.408e-3
-1.451, 2.371e-3
-1.450, 2.334e-3
-1.449, 2.303e-3
-1.448, 2.269e-3
-1.447, 2.235e-3
-1.446, 2.205e-3
-1.445, 2.171e-3
-1.444, 2.134e-3
-1.443, 2.097e-3
-1.442, 2.060e-3
-1.441, 2.023e-3
-1.440, 1.986e-3
-1.439, 1.952e-3
-1.438, 1.918e-3
-1.437, 1.887e-3
-1.436, 1.853e-3
-1.435, 1.819e-3
-1.434, 1.785e-3
-1.433, 1.748e-3
-1.432, 1.708e-3
-1.431, 1.671e-3
-1.430, 1.634e-3
-1.429, 1.600e-3
-1.428, 1.566e-3
-1.427, 1.536e-3
-1.426, 1.502e-3
-1.425, 1.471e-3
-1.424, 1.437e-3
-1.423, 1.400e-3
-1.422, 1.366e-3
-1.421, 1.332e-3
-1.420, 1.298e-3
-1.419, 1.264e-3
-1.418, 1.233e-3
-1.417, 1.203e-3
-1.416, 1.175e-3
-1.415, 1.141e-3
-1.414, 1.110e-3
-1.413, 1.076e-3
-1.412, 1.045e-3
-1.411, 1.014e-3
-1.410, 9.837e-4
-1.409, 9.528e-4
-1.408, 9.251e-4
-1.407, 8.973e-4
-1.406, 8.696e-4
-1.405, 8.418e-4
-1.404, 8.110e-4
-1.403, 7.833e-4
-1.402, 7.524e-4
-1.401, 7.247e-4
-1.400, 6.969e-4
-1.399, 6.692e-4
-1.398, 6.445e-4
-1.397, 6.199e-4
-1.396, 5.983e-4
-1.395, 5.767e-4
-1.394, 5.520e-4
-1.393, 5.243e-4
-1.392, 4.996e-4
-1.391, 4.719e-4
-1.390, 4.472e-4
-1.389, 4.256e-4
-1.388, 4.040e-4
-1.387, 3.825e-4
-1.386, 3.640e-4
-1.385, 3.424e-4
-1.384, 3.208e-4
-1.383, 2.992e-4
-1.382, 2.776e-4
-1.381, 2.561e-4
-1.380, 2.345e-4
-1.379, 2.160e-4
-1.378, 1.975e-4
-1.377, 1.790e-4
-1.376, 1.636e-4
-1.375, 1.451e-4
-1.374, 1.266e-4
-1.373, 1.111e-4
-1.372, 8.957e-5
-1.371, 7.107e-5
-1.370, 5.257e-5
-1.369, 3.715e-5
-1.368, 2.174e-5
-1.367, 6.322e-6
-1.366, -6.010e-6
-1.365, -2.143e-5
-1.364, -3.684e-5
-1.363, -5.226e-5
-1.362, -6.767e-5
-1.361, -8.617e-5
-1.360, -9.850e-5
-1.359, -1.139e-4
-1.358, -1.263e-4
-1.357, -1.355e-4
-1.356, -1.478e-4
-1.355, -1.602e-4
-1.354, -1.725e-4
-1.353, -1.848e-4
-1.352, -2.002e-4
-1.351, -2.126e-4
-1.350, -2.280e-4
-1.349, -2.372e-4
-1.348, -2.496e-4
-1.347, -2.557e-4
-1.346, -2.650e-4
-1.345, -2.773e-4
-1.344, -2.866e-4
-1.343, -2.989e-4
-1.342, -3.112e-4
-1.341, -3.236e-4
-1.340, -3.328e-4
-1.339, -3.452e-4
-1.338, -3.513e-4
-1.337, -3.606e-4
-1.336, -3.637e-4
-1.335, -3.729e-4
-1.334, -3.821e-4
-1.333, -3.914e-4
-1.332, -4.037e-4
-1.331, -4.130e-4
-1.330, -4.222e-4
-1.329, -4.315e-4
-1.328, -4.376e-4
-1.327, -4.438e-4
-1.326, -4.500e-4
-1.325, -4.561e-4
-1.324, -4.654e-4
-1.323, -4.746e-4
-1.322, -4.839e-4
-1.321, -4.931e-4
-1.320, -5.024e-4
-1.319, -5.086e-4
-1.318, -5.147e-4
-1.317, -5.178e-4
-1.316, -5.240e-4
-1.315, -5.301e-4
-1.314, -5.363e-4
-1.313, -5.456e-4
-1.312, -5.517e-4
-1.311, -5.610e-4
-1.310, -5.671e-4
-1.309, -5.733e-4
-1.308, -5.795e-4
-1.307, -5.856e-4
-1.306, -5.887e-4
-1.305, -5.949e-4
-1.304, -6.011e-4
-1.303, -6.072e-4
-1.302, -6.165e-4
-1.301, -6.226e-4
-1.300, -6.288e-4
-1.299, -6.350e-4
-1.298, -6.380e-4
-1.297, -6.442e-4
-1.296, -6.473e-4
-1.295, -6.535e-4
-1.294, -6.565e-4
-1.293, -6.658e-4
-1.292, -6.720e-4
-1.291, -6.812e-4
-1.290, -6.874e-4
-1.289, -6.935e-4
-1.288, -6.997e-4
-1.287, -7.028e-4
-1.286, -7.059e-4
-1.285, -7.090e-4
-1.284, -7.151e-4
-1.283, -7.182e-4
-1.282, -7.244e-4
-1.281, -7.336e-4
-1.280, -7.398e-4
-1.279, -7.460e-4
-1.278, -7.490e-4
-1.277, -7.552e-4
-1.276, -7.583e-4
-1.275, -7.645e-4
-1.274, -7.706e-4
-1.273, -7.768e-4
-1.272, -7.799e-4
-1.271, -7.891e-4
-1.270, -7.922e-4
-1.269, -7.984e-4
-1.268, -8.045e-4
-1.267, -8.076e-4
-1.266, -8.107e-4
-1.265, -8.169e-4
-1.264, -8.200e-4
-1.263, -8.261e-4
-1.262, -8.323e-4
-1.261, -8.415e-4
-1.260, -8.508e-4
-1.259, -8.569e-4
-1.258, -8.631e-4
-1.257, -8.662e-4
-1.256, -8.724e-4
-1.255, -8.754e-4
-1.254, -8.785e-4
-1.253, -8.816e-4
-1.252, -8.878e-4
-1.251, -8.939e-4
-1.250, -9.001e-4
-1.249, -9.063e-4
-1.248, -9.094e-4
-1.247, -9.155e-4
-1.246, -9.217e-4
-1.245, -9.279e-4
-1.244, -9.340e-4
-1.243, -9.433e-4
-1.242, -9.494e-4
-1.241, -9.587e-4
-1.240, -9.618e-4
-1.239, -9.679e-4
-1.238, -9.710e-4
-1.237, -9.741e-4
-1.236, -9.803e-4
-1.235, -9.834e-4
-1.234, -9.895e-4
-1.233, -9.988e-4
-1.232, -1.005e-3
-1.231, -1.014e-3
-1.230, -1.020e-3
-1.229, -1.030e-3
-1.228, -1.036e-3
-1.227, -1.039e-3
-1.226, -1.042e-3
-1.225, -1.048e-3
-1.224, -1.054e-3
-1.223, -1.060e-3
-1.222, -1.070e-3
-1.221, -1.076e-3
-1.220, -1.085e-3
-1.219, -1.088e-3
-1.218, -1.094e-3
-1.217, -1.101e-3
-1.216, -1.104e-3
-1.215, -1.110e-3
-1.214, -1.116e-3
-1.213, -1.125e-3
-1.212, -1.131e-3
-1.211, -1.141e-3
-1.210, -1.150e-3
-1.209, -1.156e-3
-1.208, -1.162e-3
-1.207, -1.165e-3
-1.206, -1.171e-3
-1.205, -1.175e-3
-1.204, -1.184e-3
-1.203, -1.193e-3
-1.202, -1.202e-3
-1.201, -1.212e-3
-1.200, -1.221e-3
-1.199, -1.230e-3
-1.198, -1.236e-3
-1.197, -1.242e-3
-1.196, -1.245e-3
-1.195, -1.255e-3
-1.194, -1.261e-3
-1.193, -1.270e-3
-1.192, -1.279e-3
-1.191, -1.292e-3
-1.190, -1.298e-3
-1.189, -1.307e-3
-1.188, -1.316e-3
-1.187, -1.322e-3
-1.186, -1.329e-3
-1.185, -1.338e-3
-1.184, -1.347e-3
-1.183, -1.356e-3
-1.182, -1.369e-3
-1.181, -1.378e-3
-1.180, -1.387e-3
-1.179, -1.396e-3
-1.178, -1.406e-3
-1.177, -1.415e-3
-1.176, -1.421e-3
-1.175, -1.430e-3
-1.174, -1.440e-3
-1.173, -1.449e-3
-1.172, -1.461e-3
-1.171, -1.474e-3
-1.170, -1.483e-3
-1.169, -1.492e-3
-1.168, -1.498e-3
-1.167, -1.511e-3
-1.166, -1.517e-3
-1.165, -1.523e-3
-1.164, -1.535e-3
-1.163, -1.548e-3
-1.162, -1.560e-3
-1.161, -1.572e-3
-1.160, -1.581e-3
-1.159, -1.594e-3
-1.158, -1.603e-3
-1.157, -1.609e-3
-1.156, -1.618e-3
-1.155, -1.628e-3
-1.154, -1.640e-3
-1.153, -1.652e-3
-1.152, -1.665e-3
-1.151, -1.677e-3
-1.150, -1.689e-3
-1.149, -1.699e-3
-1.148, -1.708e-3
-1.147, -1.714e-3
-1.146, -1.723e-3
-1.145, -1.736e-3
-1.144, -1.748e-3
-1.143, -1.763e-3
-1.142, -1.779e-3
-1.141, -1.794e-3
-1.140, -1.807e-3
-1.139, -1.819e-3
-1.138, -1.828e-3
-1.137, -1.834e-3
-1.136, -1.840e-3
-1.135, -1.850e-3
-1.134, -1.859e-3
-1.133, -1.868e-3
-1.132, -1.881e-3
-1.131, -1.893e-3
-1.130, -1.905e-3
-1.129, -1.918e-3
-1.128, -1.927e-3
-1.127, -1.939e-3
-1.126, -1.948e-3
-1.125, -1.955e-3
-1.124, -1.967e-3
-1.123, -1.976e-3
-1.122, -1.988e-3
-1.121, -2.001e-3
-1.120, -2.013e-3
-1.119, -2.025e-3
-1.118, -2.038e-3
-1.117, -2.047e-3
-1.116, -2.059e-3
-1.115, -2.069e-3
-1.114, -2.081e-3
-1.113, -2.093e-3
-1.112, -2.106e-3
-1.111, -2.118e-3
-1.110, -2.130e-3
-1.109, -2.140e-3
-1.108, -2.149e-3
-1.107, -2.155e-3
-1.106, -2.164e-3
-1.105, -2.173e-3
-1.104, -2.186e-3
-1.103, -2.198e-3
-1.102, -2.210e-3
-1.101, -2.229e-3
-1.100, -2.241e-3
-1.099, -2.251e-3
-1.098, -2.260e-3
-1.097, -2.269e-3
-1.096, -2.278e-3
-1.095, -2.284e-3
-1.094, -2.294e-3
-1.093, -2.306e-3
-1.092, -2.318e-3
-1.091, -2.337e-3
-1.090, -2.349e-3
-1.089, -2.362e-3
-1.088, -2.374e-3
-1.087, -2.383e-3
-1.086, -2.389e-3
-1.085, -2.399e-3
-1.084, -2.408e-3
-1.083, -2.414e-3
-1.082, -2.426e-3
-1.081, -2.436e-3
-1.080, -2.445e-3
-1.079, -2.457e-3
-1.078, -2.463e-3
-1.077, -2.476e-3
-1.076, -2.488e-3
-1.075, -2.497e-3
-1.074, -2.509e-3
-1.073, -2.522e-3
-1.072, -2.534e-3
-1.071, -2.546e-3
-1.070, -2.556e-3
-1.069, -2.562e-3
-1.068, -2.568e-3
-1.067, -2.571e-3
-1.066, -2.577e-3
-1.065, -2.583e-3
-1.064, -2.590e-3
-1.063, -2.599e-3
-1.062, -2.611e-3
-1.061, -2.620e-3
-1.060, -2.633e-3
-1.059, -2.642e-3
-1.058, -2.651e-3
-1.057, -2.661e-3
-1.056, -2.670e-3
-1.055, -2.679e-3
-1.054, -2.691e-3
-1.053, -2.698e-3
-1.052, -2.707e-3
-1.051, -2.716e-3
-1.050, -2.725e-3
-1.049, -2.735e-3
-1.048, -2.741e-3
-1.047, -2.750e-3
-1.046, -2.759e-3
-1.045, -2.768e-3
-1.044, -2.778e-3
-1.043, -2.787e-3
-1.042, -2.796e-3
-1.041, -2.809e-3
-1.040, -2.815e-3
-1.039, -2.824e-3
-1.038, -2.833e-3
-1.037, -2.839e-3
-1.036, -2.849e-3
-1.035, -2.858e-3
-1.034, -2.867e-3
-1.033, -2.879e-3
-1.032, -2.892e-3
-1.031, -2.907e-3
-1.030, -2.913e-3
-1.029, -2.923e-3
-1.028, -2.929e-3
-1.027, -2.932e-3
-1.026, -2.935e-3
-1.025, -2.941e-3
-1.024, -2.950e-3
-1.023, -2.960e-3
-1.022, -2.969e-3
-1.021, -2.981e-3
-1.020, -2.990e-3
-1.019, -3.000e-3
-1.018, -3.006e-3
-1.017, -3.012e-3
-1.016, -3.018e-3
-1.015, -3.024e-3
-1.014, -3.034e-3
-1.013, -3.040e-3
-1.012, -3.049e-3
-1.011, -3.058e-3
-1.010, -3.071e-3
-1.009, -3.077e-3
-1.008, -3.086e-3
-1.007, -3.092e-3
-1.006, -3.095e-3
-1.005, -3.101e-3
-1.004, -3.108e-3
-1.003, -3.114e-3
-1.002, -3.123e-3
-1.001, -3.132e-3
