Potential V vs RHE, Current mA cm-2
0.013299999999999867,0.3903188476327636
0.012299999999999978,-0.7872868383748929
0.011299999999999866,-1.6156003044458718
0.010299999999999976,-2.3569090255751513
0.009299999999999864,-2.968064307116847
0.008299999999999974,-3.447651437771094
0.007299999999999862,-3.840941179133574
0.006299999999999972,-4.1889601589003735
0.00529999999999986,-4.494537799671222
0.0042999999999999705,-4.800115440442069
0.0032999999999998586,-5.0618370309171015
0.0022999999999999687,-5.367414671687949
0.0012999999999998568,-5.629136262162981
0.00029999999999996696,-5.847001802342197
-0.000700000000000145,-6.064867342521412
-0.0017000000000000348,-6.282732882700628
-0.0027000000000001467,-6.458157083883892
-0.0037000000000000366,-6.588310523471475
-0.0047000000000001485,-6.762320013354876
-0.005700000000000038,-6.981600264833956
-0.00670000000000015,-7.155609754717355
-0.00770000000000004,-7.37347529489657
-0.008700000000000152,-7.5474847847799715
-0.009700000000000042,-7.679052935667419
-0.010700000000000154,-7.809206375255003
-0.011700000000000044,-7.940774526142452
-0.012700000000000156,-8.070927965730034
-0.013700000000000045,-8.246352166913299
-0.014700000000000157,-8.464217707092514
-0.015700000000000047,-8.594371146680096
-0.01670000000000016,-8.769795347863363
-0.01770000000000005,-8.899948787450944
-0.01870000000000016,-9.031516938338395
-0.01970000000000005,-9.161670377925978
-0.020700000000000163,-9.24938247851761
-0.021700000000000053,-9.423391968401008
-0.022700000000000164,-9.59740145828441
-0.023700000000000054,-9.772825659467674
-0.024700000000000166,-9.946835149351072
-0.025700000000000056,-10.078403300238522
-0.026700000000000168,-10.208556739826104
-0.027700000000000058,-10.340124890713554
-0.02870000000000017,-10.470278330301136
-0.02970000000000006,-10.601846481188586
-0.03070000000000017,-10.775855971071984
-0.03170000000000006,-10.993721511251199
-0.03270000000000017,-11.1677310011346
-0.03370000000000006,-11.343155202317865
-0.034700000000000175,-11.517164692201263
-0.035700000000000065,-11.647318131788847
-0.03670000000000018,-11.778886282676295
-0.03770000000000007,-11.909039722263879
-0.03870000000000018,-12.084463923447142
-0.03970000000000007,-12.258473413330542
-0.04070000000000018,-12.520195003805576
-0.04170000000000007,-12.694204493688973
-0.04270000000000018,-12.825772644576423
-0.04370000000000007,-12.99978213445982
-0.044700000000000184,-13.175206335643086
-0.045700000000000074,-13.30535977523067
-0.046700000000000186,-13.47936926511407
-0.047700000000000076,-13.654793466297335
-0.04870000000000019,-13.872659006476551
-0.04970000000000008,-14.046668496359947
-0.05070000000000019,-14.217848563643619
-0.05170000000000008,-14.444202371622024
-0.05270000000000019,-14.61396772760583
-0.05370000000000008,-14.741291744593681
-0.05470000000000019,-14.925204213576137
-0.05570000000000008,-15.094969569559943
-0.056700000000000195,-15.264734925543747
-0.057700000000000085,-15.448647394526201
-0.058700000000000196,-15.618412750510005
-0.059700000000000086,-15.74573676749786
-0.0607000000000002,-15.91550212348166
-0.06170000000000009,-16.099414592464115
-0.0627000000000002,-16.311621287443874
-0.06370000000000009,-16.53797509542228
-0.0647000000000002,-16.750181790402035
-0.06570000000000009,-17.018976937376394
-0.0667000000000002,-17.188742293360193
-0.0677000000000001,-17.316066310348052
-0.0687000000000002,-17.4433903273359
-0.0697000000000001,-17.584861457322408
-0.07070000000000021,-17.71218547431026
-0.0717000000000001,-17.881950830294063
-0.07270000000000021,-18.10830463827247
-0.0737000000000001,-18.27806999425627
-0.07470000000000021,-18.49027668923603
-0.0757000000000001,-18.716630497214435
-0.07670000000000021,-18.843954514202288
-0.0777000000000001,-19.01371987018609
-0.07870000000000021,-19.155191000172596
-0.0797000000000001,-19.367397695152352
-0.08070000000000022,-19.537163051136158
-0.0817000000000001,-19.763516859114564
-0.08270000000000022,-19.93328221509837
-0.08370000000000011,-20.159636023076775
-0.08470000000000022,-20.329401379060574
-0.08570000000000011,-20.456725396048434
-0.08670000000000022,-20.584049413036283
-0.08770000000000011,-20.810403221014692
-0.08870000000000022,-20.93772723800254
-0.08970000000000011,-21.107492593986347
-0.09070000000000022,-21.291405062968803
-0.09170000000000011,-21.461170418952605
-0.09270000000000023,-21.58849443594046
-0.09370000000000012,-21.729965565926964
-0.09470000000000023,-21.899730921910766
-0.09570000000000012,-22.027054938898623
-0.09670000000000023,-22.253408746877028
-0.09770000000000012,-22.42317410286083
-0.09870000000000023,-22.63538079784059
-0.09970000000000012,-22.819293266823045
-0.10070000000000023,-22.989058622806844
-0.10170000000000012,-23.1163826397947
-0.10270000000000024,-23.24370665678255
-0.10370000000000013,-23.342736447773106
-0.10470000000000024,-23.51250180375691
-0.10570000000000013,-23.724708498736668
-0.10670000000000024,-23.908620967719123
-0.10770000000000013,-24.120827662698876
-0.10870000000000024,-24.24815167968673
-0.10970000000000013,-24.432064148669184
-0.11070000000000024,-24.559388165657033
-0.11170000000000013,-24.686712182644893
-0.11270000000000002,-24.814036199632742
-0.11370000000000013,-24.95550732961925
-0.11470000000000002,-25.12527268560305
-0.11570000000000014,-25.337479380582806
-0.11670000000000003,-25.478950510569312
-0.11770000000000014,-25.648715866553115
-0.11870000000000003,-25.77603988354097
-0.11970000000000014,-25.86092256153287
-0.12070000000000003,-25.959952352523427
-0.12170000000000014,-26.129717708507226
-0.12270000000000003,-26.29948306449103
-0.12370000000000014,-26.525836872469437
-0.12470000000000003,-26.69560222845324
-0.12570000000000014,-26.86536758443705
-0.12670000000000003,-27.00683871442355
-0.12770000000000015,-27.091721392415455
-0.12870000000000004,-27.176604070407354
-0.12970000000000015,-27.303928087395207
-0.13070000000000004,-27.43125210438306
-0.13170000000000015,-27.615164573365515
-0.13270000000000004,-27.78492992934932
-0.13370000000000015,-27.954695285333123
-0.13470000000000004,-28.09616641531963
-0.13570000000000015,-28.22349043230748
-0.13670000000000004,-28.350814449295335
-0.13770000000000016,-28.478138466283188
-0.13870000000000005,-28.619609596269694
-0.13970000000000016,-28.831816291249446
-0.14070000000000005,-28.91669896924135
-0.14170000000000016,-29.058170099227848
-0.14270000000000005,-29.27037679420761
-0.14370000000000016,-29.35525947219951
-0.14470000000000005,-29.482583489187363
-0.14570000000000016,-29.62405461917387
-0.14670000000000005,-29.708937297165768
-0.14770000000000016,-29.878702653149578
-0.14870000000000005,-30.00602667013743
-0.14970000000000017,-30.189939139119886
-0.15070000000000006,-30.317263156107735
-0.15170000000000017,-30.444587173095588
-0.15270000000000006,-30.571911190083444
-0.15370000000000017,-30.670940981073993
-0.15470000000000006,-30.79826499806185
-0.15570000000000017,-30.925589015049702
-0.15670000000000006,-31.095354371033505
-0.15770000000000017,-31.19438416202406
-0.15870000000000006,-31.321708179011907
-0.15970000000000018,-31.40659085700382
-0.16070000000000007,-31.49147353499572
-0.16170000000000018,-31.618797551983565
-0.16270000000000007,-31.717827342974125
-0.16370000000000018,-31.887592698957924
-0.16470000000000007,-32.09979939393769
-0.16570000000000018,-32.283711862920136
-0.16670000000000007,-32.41103587990799
-0.16770000000000018,-32.53835989689585
-0.16870000000000007,-32.66568391388369
-0.16970000000000018,-32.764713704874254
-0.17070000000000007,-32.84959638286615
-0.17170000000000019,-32.97692039985401
-0.17270000000000008,-33.14668575583781
-0.1737000000000002,-33.373039563816214
-0.17470000000000008,-33.58524625879597
-0.1757000000000002,-33.755011614779775
-0.17670000000000008,-33.89648274476628
-0.1777000000000002,-34.02380676175414
-0.17870000000000008,-34.06624810075008
-0.1797000000000002,-34.15113077874198
-0.18070000000000008,-34.236013456733886
-0.1817000000000002,-34.377484586720385
-0.18270000000000008,-34.5472499427042
-0.1837000000000002,-34.67457395969205
-0.1847000000000001,-34.85848642867451
-0.1857000000000002,-34.98581044566235
-0.1867000000000001,-35.11313446265021
-0.1877000000000002,-35.240458479638065
-0.1887000000000001,-35.38192960962457
-0.1897000000000002,-35.55169496560837
-0.1907000000000001,-35.721460321592176
-0.1917000000000001,-35.848784338580025
-0.19269999999999998,-35.94781412957058
-0.1937000000000001,-35.99025546856653
-0.19469999999999998,-36.07513814655844
-0.1957000000000001,-36.20246216354629
-0.19669999999999999,-36.329786180534136
-0.1977000000000001,-36.47125731052064
-0.1987,-36.64102266650445
-0.1997000000000001,-36.81078802248826
-0.2007,-36.89567070048016
-0.2017000000000001,-36.99470049147071
-0.2027,-37.122024508458566
-0.2037000000000001,-37.206907186450465
-0.2047,-37.249348525446415
-0.2057000000000001,-37.376672542434264
-0.2067,-37.47570233342482
-0.2077000000000001,-37.60302635041268
-0.2087,-37.73035036740053
-0.2097000000000001,-37.90011572338433
-0.2107,-38.04158685337084
-0.2117000000000001,-38.16891087035869
-0.2127,-38.253793548350586
-0.2137000000000001,-38.33867622634249
-0.2147,-38.42355890433439
-0.2157000000000001,-38.5650300343209
-0.2167,-38.607471373316855
-0.21770000000000012,-38.692354051308754
-0.2187,-38.734795390304704
-0.21970000000000012,-38.81967806829661
-0.2207,-38.86211940729255
-0.22170000000000012,-38.90456074628851
-0.2227,-38.98944342428042
-0.22370000000000012,-39.08847321527096
-0.2247,-39.173355893262865
-0.22570000000000012,-39.21579723225882
-0.2267,-39.258238571254765
-0.22770000000000012,-39.30067991025072
-0.22870000000000001,-39.30067991025072
-0.22970000000000013,-39.34312124924667
-0.23070000000000002,-39.38556258824262
-0.23170000000000013,-39.38556258824262
-0.23270000000000002,-39.47044526623452
-0.23370000000000013,-39.56947505722508
-0.23470000000000002,-39.61191639622103
-0.23570000000000013,-39.61191639622103
-0.23670000000000002,-39.61191639622103
-0.2376999999999999,-39.61191639622103
-0.23870000000000002,-39.696799074212926
-0.2396999999999999,-39.78168175220483
-0.24070000000000003,-39.86656443019674
-0.24169999999999991,-39.95144710818864
-0.24270000000000003,-39.95144710818864
-0.24369999999999992,-39.86656443019674
-0.24470000000000003,-39.78168175220483
-0.24569999999999992,-39.696799074212926
-0.24670000000000003,-39.654357735216976
-0.24769999999999992,-39.56947505722508
-0.24870000000000003,-39.56947505722508
-0.24969999999999992,-39.61191639622103
-0.25070000000000003,-39.654357735216976
-0.2516999999999999,-39.654357735216976
-0.25270000000000004,-39.654357735216976
-0.2536999999999999,-39.61191639622103
-0.25470000000000004,-39.51288660523048
-0.2556999999999999,-39.47044526623452
-0.25670000000000004,-39.42800392723857
-0.25769999999999993,-39.34312124924667
-0.25870000000000004,-39.21579723225882
-0.25969999999999993,-39.130914554266916
-0.26070000000000004,-38.94700208528445
-0.26169999999999993,-38.81967806829661
-0.26270000000000004,-38.692354051308754
-0.26369999999999993,-38.607471373316855
-0.26470000000000005,-38.522588695324956
-0.26569999999999994,-38.42355890433439
-0.26670000000000005,-38.38111756533845
-0.26769999999999994,-38.29623488734655
-0.26870000000000005,-38.16891087035869
-0.26969999999999994,-38.04158685337084
-0.27070000000000005,-37.85767438438838
-0.27169999999999994,-37.687909028404576
-0.27270000000000005,-37.56058501141672
-0.27369999999999994,-37.41911388143023
-0.27470000000000006,-37.291789864442364
-0.27569999999999995,-37.206907186450465
-0.27670000000000006,-37.037141830466666
-0.27769999999999995,-36.89567070048016
-0.27870000000000006,-36.768346683492304
-0.27969999999999995,-36.6834640055004
-0.28070000000000006,-36.55613998851254
-0.28169999999999995,-36.4288159715247
-0.28270000000000006,-36.28734484153819
-0.28369999999999995,-36.16002082455034
-0.28470000000000006,-36.03269680756248
-0.28569999999999995,-35.90537279057463
-0.28670000000000007,-35.763901660588125
-0.28769999999999996,-35.679018982596226
-0.28870000000000007,-35.55169496560837
-0.28969999999999996,-35.46681228761647
-0.29070000000000007,-35.282899818634014
-0.29169999999999996,-35.11313446265021
-0.29270000000000007,-34.90092776767045
-0.29369999999999996,-34.632132620696105
-0.2947000000000001,-34.41992592571634
-0.29569999999999996,-34.236013456733886
-0.2967000000000001,-34.10868943974604
-0.29769999999999996,-34.06624810075008
-0.2987000000000001,-33.98136542275818
-0.29969999999999997,-33.85404140577033
-0.3007000000000001,-33.670128936787876
-0.30169999999999997,-33.45792224180811
-0.3027000000000001,-33.231568433829715
-0.30369999999999997,-32.97692039985401
-0.3047000000000001,-32.84959638286615
-0.30569999999999997,-32.66568391388369
-0.3067000000000001,-32.58080123589179
-0.3077,-32.45347721890394
-0.3087000000000001,-32.32615320191609
-0.3097,-32.09979939393769
-0.3107000000000001,-31.887592698957924
-0.3117,-31.618797551983565
-0.3127000000000001,-31.36414951800786
-0.3137,-31.23682550102001
-0.3147000000000001,-31.095354371033505
-0.3157,-31.010471693041605
-0.3167000000000001,-30.88314767605375
-0.3177,-30.7558236590659
-0.3187000000000001,-30.571911190083444
-0.3197,-30.359704495103685
-0.3207000000000001,-30.189939139119886
-0.3217,-30.00602667013743
-0.3227000000000001,-29.878702653149578
-0.3237,-29.751378636161718
-0.3247000000000001,-29.66649595816982
-0.3257,-29.525024828183312
-0.3267000000000001,-29.39770081119546
-0.3277,-29.27037679420761
-0.3287000000000001,-29.100611438223805
-0.3297,-28.91669896924135
-0.3307000000000001,-28.789374952253496
-0.3317,-28.704492274261593
-0.3327000000000001,-28.619609596269694
-0.3337,-28.478138466283188
-0.3347000000000001,-28.393255788291288
-0.3357,-28.265931771303435
-0.3367000000000001,-28.18104909331153
-0.3377,-28.05372507632368
-0.3387000000000001,-27.954695285333123
-0.3397,-27.912253946337174
-0.3407000000000001,-27.869812607341224
-0.3417,-27.78492992934932
-0.3427000000000001,-27.700047251357418
-0.3437,-27.572723234369565
-0.3447000000000001,-27.487840556377662
-0.3457,-27.38881076538711
-0.3467000000000001,-27.303928087395207
-0.3477,-27.34636942639116
-0.3487000000000001,-27.303928087395207
-0.3497,-27.303928087395207
-0.3507000000000001,-27.261486748399253
-0.3517,-27.176604070407354
-0.3527000000000001,-27.091721392415455
-0.3537,-27.00683871442355
-0.3547000000000001,-26.907808923433
-0.3557,-26.907808923433
-0.35670000000000013,-26.907808923433
-0.3577,-26.9643973754276
-0.35870000000000013,-26.9643973754276
-0.3597,-26.907808923433
-0.36070000000000013,-26.907808923433
-0.3617,-26.86536758443705
-0.3626999999999999,-26.86536758443705
-0.3637,-26.86536758443705
-0.3646999999999999,-26.907808923433
-0.3657,-26.907808923433
-0.3666999999999999,-26.9643973754276
-0.3677,-26.9643973754276
-0.3686999999999999,-26.9643973754276
-0.36970000000000003,-27.00683871442355
-0.3706999999999999,-27.00683871442355
-0.37170000000000003,-27.049280053419505
-0.3726999999999999,-27.134162731411404
-0.37370000000000003,-27.219045409403304
-0.3746999999999999,-27.261486748399253
-0.37570000000000003,-27.303928087395207
-0.3766999999999999,-27.34636942639116
-0.37770000000000004,-27.34636942639116
-0.3786999999999999,-27.38881076538711
-0.37970000000000004,-27.43125210438306
-0.3806999999999999,-27.530281895373616
-0.38170000000000004,-27.615164573365515
-0.38269999999999993,-27.78492992934932
-0.38370000000000004,-27.912253946337174
-0.38469999999999993,-27.954695285333123
-0.38570000000000004,-28.05372507632368
-0.38669999999999993,-28.13860775431558
-0.38770000000000004,-28.22349043230748
-0.38869999999999993,-28.308373110299385
-0.38970000000000005,-28.435697127287238
-0.39069999999999994,-28.577168257273744
-0.39170000000000005,-28.662050935265643
-0.39269999999999994,-28.789374952253496
-0.39370000000000005,-28.8742576302454
-0.39469999999999994,-29.001581647233255
-0.39570000000000005,-29.14305277721976
-0.39669999999999994,-29.27037679420761
-0.39770000000000005,-29.440142150191413
-0.39869999999999994,-29.581613280177915
-0.39970000000000006,-29.751378636161718
-0.40069999999999995,-29.921143992145527
-0.40170000000000006,-30.04846800913338
-0.40269999999999995,-30.189939139119886
-0.40370000000000006,-30.317263156107735
-0.40469999999999995,-30.444587173095588
-0.40570000000000006,-30.670940981073993
-0.40669999999999995,-30.8407063370578
-0.40770000000000006,-31.010471693041605
-0.40869999999999995,-31.23682550102001
-0.40970000000000006,-31.36414951800786
-0.41069999999999995,-31.533914873991666
-0.41170000000000007,-31.717827342974125
-0.41269999999999996,-31.930034037953877
-0.41370000000000007,-32.14224073293363
-0.41469999999999996,-32.368594540912035
-0.41570000000000007,-32.58080123589179
-0.41669999999999996,-32.807155043870196
-0.41770000000000007,-32.93447906085806
-0.41869999999999996,-33.06180307784591
-0.4197000000000001,-33.18912709483376
-0.42069999999999996,-33.373039563816214
-0.4217000000000001,-33.58524625879597
-0.42269999999999996,-33.81160006677438
-0.4237000000000001,-34.06624810075008
-0.42469999999999997,-34.377484586720385
-0.4257000000000001,-34.632132620696105
-0.42669999999999997,-34.8018979766799
-0.4277000000000001,-35.02825178465831
-0.42869999999999997,-35.198017140642115
-0.4297000000000001,-35.46681228761647
-0.43069999999999997,-35.721460321592176
-0.4317000000000001,-35.99025546856653
-0.4327,-36.28734484153819
-0.4337000000000001,-36.55613998851254
-0.4347,-36.768346683492304
-0.4357000000000001,-36.95225915247476
-0.4367,-37.122024508458566
-0.4377000000000001,-37.334231203438314
-0.4387,-37.56058501141672
-0.4397000000000001,-37.77279170639648
-0.4407,-38.04158685337084
-0.4417000000000001,-38.33867622634249
-0.4427,-38.6499127123128
-0.4437000000000001,-38.90456074628851
-0.4447,-39.21579723225882
-0.4457000000000001,-39.42800392723857
-0.4467,-39.739240413208876
-0.4477000000000001,-40.03632978618054
-0.4487,-40.34756627215084
-0.4497000000000001,-40.616361419125205
-0.4507,-40.87100945310091
-0.4517000000000001,-41.139804600075266
-0.4527,-41.39445263405098
-0.4537000000000001,-41.66324778102533
-0.4547,-41.91789581500104
-0.4557000000000001,-42.229132300971344
-0.4567,-42.568663012938956
-0.4577000000000001,-42.92234083790521
-0.4587,-43.31846000186743
-0.4597000000000001,-43.70043205283099
-0.4607,-44.054109877797245
-0.4617000000000001,-44.36534636376755
-0.4627,-44.74731841473111
-0.4637000000000001,-45.18587891768927
-0.4647,-45.581998081651484
-0.4657000000000001,-45.97811724561369
-0.4667,-46.37423640957591
-0.4677000000000001,-46.713767121543505
-0.4687,-47.067444946509774
-0.4697000000000001,-47.46356411047198
-0.4707,-47.93041883942744
-0.4717000000000001,-48.45386202037751
-0.4727,-49.076334992318124
-0.4737000000000001,-49.72710219025603
-0.4747,-50.335428049198
-0.4757000000000001,-50.98619524713592
-0.4767,-51.594521106077885
-0.4777000000000001,-52.25943541701445
-0.4787,-52.91020261495237
-0.4797000000000001,-53.603411151886235
-0.4807,-54.43809081880661
-0.48170000000000013,-55.357653163718886
-0.4827,-56.404539525619015
-0.48370000000000013,-57.493867226515086
-0.4847,-58.62563626640712
-0.48570000000000013,-59.7998466452951
-0.4867,-59.92717066228296
-0.48570000000000013,-58.66807760540307
-0.4847,-57.93242772947325
-0.48370000000000013,-57.45142588751914
-0.4827,-57.14018940154883
-0.48170000000000013,-56.88554136757313
-0.4807,-56.65918755959472
-0.4797000000000001,-56.44698086461496
-0.4787,-56.26306839563251
-0.4777000000000001,-56.093303039648696
-0.4767,-55.96597902266086
-0.4757000000000001,-55.881096344668954
-0.4747,-55.7820665536784
-0.4737000000000001,-55.6971838756865
-0.4727,-55.56985985869864
-0.4717000000000001,-55.400094502714836
-0.4707,-55.31521182472294
-0.4697000000000001,-55.046416677748574
-0.4687,-54.834209982768826
-0.4677000000000001,-54.60785617479041
-0.4667,-54.43809081880661
-0.4657000000000001,-54.16929567183226
-0.4647,-53.91464763785655
-0.4637000000000001,-53.64585249088219
