Dec. 27, 2024   13:16:36
Cyclic Voltammetry
File: c:/users/guazh/data/banditlqround7_x0exp136_r20/2024-12-24-exp758\exp758-2024-12-27t13_11_02-h2koh\exp758_cv_sr_50mvs_efin_-1400mv.bin
Data Source:  Experiment
Instrument Model:  CHI760E
Header: CV ran at 50 mVs
Note: 

Init E (V) = -1
High E (V) = -1
Low E (V) = -1.4
Final E (V) = -1
Init P/N = N
Scan Rate (V/s) = 0.05
Segment = 3
Sample Interval (V) = 0.001
Quiet Time (sec) = 2
Sensitivity (A/V) = 0.01
Comp R (ohm) = 1.5

Results:

Channel 1:
Segment 1:

Segment 2:

Segment 3:

Potential/V, Current/A

-1.000, -1.184e-4
-1.001, -5.435e-5
-1.002, -7.579e-6
-1.003, 2.920e-5
-1.004, 5.667e-5
-1.005, 7.825e-5
-1.006, 9.890e-5
-1.007, 1.202e-4
-1.008, 1.382e-4
-1.009, 1.522e-4
-1.010, 1.628e-4
-1.011, 1.750e-4
-1.012, 1.891e-4
-1.013, 2.016e-4
-1.014, 2.098e-4
-1.015, 2.165e-4
-1.016, 2.233e-4
-1.017, 2.346e-4
-1.018, 2.427e-4
-1.019, 2.486e-4
-1.020, 2.521e-4
-1.021, 2.573e-4
-1.022, 2.655e-4
-1.023, 2.734e-4
-1.024, 2.770e-4
-1.025, 2.792e-4
-1.026, 2.818e-4
-1.027, 2.887e-4
-1.028, 2.947e-4
-1.029, 2.967e-4
-1.030, 2.977e-4
-1.031, 3.003e-4
-1.032, 3.052e-4
-1.033, 3.103e-4
-1.034, 3.106e-4
-1.035, 3.101e-4
-1.036, 3.126e-4
-1.037, 3.171e-4
-1.038, 3.212e-4
-1.039, 3.218e-4
-1.040, 3.206e-4
-1.041, 3.217e-4
-1.042, 3.259e-4
-1.043, 3.288e-4
-1.044, 3.291e-4
-1.045, 3.271e-4
-1.046, 3.281e-4
-1.047, 3.316e-4
-1.048, 3.343e-4
-1.049, 3.343e-4
-1.050, 3.318e-4
-1.051, 3.318e-4
-1.052, 3.346e-4
-1.053, 3.368e-4
-1.054, 3.365e-4
-1.055, 3.337e-4
-1.056, 3.344e-4
-1.057, 3.367e-4
-1.058, 3.410e-4
-1.059, 3.392e-4
-1.060, 3.342e-4
-1.061, 3.338e-4
-1.062, 3.382e-4
-1.063, 3.411e-4
-1.064, 3.392e-4
-1.065, 3.358e-4
-1.066, 3.330e-4
-1.067, 3.348e-4
-1.068, 3.368e-4
-1.069, 3.359e-4
-1.070, 3.319e-4
-1.071, 3.319e-4
-1.072, 3.341e-4
-1.073, 3.355e-4
-1.074, 3.333e-4
-1.075, 3.320e-4
-1.076, 3.304e-4
-1.077, 3.331e-4
-1.078, 3.332e-4
-1.079, 3.318e-4
-1.080, 3.287e-4
-1.081, 3.274e-4
-1.082, 3.300e-4
-1.083, 3.307e-4
-1.084, 3.294e-4
-1.085, 3.259e-4
-1.086, 3.250e-4
-1.087, 3.270e-4
-1.088, 3.294e-4
-1.089, 3.277e-4
-1.090, 3.231e-4
-1.091, 3.223e-4
-1.092, 3.248e-4
-1.093, 3.261e-4
-1.094, 3.242e-4
-1.095, 3.209e-4
-1.096, 3.199e-4
-1.097, 3.221e-4
-1.098, 3.232e-4
-1.099, 3.220e-4
-1.100, 3.188e-4
-1.101, 3.177e-4
-1.102, 3.198e-4
-1.103, 3.215e-4
-1.104, 3.195e-4
-1.105, 3.170e-4
-1.106, 3.162e-4
-1.107, 3.186e-4
-1.108, 3.202e-4
-1.109, 3.179e-4
-1.110, 3.150e-4
-1.111, 3.143e-4
-1.112, 3.163e-4
-1.113, 3.177e-4
-1.114, 3.168e-4
-1.115, 3.128e-4
-1.116, 3.129e-4
-1.117, 3.151e-4
-1.118, 3.169e-4
-1.119, 3.160e-4
-1.120, 3.125e-4
-1.121, 3.124e-4
-1.122, 3.144e-4
-1.123, 3.163e-4
-1.124, 3.153e-4
-1.125, 3.122e-4
-1.126, 3.118e-4
-1.127, 3.147e-4
-1.128, 3.163e-4
-1.129, 3.148e-4
-1.130, 3.123e-4
-1.131, 3.125e-4
-1.132, 3.148e-4
-1.133, 3.172e-4
-1.134, 3.158e-4
-1.135, 3.129e-4
-1.136, 3.129e-4
-1.137, 3.145e-4
-1.138, 3.177e-4
-1.139, 3.164e-4
-1.140, 3.143e-4
-1.141, 3.136e-4
-1.142, 3.171e-4
-1.143, 3.192e-4
-1.144, 3.176e-4
-1.145, 3.142e-4
-1.146, 3.148e-4
-1.147, 3.182e-4
-1.148, 3.198e-4
-1.149, 3.191e-4
-1.150, 3.170e-4
-1.151, 3.175e-4
-1.152, 3.200e-4
-1.153, 3.227e-4
-1.154, 3.217e-4
-1.155, 3.194e-4
-1.156, 3.197e-4
-1.157, 3.226e-4
-1.158, 3.249e-4
-1.159, 3.252e-4
-1.160, 3.222e-4
-1.161, 3.229e-4
-1.162, 3.259e-4
-1.163, 3.284e-4
-1.164, 3.285e-4
-1.165, 3.248e-4
-1.166, 3.261e-4
-1.167, 3.292e-4
-1.168, 3.313e-4
-1.169, 3.312e-4
-1.170, 3.291e-4
-1.171, 3.300e-4
-1.172, 3.333e-4
-1.173, 3.354e-4
-1.174, 3.351e-4
-1.175, 3.332e-4
-1.176, 3.336e-4
-1.177, 3.372e-4
-1.178, 3.404e-4
-1.179, 3.398e-4
-1.180, 3.381e-4
-1.181, 3.381e-4
-1.182, 3.416e-4
-1.183, 3.447e-4
-1.184, 3.446e-4
-1.185, 3.434e-4
-1.186, 3.433e-4
-1.187, 3.465e-4
-1.188, 3.505e-4
-1.189, 3.497e-4
-1.190, 3.486e-4
-1.191, 3.492e-4
-1.192, 3.528e-4
-1.193, 3.562e-4
-1.194, 3.559e-4
-1.195, 3.546e-4
-1.196, 3.559e-4
-1.197, 3.591e-4
-1.198, 3.626e-4
-1.199, 3.630e-4
-1.200, 3.620e-4
-1.201, 3.628e-4
-1.202, 3.668e-4
-1.203, 3.701e-4
-1.204, 3.711e-4
-1.205, 3.695e-4
-1.206, 3.709e-4
-1.207, 3.754e-4
-1.208, 3.785e-4
-1.209, 3.790e-4
-1.210, 3.793e-4
-1.211, 3.798e-4
-1.212, 3.848e-4
-1.213, 3.871e-4
-1.214, 3.886e-4
-1.215, 3.880e-4
-1.216, 3.915e-4
-1.217, 3.948e-4
-1.218, 3.999e-4
-1.219, 3.990e-4
-1.220, 4.006e-4
-1.221, 4.013e-4
-1.222, 4.064e-4
-1.223, 4.102e-4
-1.224, 4.124e-4
-1.225, 4.114e-4
-1.226, 4.145e-4
-1.227, 4.193e-4
-1.228, 4.262e-4
-1.229, 4.271e-4
-1.230, 4.266e-4
-1.231, 4.285e-4
-1.232, 4.346e-4
-1.233, 4.403e-4
-1.234, 4.424e-4
-1.235, 4.428e-4
-1.236, 4.457e-4
-1.237, 4.514e-4
-1.238, 4.569e-4
-1.239, 4.598e-4
-1.240, 4.602e-4
-1.241, 4.642e-4
-1.242, 4.707e-4
-1.243, 4.769e-4
-1.244, 4.800e-4
-1.245, 4.813e-4
-1.246, 4.852e-4
-1.247, 4.923e-4
-1.248, 4.989e-4
-1.249, 5.032e-4
-1.250, 5.054e-4
-1.251, 5.096e-4
-1.252, 5.180e-4
-1.253, 5.251e-4
-1.254, 5.305e-4
-1.255, 5.324e-4
-1.256, 5.390e-4
-1.257, 5.463e-4
-1.258, 5.549e-4
-1.259, 5.603e-4
-1.260, 5.644e-4
-1.261, 5.698e-4
-1.262, 5.799e-4
-1.263, 5.895e-4
-1.264, 5.945e-4
-1.265, 6.005e-4
-1.266, 6.070e-4
-1.267, 6.179e-4
-1.268, 6.287e-4
-1.269, 6.358e-4
-1.270, 6.422e-4
-1.271, 6.517e-4
-1.272, 6.635e-4
-1.273, 6.763e-4
-1.274, 6.850e-4
-1.275, 6.934e-4
-1.276, 7.054e-4
-1.277, 7.184e-4
-1.278, 7.323e-4
-1.279, 7.447e-4
-1.280, 7.552e-4
-1.281, 7.688e-4
-1.282, 7.871e-4
-1.283, 8.043e-4
-1.284, 8.204e-4
-1.285, 8.372e-4
-1.286, 8.565e-4
-1.287, 8.747e-4
-1.288, 8.955e-4
-1.289, 9.209e-4
-1.290, 9.458e-4
-1.291, 9.681e-4
-1.292, 9.973e-4
-1.293, 1.021e-3
-1.294, 1.053e-3
-1.295, 1.084e-3
-1.296, 1.119e-3
-1.297, 1.162e-3
-1.298, 1.210e-3
-1.299, 1.255e-3
-1.300, 1.308e-3
-1.301, 1.366e-3
-1.302, 1.435e-3
-1.303, 1.507e-3
-1.304, 1.582e-3
-1.305, 1.666e-3
-1.306, 1.754e-3
-1.307, 1.853e-3
-1.308, 1.959e-3
-1.309, 2.077e-3
-1.310, 2.192e-3
-1.311, 2.314e-3
-1.312, 2.439e-3
-1.313, 2.572e-3
-1.314, 2.704e-3
-1.315, 2.844e-3
-1.316, 2.984e-3
-1.317, 3.126e-3
-1.318, 3.269e-3
-1.319, 3.408e-3
-1.320, 3.547e-3
-1.321, 3.688e-3
-1.322, 3.816e-3
-1.323, 3.944e-3
-1.324, 4.072e-3
-1.325, 4.188e-3
-1.326, 4.302e-3
-1.327, 4.418e-3
-1.328, 4.535e-3
-1.329, 4.635e-3
-1.330, 4.725e-3
-1.331, 4.824e-3
-1.332, 4.913e-3
-1.333, 5.009e-3
-1.334, 5.091e-3
-1.335, 5.171e-3
-1.336, 5.255e-3
-1.337, 5.322e-3
-1.338, 5.421e-3
-1.339, 5.485e-3
-1.340, 5.545e-3
-1.341, 5.587e-3
-1.342, 5.634e-3
-1.343, 5.739e-3
-1.344, 5.802e-3
-1.345, 5.887e-3
-1.346, 5.959e-3
-1.347, 6.033e-3
-1.348, 6.096e-3
-1.349, 6.162e-3
-1.350, 6.224e-3
-1.351, 6.273e-3
-1.352, 6.353e-3
-1.353, 6.407e-3
-1.354, 6.474e-3
-1.355, 6.585e-3
-1.356, 6.637e-3
-1.357, 6.680e-3
-1.358, 6.752e-3
-1.359, 6.813e-3
-1.360, 6.880e-3
-1.361, 6.954e-3
-1.362, 7.032e-3
-1.363, 7.082e-3
-1.364, 7.128e-3
-1.365, 7.211e-3
-1.366, 7.289e-3
-1.367, 7.332e-3
-1.368, 7.381e-3
-1.369, 7.449e-3
-1.370, 7.552e-3
-1.371, 7.613e-3
-1.372, 7.675e-3
-1.373, 7.742e-3
-1.374, 7.823e-3
-1.375, 7.894e-3
-1.376, 7.960e-3
-1.377, 8.021e-3
-1.378, 8.096e-3
-1.379, 8.163e-3
-1.380, 8.243e-3
-1.381, 8.378e-3
-1.382, 8.501e-3
-1.383, 8.609e-3
-1.384, 8.694e-3
-1.385, 8.791e-3
-1.386, 8.867e-3
-1.387, 8.911e-3
-1.388, 8.923e-3
-1.389, 9.041e-3
-1.390, 9.084e-3
-1.391, 9.180e-3
-1.392, 9.277e-3
-1.393, 9.295e-3
-1.394, 9.300e-3
-1.395, 9.407e-3
-1.396, 9.529e-3
-1.397, 9.541e-3
-1.398, 9.651e-3
-1.399, 9.765e-3
-1.400, 9.745e-3
-1.399, 9.646e-3
-1.398, 9.616e-3
-1.397, 9.451e-3
-1.396, 9.360e-3
-1.395, 9.233e-3
-1.394, 9.096e-3
-1.393, 8.959e-3
-1.392, 8.871e-3
-1.391, 8.772e-3
-1.390, 8.727e-3
-1.389, 8.595e-3
-1.388, 8.511e-3
-1.387, 8.393e-3
-1.386, 8.287e-3
-1.385, 8.274e-3
-1.384, 8.248e-3
-1.383, 8.137e-3
-1.382, 8.021e-3
-1.381, 7.941e-3
-1.380, 7.875e-3
-1.379, 7.830e-3
-1.378, 7.746e-3
-1.377, 7.654e-3
-1.376, 7.588e-3
-1.375, 7.479e-3
-1.374, 7.384e-3
-1.373, 7.313e-3
-1.372, 7.230e-3
-1.371, 7.095e-3
-1.370, 6.995e-3
-1.369, 6.832e-3
-1.368, 6.766e-3
-1.367, 6.750e-3
-1.366, 6.682e-3
-1.365, 6.612e-3
-1.364, 6.473e-3
-1.363, 6.404e-3
-1.362, 6.328e-3
-1.361, 6.237e-3
-1.360, 6.242e-3
-1.359, 6.155e-3
-1.358, 6.046e-3
-1.357, 5.943e-3
-1.356, 5.866e-3
-1.355, 5.807e-3
-1.354, 5.738e-3
-1.353, 5.643e-3
-1.352, 5.583e-3
-1.351, 5.522e-3
-1.350, 5.422e-3
-1.349, 5.378e-3
-1.348, 5.333e-3
-1.347, 5.275e-3
-1.346, 5.221e-3
-1.345, 5.108e-3
-1.344, 5.039e-3
-1.343, 4.991e-3
-1.342, 4.903e-3
-1.341, 4.825e-3
-1.340, 4.749e-3
-1.339, 4.683e-3
-1.338, 4.609e-3
-1.337, 4.524e-3
-1.336, 4.459e-3
-1.335, 4.391e-3
-1.334, 4.310e-3
-1.333, 4.271e-3
-1.332, 4.202e-3
-1.331, 4.142e-3
-1.330, 4.082e-3
-1.329, 4.025e-3
-1.328, 3.972e-3
-1.327, 3.922e-3
-1.326, 3.841e-3
-1.325, 3.767e-3
-1.324, 3.725e-3
-1.323, 3.637e-3
-1.322, 3.588e-3
-1.321, 3.541e-3
-1.320, 3.464e-3
-1.319, 3.424e-3
-1.318, 3.364e-3
-1.317, 3.300e-3
-1.316, 3.229e-3
-1.315, 3.168e-3
-1.314, 3.123e-3
-1.313, 3.062e-3
-1.312, 3.014e-3
-1.311, 2.953e-3
-1.310, 2.891e-3
-1.309, 2.854e-3
-1.308, 2.800e-3
-1.307, 2.749e-3
-1.306, 2.723e-3
-1.305, 2.672e-3
-1.304, 2.631e-3
-1.303, 2.610e-3
-1.302, 2.559e-3
-1.301, 2.492e-3
-1.300, 2.436e-3
-1.299, 2.376e-3
-1.298, 2.344e-3
-1.297, 2.296e-3
-1.296, 2.259e-3
-1.295, 2.201e-3
-1.294, 2.177e-3
-1.293, 2.138e-3
-1.292, 2.087e-3
-1.291, 2.052e-3
-1.290, 1.980e-3
-1.289, 1.931e-3
-1.288, 1.888e-3
-1.287, 1.838e-3
-1.286, 1.790e-3
-1.285, 1.741e-3
-1.284, 1.702e-3
-1.283, 1.666e-3
-1.282, 1.615e-3
-1.281, 1.577e-3
-1.280, 1.563e-3
-1.279, 1.508e-3
-1.278, 1.463e-3
-1.277, 1.419e-3
-1.276, 1.383e-3
-1.275, 1.344e-3
-1.274, 1.302e-3
-1.273, 1.269e-3
-1.272, 1.241e-3
-1.271, 1.201e-3
-1.270, 1.164e-3
-1.269, 1.131e-3
-1.268, 1.106e-3
-1.267, 1.066e-3
-1.266, 1.031e-3
-1.265, 9.917e-4
-1.264, 9.724e-4
-1.263, 9.464e-4
-1.262, 9.178e-4
-1.261, 8.721e-4
-1.260, 8.378e-4
-1.259, 8.177e-4
-1.258, 7.918e-4
-1.257, 7.609e-4
-1.256, 7.305e-4
-1.255, 7.062e-4
-1.254, 6.845e-4
-1.253, 6.694e-4
-1.252, 6.450e-4
-1.251, 6.165e-4
-1.250, 5.907e-4
-1.249, 5.751e-4
-1.248, 5.567e-4
-1.247, 5.333e-4
-1.246, 5.134e-4
-1.245, 4.913e-4
-1.244, 4.711e-4
-1.243, 4.545e-4
-1.242, 4.307e-4
-1.241, 4.107e-4
-1.240, 3.906e-4
-1.239, 3.732e-4
-1.238, 3.620e-4
-1.237, 3.469e-4
-1.236, 3.326e-4
-1.235, 3.111e-4
-1.234, 2.939e-4
-1.233, 2.782e-4
-1.232, 2.654e-4
-1.231, 2.480e-4
-1.230, 2.328e-4
-1.229, 2.180e-4
-1.228, 2.095e-4
-1.227, 1.968e-4
-1.226, 1.801e-4
-1.225, 1.643e-4
-1.224, 1.506e-4
-1.223, 1.398e-4
-1.222, 1.303e-4
-1.221, 1.177e-4
-1.220, 1.028e-4
-1.219, 9.131e-5
-1.218, 8.289e-5
-1.217, 7.450e-5
-1.216, 6.287e-5
-1.215, 5.012e-5
-1.214, 3.999e-5
-1.213, 3.271e-5
-1.212, 2.396e-5
-1.211, 1.275e-5
-1.210, 1.744e-6
-1.209, -6.129e-6
-1.208, -1.143e-5
-1.207, -1.849e-5
-1.206, -2.814e-5
-1.205, -3.787e-5
-1.204, -4.516e-5
-1.203, -5.147e-5
-1.202, -5.692e-5
-1.201, -6.581e-5
-1.200, -7.442e-5
-1.199, -7.996e-5
-1.198, -8.335e-5
-1.197, -8.737e-5
-1.196, -9.449e-5
-1.195, -1.016e-4
-1.194, -1.064e-4
-1.193, -1.106e-4
-1.192, -1.134e-4
-1.191, -1.237e-4
-1.190, -1.297e-4
-1.189, -1.332e-4
-1.188, -1.346e-4
-1.187, -1.389e-4
-1.186, -1.436e-4
-1.185, -1.503e-4
-1.184, -1.528e-4
-1.183, -1.546e-4
-1.182, -1.579e-4
-1.181, -1.625e-4
-1.180, -1.679e-4
-1.179, -1.709e-4
-1.178, -1.734e-4
-1.177, -1.757e-4
-1.176, -1.811e-4
-1.175, -1.856e-4
-1.174, -1.899e-4
-1.173, -1.894e-4
-1.172, -1.913e-4
-1.171, -1.953e-4
-1.170, -2.002e-4
-1.169, -2.016e-4
-1.168, -2.015e-4
-1.167, -2.056e-4
-1.166, -2.090e-4
-1.165, -2.138e-4
-1.164, -2.156e-4
-1.163, -2.169e-4
-1.162, -2.178e-4
-1.161, -2.218e-4
-1.160, -2.251e-4
-1.159, -2.266e-4
-1.158, -2.272e-4
-1.157, -2.287e-4
-1.156, -2.317e-4
-1.155, -2.360e-4
-1.154, -2.364e-4
-1.153, -2.363e-4
-1.152, -2.419e-4
-1.151, -2.485e-4
-1.150, -2.538e-4
-1.149, -2.531e-4
-1.148, -2.496e-4
-1.147, -2.496e-4
-1.146, -2.519e-4
-1.145, -2.546e-4
-1.144, -2.557e-4
-1.143, -2.548e-4
-1.142, -2.553e-4
-1.141, -2.577e-4
-1.140, -2.618e-4
-1.139, -2.632e-4
-1.138, -2.651e-4
-1.137, -2.675e-4
-1.136, -2.754e-4
-1.135, -2.786e-4
-1.134, -2.796e-4
-1.133, -2.775e-4
-1.132, -2.785e-4
-1.131, -2.823e-4
-1.130, -2.895e-4
-1.129, -2.900e-4
-1.128, -2.887e-4
-1.127, -2.890e-4
-1.126, -2.919e-4
-1.125, -2.945e-4
-1.124, -2.948e-4
-1.123, -2.929e-4
-1.122, -2.928e-4
-1.121, -2.965e-4
-1.120, -2.991e-4
-1.119, -3.002e-4
-1.118, -2.985e-4
-1.117, -2.991e-4
-1.116, -3.024e-4
-1.115, -3.050e-4
-1.114, -3.062e-4
-1.113, -3.089e-4
-1.112, -3.098e-4
-1.111, -3.129e-4
-1.110, -3.148e-4
-1.109, -3.177e-4
-1.108, -3.177e-4
-1.107, -3.175e-4
-1.106, -3.202e-4
-1.105, -3.228e-4
-1.104, -3.230e-4
-1.103, -3.217e-4
-1.102, -3.232e-4
-1.101, -3.283e-4
-1.100, -3.324e-4
-1.099, -3.336e-4
-1.098, -3.308e-4
-1.097, -3.316e-4
-1.096, -3.345e-4
-1.095, -3.382e-4
-1.094, -3.424e-4
-1.093, -3.405e-4
-1.092, -3.428e-4
-1.091, -3.467e-4
-1.090, -3.501e-4
-1.089, -3.505e-4
-1.088, -3.488e-4
-1.087, -3.498e-4
-1.086, -3.536e-4
-1.085, -3.602e-4
-1.084, -3.638e-4
-1.083, -3.657e-4
-1.082, -3.646e-4
-1.081, -3.671e-4
-1.080, -3.701e-4
-1.079, -3.702e-4
-1.078, -3.694e-4
-1.077, -3.705e-4
-1.076, -3.753e-4
-1.075, -3.806e-4
-1.074, -3.812e-4
-1.073, -3.819e-4
-1.072, -3.843e-4
-1.071, -3.938e-4
-1.070, -4.021e-4
-1.069, -4.035e-4
-1.068, -4.033e-4
-1.067, -4.099e-4
-1.066, -4.158e-4
-1.065, -4.187e-4
-1.064, -4.167e-4
-1.063, -4.160e-4
-1.062, -4.182e-4
-1.061, -4.221e-4
-1.060, -4.253e-4
-1.059, -4.261e-4
-1.058, -4.256e-4
-1.057, -4.276e-4
-1.056, -4.310e-4
-1.055, -4.359e-4
-1.054, -4.378e-4
-1.053, -4.410e-4
-1.052, -4.436e-4
-1.051, -4.489e-4
-1.050, -4.521e-4
-1.049, -4.539e-4
-1.048, -4.529e-4
-1.047, -4.549e-4
-1.046, -4.605e-4
-1.045, -4.670e-4
-1.044, -4.683e-4
-1.043, -4.704e-4
-1.042, -4.722e-4
-1.041, -4.797e-4
-1.040, -4.846e-4
-1.039, -4.880e-4
-1.038, -4.906e-4
-1.037, -4.952e-4
-1.036, -5.029e-4
-1.035, -5.112e-4
-1.034, -5.176e-4
-1.033, -5.186e-4
-1.032, -5.204e-4
-1.031, -5.252e-4
-1.030, -5.321e-4
-1.029, -5.342e-4
-1.028, -5.353e-4
-1.027, -5.386e-4
-1.026, -5.443e-4
-1.025, -5.516e-4
-1.024, -5.555e-4
-1.023, -5.581e-4
-1.022, -5.618e-4
-1.021, -5.690e-4
-1.020, -5.758e-4
-1.019, -5.812e-4
-1.018, -5.831e-4
-1.017, -5.941e-4
-1.016, -6.082e-4
-1.015, -6.144e-4
-1.014, -6.166e-4
-1.013, -6.192e-4
-1.012, -6.350e-4
-1.011, -6.561e-4
-1.010, -6.600e-4
-1.009, -6.614e-4
-1.008, -6.609e-4
-1.007, -6.685e-4
-1.006, -6.746e-4
-1.005, -6.809e-4
-1.004, -6.904e-4
-1.003, -7.001e-4
-1.002, -7.056e-4
-1.001, -7.154e-4
