Potential V vs RHE, Current mA cm-2
0.013299999999999867,1.7429243214337253
0.012299999999999978,0.2594580523952477
0.011299999999999866,-1.0054353208140816
0.010299999999999976,-2.095187435100119
0.009299999999999864,-3.0996324580042955
0.008299999999999974,-4.102662769608606
0.007299999999999862,-5.149549131508733
0.006299999999999972,-6.196435493408861
0.00529999999999986,-7.243321855308987
0.0042999999999999705,-8.288793505909249
0.0032999999999998586,-9.24938247851761
0.0022999999999999687,-10.120844639234473
0.0012999999999998568,-10.863568071663616
0.00029999999999996696,-11.517164692201263
-0.000700000000000145,-12.170761312738911
-0.0017000000000000348,-12.825772644576423
-0.0027000000000001467,-13.567081365705702
-0.0037000000000000366,-14.30273124163552
-0.0047000000000001485,-15.094969569559943
-0.005700000000000038,-15.87306078448571
-0.00670000000000015,-16.622857773414182
-0.00770000000000004,-17.231183632356142
-0.008700000000000152,-17.797068152302163
-0.009700000000000042,-18.320511333252224
-0.010700000000000154,-18.80151317520634
-0.011700000000000044,-19.3249563561564
-0.012700000000000156,-19.890840876102416
-0.013700000000000045,-20.499166735044383
-0.014700000000000157,-21.2065223849769
-0.015700000000000047,-21.857289582914817
-0.01670000000000016,-22.46561544185678
-0.01770000000000005,-22.989058622806844
-0.01870000000000016,-23.427619125765005
-0.01970000000000005,-23.823738289727217
-0.020700000000000163,-24.16326900169483
-0.021700000000000053,-24.559388165657033
-0.022700000000000164,-24.997948668615198
-0.023700000000000054,-25.521391849565262
-0.024700000000000166,-26.002393691519377
-0.025700000000000056,-26.525836872469437
-0.026700000000000168,-27.00683871442355
-0.027700000000000058,-27.38881076538711
-0.02870000000000017,-27.700047251357418
-0.02970000000000006,-28.011283737327723
-0.03070000000000017,-28.308373110299385
-0.03170000000000006,-28.619609596269694
-0.03270000000000017,-28.959140308237306
-0.03370000000000006,-29.39770081119546
-0.034700000000000175,-29.836261314153624
-0.035700000000000065,-30.317263156107735
-0.03670000000000018,-30.71338232006995
-0.03770000000000007,-31.052913032037555
-0.03870000000000018,-31.321708179011907
-0.03970000000000007,-31.533914873991666
-0.04070000000000018,-31.717827342974125
-0.04170000000000007,-31.930034037953877
-0.04270000000000018,-32.184682071929586
-0.04370000000000007,-32.49591855789989
-0.044700000000000184,-32.892037721862096
-0.045700000000000074,-33.231568433829715
-0.046700000000000186,-33.627687597791926
-0.047700000000000076,-33.93892408376223
-0.04870000000000019,-34.15113077874198
-0.04970000000000008,-34.377484586720385
-0.05070000000000019,-34.50480860370825
-0.05170000000000008,-34.717015298688004
-0.05270000000000019,-35.02825178465831
-0.05370000000000008,-35.42437094862052
-0.05470000000000019,-35.806342999584075
-0.05570000000000008,-36.244903502542236
-0.056700000000000195,-36.5985813275085
-0.057700000000000085,-36.8532293614842
-0.058700000000000196,-36.99470049147071
-0.059700000000000086,-37.122024508458566
-0.0607000000000002,-37.206907186450465
-0.06170000000000009,-37.334231203438314
-0.0627000000000002,-37.60302635041268
-0.06370000000000009,-37.85767438438838
-0.0647000000000002,-38.12646953136274
-0.06570000000000009,-38.42355890433439
-0.0667000000000002,-38.6499127123128
-0.0677000000000001,-38.777236729300654
-0.0687000000000002,-38.86211940729255
-0.0697000000000001,-38.90456074628851
-0.07070000000000021,-38.94700208528445
-0.0717000000000001,-39.046031876275016
-0.07270000000000021,-39.173355893262865
-0.0737000000000001,-39.42800392723857
-0.07470000000000021,-39.654357735216976
-0.0757000000000001,-39.90900576919269
-0.07670000000000021,-40.135359577171094
-0.0777000000000001,-40.30512493315489
-0.07870000000000021,-40.3900076111468
-0.0797000000000001,-40.3900076111468
-0.08070000000000022,-40.3900076111468
-0.0817000000000001,-40.43244895014274
-0.08270000000000022,-40.559772967130606
-0.08370000000000011,-40.743685436113054
-0.08470000000000022,-40.99833347008877
-0.08570000000000011,-41.267128617063115
-0.08670000000000022,-41.47933531204288
-0.08770000000000011,-41.56421799003478
-0.08870000000000022,-41.606659329030734
-0.08970000000000011,-41.606659329030734
-0.09070000000000022,-41.606659329030734
-0.09170000000000011,-41.66324778102533
-0.09270000000000023,-41.79057179801318
-0.09370000000000012,-41.91789581500104
-0.09470000000000023,-42.130102509980794
-0.09570000000000012,-42.3564563179592
-0.09670000000000023,-42.483780334947056
-0.09770000000000012,-42.568663012938956
-0.09870000000000023,-42.568663012938956
-0.09970000000000012,-42.526221673943
-0.10070000000000023,-42.483780334947056
-0.10170000000000012,-42.526221673943
-0.10270000000000024,-42.6111043519349
-0.10370000000000013,-42.752575481921404
-0.10470000000000024,-42.92234083790521
-0.10570000000000013,-43.09210619388902
-0.10670000000000024,-43.27601866287147
-0.10770000000000013,-43.36090134086337
-0.10870000000000024,-43.36090134086337
-0.10970000000000013,-43.31846000186743
-0.11070000000000024,-43.27601866287147
-0.11170000000000013,-43.31846000186743
-0.11270000000000002,-43.36090134086337
-0.11370000000000013,-43.44578401885527
-0.11470000000000002,-43.57310803584313
-0.11570000000000014,-43.75702050482558
-0.11670000000000003,-43.88434452181344
-0.11770000000000014,-43.92678586080939
-0.11870000000000003,-43.88434452181344
-0.11970000000000014,-43.79946184382153
-0.12070000000000003,-43.70043205283099
-0.12170000000000014,-43.61554937483908
-0.12270000000000003,-43.61554937483908
-0.12370000000000014,-43.657990713835034
-0.12470000000000003,-43.79946184382153
-0.12570000000000014,-43.88434452181344
-0.12670000000000003,-43.96922719980534
-0.12770000000000015,-43.96922719980534
-0.12870000000000004,-43.92678586080939
-0.12970000000000015,-43.79946184382153
-0.13070000000000004,-43.70043205283099
-0.13170000000000015,-43.657990713835034
-0.13270000000000004,-43.70043205283099
-0.13370000000000015,-43.84190318281749
-0.13470000000000004,-44.011668538801295
-0.13570000000000015,-44.181433894785094
-0.13670000000000004,-44.3229050247716
-0.13770000000000016,-44.36534636376755
-0.13870000000000005,-44.36534636376755
-0.13970000000000016,-44.28046368577565
-0.14070000000000005,-44.138992555789144
-0.14170000000000016,-44.096551216793195
-0.14270000000000005,-44.138992555789144
-0.14370000000000016,-44.181433894785094
-0.14470000000000005,-44.3229050247716
-0.14570000000000016,-44.4077877027635
-0.14670000000000005,-44.4926703807554
-0.14770000000000016,-44.45022904175945
-0.14870000000000005,-44.3229050247716
-0.14970000000000017,-44.138992555789144
-0.15070000000000006,-43.96922719980534
-0.15170000000000017,-43.84190318281749
-0.15270000000000006,-43.84190318281749
-0.15370000000000017,-43.92678586080939
-0.15470000000000006,-44.011668538801295
-0.15570000000000017,-44.138992555789144
-0.15670000000000006,-44.223875233781044
-0.15770000000000017,-44.223875233781044
-0.15870000000000006,-44.138992555789144
-0.15970000000000018,-44.054109877797245
-0.16070000000000007,-43.92678586080939
-0.16170000000000018,-43.88434452181344
-0.16270000000000007,-43.88434452181344
-0.16370000000000018,-43.96922719980534
-0.16470000000000007,-44.096551216793195
-0.16570000000000018,-44.181433894785094
-0.16670000000000007,-44.223875233781044
-0.16770000000000018,-44.181433894785094
-0.16870000000000007,-44.096551216793195
-0.16970000000000018,-43.96922719980534
-0.17070000000000007,-43.84190318281749
-0.17170000000000019,-43.84190318281749
-0.17270000000000008,-43.88434452181344
-0.1737000000000002,-43.92678586080939
-0.17470000000000008,-44.054109877797245
-0.1757000000000002,-44.181433894785094
-0.17670000000000008,-44.28046368577565
-0.1777000000000002,-44.28046368577565
-0.17870000000000008,-44.223875233781044
-0.1797000000000002,-44.181433894785094
-0.18070000000000008,-44.054109877797245
-0.1817000000000002,-44.011668538801295
-0.18270000000000008,-44.011668538801295
-0.1837000000000002,-44.011668538801295
-0.1847000000000001,-44.096551216793195
-0.1857000000000002,-44.181433894785094
-0.1867000000000001,-44.223875233781044
-0.1877000000000002,-44.28046368577565
-0.1887000000000001,-44.181433894785094
-0.1897000000000002,-44.096551216793195
-0.1907000000000001,-44.011668538801295
-0.1917000000000001,-43.92678586080939
-0.19269999999999998,-43.92678586080939
-0.1937000000000001,-44.011668538801295
-0.19469999999999998,-44.138992555789144
-0.1957000000000001,-44.3229050247716
-0.19669999999999999,-44.45022904175945
-0.1977000000000001,-44.4926703807554
-0.1987,-44.45022904175945
-0.1997000000000001,-44.3229050247716
-0.2007,-44.181433894785094
-0.2017000000000001,-44.138992555789144
-0.2027,-44.138992555789144
-0.2037000000000001,-44.28046368577565
-0.2047,-44.4077877027635
-0.2057000000000001,-44.577553058747306
-0.2067,-44.66243573673921
-0.2077000000000001,-44.704877075735155
-0.2087,-44.66243573673921
-0.2097000000000001,-44.577553058747306
-0.2107,-44.535111719751356
-0.2117000000000001,-44.535111719751356
-0.2127,-44.577553058747306
-0.2137000000000001,-44.704877075735155
-0.2147,-44.88878954471762
-0.2157000000000001,-45.01611356170547
-0.2167,-45.05855490070142
-0.21770000000000012,-45.01611356170547
-0.2187,-44.88878954471762
-0.21970000000000012,-44.74731841473111
-0.2207,-44.619994397743255
-0.22170000000000012,-44.535111719751356
-0.2227,-44.535111719751356
-0.22370000000000012,-44.619994397743255
-0.2247,-44.74731841473111
-0.22570000000000012,-44.88878954471762
-0.2267,-44.93123088371356
-0.22770000000000012,-45.01611356170547
-0.22870000000000001,-45.05855490070142
-0.22970000000000013,-45.05855490070142
-0.23070000000000002,-45.05855490070142
-0.23170000000000013,-45.05855490070142
-0.23270000000000002,-45.18587891768927
-0.23370000000000013,-45.36979138667173
-0.23470000000000002,-45.581998081651484
-0.23570000000000013,-45.79420477663124
-0.23670000000000002,-45.97811724561369
-0.2376999999999999,-46.02055858460964
-0.23870000000000002,-46.02055858460964
-0.2396999999999999,-45.93567590661774
-0.24070000000000003,-45.85079322862584
-0.24169999999999991,-45.75176343763528
-0.24270000000000003,-45.75176343763528
-0.24369999999999992,-45.79420477663124
-0.24470000000000003,-45.85079322862584
-0.24569999999999992,-45.89323456762179
-0.24670000000000003,-45.89323456762179
-0.24769999999999992,-45.75176343763528
-0.24870000000000003,-45.666880759643384
-0.24969999999999992,-45.581998081651484
-0.25070000000000003,-45.497115403659585
-0.2516999999999999,-45.497115403659585
-0.25270000000000004,-45.581998081651484
-0.2536999999999999,-45.79420477663124
-0.25470000000000004,-46.062999923605595
-0.2556999999999999,-46.37423640957591
-0.25670000000000004,-46.586443104555656
-0.25769999999999993,-46.75620846053947
-0.25870000000000004,-46.79864979953541
-0.25969999999999993,-46.79864979953541
-0.26070000000000004,-46.75620846053947
-0.26169999999999993,-46.713767121543505
-0.26270000000000004,-46.713767121543505
-0.26369999999999993,-46.79864979953541
-0.26470000000000005,-46.88353247752732
-0.26569999999999994,-46.982562268517874
-0.26670000000000005,-47.067444946509774
-0.26769999999999994,-47.02500360751382
-0.26870000000000005,-46.94012092952192
-0.26969999999999994,-46.84109113853137
-0.27070000000000005,-46.713767121543505
-0.27169999999999994,-46.67132578254756
-0.27270000000000005,-46.79864979953541
-0.27369999999999994,-47.02500360751382
-0.27470000000000006,-47.32209298048547
-0.27569999999999995,-47.633329466455784
-0.27670000000000006,-47.8879775004315
-0.27769999999999995,-48.071889969413945
-0.27870000000000006,-48.1992139864018
-0.27969999999999995,-48.1992139864018
-0.28070000000000006,-48.24165532539775
-0.28169999999999995,-48.2840966643937
-0.28270000000000006,-48.36897934238561
-0.28369999999999995,-48.51045047237211
-0.28470000000000006,-48.59533315036401
-0.28569999999999995,-48.63777448935996
-0.28670000000000007,-48.68021582835591
-0.28769999999999996,-48.59533315036401
-0.28870000000000007,-48.45386202037751
-0.28969999999999996,-48.32653800338966
-0.29070000000000007,-48.156772647405845
-0.29169999999999996,-48.114331308409895
-0.29270000000000007,-48.156772647405845
-0.29369999999999996,-48.24165532539775
-0.2947000000000001,-48.41142068138156
-0.29569999999999996,-48.59533315036401
-0.2967000000000001,-48.76509850634781
-0.29769999999999996,-48.93486386233162
-0.2987000000000001,-49.03389365332217
-0.29969999999999997,-49.118776331314066
-0.3007000000000001,-49.20365900930597
-0.30169999999999997,-49.33098302629383
-0.3027000000000001,-49.50074838227763
-0.30369999999999997,-49.68466085126009
-0.3047000000000001,-49.939308885235796
-0.30569999999999997,-50.20810403221015
-0.3067000000000001,-50.42031072718991
-0.3077,-50.50519340518181
-0.3087000000000001,-50.547634744177756
-0.3097,-50.547634744177756
-0.3107000000000001,-50.50519340518181
-0.3117,-50.50519340518181
-0.3127000000000001,-50.68910587416426
-0.3137,-50.90131256914402
-0.3147000000000001,-51.127666377122424
-0.3157,-51.424755750094086
-0.3167000000000001,-51.65110955807249
-0.3177,-51.77843357506035
-0.3187000000000001,-51.86331625305225
-0.3197,-51.90575759204819
-0.3207000000000001,-51.948198931044146
-0.3217,-52.033081609036046
-0.3227000000000001,-52.2169940780185
-0.3237,-52.471642111994214
-0.3247000000000001,-52.82531993696047
-0.3257,-53.16485064892808
-0.3267000000000001,-53.476087134898386
-0.3277,-53.74488228187274
-0.3287000000000001,-53.9570889768525
-0.3297,-54.1268543328363
-0.3307000000000001,-54.26832546282281
-0.3317,-54.480532157802564
-0.3327000000000001,-54.69273885278232
-0.3337,-55.046416677748574
-0.3347000000000001,-55.442535841710786
-0.3357,-55.838655005673
-0.3367000000000001,-56.22062705663656
-0.3377,-56.489422203610914
-0.3387000000000001,-56.65918755959472
-0.3397,-56.82895291557852
-0.3407000000000001,-56.97042404556503
-0.3417,-57.14018940154883
-0.3427000000000001,-57.408984548523186
-0.3437,-57.66363258249889
-0.3447000000000001,-57.974869068469204
-0.3457,-58.27195844144086
-0.3467000000000001,-58.498312249419264
-0.3477,-58.62563626640712
-0.3487000000000001,-58.71051894439902
-0.3497,-58.75296028339497
-0.3507000000000001,-58.79540162239092
-0.3517,-58.880284300382826
-0.3527000000000001,-59.10663810836124
-0.3537,-59.44616882032884
-0.3547000000000001,-59.884729323287
-0.3557,-60.45061384323302
-0.35670000000000013,-60.974057024183075
-0.3577,-61.49750020513315
-0.35870000000000013,-61.936060708091304
-0.3597,-62.37462121104946
-0.36070000000000013,-62.855623053003576
-0.3617,-63.37906623395363
-0.3626999999999999,-63.944950753899654
-0.3637,-64.55327661284163
-0.3646999999999999,-65.2464851497755
-0.3657,-65.86895812171612
-0.3666999999999999,-66.25093017267966
-0.3677,-66.51972531965401
-0.3686999999999999,-66.73193201463377
-0.36970000000000003,-66.91584448361623
-0.3706999999999999,-67.128051178596
-0.37170000000000003,-67.34025787357575
-0.3726999999999999,-67.73637703753796
-0.37370000000000003,-68.21737887949207
-0.3746999999999999,-68.74082206044213
-0.37570000000000003,-69.26426524139221
-0.3766999999999999,-69.74526708334632
-0.37770000000000004,-70.18382758630447
-0.3786999999999999,-70.66482942825859
-0.37970000000000004,-71.18827260920865
-0.3806999999999999,-71.75415712915466
-0.38170000000000004,-72.48980700508447
-0.38269999999999993,-73.32448667200485
-0.38370000000000004,-74.28649035591307
-0.38469999999999993,-75.33337671781321
-0.38570000000000004,-76.33782174071737
-0.38669999999999993,-76.11146793273898
-0.38570000000000004,-74.0176952089387
-0.38469999999999993,-72.19271763211282
-0.38370000000000004,-70.48091695927613
-0.38269999999999993,-68.96717586842054
-0.38170000000000004,-67.52417034255821
-0.3806999999999999,-66.29337151167562
-0.37970000000000004,-65.16160247178358
-0.3786999999999999,-64.15715744887942
-0.37770000000000004,-63.11027108697928
-0.3766999999999999,-62.20485585506566
-0.37570000000000003,-61.242852171157445
-0.3746999999999999,-60.19596580925731
-0.37370000000000003,-59.14907944735718
-0.3726999999999999,-58.18707576344896
-0.37170000000000003,-57.352396096528594
-0.3706999999999999,-56.65918755959472
-0.36970000000000003,-56.093303039648696
-0.3686999999999999,-55.56985985869864
-0.3677,-55.13129935574048
-0.3666999999999999,-54.65029751378637
-0.3657,-54.1268543328363
-0.3646999999999999,-53.56096981289029
-0.3637,-52.91020261495237
-0.3626999999999999,-52.25943541701445
-0.3617,-51.69355089706845
-0.36070000000000013,-51.17010771611838
-0.3597,-50.68910587416426
-0.35870000000000013,-50.29298671020206
-0.3577,-49.85442620724389
-0.35670000000000013,-49.373424365289786
-0.3557,-48.84998118433972
-0.3547000000000001,-48.32653800338966
-0.3537,-47.71821214444768
-0.3527000000000001,-47.19476896349763
-0.3517,-46.67132578254756
-0.3507000000000001,-46.2327652795894
-0.3497,-45.89323456762179
-0.3487000000000001,-45.581998081651484
-0.3477,-45.22832025668522
-0.3467000000000001,-44.93123088371356
-0.3457,-44.45022904175945
-0.3447000000000001,-43.96922719980534
-0.3437,-43.44578401885527
-0.3427000000000001,-42.92234083790521
-0.3417,-42.483780334947056
-0.3407000000000001,-42.087661170984845
-0.3397,-41.79057179801318
-0.3387000000000001,-41.56421799003478
-0.3377,-41.267128617063115
-0.3367000000000001,-40.95589213109281
-0.3357,-40.51733162813464
-0.3347000000000001,-40.03632978618054
-0.3337,-39.51288660523048
-0.3327000000000001,-39.046031876275016
-0.3317,-38.522588695324956
-0.3307000000000001,-38.12646953136274
-0.3297,-37.77279170639648
-0.3287000000000001,-37.47570233342482
-0.3277,-37.07958316946261
-0.3267000000000001,-36.6834640055004
-0.3257,-36.16002082455034
-0.3247000000000001,-35.55169496560837
-0.3237,-34.94336910666641
-0.3227000000000001,-34.33504324772444
-0.3217,-33.712570275783825
-0.3207000000000001,-33.18912709483376
-0.3197,-32.764713704874254
-0.3187000000000001,-32.368594540912035
-0.3177,-31.930034037953877
-0.3167000000000001,-31.449032195999767
-0.3157,-30.8407063370578
-0.3147000000000001,-30.232380478115836
-0.3137,-29.581613280177915
-0.3127000000000001,-28.959140308237306
-0.3117,-28.308373110299385
-0.3107000000000001,-27.78492992934932
-0.3097,-27.34636942639116
-0.3087000000000001,-26.86536758443705
-0.3077,-26.38436574248293
-0.3067000000000001,-25.86092256153287
-0.30569999999999997,-25.252596702590903
-0.3047000000000001,-24.601829504652986
-0.30369999999999997,-23.908620967719123
-0.3027000000000001,-23.24370665678255
-0.30169999999999997,-22.63538079784059
-0.3007000000000001,-22.111937616890522
-0.29969999999999997,-21.63093577493641
-0.2987000000000001,-21.248963723972853
-0.29769999999999996,-20.810403221014692
-0.2967000000000001,-20.371842718056527
-0.29569999999999996,-19.805958198110513
-0.2947000000000001,-19.197632339168546
-0.29369999999999996,-18.49027668923603
-0.29270000000000007,-17.839509491298113
-0.29169999999999996,-17.231183632356142
-0.29070000000000007,-16.70774045140608
-0.28969999999999996,-16.184297270456018
-0.28870000000000007,-15.74573676749786
-0.28769999999999996,-15.307176264539699
-0.28670000000000007,-14.826174422585586
-0.28569999999999995,-14.26028990263957
-0.28470000000000006,-13.654793466297335
-0.28369999999999995,-12.99978213445982
-0.28270000000000006,-12.346185513922174
-0.28169999999999995,-11.73503023238048
-0.28070000000000006,-11.211587051430415
-0.27969999999999995,-10.731999920776168
-0.27870000000000006,-10.296268840417738
-0.27769999999999995,-9.85912304875944
-0.27670000000000006,-9.423391968401008
-0.27569999999999995,-8.85609273715513
-0.27470000000000006,-8.246352166913299
-0.27369999999999994,-7.635196885371603
-0.27270000000000005,-6.981600264833956
-0.27169999999999994,-6.414301033588076
-0.27070000000000005,-5.9347139029338285
-0.26969999999999994,-5.5414241615713475
-0.26870000000000005,-5.149549131508733
-0.26769999999999994,-4.756259390146253
-0.26670000000000005,-4.3205283097878215
-0.26569999999999994,-3.7970851288377587
