Apr. 26, 2025   12:51:13
Cyclic Voltammetry
File: c:/users/guazh/data/banditlqround7_x0exp590_r20/2025-04-16-exp1195\exp1195-2025-04-26t12_31_12-arkoh\exp1195_cv_sr_400mvs_efin_-1900mv.bin
Data Source:  Experiment
Instrument Model:  CHI760E
Header: CV ran at 400 mVs
Note: 

Init E (V) = -1
High E (V) = -1
Low E (V) = -1.9
Final E (V) = -1
Init P/N = N
Scan Rate (V/s) = 0.4
Segment = 3
Sample Interval (V) = 0.001
Quiet Time (sec) = 2
Sensitivity (A/V) = 0.01
Comp R (ohm) = 3.4

Results:

Channel 1:
Segment 1:

Segment 2:

Segment 3:

Potential/V, Current/A

-1.000, 3.239e-6
-1.001, 3.239e-6
-1.002, 1.559e-7
-1.003, 3.239e-6
-1.004, 3.239e-6
-1.005, 3.239e-6
-1.006, 3.239e-6
-1.007, 3.239e-6
-1.008, 1.559e-7
-1.009, 1.559e-7
-1.010, 3.239e-6
-1.011, 3.239e-6
-1.012, 3.239e-6
-1.013, 3.239e-6
-1.014, 3.239e-6
-1.015, 1.559e-7
-1.016, 3.239e-6
-1.017, 3.239e-6
-1.018, 3.239e-6
-1.019, 3.239e-6
-1.020, 3.239e-6
-1.021, 3.239e-6
-1.022, 3.239e-6
-1.023, 3.239e-6
-1.024, 3.239e-6
-1.025, 3.239e-6
-1.026, 3.239e-6
-1.027, 3.239e-6
-1.028, 3.239e-6
-1.029, 3.239e-6
-1.030, 3.239e-6
-1.031, 3.239e-6
-1.032, 3.239e-6
-1.033, 3.239e-6
-1.034, 3.239e-6
-1.035, 3.239e-6
-1.036, 3.239e-6
-1.037, 3.239e-6
-1.038, 3.239e-6
-1.039, 3.239e-6
-1.040, 3.239e-6
-1.041, 3.239e-6
-1.042, 3.239e-6
-1.043, 3.239e-6
-1.044, 3.239e-6
-1.045, 3.239e-6
-1.046, 3.239e-6
-1.047, 3.239e-6
-1.048, 3.239e-6
-1.049, 3.239e-6
-1.050, 3.239e-6
-1.051, 3.239e-6
-1.052, 3.239e-6
-1.053, 3.239e-6
-1.054, 3.239e-6
-1.055, 3.239e-6
-1.056, 3.239e-6
-1.057, 3.239e-6
-1.058, 3.239e-6
-1.059, 3.239e-6
-1.060, 3.239e-6
-1.061, 3.239e-6
-1.062, 3.239e-6
-1.063, 3.239e-6
-1.064, 3.239e-6
-1.065, 3.239e-6
-1.066, 3.239e-6
-1.067, 3.239e-6
-1.068, 3.239e-6
-1.069, 3.239e-6
-1.070, 3.239e-6
-1.071, 3.239e-6
-1.072, 3.239e-6
-1.073, 3.239e-6
-1.074, 3.239e-6
-1.075, 3.239e-6
-1.076, 3.239e-6
-1.077, 3.239e-6
-1.078, 3.239e-6
-1.079, 3.239e-6
-1.080, 3.239e-6
-1.081, 3.239e-6
-1.082, 3.239e-6
-1.083, 3.239e-6
-1.084, 3.239e-6
-1.085, 3.239e-6
-1.086, 3.239e-6
-1.087, 3.239e-6
-1.088, 3.239e-6
-1.089, 3.239e-6
-1.090, 3.239e-6
-1.091, 3.239e-6
-1.092, 3.239e-6
-1.093, 3.239e-6
-1.094, 3.239e-6
-1.095, 3.239e-6
-1.096, 3.239e-6
-1.097, 3.239e-6
-1.098, 6.322e-6
-1.099, 3.239e-6
-1.100, 3.239e-6
-1.101, 3.239e-6
-1.102, 3.239e-6
-1.103, 3.239e-6
-1.104, 3.239e-6
-1.105, 3.239e-6
-1.106, 3.239e-6
-1.107, 3.239e-6
-1.108, 3.239e-6
-1.109, 3.239e-6
-1.110, 3.239e-6
-1.111, 3.239e-6
-1.112, 3.239e-6
-1.113, 3.239e-6
-1.114, 3.239e-6
-1.115, 3.239e-6
-1.116, 3.239e-6
-1.117, 3.239e-6
-1.118, 3.239e-6
-1.119, 3.239e-6
-1.120, 3.239e-6
-1.121, 3.239e-6
-1.122, 3.239e-6
-1.123, 6.322e-6
-1.124, 3.239e-6
-1.125, 3.239e-6
-1.126, 3.239e-6
-1.127, 3.239e-6
-1.128, 3.239e-6
-1.129, 3.239e-6
-1.130, 3.239e-6
-1.131, 3.239e-6
-1.132, 3.239e-6
-1.133, 3.239e-6
-1.134, 3.239e-6
-1.135, 3.239e-6
-1.136, 3.239e-6
-1.137, 3.239e-6
-1.138, 3.239e-6
-1.139, 3.239e-6
-1.140, 3.239e-6
-1.141, 3.239e-6
-1.142, 3.239e-6
-1.143, 3.239e-6
-1.144, 3.239e-6
-1.145, 3.239e-6
-1.146, 3.239e-6
-1.147, 3.239e-6
-1.148, 3.239e-6
-1.149, 3.239e-6
-1.150, 6.322e-6
-1.151, 3.239e-6
-1.152, 3.239e-6
-1.153, 3.239e-6
-1.154, 3.239e-6
-1.155, 3.239e-6
-1.156, 6.322e-6
-1.157, 3.239e-6
-1.158, 3.239e-6
-1.159, 6.322e-6
-1.160, 3.239e-6
-1.161, 3.239e-6
-1.162, 3.239e-6
-1.163, 3.239e-6
-1.164, 3.239e-6
-1.165, 3.239e-6
-1.166, 3.239e-6
-1.167, 3.239e-6
-1.168, 3.239e-6
-1.169, 6.322e-6
-1.170, 3.239e-6
-1.171, 6.322e-6
-1.172, 3.239e-6
-1.173, 6.322e-6
-1.174, 3.239e-6
-1.175, 3.239e-6
-1.176, 3.239e-6
-1.177, 6.322e-6
-1.178, 3.239e-6
-1.179, 3.239e-6
-1.180, 3.239e-6
-1.181, 3.239e-6
-1.182, 3.239e-6
-1.183, 3.239e-6
-1.184, 3.239e-6
-1.185, 3.239e-6
-1.186, 6.322e-6
-1.187, 3.239e-6
-1.188, 3.239e-6
-1.189, 3.239e-6
-1.190, 6.322e-6
-1.191, 3.239e-6
-1.192, 3.239e-6
-1.193, 6.322e-6
-1.194, 6.322e-6
-1.195, 6.322e-6
-1.196, 3.239e-6
-1.197, 6.322e-6
-1.198, 6.322e-6
-1.199, 3.239e-6
-1.200, 6.322e-6
-1.201, 3.239e-6
-1.202, 6.322e-6
-1.203, 3.239e-6
-1.204, 6.322e-6
-1.205, 3.239e-6
-1.206, 6.322e-6
-1.207, 3.239e-6
-1.208, 6.322e-6
-1.209, 6.322e-6
-1.210, 6.322e-6
-1.211, 6.322e-6
-1.212, 3.239e-6
-1.213, 6.322e-6
-1.214, 6.322e-6
-1.215, 6.322e-6
-1.216, 6.322e-6
-1.217, 6.322e-6
-1.218, 6.322e-6
-1.219, 3.239e-6
-1.220, 6.322e-6
-1.221, 3.239e-6
-1.222, 6.322e-6
-1.223, 6.322e-6
-1.224, 6.322e-6
-1.225, 6.322e-6
-1.226, 6.322e-6
-1.227, 6.322e-6
-1.228, 6.322e-6
-1.229, 6.322e-6
-1.230, 6.322e-6
-1.231, 6.322e-6
-1.232, 3.239e-6
-1.233, 6.322e-6
-1.234, 6.322e-6
-1.235, 6.322e-6
-1.236, 6.322e-6
-1.237, 6.322e-6
-1.238, 6.322e-6
-1.239, 6.322e-6
-1.240, 6.322e-6
-1.241, 6.322e-6
-1.242, 6.322e-6
-1.243, 6.322e-6
-1.244, 6.322e-6
-1.245, 6.322e-6
-1.246, 6.322e-6
-1.247, 6.322e-6
-1.248, 6.322e-6
-1.249, 6.322e-6
-1.250, 6.322e-6
-1.251, 6.322e-6
-1.252, 6.322e-6
-1.253, 6.322e-6
-1.254, 3.239e-6
-1.255, 6.322e-6
-1.256, 6.322e-6
-1.257, 3.239e-6
-1.258, 6.322e-6
-1.259, 6.322e-6
-1.260, 6.322e-6
-1.261, 6.322e-6
-1.262, 3.239e-6
-1.263, 6.322e-6
-1.264, 6.322e-6
-1.265, 6.322e-6
-1.266, 3.239e-6
-1.267, 6.322e-6
-1.268, 6.322e-6
-1.269, 6.322e-6
-1.270, 6.322e-6
-1.271, 6.322e-6
-1.272, 6.322e-6
-1.273, 6.322e-6
-1.274, 6.322e-6
-1.275, 6.322e-6
-1.276, 6.322e-6
-1.277, 6.322e-6
-1.278, 6.322e-6
-1.279, 6.322e-6
-1.280, 6.322e-6
-1.281, 6.322e-6
-1.282, 6.322e-6
-1.283, 6.322e-6
-1.284, 6.322e-6
-1.285, 6.322e-6
-1.286, 6.322e-6
-1.287, 6.322e-6
-1.288, 6.322e-6
-1.289, 6.322e-6
-1.290, 6.322e-6
-1.291, 6.322e-6
-1.292, 6.322e-6
-1.293, 6.322e-6
-1.294, 6.322e-6
-1.295, 3.239e-6
-1.296, 6.322e-6
-1.297, 6.322e-6
-1.298, 6.322e-6
-1.299, 6.322e-6
-1.300, 6.322e-6
-1.301, 6.322e-6
-1.302, 6.322e-6
-1.303, 6.322e-6
-1.304, 6.322e-6
-1.305, 6.322e-6
-1.306, 6.322e-6
-1.307, 6.322e-6
-1.308, 6.322e-6
-1.309, 6.322e-6
-1.310, 6.322e-6
-1.311, 6.322e-6
-1.312, 6.322e-6
-1.313, 6.322e-6
-1.314, 6.322e-6
-1.315, 6.322e-6
-1.316, 6.322e-6
-1.317, 6.322e-6
-1.318, 6.322e-6
-1.319, 6.322e-6
-1.320, 6.322e-6
-1.321, 6.322e-6
-1.322, 6.322e-6
-1.323, 6.322e-6
-1.324, 6.322e-6
-1.325, 6.322e-6
-1.326, 6.322e-6
-1.327, 6.322e-6
-1.328, 6.322e-6
-1.329, 6.322e-6
-1.330, 6.322e-6
-1.331, 6.322e-6
-1.332, 6.322e-6
-1.333, 6.322e-6
-1.334, 6.322e-6
-1.335, 6.322e-6
-1.336, 6.322e-6
-1.337, 6.322e-6
-1.338, 6.322e-6
-1.339, 6.322e-6
-1.340, 6.322e-6
-1.341, 6.322e-6
-1.342, 6.322e-6
-1.343, 6.322e-6
-1.344, 6.322e-6
-1.345, 6.322e-6
-1.346, 6.322e-6
-1.347, 6.322e-6
-1.348, 6.322e-6
-1.349, 6.322e-6
-1.350, 6.322e-6
-1.351, 6.322e-6
-1.352, 6.322e-6
-1.353, 6.322e-6
-1.354, 6.322e-6
-1.355, 6.322e-6
-1.356, 6.322e-6
-1.357, 6.322e-6
-1.358, 6.322e-6
-1.359, 6.322e-6
-1.360, 6.322e-6
-1.361, 6.322e-6
-1.362, 6.322e-6
-1.363, 6.322e-6
-1.364, 6.322e-6
-1.365, 6.322e-6
-1.366, 6.322e-6
-1.367, 6.322e-6
-1.368, 6.322e-6
-1.369, 6.322e-6
-1.370, 6.322e-6
-1.371, 6.322e-6
-1.372, 6.322e-6
-1.373, 6.322e-6
-1.374, 6.322e-6
-1.375, 6.322e-6
-1.376, 6.322e-6
-1.377, 6.322e-6
-1.378, 6.322e-6
-1.379, 6.322e-6
-1.380, 6.322e-6
-1.381, 6.322e-6
-1.382, 6.322e-6
-1.383, 6.322e-6
-1.384, 6.322e-6
-1.385, 6.322e-6
-1.386, 6.322e-6
-1.387, 6.322e-6
-1.388, 6.322e-6
-1.389, 6.322e-6
-1.390, 6.322e-6
-1.391, 6.322e-6
-1.392, 6.322e-6
-1.393, 6.322e-6
-1.394, 6.322e-6
-1.395, 6.322e-6
-1.396, 6.322e-6
-1.397, 6.322e-6
-1.398, 6.322e-6
-1.399, 6.322e-6
-1.400, 6.322e-6
-1.401, 6.322e-6
-1.402, 6.322e-6
-1.403, 9.405e-6
-1.404, 6.322e-6
-1.405, 6.322e-6
-1.406, 6.322e-6
-1.407, 6.322e-6
-1.408, 6.322e-6
-1.409, 6.322e-6
-1.410, 9.405e-6
-1.411, 6.322e-6
-1.412, 6.322e-6
-1.413, 6.322e-6
-1.414, 6.322e-6
-1.415, 6.322e-6
-1.416, 9.405e-6
-1.417, 6.322e-6
-1.418, 9.405e-6
-1.419, 6.322e-6
-1.420, 6.322e-6
-1.421, 6.322e-6
-1.422, 9.405e-6
-1.423, 9.405e-6
-1.424, 6.322e-6
-1.425, 6.322e-6
-1.426, 6.322e-6
-1.427, 6.322e-6
-1.428, 6.322e-6
-1.429, 6.322e-6
-1.430, 6.322e-6
-1.431, 6.322e-6
-1.432, 6.322e-6
-1.433, 9.405e-6
-1.434, 9.405e-6
-1.435, 9.405e-6
-1.436, 9.405e-6
-1.437, 6.322e-6
-1.438, 6.322e-6
-1.439, 6.322e-6
-1.440, 6.322e-6
-1.441, 6.322e-6
-1.442, 6.322e-6
-1.443, 9.405e-6
-1.444, 9.405e-6
-1.445, 9.405e-6
-1.446, 6.322e-6
-1.447, 9.405e-6
-1.448, 9.405e-6
-1.449, 9.405e-6
-1.450, 9.405e-6
-1.451, 6.322e-6
-1.452, 9.405e-6
-1.453, 9.405e-6
-1.454, 9.405e-6
-1.455, 9.405e-6
-1.456, 9.405e-6
-1.457, 9.405e-6
-1.458, 6.322e-6
-1.459, 9.405e-6
-1.460, 9.405e-6
-1.461, 9.405e-6
-1.462, 9.405e-6
-1.463, 9.405e-6
-1.464, 9.405e-6
-1.465, 9.405e-6
-1.466, 9.405e-6
-1.467, 9.405e-6
-1.468, 9.405e-6
-1.469, 9.405e-6
-1.470, 9.405e-6
-1.471, 9.405e-6
-1.472, 9.405e-6
-1.473, 9.405e-6
-1.474, 6.322e-6
-1.475, 9.405e-6
-1.476, 9.405e-6
-1.477, 9.405e-6
-1.478, 9.405e-6
-1.479, 9.405e-6
-1.480, 9.405e-6
-1.481, 9.405e-6
-1.482, 9.405e-6
-1.483, 9.405e-6
-1.484, 9.405e-6
-1.485, 9.405e-6
-1.486, 9.405e-6
-1.487, 9.405e-6
-1.488, 9.405e-6
-1.489, 9.405e-6
-1.490, 9.405e-6
-1.491, 9.405e-6
-1.492, 9.405e-6
-1.493, 9.405e-6
-1.494, 9.405e-6
-1.495, 9.405e-6
-1.496, 9.405e-6
-1.497, 9.405e-6
-1.498, 9.405e-6
-1.499, 9.405e-6
-1.500, 9.405e-6
-1.501, 9.405e-6
-1.502, 9.405e-6
-1.503, 9.405e-6
-1.504, 9.405e-6
-1.505, 9.405e-6
-1.506, 9.405e-6
-1.507, 9.405e-6
-1.508, 9.405e-6
-1.509, 9.405e-6
-1.510, 9.405e-6
-1.511, 9.405e-6
-1.512, 9.405e-6
-1.513, 9.405e-6
-1.514, 9.405e-6
-1.515, 9.405e-6
-1.516, 9.405e-6
-1.517, 9.405e-6
-1.518, 9.405e-6
-1.519, 9.405e-6
-1.520, 9.405e-6
-1.521, 9.405e-6
-1.522, 9.405e-6
-1.523, 1.249e-5
-1.524, 9.405e-6
-1.525, 9.405e-6
-1.526, 9.405e-6
-1.527, 9.405e-6
-1.528, 9.405e-6
-1.529, 9.405e-6
-1.530, 9.405e-6
-1.531, 9.405e-6
-1.532, 9.405e-6
-1.533, 9.405e-6
-1.534, 9.405e-6
-1.535, 9.405e-6
-1.536, 1.249e-5
-1.537, 9.405e-6
-1.538, 1.249e-5
-1.539, 9.405e-6
-1.540, 1.249e-5
-1.541, 9.405e-6
-1.542, 9.405e-6
-1.543, 1.249e-5
-1.544, 1.249e-5
-1.545, 1.249e-5
-1.546, 1.249e-5
-1.547, 9.405e-6
-1.548, 1.249e-5
-1.549, 9.405e-6
-1.550, 9.405e-6
-1.551, 1.249e-5
-1.552, 1.249e-5
-1.553, 1.249e-5
-1.554, 1.249e-5
-1.555, 1.249e-5
-1.556, 1.249e-5
-1.557, 1.249e-5
-1.558, 1.249e-5
-1.559, 1.249e-5
-1.560, 1.249e-5
-1.561, 1.249e-5
-1.562, 1.249e-5
-1.563, 1.249e-5
-1.564, 1.249e-5
-1.565, 1.249e-5
-1.566, 1.249e-5
-1.567, 1.249e-5
-1.568, 1.249e-5
-1.569, 1.249e-5
-1.570, 1.249e-5
-1.571, 1.249e-5
-1.572, 1.249e-5
-1.573, 1.249e-5
-1.574, 1.249e-5
-1.575, 1.249e-5
-1.576, 1.249e-5
-1.577, 1.249e-5
-1.578, 1.249e-5
-1.579, 1.249e-5
-1.580, 1.249e-5
-1.581, 1.249e-5
-1.582, 1.557e-5
-1.583, 1.249e-5
-1.584, 1.557e-5
-1.585, 1.557e-5
-1.586, 1.557e-5
-1.587, 1.557e-5
-1.588, 1.557e-5
-1.589, 1.557e-5
-1.590, 1.557e-5
-1.591, 1.557e-5
-1.592, 1.557e-5
-1.593, 1.557e-5
-1.594, 1.557e-5
-1.595, 1.557e-5
-1.596, 1.557e-5
-1.597, 1.557e-5
-1.598, 1.557e-5
-1.599, 1.557e-5
-1.600, 1.557e-5
-1.601, 1.557e-5
-1.602, 1.557e-5
-1.603, 1.865e-5
-1.604, 1.865e-5
-1.605, 1.865e-5
-1.606, 1.865e-5
-1.607, 1.865e-5
-1.608, 1.865e-5
-1.609, 1.865e-5
-1.610, 1.865e-5
-1.611, 1.865e-5
-1.612, 1.865e-5
-1.613, 1.865e-5
-1.614, 1.865e-5
-1.615, 1.865e-5
-1.616, 1.865e-5
-1.617, 1.865e-5
-1.618, 1.865e-5
-1.619, 1.865e-5
-1.620, 2.174e-5
-1.621, 2.174e-5
-1.622, 2.174e-5
-1.623, 2.174e-5
-1.624, 2.174e-5
-1.625, 2.174e-5
-1.626, 2.174e-5
-1.627, 2.174e-5
-1.628, 2.174e-5
-1.629, 2.482e-5
-1.630, 2.482e-5
-1.631, 2.482e-5
-1.632, 2.482e-5
-1.633, 2.482e-5
-1.634, 2.482e-5
-1.635, 2.482e-5
-1.636, 2.482e-5
-1.637, 2.482e-5
-1.638, 2.790e-5
-1.639, 2.790e-5
-1.640, 2.790e-5
-1.641, 2.790e-5
-1.642, 2.790e-5
-1.643, 2.790e-5
-1.644, 3.099e-5
-1.645, 3.099e-5
-1.646, 3.099e-5
-1.647, 3.099e-5
-1.648, 3.099e-5
-1.649, 3.099e-5
-1.650, 3.407e-5
-1.651, 3.407e-5
-1.652, 3.407e-5
-1.653, 3.407e-5
-1.654, 3.407e-5
-1.655, 3.715e-5
-1.656, 3.715e-5
-1.657, 3.715e-5
-1.658, 3.715e-5
-1.659, 3.715e-5
-1.660, 4.024e-5
-1.661, 4.024e-5
-1.662, 4.024e-5
-1.663, 4.024e-5
-1.664, 4.332e-5
-1.665, 4.332e-5
-1.666, 4.332e-5
-1.667, 4.332e-5
-1.668, 4.640e-5
-1.669, 4.640e-5
-1.670, 4.640e-5
-1.671, 4.949e-5
-1.672, 4.949e-5
-1.673, 4.949e-5
-1.674, 4.949e-5
-1.675, 5.257e-5
-1.676, 5.257e-5
-1.677, 5.565e-5
-1.678, 5.565e-5
-1.679, 5.565e-5
-1.680, 5.873e-5
-1.681, 5.873e-5
-1.682, 6.182e-5
-1.683, 6.182e-5
-1.684, 6.182e-5
-1.685, 6.490e-5
-1.686, 6.490e-5
-1.687, 6.490e-5
-1.688, 6.798e-5
-1.689, 7.107e-5
-1.690, 7.107e-5
-1.691, 7.107e-5
-1.692, 7.415e-5
-1.693, 7.723e-5
-1.694, 7.723e-5
-1.695, 8.032e-5
-1.696, 8.032e-5
-1.697, 8.340e-5
-1.698, 8.340e-5
-1.699, 8.648e-5
-1.700, 8.648e-5
-1.701, 8.957e-5
-1.702, 9.265e-5
-1.703, 9.265e-5
-1.704, 9.573e-5
-1.705, 9.882e-5
-1.706, 1.019e-4
-1.707, 1.019e-4
-1.708, 1.050e-4
-1.709, 1.081e-4
-1.710, 1.111e-4
-1.711, 1.111e-4
-1.712, 1.142e-4
-1.713, 1.173e-4
-1.714, 1.204e-4
-1.715, 1.204e-4
-1.716, 1.235e-4
-1.717, 1.266e-4
-1.718, 1.296e-4
-1.719, 1.327e-4
-1.720, 1.358e-4
-1.721, 1.389e-4
-1.722, 1.420e-4
-1.723, 1.451e-4
-1.724, 1.481e-4
-1.725, 1.512e-4
-1.726, 1.543e-4
-1.727, 1.574e-4
-1.728, 1.605e-4
-1.729, 1.666e-4
-1.730, 1.697e-4
-1.731, 1.728e-4
-1.732, 1.759e-4
-1.733, 1.821e-4
-1.734, 1.851e-4
-1.735, 1.882e-4
-1.736, 1.913e-4
-1.737, 1.975e-4
-1.738, 2.006e-4
-1.739, 2.067e-4
-1.740, 2.129e-4
-1.741, 2.160e-4
-1.742, 2.221e-4
-1.743, 2.252e-4
-1.744, 2.314e-4
-1.745, 2.376e-4
-1.746, 2.406e-4
-1.747, 2.468e-4
-1.748, 2.530e-4
-1.749, 2.591e-4
-1.750, 2.653e-4
-1.751, 2.715e-4
-1.752, 2.776e-4
-1.753, 2.838e-4
-1.754, 2.900e-4
-1.755, 2.961e-4
-1.756, 3.054e-4
-1.757, 3.115e-4
-1.758, 3.177e-4
-1.759, 3.270e-4
-1.760, 3.331e-4
-1.761, 3.393e-4
-1.762, 3.485e-4
-1.763, 3.578e-4
-1.764, 3.670e-4
-1.765, 3.763e-4
-1.766, 3.825e-4
-1.767, 3.917e-4
-1.768, 4.010e-4
-1.769, 4.102e-4
-1.770, 4.225e-4
-1.771, 4.318e-4
-1.772, 4.410e-4
-1.773, 4.534e-4
-1.774, 4.626e-4
-1.775, 4.750e-4
-1.776, 4.873e-4
-1.777, 4.996e-4
-1.778, 5.120e-4
-1.779, 5.243e-4
-1.780, 5.366e-4
-1.781, 5.459e-4
-1.782, 5.613e-4
-1.783, 5.767e-4
-1.784, 5.890e-4
-1.785, 6.044e-4
-1.786, 6.199e-4
-1.787, 6.353e-4
-1.788, 6.507e-4
-1.789, 6.661e-4
-1.790, 6.846e-4
-1.791, 7.031e-4
-1.792, 7.185e-4
-1.793, 7.370e-4
-1.794, 7.555e-4
-1.795, 7.740e-4
-1.796, 7.925e-4
-1.797, 8.141e-4
-1.798, 8.357e-4
-1.799, 8.573e-4
-1.800, 8.788e-4
-1.801, 8.973e-4
-1.802, 9.189e-4
-1.803, 9.436e-4
-1.804, 9.713e-4
-1.805, 9.929e-4
-1.806, 1.021e-3
-1.807, 1.042e-3
-1.808, 1.070e-3
-1.809, 1.098e-3
-1.810, 1.125e-3
-1.811, 1.153e-3
-1.812, 1.184e-3
-1.813, 1.212e-3
-1.814, 1.240e-3
-1.815, 1.270e-3
-1.816, 1.301e-3
-1.817, 1.335e-3
-1.818, 1.372e-3
-1.819, 1.403e-3
-1.820, 1.437e-3
-1.821, 1.471e-3
-1.822, 1.508e-3
-1.823, 1.548e-3
-1.824, 1.585e-3
-1.825, 1.625e-3
-1.826, 1.665e-3
-1.827, 1.705e-3
-1.828, 1.745e-3
-1.829, 1.788e-3
-1.830, 1.832e-3
-1.831, 1.878e-3
-1.832, 1.924e-3
-1.833, 1.967e-3
-1.834, 2.013e-3
-1.835, 2.060e-3
-1.836, 2.112e-3
-1.837, 2.164e-3
-1.838, 2.217e-3
-1.839, 2.266e-3
-1.840, 2.316e-3
-1.841, 2.371e-3
-1.842, 2.427e-3
-1.843, 2.485e-3
-1.844, 2.541e-3
-1.845, 2.602e-3
-1.846, 2.658e-3
-1.847, 2.716e-3
-1.848, 2.775e-3
-1.849, 2.837e-3
-1.850, 2.901e-3
-1.851, 2.966e-3
-1.852, 3.031e-3
-1.853, 3.096e-3
-1.854, 3.160e-3
-1.855, 3.228e-3
-1.856, 3.302e-3
-1.857, 3.373e-3
-1.858, 3.447e-3
-1.859, 3.518e-3
-1.860, 3.589e-3
-1.861, 3.660e-3
-1.862, 3.737e-3
-1.863, 3.814e-3
-1.864, 3.894e-3
-1.865, 3.971e-3
-1.866, 4.048e-3
-1.867, 4.128e-3
-1.868, 4.209e-3
-1.869, 4.292e-3
-1.870, 4.381e-3
-1.871, 4.471e-3
-1.872, 4.560e-3
-1.873, 4.643e-3
-1.874, 4.730e-3
-1.875, 4.819e-3
-1.876, 4.912e-3
-1.877, 5.004e-3
-1.878, 5.097e-3
-1.879, 5.186e-3
-1.880, 5.275e-3
-1.881, 5.365e-3
-1.882, 5.460e-3
-1.883, 5.559e-3
-1.884, 5.658e-3
-1.885, 5.753e-3
-1.886, 5.846e-3
-1.887, 5.941e-3
-1.888, 6.037e-3
-1.889, 6.139e-3
-1.890, 6.243e-3
-1.891, 6.348e-3
-1.892, 6.453e-3
-1.893, 6.552e-3
-1.894, 6.654e-3
-1.895, 6.758e-3
-1.896, 6.866e-3
-1.897, 6.977e-3
-1.898, 7.085e-3
-1.899, 7.190e-3
-1.900, 7.242e-3
-1.899, 7.190e-3
-1.898, 7.138e-3
-1.897, 7.082e-3
-1.896, 7.027e-3
-1.895, 6.968e-3
-1.894, 6.903e-3
-1.893, 6.838e-3
-1.892, 6.771e-3
-1.891, 6.709e-3
-1.890, 6.647e-3
-1.889, 6.580e-3
-1.888, 6.512e-3
-1.887, 6.441e-3
-1.886, 6.367e-3
-1.885, 6.299e-3
-1.884, 6.234e-3
-1.883, 6.169e-3
-1.882, 6.105e-3
-1.881, 6.034e-3
-1.880, 5.963e-3
-1.879, 5.892e-3
-1.878, 5.824e-3
-1.877, 5.759e-3
-1.876, 5.695e-3
-1.875, 5.627e-3
-1.874, 5.556e-3
-1.873, 5.485e-3
-1.872, 5.417e-3
-1.871, 5.352e-3
-1.870, 5.291e-3
-1.869, 5.229e-3
-1.868, 5.164e-3
-1.867, 5.097e-3
-1.866, 5.029e-3
-1.865, 4.964e-3
-1.864, 4.899e-3
-1.863, 4.841e-3
-1.862, 4.776e-3
-1.861, 4.711e-3
-1.860, 4.646e-3
-1.859, 4.579e-3
-1.858, 4.520e-3
-1.857, 4.458e-3
-1.856, 4.400e-3
-1.855, 4.341e-3
-1.854, 4.276e-3
-1.853, 4.215e-3
-1.852, 4.153e-3
-1.851, 4.095e-3
-1.850, 4.042e-3
-1.849, 3.984e-3
-1.848, 3.928e-3
-1.847, 3.869e-3
-1.846, 3.808e-3
-1.845, 3.752e-3
-1.844, 3.700e-3
-1.843, 3.647e-3
-1.842, 3.592e-3
-1.841, 3.540e-3
-1.840, 3.484e-3
-1.839, 3.425e-3
-1.838, 3.373e-3
-1.837, 3.324e-3
-1.836, 3.274e-3
-1.835, 3.225e-3
-1.834, 3.170e-3
-1.833, 3.120e-3
-1.832, 3.068e-3
-1.831, 3.022e-3
-1.830, 2.972e-3
-1.829, 2.929e-3
-1.828, 2.880e-3
-1.827, 2.830e-3
-1.826, 2.784e-3
-1.825, 2.738e-3
-1.824, 2.695e-3
-1.823, 2.652e-3
-1.822, 2.608e-3
-1.821, 2.565e-3
-1.820, 2.519e-3
-1.819, 2.473e-3
-1.818, 2.433e-3
-1.817, 2.393e-3
-1.816, 2.353e-3
-1.815, 2.312e-3
-1.814, 2.275e-3
-1.813, 2.232e-3
-1.812, 2.192e-3
-1.811, 2.155e-3
-1.810, 2.118e-3
-1.809, 2.084e-3
-1.808, 2.047e-3
-1.807, 2.007e-3
-1.806, 1.973e-3
-1.805, 1.936e-3
-1.804, 1.902e-3
-1.803, 1.872e-3
-1.802, 1.838e-3
-1.801, 1.804e-3
-1.800, 1.770e-3
-1.799, 1.736e-3
-1.798, 1.705e-3
-1.797, 1.674e-3
-1.796, 1.647e-3
-1.795, 1.616e-3
-1.794, 1.585e-3
-1.793, 1.551e-3
-1.792, 1.523e-3
-1.791, 1.495e-3
-1.790, 1.468e-3
-1.789, 1.443e-3
-1.788, 1.415e-3
-1.787, 1.388e-3
-1.786, 1.360e-3
-1.785, 1.332e-3
-1.784, 1.310e-3
-1.783, 1.286e-3
-1.782, 1.261e-3
-1.781, 1.236e-3
-1.780, 1.212e-3
-1.779, 1.187e-3
-1.778, 1.166e-3
-1.777, 1.144e-3
-1.776, 1.122e-3
-1.775, 1.101e-3
-1.774, 1.079e-3
-1.773, 1.058e-3
-1.772, 1.036e-3
-1.771, 1.014e-3
-1.770, 9.960e-4
-1.769, 9.775e-4
-1.768, 9.559e-4
-1.767, 9.405e-4
-1.766, 9.189e-4
-1.765, 9.004e-4
-1.764, 8.850e-4
-1.763, 8.665e-4
-1.762, 8.480e-4
-1.761, 8.326e-4
-1.760, 8.141e-4
-1.759, 7.987e-4
-1.758, 7.833e-4
-1.757, 7.679e-4
-1.756, 7.524e-4
-1.755, 7.370e-4
-1.754, 7.216e-4
-1.753, 7.062e-4
-1.752, 6.908e-4
-1.751, 6.784e-4
-1.750, 6.661e-4
-1.749, 6.507e-4
-1.748, 6.384e-4
-1.747, 6.260e-4
-1.746, 6.106e-4
-1.745, 5.983e-4
-1.744, 5.890e-4
-1.743, 5.767e-4
-1.742, 5.644e-4
-1.741, 5.520e-4
-1.740, 5.397e-4
-1.739, 5.305e-4
-1.738, 5.181e-4
-1.737, 5.089e-4
-1.736, 4.965e-4
-1.735, 4.873e-4
-1.734, 4.780e-4
-1.733, 4.657e-4
-1.732, 4.565e-4
-1.731, 4.472e-4
-1.730, 4.380e-4
-1.729, 4.287e-4
-1.728, 4.225e-4
-1.727, 4.133e-4
-1.726, 4.040e-4
-1.725, 3.948e-4
-1.724, 3.886e-4
-1.723, 3.794e-4
-1.722, 3.732e-4
-1.721, 3.640e-4
-1.720, 3.578e-4
-1.719, 3.485e-4
-1.718, 3.424e-4
-1.717, 3.362e-4
-1.716, 3.300e-4
-1.715, 3.208e-4
-1.714, 3.146e-4
-1.713, 3.085e-4
-1.712, 3.023e-4
-1.711, 2.961e-4
-1.710, 2.900e-4
-1.709, 2.838e-4
-1.708, 2.776e-4
-1.707, 2.715e-4
-1.706, 2.653e-4
-1.705, 2.591e-4
-1.704, 2.561e-4
-1.703, 2.499e-4
-1.702, 2.437e-4
-1.701, 2.376e-4
-1.700, 2.345e-4
-1.699, 2.283e-4
-1.698, 2.252e-4
-1.697, 2.191e-4
-1.696, 2.160e-4
-1.695, 2.098e-4
-1.694, 2.067e-4
-1.693, 2.036e-4
-1.692, 1.975e-4
-1.691, 1.944e-4
-1.690, 1.913e-4
-1.689, 1.851e-4
-1.688, 1.821e-4
-1.687, 1.790e-4
-1.686, 1.759e-4
-1.685, 1.728e-4
-1.684, 1.697e-4
-1.683, 1.636e-4
-1.682, 1.605e-4
-1.681, 1.574e-4
-1.680, 1.543e-4
-1.679, 1.512e-4
-1.678, 1.481e-4
-1.677, 1.451e-4
-1.676, 1.420e-4
-1.675, 1.389e-4
-1.674, 1.358e-4
-1.673, 1.327e-4
-1.672, 1.296e-4
-1.671, 1.266e-4
-1.670, 1.235e-4
-1.669, 1.235e-4
-1.668, 1.204e-4
-1.667, 1.173e-4
-1.666, 1.142e-4
-1.665, 1.111e-4
-1.664, 1.111e-4
-1.663, 1.081e-4
-1.662, 1.050e-4
-1.661, 1.019e-4
-1.660, 1.019e-4
-1.659, 9.882e-5
-1.658, 9.573e-5
-1.657, 9.573e-5
-1.656, 9.265e-5
-1.655, 8.957e-5
-1.654, 8.957e-5
-1.653, 8.648e-5
-1.652, 8.648e-5
-1.651, 8.340e-5
-1.650, 8.032e-5
-1.649, 8.032e-5
-1.648, 7.723e-5
-1.647, 7.723e-5
-1.646, 7.415e-5
-1.645, 7.415e-5
-1.644, 7.415e-5
-1.643, 7.107e-5
-1.642, 6.798e-5
-1.641, 6.798e-5
-1.640, 6.490e-5
-1.639, 6.490e-5
-1.638, 6.182e-5
-1.637, 6.182e-5
-1.636, 5.873e-5
-1.635, 5.873e-5
-1.634, 5.873e-5
-1.633, 5.565e-5
-1.632, 5.565e-5
-1.631, 5.565e-5
-1.630, 5.257e-5
-1.629, 5.257e-5
-1.628, 5.257e-5
-1.627, 4.949e-5
-1.626, 4.949e-5
-1.625, 4.640e-5
-1.624, 4.640e-5
-1.623, 4.640e-5
-1.622, 4.332e-5
-1.621, 4.332e-5
-1.620, 4.332e-5
-1.619, 4.332e-5
-1.618, 4.024e-5
-1.617, 4.024e-5
-1.616, 4.024e-5
-1.615, 3.715e-5
-1.614, 3.715e-5
-1.613, 3.715e-5
-1.612, 3.407e-5
-1.611, 3.407e-5
-1.610, 3.407e-5
-1.609, 3.099e-5
-1.608, 3.407e-5
-1.607, 3.099e-5
-1.606, 3.099e-5
-1.605, 2.790e-5
-1.604, 3.099e-5
-1.603, 3.099e-5
-1.602, 2.790e-5
-1.601, 2.790e-5
-1.600, 2.790e-5
-1.599, 2.482e-5
-1.598, 2.482e-5
-1.597, 2.482e-5
-1.596, 2.482e-5
-1.595, 2.482e-5
-1.594, 2.482e-5
-1.593, 2.174e-5
-1.592, 2.174e-5
-1.591, 2.174e-5
-1.590, 2.174e-5
-1.589, 2.174e-5
-1.588, 2.174e-5
-1.587, 1.865e-5
-1.586, 1.865e-5
-1.585, 1.865e-5
-1.584, 1.865e-5
-1.583, 1.865e-5
-1.582, 1.865e-5
-1.581, 1.865e-5
-1.580, 1.557e-5
-1.579, 1.557e-5
-1.578, 1.557e-5
-1.577, 1.557e-5
-1.576, 1.557e-5
-1.575, 1.557e-5
-1.574, 1.557e-5
-1.573, 1.249e-5
-1.572, 1.249e-5
-1.571, 1.249e-5
-1.570, 1.249e-5
-1.569, 1.249e-5
-1.568, 1.249e-5
-1.567, 1.249e-5
-1.566, 1.249e-5
-1.565, 1.249e-5
-1.564, 1.249e-5
-1.563, 1.249e-5
-1.562, 9.405e-6
-1.561, 9.405e-6
-1.560, 9.405e-6
-1.559, 9.405e-6
-1.558, 1.249e-5
-1.557, 9.405e-6
-1.556, 9.405e-6
-1.555, 9.405e-6
-1.554, 9.405e-6
-1.553, 9.405e-6
-1.552, 9.405e-6
-1.551, 9.405e-6
-1.550, 9.405e-6
-1.549, 9.405e-6
-1.548, 6.322e-6
-1.547, 9.405e-6
-1.546, 6.322e-6
-1.545, 6.322e-6
-1.544, 6.322e-6
-1.543, 6.322e-6
-1.542, 6.322e-6
-1.541, 6.322e-6
-1.540, 6.322e-6
-1.539, 6.322e-6
-1.538, 6.322e-6
-1.537, 6.322e-6
-1.536, 6.322e-6
-1.535, 6.322e-6
-1.534, 3.239e-6
-1.533, 3.239e-6
-1.532, 6.322e-6
-1.531, 3.239e-6
-1.530, 3.239e-6
-1.529, 3.239e-6
-1.528, 3.239e-6
-1.527, 3.239e-6
-1.526, 6.322e-6
-1.525, 6.322e-6
-1.524, 3.239e-6
-1.523, 3.239e-6
-1.522, 3.239e-6
-1.521, 3.239e-6
-1.520, 3.239e-6
-1.519, 3.239e-6
-1.518, 3.239e-6
-1.517, 3.239e-6
-1.516, 3.239e-6
-1.515, 3.239e-6
-1.514, 3.239e-6
-1.513, 3.239e-6
-1.512, 3.239e-6
-1.511, 3.239e-6
-1.510, 3.239e-6
-1.509, 3.239e-6
-1.508, 3.239e-6
-1.507, 3.239e-6
-1.506, 3.239e-6
-1.505, 3.239e-6
-1.504, 3.239e-6
-1.503, 3.239e-6
-1.502, 3.239e-6
-1.501, 3.239e-6
-1.500, 3.239e-6
-1.499, 3.239e-6
-1.498, 3.239e-6
-1.497, 1.559e-7
-1.496, 3.239e-6
-1.495, 3.239e-6
-1.494, 3.239e-6
-1.493, 1.559e-7
-1.492, 3.239e-6
-1.491, 3.239e-6
-1.490, 1.559e-7
-1.489, 3.239e-6
-1.488, 1.559e-7
-1.487, 3.239e-6
-1.486, 3.239e-6
-1.485, 1.559e-7
-1.484, 3.239e-6
-1.483, 1.559e-7
-1.482, 1.559e-7
-1.481, 3.239e-6
-1.480, 1.559e-7
-1.479, 1.559e-7
-1.478, 1.559e-7
-1.477, 1.559e-7
-1.476, 1.559e-7
-1.475, 1.559e-7
-1.474, 1.559e-7
-1.473, 1.559e-7
-1.472, 1.559e-7
-1.471, 3.239e-6
-1.470, 1.559e-7
-1.469, 1.559e-7
-1.468, 1.559e-7
-1.467, 1.559e-7
-1.466, 1.559e-7
-1.465, 1.559e-7
-1.464, 1.559e-7
-1.463, 1.559e-7
-1.462, 1.559e-7
-1.461, 1.559e-7
-1.460, 1.559e-7
-1.459, 1.559e-7
-1.458, 1.559e-7
-1.457, 1.559e-7
-1.456, 1.559e-7
-1.455, 1.559e-7
-1.454, 1.559e-7
-1.453, 1.559e-7
-1.452, 1.559e-7
-1.451, 1.559e-7
-1.450, 1.559e-7
-1.449, 1.559e-7
-1.448, 1.559e-7
-1.447, 1.559e-7
-1.446, 1.559e-7
-1.445, 1.559e-7
-1.444, 1.559e-7
-1.443, 1.559e-7
-1.442, 1.559e-7
-1.441, 1.559e-7
-1.440, 1.559e-7
-1.439, 1.559e-7
-1.438, 1.559e-7
-1.437, 1.559e-7
-1.436, 1.559e-7
-1.435, 1.559e-7
-1.434, 1.559e-7
-1.433, 1.559e-7
-1.432, 1.559e-7
-1.431, 1.559e-7
-1.430, 1.559e-7
-1.429, 1.559e-7
-1.428, 1.559e-7
-1.427, 1.559e-7
-1.426, 1.559e-7
-1.425, 1.559e-7
-1.424, 1.559e-7
-1.423, 1.559e-7
-1.422, 1.559e-7
-1.421, 1.559e-7
-1.420, 1.559e-7
-1.419, 1.559e-7
-1.418, 1.559e-7
-1.417, 1.559e-7
-1.416, 1.559e-7
-1.415, 1.559e-7
-1.414, 1.559e-7
-1.413, 1.559e-7
-1.412, 1.559e-7
-1.411, 1.559e-7
-1.410, 1.559e-7
-1.409, 1.559e-7
-1.408, 1.559e-7
-1.407, 1.559e-7
-1.406, 1.559e-7
-1.405, 1.559e-7
-1.404, 1.559e-7
-1.403, 1.559e-7
-1.402, -2.927e-6
-1.401, 1.559e-7
-1.400, 1.559e-7
-1.399, 1.559e-7
-1.398, 1.559e-7
-1.397, 1.559e-7
-1.396, 1.559e-7
-1.395, -2.927e-6
-1.394, 1.559e-7
-1.393, 1.559e-7
-1.392, 1.559e-7
-1.391, 1.559e-7
-1.390, 1.559e-7
-1.389, 1.559e-7
-1.388, 1.559e-7
-1.387, 1.559e-7
-1.386, -2.927e-6
-1.385, 1.559e-7
-1.384, 1.559e-7
-1.383, 1.559e-7
-1.382, -2.927e-6
-1.381, 1.559e-7
-1.380, 1.559e-7
-1.379, 1.559e-7
-1.378, 1.559e-7
-1.377, 1.559e-7
-1.376, 1.559e-7
-1.375, -2.927e-6
-1.374, 1.559e-7
-1.373, 1.559e-7
-1.372, 1.559e-7
-1.371, 1.559e-7
-1.370, -2.927e-6
-1.369, 1.559e-7
-1.368, 1.559e-7
-1.367, 1.559e-7
-1.366, 1.559e-7
-1.365, -2.927e-6
-1.364, -2.927e-6
-1.363, -2.927e-6
-1.362, 1.559e-7
-1.361, 1.559e-7
-1.360, -2.927e-6
-1.359, 1.559e-7
-1.358, 1.559e-7
-1.357, 1.559e-7
-1.356, 1.559e-7
-1.355, 1.559e-7
-1.354, 1.559e-7
-1.353, 1.559e-7
-1.352, 1.559e-7
-1.351, 1.559e-7
-1.350, -2.927e-6
-1.349, -2.927e-6
-1.348, -2.927e-6
-1.347, -2.927e-6
-1.346, 1.559e-7
-1.345, -2.927e-6
-1.344, 1.559e-7
-1.343, 1.559e-7
-1.342, 1.559e-7
-1.341, -2.927e-6
-1.340, 1.559e-7
-1.339, -2.927e-6
-1.338, -2.927e-6
-1.337, -2.927e-6
-1.336, -2.927e-6
-1.335, 1.559e-7
-1.334, -2.927e-6
-1.333, -2.927e-6
-1.332, 1.559e-7
-1.331, 1.559e-7
-1.330, -2.927e-6
-1.329, -2.927e-6
-1.328, -2.927e-6
-1.327, -2.927e-6
-1.326, 1.559e-7
-1.325, 1.559e-7
-1.324, 1.559e-7
-1.323, -2.927e-6
-1.322, 1.559e-7
-1.321, 1.559e-7
-1.320, -2.927e-6
-1.319, -2.927e-6
-1.318, -2.927e-6
-1.317, -2.927e-6
-1.316, -2.927e-6
-1.315, -2.927e-6
-1.314, -2.927e-6
-1.313, -2.927e-6
-1.312, -2.927e-6
-1.311, -2.927e-6
-1.310, -2.927e-6
-1.309, 1.559e-7
-1.308, -2.927e-6
-1.307, 1.559e-7
-1.306, 1.559e-7
-1.305, -2.927e-6
-1.304, 1.559e-7
-1.303, 1.559e-7
-1.302, -2.927e-6
-1.301, 1.559e-7
-1.300, -2.927e-6
-1.299, -2.927e-6
-1.298, -2.927e-6
-1.297, -2.927e-6
-1.296, -2.927e-6
-1.295, -2.927e-6
-1.294, 1.559e-7
-1.293, -2.927e-6
-1.292, -2.927e-6
-1.291, 1.559e-7
-1.290, -2.927e-6
-1.289, -2.927e-6
-1.288, -2.927e-6
-1.287, -2.927e-6
-1.286, -2.927e-6
-1.285, 1.559e-7
-1.284, -2.927e-6
-1.283, 1.559e-7
-1.282, 1.559e-7
-1.281, 1.559e-7
-1.280, -2.927e-6
-1.279, -2.927e-6
-1.278, 1.559e-7
-1.277, 1.559e-7
-1.276, -2.927e-6
-1.275, -2.927e-6
-1.274, -2.927e-6
-1.273, -2.927e-6
-1.272, -2.927e-6
-1.271, -2.927e-6
-1.270, 1.559e-7
-1.269, -2.927e-6
-1.268, -2.927e-6
-1.267, -2.927e-6
-1.266, -2.927e-6
-1.265, -2.927e-6
-1.264, -2.927e-6
-1.263, -2.927e-6
-1.262, -2.927e-6
-1.261, -2.927e-6
-1.260, -2.927e-6
-1.259, -2.927e-6
-1.258, -2.927e-6
-1.257, 1.559e-7
-1.256, -2.927e-6
-1.255, -2.927e-6
-1.254, -2.927e-6
-1.253, 1.559e-7
-1.252, -2.927e-6
-1.251, 1.559e-7
-1.250, -2.927e-6
-1.249, -2.927e-6
-1.248, -2.927e-6
-1.247, -2.927e-6
-1.246, -2.927e-6
-1.245, -2.927e-6
-1.244, 1.559e-7
-1.243, -2.927e-6
-1.242, -2.927e-6
-1.241, 1.559e-7
-1.240, -2.927e-6
-1.239, -2.927e-6
-1.238, -2.927e-6
-1.237, -2.927e-6
-1.236, -2.927e-6
-1.235, -2.927e-6
-1.234, -2.927e-6
-1.233, -2.927e-6
-1.232, -2.927e-6
-1.231, -2.927e-6
-1.230, -2.927e-6
-1.229, -2.927e-6
-1.228, -2.927e-6
-1.227, -2.927e-6
-1.226, -2.927e-6
-1.225, -2.927e-6
-1.224, -2.927e-6
-1.223, -2.927e-6
-1.222, -2.927e-6
-1.221, -2.927e-6
-1.220, -2.927e-6
-1.219, -2.927e-6
-1.218, -2.927e-6
-1.217, -2.927e-6
-1.216, -2.927e-6
-1.215, -2.927e-6
-1.214, -2.927e-6
-1.213, -2.927e-6
-1.212, -2.927e-6
-1.211, -2.927e-6
-1.210, -2.927e-6
-1.209, -2.927e-6
-1.208, -2.927e-6
-1.207, -2.927e-6
-1.206, -2.927e-6
-1.205, -2.927e-6
-1.204, -2.927e-6
-1.203, -2.927e-6
-1.202, -2.927e-6
-1.201, -2.927e-6
-1.200, -2.927e-6
-1.199, -2.927e-6
-1.198, -2.927e-6
-1.197, -2.927e-6
-1.196, -2.927e-6
-1.195, -2.927e-6
-1.194, -2.927e-6
-1.193, -2.927e-6
-1.192, -2.927e-6
-1.191, -2.927e-6
-1.190, -2.927e-6
-1.189, -2.927e-6
-1.188, -2.927e-6
-1.187, -2.927e-6
-1.186, -2.927e-6
-1.185, -2.927e-6
-1.184, -2.927e-6
-1.183, -2.927e-6
-1.182, -2.927e-6
-1.181, -2.927e-6
-1.180, -2.927e-6
-1.179, -2.927e-6
-1.178, -2.927e-6
-1.177, -2.927e-6
-1.176, -2.927e-6
-1.175, -2.927e-6
-1.174, -2.927e-6
-1.173, -2.927e-6
-1.172, -2.927e-6
-1.171, -2.927e-6
-1.170, -2.927e-6
-1.169, -2.927e-6
-1.168, -2.927e-6
-1.167, -2.927e-6
-1.166, -2.927e-6
-1.165, -2.927e-6
-1.164, -2.927e-6
-1.163, -2.927e-6
-1.162, -2.927e-6
-1.161, -2.927e-6
-1.160, -2.927e-6
-1.159, -2.927e-6
-1.158, -2.927e-6
-1.157, -2.927e-6
-1.156, -2.927e-6
-1.155, -2.927e-6
-1.154, -2.927e-6
-1.153, -2.927e-6
-1.152, -2.927e-6
-1.151, -2.927e-6
-1.150, -2.927e-6
-1.149, -2.927e-6
-1.148, -2.927e-6
-1.147, -2.927e-6
-1.146, -2.927e-6
-1.145, -2.927e-6
-1.144, -2.927e-6
-1.143, -2.927e-6
-1.142, -2.927e-6
-1.141, -2.927e-6
-1.140, -2.927e-6
-1.139, -2.927e-6
-1.138, -2.927e-6
-1.137, -2.927e-6
-1.136, -2.927e-6
-1.135, -2.927e-6
-1.134, -2.927e-6
-1.133, -2.927e-6
-1.132, -2.927e-6
-1.131, 1.559e-7
-1.130, -2.927e-6
-1.129, -2.927e-6
-1.128, -2.927e-6
-1.127, -2.927e-6
-1.126, -2.927e-6
-1.125, -2.927e-6
-1.124, -2.927e-6
-1.123, -2.927e-6
-1.122, -2.927e-6
-1.121, -2.927e-6
-1.120, -2.927e-6
-1.119, -2.927e-6
-1.118, -2.927e-6
-1.117, -2.927e-6
-1.116, -2.927e-6
-1.115, -2.927e-6
-1.114, -2.927e-6
-1.113, -2.927e-6
-1.112, -2.927e-6
-1.111, -2.927e-6
-1.110, -2.927e-6
-1.109, -2.927e-6
-1.108, -2.927e-6
-1.107, -2.927e-6
-1.106, -2.927e-6
-1.105, -2.927e-6
-1.104, -2.927e-6
-1.103, -2.927e-6
-1.102, -2.927e-6
-1.101, -2.927e-6
-1.100, -2.927e-6
-1.099, -2.927e-6
-1.098, -2.927e-6
-1.097, -2.927e-6
-1.096, -2.927e-6
-1.095, -2.927e-6
-1.094, -2.927e-6
-1.093, -2.927e-6
-1.092, -2.927e-6
-1.091, -2.927e-6
-1.090, -2.927e-6
-1.089, -2.927e-6
-1.088, -2.927e-6
-1.087, -2.927e-6
-1.086, -2.927e-6
-1.085, -2.927e-6
-1.084, -2.927e-6
-1.083, -2.927e-6
-1.082, -2.927e-6
-1.081, -2.927e-6
-1.080, -2.927e-6
-1.079, -2.927e-6
-1.078, -2.927e-6
-1.077, -2.927e-6
-1.076, -2.927e-6
-1.075, -2.927e-6
-1.074, -2.927e-6
-1.073, -2.927e-6
-1.072, -2.927e-6
-1.071, -2.927e-6
-1.070, -2.927e-6
-1.069, -2.927e-6
-1.068, -2.927e-6
-1.067, -2.927e-6
-1.066, -2.927e-6
-1.065, -2.927e-6
-1.064, -2.927e-6
-1.063, -2.927e-6
-1.062, -2.927e-6
-1.061, -2.927e-6
-1.060, -2.927e-6
-1.059, -2.927e-6
-1.058, -2.927e-6
-1.057, -2.927e-6
-1.056, -6.010e-6
-1.055, -2.927e-6
-1.054, -6.010e-6
-1.053, -2.927e-6
-1.052, -2.927e-6
-1.051, -2.927e-6
-1.050, -2.927e-6
-1.049, -2.927e-6
-1.048, -2.927e-6
-1.047, -2.927e-6
-1.046, -2.927e-6
-1.045, -2.927e-6
-1.044, -2.927e-6
-1.043, -2.927e-6
-1.042, -2.927e-6
-1.041, -2.927e-6
-1.040, -2.927e-6
-1.039, -2.927e-6
-1.038, -2.927e-6
-1.037, -2.927e-6
-1.036, -2.927e-6
-1.035, -2.927e-6
-1.034, -2.927e-6
-1.033, -2.927e-6
-1.032, -2.927e-6
-1.031, -2.927e-6
-1.030, -2.927e-6
-1.029, -6.010e-6
-1.028, -2.927e-6
-1.027, -2.927e-6
-1.026, -2.927e-6
-1.025, -2.927e-6
-1.024, -2.927e-6
-1.023, -2.927e-6
-1.022, -2.927e-6
-1.021, -2.927e-6
-1.020, -6.010e-6
-1.019, -2.927e-6
-1.018, -2.927e-6
-1.017, -2.927e-6
-1.016, -2.927e-6
-1.015, -2.927e-6
-1.014, -2.927e-6
-1.013, -2.927e-6
-1.012, -2.927e-6
-1.011, -2.927e-6
-1.010, -2.927e-6
-1.009, -2.927e-6
-1.008, -2.927e-6
-1.007, -2.927e-6
-1.006, -2.927e-6
-1.005, -2.927e-6
-1.004, -2.927e-6
-1.003, -2.927e-6
-1.002, -2.927e-6
-1.001, -2.927e-6
