Potential V vs RHE, Current mA cm-2
0.4132999999999999,-0.001179161868437508
0.4122999999999999,-0.0030571911190083443
0.4112999999999999,-0.0035282899818634018
0.4102999999999999,-0.003777279170639648
0.4092999999999999,-0.003941385681423992
0.4082999999999999,-0.004060221430612655
0.4072999999999999,-0.0041903748702002384
0.4062999999999999,-0.004320528309787823
0.4052999999999999,-0.0044520964606752705
0.4042999999999999,-0.004548296829066094
0.4032999999999999,-0.0046105441262601545
0.4022999999999999,-0.004715232762450167
0.4012999999999999,-0.004814262553440719
0.4002999999999999,-0.0049189511896307325
0.3992999999999999,-0.00498827204332412
0.3982999999999999,-0.005074569432615887
0.3972999999999999,-0.005132572595910353
0.3962999999999999,-0.0052231141191017155
0.3952999999999999,-0.005292434972795102
0.3942999999999999,-0.005367414671687949
0.39329999999999987,-0.005421173701082821
0.39229999999999987,-0.005469273885278231
0.39129999999999987,-0.0055612301197694594
0.39029999999999987,-0.0056376245299621704
0.38929999999999987,-0.0056899688480571775
0.38829999999999987,-0.00576636325824989
0.38729999999999987,-0.005796072195547055
0.38629999999999987,-0.005862563626640712
0.38529999999999986,-0.005948861015932479
0.38429999999999986,-0.0059898876436285655
0.38329999999999986,-0.006030914271324651
0.38229999999999986,-0.006073355610320603
0.38129999999999986,-0.006155408865712774
0.38029999999999986,-0.006240291543704677
0.37929999999999986,-0.006286977016600223
0.37829999999999986,-0.006325174221696579
0.37729999999999986,-0.0063647861380928
0.37629999999999986,-0.006428448146586726
0.37529999999999986,-0.006509086690679034
0.37429999999999986,-0.006543039761875796
0.37329999999999985,-0.006586895812171611
0.37229999999999985,-0.0066448989754660775
0.37129999999999985,-0.006694413870961353
0.37029999999999985,-0.006767978858554336
0.36929999999999985,-0.006779296548953256
0.36829999999999985,-0.006817493754049612
0.36729999999999985,-0.006888229319042864
0.36629999999999985,-0.006916523545040165
0.36529999999999985,-0.006998576800432336
0.36429999999999985,-0.007033944582928962
0.36329999999999985,-0.007067897654125722
0.36229999999999984,-0.007117412549620999
0.36129999999999984,-0.007183903980714656
0.36029999999999984,-0.007236248298809663
0.35929999999999984,-0.007280104349105479
0.35829999999999984,-0.007301325018603455
0.35729999999999984,-0.00736781644969711
0.35629999999999984,-0.007408843077393197
0.35529999999999984,-0.007461187395488203
0.35429999999999984,-0.00751919055878267
0.35329999999999984,-0.007543240650880376
0.35229999999999984,-0.0075998291028749766
0.35129999999999983,-0.007659246977469309
0.35029999999999983,-0.0077200795633635055
0.34929999999999983,-0.007739885521561615
0.34829999999999983,-0.007776668015358107
0.34729999999999983,-0.007827597622153248
0.34629999999999983,-0.007867209538549469
0.34529999999999983,-0.007942189237442316
0.34429999999999983,-0.007950677505241506
0.3432999999999998,-0.00799877768943692
0.3422999999999998,-0.008017168936335162
0.3412999999999998,-0.00807800152222936
0.3402999999999998,-0.00814873708722261
0.3392999999999998,-0.008150151798522475
0.3382999999999998,-0.008192593137518427
0.3372999999999998,-0.008227960920015053
0.3362999999999998,-0.008259084568612084
0.3352999999999998,-0.00833689369010466
0.3342999999999998,-0.008360943782202368
0.3332999999999998,-0.008387823296899802
0.3322999999999998,-0.008428849924595888
0.3312999999999998,-0.008467047129692245
0.3302999999999998,-0.008551929807684147
0.3292999999999998,-0.008571735765882256
0.3282999999999998,-0.00860002999187956
0.3272999999999998,-0.008646715464775103
0.3262999999999998,-0.00869340093767065
0.3252999999999999,-0.008740086410566197
0.3242999999999999,-0.008788186594761608
0.3232999999999999,-0.008799504285160529
0.3222999999999999,-0.008846189758056074
0.3212999999999999,-0.008890045808351892
0.3202999999999999,-0.008956537239445547
0.3192999999999999,-0.00899331973324204
0.3182999999999999,-0.009003222712341092
0.3172999999999999,-0.009034346360938125
0.3162999999999999,-0.009090934812932725
0.3152999999999999,-0.009137620285828273
0.3142999999999999,-0.009177232202224493
0.3132999999999999,-0.009197038160422603
0.3122999999999999,-0.009229576520319499
0.3112999999999999,-0.009276261993215046
0.3102999999999999,-0.009325776888710322
0.3092999999999999,-0.009362559382506812
0.3082999999999999,-0.0094035860102029
0.3072999999999999,-0.009419147834501415
0.3062999999999999,-0.009472906863896286
0.3052999999999999,-0.009533739449790482
0.3042999999999999,-0.009554960119288457
0.3032999999999999,-0.009583254345285758
0.3022999999999999,-0.00960871914868333
0.3012999999999999,-0.00964833106507955
0.3002999999999999,-0.009721896052672532
0.2992999999999999,-0.009716237207473073
0.2982999999999999,-0.009750190278669833
0.2972999999999999,-0.009795461040265515
0.2962999999999999,-0.009820925843663083
0.2952999999999999,-0.009912882078154312
0.2942999999999999,-0.009936932170252018
0.2932999999999999,-0.009960982262349724
0.2922999999999999,-0.00998786177704716
0.2912999999999999,-0.010035961961242571
0.2902999999999999,-0.010095379835836903
0.2892999999999999,-0.010134991752233124
0.2882999999999999,-0.010146309442632043
0.2872999999999999,-0.010171774246029613
0.2862999999999999,-0.010201483183326778
0.2852999999999999,-0.010245339233622594
0.2842999999999999,-0.010296268840417738
0.2832999999999999,-0.010324563066415037
0.2822999999999999,-0.010361345560211527
0.2812999999999999,-0.010413689878306535
0.2802999999999999,-0.0104433988156037
0.2792999999999999,-0.010477351886800462
0.2782999999999999,-0.010490084288499247
0.2772999999999999,-0.010539599183994523
0.2762999999999999,-0.010566478698691957
0.2752999999999999,-0.01063155541848575
0.2742999999999999,-0.010681070313981028
0.2732999999999999,-0.010688143870480352
0.2722999999999999,-0.010706535117378598
0.2712999999999999,-0.010757464724173738
0.2702999999999999,-0.010801320774469554
0.2692999999999999,-0.010826785577867126
0.26829999999999987,-0.01085932393776402
0.26729999999999987,-0.010876300473362402
0.26629999999999987,-0.010921571234958082
0.26529999999999987,-0.010975330264352956
0.26429999999999987,-0.01101635689204904
0.26329999999999987,-0.011036162850247149
0.26229999999999987,-0.011029089293747827
0.26129999999999987,-0.011082848323142698
0.26029999999999986,-0.011160657444635274
0.25929999999999986,-0.011157828022035543
0.25829999999999986,-0.01119036638193244
0.25729999999999986,-0.011215831185330009
0.25629999999999986,-0.011244125411327311
0.25529999999999986,-0.011313446265020698
0.25429999999999986,-0.01134739933621746
0.25329999999999986,-0.011358717026616378
0.25229999999999986,-0.01141813490121071
0.25129999999999986,-0.011428037880309766
0.25029999999999986,-0.011497358734003153
0.24929999999999986,-0.011518579403501128
0.24829999999999985,-0.011541214784298969
0.24729999999999985,-0.01158365612329492
0.24629999999999985,-0.011604876792792897
0.24529999999999985,-0.011688344759484933
0.24429999999999985,-0.011712394851582639
0.24329999999999985,-0.011720883119381829
0.24229999999999985,-0.01177747157137643
0.24129999999999985,-0.011797277529574539
0.24029999999999985,-0.011817083487772651
0.23929999999999985,-0.011868013094567793
0.23829999999999985,-0.011886404341466037
0.23729999999999984,-0.01193733394826118
0.23629999999999984,-0.011959969329059019
0.23529999999999984,-0.012015143069753757
0.23429999999999984,-0.012057584408749707
0.23329999999999984,-0.012064657965249033
0.23229999999999984,-0.012094366902546198
0.23129999999999984,-0.012135393530242284
0.23029999999999984,-0.01216510246753945
0.22929999999999984,-0.012210373229135131
0.22829999999999984,-0.012237252743832566
0.22729999999999984,-0.012257058702030678
0.22629999999999983,-0.012295255907127035
0.22529999999999983,-0.012368820894720016
0.22429999999999983,-0.012385797430318396
0.22329999999999983,-0.012409847522416103
0.22229999999999983,-0.012442385882312997
0.22129999999999983,-0.012460777129211243
0.22029999999999983,-0.012520195003805573
0.21929999999999983,-0.012556977497602066
0.21829999999999983,-0.012565465765401256
0.21729999999999983,-0.012598004125298152
0.21629999999999983,-0.012636201330394507
0.21529999999999982,-0.012725328142286005
0.21429999999999982,-0.012742304677884385
0.21329999999999982,-0.01275503707958317
0.21229999999999982,-0.01279464899597939
0.21129999999999982,-0.012818699088077097
0.21029999999999982,-0.012883775807870888
0.20929999999999982,-0.0129318759920663
0.20829999999999982,-0.012936120125965896
0.20729999999999982,-0.012968658485862792
0.20629999999999982,-0.012996952711860093
0.20529999999999982,-0.013052126452554828
0.20429999999999982,-0.013112959038449026
0.20329999999999981,-0.01311154432714916
0.2022999999999998,-0.013152570954845245
0.2012999999999998,-0.01317662104694295
0.20029999999999992,-0.013207744695539982
0.19929999999999992,-0.01326291843623472
0.19829999999999992,-0.013275650837933504
0.19729999999999992,-0.013320921599529186
0.19629999999999992,-0.013369021783724596
0.19529999999999992,-0.013404389566221224
0.19429999999999992,-0.013517566470210424
0.19329999999999992,-0.013543031273607994
0.19229999999999992,-0.013530298871909211
0.19129999999999991,-0.013565666654405837
0.1902999999999999,-0.013592546169103272
0.1892999999999999,-0.013646305198498144
0.1882999999999999,-0.013671770001895714
0.1872999999999999,-0.013671770001895714
0.1862999999999999,-0.013711381918291935
0.1852999999999999,-0.013775043926785864
0.1842999999999999,-0.013811826420582355
0.1832999999999999,-0.01384436478047925
0.1822999999999999,-0.01385002362567871
0.1812999999999999,-0.01389529438727439
0.1802999999999999,-0.013947638705369397
0.1792999999999999,-0.013985835910465752
0.1782999999999999,-0.014005641868663864
0.1772999999999999,-0.014039594939860626
0.1762999999999999,-0.01404666849635995
0.1752999999999999,-0.01411457463875347
0.1742999999999999,-0.014161260111649017
0.1732999999999999,-0.014189554337646317
0.1722999999999999,-0.01424614278964092
0.1712999999999999,-0.01426028990263957
0.1702999999999999,-0.014316878354634173
0.1692999999999999,-0.014345172580631472
0.1682999999999999,-0.014387613919627423
0.1672999999999999,-0.014401761032626074
0.1662999999999999,-0.014444202371622025
0.1652999999999999,-0.014514937936615275
0.1642999999999999,-0.014571526388609878
0.1632999999999999,-0.014557379275611227
0.1622999999999999,-0.014599820614607179
0.1612999999999999,-0.014642261953603129
0.1602999999999999,-0.014684703292599082
0.1592999999999999,-0.014741291744593682
0.15829999999999989,-0.014741291744593682
0.15729999999999988,-0.014769585970590984
0.15629999999999988,-0.014812027309586936
0.15529999999999988,-0.014868615761581536
0.15429999999999988,-0.014911057100577486
0.15329999999999988,-0.014925204213576137
0.15229999999999988,-0.014953498439573438
0.15129999999999988,-0.014981792665570736
0.15029999999999988,-0.015024234004566688
0.14929999999999988,-0.015080822456561293
0.14829999999999988,-0.015123263795557243
0.14729999999999988,-0.015151558021554544
0.14629999999999987,-0.015193999360550494
0.14529999999999987,-0.015236440699546445
0.14429999999999987,-0.015264734925543746
0.14329999999999987,-0.015307176264539698
0.14229999999999987,-0.015349617603535646
0.14129999999999987,-0.015349617603535646
0.14029999999999987,-0.01543450028152755
0.13929999999999987,-0.015448647394526203
0.13829999999999987,-0.015491088733522153
0.13729999999999987,-0.015533530072518101
0.13629999999999987,-0.015547677185516754
0.13529999999999986,-0.015604265637511355
0.13429999999999986,-0.015660854089505957
0.13329999999999986,-0.015675001202504608
0.13229999999999986,-0.015717442541500558
0.13129999999999986,-0.015717442541500558
0.13029999999999986,-0.01578817810649381
0.12929999999999986,-0.01581647233249111
0.12829999999999986,-0.01583061944548976
0.12729999999999986,-0.015873060784485714
0.12629999999999986,-0.01588720789748436
0.12529999999999986,-0.015943796349478963
0.12429999999999986,-0.016000384801473564
0.12329999999999985,-0.016014531914472215
0.12229999999999985,-0.016042826140469518
0.12129999999999985,-0.01608526747946547
0.12029999999999985,-0.016127708818461418
0.11929999999999985,-0.01619844438345467
0.11829999999999985,-0.016212591496453318
0.11729999999999985,-0.016226738609451972
0.11629999999999985,-0.01629747417444522
0.11529999999999985,-0.016339915513441175
0.11429999999999985,-0.016396503965435776
0.11329999999999985,-0.016438945304431726
0.11229999999999984,-0.016453092417430374
0.11129999999999984,-0.016495533756426328
0.11029999999999984,-0.016537975095422278
0.10929999999999984,-0.01658041643441823
0.10829999999999984,-0.01660871066041553
0.10729999999999984,-0.01665115199941148
0.10629999999999984,-0.016679446225408782
0.10529999999999984,-0.01673603467740338
0.10429999999999984,-0.016792623129397985
0.10329999999999984,-0.016820917355395284
0.10229999999999984,-0.016849211581392583
0.10129999999999983,-0.016863358694391237
0.10029999999999983,-0.016948241372383138
0.09929999999999983,-0.01699068271137909
0.09829999999999983,-0.01703312405037504
0.09729999999999983,-0.017075565389370995
0.09629999999999983,-0.017089712502369642
0.09529999999999983,-0.017160448067362895
0.09429999999999983,-0.017202889406358845
0.09329999999999983,-0.017217036519357496
0.09229999999999983,-0.017259477858353446
0.09129999999999983,-0.0173019191973494
0.09029999999999982,-0.017372654762342652
0.08929999999999982,-0.017429243214337253
0.08829999999999982,-0.017471684553333203
0.08729999999999982,-0.01748583166633185
0.08629999999999982,-0.017514125892329157
0.08529999999999982,-0.017556567231325104
0.08429999999999982,-0.017627302796318356
0.08329999999999982,-0.01765559702231566
0.08229999999999982,-0.01766974413531431
0.08129999999999982,-0.01771218547431026
0.08029999999999982,-0.017754626813306213
0.07929999999999982,-0.017825362378299462
0.07829999999999981,-0.017867803717295416
0.07729999999999981,-0.017867803717295416
0.07629999999999981,-0.017938539282288665
0.07529999999999992,-0.017980980621284618
0.07429999999999992,-0.01803756907327922
0.07329999999999992,-0.018065863299276518
0.07229999999999992,-0.018094157525273817
0.07129999999999992,-0.01813659886426977
0.07029999999999992,-0.01817904020326572
0.06929999999999992,-0.018235628655260322
0.06829999999999992,-0.018278069994256275
0.06729999999999992,-0.018306364220253574
0.06629999999999991,-0.018362952672248176
0.06529999999999991,-0.018405394011244126
0.06429999999999991,-0.018461982463238727
0.06329999999999991,-0.01851857091523333
0.06229999999999991,-0.01853271802823198
0.06129999999999991,-0.01858930648022658
0.06029999999999991,-0.018660042045219833
0.05929999999999991,-0.018702483384215783
0.05829999999999991,-0.018744924723211737
0.05729999999999991,-0.018773218949209036
0.056299999999999906,-0.018801513175206338
0.055299999999999905,-0.01887224874019959
0.054299999999999904,-0.01892883719219419
0.0532999999999999,-0.01897127853119014
0.0522999999999999,-0.019027866983184743
0.0512999999999999,-0.019027866983184743
0.0502999999999999,-0.019084455435179344
0.0492999999999999,-0.019169338113171244
0.0482999999999999,-0.019197632339168547
0.0472999999999999,-0.019254220791163148
0.0462999999999999,-0.0192683679041618
0.045299999999999896,-0.01933910346915505
0.044299999999999895,-0.0194098390341483
0.043299999999999894,-0.019438133260145606
0.04229999999999989,-0.019466427486142905
0.04129999999999989,-0.01950886882513886
0.04029999999999989,-0.01959375150313076
0.03929999999999989,-0.019664487068124008
0.03829999999999989,-0.01967863418112266
0.03729999999999989,-0.019721075520118612
0.03629999999999989,-0.019763516859114563
0.03529999999999989,-0.019791811085111865
0.034299999999999886,-0.019876693763103765
0.033299999999999885,-0.019919135102099715
0.032299999999999884,-0.019947429328097017
0.031299999999999883,-0.019989870667092968
0.030299999999999883,-0.02004645911908757
0.02929999999999988,-0.02011719468408082
0.02829999999999988,-0.020173783136075422
0.02729999999999988,-0.020187930249074077
0.02629999999999988,-0.020230371588070024
0.025299999999999878,-0.020286960040064625
0.024299999999999877,-0.020357695605057877
0.023299999999999876,-0.02042843117005113
0.022299999999999875,-0.020470872509047083
0.021299999999999875,-0.020541608074040336
0.020299999999999874,-0.020598196526034934
0.019299999999999873,-0.020654784978029535
0.018299999999999872,-0.02071137343002414
0.01729999999999987,-0.02073966765602144
0.01629999999999987,-0.02078210899501739
0.01529999999999987,-0.02086699167300929
0.014299999999999868,-0.020937727238002544
0.013299999999999867,-0.020966021463999843
0.012299999999999978,-0.021008462802995797
0.011299999999999866,-0.021036757028993096
0.010299999999999976,-0.021107492593986348
0.009299999999999864,-0.021164081045980946
0.008299999999999974,-0.0212065223849769
0.007299999999999862,-0.021277257949970152
0.006299999999999972,-0.021319699288966102
0.00529999999999986,-0.021376287740960703
0.0042999999999999705,-0.021447023305953956
0.0032999999999998586,-0.021475317531951258
0.0022999999999999687,-0.021546053096944507
0.0012999999999998568,-0.02158849443594046
0.00029999999999996696,-0.021645082887935062
-0.000700000000000145,-0.021729965565926962
-0.0017000000000000348,-0.021758259791924264
-0.0027000000000001467,-0.021786554017921567
-0.0037000000000000366,-0.021871436695913467
-0.0047000000000001485,-0.02189973092191077
-0.005700000000000038,-0.02199876071290132
-0.00670000000000015,-0.02204120205189727
-0.00770000000000004,-0.02208364339089322
-0.008700000000000152,-0.022154378955886473
-0.009700000000000042,-0.022210967407881078
-0.010700000000000154,-0.02232414431187028
-0.011700000000000044,-0.022366585650866227
-0.012700000000000156,-0.022366585650866227
-0.013700000000000045,-0.022437321215859483
-0.014700000000000157,-0.022493909667854084
-0.015700000000000047,-0.022564645232847336
-0.01670000000000016,-0.02264952791083924
-0.01770000000000005,-0.022663675023837888
-0.01870000000000016,-0.02272026347583249
-0.01970000000000005,-0.02277685192782709
-0.020700000000000163,-0.022847587492820343
-0.021700000000000053,-0.02287588171881764
-0.022700000000000164,-0.022932470170812246
-0.023700000000000054,-0.022989058622806844
-0.024700000000000166,-0.0230597941878001
-0.025700000000000056,-0.023116382639794698
-0.026700000000000168,-0.023172971091789302
-0.027700000000000058,-0.0232295595437839
-0.02870000000000017,-0.023286147995778505
-0.02970000000000006,-0.023328589334774455
-0.03070000000000017,-0.02341347201276636
-0.03170000000000006,-0.02345591335176231
-0.03270000000000017,-0.023498354690758262
-0.03370000000000006,-0.023512501803756906
-0.034700000000000175,-0.02359738448174881
-0.035700000000000065,-0.023696414272739365
-0.03670000000000018,-0.023724708498736664
-0.03770000000000007,-0.023767149837732617
-0.03870000000000018,-0.023823738289727222
-0.03970000000000007,-0.02385203251572452
-0.04070000000000018,-0.02393691519371642
-0.04170000000000007,-0.02397935653271237
-0.04270000000000018,-0.024021797871708325
-0.04370000000000007,-0.024064239210704275
-0.044700000000000184,-0.024120827662698876
-0.045700000000000074,-0.02420571034069078
-0.046700000000000186,-0.02426229879268538
-0.047700000000000076,-0.02427644590568403
-0.04870000000000019,-0.02434718147067728
-0.04970000000000008,-0.024417917035670533
-0.05070000000000019,-0.024502799713662437
-0.05170000000000008,-0.024545241052658383
-0.05270000000000019,-0.024587682391654337
-0.05370000000000008,-0.024644270843648942
-0.05470000000000019,-0.02468671218264489
-0.05570000000000008,-0.02474330063463949
-0.056700000000000195,-0.02479988908663409
-0.057700000000000085,-0.02482818331263139
-0.058700000000000196,-0.024870624651627343
-0.059700000000000086,-0.024927213103621948
-0.0607000000000002,-0.0249979486686152
-0.06170000000000009,-0.0250828313466071
-0.0627000000000002,-0.02512527268560305
