Potential V vs RHE, Current mA cm-2
0.013299999999999867,11.556776608597485
0.012299999999999978,9.898734965155663
0.011299999999999866,8.372261472601286
0.010299999999999976,6.889644030342729
0.009299999999999864,5.449467927080121
0.008299999999999974,4.098418635709011
0.007299999999999862,2.745954633038036
0.006299999999999972,1.4373466806628774
0.00529999999999986,0.21588494435940458
0.0042999999999999705,-1.0925815368857679
0.0032999999999998586,-2.3144676865791998
0.0022999999999999687,-3.579219588658543
0.0012999999999998568,-4.800115440442069
0.00029999999999996696,-6.021011292225596
-0.000700000000000145,-7.243321855308987
-0.0017000000000000348,-8.464217707092514
-0.0027000000000001467,-9.641257508580225
-0.0037000000000000366,-10.819712021367803
-0.0047000000000001485,-11.952895772559694
-0.005700000000000038,-13.087494235051453
-0.00670000000000015,-14.090524546655764
-0.00770000000000004,-15.137410908555893
-0.008700000000000152,-16.184297270456018
-0.009700000000000042,-17.146300954364243
-0.010700000000000154,-18.19318731626437
-0.011700000000000044,-19.197632339168546
-0.012700000000000156,-20.202077362072725
-0.013700000000000045,-21.2065223849769
-0.014700000000000157,-22.253408746877028
-0.015700000000000047,-23.24370665678255
-0.01670000000000016,-24.290593018682678
-0.01770000000000005,-25.295038041586857
-0.01870000000000016,-26.257041725495082
-0.01970000000000005,-27.219045409403304
-0.020700000000000163,-28.13860775431558
-0.021700000000000053,-29.001581647233255
-0.022700000000000164,-29.921143992145527
-0.023700000000000054,-30.79826499806185
-0.024700000000000166,-31.618797551983565
-0.025700000000000056,-32.53835989689585
-0.026700000000000168,-33.41548090281216
-0.027700000000000058,-34.33504324772444
-0.02870000000000017,-35.240458479638065
-0.02970000000000006,-36.11757948555439
-0.03070000000000017,-37.037141830466666
-0.03170000000000006,-37.99914551437489
-0.03270000000000017,-38.86211940729255
-0.03370000000000006,-39.739240413208876
-0.034700000000000175,-40.616361419125205
-0.035700000000000065,-41.43689397304693
-0.03670000000000018,-42.229132300971344
-0.03770000000000007,-43.007223515897124
-0.03870000000000018,-43.79946184382153
-0.03970000000000007,-44.535111719751356
-0.04070000000000018,-45.36979138667173
-0.04170000000000007,-46.10544126260155
-0.04270000000000018,-46.94012092952192
-0.04370000000000007,-47.76065348344364
-0.044700000000000184,-48.59533315036401
-0.045700000000000074,-49.458307043281685
-0.046700000000000186,-50.335428049198
-0.047700000000000076,-51.21254905511432
-0.04870000000000019,-52.075522948032
-0.04970000000000008,-52.91020261495237
-0.05070000000000019,-53.74488228187274
-0.05170000000000008,-54.52297349679851
-0.05270000000000019,-55.25862337272834
-0.05370000000000008,-56.008420361656796
-0.05470000000000019,-56.74407023758662
-0.05570000000000008,-57.45142588751914
-0.056700000000000195,-58.14463442445301
-0.057700000000000085,-58.880284300382826
-0.058700000000000196,-59.6300812893113
-0.059700000000000086,-60.36573116524111
-0.0607000000000002,-61.15796949316553
-0.06170000000000009,-61.97850204708726
-0.0627000000000002,-62.77074037501168
-0.06370000000000009,-63.59127292893339
-0.0647000000000002,-64.42595259585376
-0.06570000000000009,-65.20404381077954
-0.0667000000000002,-65.99628213870396
-0.0677000000000001,-66.73193201463377
-0.0687000000000002,-67.43928766456631
-0.0697000000000001,-68.17493754049613
-0.07070000000000021,-68.86814607742998
-0.0717000000000001,-69.61794306635846
-0.07270000000000021,-70.35359294228827
-0.0737000000000001,-71.06094859222078
-0.07470000000000021,-71.7965984681506
-0.0757000000000001,-72.57468968307639
-0.07670000000000021,-73.32448667200485
-0.0777000000000001,-74.06013654793468
-0.07870000000000021,-74.80993353686314
-0.0797000000000001,-75.54558341279296
-0.08070000000000022,-76.29538040172143
-0.0817000000000001,-76.98858893865528
-0.08270000000000022,-77.68179747558916
-0.08370000000000011,-78.38915312552167
-0.08470000000000022,-79.1248030014515
-0.08570000000000011,-79.86045287738132
-0.08670000000000022,-80.61024986630979
-0.08770000000000011,-81.3458997422396
-0.08870000000000022,-82.09569673116808
-0.08970000000000011,-82.87378794609386
-0.09070000000000022,-83.60943782202366
-0.09170000000000011,-84.35923481095215
-0.09270000000000023,-85.09488468688197
-0.09370000000000012,-85.88712301480638
-0.09470000000000023,-86.6227728907362
-0.09570000000000012,-87.37256987966467
-0.09670000000000023,-88.06577841659853
-0.09770000000000012,-88.80142829252836
-0.09870000000000023,-89.55122528145681
-0.09970000000000012,-90.28687515738663
-0.10070000000000023,-90.99423080731917
-0.10170000000000012,-91.68743934425302
-0.10270000000000024,-92.4655305591788
-0.10370000000000013,-93.17288620911131
-0.10470000000000024,-93.90853608504113
-0.10570000000000013,-94.6583330739696
-0.10670000000000024,-95.43642428889537
-0.10770000000000013,-96.17207416482519
-0.10870000000000024,-96.92187115375367
-0.10970000000000013,-97.61507969068752
-0.11070000000000024,-98.364876679616
-0.11170000000000013,-99.05808521654988
-0.11270000000000002,-99.75129375348374
-0.11370000000000013,-100.45864940341626
-0.11470000000000002,-101.15185794035013
-0.11570000000000014,-101.88750781627995
-0.11670000000000003,-102.59486346621246
-0.11770000000000014,-103.37295468113824
-0.11870000000000003,-104.16519300906265
-0.11970000000000014,-104.94328422398843
-0.12070000000000003,-105.73552255191284
-0.12170000000000014,-106.51361376683862
-0.12270000000000003,-107.26341075576708
-0.12370000000000014,-107.99906063169689
-0.12470000000000003,-108.73471050762672
-0.12570000000000014,-109.4845074965552
-0.12670000000000003,-110.17771603348905
-0.12770000000000015,-110.87092457042293
-0.12870000000000004,-111.57828022035544
-0.12970000000000015,-112.22904741829338
-0.13070000000000004,-112.96469729422319
-0.13170000000000015,-113.67205294415571
-0.13270000000000004,-114.40770282008553
-0.13370000000000015,-115.19994114800993
-0.13470000000000004,-115.93559102393975
-0.13570000000000015,-116.67124089986959
-0.13670000000000004,-117.50592056678994
-0.13770000000000016,-118.24157044271978
-0.13870000000000005,-118.99136743164823
-0.13970000000000016,-119.769458646574
-0.14070000000000005,-120.51925563550247
-0.14170000000000016,-121.21246417243634
-0.14270000000000005,-122.00470250036076
-0.14370000000000016,-122.69791103729463
-0.14470000000000005,-123.43356091322445
-0.14570000000000016,-124.18335790215292
-0.14670000000000005,-124.91900777808273
-0.14770000000000016,-125.6688047670112
-0.14870000000000005,-126.44689598193698
-0.14970000000000017,-127.19669297086547
-0.15070000000000006,-127.97478418579122
-0.15170000000000017,-128.8094638527116
-0.15270000000000006,-129.58755506763737
-0.15370000000000017,-130.37979339556176
-0.15470000000000006,-131.15788461048754
-0.15570000000000017,-131.95012293841197
-0.15670000000000006,-132.6857728143418
-0.15770000000000017,-133.4214226902716
-0.15870000000000006,-134.12877834020412
-0.15970000000000018,-134.86442821613394
-0.16070000000000007,-135.6142252050624
-0.16170000000000018,-136.30743374199628
-0.16270000000000007,-137.08552495692206
-0.16370000000000018,-137.83532194585052
-0.16470000000000007,-138.65585449977226
-0.16570000000000018,-139.44809282769666
-0.16670000000000007,-140.2686253816184
-0.16770000000000018,-141.06086370954282
-0.16870000000000007,-141.89554337646317
-0.16970000000000018,-142.6028990263957
-0.17070000000000007,-143.3102546763282
-0.17170000000000019,-144.01761032626072
-0.17270000000000008,-144.86643710617977
-0.1737000000000002,-145.57379275611228
-0.17470000000000008,-146.1396772760583
-0.1757000000000002,-146.8470329259908
-0.17670000000000008,-147.55438857592333
-0.1777000000000002,-148.40321535584232
-0.17870000000000008,-149.1105710057749
-0.1797000000000002,-149.95939778569388
-0.18070000000000008,-150.8082245656129
-0.1817000000000002,-151.65705134553193
-0.18270000000000008,-152.50587812545095
-0.1837000000000002,-153.21323377538346
-0.1847000000000001,-154.0620605553025
-0.1857000000000002,-154.76941620523502
-0.1867000000000001,-155.47677185516753
-0.1877000000000002,-156.18412750510007
-0.1887000000000001,-156.89148315503257
-0.1897000000000002,-157.59883880496508
-0.1907000000000001,-158.3061944548976
-0.1917000000000001,-159.01355010483013
-0.19269999999999998,-159.72090575476264
-0.1937000000000001,-160.5697325346817
-0.19469999999999998,-161.2770881846142
-0.1957000000000001,-162.12591496453322
-0.19669999999999999,-162.97474174445222
-0.1977000000000001,-163.82356852437124
-0.1987,-164.81386643427678
-0.1997000000000001,-165.5212220842093
-0.2007,-166.3700488641283
-0.2017000000000001,-167.07740451406085
-0.2027,-167.78476016399335
-0.2037000000000001,-168.49211581392586
-0.2047,-169.19947146385837
-0.2057000000000001,-170.0482982437774
-0.2067,-170.75565389370993
-0.2077000000000001,-171.60448067362896
-0.2087,-172.31183632356147
-0.2097000000000001,-173.16066310348046
-0.2107,-173.86801875341303
-0.2117000000000001,-174.71684553333202
-0.2127,-175.56567231325104
-0.2137000000000001,-176.27302796318358
-0.2147,-176.98038361311612
-0.2157000000000001,-177.82921039303508
-0.2167,-178.67803717295413
-0.21770000000000012,-179.38539282288664
-0.2187,-180.23421960280567
-0.21970000000000012,-180.94157525273818
-0.2207,-181.79040203265723
-0.22170000000000012,-182.63922881257625
-0.2227,-183.34658446250873
-0.22370000000000012,-184.05394011244127
-0.2247,-184.9027668923603
-0.22570000000000012,-185.6101225422928
-0.2267,-186.45894932221185
-0.22770000000000012,-187.16630497214436
-0.22870000000000001,-187.87366062207687
-0.22970000000000013,-188.58101627200938
-0.23070000000000002,-189.42984305192843
-0.23170000000000013,-190.27866983184742
-0.23270000000000002,-191.12749661176645
-0.23370000000000013,-191.83485226169896
-0.23470000000000002,-192.54220791163152
-0.23570000000000013,-193.249563561564
-0.23670000000000002,-193.9569192114965
-0.2376999999999999,-194.80574599141553
-0.23870000000000002,-195.51310164134807
-0.2396999999999999,-196.2204572912806
-0.24070000000000003,-196.92781294121312
-0.24169999999999991,-197.77663972113214
-0.24270000000000003,-198.48399537106465
-0.24369999999999992,-199.33282215098367
-0.24470000000000003,-200.04017780091618
-0.24569999999999992,-200.7475334508487
-0.24670000000000003,-201.59636023076774
-0.24769999999999992,-202.30371588070025
-0.24870000000000003,-203.01107153063276
-0.24969999999999992,-203.71842718056527
-0.25070000000000003,-204.42578283049778
-0.2516999999999999,-205.13313848043032
-0.25270000000000004,-205.98196526034934
-0.2536999999999999,-206.83079204026836
-0.25470000000000004,-207.67961882018741
-0.2556999999999999,-208.3869744701199
-0.25670000000000004,-209.37727238002543
-0.25769999999999993,-210.08462802995794
-0.25870000000000004,-210.93345480987696
-0.25969999999999993,-211.782281589796
-0.26070000000000004,-212.631108369715
-0.26169999999999993,-213.33846401964755
-0.26270000000000004,-214.18729079956654
-0.26369999999999993,-214.89464644949908
-0.26470000000000005,-215.7434732294181
-0.26569999999999994,-216.4508288793506
-0.26670000000000005,-217.29965565926966
-0.26769999999999994,-218.14848243918865
-0.26870000000000005,-218.85583808912116
-0.26969999999999994,-219.5631937390537
-0.27070000000000005,-220.41202051897272
-0.27169999999999994,-221.26084729889175
-0.27270000000000005,-222.10967407881074
-0.27369999999999994,-222.81702972874328
-0.27470000000000006,-223.6658565086623
-0.27569999999999995,-224.37321215859478
-0.27670000000000006,-225.22203893851383
-0.27769999999999995,-225.92939458844637
-0.27870000000000006,-226.63675023837888
-0.27969999999999995,-227.4855770182979
-0.28070000000000006,-228.1929326682304
-0.28169999999999995,-229.04175944814943
-0.28270000000000006,-229.89058622806846
-0.28369999999999995,-230.59794187800094
-0.28470000000000006,-231.44676865792
-0.28569999999999995,-232.29559543783904
-0.28670000000000007,-233.1444222177581
-0.28769999999999996,-233.99324899767706
-0.28870000000000007,-234.84207577759608
-0.28969999999999996,-235.69090255751513
-0.29070000000000007,-236.3982582074476
-0.29169999999999996,-237.24708498736666
-0.29270000000000007,-237.9544406372992
-0.29369999999999996,-238.8032674172182
-0.2947000000000001,-239.5106230671507
-0.29569999999999996,-240.21797871708318
-0.2967000000000001,-240.92533436701575
-0.29769999999999996,-241.77416114693477
-0.2987000000000001,-242.62298792685377
-0.29969999999999997,-243.3303435767863
-0.3007000000000001,-244.17917035670533
-0.30169999999999997,-245.02799713662432
-0.3027000000000001,-245.87682391654337
-0.30369999999999997,-246.7256506964624
-0.3047000000000001,-247.4330063463949
-0.30569999999999997,-248.28183312631393
-0.3067000000000001,-248.9891887762465
-0.3077,-249.83801555616546
-0.3087000000000001,-250.6868423360845
-0.3097,-251.39419798601702
-0.3107000000000001,-252.243024765936
-0.3117,-252.95038041586852
-0.3127000000000001,-253.79920719578757
-0.3137,-254.64803397570657
-0.3147000000000001,-255.35538962563913
-0.3157,-256.0627452755717
-0.3167000000000001,-256.91157205549064
-0.3177,-257.90186996539614
-0.3187000000000001,-258.8921678753017
-0.3197,-259.7409946552208
-0.3207000000000001,-260.4483503051532
-0.3217,-261.1557059550858
-0.3227000000000001,-262.0045327350048
-0.3237,-262.7118883849373
-0.3247000000000001,-263.56071516485633
-0.3257,-264.40954194477536
-0.3267000000000001,-265.11689759470784
-0.3277,-265.82425324464043
-0.3287000000000001,-266.6730800245594
-0.3297,-267.5219068044785
-0.3307000000000001,-268.22926245441096
-0.3317,-269.07808923433
-0.3327000000000001,-269.78544488426246
-0.3337,-270.63427166418154
-0.3347000000000001,-271.4830984441005
-0.3357,-272.3319252240195
-0.3367000000000001,-273.1807520039386
-0.3377,-274.0295787838576
-0.3387000000000001,-274.87840556377665
-0.3397,-275.7272323436957
-0.3407000000000001,-276.5760591236147
-0.3417,-277.2834147735472
-0.3427000000000001,-278.1322415534662
-0.3437,-278.9810683333853
-0.3447000000000001,-279.6884239833177
-0.3457,-280.3957796332503
-0.3467000000000001,-281.3860775431558
-0.3477,-282.09343319308834
-0.3487000000000001,-283.08373110299385
-0.3497,-283.9325578829129
-0.3507000000000001,-284.9228557928184
-0.3517,-285.7716825727374
-0.3527000000000001,-286.76198048264297
-0.3537,-287.610807262562
-0.3547000000000001,-288.3181629124945
-0.3557,-289.1669896924135
-0.35670000000000013,-289.87434534234603
-0.3577,-290.723172122265
-0.35870000000000013,-291.571998902184
-0.3597,-292.56229681208964
-0.36070000000000013,-293.55259472199515
-0.3617,-294.54289263190066
-0.3626999999999999,-295.3917194118196
-0.3637,-296.3820173217252
-0.3646999999999999,-297.23084410164427
-0.3657,-297.9381997515767
-0.3666999999999999,-298.9284976614822
-0.3677,-299.6358533114148
-0.3686999999999999,-300.3432089613473
-0.36970000000000003,-301.1920357412663
-0.3706999999999999,-301.8993913911989
-0.37170000000000003,-302.74821817111786
-0.3726999999999999,-303.5970449510368
-0.37370000000000003,-304.5873428609424
-0.3746999999999999,-305.43616964086146
-0.37570000000000003,-306.4264675507669
-0.3766999999999999,-307.4167654606725
-0.37770000000000004,-308.407063370578
-0.3786999999999999,-309.3973612804835
-0.37970000000000004,-310.52913032037554
-0.3806999999999999,-311.3779571002945
-0.38170000000000004,-312.36825501020013
-0.38269999999999993,-313.0756106601326
-0.38370000000000004,-314.0659085700381
-0.38469999999999993,-314.77326421997066
-0.38570000000000004,-315.6220909998897
-0.38669999999999993,-315.3391487399167
-0.38570000000000004,-312.9341395301461
-0.38469999999999993,-310.52913032037554
-0.38370000000000004,-308.407063370578
-0.38269999999999993,-306.1435252907939
-0.38170000000000004,-304.0214583409964
-0.3806999999999999,-301.8993913911989
-0.37970000000000004,-299.6358533114148
-0.3786999999999999,-297.51378636161724
-0.37770000000000004,-295.3917194118196
-0.3766999999999999,-293.1281813320356
-0.37570000000000003,-291.0061143822381
-0.3746999999999999,-288.8840474324405
-0.37370000000000003,-286.9034516126294
-0.3726999999999999,-284.7813846628319
-0.37170000000000003,-282.8007888430208
-0.3706999999999999,-280.82019302320975
-0.36970000000000003,-278.9810683333853
-0.3686999999999999,-277.0004725135742
-0.3677,-275.1613478237496
-0.3666999999999999,-273.1807520039386
-0.3657,-271.20015618412754
-0.3646999999999999,-269.361031494303
-0.3637,-267.38043567449193
-0.3626999999999999,-265.39983985468086
-0.3617,-263.41924403486985
-0.36070000000000013,-261.58011934504526
-0.3597,-259.59952352523425
-0.35870000000000013,-257.6189277054232
-0.3577,-255.77980301559862
-0.35670000000000013,-253.79920719578757
-0.3557,-251.81861137597656
-0.3547000000000001,-249.979486686152
-0.3537,-247.99889086634093
-0.3527000000000001,-246.15976617651637
-0.3517,-244.32064148669184
-0.3507000000000001,-242.34004566688077
-0.3497,-240.50092097705624
-0.3487000000000001,-238.66179628723168
-0.3477,-236.82267159740715
-0.3467000000000001,-235.12501803756908
-0.3457,-233.28589334774458
-0.3447000000000001,-231.3052975279335
-0.3437,-229.60764396809546
-0.3427000000000001,-227.62704814828442
-0.3417,-225.78792345845983
-0.3407000000000001,-224.09026989862178
-0.3397,-222.25114520879725
-0.3387000000000001,-220.41202051897272
-0.3377,-218.57289582914817
-0.3367000000000001,-216.87524226931012
-0.3357,-215.03611757948556
-0.3347000000000001,-213.33846401964755
-0.3337,-211.499339329823
-0.3327000000000001,-209.8016857699849
-0.3317,-207.96256108016038
-0.3307000000000001,-206.26490752032234
-0.3297,-204.42578283049778
-0.3287000000000001,-202.58665814067325
-0.3277,-200.88900458083523
-0.3267000000000001,-199.04987989101065
-0.3257,-197.35222633117263
-0.3247000000000001,-195.65457277133459
-0.3237,-193.9569192114965
-0.3227000000000001,-192.2592656516585
-0.3217,-190.56161209182042
-0.3207000000000001,-188.8639585319824
-0.3197,-187.16630497214436
-0.3187000000000001,-185.46865141230631
-0.3177,-183.77099785246824
-0.3167000000000001,-182.07334429263022
-0.3157,-180.37569073279218
-0.3147000000000001,-178.67803717295413
-0.3137,-176.98038361311612
-0.3127000000000001,-175.28273005327804
-0.3117,-173.72654762342648
-0.3107000000000001,-172.0288940635885
-0.3097,-170.47271163373694
-0.3087000000000001,-168.77505807389886
-0.3077,-167.21887564404733
-0.3067000000000001,-165.6626932141958
-0.30569999999999997,-163.96503965435775
-0.3047000000000001,-162.40885722450622
-0.30369999999999997,-160.8526747946547
-0.3027000000000001,-159.15502123481662
-0.30169999999999997,-157.59883880496508
-0.3007000000000001,-156.04265637511355
-0.29969999999999997,-154.3450028152755
-0.2987000000000001,-152.78882038542397
-0.29769999999999996,-151.23263795557244
-0.2967000000000001,-149.6764555257209
-0.29569999999999996,-148.12027309586935
-0.2947000000000001,-146.5640906660178
-0.29369999999999996,-145.00790823616626
-0.29270000000000007,-143.4517258063147
-0.29169999999999996,-141.89554337646317
-0.29070000000000007,-140.36765517260895
-0.28969999999999996,-138.79732562975875
-0.28870000000000007,-137.1845547479126
-0.28769999999999996,-135.5576367530678
-0.28670000000000007,-133.94486587122168
-0.28569999999999995,-132.33209498937555
-0.28470000000000006,-130.76176544652535
-0.28369999999999995,-129.19143590367514
-0.28270000000000006,-127.72013615181551
-0.28169999999999995,-126.19224794796128
-0.28070000000000006,-124.74924242209892
-0.27969999999999995,-123.26379555724066
-0.27870000000000006,-121.82079003137831
-0.27769999999999995,-120.39193161851462
-0.27670000000000006,-118.94892609265229
-0.27569999999999995,-117.50592056678994
-0.27470000000000006,-116.02047370193165
-0.27369999999999994,-114.53502683707337
-0.27270000000000005,-113.06372708521374
-0.27169999999999994,-111.49339754236355
-0.27070000000000005,-109.9655093385093
-0.26969999999999994,-108.43762113465506
-0.26870000000000005,-106.90973293080083
