Potential V vs RHE, Current mA cm-2
0.013299999999999867,16.438945304431726
0.012299999999999978,14.953498439573437
0.011299999999999866,13.562837231806107
0.010299999999999976,12.210373229135131
0.009299999999999864,10.815467887468206
0.008299999999999974,9.419147834501414
0.007299999999999862,8.066683831830439
0.006299999999999972,6.845787980046913
0.00529999999999986,5.667333467259336
0.0042999999999999705,4.578005766363259
0.0032999999999998586,3.5311194044631313
0.0022999999999999687,2.4842330425630044
0.0012999999999998568,1.349917522331218
0.00029999999999996696,0.21588494435940458
-0.000700000000000145,-0.9181476336124089
-0.0017000000000000348,-1.9650339955125358
-0.0027000000000001467,-2.968064307116847
-0.0037000000000000366,-3.884797229429391
-0.0047000000000001485,-4.800115440442069
-0.005700000000000038,-5.715433651454749
-0.00670000000000015,-6.6760226240631075
-0.00770000000000004,-7.635196885371603
-0.008700000000000152,-8.594371146680096
-0.009700000000000042,-9.59740145828441
-0.010700000000000154,-10.514134380596953
-0.011700000000000044,-11.343155202317865
-0.012700000000000156,-12.12831997374296
-0.013700000000000045,-12.955926084164007
-0.014700000000000157,-13.784946905884919
-0.015700000000000047,-14.65640906660178
-0.01670000000000016,-15.533530072518102
-0.01770000000000005,-16.438945304431726
-0.01870000000000016,-17.2736249713521
-0.01970000000000005,-18.009274847281915
-0.020700000000000163,-18.759071836210385
-0.021700000000000053,-19.452280373144255
-0.022700000000000164,-20.202077362072725
-0.023700000000000054,-20.980168576998494
-0.024700000000000166,-21.814848243918867
-0.025700000000000056,-22.67782213683654
-0.026700000000000168,-23.47006046476096
-0.027700000000000058,-24.20571034069078
-0.02870000000000017,-24.9130659906233
-0.02970000000000006,-25.521391849565262
-0.03070000000000017,-26.21460038649913
-0.03170000000000006,-26.9643973754276
-0.03270000000000017,-27.700047251357418
-0.03370000000000006,-28.478138466283188
-0.034700000000000175,-29.27037679420761
-0.035700000000000065,-29.96358533114148
-0.03670000000000018,-30.614352529079397
-0.03770000000000007,-31.23682550102001
-0.03870000000000018,-31.887592698957924
-0.03970000000000007,-32.53835989689585
-0.04070000000000018,-33.288156885824314
-0.04170000000000007,-34.02380676175414
-0.04270000000000018,-34.8018979766799
-0.04370000000000007,-35.50925362661242
-0.044700000000000184,-36.11757948555439
-0.045700000000000074,-36.725905344496354
-0.046700000000000186,-37.291789864442364
-0.047700000000000076,-37.90011572338433
-0.04870000000000019,-38.6499127123128
-0.04970000000000008,-39.38556258824262
-0.05070000000000019,-40.092918238175145
-0.05170000000000008,-40.78612677510901
-0.05270000000000019,-41.43689397304693
-0.05370000000000008,-42.00277849299294
-0.05470000000000019,-42.568663012938956
-0.05570000000000008,-43.134547532884966
-0.056700000000000195,-43.79946184382153
-0.057700000000000085,-44.4926703807554
-0.058700000000000196,-45.22832025668522
-0.059700000000000086,-45.93567590661774
-0.0607000000000002,-46.586443104555656
-0.06170000000000009,-47.19476896349763
-0.0627000000000002,-47.76065348344364
-0.06370000000000009,-48.32653800338966
-0.0647000000000002,-48.93486386233162
-0.06570000000000009,-49.59977817326819
-0.0667000000000002,-50.29298671020206
-0.0677000000000001,-50.98619524713592
-0.0687000000000002,-51.65110955807249
-0.0697000000000001,-52.25943541701445
-0.07070000000000021,-52.82531993696047
-0.0717000000000001,-53.348763117910536
-0.07270000000000021,-53.9570889768525
-0.0737000000000001,-54.60785617479041
-0.07470000000000021,-55.31521182472294
-0.0757000000000001,-56.008420361656796
-0.07670000000000021,-56.70162889859067
-0.0777000000000001,-57.352396096528594
-0.07870000000000021,-57.87583927747865
-0.0797000000000001,-58.45587091042332
-0.08070000000000022,-59.02175543036933
-0.0817000000000001,-59.67252262830725
-0.08270000000000022,-60.36573116524111
-0.08370000000000011,-61.07308681517363
-0.08470000000000022,-61.7662953521075
-0.08570000000000011,-62.37462121104946
-0.08670000000000022,-62.94050573099548
-0.08770000000000011,-63.5063902509415
-0.08870000000000022,-64.11471610988345
-0.08970000000000011,-64.72304196882543
-0.09070000000000022,-65.43039761875795
-0.09170000000000011,-66.12360615569182
-0.09270000000000023,-66.87340314462028
-0.09370000000000012,-67.52417034255821
-0.09470000000000023,-68.13249620150016
-0.09570000000000012,-68.69838072144618
-0.09670000000000023,-69.26426524139221
-0.09770000000000012,-69.87259110033416
-0.09870000000000023,-70.53750541127073
-0.09970000000000012,-71.18827260920865
-0.10070000000000023,-71.92392248513846
-0.10170000000000012,-72.57468968307639
-0.10270000000000024,-73.23960399401295
-0.10370000000000013,-73.80548851395896
-0.10470000000000024,-74.32893169490903
-0.10570000000000013,-74.93725755385098
-0.10670000000000024,-75.5880247517889
-0.10770000000000013,-76.29538040172143
-0.10870000000000024,-76.98858893865528
-0.10970000000000013,-77.68179747558916
-0.11070000000000024,-78.33256467352709
-0.11170000000000013,-78.9550376454677
-0.11270000000000002,-79.52092216541372
-0.11370000000000013,-80.08680668535972
-0.11470000000000002,-80.69513254430169
-0.11570000000000014,-81.3458997422396
-0.11670000000000003,-82.03910827917348
-0.11770000000000014,-82.746463929106
-0.11870000000000003,-83.43967246603985
-0.11970000000000014,-84.04799832498183
-0.12070000000000003,-84.61388284492786
-0.12170000000000014,-85.17976736487385
-0.12270000000000003,-85.80224033681448
-0.12370000000000014,-86.49544887374834
-0.12470000000000003,-87.14621607168625
-0.12570000000000014,-87.89601306061473
-0.12670000000000003,-88.54678025855264
-0.12770000000000015,-89.15510611749461
-0.12870000000000004,-89.72099063744062
-0.12970000000000015,-90.28687515738663
-0.13070000000000004,-90.89520101632861
-0.13170000000000015,-91.60255666626112
-0.13270000000000004,-92.33820654219093
-0.13370000000000015,-93.08800353111941
-0.13470000000000004,-93.82365340704924
-0.13570000000000015,-94.47442060498715
-0.13670000000000004,-95.08274646392913
-0.13770000000000016,-95.64863098387512
-0.13870000000000005,-96.21451550382113
-0.13970000000000016,-96.83698847576176
-0.14070000000000005,-97.53019701269562
-0.14170000000000016,-98.18096421063355
-0.14270000000000005,-98.88831986056607
-0.14370000000000016,-99.58152839749994
-0.14470000000000005,-100.18985425644189
-0.14570000000000016,-100.79818011538387
-0.14670000000000005,-101.3640646353299
-0.14770000000000016,-102.07142028526239
-0.14870000000000005,-102.76462882219626
-0.14970000000000017,-103.50027869812607
-0.15070000000000006,-104.2925170260505
-0.15170000000000017,-104.98572556298437
-0.15270000000000006,-105.63649276092228
-0.15370000000000017,-106.2589657328629
-0.15470000000000006,-106.78240891381296
-0.15570000000000017,-107.39073477275493
-0.15670000000000006,-108.0839433096888
-0.15770000000000017,-108.73471050762672
-0.15870000000000006,-109.4845074965552
-0.15970000000000018,-110.22015737248502
-0.16070000000000007,-110.92751302241753
-0.16170000000000018,-111.57828022035544
-0.16270000000000007,-112.14416474030146
-0.16370000000000018,-112.75249059924342
-0.16470000000000007,-113.40325779718134
-0.16570000000000018,-114.11061344711386
-0.16670000000000007,-114.80382198404773
-0.16770000000000018,-115.53947185997755
-0.16870000000000007,-116.28926884890602
-0.16970000000000018,-116.89759470784797
-0.17070000000000007,-117.50592056678994
-0.17170000000000019,-118.11424642573192
-0.17270000000000008,-118.76501362366983
-0.1737000000000002,-119.4299279346064
-0.17470000000000008,-120.16557781053622
-0.1757000000000002,-120.9153747994647
-0.17670000000000008,-121.60858333639854
-0.1777000000000002,-122.30179187333242
-0.17870000000000008,-122.91011773227437
-0.1797000000000002,-123.532590704215
-0.18070000000000008,-124.09847522416102
-0.1817000000000002,-124.74924242209892
-0.18270000000000008,-125.44245095903281
-0.1837000000000002,-126.19224794796128
-0.1847000000000001,-126.97033916288706
-0.1857000000000002,-127.66354769982091
-0.1867000000000001,-128.28602067176152
-0.1877000000000002,-128.8094638527116
-0.1887000000000001,-129.41778971165354
-0.1897000000000002,-130.06855690959148
-0.1907000000000001,-130.8042067855213
-0.1917000000000001,-131.55400377444977
-0.19269999999999998,-132.2896536503796
-0.1937000000000001,-132.99700930031207
-0.19469999999999998,-133.60533515925405
-0.1957000000000001,-134.21366101819604
-0.19669999999999999,-134.77954553814206
-0.1977000000000001,-135.43031273607997
-0.1987,-136.13766838601245
-0.1997000000000001,-136.8733182619423
-0.2007,-137.6089681378721
-0.2017000000000001,-138.3587651268006
-0.2027,-139.05197366373446
-0.2037000000000001,-139.70274086167237
-0.2047,-140.36765517260895
-0.2057000000000001,-141.01842237054686
-0.2067,-141.75407224647665
-0.2077000000000001,-142.4614278964092
-0.2087,-143.16878354634173
-0.2097000000000001,-143.87613919627424
-0.2107,-144.58349484620675
-0.2117000000000001,-145.29085049613926
-0.2127,-145.85673501608528
-0.2137000000000001,-146.5640906660178
-0.2147,-147.27144631595033
-0.2157000000000001,-148.12027309586935
-0.2167,-148.82762874580186
-0.21770000000000012,-149.6764555257209
-0.2187,-150.38381117565342
-0.21970000000000012,-151.09116682558593
-0.2207,-151.7985224755184
-0.22170000000000012,-152.50587812545095
-0.2227,-153.07176264539694
-0.22370000000000012,-153.77911829532948
-0.2247,-154.486473945262
-0.22570000000000012,-155.33530072518104
-0.2267,-156.04265637511355
-0.22770000000000012,-156.60854089505958
-0.22870000000000001,-157.17442541500557
-0.22970000000000013,-157.7403099349516
-0.23070000000000002,-158.3061944548976
-0.23170000000000013,-159.01355010483013
-0.23270000000000002,-160.14531914472215
-0.23370000000000013,-160.8526747946547
-0.23470000000000002,-161.5600304445872
-0.23570000000000013,-162.12591496453322
-0.23670000000000002,-162.6917994844792
-0.2376999999999999,-163.39915513441173
-0.23870000000000002,-163.96503965435775
-0.2396999999999999,-164.67239530429026
-0.24070000000000003,-165.3797509542228
-0.24169999999999991,-166.22857773414182
-0.24270000000000003,-166.93593338407433
-0.24369999999999992,-167.78476016399335
-0.24470000000000003,-168.49211581392586
-0.24569999999999992,-169.19947146385837
-0.24670000000000003,-169.7653559838044
-0.24769999999999992,-170.47271163373694
-0.24870000000000003,-171.18006728366944
-0.24969999999999992,-171.74595180361547
-0.25070000000000003,-172.59477858353446
-0.2516999999999999,-173.302134233467
-0.25270000000000004,-174.0094898833995
-0.2536999999999999,-174.71684553333202
-0.25470000000000004,-175.42420118326456
-0.2556999999999999,-176.13155683319707
-0.25670000000000004,-176.98038361311612
-0.25769999999999993,-177.54626813306209
-0.25870000000000004,-178.3950949129811
-0.25969999999999993,-179.24392169290016
-0.26070000000000004,-179.95127734283267
-0.26169999999999993,-180.8001041227517
-0.26270000000000004,-181.36598864269772
-0.26369999999999993,-182.07334429263022
-0.26470000000000005,-182.78069994256273
-0.26569999999999994,-183.62952672248176
-0.26670000000000005,-184.47835350240078
-0.26769999999999994,-185.3271802823198
-0.26870000000000005,-186.17600706223882
-0.26969999999999994,-186.88336271217133
-0.27070000000000005,-187.73218949209036
-0.27169999999999994,-188.4395451420229
-0.27270000000000005,-189.1469007919554
-0.27369999999999994,-190.13719870186094
-0.27470000000000006,-190.84455435179345
-0.27569999999999995,-191.69338113171247
-0.27670000000000006,-192.40073678164498
-0.27769999999999995,-193.249563561564
-0.27870000000000006,-193.9569192114965
-0.27969999999999995,-194.52280373144254
-0.28070000000000006,-195.23015938137505
-0.28169999999999995,-195.93751503130758
-0.28270000000000006,-196.7863418112266
-0.28369999999999995,-197.63516859114563
-0.28470000000000006,-198.48399537106465
-0.28569999999999995,-199.19135102099716
-0.28670000000000007,-199.89870667092967
-0.28769999999999996,-200.6060623208622
-0.28870000000000007,-201.4548891007812
-0.28969999999999996,-202.30371588070025
-0.29070000000000007,-203.15254266061928
-0.29169999999999996,-203.85989831055176
-0.29270000000000007,-204.5672539604843
-0.29369999999999996,-205.27460961041683
-0.2947000000000001,-205.98196526034934
-0.29569999999999996,-206.54784978029537
-0.2967000000000001,-207.1137343002414
-0.29769999999999996,-207.8210899501739
-0.2987000000000001,-208.6699167300929
-0.29969999999999997,-209.51874351001192
-0.3007000000000001,-210.50904141991748
-0.30169999999999997,-211.21639706985
-0.3027000000000001,-211.9237527197825
-0.30369999999999997,-212.34816610974204
-0.3047000000000001,-212.914050629688
-0.30569999999999997,-213.62140627962054
-0.3067000000000001,-214.32876192955305
-0.3077,-215.17758870947208
-0.3087000000000001,-216.0264154893911
-0.3097,-216.73377113932364
-0.3107000000000001,-217.44112678925615
-0.3117,-218.14848243918865
-0.3127000000000001,-218.71436695913465
-0.3137,-219.42172260906716
-0.3147000000000001,-220.2705493889862
-0.3157,-220.97790503891872
-0.3167000000000001,-221.82673181883774
-0.3177,-222.53408746877028
-0.3187000000000001,-223.38291424868927
-0.3197,-224.09026989862178
-0.3207000000000001,-224.79762554855435
-0.3217,-225.50498119848683
-0.3227000000000001,-226.21233684841937
-0.3237,-227.06116362833836
-0.3247000000000001,-228.0514615382439
-0.3257,-228.75881718817644
-0.3267000000000001,-229.60764396809546
-0.3277,-230.31499961802797
-0.3287000000000001,-231.0223552679605
-0.3297,-231.8711820478795
-0.3307000000000001,-232.72000882779852
-0.3317,-233.56883560771757
-0.3327000000000001,-234.4176623876366
-0.3337,-235.40796029754208
-0.3347000000000001,-236.25678707746113
-0.3357,-236.96414272739366
-0.3367000000000001,-237.67149837732615
-0.3377,-238.37885402725868
-0.3387000000000001,-239.2276808071777
-0.3397,-240.0765075870967
-0.3407000000000001,-240.92533436701575
-0.3417,-241.77416114693477
-0.3427000000000001,-242.62298792685377
-0.3437,-243.47181470677282
-0.3447000000000001,-244.17917035670533
-0.3457,-244.8865260066378
-0.3467000000000001,-245.73535278655686
-0.3477,-246.5841795664759
-0.3487000000000001,-247.57447747638145
-0.3497,-248.56477538628693
-0.3507000000000001,-249.5550732961925
-0.3517,-250.545371206098
-0.3527000000000001,-251.39419798601702
-0.3537,-252.243024765936
-0.3547000000000001,-252.80890928588207
-0.3557,-253.51626493581452
-0.35670000000000013,-254.36509171573357
-0.3577,-255.07244736566614
-0.35870000000000013,-255.92127414558513
-0.3597,-256.4871586655312
-0.36070000000000013,-257.4774565754367
-0.3617,-258.7506967453152
-0.3626999999999999,-260.02393691519376
-0.3637,-261.1557059550858
-0.3646999999999999,-261.8630616050183
-0.3657,-262.42894612496434
-0.3666999999999999,-263.13630177489676
-0.3677,-263.84365742482936
-0.3686999999999999,-264.6924842047484
-0.36970000000000003,-265.82425324464043
-0.3706999999999999,-266.6730800245594
-0.37170000000000003,-267.5219068044785
-0.3726999999999999,-268.22926245441096
-0.37370000000000003,-268.93661810434344
-0.3746999999999999,-269.64397375427603
-0.37570000000000003,-270.49280053419506
-0.3766999999999999,-271.341627314114
-0.37770000000000004,-272.1904540940331
-0.3786999999999999,-273.03928087395207
-0.37970000000000004,-274.0295787838576
-0.3806999999999999,-274.7369344337901
-0.38170000000000004,-275.7272323436957
-0.38269999999999993,-276.43458799362816
-0.38370000000000004,-277.2834147735472
-0.38469999999999993,-277.9907704234797
-0.38570000000000004,-278.8395972033987
-0.38669999999999993,-278.4151838134392
-0.38570000000000004,-275.86870347368216
-0.38469999999999993,-273.60516539389806
-0.38370000000000004,-271.20015618412754
-0.38269999999999993,-268.93661810434344
-0.38170000000000004,-266.6730800245594
-0.3806999999999999,-264.55101307476184
-0.37970000000000004,-262.42894612496434
-0.3786999999999999,-260.3068791751668
-0.37770000000000004,-258.18481222536917
-0.3766999999999999,-256.0627452755717
-0.37570000000000003,-253.79920719578757
-0.3746999999999999,-251.67714024599002
-0.37370000000000003,-249.5550732961925
-0.3726999999999999,-247.71594860636796
-0.37170000000000003,-245.73535278655686
-0.3706999999999999,-243.75475696674582
-0.36970000000000003,-241.6326900169483
-0.3686999999999999,-239.65209419713722
-0.3677,-237.67149837732615
-0.3666999999999999,-235.83237368750162
-0.3657,-233.99324899767706
-0.3646999999999999,-232.15412430785253
-0.3637,-230.31499961802797
-0.3626999999999999,-228.33440379821695
-0.3617,-226.35380797840588
-0.36070000000000013,-224.37321215859478
-0.3597,-222.3926163387838
-0.35870000000000013,-220.5534916489592
-0.3577,-218.71436695913465
-0.35670000000000013,-216.87524226931012
-0.3557,-215.17758870947208
-0.3547000000000001,-213.47993514963403
-0.3537,-211.499339329823
-0.3527000000000001,-209.37727238002543
-0.3517,-207.3966765602144
-0.3507000000000001,-205.41608074040332
-0.3497,-203.71842718056527
-0.3487000000000001,-201.59636023076774
-0.3477,-199.89870667092967
-0.3467000000000001,-198.20105311109162
-0.3457,-196.3619284212671
-0.3447000000000001,-194.52280373144254
-0.3437,-192.683679041618
-0.3427000000000001,-190.84455435179345
-0.3417,-189.0054296619689
-0.3407000000000001,-187.30777610213087
-0.3397,-185.46865141230631
-0.3387000000000001,-183.62952672248176
-0.3377,-181.79040203265723
-0.3367000000000001,-179.95127734283267
-0.3357,-178.1121526530081
-0.3347000000000001,-176.4144990931701
-0.3337,-174.57537440334553
-0.3327000000000001,-173.01919197349397
-0.3317,-171.46300954364247
-0.3307000000000001,-169.9068271137909
-0.3297,-168.20917355395284
-0.3287000000000001,-166.51151999411482
-0.3277,-164.67239530429026
-0.3267000000000001,-162.8332706144657
-0.3257,-160.99414592464117
-0.3247000000000001,-159.15502123481662
-0.3237,-157.59883880496508
-0.3227000000000001,-156.04265637511355
-0.3217,-154.6279450752485
-0.3207000000000001,-152.93029151541046
-0.3197,-151.37410908555893
-0.3187000000000001,-149.6764555257209
-0.3177,-147.83733083589632
-0.3167000000000001,-146.1396772760583
-0.3157,-144.58349484620675
-0.3147000000000001,-143.16878354634173
-0.3137,-141.47112998650366
-0.3127000000000001,-140.01397734764268
-0.3117,-138.40120646579655
-0.3107000000000001,-136.74599424495443
-0.3097,-135.1332233631083
-0.3087000000000001,-133.52045248126214
-0.3077,-131.95012293841197
-0.3067000000000001,-130.46467607355368
-0.30569999999999997,-128.9792292086954
-0.3047000000000001,-127.4937823438371
-0.30369999999999997,-125.88101146199097
-0.3027000000000001,-124.22579924114888
-0.30169999999999997,-122.61302835930273
-0.3007000000000001,-121.00025747745659
-0.29969999999999997,-119.47236927360234
-0.2987000000000001,-118.02936374774
-0.29769999999999996,-116.58635822187767
-0.2967000000000001,-115.10091135701937
-0.29569999999999996,-113.62961160515974
-0.2947000000000001,-112.10172340130552
-0.29369999999999996,-110.53139385845533
-0.29270000000000007,-108.96106431560513
-0.29169999999999996,-107.4331761117509
-0.29070000000000007,-105.99017058588855
-0.28969999999999996,-104.5471650600262
-0.28870000000000007,-103.11830664716253
-0.28769999999999996,-101.63285978230424
-0.28670000000000007,-100.14741291744595
-0.28569999999999995,-98.57708337459576
-0.28470000000000006,-97.09163650973747
-0.28369999999999995,-95.60618964487918
-0.28270000000000006,-94.26221391000739
-0.28169999999999995,-92.90409106213696
-0.28070000000000006,-91.56011532726518
-0.27969999999999995,-90.11710980140283
-0.27870000000000006,-88.63166293654454
-0.27769999999999995,-87.10377473269031
-0.27670000000000006,-85.53344518984011
-0.27569999999999995,-84.13288100297372
-0.27470000000000006,-82.746463929106
-0.27369999999999994,-81.38834108123557
-0.27270000000000005,-80.12924802435568
-0.27169999999999994,-78.8135665154812
-0.27070000000000005,-77.42714944161345
-0.26969999999999994,-76.02658525474708
-0.26870000000000005,-74.54113838988879
-0.26769999999999994,-73.09813286402644
