Potential V vs RHE, Current mA cm-2
0.013299999999999867,18.362952672248177
0.012299999999999978,16.750181790402035
0.011299999999999866,15.222293586547794
0.010299999999999976,13.780702771985322
0.009299999999999864,12.472094819610163
0.008299999999999974,11.33891106841827
0.007299999999999862,10.160456555630693
0.006299999999999972,9.025858093138934
0.00529999999999986,7.761106191059591
0.0042999999999999705,6.540210339276065
0.0032999999999998586,5.449467927080121
0.0022999999999999687,4.44643761547581
0.0012999999999998568,3.4872633541673155
0.00029999999999996696,2.5280890928588207
-0.000700000000000145,1.5250587812545096
-0.0017000000000000348,0.43403342679859325
-0.0027000000000001467,-0.6128529351015338
-0.0037000000000000366,-1.5293029151541047
-0.0047000000000001485,-2.3569090255751513
-0.005700000000000038,-3.1859298472960624
-0.00670000000000015,-4.0588067193127895
-0.00770000000000004,-5.017980980621284
-0.008700000000000152,-5.977155241929781
-0.009700000000000042,-6.850032113946507
-0.010700000000000154,-7.679052935667419
-0.011700000000000044,-8.4203616567967
-0.012700000000000156,-9.161670377925978
-0.013700000000000045,-9.99069119964689
-0.014700000000000157,-10.863568071663616
-0.015700000000000047,-11.73503023238048
-0.01670000000000016,-12.520195003805576
-0.01770000000000005,-13.217647674639037
-0.01870000000000016,-13.872659006476551
-0.01970000000000005,-14.61396772760583
-0.020700000000000163,-15.3920589425316
-0.021700000000000053,-16.22673860945197
-0.022700000000000164,-17.018976937376394
-0.023700000000000054,-17.71218547431026
-0.024700000000000166,-18.320511333252224
-0.025700000000000056,-18.92883719219419
-0.026700000000000168,-19.636192842126707
-0.027700000000000058,-20.371842718056527
-0.02870000000000017,-21.149933932982297
-0.02970000000000006,-21.899730921910766
-0.03070000000000017,-22.550498119848687
-0.03170000000000006,-23.1163826397947
-0.03270000000000017,-23.724708498736668
-0.03370000000000006,-24.432064148669184
-0.034700000000000175,-25.167714024599
-0.035700000000000065,-25.91751101352747
-0.03670000000000018,-26.568278211465387
-0.03770000000000007,-27.134162731411404
-0.03870000000000018,-27.700047251357418
-0.03970000000000007,-28.265931771303435
-0.04070000000000018,-28.959140308237306
-0.04170000000000007,-29.751378636161718
-0.04270000000000018,-30.444587173095588
-0.04370000000000007,-31.052913032037555
-0.044700000000000184,-31.57635621298762
-0.045700000000000074,-32.09979939393769
-0.046700000000000186,-32.70812525287965
-0.047700000000000076,-33.373039563816214
-0.04870000000000019,-34.10868943974604
-0.04970000000000008,-34.8018979766799
-0.05070000000000019,-35.38192960962457
-0.05170000000000008,-35.90537279057463
-0.05270000000000019,-36.4288159715247
-0.05370000000000008,-37.037141830466666
-0.05470000000000019,-37.73035036740053
-0.05570000000000008,-38.42355890433439
-0.056700000000000195,-38.98944342428042
-0.057700000000000085,-39.51288660523048
-0.058700000000000196,-40.03632978618054
-0.059700000000000086,-40.616361419125205
-0.0607000000000002,-41.22468727806717
-0.06170000000000009,-41.96033715399699
-0.0627000000000002,-42.6111043519349
-0.06370000000000009,-43.17698887188092
-0.0647000000000002,-43.70043205283099
-0.06570000000000009,-44.223875233781044
-0.0667000000000002,-44.74731841473111
-0.0677000000000001,-45.412232725667685
-0.0687000000000002,-46.10544126260155
-0.0697000000000001,-46.75620846053947
-0.07070000000000021,-47.32209298048547
-0.0717000000000001,-47.80309482243959
-0.07270000000000021,-48.32653800338966
-0.0737000000000001,-48.93486386233162
-0.07470000000000021,-49.59977817326819
-0.0757000000000001,-50.2505453712061
-0.07670000000000021,-50.85887123014807
-0.0777000000000001,-51.424755750094086
-0.07870000000000021,-51.948198931044146
-0.0797000000000001,-52.471642111994214
-0.08070000000000022,-53.079967970936174
-0.0817000000000001,-53.74488228187274
-0.08270000000000022,-54.39564947981066
-0.08370000000000011,-55.003975338752625
-0.08470000000000022,-55.527418519702685
-0.08570000000000011,-56.008420361656796
-0.08670000000000022,-56.61674622059877
-0.08770000000000011,-57.26751341853669
-0.08870000000000022,-57.974869068469204
-0.08970000000000011,-58.62563626640712
-0.09070000000000022,-59.14907944735718
-0.09170000000000011,-59.6300812893113
-0.09270000000000023,-60.11108313126541
-0.09370000000000012,-60.71940899020737
-0.09470000000000023,-61.412617527141244
-0.09570000000000012,-62.06338472507916
-0.09670000000000023,-62.68585769701977
-0.09770000000000012,-63.20930087796983
-0.09870000000000023,-63.732744058919906
-0.09970000000000012,-64.29862857886593
-0.10070000000000023,-64.90695443780788
-0.10170000000000012,-65.64260431373769
-0.10270000000000024,-66.29337151167562
-0.10370000000000013,-66.81681469262568
-0.10470000000000024,-67.34025787357575
-0.10570000000000013,-67.82125971552985
-0.10670000000000024,-68.38714423547587
-0.10770000000000013,-69.05205854641244
-0.10870000000000024,-69.74526708334632
-0.10970000000000013,-70.35359294228827
-0.11070000000000024,-70.87703612323833
-0.11170000000000013,-71.35803796519245
-0.11270000000000002,-71.8814811461425
-0.11370000000000013,-72.53224834408043
-0.11470000000000002,-73.23960399401295
-0.11570000000000014,-73.93281253094682
-0.11670000000000003,-74.49869705089283
-0.11770000000000014,-75.02214023184291
-0.11870000000000003,-75.46070073480107
-0.11970000000000014,-75.98414391575112
-0.12070000000000003,-76.63491111368903
-0.12170000000000014,-77.34226676362155
-0.12270000000000003,-77.99303396155948
-0.12370000000000014,-78.64380115949739
-0.12470000000000003,-79.16724434044745
-0.12570000000000014,-79.69068752139752
-0.12670000000000003,-80.34145471933543
-0.12770000000000015,-81.04881036926795
-0.12870000000000004,-81.74201890620182
-0.12970000000000015,-82.39278610413973
-0.13070000000000004,-82.95867062408576
-0.13170000000000015,-83.43967246603985
-0.13270000000000004,-83.96311564698992
-0.13370000000000015,-84.61388284492786
-0.13470000000000004,-85.36367983385631
-0.13570000000000015,-86.05688837079018
-0.13670000000000004,-86.7076555687281
-0.13770000000000016,-87.27354008867411
-0.13870000000000005,-87.85357172161878
-0.13970000000000016,-88.4194562415648
-0.14070000000000005,-89.07022343950271
-0.14170000000000016,-89.76343197643658
-0.14270000000000005,-90.47078762636909
-0.14370000000000016,-91.12155482430701
-0.14470000000000005,-91.77232202224494
-0.14570000000000016,-92.29576520319499
-0.14670000000000005,-92.86164972314101
-0.14770000000000016,-93.51241692107894
-0.14870000000000005,-94.17733123201549
-0.14970000000000017,-94.8280984299534
-0.15070000000000006,-95.39398294989942
-0.15170000000000017,-95.91742613084948
-0.15270000000000006,-96.44086931179956
-0.15370000000000017,-97.04919517074151
-0.15470000000000006,-97.78484504667132
-0.15570000000000017,-98.5346420355998
-0.15670000000000006,-99.22785057253368
-0.15770000000000017,-99.75129375348374
-0.15870000000000006,-100.2747369344338
-0.15970000000000018,-100.84062145437981
-0.16070000000000007,-101.50553576531638
-0.16170000000000018,-102.19874430225026
-0.16270000000000007,-102.84951150018817
-0.16370000000000018,-103.45783735913014
-0.16470000000000007,-104.02372187907615
-0.16570000000000018,-104.5471650600262
-0.16670000000000007,-105.16963803196683
-0.16770000000000018,-105.82040522990474
-0.16870000000000007,-106.51361376683862
-0.16970000000000018,-107.20682230377247
-0.17070000000000007,-107.78685393671715
-0.17170000000000019,-108.35273845666316
-0.17270000000000008,-108.91862297660917
-0.1737000000000002,-109.61183151354304
-0.17470000000000008,-110.26259871148096
-0.1757000000000002,-110.92751302241753
-0.17670000000000008,-111.57828022035544
-0.1777000000000002,-112.18660607929739
-0.17870000000000008,-112.75249059924342
-0.1797000000000002,-113.40325779718134
-0.18070000000000008,-114.11061344711386
-0.1817000000000002,-114.84626332304367
-0.18270000000000008,-115.53947185997755
-0.1837000000000002,-116.10535637992358
-0.1847000000000001,-116.58635822187767
-0.1857000000000002,-117.10980140282774
-0.1867000000000001,-117.67568592277377
-0.1877000000000002,-118.38304157270628
-0.1887000000000001,-119.07625010964013
-0.1897000000000002,-119.769458646574
-0.1907000000000001,-120.33534316652002
-0.1917000000000001,-120.85878634747009
-0.19269999999999998,-121.43881798041474
-0.1937000000000001,-122.08958517835266
-0.19469999999999998,-122.82523505428249
-0.1957000000000001,-123.6174733822069
-0.19669999999999999,-124.22579924114888
-0.1977000000000001,-124.74924242209892
-0.1987,-125.35756828104091
-0.1997000000000001,-126.05077681797478
-0.2007,-126.71569112891132
-0.2017000000000001,-127.4088996658452
-0.2027,-128.144549541775
-0.2037000000000001,-128.8094638527116
-0.2047,-129.33290703366166
-0.2057000000000001,-129.79976176261712
-0.2067,-130.32320494356716
-0.2077000000000001,-131.03056059349967
-0.2087,-131.80865180842545
-0.2097000000000001,-132.55844879735392
-0.2107,-133.20921599529186
-0.2117000000000001,-133.81754185423384
-0.2127,-134.42586771317576
-0.2137000000000001,-135.1332233631083
-0.2147,-135.86887323903812
-0.2157000000000001,-136.60452311496792
-0.2167,-137.22699608690854
-0.21770000000000012,-137.75043926785864
-0.2187,-138.3163237878046
-0.21970000000000012,-138.88220830775063
-0.2207,-139.57541684468453
-0.22170000000000012,-140.325213833613
-0.2227,-141.01842237054686
-0.22370000000000012,-141.61260111649017
-0.2247,-142.31995676642268
-0.22570000000000012,-142.8858412863687
-0.2267,-143.5931969363012
-0.22770000000000012,-144.30055258623375
-0.22870000000000001,-145.00790823616626
-0.22970000000000013,-145.85673501608528
-0.23070000000000002,-146.5640906660178
-0.23170000000000013,-147.1299751859638
-0.23270000000000002,-147.6958597059098
-0.23370000000000013,-148.40321535584232
-0.23470000000000002,-149.1105710057749
-0.23570000000000013,-149.8179266557074
-0.23670000000000002,-150.5252823056399
-0.2376999999999999,-151.09116682558593
-0.23870000000000002,-151.65705134553193
-0.2396999999999999,-152.36440699546444
-0.24070000000000003,-153.07176264539694
-0.24169999999999991,-153.920589425316
-0.24270000000000003,-154.76941620523502
-0.24369999999999992,-155.47677185516753
-0.24470000000000003,-156.04265637511355
-0.24569999999999992,-156.60854089505958
-0.24670000000000003,-157.31589654499206
-0.24769999999999992,-158.1647233249111
-0.24870000000000003,-159.15502123481662
-0.24969999999999992,-160.00384801473567
-0.25070000000000003,-160.71120366466818
-0.2516999999999999,-161.2770881846142
-0.25270000000000004,-161.84297270456022
-0.2536999999999999,-162.5503283544927
-0.25470000000000004,-163.25768400442522
-0.2556999999999999,-164.10651078434424
-0.25670000000000004,-164.81386643427678
-0.25769999999999993,-165.5212220842093
-0.25870000000000004,-166.0871066041553
-0.25969999999999993,-166.79446225408785
-0.26070000000000004,-167.50181790402033
-0.26169999999999993,-168.35064468393938
-0.26270000000000004,-169.0580003338719
-0.26369999999999993,-169.6238848538179
-0.26470000000000005,-170.18976937376394
-0.26569999999999994,-170.89712502369645
-0.26670000000000005,-171.60448067362896
-0.26769999999999994,-172.31183632356147
-0.26870000000000005,-173.16066310348046
-0.26969999999999994,-173.86801875341303
-0.27070000000000005,-174.71684553333202
-0.27169999999999994,-175.28273005327804
-0.27270000000000005,-175.99008570321055
-0.27369999999999994,-176.6974413531431
-0.27470000000000006,-177.54626813306209
-0.27569999999999995,-178.25362378299462
-0.27670000000000006,-179.10245056291362
-0.27769999999999995,-179.80980621284618
-0.27870000000000006,-180.37569073279218
-0.27969999999999995,-181.08304638272472
-0.28070000000000006,-181.79040203265723
-0.28169999999999995,-182.49775768258974
-0.28270000000000006,-183.34658446250873
-0.28369999999999995,-184.19541124242778
-0.28470000000000006,-184.7612957623738
-0.28569999999999995,-185.3271802823198
-0.28670000000000007,-185.89306480226583
-0.28769999999999996,-186.74189158218485
-0.28870000000000007,-187.73218949209036
-0.28969999999999996,-188.58101627200938
-0.29070000000000007,-189.2883719219419
-0.29169999999999996,-189.8542564418879
-0.29270000000000007,-190.42014096183394
-0.29369999999999996,-191.268967741753
-0.2947000000000001,-192.11779452167198
-0.29569999999999996,-192.966621301591
-0.2967000000000001,-193.6739769515235
-0.29769999999999996,-194.2398614714695
-0.2987000000000001,-194.80574599141553
-0.29969999999999997,-195.51310164134807
-0.3007000000000001,-196.3619284212671
-0.30169999999999997,-197.35222633117263
-0.3027000000000001,-198.20105311109162
-0.30369999999999997,-199.04987989101065
-0.3047000000000001,-199.75723554094319
-0.30569999999999997,-200.3231200608892
-0.3067000000000001,-200.88900458083523
-0.3077,-201.59636023076774
-0.3087000000000001,-202.58665814067325
-0.3097,-203.43548492059227
-0.3107000000000001,-204.2843117005113
-0.3117,-204.9916673504438
-0.3127000000000001,-205.69902300037634
-0.3137,-206.54784978029537
-0.3147000000000001,-207.25520543022787
-0.3157,-208.1040322101469
-0.3167000000000001,-208.95285899006592
-0.3177,-209.8016857699849
-0.3187000000000001,-210.50904141991748
-0.3197,-211.21639706985
-0.3207000000000001,-212.065223849769
-0.3217,-212.914050629688
-0.3227000000000001,-213.90434853959354
-0.3237,-214.75317531951256
-0.3247000000000001,-215.4605309694451
-0.3257,-216.0264154893911
-0.3267000000000001,-216.73377113932364
-0.3277,-217.58259791924263
-0.3287000000000001,-218.43142469916165
-0.3297,-219.28025147908068
-0.3307000000000001,-219.8461359990267
-0.3317,-220.41202051897272
-0.3327000000000001,-221.11937616890526
-0.3337,-221.96820294882426
-0.3347000000000001,-222.9585008587298
-0.3357,-224.09026989862178
-0.3367000000000001,-224.79762554855435
-0.3377,-225.36351006850035
-0.3387000000000001,-225.92939458844637
-0.3397,-226.77822136836537
-0.3407000000000001,-227.62704814828442
-0.3417,-228.61734605818995
-0.3427000000000001,-229.46617283810895
-0.3437,-230.17352848804146
-0.3447000000000001,-231.0223552679605
-0.3457,-231.729710917893
-0.3467000000000001,-232.43706656782552
-0.3477,-233.1444222177581
-0.3487000000000001,-233.99324899767706
-0.3497,-234.84207577759608
-0.3507000000000001,-235.54943142752862
-0.3517,-236.25678707746113
-0.3527000000000001,-236.96414272739366
-0.3537,-237.81296950731266
-0.3547000000000001,-238.5203251572452
-0.3557,-239.5106230671507
-0.35670000000000013,-240.50092097705624
-0.3577,-241.34974775697523
-0.35870000000000013,-242.05710340690777
-0.3597,-242.76445905684034
-0.36070000000000013,-243.75475696674582
-0.3617,-244.74505487665132
-0.3626999999999999,-245.59388165657037
-0.3637,-246.4427084364894
-0.3646999999999999,-247.1500640864219
-0.3657,-247.85741973635444
-0.3666999999999999,-248.70624651627344
-0.3677,-249.5550732961925
-0.3686999999999999,-250.545371206098
-0.36970000000000003,-251.39419798601702
-0.3706999999999999,-252.10155363594956
-0.37170000000000003,-252.80890928588207
-0.3726999999999999,-253.65773606580112
-0.37370000000000003,-254.36509171573357
-0.3746999999999999,-255.21391849565262
-0.37570000000000003,-256.0627452755717
-0.3766999999999999,-256.91157205549064
-0.37770000000000004,-257.76039883540966
-0.3786999999999999,-258.60922561532874
-0.37970000000000004,-259.4580523952477
-0.3806999999999999,-260.3068791751668
-0.38170000000000004,-261.1557059550858
-0.38269999999999993,-262.0045327350048
-0.38370000000000004,-262.7118883849373
-0.38469999999999993,-263.27777290488336
-0.38570000000000004,-263.98512855481584
-0.38669999999999993,-263.56071516485633
-0.38570000000000004,-261.1557059550858
-0.38469999999999993,-258.8921678753017
-0.38370000000000004,-256.77010092550415
-0.38269999999999993,-254.50656284572008
-0.38170000000000004,-252.10155363594956
-0.3806999999999999,-249.83801555616546
-0.37970000000000004,-247.57447747638145
-0.3786999999999999,-245.45241052658386
-0.37770000000000004,-243.3303435767863
-0.3766999999999999,-241.20827662698875
-0.37570000000000003,-238.94473854720468
-0.3746999999999999,-236.82267159740715
-0.37370000000000003,-234.7006046476096
-0.3726999999999999,-232.72000882779852
-0.37170000000000003,-230.7394130079875
-0.3706999999999999,-228.75881718817644
-0.36970000000000003,-226.63675023837888
-0.3686999999999999,-224.37321215859478
-0.3677,-222.25114520879725
-0.3666999999999999,-219.98760712901318
-0.3657,-218.00701130920217
-0.3646999999999999,-216.1678866193776
-0.3637,-214.32876192955305
-0.3626999999999999,-212.34816610974204
-0.3617,-210.50904141991748
-0.36070000000000013,-208.52844560010638
-0.3597,-206.54784978029537
-0.35870000000000013,-204.7087250904708
-0.3577,-202.86960040064628
-0.35670000000000013,-201.03047571082172
-0.3557,-199.04987989101065
-0.3547000000000001,-196.92781294121312
-0.3537,-194.94721712140205
-0.3527000000000001,-193.249563561564
-0.3517,-191.551910001726
-0.3507000000000001,-189.8542564418879
-0.3497,-188.01513175206335
-0.3487000000000001,-186.03453593225234
-0.3477,-184.19541124242778
-0.3467000000000001,-182.35628655260325
-0.3457,-180.65863299276518
-0.3447000000000001,-178.81950830294062
-0.3437,-176.98038361311612
-0.3427000000000001,-175.14125892329156
-0.3417,-173.16066310348046
-0.3407000000000001,-171.32153841365593
-0.3397,-169.6238848538179
-0.3387000000000001,-167.92623129397984
-0.3377,-166.3700488641283
-0.3367000000000001,-164.53092417430375
-0.3357,-162.8332706144657
-0.3347000000000001,-160.99414592464117
-0.3337,-159.29649236480313
-0.3327000000000001,-157.59883880496508
-0.3317,-155.90118524512707
-0.3307000000000001,-154.3450028152755
-0.3297,-152.50587812545095
-0.3287000000000001,-150.8082245656129
-0.3277,-149.1105710057749
-0.3267000000000001,-147.4129174459368
-0.3257,-145.85673501608528
-0.3247000000000001,-144.44202371622026
-0.3237,-142.7443701563822
-0.3227000000000001,-141.14574638753473
-0.3217,-139.36321014970477
-0.3207000000000001,-137.6089681378721
-0.3197,-135.91131457803408
-0.3187000000000001,-134.38342637417986
-0.3177,-132.8555381703256
-0.3167000000000001,-131.28520862747538
-0.3157,-129.58755506763737
-0.3147000000000001,-127.93234284679528
-0.3137,-126.00833547897882
-0.3127000000000001,-124.48044727512458
-0.3117,-123.05158886226087
-0.3107000000000001,-121.52370065840667
-0.3097,-119.95337111555646
-0.3087000000000001,-118.29815889471436
-0.3077,-116.72782935186417
-0.3067000000000001,-115.19994114800993
-0.30569999999999997,-113.75693562214758
-0.3047000000000001,-112.31393009628526
-0.30369999999999997,-110.82848323142699
-0.3027000000000001,-109.25815368857677
-0.30169999999999997,-107.6029414677347
-0.3007000000000001,-106.0326119248845
-0.29969999999999997,-104.5471650600262
-0.2987000000000001,-103.11830664716253
-0.29769999999999996,-101.6753011213002
-0.2967000000000001,-100.23229559543785
-0.29569999999999996,-98.7044073915836
-0.2947000000000001,-97.13407784873341
-0.29369999999999996,-95.64863098387512
-0.29270000000000007,-94.21977257101145
-0.29169999999999996,-92.90409106213696
-0.29070000000000007,-91.51767398826922
-0.28969999999999996,-90.03222712341093
-0.28870000000000007,-88.46189758056073
-0.28769999999999996,-86.93400937670651
-0.28670000000000007,-85.44856251184822
-0.28569999999999995,-84.09043966397778
-0.28470000000000006,-82.87378794609386
-0.28369999999999995,-81.51566509822342
-0.28270000000000006,-80.08680668535972
-0.28169999999999995,-78.60135982050144
-0.28070000000000006,-77.20079563363505
-0.27969999999999995,-75.81437855976732
-0.27870000000000006,-74.54113838988879
-0.27769999999999995,-73.23960399401295
-0.27670000000000006,-71.92392248513846
-0.27569999999999995,-70.53750541127073
-0.27470000000000006,-69.13694122440434
-0.27369999999999994,-67.73637703753796
-0.27270000000000005,-66.43484264166212
-0.27169999999999994,-65.2464851497755
-0.27070000000000005,-64.02983343189156
-0.26969999999999994,-62.72829903601572
-0.26870000000000005,-61.327734849149344
-0.26769999999999994,-59.92717066228296
