Potential V vs RHE, Current mA cm-2
0.05339999999999995,-0.07281519060405345
0.05239999999999995,-0.07456943261588608
0.051399999999999946,-0.07540411228280645
0.050399999999999945,-0.07609732081974033
0.049399999999999944,-0.07671979379168092
0.04839999999999994,-0.07734226676362156
0.04739999999999994,-0.07793644550956487
0.04639999999999994,-0.07854477136850684
0.04539999999999994,-0.0791248030014515
0.04439999999999994,-0.07971898174739482
0.04339999999999994,-0.08028486626734083
0.04239999999999994,-0.0808648979002855
0.04139999999999994,-0.08144492953323015
0.040399999999999936,-0.08203910827917348
0.039399999999999935,-0.08263328702511678
0.038399999999999934,-0.08321331865806145
0.03739999999999993,-0.08376505606500882
0.03639999999999993,-0.08431679347195618
0.03539999999999993,-0.08486853087890354
0.03439999999999993,-0.08547685673784551
0.03339999999999993,-0.08605688837079019
0.03239999999999993,-0.0866510671167335
0.03139999999999993,-0.08720280452368086
0.030399999999999927,-0.08776868904362688
0.029399999999999926,-0.0883062793375756
0.028399999999999925,-0.08892875230951619
0.027399999999999924,-0.08950878394246087
0.026399999999999924,-0.09010296268840419
0.025399999999999923,-0.09068299432134884
0.024399999999999922,-0.09129132018029082
0.02339999999999992,-0.09191379315223143
0.02239999999999992,-0.0924938247851761
0.02139999999999992,-0.0930880035311194
0.020399999999999918,-0.09369632939006138
0.019399999999999917,-0.09430465524900335
0.018399999999999916,-0.09491298110794531
0.017399999999999916,-0.09550715985388863
0.016399999999999915,-0.09610133859983194
0.015399999999999914,-0.09673795868477121
0.014399999999999913,-0.09733213743071452
0.013399999999999912,-0.09796875751565379
0.012399999999999911,-0.09857708337459577
0.01139999999999991,-0.09918540923353773
0.01039999999999991,-0.09979373509247969
0.009399999999999908,-0.10041620806442031
0.008399999999999908,-0.10105282814935958
0.007399999999999907,-0.10166115400830154
0.006399999999999906,-0.10228362698024217
0.005399999999999905,-0.10287780572618546
0.004399999999999904,-0.10351442581112473
0.003399999999999903,-0.104151045896064
0.002399999999999902,-0.10477351886800461
0.0013999999999999013,-0.10542428606594254
0.00039999999999990044,-0.10608920037687909
-0.0006000000000001005,-0.10672582046181836
-0.0016000000000001013,-0.10737658765975629
-0.0026000000000001022,-0.1080556490836915
-0.003600000000000103,-0.10867812205563213
-0.004600000000000104,-0.10935718347956734
-0.005600000000000105,-0.11000795067750524
-0.006600000000000106,-0.11071530632743777
-0.007600000000000107,-0.11138022063837434
-0.008600000000000108,-0.11204513494931091
-0.009600000000000108,-0.11272419637324613
-0.01060000000000011,-0.11340325779718134
-0.01160000000000011,-0.11411061344711387
-0.012600000000000111,-0.11481796909704638
-0.013600000000000112,-0.11548288340798295
-0.014600000000000113,-0.11620438617091411
-0.015600000000000114,-0.11691174182084664
-0.016600000000000115,-0.11764739169677645
-0.017600000000000116,-0.11834060023371032
-0.018600000000000116,-0.11903380877064418
-0.019600000000000117,-0.11974116442057671
-0.020600000000000118,-0.12043437295751057
-0.02160000000000012,-0.1211700228334404
-0.02260000000000012,-0.12184908425737562
-0.02360000000000012,-0.12252814568131082
-0.024600000000000122,-0.12324964844424201
-0.025600000000000123,-0.12397115120717317
-0.026600000000000124,-0.12472094819610165
-0.027600000000000124,-0.12540000962003686
-0.028600000000000125,-0.1260790710439721
-0.029600000000000126,-0.12680057380690324
-0.030600000000000127,-0.12753622368283307
-0.03160000000000013,-0.12825772644576422
-0.03260000000000013,-0.12895093498269808
-0.03360000000000013,-0.12965829063263062
-0.03460000000000002,-0.13039394050856043
-0.03560000000000002,-0.13112959038449024
-0.03660000000000002,-0.13186524026042007
-0.03760000000000002,-0.13255844879735396
-0.03860000000000002,-0.13325165733428782
-0.039600000000000024,-0.1339590129842203
-0.040600000000000025,-0.1346805157471515
-0.041600000000000026,-0.13541616562308129
-0.04260000000000003,-0.13612352127301383
-0.04360000000000003,-0.13680258269694906
-0.04460000000000003,-0.13750993834688158
-0.04560000000000003,-0.13823144110981272
-0.04660000000000003,-0.13893879675974524
-0.04760000000000003,-0.13963200529667913
-0.04860000000000003,-0.140325213833613
-0.04960000000000003,-0.1410042752575482
-0.050600000000000034,-0.14175407224647668
-0.051600000000000035,-0.1424614278964092
-0.052600000000000036,-0.14302731241635522
-0.053600000000000037,-0.1437346680662877
-0.05460000000000004,-0.14444202371622025
-0.05560000000000004,-0.14500790823616627
-0.05660000000000004,-0.14571526388609876
-0.05760000000000004,-0.14642261953603128
-0.05860000000000004,-0.14698850405597733
-0.05960000000000004,-0.14769585970590982
-0.06060000000000004,-0.14840321535584233
-0.061600000000000044,-0.14896909987578838
-0.06260000000000004,-0.1496764555257209
-0.06360000000000005,-0.1503838111756534
-0.06460000000000005,-0.1509496956955994
-0.06560000000000005,-0.15165705134553195
-0.06660000000000005,-0.15222293586547794
-0.06760000000000005,-0.15293029151541046
-0.06860000000000005,-0.15349617603535648
-0.06960000000000005,-0.1540620605553025
-0.07060000000000005,-0.15476941620523502
-0.07160000000000005,-0.155335300725181
-0.07260000000000005,-0.15590118524512703
-0.07360000000000005,-0.15646706976507307
-0.07460000000000006,-0.15703295428501907
-0.07560000000000006,-0.15759883880496509
-0.07660000000000006,-0.15816472332491108
-0.07760000000000006,-0.1587306078448571
-0.07860000000000006,-0.15929649236480314
-0.07960000000000006,-0.15986237688474914
-0.08060000000000006,-0.16042826140469515
-0.08160000000000006,-0.16099414592464115
-0.08260000000000006,-0.16141855931460067
-0.08360000000000006,-0.1619844438345467
-0.08460000000000006,-0.1625503283544927
-0.08560000000000006,-0.1629747417444522
-0.08660000000000007,-0.16354062626439822
-0.08760000000000007,-0.16396503965435774
-0.08860000000000007,-0.16453092417430376
-0.08960000000000007,-0.16495533756426325
-0.09060000000000007,-0.16537975095422278
-0.09160000000000007,-0.1659456354741688
-0.09260000000000007,-0.16637004886412832
-0.09360000000000007,-0.1667944622540878
-0.09460000000000007,-0.16721887564404736
-0.09560000000000007,-0.16764328903400685
-0.09660000000000007,-0.16806770242396638
-0.09760000000000008,-0.16849211581392587
-0.09860000000000008,-0.1689165292038854
-0.09960000000000008,-0.1693409425938449
-0.10060000000000008,-0.1696238848538179
-0.10160000000000008,-0.17004829824377743
-0.10260000000000008,-0.17033124050375043
-0.10360000000000008,-0.17061418276372342
-0.10460000000000008,-0.17089712502369644
-0.10560000000000008,-0.17132153841365594
-0.10660000000000008,-0.17160448067362896
-0.10760000000000008,-0.17188742293360199
-0.10860000000000009,-0.17217036519357498
-0.10960000000000009,-0.17259477858353447
-0.11060000000000009,-0.1728777208435075
-0.11160000000000009,-0.1731606631034805
-0.11260000000000009,-0.1734436053634535
-0.11360000000000009,-0.1737265476234265
-0.11460000000000009,-0.17415096101338604
-0.11560000000000009,-0.17443390327335903
-0.11660000000000009,-0.17457537440334553
-0.1176000000000001,-0.17485831666331855
-0.1186000000000001,-0.17514125892329155
-0.1196000000000001,-0.17542420118326454
-0.1206000000000001,-0.17556567231325104
-0.1216000000000001,-0.17584861457322407
-0.1226000000000001,-0.17613155683319706
-0.1236000000000001,-0.17627302796318356
-0.1246000000000001,-0.17655597022315658
-0.1256000000000001,-0.1766974413531431
-0.1266000000000001,-0.1769803836131161
-0.1276000000000001,-0.1771218547431026
-0.1286000000000001,-0.1772633258730891
-0.1296000000000001,-0.17754626813306212
-0.1306000000000001,-0.17768773926304862
-0.1316000000000001,-0.17782921039303512
-0.1326000000000001,-0.17797068152302162
-0.1336000000000001,-0.17811215265300812
-0.1346000000000001,-0.1782536237829946
-0.1356000000000001,-0.1783950949129811
-0.1366000000000001,-0.17853656604296764
-0.1376000000000001,-0.17867803717295414
-0.1386000000000001,-0.17881950830294063
-0.1396000000000001,-0.17896097943292713
-0.1406000000000001,-0.17910245056291366
-0.14160000000000011,-0.17924392169290015
-0.14260000000000012,-0.17938539282288665
-0.14360000000000012,-0.17938539282288665
-0.14460000000000012,-0.17952686395287318
-0.14560000000000012,-0.17966833508285968
-0.14660000000000012,-0.17966833508285968
-0.14760000000000012,-0.17980980621284617
-0.14860000000000012,-0.17995127734283267
-0.14960000000000012,-0.17995127734283267
-0.15060000000000012,-0.18009274847281917
-0.15160000000000012,-0.18009274847281917
-0.15260000000000012,-0.18023421960280567
-0.15360000000000013,-0.18023421960280567
-0.15460000000000013,-0.18037569073279217
-0.15560000000000013,-0.18037569073279217
-0.15660000000000013,-0.1805171618627787
-0.15760000000000013,-0.1805171618627787
-0.15860000000000013,-0.1805171618627787
-0.15960000000000002,-0.1806586329927652
-0.16060000000000002,-0.1806586329927652
-0.16160000000000002,-0.1806586329927652
-0.16260000000000002,-0.1808001041227517
-0.16360000000000002,-0.1808001041227517
-0.16460000000000002,-0.1808001041227517
-0.16560000000000002,-0.1808001041227517
-0.16660000000000003,-0.18094157525273818
-0.16760000000000003,-0.18094157525273818
-0.16860000000000003,-0.18094157525273818
-0.16960000000000003,-0.18094157525273818
-0.17060000000000003,-0.18094157525273818
-0.17160000000000003,-0.18094157525273818
-0.17260000000000003,-0.18094157525273818
-0.17360000000000003,-0.18094157525273818
-0.17460000000000003,-0.18094157525273818
-0.17560000000000003,-0.18094157525273818
-0.17660000000000003,-0.18094157525273818
-0.17760000000000004,-0.18094157525273818
-0.17860000000000004,-0.18094157525273818
-0.17960000000000004,-0.18094157525273818
-0.18060000000000004,-0.18094157525273818
-0.18160000000000004,-0.18094157525273818
-0.18260000000000004,-0.18094157525273818
-0.18360000000000004,-0.18094157525273818
-0.18460000000000004,-0.18094157525273818
-0.18560000000000004,-0.18094157525273818
-0.18660000000000004,-0.18094157525273818
-0.18760000000000004,-0.18094157525273818
-0.18860000000000005,-0.1808001041227517
-0.18960000000000005,-0.1808001041227517
-0.19060000000000005,-0.1808001041227517
-0.19160000000000005,-0.1808001041227517
-0.19260000000000005,-0.1808001041227517
-0.19360000000000005,-0.1808001041227517
-0.19460000000000005,-0.1808001041227517
-0.19560000000000005,-0.1806586329927652
-0.19660000000000005,-0.1806586329927652
-0.19760000000000005,-0.1806586329927652
-0.19860000000000005,-0.1806586329927652
-0.19960000000000006,-0.1806586329927652
-0.20060000000000006,-0.1806586329927652
-0.20160000000000006,-0.1806586329927652
-0.20260000000000006,-0.1805171618627787
-0.20360000000000006,-0.1805171618627787
-0.20460000000000006,-0.1805171618627787
-0.20560000000000006,-0.1805171618627787
-0.20660000000000006,-0.1805171618627787
-0.20760000000000006,-0.1805171618627787
-0.20860000000000006,-0.1805171618627787
-0.20960000000000006,-0.18037569073279217
-0.21060000000000006,-0.18037569073279217
-0.21160000000000007,-0.18037569073279217
-0.21260000000000007,-0.18037569073279217
-0.21360000000000007,-0.18037569073279217
-0.21460000000000007,-0.18037569073279217
-0.21560000000000007,-0.18037569073279217
-0.21660000000000007,-0.18037569073279217
-0.21760000000000007,-0.18037569073279217
-0.21860000000000007,-0.18037569073279217
-0.21960000000000007,-0.18037569073279217
-0.22060000000000007,-0.18037569073279217
-0.22160000000000007,-0.18037569073279217
-0.22260000000000008,-0.18037569073279217
-0.22360000000000008,-0.18037569073279217
-0.22460000000000008,-0.18037569073279217
-0.22560000000000008,-0.18023421960280567
-0.22660000000000008,-0.18037569073279217
-0.22760000000000008,-0.18037569073279217
-0.22860000000000008,-0.18023421960280567
-0.22960000000000008,-0.18037569073279217
-0.23060000000000008,-0.18037569073279217
-0.23160000000000008,-0.18037569073279217
-0.23260000000000008,-0.18037569073279217
-0.23360000000000009,-0.18037569073279217
-0.2346000000000001,-0.18037569073279217
-0.2356000000000001,-0.18037569073279217
-0.2366000000000001,-0.18037569073279217
-0.2376000000000001,-0.18037569073279217
-0.2386000000000001,-0.18037569073279217
-0.2396000000000001,-0.18037569073279217
-0.2406000000000001,-0.18037569073279217
-0.2416000000000001,-0.1805171618627787
-0.2426000000000001,-0.1805171618627787
-0.2436000000000001,-0.1805171618627787
-0.2446000000000001,-0.1805171618627787
-0.2456000000000001,-0.1805171618627787
-0.2466000000000001,-0.1805171618627787
-0.2476000000000001,-0.1806586329927652
-0.2486000000000001,-0.1806586329927652
-0.2496000000000001,-0.1806586329927652
-0.2506000000000001,-0.1806586329927652
-0.2516000000000001,-0.1806586329927652
-0.2526000000000001,-0.1806586329927652
-0.2536000000000001,-0.1808001041227517
-0.2546000000000001,-0.1808001041227517
-0.2556000000000001,-0.1808001041227517
-0.2566000000000001,-0.1808001041227517
-0.2576000000000001,-0.18094157525273818
-0.2586000000000001,-0.18094157525273818
-0.2596000000000001,-0.18094157525273818
-0.2606000000000001,-0.18094157525273818
-0.2616000000000001,-0.18108304638272468
-0.2626000000000001,-0.18108304638272468
-0.2636000000000001,-0.18108304638272468
-0.2646000000000001,-0.18122451751271118
-0.2656000000000001,-0.18122451751271118
-0.2666000000000001,-0.18122451751271118
-0.2676000000000001,-0.18136598864269768
-0.2686000000000001,-0.18136598864269768
-0.2696000000000001,-0.18136598864269768
-0.2706000000000001,-0.18150745977268423
-0.2716000000000001,-0.18150745977268423
-0.2726000000000001,-0.18150745977268423
-0.2736000000000001,-0.18164893090267073
-0.2746000000000001,-0.18164893090267073
-0.2756000000000001,-0.18179040203265723
-0.2766000000000001,-0.18179040203265723
-0.2776000000000001,-0.18179040203265723
-0.2786000000000001,-0.18193187316264373
-0.2796000000000001,-0.18193187316264373
-0.2806000000000001,-0.18207334429263022
-0.28160000000000013,-0.18207334429263022
-0.28260000000000013,-0.18221481542261672
-0.28360000000000013,-0.18221481542261672
-0.2846,-0.18221481542261672
-0.2856,-0.18235628655260325
-0.2866,-0.18235628655260325
-0.2876,-0.18249775768258975
-0.2886,-0.18249775768258975
-0.2896,-0.18249775768258975
-0.2906,-0.18263922881257624
-0.2916,-0.18263922881257624
-0.2926,-0.18278069994256274
-0.2936,-0.18278069994256274
-0.29460000000000003,-0.18292217107254924
-0.29560000000000003,-0.18292217107254924
-0.29660000000000003,-0.18306364220253574
-0.29760000000000003,-0.18306364220253574
-0.29860000000000003,-0.18320511333252223
-0.29960000000000003,-0.18320511333252223
-0.30060000000000003,-0.18334658446250876
-0.30160000000000003,-0.18334658446250876
-0.30260000000000004,-0.18348805559249526
-0.30360000000000004,-0.18362952672248176
-0.30460000000000004,-0.18362952672248176
-0.30560000000000004,-0.18377099785246825
-0.30660000000000004,-0.18377099785246825
-0.30760000000000004,-0.18391246898245475
-0.30860000000000004,-0.18391246898245475
-0.30960000000000004,-0.18405394011244128
-0.31060000000000004,-0.18405394011244128
-0.31160000000000004,-0.18419541124242778
-0.31260000000000004,-0.1843368823724143
-0.31360000000000005,-0.1843368823724143
-0.31460000000000005,-0.1844783535024008
-0.31560000000000005,-0.1844783535024008
-0.31660000000000005,-0.1846198246323873
-0.31760000000000005,-0.1847612957623738
-0.31860000000000005,-0.1847612957623738
-0.31960000000000005,-0.1849027668923603
-0.32060000000000005,-0.1850442380223468
-0.32160000000000005,-0.1850442380223468
-0.32260000000000005,-0.1851857091523333
-0.32360000000000005,-0.18532718028231981
-0.32460000000000006,-0.18532718028231981
-0.32560000000000006,-0.1854686514123063
-0.32660000000000006,-0.1854686514123063
-0.32760000000000006,-0.1856101225422928
-0.32860000000000006,-0.1857515936722793
-0.32960000000000006,-0.1857515936722793
-0.33060000000000006,-0.1858930648022658
-0.33160000000000006,-0.1860345359322523
-0.33260000000000006,-0.1860345359322523
-0.33360000000000006,-0.1861760070622388
-0.33460000000000006,-0.18631747819222533
-0.33560000000000006,-0.18631747819222533
-0.33660000000000007,-0.18645894932221183
-0.33760000000000007,-0.18660042045219835
-0.33860000000000007,-0.18674189158218485
-0.33960000000000007,-0.18688336271217135
-0.34060000000000007,-0.18688336271217135
-0.34160000000000007,-0.18702483384215784
-0.34260000000000007,-0.18716630497214437
-0.34360000000000007,-0.18730777610213087
-0.3446000000000001,-0.18744924723211737
-0.3456000000000001,-0.18759071836210386
-0.3466000000000001,-0.18773218949209036
-0.34759999999999996,-0.18787366062207686
-0.3486000000000001,-0.18801513175206336
-0.34959999999999997,-0.18815660288204988
-0.3506000000000001,-0.18829807401203638
-0.35159999999999997,-0.18843954514202288
-0.3526000000000001,-0.18858101627200938
-0.35359999999999997,-0.18872248740199588
-0.3546000000000001,-0.1890054296619689
-0.35559999999999997,-0.18914690079195542
-0.3566000000000001,-0.18928837192194192
-0.3576,-0.18957131418191492
-0.3586000000000001,-0.18971278531190142
-0.3596,-0.1899957275718744
-0.3606000000000001,-0.19013719870186094
-0.3616,-0.19042014096183393
-0.3626000000000001,-0.19070308322180693
-0.3636,-0.19084455435179343
-0.3646000000000001,-0.19112749661176645
-0.3656,-0.19141043887173945
-0.3666000000000001,-0.19169338113171247
-0.3676,-0.192117794521672
-0.3686000000000001,-0.192400736781645
-0.3696,-0.19268367904161798
-0.3706000000000001,-0.1931080924315775
-0.3716,-0.193532505821537
-0.3726000000000001,-0.19381544808151
-0.3736,-0.19423986147146954
-0.3746000000000001,-0.19466427486142904
-0.3756,-0.19508868825138856
-0.3766000000000001,-0.19551310164134805
-0.3776,-0.19593751503130757
-0.3786000000000001,-0.19636192842126707
-0.3796,-0.19678634181122662
-0.3806000000000001,-0.1972107552011861
-0.3816,-0.1976351685911456
-0.3826000000000001,-0.19805958198110513
-0.3836,-0.19848399537106462
-0.3846000000000001,-0.19890840876102414
-0.3856,-0.19933282215098366
-0.3866000000000001,-0.19975723554094318
-0.3876,-0.20018164893090268
-0.3886000000000001,-0.20060606232086217
-0.3896,-0.2010304757108217
-0.3906000000000001,-0.20131341797079472
-0.3916,-0.20173783136075424
-0.3926000000000001,-0.20216224475071373
-0.3936,-0.20258665814067325
-0.3946000000000001,-0.20286960040064628
-0.3956,-0.20329401379060577
-0.3966000000000001,-0.2035769560505788
-0.3976,-0.2038598983105518
-0.3986000000000001,-0.20428431170051128
-0.3996,-0.20456725396048434
-0.4006000000000001,-0.20485019622045733
-0.4016,-0.20513313848043033
-0.4026000000000001,-0.20541608074040332
-0.4036,-0.20569902300037635
-0.4046000000000001,-0.20584049413036284
-0.4056,-0.20612343639033584
-0.40660000000000013,-0.20640637865030886
-0.4076,-0.2066893209102819
-0.40860000000000013,-0.20697226317025488
-0.4096,-0.20711373430024138
-0.41060000000000013,-0.2073966765602144
-0.4116,-0.2076796188201874
-0.41260000000000013,-0.2079625610801604
-0.4136,-0.2081040322101469
-0.41460000000000014,-0.20838697447011992
-0.4156,-0.20852844560010642
-0.41660000000000014,-0.2088113878600794
-0.4176,-0.20909433012005244
-0.41860000000000014,-0.20923580125003893
-0.41960000000000003,-0.20951874351001196
-0.42060000000000014,-0.20966021463999845
-0.42160000000000003,-0.20994315689997145
-0.42260000000000014,-0.21022609915994445
-0.42360000000000003,-0.21036757028993097
-0.42460000000000014,-0.21065051254990397
-0.42560000000000003,-0.21093345480987696
-0.42660000000000015,-0.21107492593986346
-0.42760000000000004,-0.21135786819983648
-0.42860000000000015,-0.21149933932982298
-0.42960000000000004,-0.211782281589796
-0.43060000000000015,-0.212065223849769
-0.43160000000000004,-0.21220669497975553
-0.43260000000000015,-0.21248963723972852
-0.43360000000000004,-0.21277257949970152
-0.43460000000000015,-0.21305552175967452
-0.43560000000000004,-0.21319699288966104
-0.43660000000000015,-0.21347993514963404
-0.43760000000000004,-0.21376287740960703
-0.43860000000000016,-0.21404581966958006
