Jan. 11, 2025   14:26:36
Cyclic Voltammetry
File: c:/users/guazh/data/banditlqround7_x0exp772_r5/2025-01-10-exp814\exp814-2025-01-11t14_10_13-h2koh\exp814_cv_50mvs_efin_-1700mv.bin
Data Source:  Experiment
Instrument Model:  CHI760E
Header: CV ran at 50 mVs
Note: 

Init E (V) = -1
High E (V) = -1
Low E (V) = -1.7
Final E (V) = -1
Init P/N = N
Scan Rate (V/s) = 0.05
Segment = 7
Sample Interval (V) = 0.001
Quiet Time (sec) = 60
Sensitivity (A/V) = 0.001
Comp R (ohm) = 1.3

Results:

Channel 1:
Segment 1:

Segment 2:

Segment 3:

Segment 4:

Segment 5:

Segment 6:

Segment 7:

Potential/V, Current/A

-1.000, 6.940e-6
-1.001, 1.182e-5
-1.002, 1.176e-5
-1.003, 1.154e-5
-1.004, 1.359e-5
-1.005, 1.530e-5
-1.006, 1.592e-5
-1.007, 1.515e-5
-1.008, 1.453e-5
-1.009, 1.612e-5
-1.010, 1.791e-5
-1.011, 1.814e-5
-1.012, 1.723e-5
-1.013, 1.666e-5
-1.014, 1.799e-5
-1.015, 1.976e-5
-1.016, 1.986e-5
-1.017, 1.878e-5
-1.018, 1.830e-5
-1.019, 1.956e-5
-1.020, 2.114e-5
-1.021, 2.136e-5
-1.022, 2.023e-5
-1.023, 1.969e-5
-1.024, 2.114e-5
-1.025, 2.231e-5
-1.026, 2.269e-5
-1.027, 2.130e-5
-1.028, 2.086e-5
-1.029, 2.226e-5
-1.030, 2.365e-5
-1.031, 2.379e-5
-1.032, 2.236e-5
-1.033, 2.193e-5
-1.034, 2.339e-5
-1.035, 2.461e-5
-1.036, 2.478e-5
-1.037, 2.342e-5
-1.038, 2.308e-5
-1.039, 2.436e-5
-1.040, 2.569e-5
-1.041, 2.579e-5
-1.042, 2.442e-5
-1.043, 2.409e-5
-1.044, 2.532e-5
-1.045, 2.671e-5
-1.046, 2.670e-5
-1.047, 2.545e-5
-1.048, 2.497e-5
-1.049, 2.620e-5
-1.050, 2.773e-5
-1.051, 2.768e-5
-1.052, 2.633e-5
-1.053, 2.592e-5
-1.054, 2.721e-5
-1.055, 2.888e-5
-1.056, 2.850e-5
-1.057, 2.722e-5
-1.058, 2.710e-5
-1.059, 2.815e-5
-1.060, 2.975e-5
-1.061, 2.945e-5
-1.062, 2.822e-5
-1.063, 2.801e-5
-1.064, 2.923e-5
-1.065, 3.065e-5
-1.066, 3.051e-5
-1.067, 2.909e-5
-1.068, 2.904e-5
-1.069, 3.015e-5
-1.070, 3.173e-5
-1.071, 3.164e-5
-1.072, 3.002e-5
-1.073, 2.990e-5
-1.074, 3.132e-5
-1.075, 3.278e-5
-1.076, 3.261e-5
-1.077, 3.110e-5
-1.078, 3.103e-5
-1.079, 3.229e-5
-1.080, 3.361e-5
-1.081, 3.357e-5
-1.082, 3.224e-5
-1.083, 3.193e-5
-1.084, 3.336e-5
-1.085, 3.470e-5
-1.086, 3.461e-5
-1.087, 3.329e-5
-1.088, 3.307e-5
-1.089, 3.435e-5
-1.090, 3.599e-5
-1.091, 3.560e-5
-1.092, 3.425e-5
-1.093, 3.420e-5
-1.094, 3.546e-5
-1.095, 3.717e-5
-1.096, 3.664e-5
-1.097, 3.529e-5
-1.098, 3.534e-5
-1.099, 3.671e-5
-1.100, 3.820e-5
-1.101, 3.780e-5
-1.102, 3.649e-5
-1.103, 3.657e-5
-1.104, 3.775e-5
-1.105, 3.935e-5
-1.106, 3.902e-5
-1.107, 3.769e-5
-1.108, 3.771e-5
-1.109, 3.919e-5
-1.110, 4.048e-5
-1.111, 4.035e-5
-1.112, 3.897e-5
-1.113, 3.886e-5
-1.114, 4.051e-5
-1.115, 4.195e-5
-1.116, 4.150e-5
-1.117, 4.021e-5
-1.118, 4.035e-5
-1.119, 4.192e-5
-1.120, 4.334e-5
-1.121, 4.275e-5
-1.122, 4.186e-5
-1.123, 4.165e-5
-1.124, 4.345e-5
-1.125, 4.489e-5
-1.126, 4.405e-5
-1.127, 4.337e-5
-1.128, 4.323e-5
-1.129, 4.477e-5
-1.130, 4.631e-5
-1.131, 4.573e-5
-1.132, 4.475e-5
-1.133, 4.478e-5
-1.134, 4.654e-5
-1.135, 4.799e-5
-1.136, 4.734e-5
-1.137, 4.610e-5
-1.138, 4.639e-5
-1.139, 4.798e-5
-1.140, 4.951e-5
-1.141, 4.901e-5
-1.142, 4.796e-5
-1.143, 4.812e-5
-1.144, 4.977e-5
-1.145, 5.119e-5
-1.146, 5.059e-5
-1.147, 4.953e-5
-1.148, 4.982e-5
-1.149, 5.148e-5
-1.150, 5.301e-5
-1.151, 5.243e-5
-1.152, 5.120e-5
-1.153, 5.164e-5
-1.154, 5.336e-5
-1.155, 5.466e-5
-1.156, 5.412e-5
-1.157, 5.299e-5
-1.158, 5.336e-5
-1.159, 5.524e-5
-1.160, 5.647e-5
-1.161, 5.587e-5
-1.162, 5.495e-5
-1.163, 5.513e-5
-1.164, 5.717e-5
-1.165, 5.856e-5
-1.166, 5.768e-5
-1.167, 5.693e-5
-1.168, 5.711e-5
-1.169, 5.898e-5
-1.170, 6.050e-5
-1.171, 5.961e-5
-1.172, 5.885e-5
-1.173, 5.924e-5
-1.174, 6.102e-5
-1.175, 6.249e-5
-1.176, 6.159e-5
-1.177, 6.095e-5
-1.178, 6.137e-5
-1.179, 6.322e-5
-1.180, 6.436e-5
-1.181, 6.367e-5
-1.182, 6.287e-5
-1.183, 6.343e-5
-1.184, 6.517e-5
-1.185, 6.640e-5
-1.186, 6.601e-5
-1.187, 6.492e-5
-1.188, 6.552e-5
-1.189, 6.748e-5
-1.190, 6.846e-5
-1.191, 6.802e-5
-1.192, 6.697e-5
-1.193, 6.760e-5
-1.194, 6.964e-5
-1.195, 7.064e-5
-1.196, 6.999e-5
-1.197, 6.911e-5
-1.198, 6.976e-5
-1.199, 7.177e-5
-1.200, 7.270e-5
-1.201, 7.193e-5
-1.202, 7.125e-5
-1.203, 7.173e-5
-1.204, 7.392e-5
-1.205, 7.470e-5
-1.206, 7.398e-5
-1.207, 7.337e-5
-1.208, 7.392e-5
-1.209, 7.574e-5
-1.210, 7.682e-5
-1.211, 7.604e-5
-1.212, 7.516e-5
-1.213, 7.607e-5
-1.214, 7.797e-5
-1.215, 7.891e-5
-1.216, 7.784e-5
-1.217, 7.714e-5
-1.218, 7.813e-5
-1.219, 7.986e-5
-1.220, 8.068e-5
-1.221, 8.004e-5
-1.222, 7.918e-5
-1.223, 8.002e-5
-1.224, 8.188e-5
-1.225, 8.265e-5
-1.226, 8.207e-5
-1.227, 8.098e-5
-1.228, 8.209e-5
-1.229, 8.410e-5
-1.230, 8.469e-5
-1.231, 8.396e-5
-1.232, 8.295e-5
-1.233, 8.380e-5
-1.234, 8.585e-5
-1.235, 8.657e-5
-1.236, 8.580e-5
-1.237, 8.498e-5
-1.238, 8.588e-5
-1.239, 8.796e-5
-1.240, 8.848e-5
-1.241, 8.760e-5
-1.242, 8.708e-5
-1.243, 8.805e-5
-1.244, 8.988e-5
-1.245, 9.056e-5
-1.246, 8.974e-5
-1.247, 8.913e-5
-1.248, 8.991e-5
-1.249, 9.206e-5
-1.250, 9.282e-5
-1.251, 9.191e-5
-1.252, 9.117e-5
-1.253, 9.246e-5
-1.254, 9.423e-5
-1.255, 9.525e-5
-1.256, 9.417e-5
-1.257, 9.371e-5
-1.258, 9.495e-5
-1.259, 9.671e-5
-1.260, 9.777e-5
-1.261, 9.656e-5
-1.262, 9.643e-5
-1.263, 9.768e-5
-1.264, 9.959e-5
-1.265, 1.005e-4
-1.266, 9.995e-5
-1.267, 9.916e-5
-1.268, 1.007e-4
-1.269, 1.027e-4
-1.270, 1.036e-4
-1.271, 1.030e-4
-1.272, 1.025e-4
-1.273, 1.042e-4
-1.274, 1.064e-4
-1.275, 1.072e-4
-1.276, 1.066e-4
-1.277, 1.063e-4
-1.278, 1.081e-4
-1.279, 1.103e-4
-1.280, 1.114e-4
-1.281, 1.107e-4
-1.282, 1.107e-4
-1.283, 1.124e-4
-1.284, 1.149e-4
-1.285, 1.159e-4
-1.286, 1.153e-4
-1.287, 1.155e-4
-1.288, 1.174e-4
-1.289, 1.197e-4
-1.290, 1.211e-4
-1.291, 1.206e-4
-1.292, 1.210e-4
-1.293, 1.229e-4
-1.294, 1.255e-4
-1.295, 1.271e-4
-1.296, 1.267e-4
-1.297, 1.269e-4
-1.298, 1.293e-4
-1.299, 1.319e-4
-1.300, 1.334e-4
-1.301, 1.333e-4
-1.302, 1.339e-4
-1.303, 1.365e-4
-1.304, 1.391e-4
-1.305, 1.405e-4
-1.306, 1.409e-4
-1.307, 1.414e-4
-1.308, 1.442e-4
-1.309, 1.472e-4
-1.310, 1.488e-4
-1.311, 1.493e-4
-1.312, 1.500e-4
-1.313, 1.529e-4
-1.314, 1.564e-4
-1.315, 1.578e-4
-1.316, 1.584e-4
-1.317, 1.597e-4
-1.318, 1.628e-4
-1.319, 1.662e-4
-1.320, 1.680e-4
-1.321, 1.688e-4
-1.322, 1.705e-4
-1.323, 1.736e-4
-1.324, 1.772e-4
-1.325, 1.794e-4
-1.326, 1.804e-4
-1.327, 1.821e-4
-1.328, 1.857e-4
-1.329, 1.895e-4
-1.330, 1.920e-4
-1.331, 1.930e-4
-1.332, 1.952e-4
-1.333, 1.987e-4
-1.334, 2.027e-4
-1.335, 2.059e-4
-1.336, 2.069e-4
-1.337, 2.093e-4
-1.338, 2.133e-4
-1.339, 2.178e-4
-1.340, 2.206e-4
-1.341, 2.222e-4
-1.342, 2.250e-4
-1.343, 2.291e-4
-1.344, 2.340e-4
-1.345, 2.369e-4
-1.346, 2.390e-4
-1.347, 2.418e-4
-1.348, 2.462e-4
-1.349, 2.516e-4
-1.350, 2.551e-4
-1.351, 2.568e-4
-1.352, 2.603e-4
-1.353, 2.651e-4
-1.354, 2.705e-4
-1.355, 2.743e-4
-1.356, 2.763e-4
-1.357, 2.804e-4
-1.358, 2.853e-4
-1.359, 2.911e-4
-1.360, 2.945e-4
-1.361, 2.972e-4
-1.362, 3.012e-4
-1.363, 3.070e-4
-1.364, 3.130e-4
-1.365, 3.169e-4
-1.366, 3.197e-4
-1.367, 3.244e-4
-1.368, 3.304e-4
-1.369, 3.370e-4
-1.370, 3.410e-4
-1.371, 3.444e-4
-1.372, 3.490e-4
-1.373, 3.553e-4
-1.374, 3.615e-4
-1.375, 3.664e-4
-1.376, 3.699e-4
-1.377, 3.750e-4
-1.378, 3.815e-4
-1.379, 3.882e-4
-1.380, 3.935e-4
-1.381, 3.977e-4
-1.382, 4.028e-4
-1.383, 4.099e-4
-1.384, 4.169e-4
-1.385, 4.223e-4
-1.386, 4.269e-4
-1.387, 4.324e-4
-1.388, 4.398e-4
-1.389, 4.470e-4
-1.390, 4.528e-4
-1.391, 4.578e-4
-1.392, 4.632e-4
-1.393, 4.705e-4
-1.394, 4.791e-4
-1.395, 4.843e-4
-1.396, 4.897e-4
-1.397, 4.957e-4
-1.398, 5.036e-4
-1.399, 5.121e-4
-1.400, 5.184e-4
-1.401, 5.243e-4
-1.402, 5.305e-4
-1.403, 5.382e-4
-1.404, 5.466e-4
-1.405, 5.535e-4
-1.406, 5.595e-4
-1.407, 5.666e-4
-1.408, 5.752e-4
-1.409, 5.841e-4
-1.410, 5.910e-4
-1.411, 5.969e-4
-1.412, 6.042e-4
-1.413, 6.132e-4
-1.414, 6.224e-4
-1.415, 6.296e-4
-1.416, 6.362e-4
-1.417, 6.437e-4
-1.418, 6.536e-4
-1.419, 6.630e-4
-1.420, 6.701e-4
-1.421, 6.771e-4
-1.422, 6.848e-4
-1.423, 6.954e-4
-1.424, 7.054e-4
-1.425, 7.114e-4
-1.426, 7.205e-4
-1.427, 7.292e-4
-1.428, 7.385e-4
-1.429, 7.486e-4
-1.430, 7.571e-4
-1.431, 7.628e-4
-1.432, 7.743e-4
-1.433, 7.839e-4
-1.434, 7.944e-4
-1.435, 8.024e-4
-1.436, 8.106e-4
-1.437, 8.215e-4
-1.438, 8.318e-4
-1.439, 8.429e-4
-1.440, 8.504e-4
-1.441, 8.581e-4
-1.442, 8.714e-4
-1.443, 8.831e-4
-1.444, 8.936e-4
-1.445, 9.022e-4
-1.446, 9.114e-4
-1.447, 9.204e-4
-1.448, 9.325e-4
-1.449, 9.444e-4
-1.450, 9.541e-4
-1.451, 9.637e-4
-1.452, 9.745e-4
-1.453, 9.848e-4
-1.454, 9.975e-4
-1.455, 1.007e-3
-1.456, 1.017e-3
-1.457, 1.027e-3
-1.458, 1.040e-3
-1.459, 1.053e-3
-1.460, 1.062e-3
-1.461, 1.072e-3
-1.462, 1.082e-3
-1.463, 1.096e-3
-1.464, 1.107e-3
-1.465, 1.117e-3
-1.466, 1.128e-3
-1.467, 1.141e-3
-1.468, 1.154e-3
-1.469, 1.167e-3
-1.470, 1.177e-3
-1.471, 1.189e-3
-1.472, 1.198e-3
-1.473, 1.213e-3
-1.474, 1.227e-3
-1.475, 1.236e-3
-1.476, 1.248e-3
-1.477, 1.260e-3
-1.478, 1.274e-3
-1.479, 1.289e-3
-1.480, 1.301e-3
-1.481, 1.312e-3
-1.482, 1.325e-3
-1.483, 1.339e-3
-1.484, 1.353e-3
-1.485, 1.367e-3
-1.486, 1.378e-3
-1.487, 1.389e-3
-1.488, 1.405e-3
-1.489, 1.421e-3
-1.490, 1.433e-3
-1.491, 1.443e-3
-1.492, 1.462e-3
-1.493, 1.474e-3
-1.494, 1.489e-3
-1.495, 1.503e-3
-1.496, 1.516e-3
-1.497, 1.524e-3
-1.498, 1.543e-3
-1.499, 1.561e-3
-1.500, 1.574e-3
-1.501, 1.588e-3
-1.502, 1.603e-3
-1.503, 1.618e-3
-1.504, 1.629e-3
-1.505, 1.640e-3
-1.506, 1.657e-3
-1.507, 1.674e-3
-1.508, 1.690e-3
-1.509, 1.705e-3
-1.510, 1.720e-3
-1.511, 1.734e-3
-1.512, 1.751e-3
-1.513, 1.766e-3
-1.514, 1.783e-3
-1.515, 1.797e-3
-1.516, 1.812e-3
-1.517, 1.830e-3
-1.518, 1.848e-3
-1.519, 1.863e-3
-1.520, 1.877e-3
-1.521, 1.895e-3
-1.522, 1.912e-3
-1.523, 1.930e-3
-1.524, 1.949e-3
-1.525, 1.962e-3
-1.526, 1.979e-3
-1.527, 1.996e-3
-1.528, 2.013e-3
-1.529, 2.032e-3
-1.530, 2.050e-3
-1.531, 2.060e-3
-1.532, 2.080e-3
-1.533, 2.100e-3
-1.534, 2.118e-3
-1.535, 2.132e-3
-1.536, 2.150e-3
-1.537, 2.169e-3
-1.538, 2.185e-3
-1.539, 2.207e-3
-1.540, 2.230e-3
-1.541, 2.246e-3
-1.542, 2.263e-3
-1.543, 2.282e-3
-1.544, 2.298e-3
-1.545, 2.317e-3
-1.546, 2.336e-3
-1.547, 2.359e-3
-1.548, 2.375e-3
-1.549, 2.399e-3
-1.550, 2.420e-3
-1.551, 2.437e-3
-1.552, 2.456e-3
-1.553, 2.478e-3
-1.554, 2.500e-3
-1.555, 2.521e-3
-1.556, 2.540e-3
-1.557, 2.559e-3
-1.558, 2.576e-3
-1.559, 2.598e-3
-1.560, 2.619e-3
-1.561, 2.641e-3
-1.562, 2.663e-3
-1.563, 2.686e-3
-1.564, 2.710e-3
-1.565, 2.734e-3
-1.566, 2.753e-3
-1.567, 2.776e-3
-1.568, 2.795e-3
-1.569, 2.822e-3
-1.570, 2.846e-3
-1.571, 2.866e-3
-1.572, 2.894e-3
-1.573, 2.916e-3
-1.574, 2.938e-3
-1.575, 2.959e-3
-1.576, 2.984e-3
-1.577, 3.007e-3
-1.578, 3.031e-3
-1.579, 3.057e-3
-1.580, 3.077e-3
-1.581, 3.096e-3
-1.582, 3.124e-3
-1.583, 3.153e-3
-1.584, 3.169e-3
-1.585, 3.206e-3
-1.586, 3.230e-3
-1.587, 3.256e-3
-1.588, 3.274e-3
-1.589, 3.301e-3
-1.590, 3.329e-3
-1.591, 3.359e-3
-1.592, 3.380e-3
-1.593, 3.406e-3
-1.594, 3.429e-3
-1.595, 3.460e-3
-1.596, 3.486e-3
-1.597, 3.512e-3
-1.598, 3.537e-3
-1.599, 3.561e-3
-1.600, 3.588e-3
-1.601, 3.623e-3
-1.602, 3.651e-3
-1.603, 3.687e-3
-1.604, 3.717e-3
-1.605, 3.746e-3
-1.606, 3.774e-3
-1.607, 3.802e-3
-1.608, 3.831e-3
-1.609, 3.860e-3
-1.610, 3.898e-3
-1.611, 3.937e-3
-1.612, 3.972e-3
-1.613, 4.004e-3
-1.614, 4.038e-3
-1.615, 4.063e-3
-1.616, 4.089e-3
-1.617, 4.119e-3
-1.618, 4.143e-3
-1.619, 4.178e-3
-1.620, 4.213e-3
-1.621, 4.249e-3
-1.622, 4.284e-3
-1.623, 4.323e-3
-1.624, 4.347e-3
-1.625, 4.365e-3
-1.626, 4.412e-3
-1.627, 4.440e-3
-1.628, 4.468e-3
-1.629, 4.491e-3
-1.630, 4.532e-3
-1.631, 4.572e-3
-1.632, 4.598e-3
-1.633, 4.649e-3
-1.634, 4.683e-3
-1.635, 4.717e-3
-1.636, 4.776e-3
-1.637, 4.817e-3
-1.638, 4.859e-3
-1.639, 4.900e-3
-1.640, 4.931e-3
-1.641, 4.962e-3
-1.642, 4.979e-3
-1.643, 5.012e-3
-1.644, 5.071e-3
-1.645, 5.107e-3
-1.646, 5.141e-3
-1.647, 5.172e-3
-1.648, 5.205e-3
-1.649, 5.244e-3
-1.650, 5.285e-3
-1.651, 5.320e-3
-1.652, 5.357e-3
-1.653, 5.382e-3
-1.654, 5.425e-3
-1.655, 5.458e-3
-1.656, 5.503e-3
-1.657, 5.552e-3
-1.658, 5.603e-3
-1.659, 5.628e-3
-1.660, 5.674e-3
-1.661, 5.730e-3
-1.662, 5.767e-3
-1.663, 5.792e-3
-1.664, 5.829e-3
-1.665, 5.882e-3
-1.666, 5.934e-3
-1.667, 5.978e-3
-1.668, 6.012e-3
-1.669, 6.056e-3
-1.670, 6.117e-3
-1.671, 6.151e-3
-1.672, 6.168e-3
-1.673, 6.174e-3
-1.674, 6.247e-3
-1.675, 6.259e-3
-1.676, 6.329e-3
-1.677, 6.371e-3
-1.678, 6.462e-3
-1.679, 6.467e-3
-1.680, 6.498e-3
-1.681, 6.547e-3
-1.682, 6.584e-3
-1.683, 6.607e-3
-1.684, 6.626e-3
-1.685, 6.646e-3
-1.686, 6.671e-3
-1.687, 6.722e-3
-1.688, 6.771e-3
-1.689, 6.808e-3
-1.690, 6.814e-3
-1.691, 6.868e-3
-1.692, 6.931e-3
-1.693, 6.965e-3
-1.694, 7.001e-3
-1.695, 7.028e-3
-1.696, 7.047e-3
-1.697, 7.103e-3
-1.698, 7.170e-3
-1.699, 7.200e-3
-1.700, 7.192e-3
-1.699, 7.151e-3
-1.698, 7.138e-3
-1.697, 7.075e-3
-1.696, 6.997e-3
-1.695, 6.960e-3
-1.694, 6.897e-3
-1.693, 6.810e-3
-1.692, 6.764e-3
-1.691, 6.692e-3
-1.690, 6.617e-3
-1.689, 6.566e-3
-1.688, 6.583e-3
-1.687, 6.557e-3
-1.686, 6.485e-3
-1.685, 6.433e-3
-1.684, 6.352e-3
-1.683, 6.279e-3
-1.682, 6.208e-3
-1.681, 6.139e-3
-1.680, 6.064e-3
-1.679, 6.045e-3
-1.678, 5.995e-3
-1.677, 5.939e-3
-1.676, 5.879e-3
-1.675, 5.786e-3
-1.674, 5.715e-3
-1.673, 5.615e-3
-1.672, 5.557e-3
-1.671, 5.550e-3
-1.670, 5.546e-3
-1.669, 5.485e-3
-1.668, 5.414e-3
-1.667, 5.339e-3
-1.666, 5.259e-3
-1.665, 5.196e-3
-1.664, 5.126e-3
-1.663, 5.095e-3
-1.662, 5.031e-3
-1.661, 4.974e-3
-1.660, 4.930e-3
-1.659, 4.880e-3
-1.658, 4.829e-3
-1.657, 4.781e-3
-1.656, 4.725e-3
-1.655, 4.667e-3
-1.654, 4.611e-3
-1.653, 4.549e-3
-1.652, 4.567e-3
-1.651, 4.509e-3
-1.650, 4.431e-3
-1.649, 4.375e-3
-1.648, 4.354e-3
-1.647, 4.314e-3
-1.646, 4.250e-3
-1.645, 4.205e-3
-1.644, 4.154e-3
-1.643, 4.119e-3
-1.642, 4.073e-3
-1.641, 4.027e-3
-1.640, 3.976e-3
-1.639, 3.934e-3
-1.638, 3.877e-3
-1.637, 3.852e-3
-1.636, 3.800e-3
-1.635, 3.765e-3
-1.634, 3.715e-3
-1.633, 3.672e-3
-1.632, 3.636e-3
-1.631, 3.599e-3
-1.630, 3.547e-3
-1.629, 3.502e-3
-1.628, 3.477e-3
-1.627, 3.442e-3
-1.626, 3.392e-3
-1.625, 3.373e-3
-1.624, 3.335e-3
-1.623, 3.300e-3
-1.622, 3.254e-3
-1.621, 3.216e-3
-1.620, 3.176e-3
-1.619, 3.142e-3
-1.618, 3.114e-3
-1.617, 3.084e-3
-1.616, 3.049e-3
-1.615, 3.010e-3
-1.614, 2.972e-3
-1.613, 2.939e-3
-1.612, 2.909e-3
-1.611, 2.876e-3
-1.610, 2.842e-3
-1.609, 2.806e-3
-1.608, 2.777e-3
-1.607, 2.746e-3
-1.606, 2.724e-3
-1.605, 2.692e-3
-1.604, 2.673e-3
-1.603, 2.641e-3
-1.602, 2.608e-3
-1.601, 2.577e-3
-1.600, 2.544e-3
-1.599, 2.527e-3
-1.598, 2.490e-3
-1.597, 2.470e-3
-1.596, 2.444e-3
-1.595, 2.419e-3
-1.594, 2.388e-3
-1.593, 2.362e-3
-1.592, 2.336e-3
-1.591, 2.312e-3
-1.590, 2.288e-3
-1.589, 2.264e-3
-1.588, 2.244e-3
-1.587, 2.221e-3
-1.586, 2.194e-3
-1.585, 2.162e-3
-1.584, 2.144e-3
-1.583, 2.121e-3
-1.582, 2.099e-3
-1.581, 2.075e-3
-1.580, 2.051e-3
-1.579, 2.046e-3
-1.578, 2.017e-3
-1.577, 1.990e-3
-1.576, 1.970e-3
-1.575, 1.950e-3
-1.574, 1.922e-3
-1.573, 1.917e-3
-1.572, 1.893e-3
-1.571, 1.868e-3
-1.570, 1.841e-3
-1.569, 1.818e-3
-1.568, 1.803e-3
-1.567, 1.785e-3
-1.566, 1.765e-3
-1.565, 1.746e-3
-1.564, 1.726e-3
-1.563, 1.707e-3
-1.562, 1.687e-3
-1.561, 1.667e-3
-1.560, 1.649e-3
-1.559, 1.631e-3
-1.558, 1.617e-3
-1.557, 1.600e-3
-1.556, 1.580e-3
-1.555, 1.561e-3
-1.554, 1.544e-3
-1.553, 1.528e-3
-1.552, 1.512e-3
-1.551, 1.494e-3
-1.550, 1.478e-3
-1.549, 1.463e-3
-1.548, 1.450e-3
-1.547, 1.433e-3
-1.546, 1.421e-3
-1.545, 1.402e-3
-1.544, 1.388e-3
-1.543, 1.371e-3
-1.542, 1.355e-3
-1.541, 1.341e-3
-1.540, 1.326e-3
-1.539, 1.312e-3
-1.538, 1.300e-3
-1.537, 1.284e-3
-1.536, 1.270e-3
-1.535, 1.255e-3
-1.534, 1.241e-3
-1.533, 1.230e-3
-1.532, 1.216e-3
-1.531, 1.203e-3
-1.530, 1.188e-3
-1.529, 1.175e-3
-1.528, 1.171e-3
-1.527, 1.152e-3
-1.526, 1.139e-3
-1.525, 1.123e-3
-1.524, 1.114e-3
-1.523, 1.101e-3
-1.522, 1.090e-3
-1.521, 1.078e-3
-1.520, 1.063e-3
-1.519, 1.057e-3
-1.518, 1.043e-3
-1.517, 1.031e-3
-1.516, 1.016e-3
-1.515, 1.006e-3
-1.514, 9.967e-4
-1.513, 9.868e-4
-1.512, 9.764e-4
-1.511, 9.657e-4
-1.510, 9.545e-4
-1.509, 9.411e-4
-1.508, 9.334e-4
-1.507, 9.236e-4
-1.506, 9.109e-4
-1.505, 8.997e-4
-1.504, 8.918e-4
-1.503, 8.824e-4
-1.502, 8.734e-4
-1.501, 8.616e-4
-1.500, 8.514e-4
-1.499, 8.425e-4
-1.498, 8.339e-4
-1.497, 8.252e-4
-1.496, 8.147e-4
-1.495, 8.045e-4
-1.494, 7.971e-4
-1.493, 7.889e-4
-1.492, 7.811e-4
-1.491, 7.693e-4
-1.490, 7.612e-4
-1.489, 7.535e-4
-1.488, 7.455e-4
-1.487, 7.380e-4
-1.486, 7.278e-4
-1.485, 7.193e-4
-1.484, 7.112e-4
-1.483, 7.049e-4
-1.482, 6.974e-4
-1.481, 6.869e-4
-1.480, 6.848e-4
-1.479, 6.734e-4
-1.478, 6.664e-4
-1.477, 6.593e-4
-1.476, 6.520e-4
-1.475, 6.418e-4
-1.474, 6.360e-4
-1.473, 6.299e-4
-1.472, 6.235e-4
-1.471, 6.146e-4
-1.470, 6.063e-4
-1.469, 6.003e-4
-1.468, 5.947e-4
-1.467, 5.872e-4
-1.466, 5.783e-4
-1.465, 5.710e-4
-1.464, 5.657e-4
-1.463, 5.606e-4
-1.462, 5.537e-4
-1.461, 5.451e-4
-1.460, 5.384e-4
-1.459, 5.343e-4
-1.458, 5.284e-4
-1.457, 5.204e-4
-1.456, 5.144e-4
-1.455, 5.076e-4
-1.454, 5.019e-4
-1.453, 4.966e-4
-1.452, 4.907e-4
-1.451, 4.828e-4
-1.450, 4.761e-4
-1.449, 4.710e-4
-1.448, 4.669e-4
-1.447, 4.607e-4
-1.446, 4.536e-4
-1.445, 4.476e-4
-1.444, 4.425e-4
-1.443, 4.385e-4
-1.442, 4.323e-4
-1.441, 4.255e-4
-1.440, 4.197e-4
-1.439, 4.150e-4
-1.438, 4.103e-4
-1.437, 4.051e-4
-1.436, 3.985e-4
-1.435, 3.931e-4
-1.434, 3.884e-4
-1.433, 3.843e-4
-1.432, 3.792e-4
-1.431, 3.729e-4
-1.430, 3.672e-4
-1.429, 3.635e-4
-1.428, 3.596e-4
-1.427, 3.544e-4
-1.426, 3.486e-4
-1.425, 3.434e-4
-1.424, 3.390e-4
-1.423, 3.360e-4
-1.422, 3.312e-4
-1.421, 3.257e-4
-1.420, 3.197e-4
-1.419, 3.169e-4
-1.418, 3.135e-4
-1.417, 3.089e-4
-1.416, 3.025e-4
-1.415, 2.985e-4
-1.414, 2.948e-4
-1.413, 2.921e-4
-1.412, 2.870e-4
-1.411, 2.819e-4
-1.410, 2.777e-4
-1.409, 2.743e-4
-1.408, 2.711e-4
-1.407, 2.667e-4
-1.406, 2.610e-4
-1.405, 2.566e-4
-1.404, 2.538e-4
-1.403, 2.510e-4
-1.402, 2.471e-4
-1.401, 2.418e-4
-1.400, 2.377e-4
-1.399, 2.373e-4
-1.398, 2.337e-4
-1.397, 2.285e-4
-1.396, 2.231e-4
-1.395, 2.200e-4
-1.394, 2.174e-4
-1.393, 2.145e-4
-1.392, 2.100e-4
-1.391, 2.071e-4
-1.390, 2.022e-4
-1.389, 2.001e-4
-1.388, 1.975e-4
-1.387, 1.936e-4
-1.386, 1.890e-4
-1.385, 1.849e-4
-1.384, 1.833e-4
-1.383, 1.809e-4
-1.382, 1.771e-4
-1.381, 1.727e-4
-1.380, 1.691e-4
-1.379, 1.672e-4
-1.378, 1.653e-4
-1.377, 1.615e-4
-1.376, 1.579e-4
-1.375, 1.543e-4
-1.374, 1.522e-4
-1.373, 1.505e-4
-1.372, 1.474e-4
-1.371, 1.429e-4
-1.370, 1.400e-4
-1.369, 1.385e-4
-1.368, 1.369e-4
-1.367, 1.338e-4
-1.366, 1.300e-4
-1.365, 1.272e-4
-1.364, 1.254e-4
-1.363, 1.240e-4
-1.362, 1.208e-4
-1.361, 1.175e-4
-1.360, 1.152e-4
-1.359, 1.138e-4
-1.358, 1.120e-4
-1.357, 1.092e-4
-1.356, 1.056e-4
-1.355, 1.030e-4
-1.354, 1.020e-4
-1.353, 1.007e-4
-1.352, 9.750e-5
-1.351, 9.421e-5
-1.350, 9.205e-5
-1.349, 9.116e-5
-1.348, 8.988e-5
-1.347, 8.783e-5
-1.346, 8.444e-5
-1.345, 8.191e-5
-1.344, 8.105e-5
-1.343, 7.969e-5
-1.342, 7.709e-5
-1.341, 7.440e-5
-1.340, 7.233e-5
-1.339, 7.143e-5
-1.338, 7.053e-5
-1.337, 6.784e-5
-1.336, 6.510e-5
-1.335, 6.321e-5
-1.334, 6.256e-5
-1.333, 6.179e-5
-1.332, 5.928e-5
-1.331, 5.636e-5
-1.330, 5.484e-5
-1.329, 5.416e-5
-1.328, 5.377e-5
-1.327, 5.108e-5
-1.326, 4.842e-5
-1.325, 4.697e-5
-1.324, 4.664e-5
-1.323, 4.594e-5
-1.322, 4.358e-5
-1.321, 4.108e-5
-1.320, 3.975e-5
-1.319, 3.954e-5
-1.318, 3.884e-5
-1.317, 3.688e-5
-1.316, 3.436e-5
-1.315, 3.304e-5
-1.314, 3.303e-5
-1.313, 3.249e-5
-1.312, 3.029e-5
-1.311, 2.794e-5
-1.310, 2.725e-5
-1.309, 2.693e-5
-1.308, 2.647e-5
-1.307, 2.445e-5
-1.306, 2.221e-5
-1.305, 2.104e-5
-1.304, 2.131e-5
-1.303, 2.099e-5
-1.302, 1.889e-5
-1.301, 1.685e-5
-1.300, 1.593e-5
-1.299, 1.607e-5
-1.298, 1.590e-5
-1.297, 1.392e-5
-1.296, 1.196e-5
-1.295, 1.107e-5
-1.294, 1.138e-5
-1.293, 1.119e-5
-1.292, 9.356e-6
-1.291, 7.330e-6
-1.290, 6.751e-6
-1.289, 7.008e-6
-1.288, 6.941e-6
-1.287, 5.120e-6
-1.286, 3.118e-6
-1.285, 2.679e-6
-1.284, 3.029e-6
-1.283, 2.866e-6
-1.282, 1.282e-6
-1.281, -6.346e-7
-1.280, -1.283e-6
-1.279, -5.320e-7
-1.278, -8.408e-7
-1.277, -2.355e-6
-1.276, -4.155e-6
-1.275, -4.660e-6
-1.274, -3.875e-6
-1.273, -4.160e-6
-1.272, -5.410e-6
-1.271, -7.343e-6
-1.270, -7.720e-6
-1.269, -6.919e-6
-1.268, -7.040e-6
-1.267, -8.720e-6
-1.266, -1.019e-5
-1.265, -1.059e-5
-1.264, -9.635e-6
-1.263, -9.849e-6
-1.262, -1.137e-5
-1.261, -1.273e-5
-1.260, -1.305e-5
-1.259, -1.235e-5
-1.258, -1.229e-5
-1.257, -1.386e-5
-1.256, -1.519e-5
-1.255, -1.547e-5
-1.254, -1.477e-5
-1.253, -1.471e-5
-1.252, -1.595e-5
-1.251, -1.763e-5
-1.250, -1.762e-5
-1.249, -1.674e-5
-1.248, -1.673e-5
-1.247, -1.805e-5
-1.246, -1.957e-5
-1.245, -1.958e-5
-1.244, -1.871e-5
-1.243, -1.870e-5
-1.242, -1.996e-5
-1.241, -2.147e-5
-1.240, -2.137e-5
-1.239, -2.047e-5
-1.238, -2.050e-5
-1.237, -2.159e-5
-1.236, -2.301e-5
-1.235, -2.323e-5
-1.234, -2.217e-5
-1.233, -2.224e-5
-1.232, -2.332e-5
-1.231, -2.469e-5
-1.230, -2.473e-5
-1.229, -2.393e-5
-1.228, -2.365e-5
-1.227, -2.497e-5
-1.226, -2.608e-5
-1.225, -2.629e-5
-1.224, -2.500e-5
-1.223, -2.502e-5
-1.222, -2.624e-5
-1.221, -2.747e-5
-1.220, -2.734e-5
-1.219, -2.647e-5
-1.218, -2.629e-5
-1.217, -2.755e-5
-1.216, -2.882e-5
-1.215, -2.864e-5
-1.214, -2.763e-5
-1.213, -2.750e-5
-1.212, -2.881e-5
-1.211, -3.016e-5
-1.210, -2.987e-5
-1.209, -2.886e-5
-1.208, -2.869e-5
-1.207, -3.004e-5
-1.206, -3.133e-5
-1.205, -3.094e-5
-1.204, -3.008e-5
-1.203, -3.000e-5
-1.202, -3.121e-5
-1.201, -3.249e-5
-1.200, -3.206e-5
-1.199, -3.115e-5
-1.198, -3.113e-5
-1.197, -3.232e-5
-1.196, -3.370e-5
-1.195, -3.337e-5
-1.194, -3.216e-5
-1.193, -3.245e-5
-1.192, -3.339e-5
-1.191, -3.476e-5
-1.190, -3.456e-5
-1.189, -3.346e-5
-1.188, -3.358e-5
-1.187, -3.483e-5
-1.186, -3.595e-5
-1.185, -3.562e-5
-1.184, -3.463e-5
-1.183, -3.473e-5
-1.182, -3.626e-5
-1.181, -3.731e-5
-1.180, -3.695e-5
-1.179, -3.612e-5
-1.178, -3.611e-5
-1.177, -3.728e-5
-1.176, -3.845e-5
-1.175, -3.816e-5
-1.174, -3.732e-5
-1.173, -3.725e-5
-1.172, -3.862e-5
-1.171, -3.986e-5
-1.170, -3.945e-5
-1.169, -3.859e-5
-1.168, -3.859e-5
-1.167, -3.985e-5
-1.166, -4.127e-5
-1.165, -4.088e-5
-1.164, -3.983e-5
-1.163, -4.017e-5
-1.162, -4.152e-5
-1.161, -4.284e-5
-1.160, -4.226e-5
-1.159, -4.149e-5
-1.158, -4.184e-5
-1.157, -4.319e-5
-1.156, -4.445e-5
-1.155, -4.415e-5
-1.154, -4.322e-5
-1.153, -4.355e-5
-1.152, -4.498e-5
-1.151, -4.635e-5
-1.150, -4.598e-5
-1.149, -4.527e-5
-1.148, -4.556e-5
-1.147, -4.720e-5
-1.146, -4.820e-5
-1.145, -4.812e-5
-1.144, -4.752e-5
-1.143, -4.818e-5
-1.142, -4.965e-5
-1.141, -5.112e-5
-1.140, -5.113e-5
-1.139, -5.028e-5
-1.138, -5.054e-5
-1.137, -5.231e-5
-1.136, -5.345e-5
-1.135, -5.326e-5
-1.134, -5.280e-5
-1.133, -5.300e-5
-1.132, -5.474e-5
-1.131, -5.628e-5
-1.130, -5.587e-5
-1.129, -5.544e-5
-1.128, -5.577e-5
-1.127, -5.766e-5
-1.126, -5.935e-5
-1.125, -5.885e-5
-1.124, -5.829e-5
-1.123, -5.901e-5
-1.122, -6.084e-5
-1.121, -6.239e-5
-1.120, -6.199e-5
-1.119, -6.153e-5
-1.118, -6.234e-5
-1.117, -6.414e-5
-1.116, -6.566e-5
-1.115, -6.554e-5
-1.114, -6.512e-5
-1.113, -6.605e-5
-1.112, -6.773e-5
-1.111, -6.942e-5
-1.110, -6.956e-5
-1.109, -6.896e-5
-1.108, -6.981e-5
-1.107, -7.188e-5
-1.106, -7.336e-5
-1.105, -7.344e-5
-1.104, -7.291e-5
-1.103, -7.393e-5
-1.102, -7.622e-5
-1.101, -7.768e-5
-1.100, -7.728e-5
-1.099, -7.747e-5
-1.098, -7.854e-5
-1.097, -8.040e-5
-1.096, -8.194e-5
-1.095, -8.200e-5
-1.094, -8.198e-5
-1.093, -8.281e-5
-1.092, -8.491e-5
-1.091, -8.673e-5
-1.090, -8.655e-5
-1.089, -8.666e-5
-1.088, -8.754e-5
-1.087, -8.974e-5
-1.086, -9.139e-5
-1.085, -9.140e-5
-1.084, -9.145e-5
-1.083, -9.233e-5
-1.082, -9.445e-5
-1.081, -9.627e-5
-1.080, -9.607e-5
-1.079, -9.593e-5
-1.078, -9.712e-5
-1.077, -9.927e-5
-1.076, -1.010e-4
-1.075, -1.010e-4
-1.074, -1.008e-4
-1.073, -1.020e-4
-1.072, -1.041e-4
-1.071, -1.055e-4
-1.070, -1.058e-4
-1.069, -1.055e-4
-1.068, -1.066e-4
-1.067, -1.091e-4
-1.066, -1.104e-4
-1.065, -1.105e-4
-1.064, -1.102e-4
-1.063, -1.114e-4
-1.062, -1.143e-4
-1.061, -1.155e-4
-1.060, -1.153e-4
-1.059, -1.152e-4
-1.058, -1.162e-4
-1.057, -1.188e-4
-1.056, -1.199e-4
-1.055, -1.200e-4
-1.054, -1.198e-4
-1.053, -1.209e-4
-1.052, -1.232e-4
-1.051, -1.246e-4
-1.050, -1.247e-4
-1.049, -1.245e-4
-1.048, -1.255e-4
-1.047, -1.277e-4
-1.046, -1.292e-4
-1.045, -1.293e-4
-1.044, -1.290e-4
-1.043, -1.303e-4
-1.042, -1.324e-4
-1.041, -1.338e-4
-1.040, -1.339e-4
-1.039, -1.337e-4
-1.038, -1.352e-4
-1.037, -1.373e-4
-1.036, -1.383e-4
-1.035, -1.393e-4
-1.034, -1.388e-4
-1.033, -1.402e-4
-1.032, -1.422e-4
-1.031, -1.437e-4
-1.030, -1.436e-4
-1.029, -1.440e-4
-1.028, -1.452e-4
-1.027, -1.476e-4
-1.026, -1.491e-4
-1.025, -1.490e-4
-1.024, -1.491e-4
-1.023, -1.512e-4
-1.022, -1.533e-4
-1.021, -1.546e-4
-1.020, -1.549e-4
-1.019, -1.547e-4
-1.018, -1.564e-4
-1.017, -1.591e-4
-1.016, -1.604e-4
-1.015, -1.608e-4
-1.014, -1.610e-4
-1.013, -1.624e-4
-1.012, -1.651e-4
-1.011, -1.669e-4
-1.010, -1.671e-4
-1.009, -1.673e-4
-1.008, -1.689e-4
-1.007, -1.726e-4
-1.006, -1.743e-4
-1.005, -1.748e-4
-1.004, -1.749e-4
-1.003, -1.768e-4
-1.002, -1.793e-4
-1.001, -1.813e-4
-1.000, -1.564e-4
-1.001, -1.379e-4
-1.002, -1.280e-4
-1.003, -1.204e-4
-1.004, -1.125e-4
-1.005, -1.043e-4
-1.006, -9.660e-5
-1.007, -9.074e-5
-1.008, -8.647e-5
-1.009, -8.137e-5
-1.010, -7.525e-5
-1.011, -6.962e-5
-1.012, -6.572e-5
-1.013, -6.290e-5
-1.014, -5.940e-5
-1.015, -5.436e-5
-1.016, -5.007e-5
-1.017, -4.737e-5
-1.018, -4.544e-5
-1.019, -4.295e-5
-1.020, -3.901e-5
-1.021, -3.530e-5
-1.022, -3.349e-5
-1.023, -3.233e-5
-1.024, -3.028e-5
-1.025, -2.716e-5
-1.026, -2.391e-5
-1.027, -2.276e-5
-1.028, -2.207e-5
-1.029, -2.049e-5
-1.030, -1.782e-5
-1.031, -1.504e-5
-1.032, -1.431e-5
-1.033, -1.403e-5
-1.034, -1.270e-5
-1.035, -1.035e-5
-1.036, -8.015e-6
-1.037, -7.439e-6
-1.038, -7.572e-6
-1.039, -6.464e-6
-1.040, -4.402e-6
-1.041, -2.321e-6
-1.042, -1.986e-6
-1.043, -2.370e-6
-1.044, -1.432e-6
-1.045, 5.345e-7
-1.046, 2.390e-6
-1.047, 2.592e-6
-1.048, 1.991e-6
-1.049, 2.682e-6
-1.050, 4.672e-6
-1.051, 6.178e-6
-1.052, 6.185e-6
-1.053, 5.628e-6
-1.054, 6.114e-6
-1.055, 8.073e-6
-1.056, 9.422e-6
-1.057, 9.280e-6
-1.058, 8.685e-6
-1.059, 9.038e-6
-1.060, 1.083e-5
-1.061, 1.217e-5
-1.062, 1.187e-5
-1.063, 1.125e-5
-1.064, 1.151e-5
-1.065, 1.315e-5
-1.066, 1.465e-5
-1.067, 1.404e-5
-1.068, 1.337e-5
-1.069, 1.367e-5
-1.070, 1.515e-5
-1.071, 1.666e-5
-1.072, 1.606e-5
-1.073, 1.522e-5
-1.074, 1.560e-5
-1.075, 1.719e-5
-1.076, 1.834e-5
-1.077, 1.775e-5
-1.078, 1.688e-5
-1.079, 1.724e-5
-1.080, 1.857e-5
-1.081, 1.990e-5
-1.082, 1.920e-5
-1.083, 1.832e-5
-1.084, 1.873e-5
-1.085, 2.015e-5
-1.086, 2.124e-5
-1.087, 2.068e-5
-1.088, 1.971e-5
-1.089, 1.998e-5
-1.090, 2.155e-5
-1.091, 2.251e-5
-1.092, 2.189e-5
-1.093, 2.098e-5
-1.094, 2.123e-5
-1.095, 2.285e-5
-1.096, 2.369e-5
-1.097, 2.300e-5
-1.098, 2.225e-5
-1.099, 2.243e-5
-1.100, 2.395e-5
-1.101, 2.489e-5
-1.102, 2.412e-5
-1.103, 2.333e-5
-1.104, 2.354e-5
-1.105, 2.502e-5
-1.106, 2.607e-5
-1.107, 2.517e-5
-1.108, 2.445e-5
-1.109, 2.457e-5
-1.110, 2.610e-5
-1.111, 2.712e-5
-1.112, 2.617e-5
-1.113, 2.545e-5
-1.114, 2.585e-5
-1.115, 2.716e-5
-1.116, 2.815e-5
-1.117, 2.728e-5
-1.118, 2.645e-5
-1.119, 2.683e-5
-1.120, 2.824e-5
-1.121, 2.907e-5
-1.122, 2.840e-5
-1.123, 2.739e-5
-1.124, 2.786e-5
-1.125, 2.937e-5
-1.126, 3.015e-5
-1.127, 2.951e-5
-1.128, 2.841e-5
-1.129, 2.887e-5
-1.130, 3.052e-5
-1.131, 3.115e-5
-1.132, 3.042e-5
-1.133, 2.962e-5
-1.134, 2.989e-5
-1.135, 3.152e-5
-1.136, 3.207e-5
-1.137, 3.137e-5
-1.138, 3.057e-5
-1.139, 3.097e-5
-1.140, 3.271e-5
-1.141, 3.318e-5
-1.142, 3.242e-5
-1.143, 3.152e-5
-1.144, 3.196e-5
-1.145, 3.355e-5
-1.146, 3.419e-5
-1.147, 3.343e-5
-1.148, 3.258e-5
-1.149, 3.307e-5
-1.150, 3.462e-5
-1.151, 3.520e-5
-1.152, 3.446e-5
-1.153, 3.356e-5
-1.154, 3.405e-5
-1.155, 3.564e-5
-1.156, 3.641e-5
-1.157, 3.538e-5
-1.158, 3.449e-5
-1.159, 3.518e-5
-1.160, 3.669e-5
-1.161, 3.724e-5
-1.162, 3.651e-5
-1.163, 3.560e-5
-1.164, 3.620e-5
-1.165, 3.772e-5
-1.166, 3.805e-5
-1.167, 3.766e-5
-1.168, 3.662e-5
-1.169, 3.709e-5
-1.170, 3.884e-5
-1.171, 3.916e-5
-1.172, 3.853e-5
-1.173, 3.756e-5
-1.174, 3.811e-5
-1.175, 3.985e-5
-1.176, 4.013e-5
-1.177, 3.965e-5
-1.178, 3.867e-5
-1.179, 3.916e-5
-1.180, 4.077e-5
-1.181, 4.128e-5
-1.182, 4.039e-5
-1.183, 3.964e-5
-1.184, 4.011e-5
-1.185, 4.166e-5
-1.186, 4.226e-5
-1.187, 4.128e-5
-1.188, 4.052e-5
-1.189, 4.120e-5
-1.190, 4.268e-5
-1.191, 4.313e-5
-1.192, 4.242e-5
-1.193, 4.144e-5
-1.194, 4.218e-5
-1.195, 4.354e-5
-1.196, 4.412e-5
-1.197, 4.312e-5
-1.198, 4.238e-5
-1.199, 4.331e-5
-1.200, 4.464e-5
-1.201, 4.493e-5
-1.202, 4.410e-5
-1.203, 4.329e-5
-1.204, 4.409e-5
-1.205, 4.546e-5
-1.206, 4.593e-5
-1.207, 4.522e-5
-1.208, 4.425e-5
-1.209, 4.495e-5
-1.210, 4.647e-5
-1.211, 4.676e-5
-1.212, 4.595e-5
-1.213, 4.496e-5
-1.214, 4.597e-5
-1.215, 4.743e-5
-1.216, 4.778e-5
-1.217, 4.670e-5
-1.218, 4.604e-5
-1.219, 4.677e-5
-1.220, 4.823e-5
-1.221, 4.855e-5
-1.222, 4.763e-5
-1.223, 4.696e-5
-1.224, 4.769e-5
-1.225, 4.910e-5
-1.226, 4.964e-5
-1.227, 4.844e-5
-1.228, 4.800e-5
-1.229, 4.903e-5
-1.230, 5.023e-5
-1.231, 5.054e-5
-1.232, 4.947e-5
-1.233, 4.878e-5
-1.234, 4.983e-5
-1.235, 5.119e-5
-1.236, 5.149e-5
-1.237, 5.064e-5
-1.238, 4.985e-5
-1.239, 5.100e-5
-1.240, 5.218e-5
-1.241, 5.260e-5
-1.242, 5.177e-5
-1.243, 5.112e-5
-1.244, 5.212e-5
-1.245, 5.357e-5
-1.246, 5.392e-5
-1.247, 5.300e-5
-1.248, 5.231e-5
-1.249, 5.361e-5
-1.250, 5.511e-5
-1.251, 5.531e-5
-1.252, 5.459e-5
-1.253, 5.381e-5
-1.254, 5.525e-5
-1.255, 5.678e-5
-1.256, 5.701e-5
-1.257, 5.609e-5
-1.258, 5.590e-5
-1.259, 5.688e-5
-1.260, 5.866e-5
-1.261, 5.903e-5
-1.262, 5.808e-5
-1.263, 5.777e-5
-1.264, 5.907e-5
-1.265, 6.055e-5
-1.266, 6.123e-5
-1.267, 6.038e-5
-1.268, 6.003e-5
-1.269, 6.157e-5
-1.270, 6.315e-5
-1.271, 6.374e-5
-1.272, 6.287e-5
-1.273, 6.264e-5
-1.274, 6.432e-5
-1.275, 6.587e-5
-1.276, 6.636e-5
-1.277, 6.599e-5
-1.278, 6.590e-5
-1.279, 6.753e-5
-1.280, 6.919e-5
-1.281, 6.971e-5
-1.282, 6.919e-5
-1.283, 6.910e-5
-1.284, 7.079e-5
-1.285, 7.266e-5
-1.286, 7.323e-5
-1.287, 7.289e-5
-1.288, 7.290e-5
-1.289, 7.474e-5
-1.290, 7.672e-5
-1.291, 7.727e-5
-1.292, 7.690e-5
-1.293, 7.720e-5
-1.294, 7.904e-5
-1.295, 8.117e-5
-1.296, 8.184e-5
-1.297, 8.158e-5
-1.298, 8.202e-5
-1.299, 8.396e-5
-1.300, 8.596e-5
-1.301, 8.691e-5
-1.302, 8.675e-5
-1.303, 8.747e-5
-1.304, 8.930e-5
-1.305, 9.152e-5
-1.306, 9.279e-5
-1.307, 9.245e-5
-1.308, 9.319e-5
-1.309, 9.543e-5
-1.310, 9.780e-5
-1.311, 9.897e-5
-1.312, 9.903e-5
-1.313, 9.958e-5
-1.314, 1.022e-4
-1.315, 1.047e-4
-1.316, 1.059e-4
-1.317, 1.060e-4
-1.318, 1.070e-4
-1.319, 1.096e-4
-1.320, 1.122e-4
-1.321, 1.134e-4
-1.322, 1.140e-4
-1.323, 1.150e-4
-1.324, 1.178e-4
-1.325, 1.206e-4
-1.326, 1.219e-4
-1.327, 1.225e-4
-1.328, 1.242e-4
-1.329, 1.267e-4
-1.330, 1.296e-4
-1.331, 1.312e-4
-1.332, 1.319e-4
-1.333, 1.335e-4
-1.334, 1.364e-4
-1.335, 1.398e-4
-1.336, 1.416e-4
-1.337, 1.423e-4
-1.338, 1.441e-4
-1.339, 1.471e-4
-1.340, 1.507e-4
-1.341, 1.526e-4
-1.342, 1.536e-4
-1.343, 1.560e-4
-1.344, 1.592e-4
-1.345, 1.627e-4
-1.346, 1.646e-4
-1.347, 1.656e-4
-1.348, 1.686e-4
-1.349, 1.719e-4
-1.350, 1.755e-4
-1.351, 1.778e-4
-1.352, 1.790e-4
-1.353, 1.817e-4
-1.354, 1.856e-4
-1.355, 1.895e-4
-1.356, 1.919e-4
-1.357, 1.934e-4
-1.358, 1.964e-4
-1.359, 2.005e-4
-1.360, 2.045e-4
-1.361, 2.071e-4
-1.362, 2.091e-4
-1.363, 2.124e-4
-1.364, 2.163e-4
-1.365, 2.208e-4
-1.366, 2.236e-4
-1.367, 2.257e-4
-1.368, 2.291e-4
-1.369, 2.336e-4
-1.370, 2.382e-4
-1.371, 2.413e-4
-1.372, 2.437e-4
-1.373, 2.474e-4
-1.374, 2.517e-4
-1.375, 2.565e-4
-1.376, 2.610e-4
-1.377, 2.629e-4
-1.378, 2.663e-4
-1.379, 2.710e-4
-1.380, 2.768e-4
-1.381, 2.799e-4
-1.382, 2.832e-4
-1.383, 2.870e-4
-1.384, 2.922e-4
-1.385, 2.975e-4
-1.386, 3.013e-4
-1.387, 3.043e-4
-1.388, 3.090e-4
-1.389, 3.146e-4
-1.390, 3.193e-4
-1.391, 3.250e-4
-1.392, 3.272e-4
-1.393, 3.319e-4
-1.394, 3.378e-4
-1.395, 3.434e-4
-1.396, 3.477e-4
-1.397, 3.514e-4
-1.398, 3.563e-4
-1.399, 3.623e-4
-1.400, 3.683e-4
-1.401, 3.731e-4
-1.402, 3.769e-4
-1.403, 3.817e-4
-1.404, 3.876e-4
-1.405, 3.939e-4
-1.406, 3.985e-4
-1.407, 4.033e-4
-1.408, 4.082e-4
-1.409, 4.149e-4
-1.410, 4.216e-4
-1.411, 4.264e-4
-1.412, 4.306e-4
-1.413, 4.365e-4
-1.414, 4.431e-4
-1.415, 4.499e-4
-1.416, 4.549e-4
-1.417, 4.599e-4
-1.418, 4.658e-4
-1.419, 4.732e-4
-1.420, 4.805e-4
-1.421, 4.855e-4
-1.422, 4.908e-4
-1.423, 4.965e-4
-1.424, 5.041e-4
-1.425, 5.111e-4
-1.426, 5.173e-4
-1.427, 5.219e-4
-1.428, 5.271e-4
-1.429, 5.377e-4
-1.430, 5.439e-4
-1.431, 5.489e-4
-1.432, 5.538e-4
-1.433, 5.617e-4
-1.434, 5.678e-4
-1.435, 5.788e-4
-1.436, 5.835e-4
-1.437, 5.883e-4
-1.438, 5.947e-4
-1.439, 6.030e-4
-1.440, 6.111e-4
-1.441, 6.169e-4
-1.442, 6.234e-4
-1.443, 6.308e-4
-1.444, 6.388e-4
-1.445, 6.471e-4
-1.446, 6.539e-4
-1.447, 6.594e-4
-1.448, 6.667e-4
-1.449, 6.745e-4
-1.450, 6.853e-4
-1.451, 6.934e-4
-1.452, 6.996e-4
-1.453, 7.056e-4
-1.454, 7.144e-4
-1.455, 7.224e-4
-1.456, 7.266e-4
-1.457, 7.339e-4
-1.458, 7.429e-4
-1.459, 7.527e-4
-1.460, 7.614e-4
-1.461, 7.674e-4
-1.462, 7.743e-4
-1.463, 7.819e-4
-1.464, 7.907e-4
-1.465, 8.002e-4
-1.466, 8.073e-4
-1.467, 8.146e-4
-1.468, 8.239e-4
-1.469, 8.327e-4
-1.470, 8.422e-4
-1.471, 8.496e-4
-1.472, 8.563e-4
-1.473, 8.649e-4
-1.474, 8.755e-4
-1.475, 8.846e-4
-1.476, 8.920e-4
-1.477, 9.004e-4
-1.478, 9.088e-4
-1.479, 9.183e-4
-1.480, 9.282e-4
-1.481, 9.365e-4
-1.482, 9.441e-4
-1.483, 9.531e-4
-1.484, 9.633e-4
-1.485, 9.739e-4
-1.486, 9.819e-4
-1.487, 9.900e-4
-1.488, 1.000e-3
-1.489, 1.011e-3
-1.490, 1.019e-3
-1.491, 1.028e-3
-1.492, 1.037e-3
-1.493, 1.045e-3
-1.494, 1.057e-3
-1.495, 1.067e-3
-1.496, 1.075e-3
-1.497, 1.086e-3
-1.498, 1.096e-3
-1.499, 1.106e-3
-1.500, 1.115e-3
-1.501, 1.126e-3
-1.502, 1.135e-3
-1.503, 1.143e-3
-1.504, 1.154e-3
-1.505, 1.166e-3
-1.506, 1.173e-3
-1.507, 1.182e-3
-1.508, 1.194e-3
-1.509, 1.203e-3
-1.510, 1.218e-3
-1.511, 1.225e-3
-1.512, 1.236e-3
-1.513, 1.244e-3
-1.514, 1.254e-3
-1.515, 1.266e-3
-1.516, 1.280e-3
-1.517, 1.289e-3
-1.518, 1.300e-3
-1.519, 1.311e-3
-1.520, 1.322e-3
-1.521, 1.332e-3
-1.522, 1.342e-3
-1.523, 1.353e-3
-1.524, 1.365e-3
-1.525, 1.377e-3
-1.526, 1.387e-3
-1.527, 1.397e-3
-1.528, 1.409e-3
-1.529, 1.421e-3
-1.530, 1.434e-3
-1.531, 1.444e-3
-1.532, 1.455e-3
-1.533, 1.465e-3
-1.534, 1.478e-3
-1.535, 1.489e-3
-1.536, 1.501e-3
-1.537, 1.512e-3
-1.538, 1.524e-3
-1.539, 1.537e-3
-1.540, 1.549e-3
-1.541, 1.561e-3
-1.542, 1.577e-3
-1.543, 1.582e-3
-1.544, 1.601e-3
-1.545, 1.617e-3
-1.546, 1.623e-3
-1.547, 1.634e-3
-1.548, 1.646e-3
-1.549, 1.659e-3
-1.550, 1.675e-3
-1.551, 1.685e-3
-1.552, 1.697e-3
-1.553, 1.712e-3
-1.554, 1.727e-3
-1.555, 1.738e-3
-1.556, 1.752e-3
-1.557, 1.761e-3
-1.558, 1.776e-3
-1.559, 1.793e-3
-1.560, 1.802e-3
-1.561, 1.819e-3
-1.562, 1.837e-3
-1.563, 1.853e-3
-1.564, 1.864e-3
-1.565, 1.879e-3
-1.566, 1.891e-3
-1.567, 1.901e-3
-1.568, 1.912e-3
-1.569, 1.924e-3
-1.570, 1.940e-3
-1.571, 1.955e-3
-1.572, 1.970e-3
-1.573, 1.987e-3
-1.574, 2.001e-3
-1.575, 2.017e-3
-1.576, 2.031e-3
-1.577, 2.044e-3
-1.578, 2.061e-3
-1.579, 2.073e-3
-1.580, 2.099e-3
-1.581, 2.115e-3
-1.582, 2.126e-3
-1.583, 2.142e-3
-1.584, 2.157e-3
-1.585, 2.170e-3
-1.586, 2.186e-3
-1.587, 2.205e-3
-1.588, 2.220e-3
-1.589, 2.238e-3
-1.590, 2.255e-3
-1.591, 2.270e-3
-1.592, 2.287e-3
-1.593, 2.303e-3
-1.594, 2.320e-3
-1.595, 2.339e-3
-1.596, 2.356e-3
-1.597, 2.375e-3
-1.598, 2.390e-3
-1.599, 2.409e-3
-1.600, 2.433e-3
-1.601, 2.448e-3
-1.602, 2.469e-3
-1.603, 2.481e-3
-1.604, 2.492e-3
-1.605, 2.513e-3
-1.606, 2.533e-3
-1.607, 2.555e-3
-1.608, 2.574e-3
-1.609, 2.596e-3
-1.610, 2.618e-3
-1.611, 2.632e-3
-1.612, 2.654e-3
-1.613, 2.673e-3
-1.614, 2.696e-3
-1.615, 2.710e-3
-1.616, 2.734e-3
-1.617, 2.756e-3
-1.618, 2.777e-3
-1.619, 2.793e-3
-1.620, 2.820e-3
-1.621, 2.831e-3
-1.622, 2.856e-3
-1.623, 2.888e-3
-1.624, 2.907e-3
-1.625, 2.925e-3
-1.626, 2.946e-3
-1.627, 2.971e-3
-1.628, 2.993e-3
-1.629, 3.011e-3
-1.630, 3.035e-3
-1.631, 3.059e-3
-1.632, 3.081e-3
-1.633, 3.107e-3
-1.634, 3.141e-3
-1.635, 3.147e-3
-1.636, 3.189e-3
-1.637, 3.217e-3
-1.638, 3.237e-3
-1.639, 3.253e-3
-1.640, 3.272e-3
-1.641, 3.296e-3
-1.642, 3.325e-3
-1.643, 3.353e-3
-1.644, 3.383e-3
-1.645, 3.415e-3
-1.646, 3.425e-3
-1.647, 3.459e-3
-1.648, 3.497e-3
-1.649, 3.512e-3
-1.650, 3.538e-3
-1.651, 3.570e-3
-1.652, 3.603e-3
-1.653, 3.617e-3
-1.654, 3.669e-3
-1.655, 3.692e-3
-1.656, 3.715e-3
-1.657, 3.737e-3
-1.658, 3.758e-3
-1.659, 3.819e-3
-1.660, 3.849e-3
-1.661, 3.870e-3
-1.662, 3.908e-3
-1.663, 3.955e-3
-1.664, 3.966e-3
-1.665, 3.973e-3
-1.666, 4.000e-3
-1.667, 4.041e-3
-1.668, 4.077e-3
-1.669, 4.107e-3
-1.670, 4.150e-3
-1.671, 4.171e-3
-1.672, 4.190e-3
-1.673, 4.214e-3
-1.674, 4.241e-3
-1.675, 4.276e-3
-1.676, 4.314e-3
-1.677, 4.356e-3
-1.678, 4.367e-3
-1.679, 4.407e-3
-1.680, 4.432e-3
-1.681, 4.474e-3
-1.682, 4.516e-3
-1.683, 4.558e-3
-1.684, 4.596e-3
-1.685, 4.662e-3
-1.686, 4.651e-3
-1.687, 4.735e-3
-1.688, 4.797e-3
-1.689, 4.818e-3
-1.690, 4.823e-3
-1.691, 4.850e-3
-1.692, 4.866e-3
-1.693, 4.901e-3
-1.694, 4.925e-3
-1.695, 4.953e-3
-1.696, 5.007e-3
-1.697, 5.058e-3
-1.698, 5.096e-3
-1.699, 5.140e-3
-1.700, 5.124e-3
-1.699, 5.053e-3
-1.698, 5.011e-3
-1.697, 4.965e-3
-1.696, 4.925e-3
-1.695, 4.866e-3
-1.694, 4.807e-3
-1.693, 4.744e-3
-1.692, 4.696e-3
-1.691, 4.675e-3
-1.690, 4.634e-3
-1.689, 4.549e-3
-1.688, 4.474e-3
-1.687, 4.419e-3
-1.686, 4.382e-3
-1.685, 4.328e-3
-1.684, 4.271e-3
-1.683, 4.221e-3
-1.682, 4.175e-3
-1.681, 4.123e-3
-1.680, 4.095e-3
-1.679, 4.091e-3
-1.678, 4.024e-3
-1.677, 3.976e-3
-1.676, 3.932e-3
-1.675, 3.867e-3
-1.674, 3.839e-3
-1.673, 3.811e-3
-1.672, 3.767e-3
-1.671, 3.715e-3
-1.670, 3.661e-3
-1.669, 3.610e-3
-1.668, 3.578e-3
-1.667, 3.546e-3
-1.666, 3.511e-3
-1.665, 3.481e-3
-1.664, 3.444e-3
-1.663, 3.390e-3
-1.662, 3.343e-3
-1.661, 3.323e-3
-1.660, 3.276e-3
-1.659, 3.228e-3
-1.658, 3.180e-3
-1.657, 3.141e-3
-1.656, 3.110e-3
-1.655, 3.077e-3
-1.654, 3.054e-3
-1.653, 3.012e-3
-1.652, 2.968e-3
-1.651, 2.928e-3
-1.650, 2.897e-3
-1.649, 2.861e-3
-1.648, 2.829e-3
-1.647, 2.799e-3
-1.646, 2.760e-3
-1.645, 2.734e-3
-1.644, 2.690e-3
-1.643, 2.674e-3
-1.642, 2.655e-3
-1.641, 2.618e-3
-1.640, 2.581e-3
-1.639, 2.538e-3
-1.638, 2.508e-3
-1.637, 2.484e-3
-1.636, 2.451e-3
-1.635, 2.416e-3
-1.634, 2.389e-3
-1.633, 2.358e-3
-1.632, 2.328e-3
-1.631, 2.303e-3
-1.630, 2.272e-3
-1.629, 2.246e-3
-1.628, 2.215e-3
-1.627, 2.190e-3
-1.626, 2.168e-3
-1.625, 2.141e-3
-1.624, 2.115e-3
-1.623, 2.095e-3
-1.622, 2.066e-3
-1.621, 2.044e-3
-1.620, 2.014e-3
-1.619, 1.989e-3
-1.618, 1.964e-3
-1.617, 1.946e-3
-1.616, 1.924e-3
-1.615, 1.898e-3
-1.614, 1.871e-3
-1.613, 1.856e-3
-1.612, 1.836e-3
-1.611, 1.805e-3
-1.610, 1.797e-3
-1.609, 1.777e-3
-1.608, 1.749e-3
-1.607, 1.731e-3
-1.606, 1.717e-3
-1.605, 1.688e-3
-1.604, 1.663e-3
-1.603, 1.640e-3
-1.602, 1.621e-3
-1.601, 1.609e-3
-1.600, 1.588e-3
-1.599, 1.562e-3
-1.598, 1.542e-3
-1.597, 1.531e-3
-1.596, 1.525e-3
-1.595, 1.498e-3
-1.594, 1.472e-3
-1.593, 1.453e-3
-1.592, 1.436e-3
-1.591, 1.419e-3
-1.590, 1.406e-3
-1.589, 1.390e-3
-1.588, 1.371e-3
-1.587, 1.355e-3
-1.586, 1.341e-3
-1.585, 1.324e-3
-1.584, 1.305e-3
-1.583, 1.289e-3
-1.582, 1.277e-3
-1.581, 1.264e-3
-1.580, 1.250e-3
-1.579, 1.227e-3
-1.578, 1.221e-3
-1.577, 1.207e-3
-1.576, 1.191e-3
-1.575, 1.174e-3
-1.574, 1.157e-3
-1.573, 1.146e-3
-1.572, 1.134e-3
-1.571, 1.118e-3
-1.570, 1.105e-3
-1.569, 1.091e-3
-1.568, 1.075e-3
-1.567, 1.068e-3
-1.566, 1.052e-3
-1.565, 1.038e-3
-1.564, 1.031e-3
-1.563, 1.020e-3
-1.562, 1.003e-3
-1.561, 9.917e-4
-1.560, 9.799e-4
-1.559, 9.711e-4
-1.558, 9.605e-4
-1.557, 9.479e-4
-1.556, 9.359e-4
-1.555, 9.259e-4
-1.554, 9.120e-4
-1.553, 8.987e-4
-1.552, 8.883e-4
-1.551, 8.807e-4
-1.550, 8.716e-4
-1.549, 8.608e-4
-1.548, 8.502e-4
-1.547, 8.399e-4
-1.546, 8.303e-4
-1.545, 8.197e-4
-1.544, 8.082e-4
-1.543, 7.992e-4
-1.542, 7.906e-4
-1.541, 7.825e-4
-1.540, 7.732e-4
-1.539, 7.627e-4
-1.538, 7.534e-4
-1.537, 7.463e-4
-1.536, 7.390e-4
-1.535, 7.276e-4
-1.534, 7.181e-4
-1.533, 7.099e-4
-1.532, 7.007e-4
-1.531, 6.959e-4
-1.530, 6.852e-4
-1.529, 6.802e-4
-1.528, 6.691e-4
-1.527, 6.611e-4
-1.526, 6.563e-4
-1.525, 6.458e-4
-1.524, 6.393e-4
-1.523, 6.313e-4
-1.522, 6.258e-4
-1.521, 6.149e-4
-1.520, 6.104e-4
-1.519, 6.042e-4
-1.518, 5.946e-4
-1.517, 5.863e-4
-1.516, 5.825e-4
-1.515, 5.736e-4
-1.514, 5.652e-4
-1.513, 5.590e-4
-1.512, 5.585e-4
-1.511, 5.506e-4
-1.510, 5.429e-4
-1.509, 5.348e-4
-1.508, 5.281e-4
-1.507, 5.237e-4
-1.506, 5.156e-4
-1.505, 5.130e-4
-1.504, 5.045e-4
-1.503, 4.972e-4
-1.502, 4.926e-4
-1.501, 4.884e-4
-1.500, 4.817e-4
-1.499, 4.744e-4
-1.498, 4.673e-4
-1.497, 4.617e-4
-1.496, 4.561e-4
-1.495, 4.517e-4
-1.494, 4.446e-4
-1.493, 4.393e-4
-1.492, 4.353e-4
-1.491, 4.306e-4
-1.490, 4.267e-4
-1.489, 4.178e-4
-1.488, 4.119e-4
-1.487, 4.086e-4
-1.486, 4.040e-4
-1.485, 3.972e-4
-1.484, 3.910e-4
-1.483, 3.864e-4
-1.482, 3.841e-4
-1.481, 3.796e-4
-1.480, 3.732e-4
-1.479, 3.663e-4
-1.478, 3.636e-4
-1.477, 3.606e-4
-1.476, 3.555e-4
-1.475, 3.540e-4
-1.474, 3.457e-4
-1.473, 3.407e-4
-1.472, 3.379e-4
-1.471, 3.343e-4
-1.470, 3.280e-4
-1.469, 3.238e-4
-1.468, 3.196e-4
-1.467, 3.171e-4
-1.466, 3.130e-4
-1.465, 3.079e-4
-1.464, 3.026e-4
-1.463, 2.989e-4
-1.462, 2.961e-4
-1.461, 2.931e-4
-1.460, 2.883e-4
-1.459, 2.838e-4
-1.458, 2.793e-4
-1.457, 2.769e-4
-1.456, 2.737e-4
-1.455, 2.685e-4
-1.454, 2.640e-4
-1.453, 2.608e-4
-1.452, 2.601e-4
-1.451, 2.557e-4
-1.450, 2.514e-4
-1.449, 2.466e-4
-1.448, 2.438e-4
-1.447, 2.416e-4
-1.446, 2.375e-4
-1.445, 2.341e-4
-1.444, 2.295e-4
-1.443, 2.269e-4
-1.442, 2.247e-4
-1.441, 2.217e-4
-1.440, 2.174e-4
-1.439, 2.139e-4
-1.438, 2.113e-4
-1.437, 2.091e-4
-1.436, 2.070e-4
-1.435, 2.020e-4
-1.434, 1.986e-4
-1.433, 1.962e-4
-1.432, 1.947e-4
-1.431, 1.915e-4
-1.430, 1.874e-4
-1.429, 1.843e-4
-1.428, 1.822e-4
-1.427, 1.797e-4
-1.426, 1.779e-4
-1.425, 1.740e-4
-1.424, 1.702e-4
-1.423, 1.682e-4
-1.422, 1.667e-4
-1.421, 1.644e-4
-1.420, 1.603e-4
-1.419, 1.572e-4
-1.418, 1.556e-4
-1.417, 1.539e-4
-1.416, 1.511e-4
-1.415, 1.475e-4
-1.414, 1.442e-4
-1.413, 1.430e-4
-1.412, 1.413e-4
-1.411, 1.385e-4
-1.410, 1.370e-4
-1.409, 1.336e-4
-1.408, 1.318e-4
-1.407, 1.302e-4
-1.406, 1.279e-4
-1.405, 1.245e-4
-1.404, 1.218e-4
-1.403, 1.212e-4
-1.402, 1.201e-4
-1.401, 1.174e-4
-1.400, 1.143e-4
-1.399, 1.117e-4
-1.398, 1.103e-4
-1.397, 1.094e-4
-1.396, 1.071e-4
-1.395, 1.041e-4
-1.394, 1.016e-4
-1.393, 1.002e-4
-1.392, 9.958e-5
-1.391, 9.761e-5
-1.390, 9.442e-5
-1.389, 9.218e-5
-1.388, 9.110e-5
-1.387, 9.016e-5
-1.386, 8.851e-5
-1.385, 8.550e-5
-1.384, 8.318e-5
-1.383, 8.236e-5
-1.382, 8.151e-5
-1.381, 7.980e-5
-1.380, 7.687e-5
-1.379, 7.472e-5
-1.378, 7.406e-5
-1.377, 7.340e-5
-1.376, 7.185e-5
-1.375, 6.876e-5
-1.374, 6.699e-5
-1.373, 6.637e-5
-1.372, 6.582e-5
-1.371, 6.406e-5
-1.370, 6.153e-5
-1.369, 5.967e-5
-1.368, 5.921e-5
-1.367, 5.899e-5
-1.366, 5.712e-5
-1.365, 5.467e-5
-1.364, 5.290e-5
-1.363, 5.225e-5
-1.362, 5.219e-5
-1.361, 5.047e-5
-1.360, 4.837e-5
-1.359, 4.656e-5
-1.358, 4.611e-5
-1.357, 4.590e-5
-1.356, 4.453e-5
-1.355, 4.197e-5
-1.354, 4.069e-5
-1.353, 4.009e-5
-1.352, 4.018e-5
-1.351, 3.881e-5
-1.350, 3.620e-5
-1.349, 3.535e-5
-1.348, 3.493e-5
-1.347, 3.476e-5
-1.346, 3.354e-5
-1.345, 3.112e-5
-1.344, 2.985e-5
-1.343, 2.968e-5
-1.342, 2.960e-5
-1.341, 2.849e-5
-1.340, 2.620e-5
-1.339, 2.492e-5
-1.338, 2.500e-5
-1.337, 2.507e-5
-1.336, 2.378e-5
-1.335, 2.172e-5
-1.334, 2.043e-5
-1.333, 2.053e-5
-1.332, 2.070e-5
-1.331, 1.927e-5
-1.330, 1.732e-5
-1.329, 1.618e-5
-1.328, 1.647e-5
-1.327, 1.663e-5
-1.326, 1.530e-5
-1.325, 1.339e-5
-1.324, 1.232e-5
-1.323, 1.243e-5
-1.322, 1.286e-5
-1.321, 1.146e-5
-1.320, 9.825e-6
-1.319, 8.811e-6
-1.318, 8.854e-6
-1.317, 9.318e-6
-1.316, 8.076e-6
-1.315, 6.313e-6
-1.314, 5.426e-6
-1.313, 5.668e-6
-1.312, 6.178e-6
-1.311, 4.977e-6
-1.310, 3.065e-6
-1.309, 2.439e-6
-1.308, 2.851e-6
-1.307, 3.051e-6
-1.306, 2.016e-6
-1.305, 1.665e-7
-1.304, -4.550e-7
-1.303, -1.796e-8
-1.302, 3.283e-7
-1.301, -6.948e-7
-1.300, -2.374e-6
-1.299, -3.151e-6
-1.298, -2.433e-6
-1.297, -2.205e-6
-1.296, -3.208e-6
-1.295, -4.872e-6
-1.294, -5.559e-6
-1.293, -4.805e-6
-1.292, -4.500e-6
-1.291, -5.620e-6
-1.290, -7.094e-6
-1.289, -7.749e-6
-1.288, -7.090e-6
-1.287, -6.605e-6
-1.286, -7.812e-6
-1.285, -9.157e-6
-1.284, -9.659e-6
-1.283, -9.225e-6
-1.282, -8.538e-6
-1.281, -9.734e-6
-1.280, -1.125e-5
-1.279, -1.173e-5
-1.278, -1.110e-5
-1.277, -1.036e-5
-1.276, -1.154e-5
-1.275, -1.302e-5
-1.274, -1.327e-5
-1.273, -1.272e-5
-1.272, -1.216e-5
-1.271, -1.314e-5
-1.270, -1.469e-5
-1.269, -1.493e-5
-1.268, -1.415e-5
-1.267, -1.384e-5
-1.266, -1.476e-5
-1.265, -1.620e-5
-1.264, -1.648e-5
-1.263, -1.568e-5
-1.262, -1.520e-5
-1.261, -1.616e-5
-1.260, -1.745e-5
-1.259, -1.784e-5
-1.258, -1.702e-5
-1.257, -1.652e-5
-1.256, -1.752e-5
-1.255, -1.881e-5
-1.254, -1.921e-5
-1.253, -1.820e-5
-1.252, -1.771e-5
-1.251, -1.883e-5
-1.250, -2.001e-5
-1.249, -2.028e-5
-1.248, -1.939e-5
-1.247, -1.886e-5
-1.246, -2.002e-5
-1.245, -2.112e-5
-1.244, -2.134e-5
-1.243, -2.047e-5
-1.242, -1.998e-5
-1.241, -2.111e-5
-1.240, -2.229e-5
-1.239, -2.233e-5
-1.238, -2.151e-5
-1.237, -2.109e-5
-1.236, -2.206e-5
-1.235, -2.340e-5
-1.234, -2.344e-5
-1.233, -2.264e-5
-1.232, -2.203e-5
-1.231, -2.321e-5
-1.230, -2.435e-5
-1.229, -2.478e-5
-1.228, -2.353e-5
-1.227, -2.324e-5
-1.226, -2.416e-5
-1.225, -2.547e-5
-1.224, -2.541e-5
-1.223, -2.445e-5
-1.222, -2.414e-5
-1.221, -2.506e-5
-1.220, -2.625e-5
-1.219, -2.649e-5
-1.218, -2.532e-5
-1.217, -2.504e-5
-1.216, -2.603e-5
-1.215, -2.714e-5
-1.214, -2.736e-5
-1.213, -2.618e-5
-1.212, -2.586e-5
-1.211, -2.694e-5
-1.210, -2.805e-5
-1.209, -2.806e-5
-1.208, -2.701e-5
-1.207, -2.665e-5
-1.206, -2.793e-5
-1.205, -2.894e-5
-1.204, -2.895e-5
-1.203, -2.806e-5
-1.202, -2.769e-5
-1.201, -2.886e-5
-1.200, -2.993e-5
-1.199, -2.986e-5
-1.198, -2.890e-5
-1.197, -2.865e-5
-1.196, -2.974e-5
-1.195, -3.092e-5
-1.194, -3.080e-5
-1.193, -2.999e-5
-1.192, -2.961e-5
-1.191, -3.068e-5
-1.190, -3.193e-5
-1.189, -3.175e-5
-1.188, -3.081e-5
-1.187, -3.082e-5
-1.186, -3.159e-5
-1.185, -3.299e-5
-1.184, -3.278e-5
-1.183, -3.180e-5
-1.182, -3.188e-5
-1.181, -3.269e-5
-1.180, -3.396e-5
-1.179, -3.388e-5
-1.178, -3.301e-5
-1.177, -3.299e-5
-1.176, -3.399e-5
-1.175, -3.514e-5
-1.174, -3.521e-5
-1.173, -3.418e-5
-1.172, -3.414e-5
-1.171, -3.533e-5
-1.170, -3.645e-5
-1.169, -3.641e-5
-1.168, -3.542e-5
-1.167, -3.536e-5
-1.166, -3.664e-5
-1.165, -3.770e-5
-1.164, -3.777e-5
-1.163, -3.672e-5
-1.162, -3.670e-5
-1.161, -3.800e-5
-1.160, -3.916e-5
-1.159, -3.911e-5
-1.158, -3.833e-5
-1.157, -3.830e-5
-1.156, -3.932e-5
-1.155, -4.092e-5
-1.154, -4.073e-5
-1.153, -3.991e-5
-1.152, -3.981e-5
-1.151, -4.115e-5
-1.150, -4.264e-5
-1.149, -4.248e-5
-1.148, -4.175e-5
-1.147, -4.160e-5
-1.146, -4.309e-5
-1.145, -4.474e-5
-1.144, -4.443e-5
-1.143, -4.364e-5
-1.142, -4.406e-5
-1.141, -4.522e-5
-1.140, -4.653e-5
-1.139, -4.648e-5
-1.138, -4.579e-5
-1.137, -4.609e-5
-1.136, -4.740e-5
-1.135, -4.887e-5
-1.134, -4.885e-5
-1.133, -4.817e-5
-1.132, -4.834e-5
-1.131, -4.991e-5
-1.130, -5.141e-5
-1.129, -5.150e-5
-1.128, -5.073e-5
-1.127, -5.114e-5
-1.126, -5.268e-5
-1.125, -5.405e-5
-1.124, -5.407e-5
-1.123, -5.374e-5
-1.122, -5.381e-5
-1.121, -5.553e-5
-1.120, -5.696e-5
-1.119, -5.698e-5
-1.118, -5.661e-5
-1.117, -5.680e-5
-1.116, -5.858e-5
-1.115, -6.021e-5
-1.114, -6.008e-5
-1.113, -5.995e-5
-1.112, -6.005e-5
-1.111, -6.173e-5
-1.110, -6.383e-5
-1.109, -6.329e-5
-1.108, -6.301e-5
-1.107, -6.380e-5
-1.106, -6.529e-5
-1.105, -6.721e-5
-1.104, -6.712e-5
-1.103, -6.683e-5
-1.102, -6.737e-5
-1.101, -6.900e-5
-1.100, -7.060e-5
-1.099, -7.079e-5
-1.098, -7.031e-5
-1.097, -7.110e-5
-1.096, -7.275e-5
-1.095, -7.432e-5
-1.094, -7.492e-5
-1.093, -7.436e-5
-1.092, -7.460e-5
-1.091, -7.697e-5
-1.090, -7.834e-5
-1.089, -7.823e-5
-1.088, -7.820e-5
-1.087, -7.880e-5
-1.086, -8.072e-5
-1.085, -8.237e-5
-1.084, -8.250e-5
-1.083, -8.214e-5
-1.082, -8.281e-5
-1.081, -8.521e-5
-1.080, -8.677e-5
-1.079, -8.673e-5
-1.078, -8.623e-5
-1.077, -8.693e-5
-1.076, -8.913e-5
-1.075, -9.113e-5
-1.074, -9.114e-5
-1.073, -9.080e-5
-1.072, -9.138e-5
-1.071, -9.333e-5
-1.070, -9.510e-5
-1.069, -9.523e-5
-1.068, -9.506e-5
-1.067, -9.595e-5
-1.066, -9.777e-5
-1.065, -9.957e-5
-1.064, -9.955e-5
-1.063, -9.923e-5
-1.062, -1.003e-4
-1.061, -1.021e-4
-1.060, -1.041e-4
-1.059, -1.042e-4
-1.058, -1.039e-4
-1.057, -1.049e-4
-1.056, -1.067e-4
-1.055, -1.086e-4
-1.054, -1.089e-4
-1.053, -1.081e-4
-1.052, -1.100e-4
-1.051, -1.120e-4
-1.050, -1.134e-4
-1.049, -1.136e-4
-1.048, -1.136e-4
-1.047, -1.138e-4
-1.046, -1.170e-4
-1.045, -1.186e-4
-1.044, -1.179e-4
-1.043, -1.186e-4
-1.042, -1.195e-4
-1.041, -1.214e-4
-1.040, -1.234e-4
-1.039, -1.238e-4
-1.038, -1.238e-4
-1.037, -1.247e-4
-1.036, -1.272e-4
-1.035, -1.288e-4
-1.034, -1.286e-4
-1.033, -1.290e-4
-1.032, -1.301e-4
-1.031, -1.327e-4
-1.030, -1.346e-4
-1.029, -1.347e-4
-1.028, -1.348e-4
-1.027, -1.359e-4
-1.026, -1.385e-4
-1.025, -1.403e-4
-1.024, -1.409e-4
-1.023, -1.409e-4
-1.022, -1.422e-4
-1.021, -1.448e-4
-1.020, -1.467e-4
-1.019, -1.474e-4
-1.018, -1.475e-4
-1.017, -1.489e-4
-1.016, -1.514e-4
-1.015, -1.534e-4
-1.014, -1.541e-4
-1.013, -1.543e-4
-1.012, -1.559e-4
-1.011, -1.588e-4
-1.010, -1.610e-4
-1.009, -1.616e-4
-1.008, -1.615e-4
-1.007, -1.632e-4
-1.006, -1.665e-4
-1.005, -1.688e-4
-1.004, -1.696e-4
-1.003, -1.701e-4
-1.002, -1.718e-4
-1.001, -1.746e-4
-1.000, -1.520e-4
-1.001, -1.331e-4
-1.002, -1.217e-4
-1.003, -1.132e-4
-1.004, -1.067e-4
-1.005, -1.001e-4
-1.006, -9.297e-5
-1.007, -8.595e-5
-1.008, -8.043e-5
-1.009, -7.745e-5
-1.010, -7.242e-5
-1.011, -6.704e-5
-1.012, -6.156e-5
-1.013, -5.797e-5
-1.014, -5.531e-5
-1.015, -5.233e-5
-1.016, -4.846e-5
-1.017, -4.386e-5
-1.018, -4.114e-5
-1.019, -3.974e-5
-1.020, -3.737e-5
-1.021, -3.393e-5
-1.022, -3.055e-5
-1.023, -2.846e-5
-1.024, -2.767e-5
-1.025, -2.608e-5
-1.026, -2.308e-5
-1.027, -2.024e-5
-1.028, -1.868e-5
-1.029, -1.838e-5
-1.030, -1.700e-5
-1.031, -1.459e-5
-1.032, -1.203e-5
-1.033, -1.096e-5
-1.034, -1.078e-5
-1.035, -9.896e-6
-1.036, -7.767e-6
-1.037, -5.550e-6
-1.038, -4.681e-6
-1.039, -4.811e-6
-1.040, -4.258e-6
-1.041, -2.246e-6
-1.042, -1.571e-7
-1.043, 2.543e-7
-1.044, 1.953e-8
-1.045, 5.316e-7
-1.046, 2.286e-6
-1.047, 4.164e-6
-1.048, 4.406e-6
-1.049, 4.005e-6
-1.050, 4.278e-6
-1.051, 5.967e-6
-1.052, 7.686e-6
-1.053, 7.775e-6
-1.054, 7.230e-6
-1.055, 7.610e-6
-1.056, 8.999e-6
-1.057, 1.052e-5
-1.058, 1.082e-5
-1.059, 9.931e-6
-1.060, 1.026e-5
-1.061, 1.164e-5
-1.062, 1.312e-5
-1.063, 1.324e-5
-1.064, 1.230e-5
-1.065, 1.249e-5
-1.066, 1.387e-5
-1.067, 1.524e-5
-1.068, 1.519e-5
-1.069, 1.434e-5
-1.070, 1.437e-5
-1.071, 1.583e-5
-1.072, 1.705e-5
-1.073, 1.688e-5
-1.074, 1.613e-5
-1.075, 1.632e-5
-1.076, 1.752e-5
-1.077, 1.879e-5
-1.078, 1.837e-5
-1.079, 1.765e-5
-1.080, 1.762e-5
-1.081, 1.885e-5
-1.082, 2.018e-5
-1.083, 1.986e-5
-1.084, 1.898e-5
-1.085, 1.895e-5
-1.086, 2.019e-5
-1.087, 2.154e-5
-1.088, 2.110e-5
-1.089, 2.013e-5
-1.090, 2.029e-5
-1.091, 2.142e-5
-1.092, 2.263e-5
-1.093, 2.221e-5
-1.094, 2.124e-5
-1.095, 2.141e-5
-1.096, 2.256e-5
-1.097, 2.360e-5
-1.098, 2.336e-5
-1.099, 2.231e-5
-1.100, 2.245e-5
-1.101, 2.360e-5
-1.102, 2.474e-5
-1.103, 2.444e-5
-1.104, 2.327e-5
-1.105, 2.332e-5
-1.106, 2.470e-5
-1.107, 2.576e-5
-1.108, 2.521e-5
-1.109, 2.440e-5
-1.110, 2.425e-5
-1.111, 2.569e-5
-1.112, 2.665e-5
-1.113, 2.619e-5
-1.114, 2.527e-5
-1.115, 2.520e-5
-1.116, 2.649e-5
-1.117, 2.753e-5
-1.118, 2.692e-5
-1.119, 2.614e-5
-1.120, 2.609e-5
-1.121, 2.739e-5
-1.122, 2.851e-5
-1.123, 2.784e-5
-1.124, 2.697e-5
-1.125, 2.701e-5
-1.126, 2.820e-5
-1.127, 2.934e-5
-1.128, 2.869e-5
-1.129, 2.768e-5
-1.130, 2.797e-5
-1.131, 2.904e-5
-1.132, 3.011e-5
-1.133, 2.964e-5
-1.134, 2.848e-5
-1.135, 2.872e-5
-1.136, 2.983e-5
-1.137, 3.092e-5
-1.138, 3.041e-5
-1.139, 2.932e-5
-1.140, 2.949e-5
-1.141, 3.071e-5
-1.142, 3.174e-5
-1.143, 3.120e-5
-1.144, 3.009e-5
-1.145, 3.021e-5
-1.146, 3.163e-5
-1.147, 3.252e-5
-1.148, 3.202e-5
-1.149, 3.101e-5
-1.150, 3.112e-5
-1.151, 3.251e-5
-1.152, 3.332e-5
-1.153, 3.257e-5
-1.154, 3.181e-5
-1.155, 3.179e-5
-1.156, 3.328e-5
-1.157, 3.420e-5
-1.158, 3.338e-5
-1.159, 3.262e-5
-1.160, 3.260e-5
-1.161, 3.392e-5
-1.162, 3.499e-5
-1.163, 3.419e-5
-1.164, 3.316e-5
-1.165, 3.356e-5
-1.166, 3.472e-5
-1.167, 3.575e-5
-1.168, 3.490e-5
-1.169, 3.401e-5
-1.170, 3.428e-5
-1.171, 3.559e-5
-1.172, 3.654e-5
-1.173, 3.554e-5
-1.174, 3.470e-5
-1.175, 3.512e-5
-1.176, 3.625e-5
-1.177, 3.722e-5
-1.178, 3.650e-5
-1.179, 3.544e-5
-1.180, 3.570e-5
-1.181, 3.705e-5
-1.182, 3.776e-5
-1.183, 3.723e-5
-1.184, 3.614e-5
-1.185, 3.639e-5
-1.186, 3.777e-5
-1.187, 3.842e-5
-1.188, 3.775e-5
-1.189, 3.683e-5
-1.190, 3.706e-5
-1.191, 3.846e-5
-1.192, 3.906e-5
-1.193, 3.838e-5
-1.194, 3.750e-5
-1.195, 3.759e-5
-1.196, 3.926e-5
-1.197, 3.980e-5
-1.198, 3.895e-5
-1.199, 3.812e-5
-1.200, 3.829e-5
-1.201, 3.954e-5
-1.202, 4.044e-5
-1.203, 3.960e-5
-1.204, 3.866e-5
-1.205, 3.898e-5
-1.206, 4.014e-5
-1.207, 4.093e-5
-1.208, 4.014e-5
-1.209, 3.917e-5
-1.210, 3.959e-5
-1.211, 4.078e-5
-1.212, 4.147e-5
-1.213, 4.072e-5
-1.214, 3.974e-5
-1.215, 4.012e-5
-1.216, 4.141e-5
-1.217, 4.208e-5
-1.218, 4.132e-5
-1.219, 4.025e-5
-1.220, 4.071e-5
-1.221, 4.197e-5
-1.222, 4.253e-5
-1.223, 4.186e-5
-1.224, 4.085e-5
-1.225, 4.126e-5
-1.226, 4.256e-5
-1.227, 4.320e-5
-1.228, 4.265e-5
-1.229, 4.171e-5
-1.230, 4.182e-5
-1.231, 4.334e-5
-1.232, 4.379e-5
-1.233, 4.291e-5
-1.234, 4.216e-5
-1.235, 4.254e-5
-1.236, 4.394e-5
-1.237, 4.449e-5
-1.238, 4.358e-5
-1.239, 4.289e-5
-1.240, 4.314e-5
-1.241, 4.466e-5
-1.242, 4.523e-5
-1.243, 4.442e-5
-1.244, 4.370e-5
-1.245, 4.410e-5
-1.246, 4.535e-5
-1.247, 4.602e-5
-1.248, 4.530e-5
-1.249, 4.448e-5
-1.250, 4.500e-5
-1.251, 4.628e-5
-1.252, 4.698e-5
-1.253, 4.614e-5
-1.254, 4.539e-5
-1.255, 4.605e-5
-1.256, 4.741e-5
-1.257, 4.783e-5
-1.258, 4.733e-5
-1.259, 4.644e-5
-1.260, 4.705e-5
-1.261, 4.850e-5
-1.262, 4.900e-5
-1.263, 4.864e-5
-1.264, 4.772e-5
-1.265, 4.834e-5
-1.266, 4.995e-5
-1.267, 5.039e-5
-1.268, 4.986e-5
-1.269, 4.917e-5
-1.270, 4.987e-5
-1.271, 5.143e-5
-1.272, 5.182e-5
-1.273, 5.157e-5
-1.274, 5.100e-5
-1.275, 5.141e-5
-1.276, 5.315e-5
-1.277, 5.369e-5
-1.278, 5.309e-5
-1.279, 5.290e-5
-1.280, 5.354e-5
-1.281, 5.499e-5
-1.282, 5.566e-5
-1.283, 5.521e-5
-1.284, 5.462e-5
-1.285, 5.559e-5
-1.286, 5.725e-5
-1.287, 5.781e-5
-1.288, 5.747e-5
-1.289, 5.698e-5
-1.290, 5.785e-5
-1.291, 5.966e-5
-1.292, 6.047e-5
-1.293, 6.022e-5
-1.294, 5.960e-5
-1.295, 6.075e-5
-1.296, 6.241e-5
-1.297, 6.301e-5
-1.298, 6.272e-5
-1.299, 6.256e-5
-1.300, 6.374e-5
-1.301, 6.551e-5
-1.302, 6.636e-5
-1.303, 6.612e-5
-1.304, 6.572e-5
-1.305, 6.682e-5
-1.306, 6.887e-5
-1.307, 6.971e-5
-1.308, 6.965e-5
-1.309, 6.942e-5
-1.310, 7.067e-5
-1.311, 7.273e-5
-1.312, 7.354e-5
-1.313, 7.342e-5
-1.314, 7.352e-5
-1.315, 7.469e-5
-1.316, 7.691e-5
-1.317, 7.813e-5
-1.318, 7.783e-5
-1.319, 7.797e-5
-1.320, 7.948e-5
-1.321, 8.166e-5
-1.322, 8.247e-5
-1.323, 8.270e-5
-1.324, 8.280e-5
-1.325, 8.419e-5
-1.326, 8.638e-5
-1.327, 8.786e-5
-1.328, 8.762e-5
-1.329, 8.828e-5
-1.330, 8.997e-5
-1.331, 9.332e-5
-1.332, 9.366e-5
-1.333, 9.577e-5
-1.334, 9.446e-5
-1.335, 9.610e-5
-1.336, 9.847e-5
-1.337, 1.001e-4
-1.338, 1.003e-4
-1.339, 1.012e-4
-1.340, 1.042e-4
-1.341, 1.055e-4
-1.342, 1.082e-4
-1.343, 1.077e-4
-1.344, 1.087e-4
-1.345, 1.103e-4
-1.346, 1.130e-4
-1.347, 1.145e-4
-1.348, 1.154e-4
-1.349, 1.163e-4
-1.350, 1.183e-4
-1.351, 1.214e-4
-1.352, 1.234e-4
-1.353, 1.238e-4
-1.354, 1.253e-4
-1.355, 1.275e-4
-1.356, 1.303e-4
-1.357, 1.322e-4
-1.358, 1.331e-4
-1.359, 1.354e-4
-1.360, 1.371e-4
-1.361, 1.405e-4
-1.362, 1.426e-4
-1.363, 1.436e-4
-1.364, 1.448e-4
-1.365, 1.475e-4
-1.366, 1.511e-4
-1.367, 1.536e-4
-1.368, 1.545e-4
-1.369, 1.562e-4
-1.370, 1.594e-4
-1.371, 1.627e-4
-1.372, 1.653e-4
-1.373, 1.667e-4
-1.374, 1.685e-4
-1.375, 1.717e-4
-1.376, 1.751e-4
-1.377, 1.779e-4
-1.378, 1.798e-4
-1.379, 1.813e-4
-1.380, 1.854e-4
-1.381, 1.890e-4
-1.382, 1.963e-4
-1.383, 1.937e-4
-1.384, 1.961e-4
-1.385, 2.000e-4
-1.386, 2.038e-4
-1.387, 2.066e-4
-1.388, 2.089e-4
-1.389, 2.109e-4
-1.390, 2.151e-4
-1.391, 2.201e-4
-1.392, 2.228e-4
-1.393, 2.250e-4
-1.394, 2.276e-4
-1.395, 2.315e-4
-1.396, 2.366e-4
-1.397, 2.410e-4
-1.398, 2.429e-4
-1.399, 2.457e-4
-1.400, 2.493e-4
-1.401, 2.540e-4
-1.402, 2.579e-4
-1.403, 2.612e-4
-1.404, 2.642e-4
-1.405, 2.692e-4
-1.406, 2.740e-4
-1.407, 2.777e-4
-1.408, 2.812e-4
-1.409, 2.844e-4
-1.410, 2.892e-4
-1.411, 2.939e-4
-1.412, 2.983e-4
-1.413, 3.021e-4
-1.414, 3.057e-4
-1.415, 3.111e-4
-1.416, 3.159e-4
-1.417, 3.207e-4
-1.418, 3.244e-4
-1.419, 3.285e-4
-1.420, 3.347e-4
-1.421, 3.399e-4
-1.422, 3.481e-4
-1.423, 3.502e-4
-1.424, 3.535e-4
-1.425, 3.588e-4
-1.426, 3.655e-4
-1.427, 3.701e-4
-1.428, 3.745e-4
-1.429, 3.784e-4
-1.430, 3.841e-4
-1.431, 3.907e-4
-1.432, 3.954e-4
-1.433, 4.000e-4
-1.434, 4.048e-4
-1.435, 4.110e-4
-1.436, 4.171e-4
-1.437, 4.226e-4
-1.438, 4.279e-4
-1.439, 4.307e-4
-1.440, 4.390e-4
-1.441, 4.453e-4
-1.442, 4.510e-4
-1.443, 4.550e-4
-1.444, 4.608e-4
-1.445, 4.679e-4
-1.446, 4.733e-4
-1.447, 4.819e-4
-1.448, 4.854e-4
-1.449, 4.902e-4
-1.450, 4.970e-4
-1.451, 5.042e-4
-1.452, 5.108e-4
-1.453, 5.147e-4
-1.454, 5.209e-4
-1.455, 5.286e-4
-1.456, 5.356e-4
-1.457, 5.422e-4
-1.458, 5.469e-4
-1.459, 5.542e-4
-1.460, 5.615e-4
-1.461, 5.690e-4
-1.462, 5.737e-4
-1.463, 5.811e-4
-1.464, 5.866e-4
-1.465, 5.932e-4
-1.466, 6.002e-4
-1.467, 6.070e-4
-1.468, 6.139e-4
-1.469, 6.198e-4
-1.470, 6.278e-4
-1.471, 6.354e-4
-1.472, 6.425e-4
-1.473, 6.473e-4
-1.474, 6.552e-4
-1.475, 6.631e-4
-1.476, 6.712e-4
-1.477, 6.792e-4
-1.478, 6.849e-4
-1.479, 6.918e-4
-1.480, 7.001e-4
-1.481, 7.107e-4
-1.482, 7.181e-4
-1.483, 7.225e-4
-1.484, 7.302e-4
-1.485, 7.397e-4
-1.486, 7.478e-4
-1.487, 7.554e-4
-1.488, 7.626e-4
-1.489, 7.705e-4
-1.490, 7.776e-4
-1.491, 7.863e-4
-1.492, 7.948e-4
-1.493, 8.014e-4
-1.494, 8.095e-4
-1.495, 8.178e-4
-1.496, 8.292e-4
-1.497, 8.361e-4
-1.498, 8.456e-4
-1.499, 8.516e-4
-1.500, 8.578e-4
-1.501, 8.701e-4
-1.502, 8.788e-4
-1.503, 8.830e-4
-1.504, 8.949e-4
-1.505, 9.033e-4
-1.506, 9.134e-4
-1.507, 9.201e-4
-1.508, 9.265e-4
-1.509, 9.335e-4
-1.510, 9.439e-4
-1.511, 9.547e-4
-1.512, 9.635e-4
-1.513, 9.714e-4
-1.514, 9.816e-4
-1.515, 9.892e-4
-1.516, 1.001e-3
-1.517, 1.012e-3
-1.518, 1.020e-3
-1.519, 1.023e-3
-1.520, 1.029e-3
-1.521, 1.045e-3
-1.522, 1.056e-3
-1.523, 1.060e-3
-1.524, 1.069e-3
-1.525, 1.078e-3
-1.526, 1.088e-3
-1.527, 1.099e-3
-1.528, 1.106e-3
-1.529, 1.116e-3
-1.530, 1.127e-3
-1.531, 1.138e-3
-1.532, 1.148e-3
-1.533, 1.156e-3
-1.534, 1.165e-3
-1.535, 1.183e-3
-1.536, 1.191e-3
-1.537, 1.202e-3
-1.538, 1.210e-3
-1.539, 1.221e-3
-1.540, 1.231e-3
-1.541, 1.243e-3
-1.542, 1.254e-3
-1.543, 1.265e-3
-1.544, 1.273e-3
-1.545, 1.282e-3
-1.546, 1.293e-3
-1.547, 1.305e-3
-1.548, 1.314e-3
-1.549, 1.323e-3
-1.550, 1.337e-3
-1.551, 1.351e-3
-1.552, 1.361e-3
-1.553, 1.371e-3
-1.554, 1.380e-3
-1.555, 1.392e-3
-1.556, 1.403e-3
-1.557, 1.413e-3
-1.558, 1.424e-3
-1.559, 1.439e-3
-1.560, 1.451e-3
-1.561, 1.462e-3
-1.562, 1.473e-3
-1.563, 1.485e-3
-1.564, 1.499e-3
-1.565, 1.512e-3
-1.566, 1.523e-3
-1.567, 1.532e-3
-1.568, 1.544e-3
-1.569, 1.561e-3
-1.570, 1.571e-3
-1.571, 1.585e-3
-1.572, 1.597e-3
-1.573, 1.609e-3
-1.574, 1.617e-3
-1.575, 1.633e-3
-1.576, 1.646e-3
-1.577, 1.661e-3
-1.578, 1.671e-3
-1.579, 1.683e-3
-1.580, 1.700e-3
-1.581, 1.711e-3
-1.582, 1.725e-3
-1.583, 1.738e-3
-1.584, 1.751e-3
-1.585, 1.767e-3
-1.586, 1.781e-3
-1.587, 1.797e-3
-1.588, 1.809e-3
-1.589, 1.821e-3
-1.590, 1.832e-3
-1.591, 1.856e-3
-1.592, 1.877e-3
-1.593, 1.891e-3
-1.594, 1.895e-3
-1.595, 1.910e-3
-1.596, 1.924e-3
-1.597, 1.940e-3
-1.598, 1.955e-3
-1.599, 1.972e-3
-1.600, 1.986e-3
-1.601, 2.002e-3
-1.602, 2.015e-3
-1.603, 2.029e-3
-1.604, 2.045e-3
-1.605, 2.059e-3
-1.606, 2.078e-3
-1.607, 2.091e-3
-1.608, 2.106e-3
-1.609, 2.118e-3
-1.610, 2.138e-3
-1.611, 2.155e-3
-1.612, 2.172e-3
-1.613, 2.190e-3
-1.614, 2.206e-3
-1.615, 2.223e-3
-1.616, 2.241e-3
-1.617, 2.259e-3
-1.618, 2.274e-3
-1.619, 2.290e-3
-1.620, 2.309e-3
-1.621, 2.327e-3
-1.622, 2.352e-3
-1.623, 2.373e-3
-1.624, 2.376e-3
-1.625, 2.407e-3
-1.626, 2.427e-3
-1.627, 2.443e-3
-1.628, 2.456e-3
-1.629, 2.471e-3
-1.630, 2.492e-3
-1.631, 2.518e-3
-1.632, 2.541e-3
-1.633, 2.552e-3
-1.634, 2.578e-3
-1.635, 2.601e-3
-1.636, 2.606e-3
-1.637, 2.634e-3
-1.638, 2.663e-3
-1.639, 2.688e-3
-1.640, 2.689e-3
-1.641, 2.728e-3
-1.642, 2.748e-3
-1.643, 2.766e-3
-1.644, 2.789e-3
-1.645, 2.799e-3
-1.646, 2.831e-3
-1.647, 2.843e-3
-1.648, 2.873e-3
-1.649, 2.906e-3
-1.650, 2.924e-3
-1.651, 2.955e-3
-1.652, 2.978e-3
-1.653, 2.996e-3
-1.654, 3.004e-3
-1.655, 3.022e-3
-1.656, 3.046e-3
-1.657, 3.064e-3
-1.658, 3.082e-3
-1.659, 3.109e-3
-1.660, 3.139e-3
-1.661, 3.186e-3
-1.662, 3.210e-3
-1.663, 3.216e-3
-1.664, 3.249e-3
-1.665, 3.282e-3
-1.666, 3.294e-3
-1.667, 3.315e-3
-1.668, 3.342e-3
-1.669, 3.377e-3
-1.670, 3.407e-3
-1.671, 3.431e-3
-1.672, 3.461e-3
-1.673, 3.489e-3
-1.674, 3.515e-3
-1.675, 3.543e-3
-1.676, 3.567e-3
-1.677, 3.594e-3
-1.678, 3.618e-3
-1.679, 3.643e-3
-1.680, 3.663e-3
-1.681, 3.702e-3
-1.682, 3.746e-3
-1.683, 3.780e-3
-1.684, 3.802e-3
-1.685, 3.828e-3
-1.686, 3.855e-3
-1.687, 3.882e-3
-1.688, 3.916e-3
-1.689, 3.957e-3
-1.690, 3.993e-3
-1.691, 4.009e-3
-1.692, 4.031e-3
-1.693, 4.072e-3
-1.694, 4.108e-3
-1.695, 4.136e-3
-1.696, 4.159e-3
-1.697, 4.195e-3
-1.698, 4.225e-3
-1.699, 4.251e-3
-1.700, 4.243e-3
-1.699, 4.191e-3
-1.698, 4.147e-3
-1.697, 4.106e-3
-1.696, 4.049e-3
-1.695, 3.991e-3
-1.694, 3.945e-3
-1.693, 3.898e-3
-1.692, 3.862e-3
-1.691, 3.820e-3
-1.690, 3.768e-3
-1.689, 3.715e-3
-1.688, 3.665e-3
-1.687, 3.636e-3
-1.686, 3.607e-3
-1.685, 3.563e-3
-1.684, 3.500e-3
-1.683, 3.449e-3
-1.682, 3.409e-3
-1.681, 3.388e-3
-1.680, 3.347e-3
-1.679, 3.305e-3
-1.678, 3.268e-3
-1.677, 3.234e-3
-1.676, 3.169e-3
-1.675, 3.133e-3
-1.674, 3.138e-3
-1.673, 3.132e-3
-1.672, 3.082e-3
-1.671, 3.043e-3
-1.670, 3.004e-3
-1.669, 2.960e-3
-1.668, 2.915e-3
-1.667, 2.880e-3
-1.666, 2.840e-3
-1.665, 2.806e-3
-1.664, 2.772e-3
-1.663, 2.730e-3
-1.662, 2.701e-3
-1.661, 2.663e-3
-1.660, 2.627e-3
-1.659, 2.589e-3
-1.658, 2.556e-3
-1.657, 2.526e-3
-1.656, 2.491e-3
-1.655, 2.465e-3
-1.654, 2.438e-3
-1.653, 2.404e-3
-1.652, 2.373e-3
-1.651, 2.340e-3
-1.650, 2.309e-3
-1.649, 2.277e-3
-1.648, 2.246e-3
-1.647, 2.216e-3
-1.646, 2.188e-3
-1.645, 2.166e-3
-1.644, 2.133e-3
-1.643, 2.106e-3
-1.642, 2.077e-3
-1.641, 2.047e-3
-1.640, 2.020e-3
-1.639, 1.994e-3
-1.638, 1.966e-3
-1.637, 1.943e-3
-1.636, 1.919e-3
-1.635, 1.895e-3
-1.634, 1.867e-3
-1.633, 1.841e-3
-1.632, 1.814e-3
-1.631, 1.793e-3
-1.630, 1.771e-3
-1.629, 1.749e-3
-1.628, 1.727e-3
-1.627, 1.705e-3
-1.626, 1.695e-3
-1.625, 1.690e-3
-1.624, 1.663e-3
-1.623, 1.637e-3
-1.622, 1.614e-3
-1.621, 1.591e-3
-1.620, 1.583e-3
-1.619, 1.556e-3
-1.618, 1.536e-3
-1.617, 1.516e-3
-1.616, 1.491e-3
-1.615, 1.473e-3
-1.614, 1.451e-3
-1.613, 1.430e-3
-1.612, 1.411e-3
-1.611, 1.393e-3
-1.610, 1.375e-3
-1.609, 1.357e-3
-1.608, 1.339e-3
-1.607, 1.318e-3
-1.606, 1.303e-3
-1.605, 1.287e-3
-1.604, 1.270e-3
-1.603, 1.251e-3
-1.602, 1.234e-3
-1.601, 1.220e-3
-1.600, 1.206e-3
-1.599, 1.187e-3
-1.598, 1.173e-3
-1.597, 1.157e-3
-1.596, 1.141e-3
-1.595, 1.129e-3
-1.594, 1.113e-3
-1.593, 1.101e-3
-1.592, 1.087e-3
-1.591, 1.072e-3
-1.590, 1.057e-3
-1.589, 1.044e-3
-1.588, 1.030e-3
-1.587, 1.016e-3
-1.586, 1.002e-3
-1.585, 9.967e-4
-1.584, 9.915e-4
-1.583, 9.809e-4
-1.582, 9.588e-4
-1.581, 9.447e-4
-1.580, 9.325e-4
-1.579, 9.207e-4
-1.578, 9.101e-4
-1.577, 8.993e-4
-1.576, 8.903e-4
-1.575, 8.792e-4
-1.574, 8.660e-4
-1.573, 8.543e-4
-1.572, 8.410e-4
-1.571, 8.297e-4
-1.570, 8.190e-4
-1.569, 8.086e-4
-1.568, 7.971e-4
-1.567, 7.854e-4
-1.566, 7.767e-4
-1.565, 7.669e-4
-1.564, 7.565e-4
-1.563, 7.452e-4
-1.562, 7.349e-4
-1.561, 7.268e-4
-1.560, 7.183e-4
-1.559, 7.085e-4
-1.558, 6.976e-4
-1.557, 6.875e-4
-1.556, 6.790e-4
-1.555, 6.698e-4
-1.554, 6.624e-4
-1.553, 6.531e-4
-1.552, 6.427e-4
-1.551, 6.354e-4
-1.550, 6.276e-4
-1.549, 6.215e-4
-1.548, 6.126e-4
-1.547, 6.031e-4
-1.546, 5.960e-4
-1.545, 5.892e-4
-1.544, 5.802e-4
-1.543, 5.728e-4
-1.542, 5.644e-4
-1.541, 5.580e-4
-1.540, 5.508e-4
-1.539, 5.439e-4
-1.538, 5.348e-4
-1.537, 5.269e-4
-1.536, 5.204e-4
-1.535, 5.151e-4
-1.534, 5.090e-4
-1.533, 5.022e-4
-1.532, 4.942e-4
-1.531, 4.880e-4
-1.530, 4.830e-4
-1.529, 4.766e-4
-1.528, 4.695e-4
-1.527, 4.624e-4
-1.526, 4.570e-4
-1.525, 4.524e-4
-1.524, 4.481e-4
-1.523, 4.402e-4
-1.522, 4.336e-4
-1.521, 4.284e-4
-1.520, 4.243e-4
-1.519, 4.187e-4
-1.518, 4.106e-4
-1.517, 4.049e-4
-1.516, 4.004e-4
-1.515, 3.982e-4
-1.514, 3.920e-4
-1.513, 3.861e-4
-1.512, 3.799e-4
-1.511, 3.757e-4
-1.510, 3.719e-4
-1.509, 3.660e-4
-1.508, 3.609e-4
-1.507, 3.551e-4
-1.506, 3.518e-4
-1.505, 3.472e-4
-1.504, 3.430e-4
-1.503, 3.373e-4
-1.502, 3.312e-4
-1.501, 3.279e-4
-1.500, 3.247e-4
-1.499, 3.204e-4
-1.498, 3.149e-4
-1.497, 3.105e-4
-1.496, 3.068e-4
-1.495, 3.064e-4
-1.494, 3.000e-4
-1.493, 2.954e-4
-1.492, 2.907e-4
-1.491, 2.868e-4
-1.490, 2.841e-4
-1.489, 2.799e-4
-1.488, 2.760e-4
-1.487, 2.714e-4
-1.486, 2.682e-4
-1.485, 2.657e-4
-1.484, 2.616e-4
-1.483, 2.569e-4
-1.482, 2.529e-4
-1.481, 2.501e-4
-1.480, 2.476e-4
-1.479, 2.443e-4
-1.478, 2.392e-4
-1.477, 2.348e-4
-1.476, 2.326e-4
-1.475, 2.300e-4
-1.474, 2.268e-4
-1.473, 2.232e-4
-1.472, 2.187e-4
-1.471, 2.165e-4
-1.470, 2.142e-4
-1.469, 2.115e-4
-1.468, 2.071e-4
-1.467, 2.031e-4
-1.466, 2.009e-4
-1.465, 1.989e-4
-1.464, 1.959e-4
-1.463, 1.924e-4
-1.462, 1.882e-4
-1.461, 1.864e-4
-1.460, 1.855e-4
-1.459, 1.819e-4
-1.458, 1.782e-4
-1.457, 1.748e-4
-1.456, 1.731e-4
-1.455, 1.715e-4
-1.454, 1.691e-4
-1.453, 1.651e-4
-1.452, 1.623e-4
-1.451, 1.603e-4
-1.450, 1.588e-4
-1.449, 1.564e-4
-1.448, 1.525e-4
-1.447, 1.497e-4
-1.446, 1.483e-4
-1.445, 1.468e-4
-1.444, 1.444e-4
-1.443, 1.408e-4
-1.442, 1.383e-4
-1.441, 1.369e-4
-1.440, 1.356e-4
-1.439, 1.332e-4
-1.438, 1.296e-4
-1.437, 1.273e-4
-1.436, 1.260e-4
-1.435, 1.247e-4
-1.434, 1.227e-4
-1.433, 1.193e-4
-1.432, 1.170e-4
-1.431, 1.160e-4
-1.430, 1.148e-4
-1.429, 1.129e-4
-1.428, 1.097e-4
-1.427, 1.073e-4
-1.426, 1.065e-4
-1.425, 1.055e-4
-1.424, 1.037e-4
-1.423, 1.007e-4
-1.422, 9.826e-5
-1.421, 9.748e-5
-1.420, 9.681e-5
-1.419, 9.488e-5
-1.418, 9.186e-5
-1.417, 8.978e-5
-1.416, 8.932e-5
-1.415, 8.861e-5
-1.414, 8.831e-5
-1.413, 8.462e-5
-1.412, 8.254e-5
-1.411, 8.158e-5
-1.410, 8.135e-5
-1.409, 7.953e-5
-1.408, 7.651e-5
-1.407, 7.476e-5
-1.406, 7.429e-5
-1.405, 7.377e-5
-1.404, 7.196e-5
-1.403, 6.920e-5
-1.402, 6.764e-5
-1.401, 6.703e-5
-1.400, 6.689e-5
-1.399, 6.504e-5
-1.398, 6.247e-5
-1.397, 6.099e-5
-1.396, 6.049e-5
-1.395, 6.028e-5
-1.394, 5.861e-5
-1.393, 5.592e-5
-1.392, 5.471e-5
-1.391, 5.433e-5
-1.390, 5.403e-5
-1.389, 5.269e-5
-1.388, 5.017e-5
-1.387, 4.872e-5
-1.386, 4.867e-5
-1.385, 4.834e-5
-1.384, 4.695e-5
-1.383, 4.453e-5
-1.382, 4.323e-5
-1.381, 4.307e-5
-1.380, 4.315e-5
-1.379, 4.161e-5
-1.378, 3.934e-5
-1.377, 3.806e-5
-1.376, 3.817e-5
-1.375, 3.808e-5
-1.374, 3.666e-5
-1.373, 3.450e-5
-1.372, 3.334e-5
-1.371, 3.336e-5
-1.370, 3.343e-5
-1.369, 3.193e-5
-1.368, 2.980e-5
-1.367, 2.880e-5
-1.366, 2.878e-5
-1.365, 2.901e-5
-1.364, 2.757e-5
-1.363, 2.550e-5
-1.362, 2.448e-5
-1.361, 2.461e-5
-1.360, 2.479e-5
-1.359, 2.357e-5
-1.358, 2.131e-5
-1.357, 2.055e-5
-1.356, 2.072e-5
-1.355, 2.085e-5
-1.354, 1.966e-5
-1.353, 1.769e-5
-1.352, 1.688e-5
-1.351, 1.720e-5
-1.350, 1.739e-5
-1.349, 1.616e-5
-1.348, 1.428e-5
-1.347, 1.332e-5
-1.346, 1.389e-5
-1.345, 1.410e-5
-1.344, 1.291e-5
-1.343, 1.104e-5
-1.342, 1.024e-5
-1.341, 1.085e-5
-1.340, 1.126e-5
-1.339, 9.773e-6
-1.338, 8.083e-6
-1.337, 7.369e-6
-1.336, 7.864e-6
-1.335, 8.251e-6
-1.334, 6.833e-6
-1.333, 5.274e-6
-1.332, 4.659e-6
-1.331, 5.034e-6
-1.330, 5.518e-6
-1.329, 4.266e-6
-1.328, 2.606e-6
-1.327, 2.048e-6
-1.326, 2.577e-6
-1.325, 3.010e-6
-1.324, 1.816e-6
-1.323, 8.564e-8
-1.322, -3.741e-7
-1.321, 2.228e-7
-1.320, 8.059e-7
-1.319, -5.241e-7
-1.318, -2.148e-6
-1.317, -2.484e-6
-1.316, -1.888e-6
-1.315, -1.382e-6
-1.314, -2.289e-6
-1.313, -4.146e-6
-1.312, -4.471e-6
-1.311, -3.770e-6
-1.310, -3.490e-6
-1.309, -4.473e-6
-1.308, -5.984e-6
-1.307, -6.489e-6
-1.306, -5.571e-6
-1.305, -5.222e-6
-1.304, -6.233e-6
-1.303, -7.681e-6
-1.302, -8.192e-6
-1.301, -7.250e-6
-1.300, -6.791e-6
-1.299, -8.032e-6
-1.298, -9.390e-6
-1.297, -9.721e-6
-1.296, -8.767e-6
-1.295, -8.341e-6
-1.294, -9.591e-6
-1.293, -1.087e-5
-1.292, -1.114e-5
-1.291, -1.028e-5
-1.290, -9.738e-6
-1.289, -1.103e-5
-1.288, -1.218e-5
-1.287, -1.243e-5
-1.286, -1.175e-5
-1.285, -1.102e-5
-1.284, -1.221e-5
-1.283, -1.365e-5
-1.282, -1.369e-5
-1.281, -1.288e-5
-1.280, -1.241e-5
-1.279, -1.348e-5
-1.278, -1.480e-5
-1.277, -1.482e-5
-1.276, -1.390e-5
-1.275, -1.354e-5
-1.274, -1.452e-5
-1.273, -1.595e-5
-1.272, -1.596e-5
-1.271, -1.490e-5
-1.270, -1.460e-5
-1.269, -1.558e-5
-1.268, -1.683e-5
-1.267, -1.701e-5
-1.266, -1.594e-5
-1.265, -1.548e-5
-1.264, -1.652e-5
-1.263, -1.775e-5
-1.262, -1.783e-5
-1.261, -1.682e-5
-1.260, -1.644e-5
-1.259, -1.758e-5
-1.258, -1.875e-5
-1.257, -1.872e-5
-1.256, -1.764e-5
-1.255, -1.726e-5
-1.254, -1.844e-5
-1.253, -1.955e-5
-1.252, -1.946e-5
-1.251, -1.847e-5
-1.250, -1.813e-5
-1.249, -1.919e-5
-1.248, -2.032e-5
-1.247, -2.028e-5
-1.246, -1.928e-5
-1.245, -1.887e-5
-1.244, -1.997e-5
-1.243, -2.113e-5
-1.242, -2.099e-5
-1.241, -2.004e-5
-1.240, -1.959e-5
-1.239, -2.073e-5
-1.238, -2.195e-5
-1.237, -2.166e-5
-1.236, -2.061e-5
-1.235, -2.041e-5
-1.234, -2.145e-5
-1.233, -2.275e-5
-1.232, -2.246e-5
-1.231, -2.129e-5
-1.230, -2.124e-5
-1.229, -2.255e-5
-1.228, -2.346e-5
-1.227, -2.334e-5
-1.226, -2.212e-5
-1.225, -2.198e-5
-1.224, -2.296e-5
-1.223, -2.415e-5
-1.222, -2.402e-5
-1.221, -2.284e-5
-1.220, -2.266e-5
-1.219, -2.385e-5
-1.218, -2.488e-5
-1.217, -2.483e-5
-1.216, -2.356e-5
-1.215, -2.346e-5
-1.214, -2.469e-5
-1.213, -2.560e-5
-1.212, -2.537e-5
-1.211, -2.438e-5
-1.210, -2.419e-5
-1.209, -2.540e-5
-1.208, -2.640e-5
-1.207, -2.605e-5
-1.206, -2.519e-5
-1.205, -2.486e-5
-1.204, -2.610e-5
-1.203, -2.732e-5
-1.202, -2.696e-5
-1.201, -2.592e-5
-1.200, -2.572e-5
-1.199, -2.687e-5
-1.198, -2.815e-5
-1.197, -2.775e-5
-1.196, -2.664e-5
-1.195, -2.670e-5
-1.194, -2.774e-5
-1.193, -2.889e-5
-1.192, -2.860e-5
-1.191, -2.750e-5
-1.190, -2.756e-5
-1.189, -2.867e-5
-1.188, -2.974e-5
-1.187, -2.954e-5
-1.186, -2.846e-5
-1.185, -2.847e-5
-1.184, -2.959e-5
-1.183, -3.077e-5
-1.182, -3.046e-5
-1.181, -2.938e-5
-1.180, -2.938e-5
-1.179, -3.080e-5
-1.178, -3.196e-5
-1.177, -3.145e-5
-1.176, -3.042e-5
-1.175, -3.055e-5
-1.174, -3.177e-5
-1.173, -3.294e-5
-1.172, -3.254e-5
-1.171, -3.163e-5
-1.170, -3.161e-5
-1.169, -3.300e-5
-1.168, -3.414e-5
-1.167, -3.387e-5
-1.166, -3.281e-5
-1.165, -3.277e-5
-1.164, -3.427e-5
-1.163, -3.543e-5
-1.162, -3.500e-5
-1.161, -3.432e-5
-1.160, -3.424e-5
-1.159, -3.561e-5
-1.158, -3.695e-5
-1.157, -3.644e-5
-1.156, -3.559e-5
-1.155, -3.591e-5
-1.154, -3.717e-5
-1.153, -3.849e-5
-1.152, -3.795e-5
-1.151, -3.717e-5
-1.150, -3.757e-5
-1.149, -3.889e-5
-1.148, -4.006e-5
-1.147, -3.974e-5
-1.146, -3.897e-5
-1.145, -3.936e-5
-1.144, -4.074e-5
-1.143, -4.205e-5
-1.142, -4.162e-5
-1.141, -4.078e-5
-1.140, -4.117e-5
-1.139, -4.286e-5
-1.138, -4.402e-5
-1.137, -4.380e-5
-1.136, -4.294e-5
-1.135, -4.325e-5
-1.134, -4.507e-5
-1.133, -4.616e-5
-1.132, -4.584e-5
-1.131, -4.529e-5
-1.130, -4.560e-5
-1.129, -4.733e-5
-1.128, -4.856e-5
-1.127, -4.818e-5
-1.126, -4.776e-5
-1.125, -4.808e-5
-1.124, -4.980e-5
-1.123, -5.123e-5
-1.122, -5.075e-5
-1.121, -5.029e-5
-1.120, -5.079e-5
-1.119, -5.256e-5
-1.118, -5.395e-5
-1.117, -5.346e-5
-1.116, -5.299e-5
-1.115, -5.369e-5
-1.114, -5.539e-5
-1.113, -5.683e-5
-1.112, -5.646e-5
-1.111, -5.595e-5
-1.110, -5.674e-5
-1.109, -5.857e-5
-1.108, -5.977e-5
-1.107, -5.946e-5
-1.106, -5.914e-5
-1.105, -5.987e-5
-1.104, -6.171e-5
-1.103, -6.315e-5
-1.102, -6.269e-5
-1.101, -6.244e-5
-1.100, -6.305e-5
-1.099, -6.521e-5
-1.098, -6.623e-5
-1.097, -6.622e-5
-1.096, -6.577e-5
-1.095, -6.652e-5
-1.094, -6.890e-5
-1.093, -6.991e-5
-1.092, -6.962e-5
-1.091, -6.944e-5
-1.090, -7.006e-5
-1.089, -7.223e-5
-1.088, -7.333e-5
-1.087, -7.337e-5
-1.086, -7.313e-5
-1.085, -7.386e-5
-1.084, -7.585e-5
-1.083, -7.755e-5
-1.082, -7.743e-5
-1.081, -7.640e-5
-1.080, -7.752e-5
-1.079, -7.972e-5
-1.078, -8.118e-5
-1.077, -8.100e-5
-1.076, -8.068e-5
-1.075, -8.183e-5
-1.074, -8.376e-5
-1.073, -8.495e-5
-1.072, -8.490e-5
-1.071, -8.462e-5
-1.070, -8.580e-5
-1.069, -8.784e-5
-1.068, -8.903e-5
-1.067, -8.904e-5
-1.066, -8.879e-5
-1.065, -8.995e-5
-1.064, -9.207e-5
-1.063, -9.327e-5
-1.062, -9.347e-5
-1.061, -9.305e-5
-1.060, -9.427e-5
-1.059, -9.654e-5
-1.058, -9.767e-5
-1.057, -9.811e-5
-1.056, -9.782e-5
-1.055, -9.861e-5
-1.054, -1.014e-4
-1.053, -1.024e-4
-1.052, -1.024e-4
-1.051, -1.022e-4
-1.050, -1.035e-4
-1.049, -1.061e-4
-1.048, -1.073e-4
-1.047, -1.074e-4
-1.046, -1.073e-4
-1.045, -1.084e-4
-1.044, -1.109e-4
-1.043, -1.122e-4
-1.042, -1.125e-4
-1.041, -1.123e-4
-1.040, -1.139e-4
-1.039, -1.165e-4
-1.038, -1.177e-4
-1.037, -1.176e-4
-1.036, -1.180e-4
-1.035, -1.194e-4
-1.034, -1.219e-4
-1.033, -1.234e-4
-1.032, -1.234e-4
-1.031, -1.237e-4
-1.030, -1.256e-4
-1.029, -1.281e-4
-1.028, -1.298e-4
-1.027, -1.297e-4
-1.026, -1.298e-4
-1.025, -1.319e-4
-1.024, -1.344e-4
-1.023, -1.360e-4
-1.022, -1.364e-4
-1.021, -1.368e-4
-1.020, -1.387e-4
-1.019, -1.420e-4
-1.018, -1.433e-4
-1.017, -1.434e-4
-1.016, -1.438e-4
-1.015, -1.461e-4
-1.014, -1.489e-4
-1.013, -1.504e-4
-1.012, -1.510e-4
-1.011, -1.516e-4
-1.010, -1.538e-4
-1.009, -1.568e-4
-1.008, -1.587e-4
-1.007, -1.594e-4
-1.006, -1.597e-4
-1.005, -1.622e-4
-1.004, -1.652e-4
-1.003, -1.674e-4
-1.002, -1.679e-4
-1.001, -1.690e-4
