Aug. 5, 2024   04:56:47
Linear Sweep Voltammetry
File: c:/users/guazh/data/20240802_batch_500/2024-08-02-exp22\1acid_3ac-2024-08-05t04_53_33-lsvinphos\1acid_3ac_lsv_50mvs_efin_-2300mv.bin
Data Source:  Experiment
Instrument Model:  CHI760E
Header: LSV ran at 50 mVs with Efin at -2300mV
Note: 

Init E (V) = -0.6
Final E (V) = -2.3
Scan Rate (V/s) = 0.05
Sample Interval (V) = 0.001
Quiet Time (sec) = 2
Sensitivity (A/V) = 1e-4
Comp R (ohm) = 8.7

Results:

Channel 1:
Ep = -2.047V
ip = 8.014e-4A
Ah = 1.098e-3C

Potential/V, Current/A

-0.600, 2.222e-6
-0.601, 2.305e-6
-0.602, 2.347e-6
-0.603, 2.381e-6
-0.604, 2.413e-6
-0.605, 2.442e-6
-0.606, 2.469e-6
-0.607, 2.493e-6
-0.608, 2.521e-6
-0.609, 2.551e-6
-0.610, 2.579e-6
-0.611, 2.604e-6
-0.612, 2.630e-6
-0.613, 2.655e-6
-0.614, 2.684e-6
-0.615, 2.713e-6
-0.616, 2.738e-6
-0.617, 2.764e-6
-0.618, 2.790e-6
-0.619, 2.818e-6
-0.620, 2.846e-6
-0.621, 2.871e-6
-0.622, 2.897e-6
-0.623, 2.923e-6
-0.624, 2.951e-6
-0.625, 2.979e-6
-0.626, 3.004e-6
-0.627, 3.031e-6
-0.628, 3.058e-6
-0.629, 3.086e-6
-0.630, 3.117e-6
-0.631, 3.142e-6
-0.632, 3.169e-6
-0.633, 3.198e-6
-0.634, 3.226e-6
-0.635, 3.255e-6
-0.636, 3.282e-6
-0.637, 3.309e-6
-0.638, 3.337e-6
-0.639, 3.367e-6
-0.640, 3.399e-6
-0.641, 3.428e-6
-0.642, 3.456e-6
-0.643, 3.488e-6
-0.644, 3.521e-6
-0.645, 3.552e-6
-0.646, 3.580e-6
-0.647, 3.608e-6
-0.648, 3.639e-6
-0.649, 3.670e-6
-0.650, 3.702e-6
-0.651, 3.731e-6
-0.652, 3.760e-6
-0.653, 3.790e-6
-0.654, 3.823e-6
-0.655, 3.855e-6
-0.656, 3.886e-6
-0.657, 3.915e-6
-0.658, 3.945e-6
-0.659, 3.979e-6
-0.660, 4.010e-6
-0.661, 4.039e-6
-0.662, 4.068e-6
-0.663, 4.099e-6
-0.664, 4.131e-6
-0.665, 4.164e-6
-0.666, 4.195e-6
-0.667, 4.225e-6
-0.668, 4.256e-6
-0.669, 4.287e-6
-0.670, 4.322e-6
-0.671, 4.354e-6
-0.672, 4.386e-6
-0.673, 4.416e-6
-0.674, 4.449e-6
-0.675, 4.483e-6
-0.676, 4.516e-6
-0.677, 4.548e-6
-0.678, 4.580e-6
-0.679, 4.614e-6
-0.680, 4.648e-6
-0.681, 4.680e-6
-0.682, 4.710e-6
-0.683, 4.743e-6
-0.684, 4.779e-6
-0.685, 4.814e-6
-0.686, 4.846e-6
-0.687, 4.876e-6
-0.688, 4.909e-6
-0.689, 4.944e-6
-0.690, 4.978e-6
-0.691, 5.012e-6
-0.692, 5.044e-6
-0.693, 5.077e-6
-0.694, 5.110e-6
-0.695, 5.146e-6
-0.696, 5.177e-6
-0.697, 5.209e-6
-0.698, 5.242e-6
-0.699, 5.276e-6
-0.700, 5.312e-6
-0.701, 5.343e-6
-0.702, 5.375e-6
-0.703, 5.408e-6
-0.704, 5.442e-6
-0.705, 5.478e-6
-0.706, 5.509e-6
-0.707, 5.540e-6
-0.708, 5.572e-6
-0.709, 5.604e-6
-0.710, 5.639e-6
-0.711, 5.669e-6
-0.712, 5.702e-6
-0.713, 5.733e-6
-0.714, 5.766e-6
-0.715, 5.799e-6
-0.716, 5.831e-6
-0.717, 5.862e-6
-0.718, 5.892e-6
-0.719, 5.920e-6
-0.720, 5.952e-6
-0.721, 5.984e-6
-0.722, 6.014e-6
-0.723, 6.044e-6
-0.724, 6.076e-6
-0.725, 6.108e-6
-0.726, 6.138e-6
-0.727, 6.166e-6
-0.728, 6.195e-6
-0.729, 6.223e-6
-0.730, 6.253e-6
-0.731, 6.283e-6
-0.732, 6.311e-6
-0.733, 6.339e-6
-0.734, 6.370e-6
-0.735, 6.399e-6
-0.736, 6.429e-6
-0.737, 6.457e-6
-0.738, 6.483e-6
-0.739, 6.512e-6
-0.740, 6.541e-6
-0.741, 6.569e-6
-0.742, 6.595e-6
-0.743, 6.621e-6
-0.744, 6.647e-6
-0.745, 6.676e-6
-0.746, 6.703e-6
-0.747, 6.727e-6
-0.748, 6.751e-6
-0.749, 6.778e-6
-0.750, 6.805e-6
-0.751, 6.830e-6
-0.752, 6.852e-6
-0.753, 6.875e-6
-0.754, 6.897e-6
-0.755, 6.923e-6
-0.756, 6.948e-6
-0.757, 6.969e-6
-0.758, 6.992e-6
-0.759, 7.012e-6
-0.760, 7.035e-6
-0.761, 7.058e-6
-0.762, 7.078e-6
-0.763, 7.100e-6
-0.764, 7.120e-6
-0.765, 7.141e-6
-0.766, 7.162e-6
-0.767, 7.180e-6
-0.768, 7.200e-6
-0.769, 7.220e-6
-0.770, 7.239e-6
-0.771, 7.257e-6
-0.772, 7.274e-6
-0.773, 7.289e-6
-0.774, 7.306e-6
-0.775, 7.325e-6
-0.776, 7.343e-6
-0.777, 7.359e-6
-0.778, 7.375e-6
-0.779, 7.390e-6
-0.780, 7.408e-6
-0.781, 7.423e-6
-0.782, 7.436e-6
-0.783, 7.450e-6
-0.784, 7.463e-6
-0.785, 7.474e-6
-0.786, 7.488e-6
-0.787, 7.500e-6
-0.788, 7.511e-6
-0.789, 7.522e-6
-0.790, 7.536e-6
-0.791, 7.549e-6
-0.792, 7.558e-6
-0.793, 7.567e-6
-0.794, 7.577e-6
-0.795, 7.590e-6
-0.796, 7.600e-6
-0.797, 7.608e-6
-0.798, 7.616e-6
-0.799, 7.624e-6
-0.800, 7.634e-6
-0.801, 7.644e-6
-0.802, 7.650e-6
-0.803, 7.657e-6
-0.804, 7.663e-6
-0.805, 7.670e-6
-0.806, 7.679e-6
-0.807, 7.685e-6
-0.808, 7.690e-6
-0.809, 7.694e-6
-0.810, 7.701e-6
-0.811, 7.708e-6
-0.812, 7.712e-6
-0.813, 7.716e-6
-0.814, 7.719e-6
-0.815, 7.725e-6
-0.816, 7.731e-6
-0.817, 7.733e-6
-0.818, 7.735e-6
-0.819, 7.739e-6
-0.820, 7.747e-6
-0.821, 7.747e-6
-0.822, 7.749e-6
-0.823, 7.748e-6
-0.824, 7.750e-6
-0.825, 7.753e-6
-0.826, 7.760e-6
-0.827, 7.771e-6
-0.828, 7.774e-6
-0.829, 7.772e-6
-0.830, 7.774e-6
-0.831, 7.775e-6
-0.832, 7.773e-6
-0.833, 7.772e-6
-0.834, 7.769e-6
-0.835, 7.772e-6
-0.836, 7.771e-6
-0.837, 7.768e-6
-0.838, 7.779e-6
-0.839, 7.786e-6
-0.840, 7.786e-6
-0.841, 7.787e-6
-0.842, 7.784e-6
-0.843, 7.781e-6
-0.844, 7.778e-6
-0.845, 7.778e-6
-0.846, 7.778e-6
-0.847, 7.774e-6
-0.848, 7.771e-6
-0.849, 7.768e-6
-0.850, 7.765e-6
-0.851, 7.766e-6
-0.852, 7.764e-6
-0.853, 7.760e-6
-0.854, 7.757e-6
-0.855, 7.753e-6
-0.856, 7.752e-6
-0.857, 7.746e-6
-0.858, 7.743e-6
-0.859, 7.738e-6
-0.860, 7.734e-6
-0.861, 7.733e-6
-0.862, 7.728e-6
-0.863, 7.723e-6
-0.864, 7.718e-6
-0.865, 7.714e-6
-0.866, 7.712e-6
-0.867, 7.708e-6
-0.868, 7.703e-6
-0.869, 7.698e-6
-0.870, 7.696e-6
-0.871, 7.694e-6
-0.872, 7.687e-6
-0.873, 7.680e-6
-0.874, 7.672e-6
-0.875, 7.670e-6
-0.876, 7.667e-6
-0.877, 7.662e-6
-0.878, 7.655e-6
-0.879, 7.648e-6
-0.880, 7.645e-6
-0.881, 7.643e-6
-0.882, 7.637e-6
-0.883, 7.633e-6
-0.884, 7.627e-6
-0.885, 7.622e-6
-0.886, 7.620e-6
-0.887, 7.614e-6
-0.888, 7.607e-6
-0.889, 7.603e-6
-0.890, 7.600e-6
-0.891, 7.596e-6
-0.892, 7.585e-6
-0.893, 7.578e-6
-0.894, 7.571e-6
-0.895, 7.569e-6
-0.896, 7.566e-6
-0.897, 7.562e-6
-0.898, 7.556e-6
-0.899, 7.551e-6
-0.900, 7.547e-6
-0.901, 7.544e-6
-0.902, 7.539e-6
-0.903, 7.533e-6
-0.904, 7.527e-6
-0.905, 7.524e-6
-0.906, 7.520e-6
-0.907, 7.516e-6
-0.908, 7.509e-6
-0.909, 7.504e-6
-0.910, 7.500e-6
-0.911, 7.496e-6
-0.912, 7.491e-6
-0.913, 7.486e-6
-0.914, 7.478e-6
-0.915, 7.474e-6
-0.916, 7.473e-6
-0.917, 7.469e-6
-0.918, 7.463e-6
-0.919, 7.456e-6
-0.920, 7.452e-6
-0.921, 7.451e-6
-0.922, 7.448e-6
-0.923, 7.444e-6
-0.924, 7.438e-6
-0.925, 7.431e-6
-0.926, 7.431e-6
-0.927, 7.426e-6
-0.928, 7.422e-6
-0.929, 7.417e-6
-0.930, 7.411e-6
-0.931, 7.409e-6
-0.932, 7.405e-6
-0.933, 7.399e-6
-0.934, 7.395e-6
-0.935, 7.389e-6
-0.936, 7.388e-6
-0.937, 7.384e-6
-0.938, 7.378e-6
-0.939, 7.375e-6
-0.940, 7.371e-6
-0.941, 7.370e-6
-0.942, 7.367e-6
-0.943, 7.362e-6
-0.944, 7.358e-6
-0.945, 7.355e-6
-0.946, 7.354e-6
-0.947, 7.352e-6
-0.948, 7.348e-6
-0.949, 7.342e-6
-0.950, 7.340e-6
-0.951, 7.339e-6
-0.952, 7.335e-6
-0.953, 7.331e-6
-0.954, 7.328e-6
-0.955, 7.324e-6
-0.956, 7.322e-6
-0.957, 7.320e-6
-0.958, 7.314e-6
-0.959, 7.311e-6
-0.960, 7.309e-6
-0.961, 7.309e-6
-0.962, 7.307e-6
-0.963, 7.301e-6
-0.964, 7.298e-6
-0.965, 7.295e-6
-0.966, 7.295e-6
-0.967, 7.293e-6
-0.968, 7.289e-6
-0.969, 7.286e-6
-0.970, 7.285e-6
-0.971, 7.285e-6
-0.972, 7.283e-6
-0.973, 7.280e-6
-0.974, 7.276e-6
-0.975, 7.275e-6
-0.976, 7.276e-6
-0.977, 7.273e-6
-0.978, 7.268e-6
-0.979, 7.265e-6
-0.980, 7.264e-6
-0.981, 7.263e-6
-0.982, 7.264e-6
-0.983, 7.259e-6
-0.984, 7.256e-6
-0.985, 7.256e-6
-0.986, 7.255e-6
-0.987, 7.254e-6
-0.988, 7.249e-6
-0.989, 7.247e-6
-0.990, 7.245e-6
-0.991, 7.245e-6
-0.992, 7.247e-6
-0.993, 7.241e-6
-0.994, 7.237e-6
-0.995, 7.236e-6
-0.996, 7.237e-6
-0.997, 7.236e-6
-0.998, 7.232e-6
-0.999, 7.231e-6
-1.000, 7.228e-6
-1.001, 7.230e-6
-1.002, 7.229e-6
-1.003, 7.226e-6
-1.004, 7.233e-6
-1.005, 7.233e-6
-1.006, 7.229e-6
-1.007, 7.226e-6
-1.008, 7.224e-6
-1.009, 7.221e-6
-1.010, 7.219e-6
-1.011, 7.220e-6
-1.012, 7.219e-6
-1.013, 7.217e-6
-1.014, 7.216e-6
-1.015, 7.213e-6
-1.016, 7.213e-6
-1.017, 7.212e-6
-1.018, 7.211e-6
-1.019, 7.208e-6
-1.020, 7.205e-6
-1.021, 7.203e-6
-1.022, 7.205e-6
-1.023, 7.204e-6
-1.024, 7.204e-6
-1.025, 7.203e-6
-1.026, 7.202e-6
-1.027, 7.203e-6
-1.028, 7.200e-6
-1.029, 7.198e-6
-1.030, 7.196e-6
-1.031, 7.195e-6
-1.032, 7.196e-6
-1.033, 7.197e-6
-1.034, 7.196e-6
-1.035, 7.196e-6
-1.036, 7.198e-6
-1.037, 7.197e-6
-1.038, 7.196e-6
-1.039, 7.193e-6
-1.040, 7.191e-6
-1.041, 7.193e-6
-1.042, 7.194e-6
-1.043, 7.193e-6
-1.044, 7.191e-6
-1.045, 7.191e-6
-1.046, 7.192e-6
-1.047, 7.194e-6
-1.048, 7.191e-6
-1.049, 7.192e-6
-1.050, 7.192e-6
-1.051, 7.193e-6
-1.052, 7.193e-6
-1.053, 7.191e-6
-1.054, 7.191e-6
-1.055, 7.191e-6
-1.056, 7.195e-6
-1.057, 7.196e-6
-1.058, 7.195e-6
-1.059, 7.195e-6
-1.060, 7.194e-6
-1.061, 7.195e-6
-1.062, 7.199e-6
-1.063, 7.198e-6
-1.064, 7.195e-6
-1.065, 7.194e-6
-1.066, 7.196e-6
-1.067, 7.199e-6
-1.068, 7.199e-6
-1.069, 7.197e-6
-1.070, 7.199e-6
-1.071, 7.200e-6
-1.072, 7.202e-6
-1.073, 7.200e-6
-1.074, 7.199e-6
-1.075, 7.200e-6
-1.076, 7.203e-6
-1.077, 7.206e-6
-1.078, 7.207e-6
-1.079, 7.206e-6
-1.080, 7.206e-6
-1.081, 7.209e-6
-1.082, 7.211e-6
-1.083, 7.211e-6
-1.084, 7.211e-6
-1.085, 7.211e-6
-1.086, 7.212e-6
-1.087, 7.212e-6
-1.088, 7.212e-6
-1.089, 7.216e-6
-1.090, 7.215e-6
-1.091, 7.215e-6
-1.092, 7.217e-6
-1.093, 7.218e-6
-1.094, 7.219e-6
-1.095, 7.218e-6
-1.096, 7.221e-6
-1.097, 7.223e-6
-1.098, 7.222e-6
-1.099, 7.223e-6
-1.100, 7.223e-6
-1.101, 7.225e-6
-1.102, 7.228e-6
-1.103, 7.227e-6
-1.104, 7.228e-6
-1.105, 7.228e-6
-1.106, 7.229e-6
-1.107, 7.233e-6
-1.108, 7.233e-6
-1.109, 7.235e-6
-1.110, 7.237e-6
-1.111, 7.241e-6
-1.112, 7.243e-6
-1.113, 7.245e-6
-1.114, 7.245e-6
-1.115, 7.245e-6
-1.116, 7.248e-6
-1.117, 7.250e-6
-1.118, 7.252e-6
-1.119, 7.252e-6
-1.120, 7.251e-6
-1.121, 7.252e-6
-1.122, 7.255e-6
-1.123, 7.257e-6
-1.124, 7.258e-6
-1.125, 7.259e-6
-1.126, 7.263e-6
-1.127, 7.266e-6
-1.128, 7.266e-6
-1.129, 7.266e-6
-1.130, 7.268e-6
-1.131, 7.270e-6
-1.132, 7.274e-6
-1.133, 7.275e-6
-1.134, 7.275e-6
-1.135, 7.276e-6
-1.136, 7.278e-6
-1.137, 7.281e-6
-1.138, 7.281e-6
-1.139, 7.280e-6
-1.140, 7.282e-6
-1.141, 7.285e-6
-1.142, 7.289e-6
-1.143, 7.292e-6
-1.144, 7.293e-6
-1.145, 7.296e-6
-1.146, 7.297e-6
-1.147, 7.300e-6
-1.148, 7.300e-6
-1.149, 7.300e-6
-1.150, 7.299e-6
-1.151, 7.301e-6
-1.152, 7.306e-6
-1.153, 7.307e-6
-1.154, 7.308e-6
-1.155, 7.309e-6
-1.156, 7.310e-6
-1.157, 7.315e-6
-1.158, 7.317e-6
-1.159, 7.319e-6
-1.160, 7.319e-6
-1.161, 7.322e-6
-1.162, 7.327e-6
-1.163, 7.328e-6
-1.164, 7.330e-6
-1.165, 7.331e-6
-1.166, 7.334e-6
-1.167, 7.337e-6
-1.168, 7.341e-6
-1.169, 7.341e-6
-1.170, 7.342e-6
-1.171, 7.345e-6
-1.172, 7.347e-6
-1.173, 7.350e-6
-1.174, 7.352e-6
-1.175, 7.354e-6
-1.176, 7.356e-6
-1.177, 7.360e-6
-1.178, 7.364e-6
-1.179, 7.365e-6
-1.180, 7.367e-6
-1.181, 7.370e-6
-1.182, 7.374e-6
-1.183, 7.376e-6
-1.184, 7.378e-6
-1.185, 7.379e-6
-1.186, 7.381e-6
-1.187, 7.385e-6
-1.188, 7.388e-6
-1.189, 7.389e-6
-1.190, 7.392e-6
-1.191, 7.395e-6
-1.192, 7.399e-6
-1.193, 7.403e-6
-1.194, 7.404e-6
-1.195, 7.406e-6
-1.196, 7.407e-6
-1.197, 7.411e-6
-1.198, 7.415e-6
-1.199, 7.416e-6
-1.200, 7.418e-6
-1.201, 7.421e-6
-1.202, 7.424e-6
-1.203, 7.429e-6
-1.204, 7.430e-6
-1.205, 7.432e-6
-1.206, 7.437e-6
-1.207, 7.442e-6
-1.208, 7.444e-6
-1.209, 7.447e-6
-1.210, 7.449e-6
-1.211, 7.452e-6
-1.212, 7.458e-6
-1.213, 7.459e-6
-1.214, 7.463e-6
-1.215, 7.465e-6
-1.216, 7.467e-6
-1.217, 7.474e-6
-1.218, 7.478e-6
-1.219, 7.481e-6
-1.220, 7.482e-6
-1.221, 7.485e-6
-1.222, 7.492e-6
-1.223, 7.496e-6
-1.224, 7.499e-6
-1.225, 7.500e-6
-1.226, 7.501e-6
-1.227, 7.507e-6
-1.228, 7.512e-6
-1.229, 7.520e-6
-1.230, 7.521e-6
-1.231, 7.523e-6
-1.232, 7.527e-6
-1.233, 7.532e-6
-1.234, 7.534e-6
-1.235, 7.537e-6
-1.236, 7.540e-6
-1.237, 7.547e-6
-1.238, 7.552e-6
-1.239, 7.554e-6
-1.240, 7.559e-6
-1.241, 7.562e-6
-1.242, 7.568e-6
-1.243, 7.573e-6
-1.244, 7.576e-6
-1.245, 7.579e-6
-1.246, 7.583e-6
-1.247, 7.588e-6
-1.248, 7.595e-6
-1.249, 7.596e-6
-1.250, 7.601e-6
-1.251, 7.604e-6
-1.252, 7.610e-6
-1.253, 7.615e-6
-1.254, 7.620e-6
-1.255, 7.625e-6
-1.256, 7.629e-6
-1.257, 7.635e-6
-1.258, 7.640e-6
-1.259, 7.645e-6
-1.260, 7.648e-6
-1.261, 7.653e-6
-1.262, 7.659e-6
-1.263, 7.664e-6
-1.264, 7.669e-6
-1.265, 7.674e-6
-1.266, 7.679e-6
-1.267, 7.686e-6
-1.268, 7.695e-6
-1.269, 7.697e-6
-1.270, 7.704e-6
-1.271, 7.708e-6
-1.272, 7.716e-6
-1.273, 7.723e-6
-1.274, 7.729e-6
-1.275, 7.735e-6
-1.276, 7.740e-6
-1.277, 7.746e-6
-1.278, 7.755e-6
-1.279, 7.760e-6
-1.280, 7.767e-6
-1.281, 7.773e-6
-1.282, 7.779e-6
-1.283, 7.787e-6
-1.284, 7.794e-6
-1.285, 7.799e-6
-1.286, 7.805e-6
-1.287, 7.814e-6
-1.288, 7.823e-6
-1.289, 7.830e-6
-1.290, 7.836e-6
-1.291, 7.843e-6
-1.292, 7.850e-6
-1.293, 7.861e-6
-1.294, 7.869e-6
-1.295, 7.874e-6
-1.296, 7.881e-6
-1.297, 7.890e-6
-1.298, 7.899e-6
-1.299, 7.907e-6
-1.300, 7.914e-6
-1.301, 7.923e-6
-1.302, 7.932e-6
-1.303, 7.942e-6
-1.304, 7.950e-6
-1.305, 7.958e-6
-1.306, 7.966e-6
-1.307, 7.976e-6
-1.308, 7.987e-6
-1.309, 7.995e-6
-1.310, 8.003e-6
-1.311, 8.017e-6
-1.312, 8.031e-6
-1.313, 8.043e-6
-1.314, 8.051e-6
-1.315, 8.057e-6
-1.316, 8.065e-6
-1.317, 8.077e-6
-1.318, 8.090e-6
-1.319, 8.099e-6
-1.320, 8.109e-6
-1.321, 8.119e-6
-1.322, 8.132e-6
-1.323, 8.142e-6
-1.324, 8.154e-6
-1.325, 8.165e-6
-1.326, 8.177e-6
-1.327, 8.187e-6
-1.328, 8.202e-6
-1.329, 8.213e-6
-1.330, 8.225e-6
-1.331, 8.237e-6
-1.332, 8.254e-6
-1.333, 8.267e-6
-1.334, 8.276e-6
-1.335, 8.287e-6
-1.336, 8.297e-6
-1.337, 8.310e-6
-1.338, 8.325e-6
-1.339, 8.337e-6
-1.340, 8.349e-6
-1.341, 8.360e-6
-1.342, 8.374e-6
-1.343, 8.388e-6
-1.344, 8.403e-6
-1.345, 8.415e-6
-1.346, 8.426e-6
-1.347, 8.443e-6
-1.348, 8.462e-6
-1.349, 8.473e-6
-1.350, 8.485e-6
-1.351, 8.498e-6
-1.352, 8.514e-6
-1.353, 8.530e-6
-1.354, 8.543e-6
-1.355, 8.557e-6
-1.356, 8.571e-6
-1.357, 8.587e-6
-1.358, 8.604e-6
-1.359, 8.617e-6
-1.360, 8.630e-6
-1.361, 8.645e-6
-1.362, 8.661e-6
-1.363, 8.681e-6
-1.364, 8.698e-6
-1.365, 8.715e-6
-1.366, 8.732e-6
-1.367, 8.748e-6
-1.368, 8.768e-6
-1.369, 8.785e-6
-1.370, 8.800e-6
-1.371, 8.816e-6
-1.372, 8.833e-6
-1.373, 8.853e-6
-1.374, 8.870e-6
-1.375, 8.883e-6
-1.376, 8.899e-6
-1.377, 8.920e-6
-1.378, 8.938e-6
-1.379, 8.958e-6
-1.380, 8.976e-6
-1.381, 8.992e-6
-1.382, 9.017e-6
-1.383, 9.037e-6
-1.384, 9.055e-6
-1.385, 9.074e-6
-1.386, 9.091e-6
-1.387, 9.109e-6
-1.388, 9.132e-6
-1.389, 9.152e-6
-1.390, 9.171e-6
-1.391, 9.188e-6
-1.392, 9.208e-6
-1.393, 9.232e-6
-1.394, 9.251e-6
-1.395, 9.271e-6
-1.396, 9.291e-6
-1.397, 9.314e-6
-1.398, 9.336e-6
-1.399, 9.355e-6
-1.400, 9.375e-6
-1.401, 9.393e-6
-1.402, 9.415e-6
-1.403, 9.437e-6
-1.404, 9.456e-6
-1.405, 9.476e-6
-1.406, 9.497e-6
-1.407, 9.517e-6
-1.408, 9.541e-6
-1.409, 9.564e-6
-1.410, 9.585e-6
-1.411, 9.604e-6
-1.412, 9.625e-6
-1.413, 9.648e-6
-1.414, 9.671e-6
-1.415, 9.692e-6
-1.416, 9.714e-6
-1.417, 9.736e-6
-1.418, 9.759e-6
-1.419, 9.783e-6
-1.420, 9.804e-6
-1.421, 9.823e-6
-1.422, 9.849e-6
-1.423, 9.875e-6
-1.424, 9.900e-6
-1.425, 9.921e-6
-1.426, 9.942e-6
-1.427, 9.965e-6
-1.428, 9.993e-6
-1.429, 1.002e-5
-1.430, 1.004e-5
-1.431, 1.006e-5
-1.432, 1.009e-5
-1.433, 1.011e-5
-1.434, 1.014e-5
-1.435, 1.016e-5
-1.436, 1.018e-5
-1.437, 1.020e-5
-1.438, 1.023e-5
-1.439, 1.025e-5
-1.440, 1.027e-5
-1.441, 1.029e-5
-1.442, 1.031e-5
-1.443, 1.034e-5
-1.444, 1.036e-5
-1.445, 1.039e-5
-1.446, 1.041e-5
-1.447, 1.043e-5
-1.448, 1.046e-5
-1.449, 1.049e-5
-1.450, 1.051e-5
-1.451, 1.053e-5
-1.452, 1.056e-5
-1.453, 1.058e-5
-1.454, 1.061e-5
-1.455, 1.063e-5
-1.456, 1.065e-5
-1.457, 1.068e-5
-1.458, 1.071e-5
-1.459, 1.073e-5
-1.460, 1.076e-5
-1.461, 1.078e-5
-1.462, 1.080e-5
-1.463, 1.083e-5
-1.464, 1.086e-5
-1.465, 1.088e-5
-1.466, 1.091e-5
-1.467, 1.093e-5
-1.468, 1.096e-5
-1.469, 1.099e-5
-1.470, 1.101e-5
-1.471, 1.104e-5
-1.472, 1.107e-5
-1.473, 1.110e-5
-1.474, 1.112e-5
-1.475, 1.115e-5
-1.476, 1.118e-5
-1.477, 1.120e-5
-1.478, 1.123e-5
-1.479, 1.126e-5
-1.480, 1.128e-5
-1.481, 1.131e-5
-1.482, 1.133e-5
-1.483, 1.136e-5
-1.484, 1.139e-5
-1.485, 1.142e-5
-1.486, 1.145e-5
-1.487, 1.147e-5
-1.488, 1.150e-5
-1.489, 1.154e-5
-1.490, 1.156e-5
-1.491, 1.159e-5
-1.492, 1.162e-5
-1.493, 1.165e-5
-1.494, 1.168e-5
-1.495, 1.171e-5
-1.496, 1.174e-5
-1.497, 1.177e-5
-1.498, 1.180e-5
-1.499, 1.183e-5
-1.500, 1.186e-5
-1.501, 1.189e-5
-1.502, 1.192e-5
-1.503, 1.195e-5
-1.504, 1.199e-5
-1.505, 1.201e-5
-1.506, 1.204e-5
-1.507, 1.207e-5
-1.508, 1.210e-5
-1.509, 1.214e-5
-1.510, 1.217e-5
-1.511, 1.220e-5
-1.512, 1.224e-5
-1.513, 1.227e-5
-1.514, 1.230e-5
-1.515, 1.234e-5
-1.516, 1.237e-5
-1.517, 1.241e-5
-1.518, 1.245e-5
-1.519, 1.248e-5
-1.520, 1.252e-5
-1.521, 1.255e-5
-1.522, 1.259e-5
-1.523, 1.263e-5
-1.524, 1.267e-5
-1.525, 1.271e-5
-1.526, 1.275e-5
-1.527, 1.278e-5
-1.528, 1.282e-5
-1.529, 1.286e-5
-1.530, 1.290e-5
-1.531, 1.294e-5
-1.532, 1.297e-5
-1.533, 1.301e-5
-1.534, 1.306e-5
-1.535, 1.310e-5
-1.536, 1.314e-5
-1.537, 1.317e-5
-1.538, 1.321e-5
-1.539, 1.326e-5
-1.540, 1.331e-5
-1.541, 1.335e-5
-1.542, 1.339e-5
-1.543, 1.343e-5
-1.544, 1.348e-5
-1.545, 1.353e-5
-1.546, 1.357e-5
-1.547, 1.362e-5
-1.548, 1.366e-5
-1.549, 1.371e-5
-1.550, 1.376e-5
-1.551, 1.380e-5
-1.552, 1.384e-5
-1.553, 1.390e-5
-1.554, 1.395e-5
-1.555, 1.400e-5
-1.556, 1.404e-5
-1.557, 1.409e-5
-1.558, 1.414e-5
-1.559, 1.418e-5
-1.560, 1.423e-5
-1.561, 1.428e-5
-1.562, 1.432e-5
-1.563, 1.438e-5
-1.564, 1.443e-5
-1.565, 1.448e-5
-1.566, 1.453e-5
-1.567, 1.458e-5
-1.568, 1.463e-5
-1.569, 1.469e-5
-1.570, 1.474e-5
-1.571, 1.479e-5
-1.572, 1.485e-5
-1.573, 1.492e-5
-1.574, 1.499e-5
-1.575, 1.504e-5
-1.576, 1.510e-5
-1.577, 1.515e-5
-1.578, 1.520e-5
-1.579, 1.526e-5
-1.580, 1.531e-5
-1.581, 1.536e-5
-1.582, 1.542e-5
-1.583, 1.547e-5
-1.584, 1.553e-5
-1.585, 1.559e-5
-1.586, 1.564e-5
-1.587, 1.570e-5
-1.588, 1.576e-5
-1.589, 1.581e-5
-1.590, 1.587e-5
-1.591, 1.593e-5
-1.592, 1.598e-5
-1.593, 1.604e-5
-1.594, 1.610e-5
-1.595, 1.616e-5
-1.596, 1.622e-5
-1.597, 1.627e-5
-1.598, 1.633e-5
-1.599, 1.639e-5
-1.600, 1.645e-5
-1.601, 1.651e-5
-1.602, 1.656e-5
-1.603, 1.662e-5
-1.604, 1.668e-5
-1.605, 1.674e-5
-1.606, 1.680e-5
-1.607, 1.685e-5
-1.608, 1.691e-5
-1.609, 1.697e-5
-1.610, 1.703e-5
-1.611, 1.709e-5
-1.612, 1.715e-5
-1.613, 1.721e-5
-1.614, 1.727e-5
-1.615, 1.733e-5
-1.616, 1.739e-5
-1.617, 1.744e-5
-1.618, 1.750e-5
-1.619, 1.756e-5
-1.620, 1.762e-5
-1.621, 1.768e-5
-1.622, 1.774e-5
-1.623, 1.781e-5
-1.624, 1.787e-5
-1.625, 1.794e-5
-1.626, 1.799e-5
-1.627, 1.805e-5
-1.628, 1.811e-5
-1.629, 1.817e-5
-1.630, 1.824e-5
-1.631, 1.830e-5
-1.632, 1.836e-5
-1.633, 1.842e-5
-1.634, 1.849e-5
-1.635, 1.856e-5
-1.636, 1.862e-5
-1.637, 1.868e-5
-1.638, 1.875e-5
-1.639, 1.884e-5
-1.640, 1.890e-5
-1.641, 1.897e-5
-1.642, 1.903e-5
-1.643, 1.909e-5
-1.644, 1.916e-5
-1.645, 1.923e-5
-1.646, 1.930e-5
-1.647, 1.936e-5
-1.648, 1.943e-5
-1.649, 1.950e-5
-1.650, 1.958e-5
-1.651, 1.966e-5
-1.652, 1.973e-5
-1.653, 1.980e-5
-1.654, 1.988e-5
-1.655, 1.996e-5
-1.656, 2.003e-5
-1.657, 2.010e-5
-1.658, 2.018e-5
-1.659, 2.027e-5
-1.660, 2.035e-5
-1.661, 2.043e-5
-1.662, 2.051e-5
-1.663, 2.060e-5
-1.664, 2.069e-5
-1.665, 2.079e-5
-1.666, 2.087e-5
-1.667, 2.095e-5
-1.668, 2.104e-5
-1.669, 2.114e-5
-1.670, 2.124e-5
-1.671, 2.133e-5
-1.672, 2.143e-5
-1.673, 2.152e-5
-1.674, 2.162e-5
-1.675, 2.173e-5
-1.676, 2.182e-5
-1.677, 2.192e-5
-1.678, 2.202e-5
-1.679, 2.213e-5
-1.680, 2.224e-5
-1.681, 2.234e-5
-1.682, 2.244e-5
-1.683, 2.256e-5
-1.684, 2.267e-5
-1.685, 2.279e-5
-1.686, 2.291e-5
-1.687, 2.301e-5
-1.688, 2.314e-5
-1.689, 2.326e-5
-1.690, 2.339e-5
-1.691, 2.351e-5
-1.692, 2.362e-5
-1.693, 2.374e-5
-1.694, 2.388e-5
-1.695, 2.401e-5
-1.696, 2.414e-5
-1.697, 2.427e-5
-1.698, 2.439e-5
-1.699, 2.453e-5
-1.700, 2.467e-5
-1.701, 2.480e-5
-1.702, 2.493e-5
-1.703, 2.507e-5
-1.704, 2.522e-5
-1.705, 2.537e-5
-1.706, 2.551e-5
-1.707, 2.566e-5
-1.708, 2.580e-5
-1.709, 2.594e-5
-1.710, 2.609e-5
-1.711, 2.624e-5
-1.712, 2.639e-5
-1.713, 2.655e-5
-1.714, 2.672e-5
-1.715, 2.689e-5
-1.716, 2.706e-5
-1.717, 2.722e-5
-1.718, 2.739e-5
-1.719, 2.757e-5
-1.720, 2.776e-5
-1.721, 2.793e-5
-1.722, 2.811e-5
-1.723, 2.830e-5
-1.724, 2.849e-5
-1.725, 2.869e-5
-1.726, 2.889e-5
-1.727, 2.908e-5
-1.728, 2.927e-5
-1.729, 2.948e-5
-1.730, 2.969e-5
-1.731, 2.990e-5
-1.732, 3.010e-5
-1.733, 3.031e-5
-1.734, 3.053e-5
-1.735, 3.075e-5
-1.736, 3.098e-5
-1.737, 3.121e-5
-1.738, 3.143e-5
-1.739, 3.167e-5
-1.740, 3.192e-5
-1.741, 3.217e-5
-1.742, 3.241e-5
-1.743, 3.265e-5
-1.744, 3.290e-5
-1.745, 3.316e-5
-1.746, 3.340e-5
-1.747, 3.365e-5
-1.748, 3.389e-5
-1.749, 3.415e-5
-1.750, 3.441e-5
-1.751, 3.467e-5
-1.752, 3.493e-5
-1.753, 3.519e-5
-1.754, 3.547e-5
-1.755, 3.575e-5
-1.756, 3.603e-5
-1.757, 3.631e-5
-1.758, 3.660e-5
-1.759, 3.690e-5
-1.760, 3.720e-5
-1.761, 3.750e-5
-1.762, 3.780e-5
-1.763, 3.811e-5
-1.764, 3.843e-5
-1.765, 3.875e-5
-1.766, 3.908e-5
-1.767, 3.939e-5
-1.768, 3.972e-5
-1.769, 4.007e-5
-1.770, 4.040e-5
-1.771, 4.074e-5
-1.772, 4.108e-5
-1.773, 4.143e-5
-1.774, 4.178e-5
-1.775, 4.213e-5
-1.776, 4.249e-5
-1.777, 4.286e-5
-1.778, 4.322e-5
-1.779, 4.360e-5
-1.780, 4.397e-5
-1.781, 4.436e-5
-1.782, 4.475e-5
-1.783, 4.514e-5
-1.784, 4.555e-5
-1.785, 4.597e-5
-1.786, 4.637e-5
-1.787, 4.678e-5
-1.788, 4.720e-5
-1.789, 4.764e-5
-1.790, 4.809e-5
-1.791, 4.853e-5
-1.792, 4.898e-5
-1.793, 4.944e-5
-1.794, 4.990e-5
-1.795, 5.038e-5
-1.796, 5.086e-5
-1.797, 5.134e-5
-1.798, 5.182e-5
-1.799, 5.232e-5
-1.800, 5.285e-5
-1.801, 5.336e-5
-1.802, 5.387e-5
-1.803, 5.440e-5
-1.804, 5.494e-5
-1.805, 5.550e-5
-1.806, 5.607e-5
-1.807, 5.662e-5
-1.808, 5.718e-5
-1.809, 5.776e-5
-1.810, 5.835e-5
-1.811, 5.896e-5
-1.812, 5.954e-5
-1.813, 6.014e-5
-1.814, 6.077e-5
-1.815, 6.141e-5
-1.816, 6.206e-5
-1.817, 6.266e-5
-1.818, 6.324e-5
-1.819, 6.389e-5
-1.820, 6.457e-5
-1.821, 6.526e-5
-1.822, 6.595e-5
-1.823, 6.665e-5
-1.824, 6.737e-5
-1.825, 6.802e-5
-1.826, 6.862e-5
-1.827, 6.935e-5
-1.828, 7.011e-5
-1.829, 7.087e-5
-1.830, 7.168e-5
-1.831, 7.249e-5
-1.832, 7.331e-5
-1.833, 7.414e-5
-1.834, 7.498e-5
-1.835, 7.583e-5
-1.836, 7.672e-5
-1.837, 7.762e-5
-1.838, 7.852e-5
-1.839, 7.943e-5
-1.840, 8.038e-5
-1.841, 8.135e-5
-1.842, 8.230e-5
-1.843, 8.328e-5
-1.844, 8.429e-5
-1.845, 8.532e-5
-1.846, 8.630e-5
-1.847, 8.733e-5
-1.848, 8.838e-5
-1.849, 8.946e-5
-1.850, 9.058e-5
-1.851, 9.167e-5
-1.852, 9.279e-5
-1.853, 9.395e-5
-1.854, 9.514e-5
-1.855, 9.635e-5
-1.856, 9.757e-5
-1.857, 9.882e-5
-1.858, 1.001e-4
-1.859, 1.013e-4
-1.860, 1.027e-4
-1.861, 1.040e-4
-1.862, 1.054e-4
-1.863, 1.067e-4
-1.864, 1.081e-4
-1.865, 1.096e-4
-1.866, 1.110e-4
-1.867, 1.125e-4
-1.868, 1.141e-4
-1.869, 1.156e-4
-1.870, 1.172e-4
-1.871, 1.188e-4
-1.872, 1.204e-4
-1.873, 1.220e-4
-1.874, 1.237e-4
-1.875, 1.254e-4
-1.876, 1.272e-4
-1.877, 1.290e-4
-1.878, 1.308e-4
-1.879, 1.326e-4
-1.880, 1.345e-4
-1.881, 1.363e-4
-1.882, 1.382e-4
-1.883, 1.402e-4
-1.884, 1.421e-4
-1.885, 1.442e-4
-1.886, 1.462e-4
-1.887, 1.483e-4
-1.888, 1.504e-4
-1.889, 1.526e-4
-1.890, 1.548e-4
-1.891, 1.570e-4
-1.892, 1.592e-4
-1.893, 1.615e-4
-1.894, 1.638e-4
-1.895, 1.662e-4
-1.896, 1.686e-4
-1.897, 1.711e-4
-1.898, 1.735e-4
-1.899, 1.761e-4
-1.900, 1.786e-4
-1.901, 1.812e-4
-1.902, 1.838e-4
-1.903, 1.865e-4
-1.904, 1.892e-4
-1.905, 1.919e-4
-1.906, 1.947e-4
-1.907, 1.976e-4
-1.908, 2.004e-4
-1.909, 2.033e-4
-1.910, 2.063e-4
-1.911, 2.093e-4
-1.912, 2.123e-4
-1.913, 2.153e-4
-1.914, 2.183e-4
-1.915, 2.213e-4
-1.916, 2.245e-4
-1.917, 2.277e-4
-1.918, 2.309e-4
-1.919, 2.341e-4
-1.920, 2.374e-4
-1.921, 2.407e-4
-1.922, 2.441e-4
-1.923, 2.474e-4
-1.924, 2.507e-4
-1.925, 2.541e-4
-1.926, 2.577e-4
-1.927, 2.613e-4
-1.928, 2.649e-4
-1.929, 2.686e-4
-1.930, 2.724e-4
-1.931, 2.762e-4
-1.932, 2.800e-4
-1.933, 2.839e-4
-1.934, 2.878e-4
-1.935, 2.919e-4
-1.936, 2.960e-4
-1.937, 3.000e-4
-1.938, 3.039e-4
-1.939, 3.079e-4
-1.940, 3.122e-4
-1.941, 3.164e-4
-1.942, 3.207e-4
-1.943, 3.252e-4
-1.944, 3.296e-4
-1.945, 3.342e-4
-1.946, 3.387e-4
-1.947, 3.433e-4
-1.948, 3.478e-4
-1.949, 3.525e-4
-1.950, 3.572e-4
-1.951, 3.619e-4
-1.952, 3.667e-4
-1.953, 3.716e-4
-1.954, 3.766e-4
-1.955, 3.816e-4
-1.956, 3.866e-4
-1.957, 3.916e-4
-1.958, 3.968e-4
-1.959, 4.020e-4
-1.960, 4.073e-4
-1.961, 4.126e-4
-1.962, 4.177e-4
-1.963, 4.225e-4
-1.964, 4.277e-4
-1.965, 4.330e-4
-1.966, 4.384e-4
-1.967, 4.439e-4
-1.968, 4.495e-4
-1.969, 4.550e-4
-1.970, 4.607e-4
-1.971, 4.666e-4
-1.972, 4.723e-4
-1.973, 4.781e-4
-1.974, 4.841e-4
-1.975, 4.897e-4
-1.976, 4.955e-4
-1.977, 5.016e-4
-1.978, 5.076e-4
-1.979, 5.136e-4
-1.980, 5.198e-4
-1.981, 5.262e-4
-1.982, 5.325e-4
-1.983, 5.388e-4
-1.984, 5.452e-4
-1.985, 5.517e-4
-1.986, 5.582e-4
-1.987, 5.647e-4
-1.988, 5.712e-4
-1.989, 5.779e-4
-1.990, 5.845e-4
-1.991, 5.912e-4
-1.992, 5.981e-4
-1.993, 6.049e-4
-1.994, 6.118e-4
-1.995, 6.189e-4
-1.996, 6.259e-4
-1.997, 6.328e-4
-1.998, 6.401e-4
-1.999, 6.472e-4
-2.000, 6.544e-4
-2.001, 6.616e-4
-2.002, 6.688e-4
-2.003, 6.760e-4
-2.004, 6.831e-4
-2.005, 6.906e-4
-2.006, 6.979e-4
-2.007, 7.051e-4
-2.008, 7.122e-4
-2.009, 7.198e-4
-2.010, 7.273e-4
-2.011, 7.352e-4
-2.012, 7.426e-4
-2.013, 7.498e-4
-2.014, 7.574e-4
-2.015, 7.649e-4
-2.016, 7.726e-4
-2.017, 7.802e-4
-2.018, 7.879e-4
-2.019, 7.958e-4
-2.020, 8.038e-4
-2.021, 8.118e-4
-2.022, 8.196e-4
-2.023, 8.276e-4
-2.024, 8.356e-4
-2.025, 8.436e-4
-2.026, 8.518e-4
-2.027, 8.599e-4
-2.028, 8.680e-4
-2.029, 8.760e-4
-2.030, 8.839e-4
-2.031, 8.921e-4
-2.032, 9.004e-4
-2.033, 9.086e-4
-2.034, 9.168e-4
-2.035, 9.249e-4
-2.036, 9.334e-4
-2.037, 9.418e-4
-2.038, 9.504e-4
-2.039, 9.590e-4
-2.040, 9.668e-4
-2.041, 9.732e-4
-2.042, 9.813e-4
-2.043, 9.897e-4
-2.044, 9.984e-4
-2.045, 1.007e-3
-2.046, 1.011e-3
-2.047, 1.011e-3
-2.048, 1.011e-3
-2.049, 1.011e-3
-2.050, 1.011e-3
-2.051, 1.011e-3
-2.052, 1.011e-3
-2.053, 1.011e-3
-2.054, 1.011e-3
-2.055, 1.011e-3
-2.056, 1.011e-3
-2.057, 1.011e-3
-2.058, 1.011e-3
-2.059, 1.011e-3
-2.060, 1.011e-3
-2.061, 1.011e-3
-2.062, 1.011e-3
-2.063, 1.011e-3
-2.064, 1.011e-3
-2.065, 1.011e-3
-2.066, 1.011e-3
-2.067, 1.011e-3
-2.068, 1.011e-3
-2.069, 1.011e-3
-2.070, 1.011e-3
-2.071, 1.011e-3
-2.072, 1.011e-3
-2.073, 1.011e-3
-2.074, 1.011e-3
-2.075, 1.011e-3
-2.076, 1.011e-3
-2.077, 1.011e-3
-2.078, 1.011e-3
-2.079, 1.011e-3
-2.080, 1.011e-3
-2.081, 1.011e-3
-2.082, 1.011e-3
-2.083, 1.011e-3
-2.084, 1.011e-3
-2.085, 1.011e-3
-2.086, 1.011e-3
-2.087, 1.011e-3
-2.088, 1.011e-3
-2.089, 1.011e-3
-2.090, 1.011e-3
-2.091, 1.011e-3
-2.092, 1.011e-3
-2.093, 1.011e-3
-2.094, 1.011e-3
-2.095, 1.011e-3
-2.096, 1.011e-3
-2.097, 1.011e-3
-2.098, 1.011e-3
-2.099, 1.011e-3
-2.100, 1.011e-3
-2.101, 1.011e-3
-2.102, 1.011e-3
-2.103, 1.011e-3
-2.104, 1.011e-3
-2.105, 1.011e-3
-2.106, 1.011e-3
-2.107, 1.011e-3
-2.108, 1.011e-3
-2.109, 1.011e-3
-2.110, 1.011e-3
-2.111, 1.011e-3
-2.112, 1.011e-3
-2.113, 1.011e-3
-2.114, 1.011e-3
-2.115, 1.011e-3
-2.116, 1.011e-3
-2.117, 1.011e-3
-2.118, 1.011e-3
-2.119, 1.011e-3
-2.120, 1.011e-3
-2.121, 1.011e-3
-2.122, 1.011e-3
-2.123, 1.011e-3
-2.124, 1.011e-3
-2.125, 1.011e-3
-2.126, 1.011e-3
-2.127, 1.011e-3
-2.128, 1.011e-3
-2.129, 1.011e-3
-2.130, 1.011e-3
-2.131, 1.011e-3
-2.132, 1.011e-3
-2.133, 1.011e-3
-2.134, 1.011e-3
-2.135, 1.011e-3
-2.136, 1.011e-3
-2.137, 1.011e-3
-2.138, 1.011e-3
-2.139, 1.011e-3
-2.140, 1.011e-3
-2.141, 1.011e-3
-2.142, 1.011e-3
-2.143, 1.011e-3
-2.144, 1.011e-3
-2.145, 1.011e-3
-2.146, 1.011e-3
-2.147, 1.011e-3
-2.148, 1.011e-3
-2.149, 1.011e-3
-2.150, 1.011e-3
-2.151, 1.011e-3
-2.152, 1.011e-3
-2.153, 1.011e-3
-2.154, 1.011e-3
-2.155, 1.011e-3
-2.156, 1.011e-3
-2.157, 1.011e-3
-2.158, 1.011e-3
-2.159, 1.011e-3
-2.160, 1.011e-3
-2.161, 1.011e-3
-2.162, 1.011e-3
-2.163, 1.011e-3
-2.164, 1.011e-3
-2.165, 1.011e-3
-2.166, 1.011e-3
-2.167, 1.011e-3
-2.168, 1.011e-3
-2.169, 1.011e-3
-2.170, 1.011e-3
-2.171, 1.011e-3
-2.172, 1.011e-3
-2.173, 1.011e-3
-2.174, 1.011e-3
-2.175, 1.011e-3
-2.176, 1.011e-3
-2.177, 1.011e-3
-2.178, 1.011e-3
-2.179, 1.011e-3
-2.180, 1.011e-3
-2.181, 1.011e-3
-2.182, 1.011e-3
-2.183, 1.011e-3
-2.184, 1.011e-3
-2.185, 1.011e-3
-2.186, 1.011e-3
-2.187, 1.011e-3
-2.188, 1.011e-3
-2.189, 1.011e-3
-2.190, 1.011e-3
-2.191, 1.011e-3
-2.192, 1.011e-3
-2.193, 1.011e-3
-2.194, 1.011e-3
-2.195, 1.011e-3
-2.196, 1.011e-3
-2.197, 1.011e-3
-2.198, 1.011e-3
-2.199, 1.011e-3
-2.200, 1.011e-3
-2.201, 1.011e-3
-2.202, 1.011e-3
-2.203, 1.011e-3
-2.204, 1.011e-3
-2.205, 1.011e-3
-2.206, 1.011e-3
-2.207, 1.011e-3
-2.208, 1.011e-3
-2.209, 1.011e-3
-2.210, 1.011e-3
-2.211, 1.011e-3
-2.212, 1.011e-3
-2.213, 1.011e-3
-2.214, 1.011e-3
-2.215, 1.011e-3
-2.216, 1.011e-3
-2.217, 1.011e-3
-2.218, 1.011e-3
-2.219, 1.011e-3
-2.220, 1.011e-3
-2.221, 1.011e-3
-2.222, 1.011e-3
-2.223, 1.011e-3
-2.224, 1.011e-3
-2.225, 1.011e-3
-2.226, 1.011e-3
-2.227, 1.011e-3
-2.228, 1.011e-3
-2.229, 1.011e-3
-2.230, 1.011e-3
-2.231, 1.011e-3
-2.232, 1.011e-3
-2.233, 1.011e-3
-2.234, 1.011e-3
-2.235, 1.011e-3
-2.236, 1.011e-3
-2.237, 1.011e-3
-2.238, 1.011e-3
-2.239, 1.011e-3
-2.240, 1.011e-3
-2.241, 1.011e-3
-2.242, 1.011e-3
-2.243, 1.011e-3
-2.244, 1.011e-3
-2.245, 1.011e-3
-2.246, 1.011e-3
-2.247, 1.011e-3
-2.248, 1.011e-3
-2.249, 1.011e-3
-2.250, 1.011e-3
-2.251, 1.011e-3
-2.252, 1.011e-3
-2.253, 1.011e-3
-2.254, 1.011e-3
-2.255, 1.011e-3
-2.256, 1.011e-3
-2.257, 1.011e-3
-2.258, 1.011e-3
-2.259, 1.011e-3
-2.260, 1.011e-3
-2.261, 1.011e-3
-2.262, 1.011e-3
-2.263, 1.011e-3
-2.264, 1.011e-3
-2.265, 1.011e-3
-2.266, 1.011e-3
-2.267, 1.011e-3
-2.268, 1.011e-3
-2.269, 1.011e-3
-2.270, 1.011e-3
-2.271, 1.011e-3
-2.272, 1.011e-3
-2.273, 1.011e-3
-2.274, 1.011e-3
-2.275, 1.011e-3
-2.276, 1.011e-3
-2.277, 1.011e-3
-2.278, 1.011e-3
-2.279, 1.011e-3
-2.280, 1.011e-3
-2.281, 1.011e-3
-2.282, 1.011e-3
-2.283, 1.011e-3
-2.284, 1.011e-3
-2.285, 1.011e-3
-2.286, 1.011e-3
-2.287, 1.011e-3
-2.288, 1.011e-3
-2.289, 1.011e-3
-2.290, 1.011e-3
-2.291, 1.011e-3
-2.292, 1.011e-3
-2.293, 1.011e-3
-2.294, 1.011e-3
-2.295, 1.011e-3
-2.296, 1.011e-3
-2.297, 1.011e-3
-2.298, 1.011e-3
-2.299, 1.011e-3
