Aug. 31, 2024   14:25:13
Cyclic Voltammetry
File: c:/users/guazh/data/20240829_batch_215_500/2024-08-29-exp230\exp230-2024-08-31t14_12_22-arkoh\exp230_cv_50mvs_efin_-1700mv.bin
Data Source:  Experiment
Instrument Model:  CHI760E
Header: CV ran at 50 mVs
Note: 

Init E (V) = -1
High E (V) = -1
Low E (V) = -1.7
Final E (V) = -1
Init P/N = N
Scan Rate (V/s) = 0.05
Segment = 7
Sample Interval (V) = 0.001
Quiet Time (sec) = 60
Sensitivity (A/V) = 0.001
Comp R (ohm) = 1.6

Results:

Channel 1:
Segment 1:

Segment 2:

Segment 3:

Segment 4:

Segment 5:

Segment 6:

Segment 7:

Potential/V, Current/A

-1.000, 2.455e-7
-1.001, 3.984e-7
-1.002, 4.951e-7
-1.003, 5.454e-7
-1.004, 6.233e-7
-1.005, 6.332e-7
-1.006, 7.023e-7
-1.007, 7.861e-7
-1.008, 9.509e-7
-1.009, 1.033e-6
-1.010, 1.118e-6
-1.011, 1.140e-6
-1.012, 1.177e-6
-1.013, 1.024e-6
-1.014, 8.907e-7
-1.015, 9.006e-7
-1.016, 8.798e-7
-1.017, 8.996e-7
-1.018, 9.085e-7
-1.019, 9.637e-7
-1.020, 9.598e-7
-1.021, 9.736e-7
-1.022, 9.903e-7
-1.023, 9.982e-7
-1.024, 1.000e-6
-1.025, 1.040e-6
-1.026, 1.268e-6
-1.027, 1.332e-6
-1.028, 1.358e-6
-1.029, 1.396e-6
-1.030, 1.417e-6
-1.031, 1.461e-6
-1.032, 1.493e-6
-1.033, 1.110e-6
-1.034, 1.148e-6
-1.035, 1.103e-6
-1.036, 1.159e-6
-1.037, 1.157e-6
-1.038, 1.156e-6
-1.039, 1.186e-6
-1.040, 1.171e-6
-1.041, 1.196e-6
-1.042, 1.192e-6
-1.043, 1.259e-6
-1.044, 1.410e-6
-1.045, 1.506e-6
-1.046, 1.478e-6
-1.047, 1.541e-6
-1.048, 1.584e-6
-1.049, 1.563e-6
-1.050, 1.491e-6
-1.051, 1.273e-6
-1.052, 1.222e-6
-1.053, 1.267e-6
-1.054, 1.247e-6
-1.055, 1.279e-6
-1.056, 1.277e-6
-1.057, 1.231e-6
-1.058, 1.294e-6
-1.059, 1.235e-6
-1.060, 1.311e-6
-1.061, 1.325e-6
-1.062, 1.369e-6
-1.063, 1.538e-6
-1.064, 1.568e-6
-1.065, 1.665e-6
-1.066, 1.682e-6
-1.067, 1.705e-6
-1.068, 1.684e-6
-1.069, 1.441e-6
-1.070, 1.393e-6
-1.071, 1.406e-6
-1.072, 1.436e-6
-1.073, 1.415e-6
-1.074, 1.371e-6
-1.075, 1.430e-6
-1.076, 1.419e-6
-1.077, 1.408e-6
-1.078, 1.360e-6
-1.079, 1.426e-6
-1.080, 1.472e-6
-1.081, 1.656e-6
-1.082, 1.723e-6
-1.083, 1.778e-6
-1.084, 1.790e-6
-1.085, 1.802e-6
-1.086, 1.833e-6
-1.087, 1.488e-6
-1.088, 1.498e-6
-1.089, 1.467e-6
-1.090, 1.478e-6
-1.091, 1.507e-6
-1.092, 1.514e-6
-1.093, 1.542e-6
-1.094, 1.496e-6
-1.095, 1.523e-6
-1.096, 1.542e-6
-1.097, 1.536e-6
-1.098, 1.623e-6
-1.099, 1.745e-6
-1.100, 1.843e-6
-1.101, 1.909e-6
-1.102, 1.934e-6
-1.103, 1.759e-6
-1.104, 1.566e-6
-1.105, 1.589e-6
-1.106, 1.607e-6
-1.107, 1.635e-6
-1.108, 1.601e-6
-1.109, 1.623e-6
-1.110, 1.629e-6
-1.111, 1.650e-6
-1.112, 1.639e-6
-1.113, 1.672e-6
-1.114, 1.690e-6
-1.115, 1.744e-6
-1.116, 1.936e-6
-1.117, 1.985e-6
-1.118, 2.043e-6
-1.119, 2.061e-6
-1.120, 2.073e-6
-1.121, 1.721e-6
-1.122, 1.769e-6
-1.123, 1.732e-6
-1.124, 1.755e-6
-1.125, 1.694e-6
-1.126, 1.763e-6
-1.127, 1.747e-6
-1.128, 1.754e-6
-1.129, 1.737e-6
-1.130, 1.811e-6
-1.131, 1.815e-6
-1.132, 1.834e-6
-1.133, 2.009e-6
-1.134, 2.110e-6
-1.135, 2.145e-6
-1.136, 2.209e-6
-1.137, 2.222e-6
-1.138, 1.946e-6
-1.139, 1.867e-6
-1.140, 1.862e-6
-1.141, 1.960e-6
-1.142, 1.887e-6
-1.143, 1.946e-6
-1.144, 1.904e-6
-1.145, 1.984e-6
-1.146, 1.929e-6
-1.147, 1.933e-6
-1.148, 1.962e-6
-1.149, 2.031e-6
-1.150, 2.207e-6
-1.151, 2.317e-6
-1.152, 2.349e-6
-1.153, 2.367e-6
-1.154, 2.392e-6
-1.155, 2.476e-6
-1.156, 2.320e-6
-1.157, 2.137e-6
-1.158, 2.148e-6
-1.159, 2.098e-6
-1.160, 2.136e-6
-1.161, 2.107e-6
-1.162, 2.167e-6
-1.163, 2.176e-6
-1.164, 2.157e-6
-1.165, 2.178e-6
-1.166, 2.142e-6
-1.167, 2.220e-6
-1.168, 2.270e-6
-1.169, 2.363e-6
-1.170, 2.425e-6
-1.171, 2.430e-6
-1.172, 2.364e-6
-1.173, 2.316e-6
-1.174, 2.309e-6
-1.175, 2.320e-6
-1.176, 2.379e-6
-1.177, 2.319e-6
-1.178, 2.429e-6
-1.179, 2.374e-6
-1.180, 2.404e-6
-1.181, 2.416e-6
-1.182, 2.475e-6
-1.183, 2.484e-6
-1.184, 2.586e-6
-1.185, 2.691e-6
-1.186, 2.824e-6
-1.187, 2.857e-6
-1.188, 2.873e-6
-1.189, 2.974e-6
-1.190, 3.003e-6
-1.191, 2.639e-6
-1.192, 2.670e-6
-1.193, 2.675e-6
-1.194, 2.727e-6
-1.195, 2.655e-6
-1.196, 2.679e-6
-1.197, 2.811e-6
-1.198, 2.749e-6
-1.199, 2.800e-6
-1.200, 2.758e-6
-1.201, 2.832e-6
-1.202, 2.872e-6
-1.203, 2.892e-6
-1.204, 2.916e-6
-1.205, 2.900e-6
-1.206, 3.001e-6
-1.207, 3.021e-6
-1.208, 3.048e-6
-1.209, 3.045e-6
-1.210, 2.995e-6
-1.211, 3.100e-6
-1.212, 3.101e-6
-1.213, 3.171e-6
-1.214, 3.172e-6
-1.215, 3.230e-6
-1.216, 3.324e-6
-1.217, 3.558e-6
-1.218, 3.630e-6
-1.219, 3.705e-6
-1.220, 3.764e-6
-1.221, 3.835e-6
-1.222, 3.852e-6
-1.223, 3.575e-6
-1.224, 3.575e-6
-1.225, 3.622e-6
-1.226, 3.669e-6
-1.227, 3.692e-6
-1.228, 3.749e-6
-1.229, 3.816e-6
-1.230, 3.809e-6
-1.231, 3.877e-6
-1.232, 3.967e-6
-1.233, 3.965e-6
-1.234, 4.056e-6
-1.235, 4.184e-6
-1.236, 4.423e-6
-1.237, 4.526e-6
-1.238, 4.608e-6
-1.239, 4.693e-6
-1.240, 4.752e-6
-1.241, 4.613e-6
-1.242, 4.501e-6
-1.243, 4.534e-6
-1.244, 4.615e-6
-1.245, 4.677e-6
-1.246, 4.744e-6
-1.247, 4.797e-6
-1.248, 4.855e-6
-1.249, 4.974e-6
-1.250, 4.970e-6
-1.251, 5.106e-6
-1.252, 5.179e-6
-1.253, 5.426e-6
-1.254, 5.644e-6
-1.255, 5.837e-6
-1.256, 5.903e-6
-1.257, 6.014e-6
-1.258, 6.159e-6
-1.259, 6.312e-6
-1.260, 6.416e-6
-1.261, 6.241e-6
-1.262, 6.134e-6
-1.263, 6.199e-6
-1.264, 6.314e-6
-1.265, 6.378e-6
-1.266, 6.509e-6
-1.267, 6.602e-6
-1.268, 6.678e-6
-1.269, 6.836e-6
-1.270, 6.914e-6
-1.271, 7.088e-6
-1.272, 7.362e-6
-1.273, 7.637e-6
-1.274, 7.795e-6
-1.275, 7.948e-6
-1.276, 8.099e-6
-1.277, 8.238e-6
-1.278, 8.404e-6
-1.279, 8.611e-6
-1.280, 8.494e-6
-1.281, 8.397e-6
-1.282, 8.582e-6
-1.283, 8.695e-6
-1.284, 8.832e-6
-1.285, 8.915e-6
-1.286, 9.185e-6
-1.287, 9.294e-6
-1.288, 9.481e-6
-1.289, 9.585e-6
-1.290, 9.834e-6
-1.291, 1.006e-5
-1.292, 1.043e-5
-1.293, 1.075e-5
-1.294, 1.091e-5
-1.295, 1.117e-5
-1.296, 1.135e-5
-1.297, 1.149e-5
-1.298, 1.147e-5
-1.299, 1.156e-5
-1.300, 1.175e-5
-1.301, 1.203e-5
-1.302, 1.213e-5
-1.303, 1.239e-5
-1.304, 1.261e-5
-1.305, 1.280e-5
-1.306, 1.304e-5
-1.307, 1.328e-5
-1.308, 1.353e-5
-1.309, 1.385e-5
-1.310, 1.427e-5
-1.311, 1.460e-5
-1.312, 1.486e-5
-1.313, 1.513e-5
-1.314, 1.535e-5
-1.315, 1.524e-5
-1.316, 1.553e-5
-1.317, 1.581e-5
-1.318, 1.610e-5
-1.319, 1.633e-5
-1.320, 1.659e-5
-1.321, 1.687e-5
-1.322, 1.716e-5
-1.323, 1.749e-5
-1.324, 1.772e-5
-1.325, 1.809e-5
-1.326, 1.843e-5
-1.327, 1.894e-5
-1.328, 1.934e-5
-1.329, 1.964e-5
-1.330, 1.998e-5
-1.331, 2.031e-5
-1.332, 2.063e-5
-1.333, 2.065e-5
-1.334, 2.095e-5
-1.335, 2.134e-5
-1.336, 2.165e-5
-1.337, 2.196e-5
-1.338, 2.235e-5
-1.339, 2.273e-5
-1.340, 2.305e-5
-1.341, 2.344e-5
-1.342, 2.377e-5
-1.343, 2.420e-5
-1.344, 2.466e-5
-1.345, 2.522e-5
-1.346, 2.568e-5
-1.347, 2.608e-5
-1.348, 2.651e-5
-1.349, 2.692e-5
-1.350, 2.793e-5
-1.351, 2.714e-5
-1.352, 2.785e-5
-1.353, 2.832e-5
-1.354, 2.874e-5
-1.355, 2.908e-5
-1.356, 2.957e-5
-1.357, 2.999e-5
-1.358, 3.039e-5
-1.359, 3.089e-5
-1.360, 3.131e-5
-1.361, 3.188e-5
-1.362, 3.232e-5
-1.363, 3.301e-5
-1.364, 3.354e-5
-1.365, 3.403e-5
-1.366, 3.455e-5
-1.367, 3.508e-5
-1.368, 3.535e-5
-1.369, 3.572e-5
-1.370, 3.630e-5
-1.371, 3.680e-5
-1.372, 3.730e-5
-1.373, 3.789e-5
-1.374, 3.837e-5
-1.375, 3.890e-5
-1.376, 3.951e-5
-1.377, 4.000e-5
-1.378, 4.058e-5
-1.379, 4.118e-5
-1.380, 4.192e-5
-1.381, 4.252e-5
-1.382, 4.315e-5
-1.383, 4.375e-5
-1.384, 4.430e-5
-1.385, 4.492e-5
-1.386, 4.568e-5
-1.387, 4.588e-5
-1.388, 4.657e-5
-1.389, 4.720e-5
-1.390, 4.777e-5
-1.391, 4.843e-5
-1.392, 4.900e-5
-1.393, 4.969e-5
-1.394, 5.029e-5
-1.395, 5.091e-5
-1.396, 5.162e-5
-1.397, 5.227e-5
-1.398, 5.311e-5
-1.399, 5.389e-5
-1.400, 5.460e-5
-1.401, 5.533e-5
-1.402, 5.606e-5
-1.403, 5.688e-5
-1.404, 5.730e-5
-1.405, 5.796e-5
-1.406, 5.868e-5
-1.407, 5.937e-5
-1.408, 6.007e-5
-1.409, 6.079e-5
-1.410, 6.152e-5
-1.411, 6.228e-5
-1.412, 6.306e-5
-1.413, 6.376e-5
-1.414, 6.449e-5
-1.415, 6.535e-5
-1.416, 6.625e-5
-1.417, 6.715e-5
-1.418, 6.799e-5
-1.419, 6.876e-5
-1.420, 6.954e-5
-1.421, 7.060e-5
-1.422, 7.109e-5
-1.423, 7.191e-5
-1.424, 7.286e-5
-1.425, 7.364e-5
-1.426, 7.451e-5
-1.427, 7.530e-5
-1.428, 7.622e-5
-1.429, 7.709e-5
-1.430, 7.798e-5
-1.431, 7.890e-5
-1.432, 7.970e-5
-1.433, 8.069e-5
-1.434, 8.180e-5
-1.435, 8.276e-5
-1.436, 8.370e-5
-1.437, 8.452e-5
-1.438, 8.570e-5
-1.439, 8.679e-5
-1.440, 8.746e-5
-1.441, 8.822e-5
-1.442, 8.915e-5
-1.443, 9.002e-5
-1.444, 9.107e-5
-1.445, 9.193e-5
-1.446, 9.304e-5
-1.447, 9.406e-5
-1.448, 9.505e-5
-1.449, 9.599e-5
-1.450, 9.697e-5
-1.451, 9.792e-5
-1.452, 9.909e-5
-1.453, 1.002e-4
-1.454, 1.013e-4
-1.455, 1.022e-4
-1.456, 1.033e-4
-1.457, 1.044e-4
-1.458, 1.054e-4
-1.459, 1.065e-4
-1.460, 1.075e-4
-1.461, 1.086e-4
-1.462, 1.097e-4
-1.463, 1.110e-4
-1.464, 1.122e-4
-1.465, 1.134e-4
-1.466, 1.146e-4
-1.467, 1.156e-4
-1.468, 1.167e-4
-1.469, 1.180e-4
-1.470, 1.193e-4
-1.471, 1.205e-4
-1.472, 1.218e-4
-1.473, 1.231e-4
-1.474, 1.244e-4
-1.475, 1.255e-4
-1.476, 1.268e-4
-1.477, 1.280e-4
-1.478, 1.293e-4
-1.479, 1.306e-4
-1.480, 1.319e-4
-1.481, 1.334e-4
-1.482, 1.350e-4
-1.483, 1.363e-4
-1.484, 1.374e-4
-1.485, 1.385e-4
-1.486, 1.401e-4
-1.487, 1.416e-4
-1.488, 1.430e-4
-1.489, 1.445e-4
-1.490, 1.459e-4
-1.491, 1.473e-4
-1.492, 1.489e-4
-1.493, 1.504e-4
-1.494, 1.526e-4
-1.495, 1.539e-4
-1.496, 1.556e-4
-1.497, 1.569e-4
-1.498, 1.582e-4
-1.499, 1.597e-4
-1.500, 1.613e-4
-1.501, 1.631e-4
-1.502, 1.649e-4
-1.503, 1.664e-4
-1.504, 1.679e-4
-1.505, 1.692e-4
-1.506, 1.711e-4
-1.507, 1.731e-4
-1.508, 1.747e-4
-1.509, 1.765e-4
-1.510, 1.782e-4
-1.511, 1.800e-4
-1.512, 1.827e-4
-1.513, 1.842e-4
-1.514, 1.861e-4
-1.515, 1.878e-4
-1.516, 1.896e-4
-1.517, 1.916e-4
-1.518, 1.936e-4
-1.519, 1.956e-4
-1.520, 1.976e-4
-1.521, 1.995e-4
-1.522, 2.014e-4
-1.523, 2.034e-4
-1.524, 2.048e-4
-1.525, 2.067e-4
-1.526, 2.087e-4
-1.527, 2.109e-4
-1.528, 2.133e-4
-1.529, 2.156e-4
-1.530, 2.181e-4
-1.531, 2.209e-4
-1.532, 2.233e-4
-1.533, 2.254e-4
-1.534, 2.278e-4
-1.535, 2.300e-4
-1.536, 2.325e-4
-1.537, 2.353e-4
-1.538, 2.381e-4
-1.539, 2.411e-4
-1.540, 2.438e-4
-1.541, 2.464e-4
-1.542, 2.485e-4
-1.543, 2.508e-4
-1.544, 2.539e-4
-1.545, 2.570e-4
-1.546, 2.599e-4
-1.547, 2.626e-4
-1.548, 2.656e-4
-1.549, 2.685e-4
-1.550, 2.735e-4
-1.551, 2.765e-4
-1.552, 2.800e-4
-1.553, 2.830e-4
-1.554, 2.863e-4
-1.555, 2.897e-4
-1.556, 2.935e-4
-1.557, 2.973e-4
-1.558, 3.012e-4
-1.559, 3.051e-4
-1.560, 3.088e-4
-1.561, 3.129e-4
-1.562, 3.169e-4
-1.563, 3.210e-4
-1.564, 3.256e-4
-1.565, 3.297e-4
-1.566, 3.345e-4
-1.567, 3.374e-4
-1.568, 3.409e-4
-1.569, 3.461e-4
-1.570, 3.512e-4
-1.571, 3.558e-4
-1.572, 3.614e-4
-1.573, 3.673e-4
-1.574, 3.732e-4
-1.575, 3.797e-4
-1.576, 3.842e-4
-1.577, 3.897e-4
-1.578, 3.953e-4
-1.579, 4.023e-4
-1.580, 4.088e-4
-1.581, 4.162e-4
-1.582, 4.237e-4
-1.583, 4.318e-4
-1.584, 4.389e-4
-1.585, 4.441e-4
-1.586, 4.488e-4
-1.587, 4.565e-4
-1.588, 4.648e-4
-1.589, 4.728e-4
-1.590, 4.815e-4
-1.591, 4.918e-4
-1.592, 5.038e-4
-1.593, 5.122e-4
-1.594, 5.206e-4
-1.595, 5.298e-4
-1.596, 5.405e-4
-1.597, 5.508e-4
-1.598, 5.620e-4
-1.599, 5.737e-4
-1.600, 5.854e-4
-1.601, 5.986e-4
-1.602, 6.075e-4
-1.603, 6.172e-4
-1.604, 6.270e-4
-1.605, 6.403e-4
-1.606, 6.546e-4
-1.607, 6.682e-4
-1.608, 6.831e-4
-1.609, 6.956e-4
-1.610, 7.272e-4
-1.611, 7.397e-4
-1.612, 7.559e-4
-1.613, 7.725e-4
-1.614, 7.923e-4
-1.615, 8.116e-4
-1.616, 8.320e-4
-1.617, 8.552e-4
-1.618, 8.794e-4
-1.619, 9.036e-4
-1.620, 9.240e-4
-1.621, 9.347e-4
-1.622, 9.543e-4
-1.623, 9.747e-4
-1.624, 9.997e-4
-1.625, 1.029e-3
-1.626, 1.061e-3
-1.627, 1.102e-3
-1.628, 1.130e-3
-1.629, 1.160e-3
-1.630, 1.191e-3
-1.631, 1.227e-3
-1.632, 1.261e-3
-1.633, 1.297e-3
-1.634, 1.339e-3
-1.635, 1.383e-3
-1.636, 1.427e-3
-1.637, 1.454e-3
-1.638, 1.453e-3
-1.639, 1.484e-3
-1.640, 1.522e-3
-1.641, 1.560e-3
-1.642, 1.136e-3
-1.643, 2.652e-4
-1.644, 1.680e-4
-1.645, 5.400e-4
-1.646, 1.671e-3
-1.647, 1.744e-3
-1.648, 1.814e-3
-1.649, 1.881e-3
-1.650, 1.951e-3
-1.651, 2.016e-3
-1.652, 2.087e-3
-1.653, 2.170e-3
-1.654, 2.255e-3
-1.655, 2.334e-3
-1.656, 2.338e-3
-1.657, 2.330e-3
-1.658, 2.377e-3
-1.659, 2.430e-3
-1.660, 1.481e-3
-1.661, 2.633e-4
-1.662, 1.540e-4
-1.663, 1.078e-4
-1.664, 1.060e-4
-1.665, 2.152e-3
-1.666, 2.691e-3
-1.667, 2.814e-3
-1.668, 2.932e-3
-1.669, 3.051e-3
-1.670, 3.159e-3
-1.671, 3.267e-3
-1.672, 3.393e-3
-1.673, 3.514e-3
-1.674, 3.621e-3
-1.675, 3.686e-3
-1.676, 3.661e-3
-1.677, 3.699e-3
-1.678, 3.715e-3
-1.679, 2.579e-3
-1.680, 3.099e-4
-1.681, 1.272e-4
-1.682, 1.042e-4
-1.683, 3.758e-3
-1.684, 4.059e-3
-1.685, 4.231e-3
-1.686, 4.384e-3
-1.687, 4.536e-3
-1.688, 4.661e-3
-1.689, 4.783e-3
-1.690, 4.954e-3
-1.691, 5.098e-3
-1.692, 5.149e-3
-1.693, 5.139e-3
-1.694, 5.071e-3
-1.695, 4.456e-3
-1.696, 1.414e-3
-1.697, 1.225e-4
-1.698, 9.271e-5
-1.699, 5.111e-5
-1.700, 1.601e-3
-1.699, 5.185e-3
-1.698, 5.302e-3
-1.697, 5.464e-3
-1.696, 5.524e-3
-1.695, 5.504e-3
-1.694, 5.500e-3
-1.693, 5.505e-3
-1.692, 5.519e-3
-1.691, 5.487e-3
-1.690, 5.356e-3
-1.689, 5.149e-3
-1.688, 5.027e-3
-1.687, 4.845e-3
-1.686, 2.293e-3
-1.685, 2.208e-4
-1.684, 8.367e-5
-1.683, 1.487e-5
-1.682, 7.034e-6
-1.681, 3.919e-3
-1.680, 4.367e-3
-1.679, 4.376e-3
-1.678, 4.366e-3
-1.677, 4.350e-3
-1.676, 4.315e-3
-1.675, 4.291e-3
-1.674, 4.280e-3
-1.673, 4.240e-3
-1.672, 4.191e-3
-1.671, 4.082e-3
-1.670, 3.919e-3
-1.669, 3.736e-3
-1.668, 3.586e-3
-1.667, 1.778e-3
-1.666, 1.612e-4
-1.665, 7.119e-5
-1.664, 7.044e-6
-1.663, 1.010e-3
-1.662, 3.256e-3
-1.661, 3.232e-3
-1.660, 3.210e-3
-1.659, 3.185e-3
-1.658, 3.151e-3
-1.657, 3.101e-3
-1.656, 3.064e-3
-1.655, 3.053e-3
-1.654, 3.032e-3
-1.653, 2.992e-3
-1.652, 2.848e-3
-1.651, 2.717e-3
-1.650, 2.655e-3
-1.649, 2.469e-3
-1.648, 7.794e-4
-1.647, 1.388e-4
-1.646, 7.764e-5
-1.645, 7.420e-5
-1.644, 7.366e-5
-1.643, 2.156e-3
-1.642, 2.227e-3
-1.641, 2.192e-3
-1.640, 2.164e-3
-1.639, 2.142e-3
-1.638, 2.113e-3
-1.637, 2.076e-3
-1.636, 2.048e-3
-1.635, 2.018e-3
-1.634, 1.981e-3
-1.633, 1.908e-3
-1.632, 1.816e-3
-1.631, 1.770e-3
-1.630, 1.733e-3
-1.629, 1.695e-3
-1.628, 1.048e-3
-1.627, 1.920e-4
-1.626, 9.887e-5
-1.625, 6.895e-4
-1.624, 1.513e-3
-1.623, 1.486e-3
-1.622, 1.469e-3
-1.621, 1.444e-3
-1.620, 1.417e-3
-1.619, 1.391e-3
-1.618, 1.370e-3
-1.617, 1.347e-3
-1.616, 1.322e-3
-1.615, 1.284e-3
-1.614, 1.242e-3
-1.613, 1.204e-3
-1.612, 1.169e-3
-1.611, 1.141e-3
-1.610, 1.108e-3
-1.609, 1.067e-3
-1.608, 4.022e-4
-1.607, 4.771e-4
-1.606, 1.008e-3
-1.605, 9.777e-4
-1.604, 9.600e-4
-1.603, 9.399e-4
-1.602, 9.196e-4
-1.601, 8.992e-4
-1.600, 8.818e-4
-1.599, 8.647e-4
-1.598, 8.444e-4
-1.597, 8.180e-4
-1.596, 7.912e-4
-1.595, 7.666e-4
-1.594, 7.482e-4
-1.593, 7.287e-4
-1.592, 7.091e-4
-1.591, 6.912e-4
-1.590, 6.733e-4
-1.589, 6.741e-4
-1.588, 6.571e-4
-1.587, 6.429e-4
-1.586, 6.273e-4
-1.585, 6.120e-4
-1.584, 5.982e-4
-1.583, 5.850e-4
-1.582, 5.715e-4
-1.581, 5.580e-4
-1.580, 5.448e-4
-1.579, 5.290e-4
-1.578, 5.128e-4
-1.577, 4.988e-4
-1.576, 4.874e-4
-1.575, 4.755e-4
-1.574, 4.626e-4
-1.573, 4.487e-4
-1.572, 3.657e-4
-1.571, 2.625e-4
-1.570, 4.280e-4
-1.569, 4.123e-4
-1.568, 4.033e-4
-1.567, 3.939e-4
-1.566, 3.848e-4
-1.565, 3.761e-4
-1.564, 3.684e-4
-1.563, 3.605e-4
-1.562, 3.518e-4
-1.561, 3.429e-4
-1.560, 3.343e-4
-1.559, 3.258e-4
-1.558, 3.174e-4
-1.557, 3.103e-4
-1.556, 3.028e-4
-1.555, 2.957e-4
-1.554, 2.883e-4
-1.553, 2.849e-4
-1.552, 2.786e-4
-1.551, 2.724e-4
-1.550, 2.670e-4
-1.549, 2.609e-4
-1.548, 2.551e-4
-1.547, 2.495e-4
-1.546, 2.440e-4
-1.545, 2.385e-4
-1.544, 2.332e-4
-1.543, 2.278e-4
-1.542, 2.221e-4
-1.541, 2.169e-4
-1.540, 2.119e-4
-1.539, 2.072e-4
-1.538, 2.026e-4
-1.537, 1.979e-4
-1.536, 1.937e-4
-1.535, 1.912e-4
-1.534, 1.867e-4
-1.533, 1.829e-4
-1.532, 1.789e-4
-1.531, 1.750e-4
-1.530, 1.712e-4
-1.529, 1.675e-4
-1.528, 1.641e-4
-1.527, 1.609e-4
-1.526, 1.575e-4
-1.525, 1.542e-4
-1.524, 1.503e-4
-1.523, 1.470e-4
-1.522, 1.436e-4
-1.521, 1.403e-4
-1.520, 1.373e-4
-1.519, 1.345e-4
-1.518, 1.328e-4
-1.517, 1.300e-4
-1.516, 1.275e-4
-1.515, 1.248e-4
-1.514, 1.221e-4
-1.513, 1.194e-4
-1.512, 1.170e-4
-1.511, 1.147e-4
-1.510, 1.123e-4
-1.509, 1.099e-4
-1.508, 1.075e-4
-1.507, 1.052e-4
-1.506, 1.028e-4
-1.505, 1.004e-4
-1.504, 9.818e-5
-1.503, 9.601e-5
-1.502, 9.389e-5
-1.501, 9.198e-5
-1.500, 9.069e-5
-1.499, 8.867e-5
-1.498, 8.705e-5
-1.497, 8.534e-5
-1.496, 8.353e-5
-1.495, 8.176e-5
-1.494, 8.014e-5
-1.493, 7.857e-5
-1.492, 7.696e-5
-1.491, 7.537e-5
-1.490, 7.379e-5
-1.489, 7.214e-5
-1.488, 7.034e-5
-1.487, 6.891e-5
-1.486, 6.744e-5
-1.485, 6.594e-5
-1.484, 6.451e-5
-1.483, 6.315e-5
-1.482, 6.216e-5
-1.481, 6.101e-5
-1.480, 5.983e-5
-1.479, 5.869e-5
-1.478, 5.751e-5
-1.477, 5.636e-5
-1.476, 5.515e-5
-1.475, 5.408e-5
-1.474, 5.300e-5
-1.473, 5.184e-5
-1.472, 5.069e-5
-1.471, 4.962e-5
-1.470, 4.847e-5
-1.469, 4.737e-5
-1.468, 4.631e-5
-1.467, 4.526e-5
-1.466, 4.428e-5
-1.465, 4.332e-5
-1.464, 4.291e-5
-1.463, 4.195e-5
-1.462, 4.111e-5
-1.461, 4.027e-5
-1.460, 3.943e-5
-1.459, 3.863e-5
-1.458, 3.780e-5
-1.457, 3.703e-5
-1.456, 3.628e-5
-1.455, 3.556e-5
-1.454, 3.474e-5
-1.453, 3.403e-5
-1.452, 3.321e-5
-1.451, 3.240e-5
-1.450, 3.164e-5
-1.449, 3.094e-5
-1.448, 3.027e-5
-1.447, 2.960e-5
-1.446, 2.918e-5
-1.445, 2.876e-5
-1.444, 2.826e-5
-1.443, 2.764e-5
-1.442, 2.712e-5
-1.441, 2.658e-5
-1.440, 2.604e-5
-1.439, 2.558e-5
-1.438, 2.497e-5
-1.437, 2.450e-5
-1.436, 2.399e-5
-1.435, 2.346e-5
-1.434, 2.272e-5
-1.433, 2.220e-5
-1.432, 2.170e-5
-1.431, 2.124e-5
-1.430, 2.073e-5
-1.429, 2.032e-5
-1.428, 2.000e-5
-1.427, 1.972e-5
-1.426, 1.929e-5
-1.425, 1.890e-5
-1.424, 1.856e-5
-1.423, 1.813e-5
-1.422, 1.778e-5
-1.421, 1.745e-5
-1.420, 1.708e-5
-1.419, 1.675e-5
-1.418, 1.640e-5
-1.417, 1.601e-5
-1.416, 1.568e-5
-1.415, 1.530e-5
-1.414, 1.503e-5
-1.413, 1.468e-5
-1.412, 1.439e-5
-1.411, 1.407e-5
-1.410, 1.375e-5
-1.409, 1.345e-5
-1.408, 1.314e-5
-1.407, 1.292e-5
-1.406, 1.263e-5
-1.405, 1.236e-5
-1.404, 1.205e-5
-1.403, 1.176e-5
-1.402, 1.145e-5
-1.401, 1.108e-5
-1.400, 1.078e-5
-1.399, 1.047e-5
-1.398, 1.021e-5
-1.397, 1.000e-5
-1.396, 9.896e-6
-1.395, 9.839e-6
-1.394, 9.660e-6
-1.393, 9.446e-6
-1.392, 9.254e-6
-1.391, 9.076e-6
-1.390, 8.894e-6
-1.389, 8.635e-6
-1.388, 8.478e-6
-1.387, 8.262e-6
-1.386, 8.078e-6
-1.385, 7.852e-6
-1.384, 7.691e-6
-1.383, 7.376e-6
-1.382, 7.091e-6
-1.381, 6.895e-6
-1.380, 6.700e-6
-1.379, 6.474e-6
-1.378, 6.337e-6
-1.377, 6.392e-6
-1.376, 6.335e-6
-1.375, 6.181e-6
-1.374, 6.030e-6
-1.373, 5.956e-6
-1.372, 5.825e-6
-1.371, 5.644e-6
-1.370, 5.504e-6
-1.369, 5.370e-6
-1.368, 5.239e-6
-1.367, 5.129e-6
-1.366, 4.941e-6
-1.365, 4.806e-6
-1.364, 4.557e-6
-1.363, 4.368e-6
-1.362, 4.209e-6
-1.361, 4.084e-6
-1.360, 4.183e-6
-1.359, 4.106e-6
-1.358, 4.032e-6
-1.357, 3.922e-6
-1.356, 3.795e-6
-1.355, 3.701e-6
-1.354, 3.597e-6
-1.353, 3.490e-6
-1.352, 3.441e-6
-1.351, 3.300e-6
-1.350, 3.196e-6
-1.349, 3.103e-6
-1.348, 3.016e-6
-1.347, 2.792e-6
-1.346, 2.611e-6
-1.345, 2.471e-6
-1.344, 2.326e-6
-1.343, 2.375e-6
-1.342, 2.501e-6
-1.341, 2.402e-6
-1.340, 2.323e-6
-1.339, 2.237e-6
-1.338, 2.189e-6
-1.337, 2.131e-6
-1.336, 2.024e-6
-1.335, 1.955e-6
-1.334, 1.863e-6
-1.333, 1.850e-6
-1.332, 1.767e-6
-1.331, 1.608e-6
-1.330, 1.492e-6
-1.329, 1.239e-6
-1.328, 1.176e-6
-1.327, 1.080e-6
-1.326, 9.617e-7
-1.325, 9.124e-7
-1.324, 9.016e-7
-1.323, 1.127e-6
-1.322, 1.141e-6
-1.321, 1.049e-6
-1.320, 1.015e-6
-1.319, 9.213e-7
-1.318, 8.562e-7
-1.317, 8.572e-7
-1.316, 7.595e-7
-1.315, 7.585e-7
-1.314, 6.884e-7
-1.313, 6.322e-7
-1.312, 5.592e-7
-1.311, 3.816e-7
-1.310, 2.228e-7
-1.309, 1.044e-7
-1.308, 6.393e-8
-1.307, -6.117e-9
-1.306, -6.038e-8
-1.305, -1.778e-7
-1.304, 1.263e-8
-1.303, 1.764e-7
-1.302, 1.606e-7
-1.301, 1.123e-7
-1.300, 1.212e-7
-1.299, 3.335e-8
-1.298, 2.762e-9
-1.297, -3.769e-8
-1.296, -2.486e-8
-1.295, -1.156e-7
-1.294, -1.630e-7
-1.293, -1.383e-7
-1.292, -3.218e-7
-1.291, -5.527e-7
-1.290, -5.981e-7
-1.289, -7.017e-7
-1.288, -7.263e-7
-1.287, -6.494e-7
-1.286, -4.008e-7
-1.285, -4.530e-7
-1.284, -4.866e-7
-1.283, -4.747e-7
-1.282, -5.487e-7
-1.281, -5.231e-7
-1.280, -6.060e-7
-1.279, -6.227e-7
-1.278, -6.425e-7
-1.277, -6.849e-7
-1.276, -6.800e-7
-1.275, -7.589e-7
-1.274, -9.602e-7
-1.273, -1.071e-6
-1.272, -1.133e-6
-1.271, -1.140e-6
-1.270, -1.161e-6
-1.269, -8.585e-7
-1.268, -8.832e-7
-1.267, -8.763e-7
-1.266, -8.743e-7
-1.265, -9.562e-7
-1.264, -9.493e-7
-1.263, -9.148e-7
-1.262, -9.148e-7
-1.261, -9.809e-7
-1.260, -1.015e-6
-1.259, -1.021e-6
-1.258, -1.092e-6
-1.257, -1.303e-6
-1.256, -1.372e-6
-1.255, -1.454e-6
-1.254, -1.491e-6
-1.253, -1.384e-6
-1.252, -1.144e-6
-1.251, -1.185e-6
-1.250, -1.218e-6
-1.249, -1.213e-6
-1.248, -1.208e-6
-1.247, -1.217e-6
-1.246, -1.222e-6
-1.245, -1.277e-6
-1.244, -1.266e-6
-1.243, -1.299e-6
-1.242, -1.298e-6
-1.241, -1.276e-6
-1.240, -1.353e-6
-1.239, -1.280e-6
-1.238, -1.340e-6
-1.237, -1.371e-6
-1.236, -1.535e-6
-1.235, -1.680e-6
-1.234, -1.748e-6
-1.233, -1.773e-6
-1.232, -1.782e-6
-1.231, -1.480e-6
-1.230, -1.446e-6
-1.229, -1.445e-6
-1.228, -1.450e-6
-1.227, -1.420e-6
-1.226, -1.460e-6
-1.225, -1.481e-6
-1.224, -1.420e-6
-1.223, -1.523e-6
-1.222, -1.463e-6
-1.221, -1.496e-6
-1.220, -1.554e-6
-1.219, -1.734e-6
-1.218, -1.854e-6
-1.217, -1.916e-6
-1.216, -1.909e-6
-1.215, -1.896e-6
-1.214, -1.548e-6
-1.213, -1.602e-6
-1.212, -1.563e-6
-1.211, -1.567e-6
-1.210, -1.604e-6
-1.209, -1.569e-6
-1.208, -1.620e-6
-1.207, -1.573e-6
-1.206, -1.608e-6
-1.205, -1.638e-6
-1.204, -1.637e-6
-1.203, -1.774e-6
-1.202, -1.920e-6
-1.201, -1.982e-6
-1.200, -2.065e-6
-1.199, -2.087e-6
-1.198, -2.113e-6
-1.197, -1.833e-6
-1.196, -1.705e-6
-1.195, -1.745e-6
-1.194, -1.710e-6
-1.193, -1.677e-6
-1.192, -1.696e-6
-1.191, -1.736e-6
-1.190, -1.752e-6
-1.189, -1.684e-6
-1.188, -1.685e-6
-1.187, -1.732e-6
-1.186, -1.783e-6
-1.185, -1.974e-6
-1.184, -2.091e-6
-1.183, -2.129e-6
-1.182, -2.203e-6
-1.181, -2.189e-6
-1.180, -2.200e-6
-1.179, -2.232e-6
-1.178, -1.814e-6
-1.177, -1.868e-6
-1.176, -1.789e-6
-1.175, -1.829e-6
-1.174, -1.815e-6
-1.173, -1.826e-6
-1.172, -1.869e-6
-1.171, -1.852e-6
-1.170, -1.857e-6
-1.169, -1.878e-6
-1.168, -1.910e-6
-1.167, -1.963e-6
-1.166, -2.156e-6
-1.165, -2.255e-6
-1.164, -2.292e-6
-1.163, -2.310e-6
-1.162, -2.293e-6
-1.161, -1.940e-6
-1.160, -1.947e-6
-1.159, -1.923e-6
-1.158, -1.907e-6
-1.157, -1.920e-6
-1.156, -1.889e-6
-1.155, -1.965e-6
-1.154, -1.970e-6
-1.153, -1.976e-6
-1.152, -1.947e-6
-1.151, -1.954e-6
-1.150, -2.028e-6
-1.149, -2.175e-6
-1.148, -2.319e-6
-1.147, -2.375e-6
-1.146, -2.401e-6
-1.145, -2.437e-6
-1.144, -2.426e-6
-1.143, -2.249e-6
-1.142, -2.082e-6
-1.141, -2.084e-6
-1.140, -2.070e-6
-1.139, -2.087e-6
-1.138, -2.100e-6
-1.137, -2.062e-6
-1.136, -2.084e-6
-1.135, -2.080e-6
-1.134, -2.112e-6
-1.133, -2.113e-6
-1.132, -2.172e-6
-1.131, -2.288e-6
-1.130, -2.434e-6
-1.129, -2.496e-6
-1.128, -2.539e-6
-1.127, -2.526e-6
-1.126, -2.598e-6
-1.125, -2.263e-6
-1.124, -2.233e-6
-1.123, -2.225e-6
-1.122, -2.179e-6
-1.121, -2.234e-6
-1.120, -2.221e-6
-1.119, -2.239e-6
-1.118, -2.263e-6
-1.117, -2.192e-6
-1.116, -2.288e-6
-1.115, -2.326e-6
-1.114, -2.512e-6
-1.113, -2.624e-6
-1.112, -2.663e-6
-1.111, -2.686e-6
-1.110, -2.740e-6
-1.109, -2.750e-6
-1.108, -2.347e-6
-1.107, -2.319e-6
-1.106, -2.366e-6
-1.105, -2.369e-6
-1.104, -2.409e-6
-1.103, -2.417e-6
-1.102, -2.397e-6
-1.101, -2.419e-6
-1.100, -2.408e-6
-1.099, -2.457e-6
-1.098, -2.459e-6
-1.097, -2.624e-6
-1.096, -2.775e-6
-1.095, -2.878e-6
-1.094, -2.921e-6
-1.093, -2.640e-6
-1.092, -2.500e-6
-1.091, -2.580e-6
-1.090, -2.584e-6
-1.089, -2.599e-6
-1.088, -2.566e-6
-1.087, -2.559e-6
-1.086, -2.610e-6
-1.085, -2.593e-6
-1.084, -2.663e-6
-1.083, -2.706e-6
-1.082, -2.780e-6
-1.081, -2.984e-6
-1.080, -3.069e-6
-1.079, -3.151e-6
-1.078, -3.216e-6
-1.077, -3.341e-6
-1.076, -3.348e-6
-1.075, -3.300e-6
-1.074, -2.884e-6
-1.073, -2.904e-6
-1.072, -2.884e-6
-1.071, -2.928e-6
-1.070, -2.904e-6
-1.069, -2.949e-6
-1.068, -2.991e-6
-1.067, -3.028e-6
-1.066, -3.028e-6
-1.065, -3.023e-6
-1.064, -3.116e-6
-1.063, -3.178e-6
-1.062, -3.403e-6
-1.061, -3.489e-6
-1.060, -3.535e-6
-1.059, -3.627e-6
-1.058, -3.616e-6
-1.057, -3.744e-6
-1.056, -3.351e-6
-1.055, -3.316e-6
-1.054, -3.367e-6
-1.053, -3.379e-6
-1.052, -3.374e-6
-1.051, -3.422e-6
-1.050, -3.445e-6
-1.049, -3.518e-6
-1.048, -3.501e-6
-1.047, -3.528e-6
-1.046, -3.635e-6
-1.045, -3.713e-6
-1.044, -3.965e-6
-1.043, -4.065e-6
-1.042, -4.136e-6
-1.041, -4.180e-6
-1.040, -4.347e-6
-1.039, -4.369e-6
-1.038, -3.977e-6
-1.037, -3.951e-6
-1.036, -3.985e-6
-1.035, -4.062e-6
-1.034, -4.105e-6
-1.033, -4.114e-6
-1.032, -4.187e-6
-1.031, -4.187e-6
-1.030, -4.262e-6
-1.029, -4.317e-6
-1.028, -4.376e-6
-1.027, -4.677e-6
-1.026, -4.727e-6
-1.025, -4.848e-6
-1.024, -4.939e-6
-1.023, -4.928e-6
-1.022, -5.064e-6
-1.021, -4.985e-6
-1.020, -4.743e-6
-1.019, -4.873e-6
-1.018, -4.848e-6
-1.017, -4.980e-6
-1.016, -4.951e-6
-1.015, -5.042e-6
-1.014, -5.156e-6
-1.013, -5.181e-6
-1.012, -5.248e-6
-1.011, -5.247e-6
-1.010, -5.389e-6
-1.009, -5.593e-6
-1.008, -5.721e-6
-1.007, -5.899e-6
-1.006, -5.988e-6
-1.005, -6.051e-6
-1.004, -6.275e-6
-1.003, -6.361e-6
-1.002, -5.990e-6
-1.001, -5.935e-6
-1.000, -4.114e-6
-1.001, -3.165e-6
-1.002, -2.564e-6
-1.003, -2.239e-6
-1.004, -1.850e-6
-1.005, -1.559e-6
-1.006, -1.300e-6
-1.007, -1.062e-6
-1.008, -8.674e-7
-1.009, -5.182e-7
-1.010, -2.074e-7
-1.011, -3.157e-9
-1.012, 1.537e-7
-1.013, 3.323e-7
-1.014, 4.832e-7
-1.015, 4.448e-7
-1.016, 3.086e-7
-1.017, 4.448e-7
-1.018, 5.276e-7
-1.019, 5.977e-7
-1.020, 6.470e-7
-1.021, 7.565e-7
-1.022, 8.305e-7
-1.023, 9.361e-7
-1.024, 9.785e-7
-1.025, 1.030e-6
-1.026, 1.149e-6
-1.027, 1.301e-6
-1.028, 1.514e-6
-1.029, 1.571e-6
-1.030, 1.669e-6
-1.031, 1.754e-6
-1.032, 1.896e-6
-1.033, 1.911e-6
-1.034, 1.553e-6
-1.035, 1.540e-6
-1.036, 1.593e-6
-1.037, 1.586e-6
-1.038, 1.609e-6
-1.039, 1.641e-6
-1.040, 1.691e-6
-1.041, 1.685e-6
-1.042, 1.717e-6
-1.043, 1.754e-6
-1.044, 1.814e-6
-1.045, 1.882e-6
-1.046, 2.040e-6
-1.047, 2.130e-6
-1.048, 2.184e-6
-1.049, 2.211e-6
-1.050, 2.399e-6
-1.051, 2.385e-6
-1.052, 2.381e-6
-1.053, 1.980e-6
-1.054, 2.009e-6
-1.055, 1.967e-6
-1.056, 2.014e-6
-1.057, 1.979e-6
-1.058, 2.042e-6
-1.059, 1.996e-6
-1.060, 2.067e-6
-1.061, 2.022e-6
-1.062, 1.999e-6
-1.063, 2.075e-6
-1.064, 2.077e-6
-1.065, 2.108e-6
-1.066, 2.116e-6
-1.067, 2.047e-6
-1.068, 2.126e-6
-1.069, 2.099e-6
-1.070, 2.136e-6
-1.071, 2.105e-6
-1.072, 2.082e-6
-1.073, 2.135e-6
-1.074, 2.063e-6
-1.075, 2.171e-6
-1.076, 2.133e-6
-1.077, 2.114e-6
-1.078, 2.231e-6
-1.079, 2.357e-6
-1.080, 2.432e-6
-1.081, 2.455e-6
-1.082, 2.489e-6
-1.083, 2.538e-6
-1.084, 2.655e-6
-1.085, 2.554e-6
-1.086, 2.170e-6
-1.087, 2.133e-6
-1.088, 2.205e-6
-1.089, 2.165e-6
-1.090, 2.222e-6
-1.091, 2.142e-6
-1.092, 2.157e-6
-1.093, 2.153e-6
-1.094, 2.132e-6
-1.095, 2.185e-6
-1.096, 2.178e-6
-1.097, 2.251e-6
-1.098, 2.455e-6
-1.099, 2.484e-6
-1.100, 2.492e-6
-1.101, 2.509e-6
-1.102, 2.647e-6
-1.103, 2.665e-6
-1.104, 2.488e-6
-1.105, 2.184e-6
-1.106, 2.174e-6
-1.107, 2.170e-6
-1.108, 2.193e-6
-1.109, 2.196e-6
-1.110, 2.197e-6
-1.111, 2.134e-6
-1.112, 2.183e-6
-1.113, 2.214e-6
-1.114, 2.175e-6
-1.115, 2.232e-6
-1.116, 2.197e-6
-1.117, 2.334e-6
-1.118, 2.451e-6
-1.119, 2.509e-6
-1.120, 2.533e-6
-1.121, 2.507e-6
-1.122, 2.397e-6
-1.123, 2.189e-6
-1.124, 2.214e-6
-1.125, 2.248e-6
-1.126, 2.192e-6
-1.127, 2.233e-6
-1.128, 2.177e-6
-1.129, 2.195e-6
-1.130, 2.245e-6
-1.131, 2.141e-6
-1.132, 2.178e-6
-1.133, 2.235e-6
-1.134, 2.329e-6
-1.135, 2.435e-6
-1.136, 2.487e-6
-1.137, 2.503e-6
-1.138, 2.477e-6
-1.139, 2.263e-6
-1.140, 2.282e-6
-1.141, 2.215e-6
-1.142, 2.206e-6
-1.143, 2.264e-6
-1.144, 2.260e-6
-1.145, 2.241e-6
-1.146, 2.218e-6
-1.147, 2.237e-6
-1.148, 2.200e-6
-1.149, 2.223e-6
-1.150, 2.223e-6
-1.151, 2.290e-6
-1.152, 2.428e-6
-1.153, 2.524e-6
-1.154, 2.574e-6
-1.155, 2.593e-6
-1.156, 2.591e-6
-1.157, 2.669e-6
-1.158, 2.741e-6
-1.159, 2.423e-6
-1.160, 2.278e-6
-1.161, 2.242e-6
-1.162, 2.296e-6
-1.163, 2.268e-6
-1.164, 2.232e-6
-1.165, 2.304e-6
-1.166, 2.251e-6
-1.167, 2.267e-6
-1.168, 2.241e-6
-1.169, 2.307e-6
-1.170, 2.308e-6
-1.171, 2.339e-6
-1.172, 2.472e-6
-1.173, 2.566e-6
-1.174, 2.585e-6
-1.175, 2.480e-6
-1.176, 2.321e-6
-1.177, 2.306e-6
-1.178, 2.351e-6
-1.179, 2.319e-6
-1.180, 2.381e-6
-1.181, 2.333e-6
-1.182, 2.335e-6
-1.183, 2.328e-6
-1.184, 2.327e-6
-1.185, 2.410e-6
-1.186, 2.348e-6
-1.187, 2.413e-6
-1.188, 2.524e-6
-1.189, 2.651e-6
-1.190, 2.714e-6
-1.191, 2.737e-6
-1.192, 2.765e-6
-1.193, 2.883e-6
-1.194, 2.649e-6
-1.195, 2.455e-6
-1.196, 2.414e-6
-1.197, 2.443e-6
-1.198, 2.457e-6
-1.199, 2.470e-6
-1.200, 2.493e-6
-1.201, 2.461e-6
-1.202, 2.479e-6
-1.203, 2.494e-6
-1.204, 2.493e-6
-1.205, 2.542e-6
-1.206, 2.619e-6
-1.207, 2.751e-6
-1.208, 2.838e-6
-1.209, 2.882e-6
-1.210, 2.893e-6
-1.211, 2.994e-6
-1.212, 3.047e-6
-1.213, 3.050e-6
-1.214, 3.052e-6
-1.215, 2.642e-6
-1.216, 2.609e-6
-1.217, 2.638e-6
-1.218, 2.648e-6
-1.219, 2.657e-6
-1.220, 2.669e-6
-1.221, 2.669e-6
-1.222, 2.660e-6
-1.223, 2.709e-6
-1.224, 2.745e-6
-1.225, 2.727e-6
-1.226, 2.889e-6
-1.227, 2.974e-6
-1.228, 3.081e-6
-1.229, 3.124e-6
-1.230, 3.210e-6
-1.231, 3.257e-6
-1.232, 3.028e-6
-1.233, 2.827e-6
-1.234, 2.884e-6
-1.235, 2.837e-6
-1.236, 2.904e-6
-1.237, 2.890e-6
-1.238, 2.933e-6
-1.239, 2.963e-6
-1.240, 2.888e-6
-1.241, 2.987e-6
-1.242, 2.945e-6
-1.243, 3.027e-6
-1.244, 3.185e-6
-1.245, 3.316e-6
-1.246, 3.366e-6
-1.247, 3.386e-6
-1.248, 3.440e-6
-1.249, 3.555e-6
-1.250, 3.620e-6
-1.251, 3.212e-6
-1.252, 3.170e-6
-1.253, 3.213e-6
-1.254, 3.197e-6
-1.255, 3.257e-6
-1.256, 3.289e-6
-1.257, 3.266e-6
-1.258, 3.363e-6
-1.259, 3.323e-6
-1.260, 3.359e-6
-1.261, 3.424e-6
-1.262, 3.447e-6
-1.263, 3.672e-6
-1.264, 3.775e-6
-1.265, 3.868e-6
-1.266, 3.924e-6
-1.267, 3.969e-6
-1.268, 4.111e-6
-1.269, 3.884e-6
-1.270, 3.673e-6
-1.271, 3.757e-6
-1.272, 3.778e-6
-1.273, 3.833e-6
-1.274, 3.850e-6
-1.275, 3.862e-6
-1.276, 3.899e-6
-1.277, 3.978e-6
-1.278, 4.002e-6
-1.279, 4.060e-6
-1.280, 4.121e-6
-1.281, 4.299e-6
-1.282, 4.522e-6
-1.283, 4.581e-6
-1.284, 4.664e-6
-1.285, 4.751e-6
-1.286, 4.643e-6
-1.287, 4.466e-6
-1.288, 4.475e-6
-1.289, 4.526e-6
-1.290, 4.636e-6
-1.291, 4.644e-6
-1.292, 4.740e-6
-1.293, 4.793e-6
-1.294, 4.848e-6
-1.295, 4.925e-6
-1.296, 4.952e-6
-1.297, 5.068e-6
-1.298, 5.320e-6
-1.299, 5.528e-6
-1.300, 5.636e-6
-1.301, 5.694e-6
-1.302, 5.786e-6
-1.303, 5.792e-6
-1.304, 5.542e-6
-1.305, 5.649e-6
-1.306, 5.703e-6
-1.307, 5.763e-6
-1.308, 5.847e-6
-1.309, 5.966e-6
-1.310, 6.041e-6
-1.311, 6.100e-6
-1.312, 6.206e-6
-1.313, 6.294e-6
-1.314, 6.426e-6
-1.315, 6.636e-6
-1.316, 6.913e-6
-1.317, 7.084e-6
-1.318, 7.188e-6
-1.319, 7.343e-6
-1.320, 7.447e-6
-1.321, 7.649e-6
-1.322, 7.352e-6
-1.323, 7.384e-6
-1.324, 7.496e-6
-1.325, 7.645e-6
-1.326, 7.735e-6
-1.327, 7.906e-6
-1.328, 8.026e-6
-1.329, 8.141e-6
-1.330, 8.278e-6
-1.331, 8.466e-6
-1.332, 8.588e-6
-1.333, 8.779e-6
-1.334, 9.144e-6
-1.335, 9.387e-6
-1.336, 9.527e-6
-1.337, 9.702e-6
-1.338, 9.902e-6
-1.339, 9.652e-6
-1.340, 9.810e-6
-1.341, 9.999e-6
-1.342, 1.018e-5
-1.343, 1.036e-5
-1.344, 1.051e-5
-1.345, 1.071e-5
-1.346, 1.085e-5
-1.347, 1.115e-5
-1.348, 1.129e-5
-1.349, 1.153e-5
-1.350, 1.175e-5
-1.351, 1.213e-5
-1.352, 1.242e-5
-1.353, 1.268e-5
-1.354, 1.294e-5
-1.355, 1.317e-5
-1.356, 1.338e-5
-1.357, 1.329e-5
-1.358, 1.353e-5
-1.359, 1.377e-5
-1.360, 1.401e-5
-1.361, 1.423e-5
-1.362, 1.447e-5
-1.363, 1.477e-5
-1.364, 1.500e-5
-1.365, 1.530e-5
-1.366, 1.556e-5
-1.367, 1.587e-5
-1.368, 1.629e-5
-1.369, 1.675e-5
-1.370, 1.714e-5
-1.371, 1.745e-5
-1.372, 1.776e-5
-1.373, 1.808e-5
-1.374, 1.843e-5
-1.375, 1.854e-5
-1.376, 1.869e-5
-1.377, 1.903e-5
-1.378, 1.942e-5
-1.379, 1.979e-5
-1.380, 2.014e-5
-1.381, 2.051e-5
-1.382, 2.090e-5
-1.383, 2.128e-5
-1.384, 2.169e-5
-1.385, 2.210e-5
-1.386, 2.253e-5
-1.387, 2.304e-5
-1.388, 2.355e-5
-1.389, 2.408e-5
-1.390, 2.450e-5
-1.391, 2.482e-5
-1.392, 2.510e-5
-1.393, 2.556e-5
-1.394, 2.597e-5
-1.395, 2.653e-5
-1.396, 2.699e-5
-1.397, 2.745e-5
-1.398, 2.799e-5
-1.399, 2.852e-5
-1.400, 2.903e-5
-1.401, 2.951e-5
-1.402, 3.011e-5
-1.403, 3.065e-5
-1.404, 3.132e-5
-1.405, 3.202e-5
-1.406, 3.266e-5
-1.407, 3.324e-5
-1.408, 3.385e-5
-1.409, 3.446e-5
-1.410, 3.508e-5
-1.411, 3.568e-5
-1.412, 3.640e-5
-1.413, 3.664e-5
-1.414, 3.738e-5
-1.415, 3.805e-5
-1.416, 3.878e-5
-1.417, 3.946e-5
-1.418, 4.019e-5
-1.419, 4.091e-5
-1.420, 4.168e-5
-1.421, 4.243e-5
-1.422, 4.315e-5
-1.423, 4.399e-5
-1.424, 4.481e-5
-1.425, 4.577e-5
-1.426, 4.667e-5
-1.427, 4.753e-5
-1.428, 4.837e-5
-1.429, 4.924e-5
-1.430, 5.012e-5
-1.431, 5.081e-5
-1.432, 5.177e-5
-1.433, 5.274e-5
-1.434, 5.370e-5
-1.435, 5.462e-5
-1.436, 5.564e-5
-1.437, 5.662e-5
-1.438, 5.764e-5
-1.439, 5.870e-5
-1.440, 5.971e-5
-1.441, 6.074e-5
-1.442, 6.195e-5
-1.443, 6.320e-5
-1.444, 6.437e-5
-1.445, 6.548e-5
-1.446, 6.664e-5
-1.447, 6.783e-5
-1.448, 6.917e-5
-1.449, 7.014e-5
-1.450, 7.151e-5
-1.451, 7.281e-5
-1.452, 7.403e-5
-1.453, 7.546e-5
-1.454, 7.675e-5
-1.455, 7.813e-5
-1.456, 7.947e-5
-1.457, 8.088e-5
-1.458, 8.228e-5
-1.459, 8.376e-5
-1.460, 8.533e-5
-1.461, 8.694e-5
-1.462, 8.849e-5
-1.463, 9.003e-5
-1.464, 9.156e-5
-1.465, 9.310e-5
-1.466, 9.490e-5
-1.467, 9.710e-5
-1.468, 9.790e-5
-1.469, 9.960e-5
-1.470, 1.013e-4
-1.471, 1.030e-4
-1.472, 1.048e-4
-1.473, 1.066e-4
-1.474, 1.085e-4
-1.475, 1.102e-4
-1.476, 1.122e-4
-1.477, 1.140e-4
-1.478, 1.158e-4
-1.479, 1.178e-4
-1.480, 1.198e-4
-1.481, 1.218e-4
-1.482, 1.235e-4
-1.483, 1.255e-4
-1.484, 1.275e-4
-1.485, 1.303e-4
-1.486, 1.321e-4
-1.487, 1.341e-4
-1.488, 1.362e-4
-1.489, 1.385e-4
-1.490, 1.407e-4
-1.491, 1.430e-4
-1.492, 1.452e-4
-1.493, 1.475e-4
-1.494, 1.497e-4
-1.495, 1.518e-4
-1.496, 1.542e-4
-1.497, 1.566e-4
-1.498, 1.593e-4
-1.499, 1.618e-4
-1.500, 1.643e-4
-1.501, 1.665e-4
-1.502, 1.699e-4
-1.503, 1.725e-4
-1.504, 1.753e-4
-1.505, 1.779e-4
-1.506, 1.804e-4
-1.507, 1.832e-4
-1.508, 1.863e-4
-1.509, 1.890e-4
-1.510, 1.920e-4
-1.511, 1.950e-4
-1.512, 1.977e-4
-1.513, 2.005e-4
-1.514, 2.035e-4
-1.515, 2.067e-4
-1.516, 2.099e-4
-1.517, 2.129e-4
-1.518, 2.161e-4
-1.519, 2.194e-4
-1.520, 2.228e-4
-1.521, 2.262e-4
-1.522, 2.330e-4
-1.523, 2.344e-4
-1.524, 2.385e-4
-1.525, 2.426e-4
-1.526, 2.459e-4
-1.527, 2.495e-4
-1.528, 2.537e-4
-1.529, 2.577e-4
-1.530, 2.617e-4
-1.531, 2.661e-4
-1.532, 2.696e-4
-1.533, 2.731e-4
-1.534, 2.770e-4
-1.535, 2.814e-4
-1.536, 2.859e-4
-1.537, 2.896e-4
-1.538, 2.934e-4
-1.539, 2.988e-4
-1.540, 3.071e-4
-1.541, 3.097e-4
-1.542, 3.144e-4
-1.543, 3.191e-4
-1.544, 3.244e-4
-1.545, 3.293e-4
-1.546, 3.348e-4
-1.547, 3.407e-4
-1.548, 3.459e-4
-1.549, 3.511e-4
-1.550, 3.566e-4
-1.551, 3.622e-4
-1.552, 3.675e-4
-1.553, 3.735e-4
-1.554, 3.794e-4
-1.555, 3.851e-4
-1.556, 3.909e-4
-1.557, 4.019e-4
-1.558, 4.096e-4
-1.559, 4.173e-4
-1.560, 4.242e-4
-1.561, 4.309e-4
-1.562, 4.390e-4
-1.563, 4.472e-4
-1.564, 4.562e-4
-1.565, 4.647e-4
-1.566, 4.733e-4
-1.567, 4.803e-4
-1.568, 4.879e-4
-1.569, 4.957e-4
-1.570, 5.043e-4
-1.571, 5.134e-4
-1.572, 5.228e-4
-1.573, 5.310e-4
-1.574, 5.489e-4
-1.575, 5.614e-4
-1.576, 5.731e-4
-1.577, 5.857e-4
-1.578, 5.980e-4
-1.579, 6.110e-4
-1.580, 6.240e-4
-1.581, 6.385e-4
-1.582, 6.524e-4
-1.583, 6.674e-4
-1.584, 6.803e-4
-1.585, 6.903e-4
-1.586, 7.027e-4
-1.587, 7.148e-4
-1.588, 7.296e-4
-1.589, 7.424e-4
-1.590, 7.548e-4
-1.591, 6.942e-4
-1.592, 3.135e-4
-1.593, 8.376e-4
-1.594, 8.189e-4
-1.595, 8.396e-4
-1.596, 8.587e-4
-1.597, 8.800e-4
-1.598, 9.005e-4
-1.599, 9.224e-4
-1.600, 9.450e-4
-1.601, 9.695e-4
-1.602, 9.925e-4
-1.603, 1.007e-3
-1.604, 1.021e-3
-1.605, 1.039e-3
-1.606, 1.060e-3
-1.607, 1.078e-3
-1.608, 1.098e-3
-1.609, 1.105e-3
-1.610, 9.477e-4
-1.611, 1.210e-3
-1.612, 1.246e-3
-1.613, 1.289e-3
-1.614, 1.324e-3
-1.615, 1.357e-3
-1.616, 1.395e-3
-1.617, 1.436e-3
-1.618, 1.476e-3
-1.619, 1.514e-3
-1.620, 1.540e-3
-1.621, 1.558e-3
-1.622, 1.579e-3
-1.623, 1.604e-3
-1.624, 1.639e-3
-1.625, 1.655e-3
-1.626, 7.509e-4
-1.627, 2.185e-4
-1.628, 5.430e-4
-1.629, 1.768e-3
-1.630, 1.820e-3
-1.631, 1.895e-3
-1.632, 1.952e-3
-1.633, 2.005e-3
-1.634, 2.058e-3
-1.635, 2.121e-3
-1.636, 2.203e-3
-1.637, 2.276e-3
-1.638, 2.338e-3
-1.639, 2.390e-3
-1.640, 2.334e-3
-1.641, 2.355e-3
-1.642, 2.400e-3
-1.643, 6.136e-4
-1.644, 2.302e-4
-1.645, 1.498e-3
-1.646, 2.576e-3
-1.647, 2.672e-3
-1.648, 2.760e-3
-1.649, 2.848e-3
-1.650, 2.930e-3
-1.651, 2.995e-3
-1.652, 3.068e-3
-1.653, 3.143e-3
-1.654, 3.210e-3
-1.655, 3.180e-3
-1.656, 3.165e-3
-1.657, 3.068e-3
-1.658, 9.918e-4
-1.659, 1.429e-4
-1.660, 7.373e-5
-1.661, 4.903e-6
-1.662, 2.252e-6
-1.663, 8.681e-4
-1.664, 3.636e-3
-1.665, 3.765e-3
-1.666, 3.887e-3
-1.667, 4.002e-3
-1.668, 4.115e-3
-1.669, 4.202e-3
-1.670, 4.305e-3
-1.671, 4.437e-3
-1.672, 4.560e-3
-1.673, 4.671e-3
-1.674, 4.587e-3
-1.675, 4.464e-3
-1.676, 4.123e-3
-1.677, 1.440e-3
-1.678, 1.542e-4
-1.679, 6.590e-5
-1.680, 7.305e-6
-1.681, 2.465e-6
-1.682, 2.461e-3
-1.683, 5.022e-3
-1.684, 5.194e-3
-1.685, 5.297e-3
-1.686, 5.421e-3
-1.687, 5.551e-3
-1.688, 5.678e-3
-1.689, 5.800e-3
-1.690, 5.915e-3
-1.691, 6.009e-3
-1.692, 6.073e-3
-1.693, 6.123e-3
-1.694, 6.221e-3
-1.695, 6.307e-3
-1.696, 6.416e-3
-1.697, 6.558e-3
-1.698, 6.688e-3
-1.699, 6.775e-3
-1.700, 6.775e-3
-1.699, 6.740e-3
-1.698, 6.523e-3
-1.697, 6.240e-3
-1.696, 5.826e-3
-1.695, 2.626e-3
-1.694, 2.825e-4
-1.693, 1.430e-4
-1.692, 4.361e-4
-1.691, 5.702e-3
-1.690, 5.714e-3
-1.689, 5.784e-3
-1.688, 5.838e-3
-1.687, 5.795e-3
-1.686, 5.744e-3
-1.685, 5.725e-3
-1.684, 5.721e-3
-1.683, 5.693e-3
-1.682, 5.607e-3
-1.681, 5.371e-3
-1.680, 5.170e-3
-1.679, 5.016e-3
-1.678, 3.350e-3
-1.677, 1.135e-3
-1.676, 8.153e-5
-1.675, 7.878e-6
-1.674, 2.454e-6
-1.673, 2.928e-3
-1.672, 4.442e-3
-1.671, 4.419e-3
-1.670, 4.430e-3
-1.669, 4.368e-3
-1.668, 4.317e-3
-1.667, 4.277e-3
-1.666, 4.260e-3
-1.665, 4.245e-3
-1.664, 4.188e-3
-1.663, 4.092e-3
-1.662, 3.863e-3
-1.661, 3.767e-3
-1.660, 3.696e-3
-1.659, 2.327e-3
-1.658, 6.818e-4
-1.657, 1.534e-4
-1.656, 2.901e-3
-1.655, 3.447e-3
-1.654, 3.445e-3
-1.653, 3.460e-3
-1.652, 3.437e-3
-1.651, 3.379e-3
-1.650, 3.340e-3
-1.649, 3.308e-3
-1.648, 3.275e-3
-1.647, 3.214e-3
-1.646, 3.112e-3
-1.645, 3.027e-3
-1.644, 2.943e-3
-1.643, 2.847e-3
-1.642, 2.754e-3
-1.641, 1.281e-3
-1.640, 1.333e-4
-1.639, 4.683e-5
-1.638, 1.334e-5
-1.637, 2.726e-3
-1.636, 2.495e-3
-1.635, 2.472e-3
-1.634, 2.437e-3
-1.633, 2.399e-3
-1.632, 2.363e-3
-1.631, 2.328e-3
-1.630, 2.292e-3
-1.629, 2.256e-3
-1.628, 2.213e-3
-1.627, 2.125e-3
-1.626, 2.045e-3
-1.625, 1.983e-3
-1.624, 1.940e-3
-1.623, 1.891e-3
-1.622, 1.022e-3
-1.621, 2.179e-4
-1.620, 1.108e-3
-1.619, 1.772e-3
-1.618, 1.766e-3
-1.617, 1.738e-3
-1.616, 1.709e-3
-1.615, 1.680e-3
-1.614, 1.648e-3
-1.613, 1.617e-3
-1.612, 1.588e-3
-1.611, 1.556e-3
-1.610, 1.523e-3
-1.609, 1.461e-3
-1.608, 1.402e-3
-1.607, 1.366e-3
-1.606, 1.329e-3
-1.605, 1.293e-3
-1.604, 7.196e-4
-1.603, 1.790e-4
-1.602, 3.919e-4
-1.601, 1.183e-3
-1.600, 1.137e-3
-1.599, 1.104e-3
-1.598, 1.081e-3
-1.597, 1.059e-3
-1.596, 1.037e-3
-1.595, 1.015e-3
-1.594, 9.909e-4
-1.593, 9.680e-4
-1.592, 9.427e-4
-1.591, 9.099e-4
-1.590, 8.831e-4
-1.589, 8.583e-4
-1.588, 8.366e-4
-1.587, 8.096e-4
-1.586, 7.852e-4
-1.585, 7.240e-4
-1.584, 7.683e-4
-1.583, 7.464e-4
-1.582, 7.278e-4
-1.581, 7.095e-4
-1.580, 6.925e-4
-1.579, 6.755e-4
-1.578, 6.617e-4
-1.577, 6.465e-4
-1.576, 6.323e-4
-1.575, 6.150e-4
-1.574, 5.930e-4
-1.573, 5.757e-4
-1.572, 5.596e-4
-1.571, 5.451e-4
-1.570, 5.306e-4
-1.569, 5.158e-4
-1.568, 4.934e-4
-1.567, 2.565e-4
-1.566, 3.077e-4
-1.565, 4.732e-4
-1.564, 4.584e-4
-1.563, 4.449e-4
-1.562, 4.330e-4
-1.561, 4.223e-4
-1.560, 4.127e-4
-1.559, 4.035e-4
-1.558, 3.931e-4
-1.557, 3.832e-4
-1.556, 3.727e-4
-1.555, 3.620e-4
-1.554, 3.518e-4
-1.553, 3.423e-4
-1.552, 3.339e-4
-1.551, 3.250e-4
-1.550, 3.166e-4
-1.549, 3.082e-4
-1.548, 3.038e-4
-1.547, 2.961e-4
-1.546, 2.889e-4
-1.545, 2.819e-4
-1.544, 2.745e-4
-1.543, 2.678e-4
-1.542, 2.614e-4
-1.541, 2.557e-4
-1.540, 2.495e-4
-1.539, 2.430e-4
-1.538, 2.363e-4
-1.537, 2.301e-4
-1.536, 2.240e-4
-1.535, 2.184e-4
-1.534, 2.133e-4
-1.533, 2.081e-4
-1.532, 2.028e-4
-1.531, 1.978e-4
-1.530, 1.965e-4
-1.529, 1.894e-4
-1.528, 1.849e-4
-1.527, 1.801e-4
-1.526, 1.758e-4
-1.525, 1.718e-4
-1.524, 1.679e-4
-1.523, 1.640e-4
-1.522, 1.601e-4
-1.521, 1.562e-4
-1.520, 1.524e-4
-1.519, 1.486e-4
-1.518, 1.448e-4
-1.517, 1.411e-4
-1.516, 1.377e-4
-1.515, 1.342e-4
-1.514, 1.308e-4
-1.513, 1.276e-4
-1.512, 1.247e-4
-1.511, 1.219e-4
-1.510, 1.193e-4
-1.509, 1.166e-4
-1.508, 1.139e-4
-1.507, 1.113e-4
-1.506, 1.087e-4
-1.505, 1.062e-4
-1.504, 1.039e-4
-1.503, 1.014e-4
-1.502, 9.890e-5
-1.501, 9.640e-5
-1.500, 9.407e-5
-1.499, 9.159e-5
-1.498, 8.926e-5
-1.497, 8.714e-5
-1.496, 8.500e-5
-1.495, 8.291e-5
-1.494, 8.134e-5
-1.493, 7.951e-5
-1.492, 7.769e-5
-1.491, 7.586e-5
-1.490, 7.406e-5
-1.489, 7.238e-5
-1.488, 7.073e-5
-1.487, 6.916e-5
-1.486, 6.755e-5
-1.485, 6.598e-5
-1.484, 6.438e-5
-1.483, 6.276e-5
-1.482, 6.124e-5
-1.481, 5.965e-5
-1.480, 5.823e-5
-1.479, 5.690e-5
-1.478, 5.553e-5
-1.477, 5.426e-5
-1.476, 5.314e-5
-1.475, 5.218e-5
-1.474, 5.115e-5
-1.473, 5.011e-5
-1.472, 4.900e-5
-1.471, 4.790e-5
-1.470, 4.686e-5
-1.469, 4.589e-5
-1.468, 4.486e-5
-1.467, 4.384e-5
-1.466, 4.282e-5
-1.465, 4.174e-5
-1.464, 4.080e-5
-1.463, 3.973e-5
-1.462, 3.875e-5
-1.461, 3.786e-5
-1.460, 3.693e-5
-1.459, 3.608e-5
-1.458, 3.557e-5
-1.457, 3.488e-5
-1.456, 3.414e-5
-1.455, 3.336e-5
-1.454, 3.270e-5
-1.453, 3.191e-5
-1.452, 3.119e-5
-1.451, 3.054e-5
-1.450, 2.985e-5
-1.449, 2.919e-5
-1.448, 2.854e-5
-1.447, 2.784e-5
-1.446, 2.708e-5
-1.445, 2.640e-5
-1.444, 2.578e-5
-1.443, 2.512e-5
-1.442, 2.453e-5
-1.441, 2.386e-5
-1.440, 2.337e-5
-1.439, 2.330e-5
-1.438, 2.283e-5
-1.437, 2.237e-5
-1.436, 2.200e-5
-1.435, 2.145e-5
-1.434, 2.104e-5
-1.433, 2.059e-5
-1.432, 2.019e-5
-1.431, 1.977e-5
-1.430, 1.932e-5
-1.429, 1.891e-5
-1.428, 1.844e-5
-1.427, 1.785e-5
-1.426, 1.745e-5
-1.425, 1.698e-5
-1.424, 1.661e-5
-1.423, 1.627e-5
-1.422, 1.618e-5
-1.421, 1.585e-5
-1.420, 1.550e-5
-1.419, 1.520e-5
-1.418, 1.489e-5
-1.417, 1.451e-5
-1.416, 1.426e-5
-1.415, 1.396e-5
-1.414, 1.364e-5
-1.413, 1.331e-5
-1.412, 1.302e-5
-1.411, 1.269e-5
-1.410, 1.227e-5
-1.409, 1.192e-5
-1.408, 1.159e-5
-1.407, 1.130e-5
-1.406, 1.103e-5
-1.405, 1.102e-5
-1.404, 1.085e-5
-1.403, 1.066e-5
-1.402, 1.039e-5
-1.401, 1.015e-5
-1.400, 9.932e-6
-1.399, 9.691e-6
-1.398, 9.473e-6
-1.397, 9.283e-6
-1.396, 9.053e-6
-1.395, 8.843e-6
-1.394, 8.625e-6
-1.393, 8.384e-6
-1.392, 8.081e-6
-1.391, 7.821e-6
-1.390, 7.611e-6
-1.389, 7.377e-6
-1.388, 7.081e-6
-1.387, 7.077e-6
-1.386, 7.144e-6
-1.385, 6.962e-6
-1.384, 6.810e-6
-1.383, 6.664e-6
-1.382, 6.485e-6
-1.381, 6.349e-6
-1.380, 6.236e-6
-1.379, 6.033e-6
-1.378, 5.913e-6
-1.377, 5.767e-6
-1.376, 5.581e-6
-1.375, 5.394e-6
-1.374, 5.130e-6
-1.373, 4.983e-6
-1.372, 4.769e-6
-1.371, 4.591e-6
-1.370, 4.371e-6
-1.369, 4.235e-6
-1.368, 4.139e-6
-1.367, 4.342e-6
-1.366, 4.272e-6
-1.365, 4.236e-6
-1.364, 4.072e-6
-1.363, 3.964e-6
-1.362, 3.913e-6
-1.361, 3.750e-6
-1.360, 3.725e-6
-1.359, 3.575e-6
-1.358, 3.486e-6
-1.357, 3.358e-6
-1.356, 3.293e-6
-1.355, 3.165e-6
-1.354, 3.081e-6
-1.353, 3.011e-6
-1.352, 2.902e-6
-1.351, 2.851e-6
-1.350, 2.742e-6
-1.349, 2.658e-6
-1.348, 2.587e-6
-1.347, 2.490e-6
-1.346, 2.365e-6
-1.345, 2.347e-6
-1.344, 2.227e-6
-1.343, 2.094e-6
-1.342, 1.933e-6
-1.341, 1.736e-6
-1.340, 1.682e-6
-1.339, 1.552e-6
-1.338, 1.425e-6
-1.337, 1.262e-6
-1.336, 1.173e-6
-1.335, 1.122e-6
-1.334, 1.231e-6
-1.333, 1.500e-6
-1.332, 1.351e-6
-1.331, 1.307e-6
-1.330, 1.298e-6
-1.329, 1.170e-6
-1.328, 1.210e-6
-1.327, 1.122e-6
-1.326, 1.070e-6
-1.325, 1.050e-6
-1.324, 9.598e-7
-1.323, 9.055e-7
-1.322, 8.059e-7
-1.321, 5.997e-7
-1.320, 4.507e-7
-1.319, 3.668e-7
-1.318, 2.780e-7
-1.317, 2.099e-7
-1.316, 4.990e-7
-1.315, 5.306e-7
-1.314, 4.546e-7
-1.313, 4.319e-7
-1.312, 3.491e-7
-1.311, 3.343e-7
-1.310, 3.135e-7
-1.309, 2.928e-7
-1.308, 2.652e-7
-1.307, 1.833e-7
-1.306, 1.626e-7
-1.305, 1.776e-9
-1.304, -1.531e-7
-1.303, -2.301e-7
-1.302, -3.287e-7
-1.301, -3.475e-7
-1.300, -3.810e-7
-1.299, -1.393e-7
-1.298, -1.393e-7
-1.297, -2.222e-7
-1.296, -1.936e-7
-1.295, -2.291e-7
-1.294, -2.774e-7
-1.293, -2.893e-7
-1.292, -3.573e-7
-1.291, -3.771e-7
-1.290, -3.228e-7
-1.289, -4.037e-7
-1.288, -4.629e-7
-1.287, -5.182e-7
-1.286, -6.267e-7
-1.285, -7.451e-7
-1.284, -6.721e-7
-1.283, -6.020e-7
-1.282, -5.764e-7
-1.281, -6.119e-7
-1.280, -6.622e-7
-1.279, -6.760e-7
-1.278, -6.454e-7
-1.277, -7.086e-7
-1.276, -7.362e-7
-1.275, -7.342e-7
-1.274, -7.323e-7
-1.273, -7.747e-7
-1.272, -7.806e-7
-1.271, -8.723e-7
-1.270, -1.077e-6
-1.269, -1.131e-6
-1.268, -1.215e-6
-1.267, -1.282e-6
-1.266, -1.375e-6
-1.265, -1.453e-6
-1.264, -1.412e-6
-1.263, -9.720e-7
-1.262, -1.005e-6
-1.261, -9.710e-7
-1.260, -1.037e-6
-1.259, -1.055e-6
-1.258, -1.074e-6
-1.257, -1.060e-6
-1.256, -1.085e-6
-1.255, -1.086e-6
-1.254, -1.075e-6
-1.253, -1.147e-6
-1.252, -1.206e-6
-1.251, -1.414e-6
-1.250, -1.494e-6
-1.249, -1.561e-6
-1.248, -1.609e-6
-1.247, -1.747e-6
-1.246, -1.742e-6
-1.245, -1.343e-6
-1.244, -1.259e-6
-1.243, -1.240e-6
-1.242, -1.293e-6
-1.241, -1.272e-6
-1.240, -1.296e-6
-1.239, -1.339e-6
-1.238, -1.324e-6
-1.237, -1.315e-6
-1.236, -1.344e-6
-1.235, -1.380e-6
-1.234, -1.433e-6
-1.233, -1.603e-6
-1.232, -1.716e-6
-1.231, -1.773e-6
-1.230, -1.788e-6
-1.229, -1.855e-6
-1.228, -1.930e-6
-1.227, -1.645e-6
-1.226, -1.498e-6
-1.225, -1.449e-6
-1.224, -1.479e-6
-1.223, -1.495e-6
-1.222, -1.522e-6
-1.221, -1.533e-6
-1.220, -1.520e-6
-1.219, -1.524e-6
-1.218, -1.502e-6
-1.217, -1.588e-6
-1.216, -1.602e-6
-1.215, -1.765e-6
-1.214, -1.897e-6
-1.213, -1.925e-6
-1.212, -1.965e-6
-1.211, -2.037e-6
-1.210, -2.118e-6
-1.209, -2.108e-6
-1.208, -2.088e-6
-1.207, -1.900e-6
-1.206, -1.644e-6
-1.205, -1.640e-6
-1.204, -1.685e-6
-1.203, -1.673e-6
-1.202, -1.679e-6
-1.201, -1.679e-6
-1.200, -1.643e-6
-1.199, -1.679e-6
-1.198, -1.661e-6
-1.197, -1.685e-6
-1.196, -1.730e-6
-1.195, -1.705e-6
-1.194, -1.825e-6
-1.193, -2.015e-6
-1.192, -2.038e-6
-1.191, -2.099e-6
-1.190, -2.150e-6
-1.189, -2.264e-6
-1.188, -2.153e-6
-1.187, -1.782e-6
-1.186, -1.744e-6
-1.185, -1.759e-6
-1.184, -1.741e-6
-1.183, -1.744e-6
-1.182, -1.817e-6
-1.181, -1.826e-6
-1.180, -1.782e-6
-1.179, -1.780e-6
-1.178, -1.802e-6
-1.177, -1.869e-6
-1.176, -2.045e-6
-1.175, -2.128e-6
-1.174, -2.175e-6
-1.173, -2.193e-6
-1.172, -2.235e-6
-1.171, -2.375e-6
-1.170, -2.168e-6
-1.169, -1.875e-6
-1.168, -1.860e-6
-1.167, -1.850e-6
-1.166, -1.873e-6
-1.165, -1.838e-6
-1.164, -1.872e-6
-1.163, -1.914e-6
-1.162, -1.875e-6
-1.161, -1.905e-6
-1.160, -1.889e-6
-1.159, -1.923e-6
-1.158, -2.079e-6
-1.157, -2.235e-6
-1.156, -2.260e-6
-1.155, -2.334e-6
-1.154, -2.309e-6
-1.153, -2.228e-6
-1.152, -1.943e-6
-1.151, -1.928e-6
-1.150, -2.008e-6
-1.149, -1.927e-6
-1.148, -1.974e-6
-1.147, -2.025e-6
-1.146, -1.961e-6
-1.145, -1.963e-6
-1.144, -2.005e-6
-1.143, -1.994e-6
-1.142, -2.058e-6
-1.141, -2.204e-6
-1.140, -2.344e-6
-1.139, -2.411e-6
-1.138, -2.435e-6
-1.137, -2.449e-6
-1.136, -2.493e-6
-1.135, -2.115e-6
-1.134, -2.089e-6
-1.133, -2.093e-6
-1.132, -2.111e-6
-1.131, -2.106e-6
-1.130, -2.129e-6
-1.129, -2.173e-6
-1.128, -2.115e-6
-1.127, -2.194e-6
-1.126, -2.186e-6
-1.125, -2.183e-6
-1.124, -2.272e-6
-1.123, -2.395e-6
-1.122, -2.475e-6
-1.121, -2.541e-6
-1.120, -2.602e-6
-1.119, -2.711e-6
-1.118, -2.679e-6
-1.117, -2.270e-6
-1.116, -2.256e-6
-1.115, -2.281e-6
-1.114, -2.317e-6
-1.113, -2.307e-6
-1.112, -2.316e-6
-1.111, -2.342e-6
-1.110, -2.343e-6
-1.109, -2.316e-6
-1.108, -2.365e-6
-1.107, -2.387e-6
-1.106, -2.412e-6
-1.105, -2.579e-6
-1.104, -2.684e-6
-1.103, -2.744e-6
-1.102, -2.792e-6
-1.101, -2.921e-6
-1.100, -2.962e-6
-1.099, -2.830e-6
-1.098, -2.494e-6
-1.097, -2.468e-6
-1.096, -2.480e-6
-1.095, -2.508e-6
-1.094, -2.497e-6
-1.093, -2.528e-6
-1.092, -2.523e-6
-1.091, -2.554e-6
-1.090, -2.569e-6
-1.089, -2.554e-6
-1.088, -2.620e-6
-1.087, -2.689e-6
-1.086, -2.924e-6
-1.085, -2.996e-6
-1.084, -3.054e-6
-1.083, -3.100e-6
-1.082, -3.212e-6
-1.081, -3.253e-6
-1.080, -3.032e-6
-1.079, -2.749e-6
-1.078, -2.796e-6
-1.077, -2.760e-6
-1.076, -2.875e-6
-1.075, -2.907e-6
-1.074, -2.879e-6
-1.073, -2.913e-6
-1.072, -2.926e-6
-1.071, -2.954e-6
-1.070, -2.998e-6
-1.069, -3.043e-6
-1.068, -3.176e-6
-1.067, -3.403e-6
-1.066, -3.432e-6
-1.065, -3.497e-6
-1.064, -3.642e-6
-1.063, -3.668e-6
-1.062, -3.718e-6
-1.061, -3.708e-6
-1.060, -3.262e-6
-1.059, -3.313e-6
-1.058, -3.332e-6
-1.057, -3.369e-6
-1.056, -3.359e-6
-1.055, -3.420e-6
-1.054, -3.469e-6
-1.053, -3.445e-6
-1.052, -3.508e-6
-1.051, -3.525e-6
-1.050, -3.546e-6
-1.049, -3.614e-6
-1.048, -3.694e-6
-1.047, -3.892e-6
-1.046, -4.005e-6
-1.045, -4.081e-6
-1.044, -4.165e-6
-1.043, -4.204e-6
-1.042, -3.871e-6
-1.041, -3.924e-6
-1.040, -3.959e-6
-1.039, -3.948e-6
-1.038, -3.999e-6
-1.037, -4.073e-6
-1.036, -4.059e-6
-1.035, -4.181e-6
-1.034, -4.171e-6
-1.033, -4.216e-6
-1.032, -4.313e-6
-1.031, -4.462e-6
-1.030, -4.671e-6
-1.029, -4.778e-6
-1.028, -4.863e-6
-1.027, -4.983e-6
-1.026, -5.115e-6
-1.025, -5.010e-6
-1.024, -4.703e-6
-1.023, -4.763e-6
-1.022, -4.811e-6
-1.021, -4.847e-6
-1.020, -4.920e-6
-1.019, -4.969e-6
-1.018, -5.023e-6
-1.017, -5.109e-6
-1.016, -5.145e-6
-1.015, -5.204e-6
-1.014, -5.302e-6
-1.013, -5.390e-6
-1.012, -5.710e-6
-1.011, -5.874e-6
-1.010, -5.928e-6
-1.009, -6.017e-6
-1.008, -6.123e-6
-1.007, -5.898e-6
-1.006, -5.862e-6
-1.005, -5.942e-6
-1.004, -5.954e-6
-1.003, -6.050e-6
-1.002, -6.162e-6
-1.001, -6.209e-6
-1.000, -4.138e-6
-1.001, -3.096e-6
-1.002, -2.461e-6
-1.003, -2.026e-6
-1.004, -1.650e-6
-1.005, -1.284e-6
-1.006, -8.309e-7
-1.007, -5.231e-7
-1.008, -2.764e-7
-1.009, -7.123e-8
-1.010, 2.474e-7
-1.011, 3.806e-7
-1.012, 2.711e-7
-1.013, 2.484e-7
-1.014, 3.875e-7
-1.015, 4.783e-7
-1.016, 5.878e-7
-1.017, 7.131e-7
-1.018, 8.453e-7
-1.019, 8.700e-7
-1.020, 9.834e-7
-1.021, 1.064e-6
-1.022, 1.171e-6
-1.023, 1.301e-6
-1.024, 1.428e-6
-1.025, 1.663e-6
-1.026, 1.839e-6
-1.027, 1.876e-6
-1.028, 1.954e-6
-1.029, 2.116e-6
-1.030, 1.965e-6
-1.031, 1.760e-6
-1.032, 1.797e-6
-1.033, 1.843e-6
-1.034, 1.891e-6
-1.035, 1.920e-6
-1.036, 1.956e-6
-1.037, 1.971e-6
-1.038, 2.050e-6
-1.039, 2.014e-6
-1.040, 2.051e-6
-1.041, 2.148e-6
-1.042, 2.295e-6
-1.043, 2.435e-6
-1.044, 2.489e-6
-1.045, 2.524e-6
-1.046, 2.564e-6
-1.047, 2.538e-6
-1.048, 2.267e-6
-1.049, 2.274e-6
-1.050, 2.310e-6
-1.051, 2.364e-6
-1.052, 2.341e-6
-1.053, 2.384e-6
-1.054, 2.361e-6
-1.055, 2.341e-6
-1.056, 2.427e-6
-1.057, 2.384e-6
-1.058, 2.417e-6
-1.059, 2.511e-6
-1.060, 2.688e-6
-1.061, 2.731e-6
-1.062, 2.780e-6
-1.063, 2.781e-6
-1.064, 2.751e-6
-1.065, 2.433e-6
-1.066, 2.471e-6
-1.067, 2.488e-6
-1.068, 2.418e-6
-1.069, 2.434e-6
-1.070, 2.480e-6
-1.071, 2.447e-6
-1.072, 2.428e-6
-1.073, 2.430e-6
-1.074, 2.446e-6
-1.075, 2.499e-6
-1.076, 2.552e-6
-1.077, 2.743e-6
-1.078, 2.783e-6
-1.079, 2.810e-6
-1.080, 2.822e-6
-1.081, 2.893e-6
-1.082, 2.947e-6
-1.083, 2.562e-6
-1.084, 2.472e-6
-1.085, 2.515e-6
-1.086, 2.485e-6
-1.087, 2.479e-6
-1.088, 2.517e-6
-1.089, 2.445e-6
-1.090, 2.460e-6
-1.091, 2.454e-6
-1.092, 2.490e-6
-1.093, 2.482e-6
-1.094, 2.539e-6
-1.095, 2.719e-6
-1.096, 2.773e-6
-1.097, 2.808e-6
-1.098, 2.840e-6
-1.099, 2.831e-6
-1.100, 2.819e-6
-1.101, 2.490e-6
-1.102, 2.507e-6
-1.103, 2.515e-6
-1.104, 2.472e-6
-1.105, 2.450e-6
-1.106, 2.494e-6
-1.107, 2.428e-6
-1.108, 2.468e-6
-1.109, 2.470e-6
-1.110, 2.466e-6
-1.111, 2.548e-6
-1.112, 2.624e-6
-1.113, 2.731e-6
-1.114, 2.803e-6
-1.115, 2.787e-6
-1.116, 2.819e-6
-1.117, 2.920e-6
-1.118, 2.949e-6
-1.119, 2.522e-6
-1.120, 2.495e-6
-1.121, 2.485e-6
-1.122, 2.485e-6
-1.123, 2.508e-6
-1.124, 2.448e-6
-1.125, 2.493e-6
-1.126, 2.492e-6
-1.127, 2.473e-6
-1.128, 2.451e-6
-1.129, 2.466e-6
-1.130, 2.611e-6
-1.131, 2.744e-6
-1.132, 2.776e-6
-1.133, 2.806e-6
-1.134, 2.808e-6
-1.135, 2.860e-6
-1.136, 2.970e-6
-1.137, 2.966e-6
-1.138, 2.950e-6
-1.139, 2.498e-6
-1.140, 2.495e-6
-1.141, 2.489e-6
-1.142, 2.484e-6
-1.143, 2.500e-6
-1.144, 2.466e-6
-1.145, 2.451e-6
-1.146, 2.534e-6
-1.147, 2.481e-6
-1.148, 2.463e-6
-1.149, 2.514e-6
-1.150, 2.551e-6
-1.151, 2.720e-6
-1.152, 2.800e-6
-1.153, 2.834e-6
-1.154, 2.885e-6
-1.155, 2.974e-6
-1.156, 2.946e-6
-1.157, 2.533e-6
-1.158, 2.519e-6
-1.159, 2.516e-6
-1.160, 2.502e-6
-1.161, 2.568e-6
-1.162, 2.466e-6
-1.163, 2.547e-6
-1.164, 2.490e-6
-1.165, 2.501e-6
-1.166, 2.539e-6
-1.167, 2.533e-6
-1.168, 2.580e-6
-1.169, 2.571e-6
-1.170, 2.553e-6
-1.171, 2.555e-6
-1.172, 2.585e-6
-1.173, 2.560e-6
-1.174, 2.540e-6
-1.175, 2.587e-6
-1.176, 2.593e-6
-1.177, 2.579e-6
-1.178, 2.614e-6
-1.179, 2.612e-6
-1.180, 2.575e-6
-1.181, 2.616e-6
-1.182, 2.675e-6
-1.183, 2.853e-6
-1.184, 2.880e-6
-1.185, 2.930e-6
-1.186, 2.949e-6
-1.187, 2.960e-6
-1.188, 3.096e-6
-1.189, 2.833e-6
-1.190, 2.643e-6
-1.191, 2.688e-6
-1.192, 2.665e-6
-1.193, 2.632e-6
-1.194, 2.652e-6
-1.195, 2.682e-6
-1.196, 2.676e-6
-1.197, 2.693e-6
-1.198, 2.693e-6
-1.199, 2.685e-6
-1.200, 2.704e-6
-1.201, 2.754e-6
-1.202, 2.923e-6
-1.203, 3.006e-6
-1.204, 3.034e-6
-1.205, 3.041e-6
-1.206, 3.151e-6
-1.207, 3.234e-6
-1.208, 3.208e-6
-1.209, 3.053e-6
-1.210, 2.767e-6
-1.211, 2.827e-6
-1.212, 2.763e-6
-1.213, 2.842e-6
-1.214, 2.790e-6
-1.215, 2.805e-6
-1.216, 2.845e-6
-1.217, 2.816e-6
-1.218, 2.884e-6
-1.219, 2.849e-6
-1.220, 2.883e-6
-1.221, 2.926e-6
-1.222, 3.040e-6
-1.223, 3.200e-6
-1.224, 3.255e-6
-1.225, 3.272e-6
-1.226, 3.118e-6
-1.227, 2.967e-6
-1.228, 3.028e-6
-1.229, 2.992e-6
-1.230, 3.046e-6
-1.231, 3.043e-6
-1.232, 3.029e-6
-1.233, 3.066e-6
-1.234, 3.043e-6
-1.235, 3.085e-6
-1.236, 3.098e-6
-1.237, 3.151e-6
-1.238, 3.259e-6
-1.239, 3.417e-6
-1.240, 3.440e-6
-1.241, 3.500e-6
-1.242, 3.558e-6
-1.243, 3.568e-6
-1.244, 3.304e-6
-1.245, 3.260e-6
-1.246, 3.271e-6
-1.247, 3.312e-6
-1.248, 3.303e-6
-1.249, 3.332e-6
-1.250, 3.308e-6
-1.251, 3.360e-6
-1.252, 3.390e-6
-1.253, 3.392e-6
-1.254, 3.454e-6
-1.255, 3.588e-6
-1.256, 3.738e-6
-1.257, 3.798e-6
-1.258, 3.847e-6
-1.259, 3.882e-6
-1.260, 3.943e-6
-1.261, 4.111e-6
-1.262, 4.111e-6
-1.263, 3.637e-6
-1.264, 3.692e-6
-1.265, 3.690e-6
-1.266, 3.761e-6
-1.267, 3.781e-6
-1.268, 3.777e-6
-1.269, 3.810e-6
-1.270, 3.786e-6
-1.271, 3.856e-6
-1.272, 3.904e-6
-1.273, 3.901e-6
-1.274, 3.996e-6
-1.275, 4.120e-6
-1.276, 4.287e-6
-1.277, 4.399e-6
-1.278, 4.447e-6
-1.279, 4.478e-6
-1.280, 4.677e-6
-1.281, 4.495e-6
-1.282, 4.258e-6
-1.283, 4.329e-6
-1.284, 4.349e-6
-1.285, 4.363e-6
-1.286, 4.393e-6
-1.287, 4.506e-6
-1.288, 4.493e-6
-1.289, 4.556e-6
-1.290, 4.594e-6
-1.291, 4.665e-6
-1.292, 4.783e-6
-1.293, 4.942e-6
-1.294, 5.105e-6
-1.295, 5.232e-6
-1.296, 5.297e-6
-1.297, 5.349e-6
-1.298, 5.544e-6
-1.299, 5.334e-6
-1.300, 5.182e-6
-1.301, 5.257e-6
-1.302, 5.272e-6
-1.303, 5.395e-6
-1.304, 5.399e-6
-1.305, 5.508e-6
-1.306, 5.584e-6
-1.307, 5.585e-6
-1.308, 5.706e-6
-1.309, 5.779e-6
-1.310, 5.899e-6
-1.311, 6.025e-6
-1.312, 6.234e-6
-1.313, 6.423e-6
-1.314, 6.502e-6
-1.315, 6.628e-6
-1.316, 6.705e-6
-1.317, 6.450e-6
-1.318, 6.528e-6
-1.319, 6.633e-6
-1.320, 6.709e-6
-1.321, 6.830e-6
-1.322, 6.918e-6
-1.323, 7.039e-6
-1.324, 7.064e-6
-1.325, 7.217e-6
-1.326, 7.307e-6
-1.327, 7.449e-6
-1.328, 7.640e-6
-1.329, 7.836e-6
-1.330, 8.066e-6
-1.331, 8.219e-6
-1.332, 8.406e-6
-1.333, 8.656e-6
-1.334, 8.736e-6
-1.335, 8.441e-6
-1.336, 8.517e-6
-1.337, 8.664e-6
-1.338, 8.841e-6
-1.339, 8.937e-6
-1.340, 9.090e-6
-1.341, 9.222e-6
-1.342, 9.422e-6
-1.343, 9.561e-6
-1.344, 9.642e-6
-1.345, 9.885e-6
-1.346, 1.016e-5
-1.347, 1.048e-5
-1.348, 1.068e-5
-1.349, 1.090e-5
-1.350, 1.109e-5
-1.351, 1.139e-5
-1.352, 1.156e-5
-1.353, 1.143e-5
-1.354, 1.146e-5
-1.355, 1.161e-5
-1.356, 1.188e-5
-1.357, 1.210e-5
-1.358, 1.229e-5
-1.359, 1.253e-5
-1.360, 1.270e-5
-1.361, 1.299e-5
-1.362, 1.321e-5
-1.363, 1.344e-5
-1.364, 1.377e-5
-1.365, 1.406e-5
-1.366, 1.443e-5
-1.367, 1.476e-5
-1.368, 1.504e-5
-1.369, 1.534e-5
-1.370, 1.542e-5
-1.371, 1.551e-5
-1.372, 1.579e-5
-1.373, 1.607e-5
-1.374, 1.636e-5
-1.375, 1.671e-5
-1.376, 1.694e-5
-1.377, 1.732e-5
-1.378, 1.762e-5
-1.379, 1.793e-5
-1.380, 1.825e-5
-1.381, 1.866e-5
-1.382, 1.911e-5
-1.383, 1.958e-5
-1.384, 1.996e-5
-1.385, 2.031e-5
-1.386, 2.076e-5
-1.387, 2.119e-5
-1.388, 2.154e-5
-1.389, 2.184e-5
-1.390, 2.187e-5
-1.391, 2.231e-5
-1.392, 2.275e-5
-1.393, 2.321e-5
-1.394, 2.361e-5
-1.395, 2.402e-5
-1.396, 2.445e-5
-1.397, 2.491e-5
-1.398, 2.537e-5
-1.399, 2.585e-5
-1.400, 2.631e-5
-1.401, 2.686e-5
-1.402, 2.753e-5
-1.403, 2.803e-5
-1.404, 2.858e-5
-1.405, 2.907e-5
-1.406, 2.965e-5
-1.407, 3.017e-5
-1.408, 3.042e-5
-1.409, 3.104e-5
-1.410, 3.166e-5
-1.411, 3.224e-5
-1.412, 3.282e-5
-1.413, 3.344e-5
-1.414, 3.411e-5
-1.415, 3.468e-5
-1.416, 3.536e-5
-1.417, 3.598e-5
-1.418, 3.667e-5
-1.419, 3.730e-5
-1.420, 3.799e-5
-1.421, 3.873e-5
-1.422, 3.947e-5
-1.423, 4.021e-5
-1.424, 4.090e-5
-1.425, 4.170e-5
-1.426, 4.245e-5
-1.427, 4.320e-5
-1.428, 4.402e-5
-1.429, 4.484e-5
-1.430, 4.566e-5
-1.431, 4.644e-5
-1.432, 4.731e-5
-1.433, 4.837e-5
-1.434, 4.937e-5
-1.435, 5.028e-5
-1.436, 5.125e-5
-1.437, 5.218e-5
-1.438, 5.320e-5
-1.439, 5.432e-5
-1.440, 5.495e-5
-1.441, 5.609e-5
-1.442, 5.721e-5
-1.443, 5.833e-5
-1.444, 5.946e-5
-1.445, 6.054e-5
-1.446, 6.168e-5
-1.447, 6.289e-5
-1.448, 6.406e-5
-1.449, 6.530e-5
-1.450, 6.645e-5
-1.451, 6.778e-5
-1.452, 6.917e-5
-1.453, 7.055e-5
-1.454, 7.186e-5
-1.455, 7.326e-5
-1.456, 7.460e-5
-1.457, 7.637e-5
-1.458, 7.748e-5
-1.459, 7.904e-5
-1.460, 8.068e-5
-1.461, 8.223e-5
-1.462, 8.374e-5
-1.463, 8.541e-5
-1.464, 8.705e-5
-1.465, 8.872e-5
-1.466, 9.042e-5
-1.467, 9.209e-5
-1.468, 9.390e-5
-1.469, 9.575e-5
-1.470, 9.768e-5
-1.471, 9.957e-5
-1.472, 1.014e-4
-1.473, 1.033e-4
-1.474, 1.054e-4
-1.475, 1.078e-4
-1.476, 1.094e-4
-1.477, 1.116e-4
-1.478, 1.137e-4
-1.479, 1.159e-4
-1.480, 1.180e-4
-1.481, 1.201e-4
-1.482, 1.224e-4
-1.483, 1.247e-4
-1.484, 1.271e-4
-1.485, 1.294e-4
-1.486, 1.317e-4
-1.487, 1.342e-4
-1.488, 1.368e-4
-1.489, 1.393e-4
-1.490, 1.419e-4
-1.491, 1.444e-4
-1.492, 1.478e-4
-1.493, 1.505e-4
-1.494, 1.534e-4
-1.495, 1.563e-4
-1.496, 1.591e-4
-1.497, 1.619e-4
-1.498, 1.649e-4
-1.499, 1.679e-4
-1.500, 1.708e-4
-1.501, 1.741e-4
-1.502, 1.773e-4
-1.503, 1.800e-4
-1.504, 1.832e-4
-1.505, 1.864e-4
-1.506, 1.898e-4
-1.507, 1.933e-4
-1.508, 1.968e-4
-1.509, 2.005e-4
-1.510, 2.047e-4
-1.511, 2.084e-4
-1.512, 2.119e-4
-1.513, 2.155e-4
-1.514, 2.194e-4
-1.515, 2.234e-4
-1.516, 2.273e-4
-1.517, 2.314e-4
-1.518, 2.357e-4
-1.519, 2.401e-4
-1.520, 2.446e-4
-1.521, 2.484e-4
-1.522, 2.517e-4
-1.523, 2.561e-4
-1.524, 2.609e-4
-1.525, 2.657e-4
-1.526, 2.706e-4
-1.527, 2.766e-4
-1.528, 2.813e-4
-1.529, 2.860e-4
-1.530, 2.912e-4
-1.531, 2.966e-4
-1.532, 3.023e-4
-1.533, 3.077e-4
-1.534, 3.133e-4
-1.535, 3.190e-4
-1.536, 3.250e-4
-1.537, 3.300e-4
-1.538, 3.344e-4
-1.539, 3.404e-4
-1.540, 3.467e-4
-1.541, 3.528e-4
-1.542, 3.579e-4
-1.543, 3.640e-4
-1.544, 3.368e-4
-1.545, 3.933e-4
-1.546, 3.882e-4
-1.547, 3.933e-4
-1.548, 4.003e-4
-1.549, 4.086e-4
-1.550, 4.165e-4
-1.551, 4.240e-4
-1.552, 4.319e-4
-1.553, 4.408e-4
-1.554, 4.490e-4
-1.555, 4.560e-4
-1.556, 4.632e-4
-1.557, 4.708e-4
-1.558, 4.796e-4
-1.559, 4.887e-4
-1.560, 4.976e-4
-1.561, 5.048e-4
-1.562, 4.091e-4
-1.563, 2.082e-4
-1.564, 5.484e-4
-1.565, 5.505e-4
-1.566, 5.652e-4
-1.567, 5.796e-4
-1.568, 5.930e-4
-1.569, 6.058e-4
-1.570, 6.191e-4
-1.571, 6.335e-4
-1.572, 6.478e-4
-1.573, 6.629e-4
-1.574, 6.728e-4
-1.575, 6.836e-4
-1.576, 6.953e-4
-1.577, 7.077e-4
-1.578, 7.219e-4
-1.579, 7.337e-4
-1.580, 7.316e-4
-1.581, 3.738e-4
-1.582, 5.860e-4
-1.583, 7.965e-4
-1.584, 8.146e-4
-1.585, 8.333e-4
-1.586, 8.540e-4
-1.587, 8.760e-4
-1.588, 8.972e-4
-1.589, 9.216e-4
-1.590, 9.439e-4
-1.591, 9.665e-4
-1.592, 9.820e-4
-1.593, 9.934e-4
-1.594, 1.009e-3
-1.595, 1.028e-3
-1.596, 1.049e-3
-1.597, 1.061e-3
-1.598, 7.307e-4
-1.599, 6.761e-4
-1.600, 1.150e-3
-1.601, 1.181e-3
-1.602, 1.208e-3
-1.603, 1.238e-3
-1.604, 1.272e-3
-1.605, 1.305e-3
-1.606, 1.341e-3
-1.607, 1.378e-3
-1.608, 1.416e-3
-1.609, 1.447e-3
-1.610, 1.441e-3
-1.611, 1.465e-3
-1.612, 1.488e-3
-1.613, 1.515e-3
-1.614, 1.540e-3
-1.615, 6.621e-4
-1.616, 2.125e-4
-1.617, 1.245e-4
-1.618, 9.628e-4
-1.619, 1.693e-3
-1.620, 1.750e-3
-1.621, 1.806e-3
-1.622, 1.863e-3
-1.623, 1.916e-3
-1.624, 1.962e-3
-1.625, 2.017e-3
-1.626, 2.079e-3
-1.627, 2.137e-3
-1.628, 2.185e-3
-1.629, 2.168e-3
-1.630, 2.184e-3
-1.631, 2.230e-3
-1.632, 2.292e-3
-1.633, 2.386e-3
-1.634, 2.455e-3
-1.635, 2.507e-3
-1.636, 2.571e-3
-1.637, 2.636e-3
-1.638, 2.706e-3
-1.639, 2.768e-3
-1.640, 2.826e-3
-1.641, 2.898e-3
-1.642, 2.972e-3
-1.643, 3.022e-3
-1.644, 2.984e-3
-1.645, 2.972e-3
-1.646, 3.005e-3
-1.647, 2.309e-3
-1.648, 4.585e-4
-1.649, 1.337e-4
-1.650, 9.180e-5
-1.651, 3.537e-5
-1.652, 3.439e-3
-1.653, 3.422e-3
-1.654, 3.575e-3
-1.655, 3.703e-3
-1.656, 3.780e-3
-1.657, 3.861e-3
-1.658, 3.967e-3
-1.659, 4.075e-3
-1.660, 4.183e-3
-1.661, 4.255e-3
-1.662, 4.235e-3
-1.663, 4.230e-3
-1.664, 4.233e-3
-1.665, 4.068e-3
-1.666, 1.572e-3
-1.667, 1.395e-4
-1.668, 4.577e-5
-1.669, 2.472e-6
-1.670, 2.426e-3
-1.671, 4.705e-3
-1.672, 4.844e-3
-1.673, 4.973e-3
-1.674, 5.099e-3
-1.675, 5.212e-3
-1.676, 5.311e-3
-1.677, 5.430e-3
-1.678, 5.579e-3
-1.679, 5.692e-3
-1.680, 5.751e-3
-1.681, 5.574e-3
-1.682, 5.510e-3
-1.683, 4.239e-3
-1.684, 4.568e-4
-1.685, 1.260e-4
-1.686, 4.412e-5
-1.687, 4.500e-6
-1.688, 2.463e-6
-1.689, 2.670e-6
-1.690, 2.431e-6
-1.691, 2.938e-4
-1.692, 6.085e-3
-1.693, 6.243e-3
-1.694, 6.504e-3
-1.695, 6.712e-3
-1.696, 6.874e-3
-1.697, 7.013e-3
-1.698, 7.148e-3
-1.699, 7.357e-3
-1.700, 7.435e-3
-1.699, 7.350e-3
-1.698, 7.062e-3
-1.697, 6.644e-3
-1.696, 5.727e-3
-1.695, 1.523e-3
-1.694, 1.846e-4
-1.693, 8.359e-5
-1.692, 7.588e-5
-1.691, 5.152e-5
-1.690, 4.104e-3
-1.689, 5.847e-3
-1.688, 5.858e-3
-1.687, 5.839e-3
-1.686, 5.833e-3
-1.685, 5.780e-3
-1.684, 5.698e-3
-1.683, 5.677e-3
-1.682, 5.633e-3
-1.681, 5.609e-3
-1.680, 5.446e-3
-1.679, 5.157e-3
-1.678, 4.998e-3
-1.677, 2.904e-3
-1.676, 3.427e-4
-1.675, 5.778e-5
-1.674, 1.979e-6
-1.673, 1.586e-6
-1.672, 3.598e-3
-1.671, 4.721e-3
-1.670, 4.702e-3
-1.669, 4.678e-3
-1.668, 4.637e-3
-1.667, 4.576e-3
-1.666, 4.506e-3
-1.665, 4.452e-3
-1.664, 4.445e-3
-1.663, 4.386e-3
-1.662, 4.162e-3
-1.661, 4.002e-3
-1.660, 3.918e-3
-1.659, 1.909e-3
-1.658, 1.656e-4
-1.657, 3.059e-5
-1.656, 1.583e-6
-1.655, 1.630e-6
-1.654, 2.052e-6
-1.653, 1.014e-3
-1.652, 3.590e-3
-1.651, 3.526e-3
-1.650, 3.473e-3
-1.649, 3.444e-3
-1.648, 3.413e-3
-1.647, 3.360e-3
-1.646, 3.320e-3
-1.645, 3.272e-3
-1.644, 3.224e-3
-1.643, 3.163e-3
-1.642, 3.023e-3
-1.641, 2.923e-3
-1.640, 2.851e-3
-1.639, 2.798e-3
-1.638, 2.746e-3
-1.637, 1.689e-3
-1.636, 8.969e-5
-1.635, 7.762e-6
-1.634, 2.518e-3
-1.633, 2.582e-3
-1.632, 2.543e-3
-1.631, 2.510e-3
-1.630, 2.479e-3
-1.629, 2.439e-3
-1.628, 2.398e-3
-1.627, 2.372e-3
-1.626, 2.351e-3
-1.625, 2.308e-3
-1.624, 2.252e-3
-1.623, 2.140e-3
-1.622, 2.082e-3
-1.621, 2.027e-3
-1.620, 1.979e-3
-1.619, 1.901e-3
-1.618, 4.681e-4
-1.617, 1.292e-4
-1.616, 1.743e-3
-1.615, 1.814e-3
-1.614, 1.779e-3
-1.613, 1.747e-3
-1.612, 1.718e-3
-1.611, 1.690e-3
-1.610, 1.662e-3
-1.609, 1.634e-3
-1.608, 1.603e-3
-1.607, 1.571e-3
-1.606, 1.519e-3
-1.605, 1.462e-3
-1.604, 1.421e-3
-1.603, 1.385e-3
-1.602, 1.354e-3
-1.601, 1.330e-3
-1.600, 1.308e-3
-1.599, 1.298e-3
-1.598, 1.263e-3
-1.597, 1.234e-3
-1.596, 1.207e-3
-1.595, 1.183e-3
-1.594, 1.155e-3
-1.593, 1.127e-3
-1.592, 1.103e-3
-1.591, 1.079e-3
-1.590, 1.052e-3
-1.589, 1.017e-3
-1.588, 9.890e-4
-1.587, 9.579e-4
-1.586, 9.306e-4
-1.585, 9.066e-4
-1.584, 8.838e-4
-1.583, 8.620e-4
-1.582, 8.389e-4
-1.581, 7.410e-4
-1.580, 8.159e-4
-1.579, 7.933e-4
-1.578, 7.727e-4
-1.577, 7.534e-4
-1.576, 7.354e-4
-1.575, 7.173e-4
-1.574, 6.989e-4
-1.573, 6.822e-4
-1.572, 6.664e-4
-1.571, 6.490e-4
-1.570, 6.297e-4
-1.569, 6.107e-4
-1.568, 5.931e-4
-1.567, 5.780e-4
-1.566, 5.643e-4
-1.565, 5.539e-4
-1.564, 5.396e-4
-1.563, 5.255e-4
-1.562, 5.116e-4
-1.561, 4.990e-4
-1.560, 4.866e-4
-1.559, 4.740e-4
-1.558, 4.624e-4
-1.557, 4.512e-4
-1.556, 4.397e-4
-1.555, 4.276e-4
-1.554, 4.129e-4
-1.553, 4.002e-4
-1.552, 3.895e-4
-1.551, 3.793e-4
-1.550, 3.696e-4
-1.549, 3.597e-4
-1.548, 3.509e-4
-1.547, 3.437e-4
-1.546, 3.368e-4
-1.545, 3.280e-4
-1.544, 3.194e-4
-1.543, 3.111e-4
-1.542, 3.029e-4
-1.541, 2.952e-4
-1.540, 2.880e-4
-1.539, 2.809e-4
-1.538, 2.740e-4
-1.537, 2.671e-4
-1.536, 2.593e-4
-1.535, 2.521e-4
-1.534, 2.452e-4
-1.533, 2.389e-4
-1.532, 2.329e-4
-1.531, 2.271e-4
-1.530, 2.221e-4
-1.529, 2.163e-4
-1.528, 2.107e-4
-1.527, 2.053e-4
-1.526, 2.000e-4
-1.525, 1.951e-4
-1.524, 1.900e-4
-1.523, 1.854e-4
-1.522, 1.808e-4
-1.521, 1.764e-4
-1.520, 1.719e-4
-1.519, 1.671e-4
-1.518, 1.627e-4
-1.517, 1.584e-4
-1.516, 1.544e-4
-1.515, 1.505e-4
-1.514, 1.467e-4
-1.513, 1.431e-4
-1.512, 1.400e-4
-1.511, 1.366e-4
-1.510, 1.330e-4
-1.509, 1.298e-4
-1.508, 1.267e-4
-1.507, 1.235e-4
-1.506, 1.206e-4
-1.505, 1.176e-4
-1.504, 1.147e-4
-1.503, 1.122e-4
-1.502, 1.094e-4
-1.501, 1.067e-4
-1.500, 1.041e-4
-1.499, 1.015e-4
-1.498, 9.905e-5
-1.497, 9.673e-5
-1.496, 9.446e-5
-1.495, 9.228e-5
-1.494, 8.988e-5
-1.493, 8.781e-5
-1.492, 8.566e-5
-1.491, 8.367e-5
-1.490, 8.171e-5
-1.489, 7.969e-5
-1.488, 7.787e-5
-1.487, 7.601e-5
-1.486, 7.424e-5
-1.485, 7.240e-5
-1.484, 7.048e-5
-1.483, 6.882e-5
-1.482, 6.710e-5
-1.481, 6.542e-5
-1.480, 6.388e-5
-1.479, 6.229e-5
-1.478, 6.082e-5
-1.477, 5.959e-5
-1.476, 5.836e-5
-1.475, 5.698e-5
-1.474, 5.569e-5
-1.473, 5.451e-5
-1.472, 5.330e-5
-1.471, 5.209e-5
-1.470, 5.087e-5
-1.469, 4.977e-5
-1.468, 4.862e-5
-1.467, 4.742e-5
-1.466, 4.621e-5
-1.465, 4.510e-5
-1.464, 4.402e-5
-1.463, 4.298e-5
-1.462, 4.192e-5
-1.461, 4.093e-5
-1.460, 3.996e-5
-1.459, 3.914e-5
-1.458, 3.852e-5
-1.457, 3.772e-5
-1.456, 3.691e-5
-1.455, 3.617e-5
-1.454, 3.532e-5
-1.453, 3.460e-5
-1.452, 3.381e-5
-1.451, 3.307e-5
-1.450, 3.238e-5
-1.449, 3.160e-5
-1.448, 3.087e-5
-1.447, 3.012e-5
-1.446, 2.933e-5
-1.445, 2.862e-5
-1.444, 2.790e-5
-1.443, 2.720e-5
-1.442, 2.655e-5
-1.441, 2.587e-5
-1.440, 2.529e-5
-1.439, 2.496e-5
-1.438, 2.459e-5
-1.437, 2.411e-5
-1.436, 2.365e-5
-1.435, 2.317e-5
-1.434, 2.262e-5
-1.433, 2.215e-5
-1.432, 2.166e-5
-1.431, 2.124e-5
-1.430, 2.074e-5
-1.429, 2.028e-5
-1.428, 1.976e-5
-1.427, 1.929e-5
-1.426, 1.870e-5
-1.425, 1.821e-5
-1.424, 1.778e-5
-1.423, 1.734e-5
-1.422, 1.696e-5
-1.421, 1.684e-5
-1.420, 1.650e-5
-1.419, 1.618e-5
-1.418, 1.585e-5
-1.417, 1.552e-5
-1.416, 1.517e-5
-1.415, 1.482e-5
-1.414, 1.448e-5
-1.413, 1.419e-5
-1.412, 1.384e-5
-1.411, 1.353e-5
-1.410, 1.317e-5
-1.409, 1.277e-5
-1.408, 1.238e-5
-1.407, 1.210e-5
-1.406, 1.180e-5
-1.405, 1.151e-5
-1.404, 1.117e-5
-1.403, 1.115e-5
-1.402, 1.100e-5
-1.401, 1.076e-5
-1.400, 1.054e-5
-1.399, 1.036e-5
-1.398, 1.008e-5
-1.397, 9.906e-6
-1.396, 9.620e-6
-1.395, 9.406e-6
-1.394, 9.215e-6
-1.393, 8.983e-6
-1.392, 8.781e-6
-1.391, 8.486e-6
-1.390, 8.181e-6
-1.389, 7.957e-6
-1.388, 7.699e-6
-1.387, 7.518e-6
-1.386, 7.430e-6
-1.385, 7.399e-6
-1.384, 7.248e-6
-1.383, 7.057e-6
-1.382, 6.965e-6
-1.381, 6.823e-6
-1.380, 6.664e-6
-1.379, 6.479e-6
-1.378, 6.375e-6
-1.377, 6.201e-6
-1.376, 6.099e-6
-1.375, 5.902e-6
-1.374, 5.692e-6
-1.373, 5.427e-6
-1.372, 5.224e-6
-1.371, 5.042e-6
-1.370, 4.913e-6
-1.369, 4.781e-6
-1.368, 4.940e-6
-1.367, 4.790e-6
-1.366, 4.730e-6
-1.365, 4.625e-6
-1.364, 4.525e-6
-1.363, 4.404e-6
-1.362, 4.288e-6
-1.361, 4.214e-6
-1.360, 4.077e-6
-1.359, 3.991e-6
-1.358, 3.845e-6
-1.357, 3.734e-6
-1.356, 3.593e-6
-1.355, 3.366e-6
-1.354, 3.161e-6
-1.353, 3.045e-6
-1.352, 2.909e-6
-1.351, 2.769e-6
-1.350, 2.821e-6
-1.349, 2.935e-6
-1.348, 2.880e-6
-1.347, 2.792e-6
-1.346, 2.762e-6
-1.345, 2.644e-6
-1.344, 2.594e-6
-1.343, 2.526e-6
-1.342, 2.403e-6
-1.341, 2.354e-6
-1.340, 2.267e-6
-1.339, 2.157e-6
-1.338, 2.024e-6
-1.337, 1.792e-6
-1.336, 1.675e-6
-1.335, 1.568e-6
-1.334, 1.468e-6
-1.333, 1.446e-6
-1.332, 1.714e-6
-1.331, 1.638e-6
-1.330, 1.574e-6
-1.329, 1.488e-6
-1.328, 1.491e-6
-1.327, 1.443e-6
-1.326, 1.395e-6
-1.325, 1.318e-6
-1.324, 1.277e-6
-1.323, 1.166e-6
-1.322, 1.111e-6
-1.321, 1.001e-6
-1.320, 8.285e-7
-1.319, 6.806e-7
-1.318, 5.789e-7
-1.317, 5.395e-7
-1.316, 4.744e-7
-1.315, 6.283e-7
-1.314, 7.457e-7
-1.313, 7.121e-7
-1.312, 6.283e-7
-1.311, 6.391e-7
-1.310, 5.819e-7
-1.309, 5.375e-7
-1.308, 5.158e-7
-1.307, 4.448e-7
-1.306, 4.280e-7
-1.305, 3.836e-7
-1.304, 2.839e-7
-1.303, 1.369e-7
-1.302, -4.163e-8
-1.301, -6.334e-8
-1.300, -1.492e-7
-1.299, -2.242e-7
-1.298, -3.159e-7
-1.297, 5.407e-8
-1.296, 4.321e-8
-1.295, 3.137e-8
-1.294, -1.105e-8
-1.293, -5.643e-8
-1.292, -5.939e-8
-1.291, -5.347e-8
-1.290, -1.137e-7
-1.289, -1.571e-7
-1.288, -1.867e-7
-1.287, -1.946e-7
-1.286, -3.218e-7
-1.285, -4.826e-7
-1.284, -5.675e-7
-1.283, -7.135e-7
-1.282, -7.194e-7
-1.281, -7.559e-7
-1.280, -6.622e-7
-1.279, -4.244e-7
-1.278, -4.590e-7
-1.277, -4.945e-7
-1.276, -4.422e-7
-1.275, -5.507e-7
-1.274, -5.359e-7
-1.273, -5.507e-7
-1.272, -5.448e-7
-1.271, -5.270e-7
-1.270, -6.277e-7
-1.269, -6.375e-7
-1.268, -7.964e-7
-1.267, -9.582e-7
-1.266, -1.045e-6
-1.265, -1.111e-6
-1.264, -1.133e-6
-1.263, -1.249e-6
-1.262, -1.273e-6
-1.261, -8.575e-7
-1.260, -8.556e-7
-1.259, -8.871e-7
-1.258, -8.901e-7
-1.257, -9.325e-7
-1.256, -8.477e-7
-1.255, -9.306e-7
-1.254, -8.881e-7
-1.253, -9.414e-7
-1.252, -9.049e-7
-1.251, -9.582e-7
-1.250, -1.079e-6
-1.249, -1.177e-6
-1.248, -1.233e-6
-1.247, -1.214e-6
-1.246, -1.169e-6
-1.245, -1.096e-6
-1.244, -1.045e-6
-1.243, -1.089e-6
-1.242, -1.145e-6
-1.241, -1.123e-6
-1.240, -1.119e-6
-1.239, -1.144e-6
-1.238, -1.159e-6
-1.237, -1.125e-6
-1.236, -1.168e-6
-1.235, -1.167e-6
-1.234, -1.224e-6
-1.233, -1.376e-6
-1.232, -1.479e-6
-1.231, -1.540e-6
-1.230, -1.577e-6
-1.229, -1.754e-6
-1.228, -1.749e-6
-1.227, -1.758e-6
-1.226, -1.747e-6
-1.225, -1.304e-6
-1.224, -1.332e-6
-1.223, -1.332e-6
-1.222, -1.372e-6
-1.221, -1.347e-6
-1.220, -1.344e-6
-1.219, -1.378e-6
-1.218, -1.374e-6
-1.217, -1.383e-6
-1.216, -1.346e-6
-1.215, -1.403e-6
-1.214, -1.472e-6
-1.213, -1.578e-6
-1.212, -1.687e-6
-1.211, -1.747e-6
-1.210, -1.760e-6
-1.209, -1.854e-6
-1.208, -1.933e-6
-1.207, -1.789e-6
-1.206, -1.498e-6
-1.205, -1.429e-6
-1.204, -1.437e-6
-1.203, -1.468e-6
-1.202, -1.467e-6
-1.201, -1.508e-6
-1.200, -1.455e-6
-1.199, -1.459e-6
-1.198, -1.509e-6
-1.197, -1.468e-6
-1.196, -1.481e-6
-1.195, -1.497e-6
-1.194, -1.497e-6
-1.193, -1.528e-6
-1.192, -1.487e-6
-1.191, -1.531e-6
-1.190, -1.547e-6
-1.189, -1.764e-6
-1.188, -1.854e-6
-1.187, -1.902e-6
-1.186, -1.914e-6
-1.185, -1.906e-6
-1.184, -1.908e-6
-1.183, -1.675e-6
-1.182, -1.569e-6
-1.181, -1.619e-6
-1.180, -1.581e-6
-1.179, -1.618e-6
-1.178, -1.650e-6
-1.177, -1.603e-6
-1.176, -1.663e-6
-1.175, -1.616e-6
-1.174, -1.668e-6
-1.173, -1.624e-6
-1.172, -1.671e-6
-1.171, -1.818e-6
-1.170, -1.925e-6
-1.169, -2.027e-6
-1.168, -2.045e-6
-1.167, -2.048e-6
-1.166, -2.082e-6
-1.165, -1.923e-6
-1.164, -1.737e-6
-1.163, -1.774e-6
-1.162, -1.726e-6
-1.161, -1.744e-6
-1.160, -1.719e-6
-1.159, -1.767e-6
-1.158, -1.796e-6
-1.157, -1.750e-6
-1.156, -1.781e-6
-1.155, -1.793e-6
-1.154, -1.775e-6
-1.153, -1.839e-6
-1.152, -1.879e-6
-1.151, -1.919e-6
-1.150, -1.906e-6
-1.149, -1.816e-6
-1.148, -1.877e-6
-1.147, -1.826e-6
-1.146, -1.884e-6
-1.145, -1.869e-6
-1.144, -1.859e-6
-1.143, -1.875e-6
-1.142, -1.884e-6
-1.141, -1.889e-6
-1.140, -1.888e-6
-1.139, -1.888e-6
-1.138, -1.925e-6
-1.137, -2.036e-6
-1.136, -2.176e-6
-1.135, -2.259e-6
-1.134, -2.295e-6
-1.133, -2.321e-6
-1.132, -2.442e-6
-1.131, -2.490e-6
-1.130, -2.270e-6
-1.129, -1.996e-6
-1.128, -2.004e-6
-1.127, -2.010e-6
-1.126, -2.058e-6
-1.125, -2.031e-6
-1.124, -2.094e-6
-1.123, -2.085e-6
-1.122, -2.059e-6
-1.121, -2.065e-6
-1.120, -2.076e-6
-1.119, -2.113e-6
-1.118, -2.146e-6
-1.117, -2.157e-6
-1.116, -2.190e-6
-1.115, -2.173e-6
-1.114, -2.179e-6
-1.113, -2.203e-6
-1.112, -2.156e-6
-1.111, -2.190e-6
-1.110, -2.197e-6
-1.109, -2.195e-6
-1.108, -2.235e-6
-1.107, -2.253e-6
-1.106, -2.255e-6
-1.105, -2.264e-6
-1.104, -2.262e-6
-1.103, -2.308e-6
-1.102, -2.429e-6
-1.101, -2.527e-6
-1.100, -2.650e-6
-1.099, -2.724e-6
-1.098, -2.763e-6
-1.097, -2.886e-6
-1.096, -2.917e-6
-1.095, -2.879e-6
-1.094, -2.422e-6
-1.093, -2.434e-6
-1.092, -2.464e-6
-1.091, -2.492e-6
-1.090, -2.452e-6
-1.089, -2.508e-6
-1.088, -2.571e-6
-1.087, -2.533e-6
-1.086, -2.577e-6
-1.085, -2.565e-6
-1.084, -2.633e-6
-1.083, -2.702e-6
-1.082, -2.810e-6
-1.081, -2.940e-6
-1.080, -2.994e-6
-1.079, -3.064e-6
-1.078, -3.160e-6
-1.077, -2.878e-6
-1.076, -2.801e-6
-1.075, -2.816e-6
-1.074, -2.805e-6
-1.073, -2.911e-6
-1.072, -2.874e-6
-1.071, -2.922e-6
-1.070, -2.926e-6
-1.069, -2.906e-6
-1.068, -3.015e-6
-1.067, -3.000e-6
-1.066, -3.097e-6
-1.065, -3.195e-6
-1.064, -3.337e-6
-1.063, -3.413e-6
-1.062, -3.476e-6
-1.061, -3.537e-6
-1.060, -3.488e-6
-1.059, -3.215e-6
-1.058, -3.238e-6
-1.057, -3.266e-6
-1.056, -3.302e-6
-1.055, -3.319e-6
-1.054, -3.358e-6
-1.053, -3.411e-6
-1.052, -3.422e-6
-1.051, -3.458e-6
-1.050, -3.486e-6
-1.049, -3.548e-6
-1.048, -3.662e-6
-1.047, -3.824e-6
-1.046, -3.957e-6
-1.045, -4.005e-6
-1.044, -4.078e-6
-1.043, -4.261e-6
-1.042, -4.309e-6
-1.041, -4.328e-6
-1.040, -3.846e-6
-1.039, -3.927e-6
-1.038, -3.960e-6
-1.037, -4.010e-6
-1.036, -4.021e-6
-1.035, -4.101e-6
-1.034, -4.119e-6
-1.033, -4.147e-6
-1.032, -4.192e-6
-1.031, -4.244e-6
-1.030, -4.334e-6
-1.029, -4.369e-6
-1.028, -4.593e-6
-1.027, -4.798e-6
-1.026, -4.887e-6
-1.025, -4.967e-6
-1.024, -5.031e-6
-1.023, -5.229e-6
-1.022, -5.286e-6
-1.021, -4.798e-6
-1.020, -4.898e-6
-1.019, -4.939e-6
-1.018, -4.997e-6
-1.017, -5.089e-6
-1.016, -5.109e-6
-1.015, -5.187e-6
-1.014, -5.272e-6
-1.013, -5.298e-6
-1.012, -5.360e-6
-1.011, -5.475e-6
-1.010, -5.705e-6
-1.009, -5.863e-6
-1.008, -5.961e-6
-1.007, -6.062e-6
-1.006, -6.136e-6
-1.005, -6.250e-6
-1.004, -6.185e-6
-1.003, -5.987e-6
-1.002, -6.067e-6
-1.001, -6.120e-6
