Aug. 31, 2024   14:21:10
Cyclic Voltammetry
File: c:/users/guazh/data/20240829_batch_215_500/2024-08-29-exp230\exp230-2024-08-31t14_12_22-arkoh\exp230_cv_50mvs_efin_-1600mv.bin
Data Source:  Experiment
Instrument Model:  CHI760E
Header: CV ran at 50 mVs
Note: 

Init E (V) = -1
High E (V) = -1
Low E (V) = -1.6
Final E (V) = -1
Init P/N = N
Scan Rate (V/s) = 0.05
Segment = 7
Sample Interval (V) = 0.001
Quiet Time (sec) = 60
Sensitivity (A/V) = 0.001
Comp R (ohm) = 1.6

Results:

Channel 1:
Segment 1:

Segment 2:

Segment 3:

Segment 4:

Segment 5:

Segment 6:

Segment 7:

Potential/V, Current/A

-1.000, 6.362e-7
-1.001, 7.703e-7
-1.002, 6.125e-7
-1.003, 6.825e-7
-1.004, 6.529e-7
-1.005, 7.486e-7
-1.006, 7.486e-7
-1.007, 7.743e-7
-1.008, 8.226e-7
-1.009, 8.118e-7
-1.010, 8.552e-7
-1.011, 8.641e-7
-1.012, 8.522e-7
-1.013, 9.006e-7
-1.014, 8.946e-7
-1.015, 9.598e-7
-1.016, 9.874e-7
-1.017, 9.706e-7
-1.018, 9.420e-7
-1.019, 1.028e-6
-1.020, 1.010e-6
-1.021, 1.039e-6
-1.022, 1.005e-6
-1.023, 1.023e-6
-1.024, 1.070e-6
-1.025, 1.052e-6
-1.026, 1.078e-6
-1.027, 1.066e-6
-1.028, 1.091e-6
-1.029, 1.158e-6
-1.030, 1.125e-6
-1.031, 1.117e-6
-1.032, 1.133e-6
-1.033, 1.143e-6
-1.034, 1.149e-6
-1.035, 1.151e-6
-1.036, 1.103e-6
-1.037, 1.169e-6
-1.038, 1.182e-6
-1.039, 1.166e-6
-1.040, 1.194e-6
-1.041, 1.246e-6
-1.042, 1.200e-6
-1.043, 1.227e-6
-1.044, 1.227e-6
-1.045, 1.267e-6
-1.046, 1.270e-6
-1.047, 1.236e-6
-1.048, 1.253e-6
-1.049, 1.219e-6
-1.050, 1.247e-6
-1.051, 1.253e-6
-1.052, 1.208e-6
-1.053, 1.270e-6
-1.054, 1.324e-6
-1.055, 1.302e-6
-1.056, 1.329e-6
-1.057, 1.274e-6
-1.058, 1.355e-6
-1.059, 1.378e-6
-1.060, 1.320e-6
-1.061, 1.361e-6
-1.062, 1.299e-6
-1.063, 1.358e-6
-1.064, 1.348e-6
-1.065, 1.348e-6
-1.066, 1.367e-6
-1.067, 1.436e-6
-1.068, 1.412e-6
-1.069, 1.483e-6
-1.070, 1.406e-6
-1.071, 1.447e-6
-1.072, 1.449e-6
-1.073, 1.429e-6
-1.074, 1.483e-6
-1.075, 1.422e-6
-1.076, 1.423e-6
-1.077, 1.476e-6
-1.078, 1.438e-6
-1.079, 1.530e-6
-1.080, 1.551e-6
-1.081, 1.489e-6
-1.082, 1.534e-6
-1.083, 1.540e-6
-1.084, 1.548e-6
-1.085, 1.584e-6
-1.086, 1.515e-6
-1.087, 1.554e-6
-1.088, 1.535e-6
-1.089, 1.550e-6
-1.090, 1.599e-6
-1.091, 1.586e-6
-1.092, 1.569e-6
-1.093, 1.616e-6
-1.094, 1.551e-6
-1.095, 1.635e-6
-1.096, 1.651e-6
-1.097, 1.605e-6
-1.098, 1.641e-6
-1.099, 1.671e-6
-1.100, 1.621e-6
-1.101, 1.646e-6
-1.102, 1.637e-6
-1.103, 1.668e-6
-1.104, 1.681e-6
-1.105, 1.727e-6
-1.106, 1.718e-6
-1.107, 1.756e-6
-1.108, 1.710e-6
-1.109, 1.777e-6
-1.110, 1.781e-6
-1.111, 1.777e-6
-1.112, 1.800e-6
-1.113, 1.728e-6
-1.114, 1.808e-6
-1.115, 1.765e-6
-1.116, 1.800e-6
-1.117, 1.832e-6
-1.118, 1.827e-6
-1.119, 1.853e-6
-1.120, 1.881e-6
-1.121, 1.868e-6
-1.122, 1.901e-6
-1.123, 1.847e-6
-1.124, 1.840e-6
-1.125, 1.939e-6
-1.126, 1.915e-6
-1.127, 1.919e-6
-1.128, 1.928e-6
-1.129, 1.915e-6
-1.130, 1.978e-6
-1.131, 1.985e-6
-1.132, 1.993e-6
-1.133, 2.033e-6
-1.134, 2.007e-6
-1.135, 2.036e-6
-1.136, 2.036e-6
-1.137, 2.066e-6
-1.138, 2.072e-6
-1.139, 2.007e-6
-1.140, 2.067e-6
-1.141, 2.052e-6
-1.142, 2.075e-6
-1.143, 2.070e-6
-1.144, 2.098e-6
-1.145, 2.104e-6
-1.146, 2.169e-6
-1.147, 2.154e-6
-1.148, 2.176e-6
-1.149, 2.162e-6
-1.150, 2.165e-6
-1.151, 2.221e-6
-1.152, 2.230e-6
-1.153, 2.232e-6
-1.154, 2.232e-6
-1.155, 2.201e-6
-1.156, 2.300e-6
-1.157, 2.274e-6
-1.158, 2.364e-6
-1.159, 2.374e-6
-1.160, 2.401e-6
-1.161, 2.405e-6
-1.162, 2.398e-6
-1.163, 2.370e-6
-1.164, 2.461e-6
-1.165, 2.415e-6
-1.166, 2.480e-6
-1.167, 2.462e-6
-1.168, 2.464e-6
-1.169, 2.468e-6
-1.170, 2.531e-6
-1.171, 2.572e-6
-1.172, 2.598e-6
-1.173, 2.598e-6
-1.174, 2.611e-6
-1.175, 2.629e-6
-1.176, 2.676e-6
-1.177, 2.655e-6
-1.178, 2.651e-6
-1.179, 2.696e-6
-1.180, 2.795e-6
-1.181, 3.081e-6
-1.182, 3.107e-6
-1.183, 3.176e-6
-1.184, 3.164e-6
-1.185, 3.160e-6
-1.186, 2.917e-6
-1.187, 2.840e-6
-1.188, 2.876e-6
-1.189, 2.913e-6
-1.190, 2.927e-6
-1.191, 2.945e-6
-1.192, 3.011e-6
-1.193, 2.999e-6
-1.194, 3.063e-6
-1.195, 3.052e-6
-1.196, 3.047e-6
-1.197, 3.046e-6
-1.198, 3.090e-6
-1.199, 3.124e-6
-1.200, 3.186e-6
-1.201, 3.203e-6
-1.202, 3.187e-6
-1.203, 3.200e-6
-1.204, 3.251e-6
-1.205, 3.293e-6
-1.206, 3.301e-6
-1.207, 3.317e-6
-1.208, 3.362e-6
-1.209, 3.367e-6
-1.210, 3.370e-6
-1.211, 3.390e-6
-1.212, 3.436e-6
-1.213, 3.477e-6
-1.214, 3.501e-6
-1.215, 3.595e-6
-1.216, 3.601e-6
-1.217, 3.640e-6
-1.218, 3.640e-6
-1.219, 3.678e-6
-1.220, 3.701e-6
-1.221, 3.750e-6
-1.222, 3.751e-6
-1.223, 3.775e-6
-1.224, 3.861e-6
-1.225, 3.827e-6
-1.226, 3.947e-6
-1.227, 3.979e-6
-1.228, 4.019e-6
-1.229, 4.094e-6
-1.230, 4.138e-6
-1.231, 4.213e-6
-1.232, 4.194e-6
-1.233, 4.217e-6
-1.234, 4.303e-6
-1.235, 4.280e-6
-1.236, 4.532e-6
-1.237, 4.780e-6
-1.238, 4.865e-6
-1.239, 4.851e-6
-1.240, 4.603e-6
-1.241, 4.642e-6
-1.242, 4.730e-6
-1.243, 4.701e-6
-1.244, 4.791e-6
-1.245, 4.829e-6
-1.246, 4.878e-6
-1.247, 4.953e-6
-1.248, 4.978e-6
-1.249, 5.068e-6
-1.250, 5.069e-6
-1.251, 5.186e-6
-1.252, 5.249e-6
-1.253, 5.332e-6
-1.254, 5.387e-6
-1.255, 5.465e-6
-1.256, 5.615e-6
-1.257, 5.619e-6
-1.258, 5.665e-6
-1.259, 5.757e-6
-1.260, 5.809e-6
-1.261, 5.907e-6
-1.262, 5.968e-6
-1.263, 6.059e-6
-1.264, 6.151e-6
-1.265, 6.270e-6
-1.266, 6.376e-6
-1.267, 6.474e-6
-1.268, 6.560e-6
-1.269, 6.654e-6
-1.270, 6.779e-6
-1.271, 6.829e-6
-1.272, 6.948e-6
-1.273, 7.038e-6
-1.274, 7.136e-6
-1.275, 7.280e-6
-1.276, 7.325e-6
-1.277, 7.459e-6
-1.278, 7.630e-6
-1.279, 7.724e-6
-1.280, 7.895e-6
-1.281, 7.988e-6
-1.282, 8.160e-6
-1.283, 8.250e-6
-1.284, 8.416e-6
-1.285, 8.470e-6
-1.286, 8.679e-6
-1.287, 8.743e-6
-1.288, 8.865e-6
-1.289, 9.031e-6
-1.290, 9.187e-6
-1.291, 9.404e-6
-1.292, 9.575e-6
-1.293, 9.725e-6
-1.294, 9.874e-6
-1.295, 1.005e-5
-1.296, 1.023e-5
-1.297, 1.035e-5
-1.298, 1.058e-5
-1.299, 1.070e-5
-1.300, 1.091e-5
-1.301, 1.104e-5
-1.302, 1.124e-5
-1.303, 1.145e-5
-1.304, 1.165e-5
-1.305, 1.188e-5
-1.306, 1.204e-5
-1.307, 1.227e-5
-1.308, 1.248e-5
-1.309, 1.269e-5
-1.310, 1.294e-5
-1.311, 1.311e-5
-1.312, 1.339e-5
-1.313, 1.353e-5
-1.314, 1.378e-5
-1.315, 1.403e-5
-1.316, 1.425e-5
-1.317, 1.454e-5
-1.318, 1.471e-5
-1.319, 1.501e-5
-1.320, 1.528e-5
-1.321, 1.555e-5
-1.322, 1.580e-5
-1.323, 1.601e-5
-1.324, 1.630e-5
-1.325, 1.659e-5
-1.326, 1.689e-5
-1.327, 1.742e-5
-1.328, 1.779e-5
-1.329, 1.811e-5
-1.330, 1.822e-5
-1.331, 1.827e-5
-1.332, 1.861e-5
-1.333, 1.888e-5
-1.334, 1.925e-5
-1.335, 1.945e-5
-1.336, 1.986e-5
-1.337, 2.013e-5
-1.338, 2.049e-5
-1.339, 2.076e-5
-1.340, 2.114e-5
-1.341, 2.149e-5
-1.342, 2.181e-5
-1.343, 2.213e-5
-1.344, 2.258e-5
-1.345, 2.290e-5
-1.346, 2.329e-5
-1.347, 2.360e-5
-1.348, 2.401e-5
-1.349, 2.435e-5
-1.350, 2.479e-5
-1.351, 2.520e-5
-1.352, 2.558e-5
-1.353, 2.594e-5
-1.354, 2.640e-5
-1.355, 2.686e-5
-1.356, 2.722e-5
-1.357, 2.766e-5
-1.358, 2.814e-5
-1.359, 2.864e-5
-1.360, 2.900e-5
-1.361, 2.954e-5
-1.362, 3.000e-5
-1.363, 3.042e-5
-1.364, 3.090e-5
-1.365, 3.143e-5
-1.366, 3.189e-5
-1.367, 3.240e-5
-1.368, 3.285e-5
-1.369, 3.338e-5
-1.370, 3.390e-5
-1.371, 3.442e-5
-1.372, 3.501e-5
-1.373, 3.551e-5
-1.374, 3.609e-5
-1.375, 3.669e-5
-1.376, 3.718e-5
-1.377, 3.774e-5
-1.378, 3.830e-5
-1.379, 3.891e-5
-1.380, 3.949e-5
-1.381, 4.012e-5
-1.382, 4.069e-5
-1.383, 4.132e-5
-1.384, 4.200e-5
-1.385, 4.263e-5
-1.386, 4.327e-5
-1.387, 4.390e-5
-1.388, 4.462e-5
-1.389, 4.529e-5
-1.390, 4.596e-5
-1.391, 4.661e-5
-1.392, 4.732e-5
-1.393, 4.800e-5
-1.394, 4.875e-5
-1.395, 4.941e-5
-1.396, 5.025e-5
-1.397, 5.096e-5
-1.398, 5.172e-5
-1.399, 5.246e-5
-1.400, 5.324e-5
-1.401, 5.402e-5
-1.402, 5.481e-5
-1.403, 5.557e-5
-1.404, 5.640e-5
-1.405, 5.722e-5
-1.406, 5.807e-5
-1.407, 5.886e-5
-1.408, 5.967e-5
-1.409, 6.056e-5
-1.410, 6.149e-5
-1.411, 6.240e-5
-1.412, 6.321e-5
-1.413, 6.415e-5
-1.414, 6.499e-5
-1.415, 6.596e-5
-1.416, 6.690e-5
-1.417, 6.783e-5
-1.418, 6.876e-5
-1.419, 6.972e-5
-1.420, 7.068e-5
-1.421, 7.154e-5
-1.422, 7.257e-5
-1.423, 7.364e-5
-1.424, 7.457e-5
-1.425, 7.567e-5
-1.426, 7.666e-5
-1.427, 7.765e-5
-1.428, 7.872e-5
-1.429, 7.973e-5
-1.430, 8.086e-5
-1.431, 8.193e-5
-1.432, 8.309e-5
-1.433, 8.422e-5
-1.434, 8.521e-5
-1.435, 8.644e-5
-1.436, 8.761e-5
-1.437, 8.886e-5
-1.438, 9.005e-5
-1.439, 9.131e-5
-1.440, 9.249e-5
-1.441, 9.375e-5
-1.442, 9.508e-5
-1.443, 9.627e-5
-1.444, 9.748e-5
-1.445, 9.877e-5
-1.446, 9.998e-5
-1.447, 1.012e-4
-1.448, 1.025e-4
-1.449, 1.039e-4
-1.450, 1.051e-4
-1.451, 1.064e-4
-1.452, 1.079e-4
-1.453, 1.091e-4
-1.454, 1.106e-4
-1.455, 1.121e-4
-1.456, 1.135e-4
-1.457, 1.150e-4
-1.458, 1.164e-4
-1.459, 1.179e-4
-1.460, 1.192e-4
-1.461, 1.208e-4
-1.462, 1.224e-4
-1.463, 1.239e-4
-1.464, 1.254e-4
-1.465, 1.270e-4
-1.466, 1.287e-4
-1.467, 1.303e-4
-1.468, 1.319e-4
-1.469, 1.336e-4
-1.470, 1.353e-4
-1.471, 1.370e-4
-1.472, 1.385e-4
-1.473, 1.402e-4
-1.474, 1.420e-4
-1.475, 1.437e-4
-1.476, 1.456e-4
-1.477, 1.473e-4
-1.478, 1.491e-4
-1.479, 1.511e-4
-1.480, 1.530e-4
-1.481, 1.548e-4
-1.482, 1.566e-4
-1.483, 1.585e-4
-1.484, 1.603e-4
-1.485, 1.621e-4
-1.486, 1.638e-4
-1.487, 1.658e-4
-1.488, 1.677e-4
-1.489, 1.696e-4
-1.490, 1.715e-4
-1.491, 1.735e-4
-1.492, 1.755e-4
-1.493, 1.777e-4
-1.494, 1.799e-4
-1.495, 1.821e-4
-1.496, 1.839e-4
-1.497, 1.853e-4
-1.498, 1.877e-4
-1.499, 1.907e-4
-1.500, 1.926e-4
-1.501, 1.949e-4
-1.502, 1.973e-4
-1.503, 1.998e-4
-1.504, 2.020e-4
-1.505, 2.047e-4
-1.506, 2.072e-4
-1.507, 2.095e-4
-1.508, 2.120e-4
-1.509, 2.144e-4
-1.510, 2.170e-4
-1.511, 2.194e-4
-1.512, 2.214e-4
-1.513, 2.237e-4
-1.514, 2.262e-4
-1.515, 2.289e-4
-1.516, 2.314e-4
-1.517, 2.338e-4
-1.518, 2.364e-4
-1.519, 2.392e-4
-1.520, 2.423e-4
-1.521, 2.451e-4
-1.522, 2.470e-4
-1.523, 2.488e-4
-1.524, 2.518e-4
-1.525, 2.553e-4
-1.526, 2.590e-4
-1.527, 2.618e-4
-1.528, 2.650e-4
-1.529, 2.683e-4
-1.530, 2.714e-4
-1.531, 2.744e-4
-1.532, 2.776e-4
-1.533, 2.806e-4
-1.534, 2.839e-4
-1.535, 2.872e-4
-1.536, 2.903e-4
-1.537, 2.936e-4
-1.538, 2.967e-4
-1.539, 2.990e-4
-1.540, 3.020e-4
-1.541, 3.053e-4
-1.542, 3.093e-4
-1.543, 3.132e-4
-1.544, 3.171e-4
-1.545, 3.206e-4
-1.546, 3.245e-4
-1.547, 3.288e-4
-1.548, 3.322e-4
-1.549, 3.351e-4
-1.550, 3.376e-4
-1.551, 3.413e-4
-1.552, 3.455e-4
-1.553, 3.504e-4
-1.554, 3.543e-4
-1.555, 3.588e-4
-1.556, 3.633e-4
-1.557, 3.675e-4
-1.558, 3.722e-4
-1.559, 3.769e-4
-1.560, 3.818e-4
-1.561, 3.875e-4
-1.562, 3.929e-4
-1.563, 3.987e-4
-1.564, 4.043e-4
-1.565, 4.098e-4
-1.566, 4.148e-4
-1.567, 4.193e-4
-1.568, 4.246e-4
-1.569, 4.314e-4
-1.570, 4.381e-4
-1.571, 4.449e-4
-1.572, 4.511e-4
-1.573, 4.574e-4
-1.574, 4.647e-4
-1.575, 4.724e-4
-1.576, 4.799e-4
-1.577, 4.874e-4
-1.578, 4.947e-4
-1.579, 5.016e-4
-1.580, 5.072e-4
-1.581, 5.155e-4
-1.582, 5.238e-4
-1.583, 5.334e-4
-1.584, 5.429e-4
-1.585, 5.525e-4
-1.586, 5.623e-4
-1.587, 5.727e-4
-1.588, 5.840e-4
-1.589, 5.940e-4
-1.590, 6.050e-4
-1.591, 6.154e-4
-1.592, 6.252e-4
-1.593, 6.324e-4
-1.594, 6.427e-4
-1.595, 6.535e-4
-1.596, 6.644e-4
-1.597, 6.769e-4
-1.598, 6.906e-4
-1.599, 7.046e-4
-1.600, 7.074e-4
-1.599, 6.968e-4
-1.598, 6.854e-4
-1.597, 6.738e-4
-1.596, 6.610e-4
-1.595, 6.470e-4
-1.594, 6.293e-4
-1.593, 6.155e-4
-1.592, 6.041e-4
-1.591, 5.928e-4
-1.590, 5.820e-4
-1.589, 5.715e-4
-1.588, 5.612e-4
-1.587, 5.516e-4
-1.586, 5.417e-4
-1.585, 5.324e-4
-1.584, 5.228e-4
-1.583, 5.122e-4
-1.582, 5.008e-4
-1.581, 4.890e-4
-1.580, 4.794e-4
-1.579, 4.708e-4
-1.578, 4.621e-4
-1.577, 4.539e-4
-1.576, 4.452e-4
-1.575, 4.369e-4
-1.574, 4.299e-4
-1.573, 4.228e-4
-1.572, 4.147e-4
-1.571, 4.072e-4
-1.570, 3.996e-4
-1.569, 3.913e-4
-1.568, 3.835e-4
-1.567, 3.766e-4
-1.566, 3.701e-4
-1.565, 3.638e-4
-1.564, 3.574e-4
-1.563, 3.514e-4
-1.562, 3.450e-4
-1.561, 3.386e-4
-1.560, 3.323e-4
-1.559, 3.263e-4
-1.558, 3.207e-4
-1.557, 3.154e-4
-1.556, 3.098e-4
-1.555, 3.036e-4
-1.554, 2.989e-4
-1.553, 2.941e-4
-1.552, 2.899e-4
-1.551, 2.848e-4
-1.550, 2.803e-4
-1.549, 2.759e-4
-1.548, 2.714e-4
-1.547, 2.676e-4
-1.546, 2.633e-4
-1.545, 2.592e-4
-1.544, 2.552e-4
-1.543, 2.510e-4
-1.542, 2.470e-4
-1.541, 2.425e-4
-1.540, 2.387e-4
-1.539, 2.346e-4
-1.538, 2.310e-4
-1.537, 2.274e-4
-1.536, 2.239e-4
-1.535, 2.205e-4
-1.534, 2.172e-4
-1.533, 2.140e-4
-1.532, 2.107e-4
-1.531, 2.076e-4
-1.530, 2.045e-4
-1.529, 2.011e-4
-1.528, 1.977e-4
-1.527, 1.948e-4
-1.526, 1.918e-4
-1.525, 1.890e-4
-1.524, 1.863e-4
-1.523, 1.835e-4
-1.522, 1.807e-4
-1.521, 1.780e-4
-1.520, 1.754e-4
-1.519, 1.728e-4
-1.518, 1.702e-4
-1.517, 1.669e-4
-1.516, 1.643e-4
-1.515, 1.625e-4
-1.514, 1.603e-4
-1.513, 1.580e-4
-1.512, 1.557e-4
-1.511, 1.533e-4
-1.510, 1.510e-4
-1.509, 1.490e-4
-1.508, 1.469e-4
-1.507, 1.448e-4
-1.506, 1.428e-4
-1.505, 1.408e-4
-1.504, 1.388e-4
-1.503, 1.367e-4
-1.502, 1.345e-4
-1.501, 1.327e-4
-1.500, 1.309e-4
-1.499, 1.289e-4
-1.498, 1.272e-4
-1.497, 1.254e-4
-1.496, 1.237e-4
-1.495, 1.219e-4
-1.494, 1.203e-4
-1.493, 1.186e-4
-1.492, 1.169e-4
-1.491, 1.152e-4
-1.490, 1.135e-4
-1.489, 1.120e-4
-1.488, 1.103e-4
-1.487, 1.086e-4
-1.486, 1.072e-4
-1.485, 1.056e-4
-1.484, 1.041e-4
-1.483, 1.026e-4
-1.482, 1.011e-4
-1.481, 9.971e-5
-1.480, 9.830e-5
-1.479, 9.697e-5
-1.478, 9.536e-5
-1.477, 9.367e-5
-1.476, 9.222e-5
-1.475, 9.103e-5
-1.474, 8.995e-5
-1.473, 8.884e-5
-1.472, 8.756e-5
-1.471, 8.633e-5
-1.470, 8.507e-5
-1.469, 8.387e-5
-1.468, 8.263e-5
-1.467, 8.139e-5
-1.466, 8.022e-5
-1.465, 7.895e-5
-1.464, 7.778e-5
-1.463, 7.659e-5
-1.462, 7.545e-5
-1.461, 7.419e-5
-1.460, 7.304e-5
-1.459, 7.202e-5
-1.458, 7.095e-5
-1.457, 6.985e-5
-1.456, 6.879e-5
-1.455, 6.778e-5
-1.454, 6.677e-5
-1.453, 6.573e-5
-1.452, 6.470e-5
-1.451, 6.372e-5
-1.450, 6.276e-5
-1.449, 6.170e-5
-1.448, 6.076e-5
-1.447, 5.979e-5
-1.446, 5.876e-5
-1.445, 5.789e-5
-1.444, 5.699e-5
-1.443, 5.613e-5
-1.442, 5.524e-5
-1.441, 5.436e-5
-1.440, 5.357e-5
-1.439, 5.267e-5
-1.438, 5.181e-5
-1.437, 5.095e-5
-1.436, 5.013e-5
-1.435, 4.929e-5
-1.434, 4.842e-5
-1.433, 4.767e-5
-1.432, 4.686e-5
-1.431, 4.612e-5
-1.430, 4.543e-5
-1.429, 4.470e-5
-1.428, 4.404e-5
-1.427, 4.318e-5
-1.426, 4.252e-5
-1.425, 4.176e-5
-1.424, 4.074e-5
-1.423, 3.994e-5
-1.422, 3.916e-5
-1.421, 3.864e-5
-1.420, 3.818e-5
-1.419, 3.750e-5
-1.418, 3.687e-5
-1.417, 3.621e-5
-1.416, 3.560e-5
-1.415, 3.496e-5
-1.414, 3.433e-5
-1.413, 3.379e-5
-1.412, 3.317e-5
-1.411, 3.251e-5
-1.410, 3.201e-5
-1.409, 3.141e-5
-1.408, 3.081e-5
-1.407, 3.018e-5
-1.406, 2.957e-5
-1.405, 2.909e-5
-1.404, 2.855e-5
-1.403, 2.811e-5
-1.402, 2.759e-5
-1.401, 2.707e-5
-1.400, 2.664e-5
-1.399, 2.609e-5
-1.398, 2.566e-5
-1.397, 2.513e-5
-1.396, 2.468e-5
-1.395, 2.420e-5
-1.394, 2.365e-5
-1.393, 2.324e-5
-1.392, 2.278e-5
-1.391, 2.243e-5
-1.390, 2.201e-5
-1.389, 2.157e-5
-1.388, 2.123e-5
-1.387, 2.074e-5
-1.386, 2.038e-5
-1.385, 1.995e-5
-1.384, 1.961e-5
-1.383, 1.918e-5
-1.382, 1.872e-5
-1.381, 1.835e-5
-1.380, 1.800e-5
-1.379, 1.771e-5
-1.378, 1.734e-5
-1.377, 1.698e-5
-1.376, 1.665e-5
-1.375, 1.628e-5
-1.374, 1.601e-5
-1.373, 1.564e-5
-1.372, 1.538e-5
-1.371, 1.499e-5
-1.370, 1.467e-5
-1.369, 1.439e-5
-1.368, 1.403e-5
-1.367, 1.376e-5
-1.366, 1.341e-5
-1.365, 1.312e-5
-1.364, 1.286e-5
-1.363, 1.255e-5
-1.362, 1.229e-5
-1.361, 1.203e-5
-1.360, 1.184e-5
-1.359, 1.158e-5
-1.358, 1.124e-5
-1.357, 1.108e-5
-1.356, 1.055e-5
-1.355, 1.015e-5
-1.354, 9.953e-6
-1.353, 9.947e-6
-1.352, 9.732e-6
-1.351, 9.444e-6
-1.350, 9.298e-6
-1.349, 9.049e-6
-1.348, 8.848e-6
-1.347, 8.669e-6
-1.346, 8.430e-6
-1.345, 8.246e-6
-1.344, 8.036e-6
-1.343, 7.860e-6
-1.342, 7.645e-6
-1.341, 7.405e-6
-1.340, 7.207e-6
-1.339, 6.993e-6
-1.338, 6.825e-6
-1.337, 6.631e-6
-1.336, 6.445e-6
-1.335, 6.297e-6
-1.334, 6.131e-6
-1.333, 6.024e-6
-1.332, 5.832e-6
-1.331, 5.664e-6
-1.330, 5.479e-6
-1.329, 5.316e-6
-1.328, 5.205e-6
-1.327, 5.016e-6
-1.326, 4.786e-6
-1.325, 4.704e-6
-1.324, 4.577e-6
-1.323, 4.427e-6
-1.322, 4.339e-6
-1.321, 4.184e-6
-1.320, 4.065e-6
-1.319, 3.962e-6
-1.318, 3.807e-6
-1.317, 3.714e-6
-1.316, 3.633e-6
-1.315, 3.440e-6
-1.314, 3.338e-6
-1.313, 3.197e-6
-1.312, 3.113e-6
-1.311, 3.025e-6
-1.310, 2.887e-6
-1.309, 2.827e-6
-1.308, 2.717e-6
-1.307, 2.620e-6
-1.306, 2.477e-6
-1.305, 2.433e-6
-1.304, 2.322e-6
-1.303, 2.243e-6
-1.302, 2.153e-6
-1.301, 2.064e-6
-1.300, 1.886e-6
-1.299, 1.845e-6
-1.298, 1.785e-6
-1.297, 1.725e-6
-1.296, 1.631e-6
-1.295, 1.540e-6
-1.294, 1.494e-6
-1.293, 1.444e-6
-1.292, 1.328e-6
-1.291, 1.318e-6
-1.290, 1.212e-6
-1.289, 1.112e-6
-1.288, 1.038e-6
-1.287, 9.923e-7
-1.286, 9.016e-7
-1.285, 8.601e-7
-1.284, 7.980e-7
-1.283, 7.832e-7
-1.282, 6.717e-7
-1.281, 6.164e-7
-1.280, 5.858e-7
-1.279, 5.099e-7
-1.278, 3.994e-7
-1.277, 4.112e-7
-1.276, 3.402e-7
-1.275, 2.800e-7
-1.274, 2.770e-7
-1.273, 1.902e-7
-1.272, 1.675e-7
-1.271, 1.123e-7
-1.270, 4.815e-8
-1.269, 5.209e-8
-1.268, 9.669e-9
-1.267, -2.388e-8
-1.266, -9.195e-8
-1.265, -1.778e-7
-1.264, -1.373e-7
-1.263, -1.886e-7
-1.262, -2.912e-7
-1.261, -3.041e-7
-1.260, -3.386e-7
-1.259, -3.534e-7
-1.258, -4.037e-7
-1.257, -3.850e-7
-1.256, -5.073e-7
-1.255, -4.540e-7
-1.254, -5.241e-7
-1.253, -5.379e-7
-1.252, -5.547e-7
-1.251, -6.050e-7
-1.250, -6.188e-7
-1.249, -6.849e-7
-1.248, -7.283e-7
-1.247, -7.332e-7
-1.246, -8.132e-7
-1.245, -7.372e-7
-1.244, -8.132e-7
-1.243, -8.112e-7
-1.242, -8.477e-7
-1.241, -8.398e-7
-1.240, -8.822e-7
-1.239, -9.256e-7
-1.238, -9.414e-7
-1.237, -9.720e-7
-1.236, -1.027e-6
-1.235, -9.976e-7
-1.234, -1.044e-6
-1.233, -1.035e-6
-1.232, -1.102e-6
-1.231, -1.076e-6
-1.230, -1.083e-6
-1.229, -1.113e-6
-1.228, -1.085e-6
-1.227, -1.155e-6
-1.226, -1.143e-6
-1.225, -1.224e-6
-1.224, -1.180e-6
-1.223, -1.209e-6
-1.222, -1.184e-6
-1.221, -1.260e-6
-1.220, -1.284e-6
-1.219, -1.238e-6
-1.218, -1.258e-6
-1.217, -1.249e-6
-1.216, -1.328e-6
-1.215, -1.266e-6
-1.214, -1.383e-6
-1.213, -1.322e-6
-1.212, -1.296e-6
-1.211, -1.443e-6
-1.210, -1.407e-6
-1.209, -1.379e-6
-1.208, -1.400e-6
-1.207, -1.369e-6
-1.206, -1.492e-6
-1.205, -1.395e-6
-1.204, -1.446e-6
-1.203, -1.410e-6
-1.202, -1.657e-6
-1.201, -1.822e-6
-1.200, -1.871e-6
-1.199, -1.866e-6
-1.198, -1.675e-6
-1.197, -1.495e-6
-1.196, -1.540e-6
-1.195, -1.495e-6
-1.194, -1.511e-6
-1.193, -1.456e-6
-1.192, -1.500e-6
-1.191, -1.524e-6
-1.190, -1.527e-6
-1.189, -1.544e-6
-1.188, -1.486e-6
-1.187, -1.542e-6
-1.186, -1.554e-6
-1.185, -1.545e-6
-1.184, -1.599e-6
-1.183, -1.591e-6
-1.182, -1.617e-6
-1.181, -1.607e-6
-1.180, -1.627e-6
-1.179, -1.605e-6
-1.178, -1.632e-6
-1.177, -1.607e-6
-1.176, -1.618e-6
-1.175, -1.605e-6
-1.174, -1.626e-6
-1.173, -1.627e-6
-1.172, -1.660e-6
-1.171, -1.671e-6
-1.170, -1.676e-6
-1.169, -1.683e-6
-1.168, -1.672e-6
-1.167, -1.671e-6
-1.166, -1.706e-6
-1.165, -1.648e-6
-1.164, -1.688e-6
-1.163, -1.701e-6
-1.162, -1.970e-6
-1.161, -2.087e-6
-1.160, -2.140e-6
-1.159, -2.086e-6
-1.158, -1.743e-6
-1.157, -1.732e-6
-1.156, -1.738e-6
-1.155, -1.710e-6
-1.154, -1.744e-6
-1.153, -1.754e-6
-1.152, -1.705e-6
-1.151, -1.750e-6
-1.150, -1.762e-6
-1.149, -1.737e-6
-1.148, -1.728e-6
-1.147, -1.751e-6
-1.146, -1.755e-6
-1.145, -1.737e-6
-1.144, -1.793e-6
-1.143, -1.783e-6
-1.142, -1.825e-6
-1.141, -1.816e-6
-1.140, -1.797e-6
-1.139, -1.817e-6
-1.138, -1.733e-6
-1.137, -1.819e-6
-1.136, -1.825e-6
-1.135, -2.009e-6
-1.134, -2.223e-6
-1.133, -2.264e-6
-1.132, -2.267e-6
-1.131, -2.075e-6
-1.130, -1.876e-6
-1.129, -1.913e-6
-1.128, -1.876e-6
-1.127, -1.918e-6
-1.126, -1.862e-6
-1.125, -1.871e-6
-1.124, -1.865e-6
-1.123, -1.865e-6
-1.122, -1.910e-6
-1.121, -1.871e-6
-1.120, -1.911e-6
-1.119, -1.937e-6
-1.118, -1.938e-6
-1.117, -1.965e-6
-1.116, -1.953e-6
-1.115, -1.957e-6
-1.114, -1.970e-6
-1.113, -1.966e-6
-1.112, -2.003e-6
-1.111, -1.995e-6
-1.110, -1.993e-6
-1.109, -1.976e-6
-1.108, -2.089e-6
-1.107, -2.377e-6
-1.106, -2.463e-6
-1.105, -2.449e-6
-1.104, -2.163e-6
-1.103, -2.085e-6
-1.102, -2.025e-6
-1.101, -2.074e-6
-1.100, -2.037e-6
-1.099, -2.086e-6
-1.098, -2.054e-6
-1.097, -2.056e-6
-1.096, -2.114e-6
-1.095, -2.068e-6
-1.094, -2.147e-6
-1.093, -2.099e-6
-1.092, -2.146e-6
-1.091, -2.175e-6
-1.090, -2.143e-6
-1.089, -2.200e-6
-1.088, -2.221e-6
-1.087, -2.217e-6
-1.086, -2.268e-6
-1.085, -2.187e-6
-1.084, -2.243e-6
-1.083, -2.223e-6
-1.082, -2.235e-6
-1.081, -2.268e-6
-1.080, -2.309e-6
-1.079, -2.288e-6
-1.078, -2.270e-6
-1.077, -2.354e-6
-1.076, -2.343e-6
-1.075, -2.404e-6
-1.074, -2.437e-6
-1.073, -2.382e-6
-1.072, -2.391e-6
-1.071, -2.440e-6
-1.070, -2.402e-6
-1.069, -2.446e-6
-1.068, -2.476e-6
-1.067, -2.473e-6
-1.066, -2.505e-6
-1.065, -2.536e-6
-1.064, -2.561e-6
-1.063, -2.559e-6
-1.062, -2.617e-6
-1.061, -2.633e-6
-1.060, -2.604e-6
-1.059, -2.660e-6
-1.058, -2.695e-6
-1.057, -2.682e-6
-1.056, -2.688e-6
-1.055, -2.769e-6
-1.054, -2.769e-6
-1.053, -2.785e-6
-1.052, -2.808e-6
-1.051, -2.845e-6
-1.050, -2.897e-6
-1.049, -2.934e-6
-1.048, -2.937e-6
-1.047, -2.957e-6
-1.046, -3.054e-6
-1.045, -3.005e-6
-1.044, -3.066e-6
-1.043, -3.088e-6
-1.042, -3.123e-6
-1.041, -3.153e-6
-1.040, -3.181e-6
-1.039, -3.214e-6
-1.038, -3.252e-6
-1.037, -3.326e-6
-1.036, -3.364e-6
-1.035, -3.362e-6
-1.034, -3.454e-6
-1.033, -3.493e-6
-1.032, -3.476e-6
-1.031, -3.536e-6
-1.030, -3.561e-6
-1.029, -3.616e-6
-1.028, -3.632e-6
-1.027, -3.711e-6
-1.026, -3.720e-6
-1.025, -3.791e-6
-1.024, -3.884e-6
-1.023, -3.928e-6
-1.022, -3.970e-6
-1.021, -4.019e-6
-1.020, -4.021e-6
-1.019, -4.107e-6
-1.018, -4.128e-6
-1.017, -4.177e-6
-1.016, -4.232e-6
-1.015, -4.311e-6
-1.014, -4.345e-6
-1.013, -4.370e-6
-1.012, -4.462e-6
-1.011, -4.570e-6
-1.010, -4.603e-6
-1.009, -4.609e-6
-1.008, -4.689e-6
-1.007, -4.729e-6
-1.006, -4.769e-6
-1.005, -4.861e-6
-1.004, -4.908e-6
-1.003, -4.979e-6
-1.002, -5.015e-6
-1.001, -5.158e-6
-1.000, -3.681e-6
-1.001, -2.819e-6
-1.002, -2.437e-6
-1.003, -2.073e-6
-1.004, -1.818e-6
-1.005, -1.542e-6
-1.006, -1.346e-6
-1.007, -1.162e-6
-1.008, -9.838e-7
-1.009, -8.062e-7
-1.010, -6.257e-7
-1.011, -5.438e-7
-1.012, -4.195e-7
-1.013, -2.557e-7
-1.014, -1.985e-7
-1.015, -4.262e-8
-1.016, 2.644e-8
-1.017, 1.369e-7
-1.018, 2.997e-7
-1.019, 2.593e-7
-1.020, 4.102e-7
-1.021, 4.467e-7
-1.022, 5.276e-7
-1.023, 5.740e-7
-1.024, 5.967e-7
-1.025, 8.512e-7
-1.026, 1.085e-6
-1.027, 1.153e-6
-1.028, 1.222e-6
-1.029, 1.074e-6
-1.030, 9.726e-7
-1.031, 9.923e-7
-1.032, 1.026e-6
-1.033, 1.050e-6
-1.034, 1.127e-6
-1.035, 1.051e-6
-1.036, 1.126e-6
-1.037, 1.195e-6
-1.038, 1.199e-6
-1.039, 1.221e-6
-1.040, 1.208e-6
-1.041, 1.303e-6
-1.042, 1.352e-6
-1.043, 1.348e-6
-1.044, 1.370e-6
-1.045, 1.360e-6
-1.046, 1.420e-6
-1.047, 1.394e-6
-1.048, 1.443e-6
-1.049, 1.453e-6
-1.050, 1.460e-6
-1.051, 1.453e-6
-1.052, 1.456e-6
-1.053, 1.533e-6
-1.054, 1.494e-6
-1.055, 1.487e-6
-1.056, 1.552e-6
-1.057, 1.535e-6
-1.058, 1.605e-6
-1.059, 1.537e-6
-1.060, 1.610e-6
-1.061, 1.564e-6
-1.062, 1.568e-6
-1.063, 1.619e-6
-1.064, 1.549e-6
-1.065, 1.611e-6
-1.066, 1.603e-6
-1.067, 1.611e-6
-1.068, 1.664e-6
-1.069, 1.613e-6
-1.070, 1.645e-6
-1.071, 1.676e-6
-1.072, 1.657e-6
-1.073, 1.659e-6
-1.074, 1.630e-6
-1.075, 1.665e-6
-1.076, 1.650e-6
-1.077, 1.683e-6
-1.078, 1.668e-6
-1.079, 1.648e-6
-1.080, 1.641e-6
-1.081, 1.657e-6
-1.082, 1.710e-6
-1.083, 1.715e-6
-1.084, 1.753e-6
-1.085, 1.730e-6
-1.086, 1.730e-6
-1.087, 1.716e-6
-1.088, 1.686e-6
-1.089, 1.698e-6
-1.090, 1.817e-6
-1.091, 1.979e-6
-1.092, 2.037e-6
-1.093, 2.077e-6
-1.094, 1.964e-6
-1.095, 1.712e-6
-1.096, 1.730e-6
-1.097, 1.717e-6
-1.098, 1.787e-6
-1.099, 1.719e-6
-1.100, 1.750e-6
-1.101, 1.722e-6
-1.102, 1.699e-6
-1.103, 1.761e-6
-1.104, 1.724e-6
-1.105, 1.743e-6
-1.106, 1.713e-6
-1.107, 1.707e-6
-1.108, 1.783e-6
-1.109, 1.703e-6
-1.110, 1.787e-6
-1.111, 1.730e-6
-1.112, 1.751e-6
-1.113, 1.715e-6
-1.114, 1.715e-6
-1.115, 1.744e-6
-1.116, 1.752e-6
-1.117, 1.767e-6
-1.118, 1.721e-6
-1.119, 1.745e-6
-1.120, 1.750e-6
-1.121, 1.746e-6
-1.122, 1.804e-6
-1.123, 1.774e-6
-1.124, 1.739e-6
-1.125, 1.788e-6
-1.126, 1.759e-6
-1.127, 1.780e-6
-1.128, 1.827e-6
-1.129, 1.720e-6
-1.130, 1.720e-6
-1.131, 1.765e-6
-1.132, 1.773e-6
-1.133, 1.797e-6
-1.134, 1.789e-6
-1.135, 1.773e-6
-1.136, 1.821e-6
-1.137, 1.777e-6
-1.138, 1.822e-6
-1.139, 1.763e-6
-1.140, 1.752e-6
-1.141, 1.787e-6
-1.142, 1.800e-6
-1.143, 1.759e-6
-1.144, 1.768e-6
-1.145, 1.766e-6
-1.146, 1.818e-6
-1.147, 1.811e-6
-1.148, 1.842e-6
-1.149, 1.786e-6
-1.150, 1.785e-6
-1.151, 1.824e-6
-1.152, 1.847e-6
-1.153, 1.807e-6
-1.154, 1.789e-6
-1.155, 1.811e-6
-1.156, 1.790e-6
-1.157, 1.771e-6
-1.158, 1.833e-6
-1.159, 1.871e-6
-1.160, 1.860e-6
-1.161, 1.844e-6
-1.162, 1.911e-6
-1.163, 1.846e-6
-1.164, 1.905e-6
-1.165, 1.878e-6
-1.166, 1.866e-6
-1.167, 1.874e-6
-1.168, 1.888e-6
-1.169, 1.888e-6
-1.170, 1.851e-6
-1.171, 1.879e-6
-1.172, 1.863e-6
-1.173, 1.908e-6
-1.174, 1.937e-6
-1.175, 1.918e-6
-1.176, 1.967e-6
-1.177, 1.926e-6
-1.178, 1.979e-6
-1.179, 1.925e-6
-1.180, 1.907e-6
-1.181, 1.965e-6
-1.182, 1.909e-6
-1.183, 2.005e-6
-1.184, 1.948e-6
-1.185, 1.961e-6
-1.186, 2.045e-6
-1.187, 1.972e-6
-1.188, 2.027e-6
-1.189, 1.963e-6
-1.190, 2.007e-6
-1.191, 2.058e-6
-1.192, 2.022e-6
-1.193, 2.034e-6
-1.194, 1.994e-6
-1.195, 2.015e-6
-1.196, 2.010e-6
-1.197, 2.040e-6
-1.198, 2.100e-6
-1.199, 2.067e-6
-1.200, 2.129e-6
-1.201, 2.118e-6
-1.202, 2.112e-6
-1.203, 2.178e-6
-1.204, 2.077e-6
-1.205, 2.194e-6
-1.206, 2.184e-6
-1.207, 2.117e-6
-1.208, 2.184e-6
-1.209, 2.390e-6
-1.210, 2.557e-6
-1.211, 2.590e-6
-1.212, 2.553e-6
-1.213, 2.279e-6
-1.214, 2.229e-6
-1.215, 2.253e-6
-1.216, 2.240e-6
-1.217, 2.230e-6
-1.218, 2.319e-6
-1.219, 2.285e-6
-1.220, 2.284e-6
-1.221, 2.260e-6
-1.222, 2.306e-6
-1.223, 2.366e-6
-1.224, 2.335e-6
-1.225, 2.396e-6
-1.226, 2.404e-6
-1.227, 2.398e-6
-1.228, 2.499e-6
-1.229, 2.524e-6
-1.230, 2.465e-6
-1.231, 2.520e-6
-1.232, 2.515e-6
-1.233, 2.545e-6
-1.234, 2.561e-6
-1.235, 2.570e-6
-1.236, 2.587e-6
-1.237, 2.663e-6
-1.238, 2.657e-6
-1.239, 2.669e-6
-1.240, 2.746e-6
-1.241, 2.749e-6
-1.242, 2.792e-6
-1.243, 2.786e-6
-1.244, 2.805e-6
-1.245, 2.865e-6
-1.246, 2.852e-6
-1.247, 2.872e-6
-1.248, 2.949e-6
-1.249, 2.935e-6
-1.250, 3.010e-6
-1.251, 3.003e-6
-1.252, 3.084e-6
-1.253, 3.111e-6
-1.254, 3.135e-6
-1.255, 3.135e-6
-1.256, 3.227e-6
-1.257, 3.243e-6
-1.258, 3.273e-6
-1.259, 3.349e-6
-1.260, 3.378e-6
-1.261, 3.505e-6
-1.262, 3.719e-6
-1.263, 3.891e-6
-1.264, 3.938e-6
-1.265, 3.972e-6
-1.266, 3.759e-6
-1.267, 3.710e-6
-1.268, 3.711e-6
-1.269, 3.813e-6
-1.270, 3.782e-6
-1.271, 3.923e-6
-1.272, 3.922e-6
-1.273, 4.041e-6
-1.274, 4.127e-6
-1.275, 4.119e-6
-1.276, 4.203e-6
-1.277, 4.281e-6
-1.278, 4.341e-6
-1.279, 4.457e-6
-1.280, 4.499e-6
-1.281, 4.587e-6
-1.282, 4.594e-6
-1.283, 4.708e-6
-1.284, 4.793e-6
-1.285, 4.826e-6
-1.286, 4.976e-6
-1.287, 5.028e-6
-1.288, 5.083e-6
-1.289, 5.193e-6
-1.290, 5.282e-6
-1.291, 5.384e-6
-1.292, 5.509e-6
-1.293, 5.600e-6
-1.294, 5.701e-6
-1.295, 5.786e-6
-1.296, 5.904e-6
-1.297, 5.984e-6
-1.298, 6.112e-6
-1.299, 6.253e-6
-1.300, 6.321e-6
-1.301, 6.484e-6
-1.302, 6.542e-6
-1.303, 6.710e-6
-1.304, 6.818e-6
-1.305, 6.913e-6
-1.306, 7.139e-6
-1.307, 7.274e-6
-1.308, 7.298e-6
-1.309, 7.484e-6
-1.310, 7.602e-6
-1.311, 7.802e-6
-1.312, 7.866e-6
-1.313, 8.079e-6
-1.314, 8.213e-6
-1.315, 8.383e-6
-1.316, 8.521e-6
-1.317, 8.719e-6
-1.318, 8.901e-6
-1.319, 9.093e-6
-1.320, 9.220e-6
-1.321, 9.460e-6
-1.322, 9.592e-6
-1.323, 9.819e-6
-1.324, 1.000e-5
-1.325, 1.020e-5
-1.326, 1.042e-5
-1.327, 1.059e-5
-1.328, 1.079e-5
-1.329, 1.098e-5
-1.330, 1.123e-5
-1.331, 1.147e-5
-1.332, 1.172e-5
-1.333, 1.193e-5
-1.334, 1.215e-5
-1.335, 1.244e-5
-1.336, 1.267e-5
-1.337, 1.285e-5
-1.338, 1.319e-5
-1.339, 1.337e-5
-1.340, 1.369e-5
-1.341, 1.394e-5
-1.342, 1.420e-5
-1.343, 1.450e-5
-1.344, 1.478e-5
-1.345, 1.509e-5
-1.346, 1.545e-5
-1.347, 1.570e-5
-1.348, 1.606e-5
-1.349, 1.631e-5
-1.350, 1.670e-5
-1.351, 1.703e-5
-1.352, 1.728e-5
-1.353, 1.765e-5
-1.354, 1.799e-5
-1.355, 1.835e-5
-1.356, 1.874e-5
-1.357, 1.905e-5
-1.358, 1.943e-5
-1.359, 1.981e-5
-1.360, 2.019e-5
-1.361, 2.060e-5
-1.362, 2.100e-5
-1.363, 2.141e-5
-1.364, 2.182e-5
-1.365, 2.224e-5
-1.366, 2.263e-5
-1.367, 2.309e-5
-1.368, 2.345e-5
-1.369, 2.399e-5
-1.370, 2.442e-5
-1.371, 2.487e-5
-1.372, 2.542e-5
-1.373, 2.579e-5
-1.374, 2.632e-5
-1.375, 2.683e-5
-1.376, 2.733e-5
-1.377, 2.784e-5
-1.378, 2.829e-5
-1.379, 2.883e-5
-1.380, 2.932e-5
-1.381, 2.992e-5
-1.382, 3.043e-5
-1.383, 3.097e-5
-1.384, 3.154e-5
-1.385, 3.211e-5
-1.386, 3.272e-5
-1.387, 3.323e-5
-1.388, 3.385e-5
-1.389, 3.448e-5
-1.390, 3.502e-5
-1.391, 3.569e-5
-1.392, 3.625e-5
-1.393, 3.692e-5
-1.394, 3.750e-5
-1.395, 3.818e-5
-1.396, 3.883e-5
-1.397, 3.947e-5
-1.398, 4.018e-5
-1.399, 4.090e-5
-1.400, 4.152e-5
-1.401, 4.223e-5
-1.402, 4.296e-5
-1.403, 4.368e-5
-1.404, 4.434e-5
-1.405, 4.504e-5
-1.406, 4.585e-5
-1.407, 4.654e-5
-1.408, 4.730e-5
-1.409, 4.806e-5
-1.410, 4.878e-5
-1.411, 4.969e-5
-1.412, 5.041e-5
-1.413, 5.120e-5
-1.414, 5.195e-5
-1.415, 5.279e-5
-1.416, 5.359e-5
-1.417, 5.436e-5
-1.418, 5.525e-5
-1.419, 5.609e-5
-1.420, 5.689e-5
-1.421, 5.797e-5
-1.422, 5.895e-5
-1.423, 5.984e-5
-1.424, 6.071e-5
-1.425, 6.137e-5
-1.426, 6.236e-5
-1.427, 6.322e-5
-1.428, 6.419e-5
-1.429, 6.502e-5
-1.430, 6.601e-5
-1.431, 6.696e-5
-1.432, 6.788e-5
-1.433, 6.873e-5
-1.434, 6.972e-5
-1.435, 7.064e-5
-1.436, 7.158e-5
-1.437, 7.249e-5
-1.438, 7.356e-5
-1.439, 7.458e-5
-1.440, 7.563e-5
-1.441, 7.665e-5
-1.442, 7.777e-5
-1.443, 7.881e-5
-1.444, 7.990e-5
-1.445, 8.097e-5
-1.446, 8.211e-5
-1.447, 8.322e-5
-1.448, 8.427e-5
-1.449, 8.536e-5
-1.450, 8.642e-5
-1.451, 8.761e-5
-1.452, 8.874e-5
-1.453, 8.988e-5
-1.454, 9.116e-5
-1.455, 9.228e-5
-1.456, 9.350e-5
-1.457, 9.484e-5
-1.458, 9.604e-5
-1.459, 9.734e-5
-1.460, 9.856e-5
-1.461, 9.986e-5
-1.462, 1.011e-4
-1.463, 1.022e-4
-1.464, 1.035e-4
-1.465, 1.048e-4
-1.466, 1.060e-4
-1.467, 1.073e-4
-1.468, 1.086e-4
-1.469, 1.099e-4
-1.470, 1.112e-4
-1.471, 1.127e-4
-1.472, 1.142e-4
-1.473, 1.154e-4
-1.474, 1.169e-4
-1.475, 1.183e-4
-1.476, 1.199e-4
-1.477, 1.215e-4
-1.478, 1.228e-4
-1.479, 1.244e-4
-1.480, 1.259e-4
-1.481, 1.275e-4
-1.482, 1.291e-4
-1.483, 1.306e-4
-1.484, 1.323e-4
-1.485, 1.340e-4
-1.486, 1.356e-4
-1.487, 1.372e-4
-1.488, 1.389e-4
-1.489, 1.405e-4
-1.490, 1.421e-4
-1.491, 1.435e-4
-1.492, 1.452e-4
-1.493, 1.469e-4
-1.494, 1.485e-4
-1.495, 1.504e-4
-1.496, 1.521e-4
-1.497, 1.538e-4
-1.498, 1.557e-4
-1.499, 1.576e-4
-1.500, 1.595e-4
-1.501, 1.610e-4
-1.502, 1.629e-4
-1.503, 1.649e-4
-1.504, 1.671e-4
-1.505, 1.693e-4
-1.506, 1.711e-4
-1.507, 1.731e-4
-1.508, 1.753e-4
-1.509, 1.777e-4
-1.510, 1.796e-4
-1.511, 1.819e-4
-1.512, 1.840e-4
-1.513, 1.862e-4
-1.514, 1.886e-4
-1.515, 1.909e-4
-1.516, 1.931e-4
-1.517, 1.951e-4
-1.518, 1.970e-4
-1.519, 1.992e-4
-1.520, 2.016e-4
-1.521, 2.040e-4
-1.522, 2.063e-4
-1.523, 2.087e-4
-1.524, 2.111e-4
-1.525, 2.136e-4
-1.526, 2.167e-4
-1.527, 2.195e-4
-1.528, 2.221e-4
-1.529, 2.250e-4
-1.530, 2.276e-4
-1.531, 2.302e-4
-1.532, 2.331e-4
-1.533, 2.360e-4
-1.534, 2.392e-4
-1.535, 2.423e-4
-1.536, 2.461e-4
-1.537, 2.493e-4
-1.538, 2.527e-4
-1.539, 2.560e-4
-1.540, 2.596e-4
-1.541, 2.628e-4
-1.542, 2.662e-4
-1.543, 2.697e-4
-1.544, 2.728e-4
-1.545, 2.761e-4
-1.546, 2.800e-4
-1.547, 2.837e-4
-1.548, 2.876e-4
-1.549, 2.918e-4
-1.550, 2.957e-4
-1.551, 3.001e-4
-1.552, 3.051e-4
-1.553, 3.098e-4
-1.554, 3.141e-4
-1.555, 3.187e-4
-1.556, 3.234e-4
-1.557, 3.268e-4
-1.558, 3.307e-4
-1.559, 3.359e-4
-1.560, 3.407e-4
-1.561, 3.462e-4
-1.562, 3.528e-4
-1.563, 3.582e-4
-1.564, 3.642e-4
-1.565, 3.704e-4
-1.566, 3.767e-4
-1.567, 3.829e-4
-1.568, 3.890e-4
-1.569, 3.949e-4
-1.570, 3.991e-4
-1.571, 4.055e-4
-1.572, 4.128e-4
-1.573, 4.198e-4
-1.574, 4.273e-4
-1.575, 4.360e-4
-1.576, 4.441e-4
-1.577, 4.528e-4
-1.578, 4.621e-4
-1.579, 4.705e-4
-1.580, 4.794e-4
-1.581, 4.891e-4
-1.582, 4.973e-4
-1.583, 5.046e-4
-1.584, 5.131e-4
-1.585, 5.217e-4
-1.586, 5.305e-4
-1.587, 5.410e-4
-1.588, 5.526e-4
-1.589, 5.635e-4
-1.590, 5.766e-4
-1.591, 5.901e-4
-1.592, 6.004e-4
-1.593, 6.050e-4
-1.594, 6.143e-4
-1.595, 6.262e-4
-1.596, 6.445e-4
-1.597, 6.647e-4
-1.598, 6.803e-4
-1.599, 6.958e-4
-1.600, 6.976e-4
-1.599, 6.852e-4
-1.598, 6.726e-4
-1.597, 6.606e-4
-1.596, 6.486e-4
-1.595, 6.364e-4
-1.594, 6.230e-4
-1.593, 6.101e-4
-1.592, 5.967e-4
-1.591, 5.813e-4
-1.590, 5.662e-4
-1.589, 5.551e-4
-1.588, 5.435e-4
-1.587, 5.328e-4
-1.586, 5.221e-4
-1.585, 5.109e-4
-1.584, 5.008e-4
-1.583, 4.911e-4
-1.582, 4.812e-4
-1.581, 4.711e-4
-1.580, 4.616e-4
-1.579, 4.511e-4
-1.578, 4.403e-4
-1.577, 4.298e-4
-1.576, 4.209e-4
-1.575, 4.111e-4
-1.574, 4.024e-4
-1.573, 3.938e-4
-1.572, 3.852e-4
-1.571, 3.775e-4
-1.570, 3.694e-4
-1.569, 3.622e-4
-1.568, 3.551e-4
-1.567, 3.481e-4
-1.566, 3.408e-4
-1.565, 3.328e-4
-1.564, 3.260e-4
-1.563, 3.196e-4
-1.562, 3.137e-4
-1.561, 3.078e-4
-1.560, 3.023e-4
-1.559, 2.962e-4
-1.558, 2.907e-4
-1.557, 2.856e-4
-1.556, 2.803e-4
-1.555, 2.747e-4
-1.554, 2.696e-4
-1.553, 2.645e-4
-1.552, 2.587e-4
-1.551, 2.540e-4
-1.550, 2.490e-4
-1.549, 2.445e-4
-1.548, 2.400e-4
-1.547, 2.356e-4
-1.546, 2.314e-4
-1.545, 2.276e-4
-1.544, 2.235e-4
-1.543, 2.194e-4
-1.542, 2.154e-4
-1.541, 2.112e-4
-1.540, 2.070e-4
-1.539, 2.033e-4
-1.538, 1.998e-4
-1.537, 1.965e-4
-1.536, 1.931e-4
-1.535, 1.897e-4
-1.534, 1.864e-4
-1.533, 1.832e-4
-1.532, 1.802e-4
-1.531, 1.773e-4
-1.530, 1.741e-4
-1.529, 1.710e-4
-1.528, 1.680e-4
-1.527, 1.650e-4
-1.526, 1.623e-4
-1.525, 1.597e-4
-1.524, 1.567e-4
-1.523, 1.539e-4
-1.522, 1.513e-4
-1.521, 1.489e-4
-1.520, 1.465e-4
-1.519, 1.441e-4
-1.518, 1.414e-4
-1.517, 1.385e-4
-1.516, 1.360e-4
-1.515, 1.338e-4
-1.514, 1.318e-4
-1.513, 1.304e-4
-1.512, 1.284e-4
-1.511, 1.263e-4
-1.510, 1.241e-4
-1.509, 1.221e-4
-1.508, 1.201e-4
-1.507, 1.182e-4
-1.506, 1.164e-4
-1.505, 1.146e-4
-1.504, 1.128e-4
-1.503, 1.110e-4
-1.502, 1.091e-4
-1.501, 1.073e-4
-1.500, 1.054e-4
-1.499, 1.038e-4
-1.498, 1.021e-4
-1.497, 1.005e-4
-1.496, 9.900e-5
-1.495, 9.741e-5
-1.494, 9.588e-5
-1.493, 9.442e-5
-1.492, 9.290e-5
-1.491, 9.143e-5
-1.490, 8.991e-5
-1.489, 8.847e-5
-1.488, 8.700e-5
-1.487, 8.563e-5
-1.486, 8.413e-5
-1.485, 8.269e-5
-1.484, 8.139e-5
-1.483, 8.008e-5
-1.482, 7.875e-5
-1.481, 7.740e-5
-1.480, 7.618e-5
-1.479, 7.492e-5
-1.478, 7.371e-5
-1.477, 7.255e-5
-1.476, 7.134e-5
-1.475, 7.015e-5
-1.474, 6.896e-5
-1.473, 6.769e-5
-1.472, 6.662e-5
-1.471, 6.562e-5
-1.470, 6.460e-5
-1.469, 6.354e-5
-1.468, 6.242e-5
-1.467, 6.138e-5
-1.466, 6.030e-5
-1.465, 5.932e-5
-1.464, 5.835e-5
-1.463, 5.728e-5
-1.462, 5.584e-5
-1.461, 5.483e-5
-1.460, 5.387e-5
-1.459, 5.326e-5
-1.458, 5.243e-5
-1.457, 5.161e-5
-1.456, 5.077e-5
-1.455, 4.993e-5
-1.454, 4.913e-5
-1.453, 4.829e-5
-1.452, 4.751e-5
-1.451, 4.669e-5
-1.450, 4.591e-5
-1.449, 4.511e-5
-1.448, 4.421e-5
-1.447, 4.341e-5
-1.446, 4.250e-5
-1.445, 4.154e-5
-1.444, 4.074e-5
-1.443, 3.989e-5
-1.442, 3.914e-5
-1.441, 3.833e-5
-1.440, 3.760e-5
-1.439, 3.684e-5
-1.438, 3.607e-5
-1.437, 3.540e-5
-1.436, 3.459e-5
-1.435, 3.391e-5
-1.434, 3.321e-5
-1.433, 3.249e-5
-1.432, 3.184e-5
-1.431, 3.117e-5
-1.430, 3.055e-5
-1.429, 2.998e-5
-1.428, 2.933e-5
-1.427, 2.872e-5
-1.426, 2.813e-5
-1.425, 2.756e-5
-1.424, 2.704e-5
-1.423, 2.639e-5
-1.422, 2.586e-5
-1.421, 2.533e-5
-1.420, 2.474e-5
-1.419, 2.426e-5
-1.418, 2.375e-5
-1.417, 2.327e-5
-1.416, 2.280e-5
-1.415, 2.231e-5
-1.414, 2.187e-5
-1.413, 2.140e-5
-1.412, 2.103e-5
-1.411, 2.056e-5
-1.410, 2.011e-5
-1.409, 1.971e-5
-1.408, 1.923e-5
-1.407, 1.885e-5
-1.406, 1.845e-5
-1.405, 1.807e-5
-1.404, 1.772e-5
-1.403, 1.730e-5
-1.402, 1.694e-5
-1.401, 1.658e-5
-1.400, 1.624e-5
-1.399, 1.596e-5
-1.398, 1.557e-5
-1.397, 1.527e-5
-1.396, 1.487e-5
-1.395, 1.459e-5
-1.394, 1.428e-5
-1.393, 1.391e-5
-1.392, 1.362e-5
-1.391, 1.337e-5
-1.390, 1.307e-5
-1.389, 1.286e-5
-1.388, 1.257e-5
-1.387, 1.230e-5
-1.386, 1.208e-5
-1.385, 1.173e-5
-1.384, 1.157e-5
-1.383, 1.122e-5
-1.382, 1.095e-5
-1.381, 1.072e-5
-1.380, 1.045e-5
-1.379, 1.031e-5
-1.378, 1.005e-5
-1.377, 9.819e-6
-1.376, 9.638e-6
-1.375, 9.433e-6
-1.374, 9.244e-6
-1.373, 9.020e-6
-1.372, 8.839e-6
-1.371, 8.496e-6
-1.370, 8.124e-6
-1.369, 7.901e-6
-1.368, 7.719e-6
-1.367, 7.718e-6
-1.366, 7.634e-6
-1.365, 7.469e-6
-1.364, 7.291e-6
-1.363, 7.154e-6
-1.362, 6.913e-6
-1.361, 6.830e-6
-1.360, 6.613e-6
-1.359, 6.516e-6
-1.358, 6.344e-6
-1.357, 6.171e-6
-1.356, 6.060e-6
-1.355, 5.864e-6
-1.354, 5.729e-6
-1.353, 5.602e-6
-1.352, 5.423e-6
-1.351, 5.277e-6
-1.350, 5.156e-6
-1.349, 5.059e-6
-1.348, 4.923e-6
-1.347, 4.733e-6
-1.346, 4.659e-6
-1.345, 4.509e-6
-1.344, 4.438e-6
-1.343, 4.361e-6
-1.342, 4.176e-6
-1.341, 4.091e-6
-1.340, 3.923e-6
-1.339, 3.850e-6
-1.338, 3.755e-6
-1.337, 3.570e-6
-1.336, 3.508e-6
-1.335, 3.351e-6
-1.334, 3.278e-6
-1.333, 3.261e-6
-1.332, 3.087e-6
-1.331, 3.000e-6
-1.330, 2.681e-6
-1.329, 2.487e-6
-1.328, 2.381e-6
-1.327, 2.379e-6
-1.326, 2.542e-6
-1.325, 2.445e-6
-1.324, 2.360e-6
-1.323, 2.272e-6
-1.322, 2.254e-6
-1.321, 2.104e-6
-1.320, 2.044e-6
-1.319, 2.020e-6
-1.318, 1.909e-6
-1.317, 1.841e-6
-1.316, 1.778e-6
-1.315, 1.679e-6
-1.314, 1.604e-6
-1.313, 1.520e-6
-1.312, 1.514e-6
-1.311, 1.398e-6
-1.310, 1.380e-6
-1.309, 1.302e-6
-1.308, 1.273e-6
-1.307, 1.150e-6
-1.306, 1.168e-6
-1.305, 1.068e-6
-1.304, 1.020e-6
-1.303, 9.637e-7
-1.302, 9.065e-7
-1.301, 8.128e-7
-1.300, 7.664e-7
-1.299, 7.200e-7
-1.298, 6.855e-7
-1.297, 6.223e-7
-1.296, 5.681e-7
-1.295, 4.990e-7
-1.294, 4.783e-7
-1.293, 4.882e-7
-1.292, 4.349e-7
-1.291, 3.283e-7
-1.290, -1.993e-8
-1.289, -1.127e-7
-1.288, -1.561e-7
-1.287, -5.643e-8
-1.286, 1.192e-7
-1.285, 9.846e-8
-1.284, 4.913e-8
-1.283, 4.716e-8
-1.282, 2.762e-9
-1.281, -1.697e-8
-1.280, -1.018e-7
-1.279, -6.926e-8
-1.278, -1.393e-7
-1.277, -1.689e-7
-1.276, -1.581e-7
-1.275, -2.409e-7
-1.274, -2.350e-7
-1.273, -3.110e-7
-1.272, -3.465e-7
-1.271, -3.958e-7
-1.270, -4.106e-7
-1.269, -4.392e-7
-1.268, -4.392e-7
-1.267, -4.600e-7
-1.266, -5.024e-7
-1.265, -5.043e-7
-1.264, -5.162e-7
-1.263, -5.931e-7
-1.262, -5.862e-7
-1.261, -6.425e-7
-1.260, -6.869e-7
-1.259, -6.681e-7
-1.258, -6.888e-7
-1.257, -7.204e-7
-1.256, -7.530e-7
-1.255, -7.569e-7
-1.254, -7.964e-7
-1.253, -7.737e-7
-1.252, -7.293e-7
-1.251, -8.378e-7
-1.250, -8.220e-7
-1.249, -8.802e-7
-1.248, -9.276e-7
-1.247, -8.950e-7
-1.246, -1.004e-6
-1.245, -9.661e-7
-1.244, -9.384e-7
-1.243, -9.769e-7
-1.242, -9.355e-7
-1.241, -1.006e-6
-1.240, -9.868e-7
-1.239, -9.799e-7
-1.238, -1.055e-6
-1.237, -9.799e-7
-1.236, -1.082e-6
-1.235, -1.121e-6
-1.234, -1.136e-6
-1.233, -1.140e-6
-1.232, -1.161e-6
-1.231, -1.191e-6
-1.230, -1.147e-6
-1.229, -1.187e-6
-1.228, -1.186e-6
-1.227, -1.180e-6
-1.226, -1.432e-6
-1.225, -1.595e-6
-1.224, -1.679e-6
-1.223, -1.697e-6
-1.222, -1.620e-6
-1.221, -1.296e-6
-1.220, -1.315e-6
-1.219, -1.300e-6
-1.218, -1.323e-6
-1.217, -1.306e-6
-1.216, -1.312e-6
-1.215, -1.326e-6
-1.214, -1.305e-6
-1.213, -1.340e-6
-1.212, -1.342e-6
-1.211, -1.345e-6
-1.210, -1.379e-6
-1.209, -1.330e-6
-1.208, -1.389e-6
-1.207, -1.446e-6
-1.206, -1.458e-6
-1.205, -1.422e-6
-1.204, -1.424e-6
-1.203, -1.398e-6
-1.202, -1.463e-6
-1.201, -1.462e-6
-1.200, -1.441e-6
-1.199, -1.477e-6
-1.198, -1.456e-6
-1.197, -1.484e-6
-1.196, -1.473e-6
-1.195, -1.515e-6
-1.194, -1.543e-6
-1.193, -1.503e-6
-1.192, -1.536e-6
-1.191, -1.543e-6
-1.190, -1.567e-6
-1.189, -1.535e-6
-1.188, -1.513e-6
-1.187, -1.550e-6
-1.186, -1.554e-6
-1.185, -1.605e-6
-1.184, -1.890e-6
-1.183, -1.989e-6
-1.182, -2.017e-6
-1.181, -1.763e-6
-1.180, -1.618e-6
-1.179, -1.607e-6
-1.178, -1.604e-6
-1.177, -1.578e-6
-1.176, -1.597e-6
-1.175, -1.622e-6
-1.174, -1.626e-6
-1.173, -1.629e-6
-1.172, -1.615e-6
-1.171, -1.647e-6
-1.170, -1.671e-6
-1.169, -1.645e-6
-1.168, -1.676e-6
-1.167, -1.696e-6
-1.166, -1.694e-6
-1.165, -1.728e-6
-1.164, -1.721e-6
-1.163, -1.716e-6
-1.162, -1.699e-6
-1.161, -1.734e-6
-1.160, -1.688e-6
-1.159, -1.706e-6
-1.158, -1.713e-6
-1.157, -1.680e-6
-1.156, -1.744e-6
-1.155, -1.774e-6
-1.154, -1.744e-6
-1.153, -1.795e-6
-1.152, -1.799e-6
-1.151, -1.798e-6
-1.150, -1.798e-6
-1.149, -1.799e-6
-1.148, -1.762e-6
-1.147, -1.794e-6
-1.146, -1.794e-6
-1.145, -1.871e-6
-1.144, -1.807e-6
-1.143, -1.792e-6
-1.142, -1.845e-6
-1.141, -1.851e-6
-1.140, -1.885e-6
-1.139, -1.899e-6
-1.138, -1.862e-6
-1.137, -1.847e-6
-1.136, -1.863e-6
-1.135, -1.844e-6
-1.134, -1.930e-6
-1.133, -1.804e-6
-1.132, -1.891e-6
-1.131, -1.882e-6
-1.130, -1.867e-6
-1.129, -1.972e-6
-1.128, -1.924e-6
-1.127, -1.889e-6
-1.126, -1.985e-6
-1.125, -1.936e-6
-1.124, -1.951e-6
-1.123, -1.917e-6
-1.122, -1.892e-6
-1.121, -1.971e-6
-1.120, -1.948e-6
-1.119, -1.979e-6
-1.118, -1.974e-6
-1.117, -1.975e-6
-1.116, -2.057e-6
-1.115, -1.996e-6
-1.114, -2.051e-6
-1.113, -2.056e-6
-1.112, -2.049e-6
-1.111, -2.091e-6
-1.110, -2.052e-6
-1.109, -2.050e-6
-1.108, -2.051e-6
-1.107, -2.157e-6
-1.106, -2.468e-6
-1.105, -2.510e-6
-1.104, -2.535e-6
-1.103, -2.438e-6
-1.102, -2.147e-6
-1.101, -2.170e-6
-1.100, -2.145e-6
-1.099, -2.166e-6
-1.098, -2.174e-6
-1.097, -2.133e-6
-1.096, -2.161e-6
-1.095, -2.203e-6
-1.094, -2.179e-6
-1.093, -2.168e-6
-1.092, -2.204e-6
-1.091, -2.214e-6
-1.090, -2.251e-6
-1.089, -2.239e-6
-1.088, -2.298e-6
-1.087, -2.318e-6
-1.086, -2.328e-6
-1.085, -2.314e-6
-1.084, -2.374e-6
-1.083, -2.304e-6
-1.082, -2.352e-6
-1.081, -2.371e-6
-1.080, -2.355e-6
-1.079, -2.351e-6
-1.078, -2.411e-6
-1.077, -2.414e-6
-1.076, -2.433e-6
-1.075, -2.434e-6
-1.074, -2.475e-6
-1.073, -2.473e-6
-1.072, -2.527e-6
-1.071, -2.506e-6
-1.070, -2.527e-6
-1.069, -2.554e-6
-1.068, -2.497e-6
-1.067, -2.562e-6
-1.066, -2.599e-6
-1.065, -2.601e-6
-1.064, -2.640e-6
-1.063, -2.622e-6
-1.062, -2.720e-6
-1.061, -2.762e-6
-1.060, -2.716e-6
-1.059, -2.773e-6
-1.058, -2.784e-6
-1.057, -2.770e-6
-1.056, -2.856e-6
-1.055, -2.797e-6
-1.054, -2.903e-6
-1.053, -2.867e-6
-1.052, -2.869e-6
-1.051, -2.975e-6
-1.050, -2.973e-6
-1.049, -3.018e-6
-1.048, -3.040e-6
-1.047, -3.076e-6
-1.046, -3.131e-6
-1.045, -3.093e-6
-1.044, -3.114e-6
-1.043, -3.178e-6
-1.042, -3.195e-6
-1.041, -3.243e-6
-1.040, -3.276e-6
-1.039, -3.269e-6
-1.038, -3.384e-6
-1.037, -3.403e-6
-1.036, -3.436e-6
-1.035, -3.487e-6
-1.034, -3.530e-6
-1.033, -3.535e-6
-1.032, -3.633e-6
-1.031, -3.602e-6
-1.030, -3.711e-6
-1.029, -3.712e-6
-1.028, -3.718e-6
-1.027, -3.803e-6
-1.026, -3.858e-6
-1.025, -3.903e-6
-1.024, -3.991e-6
-1.023, -4.024e-6
-1.022, -4.060e-6
-1.021, -4.154e-6
-1.020, -4.164e-6
-1.019, -4.240e-6
-1.018, -4.240e-6
-1.017, -4.313e-6
-1.016, -4.376e-6
-1.015, -4.400e-6
-1.014, -4.447e-6
-1.013, -4.501e-6
-1.012, -4.590e-6
-1.011, -4.719e-6
-1.010, -4.756e-6
-1.009, -4.762e-6
-1.008, -4.827e-6
-1.007, -4.882e-6
-1.006, -4.924e-6
-1.005, -5.049e-6
-1.004, -5.059e-6
-1.003, -5.145e-6
-1.002, -5.172e-6
-1.001, -5.277e-6
-1.000, -3.726e-6
-1.001, -2.876e-6
-1.002, -2.384e-6
-1.003, -2.085e-6
-1.004, -1.781e-6
-1.005, -1.464e-6
-1.006, -1.280e-6
-1.007, -1.049e-6
-1.008, -8.802e-7
-1.009, -7.214e-7
-1.010, -5.635e-7
-1.011, -4.215e-7
-1.012, -3.139e-7
-1.013, -1.610e-7
-1.014, -4.854e-8
-1.015, 6.886e-8
-1.016, 2.011e-7
-1.017, 2.593e-7
-1.018, 3.777e-7
-1.019, 3.974e-7
-1.020, 4.773e-7
-1.021, 5.385e-7
-1.022, 5.977e-7
-1.023, 6.973e-7
-1.024, 7.654e-7
-1.025, 8.197e-7
-1.026, 8.927e-7
-1.027, 8.966e-7
-1.028, 9.963e-7
-1.029, 1.002e-6
-1.030, 1.056e-6
-1.031, 1.112e-6
-1.032, 1.128e-6
-1.033, 1.180e-6
-1.034, 1.184e-6
-1.035, 1.213e-6
-1.036, 1.279e-6
-1.037, 1.313e-6
-1.038, 1.329e-6
-1.039, 1.381e-6
-1.040, 1.342e-6
-1.041, 1.417e-6
-1.042, 1.463e-6
-1.043, 1.463e-6
-1.044, 1.491e-6
-1.045, 1.455e-6
-1.046, 1.495e-6
-1.047, 1.592e-6
-1.048, 1.539e-6
-1.049, 1.549e-6
-1.050, 1.567e-6
-1.051, 1.613e-6
-1.052, 1.592e-6
-1.053, 1.671e-6
-1.054, 1.621e-6
-1.055, 1.662e-6
-1.056, 1.645e-6
-1.057, 1.668e-6
-1.058, 1.702e-6
-1.059, 1.654e-6
-1.060, 1.678e-6
-1.061, 1.701e-6
-1.062, 1.694e-6
-1.063, 1.710e-6
-1.064, 1.676e-6
-1.065, 1.674e-6
-1.066, 1.769e-6
-1.067, 1.725e-6
-1.068, 1.749e-6
-1.069, 1.744e-6
-1.070, 1.752e-6
-1.071, 1.738e-6
-1.072, 1.776e-6
-1.073, 1.718e-6
-1.074, 1.755e-6
-1.075, 1.724e-6
-1.076, 1.767e-6
-1.077, 1.747e-6
-1.078, 1.767e-6
-1.079, 1.720e-6
-1.080, 1.772e-6
-1.081, 1.770e-6
-1.082, 1.768e-6
-1.083, 1.811e-6
-1.084, 1.779e-6
-1.085, 1.791e-6
-1.086, 1.806e-6
-1.087, 1.773e-6
-1.088, 1.781e-6
-1.089, 2.034e-6
-1.090, 2.146e-6
-1.091, 2.171e-6
-1.092, 2.160e-6
-1.093, 1.918e-6
-1.094, 1.829e-6
-1.095, 1.808e-6
-1.096, 1.776e-6
-1.097, 1.797e-6
-1.098, 1.797e-6
-1.099, 1.788e-6
-1.100, 1.798e-6
-1.101, 1.789e-6
-1.102, 1.853e-6
-1.103, 1.773e-6
-1.104, 1.746e-6
-1.105, 1.818e-6
-1.106, 1.866e-6
-1.107, 1.839e-6
-1.108, 1.815e-6
-1.109, 1.823e-6
-1.110, 1.804e-6
-1.111, 1.854e-6
-1.112, 1.829e-6
-1.113, 1.834e-6
-1.114, 1.788e-6
-1.115, 1.823e-6
-1.116, 1.815e-6
-1.117, 1.813e-6
-1.118, 1.790e-6
-1.119, 1.846e-6
-1.120, 1.824e-6
-1.121, 1.862e-6
-1.122, 1.874e-6
-1.123, 1.853e-6
-1.124, 1.874e-6
-1.125, 1.833e-6
-1.126, 1.826e-6
-1.127, 1.866e-6
-1.128, 1.846e-6
-1.129, 1.823e-6
-1.130, 1.857e-6
-1.131, 1.881e-6
-1.132, 1.879e-6
-1.133, 1.898e-6
-1.134, 1.860e-6
-1.135, 1.848e-6
-1.136, 1.895e-6
-1.137, 1.834e-6
-1.138, 1.883e-6
-1.139, 1.798e-6
-1.140, 1.847e-6
-1.141, 1.904e-6
-1.142, 1.844e-6
-1.143, 1.840e-6
-1.144, 1.906e-6
-1.145, 1.884e-6
-1.146, 1.949e-6
-1.147, 1.910e-6
-1.148, 1.864e-6
-1.149, 1.922e-6
-1.150, 1.893e-6
-1.151, 1.910e-6
-1.152, 1.974e-6
-1.153, 1.913e-6
-1.154, 1.926e-6
-1.155, 1.900e-6
-1.156, 1.910e-6
-1.157, 1.932e-6
-1.158, 1.936e-6
-1.159, 1.919e-6
-1.160, 1.967e-6
-1.161, 1.965e-6
-1.162, 1.998e-6
-1.163, 1.933e-6
-1.164, 1.925e-6
-1.165, 1.944e-6
-1.166, 1.992e-6
-1.167, 1.992e-6
-1.168, 2.189e-6
-1.169, 2.301e-6
-1.170, 2.370e-6
-1.171, 2.386e-6
-1.172, 2.230e-6
-1.173, 2.026e-6
-1.174, 2.001e-6
-1.175, 2.011e-6
-1.176, 1.972e-6
-1.177, 2.011e-6
-1.178, 1.989e-6
-1.179, 2.029e-6
-1.180, 1.996e-6
-1.181, 2.059e-6
-1.182, 2.020e-6
-1.183, 2.020e-6
-1.184, 2.033e-6
-1.185, 2.055e-6
-1.186, 2.114e-6
-1.187, 2.061e-6
-1.188, 2.110e-6
-1.189, 2.051e-6
-1.190, 2.049e-6
-1.191, 2.098e-6
-1.192, 2.085e-6
-1.193, 2.092e-6
-1.194, 2.082e-6
-1.195, 2.073e-6
-1.196, 2.133e-6
-1.197, 2.090e-6
-1.198, 2.144e-6
-1.199, 2.156e-6
-1.200, 2.145e-6
-1.201, 2.213e-6
-1.202, 2.165e-6
-1.203, 2.154e-6
-1.204, 2.203e-6
-1.205, 2.236e-6
-1.206, 2.218e-6
-1.207, 2.215e-6
-1.208, 2.184e-6
-1.209, 2.216e-6
-1.210, 2.246e-6
-1.211, 2.267e-6
-1.212, 2.284e-6
-1.213, 2.282e-6
-1.214, 2.300e-6
-1.215, 2.298e-6
-1.216, 2.298e-6
-1.217, 2.334e-6
-1.218, 2.316e-6
-1.219, 2.306e-6
-1.220, 2.359e-6
-1.221, 2.338e-6
-1.222, 2.333e-6
-1.223, 2.383e-6
-1.224, 2.373e-6
-1.225, 2.423e-6
-1.226, 2.471e-6
-1.227, 2.417e-6
-1.228, 2.492e-6
-1.229, 2.512e-6
-1.230, 2.539e-6
-1.231, 2.512e-6
-1.232, 2.534e-6
-1.233, 2.534e-6
-1.234, 2.549e-6
-1.235, 2.589e-6
-1.236, 2.607e-6
-1.237, 2.581e-6
-1.238, 2.634e-6
-1.239, 2.661e-6
-1.240, 2.679e-6
-1.241, 2.683e-6
-1.242, 2.750e-6
-1.243, 2.721e-6
-1.244, 2.759e-6
-1.245, 2.745e-6
-1.246, 2.812e-6
-1.247, 2.759e-6
-1.248, 2.864e-6
-1.249, 2.865e-6
-1.250, 2.882e-6
-1.251, 2.940e-6
-1.252, 2.980e-6
-1.253, 3.000e-6
-1.254, 3.036e-6
-1.255, 3.083e-6
-1.256, 3.090e-6
-1.257, 3.085e-6
-1.258, 3.144e-6
-1.259, 3.151e-6
-1.260, 3.198e-6
-1.261, 3.262e-6
-1.262, 3.241e-6
-1.263, 3.334e-6
-1.264, 3.357e-6
-1.265, 3.431e-6
-1.266, 3.471e-6
-1.267, 3.456e-6
-1.268, 3.579e-6
-1.269, 3.567e-6
-1.270, 3.555e-6
-1.271, 3.676e-6
-1.272, 3.677e-6
-1.273, 3.745e-6
-1.274, 3.784e-6
-1.275, 3.827e-6
-1.276, 3.935e-6
-1.277, 3.941e-6
-1.278, 4.028e-6
-1.279, 4.057e-6
-1.280, 4.121e-6
-1.281, 4.194e-6
-1.282, 4.250e-6
-1.283, 4.334e-6
-1.284, 4.411e-6
-1.285, 4.380e-6
-1.286, 4.494e-6
-1.287, 4.558e-6
-1.288, 4.597e-6
-1.289, 4.653e-6
-1.290, 4.789e-6
-1.291, 4.853e-6
-1.292, 4.970e-6
-1.293, 5.042e-6
-1.294, 5.101e-6
-1.295, 5.143e-6
-1.296, 5.239e-6
-1.297, 5.332e-6
-1.298, 5.421e-6
-1.299, 5.448e-6
-1.300, 5.609e-6
-1.301, 5.643e-6
-1.302, 5.788e-6
-1.303, 5.891e-6
-1.304, 5.957e-6
-1.305, 6.070e-6
-1.306, 6.278e-6
-1.307, 6.301e-6
-1.308, 6.438e-6
-1.309, 6.523e-6
-1.310, 6.617e-6
-1.311, 6.769e-6
-1.312, 6.883e-6
-1.313, 7.011e-6
-1.314, 7.114e-6
-1.315, 7.232e-6
-1.316, 7.395e-6
-1.317, 7.568e-6
-1.318, 7.690e-6
-1.319, 7.811e-6
-1.320, 7.928e-6
-1.321, 8.084e-6
-1.322, 8.282e-6
-1.323, 8.363e-6
-1.324, 8.557e-6
-1.325, 8.661e-6
-1.326, 8.868e-6
-1.327, 9.053e-6
-1.328, 9.150e-6
-1.329, 9.354e-6
-1.330, 9.558e-6
-1.331, 9.736e-6
-1.332, 9.932e-6
-1.333, 1.014e-5
-1.334, 1.028e-5
-1.335, 1.051e-5
-1.336, 1.069e-5
-1.337, 1.093e-5
-1.338, 1.111e-5
-1.339, 1.126e-5
-1.340, 1.156e-5
-1.341, 1.176e-5
-1.342, 1.194e-5
-1.343, 1.227e-5
-1.344, 1.242e-5
-1.345, 1.272e-5
-1.346, 1.296e-5
-1.347, 1.316e-5
-1.348, 1.349e-5
-1.349, 1.364e-5
-1.350, 1.396e-5
-1.351, 1.421e-5
-1.352, 1.448e-5
-1.353, 1.479e-5
-1.354, 1.503e-5
-1.355, 1.530e-5
-1.356, 1.570e-5
-1.357, 1.595e-5
-1.358, 1.626e-5
-1.359, 1.656e-5
-1.360, 1.686e-5
-1.361, 1.721e-5
-1.362, 1.756e-5
-1.363, 1.785e-5
-1.364, 1.825e-5
-1.365, 1.853e-5
-1.366, 1.890e-5
-1.367, 1.931e-5
-1.368, 1.965e-5
-1.369, 2.002e-5
-1.370, 2.042e-5
-1.371, 2.082e-5
-1.372, 2.122e-5
-1.373, 2.157e-5
-1.374, 2.201e-5
-1.375, 2.241e-5
-1.376, 2.282e-5
-1.377, 2.327e-5
-1.378, 2.370e-5
-1.379, 2.414e-5
-1.380, 2.459e-5
-1.381, 2.505e-5
-1.382, 2.553e-5
-1.383, 2.607e-5
-1.384, 2.647e-5
-1.385, 2.701e-5
-1.386, 2.751e-5
-1.387, 2.799e-5
-1.388, 2.854e-5
-1.389, 2.903e-5
-1.390, 2.962e-5
-1.391, 3.013e-5
-1.392, 3.084e-5
-1.393, 3.154e-5
-1.394, 3.215e-5
-1.395, 3.274e-5
-1.396, 3.324e-5
-1.397, 3.359e-5
-1.398, 3.417e-5
-1.399, 3.484e-5
-1.400, 3.544e-5
-1.401, 3.603e-5
-1.402, 3.672e-5
-1.403, 3.737e-5
-1.404, 3.799e-5
-1.405, 3.870e-5
-1.406, 3.932e-5
-1.407, 4.005e-5
-1.408, 4.074e-5
-1.409, 4.141e-5
-1.410, 4.216e-5
-1.411, 4.291e-5
-1.412, 4.362e-5
-1.413, 4.434e-5
-1.414, 4.513e-5
-1.415, 4.589e-5
-1.416, 4.671e-5
-1.417, 4.746e-5
-1.418, 4.826e-5
-1.419, 4.905e-5
-1.420, 4.988e-5
-1.421, 5.064e-5
-1.422, 5.153e-5
-1.423, 5.226e-5
-1.424, 5.321e-5
-1.425, 5.407e-5
-1.426, 5.498e-5
-1.427, 5.581e-5
-1.428, 5.674e-5
-1.429, 5.769e-5
-1.430, 5.862e-5
-1.431, 5.949e-5
-1.432, 6.041e-5
-1.433, 6.135e-5
-1.434, 6.235e-5
-1.435, 6.327e-5
-1.436, 6.429e-5
-1.437, 6.530e-5
-1.438, 6.630e-5
-1.439, 6.732e-5
-1.440, 6.834e-5
-1.441, 6.943e-5
-1.442, 7.053e-5
-1.443, 7.162e-5
-1.444, 7.270e-5
-1.445, 7.380e-5
-1.446, 7.488e-5
-1.447, 7.600e-5
-1.448, 7.703e-5
-1.449, 7.817e-5
-1.450, 7.931e-5
-1.451, 8.042e-5
-1.452, 8.159e-5
-1.453, 8.282e-5
-1.454, 8.397e-5
-1.455, 8.517e-5
-1.456, 8.628e-5
-1.457, 8.758e-5
-1.458, 8.882e-5
-1.459, 9.002e-5
-1.460, 9.128e-5
-1.461, 9.240e-5
-1.462, 9.376e-5
-1.463, 9.514e-5
-1.464, 9.640e-5
-1.465, 9.781e-5
-1.466, 9.919e-5
-1.467, 1.006e-4
-1.468, 1.020e-4
-1.469, 1.034e-4
-1.470, 1.048e-4
-1.471, 1.063e-4
-1.472, 1.077e-4
-1.473, 1.091e-4
-1.474, 1.104e-4
-1.475, 1.120e-4
-1.476, 1.135e-4
-1.477, 1.151e-4
-1.478, 1.166e-4
-1.479, 1.182e-4
-1.480, 1.198e-4
-1.481, 1.214e-4
-1.482, 1.231e-4
-1.483, 1.246e-4
-1.484, 1.264e-4
-1.485, 1.280e-4
-1.486, 1.296e-4
-1.487, 1.312e-4
-1.488, 1.328e-4
-1.489, 1.344e-4
-1.490, 1.361e-4
-1.491, 1.378e-4
-1.492, 1.396e-4
-1.493, 1.414e-4
-1.494, 1.433e-4
-1.495, 1.453e-4
-1.496, 1.473e-4
-1.497, 1.492e-4
-1.498, 1.511e-4
-1.499, 1.527e-4
-1.500, 1.547e-4
-1.501, 1.568e-4
-1.502, 1.589e-4
-1.503, 1.611e-4
-1.504, 1.631e-4
-1.505, 1.653e-4
-1.506, 1.674e-4
-1.507, 1.697e-4
-1.508, 1.718e-4
-1.509, 1.742e-4
-1.510, 1.766e-4
-1.511, 1.787e-4
-1.512, 1.806e-4
-1.513, 1.828e-4
-1.514, 1.850e-4
-1.515, 1.874e-4
-1.516, 1.899e-4
-1.517, 1.921e-4
-1.518, 1.946e-4
-1.519, 1.972e-4
-1.520, 1.999e-4
-1.521, 2.025e-4
-1.522, 2.053e-4
-1.523, 2.081e-4
-1.524, 2.106e-4
-1.525, 2.127e-4
-1.526, 2.157e-4
-1.527, 2.187e-4
-1.528, 2.215e-4
-1.529, 2.244e-4
-1.530, 2.274e-4
-1.531, 2.307e-4
-1.532, 2.340e-4
-1.533, 2.372e-4
-1.534, 2.406e-4
-1.535, 2.439e-4
-1.536, 2.472e-4
-1.537, 2.502e-4
-1.538, 2.524e-4
-1.539, 2.557e-4
-1.540, 2.591e-4
-1.541, 2.630e-4
-1.542, 2.666e-4
-1.543, 2.703e-4
-1.544, 2.745e-4
-1.545, 2.786e-4
-1.546, 2.827e-4
-1.547, 2.872e-4
-1.548, 2.899e-4
-1.549, 2.938e-4
-1.550, 2.980e-4
-1.551, 3.027e-4
-1.552, 3.083e-4
-1.553, 3.126e-4
-1.554, 3.180e-4
-1.555, 3.221e-4
-1.556, 3.272e-4
-1.557, 3.331e-4
-1.558, 3.383e-4
-1.559, 3.445e-4
-1.560, 3.502e-4
-1.561, 3.563e-4
-1.562, 3.627e-4
-1.563, 3.686e-4
-1.564, 3.745e-4
-1.565, 3.793e-4
-1.566, 3.845e-4
-1.567, 3.911e-4
-1.568, 3.978e-4
-1.569, 4.043e-4
-1.570, 4.111e-4
-1.571, 4.188e-4
-1.572, 4.268e-4
-1.573, 4.346e-4
-1.574, 4.431e-4
-1.575, 4.507e-4
-1.576, 4.540e-4
-1.577, 4.612e-4
-1.578, 4.708e-4
-1.579, 4.845e-4
-1.580, 4.946e-4
-1.581, 5.043e-4
-1.582, 5.141e-4
-1.583, 5.244e-4
-1.584, 5.357e-4
-1.585, 5.477e-4
-1.586, 5.606e-4
-1.587, 5.734e-4
-1.588, 5.865e-4
-1.589, 6.007e-4
-1.590, 6.135e-4
-1.591, 6.266e-4
-1.592, 6.358e-4
-1.593, 6.478e-4
-1.594, 6.629e-4
-1.595, 6.791e-4
-1.596, 6.956e-4
-1.597, 7.133e-4
-1.598, 7.313e-4
-1.599, 7.506e-4
-1.600, 7.558e-4
-1.599, 7.429e-4
-1.598, 7.278e-4
-1.597, 7.136e-4
-1.596, 6.977e-4
-1.595, 6.796e-4
-1.594, 6.594e-4
-1.593, 6.431e-4
-1.592, 6.268e-4
-1.591, 6.129e-4
-1.590, 5.998e-4
-1.589, 5.869e-4
-1.588, 5.748e-4
-1.587, 5.638e-4
-1.586, 5.530e-4
-1.585, 5.404e-4
-1.584, 5.293e-4
-1.583, 5.173e-4
-1.582, 5.040e-4
-1.581, 4.895e-4
-1.580, 4.782e-4
-1.579, 4.678e-4
-1.578, 4.573e-4
-1.577, 4.471e-4
-1.576, 4.379e-4
-1.575, 4.282e-4
-1.574, 4.190e-4
-1.573, 4.104e-4
-1.572, 3.993e-4
-1.571, 3.882e-4
-1.570, 3.790e-4
-1.569, 3.709e-4
-1.568, 3.631e-4
-1.567, 3.578e-4
-1.566, 3.511e-4
-1.565, 3.433e-4
-1.564, 3.358e-4
-1.563, 3.290e-4
-1.562, 3.219e-4
-1.561, 3.149e-4
-1.560, 3.090e-4
-1.559, 3.029e-4
-1.558, 2.960e-4
-1.557, 2.895e-4
-1.556, 2.830e-4
-1.555, 2.764e-4
-1.554, 2.703e-4
-1.553, 2.647e-4
-1.552, 2.593e-4
-1.551, 2.546e-4
-1.550, 2.494e-4
-1.549, 2.444e-4
-1.548, 2.394e-4
-1.547, 2.347e-4
-1.546, 2.302e-4
-1.545, 2.256e-4
-1.544, 2.213e-4
-1.543, 2.170e-4
-1.542, 2.124e-4
-1.541, 2.075e-4
-1.540, 2.035e-4
-1.539, 1.994e-4
-1.538, 1.955e-4
-1.537, 1.918e-4
-1.536, 1.882e-4
-1.535, 1.849e-4
-1.534, 1.813e-4
-1.533, 1.781e-4
-1.532, 1.747e-4
-1.531, 1.713e-4
-1.530, 1.681e-4
-1.529, 1.646e-4
-1.528, 1.616e-4
-1.527, 1.585e-4
-1.526, 1.555e-4
-1.525, 1.526e-4
-1.524, 1.499e-4
-1.523, 1.471e-4
-1.522, 1.445e-4
-1.521, 1.421e-4
-1.520, 1.396e-4
-1.519, 1.372e-4
-1.518, 1.345e-4
-1.517, 1.321e-4
-1.516, 1.295e-4
-1.515, 1.272e-4
-1.514, 1.251e-4
-1.513, 1.229e-4
-1.512, 1.207e-4
-1.511, 1.185e-4
-1.510, 1.165e-4
-1.509, 1.143e-4
-1.508, 1.123e-4
-1.507, 1.102e-4
-1.506, 1.080e-4
-1.505, 1.058e-4
-1.504, 1.038e-4
-1.503, 1.019e-4
-1.502, 1.005e-4
-1.501, 9.882e-5
-1.500, 9.713e-5
-1.499, 9.544e-5
-1.498, 9.385e-5
-1.497, 9.227e-5
-1.496, 9.052e-5
-1.495, 8.898e-5
-1.494, 8.746e-5
-1.493, 8.593e-5
-1.492, 8.441e-5
-1.491, 8.290e-5
-1.490, 8.137e-5
-1.489, 7.993e-5
-1.488, 7.844e-5
-1.487, 7.704e-5
-1.486, 7.570e-5
-1.485, 7.443e-5
-1.484, 7.320e-5
-1.483, 7.198e-5
-1.482, 7.070e-5
-1.481, 6.936e-5
-1.480, 6.815e-5
-1.479, 6.685e-5
-1.478, 6.526e-5
-1.477, 6.398e-5
-1.476, 6.273e-5
-1.475, 6.162e-5
-1.474, 6.068e-5
-1.473, 5.983e-5
-1.472, 5.885e-5
-1.471, 5.785e-5
-1.470, 5.677e-5
-1.469, 5.582e-5
-1.468, 5.482e-5
-1.467, 5.383e-5
-1.466, 5.288e-5
-1.465, 5.189e-5
-1.464, 5.104e-5
-1.463, 5.014e-5
-1.462, 4.916e-5
-1.461, 4.823e-5
-1.460, 4.736e-5
-1.459, 4.645e-5
-1.458, 4.558e-5
-1.457, 4.473e-5
-1.456, 4.388e-5
-1.455, 4.308e-5
-1.454, 4.224e-5
-1.453, 4.144e-5
-1.452, 4.065e-5
-1.451, 3.987e-5
-1.450, 3.914e-5
-1.449, 3.831e-5
-1.448, 3.764e-5
-1.447, 3.683e-5
-1.446, 3.620e-5
-1.445, 3.555e-5
-1.444, 3.484e-5
-1.443, 3.421e-5
-1.442, 3.353e-5
-1.441, 3.287e-5
-1.440, 3.229e-5
-1.439, 3.163e-5
-1.438, 3.109e-5
-1.437, 3.050e-5
-1.436, 2.988e-5
-1.435, 2.933e-5
-1.434, 2.867e-5
-1.433, 2.814e-5
-1.432, 2.761e-5
-1.431, 2.716e-5
-1.430, 2.672e-5
-1.429, 2.616e-5
-1.428, 2.563e-5
-1.427, 2.516e-5
-1.426, 2.460e-5
-1.425, 2.413e-5
-1.424, 2.345e-5
-1.423, 2.290e-5
-1.422, 2.234e-5
-1.421, 2.190e-5
-1.420, 2.152e-5
-1.419, 2.133e-5
-1.418, 2.088e-5
-1.417, 2.050e-5
-1.416, 2.008e-5
-1.415, 1.962e-5
-1.414, 1.927e-5
-1.413, 1.887e-5
-1.412, 1.849e-5
-1.411, 1.814e-5
-1.410, 1.775e-5
-1.409, 1.738e-5
-1.408, 1.703e-5
-1.407, 1.669e-5
-1.406, 1.627e-5
-1.405, 1.600e-5
-1.404, 1.573e-5
-1.403, 1.540e-5
-1.402, 1.505e-5
-1.401, 1.475e-5
-1.400, 1.441e-5
-1.399, 1.420e-5
-1.398, 1.388e-5
-1.397, 1.360e-5
-1.396, 1.327e-5
-1.395, 1.300e-5
-1.394, 1.272e-5
-1.393, 1.242e-5
-1.392, 1.210e-5
-1.391, 1.195e-5
-1.390, 1.165e-5
-1.389, 1.143e-5
-1.388, 1.118e-5
-1.387, 1.090e-5
-1.386, 1.066e-5
-1.385, 1.048e-5
-1.384, 1.025e-5
-1.383, 9.965e-6
-1.382, 9.703e-6
-1.381, 9.526e-6
-1.380, 9.358e-6
-1.379, 9.079e-6
-1.378, 8.965e-6
-1.377, 8.682e-6
-1.376, 8.525e-6
-1.375, 8.352e-6
-1.374, 8.132e-6
-1.373, 8.017e-6
-1.372, 7.793e-6
-1.371, 7.620e-6
-1.370, 7.461e-6
-1.369, 7.237e-6
-1.368, 7.059e-6
-1.367, 6.874e-6
-1.366, 6.674e-6
-1.365, 6.574e-6
-1.364, 6.395e-6
-1.363, 6.225e-6
-1.362, 6.107e-6
-1.361, 5.873e-6
-1.360, 5.814e-6
-1.359, 5.631e-6
-1.358, 5.521e-6
-1.357, 5.385e-6
-1.356, 5.202e-6
-1.355, 5.015e-6
-1.354, 4.907e-6
-1.353, 4.786e-6
-1.352, 4.680e-6
-1.351, 4.585e-6
-1.350, 4.443e-6
-1.349, 4.344e-6
-1.348, 4.212e-6
-1.347, 4.051e-6
-1.346, 3.986e-6
-1.345, 3.858e-6
-1.344, 3.732e-6
-1.343, 3.688e-6
-1.342, 3.488e-6
-1.341, 3.436e-6
-1.340, 3.287e-6
-1.339, 3.168e-6
-1.338, 3.115e-6
-1.337, 3.005e-6
-1.336, 2.916e-6
-1.335, 2.801e-6
-1.334, 2.731e-6
-1.333, 2.711e-6
-1.332, 2.610e-6
-1.331, 2.487e-6
-1.330, 2.364e-6
-1.329, 2.312e-6
-1.328, 2.251e-6
-1.327, 2.147e-6
-1.326, 2.063e-6
-1.325, 1.991e-6
-1.324, 1.934e-6
-1.323, 1.868e-6
-1.322, 1.789e-6
-1.321, 1.737e-6
-1.320, 1.628e-6
-1.319, 1.634e-6
-1.318, 1.534e-6
-1.317, 1.394e-6
-1.316, 1.365e-6
-1.315, 1.271e-6
-1.314, 1.233e-6
-1.313, 1.162e-6
-1.312, 1.096e-6
-1.311, 1.039e-6
-1.310, 1.029e-6
-1.309, 9.410e-7
-1.308, 9.321e-7
-1.307, 8.473e-7
-1.306, 8.177e-7
-1.305, 7.338e-7
-1.304, 7.279e-7
-1.303, 6.539e-7
-1.302, 5.631e-7
-1.301, 5.178e-7
-1.300, 4.497e-7
-1.299, 4.704e-7
-1.298, 4.398e-7
-1.297, 3.431e-7
-1.296, 3.806e-7
-1.295, 2.790e-7
-1.294, 2.968e-7
-1.293, 2.238e-7
-1.292, 1.803e-7
-1.291, 1.300e-7
-1.290, 8.958e-8
-1.289, 1.164e-8
-1.288, 3.927e-8
-1.287, -5.249e-8
-1.286, -1.285e-7
-1.285, -8.899e-8
-1.284, -1.245e-7
-1.283, -1.965e-7
-1.282, -1.896e-7
-1.281, -2.330e-7
-1.280, -2.952e-7
-1.279, -3.021e-7
-1.278, -3.889e-7
-1.277, -4.185e-7
-1.276, -4.570e-7
-1.275, -4.915e-7
-1.274, -4.511e-7
-1.273, -4.817e-7
-1.272, -5.339e-7
-1.271, -5.428e-7
-1.270, -5.724e-7
-1.269, -5.152e-7
-1.268, -6.168e-7
-1.267, -6.652e-7
-1.266, -6.415e-7
-1.265, -7.234e-7
-1.264, -7.451e-7
-1.263, -7.727e-7
-1.262, -8.043e-7
-1.261, -7.500e-7
-1.260, -7.974e-7
-1.259, -8.280e-7
-1.258, -8.358e-7
-1.257, -8.684e-7
-1.256, -8.773e-7
-1.255, -1.058e-6
-1.254, -1.247e-6
-1.253, -1.316e-6
-1.252, -1.371e-6
-1.251, -1.384e-6
-1.250, -1.373e-6
-1.249, -1.234e-6
-1.248, -1.062e-6
-1.247, -1.085e-6
-1.246, -1.040e-6
-1.245, -1.083e-6
-1.244, -1.123e-6
-1.243, -1.092e-6
-1.242, -1.166e-6
-1.241, -1.105e-6
-1.240, -1.124e-6
-1.239, -1.114e-6
-1.238, -1.188e-6
-1.237, -1.169e-6
-1.236, -1.193e-6
-1.235, -1.231e-6
-1.234, -1.269e-6
-1.233, -1.244e-6
-1.232, -1.258e-6
-1.231, -1.303e-6
-1.230, -1.225e-6
-1.229, -1.322e-6
-1.228, -1.279e-6
-1.227, -1.319e-6
-1.226, -1.335e-6
-1.225, -1.343e-6
-1.224, -1.335e-6
-1.223, -1.343e-6
-1.222, -1.335e-6
-1.221, -1.386e-6
-1.220, -1.374e-6
-1.219, -1.392e-6
-1.218, -1.405e-6
-1.217, -1.398e-6
-1.216, -1.444e-6
-1.215, -1.410e-6
-1.214, -1.410e-6
-1.213, -1.413e-6
-1.212, -1.399e-6
-1.211, -1.449e-6
-1.210, -1.450e-6
-1.209, -1.483e-6
-1.208, -1.475e-6
-1.207, -1.500e-6
-1.206, -1.511e-6
-1.205, -1.469e-6
-1.204, -1.525e-6
-1.203, -1.505e-6
-1.202, -1.505e-6
-1.201, -1.524e-6
-1.200, -1.492e-6
-1.199, -1.547e-6
-1.198, -1.483e-6
-1.197, -1.549e-6
-1.196, -1.573e-6
-1.195, -1.551e-6
-1.194, -1.577e-6
-1.193, -1.649e-6
-1.192, -1.549e-6
-1.191, -1.605e-6
-1.190, -1.635e-6
-1.189, -1.568e-6
-1.188, -1.612e-6
-1.187, -1.620e-6
-1.186, -1.624e-6
-1.185, -1.631e-6
-1.184, -1.594e-6
-1.183, -1.616e-6
-1.182, -1.656e-6
-1.181, -1.668e-6
-1.180, -1.686e-6
-1.179, -1.728e-6
-1.178, -1.685e-6
-1.177, -1.654e-6
-1.176, -1.696e-6
-1.175, -1.673e-6
-1.174, -1.696e-6
-1.173, -1.651e-6
-1.172, -1.680e-6
-1.171, -2.015e-6
-1.170, -2.079e-6
-1.169, -2.139e-6
-1.168, -2.074e-6
-1.167, -1.718e-6
-1.166, -1.755e-6
-1.165, -1.673e-6
-1.164, -1.734e-6
-1.163, -1.740e-6
-1.162, -1.693e-6
-1.161, -1.729e-6
-1.160, -1.731e-6
-1.159, -1.700e-6
-1.158, -1.758e-6
-1.157, -1.715e-6
-1.156, -1.770e-6
-1.155, -1.809e-6
-1.154, -1.771e-6
-1.153, -1.814e-6
-1.152, -1.794e-6
-1.151, -1.842e-6
-1.150, -1.749e-6
-1.149, -1.758e-6
-1.148, -1.779e-6
-1.147, -1.812e-6
-1.146, -1.822e-6
-1.145, -1.783e-6
-1.144, -1.785e-6
-1.143, -1.754e-6
-1.142, -1.806e-6
-1.141, -1.878e-6
-1.140, -1.772e-6
-1.139, -1.895e-6
-1.138, -1.878e-6
-1.137, -1.829e-6
-1.136, -1.912e-6
-1.135, -1.849e-6
-1.134, -1.840e-6
-1.133, -1.848e-6
-1.132, -1.848e-6
-1.131, -1.855e-6
-1.130, -1.905e-6
-1.129, -1.875e-6
-1.128, -1.939e-6
-1.127, -1.940e-6
-1.126, -1.965e-6
-1.125, -1.944e-6
-1.124, -1.906e-6
-1.123, -1.939e-6
-1.122, -1.935e-6
-1.121, -1.940e-6
-1.120, -1.965e-6
-1.119, -1.908e-6
-1.118, -1.963e-6
-1.117, -1.970e-6
-1.116, -2.033e-6
-1.115, -1.965e-6
-1.114, -2.009e-6
-1.113, -2.068e-6
-1.112, -2.032e-6
-1.111, -2.045e-6
-1.110, -2.034e-6
-1.109, -2.020e-6
-1.108, -2.074e-6
-1.107, -2.027e-6
-1.106, -2.057e-6
-1.105, -2.077e-6
-1.104, -2.035e-6
-1.103, -2.102e-6
-1.102, -2.123e-6
-1.101, -2.086e-6
-1.100, -2.145e-6
-1.099, -2.144e-6
-1.098, -2.125e-6
-1.097, -2.152e-6
-1.096, -2.124e-6
-1.095, -2.112e-6
-1.094, -2.171e-6
-1.093, -2.163e-6
-1.092, -2.175e-6
-1.091, -2.284e-6
-1.090, -2.221e-6
-1.089, -2.209e-6
-1.088, -2.260e-6
-1.087, -2.242e-6
-1.086, -2.280e-6
-1.085, -2.302e-6
-1.084, -2.255e-6
-1.083, -2.294e-6
-1.082, -2.312e-6
-1.081, -2.301e-6
-1.080, -2.354e-6
-1.079, -2.338e-6
-1.078, -2.401e-6
-1.077, -2.438e-6
-1.076, -2.417e-6
-1.075, -2.478e-6
-1.074, -2.486e-6
-1.073, -2.505e-6
-1.072, -2.503e-6
-1.071, -2.553e-6
-1.070, -2.529e-6
-1.069, -2.547e-6
-1.068, -2.554e-6
-1.067, -2.575e-6
-1.066, -2.573e-6
-1.065, -2.652e-6
-1.064, -2.644e-6
-1.063, -2.705e-6
-1.062, -2.718e-6
-1.061, -2.714e-6
-1.060, -2.722e-6
-1.059, -2.735e-6
-1.058, -2.773e-6
-1.057, -2.795e-6
-1.056, -2.788e-6
-1.055, -2.831e-6
-1.054, -2.842e-6
-1.053, -2.852e-6
-1.052, -2.988e-6
-1.051, -3.000e-6
-1.050, -2.982e-6
-1.049, -3.046e-6
-1.048, -3.122e-6
-1.047, -3.066e-6
-1.046, -3.114e-6
-1.045, -3.119e-6
-1.044, -3.161e-6
-1.043, -3.224e-6
-1.042, -3.238e-6
-1.041, -3.280e-6
-1.040, -3.276e-6
-1.039, -3.326e-6
-1.038, -3.378e-6
-1.037, -3.442e-6
-1.036, -3.443e-6
-1.035, -3.498e-6
-1.034, -3.535e-6
-1.033, -3.540e-6
-1.032, -3.608e-6
-1.031, -3.600e-6
-1.030, -3.706e-6
-1.029, -3.695e-6
-1.028, -3.727e-6
-1.027, -3.823e-6
-1.026, -3.911e-6
-1.025, -3.905e-6
-1.024, -3.968e-6
-1.023, -4.061e-6
-1.022, -4.080e-6
-1.021, -4.124e-6
-1.020, -4.160e-6
-1.019, -4.189e-6
-1.018, -4.247e-6
-1.017, -4.311e-6
-1.016, -4.348e-6
-1.015, -4.409e-6
-1.014, -4.501e-6
-1.013, -4.520e-6
-1.012, -4.655e-6
-1.011, -4.696e-6
-1.010, -4.718e-6
-1.009, -4.755e-6
-1.008, -4.827e-6
-1.007, -4.888e-6
-1.006, -5.035e-6
-1.005, -5.004e-6
-1.004, -5.225e-6
-1.003, -5.510e-6
-1.002, -5.615e-6
-1.001, -5.750e-6
