Aug. 18, 2024   14:10:02
Linear Sweep Voltammetry
File: c:/users/guazh/data/20240813_batch_94_500/2024-08-15-exp122\regeneratedgce-2024-08-18t14_07_00-lsvinkoh\regeneratedgce_lsv_50mvs_efin_-1700mv.bin
Data Source:  Experiment
Instrument Model:  CHI760E
Header: LSV ran at 50 mVs with Efin at -1700mV
Note: 

Init E (V) = -0.6
Final E (V) = -1.7
Scan Rate (V/s) = 0.05
Sample Interval (V) = 0.001
Quiet Time (sec) = 2
Sensitivity (A/V) = 1e-4
Comp R (ohm) = 1.6

Results:

Channel 1:

Potential/V, Current/A

-0.600, 3.148e-6
-0.601, 3.302e-6
-0.602, 3.347e-6
-0.603, 3.365e-6
-0.604, 3.376e-6
-0.605, 3.384e-6
-0.606, 3.387e-6
-0.607, 3.392e-6
-0.608, 3.396e-6
-0.609, 3.401e-6
-0.610, 3.400e-6
-0.611, 3.402e-6
-0.612, 3.404e-6
-0.613, 3.405e-6
-0.614, 3.405e-6
-0.615, 3.407e-6
-0.616, 3.408e-6
-0.617, 3.408e-6
-0.618, 3.408e-6
-0.619, 3.411e-6
-0.620, 3.408e-6
-0.621, 3.409e-6
-0.622, 3.412e-6
-0.623, 3.409e-6
-0.624, 3.406e-6
-0.625, 3.411e-6
-0.626, 3.407e-6
-0.627, 3.409e-6
-0.628, 3.406e-6
-0.629, 3.408e-6
-0.630, 3.410e-6
-0.631, 3.408e-6
-0.632, 3.410e-6
-0.633, 3.409e-6
-0.634, 3.407e-6
-0.635, 3.411e-6
-0.636, 3.410e-6
-0.637, 3.411e-6
-0.638, 3.412e-6
-0.639, 3.409e-6
-0.640, 3.411e-6
-0.641, 3.412e-6
-0.642, 3.409e-6
-0.643, 3.413e-6
-0.644, 3.414e-6
-0.645, 3.412e-6
-0.646, 3.415e-6
-0.647, 3.416e-6
-0.648, 3.415e-6
-0.649, 3.414e-6
-0.650, 3.418e-6
-0.651, 3.419e-6
-0.652, 3.421e-6
-0.653, 3.423e-6
-0.654, 3.422e-6
-0.655, 3.424e-6
-0.656, 3.423e-6
-0.657, 3.423e-6
-0.658, 3.426e-6
-0.659, 3.427e-6
-0.660, 3.429e-6
-0.661, 3.425e-6
-0.662, 3.432e-6
-0.663, 3.429e-6
-0.664, 3.429e-6
-0.665, 3.435e-6
-0.666, 3.437e-6
-0.667, 3.437e-6
-0.668, 3.438e-6
-0.669, 3.440e-6
-0.670, 3.441e-6
-0.671, 3.443e-6
-0.672, 3.443e-6
-0.673, 3.444e-6
-0.674, 3.445e-6
-0.675, 3.449e-6
-0.676, 3.450e-6
-0.677, 3.452e-6
-0.678, 3.455e-6
-0.679, 3.454e-6
-0.680, 3.457e-6
-0.681, 3.460e-6
-0.682, 3.462e-6
-0.683, 3.462e-6
-0.684, 3.465e-6
-0.685, 3.467e-6
-0.686, 3.468e-6
-0.687, 3.469e-6
-0.688, 3.470e-6
-0.689, 3.473e-6
-0.690, 3.473e-6
-0.691, 3.478e-6
-0.692, 3.481e-6
-0.693, 3.483e-6
-0.694, 3.481e-6
-0.695, 3.485e-6
-0.696, 3.487e-6
-0.697, 3.490e-6
-0.698, 3.491e-6
-0.699, 3.493e-6
-0.700, 3.497e-6
-0.701, 3.496e-6
-0.702, 3.499e-6
-0.703, 3.499e-6
-0.704, 3.503e-6
-0.705, 3.506e-6
-0.706, 3.507e-6
-0.707, 3.508e-6
-0.708, 3.514e-6
-0.709, 3.515e-6
-0.710, 3.519e-6
-0.711, 3.517e-6
-0.712, 3.518e-6
-0.713, 3.522e-6
-0.714, 3.524e-6
-0.715, 3.528e-6
-0.716, 3.529e-6
-0.717, 3.532e-6
-0.718, 3.537e-6
-0.719, 3.539e-6
-0.720, 3.540e-6
-0.721, 3.541e-6
-0.722, 3.543e-6
-0.723, 3.544e-6
-0.724, 3.547e-6
-0.725, 3.547e-6
-0.726, 3.550e-6
-0.727, 3.551e-6
-0.728, 3.557e-6
-0.729, 3.560e-6
-0.730, 3.560e-6
-0.731, 3.560e-6
-0.732, 3.563e-6
-0.733, 3.566e-6
-0.734, 3.570e-6
-0.735, 3.573e-6
-0.736, 3.576e-6
-0.737, 3.577e-6
-0.738, 3.577e-6
-0.739, 3.580e-6
-0.740, 3.583e-6
-0.741, 3.585e-6
-0.742, 3.588e-6
-0.743, 3.593e-6
-0.744, 3.592e-6
-0.745, 3.596e-6
-0.746, 3.597e-6
-0.747, 3.599e-6
-0.748, 3.601e-6
-0.749, 3.603e-6
-0.750, 3.608e-6
-0.751, 3.611e-6
-0.752, 3.613e-6
-0.753, 3.613e-6
-0.754, 3.617e-6
-0.755, 3.623e-6
-0.756, 3.624e-6
-0.757, 3.622e-6
-0.758, 3.628e-6
-0.759, 3.629e-6
-0.760, 3.631e-6
-0.761, 3.633e-6
-0.762, 3.634e-6
-0.763, 3.637e-6
-0.764, 3.640e-6
-0.765, 3.646e-6
-0.766, 3.646e-6
-0.767, 3.645e-6
-0.768, 3.652e-6
-0.769, 3.657e-6
-0.770, 3.656e-6
-0.771, 3.656e-6
-0.772, 3.663e-6
-0.773, 3.662e-6
-0.774, 3.664e-6
-0.775, 3.665e-6
-0.776, 3.670e-6
-0.777, 3.672e-6
-0.778, 3.675e-6
-0.779, 3.678e-6
-0.780, 3.679e-6
-0.781, 3.681e-6
-0.782, 3.687e-6
-0.783, 3.690e-6
-0.784, 3.691e-6
-0.785, 3.692e-6
-0.786, 3.693e-6
-0.787, 3.695e-6
-0.788, 3.699e-6
-0.789, 3.701e-6
-0.790, 3.706e-6
-0.791, 3.704e-6
-0.792, 3.709e-6
-0.793, 3.713e-6
-0.794, 3.717e-6
-0.795, 3.718e-6
-0.796, 3.718e-6
-0.797, 3.720e-6
-0.798, 3.726e-6
-0.799, 3.727e-6
-0.800, 3.733e-6
-0.801, 3.737e-6
-0.802, 3.734e-6
-0.803, 3.739e-6
-0.804, 3.742e-6
-0.805, 3.745e-6
-0.806, 3.748e-6
-0.807, 3.746e-6
-0.808, 3.752e-6
-0.809, 3.757e-6
-0.810, 3.757e-6
-0.811, 3.762e-6
-0.812, 3.764e-6
-0.813, 3.766e-6
-0.814, 3.768e-6
-0.815, 3.771e-6
-0.816, 3.782e-6
-0.817, 3.784e-6
-0.818, 3.782e-6
-0.819, 3.793e-6
-0.820, 3.797e-6
-0.821, 3.795e-6
-0.822, 3.800e-6
-0.823, 3.804e-6
-0.824, 3.804e-6
-0.825, 3.812e-6
-0.826, 3.811e-6
-0.827, 3.812e-6
-0.828, 3.819e-6
-0.829, 3.821e-6
-0.830, 3.827e-6
-0.831, 3.833e-6
-0.832, 3.831e-6
-0.833, 3.837e-6
-0.834, 3.838e-6
-0.835, 3.842e-6
-0.836, 3.846e-6
-0.837, 3.849e-6
-0.838, 3.855e-6
-0.839, 3.862e-6
-0.840, 3.861e-6
-0.841, 3.864e-6
-0.842, 3.869e-6
-0.843, 3.873e-6
-0.844, 3.876e-6
-0.845, 3.884e-6
-0.846, 3.889e-6
-0.847, 3.890e-6
-0.848, 3.891e-6
-0.849, 3.898e-6
-0.850, 3.899e-6
-0.851, 3.907e-6
-0.852, 3.907e-6
-0.853, 3.908e-6
-0.854, 3.919e-6
-0.855, 3.921e-6
-0.856, 3.925e-6
-0.857, 3.927e-6
-0.858, 3.933e-6
-0.859, 3.937e-6
-0.860, 3.940e-6
-0.861, 3.945e-6
-0.862, 3.950e-6
-0.863, 3.955e-6
-0.864, 3.957e-6
-0.865, 3.962e-6
-0.866, 3.964e-6
-0.867, 3.972e-6
-0.868, 3.976e-6
-0.869, 3.977e-6
-0.870, 3.987e-6
-0.871, 3.991e-6
-0.872, 3.996e-6
-0.873, 4.002e-6
-0.874, 4.003e-6
-0.875, 4.010e-6
-0.876, 4.013e-6
-0.877, 4.016e-6
-0.878, 4.023e-6
-0.879, 4.028e-6
-0.880, 4.034e-6
-0.881, 4.038e-6
-0.882, 4.042e-6
-0.883, 4.048e-6
-0.884, 4.054e-6
-0.885, 4.055e-6
-0.886, 4.061e-6
-0.887, 4.066e-6
-0.888, 4.075e-6
-0.889, 4.078e-6
-0.890, 4.084e-6
-0.891, 4.091e-6
-0.892, 4.096e-6
-0.893, 4.097e-6
-0.894, 4.102e-6
-0.895, 4.103e-6
-0.896, 4.120e-6
-0.897, 4.122e-6
-0.898, 4.128e-6
-0.899, 4.136e-6
-0.900, 4.140e-6
-0.901, 4.146e-6
-0.902, 4.151e-6
-0.903, 4.159e-6
-0.904, 4.162e-6
-0.905, 4.167e-6
-0.906, 4.173e-6
-0.907, 4.176e-6
-0.908, 4.183e-6
-0.909, 4.188e-6
-0.910, 4.196e-6
-0.911, 4.202e-6
-0.912, 4.209e-6
-0.913, 4.212e-6
-0.914, 4.216e-6
-0.915, 4.225e-6
-0.916, 4.226e-6
-0.917, 4.236e-6
-0.918, 4.241e-6
-0.919, 4.245e-6
-0.920, 4.249e-6
-0.921, 4.255e-6
-0.922, 4.260e-6
-0.923, 4.266e-6
-0.924, 4.274e-6
-0.925, 4.277e-6
-0.926, 4.288e-6
-0.927, 4.290e-6
-0.928, 4.299e-6
-0.929, 4.305e-6
-0.930, 4.311e-6
-0.931, 4.317e-6
-0.932, 4.321e-6
-0.933, 4.327e-6
-0.934, 4.333e-6
-0.935, 4.340e-6
-0.936, 4.345e-6
-0.937, 4.350e-6
-0.938, 4.357e-6
-0.939, 4.364e-6
-0.940, 4.369e-6
-0.941, 4.371e-6
-0.942, 4.376e-6
-0.943, 4.386e-6
-0.944, 4.390e-6
-0.945, 4.397e-6
-0.946, 4.401e-6
-0.947, 4.405e-6
-0.948, 4.414e-6
-0.949, 4.418e-6
-0.950, 4.423e-6
-0.951, 4.426e-6
-0.952, 4.428e-6
-0.953, 4.438e-6
-0.954, 4.443e-6
-0.955, 4.447e-6
-0.956, 4.453e-6
-0.957, 4.458e-6
-0.958, 4.465e-6
-0.959, 4.466e-6
-0.960, 4.475e-6
-0.961, 4.481e-6
-0.962, 4.488e-6
-0.963, 4.494e-6
-0.964, 4.500e-6
-0.965, 4.504e-6
-0.966, 4.510e-6
-0.967, 4.516e-6
-0.968, 4.523e-6
-0.969, 4.526e-6
-0.970, 4.529e-6
-0.971, 4.534e-6
-0.972, 4.543e-6
-0.973, 4.550e-6
-0.974, 4.550e-6
-0.975, 4.555e-6
-0.976, 4.564e-6
-0.977, 4.568e-6
-0.978, 4.574e-6
-0.979, 4.579e-6
-0.980, 4.581e-6
-0.981, 4.587e-6
-0.982, 4.594e-6
-0.983, 4.598e-6
-0.984, 4.602e-6
-0.985, 4.609e-6
-0.986, 4.617e-6
-0.987, 4.622e-6
-0.988, 4.626e-6
-0.989, 4.628e-6
-0.990, 4.639e-6
-0.991, 4.643e-6
-0.992, 4.643e-6
-0.993, 4.651e-6
-0.994, 4.653e-6
-0.995, 4.662e-6
-0.996, 4.666e-6
-0.997, 4.670e-6
-0.998, 4.677e-6
-0.999, 4.684e-6
-1.000, 4.691e-6
-1.001, 4.696e-6
-1.002, 4.699e-6
-1.003, 4.705e-6
-1.004, 4.708e-6
-1.005, 4.711e-6
-1.006, 4.719e-6
-1.007, 4.723e-6
-1.008, 4.729e-6
-1.009, 4.736e-6
-1.010, 4.743e-6
-1.011, 4.749e-6
-1.012, 4.754e-6
-1.013, 4.757e-6
-1.014, 4.759e-6
-1.015, 4.767e-6
-1.016, 4.773e-6
-1.017, 4.778e-6
-1.018, 4.782e-6
-1.019, 4.789e-6
-1.020, 4.796e-6
-1.021, 4.801e-6
-1.022, 4.806e-6
-1.023, 4.804e-6
-1.024, 4.814e-6
-1.025, 4.822e-6
-1.026, 4.827e-6
-1.027, 4.831e-6
-1.028, 4.838e-6
-1.029, 4.843e-6
-1.030, 4.850e-6
-1.031, 4.855e-6
-1.032, 4.857e-6
-1.033, 4.864e-6
-1.034, 4.868e-6
-1.035, 4.876e-6
-1.036, 4.881e-6
-1.037, 4.883e-6
-1.038, 4.893e-6
-1.039, 4.896e-6
-1.040, 4.901e-6
-1.041, 4.903e-6
-1.042, 4.909e-6
-1.043, 4.914e-6
-1.044, 4.918e-6
-1.045, 4.928e-6
-1.046, 4.931e-6
-1.047, 4.934e-6
-1.048, 4.947e-6
-1.049, 4.950e-6
-1.050, 4.954e-6
-1.051, 4.959e-6
-1.052, 4.959e-6
-1.053, 4.969e-6
-1.054, 4.977e-6
-1.055, 4.981e-6
-1.056, 4.987e-6
-1.057, 4.993e-6
-1.058, 4.999e-6
-1.059, 5.002e-6
-1.060, 5.007e-6
-1.061, 5.016e-6
-1.062, 5.021e-6
-1.063, 5.026e-6
-1.064, 5.027e-6
-1.065, 5.035e-6
-1.066, 5.039e-6
-1.067, 5.040e-6
-1.068, 5.049e-6
-1.069, 5.052e-6
-1.070, 5.057e-6
-1.071, 5.065e-6
-1.072, 5.069e-6
-1.073, 5.073e-6
-1.074, 5.076e-6
-1.075, 5.086e-6
-1.076, 5.092e-6
-1.077, 5.099e-6
-1.078, 5.105e-6
-1.079, 5.108e-6
-1.080, 5.115e-6
-1.081, 5.122e-6
-1.082, 5.123e-6
-1.083, 5.130e-6
-1.084, 5.135e-6
-1.085, 5.139e-6
-1.086, 5.147e-6
-1.087, 5.147e-6
-1.088, 5.155e-6
-1.089, 5.164e-6
-1.090, 5.167e-6
-1.091, 5.175e-6
-1.092, 5.181e-6
-1.093, 5.180e-6
-1.094, 5.187e-6
-1.095, 5.189e-6
-1.096, 5.197e-6
-1.097, 5.202e-6
-1.098, 5.211e-6
-1.099, 5.215e-6
-1.100, 5.217e-6
-1.101, 5.226e-6
-1.102, 5.230e-6
-1.103, 5.235e-6
-1.104, 5.241e-6
-1.105, 5.246e-6
-1.106, 5.250e-6
-1.107, 5.253e-6
-1.108, 5.264e-6
-1.109, 5.266e-6
-1.110, 5.272e-6
-1.111, 5.278e-6
-1.112, 5.281e-6
-1.113, 5.289e-6
-1.114, 5.292e-6
-1.115, 5.300e-6
-1.116, 5.306e-6
-1.117, 5.313e-6
-1.118, 5.316e-6
-1.119, 5.322e-6
-1.120, 5.327e-6
-1.121, 5.336e-6
-1.122, 5.338e-6
-1.123, 5.341e-6
-1.124, 5.345e-6
-1.125, 5.351e-6
-1.126, 5.357e-6
-1.127, 5.359e-6
-1.128, 5.365e-6
-1.129, 5.371e-6
-1.130, 5.380e-6
-1.131, 5.390e-6
-1.132, 5.391e-6
-1.133, 5.390e-6
-1.134, 5.396e-6
-1.135, 5.403e-6
-1.136, 5.409e-6
-1.137, 5.414e-6
-1.138, 5.420e-6
-1.139, 5.425e-6
-1.140, 5.428e-6
-1.141, 5.432e-6
-1.142, 5.441e-6
-1.143, 5.441e-6
-1.144, 5.452e-6
-1.145, 5.459e-6
-1.146, 5.462e-6
-1.147, 5.467e-6
-1.148, 5.472e-6
-1.149, 5.479e-6
-1.150, 5.486e-6
-1.151, 5.486e-6
-1.152, 5.497e-6
-1.153, 5.505e-6
-1.154, 5.507e-6
-1.155, 5.512e-6
-1.156, 5.513e-6
-1.157, 5.526e-6
-1.158, 5.531e-6
-1.159, 5.537e-6
-1.160, 5.538e-6
-1.161, 5.545e-6
-1.162, 5.549e-6
-1.163, 5.557e-6
-1.164, 5.565e-6
-1.165, 5.568e-6
-1.166, 5.571e-6
-1.167, 5.579e-6
-1.168, 5.585e-6
-1.169, 5.593e-6
-1.170, 5.598e-6
-1.171, 5.605e-6
-1.172, 5.609e-6
-1.173, 5.614e-6
-1.174, 5.621e-6
-1.175, 5.622e-6
-1.176, 5.634e-6
-1.177, 5.644e-6
-1.178, 5.651e-6
-1.179, 5.650e-6
-1.180, 5.657e-6
-1.181, 5.666e-6
-1.182, 5.666e-6
-1.183, 5.674e-6
-1.184, 5.679e-6
-1.185, 5.683e-6
-1.186, 5.684e-6
-1.187, 5.695e-6
-1.188, 5.702e-6
-1.189, 5.707e-6
-1.190, 5.716e-6
-1.191, 5.723e-6
-1.192, 5.726e-6
-1.193, 5.732e-6
-1.194, 5.737e-6
-1.195, 5.742e-6
-1.196, 5.751e-6
-1.197, 5.760e-6
-1.198, 5.772e-6
-1.199, 5.773e-6
-1.200, 5.780e-6
-1.201, 5.780e-6
-1.202, 5.786e-6
-1.203, 5.796e-6
-1.204, 5.801e-6
-1.205, 5.805e-6
-1.206, 5.810e-6
-1.207, 5.819e-6
-1.208, 5.826e-6
-1.209, 5.835e-6
-1.210, 5.839e-6
-1.211, 5.846e-6
-1.212, 5.848e-6
-1.213, 5.854e-6
-1.214, 5.858e-6
-1.215, 5.867e-6
-1.216, 5.881e-6
-1.217, 5.883e-6
-1.218, 5.887e-6
-1.219, 5.904e-6
-1.220, 5.910e-6
-1.221, 5.913e-6
-1.222, 5.919e-6
-1.223, 5.921e-6
-1.224, 5.927e-6
-1.225, 5.936e-6
-1.226, 5.940e-6
-1.227, 5.950e-6
-1.228, 5.958e-6
-1.229, 5.977e-6
-1.230, 5.981e-6
-1.231, 5.980e-6
-1.232, 5.981e-6
-1.233, 5.997e-6
-1.234, 6.003e-6
-1.235, 6.011e-6
-1.236, 6.021e-6
-1.237, 6.027e-6
-1.238, 6.040e-6
-1.239, 6.038e-6
-1.240, 6.052e-6
-1.241, 6.059e-6
-1.242, 6.071e-6
-1.243, 6.076e-6
-1.244, 6.078e-6
-1.245, 6.090e-6
-1.246, 6.103e-6
-1.247, 6.101e-6
-1.248, 6.114e-6
-1.249, 6.132e-6
-1.250, 6.141e-6
-1.251, 6.147e-6
-1.252, 6.157e-6
-1.253, 6.165e-6
-1.254, 6.172e-6
-1.255, 6.187e-6
-1.256, 6.191e-6
-1.257, 6.193e-6
-1.258, 6.203e-6
-1.259, 6.213e-6
-1.260, 6.220e-6
-1.261, 6.233e-6
-1.262, 6.242e-6
-1.263, 6.252e-6
-1.264, 6.264e-6
-1.265, 6.276e-6
-1.266, 6.286e-6
-1.267, 6.295e-6
-1.268, 6.302e-6
-1.269, 6.316e-6
-1.270, 6.328e-6
-1.271, 6.341e-6
-1.272, 6.344e-6
-1.273, 6.357e-6
-1.274, 6.371e-6
-1.275, 6.380e-6
-1.276, 6.392e-6
-1.277, 6.404e-6
-1.278, 6.421e-6
-1.279, 6.433e-6
-1.280, 6.437e-6
-1.281, 6.447e-6
-1.282, 6.455e-6
-1.283, 6.480e-6
-1.284, 6.490e-6
-1.285, 6.503e-6
-1.286, 6.517e-6
-1.287, 6.524e-6
-1.288, 6.531e-6
-1.289, 6.544e-6
-1.290, 6.557e-6
-1.291, 6.576e-6
-1.292, 6.596e-6
-1.293, 6.609e-6
-1.294, 6.622e-6
-1.295, 6.640e-6
-1.296, 6.652e-6
-1.297, 6.664e-6
-1.298, 6.681e-6
-1.299, 6.698e-6
-1.300, 6.713e-6
-1.301, 6.727e-6
-1.302, 6.746e-6
-1.303, 6.760e-6
-1.304, 6.774e-6
-1.305, 6.792e-6
-1.306, 6.811e-6
-1.307, 6.828e-6
-1.308, 6.847e-6
-1.309, 6.864e-6
-1.310, 6.874e-6
-1.311, 6.895e-6
-1.312, 6.919e-6
-1.313, 6.939e-6
-1.314, 6.956e-6
-1.315, 6.970e-6
-1.316, 6.999e-6
-1.317, 7.017e-6
-1.318, 7.040e-6
-1.319, 7.066e-6
-1.320, 7.082e-6
-1.321, 7.104e-6
-1.322, 7.122e-6
-1.323, 7.154e-6
-1.324, 7.178e-6
-1.325, 7.198e-6
-1.326, 7.229e-6
-1.327, 7.244e-6
-1.328, 7.277e-6
-1.329, 7.302e-6
-1.330, 7.331e-6
-1.331, 7.356e-6
-1.332, 7.388e-6
-1.333, 7.416e-6
-1.334, 7.443e-6
-1.335, 7.469e-6
-1.336, 7.502e-6
-1.337, 7.529e-6
-1.338, 7.564e-6
-1.339, 7.600e-6
-1.340, 7.627e-6
-1.341, 7.654e-6
-1.342, 7.693e-6
-1.343, 7.727e-6
-1.344, 7.759e-6
-1.345, 7.794e-6
-1.346, 7.830e-6
-1.347, 7.868e-6
-1.348, 7.901e-6
-1.349, 7.939e-6
-1.350, 7.979e-6
-1.351, 8.021e-6
-1.352, 8.054e-6
-1.353, 8.101e-6
-1.354, 8.141e-6
-1.355, 8.183e-6
-1.356, 8.231e-6
-1.357, 8.280e-6
-1.358, 8.329e-6
-1.359, 8.364e-6
-1.360, 8.409e-6
-1.361, 8.465e-6
-1.362, 8.509e-6
-1.363, 8.558e-6
-1.364, 8.605e-6
-1.365, 8.654e-6
-1.366, 8.709e-6
-1.367, 8.758e-6
-1.368, 8.808e-6
-1.369, 8.861e-6
-1.370, 8.919e-6
-1.371, 8.973e-6
-1.372, 9.032e-6
-1.373, 9.090e-6
-1.374, 9.154e-6
-1.375, 9.221e-6
-1.376, 9.278e-6
-1.377, 9.344e-6
-1.378, 9.399e-6
-1.379, 9.465e-6
-1.380, 9.533e-6
-1.381, 9.591e-6
-1.382, 9.657e-6
-1.383, 9.727e-6
-1.384, 9.803e-6
-1.385, 9.873e-6
-1.386, 9.933e-6
-1.387, 1.002e-5
-1.388, 1.009e-5
-1.389, 1.017e-5
-1.390, 1.024e-5
-1.391, 1.032e-5
-1.392, 1.039e-5
-1.393, 1.047e-5
-1.394, 1.055e-5
-1.395, 1.064e-5
-1.396, 1.073e-5
-1.397, 1.081e-5
-1.398, 1.090e-5
-1.399, 1.098e-5
-1.400, 1.107e-5
-1.401, 1.117e-5
-1.402, 1.126e-5
-1.403, 1.135e-5
-1.404, 1.145e-5
-1.405, 1.154e-5
-1.406, 1.164e-5
-1.407, 1.173e-5
-1.408, 1.184e-5
-1.409, 1.194e-5
-1.410, 1.203e-5
-1.411, 1.212e-5
-1.412, 1.223e-5
-1.413, 1.233e-5
-1.414, 1.245e-5
-1.415, 1.256e-5
-1.416, 1.267e-5
-1.417, 1.278e-5
-1.418, 1.289e-5
-1.419, 1.301e-5
-1.420, 1.313e-5
-1.421, 1.324e-5
-1.422, 1.337e-5
-1.423, 1.350e-5
-1.424, 1.363e-5
-1.425, 1.375e-5
-1.426, 1.387e-5
-1.427, 1.401e-5
-1.428, 1.413e-5
-1.429, 1.426e-5
-1.430, 1.439e-5
-1.431, 1.453e-5
-1.432, 1.467e-5
-1.433, 1.480e-5
-1.434, 1.495e-5
-1.435, 1.509e-5
-1.436, 1.523e-5
-1.437, 1.537e-5
-1.438, 1.553e-5
-1.439, 1.567e-5
-1.440, 1.582e-5
-1.441, 1.598e-5
-1.442, 1.613e-5
-1.443, 1.629e-5
-1.444, 1.644e-5
-1.445, 1.660e-5
-1.446, 1.676e-5
-1.447, 1.692e-5
-1.448, 1.709e-5
-1.449, 1.725e-5
-1.450, 1.743e-5
-1.451, 1.760e-5
-1.452, 1.777e-5
-1.453, 1.793e-5
-1.454, 1.811e-5
-1.455, 1.828e-5
-1.456, 1.847e-5
-1.457, 1.864e-5
-1.458, 1.882e-5
-1.459, 1.900e-5
-1.460, 1.918e-5
-1.461, 1.936e-5
-1.462, 1.955e-5
-1.463, 1.975e-5
-1.464, 1.993e-5
-1.465, 2.012e-5
-1.466, 2.031e-5
-1.467, 2.051e-5
-1.468, 2.071e-5
-1.469, 2.091e-5
-1.470, 2.111e-5
-1.471, 2.131e-5
-1.472, 2.152e-5
-1.473, 2.173e-5
-1.474, 2.193e-5
-1.475, 2.213e-5
-1.476, 2.235e-5
-1.477, 2.256e-5
-1.478, 2.277e-5
-1.479, 2.299e-5
-1.480, 2.320e-5
-1.481, 2.342e-5
-1.482, 2.364e-5
-1.483, 2.386e-5
-1.484, 2.410e-5
-1.485, 2.433e-5
-1.486, 2.455e-5
-1.487, 2.477e-5
-1.488, 2.500e-5
-1.489, 2.523e-5
-1.490, 2.546e-5
-1.491, 2.570e-5
-1.492, 2.593e-5
-1.493, 2.617e-5
-1.494, 2.640e-5
-1.495, 2.663e-5
-1.496, 2.688e-5
-1.497, 2.711e-5
-1.498, 2.736e-5
-1.499, 2.761e-5
-1.500, 2.785e-5
-1.501, 2.809e-5
-1.502, 2.834e-5
-1.503, 2.860e-5
-1.504, 2.884e-5
-1.505, 2.909e-5
-1.506, 2.934e-5
-1.507, 2.960e-5
-1.508, 2.985e-5
-1.509, 3.011e-5
-1.510, 3.037e-5
-1.511, 3.062e-5
-1.512, 3.088e-5
-1.513, 3.114e-5
-1.514, 3.140e-5
-1.515, 3.166e-5
-1.516, 3.193e-5
-1.517, 3.220e-5
-1.518, 3.246e-5
-1.519, 3.273e-5
-1.520, 3.299e-5
-1.521, 3.326e-5
-1.522, 3.352e-5
-1.523, 3.379e-5
-1.524, 3.406e-5
-1.525, 3.433e-5
-1.526, 3.461e-5
-1.527, 3.488e-5
-1.528, 3.514e-5
-1.529, 3.542e-5
-1.530, 3.569e-5
-1.531, 3.597e-5
-1.532, 3.624e-5
-1.533, 3.651e-5
-1.534, 3.679e-5
-1.535, 3.707e-5
-1.536, 3.735e-5
-1.537, 3.764e-5
-1.538, 3.790e-5
-1.539, 3.819e-5
-1.540, 3.848e-5
-1.541, 3.876e-5
-1.542, 3.903e-5
-1.543, 3.930e-5
-1.544, 3.959e-5
-1.545, 3.989e-5
-1.546, 4.018e-5
-1.547, 4.046e-5
-1.548, 4.074e-5
-1.549, 4.102e-5
-1.550, 4.132e-5
-1.551, 4.160e-5
-1.552, 4.188e-5
-1.553, 4.217e-5
-1.554, 4.245e-5
-1.555, 4.275e-5
-1.556, 4.305e-5
-1.557, 4.332e-5
-1.558, 4.361e-5
-1.559, 4.389e-5
-1.560, 4.419e-5
-1.561, 4.449e-5
-1.562, 4.478e-5
-1.563, 4.507e-5
-1.564, 4.537e-5
-1.565, 4.566e-5
-1.566, 4.597e-5
-1.567, 4.626e-5
-1.568, 4.656e-5
-1.569, 4.686e-5
-1.570, 4.715e-5
-1.571, 4.746e-5
-1.572, 4.775e-5
-1.573, 4.806e-5
-1.574, 4.836e-5
-1.575, 4.866e-5
-1.576, 4.895e-5
-1.577, 4.926e-5
-1.578, 4.956e-5
-1.579, 4.985e-5
-1.580, 5.016e-5
-1.581, 5.046e-5
-1.582, 5.076e-5
-1.583, 5.107e-5
-1.584, 5.137e-5
-1.585, 5.167e-5
-1.586, 5.197e-5
-1.587, 5.228e-5
-1.588, 5.259e-5
-1.589, 5.290e-5
-1.590, 5.321e-5
-1.591, 5.351e-5
-1.592, 5.383e-5
-1.593, 5.414e-5
-1.594, 5.447e-5
-1.595, 5.478e-5
-1.596, 5.511e-5
-1.597, 5.544e-5
-1.598, 5.575e-5
-1.599, 5.602e-5
-1.600, 5.634e-5
-1.601, 5.668e-5
-1.602, 5.701e-5
-1.603, 5.734e-5
-1.604, 5.768e-5
-1.605, 5.803e-5
-1.606, 5.841e-5
-1.607, 5.876e-5
-1.608, 5.911e-5
-1.609, 5.945e-5
-1.610, 5.977e-5
-1.611, 6.014e-5
-1.612, 6.051e-5
-1.613, 6.089e-5
-1.614, 6.126e-5
-1.615, 6.161e-5
-1.616, 6.199e-5
-1.617, 6.239e-5
-1.618, 6.278e-5
-1.619, 6.316e-5
-1.620, 6.353e-5
-1.621, 6.391e-5
-1.622, 6.429e-5
-1.623, 6.468e-5
-1.624, 6.507e-5
-1.625, 6.548e-5
-1.626, 6.587e-5
-1.627, 6.624e-5
-1.628, 6.660e-5
-1.629, 6.695e-5
-1.630, 6.713e-5
-1.631, 6.571e-5
-1.632, 6.545e-5
-1.633, 6.577e-5
-1.634, 6.613e-5
-1.635, 6.652e-5
-1.636, 6.693e-5
-1.637, 6.732e-5
-1.638, 6.772e-5
-1.639, 6.815e-5
-1.640, 6.854e-5
-1.641, 6.885e-5
-1.642, 6.903e-5
-1.643, 6.908e-5
-1.644, 6.950e-5
-1.645, 6.995e-5
-1.646, 7.045e-5
-1.647, 7.097e-5
-1.648, 7.151e-5
-1.649, 7.206e-5
-1.650, 7.263e-5
-1.651, 7.319e-5
-1.652, 7.377e-5
-1.653, 7.438e-5
-1.654, 7.495e-5
-1.655, 7.544e-5
-1.656, 7.596e-5
-1.657, 7.638e-5
-1.658, 7.691e-5
-1.659, 7.744e-5
-1.660, 7.798e-5
-1.661, 7.853e-5
-1.662, 7.910e-5
-1.663, 7.965e-5
-1.664, 8.031e-5
-1.665, 8.098e-5
-1.666, 8.167e-5
-1.667, 8.242e-5
-1.668, 8.309e-5
-1.669, 8.377e-5
-1.670, 8.447e-5
-1.671, 8.514e-5
-1.672, 8.579e-5
-1.673, 8.640e-5
-1.674, 8.683e-5
-1.675, 8.743e-5
-1.676, 8.807e-5
-1.677, 8.810e-5
-1.678, 8.831e-5
-1.679, 8.915e-5
-1.680, 9.007e-5
-1.681, 9.090e-5
-1.682, 9.171e-5
-1.683, 9.251e-5
-1.684, 9.327e-5
-1.685, 9.402e-5
-1.686, 9.439e-5
-1.687, 9.489e-5
-1.688, 9.569e-5
-1.689, 9.665e-5
-1.690, 9.758e-5
-1.691, 9.845e-5
-1.692, 9.946e-5
-1.693, 1.004e-4
-1.694, 1.013e-4
-1.695, 1.021e-4
-1.696, 1.030e-4
-1.697, 1.039e-4
-1.698, 1.048e-4
-1.699, 1.057e-4
