Mar. 16, 2025   18:37:53
Cyclic Voltammetry
File: c:/users/guazh/data/banditlqround7_x0exp891_r5/2025-03-03-exp914\exp914-2025-03-16t18_16_22-arkoh\exp914_cv_sr_900mvs_efin_-1800mv.bin
Data Source:  Experiment
Instrument Model:  CHI760E
Header: CV ran at 900 mVs
Note: 

Init E (V) = -1
High E (V) = -1
Low E (V) = -1.8
Final E (V) = -1
Init P/N = N
Scan Rate (V/s) = 0.9
Segment = 3
Sample Interval (V) = 0.001
Quiet Time (sec) = 2
Sensitivity (A/V) = 0.01
Comp R (ohm) = 2.2

Results:

Channel 1:
Segment 1:
Ep = -1.312V
ip = 2.407e-5A
Ah = 1.907e-6C

Segment 2:
Ep = -1.102V
ip = -2.155e-5A
Ah = -1.324e-6C

Segment 3:

Potential/V, Current/A

-1.000, 3.239e-6
-1.001, 3.239e-6
-1.002, 6.322e-6
-1.003, 6.322e-6
-1.004, 3.239e-6
-1.005, 6.322e-6
-1.006, 6.322e-6
-1.007, 6.322e-6
-1.008, 6.322e-6
-1.009, 6.322e-6
-1.010, 6.322e-6
-1.011, 6.322e-6
-1.012, 6.322e-6
-1.013, 6.322e-6
-1.014, 6.322e-6
-1.015, 6.322e-6
-1.016, 6.322e-6
-1.017, 6.322e-6
-1.018, 6.322e-6
-1.019, 6.322e-6
-1.020, 6.322e-6
-1.021, 6.322e-6
-1.022, 6.322e-6
-1.023, 9.405e-6
-1.024, 6.322e-6
-1.025, 9.405e-6
-1.026, 9.405e-6
-1.027, 6.322e-6
-1.028, 9.405e-6
-1.029, 9.405e-6
-1.030, 9.405e-6
-1.031, 9.405e-6
-1.032, 9.405e-6
-1.033, 9.405e-6
-1.034, 9.405e-6
-1.035, 9.405e-6
-1.036, 9.405e-6
-1.037, 9.405e-6
-1.038, 9.405e-6
-1.039, 9.405e-6
-1.040, 9.405e-6
-1.041, 9.405e-6
-1.042, 9.405e-6
-1.043, 9.405e-6
-1.044, 9.405e-6
-1.045, 9.405e-6
-1.046, 9.405e-6
-1.047, 9.405e-6
-1.048, 9.405e-6
-1.049, 9.405e-6
-1.050, 9.405e-6
-1.051, 1.249e-5
-1.052, 9.405e-6
-1.053, 1.249e-5
-1.054, 9.405e-6
-1.055, 1.249e-5
-1.056, 1.249e-5
-1.057, 9.405e-6
-1.058, 1.249e-5
-1.059, 1.249e-5
-1.060, 1.249e-5
-1.061, 1.249e-5
-1.062, 1.249e-5
-1.063, 1.249e-5
-1.064, 1.249e-5
-1.065, 1.249e-5
-1.066, 1.249e-5
-1.067, 1.249e-5
-1.068, 1.249e-5
-1.069, 1.249e-5
-1.070, 1.249e-5
-1.071, 1.249e-5
-1.072, 1.249e-5
-1.073, 1.249e-5
-1.074, 1.249e-5
-1.075, 1.249e-5
-1.076, 1.249e-5
-1.077, 1.249e-5
-1.078, 1.249e-5
-1.079, 1.249e-5
-1.080, 1.249e-5
-1.081, 1.249e-5
-1.082, 1.249e-5
-1.083, 1.557e-5
-1.084, 1.249e-5
-1.085, 1.557e-5
-1.086, 1.249e-5
-1.087, 1.557e-5
-1.088, 1.557e-5
-1.089, 1.557e-5
-1.090, 1.557e-5
-1.091, 1.557e-5
-1.092, 1.557e-5
-1.093, 1.557e-5
-1.094, 1.557e-5
-1.095, 1.557e-5
-1.096, 1.557e-5
-1.097, 1.557e-5
-1.098, 1.557e-5
-1.099, 1.557e-5
-1.100, 1.557e-5
-1.101, 1.557e-5
-1.102, 1.557e-5
-1.103, 1.557e-5
-1.104, 1.557e-5
-1.105, 1.557e-5
-1.106, 1.557e-5
-1.107, 1.557e-5
-1.108, 1.557e-5
-1.109, 1.557e-5
-1.110, 1.557e-5
-1.111, 1.557e-5
-1.112, 1.557e-5
-1.113, 1.557e-5
-1.114, 1.557e-5
-1.115, 1.557e-5
-1.116, 1.557e-5
-1.117, 1.557e-5
-1.118, 1.557e-5
-1.119, 1.557e-5
-1.120, 1.557e-5
-1.121, 1.557e-5
-1.122, 1.865e-5
-1.123, 1.557e-5
-1.124, 1.557e-5
-1.125, 1.865e-5
-1.126, 1.557e-5
-1.127, 1.557e-5
-1.128, 1.557e-5
-1.129, 1.865e-5
-1.130, 1.865e-5
-1.131, 1.865e-5
-1.132, 1.557e-5
-1.133, 1.557e-5
-1.134, 1.865e-5
-1.135, 1.557e-5
-1.136, 1.865e-5
-1.137, 1.865e-5
-1.138, 1.865e-5
-1.139, 1.865e-5
-1.140, 1.865e-5
-1.141, 1.865e-5
-1.142, 1.865e-5
-1.143, 1.865e-5
-1.144, 1.865e-5
-1.145, 1.865e-5
-1.146, 1.865e-5
-1.147, 1.865e-5
-1.148, 1.865e-5
-1.149, 1.865e-5
-1.150, 1.865e-5
-1.151, 1.865e-5
-1.152, 1.865e-5
-1.153, 1.865e-5
-1.154, 1.865e-5
-1.155, 1.865e-5
-1.156, 1.865e-5
-1.157, 1.865e-5
-1.158, 1.865e-5
-1.159, 1.865e-5
-1.160, 1.865e-5
-1.161, 1.865e-5
-1.162, 1.865e-5
-1.163, 1.865e-5
-1.164, 1.865e-5
-1.165, 1.865e-5
-1.166, 1.865e-5
-1.167, 2.174e-5
-1.168, 1.865e-5
-1.169, 1.865e-5
-1.170, 1.865e-5
-1.171, 2.174e-5
-1.172, 1.865e-5
-1.173, 2.174e-5
-1.174, 1.865e-5
-1.175, 1.865e-5
-1.176, 2.174e-5
-1.177, 1.865e-5
-1.178, 2.174e-5
-1.179, 2.174e-5
-1.180, 2.174e-5
-1.181, 2.174e-5
-1.182, 2.174e-5
-1.183, 2.174e-5
-1.184, 1.865e-5
-1.185, 2.174e-5
-1.186, 2.174e-5
-1.187, 2.174e-5
-1.188, 2.174e-5
-1.189, 2.174e-5
-1.190, 2.174e-5
-1.191, 2.174e-5
-1.192, 2.174e-5
-1.193, 2.174e-5
-1.194, 2.174e-5
-1.195, 2.174e-5
-1.196, 2.174e-5
-1.197, 2.174e-5
-1.198, 2.174e-5
-1.199, 2.174e-5
-1.200, 2.174e-5
-1.201, 2.174e-5
-1.202, 2.174e-5
-1.203, 2.174e-5
-1.204, 2.482e-5
-1.205, 2.482e-5
-1.206, 2.482e-5
-1.207, 2.174e-5
-1.208, 2.482e-5
-1.209, 2.174e-5
-1.210, 2.482e-5
-1.211, 2.482e-5
-1.212, 2.482e-5
-1.213, 2.482e-5
-1.214, 2.482e-5
-1.215, 2.482e-5
-1.216, 2.482e-5
-1.217, 2.482e-5
-1.218, 2.482e-5
-1.219, 2.482e-5
-1.220, 2.482e-5
-1.221, 2.482e-5
-1.222, 2.482e-5
-1.223, 2.482e-5
-1.224, 2.482e-5
-1.225, 2.482e-5
-1.226, 2.482e-5
-1.227, 2.790e-5
-1.228, 2.482e-5
-1.229, 2.790e-5
-1.230, 2.482e-5
-1.231, 2.790e-5
-1.232, 2.790e-5
-1.233, 2.790e-5
-1.234, 2.790e-5
-1.235, 2.790e-5
-1.236, 2.790e-5
-1.237, 2.790e-5
-1.238, 2.790e-5
-1.239, 2.790e-5
-1.240, 2.790e-5
-1.241, 2.790e-5
-1.242, 2.790e-5
-1.243, 2.790e-5
-1.244, 2.790e-5
-1.245, 2.790e-5
-1.246, 2.790e-5
-1.247, 2.790e-5
-1.248, 2.790e-5
-1.249, 3.099e-5
-1.250, 3.099e-5
-1.251, 3.099e-5
-1.252, 3.099e-5
-1.253, 3.099e-5
-1.254, 3.099e-5
-1.255, 3.099e-5
-1.256, 3.099e-5
-1.257, 3.099e-5
-1.258, 3.099e-5
-1.259, 3.099e-5
-1.260, 3.099e-5
-1.261, 3.099e-5
-1.262, 3.099e-5
-1.263, 3.407e-5
-1.264, 3.099e-5
-1.265, 3.407e-5
-1.266, 3.407e-5
-1.267, 3.099e-5
-1.268, 3.407e-5
-1.269, 3.407e-5
-1.270, 3.407e-5
-1.271, 3.407e-5
-1.272, 3.407e-5
-1.273, 3.407e-5
-1.274, 3.407e-5
-1.275, 3.715e-5
-1.276, 3.407e-5
-1.277, 3.407e-5
-1.278, 3.407e-5
-1.279, 3.715e-5
-1.280, 3.407e-5
-1.281, 3.715e-5
-1.282, 3.715e-5
-1.283, 3.715e-5
-1.284, 3.715e-5
-1.285, 3.715e-5
-1.286, 3.715e-5
-1.287, 3.715e-5
-1.288, 3.715e-5
-1.289, 3.715e-5
-1.290, 3.715e-5
-1.291, 4.024e-5
-1.292, 3.715e-5
-1.293, 3.715e-5
-1.294, 3.715e-5
-1.295, 4.024e-5
-1.296, 4.024e-5
-1.297, 4.024e-5
-1.298, 4.024e-5
-1.299, 3.715e-5
-1.300, 4.024e-5
-1.301, 4.024e-5
-1.302, 4.024e-5
-1.303, 4.024e-5
-1.304, 4.024e-5
-1.305, 4.024e-5
-1.306, 4.024e-5
-1.307, 4.024e-5
-1.308, 4.024e-5
-1.309, 4.024e-5
-1.310, 4.024e-5
-1.311, 4.024e-5
-1.312, 4.332e-5
-1.313, 4.024e-5
-1.314, 4.024e-5
-1.315, 4.024e-5
-1.316, 4.024e-5
-1.317, 4.332e-5
-1.318, 4.332e-5
-1.319, 4.332e-5
-1.320, 4.024e-5
-1.321, 4.024e-5
-1.322, 4.024e-5
-1.323, 4.024e-5
-1.324, 4.024e-5
-1.325, 4.024e-5
-1.326, 4.024e-5
-1.327, 4.024e-5
-1.328, 4.332e-5
-1.329, 4.024e-5
-1.330, 4.024e-5
-1.331, 4.024e-5
-1.332, 4.024e-5
-1.333, 4.024e-5
-1.334, 4.024e-5
-1.335, 4.024e-5
-1.336, 4.024e-5
-1.337, 4.024e-5
-1.338, 4.024e-5
-1.339, 4.024e-5
-1.340, 4.024e-5
-1.341, 3.715e-5
-1.342, 4.024e-5
-1.343, 3.715e-5
-1.344, 4.024e-5
-1.345, 3.715e-5
-1.346, 3.715e-5
-1.347, 3.715e-5
-1.348, 3.715e-5
-1.349, 3.715e-5
-1.350, 3.715e-5
-1.351, 3.715e-5
-1.352, 3.715e-5
-1.353, 3.715e-5
-1.354, 3.715e-5
-1.355, 3.715e-5
-1.356, 3.715e-5
-1.357, 3.715e-5
-1.358, 3.715e-5
-1.359, 3.407e-5
-1.360, 3.407e-5
-1.361, 3.407e-5
-1.362, 3.715e-5
-1.363, 3.715e-5
-1.364, 3.407e-5
-1.365, 3.715e-5
-1.366, 3.407e-5
-1.367, 3.715e-5
-1.368, 3.407e-5
-1.369, 3.715e-5
-1.370, 3.407e-5
-1.371, 3.407e-5
-1.372, 3.407e-5
-1.373, 3.407e-5
-1.374, 3.407e-5
-1.375, 3.407e-5
-1.376, 3.407e-5
-1.377, 3.407e-5
-1.378, 3.407e-5
-1.379, 3.407e-5
-1.380, 3.407e-5
-1.381, 3.715e-5
-1.382, 3.407e-5
-1.383, 3.715e-5
-1.384, 3.407e-5
-1.385, 3.407e-5
-1.386, 3.715e-5
-1.387, 3.715e-5
-1.388, 3.715e-5
-1.389, 3.407e-5
-1.390, 3.715e-5
-1.391, 3.407e-5
-1.392, 3.715e-5
-1.393, 3.715e-5
-1.394, 3.715e-5
-1.395, 3.715e-5
-1.396, 3.715e-5
-1.397, 3.715e-5
-1.398, 3.715e-5
-1.399, 3.715e-5
-1.400, 3.715e-5
-1.401, 3.715e-5
-1.402, 4.024e-5
-1.403, 3.715e-5
-1.404, 4.024e-5
-1.405, 3.715e-5
-1.406, 4.024e-5
-1.407, 4.024e-5
-1.408, 4.024e-5
-1.409, 4.024e-5
-1.410, 4.024e-5
-1.411, 4.024e-5
-1.412, 4.024e-5
-1.413, 4.332e-5
-1.414, 4.332e-5
-1.415, 4.332e-5
-1.416, 4.024e-5
-1.417, 4.024e-5
-1.418, 4.332e-5
-1.419, 4.332e-5
-1.420, 4.332e-5
-1.421, 4.332e-5
-1.422, 4.332e-5
-1.423, 4.332e-5
-1.424, 4.332e-5
-1.425, 4.640e-5
-1.426, 4.640e-5
-1.427, 4.640e-5
-1.428, 4.640e-5
-1.429, 4.640e-5
-1.430, 4.640e-5
-1.431, 4.640e-5
-1.432, 4.949e-5
-1.433, 4.640e-5
-1.434, 4.949e-5
-1.435, 4.949e-5
-1.436, 4.949e-5
-1.437, 4.949e-5
-1.438, 4.949e-5
-1.439, 4.949e-5
-1.440, 5.257e-5
-1.441, 5.257e-5
-1.442, 5.257e-5
-1.443, 5.257e-5
-1.444, 5.257e-5
-1.445, 5.257e-5
-1.446, 5.565e-5
-1.447, 5.565e-5
-1.448, 5.565e-5
-1.449, 5.565e-5
-1.450, 5.565e-5
-1.451, 5.565e-5
-1.452, 5.873e-5
-1.453, 5.873e-5
-1.454, 5.873e-5
-1.455, 5.873e-5
-1.456, 5.873e-5
-1.457, 6.182e-5
-1.458, 6.182e-5
-1.459, 6.182e-5
-1.460, 6.182e-5
-1.461, 6.490e-5
-1.462, 6.490e-5
-1.463, 6.490e-5
-1.464, 6.798e-5
-1.465, 6.798e-5
-1.466, 6.798e-5
-1.467, 7.107e-5
-1.468, 7.107e-5
-1.469, 7.107e-5
-1.470, 7.107e-5
-1.471, 7.415e-5
-1.472, 7.415e-5
-1.473, 7.723e-5
-1.474, 7.723e-5
-1.475, 7.723e-5
-1.476, 7.723e-5
-1.477, 8.032e-5
-1.478, 8.032e-5
-1.479, 8.340e-5
-1.480, 8.340e-5
-1.481, 8.648e-5
-1.482, 8.648e-5
-1.483, 8.648e-5
-1.484, 8.957e-5
-1.485, 9.265e-5
-1.486, 9.265e-5
-1.487, 9.573e-5
-1.488, 9.573e-5
-1.489, 9.882e-5
-1.490, 9.882e-5
-1.491, 1.019e-4
-1.492, 1.019e-4
-1.493, 1.050e-4
-1.494, 1.081e-4
-1.495, 1.081e-4
-1.496, 1.111e-4
-1.497, 1.111e-4
-1.498, 1.142e-4
-1.499, 1.173e-4
-1.500, 1.204e-4
-1.501, 1.235e-4
-1.502, 1.235e-4
-1.503, 1.266e-4
-1.504, 1.296e-4
-1.505, 1.327e-4
-1.506, 1.358e-4
-1.507, 1.389e-4
-1.508, 1.420e-4
-1.509, 1.420e-4
-1.510, 1.451e-4
-1.511, 1.512e-4
-1.512, 1.543e-4
-1.513, 1.574e-4
-1.514, 1.605e-4
-1.515, 1.636e-4
-1.516, 1.666e-4
-1.517, 1.728e-4
-1.518, 1.759e-4
-1.519, 1.790e-4
-1.520, 1.821e-4
-1.521, 1.882e-4
-1.522, 1.913e-4
-1.523, 1.975e-4
-1.524, 2.036e-4
-1.525, 2.098e-4
-1.526, 2.129e-4
-1.527, 2.191e-4
-1.528, 2.252e-4
-1.529, 2.314e-4
-1.530, 2.376e-4
-1.531, 2.437e-4
-1.532, 2.530e-4
-1.533, 2.591e-4
-1.534, 2.653e-4
-1.535, 2.746e-4
-1.536, 2.807e-4
-1.537, 2.900e-4
-1.538, 2.961e-4
-1.539, 3.054e-4
-1.540, 3.146e-4
-1.541, 3.208e-4
-1.542, 3.300e-4
-1.543, 3.393e-4
-1.544, 3.455e-4
-1.545, 3.547e-4
-1.546, 3.609e-4
-1.547, 3.670e-4
-1.548, 3.763e-4
-1.549, 3.855e-4
-1.550, 3.917e-4
-1.551, 3.979e-4
-1.552, 4.040e-4
-1.553, 4.133e-4
-1.554, 4.225e-4
-1.555, 4.287e-4
-1.556, 4.380e-4
-1.557, 4.472e-4
-1.558, 4.565e-4
-1.559, 4.626e-4
-1.560, 4.719e-4
-1.561, 4.811e-4
-1.562, 4.904e-4
-1.563, 4.996e-4
-1.564, 5.089e-4
-1.565, 5.181e-4
-1.566, 5.274e-4
-1.567, 5.335e-4
-1.568, 5.459e-4
-1.569, 5.551e-4
-1.570, 5.644e-4
-1.571, 5.736e-4
-1.572, 5.859e-4
-1.573, 5.983e-4
-1.574, 6.075e-4
-1.575, 6.168e-4
-1.576, 6.260e-4
-1.577, 6.384e-4
-1.578, 6.476e-4
-1.579, 6.599e-4
-1.580, 6.692e-4
-1.581, 6.815e-4
-1.582, 6.908e-4
-1.583, 7.031e-4
-1.584, 7.154e-4
-1.585, 7.278e-4
-1.586, 7.401e-4
-1.587, 7.524e-4
-1.588, 7.648e-4
-1.589, 7.771e-4
-1.590, 7.894e-4
-1.591, 8.018e-4
-1.592, 8.141e-4
-1.593, 8.264e-4
-1.594, 8.418e-4
-1.595, 8.542e-4
-1.596, 8.665e-4
-1.597, 8.819e-4
-1.598, 8.943e-4
-1.599, 9.066e-4
-1.600, 9.220e-4
-1.601, 9.374e-4
-1.602, 9.498e-4
-1.603, 9.652e-4
-1.604, 9.806e-4
-1.605, 9.960e-4
-1.606, 1.011e-3
-1.607, 1.027e-3
-1.608, 1.039e-3
-1.609, 1.055e-3
-1.610, 1.070e-3
-1.611, 1.088e-3
-1.612, 1.101e-3
-1.613, 1.119e-3
-1.614, 1.135e-3
-1.615, 1.153e-3
-1.616, 1.169e-3
-1.617, 1.184e-3
-1.618, 1.199e-3
-1.619, 1.218e-3
-1.620, 1.233e-3
-1.621, 1.252e-3
-1.622, 1.267e-3
-1.623, 1.286e-3
-1.624, 1.304e-3
-1.625, 1.323e-3
-1.626, 1.338e-3
-1.627, 1.357e-3
-1.628, 1.375e-3
-1.629, 1.394e-3
-1.630, 1.415e-3
-1.631, 1.431e-3
-1.632, 1.452e-3
-1.633, 1.474e-3
-1.634, 1.492e-3
-1.635, 1.514e-3
-1.636, 1.539e-3
-1.637, 1.557e-3
-1.638, 1.579e-3
-1.639, 1.603e-3
-1.640, 1.622e-3
-1.641, 1.643e-3
-1.642, 1.662e-3
-1.643, 1.687e-3
-1.644, 1.711e-3
-1.645, 1.733e-3
-1.646, 1.754e-3
-1.647, 1.776e-3
-1.648, 1.798e-3
-1.649, 1.816e-3
-1.650, 1.838e-3
-1.651, 1.859e-3
-1.652, 1.881e-3
-1.653, 1.906e-3
-1.654, 1.927e-3
-1.655, 1.949e-3
-1.656, 1.970e-3
-1.657, 1.995e-3
-1.658, 2.020e-3
-1.659, 2.047e-3
-1.660, 2.072e-3
-1.661, 2.097e-3
-1.662, 2.121e-3
-1.663, 2.146e-3
-1.664, 2.171e-3
-1.665, 2.192e-3
-1.666, 2.217e-3
-1.667, 2.242e-3
-1.668, 2.266e-3
-1.669, 2.294e-3
-1.670, 2.319e-3
-1.671, 2.340e-3
-1.672, 2.365e-3
-1.673, 2.390e-3
-1.674, 2.420e-3
-1.675, 2.448e-3
-1.676, 2.476e-3
-1.677, 2.504e-3
-1.678, 2.534e-3
-1.679, 2.562e-3
-1.680, 2.596e-3
-1.681, 2.627e-3
-1.682, 2.658e-3
-1.683, 2.686e-3
-1.684, 2.716e-3
-1.685, 2.747e-3
-1.686, 2.775e-3
-1.687, 2.803e-3
-1.688, 2.830e-3
-1.689, 2.858e-3
-1.690, 2.892e-3
-1.691, 2.923e-3
-1.692, 2.954e-3
-1.693, 2.988e-3
-1.694, 3.019e-3
-1.695, 3.049e-3
-1.696, 3.080e-3
-1.697, 3.108e-3
-1.698, 3.139e-3
-1.699, 3.167e-3
-1.700, 3.194e-3
-1.701, 3.225e-3
-1.702, 3.256e-3
-1.703, 3.290e-3
-1.704, 3.324e-3
-1.705, 3.355e-3
-1.706, 3.388e-3
-1.707, 3.422e-3
-1.708, 3.459e-3
-1.709, 3.496e-3
-1.710, 3.533e-3
-1.711, 3.570e-3
-1.712, 3.607e-3
-1.713, 3.644e-3
-1.714, 3.675e-3
-1.715, 3.709e-3
-1.716, 3.743e-3
-1.717, 3.777e-3
-1.718, 3.814e-3
-1.719, 3.851e-3
-1.720, 3.894e-3
-1.721, 3.931e-3
-1.722, 3.968e-3
-1.723, 4.008e-3
-1.724, 4.045e-3
-1.725, 4.082e-3
-1.726, 4.119e-3
-1.727, 4.159e-3
-1.728, 4.196e-3
-1.729, 4.233e-3
-1.730, 4.264e-3
-1.731, 4.298e-3
-1.732, 4.329e-3
-1.733, 4.366e-3
-1.734, 4.403e-3
-1.735, 4.446e-3
-1.736, 4.486e-3
-1.737, 4.532e-3
-1.738, 4.572e-3
-1.739, 4.612e-3
-1.740, 4.659e-3
-1.741, 4.702e-3
-1.742, 4.751e-3
-1.743, 4.794e-3
-1.744, 4.838e-3
-1.745, 4.881e-3
-1.746, 4.924e-3
-1.747, 4.967e-3
-1.748, 5.013e-3
-1.749, 5.060e-3
-1.750, 5.106e-3
-1.751, 5.149e-3
-1.752, 5.198e-3
-1.753, 5.251e-3
-1.754, 5.294e-3
-1.755, 5.337e-3
-1.756, 5.380e-3
-1.757, 5.420e-3
-1.758, 5.467e-3
-1.759, 5.513e-3
-1.760, 5.559e-3
-1.761, 5.605e-3
-1.762, 5.648e-3
-1.763, 5.695e-3
-1.764, 5.741e-3
-1.765, 5.790e-3
-1.766, 5.840e-3
-1.767, 5.889e-3
-1.768, 5.935e-3
-1.769, 5.981e-3
-1.770, 6.028e-3
-1.771, 6.074e-3
-1.772, 6.120e-3
-1.773, 6.166e-3
-1.774, 6.216e-3
-1.775, 6.262e-3
-1.776, 6.311e-3
-1.777, 6.361e-3
-1.778, 6.404e-3
-1.779, 6.447e-3
-1.780, 6.499e-3
-1.781, 6.549e-3
-1.782, 6.601e-3
-1.783, 6.657e-3
-1.784, 6.703e-3
-1.785, 6.758e-3
-1.786, 6.820e-3
-1.787, 6.879e-3
-1.788, 6.937e-3
-1.789, 6.993e-3
-1.790, 7.054e-3
-1.791, 7.113e-3
-1.792, 7.171e-3
-1.793, 7.227e-3
-1.794, 7.276e-3
-1.795, 7.326e-3
-1.796, 7.378e-3
-1.797, 7.430e-3
-1.798, 7.480e-3
-1.799, 7.532e-3
-1.800, 7.551e-3
-1.799, 7.501e-3
-1.798, 7.449e-3
-1.797, 7.400e-3
-1.796, 7.350e-3
-1.795, 7.304e-3
-1.794, 7.255e-3
-1.793, 7.196e-3
-1.792, 7.138e-3
-1.791, 7.079e-3
-1.790, 7.027e-3
-1.789, 6.977e-3
-1.788, 6.928e-3
-1.787, 6.882e-3
-1.786, 6.835e-3
-1.785, 6.792e-3
-1.784, 6.746e-3
-1.783, 6.697e-3
-1.782, 6.654e-3
-1.781, 6.610e-3
-1.780, 6.567e-3
-1.779, 6.521e-3
-1.778, 6.478e-3
-1.777, 6.432e-3
-1.776, 6.395e-3
-1.775, 6.348e-3
-1.774, 6.302e-3
-1.773, 6.262e-3
-1.772, 6.225e-3
-1.771, 6.185e-3
-1.770, 6.142e-3
-1.769, 6.108e-3
-1.768, 6.071e-3
-1.767, 6.028e-3
-1.766, 5.984e-3
-1.765, 5.941e-3
-1.764, 5.901e-3
-1.763, 5.855e-3
-1.762, 5.809e-3
-1.761, 5.759e-3
-1.760, 5.713e-3
-1.759, 5.670e-3
-1.758, 5.624e-3
-1.757, 5.584e-3
-1.756, 5.534e-3
-1.755, 5.485e-3
-1.754, 5.442e-3
-1.753, 5.396e-3
-1.752, 5.365e-3
-1.751, 5.319e-3
-1.750, 5.275e-3
-1.749, 5.235e-3
-1.748, 5.195e-3
-1.747, 5.155e-3
-1.746, 5.115e-3
-1.745, 5.072e-3
-1.744, 5.026e-3
-1.743, 4.982e-3
-1.742, 4.939e-3
-1.741, 4.896e-3
-1.740, 4.853e-3
-1.739, 4.807e-3
-1.738, 4.767e-3
-1.737, 4.723e-3
-1.736, 4.680e-3
-1.735, 4.640e-3
-1.734, 4.603e-3
-1.733, 4.569e-3
-1.732, 4.535e-3
-1.731, 4.501e-3
-1.730, 4.461e-3
-1.729, 4.418e-3
-1.728, 4.375e-3
-1.727, 4.335e-3
-1.726, 4.286e-3
-1.725, 4.246e-3
-1.724, 4.199e-3
-1.723, 4.156e-3
-1.722, 4.113e-3
-1.721, 4.076e-3
-1.720, 4.039e-3
-1.719, 4.002e-3
-1.718, 3.965e-3
-1.717, 3.928e-3
-1.716, 3.897e-3
-1.715, 3.863e-3
-1.714, 3.826e-3
-1.713, 3.792e-3
-1.712, 3.758e-3
-1.711, 3.721e-3
-1.710, 3.684e-3
-1.709, 3.654e-3
-1.708, 3.623e-3
-1.707, 3.586e-3
-1.706, 3.552e-3
-1.705, 3.515e-3
-1.704, 3.481e-3
-1.703, 3.447e-3
-1.702, 3.413e-3
-1.701, 3.379e-3
-1.700, 3.345e-3
-1.699, 3.314e-3
-1.698, 3.278e-3
-1.697, 3.247e-3
-1.696, 3.213e-3
-1.695, 3.182e-3
-1.694, 3.148e-3
-1.693, 3.117e-3
-1.692, 3.083e-3
-1.691, 3.049e-3
-1.690, 3.015e-3
-1.689, 2.978e-3
-1.688, 2.948e-3
-1.687, 2.908e-3
-1.686, 2.874e-3
-1.685, 2.843e-3
-1.684, 2.806e-3
-1.683, 2.775e-3
-1.682, 2.744e-3
-1.681, 2.716e-3
-1.680, 2.689e-3
-1.679, 2.661e-3
-1.678, 2.636e-3
-1.677, 2.608e-3
-1.676, 2.581e-3
-1.675, 2.550e-3
-1.674, 2.522e-3
-1.673, 2.494e-3
-1.672, 2.460e-3
-1.671, 2.433e-3
-1.670, 2.405e-3
-1.669, 2.374e-3
-1.668, 2.346e-3
-1.667, 2.319e-3
-1.666, 2.294e-3
-1.665, 2.272e-3
-1.664, 2.245e-3
-1.663, 2.220e-3
-1.662, 2.195e-3
-1.661, 2.168e-3
-1.660, 2.143e-3
-1.659, 2.115e-3
-1.658, 2.087e-3
-1.657, 2.063e-3
-1.656, 2.038e-3
-1.655, 2.013e-3
-1.654, 1.989e-3
-1.653, 1.967e-3
-1.652, 1.943e-3
-1.651, 1.915e-3
-1.650, 1.890e-3
-1.649, 1.865e-3
-1.648, 1.841e-3
-1.647, 1.819e-3
-1.646, 1.798e-3
-1.645, 1.773e-3
-1.644, 1.751e-3
-1.643, 1.727e-3
-1.642, 1.705e-3
-1.641, 1.680e-3
-1.640, 1.656e-3
-1.639, 1.634e-3
-1.638, 1.610e-3
-1.637, 1.588e-3
-1.636, 1.566e-3
-1.635, 1.545e-3
-1.634, 1.523e-3
-1.633, 1.505e-3
-1.632, 1.486e-3
-1.631, 1.465e-3
-1.630, 1.446e-3
-1.629, 1.425e-3
-1.628, 1.406e-3
-1.627, 1.388e-3
-1.626, 1.369e-3
-1.625, 1.347e-3
-1.624, 1.329e-3
-1.623, 1.310e-3
-1.622, 1.292e-3
-1.621, 1.277e-3
-1.620, 1.258e-3
-1.619, 1.240e-3
-1.618, 1.221e-3
-1.617, 1.203e-3
-1.616, 1.190e-3
-1.615, 1.172e-3
-1.614, 1.153e-3
-1.613, 1.135e-3
-1.612, 1.116e-3
-1.611, 1.098e-3
-1.610, 1.079e-3
-1.609, 1.064e-3
-1.608, 1.048e-3
-1.607, 1.030e-3
-1.606, 1.011e-3
-1.605, 9.960e-4
-1.604, 9.775e-4
-1.603, 9.621e-4
-1.602, 9.498e-4
-1.601, 9.343e-4
-1.600, 9.158e-4
-1.599, 9.035e-4
-1.598, 8.881e-4
-1.597, 8.727e-4
-1.596, 8.603e-4
-1.595, 8.480e-4
-1.594, 8.326e-4
-1.593, 8.203e-4
-1.592, 8.079e-4
-1.591, 7.956e-4
-1.590, 7.833e-4
-1.589, 7.679e-4
-1.588, 7.555e-4
-1.587, 7.432e-4
-1.586, 7.309e-4
-1.585, 7.185e-4
-1.584, 7.062e-4
-1.583, 6.908e-4
-1.582, 6.815e-4
-1.581, 6.661e-4
-1.580, 6.569e-4
-1.579, 6.445e-4
-1.578, 6.322e-4
-1.577, 6.199e-4
-1.576, 6.075e-4
-1.575, 5.983e-4
-1.574, 5.859e-4
-1.573, 5.736e-4
-1.572, 5.644e-4
-1.571, 5.520e-4
-1.570, 5.428e-4
-1.569, 5.335e-4
-1.568, 5.243e-4
-1.567, 5.150e-4
-1.566, 5.027e-4
-1.565, 4.935e-4
-1.564, 4.842e-4
-1.563, 4.750e-4
-1.562, 4.657e-4
-1.561, 4.565e-4
-1.560, 4.472e-4
-1.559, 4.380e-4
-1.558, 4.287e-4
-1.557, 4.225e-4
-1.556, 4.133e-4
-1.555, 4.040e-4
-1.554, 3.979e-4
-1.553, 3.886e-4
-1.552, 3.794e-4
-1.551, 3.732e-4
-1.550, 3.640e-4
-1.549, 3.578e-4
-1.548, 3.485e-4
-1.547, 3.424e-4
-1.546, 3.362e-4
-1.545, 3.270e-4
-1.544, 3.208e-4
-1.543, 3.146e-4
-1.542, 3.054e-4
-1.541, 2.992e-4
-1.540, 2.931e-4
-1.539, 2.869e-4
-1.538, 2.807e-4
-1.537, 2.746e-4
-1.536, 2.684e-4
-1.535, 2.622e-4
-1.534, 2.530e-4
-1.533, 2.499e-4
-1.532, 2.437e-4
-1.531, 2.376e-4
-1.530, 2.345e-4
-1.529, 2.283e-4
-1.528, 2.221e-4
-1.527, 2.160e-4
-1.526, 2.129e-4
-1.525, 2.067e-4
-1.524, 2.036e-4
-1.523, 1.975e-4
-1.522, 1.944e-4
-1.521, 1.882e-4
-1.520, 1.851e-4
-1.519, 1.790e-4
-1.518, 1.759e-4
-1.517, 1.728e-4
-1.516, 1.666e-4
-1.515, 1.636e-4
-1.514, 1.605e-4
-1.513, 1.543e-4
-1.512, 1.512e-4
-1.511, 1.481e-4
-1.510, 1.420e-4
-1.509, 1.389e-4
-1.508, 1.358e-4
-1.507, 1.327e-4
-1.506, 1.296e-4
-1.505, 1.266e-4
-1.504, 1.204e-4
-1.503, 1.204e-4
-1.502, 1.142e-4
-1.501, 1.142e-4
-1.500, 1.081e-4
-1.499, 1.081e-4
-1.498, 1.050e-4
-1.497, 1.019e-4
-1.496, 9.882e-5
-1.495, 9.573e-5
-1.494, 9.265e-5
-1.493, 8.957e-5
-1.492, 8.957e-5
-1.491, 8.648e-5
-1.490, 8.340e-5
-1.489, 8.032e-5
-1.488, 7.723e-5
-1.487, 7.723e-5
-1.486, 7.415e-5
-1.485, 7.107e-5
-1.484, 7.107e-5
-1.483, 6.798e-5
-1.482, 6.798e-5
-1.481, 6.490e-5
-1.480, 6.490e-5
-1.479, 6.182e-5
-1.478, 5.873e-5
-1.477, 5.873e-5
-1.476, 5.565e-5
-1.475, 5.565e-5
-1.474, 5.257e-5
-1.473, 5.257e-5
-1.472, 4.949e-5
-1.471, 4.949e-5
-1.470, 4.640e-5
-1.469, 4.332e-5
-1.468, 4.332e-5
-1.467, 4.332e-5
-1.466, 4.024e-5
-1.465, 4.024e-5
-1.464, 3.715e-5
-1.463, 3.715e-5
-1.462, 3.407e-5
-1.461, 3.715e-5
-1.460, 3.407e-5
-1.459, 3.407e-5
-1.458, 3.099e-5
-1.457, 3.099e-5
-1.456, 2.790e-5
-1.455, 2.790e-5
-1.454, 2.790e-5
-1.453, 2.790e-5
-1.452, 2.482e-5
-1.451, 2.482e-5
-1.450, 2.482e-5
-1.449, 2.482e-5
-1.448, 2.174e-5
-1.447, 2.174e-5
-1.446, 2.174e-5
-1.445, 2.174e-5
-1.444, 1.865e-5
-1.443, 1.865e-5
-1.442, 1.865e-5
-1.441, 1.865e-5
-1.440, 1.557e-5
-1.439, 1.557e-5
-1.438, 1.557e-5
-1.437, 1.557e-5
-1.436, 1.557e-5
-1.435, 1.557e-5
-1.434, 1.557e-5
-1.433, 1.249e-5
-1.432, 9.405e-6
-1.431, 1.249e-5
-1.430, 9.405e-6
-1.429, 1.249e-5
-1.428, 9.405e-6
-1.427, 9.405e-6
-1.426, 9.405e-6
-1.425, 9.405e-6
-1.424, 9.405e-6
-1.423, 9.405e-6
-1.422, 9.405e-6
-1.421, 6.322e-6
-1.420, 6.322e-6
-1.419, 6.322e-6
-1.418, 6.322e-6
-1.417, 6.322e-6
-1.416, 6.322e-6
-1.415, 6.322e-6
-1.414, 3.239e-6
-1.413, 6.322e-6
-1.412, 6.322e-6
-1.411, 3.239e-6
-1.410, 3.239e-6
-1.409, 3.239e-6
-1.408, 3.239e-6
-1.407, 3.239e-6
-1.406, 3.239e-6
-1.405, 3.239e-6
-1.404, 3.239e-6
-1.403, 3.239e-6
-1.402, 3.239e-6
-1.401, 1.559e-7
-1.400, 1.559e-7
-1.399, 1.559e-7
-1.398, 1.559e-7
-1.397, 3.239e-6
-1.396, 1.559e-7
-1.395, 1.559e-7
-1.394, 1.559e-7
-1.393, 1.559e-7
-1.392, 1.559e-7
-1.391, 1.559e-7
-1.390, 1.559e-7
-1.389, 1.559e-7
-1.388, 1.559e-7
-1.387, 1.559e-7
-1.386, -2.927e-6
-1.385, 1.559e-7
-1.384, -2.927e-6
-1.383, 1.559e-7
-1.382, 1.559e-7
-1.381, -2.927e-6
-1.380, -2.927e-6
-1.379, -2.927e-6
-1.378, -2.927e-6
-1.377, -2.927e-6
-1.376, -2.927e-6
-1.375, -2.927e-6
-1.374, -2.927e-6
-1.373, -2.927e-6
-1.372, -2.927e-6
-1.371, -2.927e-6
-1.370, -2.927e-6
-1.369, -2.927e-6
-1.368, -2.927e-6
-1.367, -2.927e-6
-1.366, -2.927e-6
-1.365, -6.010e-6
-1.364, -2.927e-6
-1.363, -6.010e-6
-1.362, -2.927e-6
-1.361, -2.927e-6
-1.360, -2.927e-6
-1.359, -2.927e-6
-1.358, -2.927e-6
-1.357, -2.927e-6
-1.356, -6.010e-6
-1.355, -6.010e-6
-1.354, -6.010e-6
-1.353, -6.010e-6
-1.352, -6.010e-6
-1.351, -6.010e-6
-1.350, -6.010e-6
-1.349, -6.010e-6
-1.348, -6.010e-6
-1.347, -6.010e-6
-1.346, -2.927e-6
-1.345, -6.010e-6
-1.344, -6.010e-6
-1.343, -6.010e-6
-1.342, -6.010e-6
-1.341, -6.010e-6
-1.340, -6.010e-6
-1.339, -6.010e-6
-1.338, -6.010e-6
-1.337, -6.010e-6
-1.336, -6.010e-6
-1.335, -6.010e-6
-1.334, -6.010e-6
-1.333, -6.010e-6
-1.332, -6.010e-6
-1.331, -6.010e-6
-1.330, -6.010e-6
-1.329, -6.010e-6
-1.328, -6.010e-6
-1.327, -6.010e-6
-1.326, -9.093e-6
-1.325, -6.010e-6
-1.324, -9.093e-6
-1.323, -6.010e-6
-1.322, -6.010e-6
-1.321, -9.093e-6
-1.320, -9.093e-6
-1.319, -6.010e-6
-1.318, -9.093e-6
-1.317, -9.093e-6
-1.316, -9.093e-6
-1.315, -6.010e-6
-1.314, -6.010e-6
-1.313, -9.093e-6
-1.312, -9.093e-6
-1.311, -9.093e-6
-1.310, -6.010e-6
-1.309, -6.010e-6
-1.308, -9.093e-6
-1.307, -6.010e-6
-1.306, -9.093e-6
-1.305, -9.093e-6
-1.304, -9.093e-6
-1.303, -9.093e-6
-1.302, -9.093e-6
-1.301, -9.093e-6
-1.300, -9.093e-6
-1.299, -9.093e-6
-1.298, -9.093e-6
-1.297, -9.093e-6
-1.296, -9.093e-6
-1.295, -9.093e-6
-1.294, -9.093e-6
-1.293, -9.093e-6
-1.292, -9.093e-6
-1.291, -9.093e-6
-1.290, -9.093e-6
-1.289, -9.093e-6
-1.288, -9.093e-6
-1.287, -9.093e-6
-1.286, -9.093e-6
-1.285, -9.093e-6
-1.284, -9.093e-6
-1.283, -9.093e-6
-1.282, -9.093e-6
-1.281, -9.093e-6
-1.280, -1.218e-5
-1.279, -9.093e-6
-1.278, -9.093e-6
-1.277, -9.093e-6
-1.276, -9.093e-6
-1.275, -1.218e-5
-1.274, -9.093e-6
-1.273, -9.093e-6
-1.272, -9.093e-6
-1.271, -9.093e-6
-1.270, -9.093e-6
-1.269, -9.093e-6
-1.268, -1.218e-5
-1.267, -1.218e-5
-1.266, -1.218e-5
-1.265, -1.218e-5
-1.264, -1.218e-5
-1.263, -9.093e-6
-1.262, -9.093e-6
-1.261, -1.218e-5
-1.260, -1.218e-5
-1.259, -1.218e-5
-1.258, -1.218e-5
-1.257, -1.218e-5
-1.256, -9.093e-6
-1.255, -1.218e-5
-1.254, -1.218e-5
-1.253, -1.218e-5
-1.252, -1.218e-5
-1.251, -1.218e-5
-1.250, -1.218e-5
-1.249, -1.218e-5
-1.248, -1.218e-5
-1.247, -1.218e-5
-1.246, -1.218e-5
-1.245, -1.218e-5
-1.244, -1.218e-5
-1.243, -1.218e-5
-1.242, -1.218e-5
-1.241, -1.218e-5
-1.240, -1.218e-5
-1.239, -1.218e-5
-1.238, -1.218e-5
-1.237, -1.218e-5
-1.236, -1.218e-5
-1.235, -1.218e-5
-1.234, -1.218e-5
-1.233, -1.218e-5
-1.232, -1.218e-5
-1.231, -1.218e-5
-1.230, -1.218e-5
-1.229, -1.218e-5
-1.228, -1.218e-5
-1.227, -1.526e-5
-1.226, -1.218e-5
-1.225, -1.218e-5
-1.224, -1.526e-5
-1.223, -1.218e-5
-1.222, -1.526e-5
-1.221, -1.526e-5
-1.220, -1.526e-5
-1.219, -1.218e-5
-1.218, -1.526e-5
-1.217, -1.526e-5
-1.216, -1.526e-5
-1.215, -1.526e-5
-1.214, -1.526e-5
-1.213, -1.526e-5
-1.212, -1.526e-5
-1.211, -1.526e-5
-1.210, -1.526e-5
-1.209, -1.526e-5
-1.208, -1.526e-5
-1.207, -1.526e-5
-1.206, -1.834e-5
-1.205, -1.526e-5
-1.204, -1.526e-5
-1.203, -1.526e-5
-1.202, -1.526e-5
-1.201, -1.834e-5
-1.200, -1.526e-5
-1.199, -1.834e-5
-1.198, -1.526e-5
-1.197, -1.526e-5
-1.196, -1.526e-5
-1.195, -1.834e-5
-1.194, -1.834e-5
-1.193, -1.834e-5
-1.192, -1.834e-5
-1.191, -1.834e-5
-1.190, -1.834e-5
-1.189, -1.834e-5
-1.188, -1.834e-5
-1.187, -1.834e-5
-1.186, -2.143e-5
-1.185, -1.834e-5
-1.184, -1.834e-5
-1.183, -1.834e-5
-1.182, -1.834e-5
-1.181, -1.834e-5
-1.180, -1.834e-5
-1.179, -2.143e-5
-1.178, -2.143e-5
-1.177, -2.143e-5
-1.176, -2.143e-5
-1.175, -2.143e-5
-1.174, -2.143e-5
-1.173, -2.143e-5
-1.172, -2.143e-5
-1.171, -2.143e-5
-1.170, -2.143e-5
-1.169, -2.451e-5
-1.168, -2.143e-5
-1.167, -2.451e-5
-1.166, -2.143e-5
-1.165, -2.143e-5
-1.164, -2.143e-5
-1.163, -2.451e-5
-1.162, -2.451e-5
-1.161, -2.451e-5
-1.160, -2.451e-5
-1.159, -2.451e-5
-1.158, -2.451e-5
-1.157, -2.451e-5
-1.156, -2.451e-5
-1.155, -2.451e-5
-1.154, -2.451e-5
-1.153, -2.451e-5
-1.152, -2.759e-5
-1.151, -2.451e-5
-1.150, -2.451e-5
-1.149, -2.451e-5
-1.148, -2.759e-5
-1.147, -2.759e-5
-1.146, -2.759e-5
-1.145, -2.759e-5
-1.144, -2.759e-5
-1.143, -2.451e-5
-1.142, -2.759e-5
-1.141, -2.759e-5
-1.140, -2.759e-5
-1.139, -2.759e-5
-1.138, -2.759e-5
-1.137, -3.068e-5
-1.136, -2.759e-5
-1.135, -2.759e-5
-1.134, -2.759e-5
-1.133, -3.068e-5
-1.132, -3.068e-5
-1.131, -3.068e-5
-1.130, -3.068e-5
-1.129, -2.759e-5
-1.128, -3.068e-5
-1.127, -3.068e-5
-1.126, -3.068e-5
-1.125, -3.068e-5
-1.124, -3.068e-5
-1.123, -3.068e-5
-1.122, -3.068e-5
-1.121, -3.068e-5
-1.120, -3.068e-5
-1.119, -3.376e-5
-1.118, -3.376e-5
-1.117, -3.068e-5
-1.116, -3.376e-5
-1.115, -3.376e-5
-1.114, -3.376e-5
-1.113, -3.376e-5
-1.112, -3.376e-5
-1.111, -3.376e-5
-1.110, -3.376e-5
-1.109, -3.376e-5
-1.108, -3.376e-5
-1.107, -3.376e-5
-1.106, -3.376e-5
-1.105, -3.376e-5
-1.104, -3.376e-5
-1.103, -3.376e-5
-1.102, -3.684e-5
-1.101, -3.376e-5
-1.100, -3.684e-5
-1.099, -3.684e-5
-1.098, -3.376e-5
-1.097, -3.376e-5
-1.096, -3.684e-5
-1.095, -3.684e-5
-1.094, -3.684e-5
-1.093, -3.684e-5
-1.092, -3.684e-5
-1.091, -3.684e-5
-1.090, -3.684e-5
-1.089, -3.684e-5
-1.088, -3.684e-5
-1.087, -3.684e-5
-1.086, -3.684e-5
-1.085, -3.684e-5
-1.084, -3.684e-5
-1.083, -3.684e-5
-1.082, -3.684e-5
-1.081, -3.684e-5
-1.080, -3.684e-5
-1.079, -3.684e-5
-1.078, -3.684e-5
-1.077, -3.684e-5
-1.076, -3.684e-5
-1.075, -3.684e-5
-1.074, -3.376e-5
-1.073, -3.684e-5
-1.072, -3.684e-5
-1.071, -3.684e-5
-1.070, -3.684e-5
-1.069, -3.684e-5
-1.068, -3.684e-5
-1.067, -3.684e-5
-1.066, -3.684e-5
-1.065, -3.684e-5
-1.064, -3.684e-5
-1.063, -3.684e-5
-1.062, -3.376e-5
-1.061, -3.684e-5
-1.060, -3.684e-5
-1.059, -3.684e-5
-1.058, -3.376e-5
-1.057, -3.684e-5
-1.056, -3.376e-5
-1.055, -3.684e-5
-1.054, -3.684e-5
-1.053, -3.376e-5
-1.052, -3.376e-5
-1.051, -3.684e-5
-1.050, -3.684e-5
-1.049, -3.684e-5
-1.048, -3.376e-5
-1.047, -3.376e-5
-1.046, -3.376e-5
-1.045, -3.376e-5
-1.044, -3.684e-5
-1.043, -3.376e-5
-1.042, -3.376e-5
-1.041, -3.376e-5
-1.040, -3.376e-5
-1.039, -3.376e-5
-1.038, -3.376e-5
-1.037, -3.376e-5
-1.036, -3.684e-5
-1.035, -3.376e-5
-1.034, -3.376e-5
-1.033, -3.376e-5
-1.032, -3.376e-5
-1.031, -3.376e-5
-1.030, -3.376e-5
-1.029, -3.376e-5
-1.028, -3.376e-5
-1.027, -3.376e-5
-1.026, -3.376e-5
-1.025, -3.376e-5
-1.024, -3.376e-5
-1.023, -3.376e-5
-1.022, -3.684e-5
-1.021, -3.684e-5
-1.020, -3.376e-5
-1.019, -3.376e-5
-1.018, -3.376e-5
-1.017, -3.376e-5
-1.016, -3.376e-5
-1.015, -3.376e-5
-1.014, -3.684e-5
-1.013, -3.376e-5
-1.012, -3.376e-5
-1.011, -3.376e-5
-1.010, -3.684e-5
-1.009, -3.376e-5
-1.008, -3.376e-5
-1.007, -3.376e-5
-1.006, -3.376e-5
-1.005, -3.684e-5
-1.004, -3.376e-5
-1.003, -3.376e-5
-1.002, -3.376e-5
-1.001, -3.376e-5
