Potential V vs RHE, Current mA cm-2
0.4132999999999999,-0.023753002724733966
0.4122999999999999,-0.0251111255726044
0.4112999999999999,-0.02547895051056931
0.4102999999999999,-0.025705304318547718
0.4092999999999999,-0.02587506967453152
0.4082999999999999,-0.026044835030515325
0.4072999999999999,-0.026172159047503182
0.4062999999999999,-0.02627118883849373
0.4052999999999999,-0.026384365742482933
0.4042999999999999,-0.02652583687246944
0.4032999999999999,-0.02668145511545459
0.4022999999999999,-0.02682292624544109
0.4012999999999999,-0.026907808923433
0.4002999999999999,-0.026992691601424906
0.3992999999999999,-0.02709172139241545
0.3982999999999999,-0.027176604070407354
0.3972999999999999,-0.027204898296404656
0.3962999999999999,-0.027289780974396556
0.3952999999999999,-0.027374663652388463
0.3942999999999999,-0.027459546330380363
0.39329999999999987,-0.027572723234369562
0.39229999999999987,-0.02762931168636417
0.39129999999999987,-0.02764345879936281
0.39029999999999987,-0.02770004725135742
0.38929999999999987,-0.027799077042347967
0.38829999999999987,-0.027912253946337173
0.38729999999999987,-0.027954695285333123
0.38629999999999987,-0.027997136624329073
0.38529999999999986,-0.02806787218932233
0.38429999999999986,-0.028124460641316927
0.38329999999999986,-0.028223490432307482
0.38229999999999986,-0.028280078884302083
0.38129999999999986,-0.028322520223298033
0.38029999999999986,-0.028379108675292634
0.37929999999999986,-0.028463991353284535
0.37829999999999986,-0.028577168257273744
0.37729999999999986,-0.028633756709268345
0.37629999999999986,-0.028676198048264292
0.37529999999999986,-0.028718639387260245
0.37429999999999986,-0.028775227839254847
0.37329999999999985,-0.028845963404248096
0.37229999999999985,-0.028916698969241348
0.37129999999999985,-0.0289591403082373
0.37029999999999985,-0.0290723172122265
0.36929999999999985,-0.029199641229214358
0.36829999999999985,-0.029298671020204912
0.36729999999999985,-0.02935525947219951
0.36629999999999985,-0.02939770081119546
0.36529999999999985,-0.02946843637618871
0.36429999999999985,-0.029553319054180613
0.36329999999999985,-0.029652348845171168
0.36229999999999984,-0.02968064307116847
0.36129999999999984,-0.02969479018416712
0.36029999999999984,-0.02972308441016442
0.35929999999999984,-0.029807967088156324
0.35829999999999984,-0.029906996879146875
0.35729999999999984,-0.029977732444140127
0.35629999999999984,-0.030034320896134725
0.35529999999999984,-0.03006261512213203
0.35429999999999984,-0.03011920357412663
0.35329999999999984,-0.030161644913122586
0.35229999999999984,-0.030175792026121234
0.35129999999999983,-0.030218233365117184
0.35029999999999983,-0.030260674704113137
0.34929999999999983,-0.030317263156107735
0.34829999999999983,-0.03040214583409964
0.34729999999999983,-0.030458734286094236
0.34629999999999983,-0.03044458717309559
0.34529999999999983,-0.03044458717309559
0.34429999999999983,-0.030487028512091542
0.3432999999999998,-0.030543616964086147
0.3422999999999998,-0.03055776407708479
0.3412999999999998,-0.030571911190083446
0.3402999999999998,-0.030614352529079396
0.3392999999999998,-0.030642646755076695
0.3382999999999998,-0.030699235207071292
0.3372999999999998,-0.0307275294330686
0.3362999999999998,-0.030685088094072648
0.3352999999999998,-0.030699235207071292
0.3342999999999998,-0.0307275294330686
0.3332999999999998,-0.030769970772064545
0.3322999999999998,-0.030812412111060502
0.3312999999999998,-0.030840706337057794
0.3302999999999998,-0.030883147676053754
0.3292999999999998,-0.030939736128048352
0.3282999999999998,-0.030968030354045658
0.3272999999999998,-0.030982177467044306
0.3262999999999998,-0.030982177467044306
0.3252999999999999,-0.031010471693041605
0.3242999999999999,-0.031052913032037555
0.3232999999999999,-0.031081207258034853
0.3222999999999999,-0.031123648597030807
0.3212999999999999,-0.031137795710029458
0.3202999999999999,-0.031194384162024056
0.3192999999999999,-0.03129341395301461
0.3182999999999999,-0.03136414951800787
0.3172999999999999,-0.03137829663100652
0.3162999999999999,-0.031350002405009215
0.3152999999999999,-0.03132170817901191
0.3142999999999999,-0.03139244374400516
0.3132999999999999,-0.03144903219599977
0.3122999999999999,-0.03149147353499571
0.3112999999999999,-0.03147732642199706
0.3102999999999999,-0.03147732642199706
0.3092999999999999,-0.03154806198699031
0.3082999999999999,-0.03163294466498222
0.3072999999999999,-0.03161879755198357
0.3062999999999999,-0.03163294466498222
0.3052999999999999,-0.03160465043898492
0.3042999999999999,-0.03164709177798087
0.3032999999999999,-0.031731974455972776
0.3022999999999999,-0.03174612156897143
0.3012999999999999,-0.03177441579496872
0.3002999999999999,-0.031802710020966025
0.2992999999999999,-0.03181685713396468
0.2982999999999999,-0.031873445585959274
0.2972999999999999,-0.031873445585959274
0.2962999999999999,-0.031873445585959274
0.2952999999999999,-0.03190173981195658
0.2942999999999999,-0.03195832826395118
0.2932999999999999,-0.032014916715945786
0.2922999999999999,-0.03204321094194308
0.2912999999999999,-0.03204321094194308
0.2902999999999999,-0.03204321094194308
0.2892999999999999,-0.032057358054941726
0.2882999999999999,-0.032057358054941726
0.2872999999999999,-0.032085652280939035
0.2862999999999999,-0.03209979939393768
0.2852999999999999,-0.03209979939393768
0.2842999999999999,-0.03214224073293363
0.2832999999999999,-0.032184682071929586
0.2822999999999999,-0.032184682071929586
0.2812999999999999,-0.03219882918492823
0.2802999999999999,-0.03221297629792688
0.2792999999999999,-0.032255417636922835
0.2782999999999999,-0.03229785897591879
0.2772999999999999,-0.03229785897591879
0.2762999999999999,-0.03231200608891744
0.2752999999999999,-0.032340300314914736
0.2742999999999999,-0.03241103587990799
0.2732999999999999,-0.03251006567089854
0.2722999999999999,-0.032538359896895845
0.2712999999999999,-0.03258080123589179
0.2702999999999999,-0.03258080123589179
0.2692999999999999,-0.032623242574887745
0.26829999999999987,-0.03265153680088505
0.26729999999999987,-0.032637389687886396
0.26629999999999987,-0.03265153680088505
0.26529999999999987,-0.0326656839138837
0.26429999999999987,-0.032708125252879645
0.26329999999999987,-0.0327788608178729
0.26229999999999987,-0.0327788608178729
0.26129999999999987,-0.03282130215686885
0.26029999999999986,-0.0328637434958648
0.25929999999999986,-0.0329203319478594
0.25829999999999986,-0.03296277328685536
0.25729999999999986,-0.032976920399854
0.25629999999999986,-0.032976920399854
0.25529999999999986,-0.03304765596484726
0.25429999999999986,-0.03313253864283916
0.25329999999999986,-0.03321742132083106
0.25229999999999986,-0.033288156885824316
0.25129999999999986,-0.033274009772825665
0.25029999999999986,-0.03325986265982701
0.24929999999999986,-0.03330230399882296
0.24829999999999985,-0.033358892450817565
0.24729999999999985,-0.03338718667681487
0.24629999999999985,-0.03342962801581082
0.24529999999999985,-0.03348621646780542
0.24429999999999985,-0.033542804919800016
0.24329999999999985,-0.03359939337179463
0.24229999999999985,-0.03361354048479327
0.24129999999999985,-0.033627687597791917
0.24029999999999985,-0.033627687597791917
0.23929999999999985,-0.033712570275783824
0.23829999999999985,-0.03378330584077707
0.23729999999999984,-0.03381160006677438
0.23629999999999984,-0.03386818851876898
0.23529999999999984,-0.033910629857764926
0.23429999999999984,-0.034009659648755484
0.23329999999999984,-0.034108689439746036
0.23229999999999984,-0.03416527789174064
0.23129999999999984,-0.03423601345673389
0.23029999999999984,-0.03429260190872849
0.22929999999999984,-0.03440577881271769
0.22829999999999984,-0.03451895571670689
0.22729999999999984,-0.03453310282970555
0.22629999999999983,-0.0345755441687015
0.22529999999999983,-0.03458969128170015
0.22429999999999983,-0.03464627973369475
0.22329999999999983,-0.034745309524685304
0.22229999999999983,-0.03480189797667991
0.22129999999999983,-0.03485848642867451
0.22029999999999983,-0.034915074880669104
0.21929999999999983,-0.03498581044566235
0.21829999999999983,-0.03511313446265021
0.21729999999999983,-0.03518387002764346
0.21629999999999983,-0.035198017140642114
0.21529999999999982,-0.03526875270563536
0.21429999999999982,-0.03533948827062862
0.21329999999999982,-0.03545266517461782
0.21229999999999982,-0.03549510651361377
0.21129999999999982,-0.03552340073961108
0.21029999999999982,-0.035579989191605675
0.20929999999999982,-0.035664871869597575
0.20829999999999982,-0.03573560743459083
0.20729999999999982,-0.03580634299958408
0.20629999999999982,-0.035947814129570585
0.20529999999999982,-0.036032696807562485
0.20429999999999982,-0.03614587371155169
0.20329999999999981,-0.03627319772853954
0.2022999999999998,-0.03634393329353279
0.2012999999999998,-0.03635808040653144
0.20029999999999992,-0.036400521745527395
0.19929999999999992,-0.03652784576251525
0.19829999999999992,-0.03661272844050715
0.19729999999999992,-0.03669761111849905
0.19629999999999992,-0.036768346683492305
0.19529999999999992,-0.0368249351354869
0.19429999999999992,-0.03698055337847206
0.19329999999999992,-0.03709373028246127
0.19229999999999992,-0.03712202450845856
0.19129999999999991,-0.037206907186450464
0.1902999999999999,-0.037291789864442364
0.1892999999999999,-0.037404966768431566
0.1882999999999999,-0.037503996559422124
0.1872999999999999,-0.03758887923741403
0.1862999999999999,-0.03765961480240728
0.1852999999999999,-0.03771620325440188
0.1842999999999999,-0.037801085932393785
0.1832999999999999,-0.03791426283638299
0.1822999999999999,-0.03792840994938163
0.1812999999999999,-0.03802743974037219
0.1802999999999999,-0.038112322418364084
0.1792999999999999,-0.03821135220935464
0.1782999999999999,-0.03833867622634249
0.1772999999999999,-0.038423558904334396
0.1762999999999999,-0.03846600024333035
0.1752999999999999,-0.0385367358083236
0.1742999999999999,-0.03872064827730605
0.1732999999999999,-0.03883382518129525
0.1722999999999999,-0.03891870785928716
0.1712999999999999,-0.038961149198283106
0.1702999999999999,-0.03903188476327636
0.1692999999999999,-0.03913091455426691
0.1682999999999999,-0.039244091458256115
0.1672999999999999,-0.03930067991025072
0.1662999999999999,-0.03938556258824262
0.1652999999999999,-0.039442151040237225
0.1642999999999999,-0.03958362217022373
0.1632999999999999,-0.039682651961214274
0.1622999999999999,-0.039795828865203484
0.1612999999999999,-0.03992315288219133
0.1602999999999999,-0.039979741334185935
0.1592999999999999,-0.04006462401217784
0.15829999999999989,-0.04012121246417244
0.15729999999999988,-0.04016365380316839
0.15629999999999988,-0.04024853648116029
0.15529999999999988,-0.040347566272150845
0.15429999999999988,-0.04046074317614005
0.15329999999999988,-0.04057392008012925
0.15229999999999988,-0.0406163614191252
0.15129999999999988,-0.04070124409711711
0.15029999999999988,-0.04075783254911171
0.14929999999999988,-0.04085686234010226
0.14829999999999988,-0.04094174501809417
0.14729999999999988,-0.04097003924409146
0.14629999999999987,-0.04102662769608607
0.14529999999999987,-0.04108321614808067
0.14429999999999987,-0.04119639305206987
0.14329999999999987,-0.04130956995605907
0.14229999999999987,-0.041366158408053674
0.14129999999999987,-0.04139445263405097
0.14029999999999987,-0.04143689397304692
0.13929999999999987,-0.04150762953804018
0.13829999999999987,-0.04156421799003478
0.13729999999999987,-0.041606659329030724
0.13629999999999987,-0.04171983623301993
0.13529999999999986,-0.041818866024010484
0.13429999999999986,-0.04187545447600509
0.13329999999999986,-0.04194619004099834
0.13229999999999986,-0.04194619004099834
0.13129999999999986,-0.04194619004099834
0.13029999999999986,-0.042002778492992936
0.12929999999999986,-0.04208766117098484
0.12829999999999986,-0.04217254384897674
0.12729999999999986,-0.04222913230097135
0.12629999999999986,-0.04224327941396999
0.12529999999999986,-0.04231401497896324
0.12429999999999986,-0.0423847505439565
0.12329999999999985,-0.0424696332219484
0.12229999999999985,-0.042554515899940304
0.12129999999999985,-0.042582810125937606
0.12029999999999985,-0.04262525146493356
0.11929999999999985,-0.042738428368922755
0.11829999999999985,-0.042851605272911965
0.11729999999999985,-0.042950635063902516
0.11629999999999985,-0.04303551774189441
0.11529999999999985,-0.04304966485489307
0.11429999999999985,-0.043120400419886316
0.11329999999999985,-0.043191135984879565
0.11229999999999984,-0.04317698887188092
0.11129999999999984,-0.043219430210876875
0.11029999999999984,-0.04326187154987282
0.10929999999999984,-0.04333260711486608
0.10829999999999984,-0.04343163690585663
0.10729999999999984,-0.043474078244852575
0.10629999999999984,-0.04354481380984583
0.10529999999999984,-0.04357310803584313
0.10429999999999984,-0.04362969648783773
0.10329999999999984,-0.04368628493983233
0.10229999999999984,-0.04370043205283098
0.10129999999999983,-0.04371457916582964
0.10029999999999983,-0.04381360895682019
0.09929999999999983,-0.04389849163481209
0.09829999999999983,-0.04398337431280399
0.09729999999999983,-0.044025815651799936
0.09629999999999983,-0.04408240410379454
0.09529999999999983,-0.044124845442790495
0.09429999999999983,-0.04418143389478509
0.09329999999999983,-0.04425216945977835
0.09229999999999983,-0.0443229050247716
0.09129999999999983,-0.0443511992507689
0.09029999999999982,-0.044393640589764846
0.08929999999999982,-0.044464376154758095
0.08829999999999982,-0.044591700171745956
0.08729999999999982,-0.04464828862374056
0.08629999999999982,-0.04463414151074191
0.08529999999999982,-0.044676582849737856
0.08429999999999982,-0.04476146552772976
0.08329999999999982,-0.04483220109272301
0.08229999999999982,-0.04491708377071492
0.08129999999999982,-0.04493123088371357
0.08029999999999982,-0.04498781933570817
0.07929999999999982,-0.04517173180469062
0.07829999999999981,-0.045327350047675775
0.07729999999999981,-0.04548296829066093
0.07629999999999981,-0.045624439420647436
0.07529999999999992,-0.045695174985640685
0.07429999999999992,-0.04582249900262853
0.07329999999999992,-0.04590738168062044
0.07229999999999992,-0.04590738168062044
0.07129999999999992,-0.04594982301961639
0.07029999999999992,-0.046006411471611
0.06929999999999992,-0.046147882601597495
0.06829999999999992,-0.0462610595055867
0.06729999999999992,-0.046303500844582644
0.06629999999999991,-0.046360089296577256
0.06529999999999991,-0.04638838352257455
0.06429999999999991,-0.0464591190875678
0.06329999999999991,-0.0465440017655597
0.06229999999999991,-0.04657229599155701
0.06129999999999991,-0.04660059021755431
0.06029999999999991,-0.04665717866954891
0.05929999999999991,-0.04674206134754081
0.05829999999999991,-0.04684109113853137
0.05729999999999991,-0.046897679590525966
0.056299999999999906,-0.04691182670352462
0.055299999999999905,-0.04692597381652327
0.054299999999999904,-0.046968415155519215
0.0532999999999999,-0.04701085649451517
0.0522999999999999,-0.04706744494650977
0.0512999999999999,-0.04713818051150302
0.0502999999999999,-0.04720891607649628
0.0492999999999999,-0.047265504528490876
0.0482999999999999,-0.04732209298048548
0.0472999999999999,-0.04739282854547873
0.0462999999999999,-0.04742112277147603
0.045299999999999896,-0.04746356411047198
0.044299999999999895,-0.047548446788463886
0.043299999999999894,-0.047619182353457135
0.04229999999999989,-0.047633329466455786
0.04129999999999989,-0.04767577080545173
0.04029999999999989,-0.04776065348344364
0.03929999999999989,-0.04790212461343014
0.03829999999999989,-0.048029448630418
0.03729999999999989,-0.0481143313084099
0.03629999999999989,-0.048199213986401805
0.03529999999999989,-0.048284096664393705
0.034299999999999886,-0.04842556779438021
0.033299999999999885,-0.04846800913337616
0.032299999999999884,-0.04849630335937346
0.031299999999999883,-0.04855289181136806
0.030299999999999883,-0.04859533315036401
0.02929999999999988,-0.04869436294135456
0.02829999999999988,-0.04872265716735186
0.02729999999999988,-0.048807539845343764
0.02629999999999988,-0.048892422523335664
0.025299999999999878,-0.04897730520132757
0.024299999999999877,-0.04904804076632082
0.023299999999999876,-0.04916121767031002
0.022299999999999875,-0.049288541687297883
0.021299999999999875,-0.049401718591287086
0.020299999999999874,-0.04952904260827493
0.019299999999999873,-0.04962807239926549
0.018299999999999872,-0.04971295507725739
0.01729999999999987,-0.04975539641625334
0.01629999999999987,-0.049854426207243896
0.01529999999999987,-0.049939308885235796
0.014299999999999868,-0.050024191563227696
0.013299999999999867,-0.050094927128220945
0.012299999999999978,-0.0501656626932142
0.011299999999999866,-0.0502222511452088
0.010299999999999976,-0.0503071338232007
0.009299999999999864,-0.05042031072718991
0.008299999999999974,-0.05051934051818046
0.007299999999999862,-0.050590076083173716
0.006299999999999972,-0.05063251742216966
0.00529999999999986,-0.05070325298716292
0.0042999999999999705,-0.05080228277815346
0.0032999999999998586,-0.05090131256914402
0.0022999999999999687,-0.051014489473133216
0.0012999999999998568,-0.051113519264123775
0.00029999999999996696,-0.05115596060311973
-0.000700000000000145,-0.05126913750710893
-0.0017000000000000348,-0.05133987307210218
-0.0027000000000001467,-0.05135402018510083
-0.0037000000000000366,-0.051410608637095435
-0.0047000000000001485,-0.051481344202088684
-0.005700000000000038,-0.051566226880080585
-0.00670000000000015,-0.05163696244507385
-0.00770000000000004,-0.05175013934906304
-0.008700000000000152,-0.05183502202705494
-0.009700000000000042,-0.05187746336605089
-0.010700000000000154,-0.05197649315704145
-0.011700000000000044,-0.05200478738303874
-0.012700000000000156,-0.05208967006103065
-0.013700000000000045,-0.05228772964301176
-0.014700000000000157,-0.05233017098200771
-0.015700000000000047,-0.05240090654700096
-0.01670000000000016,-0.052514083450990165
-0.01770000000000005,-0.052584819015983414
-0.01870000000000016,-0.05266970169397532
-0.01970000000000005,-0.05274043725896857
-0.020700000000000163,-0.05281117282396182
-0.021700000000000053,-0.05285361416295777
-0.022700000000000164,-0.052896055501953726
-0.023700000000000054,-0.052938496840949666
-0.024700000000000166,-0.053037526631940224
-0.025700000000000056,-0.053150703535929426
-0.026700000000000168,-0.05324973332691998
-0.027700000000000058,-0.05329217466591593
-0.02870000000000017,-0.05332046889191323
-0.02970000000000006,-0.05344779290890109
-0.03070000000000017,-0.05356096981289029
-0.03170000000000006,-0.05360341115188624
-0.03270000000000017,-0.053631705377883546
-0.03370000000000006,-0.05371658805587544
-0.034700000000000175,-0.053858059185861944
-0.035700000000000065,-0.05399953031584845
-0.03670000000000018,-0.05409856010683901
-0.03770000000000007,-0.05421173701082821
-0.03870000000000018,-0.05431076680181876
-0.03970000000000007,-0.054395649479810654
-0.04070000000000018,-0.05456541483579446
-0.04170000000000007,-0.05467859173978367
-0.04270000000000018,-0.054791768643772866
-0.04370000000000007,-0.054876651321764766
-0.044700000000000184,-0.05491909266076073
-0.045700000000000074,-0.054975681112755324
-0.046700000000000186,-0.05503226956474993
-0.047700000000000076,-0.05506056379074723
-0.04870000000000019,-0.05513129935574049
-0.04970000000000008,-0.05515959358173778
-0.05070000000000019,-0.05517374069473643
-0.05170000000000008,-0.05523032914673103
-0.05270000000000019,-0.055272770485726985
-0.05370000000000008,-0.05537180027671754
-0.05470000000000019,-0.05551327140670404
-0.05570000000000008,-0.055640595423691895
-0.056700000000000195,-0.05569718387568649
-0.057700000000000085,-0.05568303676268785
-0.058700000000000196,-0.055711330988685144
-0.059700000000000086,-0.05578206655367839
-0.0607000000000002,-0.05588109634466895
-0.06170000000000009,-0.056022567474655456
-0.0627000000000002,-0.056093303039648705
-0.06370000000000009,-0.056121597265646014
-0.0647000000000002,-0.05622062705663656
-0.06570000000000009,-0.05630550973462846
-0.0667000000000002,-0.056446980864614964
-0.0677000000000001,-0.05653186354260687
-0.0687000000000002,-0.05658845199460146
