Sept. 1, 2024   15:12:56
Linear Sweep Voltammetry
File: c:/users/guazh/data/20240829_batch_215_500/2024-08-29-exp239\pre-regen-2024-09-01t15_09_53-lsvinphos\pre-regen_lsv_50mvs_efin_-1900mv.bin
Data Source:  Experiment
Instrument Model:  CHI760E
Header: LSV ran at 50 mVs with Efin at -1900mV
Note: 

Init E (V) = -0.6
Final E (V) = -1.9
Scan Rate (V/s) = 0.05
Sample Interval (V) = 0.001
Quiet Time (sec) = 2
Sensitivity (A/V) = 1e-4
Comp R (ohm) = 7.7

Results:

Channel 1:
Ep = -0.879V
ip = 1.092e-5A
Ah = 1.495e-5C

Ep = -1.203V
ip = 9.228e-5A
Ah = 2.003e-4C

Ep = -1.627V
ip = 2.944e-4A
Ah = 4.647e-4C

Potential/V, Current/A

-0.600, 3.902e-5
-0.601, 4.173e-5
-0.602, 4.381e-5
-0.603, 4.503e-5
-0.604, 4.586e-5
-0.605, 4.652e-5
-0.606, 4.706e-5
-0.607, 4.749e-5
-0.608, 4.791e-5
-0.609, 4.824e-5
-0.610, 4.852e-5
-0.611, 4.881e-5
-0.612, 4.909e-5
-0.613, 4.934e-5
-0.614, 4.957e-5
-0.615, 4.979e-5
-0.616, 4.997e-5
-0.617, 5.016e-5
-0.618, 5.032e-5
-0.619, 5.050e-5
-0.620, 5.063e-5
-0.621, 5.075e-5
-0.622, 5.089e-5
-0.623, 5.101e-5
-0.624, 5.115e-5
-0.625, 5.127e-5
-0.626, 5.140e-5
-0.627, 5.153e-5
-0.628, 5.163e-5
-0.629, 5.174e-5
-0.630, 5.183e-5
-0.631, 5.192e-5
-0.632, 5.203e-5
-0.633, 5.212e-5
-0.634, 5.223e-5
-0.635, 5.228e-5
-0.636, 5.234e-5
-0.637, 5.241e-5
-0.638, 5.250e-5
-0.639, 5.258e-5
-0.640, 5.264e-5
-0.641, 5.270e-5
-0.642, 5.274e-5
-0.643, 5.281e-5
-0.644, 5.284e-5
-0.645, 5.291e-5
-0.646, 5.294e-5
-0.647, 5.295e-5
-0.648, 5.299e-5
-0.649, 5.304e-5
-0.650, 5.310e-5
-0.651, 5.315e-5
-0.652, 5.319e-5
-0.653, 5.324e-5
-0.654, 5.328e-5
-0.655, 5.332e-5
-0.656, 5.336e-5
-0.657, 5.340e-5
-0.658, 5.343e-5
-0.659, 5.344e-5
-0.660, 5.345e-5
-0.661, 5.348e-5
-0.662, 5.351e-5
-0.663, 5.351e-5
-0.664, 5.354e-5
-0.665, 5.357e-5
-0.666, 5.363e-5
-0.667, 5.367e-5
-0.668, 5.369e-5
-0.669, 5.371e-5
-0.670, 5.372e-5
-0.671, 5.372e-5
-0.672, 5.374e-5
-0.673, 5.375e-5
-0.674, 5.376e-5
-0.675, 5.376e-5
-0.676, 5.379e-5
-0.677, 5.379e-5
-0.678, 5.380e-5
-0.679, 5.383e-5
-0.680, 5.384e-5
-0.681, 5.380e-5
-0.682, 5.379e-5
-0.683, 5.381e-5
-0.684, 5.379e-5
-0.685, 5.381e-5
-0.686, 5.384e-5
-0.687, 5.382e-5
-0.688, 5.380e-5
-0.689, 5.380e-5
-0.690, 5.380e-5
-0.691, 5.379e-5
-0.692, 5.376e-5
-0.693, 5.377e-5
-0.694, 5.377e-5
-0.695, 5.378e-5
-0.696, 5.377e-5
-0.697, 5.376e-5
-0.698, 5.374e-5
-0.699, 5.375e-5
-0.700, 5.374e-5
-0.701, 5.374e-5
-0.702, 5.373e-5
-0.703, 5.372e-5
-0.704, 5.373e-5
-0.705, 5.374e-5
-0.706, 5.373e-5
-0.707, 5.372e-5
-0.708, 5.370e-5
-0.709, 5.367e-5
-0.710, 5.365e-5
-0.711, 5.363e-5
-0.712, 5.364e-5
-0.713, 5.363e-5
-0.714, 5.363e-5
-0.715, 5.366e-5
-0.716, 5.364e-5
-0.717, 5.365e-5
-0.718, 5.370e-5
-0.719, 5.367e-5
-0.720, 5.366e-5
-0.721, 5.363e-5
-0.722, 5.363e-5
-0.723, 5.364e-5
-0.724, 5.360e-5
-0.725, 5.357e-5
-0.726, 5.359e-5
-0.727, 5.362e-5
-0.728, 5.364e-5
-0.729, 5.365e-5
-0.730, 5.364e-5
-0.731, 5.363e-5
-0.732, 5.363e-5
-0.733, 5.365e-5
-0.734, 5.366e-5
-0.735, 5.367e-5
-0.736, 5.370e-5
-0.737, 5.371e-5
-0.738, 5.372e-5
-0.739, 5.375e-5
-0.740, 5.378e-5
-0.741, 5.383e-5
-0.742, 5.390e-5
-0.743, 5.392e-5
-0.744, 5.406e-5
-0.745, 5.450e-5
-0.746, 5.430e-5
-0.747, 5.407e-5
-0.748, 5.403e-5
-0.749, 5.405e-5
-0.750, 5.412e-5
-0.751, 5.417e-5
-0.752, 5.424e-5
-0.753, 5.426e-5
-0.754, 5.427e-5
-0.755, 5.429e-5
-0.756, 5.438e-5
-0.757, 5.442e-5
-0.758, 5.448e-5
-0.759, 5.451e-5
-0.760, 5.456e-5
-0.761, 5.462e-5
-0.762, 5.467e-5
-0.763, 5.471e-5
-0.764, 5.473e-5
-0.765, 5.480e-5
-0.766, 5.489e-5
-0.767, 5.498e-5
-0.768, 5.506e-5
-0.769, 5.512e-5
-0.770, 5.514e-5
-0.771, 5.521e-5
-0.772, 5.527e-5
-0.773, 5.533e-5
-0.774, 5.541e-5
-0.775, 5.548e-5
-0.776, 5.555e-5
-0.777, 5.562e-5
-0.778, 5.570e-5
-0.779, 5.577e-5
-0.780, 5.587e-5
-0.781, 5.597e-5
-0.782, 5.609e-5
-0.783, 5.620e-5
-0.784, 5.630e-5
-0.785, 5.638e-5
-0.786, 5.644e-5
-0.787, 5.654e-5
-0.788, 5.660e-5
-0.789, 5.669e-5
-0.790, 5.680e-5
-0.791, 5.688e-5
-0.792, 5.698e-5
-0.793, 5.710e-5
-0.794, 5.718e-5
-0.795, 5.729e-5
-0.796, 5.738e-5
-0.797, 5.746e-5
-0.798, 5.754e-5
-0.799, 5.765e-5
-0.800, 5.776e-5
-0.801, 5.787e-5
-0.802, 5.795e-5
-0.803, 5.803e-5
-0.804, 5.808e-5
-0.805, 5.821e-5
-0.806, 5.836e-5
-0.807, 5.843e-5
-0.808, 5.856e-5
-0.809, 5.869e-5
-0.810, 5.877e-5
-0.811, 5.886e-5
-0.812, 5.894e-5
-0.813, 5.907e-5
-0.814, 5.915e-5
-0.815, 5.924e-5
-0.816, 5.939e-5
-0.817, 5.949e-5
-0.818, 5.957e-5
-0.819, 5.972e-5
-0.820, 5.987e-5
-0.821, 5.992e-5
-0.822, 5.998e-5
-0.823, 6.009e-5
-0.824, 6.022e-5
-0.825, 6.037e-5
-0.826, 6.049e-5
-0.827, 6.062e-5
-0.828, 6.070e-5
-0.829, 6.083e-5
-0.830, 6.099e-5
-0.831, 6.110e-5
-0.832, 6.121e-5
-0.833, 6.130e-5
-0.834, 6.138e-5
-0.835, 6.148e-5
-0.836, 6.161e-5
-0.837, 6.173e-5
-0.838, 6.189e-5
-0.839, 6.199e-5
-0.840, 6.212e-5
-0.841, 6.224e-5
-0.842, 6.230e-5
-0.843, 6.240e-5
-0.844, 6.250e-5
-0.845, 6.260e-5
-0.846, 6.269e-5
-0.847, 6.277e-5
-0.848, 6.288e-5
-0.849, 6.298e-5
-0.850, 6.305e-5
-0.851, 6.318e-5
-0.852, 6.329e-5
-0.853, 6.341e-5
-0.854, 6.351e-5
-0.855, 6.360e-5
-0.856, 6.371e-5
-0.857, 6.378e-5
-0.858, 6.385e-5
-0.859, 6.393e-5
-0.860, 6.399e-5
-0.861, 6.404e-5
-0.862, 6.416e-5
-0.863, 6.416e-5
-0.864, 6.415e-5
-0.865, 6.419e-5
-0.866, 6.424e-5
-0.867, 6.427e-5
-0.868, 6.428e-5
-0.869, 6.431e-5
-0.870, 6.438e-5
-0.871, 6.440e-5
-0.872, 6.438e-5
-0.873, 6.433e-5
-0.874, 6.436e-5
-0.875, 6.443e-5
-0.876, 6.452e-5
-0.877, 6.451e-5
-0.878, 6.452e-5
-0.879, 6.461e-5
-0.880, 6.452e-5
-0.881, 6.445e-5
-0.882, 6.445e-5
-0.883, 6.446e-5
-0.884, 6.446e-5
-0.885, 6.444e-5
-0.886, 6.439e-5
-0.887, 6.435e-5
-0.888, 6.432e-5
-0.889, 6.432e-5
-0.890, 6.426e-5
-0.891, 6.425e-5
-0.892, 6.416e-5
-0.893, 6.413e-5
-0.894, 6.401e-5
-0.895, 6.394e-5
-0.896, 6.393e-5
-0.897, 6.393e-5
-0.898, 6.388e-5
-0.899, 6.381e-5
-0.900, 6.369e-5
-0.901, 6.359e-5
-0.902, 6.350e-5
-0.903, 6.335e-5
-0.904, 6.326e-5
-0.905, 6.313e-5
-0.906, 6.297e-5
-0.907, 6.290e-5
-0.908, 6.288e-5
-0.909, 6.281e-5
-0.910, 6.269e-5
-0.911, 6.265e-5
-0.912, 6.259e-5
-0.913, 6.240e-5
-0.914, 6.226e-5
-0.915, 6.223e-5
-0.916, 6.223e-5
-0.917, 6.214e-5
-0.918, 6.202e-5
-0.919, 6.198e-5
-0.920, 6.194e-5
-0.921, 6.184e-5
-0.922, 6.173e-5
-0.923, 6.167e-5
-0.924, 6.154e-5
-0.925, 6.141e-5
-0.926, 6.131e-5
-0.927, 6.116e-5
-0.928, 6.102e-5
-0.929, 6.095e-5
-0.930, 6.087e-5
-0.931, 6.078e-5
-0.932, 6.069e-5
-0.933, 6.056e-5
-0.934, 6.045e-5
-0.935, 6.033e-5
-0.936, 6.032e-5
-0.937, 6.024e-5
-0.938, 6.015e-5
-0.939, 6.005e-5
-0.940, 5.993e-5
-0.941, 5.982e-5
-0.942, 5.976e-5
-0.943, 5.972e-5
-0.944, 5.970e-5
-0.945, 5.962e-5
-0.946, 5.952e-5
-0.947, 5.947e-5
-0.948, 5.938e-5
-0.949, 5.930e-5
-0.950, 5.929e-5
-0.951, 5.927e-5
-0.952, 5.925e-5
-0.953, 5.918e-5
-0.954, 5.911e-5
-0.955, 5.907e-5
-0.956, 5.901e-5
-0.957, 5.895e-5
-0.958, 5.898e-5
-0.959, 5.898e-5
-0.960, 5.890e-5
-0.961, 5.885e-5
-0.962, 5.878e-5
-0.963, 5.876e-5
-0.964, 5.876e-5
-0.965, 5.870e-5
-0.966, 5.872e-5
-0.967, 5.884e-5
-0.968, 5.889e-5
-0.969, 5.882e-5
-0.970, 5.878e-5
-0.971, 5.885e-5
-0.972, 5.890e-5
-0.973, 5.887e-5
-0.974, 5.884e-5
-0.975, 5.874e-5
-0.976, 5.881e-5
-0.977, 5.900e-5
-0.978, 5.908e-5
-0.979, 5.909e-5
-0.980, 5.895e-5
-0.981, 5.886e-5
-0.982, 5.892e-5
-0.983, 5.900e-5
-0.984, 5.914e-5
-0.985, 5.925e-5
-0.986, 5.935e-5
-0.987, 5.942e-5
-0.988, 5.947e-5
-0.989, 5.960e-5
-0.990, 5.972e-5
-0.991, 5.979e-5
-0.992, 5.992e-5
-0.993, 6.010e-5
-0.994, 6.030e-5
-0.995, 6.039e-5
-0.996, 6.052e-5
-0.997, 6.059e-5
-0.998, 6.091e-5
-0.999, 6.114e-5
-1.000, 6.124e-5
-1.001, 6.123e-5
-1.002, 6.134e-5
-1.003, 6.158e-5
-1.004, 6.175e-5
-1.005, 6.202e-5
-1.006, 6.235e-5
-1.007, 6.272e-5
-1.008, 6.289e-5
-1.009, 6.312e-5
-1.010, 6.332e-5
-1.011, 6.343e-5
-1.012, 6.370e-5
-1.013, 6.416e-5
-1.014, 6.434e-5
-1.015, 6.454e-5
-1.016, 6.471e-5
-1.017, 6.508e-5
-1.018, 6.543e-5
-1.019, 6.550e-5
-1.020, 6.579e-5
-1.021, 6.616e-5
-1.022, 6.661e-5
-1.023, 6.713e-5
-1.024, 6.732e-5
-1.025, 6.760e-5
-1.026, 6.790e-5
-1.027, 6.816e-5
-1.028, 6.853e-5
-1.029, 6.897e-5
-1.030, 6.925e-5
-1.031, 6.938e-5
-1.032, 6.979e-5
-1.033, 7.037e-5
-1.034, 7.057e-5
-1.035, 7.091e-5
-1.036, 7.157e-5
-1.037, 7.205e-5
-1.038, 7.243e-5
-1.039, 7.281e-5
-1.040, 7.332e-5
-1.041, 7.371e-5
-1.042, 7.419e-5
-1.043, 7.473e-5
-1.044, 7.516e-5
-1.045, 7.571e-5
-1.046, 7.637e-5
-1.047, 7.684e-5
-1.048, 7.730e-5
-1.049, 7.777e-5
-1.050, 7.839e-5
-1.051, 7.900e-5
-1.052, 7.946e-5
-1.053, 7.998e-5
-1.054, 8.051e-5
-1.055, 8.082e-5
-1.056, 8.130e-5
-1.057, 8.175e-5
-1.058, 8.250e-5
-1.059, 8.310e-5
-1.060, 8.369e-5
-1.061, 8.432e-5
-1.062, 8.468e-5
-1.063, 8.504e-5
-1.064, 8.575e-5
-1.065, 8.641e-5
-1.066, 8.709e-5
-1.067, 8.759e-5
-1.068, 8.812e-5
-1.069, 8.858e-5
-1.070, 8.920e-5
-1.071, 8.985e-5
-1.072, 9.049e-5
-1.073, 9.105e-5
-1.074, 9.165e-5
-1.075, 9.231e-5
-1.076, 9.282e-5
-1.077, 9.338e-5
-1.078, 9.401e-5
-1.079, 9.447e-5
-1.080, 9.506e-5
-1.081, 9.575e-5
-1.082, 9.644e-5
-1.083, 9.708e-5
-1.084, 9.773e-5
-1.085, 9.840e-5
-1.086, 9.898e-5
-1.087, 9.952e-5
-1.088, 1.002e-4
-1.089, 1.010e-4
-1.090, 1.016e-4
-1.091, 1.022e-4
-1.092, 1.027e-4
-1.093, 1.034e-4
-1.094, 1.041e-4
-1.095, 1.047e-4
-1.096, 1.053e-4
-1.097, 1.059e-4
-1.098, 1.065e-4
-1.099, 1.072e-4
-1.100, 1.079e-4
-1.101, 1.086e-4
-1.102, 1.092e-4
-1.103, 1.098e-4
-1.104, 1.105e-4
-1.105, 1.113e-4
-1.106, 1.120e-4
-1.107, 1.127e-4
-1.108, 1.133e-4
-1.109, 1.140e-4
-1.110, 1.146e-4
-1.111, 1.152e-4
-1.112, 1.159e-4
-1.113, 1.165e-4
-1.114, 1.170e-4
-1.115, 1.176e-4
-1.116, 1.183e-4
-1.117, 1.189e-4
-1.118, 1.195e-4
-1.119, 1.201e-4
-1.120, 1.207e-4
-1.121, 1.213e-4
-1.122, 1.218e-4
-1.123, 1.225e-4
-1.124, 1.232e-4
-1.125, 1.237e-4
-1.126, 1.242e-4
-1.127, 1.247e-4
-1.128, 1.252e-4
-1.129, 1.258e-4
-1.130, 1.264e-4
-1.131, 1.269e-4
-1.132, 1.275e-4
-1.133, 1.281e-4
-1.134, 1.286e-4
-1.135, 1.291e-4
-1.136, 1.297e-4
-1.137, 1.303e-4
-1.138, 1.309e-4
-1.139, 1.314e-4
-1.140, 1.318e-4
-1.141, 1.323e-4
-1.142, 1.329e-4
-1.143, 1.334e-4
-1.144, 1.339e-4
-1.145, 1.345e-4
-1.146, 1.350e-4
-1.147, 1.354e-4
-1.148, 1.359e-4
-1.149, 1.364e-4
-1.150, 1.368e-4
-1.151, 1.373e-4
-1.152, 1.377e-4
-1.153, 1.382e-4
-1.154, 1.386e-4
-1.155, 1.391e-4
-1.156, 1.397e-4
-1.157, 1.402e-4
-1.158, 1.406e-4
-1.159, 1.410e-4
-1.160, 1.413e-4
-1.161, 1.417e-4
-1.162, 1.422e-4
-1.163, 1.426e-4
-1.164, 1.430e-4
-1.165, 1.434e-4
-1.166, 1.437e-4
-1.167, 1.441e-4
-1.168, 1.444e-4
-1.169, 1.448e-4
-1.170, 1.452e-4
-1.171, 1.455e-4
-1.172, 1.458e-4
-1.173, 1.461e-4
-1.174, 1.465e-4
-1.175, 1.468e-4
-1.176, 1.471e-4
-1.177, 1.474e-4
-1.178, 1.477e-4
-1.179, 1.480e-4
-1.180, 1.483e-4
-1.181, 1.485e-4
-1.182, 1.488e-4
-1.183, 1.490e-4
-1.184, 1.492e-4
-1.185, 1.495e-4
-1.186, 1.497e-4
-1.187, 1.500e-4
-1.188, 1.501e-4
-1.189, 1.503e-4
-1.190, 1.506e-4
-1.191, 1.507e-4
-1.192, 1.509e-4
-1.193, 1.510e-4
-1.194, 1.511e-4
-1.195, 1.513e-4
-1.196, 1.515e-4
-1.197, 1.516e-4
-1.198, 1.516e-4
-1.199, 1.515e-4
-1.200, 1.515e-4
-1.201, 1.515e-4
-1.202, 1.516e-4
-1.203, 1.516e-4
-1.204, 1.516e-4
-1.205, 1.515e-4
-1.206, 1.516e-4
-1.207, 1.515e-4
-1.208, 1.514e-4
-1.209, 1.514e-4
-1.210, 1.513e-4
-1.211, 1.512e-4
-1.212, 1.510e-4
-1.213, 1.509e-4
-1.214, 1.508e-4
-1.215, 1.507e-4
-1.216, 1.506e-4
-1.217, 1.505e-4
-1.218, 1.503e-4
-1.219, 1.501e-4
-1.220, 1.500e-4
-1.221, 1.498e-4
-1.222, 1.496e-4
-1.223, 1.495e-4
-1.224, 1.494e-4
-1.225, 1.492e-4
-1.226, 1.490e-4
-1.227, 1.488e-4
-1.228, 1.486e-4
-1.229, 1.485e-4
-1.230, 1.483e-4
-1.231, 1.481e-4
-1.232, 1.479e-4
-1.233, 1.477e-4
-1.234, 1.476e-4
-1.235, 1.475e-4
-1.236, 1.473e-4
-1.237, 1.471e-4
-1.238, 1.469e-4
-1.239, 1.467e-4
-1.240, 1.465e-4
-1.241, 1.463e-4
-1.242, 1.462e-4
-1.243, 1.460e-4
-1.244, 1.458e-4
-1.245, 1.456e-4
-1.246, 1.454e-4
-1.247, 1.452e-4
-1.248, 1.451e-4
-1.249, 1.450e-4
-1.250, 1.448e-4
-1.251, 1.447e-4
-1.252, 1.446e-4
-1.253, 1.444e-4
-1.254, 1.442e-4
-1.255, 1.440e-4
-1.256, 1.439e-4
-1.257, 1.437e-4
-1.258, 1.436e-4
-1.259, 1.435e-4
-1.260, 1.433e-4
-1.261, 1.431e-4
-1.262, 1.430e-4
-1.263, 1.428e-4
-1.264, 1.427e-4
-1.265, 1.426e-4
-1.266, 1.425e-4
-1.267, 1.424e-4
-1.268, 1.423e-4
-1.269, 1.422e-4
-1.270, 1.421e-4
-1.271, 1.420e-4
-1.272, 1.419e-4
-1.273, 1.419e-4
-1.274, 1.417e-4
-1.275, 1.417e-4
-1.276, 1.416e-4
-1.277, 1.416e-4
-1.278, 1.415e-4
-1.279, 1.414e-4
-1.280, 1.414e-4
-1.281, 1.414e-4
-1.282, 1.414e-4
-1.283, 1.413e-4
-1.284, 1.414e-4
-1.285, 1.415e-4
-1.286, 1.416e-4
-1.287, 1.417e-4
-1.288, 1.417e-4
-1.289, 1.418e-4
-1.290, 1.418e-4
-1.291, 1.418e-4
-1.292, 1.419e-4
-1.293, 1.421e-4
-1.294, 1.422e-4
-1.295, 1.424e-4
-1.296, 1.426e-4
-1.297, 1.429e-4
-1.298, 1.431e-4
-1.299, 1.434e-4
-1.300, 1.437e-4
-1.301, 1.440e-4
-1.302, 1.443e-4
-1.303, 1.446e-4
-1.304, 1.449e-4
-1.305, 1.453e-4
-1.306, 1.457e-4
-1.307, 1.461e-4
-1.308, 1.465e-4
-1.309, 1.470e-4
-1.310, 1.475e-4
-1.311, 1.479e-4
-1.312, 1.484e-4
-1.313, 1.490e-4
-1.314, 1.495e-4
-1.315, 1.501e-4
-1.316, 1.507e-4
-1.317, 1.513e-4
-1.318, 1.519e-4
-1.319, 1.526e-4
-1.320, 1.533e-4
-1.321, 1.539e-4
-1.322, 1.547e-4
-1.323, 1.554e-4
-1.324, 1.562e-4
-1.325, 1.569e-4
-1.326, 1.577e-4
-1.327, 1.585e-4
-1.328, 1.593e-4
-1.329, 1.602e-4
-1.330, 1.610e-4
-1.331, 1.619e-4
-1.332, 1.628e-4
-1.333, 1.638e-4
-1.334, 1.647e-4
-1.335, 1.657e-4
-1.336, 1.667e-4
-1.337, 1.678e-4
-1.338, 1.688e-4
-1.339, 1.699e-4
-1.340, 1.710e-4
-1.341, 1.721e-4
-1.342, 1.732e-4
-1.343, 1.743e-4
-1.344, 1.755e-4
-1.345, 1.767e-4
-1.346, 1.779e-4
-1.347, 1.791e-4
-1.348, 1.803e-4
-1.349, 1.816e-4
-1.350, 1.829e-4
-1.351, 1.841e-4
-1.352, 1.854e-4
-1.353, 1.868e-4
-1.354, 1.881e-4
-1.355, 1.894e-4
-1.356, 1.908e-4
-1.357, 1.922e-4
-1.358, 1.937e-4
-1.359, 1.951e-4
-1.360, 1.965e-4
-1.361, 1.980e-4
-1.362, 1.995e-4
-1.363, 2.010e-4
-1.364, 2.025e-4
-1.365, 2.041e-4
-1.366, 2.056e-4
-1.367, 2.072e-4
-1.368, 2.087e-4
-1.369, 2.103e-4
-1.370, 2.120e-4
-1.371, 2.136e-4
-1.372, 2.153e-4
-1.373, 2.169e-4
-1.374, 2.186e-4
-1.375, 2.202e-4
-1.376, 2.219e-4
-1.377, 2.236e-4
-1.378, 2.254e-4
-1.379, 2.271e-4
-1.380, 2.289e-4
-1.381, 2.307e-4
-1.382, 2.325e-4
-1.383, 2.343e-4
-1.384, 2.361e-4
-1.385, 2.379e-4
-1.386, 2.397e-4
-1.387, 2.416e-4
-1.388, 2.434e-4
-1.389, 2.453e-4
-1.390, 2.472e-4
-1.391, 2.491e-4
-1.392, 2.510e-4
-1.393, 2.529e-4
-1.394, 2.549e-4
-1.395, 2.569e-4
-1.396, 2.589e-4
-1.397, 2.609e-4
-1.398, 2.628e-4
-1.399, 2.648e-4
-1.400, 2.668e-4
-1.401, 2.689e-4
-1.402, 2.709e-4
-1.403, 2.729e-4
-1.404, 2.750e-4
-1.405, 2.772e-4
-1.406, 2.794e-4
-1.407, 2.816e-4
-1.408, 2.837e-4
-1.409, 2.859e-4
-1.410, 2.880e-4
-1.411, 2.901e-4
-1.412, 2.923e-4
-1.413, 2.945e-4
-1.414, 2.967e-4
-1.415, 2.989e-4
-1.416, 3.011e-4
-1.417, 3.034e-4
-1.418, 3.057e-4
-1.419, 3.080e-4
-1.420, 3.103e-4
-1.421, 3.126e-4
-1.422, 3.149e-4
-1.423, 3.171e-4
-1.424, 3.194e-4
-1.425, 3.218e-4
-1.426, 3.241e-4
-1.427, 3.265e-4
-1.428, 3.288e-4
-1.429, 3.312e-4
-1.430, 3.336e-4
-1.431, 3.360e-4
-1.432, 3.384e-4
-1.433, 3.409e-4
-1.434, 3.434e-4
-1.435, 3.459e-4
-1.436, 3.483e-4
-1.437, 3.508e-4
-1.438, 3.533e-4
-1.439, 3.557e-4
-1.440, 3.583e-4
-1.441, 3.607e-4
-1.442, 3.633e-4
-1.443, 3.659e-4
-1.444, 3.684e-4
-1.445, 3.711e-4
-1.446, 3.736e-4
-1.447, 3.761e-4
-1.448, 3.787e-4
-1.449, 3.813e-4
-1.450, 3.839e-4
-1.451, 3.866e-4
-1.452, 3.892e-4
-1.453, 3.918e-4
-1.454, 3.945e-4
-1.455, 3.972e-4
-1.456, 4.001e-4
-1.457, 4.028e-4
-1.458, 4.055e-4
-1.459, 4.081e-4
-1.460, 4.108e-4
-1.461, 4.134e-4
-1.462, 4.162e-4
-1.463, 4.190e-4
-1.464, 4.218e-4
-1.465, 4.247e-4
-1.466, 4.275e-4
-1.467, 4.303e-4
-1.468, 4.329e-4
-1.469, 4.358e-4
-1.470, 4.386e-4
-1.471, 4.415e-4
-1.472, 4.444e-4
-1.473, 4.473e-4
-1.474, 4.502e-4
-1.475, 4.531e-4
-1.476, 4.559e-4
-1.477, 4.590e-4
-1.478, 4.618e-4
-1.479, 4.647e-4
-1.480, 4.675e-4
-1.481, 4.704e-4
-1.482, 4.733e-4
-1.483, 4.764e-4
-1.484, 4.794e-4
-1.485, 4.824e-4
-1.486, 4.854e-4
-1.487, 4.883e-4
-1.488, 4.913e-4
-1.489, 4.944e-4
-1.490, 4.975e-4
-1.491, 5.006e-4
-1.492, 5.036e-4
-1.493, 5.066e-4
-1.494, 5.096e-4
-1.495, 5.127e-4
-1.496, 5.158e-4
-1.497, 5.189e-4
-1.498, 5.220e-4
-1.499, 5.250e-4
-1.500, 5.281e-4
-1.501, 5.314e-4
-1.502, 5.345e-4
-1.503, 5.377e-4
-1.504, 5.408e-4
-1.505, 5.439e-4
-1.506, 5.470e-4
-1.507, 5.503e-4
-1.508, 5.535e-4
-1.509, 5.567e-4
-1.510, 5.598e-4
-1.511, 5.629e-4
-1.512, 5.660e-4
-1.513, 5.693e-4
-1.514, 5.726e-4
-1.515, 5.758e-4
-1.516, 5.790e-4
-1.517, 5.822e-4
-1.518, 5.856e-4
-1.519, 5.889e-4
-1.520, 5.921e-4
-1.521, 5.954e-4
-1.522, 5.986e-4
-1.523, 6.019e-4
-1.524, 6.054e-4
-1.525, 6.088e-4
-1.526, 6.122e-4
-1.527, 6.155e-4
-1.528, 6.188e-4
-1.529, 6.223e-4
-1.530, 6.259e-4
-1.531, 6.293e-4
-1.532, 6.326e-4
-1.533, 6.359e-4
-1.534, 6.396e-4
-1.535, 6.437e-4
-1.536, 6.470e-4
-1.537, 6.499e-4
-1.538, 6.532e-4
-1.539, 6.569e-4
-1.540, 6.604e-4
-1.541, 6.639e-4
-1.542, 6.674e-4
-1.543, 6.709e-4
-1.544, 6.746e-4
-1.545, 6.781e-4
-1.546, 6.816e-4
-1.547, 6.853e-4
-1.548, 6.890e-4
-1.549, 6.926e-4
-1.550, 6.962e-4
-1.551, 6.998e-4
-1.552, 7.034e-4
-1.553, 7.073e-4
-1.554, 7.109e-4
-1.555, 7.145e-4
-1.556, 7.180e-4
-1.557, 7.215e-4
-1.558, 7.252e-4
-1.559, 7.287e-4
-1.560, 7.325e-4
-1.561, 7.363e-4
-1.562, 7.401e-4
-1.563, 7.438e-4
-1.564, 7.475e-4
-1.565, 7.514e-4
-1.566, 7.552e-4
-1.567, 7.590e-4
-1.568, 7.629e-4
-1.569, 7.669e-4
-1.570, 7.706e-4
-1.571, 7.745e-4
-1.572, 7.782e-4
-1.573, 7.823e-4
-1.574, 7.864e-4
-1.575, 7.902e-4
-1.576, 7.941e-4
-1.577, 7.981e-4
-1.578, 8.020e-4
-1.579, 8.058e-4
-1.580, 8.100e-4
-1.581, 8.141e-4
-1.582, 8.181e-4
-1.583, 8.221e-4
-1.584, 8.261e-4
-1.585, 8.303e-4
-1.586, 8.343e-4
-1.587, 8.386e-4
-1.588, 8.427e-4
-1.589, 8.467e-4
-1.590, 8.508e-4
-1.591, 8.552e-4
-1.592, 8.593e-4
-1.593, 8.635e-4
-1.594, 8.679e-4
-1.595, 8.721e-4
-1.596, 8.762e-4
-1.597, 8.806e-4
-1.598, 8.847e-4
-1.599, 8.889e-4
-1.600, 8.935e-4
-1.601, 8.979e-4
-1.602, 9.021e-4
-1.603, 9.067e-4
-1.604, 9.112e-4
-1.605, 9.154e-4
-1.606, 9.199e-4
-1.607, 9.243e-4
-1.608, 9.285e-4
-1.609, 9.331e-4
-1.610, 9.374e-4
-1.611, 9.417e-4
-1.612, 9.463e-4
-1.613, 9.509e-4
-1.614, 9.553e-4
-1.615, 9.601e-4
-1.616, 9.646e-4
-1.617, 9.691e-4
-1.618, 9.739e-4
-1.619, 9.785e-4
-1.620, 9.831e-4
-1.621, 9.881e-4
-1.622, 9.927e-4
-1.623, 9.973e-4
-1.624, 1.002e-3
-1.625, 1.007e-3
-1.626, 1.011e-3
-1.627, 1.011e-3
-1.628, 1.011e-3
-1.629, 1.011e-3
-1.630, 1.011e-3
-1.631, 1.011e-3
-1.632, 1.011e-3
-1.633, 1.011e-3
-1.634, 1.011e-3
-1.635, 1.011e-3
-1.636, 1.011e-3
-1.637, 1.011e-3
-1.638, 1.011e-3
-1.639, 1.011e-3
-1.640, 1.011e-3
-1.641, 1.011e-3
-1.642, 1.011e-3
-1.643, 1.011e-3
-1.644, 1.011e-3
-1.645, 1.011e-3
-1.646, 1.011e-3
-1.647, 1.011e-3
-1.648, 1.011e-3
-1.649, 1.011e-3
-1.650, 1.011e-3
-1.651, 1.011e-3
-1.652, 1.011e-3
-1.653, 1.011e-3
-1.654, 1.011e-3
-1.655, 1.011e-3
-1.656, 1.011e-3
-1.657, 1.011e-3
-1.658, 1.011e-3
-1.659, 1.011e-3
-1.660, 1.011e-3
-1.661, 1.011e-3
-1.662, 1.011e-3
-1.663, 1.011e-3
-1.664, 1.011e-3
-1.665, 1.011e-3
-1.666, 1.011e-3
-1.667, 1.011e-3
-1.668, 1.011e-3
-1.669, 1.011e-3
-1.670, 1.011e-3
-1.671, 1.011e-3
-1.672, 1.011e-3
-1.673, 1.011e-3
-1.674, 1.011e-3
-1.675, 1.011e-3
-1.676, 1.011e-3
-1.677, 1.011e-3
-1.678, 1.011e-3
-1.679, 1.011e-3
-1.680, 1.011e-3
-1.681, 1.011e-3
-1.682, 1.011e-3
-1.683, 1.011e-3
-1.684, 1.011e-3
-1.685, 1.011e-3
-1.686, 1.011e-3
-1.687, 1.011e-3
-1.688, 1.011e-3
-1.689, 1.011e-3
-1.690, 1.011e-3
-1.691, 1.011e-3
-1.692, 1.011e-3
-1.693, 1.011e-3
-1.694, 1.011e-3
-1.695, 1.011e-3
-1.696, 1.011e-3
-1.697, 1.011e-3
-1.698, 1.011e-3
-1.699, 1.011e-3
-1.700, 1.011e-3
-1.701, 1.011e-3
-1.702, 1.011e-3
-1.703, 1.011e-3
-1.704, 1.011e-3
-1.705, 1.011e-3
-1.706, 1.011e-3
-1.707, 1.011e-3
-1.708, 1.011e-3
-1.709, 1.011e-3
-1.710, 1.011e-3
-1.711, 1.011e-3
-1.712, 1.011e-3
-1.713, 1.011e-3
-1.714, 1.011e-3
-1.715, 1.011e-3
-1.716, 1.011e-3
-1.717, 1.011e-3
-1.718, 1.011e-3
-1.719, 1.011e-3
-1.720, 1.011e-3
-1.721, 1.011e-3
-1.722, 1.011e-3
-1.723, 1.011e-3
-1.724, 1.011e-3
-1.725, 1.011e-3
-1.726, 1.011e-3
-1.727, 1.011e-3
-1.728, 1.011e-3
-1.729, 1.011e-3
-1.730, 1.011e-3
-1.731, 1.011e-3
-1.732, 1.011e-3
-1.733, 1.011e-3
-1.734, 1.011e-3
-1.735, 1.011e-3
-1.736, 1.011e-3
-1.737, 1.011e-3
-1.738, 1.011e-3
-1.739, 1.011e-3
-1.740, 1.011e-3
-1.741, 1.011e-3
-1.742, 1.011e-3
-1.743, 1.011e-3
-1.744, 1.011e-3
-1.745, 1.011e-3
-1.746, 1.011e-3
-1.747, 1.011e-3
-1.748, 1.011e-3
-1.749, 1.011e-3
-1.750, 1.011e-3
-1.751, 1.011e-3
-1.752, 1.011e-3
-1.753, 1.011e-3
-1.754, 1.011e-3
-1.755, 1.011e-3
-1.756, 1.011e-3
-1.757, 1.011e-3
-1.758, 1.011e-3
-1.759, 1.011e-3
-1.760, 1.011e-3
-1.761, 1.011e-3
-1.762, 1.011e-3
-1.763, 1.011e-3
-1.764, 1.011e-3
-1.765, 1.011e-3
-1.766, 1.011e-3
-1.767, 1.011e-3
-1.768, 1.011e-3
-1.769, 1.011e-3
-1.770, 1.011e-3
-1.771, 1.011e-3
-1.772, 1.011e-3
-1.773, 1.011e-3
-1.774, 1.011e-3
-1.775, 1.011e-3
-1.776, 1.011e-3
-1.777, 1.011e-3
-1.778, 1.011e-3
-1.779, 1.011e-3
-1.780, 1.011e-3
-1.781, 1.011e-3
-1.782, 1.011e-3
-1.783, 1.011e-3
-1.784, 1.011e-3
-1.785, 1.011e-3
-1.786, 1.011e-3
-1.787, 1.011e-3
-1.788, 1.011e-3
-1.789, 1.011e-3
-1.790, 1.011e-3
-1.791, 1.011e-3
-1.792, 1.011e-3
-1.793, 1.011e-3
-1.794, 1.011e-3
-1.795, 1.011e-3
-1.796, 1.011e-3
-1.797, 1.011e-3
-1.798, 1.011e-3
-1.799, 1.011e-3
-1.800, 1.011e-3
-1.801, 1.011e-3
-1.802, 1.011e-3
-1.803, 1.011e-3
-1.804, 1.011e-3
-1.805, 1.011e-3
-1.806, 1.011e-3
-1.807, 1.011e-3
-1.808, 1.011e-3
-1.809, 1.011e-3
-1.810, 1.011e-3
-1.811, 1.011e-3
-1.812, 1.011e-3
-1.813, 1.011e-3
-1.814, 1.011e-3
-1.815, 1.011e-3
-1.816, 1.011e-3
-1.817, 1.011e-3
-1.818, 1.011e-3
-1.819, 1.011e-3
-1.820, 1.011e-3
-1.821, 1.011e-3
-1.822, 1.011e-3
-1.823, 1.011e-3
-1.824, 1.011e-3
-1.825, 1.011e-3
-1.826, 1.011e-3
-1.827, 1.011e-3
-1.828, 1.011e-3
-1.829, 1.011e-3
-1.830, 1.011e-3
-1.831, 1.011e-3
-1.832, 1.011e-3
-1.833, 1.011e-3
-1.834, 1.011e-3
-1.835, 1.011e-3
-1.836, 1.011e-3
-1.837, 1.011e-3
-1.838, 1.011e-3
-1.839, 1.011e-3
-1.840, 1.011e-3
-1.841, 1.011e-3
-1.842, 1.011e-3
-1.843, 1.011e-3
-1.844, 1.011e-3
-1.845, 1.011e-3
-1.846, 1.011e-3
-1.847, 1.011e-3
-1.848, 1.011e-3
-1.849, 1.011e-3
-1.850, 1.011e-3
-1.851, 1.011e-3
-1.852, 1.011e-3
-1.853, 1.011e-3
-1.854, 1.011e-3
-1.855, 1.011e-3
-1.856, 1.011e-3
-1.857, 1.011e-3
-1.858, 1.011e-3
-1.859, 1.011e-3
-1.860, 1.011e-3
-1.861, 1.011e-3
-1.862, 1.011e-3
-1.863, 1.011e-3
-1.864, 1.011e-3
-1.865, 1.011e-3
-1.866, 1.011e-3
-1.867, 1.011e-3
-1.868, 1.011e-3
-1.869, 1.011e-3
-1.870, 1.011e-3
-1.871, 1.011e-3
-1.872, 1.011e-3
-1.873, 1.011e-3
-1.874, 1.011e-3
-1.875, 1.011e-3
-1.876, 1.011e-3
-1.877, 1.011e-3
-1.878, 1.011e-3
-1.879, 1.011e-3
-1.880, 1.011e-3
-1.881, 1.011e-3
-1.882, 1.011e-3
-1.883, 1.011e-3
-1.884, 1.011e-3
-1.885, 1.011e-3
-1.886, 1.011e-3
-1.887, 1.011e-3
-1.888, 1.011e-3
-1.889, 1.011e-3
-1.890, 1.011e-3
-1.891, 1.011e-3
-1.892, 1.011e-3
-1.893, 1.011e-3
-1.894, 1.011e-3
-1.895, 1.011e-3
-1.896, 1.011e-3
-1.897, 1.011e-3
-1.898, 1.011e-3
-1.899, 1.011e-3
