Dec. 14, 2024   21:11:24
Linear Sweep Voltammetry
File: c:/users/guazh/data/banditlqround7_x0exp59_r20/2024-12-09-exp661\post-regen1-2024-12-14t21_08_09-lsvinphos\post-regen1_lsv_50mvs_efin_-2300mv.bin
Data Source:  Experiment
Instrument Model:  CHI760E
Header: LSV ran at 50 mVs with Efin at -2300mV
Note: 

Init E (V) = -0.6
Final E (V) = -2.3
Scan Rate (V/s) = 0.05
Sample Interval (V) = 0.001
Quiet Time (sec) = 2
Sensitivity (A/V) = 1e-4
Comp R (ohm) = 8.3

Results:

Channel 1:
Ep = -1.662V
ip = 5.538e-4A
Ah = 8.306e-4C

Potential/V, Current/A

-0.600, 6.256e-6
-0.601, 6.386e-6
-0.602, 6.433e-6
-0.603, 6.466e-6
-0.604, 6.508e-6
-0.605, 6.518e-6
-0.606, 6.543e-6
-0.607, 6.598e-6
-0.608, 6.662e-6
-0.609, 6.712e-6
-0.610, 6.725e-6
-0.611, 6.775e-6
-0.612, 6.820e-6
-0.613, 6.813e-6
-0.614, 6.802e-6
-0.615, 6.818e-6
-0.616, 6.802e-6
-0.617, 6.872e-6
-0.618, 6.937e-6
-0.619, 7.254e-6
-0.620, 7.340e-6
-0.621, 7.383e-6
-0.622, 7.604e-6
-0.623, 7.637e-6
-0.624, 7.637e-6
-0.625, 7.731e-6
-0.626, 7.756e-6
-0.627, 7.722e-6
-0.628, 7.718e-6
-0.629, 7.751e-6
-0.630, 7.754e-6
-0.631, 7.750e-6
-0.632, 7.788e-6
-0.633, 7.811e-6
-0.634, 7.793e-6
-0.635, 7.873e-6
-0.636, 7.781e-6
-0.637, 7.751e-6
-0.638, 7.753e-6
-0.639, 7.793e-6
-0.640, 7.826e-6
-0.641, 7.845e-6
-0.642, 7.845e-6
-0.643, 7.868e-6
-0.644, 7.873e-6
-0.645, 7.904e-6
-0.646, 7.943e-6
-0.647, 7.956e-6
-0.648, 7.929e-6
-0.649, 7.920e-6
-0.650, 7.948e-6
-0.651, 8.037e-6
-0.652, 8.073e-6
-0.653, 8.072e-6
-0.654, 8.124e-6
-0.655, 8.175e-6
-0.656, 8.145e-6
-0.657, 8.182e-6
-0.658, 8.166e-6
-0.659, 8.167e-6
-0.660, 8.218e-6
-0.661, 8.233e-6
-0.662, 8.267e-6
-0.663, 8.321e-6
-0.664, 8.338e-6
-0.665, 8.327e-6
-0.666, 8.369e-6
-0.667, 8.404e-6
-0.668, 8.502e-6
-0.669, 8.528e-6
-0.670, 8.506e-6
-0.671, 8.506e-6
-0.672, 8.450e-6
-0.673, 8.440e-6
-0.674, 8.467e-6
-0.675, 8.493e-6
-0.676, 8.499e-6
-0.677, 8.523e-6
-0.678, 8.493e-6
-0.679, 8.554e-6
-0.680, 8.554e-6
-0.681, 8.625e-6
-0.682, 8.703e-6
-0.683, 8.692e-6
-0.684, 8.641e-6
-0.685, 8.626e-6
-0.686, 8.659e-6
-0.687, 8.668e-6
-0.688, 8.734e-6
-0.689, 8.809e-6
-0.690, 8.873e-6
-0.691, 8.811e-6
-0.692, 8.789e-6
-0.693, 8.731e-6
-0.694, 8.620e-6
-0.695, 8.661e-6
-0.696, 8.694e-6
-0.697, 8.811e-6
-0.698, 8.808e-6
-0.699, 8.913e-6
-0.700, 8.910e-6
-0.701, 8.771e-6
-0.702, 8.862e-6
-0.703, 8.889e-6
-0.704, 8.892e-6
-0.705, 8.881e-6
-0.706, 8.884e-6
-0.707, 8.857e-6
-0.708, 8.903e-6
-0.709, 8.931e-6
-0.710, 8.944e-6
-0.711, 9.088e-6
-0.712, 8.973e-6
-0.713, 9.037e-6
-0.714, 9.150e-6
-0.715, 9.129e-6
-0.716, 9.136e-6
-0.717, 9.123e-6
-0.718, 9.193e-6
-0.719, 9.245e-6
-0.720, 9.189e-6
-0.721, 9.209e-6
-0.722, 9.269e-6
-0.723, 9.253e-6
-0.724, 9.211e-6
-0.725, 9.208e-6
-0.726, 9.250e-6
-0.727, 9.376e-6
-0.728, 9.404e-6
-0.729, 9.347e-6
-0.730, 9.280e-6
-0.731, 9.315e-6
-0.732, 9.288e-6
-0.733, 9.338e-6
-0.734, 9.390e-6
-0.735, 9.301e-6
-0.736, 9.338e-6
-0.737, 9.336e-6
-0.738, 9.393e-6
-0.739, 9.389e-6
-0.740, 9.440e-6
-0.741, 9.425e-6
-0.742, 9.432e-6
-0.743, 9.416e-6
-0.744, 9.337e-6
-0.745, 9.356e-6
-0.746, 9.373e-6
-0.747, 9.408e-6
-0.748, 9.386e-6
-0.749, 9.386e-6
-0.750, 9.466e-6
-0.751, 9.609e-6
-0.752, 9.716e-6
-0.753, 9.647e-6
-0.754, 9.658e-6
-0.755, 9.671e-6
-0.756, 9.573e-6
-0.757, 9.507e-6
-0.758, 9.530e-6
-0.759, 9.566e-6
-0.760, 9.482e-6
-0.761, 9.518e-6
-0.762, 9.657e-6
-0.763, 9.593e-6
-0.764, 9.643e-6
-0.765, 9.640e-6
-0.766, 9.619e-6
-0.767, 9.541e-6
-0.768, 9.468e-6
-0.769, 9.480e-6
-0.770, 9.579e-6
-0.771, 9.603e-6
-0.772, 9.707e-6
-0.773, 9.911e-6
-0.774, 9.932e-6
-0.775, 9.746e-6
-0.776, 9.725e-6
-0.777, 9.752e-6
-0.778, 9.762e-6
-0.779, 9.626e-6
-0.780, 9.765e-6
-0.781, 9.838e-6
-0.782, 9.821e-6
-0.783, 9.835e-6
-0.784, 9.955e-6
-0.785, 1.011e-5
-0.786, 1.004e-5
-0.787, 9.815e-6
-0.788, 9.802e-6
-0.789, 9.777e-6
-0.790, 9.784e-6
-0.791, 9.830e-6
-0.792, 9.808e-6
-0.793, 9.751e-6
-0.794, 9.799e-6
-0.795, 9.792e-6
-0.796, 9.788e-6
-0.797, 9.765e-6
-0.798, 9.757e-6
-0.799, 9.793e-6
-0.800, 9.780e-6
-0.801, 9.815e-6
-0.802, 9.739e-6
-0.803, 9.845e-6
-0.804, 9.803e-6
-0.805, 9.822e-6
-0.806, 9.874e-6
-0.807, 9.893e-6
-0.808, 9.961e-6
-0.809, 1.009e-5
-0.810, 9.980e-6
-0.811, 9.832e-6
-0.812, 9.845e-6
-0.813, 1.006e-5
-0.814, 1.004e-5
-0.815, 1.000e-5
-0.816, 9.928e-6
-0.817, 1.006e-5
-0.818, 1.016e-5
-0.819, 1.009e-5
-0.820, 1.013e-5
-0.821, 1.006e-5
-0.822, 9.943e-6
-0.823, 1.003e-5
-0.824, 1.006e-5
-0.825, 1.007e-5
-0.826, 1.000e-5
-0.827, 9.988e-6
-0.828, 1.005e-5
-0.829, 1.010e-5
-0.830, 1.013e-5
-0.831, 1.013e-5
-0.832, 1.009e-5
-0.833, 1.005e-5
-0.834, 1.018e-5
-0.835, 1.023e-5
-0.836, 1.004e-5
-0.837, 1.002e-5
-0.838, 1.019e-5
-0.839, 1.019e-5
-0.840, 1.020e-5
-0.841, 1.020e-5
-0.842, 1.028e-5
-0.843, 1.033e-5
-0.844, 1.034e-5
-0.845, 1.033e-5
-0.846, 1.029e-5
-0.847, 1.028e-5
-0.848, 1.030e-5
-0.849, 1.032e-5
-0.850, 1.030e-5
-0.851, 1.024e-5
-0.852, 1.023e-5
-0.853, 1.026e-5
-0.854, 1.022e-5
-0.855, 1.031e-5
-0.856, 1.034e-5
-0.857, 1.038e-5
-0.858, 1.033e-5
-0.859, 1.036e-5
-0.860, 1.038e-5
-0.861, 1.034e-5
-0.862, 1.032e-5
-0.863, 1.028e-5
-0.864, 1.021e-5
-0.865, 1.012e-5
-0.866, 1.016e-5
-0.867, 1.012e-5
-0.868, 1.019e-5
-0.869, 1.019e-5
-0.870, 1.006e-5
-0.871, 1.014e-5
-0.872, 1.009e-5
-0.873, 1.007e-5
-0.874, 1.018e-5
-0.875, 1.008e-5
-0.876, 1.013e-5
-0.877, 1.018e-5
-0.878, 1.017e-5
-0.879, 1.013e-5
-0.880, 1.014e-5
-0.881, 1.019e-5
-0.882, 1.011e-5
-0.883, 1.018e-5
-0.884, 1.014e-5
-0.885, 1.014e-5
-0.886, 1.013e-5
-0.887, 1.010e-5
-0.888, 1.013e-5
-0.889, 1.012e-5
-0.890, 1.013e-5
-0.891, 1.026e-5
-0.892, 1.023e-5
-0.893, 1.024e-5
-0.894, 1.021e-5
-0.895, 1.021e-5
-0.896, 1.030e-5
-0.897, 1.033e-5
-0.898, 1.025e-5
-0.899, 1.029e-5
-0.900, 1.037e-5
-0.901, 1.040e-5
-0.902, 1.028e-5
-0.903, 1.029e-5
-0.904, 1.027e-5
-0.905, 1.032e-5
-0.906, 1.037e-5
-0.907, 1.038e-5
-0.908, 1.042e-5
-0.909, 1.045e-5
-0.910, 1.048e-5
-0.911, 1.064e-5
-0.912, 1.052e-5
-0.913, 1.045e-5
-0.914, 1.050e-5
-0.915, 1.026e-5
-0.916, 1.001e-5
-0.917, 9.893e-6
-0.918, 9.943e-6
-0.919, 9.919e-6
-0.920, 1.017e-5
-0.921, 1.026e-5
-0.922, 1.012e-5
-0.923, 1.023e-5
-0.924, 1.016e-5
-0.925, 1.027e-5
-0.926, 1.043e-5
-0.927, 1.031e-5
-0.928, 1.032e-5
-0.929, 1.034e-5
-0.930, 1.033e-5
-0.931, 1.026e-5
-0.932, 1.034e-5
-0.933, 1.041e-5
-0.934, 1.042e-5
-0.935, 1.043e-5
-0.936, 1.056e-5
-0.937, 1.059e-5
-0.938, 1.055e-5
-0.939, 1.061e-5
-0.940, 1.075e-5
-0.941, 1.080e-5
-0.942, 1.079e-5
-0.943, 1.081e-5
-0.944, 1.080e-5
-0.945, 1.092e-5
-0.946, 1.094e-5
-0.947, 1.087e-5
-0.948, 1.103e-5
-0.949, 1.109e-5
-0.950, 1.103e-5
-0.951, 1.123e-5
-0.952, 1.125e-5
-0.953, 1.124e-5
-0.954, 1.134e-5
-0.955, 1.139e-5
-0.956, 1.149e-5
-0.957, 1.143e-5
-0.958, 1.146e-5
-0.959, 1.149e-5
-0.960, 1.159e-5
-0.961, 1.156e-5
-0.962, 1.158e-5
-0.963, 1.157e-5
-0.964, 1.166e-5
-0.965, 1.174e-5
-0.966, 1.178e-5
-0.967, 1.186e-5
-0.968, 1.192e-5
-0.969, 1.197e-5
-0.970, 1.199e-5
-0.971, 1.217e-5
-0.972, 1.227e-5
-0.973, 1.228e-5
-0.974, 1.237e-5
-0.975, 1.246e-5
-0.976, 1.254e-5
-0.977, 1.264e-5
-0.978, 1.279e-5
-0.979, 1.289e-5
-0.980, 1.299e-5
-0.981, 1.308e-5
-0.982, 1.337e-5
-0.983, 1.357e-5
-0.984, 1.374e-5
-0.985, 1.392e-5
-0.986, 1.415e-5
-0.987, 1.445e-5
-0.988, 1.477e-5
-0.989, 1.496e-5
-0.990, 1.514e-5
-0.991, 1.531e-5
-0.992, 1.552e-5
-0.993, 1.575e-5
-0.994, 1.601e-5
-0.995, 1.627e-5
-0.996, 1.652e-5
-0.997, 1.694e-5
-0.998, 1.737e-5
-0.999, 1.768e-5
-1.000, 1.793e-5
-1.001, 1.823e-5
-1.002, 1.853e-5
-1.003, 1.881e-5
-1.004, 1.905e-5
-1.005, 1.947e-5
-1.006, 1.984e-5
-1.007, 2.010e-5
-1.008, 2.039e-5
-1.009, 2.056e-5
-1.010, 2.074e-5
-1.011, 2.094e-5
-1.012, 2.127e-5
-1.013, 2.155e-5
-1.014, 2.188e-5
-1.015, 2.213e-5
-1.016, 2.247e-5
-1.017, 2.262e-5
-1.018, 2.284e-5
-1.019, 2.306e-5
-1.020, 2.323e-5
-1.021, 2.345e-5
-1.022, 2.379e-5
-1.023, 2.400e-5
-1.024, 2.419e-5
-1.025, 2.440e-5
-1.026, 2.459e-5
-1.027, 2.482e-5
-1.028, 2.498e-5
-1.029, 2.519e-5
-1.030, 2.530e-5
-1.031, 2.537e-5
-1.032, 2.552e-5
-1.033, 2.567e-5
-1.034, 2.582e-5
-1.035, 2.592e-5
-1.036, 2.607e-5
-1.037, 2.613e-5
-1.038, 2.628e-5
-1.039, 2.638e-5
-1.040, 2.661e-5
-1.041, 2.686e-5
-1.042, 2.704e-5
-1.043, 2.734e-5
-1.044, 2.759e-5
-1.045, 2.777e-5
-1.046, 2.809e-5
-1.047, 2.822e-5
-1.048, 2.840e-5
-1.049, 2.868e-5
-1.050, 2.893e-5
-1.051, 2.911e-5
-1.052, 2.933e-5
-1.053, 2.921e-5
-1.054, 2.922e-5
-1.055, 2.942e-5
-1.056, 2.959e-5
-1.057, 2.975e-5
-1.058, 2.977e-5
-1.059, 2.983e-5
-1.060, 2.993e-5
-1.061, 3.043e-5
-1.062, 3.072e-5
-1.063, 3.097e-5
-1.064, 3.119e-5
-1.065, 3.135e-5
-1.066, 3.145e-5
-1.067, 3.149e-5
-1.068, 3.149e-5
-1.069, 3.176e-5
-1.070, 3.192e-5
-1.071, 3.215e-5
-1.072, 3.226e-5
-1.073, 3.241e-5
-1.074, 3.247e-5
-1.075, 3.259e-5
-1.076, 3.265e-5
-1.077, 3.287e-5
-1.078, 3.319e-5
-1.079, 3.344e-5
-1.080, 3.366e-5
-1.081, 3.371e-5
-1.082, 3.386e-5
-1.083, 3.403e-5
-1.084, 3.423e-5
-1.085, 3.432e-5
-1.086, 3.459e-5
-1.087, 3.496e-5
-1.088, 3.501e-5
-1.089, 3.506e-5
-1.090, 3.522e-5
-1.091, 3.543e-5
-1.092, 3.557e-5
-1.093, 3.579e-5
-1.094, 3.615e-5
-1.095, 3.650e-5
-1.096, 3.665e-5
-1.097, 3.691e-5
-1.098, 3.707e-5
-1.099, 3.729e-5
-1.100, 3.748e-5
-1.101, 3.757e-5
-1.102, 3.752e-5
-1.103, 3.779e-5
-1.104, 3.806e-5
-1.105, 3.821e-5
-1.106, 3.833e-5
-1.107, 3.858e-5
-1.108, 3.888e-5
-1.109, 3.903e-5
-1.110, 3.925e-5
-1.111, 3.960e-5
-1.112, 3.986e-5
-1.113, 4.015e-5
-1.114, 4.030e-5
-1.115, 4.061e-5
-1.116, 4.079e-5
-1.117, 4.135e-5
-1.118, 4.177e-5
-1.119, 4.208e-5
-1.120, 4.251e-5
-1.121, 4.280e-5
-1.122, 4.297e-5
-1.123, 4.303e-5
-1.124, 4.328e-5
-1.125, 4.359e-5
-1.126, 4.391e-5
-1.127, 4.417e-5
-1.128, 4.464e-5
-1.129, 4.519e-5
-1.130, 4.550e-5
-1.131, 4.586e-5
-1.132, 4.594e-5
-1.133, 4.630e-5
-1.134, 4.701e-5
-1.135, 4.704e-5
-1.136, 4.737e-5
-1.137, 4.760e-5
-1.138, 4.826e-5
-1.139, 4.868e-5
-1.140, 4.911e-5
-1.141, 4.983e-5
-1.142, 5.025e-5
-1.143, 5.045e-5
-1.144, 5.078e-5
-1.145, 5.110e-5
-1.146, 5.192e-5
-1.147, 5.296e-5
-1.148, 5.288e-5
-1.149, 5.299e-5
-1.150, 5.311e-5
-1.151, 5.280e-5
-1.152, 5.238e-5
-1.153, 5.340e-5
-1.154, 5.417e-5
-1.155, 5.436e-5
-1.156, 5.455e-5
-1.157, 5.534e-5
-1.158, 5.552e-5
-1.159, 5.844e-5
-1.160, 6.194e-5
-1.161, 6.210e-5
-1.162, 6.243e-5
-1.163, 6.250e-5
-1.164, 6.334e-5
-1.165, 6.362e-5
-1.166, 6.418e-5
-1.167, 6.462e-5
-1.168, 6.509e-5
-1.169, 6.494e-5
-1.170, 6.540e-5
-1.171, 6.592e-5
-1.172, 6.586e-5
-1.173, 6.592e-5
-1.174, 6.632e-5
-1.175, 6.667e-5
-1.176, 6.620e-5
-1.177, 6.600e-5
-1.178, 6.701e-5
-1.179, 6.795e-5
-1.180, 6.907e-5
-1.181, 6.914e-5
-1.182, 6.920e-5
-1.183, 6.906e-5
-1.184, 7.005e-5
-1.185, 7.120e-5
-1.186, 7.109e-5
-1.187, 7.066e-5
-1.188, 7.117e-5
-1.189, 7.164e-5
-1.190, 7.187e-5
-1.191, 7.222e-5
-1.192, 7.277e-5
-1.193, 7.309e-5
-1.194, 7.341e-5
-1.195, 7.367e-5
-1.196, 7.394e-5
-1.197, 7.454e-5
-1.198, 7.539e-5
-1.199, 7.541e-5
-1.200, 7.515e-5
-1.201, 7.538e-5
-1.202, 7.574e-5
-1.203, 7.664e-5
-1.204, 7.733e-5
-1.205, 7.758e-5
-1.206, 7.766e-5
-1.207, 7.758e-5
-1.208, 7.746e-5
-1.209, 7.772e-5
-1.210, 7.847e-5
-1.211, 7.894e-5
-1.212, 7.976e-5
-1.213, 8.020e-5
-1.214, 8.076e-5
-1.215, 8.142e-5
-1.216, 8.191e-5
-1.217, 8.203e-5
-1.218, 8.229e-5
-1.219, 8.290e-5
-1.220, 8.337e-5
-1.221, 8.380e-5
-1.222, 8.449e-5
-1.223, 8.463e-5
-1.224, 8.504e-5
-1.225, 8.555e-5
-1.226, 8.601e-5
-1.227, 8.654e-5
-1.228, 8.693e-5
-1.229, 8.722e-5
-1.230, 8.746e-5
-1.231, 8.807e-5
-1.232, 8.811e-5
-1.233, 8.887e-5
-1.234, 8.905e-5
-1.235, 8.941e-5
-1.236, 8.960e-5
-1.237, 8.957e-5
-1.238, 8.995e-5
-1.239, 9.031e-5
-1.240, 9.121e-5
-1.241, 9.136e-5
-1.242, 9.183e-5
-1.243, 9.192e-5
-1.244, 9.233e-5
-1.245, 9.273e-5
-1.246, 9.270e-5
-1.247, 9.306e-5
-1.248, 9.310e-5
-1.249, 9.334e-5
-1.250, 9.359e-5
-1.251, 9.441e-5
-1.252, 9.453e-5
-1.253, 9.423e-5
-1.254, 9.437e-5
-1.255, 9.450e-5
-1.256, 9.473e-5
-1.257, 9.526e-5
-1.258, 9.595e-5
-1.259, 9.616e-5
-1.260, 9.630e-5
-1.261, 9.649e-5
-1.262, 9.686e-5
-1.263, 9.742e-5
-1.264, 9.767e-5
-1.265, 9.825e-5
-1.266, 9.848e-5
-1.267, 9.863e-5
-1.268, 9.888e-5
-1.269, 9.911e-5
-1.270, 9.910e-5
-1.271, 9.896e-5
-1.272, 9.889e-5
-1.273, 9.916e-5
-1.274, 9.939e-5
-1.275, 9.951e-5
-1.276, 9.965e-5
-1.277, 9.984e-5
-1.278, 9.988e-5
-1.279, 9.997e-5
-1.280, 1.000e-4
-1.281, 1.001e-4
-1.282, 1.002e-4
-1.283, 1.003e-4
-1.284, 1.006e-4
-1.285, 1.006e-4
-1.286, 1.011e-4
-1.287, 1.018e-4
-1.288, 1.019e-4
-1.289, 1.020e-4
-1.290, 1.022e-4
-1.291, 1.022e-4
-1.292, 1.023e-4
-1.293, 1.024e-4
-1.294, 1.025e-4
-1.295, 1.021e-4
-1.296, 1.023e-4
-1.297, 1.027e-4
-1.298, 1.029e-4
-1.299, 1.030e-4
-1.300, 1.031e-4
-1.301, 1.032e-4
-1.302, 1.030e-4
-1.303, 1.031e-4
-1.304, 1.028e-4
-1.305, 1.027e-4
-1.306, 1.030e-4
-1.307, 1.030e-4
-1.308, 1.030e-4
-1.309, 1.030e-4
-1.310, 1.031e-4
-1.311, 1.031e-4
-1.312, 1.030e-4
-1.313, 1.029e-4
-1.314, 1.033e-4
-1.315, 1.034e-4
-1.316, 1.035e-4
-1.317, 1.037e-4
-1.318, 1.035e-4
-1.319, 1.036e-4
-1.320, 1.036e-4
-1.321, 1.035e-4
-1.322, 1.036e-4
-1.323, 1.037e-4
-1.324, 1.037e-4
-1.325, 1.038e-4
-1.326, 1.037e-4
-1.327, 1.035e-4
-1.328, 1.034e-4
-1.329, 1.035e-4
-1.330, 1.039e-4
-1.331, 1.041e-4
-1.332, 1.043e-4
-1.333, 1.047e-4
-1.334, 1.049e-4
-1.335, 1.044e-4
-1.336, 1.049e-4
-1.337, 1.049e-4
-1.338, 1.052e-4
-1.339, 1.054e-4
-1.340, 1.057e-4
-1.341, 1.058e-4
-1.342, 1.061e-4
-1.343, 1.062e-4
-1.344, 1.069e-4
-1.345, 1.087e-4
-1.346, 1.087e-4
-1.347, 1.087e-4
-1.348, 1.086e-4
-1.349, 1.087e-4
-1.350, 1.090e-4
-1.351, 1.091e-4
-1.352, 1.094e-4
-1.353, 1.096e-4
-1.354, 1.095e-4
-1.355, 1.097e-4
-1.356, 1.100e-4
-1.357, 1.109e-4
-1.358, 1.110e-4
-1.359, 1.112e-4
-1.360, 1.111e-4
-1.361, 1.113e-4
-1.362, 1.114e-4
-1.363, 1.116e-4
-1.364, 1.119e-4
-1.365, 1.121e-4
-1.366, 1.125e-4
-1.367, 1.130e-4
-1.368, 1.133e-4
-1.369, 1.138e-4
-1.370, 1.141e-4
-1.371, 1.144e-4
-1.372, 1.145e-4
-1.373, 1.148e-4
-1.374, 1.154e-4
-1.375, 1.161e-4
-1.376, 1.163e-4
-1.377, 1.168e-4
-1.378, 1.174e-4
-1.379, 1.177e-4
-1.380, 1.186e-4
-1.381, 1.191e-4
-1.382, 1.195e-4
-1.383, 1.201e-4
-1.384, 1.208e-4
-1.385, 1.213e-4
-1.386, 1.219e-4
-1.387, 1.225e-4
-1.388, 1.229e-4
-1.389, 1.234e-4
-1.390, 1.241e-4
-1.391, 1.252e-4
-1.392, 1.257e-4
-1.393, 1.261e-4
-1.394, 1.266e-4
-1.395, 1.274e-4
-1.396, 1.284e-4
-1.397, 1.292e-4
-1.398, 1.298e-4
-1.399, 1.307e-4
-1.400, 1.316e-4
-1.401, 1.321e-4
-1.402, 1.330e-4
-1.403, 1.343e-4
-1.404, 1.351e-4
-1.405, 1.360e-4
-1.406, 1.370e-4
-1.407, 1.379e-4
-1.408, 1.387e-4
-1.409, 1.397e-4
-1.410, 1.407e-4
-1.411, 1.416e-4
-1.412, 1.422e-4
-1.413, 1.433e-4
-1.414, 1.444e-4
-1.415, 1.454e-4
-1.416, 1.463e-4
-1.417, 1.474e-4
-1.418, 1.484e-4
-1.419, 1.494e-4
-1.420, 1.506e-4
-1.421, 1.517e-4
-1.422, 1.529e-4
-1.423, 1.539e-4
-1.424, 1.550e-4
-1.425, 1.559e-4
-1.426, 1.571e-4
-1.427, 1.585e-4
-1.428, 1.597e-4
-1.429, 1.609e-4
-1.430, 1.622e-4
-1.431, 1.633e-4
-1.432, 1.644e-4
-1.433, 1.657e-4
-1.434, 1.671e-4
-1.435, 1.685e-4
-1.436, 1.700e-4
-1.437, 1.713e-4
-1.438, 1.725e-4
-1.439, 1.739e-4
-1.440, 1.755e-4
-1.441, 1.770e-4
-1.442, 1.785e-4
-1.443, 1.800e-4
-1.444, 1.815e-4
-1.445, 1.830e-4
-1.446, 1.846e-4
-1.447, 1.861e-4
-1.448, 1.877e-4
-1.449, 1.892e-4
-1.450, 1.908e-4
-1.451, 1.924e-4
-1.452, 1.940e-4
-1.453, 1.957e-4
-1.454, 1.973e-4
-1.455, 1.985e-4
-1.456, 2.001e-4
-1.457, 2.017e-4
-1.458, 2.034e-4
-1.459, 2.051e-4
-1.460, 2.070e-4
-1.461, 2.088e-4
-1.462, 2.106e-4
-1.463, 2.124e-4
-1.464, 2.144e-4
-1.465, 2.164e-4
-1.466, 2.183e-4
-1.467, 2.203e-4
-1.468, 2.224e-4
-1.469, 2.246e-4
-1.470, 2.267e-4
-1.471, 2.288e-4
-1.472, 2.309e-4
-1.473, 2.329e-4
-1.474, 2.349e-4
-1.475, 2.370e-4
-1.476, 2.392e-4
-1.477, 2.415e-4
-1.478, 2.438e-4
-1.479, 2.460e-4
-1.480, 2.480e-4
-1.481, 2.502e-4
-1.482, 2.522e-4
-1.483, 2.541e-4
-1.484, 2.564e-4
-1.485, 2.588e-4
-1.486, 2.612e-4
-1.487, 2.637e-4
-1.488, 2.660e-4
-1.489, 2.686e-4
-1.490, 2.711e-4
-1.491, 2.735e-4
-1.492, 2.760e-4
-1.493, 2.785e-4
-1.494, 2.810e-4
-1.495, 2.834e-4
-1.496, 2.860e-4
-1.497, 2.886e-4
-1.498, 2.911e-4
-1.499, 2.939e-4
-1.500, 2.964e-4
-1.501, 2.989e-4
-1.502, 3.015e-4
-1.503, 3.042e-4
-1.504, 3.070e-4
-1.505, 3.097e-4
-1.506, 3.124e-4
-1.507, 3.154e-4
-1.508, 3.183e-4
-1.509, 3.212e-4
-1.510, 3.240e-4
-1.511, 3.267e-4
-1.512, 3.294e-4
-1.513, 3.324e-4
-1.514, 3.352e-4
-1.515, 3.381e-4
-1.516, 3.411e-4
-1.517, 3.440e-4
-1.518, 3.469e-4
-1.519, 3.498e-4
-1.520, 3.528e-4
-1.521, 3.560e-4
-1.522, 3.592e-4
-1.523, 3.623e-4
-1.524, 3.654e-4
-1.525, 3.686e-4
-1.526, 3.718e-4
-1.527, 3.750e-4
-1.528, 3.781e-4
-1.529, 3.815e-4
-1.530, 3.848e-4
-1.531, 3.880e-4
-1.532, 3.913e-4
-1.533, 3.946e-4
-1.534, 3.981e-4
-1.535, 4.015e-4
-1.536, 4.050e-4
-1.537, 4.084e-4
-1.538, 4.119e-4
-1.539, 4.153e-4
-1.540, 4.187e-4
-1.541, 4.221e-4
-1.542, 4.256e-4
-1.543, 4.291e-4
-1.544, 4.326e-4
-1.545, 4.361e-4
-1.546, 4.396e-4
-1.547, 4.431e-4
-1.548, 4.467e-4
-1.549, 4.504e-4
-1.550, 4.541e-4
-1.551, 4.577e-4
-1.552, 4.614e-4
-1.553, 4.651e-4
-1.554, 4.686e-4
-1.555, 4.719e-4
-1.556, 4.757e-4
-1.557, 4.797e-4
-1.558, 4.835e-4
-1.559, 4.866e-4
-1.560, 4.901e-4
-1.561, 4.940e-4
-1.562, 4.978e-4
-1.563, 5.017e-4
-1.564, 5.057e-4
-1.565, 5.097e-4
-1.566, 5.137e-4
-1.567, 5.176e-4
-1.568, 5.215e-4
-1.569, 5.256e-4
-1.570, 5.297e-4
-1.571, 5.337e-4
-1.572, 5.379e-4
-1.573, 5.420e-4
-1.574, 5.462e-4
-1.575, 5.503e-4
-1.576, 5.545e-4
-1.577, 5.588e-4
-1.578, 5.630e-4
-1.579, 5.672e-4
-1.580, 5.715e-4
-1.581, 5.758e-4
-1.582, 5.802e-4
-1.583, 5.845e-4
-1.584, 5.889e-4
-1.585, 5.934e-4
-1.586, 5.978e-4
-1.587, 6.022e-4
-1.588, 6.067e-4
-1.589, 6.113e-4
-1.590, 6.159e-4
-1.591, 6.205e-4
-1.592, 6.251e-4
-1.593, 6.297e-4
-1.594, 6.343e-4
-1.595, 6.388e-4
-1.596, 6.433e-4
-1.597, 6.480e-4
-1.598, 6.528e-4
-1.599, 6.577e-4
-1.600, 6.625e-4
-1.601, 6.673e-4
-1.602, 6.722e-4
-1.603, 6.772e-4
-1.604, 6.821e-4
-1.605, 6.870e-4
-1.606, 6.919e-4
-1.607, 6.967e-4
-1.608, 7.017e-4
-1.609, 7.066e-4
-1.610, 7.116e-4
-1.611, 7.168e-4
-1.612, 7.218e-4
-1.613, 7.269e-4
-1.614, 7.321e-4
-1.615, 7.373e-4
-1.616, 7.426e-4
-1.617, 7.478e-4
-1.618, 7.531e-4
-1.619, 7.585e-4
-1.620, 7.638e-4
-1.621, 7.691e-4
-1.622, 7.746e-4
-1.623, 7.800e-4
-1.624, 7.855e-4
-1.625, 7.910e-4
-1.626, 7.965e-4
-1.627, 8.020e-4
-1.628, 8.076e-4
-1.629, 8.132e-4
-1.630, 8.188e-4
-1.631, 8.245e-4
-1.632, 8.303e-4
-1.633, 8.360e-4
-1.634, 8.418e-4
-1.635, 8.476e-4
-1.636, 8.534e-4
-1.637, 8.592e-4
-1.638, 8.651e-4
-1.639, 8.711e-4
-1.640, 8.770e-4
-1.641, 8.828e-4
-1.642, 8.888e-4
-1.643, 8.948e-4
-1.644, 9.008e-4
-1.645, 9.068e-4
-1.646, 9.128e-4
-1.647, 9.189e-4
-1.648, 9.250e-4
-1.649, 9.311e-4
-1.650, 9.374e-4
-1.651, 9.436e-4
-1.652, 9.498e-4
-1.653, 9.562e-4
-1.654, 9.625e-4
-1.655, 9.688e-4
-1.656, 9.752e-4
-1.657, 9.816e-4
-1.658, 9.880e-4
-1.659, 9.945e-4
-1.660, 1.001e-3
-1.661, 1.008e-3
-1.662, 1.011e-3
-1.663, 1.011e-3
-1.664, 1.011e-3
-1.665, 1.011e-3
-1.666, 1.011e-3
-1.667, 1.011e-3
-1.668, 1.011e-3
-1.669, 1.011e-3
-1.670, 1.011e-3
-1.671, 1.011e-3
-1.672, 1.011e-3
-1.673, 1.011e-3
-1.674, 1.011e-3
-1.675, 1.011e-3
-1.676, 1.011e-3
-1.677, 1.011e-3
-1.678, 1.011e-3
-1.679, 1.011e-3
-1.680, 1.011e-3
-1.681, 1.011e-3
-1.682, 1.011e-3
-1.683, 1.011e-3
-1.684, 1.011e-3
-1.685, 1.011e-3
-1.686, 1.011e-3
-1.687, 1.011e-3
-1.688, 1.011e-3
-1.689, 1.011e-3
-1.690, 1.011e-3
-1.691, 1.011e-3
-1.692, 1.011e-3
-1.693, 1.011e-3
-1.694, 1.011e-3
-1.695, 1.011e-3
-1.696, 1.011e-3
-1.697, 1.011e-3
-1.698, 1.011e-3
-1.699, 1.011e-3
-1.700, 1.011e-3
-1.701, 1.011e-3
-1.702, 1.011e-3
-1.703, 1.011e-3
-1.704, 1.011e-3
-1.705, 1.011e-3
-1.706, 1.011e-3
-1.707, 1.011e-3
-1.708, 1.011e-3
-1.709, 1.011e-3
-1.710, 1.011e-3
-1.711, 1.011e-3
-1.712, 1.011e-3
-1.713, 1.011e-3
-1.714, 1.011e-3
-1.715, 1.011e-3
-1.716, 1.011e-3
-1.717, 1.011e-3
-1.718, 1.011e-3
-1.719, 1.011e-3
-1.720, 1.011e-3
-1.721, 1.011e-3
-1.722, 1.011e-3
-1.723, 1.011e-3
-1.724, 1.011e-3
-1.725, 1.011e-3
-1.726, 1.011e-3
-1.727, 1.011e-3
-1.728, 1.011e-3
-1.729, 1.011e-3
-1.730, 1.011e-3
-1.731, 1.011e-3
-1.732, 1.011e-3
-1.733, 1.011e-3
-1.734, 1.011e-3
-1.735, 1.011e-3
-1.736, 1.011e-3
-1.737, 1.011e-3
-1.738, 1.011e-3
-1.739, 1.011e-3
-1.740, 1.011e-3
-1.741, 1.011e-3
-1.742, 1.011e-3
-1.743, 1.011e-3
-1.744, 1.011e-3
-1.745, 1.011e-3
-1.746, 1.011e-3
-1.747, 1.011e-3
-1.748, 1.011e-3
-1.749, 1.011e-3
-1.750, 1.011e-3
-1.751, 1.011e-3
-1.752, 1.011e-3
-1.753, 1.011e-3
-1.754, 1.011e-3
-1.755, 1.011e-3
-1.756, 1.011e-3
-1.757, 1.011e-3
-1.758, 1.011e-3
-1.759, 1.011e-3
-1.760, 1.011e-3
-1.761, 1.011e-3
-1.762, 1.011e-3
-1.763, 1.011e-3
-1.764, 1.011e-3
-1.765, 1.011e-3
-1.766, 1.011e-3
-1.767, 1.011e-3
-1.768, 1.011e-3
-1.769, 1.011e-3
-1.770, 1.011e-3
-1.771, 1.011e-3
-1.772, 1.011e-3
-1.773, 1.011e-3
-1.774, 1.011e-3
-1.775, 1.011e-3
-1.776, 1.011e-3
-1.777, 1.011e-3
-1.778, 1.011e-3
-1.779, 1.011e-3
-1.780, 1.011e-3
-1.781, 1.011e-3
-1.782, 1.011e-3
-1.783, 1.011e-3
-1.784, 1.011e-3
-1.785, 1.011e-3
-1.786, 1.011e-3
-1.787, 1.011e-3
-1.788, 1.011e-3
-1.789, 1.011e-3
-1.790, 1.011e-3
-1.791, 1.011e-3
-1.792, 1.011e-3
-1.793, 1.011e-3
-1.794, 1.011e-3
-1.795, 1.011e-3
-1.796, 1.011e-3
-1.797, 1.011e-3
-1.798, 1.011e-3
-1.799, 1.011e-3
-1.800, 1.011e-3
-1.801, 1.011e-3
-1.802, 1.011e-3
-1.803, 1.011e-3
-1.804, 1.011e-3
-1.805, 1.011e-3
-1.806, 1.011e-3
-1.807, 1.011e-3
-1.808, 1.011e-3
-1.809, 1.011e-3
-1.810, 1.011e-3
-1.811, 1.011e-3
-1.812, 1.011e-3
-1.813, 1.011e-3
-1.814, 1.011e-3
-1.815, 1.011e-3
-1.816, 1.011e-3
-1.817, 1.011e-3
-1.818, 1.011e-3
-1.819, 1.011e-3
-1.820, 1.011e-3
-1.821, 1.011e-3
-1.822, 1.011e-3
-1.823, 1.011e-3
-1.824, 1.011e-3
-1.825, 1.011e-3
-1.826, 1.011e-3
-1.827, 1.011e-3
-1.828, 1.011e-3
-1.829, 1.011e-3
-1.830, 1.011e-3
-1.831, 1.011e-3
-1.832, 1.011e-3
-1.833, 1.011e-3
-1.834, 1.011e-3
-1.835, 1.011e-3
-1.836, 1.011e-3
-1.837, 1.011e-3
-1.838, 1.011e-3
-1.839, 1.011e-3
-1.840, 1.011e-3
-1.841, 1.011e-3
-1.842, 1.011e-3
-1.843, 1.011e-3
-1.844, 1.011e-3
-1.845, 1.011e-3
-1.846, 1.011e-3
-1.847, 1.011e-3
-1.848, 1.011e-3
-1.849, 1.011e-3
-1.850, 1.011e-3
-1.851, 1.011e-3
-1.852, 1.011e-3
-1.853, 1.011e-3
-1.854, 1.011e-3
-1.855, 1.011e-3
-1.856, 1.011e-3
-1.857, 1.011e-3
-1.858, 1.011e-3
-1.859, 1.011e-3
-1.860, 1.011e-3
-1.861, 1.011e-3
-1.862, 1.011e-3
-1.863, 1.011e-3
-1.864, 1.011e-3
-1.865, 1.011e-3
-1.866, 1.011e-3
-1.867, 1.011e-3
-1.868, 1.011e-3
-1.869, 1.011e-3
-1.870, 1.011e-3
-1.871, 1.011e-3
-1.872, 1.011e-3
-1.873, 1.011e-3
-1.874, 1.011e-3
-1.875, 1.011e-3
-1.876, 1.011e-3
-1.877, 1.011e-3
-1.878, 1.011e-3
-1.879, 1.011e-3
-1.880, 1.011e-3
-1.881, 1.011e-3
-1.882, 1.011e-3
-1.883, 1.011e-3
-1.884, 1.011e-3
-1.885, 1.011e-3
-1.886, 1.011e-3
-1.887, 1.011e-3
-1.888, 1.011e-3
-1.889, 1.011e-3
-1.890, 1.011e-3
-1.891, 1.011e-3
-1.892, 1.011e-3
-1.893, 1.011e-3
-1.894, 1.011e-3
-1.895, 1.011e-3
-1.896, 1.011e-3
-1.897, 1.011e-3
-1.898, 1.011e-3
-1.899, 1.011e-3
-1.900, 1.011e-3
-1.901, 1.011e-3
-1.902, 1.011e-3
-1.903, 1.011e-3
-1.904, 1.011e-3
-1.905, 1.011e-3
-1.906, 1.011e-3
-1.907, 1.011e-3
-1.908, 1.011e-3
-1.909, 1.011e-3
-1.910, 1.011e-3
-1.911, 1.011e-3
-1.912, 1.011e-3
-1.913, 1.011e-3
-1.914, 1.011e-3
-1.915, 1.011e-3
-1.916, 1.011e-3
-1.917, 1.011e-3
-1.918, 1.011e-3
-1.919, 1.011e-3
-1.920, 1.011e-3
-1.921, 1.011e-3
-1.922, 1.011e-3
-1.923, 1.011e-3
-1.924, 1.011e-3
-1.925, 1.011e-3
-1.926, 1.011e-3
-1.927, 1.011e-3
-1.928, 1.011e-3
-1.929, 1.011e-3
-1.930, 1.011e-3
-1.931, 1.011e-3
-1.932, 1.011e-3
-1.933, 1.011e-3
-1.934, 1.011e-3
-1.935, 1.011e-3
-1.936, 1.011e-3
-1.937, 1.011e-3
-1.938, 1.011e-3
-1.939, 1.011e-3
-1.940, 1.011e-3
-1.941, 1.011e-3
-1.942, 1.011e-3
-1.943, 1.011e-3
-1.944, 1.011e-3
-1.945, 1.011e-3
-1.946, 1.011e-3
-1.947, 1.011e-3
-1.948, 1.011e-3
-1.949, 1.011e-3
-1.950, 1.011e-3
-1.951, 1.011e-3
-1.952, 1.011e-3
-1.953, 1.011e-3
-1.954, 1.011e-3
-1.955, 1.011e-3
-1.956, 1.011e-3
-1.957, 1.011e-3
-1.958, 1.011e-3
-1.959, 1.011e-3
-1.960, 1.011e-3
-1.961, 1.011e-3
-1.962, 1.011e-3
-1.963, 1.011e-3
-1.964, 1.011e-3
-1.965, 1.011e-3
-1.966, 1.011e-3
-1.967, 1.011e-3
-1.968, 1.011e-3
-1.969, 1.011e-3
-1.970, 1.011e-3
-1.971, 1.011e-3
-1.972, 1.011e-3
-1.973, 1.011e-3
-1.974, 1.011e-3
-1.975, 1.011e-3
-1.976, 1.011e-3
-1.977, 1.011e-3
-1.978, 1.011e-3
-1.979, 1.011e-3
-1.980, 1.011e-3
-1.981, 1.011e-3
-1.982, 1.011e-3
-1.983, 1.011e-3
-1.984, 1.011e-3
-1.985, 1.011e-3
-1.986, 1.011e-3
-1.987, 1.011e-3
-1.988, 1.011e-3
-1.989, 1.011e-3
-1.990, 1.011e-3
-1.991, 1.011e-3
-1.992, 1.011e-3
-1.993, 1.011e-3
-1.994, 1.011e-3
-1.995, 1.011e-3
-1.996, 1.011e-3
-1.997, 1.011e-3
-1.998, 1.011e-3
-1.999, 1.011e-3
-2.000, 1.011e-3
-2.001, 1.011e-3
-2.002, 1.011e-3
-2.003, 1.011e-3
-2.004, 1.011e-3
-2.005, 1.011e-3
-2.006, 1.011e-3
-2.007, 1.011e-3
-2.008, 1.011e-3
-2.009, 1.011e-3
-2.010, 1.011e-3
-2.011, 1.011e-3
-2.012, 1.011e-3
-2.013, 1.011e-3
-2.014, 1.011e-3
-2.015, 1.011e-3
-2.016, 1.011e-3
-2.017, 1.011e-3
-2.018, 1.011e-3
-2.019, 1.011e-3
-2.020, 1.011e-3
-2.021, 1.011e-3
-2.022, 1.011e-3
-2.023, 1.011e-3
-2.024, 1.011e-3
-2.025, 1.011e-3
-2.026, 1.011e-3
-2.027, 1.011e-3
-2.028, 1.011e-3
-2.029, 1.011e-3
-2.030, 1.011e-3
-2.031, 1.011e-3
-2.032, 1.011e-3
-2.033, 1.011e-3
-2.034, 1.011e-3
-2.035, 1.011e-3
-2.036, 1.011e-3
-2.037, 1.011e-3
-2.038, 1.011e-3
-2.039, 1.011e-3
-2.040, 1.011e-3
-2.041, 1.011e-3
-2.042, 1.011e-3
-2.043, 1.011e-3
-2.044, 1.011e-3
-2.045, 1.011e-3
-2.046, 1.011e-3
-2.047, 1.011e-3
-2.048, 1.011e-3
-2.049, 1.011e-3
-2.050, 1.011e-3
-2.051, 1.011e-3
-2.052, 1.011e-3
-2.053, 1.011e-3
-2.054, 1.011e-3
-2.055, 1.011e-3
-2.056, 1.011e-3
-2.057, 1.011e-3
-2.058, 1.011e-3
-2.059, 1.011e-3
-2.060, 1.011e-3
-2.061, 1.011e-3
-2.062, 1.011e-3
-2.063, 1.011e-3
-2.064, 1.011e-3
-2.065, 1.011e-3
-2.066, 1.011e-3
-2.067, 1.011e-3
-2.068, 1.011e-3
-2.069, 1.011e-3
-2.070, 1.011e-3
-2.071, 1.011e-3
-2.072, 1.011e-3
-2.073, 1.011e-3
-2.074, 1.011e-3
-2.075, 1.011e-3
-2.076, 1.011e-3
-2.077, 1.011e-3
-2.078, 1.011e-3
-2.079, 1.011e-3
-2.080, 1.011e-3
-2.081, 1.011e-3
-2.082, 1.011e-3
-2.083, 1.011e-3
-2.084, 1.011e-3
-2.085, 1.011e-3
-2.086, 1.011e-3
-2.087, 1.011e-3
-2.088, 1.011e-3
-2.089, 1.011e-3
-2.090, 1.011e-3
-2.091, 1.011e-3
-2.092, 1.011e-3
-2.093, 1.011e-3
-2.094, 1.011e-3
-2.095, 1.011e-3
-2.096, 1.011e-3
-2.097, 1.011e-3
-2.098, 1.011e-3
-2.099, 1.011e-3
-2.100, 1.011e-3
-2.101, 1.011e-3
-2.102, 1.011e-3
-2.103, 1.011e-3
-2.104, 1.011e-3
-2.105, 1.011e-3
-2.106, 1.011e-3
-2.107, 1.011e-3
-2.108, 1.011e-3
-2.109, 1.011e-3
-2.110, 1.011e-3
-2.111, 1.011e-3
-2.112, 1.011e-3
-2.113, 1.011e-3
-2.114, 1.011e-3
-2.115, 1.011e-3
-2.116, 1.011e-3
-2.117, 1.011e-3
-2.118, 1.011e-3
-2.119, 1.011e-3
-2.120, 1.011e-3
-2.121, 1.011e-3
-2.122, 1.011e-3
-2.123, 1.011e-3
-2.124, 1.011e-3
-2.125, 1.011e-3
-2.126, 1.011e-3
-2.127, 1.011e-3
-2.128, 1.011e-3
-2.129, 1.011e-3
-2.130, 1.011e-3
-2.131, 1.011e-3
-2.132, 1.011e-3
-2.133, 1.011e-3
-2.134, 1.011e-3
-2.135, 1.011e-3
-2.136, 1.011e-3
-2.137, 1.011e-3
-2.138, 1.011e-3
-2.139, 1.011e-3
-2.140, 1.011e-3
-2.141, 1.011e-3
-2.142, 1.011e-3
-2.143, 1.011e-3
-2.144, 1.011e-3
-2.145, 1.011e-3
-2.146, 1.011e-3
-2.147, 1.011e-3
-2.148, 1.011e-3
-2.149, 1.011e-3
-2.150, 1.011e-3
-2.151, 1.011e-3
-2.152, 1.011e-3
-2.153, 1.011e-3
-2.154, 1.011e-3
-2.155, 1.011e-3
-2.156, 1.011e-3
-2.157, 1.011e-3
-2.158, 1.011e-3
-2.159, 1.011e-3
-2.160, 1.011e-3
-2.161, 1.011e-3
-2.162, 1.011e-3
-2.163, 1.011e-3
-2.164, 1.011e-3
-2.165, 1.011e-3
-2.166, 1.011e-3
-2.167, 1.011e-3
-2.168, 1.011e-3
-2.169, 1.011e-3
-2.170, 1.011e-3
-2.171, 1.011e-3
-2.172, 1.011e-3
-2.173, 1.011e-3
-2.174, 1.011e-3
-2.175, 1.011e-3
-2.176, 1.011e-3
-2.177, 1.011e-3
-2.178, 1.011e-3
-2.179, 1.011e-3
-2.180, 1.011e-3
-2.181, 1.011e-3
-2.182, 1.011e-3
-2.183, 1.011e-3
-2.184, 1.011e-3
-2.185, 1.011e-3
-2.186, 1.011e-3
-2.187, 1.011e-3
-2.188, 1.011e-3
-2.189, 1.011e-3
-2.190, 1.011e-3
-2.191, 1.011e-3
-2.192, 1.011e-3
-2.193, 1.011e-3
-2.194, 1.011e-3
-2.195, 1.011e-3
-2.196, 1.011e-3
-2.197, 1.011e-3
-2.198, 1.011e-3
-2.199, 1.011e-3
-2.200, 1.011e-3
-2.201, 1.011e-3
-2.202, 1.011e-3
-2.203, 1.011e-3
-2.204, 1.011e-3
-2.205, 1.011e-3
-2.206, 1.011e-3
-2.207, 1.011e-3
-2.208, 1.011e-3
-2.209, 1.011e-3
-2.210, 1.011e-3
-2.211, 1.011e-3
-2.212, 1.011e-3
-2.213, 1.011e-3
-2.214, 1.011e-3
-2.215, 1.011e-3
-2.216, 1.011e-3
-2.217, 1.011e-3
-2.218, 1.011e-3
-2.219, 1.011e-3
-2.220, 1.011e-3
-2.221, 1.011e-3
-2.222, 1.011e-3
-2.223, 1.011e-3
-2.224, 1.011e-3
-2.225, 1.011e-3
-2.226, 1.011e-3
-2.227, 1.011e-3
-2.228, 1.011e-3
-2.229, 1.011e-3
-2.230, 1.011e-3
-2.231, 1.011e-3
-2.232, 1.011e-3
-2.233, 1.011e-3
-2.234, 1.011e-3
-2.235, 1.011e-3
-2.236, 1.011e-3
-2.237, 1.011e-3
-2.238, 1.011e-3
-2.239, 1.011e-3
-2.240, 1.011e-3
-2.241, 1.011e-3
-2.242, 1.011e-3
-2.243, 1.011e-3
-2.244, 1.011e-3
-2.245, 1.011e-3
-2.246, 1.011e-3
-2.247, 1.011e-3
-2.248, 1.011e-3
-2.249, 1.011e-3
-2.250, 1.011e-3
-2.251, 1.011e-3
-2.252, 1.011e-3
-2.253, 1.011e-3
-2.254, 1.011e-3
-2.255, 1.011e-3
-2.256, 1.011e-3
-2.257, 1.011e-3
-2.258, 1.011e-3
-2.259, 1.011e-3
-2.260, 1.011e-3
-2.261, 1.011e-3
-2.262, 1.011e-3
-2.263, 1.011e-3
-2.264, 1.011e-3
-2.265, 1.011e-3
-2.266, 1.011e-3
-2.267, 1.011e-3
-2.268, 1.011e-3
-2.269, 1.011e-3
-2.270, 1.011e-3
-2.271, 1.011e-3
-2.272, 1.011e-3
-2.273, 1.011e-3
-2.274, 1.011e-3
-2.275, 1.011e-3
-2.276, 1.011e-3
-2.277, 1.011e-3
-2.278, 1.011e-3
-2.279, 1.011e-3
-2.280, 1.011e-3
-2.281, 1.011e-3
-2.282, 1.011e-3
-2.283, 1.011e-3
-2.284, 1.011e-3
-2.285, 1.011e-3
-2.286, 1.011e-3
-2.287, 1.011e-3
-2.288, 1.011e-3
-2.289, 1.011e-3
-2.290, 1.011e-3
-2.291, 1.011e-3
-2.292, 1.011e-3
-2.293, 1.011e-3
-2.294, 1.011e-3
-2.295, 1.011e-3
-2.296, 1.011e-3
-2.297, 1.011e-3
-2.298, 1.011e-3
-2.299, 1.011e-3
