Sept. 17, 2024   05:06:54
Cyclic Voltammetry
File: c:/users/guazh/data/20240903_batch_252_500/2024-09-03-exp376\exp376-2024-09-17t04_49_40-arkoh\exp376_cv_sr_50mvs_efin_-1700mv.bin
Data Source:  Experiment
Instrument Model:  CHI760E
Header: CV ran at 50 mVs
Note: 

Init E (V) = -1
High E (V) = -1
Low E (V) = -1.7
Final E (V) = -1
Init P/N = N
Scan Rate (V/s) = 0.05
Segment = 3
Sample Interval (V) = 0.001
Quiet Time (sec) = 2
Sensitivity (A/V) = 0.01
Comp R (ohm) = 1.8

Results:

Channel 1:
Segment 1:

Segment 2:

Segment 3:

Potential/V, Current/A

-1.000, 6.884e-6
-1.001, 1.179e-5
-1.002, 1.275e-5
-1.003, 1.314e-5
-1.004, 1.356e-5
-1.005, 1.391e-5
-1.006, 1.430e-5
-1.007, 1.449e-5
-1.008, 1.450e-5
-1.009, 1.451e-5
-1.010, 1.497e-5
-1.011, 1.506e-5
-1.012, 1.538e-5
-1.013, 1.520e-5
-1.014, 1.522e-5
-1.015, 1.551e-5
-1.016, 1.568e-5
-1.017, 1.583e-5
-1.018, 1.573e-5
-1.019, 1.557e-5
-1.020, 1.584e-5
-1.021, 1.598e-5
-1.022, 1.604e-5
-1.023, 1.602e-5
-1.024, 1.604e-5
-1.025, 1.627e-5
-1.026, 1.649e-5
-1.027, 1.633e-5
-1.028, 1.631e-5
-1.029, 1.628e-5
-1.030, 1.639e-5
-1.031, 1.664e-5
-1.032, 1.652e-5
-1.033, 1.641e-5
-1.034, 1.644e-5
-1.035, 1.643e-5
-1.036, 1.684e-5
-1.037, 1.674e-5
-1.038, 1.658e-5
-1.039, 1.664e-5
-1.040, 1.670e-5
-1.041, 1.676e-5
-1.042, 1.694e-5
-1.043, 1.658e-5
-1.044, 1.671e-5
-1.045, 1.684e-5
-1.046, 1.697e-5
-1.047, 1.695e-5
-1.048, 1.664e-5
-1.049, 1.683e-5
-1.050, 1.697e-5
-1.051, 1.707e-5
-1.052, 1.708e-5
-1.053, 1.690e-5
-1.054, 1.682e-5
-1.055, 1.703e-5
-1.056, 1.717e-5
-1.057, 1.713e-5
-1.058, 1.692e-5
-1.059, 1.683e-5
-1.060, 1.712e-5
-1.061, 1.719e-5
-1.062, 1.719e-5
-1.063, 1.715e-5
-1.064, 1.693e-5
-1.065, 1.720e-5
-1.066, 1.737e-5
-1.067, 1.720e-5
-1.068, 1.717e-5
-1.069, 1.706e-5
-1.070, 1.724e-5
-1.071, 1.742e-5
-1.072, 1.738e-5
-1.073, 1.713e-5
-1.074, 1.719e-5
-1.075, 1.754e-5
-1.076, 1.752e-5
-1.077, 1.755e-5
-1.078, 1.727e-5
-1.079, 1.742e-5
-1.080, 1.737e-5
-1.081, 1.748e-5
-1.082, 1.766e-5
-1.083, 1.742e-5
-1.084, 1.737e-5
-1.085, 1.763e-5
-1.086, 1.762e-5
-1.087, 1.775e-5
-1.088, 1.762e-5
-1.089, 1.734e-5
-1.090, 1.766e-5
-1.091, 1.779e-5
-1.092, 1.783e-5
-1.093, 1.753e-5
-1.094, 1.749e-5
-1.095, 1.788e-5
-1.096, 1.773e-5
-1.097, 1.785e-5
-1.098, 1.761e-5
-1.099, 1.759e-5
-1.100, 1.788e-5
-1.101, 1.804e-5
-1.102, 1.792e-5
-1.103, 1.787e-5
-1.104, 1.782e-5
-1.105, 1.788e-5
-1.106, 1.806e-5
-1.107, 1.796e-5
-1.108, 1.792e-5
-1.109, 1.781e-5
-1.110, 1.789e-5
-1.111, 1.810e-5
-1.112, 1.807e-5
-1.113, 1.795e-5
-1.114, 1.802e-5
-1.115, 1.818e-5
-1.116, 1.829e-5
-1.117, 1.816e-5
-1.118, 1.813e-5
-1.119, 1.803e-5
-1.120, 1.824e-5
-1.121, 1.826e-5
-1.122, 1.838e-5
-1.123, 1.822e-5
-1.124, 1.812e-5
-1.125, 1.829e-5
-1.126, 1.843e-5
-1.127, 1.862e-5
-1.128, 1.825e-5
-1.129, 1.836e-5
-1.130, 1.846e-5
-1.131, 1.854e-5
-1.132, 1.856e-5
-1.133, 1.834e-5
-1.134, 1.833e-5
-1.135, 1.858e-5
-1.136, 1.852e-5
-1.137, 1.862e-5
-1.138, 1.851e-5
-1.139, 1.844e-5
-1.140, 1.859e-5
-1.141, 1.865e-5
-1.142, 1.866e-5
-1.143, 1.867e-5
-1.144, 1.844e-5
-1.145, 1.871e-5
-1.146, 1.894e-5
-1.147, 1.876e-5
-1.148, 1.870e-5
-1.149, 1.861e-5
-1.150, 1.879e-5
-1.151, 1.878e-5
-1.152, 1.894e-5
-1.153, 1.877e-5
-1.154, 1.881e-5
-1.155, 1.887e-5
-1.156, 1.910e-5
-1.157, 1.895e-5
-1.158, 1.887e-5
-1.159, 1.892e-5
-1.160, 1.902e-5
-1.161, 1.906e-5
-1.162, 1.912e-5
-1.163, 1.891e-5
-1.164, 1.895e-5
-1.165, 1.912e-5
-1.166, 1.925e-5
-1.167, 1.933e-5
-1.168, 1.913e-5
-1.169, 1.904e-5
-1.170, 1.931e-5
-1.171, 1.939e-5
-1.172, 1.936e-5
-1.173, 1.929e-5
-1.174, 1.917e-5
-1.175, 1.935e-5
-1.176, 1.953e-5
-1.177, 1.954e-5
-1.178, 1.942e-5
-1.179, 1.933e-5
-1.180, 1.955e-5
-1.181, 1.960e-5
-1.182, 1.956e-5
-1.183, 1.952e-5
-1.184, 1.950e-5
-1.185, 1.967e-5
-1.186, 1.993e-5
-1.187, 1.970e-5
-1.188, 1.968e-5
-1.189, 1.967e-5
-1.190, 1.977e-5
-1.191, 2.005e-5
-1.192, 1.994e-5
-1.193, 1.991e-5
-1.194, 1.988e-5
-1.195, 2.002e-5
-1.196, 2.019e-5
-1.197, 2.019e-5
-1.198, 1.993e-5
-1.199, 2.017e-5
-1.200, 2.022e-5
-1.201, 2.030e-5
-1.202, 2.044e-5
-1.203, 2.030e-5
-1.204, 2.029e-5
-1.205, 2.049e-5
-1.206, 2.051e-5
-1.207, 2.076e-5
-1.208, 2.050e-5
-1.209, 2.048e-5
-1.210, 2.075e-5
-1.211, 2.086e-5
-1.212, 2.085e-5
-1.213, 2.072e-5
-1.214, 2.085e-5
-1.215, 2.102e-5
-1.216, 2.109e-5
-1.217, 2.120e-5
-1.218, 2.114e-5
-1.219, 2.101e-5
-1.220, 2.130e-5
-1.221, 2.142e-5
-1.222, 2.147e-5
-1.223, 2.150e-5
-1.224, 2.139e-5
-1.225, 2.165e-5
-1.226, 2.189e-5
-1.227, 2.183e-5
-1.228, 2.191e-5
-1.229, 2.221e-5
-1.230, 2.214e-5
-1.231, 2.251e-5
-1.232, 2.236e-5
-1.233, 2.239e-5
-1.234, 2.243e-5
-1.235, 2.272e-5
-1.236, 2.289e-5
-1.237, 2.303e-5
-1.238, 2.291e-5
-1.239, 2.300e-5
-1.240, 2.319e-5
-1.241, 2.337e-5
-1.242, 2.365e-5
-1.243, 2.359e-5
-1.244, 2.360e-5
-1.245, 2.392e-5
-1.246, 2.418e-5
-1.247, 2.434e-5
-1.248, 2.433e-5
-1.249, 2.450e-5
-1.250, 2.484e-5
-1.251, 2.496e-5
-1.252, 2.514e-5
-1.253, 2.519e-5
-1.254, 2.516e-5
-1.255, 2.577e-5
-1.256, 2.598e-5
-1.257, 2.598e-5
-1.258, 2.619e-5
-1.259, 2.622e-5
-1.260, 2.662e-5
-1.261, 2.697e-5
-1.262, 2.714e-5
-1.263, 2.741e-5
-1.264, 2.744e-5
-1.265, 2.777e-5
-1.266, 2.823e-5
-1.267, 2.834e-5
-1.268, 2.859e-5
-1.269, 2.876e-5
-1.270, 2.920e-5
-1.271, 2.972e-5
-1.272, 2.966e-5
-1.273, 2.991e-5
-1.274, 3.036e-5
-1.275, 3.071e-5
-1.276, 3.115e-5
-1.277, 3.144e-5
-1.278, 3.149e-5
-1.279, 3.205e-5
-1.280, 3.255e-5
-1.281, 3.292e-5
-1.282, 3.334e-5
-1.283, 3.345e-5
-1.284, 3.392e-5
-1.285, 3.445e-5
-1.286, 3.491e-5
-1.287, 3.539e-5
-1.288, 3.557e-5
-1.289, 3.601e-5
-1.290, 3.671e-5
-1.291, 3.729e-5
-1.292, 3.766e-5
-1.293, 3.790e-5
-1.294, 3.842e-5
-1.295, 3.906e-5
-1.296, 3.974e-5
-1.297, 4.019e-5
-1.298, 4.067e-5
-1.299, 4.099e-5
-1.300, 4.192e-5
-1.301, 4.257e-5
-1.302, 4.302e-5
-1.303, 4.353e-5
-1.304, 4.410e-5
-1.305, 4.491e-5
-1.306, 4.587e-5
-1.307, 4.636e-5
-1.308, 4.685e-5
-1.309, 4.746e-5
-1.310, 4.823e-5
-1.311, 4.939e-5
-1.312, 4.971e-5
-1.313, 5.039e-5
-1.314, 5.132e-5
-1.315, 5.209e-5
-1.316, 5.304e-5
-1.317, 5.358e-5
-1.318, 5.446e-5
-1.319, 5.539e-5
-1.320, 5.609e-5
-1.321, 5.732e-5
-1.322, 5.819e-5
-1.323, 5.875e-5
-1.324, 5.992e-5
-1.325, 6.100e-5
-1.326, 6.197e-5
-1.327, 6.293e-5
-1.328, 6.372e-5
-1.329, 6.480e-5
-1.330, 6.608e-5
-1.331, 6.728e-5
-1.332, 6.850e-5
-1.333, 6.931e-5
-1.334, 7.036e-5
-1.335, 7.180e-5
-1.336, 7.296e-5
-1.337, 7.427e-5
-1.338, 7.540e-5
-1.339, 7.659e-5
-1.340, 7.805e-5
-1.341, 7.962e-5
-1.342, 8.078e-5
-1.343, 8.208e-5
-1.344, 8.345e-5
-1.345, 8.510e-5
-1.346, 8.675e-5
-1.347, 8.806e-5
-1.348, 8.971e-5
-1.349, 9.117e-5
-1.350, 9.265e-5
-1.351, 9.467e-5
-1.352, 9.634e-5
-1.353, 9.779e-5
-1.354, 9.969e-5
-1.355, 1.014e-4
-1.356, 1.037e-4
-1.357, 1.054e-4
-1.358, 1.071e-4
-1.359, 1.091e-4
-1.360, 1.110e-4
-1.361, 1.135e-4
-1.362, 1.154e-4
-1.363, 1.173e-4
-1.364, 1.197e-4
-1.365, 1.219e-4
-1.366, 1.243e-4
-1.367, 1.265e-4
-1.368, 1.286e-4
-1.369, 1.312e-4
-1.370, 1.339e-4
-1.371, 1.367e-4
-1.372, 1.390e-4
-1.373, 1.416e-4
-1.374, 1.443e-4
-1.375, 1.472e-4
-1.376, 1.501e-4
-1.377, 1.530e-4
-1.378, 1.561e-4
-1.379, 1.589e-4
-1.380, 1.622e-4
-1.381, 1.654e-4
-1.382, 1.687e-4
-1.383, 1.721e-4
-1.384, 1.753e-4
-1.385, 1.791e-4
-1.386, 1.826e-4
-1.387, 1.858e-4
-1.388, 1.898e-4
-1.389, 1.936e-4
-1.390, 1.976e-4
-1.391, 2.017e-4
-1.392, 2.057e-4
-1.393, 2.098e-4
-1.394, 2.137e-4
-1.395, 2.182e-4
-1.396, 2.225e-4
-1.397, 2.271e-4
-1.398, 2.316e-4
-1.399, 2.364e-4
-1.400, 2.411e-4
-1.401, 2.464e-4
-1.402, 2.511e-4
-1.403, 2.562e-4
-1.404, 2.615e-4
-1.405, 2.664e-4
-1.406, 2.726e-4
-1.407, 2.783e-4
-1.408, 2.837e-4
-1.409, 2.898e-4
-1.410, 2.963e-4
-1.411, 3.019e-4
-1.412, 3.082e-4
-1.413, 3.146e-4
-1.414, 3.209e-4
-1.415, 3.277e-4
-1.416, 3.349e-4
-1.417, 3.421e-4
-1.418, 3.488e-4
-1.419, 3.563e-4
-1.420, 3.636e-4
-1.421, 3.712e-4
-1.422, 3.789e-4
-1.423, 3.866e-4
-1.424, 3.947e-4
-1.425, 4.029e-4
-1.426, 4.118e-4
-1.427, 4.199e-4
-1.428, 4.286e-4
-1.429, 4.373e-4
-1.430, 4.450e-4
-1.431, 4.550e-4
-1.432, 4.645e-4
-1.433, 4.744e-4
-1.434, 4.840e-4
-1.435, 4.940e-4
-1.436, 5.048e-4
-1.437, 5.143e-4
-1.438, 5.237e-4
-1.439, 5.349e-4
-1.440, 5.454e-4
-1.441, 5.570e-4
-1.442, 5.683e-4
-1.443, 5.795e-4
-1.444, 5.912e-4
-1.445, 6.019e-4
-1.446, 6.140e-4
-1.447, 6.259e-4
-1.448, 6.365e-4
-1.449, 6.493e-4
-1.450, 6.624e-4
-1.451, 6.752e-4
-1.452, 6.878e-4
-1.453, 7.008e-4
-1.454, 7.143e-4
-1.455, 7.270e-4
-1.456, 7.396e-4
-1.457, 7.536e-4
-1.458, 7.675e-4
-1.459, 7.810e-4
-1.460, 7.965e-4
-1.461, 8.104e-4
-1.462, 8.235e-4
-1.463, 8.382e-4
-1.464, 8.524e-4
-1.465, 8.672e-4
-1.466, 8.834e-4
-1.467, 8.974e-4
-1.468, 9.117e-4
-1.469, 9.266e-4
-1.470, 9.424e-4
-1.471, 9.581e-4
-1.472, 9.733e-4
-1.473, 9.887e-4
-1.474, 1.003e-3
-1.475, 1.020e-3
-1.476, 1.036e-3
-1.477, 1.048e-3
-1.478, 1.067e-3
-1.479, 1.083e-3
-1.480, 1.098e-3
-1.481, 1.114e-3
-1.482, 1.132e-3
-1.483, 1.147e-3
-1.484, 1.163e-3
-1.485, 1.179e-3
-1.486, 1.195e-3
-1.487, 1.213e-3
-1.488, 1.227e-3
-1.489, 1.245e-3
-1.490, 1.262e-3
-1.491, 1.273e-3
-1.492, 1.292e-3
-1.493, 1.308e-3
-1.494, 1.324e-3
-1.495, 1.340e-3
-1.496, 1.361e-3
-1.497, 1.377e-3
-1.498, 1.391e-3
-1.499, 1.408e-3
-1.500, 1.423e-3
-1.501, 1.440e-3
-1.502, 1.459e-3
-1.503, 1.474e-3
-1.504, 1.490e-3
-1.505, 1.510e-3
-1.506, 1.522e-3
-1.507, 1.538e-3
-1.508, 1.556e-3
-1.509, 1.573e-3
-1.510, 1.591e-3
-1.511, 1.608e-3
-1.512, 1.625e-3
-1.513, 1.640e-3
-1.514, 1.658e-3
-1.515, 1.677e-3
-1.516, 1.694e-3
-1.517, 1.704e-3
-1.518, 1.719e-3
-1.519, 1.739e-3
-1.520, 1.757e-3
-1.521, 1.774e-3
-1.522, 1.792e-3
-1.523, 1.809e-3
-1.524, 1.823e-3
-1.525, 1.838e-3
-1.526, 1.853e-3
-1.527, 1.874e-3
-1.528, 1.888e-3
-1.529, 1.907e-3
-1.530, 1.925e-3
-1.531, 1.938e-3
-1.532, 1.954e-3
-1.533, 1.972e-3
-1.534, 1.988e-3
-1.535, 2.005e-3
-1.536, 2.023e-3
-1.537, 2.040e-3
-1.538, 2.058e-3
-1.539, 2.074e-3
-1.540, 2.089e-3
-1.541, 2.105e-3
-1.542, 2.126e-3
-1.543, 2.147e-3
-1.544, 2.157e-3
-1.545, 2.172e-3
-1.546, 2.191e-3
-1.547, 2.211e-3
-1.548, 2.224e-3
-1.549, 2.245e-3
-1.550, 2.267e-3
-1.551, 2.284e-3
-1.552, 2.296e-3
-1.553, 2.314e-3
-1.554, 2.334e-3
-1.555, 2.350e-3
-1.556, 2.365e-3
-1.557, 2.387e-3
-1.558, 2.404e-3
-1.559, 2.420e-3
-1.560, 2.445e-3
-1.561, 2.466e-3
-1.562, 2.483e-3
-1.563, 2.499e-3
-1.564, 2.517e-3
-1.565, 2.532e-3
-1.566, 2.559e-3
-1.567, 2.581e-3
-1.568, 2.593e-3
-1.569, 2.616e-3
-1.570, 2.633e-3
-1.571, 2.650e-3
-1.572, 2.673e-3
-1.573, 2.691e-3
-1.574, 2.716e-3
-1.575, 2.733e-3
-1.576, 2.749e-3
-1.577, 2.771e-3
-1.578, 2.793e-3
-1.579, 2.813e-3
-1.580, 2.835e-3
-1.581, 2.857e-3
-1.582, 2.875e-3
-1.583, 2.895e-3
-1.584, 2.915e-3
-1.585, 2.935e-3
-1.586, 2.962e-3
-1.587, 2.984e-3
-1.588, 3.009e-3
-1.589, 3.026e-3
-1.590, 3.050e-3
-1.591, 3.063e-3
-1.592, 3.094e-3
-1.593, 3.119e-3
-1.594, 3.139e-3
-1.595, 3.157e-3
-1.596, 3.184e-3
-1.597, 3.207e-3
-1.598, 3.221e-3
-1.599, 3.255e-3
-1.600, 3.285e-3
-1.601, 3.309e-3
-1.602, 3.327e-3
-1.603, 3.342e-3
-1.604, 3.375e-3
-1.605, 3.404e-3
-1.606, 3.419e-3
-1.607, 3.448e-3
-1.608, 3.478e-3
-1.609, 3.506e-3
-1.610, 3.528e-3
-1.611, 3.557e-3
-1.612, 3.591e-3
-1.613, 3.613e-3
-1.614, 3.632e-3
-1.615, 3.654e-3
-1.616, 3.676e-3
-1.617, 3.706e-3
-1.618, 3.742e-3
-1.619, 3.771e-3
-1.620, 3.797e-3
-1.621, 3.831e-3
-1.622, 3.852e-3
-1.623, 3.879e-3
-1.624, 3.909e-3
-1.625, 3.943e-3
-1.626, 3.971e-3
-1.627, 3.998e-3
-1.628, 4.026e-3
-1.629, 4.040e-3
-1.630, 4.078e-3
-1.631, 4.120e-3
-1.632, 4.156e-3
-1.633, 4.171e-3
-1.634, 4.204e-3
-1.635, 4.232e-3
-1.636, 4.245e-3
-1.637, 4.278e-3
-1.638, 4.316e-3
-1.639, 4.353e-3
-1.640, 4.373e-3
-1.641, 4.414e-3
-1.642, 4.451e-3
-1.643, 4.469e-3
-1.644, 4.486e-3
-1.645, 4.516e-3
-1.646, 4.545e-3
-1.647, 4.591e-3
-1.648, 4.636e-3
-1.649, 4.678e-3
-1.650, 4.709e-3
-1.651, 4.713e-3
-1.652, 4.746e-3
-1.653, 4.777e-3
-1.654, 4.807e-3
-1.655, 4.840e-3
-1.656, 4.880e-3
-1.657, 4.922e-3
-1.658, 4.944e-3
-1.659, 4.992e-3
-1.660, 5.022e-3
-1.661, 5.043e-3
-1.662, 5.066e-3
-1.663, 5.103e-3
-1.664, 5.152e-3
-1.665, 5.185e-3
-1.666, 5.228e-3
-1.667, 5.251e-3
-1.668, 5.247e-3
-1.669, 5.280e-3
-1.670, 5.314e-3
-1.671, 5.356e-3
-1.672, 5.401e-3
-1.673, 5.427e-3
-1.674, 5.476e-3
-1.675, 5.501e-3
-1.676, 5.498e-3
-1.677, 5.529e-3
-1.678, 5.579e-3
-1.679, 5.630e-3
-1.680, 5.666e-3
-1.681, 5.707e-3
-1.682, 5.755e-3
-1.683, 5.809e-3
-1.684, 5.800e-3
-1.685, 5.842e-3
-1.686, 5.895e-3
-1.687, 5.940e-3
-1.688, 5.965e-3
-1.689, 6.031e-3
-1.690, 6.081e-3
-1.691, 6.084e-3
-1.692, 6.104e-3
-1.693, 6.134e-3
-1.694, 6.182e-3
-1.695, 6.224e-3
-1.696, 6.246e-3
-1.697, 6.310e-3
-1.698, 6.339e-3
-1.699, 6.349e-3
-1.700, 6.344e-3
-1.699, 6.299e-3
-1.698, 6.248e-3
-1.697, 6.176e-3
-1.696, 6.125e-3
-1.695, 6.078e-3
-1.694, 6.032e-3
-1.693, 5.990e-3
-1.692, 5.940e-3
-1.691, 5.880e-3
-1.690, 5.802e-3
-1.689, 5.752e-3
-1.688, 5.698e-3
-1.687, 5.662e-3
-1.686, 5.622e-3
-1.685, 5.564e-3
-1.684, 5.502e-3
-1.683, 5.438e-3
-1.682, 5.372e-3
-1.681, 5.324e-3
-1.680, 5.287e-3
-1.679, 5.252e-3
-1.678, 5.193e-3
-1.677, 5.145e-3
-1.676, 5.089e-3
-1.675, 5.046e-3
-1.674, 4.990e-3
-1.673, 4.962e-3
-1.672, 4.931e-3
-1.671, 4.841e-3
-1.670, 4.796e-3
-1.669, 4.754e-3
-1.668, 4.707e-3
-1.667, 4.724e-3
-1.666, 4.672e-3
-1.665, 4.641e-3
-1.664, 4.577e-3
-1.663, 4.537e-3
-1.662, 4.483e-3
-1.661, 4.418e-3
-1.660, 4.388e-3
-1.659, 4.358e-3
-1.658, 4.320e-3
-1.657, 4.309e-3
-1.656, 4.252e-3
-1.655, 4.229e-3
-1.654, 4.173e-3
-1.653, 4.115e-3
-1.652, 4.069e-3
-1.651, 4.044e-3
-1.650, 4.005e-3
-1.649, 3.956e-3
-1.648, 3.926e-3
-1.647, 3.878e-3
-1.646, 3.826e-3
-1.645, 3.787e-3
-1.644, 3.750e-3
-1.643, 3.725e-3
-1.642, 3.692e-3
-1.641, 3.645e-3
-1.640, 3.615e-3
-1.639, 3.577e-3
-1.638, 3.514e-3
-1.637, 3.490e-3
-1.636, 3.462e-3
-1.635, 3.422e-3
-1.634, 3.388e-3
-1.633, 3.370e-3
-1.632, 3.332e-3
-1.631, 3.286e-3
-1.630, 3.249e-3
-1.629, 3.219e-3
-1.628, 3.194e-3
-1.627, 3.163e-3
-1.626, 3.134e-3
-1.625, 3.099e-3
-1.624, 3.050e-3
-1.623, 3.012e-3
-1.622, 2.986e-3
-1.621, 2.957e-3
-1.620, 2.925e-3
-1.619, 2.900e-3
-1.618, 2.875e-3
-1.617, 2.833e-3
-1.616, 2.798e-3
-1.615, 2.767e-3
-1.614, 2.750e-3
-1.613, 2.716e-3
-1.612, 2.695e-3
-1.611, 2.669e-3
-1.610, 2.628e-3
-1.609, 2.604e-3
-1.608, 2.583e-3
-1.607, 2.548e-3
-1.606, 2.516e-3
-1.605, 2.491e-3
-1.604, 2.466e-3
-1.603, 2.441e-3
-1.602, 2.415e-3
-1.601, 2.384e-3
-1.600, 2.348e-3
-1.599, 2.328e-3
-1.598, 2.304e-3
-1.597, 2.279e-3
-1.596, 2.247e-3
-1.595, 2.234e-3
-1.594, 2.207e-3
-1.593, 2.180e-3
-1.592, 2.152e-3
-1.591, 2.126e-3
-1.590, 2.107e-3
-1.589, 2.085e-3
-1.588, 2.060e-3
-1.587, 2.030e-3
-1.586, 2.012e-3
-1.585, 1.991e-3
-1.584, 1.965e-3
-1.583, 1.944e-3
-1.582, 1.926e-3
-1.581, 1.903e-3
-1.580, 1.879e-3
-1.579, 1.858e-3
-1.578, 1.836e-3
-1.577, 1.820e-3
-1.576, 1.797e-3
-1.575, 1.778e-3
-1.574, 1.757e-3
-1.573, 1.738e-3
-1.572, 1.716e-3
-1.571, 1.695e-3
-1.570, 1.682e-3
-1.569, 1.659e-3
-1.568, 1.640e-3
-1.567, 1.619e-3
-1.566, 1.599e-3
-1.565, 1.583e-3
-1.564, 1.564e-3
-1.563, 1.546e-3
-1.562, 1.527e-3
-1.561, 1.510e-3
-1.560, 1.496e-3
-1.559, 1.477e-3
-1.558, 1.458e-3
-1.557, 1.444e-3
-1.556, 1.424e-3
-1.555, 1.412e-3
-1.554, 1.397e-3
-1.553, 1.375e-3
-1.552, 1.358e-3
-1.551, 1.342e-3
-1.550, 1.328e-3
-1.549, 1.311e-3
-1.548, 1.304e-3
-1.547, 1.286e-3
-1.546, 1.271e-3
-1.545, 1.252e-3
-1.544, 1.240e-3
-1.543, 1.224e-3
-1.542, 1.213e-3
-1.541, 1.201e-3
-1.540, 1.186e-3
-1.539, 1.169e-3
-1.538, 1.157e-3
-1.537, 1.143e-3
-1.536, 1.130e-3
-1.535, 1.118e-3
-1.534, 1.106e-3
-1.533, 1.093e-3
-1.532, 1.078e-3
-1.531, 1.064e-3
-1.530, 1.051e-3
-1.529, 1.040e-3
-1.528, 1.029e-3
-1.527, 1.016e-3
-1.526, 1.005e-3
-1.525, 9.918e-4
-1.524, 9.786e-4
-1.523, 9.691e-4
-1.522, 9.570e-4
-1.521, 9.457e-4
-1.520, 9.340e-4
-1.519, 9.239e-4
-1.518, 9.122e-4
-1.517, 9.011e-4
-1.516, 8.903e-4
-1.515, 8.784e-4
-1.514, 8.696e-4
-1.513, 8.576e-4
-1.512, 8.484e-4
-1.511, 8.402e-4
-1.510, 8.280e-4
-1.509, 8.190e-4
-1.508, 8.088e-4
-1.507, 7.969e-4
-1.506, 7.865e-4
-1.505, 7.777e-4
-1.504, 7.678e-4
-1.503, 7.573e-4
-1.502, 7.482e-4
-1.501, 7.394e-4
-1.500, 7.293e-4
-1.499, 7.209e-4
-1.498, 7.179e-4
-1.497, 7.010e-4
-1.496, 6.963e-4
-1.495, 6.834e-4
-1.494, 6.756e-4
-1.493, 6.671e-4
-1.492, 6.579e-4
-1.491, 6.502e-4
-1.490, 6.415e-4
-1.489, 6.317e-4
-1.488, 6.234e-4
-1.487, 6.158e-4
-1.486, 6.067e-4
-1.485, 5.993e-4
-1.484, 5.905e-4
-1.483, 5.820e-4
-1.482, 5.742e-4
-1.481, 5.661e-4
-1.480, 5.583e-4
-1.479, 5.499e-4
-1.478, 5.421e-4
-1.477, 5.341e-4
-1.476, 5.268e-4
-1.475, 5.191e-4
-1.474, 5.121e-4
-1.473, 5.042e-4
-1.472, 4.974e-4
-1.471, 4.897e-4
-1.470, 4.818e-4
-1.469, 4.753e-4
-1.468, 4.688e-4
-1.467, 4.613e-4
-1.466, 4.546e-4
-1.465, 4.475e-4
-1.464, 4.409e-4
-1.463, 4.335e-4
-1.462, 4.279e-4
-1.461, 4.208e-4
-1.460, 4.139e-4
-1.459, 4.082e-4
-1.458, 4.019e-4
-1.457, 3.955e-4
-1.456, 3.889e-4
-1.455, 3.833e-4
-1.454, 3.772e-4
-1.453, 3.707e-4
-1.452, 3.652e-4
-1.451, 3.590e-4
-1.450, 3.532e-4
-1.449, 3.480e-4
-1.448, 3.421e-4
-1.447, 3.359e-4
-1.446, 3.303e-4
-1.445, 3.250e-4
-1.444, 3.196e-4
-1.443, 3.148e-4
-1.442, 3.085e-4
-1.441, 3.037e-4
-1.440, 2.982e-4
-1.439, 2.892e-4
-1.438, 2.865e-4
-1.437, 2.821e-4
-1.436, 2.760e-4
-1.435, 2.718e-4
-1.434, 2.679e-4
-1.433, 2.620e-4
-1.432, 2.573e-4
-1.431, 2.529e-4
-1.430, 2.478e-4
-1.429, 2.439e-4
-1.428, 2.397e-4
-1.427, 2.347e-4
-1.426, 2.311e-4
-1.425, 2.265e-4
-1.424, 2.219e-4
-1.423, 2.216e-4
-1.422, 2.163e-4
-1.421, 2.125e-4
-1.420, 2.088e-4
-1.419, 2.050e-4
-1.418, 2.015e-4
-1.417, 1.972e-4
-1.416, 1.933e-4
-1.415, 1.901e-4
-1.414, 1.870e-4
-1.413, 1.835e-4
-1.412, 1.803e-4
-1.411, 1.759e-4
-1.410, 1.734e-4
-1.409, 1.701e-4
-1.408, 1.663e-4
-1.407, 1.629e-4
-1.406, 1.599e-4
-1.405, 1.567e-4
-1.404, 1.540e-4
-1.403, 1.510e-4
-1.402, 1.475e-4
-1.401, 1.447e-4
-1.400, 1.418e-4
-1.399, 1.390e-4
-1.398, 1.361e-4
-1.397, 1.333e-4
-1.396, 1.306e-4
-1.395, 1.277e-4
-1.394, 1.256e-4
-1.393, 1.228e-4
-1.392, 1.202e-4
-1.391, 1.178e-4
-1.390, 1.152e-4
-1.389, 1.129e-4
-1.388, 1.107e-4
-1.387, 1.081e-4
-1.386, 1.058e-4
-1.385, 1.037e-4
-1.384, 1.014e-4
-1.383, 9.948e-5
-1.382, 9.695e-5
-1.381, 9.479e-5
-1.380, 9.295e-5
-1.379, 9.112e-5
-1.378, 8.920e-5
-1.377, 8.726e-5
-1.376, 8.526e-5
-1.375, 8.341e-5
-1.374, 8.160e-5
-1.373, 7.977e-5
-1.372, 7.804e-5
-1.371, 7.643e-5
-1.370, 7.464e-5
-1.369, 7.318e-5
-1.368, 7.186e-5
-1.367, 6.986e-5
-1.366, 6.810e-5
-1.365, 6.670e-5
-1.364, 6.525e-5
-1.363, 6.390e-5
-1.362, 6.229e-5
-1.361, 6.074e-5
-1.360, 5.938e-5
-1.359, 5.822e-5
-1.358, 5.673e-5
-1.357, 5.508e-5
-1.356, 5.366e-5
-1.355, 5.243e-5
-1.354, 5.154e-5
-1.353, 5.019e-5
-1.352, 4.880e-5
-1.351, 4.736e-5
-1.350, 4.629e-5
-1.349, 4.539e-5
-1.348, 4.403e-5
-1.347, 4.274e-5
-1.346, 4.167e-5
-1.345, 4.060e-5
-1.344, 3.955e-5
-1.343, 3.869e-5
-1.342, 3.727e-5
-1.341, 3.645e-5
-1.340, 3.541e-5
-1.339, 3.453e-5
-1.338, 3.377e-5
-1.337, 3.248e-5
-1.336, 3.162e-5
-1.335, 3.072e-5
-1.334, 2.995e-5
-1.333, 2.913e-5
-1.332, 2.806e-5
-1.331, 2.715e-5
-1.330, 2.640e-5
-1.329, 2.569e-5
-1.328, 2.506e-5
-1.327, 2.407e-5
-1.326, 2.324e-5
-1.325, 2.256e-5
-1.324, 2.196e-5
-1.323, 2.119e-5
-1.322, 2.043e-5
-1.321, 1.965e-5
-1.320, 1.920e-5
-1.319, 1.854e-5
-1.318, 1.781e-5
-1.317, 1.702e-5
-1.316, 1.644e-5
-1.315, 1.576e-5
-1.314, 1.543e-5
-1.313, 1.485e-5
-1.312, 1.417e-5
-1.311, 1.351e-5
-1.310, 1.286e-5
-1.309, 1.256e-5
-1.308, 1.225e-5
-1.307, 1.137e-5
-1.306, 1.081e-5
-1.305, 1.022e-5
-1.304, 1.007e-5
-1.303, 9.617e-6
-1.302, 8.868e-6
-1.301, 8.542e-6
-1.300, 8.088e-6
-1.299, 7.763e-6
-1.298, 7.407e-6
-1.297, 6.727e-6
-1.296, 6.371e-6
-1.295, 6.036e-6
-1.294, 5.631e-6
-1.293, 5.414e-6
-1.292, 4.645e-6
-1.291, 4.388e-6
-1.290, 4.023e-6
-1.289, 3.737e-6
-1.288, 3.570e-6
-1.287, 2.889e-6
-1.286, 2.405e-6
-1.285, 2.307e-6
-1.284, 2.188e-6
-1.283, 1.774e-6
-1.282, 1.409e-6
-1.281, 9.550e-7
-1.280, 4.913e-7
-1.279, 4.420e-7
-1.278, 2.348e-7
-1.277, -1.697e-7
-1.276, -4.558e-7
-1.275, -7.617e-7
-1.274, -7.912e-7
-1.273, -1.087e-6
-1.272, -1.354e-6
-1.271, -1.748e-6
-1.270, -2.064e-6
-1.269, -2.015e-6
-1.268, -2.202e-6
-1.267, -2.567e-6
-1.266, -2.981e-6
-1.265, -3.129e-6
-1.264, -3.208e-6
-1.263, -3.406e-6
-1.262, -3.771e-6
-1.261, -4.077e-6
-1.260, -4.165e-6
-1.259, -4.274e-6
-1.258, -4.225e-6
-1.257, -4.807e-6
-1.256, -4.915e-6
-1.255, -5.122e-6
-1.254, -5.241e-6
-1.253, -5.310e-6
-1.252, -5.626e-6
-1.251, -5.991e-6
-1.250, -5.951e-6
-1.249, -6.050e-6
-1.248, -6.099e-6
-1.247, -6.366e-6
-1.246, -6.681e-6
-1.245, -6.652e-6
-1.244, -6.888e-6
-1.243, -6.928e-6
-1.242, -7.263e-6
-1.241, -7.470e-6
-1.240, -7.382e-6
-1.239, -7.530e-6
-1.238, -7.648e-6
-1.237, -7.707e-6
-1.236, -8.013e-6
-1.235, -8.191e-6
-1.234, -8.013e-6
-1.233, -8.260e-6
-1.232, -8.349e-6
-1.231, -8.566e-6
-1.230, -8.723e-6
-1.229, -8.970e-6
-1.228, -8.842e-6
-1.227, -9.217e-6
-1.226, -9.325e-6
-1.225, -9.276e-6
-1.224, -9.345e-6
-1.223, -9.384e-6
-1.222, -9.848e-6
-1.221, -9.799e-6
-1.220, -9.819e-6
-1.219, -9.957e-6
-1.218, -9.957e-6
-1.217, -1.022e-5
-1.216, -1.032e-5
-1.215, -1.040e-5
-1.214, -1.042e-5
-1.213, -1.044e-5
-1.212, -1.061e-5
-1.211, -1.092e-5
-1.210, -1.069e-5
-1.209, -1.092e-5
-1.208, -1.090e-5
-1.207, -1.101e-5
-1.206, -1.135e-5
-1.205, -1.129e-5
-1.204, -1.131e-5
-1.203, -1.133e-5
-1.202, -1.156e-5
-1.201, -1.173e-5
-1.200, -1.172e-5
-1.199, -1.163e-5
-1.198, -1.167e-5
-1.197, -1.189e-5
-1.196, -1.214e-5
-1.195, -1.219e-5
-1.194, -1.209e-5
-1.193, -1.221e-5
-1.192, -1.234e-5
-1.191, -1.246e-5
-1.190, -1.268e-5
-1.189, -1.245e-5
-1.188, -1.255e-5
-1.187, -1.283e-5
-1.186, -1.303e-5
-1.185, -1.305e-5
-1.184, -1.296e-5
-1.183, -1.290e-5
-1.182, -1.318e-5
-1.181, -1.339e-5
-1.180, -1.338e-5
-1.179, -1.335e-5
-1.178, -1.354e-5
-1.177, -1.370e-5
-1.176, -1.385e-5
-1.175, -1.372e-5
-1.174, -1.388e-5
-1.173, -1.379e-5
-1.172, -1.404e-5
-1.171, -1.434e-5
-1.170, -1.422e-5
-1.169, -1.424e-5
-1.168, -1.415e-5
-1.167, -1.447e-5
-1.166, -1.468e-5
-1.165, -1.460e-5
-1.164, -1.476e-5
-1.163, -1.472e-5
-1.162, -1.491e-5
-1.161, -1.517e-5
-1.160, -1.508e-5
-1.159, -1.514e-5
-1.158, -1.521e-5
-1.157, -1.535e-5
-1.156, -1.561e-5
-1.155, -1.568e-5
-1.154, -1.559e-5
-1.153, -1.558e-5
-1.152, -1.578e-5
-1.151, -1.599e-5
-1.150, -1.614e-5
-1.149, -1.601e-5
-1.148, -1.597e-5
-1.147, -1.625e-5
-1.146, -1.649e-5
-1.145, -1.657e-5
-1.144, -1.645e-5
-1.143, -1.640e-5
-1.142, -1.682e-5
-1.141, -1.684e-5
-1.140, -1.698e-5
-1.139, -1.706e-5
-1.138, -1.698e-5
-1.137, -1.724e-5
-1.136, -1.747e-5
-1.135, -1.746e-5
-1.134, -1.746e-5
-1.133, -1.735e-5
-1.132, -1.774e-5
-1.131, -1.791e-5
-1.130, -1.785e-5
-1.129, -1.802e-5
-1.128, -1.787e-5
-1.127, -1.814e-5
-1.126, -1.835e-5
-1.125, -1.843e-5
-1.124, -1.833e-5
-1.123, -1.858e-5
-1.122, -1.864e-5
-1.121, -1.891e-5
-1.120, -1.887e-5
-1.119, -1.889e-5
-1.118, -1.898e-5
-1.117, -1.917e-5
-1.116, -1.936e-5
-1.115, -1.943e-5
-1.114, -1.942e-5
-1.113, -1.945e-5
-1.112, -1.965e-5
-1.111, -1.982e-5
-1.110, -2.004e-5
-1.109, -1.996e-5
-1.108, -1.988e-5
-1.107, -2.019e-5
-1.106, -2.036e-5
-1.105, -2.048e-5
-1.104, -2.043e-5
-1.103, -2.047e-5
-1.102, -2.075e-5
-1.101, -2.091e-5
-1.100, -2.107e-5
-1.099, -2.099e-5
-1.098, -2.103e-5
-1.097, -2.140e-5
-1.096, -2.136e-5
-1.095, -2.152e-5
-1.094, -2.164e-5
-1.093, -2.156e-5
-1.092, -2.183e-5
-1.091, -2.190e-5
-1.090, -2.200e-5
-1.089, -2.201e-5
-1.088, -2.211e-5
-1.087, -2.242e-5
-1.086, -2.264e-5
-1.085, -2.251e-5
-1.084, -2.261e-5
-1.083, -2.256e-5
-1.082, -2.279e-5
-1.081, -2.311e-5
-1.080, -2.301e-5
-1.079, -2.300e-5
-1.078, -2.321e-5
-1.077, -2.321e-5
-1.076, -2.368e-5
-1.075, -2.382e-5
-1.074, -2.365e-5
-1.073, -2.383e-5
-1.072, -2.396e-5
-1.071, -2.413e-5
-1.070, -2.425e-5
-1.069, -2.436e-5
-1.068, -2.433e-5
-1.067, -2.456e-5
-1.066, -2.458e-5
-1.065, -2.484e-5
-1.064, -2.480e-5
-1.063, -2.485e-5
-1.062, -2.519e-5
-1.061, -2.524e-5
-1.060, -2.528e-5
-1.059, -2.535e-5
-1.058, -2.532e-5
-1.057, -2.563e-5
-1.056, -2.589e-5
-1.055, -2.590e-5
-1.054, -2.601e-5
-1.053, -2.593e-5
-1.052, -2.603e-5
-1.051, -2.650e-5
-1.050, -2.641e-5
-1.049, -2.660e-5
-1.048, -2.651e-5
-1.047, -2.670e-5
-1.046, -2.707e-5
-1.045, -2.697e-5
-1.044, -2.693e-5
-1.043, -2.718e-5
-1.042, -2.732e-5
-1.041, -2.742e-5
-1.040, -2.746e-5
-1.039, -2.750e-5
-1.038, -2.751e-5
-1.037, -2.775e-5
-1.036, -2.801e-5
-1.035, -2.804e-5
-1.034, -2.790e-5
-1.033, -2.801e-5
-1.032, -2.814e-5
-1.031, -2.844e-5
-1.030, -2.882e-5
-1.029, -2.849e-5
-1.028, -2.845e-5
-1.027, -2.883e-5
-1.026, -2.883e-5
-1.025, -2.898e-5
-1.024, -2.920e-5
-1.023, -2.904e-5
-1.022, -2.941e-5
-1.021, -2.954e-5
-1.020, -2.969e-5
-1.019, -2.951e-5
-1.018, -2.948e-5
-1.017, -2.996e-5
-1.016, -3.000e-5
-1.015, -3.015e-5
-1.014, -3.008e-5
-1.013, -2.995e-5
-1.012, -3.039e-5
-1.011, -3.067e-5
-1.010, -3.059e-5
-1.009, -3.063e-5
-1.008, -3.044e-5
-1.007, -3.085e-5
-1.006, -3.114e-5
-1.005, -3.110e-5
-1.004, -3.104e-5
-1.003, -3.113e-5
-1.002, -3.117e-5
-1.001, -3.173e-5
