Potential V vs RHE, Current mA cm-2
0.013299999999999867,-0.1330535977523067
0.012299999999999978,-0.8308599464107361
0.011299999999999866,-1.2671569112891135
0.010299999999999976,-1.5717442541500557
0.009299999999999864,-1.8334658446250875
0.008299999999999974,-2.008890045808352
0.007299999999999862,-2.1828995356917518
0.006299999999999972,-2.2706116362833835
0.00529999999999986,-2.4007650758709675
0.0042999999999999705,-2.4884771764625997
0.0032999999999998586,-2.532333226758415
0.0022999999999999687,-2.618630616050183
0.0012999999999998568,-2.7501987669376318
0.00029999999999996696,-2.8379108675292635
-0.000700000000000145,-2.924208256821031
-0.0017000000000000348,-3.055776407708479
-0.0027000000000001467,-3.0996324580042955
-0.0037000000000000366,-3.1859298472960624
-0.0047000000000001485,-3.2297858975918787
-0.005700000000000038,-3.317497998183511
-0.00670000000000015,-3.361354048479327
-0.00770000000000004,-3.361354048479327
-0.008700000000000152,-3.447651437771094
-0.009700000000000042,-3.4915074880669104
-0.010700000000000154,-3.579219588658543
-0.011700000000000044,-3.7093730282461257
-0.012700000000000156,-3.7970851288377587
-0.013700000000000045,-3.884797229429391
-0.014700000000000157,-3.971094618721158
-0.015700000000000047,-4.0588067193127895
-0.01670000000000016,-4.102662769608606
-0.01770000000000005,-4.146518819904423
-0.01870000000000016,-4.1889601589003735
-0.01970000000000005,-4.276672259492005
-0.020700000000000163,-4.364384360083638
-0.021700000000000053,-4.406825699079589
-0.022700000000000164,-4.538393849967037
-0.023700000000000054,-4.626105950558669
-0.024700000000000166,-4.756259390146253
-0.025700000000000056,-4.843971490737885
-0.026700000000000168,-4.9302688800296535
-0.027700000000000058,-5.0618370309171015
-0.02870000000000017,-5.105693081212917
-0.02970000000000006,-5.149549131508733
-0.03070000000000017,-5.235846520800501
-0.03170000000000006,-5.323558621392133
-0.03270000000000017,-5.411270721983764
-0.03370000000000006,-5.5414241615713475
-0.034700000000000175,-5.629136262162981
-0.035700000000000065,-5.80314575204638
-0.03670000000000018,-5.890857852638012
-0.03770000000000007,-6.021011292225596
-0.03870000000000018,-6.152579443113044
-0.03970000000000007,-6.238876832404812
-0.04070000000000018,-6.326588932996443
-0.04170000000000007,-6.414301033588076
-0.04270000000000018,-6.500598422879844
-0.04370000000000007,-6.588310523471475
-0.044700000000000184,-6.6760226240631075
-0.045700000000000074,-6.806176063650692
-0.046700000000000186,-6.981600264833956
-0.047700000000000076,-7.111753704421539
-0.04870000000000019,-7.28576319430494
-0.04970000000000008,-7.37347529489657
-0.05070000000000019,-7.50504344578402
-0.05170000000000008,-7.635196885371603
-0.05270000000000019,-7.722908985963235
-0.05370000000000008,-7.809206375255003
-0.05470000000000019,-7.896918475846635
-0.05570000000000008,-8.027071915434218
-0.056700000000000195,-8.158640066321666
-0.057700000000000085,-8.288793505909249
-0.058700000000000196,-8.464217707092514
-0.059700000000000086,-8.594371146680096
-0.0607000000000002,-8.769795347863363
-0.06170000000000009,-8.899948787450944
-0.0627000000000002,-9.031516938338395
-0.06370000000000009,-9.161670377925978
-0.0647000000000002,-9.24938247851761
-0.06570000000000009,-9.335679867809377
-0.0667000000000002,-9.467248018696827
-0.0677000000000001,-9.55496011928846
-0.0687000000000002,-9.728969609171857
-0.0697000000000001,-9.85912304875944
-0.07070000000000021,-10.034547249942705
-0.0717000000000001,-10.208556739826104
-0.07270000000000021,-10.340124890713554
-0.0737000000000001,-10.470278330301136
-0.07470000000000021,-10.557990430892769
-0.0757000000000001,-10.688143870480351
-0.07670000000000021,-10.819712021367803
-0.0777000000000001,-10.906009410659568
-0.07870000000000021,-11.037577561547016
-0.0797000000000001,-11.1677310011346
-0.08070000000000022,-11.299299152022046
-0.0817000000000001,-11.42945259160963
-0.08270000000000022,-11.604876792792895
-0.08370000000000011,-11.778886282676295
-0.08470000000000022,-11.909039722263879
-0.08570000000000011,-12.040607873151327
-0.08670000000000022,-12.12831997374296
-0.08770000000000011,-12.214617363034726
-0.08870000000000022,-12.302329463626359
-0.08970000000000011,-12.390041564217992
-0.09070000000000022,-12.520195003805576
-0.09170000000000011,-12.651763154693022
-0.09270000000000023,-12.781916594280606
-0.09370000000000012,-12.913484745168056
-0.09470000000000023,-13.087494235051453
-0.09570000000000012,-13.217647674639037
-0.09670000000000023,-13.3930718758223
-0.09770000000000012,-13.47936926511407
-0.09870000000000023,-13.567081365705702
-0.09970000000000012,-13.654793466297335
-0.10070000000000023,-13.741090855589102
-0.10170000000000012,-13.828802956180734
-0.10270000000000024,-13.960371107068182
-0.10370000000000013,-14.046668496359947
-0.10470000000000024,-14.175407224647667
-0.10570000000000013,-14.345172580631472
-0.10670000000000024,-14.486643710617974
-0.10770000000000013,-14.61396772760583
-0.10870000000000024,-14.741291744593681
-0.10970000000000013,-14.868615761581536
-0.11070000000000024,-14.967645552572087
-0.11170000000000013,-15.05252823056399
-0.11270000000000002,-15.094969569559943
-0.11370000000000013,-15.222293586547794
-0.11470000000000002,-15.307176264539699
-0.11570000000000014,-15.448647394526201
-0.11670000000000003,-15.533530072518102
-0.11770000000000014,-15.70329542850191
-0.11870000000000003,-15.830619445489761
-0.11970000000000014,-15.91550212348166
-0.12070000000000003,-16.056973253468165
-0.12170000000000014,-16.141855931460068
-0.12270000000000003,-16.22673860945197
-0.12370000000000014,-16.311621287443874
-0.12470000000000003,-16.354062626439823
-0.12570000000000014,-16.438945304431726
-0.12670000000000003,-16.53797509542228
-0.12770000000000015,-16.665299112410132
-0.12870000000000004,-16.792623129397985
-0.12970000000000015,-16.919947146385837
-0.13070000000000004,-17.061418276372343
-0.13170000000000015,-17.146300954364243
-0.13270000000000004,-17.231183632356142
-0.13370000000000015,-17.316066310348052
-0.13470000000000004,-17.358507649344002
-0.13570000000000015,-17.4433903273359
-0.13670000000000004,-17.48583166633185
-0.13770000000000016,-17.584861457322408
-0.13870000000000005,-17.669744135314307
-0.13970000000000016,-17.797068152302163
-0.14070000000000005,-17.881950830294063
-0.14170000000000016,-18.009274847281915
-0.14270000000000005,-18.15074597726842
-0.14370000000000016,-18.23562865526032
-0.14470000000000005,-18.320511333252224
-0.14570000000000016,-18.40539401124413
-0.14670000000000005,-18.44783535024008
-0.14770000000000016,-18.49027668923603
-0.14870000000000005,-18.53271802823198
-0.14970000000000017,-18.631747819222536
-0.15070000000000006,-18.716630497214435
-0.15170000000000017,-18.843954514202288
-0.15270000000000006,-18.92883719219419
-0.15370000000000017,-19.056161209182044
-0.15470000000000006,-19.197632339168546
-0.15570000000000017,-19.28251501716045
-0.15670000000000006,-19.3249563561564
-0.15770000000000017,-19.367397695152352
-0.15870000000000006,-19.452280373144255
-0.15970000000000018,-19.49472171214021
-0.16070000000000007,-19.537163051136158
-0.16170000000000018,-19.636192842126707
-0.16270000000000007,-19.721075520118614
-0.16370000000000018,-19.805958198110513
-0.16470000000000007,-19.93328221509837
-0.16570000000000018,-20.06060623208622
-0.16670000000000007,-20.159636023076775
-0.16770000000000018,-20.202077362072725
-0.16870000000000007,-20.286960040064624
-0.16970000000000018,-20.329401379060574
-0.17070000000000007,-20.371842718056527
-0.17170000000000019,-20.414284057052477
-0.17270000000000008,-20.414284057052477
-0.1737000000000002,-20.499166735044383
-0.17470000000000008,-20.584049413036283
-0.1757000000000002,-20.683079204026836
-0.17670000000000008,-20.810403221014692
-0.1777000000000002,-20.89528589900659
-0.17870000000000008,-20.980168576998494
-0.1797000000000002,-20.980168576998494
-0.18070000000000008,-21.065051254990397
-0.1817000000000002,-21.065051254990397
-0.18270000000000008,-21.065051254990397
-0.1837000000000002,-21.107492593986347
-0.1847000000000001,-21.149933932982297
-0.1857000000000002,-21.2065223849769
-0.1867000000000001,-21.248963723972853
-0.1877000000000002,-21.291405062968803
-0.1887000000000001,-21.376287740960702
-0.1897000000000002,-21.418729079956652
-0.1907000000000001,-21.503611757948562
-0.1917000000000001,-21.503611757948562
-0.19269999999999998,-21.54605309694451
-0.1937000000000001,-21.54605309694451
-0.19469999999999998,-21.503611757948562
-0.1957000000000001,-21.54605309694451
-0.19669999999999999,-21.58849443594046
-0.1977000000000001,-21.58849443594046
-0.1987,-21.67337711393236
-0.1997000000000001,-21.729965565926964
-0.2007,-21.814848243918867
-0.2017000000000001,-21.857289582914817
-0.2027,-21.857289582914817
-0.2037000000000001,-21.899730921910766
-0.2047,-21.899730921910766
-0.2057000000000001,-21.899730921910766
-0.2067,-21.899730921910766
-0.2077000000000001,-21.899730921910766
-0.2087,-21.94217226090672
-0.2097000000000001,-21.98461359990267
-0.2107,-22.027054938898623
-0.2117000000000001,-22.111937616890522
-0.2127,-22.15437895588647
-0.2137000000000001,-22.196820294882425
-0.2147,-22.196820294882425
-0.2157000000000001,-22.196820294882425
-0.2167,-22.15437895588647
-0.21770000000000012,-22.111937616890522
-0.2187,-22.069496277894572
-0.21970000000000012,-22.069496277894572
-0.2207,-22.069496277894572
-0.22170000000000012,-22.069496277894572
-0.2227,-22.111937616890522
-0.22370000000000012,-22.15437895588647
-0.2247,-22.15437895588647
-0.22570000000000012,-22.15437895588647
-0.2267,-22.111937616890522
-0.22770000000000012,-22.069496277894572
-0.22870000000000001,-22.027054938898623
-0.22970000000000013,-21.94217226090672
-0.23070000000000002,-21.857289582914817
-0.23170000000000013,-21.814848243918867
-0.23270000000000002,-21.814848243918867
-0.23370000000000013,-21.814848243918867
-0.23470000000000002,-21.814848243918867
-0.23570000000000013,-21.772406904922917
-0.23670000000000002,-21.772406904922917
-0.2376999999999999,-21.67337711393236
-0.23870000000000002,-21.63093577493641
-0.2396999999999999,-21.58849443594046
-0.24070000000000003,-21.503611757948562
-0.24169999999999991,-21.418729079956652
-0.24270000000000003,-21.333846401964752
-0.24369999999999992,-21.291405062968803
-0.24470000000000003,-21.248963723972853
-0.24569999999999992,-21.2065223849769
-0.24670000000000003,-21.2065223849769
-0.24769999999999992,-21.149933932982297
-0.24870000000000003,-21.107492593986347
-0.24969999999999992,-21.022609915994444
-0.25070000000000003,-20.93772723800254
-0.2516999999999999,-20.810403221014692
-0.25270000000000004,-20.683079204026836
-0.2536999999999999,-20.584049413036283
-0.25470000000000004,-20.499166735044383
-0.2556999999999999,-20.414284057052477
-0.25670000000000004,-20.329401379060574
-0.25769999999999993,-20.286960040064624
-0.25870000000000004,-20.244518701068674
-0.25969999999999993,-20.159636023076775
-0.26070000000000004,-20.01816489309027
-0.26169999999999993,-19.890840876102416
-0.26270000000000004,-19.763516859114564
-0.26369999999999993,-19.636192842126707
-0.26470000000000005,-19.49472171214021
-0.26569999999999994,-19.367397695152352
-0.26670000000000005,-19.2400736781645
-0.26769999999999994,-19.197632339168546
-0.26870000000000005,-19.056161209182044
-0.26969999999999994,-19.01371987018609
-0.27070000000000005,-18.92883719219419
-0.27169999999999994,-18.80151317520634
-0.27270000000000005,-18.674189158218486
-0.27369999999999994,-18.589306480226583
-0.27470000000000006,-18.40539401124413
-0.27569999999999995,-18.27806999425627
-0.27670000000000006,-18.10830463827247
-0.27769999999999995,-17.966833508285966
-0.27870000000000006,-17.881950830294063
-0.27969999999999995,-17.797068152302163
-0.28070000000000006,-17.71218547431026
-0.28169999999999995,-17.627302796318357
-0.28270000000000006,-17.542420118326454
-0.28369999999999995,-17.4433903273359
-0.28470000000000006,-17.316066310348052
-0.28569999999999995,-17.188742293360193
-0.28670000000000007,-17.061418276372343
-0.28769999999999996,-16.877505807389888
-0.28870000000000007,-16.792623129397985
-0.28969999999999996,-16.665299112410132
-0.29070000000000007,-16.53797509542228
-0.29169999999999996,-16.495533756426326
-0.29270000000000007,-16.396503965435777
-0.29369999999999996,-16.354062626439823
-0.2947000000000001,-16.269179948447924
-0.29569999999999996,-16.184297270456018
-0.2967000000000001,-16.056973253468165
-0.29769999999999996,-15.91550212348166
-0.2987000000000001,-15.78817810649381
-0.29969999999999997,-15.660854089505953
-0.3007000000000001,-15.533530072518102
-0.30169999999999997,-15.448647394526201
-0.3027000000000001,-15.3920589425316
-0.30369999999999997,-15.349617603535648
-0.3047000000000001,-15.264734925543747
-0.30569999999999997,-15.264734925543747
-0.3067000000000001,-15.179852247551842
-0.3077,-15.094969569559943
-0.3087000000000001,-15.01008689156804
-0.3097,-14.925204213576137
-0.3107000000000001,-14.826174422585586
-0.3117,-14.69885040559773
-0.3127000000000001,-14.61396772760583
-0.3137,-14.61396772760583
-0.3147000000000001,-14.529085049613924
-0.3157,-14.57152638860988
-0.3167000000000001,-14.529085049613924
-0.3177,-14.529085049613924
-0.3187000000000001,-14.486643710617974
-0.3197,-14.444202371622024
-0.3207000000000001,-14.345172580631472
-0.3217,-14.30273124163552
-0.3227000000000001,-14.217848563643619
-0.3237,-14.175407224647667
-0.3247000000000001,-14.090524546655764
-0.3257,-14.090524546655764
-0.3267000000000001,-14.046668496359947
-0.3277,-14.046668496359947
-0.3287000000000001,-14.046668496359947
-0.3297,-14.046668496359947
-0.3307000000000001,-14.002812446064135
-0.3317,-13.960371107068182
-0.3327000000000001,-13.916515056772363
-0.3337,-13.872659006476551
-0.3347000000000001,-13.828802956180734
-0.3357,-13.784946905884919
-0.3367000000000001,-13.784946905884919
-0.3377,-13.784946905884919
-0.3387000000000001,-13.828802956180734
-0.3397,-13.872659006476551
-0.3407000000000001,-13.872659006476551
-0.3417,-13.916515056772363
-0.3427000000000001,-13.916515056772363
-0.3437,-13.916515056772363
-0.3447000000000001,-13.916515056772363
-0.3457,-13.872659006476551
-0.3467000000000001,-13.872659006476551
-0.3477,-13.872659006476551
-0.3487000000000001,-13.916515056772363
-0.3497,-13.960371107068182
-0.3507000000000001,-14.046668496359947
-0.3517,-14.090524546655764
-0.3527000000000001,-14.13438059695158
-0.3537,-14.175407224647667
-0.3547000000000001,-14.217848563643619
-0.3557,-14.26028990263957
-0.35670000000000013,-14.26028990263957
-0.3577,-14.26028990263957
-0.35870000000000013,-14.30273124163552
-0.3597,-14.345172580631472
-0.36070000000000013,-14.401761032626075
-0.3617,-14.486643710617974
-0.3626999999999999,-14.57152638860988
-0.3637,-14.65640906660178
-0.3646999999999999,-14.741291744593681
-0.3657,-14.783733083589633
-0.3666999999999999,-14.826174422585586
-0.3677,-14.868615761581536
-0.3686999999999999,-14.925204213576137
-0.36970000000000003,-14.967645552572087
-0.3706999999999999,-15.01008689156804
-0.37170000000000003,-15.05252823056399
-0.3726999999999999,-15.137410908555893
-0.37370000000000003,-15.264734925543747
-0.3746999999999999,-15.349617603535648
-0.37570000000000003,-15.491088733522153
-0.3766999999999999,-15.575971411514052
-0.37770000000000004,-15.618412750510005
-0.3786999999999999,-15.660854089505953
-0.37970000000000004,-15.74573676749786
-0.3806999999999999,-15.78817810649381
-0.38170000000000004,-15.830619445489761
-0.38269999999999993,-15.91550212348166
-0.38370000000000004,-16.014531914472215
-0.38469999999999993,-16.099414592464115
-0.38570000000000004,-16.22673860945197
-0.38669999999999993,-16.354062626439823
-0.38770000000000004,-16.438945304431726
-0.38869999999999993,-16.580416434418233
-0.38970000000000005,-16.665299112410132
-0.39069999999999994,-16.750181790402035
-0.39170000000000005,-16.792623129397985
-0.39269999999999994,-16.877505807389888
-0.39370000000000005,-16.919947146385837
-0.39469999999999994,-17.018976937376394
-0.39570000000000005,-17.103859615368293
-0.39669999999999994,-17.231183632356142
-0.39770000000000005,-17.358507649344002
-0.39869999999999994,-17.48583166633185
-0.39970000000000006,-17.584861457322408
-0.40069999999999995,-17.669744135314307
-0.40170000000000006,-17.75462681330621
-0.40269999999999995,-17.797068152302163
-0.40370000000000006,-17.881950830294063
-0.40469999999999995,-17.966833508285966
-0.40570000000000006,-18.06586329927652
-0.40669999999999995,-18.15074597726842
-0.40770000000000006,-18.27806999425627
-0.40869999999999995,-18.40539401124413
-0.40970000000000006,-18.49027668923603
-0.41069999999999995,-18.631747819222536
-0.41170000000000007,-18.716630497214435
-0.41269999999999996,-18.80151317520634
-0.41370000000000007,-18.88639585319824
-0.41469999999999996,-18.92883719219419
-0.41570000000000007,-19.01371987018609
-0.41669999999999996,-19.056161209182044
-0.41770000000000007,-19.155191000172596
-0.41869999999999996,-19.2400736781645
-0.4197000000000001,-19.367397695152352
-0.42069999999999996,-19.49472171214021
-0.4217000000000001,-19.579604390132108
-0.42269999999999996,-19.721075520118614
-0.4237000000000001,-19.805958198110513
-0.42469999999999997,-19.805958198110513
-0.4257000000000001,-19.890840876102416
-0.42669999999999997,-19.93328221509837
-0.4277000000000001,-19.97572355409432
-0.42869999999999997,-20.06060623208622
-0.4297000000000001,-20.159636023076775
-0.43069999999999997,-20.244518701068674
-0.4317000000000001,-20.329401379060574
-0.4327,-20.414284057052477
-0.4337000000000001,-20.541608074040333
-0.4347,-20.626490752032236
-0.4357000000000001,-20.72552054302279
-0.4367,-20.76796188201874
-0.4377000000000001,-20.85284456001064
-0.4387,-20.89528589900659
-0.4397000000000001,-20.89528589900659
-0.4407,-20.93772723800254
-0.4417000000000001,-21.022609915994444
-0.4427,-21.107492593986347
-0.4437000000000001,-21.2065223849769
-0.4447,-21.333846401964752
-0.4457000000000001,-21.418729079956652
-0.4467,-21.461170418952605
-0.4477000000000001,-21.503611757948562
-0.4487,-21.503611757948562
-0.4497000000000001,-21.54605309694451
-0.4507,-21.54605309694451
-0.4517000000000001,-21.58849443594046
-0.4527,-21.58849443594046
-0.4537000000000001,-21.67337711393236
-0.4547,-21.772406904922917
-0.4557000000000001,-21.814848243918867
-0.4567,-21.857289582914817
-0.4577000000000001,-21.899730921910766
-0.4587,-21.94217226090672
-0.4597000000000001,-22.027054938898623
-0.4607,-21.98461359990267
-0.4617000000000001,-22.027054938898623
-0.4627,-22.027054938898623
-0.4637000000000001,-22.027054938898623
-0.4647,-22.069496277894572
-0.4657000000000001,-22.069496277894572
-0.4667,-22.15437895588647
-0.4677000000000001,-22.253408746877028
-0.4687,-22.33829142486893
-0.4697000000000001,-22.38073276386488
-0.4707,-22.46561544185678
-0.4717000000000001,-22.508056780852733
-0.4727,-22.550498119848687
-0.4737000000000001,-22.592939458844636
-0.4747,-22.63538079784059
-0.4757000000000001,-22.67782213683654
-0.4767,-22.72026347583249
-0.4777000000000001,-22.776851927827092
-0.4787,-22.861734605818995
-0.4797000000000001,-22.946617283810895
-0.4807,-23.031499961802798
-0.48170000000000013,-23.1163826397947
-0.4827,-23.2012653177866
-0.48370000000000013,-23.300295108777156
-0.4847,-23.427619125765005
-0.48570000000000013,-23.51250180375691
-0.4867,-22.861734605818995
-0.48570000000000013,-21.461170418952605
-0.4847,-20.541608074040333
-0.48370000000000013,-19.848399537106463
-0.4827,-19.28251501716045
-0.48170000000000013,-18.716630497214435
-0.4807,-18.23562865526032
-0.4797000000000001,-17.797068152302163
-0.4787,-17.358507649344002
-0.4777000000000001,-16.962388485381787
-0.4767,-16.580416434418233
-0.4757000000000001,-16.184297270456018
-0.4747,-15.78817810649381
-0.4737000000000001,-15.448647394526201
-0.4727,-15.137410908555893
-0.4717000000000001,-14.826174422585586
-0.4707,-14.57152638860988
-0.4697000000000001,-14.30273124163552
-0.4687,-14.046668496359947
-0.4677000000000001,-13.784946905884919
