Jan. 15, 2025   08:27:27
Cyclic Voltammetry
File: c:/users/guazh/data/banditlqround7_x0exp772_r5/2025-01-10-exp851\exp851-2025-01-15t08_15_51-arkoh\exp851_cv_sr_600mvs_efin_-1500mv.bin
Data Source:  Experiment
Instrument Model:  CHI760E
Header: CV ran at 600 mVs
Note: 

Init E (V) = -1
High E (V) = -1
Low E (V) = -1.5
Final E (V) = -1
Init P/N = N
Scan Rate (V/s) = 0.6
Segment = 3
Sample Interval (V) = 0.001
Quiet Time (sec) = 2
Sensitivity (A/V) = 0.01
Comp R (ohm) = 1.5

Results:

Channel 1:
Segment 1:

Segment 2:

Segment 3:

Potential/V, Current/A

-1.000, 9.405e-6
-1.001, 5.565e-5
-1.002, 8.340e-5
-1.003, 1.019e-4
-1.004, 1.173e-4
-1.005, 1.266e-4
-1.006, 1.358e-4
-1.007, 1.420e-4
-1.008, 1.481e-4
-1.009, 1.574e-4
-1.010, 1.636e-4
-1.011, 1.697e-4
-1.012, 1.790e-4
-1.013, 1.821e-4
-1.014, 1.882e-4
-1.015, 1.913e-4
-1.016, 1.944e-4
-1.017, 1.944e-4
-1.018, 2.006e-4
-1.019, 2.067e-4
-1.020, 2.098e-4
-1.021, 2.191e-4
-1.022, 2.252e-4
-1.023, 2.283e-4
-1.024, 2.314e-4
-1.025, 2.376e-4
-1.026, 2.376e-4
-1.027, 2.406e-4
-1.028, 2.468e-4
-1.029, 2.499e-4
-1.030, 2.561e-4
-1.031, 2.622e-4
-1.032, 2.715e-4
-1.033, 2.746e-4
-1.034, 2.807e-4
-1.035, 2.838e-4
-1.036, 2.869e-4
-1.037, 2.900e-4
-1.038, 2.961e-4
-1.039, 3.023e-4
-1.040, 3.085e-4
-1.041, 3.177e-4
-1.042, 3.270e-4
-1.043, 3.331e-4
-1.044, 3.393e-4
-1.045, 3.424e-4
-1.046, 3.485e-4
-1.047, 3.516e-4
-1.048, 3.578e-4
-1.049, 3.640e-4
-1.050, 3.732e-4
-1.051, 3.825e-4
-1.052, 3.917e-4
-1.053, 3.979e-4
-1.054, 4.040e-4
-1.055, 4.102e-4
-1.056, 4.164e-4
-1.057, 4.195e-4
-1.058, 4.256e-4
-1.059, 4.318e-4
-1.060, 4.410e-4
-1.061, 4.503e-4
-1.062, 4.626e-4
-1.063, 4.719e-4
-1.064, 4.780e-4
-1.065, 4.842e-4
-1.066, 4.904e-4
-1.067, 4.965e-4
-1.068, 5.058e-4
-1.069, 5.120e-4
-1.070, 5.212e-4
-1.071, 5.305e-4
-1.072, 5.428e-4
-1.073, 5.520e-4
-1.074, 5.582e-4
-1.075, 5.674e-4
-1.076, 5.736e-4
-1.077, 5.767e-4
-1.078, 5.829e-4
-1.079, 5.921e-4
-1.080, 6.014e-4
-1.081, 6.106e-4
-1.082, 6.199e-4
-1.083, 6.291e-4
-1.084, 6.384e-4
-1.085, 6.445e-4
-1.086, 6.476e-4
-1.087, 6.538e-4
-1.088, 6.599e-4
-1.089, 6.692e-4
-1.090, 6.784e-4
-1.091, 6.908e-4
-1.092, 7.000e-4
-1.093, 7.093e-4
-1.094, 7.185e-4
-1.095, 7.247e-4
-1.096, 7.309e-4
-1.097, 7.339e-4
-1.098, 7.432e-4
-1.099, 7.494e-4
-1.100, 7.586e-4
-1.101, 7.709e-4
-1.102, 7.802e-4
-1.103, 7.894e-4
-1.104, 7.956e-4
-1.105, 8.018e-4
-1.106, 8.079e-4
-1.107, 8.110e-4
-1.108, 8.203e-4
-1.109, 8.264e-4
-1.110, 8.357e-4
-1.111, 8.449e-4
-1.112, 8.573e-4
-1.113, 8.634e-4
-1.114, 8.727e-4
-1.115, 8.758e-4
-1.116, 8.819e-4
-1.117, 8.850e-4
-1.118, 8.912e-4
-1.119, 8.973e-4
-1.120, 9.066e-4
-1.121, 9.158e-4
-1.122, 9.251e-4
-1.123, 9.343e-4
-1.124, 9.405e-4
-1.125, 9.467e-4
-1.126, 9.498e-4
-1.127, 9.559e-4
-1.128, 9.590e-4
-1.129, 9.652e-4
-1.130, 9.744e-4
-1.131, 9.837e-4
-1.132, 9.929e-4
-1.133, 9.991e-4
-1.134, 1.005e-3
-1.135, 1.011e-3
-1.136, 1.014e-3
-1.137, 1.018e-3
-1.138, 1.024e-3
-1.139, 1.030e-3
-1.140, 1.036e-3
-1.141, 1.045e-3
-1.142, 1.055e-3
-1.143, 1.064e-3
-1.144, 1.070e-3
-1.145, 1.073e-3
-1.146, 1.076e-3
-1.147, 1.079e-3
-1.148, 1.082e-3
-1.149, 1.088e-3
-1.150, 1.098e-3
-1.151, 1.104e-3
-1.152, 1.113e-3
-1.153, 1.122e-3
-1.154, 1.125e-3
-1.155, 1.132e-3
-1.156, 1.135e-3
-1.157, 1.138e-3
-1.158, 1.141e-3
-1.159, 1.147e-3
-1.160, 1.153e-3
-1.161, 1.159e-3
-1.162, 1.169e-3
-1.163, 1.175e-3
-1.164, 1.181e-3
-1.165, 1.187e-3
-1.166, 1.187e-3
-1.167, 1.193e-3
-1.168, 1.196e-3
-1.169, 1.199e-3
-1.170, 1.203e-3
-1.171, 1.212e-3
-1.172, 1.218e-3
-1.173, 1.224e-3
-1.174, 1.230e-3
-1.175, 1.236e-3
-1.176, 1.236e-3
-1.177, 1.240e-3
-1.178, 1.246e-3
-1.179, 1.249e-3
-1.180, 1.255e-3
-1.181, 1.261e-3
-1.182, 1.267e-3
-1.183, 1.273e-3
-1.184, 1.280e-3
-1.185, 1.283e-3
-1.186, 1.283e-3
-1.187, 1.286e-3
-1.188, 1.289e-3
-1.189, 1.292e-3
-1.190, 1.295e-3
-1.191, 1.304e-3
-1.192, 1.307e-3
-1.193, 1.314e-3
-1.194, 1.317e-3
-1.195, 1.320e-3
-1.196, 1.323e-3
-1.197, 1.323e-3
-1.198, 1.323e-3
-1.199, 1.326e-3
-1.200, 1.332e-3
-1.201, 1.338e-3
-1.202, 1.341e-3
-1.203, 1.347e-3
-1.204, 1.351e-3
-1.205, 1.351e-3
-1.206, 1.351e-3
-1.207, 1.351e-3
-1.208, 1.351e-3
-1.209, 1.354e-3
-1.210, 1.357e-3
-1.211, 1.360e-3
-1.212, 1.363e-3
-1.213, 1.369e-3
-1.214, 1.372e-3
-1.215, 1.372e-3
-1.216, 1.369e-3
-1.217, 1.369e-3
-1.218, 1.369e-3
-1.219, 1.369e-3
-1.220, 1.372e-3
-1.221, 1.372e-3
-1.222, 1.375e-3
-1.223, 1.378e-3
-1.224, 1.378e-3
-1.225, 1.375e-3
-1.226, 1.375e-3
-1.227, 1.369e-3
-1.228, 1.369e-3
-1.229, 1.369e-3
-1.230, 1.369e-3
-1.231, 1.369e-3
-1.232, 1.369e-3
-1.233, 1.369e-3
-1.234, 1.369e-3
-1.235, 1.366e-3
-1.236, 1.363e-3
-1.237, 1.357e-3
-1.238, 1.354e-3
-1.239, 1.351e-3
-1.240, 1.347e-3
-1.241, 1.347e-3
-1.242, 1.351e-3
-1.243, 1.347e-3
-1.244, 1.344e-3
-1.245, 1.341e-3
-1.246, 1.338e-3
-1.247, 1.332e-3
-1.248, 1.329e-3
-1.249, 1.326e-3
-1.250, 1.323e-3
-1.251, 1.323e-3
-1.252, 1.323e-3
-1.253, 1.320e-3
-1.254, 1.314e-3
-1.255, 1.310e-3
-1.256, 1.301e-3
-1.257, 1.295e-3
-1.258, 1.289e-3
-1.259, 1.286e-3
-1.260, 1.283e-3
-1.261, 1.283e-3
-1.262, 1.280e-3
-1.263, 1.277e-3
-1.264, 1.273e-3
-1.265, 1.264e-3
-1.266, 1.255e-3
-1.267, 1.243e-3
-1.268, 1.236e-3
-1.269, 1.227e-3
-1.270, 1.221e-3
-1.271, 1.218e-3
-1.272, 1.215e-3
-1.273, 1.209e-3
-1.274, 1.203e-3
-1.275, 1.193e-3
-1.276, 1.184e-3
-1.277, 1.175e-3
-1.278, 1.166e-3
-1.279, 1.159e-3
-1.280, 1.153e-3
-1.281, 1.150e-3
-1.282, 1.144e-3
-1.283, 1.138e-3
-1.284, 1.132e-3
-1.285, 1.122e-3
-1.286, 1.113e-3
-1.287, 1.101e-3
-1.288, 1.092e-3
-1.289, 1.085e-3
-1.290, 1.079e-3
-1.291, 1.073e-3
-1.292, 1.070e-3
-1.293, 1.064e-3
-1.294, 1.058e-3
-1.295, 1.048e-3
-1.296, 1.042e-3
-1.297, 1.030e-3
-1.298, 1.024e-3
-1.299, 1.014e-3
-1.300, 1.011e-3
-1.301, 1.008e-3
-1.302, 1.002e-3
-1.303, 9.991e-4
-1.304, 9.898e-4
-1.305, 9.837e-4
-1.306, 9.744e-4
-1.307, 9.652e-4
-1.308, 9.590e-4
-1.309, 9.528e-4
-1.310, 9.498e-4
-1.311, 9.467e-4
-1.312, 9.436e-4
-1.313, 9.405e-4
-1.314, 9.343e-4
-1.315, 9.313e-4
-1.316, 9.220e-4
-1.317, 9.128e-4
-1.318, 9.097e-4
-1.319, 9.035e-4
-1.320, 9.004e-4
-1.321, 9.004e-4
-1.322, 9.004e-4
-1.323, 8.973e-4
-1.324, 8.943e-4
-1.325, 8.912e-4
-1.326, 8.850e-4
-1.327, 8.788e-4
-1.328, 8.758e-4
-1.329, 8.727e-4
-1.330, 8.696e-4
-1.331, 8.696e-4
-1.332, 8.696e-4
-1.333, 8.696e-4
-1.334, 8.696e-4
-1.335, 8.665e-4
-1.336, 8.603e-4
-1.337, 8.573e-4
-1.338, 8.573e-4
-1.339, 8.542e-4
-1.340, 8.542e-4
-1.341, 8.573e-4
-1.342, 8.603e-4
-1.343, 8.603e-4
-1.344, 8.603e-4
-1.345, 8.573e-4
-1.346, 8.542e-4
-1.347, 8.511e-4
-1.348, 8.511e-4
-1.349, 8.480e-4
-1.350, 8.511e-4
-1.351, 8.542e-4
-1.352, 8.603e-4
-1.353, 8.634e-4
-1.354, 8.634e-4
-1.355, 8.665e-4
-1.356, 8.634e-4
-1.357, 8.634e-4
-1.358, 8.634e-4
-1.359, 8.665e-4
-1.360, 8.696e-4
-1.361, 8.727e-4
-1.362, 8.788e-4
-1.363, 8.819e-4
-1.364, 8.850e-4
-1.365, 8.881e-4
-1.366, 8.881e-4
-1.367, 8.912e-4
-1.368, 8.912e-4
-1.369, 8.943e-4
-1.370, 9.004e-4
-1.371, 9.066e-4
-1.372, 9.128e-4
-1.373, 9.158e-4
-1.374, 9.220e-4
-1.375, 9.251e-4
-1.376, 9.282e-4
-1.377, 9.282e-4
-1.378, 9.313e-4
-1.379, 9.374e-4
-1.380, 9.436e-4
-1.381, 9.498e-4
-1.382, 9.590e-4
-1.383, 9.652e-4
-1.384, 9.683e-4
-1.385, 9.744e-4
-1.386, 9.744e-4
-1.387, 9.775e-4
-1.388, 9.806e-4
-1.389, 9.868e-4
-1.390, 9.929e-4
-1.391, 1.002e-3
-1.392, 1.011e-3
-1.393, 1.018e-3
-1.394, 1.024e-3
-1.395, 1.027e-3
-1.396, 1.030e-3
-1.397, 1.033e-3
-1.398, 1.039e-3
-1.399, 1.045e-3
-1.400, 1.051e-3
-1.401, 1.061e-3
-1.402, 1.070e-3
-1.403, 1.076e-3
-1.404, 1.082e-3
-1.405, 1.085e-3
-1.406, 1.088e-3
-1.407, 1.095e-3
-1.408, 1.098e-3
-1.409, 1.104e-3
-1.410, 1.110e-3
-1.411, 1.119e-3
-1.412, 1.129e-3
-1.413, 1.135e-3
-1.414, 1.144e-3
-1.415, 1.147e-3
-1.416, 1.150e-3
-1.417, 1.153e-3
-1.418, 1.156e-3
-1.419, 1.162e-3
-1.420, 1.169e-3
-1.421, 1.178e-3
-1.422, 1.187e-3
-1.423, 1.193e-3
-1.424, 1.196e-3
-1.425, 1.203e-3
-1.426, 1.206e-3
-1.427, 1.206e-3
-1.428, 1.212e-3
-1.429, 1.218e-3
-1.430, 1.224e-3
-1.431, 1.230e-3
-1.432, 1.240e-3
-1.433, 1.246e-3
-1.434, 1.252e-3
-1.435, 1.255e-3
-1.436, 1.258e-3
-1.437, 1.258e-3
-1.438, 1.261e-3
-1.439, 1.267e-3
-1.440, 1.273e-3
-1.441, 1.280e-3
-1.442, 1.286e-3
-1.443, 1.292e-3
-1.444, 1.298e-3
-1.445, 1.298e-3
-1.446, 1.301e-3
-1.447, 1.301e-3
-1.448, 1.304e-3
-1.449, 1.307e-3
-1.450, 1.314e-3
-1.451, 1.320e-3
-1.452, 1.326e-3
-1.453, 1.329e-3
-1.454, 1.332e-3
-1.455, 1.332e-3
-1.456, 1.332e-3
-1.457, 1.332e-3
-1.458, 1.335e-3
-1.459, 1.338e-3
-1.460, 1.341e-3
-1.461, 1.347e-3
-1.462, 1.354e-3
-1.463, 1.357e-3
-1.464, 1.357e-3
-1.465, 1.360e-3
-1.466, 1.360e-3
-1.467, 1.360e-3
-1.468, 1.363e-3
-1.469, 1.363e-3
-1.470, 1.369e-3
-1.471, 1.372e-3
-1.472, 1.378e-3
-1.473, 1.381e-3
-1.474, 1.384e-3
-1.475, 1.384e-3
-1.476, 1.384e-3
-1.477, 1.384e-3
-1.478, 1.384e-3
-1.479, 1.388e-3
-1.480, 1.394e-3
-1.481, 1.400e-3
-1.482, 1.406e-3
-1.483, 1.409e-3
-1.484, 1.415e-3
-1.485, 1.415e-3
-1.486, 1.418e-3
-1.487, 1.421e-3
-1.488, 1.428e-3
-1.489, 1.434e-3
-1.490, 1.443e-3
-1.491, 1.452e-3
-1.492, 1.462e-3
-1.493, 1.474e-3
-1.494, 1.483e-3
-1.495, 1.495e-3
-1.496, 1.508e-3
-1.497, 1.520e-3
-1.498, 1.536e-3
-1.499, 1.554e-3
-1.500, 1.526e-3
-1.499, 1.449e-3
-1.498, 1.403e-3
-1.497, 1.366e-3
-1.496, 1.338e-3
-1.495, 1.310e-3
-1.494, 1.286e-3
-1.493, 1.264e-3
-1.492, 1.243e-3
-1.491, 1.227e-3
-1.490, 1.212e-3
-1.489, 1.199e-3
-1.488, 1.190e-3
-1.487, 1.178e-3
-1.486, 1.169e-3
-1.485, 1.156e-3
-1.484, 1.144e-3
-1.483, 1.135e-3
-1.482, 1.129e-3
-1.481, 1.122e-3
-1.480, 1.119e-3
-1.479, 1.116e-3
-1.478, 1.116e-3
-1.477, 1.113e-3
-1.476, 1.110e-3
-1.475, 1.107e-3
-1.474, 1.104e-3
-1.473, 1.101e-3
-1.472, 1.101e-3
-1.471, 1.098e-3
-1.470, 1.098e-3
-1.469, 1.101e-3
-1.468, 1.101e-3
-1.467, 1.098e-3
-1.466, 1.095e-3
-1.465, 1.092e-3
-1.464, 1.082e-3
-1.463, 1.076e-3
-1.462, 1.070e-3
-1.461, 1.061e-3
-1.460, 1.055e-3
-1.459, 1.048e-3
-1.458, 1.042e-3
-1.457, 1.033e-3
-1.456, 1.024e-3
-1.455, 1.011e-3
-1.454, 9.960e-4
-1.453, 9.837e-4
-1.452, 9.683e-4
-1.451, 9.528e-4
-1.450, 9.405e-4
-1.449, 9.282e-4
-1.448, 9.189e-4
-1.447, 9.035e-4
-1.446, 8.881e-4
-1.445, 8.727e-4
-1.444, 8.573e-4
-1.443, 8.388e-4
-1.442, 8.203e-4
-1.441, 8.048e-4
-1.440, 7.894e-4
-1.439, 7.771e-4
-1.438, 7.617e-4
-1.437, 7.494e-4
-1.436, 7.309e-4
-1.435, 7.124e-4
-1.434, 6.939e-4
-1.433, 6.754e-4
-1.432, 6.569e-4
-1.431, 6.414e-4
-1.430, 6.260e-4
-1.429, 6.137e-4
-1.428, 6.014e-4
-1.427, 5.859e-4
-1.426, 5.705e-4
-1.425, 5.520e-4
-1.424, 5.366e-4
-1.423, 5.181e-4
-1.422, 5.027e-4
-1.421, 4.873e-4
-1.420, 4.719e-4
-1.419, 4.595e-4
-1.418, 4.472e-4
-1.417, 4.349e-4
-1.416, 4.195e-4
-1.415, 4.040e-4
-1.414, 3.886e-4
-1.413, 3.732e-4
-1.412, 3.609e-4
-1.411, 3.455e-4
-1.410, 3.331e-4
-1.409, 3.239e-4
-1.408, 3.115e-4
-1.407, 2.992e-4
-1.406, 2.869e-4
-1.405, 2.746e-4
-1.404, 2.591e-4
-1.403, 2.468e-4
-1.402, 2.345e-4
-1.401, 2.221e-4
-1.400, 2.129e-4
-1.399, 2.036e-4
-1.398, 1.975e-4
-1.397, 1.882e-4
-1.396, 1.790e-4
-1.395, 1.666e-4
-1.394, 1.543e-4
-1.393, 1.420e-4
-1.392, 1.327e-4
-1.391, 1.235e-4
-1.390, 1.142e-4
-1.389, 1.081e-4
-1.388, 1.019e-4
-1.387, 9.265e-5
-1.386, 8.648e-5
-1.385, 7.723e-5
-1.384, 6.490e-5
-1.383, 5.565e-5
-1.382, 4.640e-5
-1.381, 4.024e-5
-1.380, 3.407e-5
-1.379, 3.099e-5
-1.378, 2.482e-5
-1.377, 1.865e-5
-1.376, 1.249e-5
-1.375, 3.239e-6
-1.374, -2.927e-6
-1.373, -1.218e-5
-1.372, -2.143e-5
-1.371, -2.451e-5
-1.370, -3.068e-5
-1.369, -3.376e-5
-1.368, -3.684e-5
-1.367, -3.992e-5
-1.366, -4.609e-5
-1.365, -5.226e-5
-1.364, -6.151e-5
-1.363, -6.767e-5
-1.362, -7.384e-5
-1.361, -7.692e-5
-1.360, -8.000e-5
-1.359, -8.309e-5
-1.358, -8.617e-5
-1.357, -8.925e-5
-1.356, -9.234e-5
-1.355, -9.850e-5
-1.354, -1.047e-4
-1.353, -1.108e-4
-1.352, -1.170e-4
-1.351, -1.201e-4
-1.350, -1.232e-4
-1.349, -1.232e-4
-1.348, -1.263e-4
-1.347, -1.293e-4
-1.346, -1.324e-4
-1.345, -1.386e-4
-1.344, -1.417e-4
-1.343, -1.478e-4
-1.342, -1.509e-4
-1.341, -1.571e-4
-1.340, -1.571e-4
-1.339, -1.571e-4
-1.338, -1.602e-4
-1.337, -1.602e-4
-1.336, -1.632e-4
-1.335, -1.694e-4
-1.334, -1.756e-4
-1.333, -1.787e-4
-1.332, -1.848e-4
-1.331, -1.879e-4
-1.330, -1.879e-4
-1.329, -1.879e-4
-1.328, -1.879e-4
-1.327, -1.910e-4
-1.326, -1.941e-4
-1.325, -1.972e-4
-1.324, -2.033e-4
-1.323, -2.064e-4
-1.322, -2.095e-4
-1.321, -2.157e-4
-1.320, -2.157e-4
-1.319, -2.157e-4
-1.318, -2.157e-4
-1.317, -2.157e-4
-1.316, -2.187e-4
-1.315, -2.249e-4
-1.314, -2.280e-4
-1.313, -2.342e-4
-1.312, -2.372e-4
-1.311, -2.403e-4
-1.310, -2.403e-4
-1.309, -2.372e-4
-1.308, -2.403e-4
-1.307, -2.403e-4
-1.306, -2.434e-4
-1.305, -2.496e-4
-1.304, -2.527e-4
-1.303, -2.588e-4
-1.302, -2.619e-4
-1.301, -2.650e-4
-1.300, -2.650e-4
-1.299, -2.650e-4
-1.298, -2.650e-4
-1.297, -2.650e-4
-1.296, -2.681e-4
-1.295, -2.712e-4
-1.294, -2.773e-4
-1.293, -2.804e-4
-1.292, -2.866e-4
-1.291, -2.866e-4
-1.290, -2.897e-4
-1.289, -2.897e-4
-1.288, -2.897e-4
-1.287, -2.897e-4
-1.286, -2.927e-4
-1.285, -2.958e-4
-1.284, -3.020e-4
-1.283, -3.051e-4
-1.282, -3.112e-4
-1.281, -3.112e-4
-1.280, -3.143e-4
-1.279, -3.143e-4
-1.278, -3.143e-4
-1.277, -3.143e-4
-1.276, -3.174e-4
-1.275, -3.205e-4
-1.274, -3.267e-4
-1.273, -3.328e-4
-1.272, -3.359e-4
-1.271, -3.390e-4
-1.270, -3.390e-4
-1.269, -3.390e-4
-1.268, -3.390e-4
-1.267, -3.421e-4
-1.266, -3.421e-4
-1.265, -3.482e-4
-1.264, -3.513e-4
-1.263, -3.575e-4
-1.262, -3.606e-4
-1.261, -3.667e-4
-1.260, -3.667e-4
-1.259, -3.637e-4
-1.258, -3.667e-4
-1.257, -3.698e-4
-1.256, -3.698e-4
-1.255, -3.760e-4
-1.254, -3.791e-4
-1.253, -3.852e-4
-1.252, -3.883e-4
-1.251, -3.914e-4
-1.250, -3.945e-4
-1.249, -3.945e-4
-1.248, -3.945e-4
-1.247, -3.945e-4
-1.246, -3.976e-4
-1.245, -4.037e-4
-1.244, -4.068e-4
-1.243, -4.130e-4
-1.242, -4.161e-4
-1.241, -4.222e-4
-1.240, -4.222e-4
-1.239, -4.222e-4
-1.238, -4.222e-4
-1.237, -4.253e-4
-1.236, -4.284e-4
-1.235, -4.315e-4
-1.234, -4.376e-4
-1.233, -4.438e-4
-1.232, -4.500e-4
-1.231, -4.531e-4
-1.230, -4.531e-4
-1.229, -4.561e-4
-1.228, -4.561e-4
-1.227, -4.592e-4
-1.226, -4.623e-4
-1.225, -4.654e-4
-1.224, -4.716e-4
-1.223, -4.777e-4
-1.222, -4.839e-4
-1.221, -4.870e-4
-1.220, -4.901e-4
-1.219, -4.901e-4
-1.218, -4.901e-4
-1.217, -4.931e-4
-1.216, -4.962e-4
-1.215, -4.993e-4
-1.214, -5.055e-4
-1.213, -5.147e-4
-1.212, -5.178e-4
-1.211, -5.209e-4
-1.210, -5.240e-4
-1.209, -5.271e-4
-1.208, -5.271e-4
-1.207, -5.301e-4
-1.206, -5.332e-4
-1.205, -5.394e-4
-1.204, -5.456e-4
-1.203, -5.548e-4
-1.202, -5.579e-4
-1.201, -5.641e-4
-1.200, -5.671e-4
-1.199, -5.671e-4
-1.198, -5.671e-4
-1.197, -5.733e-4
-1.196, -5.764e-4
-1.195, -5.826e-4
-1.194, -5.887e-4
-1.193, -5.949e-4
-1.192, -6.011e-4
-1.191, -6.072e-4
-1.190, -6.103e-4
-1.189, -6.134e-4
-1.188, -6.134e-4
-1.187, -6.165e-4
-1.186, -6.195e-4
-1.185, -6.288e-4
-1.184, -6.350e-4
-1.183, -6.411e-4
-1.182, -6.473e-4
-1.181, -6.535e-4
-1.180, -6.596e-4
-1.179, -6.596e-4
-1.178, -6.627e-4
-1.177, -6.658e-4
-1.176, -6.689e-4
-1.175, -6.781e-4
-1.174, -6.843e-4
-1.173, -6.935e-4
-1.172, -6.997e-4
-1.171, -7.059e-4
-1.170, -7.090e-4
-1.169, -7.120e-4
-1.168, -7.120e-4
-1.167, -7.182e-4
-1.166, -7.213e-4
-1.165, -7.275e-4
-1.164, -7.367e-4
-1.163, -7.460e-4
-1.162, -7.521e-4
-1.161, -7.614e-4
-1.160, -7.614e-4
-1.159, -7.675e-4
-1.158, -7.675e-4
-1.157, -7.706e-4
-1.156, -7.737e-4
-1.155, -7.799e-4
-1.154, -7.891e-4
-1.153, -7.984e-4
-1.152, -8.045e-4
-1.151, -8.107e-4
-1.150, -8.169e-4
-1.149, -8.200e-4
-1.148, -8.230e-4
-1.147, -8.261e-4
-1.146, -8.323e-4
-1.145, -8.385e-4
-1.144, -8.477e-4
-1.143, -8.539e-4
-1.142, -8.600e-4
-1.141, -8.662e-4
-1.140, -8.724e-4
-1.139, -8.724e-4
-1.138, -8.754e-4
-1.137, -8.785e-4
-1.136, -8.847e-4
-1.135, -8.909e-4
-1.134, -9.001e-4
-1.133, -9.063e-4
-1.132, -9.124e-4
-1.131, -9.186e-4
-1.130, -9.217e-4
-1.129, -9.248e-4
-1.128, -9.279e-4
-1.127, -9.309e-4
-1.126, -9.340e-4
-1.125, -9.402e-4
-1.124, -9.494e-4
-1.123, -9.556e-4
-1.122, -9.618e-4
-1.121, -9.679e-4
-1.120, -9.710e-4
-1.119, -9.710e-4
-1.118, -9.741e-4
-1.117, -9.772e-4
-1.116, -9.803e-4
-1.115, -9.864e-4
-1.114, -9.926e-4
-1.113, -1.002e-3
-1.112, -1.008e-3
-1.111, -1.014e-3
-1.110, -1.017e-3
-1.109, -1.020e-3
-1.108, -1.020e-3
-1.107, -1.023e-3
-1.106, -1.030e-3
-1.105, -1.036e-3
-1.104, -1.042e-3
-1.103, -1.051e-3
-1.102, -1.060e-3
-1.101, -1.067e-3
-1.100, -1.070e-3
-1.099, -1.073e-3
-1.098, -1.073e-3
-1.097, -1.079e-3
-1.096, -1.079e-3
-1.095, -1.085e-3
-1.094, -1.094e-3
-1.093, -1.101e-3
-1.092, -1.104e-3
-1.091, -1.110e-3
-1.090, -1.113e-3
-1.089, -1.113e-3
-1.088, -1.113e-3
-1.087, -1.116e-3
-1.086, -1.119e-3
-1.085, -1.125e-3
-1.084, -1.131e-3
-1.083, -1.138e-3
-1.082, -1.147e-3
-1.081, -1.150e-3
-1.080, -1.156e-3
-1.079, -1.156e-3
-1.078, -1.159e-3
-1.077, -1.159e-3
-1.076, -1.165e-3
-1.075, -1.171e-3
-1.074, -1.178e-3
-1.073, -1.184e-3
-1.072, -1.190e-3
-1.071, -1.193e-3
-1.070, -1.196e-3
-1.069, -1.196e-3
-1.068, -1.199e-3
-1.067, -1.199e-3
-1.066, -1.202e-3
-1.065, -1.208e-3
-1.064, -1.212e-3
-1.063, -1.221e-3
-1.062, -1.224e-3
-1.061, -1.227e-3
-1.060, -1.233e-3
-1.059, -1.230e-3
-1.058, -1.233e-3
-1.057, -1.233e-3
-1.056, -1.236e-3
-1.055, -1.239e-3
-1.054, -1.249e-3
-1.053, -1.252e-3
-1.052, -1.258e-3
-1.051, -1.261e-3
-1.050, -1.264e-3
-1.049, -1.264e-3
-1.048, -1.264e-3
-1.047, -1.267e-3
-1.046, -1.270e-3
-1.045, -1.273e-3
-1.044, -1.279e-3
-1.043, -1.282e-3
-1.042, -1.289e-3
-1.041, -1.292e-3
-1.040, -1.295e-3
-1.039, -1.295e-3
-1.038, -1.295e-3
-1.037, -1.295e-3
-1.036, -1.298e-3
-1.035, -1.301e-3
-1.034, -1.307e-3
-1.033, -1.313e-3
-1.032, -1.319e-3
-1.031, -1.322e-3
-1.030, -1.326e-3
-1.029, -1.326e-3
-1.028, -1.326e-3
-1.027, -1.326e-3
-1.026, -1.329e-3
-1.025, -1.332e-3
-1.024, -1.335e-3
-1.023, -1.341e-3
-1.022, -1.344e-3
-1.021, -1.350e-3
-1.020, -1.350e-3
-1.019, -1.353e-3
-1.018, -1.350e-3
-1.017, -1.350e-3
-1.016, -1.353e-3
-1.015, -1.356e-3
-1.014, -1.359e-3
-1.013, -1.366e-3
-1.012, -1.366e-3
-1.011, -1.369e-3
-1.010, -1.369e-3
-1.009, -1.372e-3
-1.008, -1.369e-3
-1.007, -1.369e-3
-1.006, -1.372e-3
-1.005, -1.372e-3
-1.004, -1.378e-3
-1.003, -1.381e-3
-1.002, -1.384e-3
-1.001, -1.384e-3
