Jan. 15, 2025   08:26:44
Cyclic Voltammetry
File: c:/users/guazh/data/banditlqround7_x0exp772_r5/2025-01-10-exp851\exp851-2025-01-15t08_15_51-arkoh\exp851_cv_sr_400mvs_efin_-1500mv.bin
Data Source:  Experiment
Instrument Model:  CHI760E
Header: CV ran at 400 mVs
Note: 

Init E (V) = -1
High E (V) = -1
Low E (V) = -1.5
Final E (V) = -1
Init P/N = N
Scan Rate (V/s) = 0.4
Segment = 3
Sample Interval (V) = 0.001
Quiet Time (sec) = 2
Sensitivity (A/V) = 0.01
Comp R (ohm) = 1.5

Results:

Channel 1:
Segment 1:

Segment 2:

Segment 3:

Potential/V, Current/A

-1.000, 6.322e-6
-1.001, 4.640e-5
-1.002, 6.490e-5
-1.003, 8.032e-5
-1.004, 8.648e-5
-1.005, 8.957e-5
-1.006, 9.882e-5
-1.007, 1.050e-4
-1.008, 1.142e-4
-1.009, 1.204e-4
-1.010, 1.235e-4
-1.011, 1.235e-4
-1.012, 1.266e-4
-1.013, 1.296e-4
-1.014, 1.358e-4
-1.015, 1.420e-4
-1.016, 1.451e-4
-1.017, 1.481e-4
-1.018, 1.481e-4
-1.019, 1.481e-4
-1.020, 1.543e-4
-1.021, 1.605e-4
-1.022, 1.666e-4
-1.023, 1.697e-4
-1.024, 1.697e-4
-1.025, 1.728e-4
-1.026, 1.759e-4
-1.027, 1.821e-4
-1.028, 1.882e-4
-1.029, 1.944e-4
-1.030, 1.944e-4
-1.031, 1.975e-4
-1.032, 1.975e-4
-1.033, 2.036e-4
-1.034, 2.098e-4
-1.035, 2.160e-4
-1.036, 2.221e-4
-1.037, 2.221e-4
-1.038, 2.252e-4
-1.039, 2.283e-4
-1.040, 2.314e-4
-1.041, 2.406e-4
-1.042, 2.468e-4
-1.043, 2.499e-4
-1.044, 2.530e-4
-1.045, 2.561e-4
-1.046, 2.591e-4
-1.047, 2.653e-4
-1.048, 2.746e-4
-1.049, 2.838e-4
-1.050, 2.838e-4
-1.051, 2.869e-4
-1.052, 2.900e-4
-1.053, 2.961e-4
-1.054, 3.054e-4
-1.055, 3.146e-4
-1.056, 3.177e-4
-1.057, 3.208e-4
-1.058, 3.239e-4
-1.059, 3.270e-4
-1.060, 3.331e-4
-1.061, 3.424e-4
-1.062, 3.516e-4
-1.063, 3.578e-4
-1.064, 3.578e-4
-1.065, 3.609e-4
-1.066, 3.670e-4
-1.067, 3.763e-4
-1.068, 3.855e-4
-1.069, 3.917e-4
-1.070, 3.948e-4
-1.071, 3.979e-4
-1.072, 4.010e-4
-1.073, 4.071e-4
-1.074, 4.164e-4
-1.075, 4.225e-4
-1.076, 4.318e-4
-1.077, 4.349e-4
-1.078, 4.349e-4
-1.079, 4.410e-4
-1.080, 4.472e-4
-1.081, 4.565e-4
-1.082, 4.626e-4
-1.083, 4.688e-4
-1.084, 4.719e-4
-1.085, 4.750e-4
-1.086, 4.811e-4
-1.087, 4.873e-4
-1.088, 4.965e-4
-1.089, 5.027e-4
-1.090, 5.089e-4
-1.091, 5.089e-4
-1.092, 5.120e-4
-1.093, 5.181e-4
-1.094, 5.243e-4
-1.095, 5.335e-4
-1.096, 5.428e-4
-1.097, 5.428e-4
-1.098, 5.459e-4
-1.099, 5.489e-4
-1.100, 5.551e-4
-1.101, 5.644e-4
-1.102, 5.736e-4
-1.103, 5.767e-4
-1.104, 5.798e-4
-1.105, 5.829e-4
-1.106, 5.859e-4
-1.107, 5.921e-4
-1.108, 6.044e-4
-1.109, 6.106e-4
-1.110, 6.137e-4
-1.111, 6.137e-4
-1.112, 6.168e-4
-1.113, 6.229e-4
-1.114, 6.291e-4
-1.115, 6.384e-4
-1.116, 6.445e-4
-1.117, 6.476e-4
-1.118, 6.476e-4
-1.119, 6.507e-4
-1.120, 6.569e-4
-1.121, 6.661e-4
-1.122, 6.723e-4
-1.123, 6.784e-4
-1.124, 6.815e-4
-1.125, 6.815e-4
-1.126, 6.846e-4
-1.127, 6.908e-4
-1.128, 7.000e-4
-1.129, 7.093e-4
-1.130, 7.093e-4
-1.131, 7.124e-4
-1.132, 7.124e-4
-1.133, 7.185e-4
-1.134, 7.247e-4
-1.135, 7.309e-4
-1.136, 7.370e-4
-1.137, 7.401e-4
-1.138, 7.401e-4
-1.139, 7.432e-4
-1.140, 7.494e-4
-1.141, 7.586e-4
-1.142, 7.648e-4
-1.143, 7.679e-4
-1.144, 7.709e-4
-1.145, 7.709e-4
-1.146, 7.740e-4
-1.147, 7.802e-4
-1.148, 7.894e-4
-1.149, 7.987e-4
-1.150, 8.018e-4
-1.151, 8.018e-4
-1.152, 8.048e-4
-1.153, 8.079e-4
-1.154, 8.172e-4
-1.155, 8.233e-4
-1.156, 8.295e-4
-1.157, 8.326e-4
-1.158, 8.357e-4
-1.159, 8.357e-4
-1.160, 8.418e-4
-1.161, 8.511e-4
-1.162, 8.542e-4
-1.163, 8.603e-4
-1.164, 8.603e-4
-1.165, 8.603e-4
-1.166, 8.634e-4
-1.167, 8.696e-4
-1.168, 8.788e-4
-1.169, 8.850e-4
-1.170, 8.881e-4
-1.171, 8.881e-4
-1.172, 8.881e-4
-1.173, 8.912e-4
-1.174, 8.943e-4
-1.175, 9.035e-4
-1.176, 9.097e-4
-1.177, 9.097e-4
-1.178, 9.097e-4
-1.179, 9.128e-4
-1.180, 9.158e-4
-1.181, 9.220e-4
-1.182, 9.282e-4
-1.183, 9.313e-4
-1.184, 9.313e-4
-1.185, 9.313e-4
-1.186, 9.343e-4
-1.187, 9.374e-4
-1.188, 9.436e-4
-1.189, 9.498e-4
-1.190, 9.498e-4
-1.191, 9.467e-4
-1.192, 9.467e-4
-1.193, 9.467e-4
-1.194, 9.498e-4
-1.195, 9.590e-4
-1.196, 9.621e-4
-1.197, 9.621e-4
-1.198, 9.559e-4
-1.199, 9.559e-4
-1.200, 9.559e-4
-1.201, 9.621e-4
-1.202, 9.652e-4
-1.203, 9.683e-4
-1.204, 9.652e-4
-1.205, 9.621e-4
-1.206, 9.621e-4
-1.207, 9.652e-4
-1.208, 9.683e-4
-1.209, 9.713e-4
-1.210, 9.713e-4
-1.211, 9.683e-4
-1.212, 9.621e-4
-1.213, 9.621e-4
-1.214, 9.652e-4
-1.215, 9.683e-4
-1.216, 9.683e-4
-1.217, 9.652e-4
-1.218, 9.590e-4
-1.219, 9.559e-4
-1.220, 9.590e-4
-1.221, 9.590e-4
-1.222, 9.621e-4
-1.223, 9.621e-4
-1.224, 9.559e-4
-1.225, 9.528e-4
-1.226, 9.498e-4
-1.227, 9.498e-4
-1.228, 9.528e-4
-1.229, 9.528e-4
-1.230, 9.498e-4
-1.231, 9.436e-4
-1.232, 9.374e-4
-1.233, 9.343e-4
-1.234, 9.343e-4
-1.235, 9.343e-4
-1.236, 9.343e-4
-1.237, 9.282e-4
-1.238, 9.189e-4
-1.239, 9.158e-4
-1.240, 9.128e-4
-1.241, 9.128e-4
-1.242, 9.128e-4
-1.243, 9.097e-4
-1.244, 9.004e-4
-1.245, 8.943e-4
-1.246, 8.881e-4
-1.247, 8.850e-4
-1.248, 8.881e-4
-1.249, 8.850e-4
-1.250, 8.788e-4
-1.251, 8.727e-4
-1.252, 8.634e-4
-1.253, 8.603e-4
-1.254, 8.603e-4
-1.255, 8.603e-4
-1.256, 8.573e-4
-1.257, 8.480e-4
-1.258, 8.418e-4
-1.259, 8.326e-4
-1.260, 8.295e-4
-1.261, 8.264e-4
-1.262, 8.264e-4
-1.263, 8.203e-4
-1.264, 8.110e-4
-1.265, 8.018e-4
-1.266, 7.956e-4
-1.267, 7.956e-4
-1.268, 7.925e-4
-1.269, 7.894e-4
-1.270, 7.833e-4
-1.271, 7.709e-4
-1.272, 7.617e-4
-1.273, 7.586e-4
-1.274, 7.586e-4
-1.275, 7.586e-4
-1.276, 7.524e-4
-1.277, 7.463e-4
-1.278, 7.370e-4
-1.279, 7.278e-4
-1.280, 7.247e-4
-1.281, 7.247e-4
-1.282, 7.216e-4
-1.283, 7.154e-4
-1.284, 7.093e-4
-1.285, 7.000e-4
-1.286, 6.939e-4
-1.287, 6.908e-4
-1.288, 6.908e-4
-1.289, 6.908e-4
-1.290, 6.846e-4
-1.291, 6.754e-4
-1.292, 6.692e-4
-1.293, 6.630e-4
-1.294, 6.661e-4
-1.295, 6.630e-4
-1.296, 6.599e-4
-1.297, 6.538e-4
-1.298, 6.476e-4
-1.299, 6.414e-4
-1.300, 6.384e-4
-1.301, 6.384e-4
-1.302, 6.384e-4
-1.303, 6.353e-4
-1.304, 6.291e-4
-1.305, 6.260e-4
-1.306, 6.229e-4
-1.307, 6.229e-4
-1.308, 6.260e-4
-1.309, 6.260e-4
-1.310, 6.229e-4
-1.311, 6.168e-4
-1.312, 6.106e-4
-1.313, 6.106e-4
-1.314, 6.106e-4
-1.315, 6.137e-4
-1.316, 6.137e-4
-1.317, 6.075e-4
-1.318, 6.044e-4
-1.319, 6.014e-4
-1.320, 6.044e-4
-1.321, 6.075e-4
-1.322, 6.075e-4
-1.323, 6.075e-4
-1.324, 6.044e-4
-1.325, 5.983e-4
-1.326, 5.983e-4
-1.327, 6.014e-4
-1.328, 6.075e-4
-1.329, 6.075e-4
-1.330, 6.075e-4
-1.331, 6.044e-4
-1.332, 6.014e-4
-1.333, 6.014e-4
-1.334, 6.044e-4
-1.335, 6.106e-4
-1.336, 6.137e-4
-1.337, 6.106e-4
-1.338, 6.075e-4
-1.339, 6.075e-4
-1.340, 6.106e-4
-1.341, 6.168e-4
-1.342, 6.199e-4
-1.343, 6.229e-4
-1.344, 6.199e-4
-1.345, 6.199e-4
-1.346, 6.199e-4
-1.347, 6.260e-4
-1.348, 6.322e-4
-1.349, 6.353e-4
-1.350, 6.353e-4
-1.351, 6.384e-4
-1.352, 6.384e-4
-1.353, 6.384e-4
-1.354, 6.445e-4
-1.355, 6.538e-4
-1.356, 6.569e-4
-1.357, 6.569e-4
-1.358, 6.569e-4
-1.359, 6.569e-4
-1.360, 6.599e-4
-1.361, 6.692e-4
-1.362, 6.754e-4
-1.363, 6.754e-4
-1.364, 6.754e-4
-1.365, 6.754e-4
-1.366, 6.815e-4
-1.367, 6.877e-4
-1.368, 6.939e-4
-1.369, 7.000e-4
-1.370, 7.031e-4
-1.371, 7.031e-4
-1.372, 7.031e-4
-1.373, 7.093e-4
-1.374, 7.154e-4
-1.375, 7.216e-4
-1.376, 7.247e-4
-1.377, 7.278e-4
-1.378, 7.278e-4
-1.379, 7.309e-4
-1.380, 7.370e-4
-1.381, 7.494e-4
-1.382, 7.555e-4
-1.383, 7.586e-4
-1.384, 7.586e-4
-1.385, 7.586e-4
-1.386, 7.617e-4
-1.387, 7.679e-4
-1.388, 7.771e-4
-1.389, 7.833e-4
-1.390, 7.833e-4
-1.391, 7.863e-4
-1.392, 7.863e-4
-1.393, 7.925e-4
-1.394, 7.987e-4
-1.395, 8.079e-4
-1.396, 8.141e-4
-1.397, 8.141e-4
-1.398, 8.172e-4
-1.399, 8.172e-4
-1.400, 8.233e-4
-1.401, 8.326e-4
-1.402, 8.388e-4
-1.403, 8.418e-4
-1.404, 8.449e-4
-1.405, 8.449e-4
-1.406, 8.480e-4
-1.407, 8.542e-4
-1.408, 8.634e-4
-1.409, 8.665e-4
-1.410, 8.665e-4
-1.411, 8.665e-4
-1.412, 8.696e-4
-1.413, 8.727e-4
-1.414, 8.819e-4
-1.415, 8.912e-4
-1.416, 8.943e-4
-1.417, 8.943e-4
-1.418, 8.943e-4
-1.419, 8.943e-4
-1.420, 8.973e-4
-1.421, 9.066e-4
-1.422, 9.128e-4
-1.423, 9.158e-4
-1.424, 9.158e-4
-1.425, 9.158e-4
-1.426, 9.189e-4
-1.427, 9.251e-4
-1.428, 9.313e-4
-1.429, 9.343e-4
-1.430, 9.374e-4
-1.431, 9.343e-4
-1.432, 9.374e-4
-1.433, 9.405e-4
-1.434, 9.467e-4
-1.435, 9.528e-4
-1.436, 9.559e-4
-1.437, 9.528e-4
-1.438, 9.528e-4
-1.439, 9.528e-4
-1.440, 9.528e-4
-1.441, 9.590e-4
-1.442, 9.652e-4
-1.443, 9.652e-4
-1.444, 9.652e-4
-1.445, 9.652e-4
-1.446, 9.652e-4
-1.447, 9.683e-4
-1.448, 9.744e-4
-1.449, 9.775e-4
-1.450, 9.744e-4
-1.451, 9.744e-4
-1.452, 9.744e-4
-1.453, 9.775e-4
-1.454, 9.806e-4
-1.455, 9.868e-4
-1.456, 9.868e-4
-1.457, 9.868e-4
-1.458, 9.868e-4
-1.459, 9.837e-4
-1.460, 9.898e-4
-1.461, 9.960e-4
-1.462, 1.002e-3
-1.463, 1.002e-3
-1.464, 1.002e-3
-1.465, 9.991e-4
-1.466, 1.002e-3
-1.467, 1.008e-3
-1.468, 1.018e-3
-1.469, 1.021e-3
-1.470, 1.027e-3
-1.471, 1.027e-3
-1.472, 1.030e-3
-1.473, 1.039e-3
-1.474, 1.048e-3
-1.475, 1.058e-3
-1.476, 1.067e-3
-1.477, 1.076e-3
-1.478, 1.085e-3
-1.479, 1.098e-3
-1.480, 1.116e-3
-1.481, 1.138e-3
-1.482, 1.159e-3
-1.483, 1.181e-3
-1.484, 1.203e-3
-1.485, 1.227e-3
-1.486, 1.255e-3
-1.487, 1.292e-3
-1.488, 1.335e-3
-1.489, 1.381e-3
-1.490, 1.428e-3
-1.491, 1.480e-3
-1.492, 1.542e-3
-1.493, 1.616e-3
-1.494, 1.705e-3
-1.495, 1.801e-3
-1.496, 1.909e-3
-1.497, 2.032e-3
-1.498, 2.168e-3
-1.499, 2.312e-3
-1.500, 2.420e-3
-1.499, 2.473e-3
-1.498, 2.538e-3
-1.497, 2.599e-3
-1.496, 2.652e-3
-1.495, 2.698e-3
-1.494, 2.744e-3
-1.493, 2.784e-3
-1.492, 2.818e-3
-1.491, 2.852e-3
-1.490, 2.880e-3
-1.489, 2.901e-3
-1.488, 2.920e-3
-1.487, 2.938e-3
-1.486, 2.957e-3
-1.485, 2.975e-3
-1.484, 2.985e-3
-1.483, 2.988e-3
-1.482, 2.991e-3
-1.481, 2.991e-3
-1.480, 2.994e-3
-1.479, 2.994e-3
-1.478, 2.991e-3
-1.477, 2.985e-3
-1.476, 2.972e-3
-1.475, 2.954e-3
-1.474, 2.938e-3
-1.473, 2.920e-3
-1.472, 2.908e-3
-1.471, 2.892e-3
-1.470, 2.874e-3
-1.469, 2.852e-3
-1.468, 2.827e-3
-1.467, 2.803e-3
-1.466, 2.781e-3
-1.465, 2.756e-3
-1.464, 2.732e-3
-1.463, 2.701e-3
-1.462, 2.673e-3
-1.461, 2.639e-3
-1.460, 2.612e-3
-1.459, 2.584e-3
-1.458, 2.556e-3
-1.457, 2.528e-3
-1.456, 2.494e-3
-1.455, 2.460e-3
-1.454, 2.430e-3
-1.453, 2.399e-3
-1.452, 2.368e-3
-1.451, 2.337e-3
-1.450, 2.303e-3
-1.449, 2.266e-3
-1.448, 2.232e-3
-1.447, 2.198e-3
-1.446, 2.168e-3
-1.445, 2.140e-3
-1.444, 2.109e-3
-1.443, 2.072e-3
-1.442, 2.035e-3
-1.441, 1.998e-3
-1.440, 1.964e-3
-1.439, 1.933e-3
-1.438, 1.902e-3
-1.437, 1.869e-3
-1.436, 1.832e-3
-1.435, 1.798e-3
-1.434, 1.764e-3
-1.433, 1.730e-3
-1.432, 1.702e-3
-1.431, 1.668e-3
-1.430, 1.634e-3
-1.429, 1.597e-3
-1.428, 1.560e-3
-1.427, 1.529e-3
-1.426, 1.499e-3
-1.425, 1.471e-3
-1.424, 1.440e-3
-1.423, 1.406e-3
-1.422, 1.372e-3
-1.421, 1.341e-3
-1.420, 1.310e-3
-1.419, 1.283e-3
-1.418, 1.255e-3
-1.417, 1.227e-3
-1.416, 1.196e-3
-1.415, 1.166e-3
-1.414, 1.138e-3
-1.413, 1.110e-3
-1.412, 1.082e-3
-1.411, 1.058e-3
-1.410, 1.030e-3
-1.409, 1.002e-3
-1.408, 9.713e-4
-1.407, 9.467e-4
-1.406, 9.220e-4
-1.405, 9.004e-4
-1.404, 8.758e-4
-1.403, 8.480e-4
-1.402, 8.203e-4
-1.401, 7.956e-4
-1.400, 7.709e-4
-1.399, 7.524e-4
-1.398, 7.309e-4
-1.397, 7.093e-4
-1.396, 6.846e-4
-1.395, 6.599e-4
-1.394, 6.384e-4
-1.393, 6.199e-4
-1.392, 6.014e-4
-1.391, 5.829e-4
-1.390, 5.613e-4
-1.389, 5.397e-4
-1.388, 5.181e-4
-1.387, 4.996e-4
-1.386, 4.842e-4
-1.385, 4.688e-4
-1.384, 4.503e-4
-1.383, 4.318e-4
-1.382, 4.133e-4
-1.381, 3.948e-4
-1.380, 3.794e-4
-1.379, 3.670e-4
-1.378, 3.547e-4
-1.377, 3.393e-4
-1.376, 3.208e-4
-1.375, 3.023e-4
-1.374, 2.900e-4
-1.373, 2.776e-4
-1.372, 2.653e-4
-1.371, 2.561e-4
-1.370, 2.406e-4
-1.369, 2.252e-4
-1.368, 2.129e-4
-1.367, 2.006e-4
-1.366, 1.913e-4
-1.365, 1.851e-4
-1.364, 1.728e-4
-1.363, 1.605e-4
-1.362, 1.451e-4
-1.361, 1.327e-4
-1.360, 1.266e-4
-1.359, 1.204e-4
-1.358, 1.111e-4
-1.357, 1.019e-4
-1.356, 9.265e-5
-1.355, 8.032e-5
-1.354, 7.107e-5
-1.353, 6.490e-5
-1.352, 6.182e-5
-1.351, 5.565e-5
-1.350, 4.332e-5
-1.349, 3.407e-5
-1.348, 2.482e-5
-1.347, 1.865e-5
-1.346, 1.557e-5
-1.345, 9.405e-6
-1.344, 3.239e-6
-1.343, -6.010e-6
-1.342, -1.526e-5
-1.341, -2.143e-5
-1.340, -2.759e-5
-1.339, -2.759e-5
-1.338, -3.376e-5
-1.337, -3.992e-5
-1.336, -4.609e-5
-1.335, -5.534e-5
-1.334, -5.842e-5
-1.333, -6.151e-5
-1.332, -6.459e-5
-1.331, -6.767e-5
-1.330, -7.384e-5
-1.329, -8.309e-5
-1.328, -8.925e-5
-1.327, -9.234e-5
-1.326, -9.234e-5
-1.325, -9.234e-5
-1.324, -9.850e-5
-1.323, -1.047e-4
-1.322, -1.108e-4
-1.321, -1.170e-4
-1.320, -1.170e-4
-1.319, -1.170e-4
-1.318, -1.201e-4
-1.317, -1.232e-4
-1.316, -1.293e-4
-1.315, -1.355e-4
-1.314, -1.386e-4
-1.313, -1.386e-4
-1.312, -1.386e-4
-1.311, -1.417e-4
-1.310, -1.478e-4
-1.309, -1.540e-4
-1.308, -1.571e-4
-1.307, -1.602e-4
-1.306, -1.602e-4
-1.305, -1.571e-4
-1.304, -1.602e-4
-1.303, -1.663e-4
-1.302, -1.725e-4
-1.301, -1.756e-4
-1.300, -1.787e-4
-1.299, -1.756e-4
-1.298, -1.756e-4
-1.297, -1.817e-4
-1.296, -1.848e-4
-1.295, -1.910e-4
-1.294, -1.941e-4
-1.293, -1.941e-4
-1.292, -1.910e-4
-1.291, -1.941e-4
-1.290, -1.972e-4
-1.289, -2.033e-4
-1.288, -2.095e-4
-1.287, -2.126e-4
-1.286, -2.095e-4
-1.285, -2.095e-4
-1.284, -2.126e-4
-1.283, -2.157e-4
-1.282, -2.187e-4
-1.281, -2.249e-4
-1.280, -2.249e-4
-1.279, -2.249e-4
-1.278, -2.249e-4
-1.277, -2.280e-4
-1.276, -2.311e-4
-1.275, -2.372e-4
-1.274, -2.403e-4
-1.273, -2.403e-4
-1.272, -2.372e-4
-1.271, -2.403e-4
-1.270, -2.434e-4
-1.269, -2.496e-4
-1.268, -2.557e-4
-1.267, -2.557e-4
-1.266, -2.557e-4
-1.265, -2.527e-4
-1.264, -2.557e-4
-1.263, -2.588e-4
-1.262, -2.650e-4
-1.261, -2.712e-4
-1.260, -2.712e-4
-1.259, -2.712e-4
-1.258, -2.712e-4
-1.257, -2.712e-4
-1.256, -2.773e-4
-1.255, -2.835e-4
-1.254, -2.866e-4
-1.253, -2.866e-4
-1.252, -2.835e-4
-1.251, -2.835e-4
-1.250, -2.897e-4
-1.249, -2.958e-4
-1.248, -2.989e-4
-1.247, -3.020e-4
-1.246, -3.020e-4
-1.245, -2.989e-4
-1.244, -3.020e-4
-1.243, -3.051e-4
-1.242, -3.112e-4
-1.241, -3.174e-4
-1.240, -3.174e-4
-1.239, -3.143e-4
-1.238, -3.174e-4
-1.237, -3.174e-4
-1.236, -3.236e-4
-1.235, -3.297e-4
-1.234, -3.328e-4
-1.233, -3.328e-4
-1.232, -3.328e-4
-1.231, -3.328e-4
-1.230, -3.359e-4
-1.229, -3.452e-4
-1.228, -3.513e-4
-1.227, -3.513e-4
-1.226, -3.513e-4
-1.225, -3.513e-4
-1.224, -3.513e-4
-1.223, -3.575e-4
-1.222, -3.637e-4
-1.221, -3.698e-4
-1.220, -3.698e-4
-1.219, -3.667e-4
-1.218, -3.698e-4
-1.217, -3.729e-4
-1.216, -3.791e-4
-1.215, -3.852e-4
-1.214, -3.852e-4
-1.213, -3.883e-4
-1.212, -3.852e-4
-1.211, -3.883e-4
-1.210, -3.914e-4
-1.209, -3.976e-4
-1.208, -4.037e-4
-1.207, -4.068e-4
-1.206, -4.068e-4
-1.205, -4.068e-4
-1.204, -4.099e-4
-1.203, -4.130e-4
-1.202, -4.222e-4
-1.201, -4.253e-4
-1.200, -4.284e-4
-1.199, -4.253e-4
-1.198, -4.284e-4
-1.197, -4.315e-4
-1.196, -4.376e-4
-1.195, -4.438e-4
-1.194, -4.500e-4
-1.193, -4.500e-4
-1.192, -4.469e-4
-1.191, -4.500e-4
-1.190, -4.561e-4
-1.189, -4.623e-4
-1.188, -4.685e-4
-1.187, -4.716e-4
-1.186, -4.716e-4
-1.185, -4.716e-4
-1.184, -4.746e-4
-1.183, -4.808e-4
-1.182, -4.870e-4
-1.181, -4.931e-4
-1.180, -4.962e-4
-1.179, -4.962e-4
-1.178, -4.962e-4
-1.177, -5.024e-4
-1.176, -5.086e-4
-1.175, -5.178e-4
-1.174, -5.209e-4
-1.173, -5.209e-4
-1.172, -5.209e-4
-1.171, -5.240e-4
-1.170, -5.301e-4
-1.169, -5.363e-4
-1.168, -5.425e-4
-1.167, -5.486e-4
-1.166, -5.486e-4
-1.165, -5.486e-4
-1.164, -5.517e-4
-1.163, -5.579e-4
-1.162, -5.671e-4
-1.161, -5.702e-4
-1.160, -5.733e-4
-1.159, -5.733e-4
-1.158, -5.764e-4
-1.157, -5.795e-4
-1.156, -5.856e-4
-1.155, -5.918e-4
-1.154, -5.980e-4
-1.153, -6.011e-4
-1.152, -5.980e-4
-1.151, -6.011e-4
-1.150, -6.072e-4
-1.149, -6.134e-4
-1.148, -6.226e-4
-1.147, -6.257e-4
-1.146, -6.257e-4
-1.145, -6.257e-4
-1.144, -6.288e-4
-1.143, -6.350e-4
-1.142, -6.411e-4
-1.141, -6.473e-4
-1.140, -6.504e-4
-1.139, -6.504e-4
-1.138, -6.504e-4
-1.137, -6.535e-4
-1.136, -6.596e-4
-1.135, -6.689e-4
-1.134, -6.720e-4
-1.133, -6.750e-4
-1.132, -6.750e-4
-1.131, -6.750e-4
-1.130, -6.781e-4
-1.129, -6.874e-4
-1.128, -6.935e-4
-1.127, -6.997e-4
-1.126, -6.997e-4
-1.125, -6.997e-4
-1.124, -7.028e-4
-1.123, -7.059e-4
-1.122, -7.120e-4
-1.121, -7.182e-4
-1.120, -7.213e-4
-1.119, -7.213e-4
-1.118, -7.213e-4
-1.117, -7.244e-4
-1.116, -7.305e-4
-1.115, -7.367e-4
-1.114, -7.429e-4
-1.113, -7.429e-4
-1.112, -7.429e-4
-1.111, -7.429e-4
-1.110, -7.490e-4
-1.109, -7.552e-4
-1.108, -7.614e-4
-1.107, -7.675e-4
-1.106, -7.645e-4
-1.105, -7.645e-4
-1.104, -7.675e-4
-1.103, -7.737e-4
-1.102, -7.799e-4
-1.101, -7.860e-4
-1.100, -7.891e-4
-1.099, -7.860e-4
-1.098, -7.891e-4
-1.097, -7.891e-4
-1.096, -7.953e-4
-1.095, -8.015e-4
-1.094, -8.076e-4
-1.093, -8.076e-4
-1.092, -8.076e-4
-1.091, -8.045e-4
-1.090, -8.107e-4
-1.089, -8.169e-4
-1.088, -8.230e-4
-1.087, -8.261e-4
-1.086, -8.261e-4
-1.085, -8.261e-4
-1.084, -8.261e-4
-1.083, -8.323e-4
-1.082, -8.385e-4
-1.081, -8.415e-4
-1.080, -8.446e-4
-1.079, -8.415e-4
-1.078, -8.446e-4
-1.077, -8.477e-4
-1.076, -8.508e-4
-1.075, -8.600e-4
-1.074, -8.631e-4
-1.073, -8.631e-4
-1.072, -8.631e-4
-1.071, -8.631e-4
-1.070, -8.662e-4
-1.069, -8.693e-4
-1.068, -8.754e-4
-1.067, -8.785e-4
-1.066, -8.785e-4
-1.065, -8.785e-4
-1.064, -8.785e-4
-1.063, -8.816e-4
-1.062, -8.909e-4
-1.061, -8.939e-4
-1.060, -8.970e-4
-1.059, -8.939e-4
-1.058, -8.939e-4
-1.057, -8.939e-4
-1.056, -9.001e-4
-1.055, -9.063e-4
-1.054, -9.094e-4
-1.053, -9.094e-4
-1.052, -9.063e-4
-1.051, -9.063e-4
-1.050, -9.124e-4
-1.049, -9.186e-4
-1.048, -9.248e-4
-1.047, -9.279e-4
-1.046, -9.279e-4
-1.045, -9.279e-4
-1.044, -9.279e-4
-1.043, -9.309e-4
-1.042, -9.371e-4
-1.041, -9.402e-4
-1.040, -9.402e-4
-1.039, -9.402e-4
-1.038, -9.402e-4
-1.037, -9.433e-4
-1.036, -9.464e-4
-1.035, -9.525e-4
-1.034, -9.525e-4
-1.033, -9.525e-4
-1.032, -9.494e-4
-1.031, -9.494e-4
-1.030, -9.525e-4
-1.029, -9.587e-4
-1.028, -9.618e-4
-1.027, -9.649e-4
-1.026, -9.618e-4
-1.025, -9.587e-4
-1.024, -9.618e-4
-1.023, -9.649e-4
-1.022, -9.710e-4
-1.021, -9.741e-4
-1.020, -9.741e-4
-1.019, -9.710e-4
-1.018, -9.679e-4
-1.017, -9.710e-4
-1.016, -9.741e-4
-1.015, -9.803e-4
-1.014, -9.803e-4
-1.013, -9.803e-4
-1.012, -9.803e-4
-1.011, -9.772e-4
-1.010, -9.803e-4
-1.009, -9.864e-4
-1.008, -9.895e-4
-1.007, -9.895e-4
-1.006, -9.864e-4
-1.005, -9.834e-4
-1.004, -9.864e-4
-1.003, -9.895e-4
-1.002, -9.957e-4
-1.001, -1.002e-3
