Potential V vs RHE, Current mA cm-2
0.013299999999999867,-0.7001406223032067
0.012299999999999978,-3.579219588658543
0.011299999999999866,-5.9347139029338285
0.010299999999999976,-7.984630576438266
0.009299999999999864,-9.728969609171857
0.008299999999999974,-11.343155202317865
0.007299999999999862,-12.73806054398479
0.006299999999999972,-13.960371107068182
0.00529999999999986,-15.179852247551842
0.0042999999999999705,-16.269179948447924
0.0032999999999998586,-17.316066310348052
0.0022999999999999687,-18.320511333252224
0.0012999999999998568,-19.28251501716045
0.00029999999999996696,-20.10304757108217
-0.000700000000000145,-20.89528589900659
-0.0017000000000000348,-21.58849443594046
-0.0027000000000001467,-22.15437895588647
-0.0037000000000000366,-22.776851927827092
-0.0047000000000001485,-23.2012653177866
-0.005700000000000038,-23.682267159740714
-0.00670000000000015,-24.16326900169483
-0.00770000000000004,-24.601829504652986
-0.008700000000000152,-25.0828313466071
-0.009700000000000042,-25.521391849565262
-0.010700000000000154,-25.959952352523427
-0.011700000000000044,-26.34192440348698
-0.012700000000000156,-26.69560222845324
-0.013700000000000045,-27.00683871442355
-0.014700000000000157,-27.219045409403304
-0.015700000000000047,-27.43125210438306
-0.01670000000000016,-27.615164573365515
-0.01770000000000005,-27.827371268345274
-0.01870000000000016,-28.011283737327723
-0.01970000000000005,-28.265931771303435
-0.020700000000000163,-28.478138466283188
-0.021700000000000053,-28.746933613257543
-0.022700000000000164,-29.058170099227848
-0.023700000000000054,-29.22793545521166
-0.024700000000000166,-29.440142150191413
-0.025700000000000056,-29.581613280177915
-0.026700000000000168,-29.66649595816982
-0.027700000000000058,-29.751378636161718
-0.02870000000000017,-29.793819975157668
-0.02970000000000006,-29.921143992145527
-0.03070000000000017,-30.00602667013743
-0.03170000000000006,-30.189939139119886
-0.03270000000000017,-30.359704495103685
-0.03370000000000006,-30.487028512091538
-0.034700000000000175,-30.670940981073993
-0.035700000000000065,-30.79826499806185
-0.03670000000000018,-30.925589015049702
-0.03770000000000007,-30.968030354045652
-0.03870000000000018,-31.010471693041605
-0.03970000000000007,-31.010471693041605
-0.04070000000000018,-31.052913032037555
-0.04170000000000007,-31.095354371033505
-0.04270000000000018,-31.19438416202406
-0.04370000000000007,-31.321708179011907
-0.044700000000000184,-31.40659085700382
-0.045700000000000074,-31.533914873991666
-0.046700000000000186,-31.717827342974125
-0.047700000000000076,-31.76026868197007
-0.04870000000000019,-31.802710020966025
-0.04970000000000008,-31.84515135996197
-0.05070000000000019,-31.84515135996197
-0.05170000000000008,-31.84515135996197
-0.05270000000000019,-31.84515135996197
-0.05370000000000008,-31.887592698957924
-0.05470000000000019,-31.972475376949827
-0.05570000000000008,-32.05735805494172
-0.056700000000000195,-32.14224073293363
-0.057700000000000085,-32.24127052392419
-0.058700000000000196,-32.283711862920136
-0.059700000000000086,-32.368594540912035
-0.0607000000000002,-32.368594540912035
-0.06170000000000009,-32.368594540912035
-0.0627000000000002,-32.368594540912035
-0.06370000000000009,-32.283711862920136
-0.0647000000000002,-32.32615320191609
-0.06570000000000009,-32.32615320191609
-0.0667000000000002,-32.41103587990799
-0.0677000000000001,-32.49591855789989
-0.0687000000000002,-32.58080123589179
-0.0697000000000001,-32.70812525287965
-0.07070000000000021,-32.764713704874254
-0.0717000000000001,-32.84959638286615
-0.07270000000000021,-32.84959638286615
-0.0737000000000001,-32.807155043870196
-0.07470000000000021,-32.807155043870196
-0.0757000000000001,-32.807155043870196
-0.07670000000000021,-32.807155043870196
-0.0777000000000001,-32.84959638286615
-0.07870000000000021,-32.93447906085806
-0.0797000000000001,-33.01936173884996
-0.08070000000000022,-33.14668575583781
-0.0817000000000001,-33.231568433829715
-0.08270000000000022,-33.373039563816214
-0.08370000000000011,-33.41548090281216
-0.08470000000000022,-33.41548090281216
-0.08570000000000011,-33.45792224180811
-0.08670000000000022,-33.41548090281216
-0.08770000000000011,-33.45792224180811
-0.08870000000000022,-33.50036358080407
-0.08970000000000011,-33.54280491980002
-0.09070000000000022,-33.670128936787876
-0.09170000000000011,-33.81160006677438
-0.09270000000000023,-33.89648274476628
-0.09370000000000012,-33.98136542275818
-0.09470000000000023,-34.10868943974604
-0.09570000000000012,-34.06624810075008
-0.09670000000000023,-34.10868943974604
-0.09770000000000012,-34.10868943974604
-0.09870000000000023,-34.06624810075008
-0.09970000000000012,-34.15113077874198
-0.10070000000000023,-34.15113077874198
-0.10170000000000012,-34.236013456733886
-0.10270000000000024,-34.377484586720385
-0.10370000000000013,-34.50480860370825
-0.10470000000000024,-34.632132620696105
-0.10570000000000013,-34.717015298688004
-0.10670000000000024,-34.8018979766799
-0.10770000000000013,-34.8018979766799
-0.10870000000000024,-34.90092776767045
-0.10970000000000013,-34.85848642867451
-0.11070000000000024,-34.90092776767045
-0.11170000000000013,-34.94336910666641
-0.11270000000000002,-35.02825178465831
-0.11370000000000013,-35.15557580164616
-0.11470000000000002,-35.282899818634014
-0.11570000000000014,-35.42437094862052
-0.11670000000000003,-35.594136304604326
-0.11770000000000014,-35.679018982596226
-0.11870000000000003,-35.763901660588125
-0.11970000000000014,-35.806342999584075
-0.12070000000000003,-35.848784338580025
-0.12170000000000014,-35.848784338580025
-0.12270000000000003,-35.90537279057463
-0.12370000000000014,-35.99025546856653
-0.12470000000000003,-36.07513814655844
-0.12570000000000014,-36.20246216354629
-0.12670000000000003,-36.329786180534136
-0.12770000000000015,-36.5136986495166
-0.12870000000000004,-36.64102266650445
-0.12970000000000015,-36.768346683492304
-0.13070000000000004,-36.81078802248826
-0.13170000000000015,-36.8532293614842
-0.13270000000000004,-36.89567070048016
-0.13370000000000015,-36.89567070048016
-0.13470000000000004,-37.037141830466666
-0.13570000000000015,-37.122024508458566
-0.13670000000000004,-37.249348525446415
-0.13770000000000016,-37.376672542434264
-0.13870000000000005,-37.60302635041268
-0.13970000000000016,-37.77279170639648
-0.14070000000000005,-37.90011572338433
-0.14170000000000016,-38.08402819236679
-0.14270000000000005,-38.12646953136274
-0.14370000000000016,-38.211352209354644
-0.14470000000000005,-38.253793548350586
-0.14570000000000016,-38.33867622634249
-0.14670000000000005,-38.42355890433439
-0.14770000000000016,-38.5650300343209
-0.14870000000000005,-38.734795390304704
-0.14970000000000017,-38.94700208528445
-0.15070000000000006,-39.173355893262865
-0.15170000000000017,-39.34312124924667
-0.15270000000000006,-39.51288660523048
-0.15370000000000017,-39.61191639622103
-0.15470000000000006,-39.696799074212926
-0.15570000000000017,-39.82412309120078
-0.15670000000000006,-39.86656443019674
-0.15770000000000017,-39.95144710818864
-0.15870000000000006,-40.092918238175145
-0.15970000000000018,-40.26268359415894
-0.16070000000000007,-40.4748902891387
-0.16170000000000018,-40.701244097117105
-0.16270000000000007,-40.91345079209687
-0.16370000000000018,-41.139804600075266
-0.16470000000000007,-41.352011295055014
-0.16570000000000018,-41.43689397304693
-0.16670000000000007,-41.56421799003478
-0.16770000000000018,-41.66324778102533
-0.16870000000000007,-41.74813045901723
-0.16970000000000018,-41.87545447600508
-0.17070000000000007,-42.00277849299294
-0.17170000000000019,-42.229132300971344
-0.17270000000000008,-42.4413389959511
-0.1737000000000002,-42.653545690930855
-0.17470000000000008,-42.92234083790521
-0.1757000000000002,-43.134547532884966
-0.17670000000000008,-43.31846000186743
-0.1777000000000002,-43.48822535785123
-0.17870000000000008,-43.57310803584313
-0.1797000000000002,-43.70043205283099
-0.18070000000000008,-43.79946184382153
-0.1817000000000002,-43.96922719980534
-0.18270000000000008,-44.138992555789144
-0.1837000000000002,-44.36534636376755
-0.1847000000000001,-44.577553058747306
-0.1857000000000002,-44.84634820572166
-0.1867000000000001,-45.10099623969737
-0.1877000000000002,-45.36979138667173
-0.1887000000000001,-45.53955674265553
-0.1897000000000002,-45.666880759643384
-0.1907000000000001,-45.85079322862584
-0.1917000000000001,-45.93567590661774
-0.19269999999999998,-46.147882601597495
-0.1937000000000001,-46.3176479575813
-0.19469999999999998,-46.544001765559706
-0.1957000000000001,-46.84109113853137
-0.19669999999999999,-47.067444946509774
-0.1977000000000001,-47.40697565847737
-0.1987,-47.633329466455784
-0.1997000000000001,-47.8879775004315
-0.2007,-48.071889969413945
-0.2017000000000001,-48.24165532539775
-0.2027,-48.36897934238561
-0.2037000000000001,-48.55289181136806
-0.2047,-48.76509850634781
-0.2057000000000001,-48.93486386233162
-0.2067,-49.20365900930597
-0.2077000000000001,-49.50074838227763
-0.2087,-49.81198486824794
-0.2097000000000001,-50.1656626932142
-0.2107,-50.37786938819396
-0.2117000000000001,-50.64666453516831
-0.2127,-50.85887123014807
-0.2137000000000001,-51.028636586131874
-0.2147,-51.25499039411028
-0.2157000000000001,-51.46719708909004
-0.2167,-51.73599223606439
-0.21770000000000012,-51.990640270040096
-0.2187,-52.25943541701445
-0.21970000000000012,-52.59896612898206
-0.2207,-52.91020261495237
-0.22170000000000012,-53.22143910092268
-0.2227,-53.518528473894335
-0.22370000000000012,-53.74488228187274
-0.2247,-53.999530315848446
-0.22570000000000012,-54.2117370108282
-0.2267,-54.43809081880661
-0.22770000000000012,-54.69273885278232
-0.22870000000000001,-54.919092660760725
-0.22970000000000013,-55.21618203373238
-0.23070000000000002,-55.527418519702685
-0.23170000000000013,-55.838655005673
-0.23270000000000002,-56.22062705663656
-0.23370000000000013,-56.489422203610914
-0.23470000000000002,-56.74407023758662
-0.23570000000000013,-57.012865384560975
-0.23670000000000002,-57.26751341853669
-0.2376999999999999,-57.493867226515086
-0.23870000000000002,-57.66363258249889
-0.2396999999999999,-57.93242772947325
-0.24070000000000003,-58.14463442445301
-0.24169999999999991,-58.498312249419264
-0.24270000000000003,-58.83784296138688
-0.24369999999999992,-59.19152078635314
-0.24470000000000003,-59.54519861131939
-0.24569999999999992,-59.842287984291055
-0.24670000000000003,-60.19596580925731
-0.24769999999999992,-60.45061384323302
-0.24870000000000003,-60.71940899020737
-0.24969999999999992,-60.974057024183075
-0.25070000000000003,-61.242852171157445
-0.2516999999999999,-61.49750020513315
-0.25270000000000004,-61.80873669110345
-0.2536999999999999,-62.11997317707376
-0.25470000000000004,-62.459503889041365
-0.2556999999999999,-62.81318171400764
-0.25670000000000004,-63.20930087796983
-0.25769999999999993,-63.54883158993744
-0.25870000000000004,-63.81762673691181
-0.25969999999999993,-64.0722747708875
-0.26070000000000004,-64.34106991786187
-0.26169999999999993,-64.59571795183757
-0.26270000000000004,-64.86451309881193
-0.26369999999999993,-65.11916113278764
-0.26470000000000005,-65.51528029674984
-0.26569999999999994,-65.91139946071206
-0.26670000000000005,-66.29337151167562
-0.26769999999999994,-66.73193201463377
-0.26870000000000005,-67.08560983960004
-0.26969999999999994,-67.48172900356225
-0.27070000000000005,-67.7788183765339
-0.27169999999999994,-68.0900548625042
-0.27270000000000005,-68.38714423547587
-0.27369999999999994,-68.65593938245023
-0.27470000000000006,-69.0096172074165
-0.27569999999999995,-69.3491479193841
-0.27670000000000006,-69.74526708334632
-0.27769999999999995,-70.14138624730852
-0.27870000000000006,-70.53750541127073
-0.27969999999999995,-71.0043601402262
-0.28070000000000006,-71.35803796519245
-0.28169999999999995,-71.75415712915466
-0.28270000000000006,-72.10783495412092
-0.28369999999999995,-72.44736566608852
-0.28470000000000006,-72.71616081306288
-0.28569999999999995,-73.01325018603454
-0.28670000000000007,-73.3669280110008
-0.28769999999999996,-73.72060583596706
-0.28870000000000007,-74.20160767792116
-0.28969999999999996,-74.58357972888473
-0.29070000000000007,-75.02214023184291
-0.29169999999999996,-75.46070073480107
-0.29270000000000007,-75.85681989876326
-0.29369999999999996,-76.23879194972683
-0.2947000000000001,-76.5924697746931
-0.29569999999999996,-76.94614759965934
-0.2967000000000001,-77.28567831162695
-0.29769999999999996,-77.63935613659322
-0.2987000000000001,-77.99303396155948
-0.29969999999999997,-78.43159446451764
-0.3007000000000001,-78.9550376454677
-0.30169999999999997,-79.37945103542721
-0.3027000000000001,-79.90289421637728
-0.30369999999999997,-80.34145471933543
-0.3047000000000001,-80.7800152222936
-0.30569999999999997,-81.21857572525175
-0.3067000000000001,-81.57225355021802
-0.3077,-81.95422560118158
-0.3087000000000001,-82.30790342614785
-0.3097,-82.746463929106
-0.3107000000000001,-83.14258309306821
-0.3117,-83.56699648302772
-0.3127000000000001,-84.09043966397778
-0.3137,-84.61388284492786
-0.3147000000000001,-85.13732602587791
-0.3157,-85.66076920682796
-0.3167000000000001,-86.14177104878208
-0.3177,-86.58033155174023
-0.3187000000000001,-87.01889205469841
-0.3197,-87.45745255765657
-0.3207000000000001,-87.85357172161878
-0.3217,-88.27798511157829
-0.3227000000000001,-88.80142829252836
-0.3237,-89.36731281247435
-0.3247000000000001,-89.89075599342443
-0.3257,-90.47078762636909
-0.3267000000000001,-91.07911348531105
-0.3277,-91.60255666626112
-0.3287000000000001,-92.08355850821525
-0.3297,-92.56456035016936
-0.3307000000000001,-93.03141507912481
-0.3317,-93.46997558208298
-0.3327000000000001,-93.95097742403709
-0.3337,-94.47442060498715
-0.3347000000000001,-95.08274646392913
-0.3357,-95.64863098387512
-0.3367000000000001,-96.27110395581576
-0.3377,-96.87942981475771
-0.3387000000000001,-97.4877556736997
-0.3397,-98.09608153264163
-0.3407000000000001,-98.6195247135917
-0.3417,-99.14296789454177
-0.3427000000000001,-99.66641107549184
-0.3437,-100.14741291744595
-0.3447000000000001,-100.75573877638791
-0.3457,-101.32162329633393
-0.3467000000000001,-101.97239049427183
-0.3477,-102.67974614420436
-0.3487000000000001,-103.37295468113824
-0.3497,-104.06616321807209
-0.3507000000000001,-104.73107752900866
-0.3517,-105.38184472694657
-0.3527000000000001,-106.0326119248845
-0.3537,-106.64093778382647
-0.3547000000000001,-107.20682230377247
-0.3557,-107.78685393671715
-0.35670000000000013,-108.39517979565912
-0.3577,-109.08838833259297
-0.35870000000000013,-109.8240382085228
-0.3597,-110.53139385845533
-0.36070000000000013,-111.3094850733811
-0.3617,-112.05928206230955
-0.3626999999999999,-112.79493193823936
-0.3637,-113.53058181416918
-0.3646999999999999,-114.19549612510575
-0.3657,-114.88870466203963
-0.3666999999999999,-115.53947185997755
-0.3677,-116.24682750991008
-0.3686999999999999,-116.94003604684394
-0.36970000000000003,-117.77471571376431
-0.3706999999999999,-118.55280692869007
-0.37170000000000003,-119.38748659561045
-0.3726999999999999,-120.20801914953216
-0.37370000000000003,-121.0851401554485
-0.3746999999999999,-121.96226116136481
-0.37570000000000003,-122.74035237629057
-0.3766999999999999,-123.532590704215
-0.37770000000000004,-124.35312325813672
-0.3786999999999999,-125.04633179507057
-0.37970000000000004,-125.92345280098691
-0.3806999999999999,-126.71569112891132
-0.38170000000000004,-127.57866502182902
-0.38269999999999993,-128.45578602774532
-0.38370000000000004,-129.33290703366166
-0.38469999999999993,-130.23832226557528
-0.38570000000000004,-131.1154432714916
-0.38669999999999993,-129.67243774562928
-0.38570000000000004,-124.70680108310299
-0.38469999999999993,-120.51925563550247
-0.38370000000000004,-116.81271202985609
-0.38269999999999993,-113.31837511918944
-0.38170000000000004,-110.26259871148096
-0.3806999999999999,-107.34829343375898
-0.37970000000000004,-104.68863619001272
-0.3786999999999999,-102.11386162425833
-0.37770000000000004,-99.62396973649588
-0.3766999999999999,-97.31799031771587
-0.37570000000000003,-95.04030512493317
-0.3746999999999999,-92.81920838414506
-0.37370000000000003,-90.68299432134886
-0.3726999999999999,-88.5043389195567
-0.37170000000000003,-86.45300753475239
-0.3706999999999999,-84.57144150593189
-0.36970000000000003,-82.61913991211814
-0.3686999999999999,-80.82245656128954
-0.3677,-79.1248030014515
-0.3666999999999999,-77.46959078060941
-0.3657,-75.85681989876326
-0.3646999999999999,-74.24404901691713
-0.3637,-72.67371947406694
-0.3626999999999999,-71.06094859222078
-0.3617,-69.3491479193841
-0.36070000000000013,-67.73637703753796
-0.3597,-66.08116481669586
-0.35870000000000013,-64.51083527384567
-0.3577,-62.98294706999144
-0.35670000000000013,-61.53994154412909
-0.3557,-60.15352447026136
-0.3547000000000001,-58.75296028339497
-0.3537,-57.408984548523186
-0.3527000000000001,-56.008420361656796
-0.3517,-54.65029751378637
-0.3507000000000001,-53.22143910092268
-0.3497,-51.86331625305225
-0.3487000000000001,-50.46275206618586
-0.3477,-49.076334992318124
-0.3467000000000001,-47.76065348344364
-0.3457,-46.45911908756781
-0.3447000000000001,-45.22832025668522
-0.3437,-44.011668538801295
-0.3427000000000001,-42.837458159913304
-0.3417,-41.70568912002128
-0.3407000000000001,-40.51733162813464
-0.3397,-39.34312124924667
-0.3387000000000001,-38.12646953136274
-0.3377,-36.89567070048016
-0.3367000000000001,-35.679018982596226
-0.3357,-34.50480860370825
-0.3347000000000001,-33.373039563816214
-0.3337,-32.32615320191609
-0.3327000000000001,-31.27926684001596
-0.3317,-30.189939139119886
-0.3307000000000001,-29.27037679420761
-0.3297,-28.22349043230748
-0.3287000000000001,-27.261486748399253
-0.3277,-26.21460038649913
-0.3267000000000001,-25.167714024599
-0.3257,-24.120827662698876
-0.3247000000000001,-23.031499961802798
-0.3237,-22.027054938898623
-0.3227000000000001,-21.065051254990397
-0.3217,-20.159636023076775
-0.3207000000000001,-19.28251501716045
-0.3197,-18.44783535024008
-0.3187000000000001,-17.584861457322408
-0.3177,-16.750181790402035
-0.3167000000000001,-15.87306078448571
-0.3157,-14.967645552572087
-0.3147000000000001,-14.090524546655764
-0.3137,-13.175206335643086
-0.3127000000000001,-12.258473413330542
-0.3117,-11.42945259160963
-0.3107000000000001,-10.557990430892769
-0.3097,-9.81668170976349
-0.3087000000000001,-9.073958277334345
-0.3077,-8.332649556205066
-0.3067000000000001,-7.635196885371603
-0.30569999999999997,-6.893888164242324
-0.3047000000000001,-6.108723392817228
-0.30369999999999997,-5.323558621392133
-0.3027000000000001,-4.494537799671222
-0.30169999999999997,-3.7093730282461257
-0.3007000000000001,-2.924208256821031
-0.29969999999999997,-2.226755585987568
-0.2987000000000001,-1.5293029151541047
-0.29769999999999996,-0.8308599464107361
-0.2967000000000001,-0.2202705493889862
-0.29569999999999996,0.3903188476327636
-0.2947000000000001,1.0446228238203432
-0.29369999999999996,1.6113561705462767
-0.29270000000000007,2.30880884137974
-0.29169999999999996,3.0515322738088844
-0.29070000000000007,3.661272844050715
-0.28969999999999996,4.44643761547581
-0.28870000000000007,5.057592897017507
-0.28769999999999996,5.667333467259336
-0.28670000000000007,6.278488748801033
-0.28569999999999995,6.801931929751096
-0.28470000000000006,7.369231160996977
-0.28369999999999995,7.848818291651225
-0.28270000000000006,8.416117522897103
-0.28169999999999995,8.89570465355135
-0.28070000000000006,9.549301274088998
-0.27969999999999995,10.116600505334876
-0.27870000000000006,10.771611837172388
-0.27769999999999995,11.33891106841827
-0.27670000000000006,11.904795588364284
-0.27569999999999995,12.428238769314348
-0.27470000000000006,12.907825899968595
-0.27369999999999994,13.388827741922707
-0.27270000000000005,13.824558822281137
-0.27169999999999994,14.217848563643619
-0.27070000000000005,14.741291744593681
-0.26969999999999994,15.222293586547794
-0.26870000000000005,15.70329542850191
-0.26769999999999994,16.269179948447924
-0.26670000000000005,16.835064468393938
-0.26569999999999994,17.316066310348052
-0.26470000000000005,17.797068152302163
