Potential V vs RHE, Current mA cm-2
0.013299999999999867,-0.5255652478998613
0.012299999999999978,-3.1420737970002466
0.011299999999999866,-5.0618370309171015
0.010299999999999976,-6.588310523471475
0.009299999999999864,-7.853062425550818
0.008299999999999974,-8.899948787450944
0.007299999999999862,-9.99069119964689
0.006299999999999972,-10.949865460955383
0.00529999999999986,-11.778886282676295
0.0042999999999999705,-12.476338953509758
0.0032999999999998586,-12.99978213445982
0.0022999999999999687,-13.3930718758223
0.0012999999999998568,-13.872659006476551
0.00029999999999996696,-14.345172580631472
-0.000700000000000145,-14.826174422585586
-0.0017000000000000348,-15.222293586547794
-0.0027000000000001467,-15.448647394526201
-0.0037000000000000366,-15.660854089505953
-0.0047000000000001485,-15.830619445489761
-0.005700000000000038,-16.014531914472215
-0.00670000000000015,-16.354062626439823
-0.00770000000000004,-16.622857773414182
-0.008700000000000152,-16.835064468393938
-0.009700000000000042,-16.962388485381787
-0.010700000000000154,-17.018976937376394
-0.011700000000000044,-17.061418276372343
-0.012700000000000156,-17.231183632356142
-0.013700000000000045,-17.40094898833995
-0.014700000000000157,-17.627302796318357
-0.015700000000000047,-17.75462681330621
-0.01670000000000016,-17.797068152302163
-0.01770000000000005,-17.75462681330621
-0.01870000000000016,-17.797068152302163
-0.01970000000000005,-17.924392169290012
-0.020700000000000163,-18.15074597726842
-0.021700000000000053,-18.27806999425627
-0.022700000000000164,-18.320511333252224
-0.023700000000000054,-18.23562865526032
-0.024700000000000166,-18.27806999425627
-0.025700000000000056,-18.27806999425627
-0.026700000000000168,-18.40539401124413
-0.027700000000000058,-18.589306480226583
-0.02870000000000017,-18.674189158218486
-0.02970000000000006,-18.674189158218486
-0.03070000000000017,-18.631747819222536
-0.03170000000000006,-18.589306480226583
-0.03270000000000017,-18.674189158218486
-0.03370000000000006,-18.843954514202288
-0.034700000000000175,-18.97127853119014
-0.035700000000000065,-19.056161209182044
-0.03670000000000018,-19.01371987018609
-0.03770000000000007,-18.92883719219419
-0.03870000000000018,-18.97127853119014
-0.03970000000000007,-19.056161209182044
-0.04070000000000018,-19.197632339168546
-0.04170000000000007,-19.28251501716045
-0.04270000000000018,-19.3249563561564
-0.04370000000000007,-19.2400736781645
-0.044700000000000184,-19.197632339168546
-0.045700000000000074,-19.197632339168546
-0.046700000000000186,-19.3249563561564
-0.047700000000000076,-19.452280373144255
-0.04870000000000019,-19.537163051136158
-0.04970000000000008,-19.49472171214021
-0.05070000000000019,-19.409839034148305
-0.05170000000000008,-19.409839034148305
-0.05270000000000019,-19.452280373144255
-0.05370000000000008,-19.579604390132108
-0.05470000000000019,-19.678634181122664
-0.05570000000000008,-19.763516859114564
-0.056700000000000195,-19.678634181122664
-0.057700000000000085,-19.636192842126707
-0.058700000000000196,-19.636192842126707
-0.059700000000000086,-19.678634181122664
-0.0607000000000002,-19.848399537106463
-0.06170000000000009,-19.93328221509837
-0.0627000000000002,-19.93328221509837
-0.06370000000000009,-19.805958198110513
-0.0647000000000002,-19.763516859114564
-0.06570000000000009,-19.763516859114564
-0.0667000000000002,-19.848399537106463
-0.0677000000000001,-20.01816489309027
-0.0687000000000002,-20.06060623208622
-0.0697000000000001,-20.06060623208622
-0.07070000000000021,-19.93328221509837
-0.0717000000000001,-19.93328221509837
-0.07270000000000021,-20.01816489309027
-0.0737000000000001,-20.10304757108217
-0.07470000000000021,-20.244518701068674
-0.0757000000000001,-20.329401379060574
-0.07670000000000021,-20.244518701068674
-0.0777000000000001,-20.159636023076775
-0.07870000000000021,-20.159636023076775
-0.0797000000000001,-20.202077362072725
-0.08070000000000022,-20.371842718056527
-0.0817000000000001,-20.456725396048434
-0.08270000000000022,-20.414284057052477
-0.08370000000000011,-20.371842718056527
-0.08470000000000022,-20.286960040064624
-0.08570000000000011,-20.286960040064624
-0.08670000000000022,-20.414284057052477
-0.08770000000000011,-20.584049413036283
-0.08870000000000022,-20.683079204026836
-0.08970000000000011,-20.683079204026836
-0.09070000000000022,-20.584049413036283
-0.09170000000000011,-20.626490752032236
-0.09270000000000023,-20.683079204026836
-0.09370000000000012,-20.810403221014692
-0.09470000000000023,-20.93772723800254
-0.09570000000000012,-20.980168576998494
-0.09670000000000023,-20.89528589900659
-0.09770000000000012,-20.810403221014692
-0.09870000000000023,-20.810403221014692
-0.09970000000000012,-20.93772723800254
-0.10070000000000023,-21.065051254990397
-0.10170000000000012,-21.2065223849769
-0.10270000000000024,-21.2065223849769
-0.10370000000000013,-21.149933932982297
-0.10470000000000024,-21.149933932982297
-0.10570000000000013,-21.149933932982297
-0.10670000000000024,-21.291405062968803
-0.10770000000000013,-21.503611757948562
-0.10870000000000024,-21.54605309694451
-0.10970000000000013,-21.58849443594046
-0.11070000000000024,-21.54605309694451
-0.11170000000000013,-21.503611757948562
-0.11270000000000002,-21.63093577493641
-0.11370000000000013,-21.814848243918867
-0.11470000000000002,-21.94217226090672
-0.11570000000000014,-22.027054938898623
-0.11670000000000003,-21.98461359990267
-0.11770000000000014,-21.94217226090672
-0.11870000000000003,-21.94217226090672
-0.11970000000000014,-22.069496277894572
-0.12070000000000003,-22.253408746877028
-0.12170000000000014,-22.42317410286083
-0.12270000000000003,-22.46561544185678
-0.12370000000000014,-22.46561544185678
-0.12470000000000003,-22.42317410286083
-0.12570000000000014,-22.508056780852733
-0.12670000000000003,-22.63538079784059
-0.12770000000000015,-22.819293266823045
-0.12870000000000004,-22.946617283810895
-0.12970000000000015,-22.946617283810895
-0.13070000000000004,-22.861734605818995
-0.13170000000000015,-22.904175944814945
-0.13270000000000004,-22.989058622806844
-0.13370000000000015,-23.2012653177866
-0.13470000000000004,-23.385177786769056
-0.13570000000000015,-23.47006046476096
-0.13670000000000004,-23.47006046476096
-0.13770000000000016,-23.47006046476096
-0.13870000000000005,-23.51250180375691
-0.13970000000000016,-23.682267159740714
-0.14070000000000005,-23.908620967719123
-0.14170000000000016,-24.035944984706973
-0.14270000000000005,-24.120827662698876
-0.14370000000000016,-24.120827662698876
-0.14470000000000005,-24.120827662698876
-0.14570000000000016,-24.24815167968673
-0.14670000000000005,-24.389622809673234
-0.14770000000000016,-24.601829504652986
-0.14870000000000005,-24.771594860636792
-0.14970000000000017,-24.771594860636792
-0.15070000000000006,-24.814036199632742
-0.15170000000000017,-24.814036199632742
-0.15270000000000006,-24.997948668615198
-0.15370000000000017,-25.167714024599
-0.15470000000000006,-25.337479380582806
-0.15570000000000017,-25.478950510569312
-0.15670000000000006,-25.521391849565262
-0.15770000000000017,-25.521391849565262
-0.15870000000000006,-25.563833188561212
-0.15970000000000018,-25.691157205549064
-0.16070000000000007,-25.959952352523427
-0.16170000000000018,-26.129717708507226
-0.16270000000000007,-26.21460038649913
-0.16370000000000018,-26.257041725495082
-0.16470000000000007,-26.34192440348698
-0.16570000000000018,-26.440954194477534
-0.16670000000000007,-26.69560222845324
-0.16770000000000018,-26.907808923433
-0.16870000000000007,-27.091721392415455
-0.16970000000000018,-27.134162731411404
-0.17070000000000007,-27.176604070407354
-0.17170000000000019,-27.261486748399253
-0.17270000000000008,-27.38881076538711
-0.1737000000000002,-27.615164573365515
-0.17470000000000008,-27.869812607341224
-0.1757000000000002,-28.011283737327723
-0.17670000000000008,-28.09616641531963
-0.1777000000000002,-28.13860775431558
-0.17870000000000008,-28.22349043230748
-0.1797000000000002,-28.393255788291288
-0.18070000000000008,-28.662050935265643
-0.1817000000000002,-28.91669896924135
-0.18270000000000008,-29.001581647233255
-0.1837000000000002,-29.100611438223805
-0.1847000000000001,-29.14305277721976
-0.1857000000000002,-29.22793545521166
-0.1867000000000001,-29.482583489187363
-0.1877000000000002,-29.751378636161718
-0.1887000000000001,-29.96358533114148
-0.1897000000000002,-30.10505646112798
-0.1907000000000001,-30.147497800123933
-0.1917000000000001,-30.232380478115836
-0.19269999999999998,-30.444587173095588
-0.1937000000000001,-30.670940981073993
-0.19469999999999998,-30.925589015049702
-0.1957000000000001,-31.095354371033505
-0.19669999999999999,-31.19438416202406
-0.1977000000000001,-31.23682550102001
-0.1987,-31.40659085700382
-0.1997000000000001,-31.57635621298762
-0.2007,-31.887592698957924
-0.2017000000000001,-32.14224073293363
-0.2027,-32.283711862920136
-0.2037000000000001,-32.41103587990799
-0.2047,-32.45347721890394
-0.2057000000000001,-32.62324257488775
-0.2067,-32.93447906085806
-0.2077000000000001,-33.14668575583781
-0.2087,-33.41548090281216
-0.2097000000000001,-33.58524625879597
-0.2107,-33.670128936787876
-0.2117000000000001,-33.755011614779775
-0.2127,-34.02380676175414
-0.2137000000000001,-34.278454795729836
-0.2147,-34.58969128170015
-0.2157000000000001,-34.94336910666641
-0.2167,-35.02825178465831
-0.21770000000000012,-35.07069312365426
-0.2187,-35.240458479638065
-0.21970000000000012,-35.50925362661242
-0.2207,-35.763901660588125
-0.22170000000000012,-36.07513814655844
-0.2227,-36.28734484153819
-0.22370000000000012,-36.37222751953009
-0.2247,-36.5136986495166
-0.22570000000000012,-36.725905344496354
-0.2267,-36.99470049147071
-0.22770000000000012,-37.376672542434264
-0.22870000000000001,-37.645467689408626
-0.22970000000000013,-37.81523304539243
-0.23070000000000002,-37.94255706238028
-0.23170000000000013,-38.08402819236679
-0.23270000000000002,-38.33867622634249
-0.23370000000000013,-38.6499127123128
-0.23470000000000002,-38.94700208528445
-0.23570000000000013,-39.21579723225882
-0.23670000000000002,-39.30067991025072
-0.2376999999999999,-39.42800392723857
-0.23870000000000002,-39.56947505722508
-0.2396999999999999,-39.86656443019674
-0.24070000000000003,-40.220242255162994
-0.24169999999999991,-40.51733162813464
-0.24270000000000003,-40.743685436113054
-0.24369999999999992,-40.87100945310091
-0.24470000000000003,-40.99833347008877
-0.24569999999999992,-41.182245939071215
-0.24670000000000003,-41.52177665103883
-0.24769999999999992,-41.87545447600508
-0.24870000000000003,-42.229132300971344
-0.24969999999999992,-42.39889765695515
-0.25070000000000003,-42.483780334947056
-0.2516999999999999,-42.752575481921404
-0.25270000000000004,-43.007223515897124
-0.2536999999999999,-43.40334267985933
-0.25470000000000004,-43.79946184382153
-0.2556999999999999,-44.054109877797245
-0.25670000000000004,-44.28046368577565
-0.25769999999999993,-44.4077877027635
-0.25870000000000004,-44.619994397743255
-0.25969999999999993,-44.93123088371356
-0.26070000000000004,-45.36979138667173
-0.26169999999999993,-45.70932209863933
-0.26270000000000004,-46.02055858460964
-0.26369999999999993,-46.19032394059345
-0.26470000000000005,-46.3176479575813
-0.26569999999999994,-46.586443104555656
-0.26670000000000005,-46.94012092952192
-0.26769999999999994,-47.32209298048547
-0.26870000000000005,-47.67577080545174
-0.26969999999999994,-47.84553616143554
-0.27070000000000005,-48.071889969413945
-0.27169999999999994,-48.2840966643937
-0.27270000000000005,-48.55289181136806
-0.27369999999999994,-48.93486386233162
-0.27470000000000006,-49.373424365289786
-0.27569999999999995,-49.72710219025603
-0.27670000000000006,-49.939308885235796
-0.27769999999999995,-50.1656626932142
-0.27870000000000006,-50.42031072718991
-0.27969999999999995,-50.81642989115212
-0.28070000000000006,-51.21254905511432
-0.28169999999999995,-51.65110955807249
-0.28270000000000006,-51.90575759204819
-0.28369999999999995,-52.17455273902255
-0.28470000000000006,-52.386759434002315
-0.28569999999999995,-52.64140746797801
-0.28670000000000007,-53.079967970936174
-0.28769999999999996,-53.518528473894335
-0.28870000000000007,-53.91464763785655
-0.28969999999999996,-54.26832546282281
-0.29070000000000007,-54.480532157802564
-0.29169999999999996,-54.791768643772876
-0.29270000000000007,-55.13129935574048
-0.29369999999999996,-55.612301197694585
-0.2947000000000001,-56.093303039648696
-0.29569999999999996,-56.489422203610914
-0.2967000000000001,-56.786511576582576
-0.29769999999999996,-57.05530672355693
-0.2987000000000001,-57.408984548523186
-0.29969999999999997,-57.8333979384827
-0.3007000000000001,-58.31439978043681
-0.30169999999999997,-58.79540162239092
-0.3027000000000001,-59.19152078635314
-0.30369999999999997,-59.54519861131939
-0.3047000000000001,-59.842287984291055
-0.30569999999999997,-60.23840714825326
-0.3067000000000001,-60.761850329203334
-0.3077,-61.20041083216149
-0.3087000000000001,-61.6814126741156
-0.3097,-61.97850204708726
-0.3107000000000001,-62.24729719406162
-0.3117,-62.544386567033264
-0.3127000000000001,-63.02538840898739
-0.3137,-63.54883158993744
-0.3147000000000001,-64.11471610988345
-0.3157,-64.63815929083353
-0.3167000000000001,-65.03427845479574
-0.3177,-65.38795627976201
-0.3187000000000001,-65.82651678272015
-0.3197,-66.39240130266617
-0.3207000000000001,-66.9582858226122
-0.3217,-67.56661168155415
-0.3227000000000001,-68.04761352350828
-0.3237,-68.48617402646643
-0.3247000000000001,-68.91058741642594
-0.3257,-69.3491479193841
-0.3267000000000001,-69.95747377832606
-0.3277,-70.53750541127073
-0.3287000000000001,-71.1458312702127
-0.3297,-71.58439177317086
-0.3307000000000001,-71.96636382413442
-0.3317,-72.48980700508447
-0.3327000000000001,-73.01325018603454
-0.3337,-73.62157604497652
-0.3347000000000001,-74.32893169490903
-0.3357,-74.89481621485504
-0.3367000000000001,-75.37581805680915
-0.3377,-75.81437855976732
-0.3387000000000001,-76.33782174071737
-0.3397,-76.98858893865528
-0.3407000000000001,-77.68179747558916
-0.3417,-78.43159446451764
-0.3427000000000001,-79.0399203234596
-0.3437,-79.56336350440966
-0.3447000000000001,-80.08680668535972
-0.3457,-80.69513254430169
-0.3467000000000001,-81.38834108123557
-0.3477,-82.18057940915998
-0.3487000000000001,-82.8313466070979
-0.3497,-83.43967246603985
-0.3507000000000001,-83.96311564698992
-0.3517,-84.48655882793999
-0.3527000000000001,-85.17976736487385
-0.3537,-85.92956435380233
-0.3547000000000001,-86.66521422973216
-0.3557,-87.41501121866061
-0.35670000000000013,-88.02333707760259
-0.3577,-88.63166293654454
-0.35870000000000013,-89.28243013448247
-0.3597,-90.11710980140283
-0.36070000000000013,-90.99423080731917
-0.3617,-91.81476336124088
-0.3626999999999999,-92.6070016891653
-0.3637,-93.30021022609918
-0.3646999999999999,-93.90853608504113
-0.3657,-94.6583330739696
-0.3666999999999999,-95.52130696688728
-0.3677,-96.44086931179956
-0.3686999999999999,-97.31799031771587
-0.36970000000000003,-98.09608153264163
-0.3706999999999999,-98.7044073915836
-0.37170000000000003,-99.45420438051207
-0.3726999999999999,-100.2747369344338
-0.37370000000000003,-101.19429927934607
-0.3746999999999999,-102.1563029632543
-0.37570000000000003,-103.01927685617197
-0.3766999999999999,-103.81151518409638
-0.37770000000000004,-104.58960639902216
-0.3786999999999999,-105.38184472694657
-0.37970000000000004,-106.30140707185885
-0.3806999999999999,-107.30585209476303
-0.38170000000000004,-108.21126732667666
-0.38269999999999993,-109.13082967158894
-0.38370000000000004,-109.92306799951335
-0.38469999999999993,-110.74360055343507
-0.38570000000000004,-111.6207215593514
-0.38669999999999993,-110.40406984146746
-0.38570000000000004,-106.15993594187235
-0.38469999999999993,-102.80707016119221
-0.38370000000000004,-99.7937350924797
-0.38269999999999993,-97.00675383174556
-0.38170000000000004,-94.55930328297906
-0.3806999999999999,-92.29576520319499
-0.37970000000000004,-90.24443381839069
-0.3786999999999999,-88.37701490256885
-0.37770000000000004,-86.45300753475239
-0.3766999999999999,-84.48655882793999
-0.37570000000000003,-82.61913991211814
-0.3746999999999999,-80.82245656128954
-0.37370000000000003,-79.16724434044745
-0.3726999999999999,-77.68179747558916
-0.37170000000000003,-76.15390927173492
-0.3706999999999999,-74.62602106788069
-0.36970000000000003,-72.97080884703858
-0.3686999999999999,-71.35803796519245
-0.3677,-69.91503243933012
-0.3666999999999999,-68.57105670445833
-0.3657,-67.2978165345798
-0.3646999999999999,-65.99628213870396
-0.3637,-64.55327661284163
-0.3626999999999999,-63.11027108697928
-0.3617,-61.72385401311155
-0.36070000000000013,-60.40817250423707
-0.3597,-59.23396212534908
-0.35870000000000013,-58.05975174646111
-0.3577,-56.82895291557852
-0.35670000000000013,-55.527418519702685
-0.3557,-54.16929567183226
-0.3547000000000001,-52.91020261495237
-0.3537,-51.77843357506035
-0.3527000000000001,-50.68910587416426
-0.3517,-49.642219512264134
-0.3507000000000001,-48.51045047237211
-0.3497,-47.32209298048547
-0.3487000000000001,-46.10544126260155
-0.3477,-44.97367222270952
-0.3467000000000001,-43.96922719980534
-0.3457,-43.007223515897124
-0.3447000000000001,-42.04521983198889
-0.3437,-40.95589213109281
-0.3427000000000001,-39.82412309120078
-0.3417,-38.777236729300654
-0.3407000000000001,-37.77279170639648
-0.3397,-36.8532293614842
-0.3387000000000001,-36.03269680756248
-0.3377,-35.11313446265021
-0.3367000000000001,-34.06624810075008
-0.3357,-33.01936173884996
-0.3347000000000001,-31.972475376949827
-0.3337,-31.137795710029454
-0.3327000000000001,-30.359704495103685
-0.3317,-29.525024828183312
-0.3307000000000001,-28.662050935265643
-0.3297,-27.700047251357418
-0.3287000000000001,-26.780484906445146
-0.3277,-25.86092256153287
-0.3267000000000001,-25.12527268560305
-0.3257,-24.432064148669184
-0.3247000000000001,-23.682267159740714
-0.3237,-22.861734605818995
-0.3227000000000001,-21.98461359990267
-0.3217,-21.065051254990397
-0.3207000000000001,-20.329401379060574
-0.3197,-19.636192842126707
-0.3187000000000001,-18.97127853119014
-0.3177,-18.27806999425627
-0.3167000000000001,-17.48583166633185
-0.3157,-16.665299112410132
-0.3147000000000001,-15.972090575476265
-0.3137,-15.264734925543747
-0.3127000000000001,-14.69885040559773
-0.3117,-14.13438059695158
-0.3107000000000001,-13.436927926118118
-0.3097,-12.694204493688973
-0.3087000000000001,-11.909039722263879
-0.3077,-11.211587051430415
-0.3067000000000001,-10.688143870480351
-0.30569999999999997,-10.164700689530287
-0.3047000000000001,-9.59740145828441
-0.30369999999999997,-8.987660888042578
-0.3027000000000001,-8.246352166913299
-0.30169999999999997,-7.591340835075788
-0.3007000000000001,-7.024041603829907
-0.29969999999999997,-6.500598422879844
-0.2987000000000001,-6.064867342521412
-0.29769999999999996,-5.5414241615713475
-0.2967000000000001,-4.887827541033701
-0.29569999999999996,-4.23281620919619
-0.2947000000000001,-3.623075638954359
-0.29369999999999996,-3.1420737970002466
-0.29270000000000007,-2.706342716641815
-0.29169999999999996,-2.2706116362833835
-0.29070000000000007,-1.7910245056291363
-0.28969999999999996,-1.2234423321232837
-0.28870000000000007,-0.5692798270656908
-0.28769999999999996,-0.04582249900262853
-0.28670000000000007,0.3467457395969205
-0.28569999999999995,0.7393281253094681
-0.28470000000000006,1.1317690398920295
-0.28369999999999995,1.655212220842093
-0.28270000000000006,2.178655401792157
-0.28169999999999995,2.70209858274222
-0.28070000000000006,3.1816857133964676
-0.27969999999999995,3.5311194044631313
-0.27870000000000006,3.8366970452339793
-0.27769999999999995,4.272428125592412
-0.27670000000000006,4.708159205950842
-0.27569999999999995,5.231602386900906
-0.27470000000000006,5.7111895175551535
-0.27369999999999994,6.060623208621817
-0.27270000000000005,6.366200849392665
-0.27169999999999994,6.671778490163514
-0.27070000000000005,7.019797469930312
-0.26969999999999994,7.456943261588608
-0.26870000000000005,7.980386442538672
-0.26769999999999994,8.372261472601286
-0.26670000000000005,8.72169516366795
