Potential V vs RHE, Current mA cm-2
0.013299999999999867,-0.7001406223032067
0.012299999999999978,-2.052746096104168
0.011299999999999866,-2.706342716641815
0.010299999999999976,-3.0996324580042955
0.009299999999999864,-3.317497998183511
0.008299999999999974,-3.447651437771094
0.007299999999999862,-3.579219588658543
0.006299999999999972,-3.6655169779503103
0.00529999999999986,-3.7532290785419424
0.0042999999999999705,-3.7970851288377587
0.0032999999999998586,-3.840941179133574
0.0022999999999999687,-3.884797229429391
0.0012999999999998568,-3.840941179133574
0.00029999999999996696,-3.840941179133574
-0.000700000000000145,-3.840941179133574
-0.0017000000000000348,-3.840941179133574
-0.0027000000000001467,-3.840941179133574
-0.0037000000000000366,-3.884797229429391
-0.0047000000000001485,-3.884797229429391
-0.005700000000000038,-3.927238568425342
-0.00670000000000015,-3.971094618721158
-0.00770000000000004,-4.014950669016974
-0.008700000000000152,-4.0588067193127895
-0.009700000000000042,-4.0588067193127895
-0.010700000000000154,-4.0588067193127895
-0.011700000000000044,-4.0588067193127895
-0.012700000000000156,-4.0588067193127895
-0.013700000000000045,-4.014950669016974
-0.014700000000000157,-4.014950669016974
-0.015700000000000047,-3.971094618721158
-0.01670000000000016,-4.014950669016974
-0.01770000000000005,-4.014950669016974
-0.01870000000000016,-4.0588067193127895
-0.01970000000000005,-4.102662769608606
-0.020700000000000163,-4.146518819904423
-0.021700000000000053,-4.146518819904423
-0.022700000000000164,-4.1889601589003735
-0.023700000000000054,-4.146518819904423
-0.024700000000000166,-4.146518819904423
-0.025700000000000056,-4.146518819904423
-0.026700000000000168,-4.102662769608606
-0.027700000000000058,-4.146518819904423
-0.02870000000000017,-4.102662769608606
-0.02970000000000006,-4.102662769608606
-0.03070000000000017,-4.102662769608606
-0.03170000000000006,-4.146518819904423
-0.03270000000000017,-4.1889601589003735
-0.03370000000000006,-4.23281620919619
-0.034700000000000175,-4.23281620919619
-0.035700000000000065,-4.276672259492005
-0.03670000000000018,-4.276672259492005
-0.03770000000000007,-4.276672259492005
-0.03870000000000018,-4.23281620919619
-0.03970000000000007,-4.23281620919619
-0.04070000000000018,-4.1889601589003735
-0.04170000000000007,-4.1889601589003735
-0.04270000000000018,-4.1889601589003735
-0.04370000000000007,-4.1889601589003735
-0.044700000000000184,-4.23281620919619
-0.045700000000000074,-4.23281620919619
-0.046700000000000186,-4.276672259492005
-0.047700000000000076,-4.3205283097878215
-0.04870000000000019,-4.364384360083638
-0.04970000000000008,-4.364384360083638
-0.05070000000000019,-4.3205283097878215
-0.05170000000000008,-4.3205283097878215
-0.05270000000000019,-4.3205283097878215
-0.05370000000000008,-4.276672259492005
-0.05470000000000019,-4.276672259492005
-0.05570000000000008,-4.23281620919619
-0.056700000000000195,-4.276672259492005
-0.057700000000000085,-4.23281620919619
-0.058700000000000196,-4.276672259492005
-0.059700000000000086,-4.364384360083638
-0.0607000000000002,-4.364384360083638
-0.06170000000000009,-4.406825699079589
-0.0627000000000002,-4.406825699079589
-0.06370000000000009,-4.364384360083638
-0.0647000000000002,-4.364384360083638
-0.06570000000000009,-4.364384360083638
-0.0667000000000002,-4.364384360083638
-0.0677000000000001,-4.3205283097878215
-0.0687000000000002,-4.276672259492005
-0.0697000000000001,-4.3205283097878215
-0.07070000000000021,-4.3205283097878215
-0.0717000000000001,-4.3205283097878215
-0.07270000000000021,-4.406825699079589
-0.0737000000000001,-4.406825699079589
-0.07470000000000021,-4.450681749375406
-0.0757000000000001,-4.450681749375406
-0.07670000000000021,-4.494537799671222
-0.0777000000000001,-4.494537799671222
-0.07870000000000021,-4.450681749375406
-0.0797000000000001,-4.364384360083638
-0.08070000000000022,-4.406825699079589
-0.0817000000000001,-4.364384360083638
-0.08270000000000022,-4.364384360083638
-0.08370000000000011,-4.406825699079589
-0.08470000000000022,-4.364384360083638
-0.08570000000000011,-4.450681749375406
-0.08670000000000022,-4.450681749375406
-0.08770000000000011,-4.494537799671222
-0.08870000000000022,-4.538393849967037
-0.08970000000000011,-4.538393849967037
-0.09070000000000022,-4.538393849967037
-0.09170000000000011,-4.494537799671222
-0.09270000000000023,-4.450681749375406
-0.09370000000000012,-4.450681749375406
-0.09470000000000023,-4.450681749375406
-0.09570000000000012,-4.406825699079589
-0.09670000000000023,-4.450681749375406
-0.09770000000000012,-4.406825699079589
-0.09870000000000023,-4.450681749375406
-0.09970000000000012,-4.494537799671222
-0.10070000000000023,-4.538393849967037
-0.10170000000000012,-4.582249900262854
-0.10270000000000024,-4.582249900262854
-0.10370000000000013,-4.582249900262854
-0.10470000000000024,-4.582249900262854
-0.10570000000000013,-4.582249900262854
-0.10670000000000024,-4.538393849967037
-0.10770000000000013,-4.538393849967037
-0.10870000000000024,-4.450681749375406
-0.10970000000000013,-4.494537799671222
-0.11070000000000024,-4.494537799671222
-0.11170000000000013,-4.538393849967037
-0.11270000000000002,-4.582249900262854
-0.11370000000000013,-4.626105950558669
-0.11470000000000002,-4.626105950558669
-0.11570000000000014,-4.668547289554621
-0.11670000000000003,-4.626105950558669
-0.11770000000000014,-4.668547289554621
-0.11870000000000003,-4.626105950558669
-0.11970000000000014,-4.582249900262854
-0.12070000000000003,-4.582249900262854
-0.12170000000000014,-4.582249900262854
-0.12270000000000003,-4.538393849967037
-0.12370000000000014,-4.582249900262854
-0.12470000000000003,-4.582249900262854
-0.12570000000000014,-4.626105950558669
-0.12670000000000003,-4.668547289554621
-0.12770000000000015,-4.668547289554621
-0.12870000000000004,-4.712403339850438
-0.12970000000000015,-4.712403339850438
-0.13070000000000004,-4.712403339850438
-0.13170000000000015,-4.712403339850438
-0.13270000000000004,-4.668547289554621
-0.13370000000000015,-4.626105950558669
-0.13470000000000004,-4.626105950558669
-0.13570000000000015,-4.626105950558669
-0.13670000000000004,-4.626105950558669
-0.13770000000000016,-4.626105950558669
-0.13870000000000005,-4.668547289554621
-0.13970000000000016,-4.712403339850438
-0.14070000000000005,-4.712403339850438
-0.14170000000000016,-4.756259390146253
-0.14270000000000005,-4.800115440442069
-0.14370000000000016,-4.756259390146253
-0.14470000000000005,-4.756259390146253
-0.14570000000000016,-4.712403339850438
-0.14670000000000005,-4.712403339850438
-0.14770000000000016,-4.668547289554621
-0.14870000000000005,-4.668547289554621
-0.14970000000000017,-4.668547289554621
-0.15070000000000006,-4.712403339850438
-0.15170000000000017,-4.712403339850438
-0.15270000000000006,-4.756259390146253
-0.15370000000000017,-4.756259390146253
-0.15470000000000006,-4.800115440442069
-0.15570000000000017,-4.843971490737885
-0.15670000000000006,-4.800115440442069
-0.15770000000000017,-4.843971490737885
-0.15870000000000006,-4.800115440442069
-0.15970000000000018,-4.756259390146253
-0.16070000000000007,-4.756259390146253
-0.16170000000000018,-4.712403339850438
-0.16270000000000007,-4.756259390146253
-0.16370000000000018,-4.712403339850438
-0.16470000000000007,-4.800115440442069
-0.16570000000000018,-4.800115440442069
-0.16670000000000007,-4.800115440442069
-0.16770000000000018,-4.843971490737885
-0.16870000000000007,-4.887827541033701
-0.16970000000000018,-4.887827541033701
-0.17070000000000007,-4.887827541033701
-0.17170000000000019,-4.843971490737885
-0.17270000000000008,-4.800115440442069
-0.1737000000000002,-4.800115440442069
-0.17470000000000008,-4.800115440442069
-0.1757000000000002,-4.756259390146253
-0.17670000000000008,-4.756259390146253
-0.1777000000000002,-4.756259390146253
-0.17870000000000008,-4.843971490737885
-0.1797000000000002,-4.887827541033701
-0.18070000000000008,-4.887827541033701
-0.1817000000000002,-4.887827541033701
-0.18270000000000008,-4.9302688800296535
-0.1837000000000002,-4.9302688800296535
-0.1847000000000001,-4.887827541033701
-0.1857000000000002,-4.887827541033701
-0.1867000000000001,-4.887827541033701
-0.1877000000000002,-4.843971490737885
-0.1887000000000001,-4.800115440442069
-0.1897000000000002,-4.843971490737885
-0.1907000000000001,-4.843971490737885
-0.1917000000000001,-4.887827541033701
-0.19269999999999998,-4.9302688800296535
-0.1937000000000001,-4.9302688800296535
-0.19469999999999998,-4.9302688800296535
-0.1957000000000001,-5.017980980621284
-0.19669999999999999,-4.974124930325469
-0.1977000000000001,-4.974124930325469
-0.1987,-4.974124930325469
-0.1997000000000001,-4.9302688800296535
-0.2007,-4.887827541033701
-0.2017000000000001,-4.887827541033701
-0.2027,-4.887827541033701
-0.2037000000000001,-4.887827541033701
-0.2047,-4.887827541033701
-0.2057000000000001,-4.9302688800296535
-0.2067,-4.974124930325469
-0.2077000000000001,-5.017980980621284
-0.2087,-5.0618370309171015
-0.2097000000000001,-5.0618370309171015
-0.2107,-5.017980980621284
-0.2117000000000001,-5.017980980621284
-0.2127,-4.974124930325469
-0.2137000000000001,-4.974124930325469
-0.2147,-4.974124930325469
-0.2157000000000001,-4.974124930325469
-0.2167,-4.974124930325469
-0.21770000000000012,-4.974124930325469
-0.2187,-5.017980980621284
-0.21970000000000012,-5.0618370309171015
-0.2207,-5.0618370309171015
-0.22170000000000012,-5.105693081212917
-0.2227,-5.105693081212917
-0.22370000000000012,-5.105693081212917
-0.2247,-5.105693081212917
-0.22570000000000012,-5.105693081212917
-0.2267,-5.0618370309171015
-0.22770000000000012,-5.0618370309171015
-0.22870000000000001,-5.017980980621284
-0.22970000000000013,-5.0618370309171015
-0.23070000000000002,-5.0618370309171015
-0.23170000000000013,-5.105693081212917
-0.23270000000000002,-5.149549131508733
-0.23370000000000013,-5.149549131508733
-0.23470000000000002,-5.149549131508733
-0.23570000000000013,-5.235846520800501
-0.23670000000000002,-5.191990470504685
-0.2376999999999999,-5.235846520800501
-0.23870000000000002,-5.191990470504685
-0.2396999999999999,-5.149549131508733
-0.24070000000000003,-5.149549131508733
-0.24169999999999991,-5.149549131508733
-0.24270000000000003,-5.149549131508733
-0.24369999999999992,-5.191990470504685
-0.24470000000000003,-5.191990470504685
-0.24569999999999992,-5.235846520800501
-0.24670000000000003,-5.279702571096316
-0.24769999999999992,-5.323558621392133
-0.24870000000000003,-5.367414671687949
-0.24969999999999992,-5.367414671687949
-0.25070000000000003,-5.367414671687949
-0.2516999999999999,-5.367414671687949
-0.25270000000000004,-5.323558621392133
-0.2536999999999999,-5.323558621392133
-0.25470000000000004,-5.323558621392133
-0.2556999999999999,-5.279702571096316
-0.25670000000000004,-5.323558621392133
-0.25769999999999993,-5.323558621392133
-0.25870000000000004,-5.367414671687949
-0.25969999999999993,-5.453712060979717
-0.26070000000000004,-5.453712060979717
-0.26169999999999993,-5.5414241615713475
-0.26270000000000004,-5.5414241615713475
-0.26369999999999993,-5.497568111275533
-0.26470000000000005,-5.5414241615713475
-0.26569999999999994,-5.497568111275533
-0.26670000000000005,-5.5414241615713475
-0.26769999999999994,-5.5414241615713475
-0.26870000000000005,-5.497568111275533
-0.26969999999999994,-5.5414241615713475
-0.27070000000000005,-5.5414241615713475
-0.27169999999999994,-5.585280211867165
-0.27270000000000005,-5.629136262162981
-0.27369999999999994,-5.672992312458796
-0.27470000000000006,-5.715433651454749
-0.27569999999999995,-5.759289701750564
-0.27670000000000006,-5.759289701750564
-0.27769999999999995,-5.80314575204638
-0.27870000000000006,-5.80314575204638
-0.27969999999999995,-5.759289701750564
-0.28070000000000006,-5.759289701750564
-0.28169999999999995,-5.80314575204638
-0.28270000000000006,-5.80314575204638
-0.28369999999999995,-5.847001802342197
-0.28470000000000006,-5.847001802342197
-0.28569999999999995,-5.890857852638012
-0.28670000000000007,-5.9347139029338285
-0.28769999999999996,-6.021011292225596
-0.28870000000000007,-6.064867342521412
-0.28969999999999996,-6.064867342521412
-0.29070000000000007,-6.108723392817228
-0.29169999999999996,-6.108723392817228
-0.29270000000000007,-6.064867342521412
-0.29369999999999996,-6.108723392817228
-0.2947000000000001,-6.108723392817228
-0.29569999999999996,-6.152579443113044
-0.2967000000000001,-6.196435493408861
-0.29769999999999996,-6.196435493408861
-0.2987000000000001,-6.282732882700628
-0.29969999999999997,-6.326588932996443
-0.3007000000000001,-6.37044498329226
-0.30169999999999997,-6.458157083883892
-0.3027000000000001,-6.500598422879844
-0.30369999999999997,-6.500598422879844
-0.3047000000000001,-6.54445447317566
-0.30569999999999997,-6.54445447317566
-0.3067000000000001,-6.588310523471475
-0.3077,-6.588310523471475
-0.3087000000000001,-6.588310523471475
-0.3097,-6.632166573767292
-0.3107000000000001,-6.719878674358924
-0.3117,-6.762320013354876
-0.3127000000000001,-6.850032113946507
-0.3137,-6.893888164242324
-0.3147000000000001,-6.93774421453814
-0.3157,-7.024041603829907
-0.3167000000000001,-7.024041603829907
-0.3177,-7.111753704421539
-0.3187000000000001,-7.111753704421539
-0.3197,-7.155609754717355
-0.3207000000000001,-7.155609754717355
-0.3217,-7.199465805013171
-0.3227000000000001,-7.199465805013171
-0.3237,-7.28576319430494
-0.3247000000000001,-7.329619244600755
-0.3257,-7.461187395488204
-0.3267000000000001,-7.50504344578402
-0.3277,-7.591340835075788
-0.3287000000000001,-7.679052935667419
-0.3297,-7.722908985963235
-0.3307000000000001,-7.7653503249591855
-0.3317,-7.809206375255003
-0.3327000000000001,-7.853062425550818
-0.3337,-7.896918475846635
-0.3347000000000001,-7.984630576438266
-0.3357,-7.984630576438266
-0.3367000000000001,-8.070927965730034
-0.3377,-8.11478401602585
-0.3387000000000001,-8.202496116617484
-0.3397,-8.332649556205066
-0.3407000000000001,-8.4203616567967
-0.3417,-8.508073757388331
-0.3427000000000001,-8.594371146680096
-0.3437,-8.638227196975913
-0.3447000000000001,-8.725939297567548
-0.3457,-8.769795347863363
-0.3467000000000001,-8.812236686859313
-0.3477,-8.899948787450944
-0.3487000000000001,-8.899948787450944
-0.3497,-9.031516938338395
-0.3507000000000001,-9.073958277334345
-0.3517,-9.205526428221793
-0.3527000000000001,-9.335679867809377
-0.3537,-9.467248018696827
-0.3547000000000001,-9.55496011928846
-0.3557,-9.685113558876042
-0.35670000000000013,-9.728969609171857
-0.3577,-9.81668170976349
-0.35870000000000013,-9.902979099055257
-0.3597,-9.946835149351072
-0.36070000000000013,-10.034547249942705
-0.3617,-10.078403300238522
-0.3626999999999999,-10.208556739826104
-0.3637,-10.296268840417738
-0.3646999999999999,-10.42642228000532
-0.3657,-10.601846481188586
-0.3666999999999999,-10.688143870480351
-0.3677,-10.819712021367803
-0.3686999999999999,-10.993721511251199
-0.36970000000000003,-11.081433611842833
-0.3706999999999999,-11.211587051430415
-0.37170000000000003,-11.299299152022046
-0.3726999999999999,-11.343155202317865
-0.37370000000000003,-11.473308641905447
-0.3746999999999999,-11.56102074249708
-0.37570000000000003,-11.647318131788847
-0.3766999999999999,-11.82274233297211
-0.37770000000000004,-11.909039722263879
-0.3786999999999999,-12.084463923447142
-0.37970000000000004,-12.258473413330542
-0.3806999999999999,-12.432482903213943
-0.38170000000000004,-12.56405105410139
-0.38269999999999993,-12.694204493688973
-0.38370000000000004,-12.825772644576423
-0.38469999999999993,-12.955926084164007
-0.38570000000000004,-13.087494235051453
-0.38669999999999993,-13.175206335643086
-0.38770000000000004,-13.349215825526485
-0.38869999999999993,-13.436927926118118
-0.38970000000000005,-13.610937416001518
-0.39069999999999994,-13.741090855589102
-0.39170000000000005,-13.916515056772363
-0.39269999999999994,-14.13438059695158
-0.39370000000000005,-14.30273124163552
-0.39469999999999994,-14.486643710617974
-0.39570000000000005,-14.69885040559773
-0.39669999999999994,-14.826174422585586
-0.39770000000000005,-15.05252823056399
-0.39869999999999994,-15.179852247551842
-0.39970000000000006,-15.307176264539699
-0.40069999999999995,-15.448647394526201
-0.40170000000000006,-15.618412750510005
-0.40269999999999995,-15.78817810649381
-0.40370000000000006,-16.014531914472215
-0.40469999999999995,-16.184297270456018
-0.40570000000000006,-16.396503965435777
-0.40669999999999995,-16.622857773414182
-0.40770000000000006,-16.835064468393938
-0.40869999999999995,-17.103859615368293
-0.40970000000000006,-17.2736249713521
-0.41069999999999995,-17.4433903273359
-0.41170000000000007,-17.627302796318357
-0.41269999999999996,-17.797068152302163
-0.41370000000000007,-18.009274847281915
-0.41469999999999996,-18.23562865526032
-0.41570000000000007,-18.40539401124413
-0.41669999999999996,-18.631747819222536
-0.41770000000000007,-18.843954514202288
-0.41869999999999996,-19.112749661176647
-0.4197000000000001,-19.367397695152352
-0.42069999999999996,-19.636192842126707
-0.4217000000000001,-19.890840876102416
-0.42269999999999996,-20.159636023076775
-0.4237000000000001,-20.371842718056527
-0.42469999999999997,-20.626490752032236
-0.4257000000000001,-20.85284456001064
-0.42669999999999997,-21.065051254990397
-0.4277000000000001,-21.333846401964752
-0.42869999999999997,-21.54605309694451
-0.4297000000000001,-21.814848243918867
-0.43069999999999997,-22.069496277894572
-0.4317000000000001,-22.38073276386488
-0.4327,-22.72026347583249
-0.4337000000000001,-22.989058622806844
-0.4347,-23.300295108777156
-0.4357000000000001,-23.639825820744765
-0.4367,-23.908620967719123
-0.4377000000000001,-24.20571034069078
-0.4387,-24.474505487665134
-0.4397000000000001,-24.729153521640843
-0.4407,-25.04039000761115
-0.4417000000000001,-25.295038041586857
-0.4427,-25.60627452755716
-0.4437000000000001,-25.959952352523427
-0.4447,-26.257041725495082
-0.4457000000000001,-26.61071955046134
-0.4467,-26.9643973754276
-0.4477000000000001,-27.303928087395207
-0.4487,-27.700047251357418
-0.4497000000000001,-28.011283737327723
-0.4507,-28.393255788291288
-0.4517000000000001,-28.662050935265643
-0.4527,-29.058170099227848
-0.4537000000000001,-29.35525947219951
-0.4547,-29.708937297165768
-0.4557000000000001,-30.04846800913338
-0.4567,-30.402145834099635
-0.4577000000000001,-30.79826499806185
-0.4587,-31.19438416202406
-0.4597000000000001,-31.57635621298762
-0.4607,-32.01491671594578
-0.4617000000000001,-32.41103587990799
-0.4627,-32.807155043870196
-0.4637000000000001,-33.231568433829715
-0.4647,-33.58524625879597
-0.4657000000000001,-33.98136542275818
-0.4667,-34.377484586720385
-0.4677000000000001,-34.8018979766799
-0.4687,-35.15557580164616
-0.4697000000000001,-35.594136304604326
-0.4707,-36.03269680756248
-0.4717000000000001,-36.47125731052064
-0.4727,-36.95225915247476
-0.4737000000000001,-37.41911388143023
-0.4747,-37.85767438438838
-0.4757000000000001,-38.38111756533845
-0.4767,-38.777236729300654
-0.4777000000000001,-39.30067991025072
-0.4787,-39.696799074212926
-0.4797000000000001,-40.177800916167044
-0.4807,-40.616361419125205
-0.48170000000000013,-41.04077480908471
-0.4827,-41.52177665103883
-0.48370000000000013,-42.04521983198889
-0.4847,-42.568663012938956
-0.48570000000000013,-43.04966485489307
-0.4867,-43.61554937483908
-0.4876999999999999,-44.138992555789144
-0.4887,-44.704877075735155
-0.4896999999999999,-45.22832025668522
-0.4907,-45.75176343763528
-0.4916999999999999,-46.2327652795894
-0.4927,-46.75620846053947
-0.4936999999999999,-47.27965164148953
-0.49470000000000003,-47.80309482243959
-0.4956999999999999,-48.32653800338966
-0.49670000000000003,-48.93486386233162
-0.4976999999999999,-49.458307043281685
-0.49870000000000003,-50.024191563227696
-0.4996999999999999,-50.64666453516831
-0.5007,-51.25499039411028
-0.5016999999999999,-51.86331625305225
-0.5027,-52.42920077299826
-0.5036999999999999,-53.03752663194023
-0.5047,-53.64585249088219
-0.5056999999999999,-54.2117370108282
-0.5067,-54.834209982768826
-0.5076999999999999,-55.400094502714836
-0.5087,-55.96597902266086
-0.5096999999999999,-56.61674622059877
-0.5107,-57.22507207954074
