May 1, 2025   13:45:55
Cyclic Voltammetry
File: c:/users/guazh/data/banditlqround7_x0exp1108_r5/2025-04-30-exp1207\exp1207-2025-05-01t13_32_03-arkoh\exp1207_cv_sr_200mvs_efin_-1600mv.bin
Data Source:  Experiment
Instrument Model:  CHI760E
Header: CV ran at 200 mVs
Note: 

Init E (V) = -1
High E (V) = -1
Low E (V) = -1.6
Final E (V) = -1
Init P/N = N
Scan Rate (V/s) = 0.2
Segment = 3
Sample Interval (V) = 0.001
Quiet Time (sec) = 2
Sensitivity (A/V) = 0.01
Comp R (ohm) = 1.1

Results:

Channel 1:
Segment 1:

Segment 2:

Segment 3:

Potential/V, Current/A

-1.000, 2.972e-5
-1.001, 6.354e-5
-1.002, 7.163e-5
-1.003, 6.750e-5
-1.004, 7.038e-5
-1.005, 7.781e-5
-1.006, 7.412e-5
-1.007, 7.224e-5
-1.008, 7.970e-5
-1.009, 7.941e-5
-1.010, 7.433e-5
-1.011, 7.988e-5
-1.012, 8.403e-5
-1.013, 7.753e-5
-1.014, 7.923e-5
-1.015, 8.596e-5
-1.016, 8.154e-5
-1.017, 7.877e-5
-1.018, 8.616e-5
-1.019, 8.506e-5
-1.020, 8.004e-5
-1.021, 8.501e-5
-1.022, 8.839e-5
-1.023, 8.240e-5
-1.024, 8.374e-5
-1.025, 8.995e-5
-1.026, 8.571e-5
-1.027, 8.265e-5
-1.028, 9.001e-5
-1.029, 8.826e-5
-1.030, 8.339e-5
-1.031, 8.809e-5
-1.032, 9.138e-5
-1.033, 8.499e-5
-1.034, 8.627e-5
-1.035, 9.275e-5
-1.036, 8.790e-5
-1.037, 8.548e-5
-1.038, 9.220e-5
-1.039, 9.143e-5
-1.040, 8.527e-5
-1.041, 9.058e-5
-1.042, 9.371e-5
-1.043, 8.724e-5
-1.044, 8.909e-5
-1.045, 9.457e-5
-1.046, 8.971e-5
-1.047, 8.767e-5
-1.048, 9.401e-5
-1.049, 9.302e-5
-1.050, 8.774e-5
-1.051, 9.222e-5
-1.052, 9.583e-5
-1.053, 8.882e-5
-1.054, 9.072e-5
-1.055, 9.685e-5
-1.056, 9.189e-5
-1.057, 8.926e-5
-1.058, 9.594e-5
-1.059, 9.466e-5
-1.060, 8.954e-5
-1.061, 9.404e-5
-1.062, 9.730e-5
-1.063, 9.094e-5
-1.064, 9.211e-5
-1.065, 9.841e-5
-1.066, 9.347e-5
-1.067, 9.063e-5
-1.068, 9.782e-5
-1.069, 9.610e-5
-1.070, 9.089e-5
-1.071, 9.612e-5
-1.072, 9.860e-5
-1.073, 9.254e-5
-1.074, 9.407e-5
-1.075, 1.002e-4
-1.076, 9.565e-5
-1.077, 9.254e-5
-1.078, 9.951e-5
-1.079, 9.817e-5
-1.080, 9.259e-5
-1.081, 9.781e-5
-1.082, 1.008e-4
-1.083, 9.406e-5
-1.084, 9.603e-5
-1.085, 1.016e-4
-1.086, 9.704e-5
-1.087, 9.464e-5
-1.088, 1.013e-4
-1.089, 9.986e-5
-1.090, 9.479e-5
-1.091, 9.950e-5
-1.092, 1.026e-4
-1.093, 9.587e-5
-1.094, 9.717e-5
-1.095, 1.041e-4
-1.096, 9.873e-5
-1.097, 9.591e-5
-1.098, 1.034e-4
-1.099, 1.016e-4
-1.100, 9.661e-5
-1.101, 1.017e-4
-1.102, 1.045e-4
-1.103, 9.818e-5
-1.104, 9.946e-5
-1.105, 1.057e-4
-1.106, 1.009e-4
-1.107, 9.826e-5
-1.108, 1.057e-4
-1.109, 1.036e-4
-1.110, 9.811e-5
-1.111, 1.036e-4
-1.112, 1.064e-4
-1.113, 9.995e-5
-1.114, 1.017e-4
-1.115, 1.076e-4
-1.116, 1.028e-4
-1.117, 1.001e-4
-1.118, 1.074e-4
-1.119, 1.060e-4
-1.120, 9.991e-5
-1.121, 1.056e-4
-1.122, 1.084e-4
-1.123, 1.017e-4
-1.124, 1.034e-4
-1.125, 1.092e-4
-1.126, 1.044e-4
-1.127, 1.023e-4
-1.128, 1.089e-4
-1.129, 1.073e-4
-1.130, 1.022e-4
-1.131, 1.069e-4
-1.132, 1.099e-4
-1.133, 1.036e-4
-1.134, 1.050e-4
-1.135, 1.109e-4
-1.136, 1.056e-4
-1.137, 1.036e-4
-1.138, 1.102e-4
-1.139, 1.084e-4
-1.140, 1.039e-4
-1.141, 1.087e-4
-1.142, 1.110e-4
-1.143, 1.051e-4
-1.144, 1.060e-4
-1.145, 1.123e-4
-1.146, 1.070e-4
-1.147, 1.045e-4
-1.148, 1.118e-4
-1.149, 1.095e-4
-1.150, 1.042e-4
-1.151, 1.100e-4
-1.152, 1.118e-4
-1.153, 1.053e-4
-1.154, 1.077e-4
-1.155, 1.128e-4
-1.156, 1.083e-4
-1.157, 1.051e-4
-1.158, 1.118e-4
-1.159, 1.106e-4
-1.160, 1.053e-4
-1.161, 1.100e-4
-1.162, 1.126e-4
-1.163, 1.059e-4
-1.164, 1.084e-4
-1.165, 1.134e-4
-1.166, 1.079e-4
-1.167, 1.064e-4
-1.168, 1.123e-4
-1.169, 1.106e-4
-1.170, 1.054e-4
-1.171, 1.105e-4
-1.172, 1.128e-4
-1.173, 1.061e-4
-1.174, 1.082e-4
-1.175, 1.138e-4
-1.176, 1.082e-4
-1.177, 1.069e-4
-1.178, 1.129e-4
-1.179, 1.110e-4
-1.180, 1.056e-4
-1.181, 1.106e-4
-1.182, 1.124e-4
-1.183, 1.069e-4
-1.184, 1.079e-4
-1.185, 1.133e-4
-1.186, 1.085e-4
-1.187, 1.059e-4
-1.188, 1.126e-4
-1.189, 1.105e-4
-1.190, 1.054e-4
-1.191, 1.110e-4
-1.192, 1.126e-4
-1.193, 1.062e-4
-1.194, 1.080e-4
-1.195, 1.135e-4
-1.196, 1.086e-4
-1.197, 1.060e-4
-1.198, 1.124e-4
-1.199, 1.109e-4
-1.200, 1.053e-4
-1.201, 1.104e-4
-1.202, 1.128e-4
-1.203, 1.063e-4
-1.204, 1.079e-4
-1.205, 1.135e-4
-1.206, 1.081e-4
-1.207, 1.063e-4
-1.208, 1.125e-4
-1.209, 1.107e-4
-1.210, 1.056e-4
-1.211, 1.106e-4
-1.212, 1.129e-4
-1.213, 1.067e-4
-1.214, 1.084e-4
-1.215, 1.137e-4
-1.216, 1.087e-4
-1.217, 1.067e-4
-1.218, 1.131e-4
-1.219, 1.111e-4
-1.220, 1.065e-4
-1.221, 1.112e-4
-1.222, 1.130e-4
-1.223, 1.072e-4
-1.224, 1.088e-4
-1.225, 1.147e-4
-1.226, 1.091e-4
-1.227, 1.072e-4
-1.228, 1.145e-4
-1.229, 1.130e-4
-1.230, 1.071e-4
-1.231, 1.128e-4
-1.232, 1.140e-4
-1.233, 1.082e-4
-1.234, 1.101e-4
-1.235, 1.156e-4
-1.236, 1.106e-4
-1.237, 1.091e-4
-1.238, 1.149e-4
-1.239, 1.137e-4
-1.240, 1.081e-4
-1.241, 1.139e-4
-1.242, 1.160e-4
-1.243, 1.096e-4
-1.244, 1.126e-4
-1.245, 1.177e-4
-1.246, 1.122e-4
-1.247, 1.111e-4
-1.248, 1.169e-4
-1.249, 1.161e-4
-1.250, 1.107e-4
-1.251, 1.164e-4
-1.252, 1.185e-4
-1.253, 1.125e-4
-1.254, 1.148e-4
-1.255, 1.206e-4
-1.256, 1.153e-4
-1.257, 1.140e-4
-1.258, 1.206e-4
-1.259, 1.183e-4
-1.260, 1.143e-4
-1.261, 1.200e-4
-1.262, 1.220e-4
-1.263, 1.163e-4
-1.264, 1.186e-4
-1.265, 1.241e-4
-1.266, 1.192e-4
-1.267, 1.178e-4
-1.268, 1.256e-4
-1.269, 1.230e-4
-1.270, 1.187e-4
-1.271, 1.249e-4
-1.272, 1.265e-4
-1.273, 1.215e-4
-1.274, 1.236e-4
-1.275, 1.293e-4
-1.276, 1.252e-4
-1.277, 1.235e-4
-1.278, 1.307e-4
-1.279, 1.293e-4
-1.280, 1.254e-4
-1.281, 1.308e-4
-1.282, 1.335e-4
-1.283, 1.279e-4
-1.284, 1.311e-4
-1.285, 1.365e-4
-1.286, 1.320e-4
-1.287, 1.314e-4
-1.288, 1.381e-4
-1.289, 1.368e-4
-1.290, 1.328e-4
-1.291, 1.389e-4
-1.292, 1.423e-4
-1.293, 1.366e-4
-1.294, 1.392e-4
-1.295, 1.463e-4
-1.296, 1.414e-4
-1.297, 1.405e-4
-1.298, 1.484e-4
-1.299, 1.471e-4
-1.300, 1.435e-4
-1.301, 1.500e-4
-1.302, 1.528e-4
-1.303, 1.483e-4
-1.304, 1.511e-4
-1.305, 1.575e-4
-1.306, 1.534e-4
-1.307, 1.534e-4
-1.308, 1.612e-4
-1.309, 1.600e-4
-1.310, 1.568e-4
-1.311, 1.635e-4
-1.312, 1.667e-4
-1.313, 1.622e-4
-1.314, 1.660e-4
-1.315, 1.727e-4
-1.316, 1.687e-4
-1.317, 1.689e-4
-1.318, 1.774e-4
-1.319, 1.770e-4
-1.320, 1.733e-4
-1.321, 1.805e-4
-1.322, 1.845e-4
-1.323, 1.799e-4
-1.324, 1.841e-4
-1.325, 1.907e-4
-1.326, 1.876e-4
-1.327, 1.884e-4
-1.328, 1.966e-4
-1.329, 1.966e-4
-1.330, 1.942e-4
-1.331, 2.013e-4
-1.332, 2.061e-4
-1.333, 2.018e-4
-1.334, 2.064e-4
-1.335, 2.142e-4
-1.336, 2.110e-4
-1.337, 2.126e-4
-1.338, 2.211e-4
-1.339, 2.214e-4
-1.340, 2.199e-4
-1.341, 2.276e-4
-1.342, 2.323e-4
-1.343, 2.293e-4
-1.344, 2.339e-4
-1.345, 2.424e-4
-1.346, 2.402e-4
-1.347, 2.418e-4
-1.348, 2.511e-4
-1.349, 2.521e-4
-1.350, 2.506e-4
-1.351, 2.597e-4
-1.352, 2.641e-4
-1.353, 2.622e-4
-1.354, 2.682e-4
-1.355, 2.765e-4
-1.356, 2.754e-4
-1.357, 2.777e-4
-1.358, 2.876e-4
-1.359, 2.899e-4
-1.360, 2.889e-4
-1.361, 2.988e-4
-1.362, 3.046e-4
-1.363, 3.029e-4
-1.364, 3.098e-4
-1.365, 3.188e-4
-1.366, 3.185e-4
-1.367, 3.218e-4
-1.368, 3.322e-4
-1.369, 3.361e-4
-1.370, 3.358e-4
-1.371, 3.458e-4
-1.372, 3.531e-4
-1.373, 3.524e-4
-1.374, 3.599e-4
-1.375, 3.705e-4
-1.376, 3.709e-4
-1.377, 3.751e-4
-1.378, 3.874e-4
-1.379, 3.913e-4
-1.380, 3.925e-4
-1.381, 4.034e-4
-1.382, 4.120e-4
-1.383, 4.126e-4
-1.384, 4.205e-4
-1.385, 4.322e-4
-1.386, 4.341e-4
-1.387, 4.393e-4
-1.388, 4.527e-4
-1.389, 4.575e-4
-1.390, 4.601e-4
-1.391, 4.732e-4
-1.392, 4.817e-4
-1.393, 4.841e-4
-1.394, 4.939e-4
-1.395, 5.070e-4
-1.396, 5.105e-4
-1.397, 5.172e-4
-1.398, 5.312e-4
-1.399, 5.389e-4
-1.400, 5.416e-4
-1.401, 5.558e-4
-1.402, 5.666e-4
-1.403, 5.698e-4
-1.404, 5.815e-4
-1.405, 5.953e-4
-1.406, 6.002e-4
-1.407, 6.087e-4
-1.408, 6.241e-4
-1.409, 6.325e-4
-1.410, 6.382e-4
-1.411, 6.540e-4
-1.412, 6.667e-4
-1.413, 6.717e-4
-1.414, 6.850e-4
-1.415, 7.022e-4
-1.416, 7.086e-4
-1.417, 7.185e-4
-1.418, 7.363e-4
-1.419, 7.465e-4
-1.420, 7.549e-4
-1.421, 7.721e-4
-1.422, 7.866e-4
-1.423, 7.947e-4
-1.424, 8.092e-4
-1.425, 8.286e-4
-1.426, 8.377e-4
-1.427, 8.499e-4
-1.428, 8.703e-4
-1.429, 8.828e-4
-1.430, 8.924e-4
-1.431, 9.128e-4
-1.432, 9.297e-4
-1.433, 9.398e-4
-1.434, 9.573e-4
-1.435, 9.784e-4
-1.436, 9.902e-4
-1.437, 1.004e-3
-1.438, 1.026e-3
-1.439, 1.042e-3
-1.440, 1.054e-3
-1.441, 1.077e-3
-1.442, 1.097e-3
-1.443, 1.109e-3
-1.444, 1.130e-3
-1.445, 1.153e-3
-1.446, 1.168e-3
-1.447, 1.185e-3
-1.448, 1.209e-3
-1.449, 1.227e-3
-1.450, 1.243e-3
-1.451, 1.268e-3
-1.452, 1.292e-3
-1.453, 1.307e-3
-1.454, 1.330e-3
-1.455, 1.358e-3
-1.456, 1.375e-3
-1.457, 1.396e-3
-1.458, 1.425e-3
-1.459, 1.447e-3
-1.460, 1.466e-3
-1.461, 1.495e-3
-1.462, 1.521e-3
-1.463, 1.541e-3
-1.464, 1.567e-3
-1.465, 1.598e-3
-1.466, 1.619e-3
-1.467, 1.644e-3
-1.468, 1.676e-3
-1.469, 1.701e-3
-1.470, 1.724e-3
-1.471, 1.757e-3
-1.472, 1.787e-3
-1.473, 1.810e-3
-1.474, 1.840e-3
-1.475, 1.874e-3
-1.476, 1.900e-3
-1.477, 1.928e-3
-1.478, 1.965e-3
-1.479, 1.994e-3
-1.480, 2.020e-3
-1.481, 2.056e-3
-1.482, 2.090e-3
-1.483, 2.117e-3
-1.484, 2.152e-3
-1.485, 2.191e-3
-1.486, 2.220e-3
-1.487, 2.253e-3
-1.488, 2.293e-3
-1.489, 2.328e-3
-1.490, 2.359e-3
-1.491, 2.399e-3
-1.492, 2.439e-3
-1.493, 2.470e-3
-1.494, 2.508e-3
-1.495, 2.552e-3
-1.496, 2.584e-3
-1.497, 2.619e-3
-1.498, 2.663e-3
-1.499, 2.700e-3
-1.500, 2.734e-3
-1.501, 2.777e-3
-1.502, 2.818e-3
-1.503, 2.853e-3
-1.504, 2.893e-3
-1.505, 2.941e-3
-1.506, 2.978e-3
-1.507, 3.018e-3
-1.508, 3.066e-3
-1.509, 3.110e-3
-1.510, 3.150e-3
-1.511, 3.199e-3
-1.512, 3.247e-3
-1.513, 3.287e-3
-1.514, 3.331e-3
-1.515, 3.380e-3
-1.516, 3.420e-3
-1.517, 3.462e-3
-1.518, 3.513e-3
-1.519, 3.559e-3
-1.520, 3.599e-3
-1.521, 3.651e-3
-1.522, 3.701e-3
-1.523, 3.743e-3
-1.524, 3.791e-3
-1.525, 3.844e-3
-1.526, 3.890e-3
-1.527, 3.937e-3
-1.528, 3.994e-3
-1.529, 4.046e-3
-1.530, 4.093e-3
-1.531, 4.148e-3
-1.532, 4.204e-3
-1.533, 4.250e-3
-1.534, 4.303e-3
-1.535, 4.360e-3
-1.536, 4.408e-3
-1.537, 4.458e-3
-1.538, 4.518e-3
-1.539, 4.571e-3
-1.540, 4.620e-3
-1.541, 4.678e-3
-1.542, 4.737e-3
-1.543, 4.787e-3
-1.544, 4.842e-3
-1.545, 4.904e-3
-1.546, 4.957e-3
-1.547, 5.011e-3
-1.548, 5.074e-3
-1.549, 5.131e-3
-1.550, 5.183e-3
-1.551, 5.245e-3
-1.552, 5.305e-3
-1.553, 5.358e-3
-1.554, 5.416e-3
-1.555, 5.482e-3
-1.556, 5.538e-3
-1.557, 5.593e-3
-1.558, 5.659e-3
-1.559, 5.721e-3
-1.560, 5.774e-3
-1.561, 5.839e-3
-1.562, 5.903e-3
-1.563, 5.958e-3
-1.564, 6.018e-3
-1.565, 6.086e-3
-1.566, 6.144e-3
-1.567, 6.204e-3
-1.568, 6.271e-3
-1.569, 6.336e-3
-1.570, 6.393e-3
-1.571, 6.460e-3
-1.572, 6.527e-3
-1.573, 6.585e-3
-1.574, 6.648e-3
-1.575, 6.719e-3
-1.576, 6.779e-3
-1.577, 6.841e-3
-1.578, 6.911e-3
-1.579, 6.977e-3
-1.580, 7.037e-3
-1.581, 7.106e-3
-1.582, 7.177e-3
-1.583, 7.239e-3
-1.584, 7.305e-3
-1.585, 7.379e-3
-1.586, 7.445e-3
-1.587, 7.509e-3
-1.588, 7.582e-3
-1.589, 7.654e-3
-1.590, 7.718e-3
-1.591, 7.791e-3
-1.592, 7.866e-3
-1.593, 7.932e-3
-1.594, 8.001e-3
-1.595, 8.076e-3
-1.596, 8.143e-3
-1.597, 8.210e-3
-1.598, 8.286e-3
-1.599, 8.359e-3
-1.600, 8.331e-3
-1.599, 8.241e-3
-1.598, 8.163e-3
-1.597, 8.074e-3
-1.596, 7.987e-3
-1.595, 7.905e-3
-1.594, 7.818e-3
-1.593, 7.728e-3
-1.592, 7.650e-3
-1.591, 7.567e-3
-1.590, 7.478e-3
-1.589, 7.399e-3
-1.588, 7.316e-3
-1.587, 7.226e-3
-1.586, 7.143e-3
-1.585, 7.066e-3
-1.584, 6.982e-3
-1.583, 6.900e-3
-1.582, 6.828e-3
-1.581, 6.750e-3
-1.580, 6.664e-3
-1.579, 6.591e-3
-1.578, 6.520e-3
-1.577, 6.440e-3
-1.576, 6.368e-3
-1.575, 6.298e-3
-1.574, 6.222e-3
-1.573, 6.149e-3
-1.572, 6.083e-3
-1.571, 6.008e-3
-1.570, 5.933e-3
-1.569, 5.865e-3
-1.568, 5.799e-3
-1.567, 5.726e-3
-1.566, 5.660e-3
-1.565, 5.597e-3
-1.564, 5.522e-3
-1.563, 5.450e-3
-1.562, 5.387e-3
-1.561, 5.321e-3
-1.560, 5.252e-3
-1.559, 5.190e-3
-1.558, 5.131e-3
-1.557, 5.063e-3
-1.556, 4.999e-3
-1.555, 4.940e-3
-1.554, 4.873e-3
-1.553, 4.808e-3
-1.552, 4.752e-3
-1.551, 4.690e-3
-1.550, 4.624e-3
-1.549, 4.567e-3
-1.548, 4.509e-3
-1.547, 4.444e-3
-1.546, 4.386e-3
-1.545, 4.336e-3
-1.544, 4.280e-3
-1.543, 4.218e-3
-1.542, 4.170e-3
-1.541, 4.114e-3
-1.540, 4.053e-3
-1.539, 4.002e-3
-1.538, 3.951e-3
-1.537, 3.892e-3
-1.536, 3.839e-3
-1.535, 3.792e-3
-1.534, 3.736e-3
-1.533, 3.682e-3
-1.532, 3.634e-3
-1.531, 3.583e-3
-1.530, 3.528e-3
-1.529, 3.482e-3
-1.528, 3.436e-3
-1.527, 3.383e-3
-1.526, 3.337e-3
-1.525, 3.296e-3
-1.524, 3.245e-3
-1.523, 3.195e-3
-1.522, 3.153e-3
-1.521, 3.107e-3
-1.520, 3.058e-3
-1.519, 3.017e-3
-1.518, 2.976e-3
-1.517, 2.926e-3
-1.516, 2.883e-3
-1.515, 2.845e-3
-1.514, 2.798e-3
-1.513, 2.755e-3
-1.512, 2.719e-3
-1.511, 2.676e-3
-1.510, 2.631e-3
-1.509, 2.594e-3
-1.508, 2.557e-3
-1.507, 2.512e-3
-1.506, 2.474e-3
-1.505, 2.440e-3
-1.504, 2.399e-3
-1.503, 2.359e-3
-1.502, 2.327e-3
-1.501, 2.289e-3
-1.500, 2.246e-3
-1.499, 2.214e-3
-1.498, 2.180e-3
-1.497, 2.139e-3
-1.496, 2.105e-3
-1.495, 2.075e-3
-1.494, 2.036e-3
-1.493, 2.001e-3
-1.492, 1.973e-3
-1.491, 1.940e-3
-1.490, 1.902e-3
-1.489, 1.875e-3
-1.488, 1.845e-3
-1.487, 1.810e-3
-1.486, 1.780e-3
-1.485, 1.755e-3
-1.484, 1.721e-3
-1.483, 1.690e-3
-1.482, 1.667e-3
-1.481, 1.636e-3
-1.480, 1.604e-3
-1.479, 1.580e-3
-1.478, 1.554e-3
-1.477, 1.522e-3
-1.476, 1.497e-3
-1.475, 1.475e-3
-1.474, 1.445e-3
-1.473, 1.417e-3
-1.472, 1.398e-3
-1.471, 1.371e-3
-1.470, 1.341e-3
-1.469, 1.322e-3
-1.468, 1.299e-3
-1.467, 1.270e-3
-1.466, 1.248e-3
-1.465, 1.229e-3
-1.464, 1.204e-3
-1.463, 1.181e-3
-1.462, 1.164e-3
-1.461, 1.141e-3
-1.460, 1.115e-3
-1.459, 1.098e-3
-1.458, 1.079e-3
-1.457, 1.053e-3
-1.456, 1.035e-3
-1.455, 1.020e-3
-1.454, 9.951e-4
-1.453, 9.749e-4
-1.452, 9.615e-4
-1.451, 9.407e-4
-1.450, 9.184e-4
-1.449, 9.050e-4
-1.448, 8.890e-4
-1.447, 8.659e-4
-1.446, 8.502e-4
-1.445, 8.383e-4
-1.444, 8.159e-4
-1.443, 7.984e-4
-1.442, 7.881e-4
-1.441, 7.699e-4
-1.440, 7.499e-4
-1.439, 7.395e-4
-1.438, 7.254e-4
-1.437, 7.058e-4
-1.436, 6.926e-4
-1.435, 6.826e-4
-1.434, 6.633e-4
-1.433, 6.484e-4
-1.432, 6.405e-4
-1.431, 6.251e-4
-1.430, 6.068e-4
-1.429, 5.998e-4
-1.428, 5.888e-4
-1.427, 5.697e-4
-1.426, 5.600e-4
-1.425, 5.520e-4
-1.424, 5.352e-4
-1.423, 5.228e-4
-1.422, 5.165e-4
-1.421, 5.034e-4
-1.420, 4.874e-4
-1.419, 4.819e-4
-1.418, 4.723e-4
-1.417, 4.560e-4
-1.416, 4.483e-4
-1.415, 4.422e-4
-1.414, 4.265e-4
-1.413, 4.171e-4
-1.412, 4.128e-4
-1.411, 4.007e-4
-1.410, 3.874e-4
-1.409, 3.835e-4
-1.408, 3.751e-4
-1.407, 3.612e-4
-1.406, 3.536e-4
-1.405, 3.504e-4
-1.404, 3.368e-4
-1.403, 3.275e-4
-1.402, 3.250e-4
-1.401, 3.143e-4
-1.400, 3.027e-4
-1.399, 3.003e-4
-1.398, 2.934e-4
-1.397, 2.807e-4
-1.396, 2.754e-4
-1.395, 2.730e-4
-1.394, 2.604e-4
-1.393, 2.534e-4
-1.392, 2.525e-4
-1.391, 2.430e-4
-1.390, 2.325e-4
-1.389, 2.316e-4
-1.388, 2.256e-4
-1.387, 2.143e-4
-1.386, 2.111e-4
-1.385, 2.090e-4
-1.384, 1.984e-4
-1.383, 1.912e-4
-1.382, 1.916e-4
-1.381, 1.837e-4
-1.380, 1.740e-4
-1.379, 1.744e-4
-1.378, 1.700e-4
-1.377, 1.591e-4
-1.376, 1.569e-4
-1.375, 1.559e-4
-1.374, 1.454e-4
-1.373, 1.407e-4
-1.372, 1.416e-4
-1.371, 1.346e-4
-1.370, 1.260e-4
-1.369, 1.269e-4
-1.368, 1.234e-4
-1.367, 1.137e-4
-1.366, 1.120e-4
-1.365, 1.124e-4
-1.364, 1.027e-4
-1.363, 9.870e-5
-1.362, 1.007e-4
-1.361, 9.387e-5
-1.360, 8.667e-5
-1.359, 8.866e-5
-1.358, 8.521e-5
-1.357, 7.623e-5
-1.356, 7.502e-5
-1.355, 7.615e-5
-1.354, 6.765e-5
-1.353, 6.362e-5
-1.352, 6.688e-5
-1.351, 6.094e-5
-1.350, 5.285e-5
-1.349, 5.635e-5
-1.348, 5.346e-5
-1.347, 4.531e-5
-1.346, 4.504e-5
-1.345, 4.647e-5
-1.344, 3.833e-5
-1.343, 3.521e-5
-1.342, 3.788e-5
-1.341, 3.291e-5
-1.340, 2.601e-5
-1.339, 2.927e-5
-1.338, 2.728e-5
-1.337, 1.892e-5
-1.336, 1.947e-5
-1.335, 2.190e-5
-1.334, 1.370e-5
-1.333, 1.126e-5
-1.332, 1.476e-5
-1.331, 9.716e-6
-1.330, 3.846e-6
-1.329, 7.230e-6
-1.328, 5.918e-6
-1.327, -1.413e-6
-1.326, -1.225e-6
-1.325, 1.685e-6
-1.324, -6.336e-6
-1.323, -8.220e-6
-1.322, -3.889e-6
-1.321, -9.079e-6
-1.320, -1.438e-5
-1.319, -1.028e-5
-1.318, -1.216e-5
-1.317, -1.891e-5
-1.316, -1.732e-5
-1.315, -1.515e-5
-1.314, -2.199e-5
-1.313, -2.403e-5
-1.312, -1.925e-5
-1.311, -2.389e-5
-1.310, -2.926e-5
-1.309, -2.438e-5
-1.308, -2.572e-5
-1.307, -3.261e-5
-1.306, -3.103e-5
-1.305, -2.836e-5
-1.304, -3.500e-5
-1.303, -3.601e-5
-1.302, -3.204e-5
-1.301, -3.574e-5
-1.300, -4.113e-5
-1.299, -3.633e-5
-1.298, -3.714e-5
-1.297, -4.421e-5
-1.296, -4.172e-5
-1.295, -3.852e-5
-1.294, -4.578e-5
-1.293, -4.672e-5
-1.292, -4.196e-5
-1.291, -4.591e-5
-1.290, -5.070e-5
-1.289, -4.595e-5
-1.288, -4.632e-5
-1.287, -5.316e-5
-1.286, -5.125e-5
-1.285, -4.762e-5
-1.284, -5.439e-5
-1.283, -5.501e-5
-1.282, -5.001e-5
-1.281, -5.425e-5
-1.280, -5.958e-5
-1.279, -5.349e-5
-1.278, -5.466e-5
-1.277, -6.025e-5
-1.276, -5.817e-5
-1.275, -5.504e-5
-1.274, -6.131e-5
-1.273, -6.234e-5
-1.272, -5.682e-5
-1.271, -6.083e-5
-1.270, -6.552e-5
-1.269, -5.977e-5
-1.268, -6.044e-5
-1.267, -6.674e-5
-1.266, -6.437e-5
-1.265, -6.078e-5
-1.264, -6.699e-5
-1.263, -6.777e-5
-1.262, -6.280e-5
-1.261, -6.607e-5
-1.260, -7.079e-5
-1.259, -6.552e-5
-1.258, -6.580e-5
-1.257, -7.210e-5
-1.256, -6.941e-5
-1.255, -6.587e-5
-1.254, -7.247e-5
-1.253, -7.254e-5
-1.252, -6.740e-5
-1.251, -7.071e-5
-1.250, -7.502e-5
-1.249, -6.999e-5
-1.248, -7.006e-5
-1.247, -7.604e-5
-1.246, -7.372e-5
-1.245, -6.952e-5
-1.244, -7.576e-5
-1.243, -7.613e-5
-1.242, -7.075e-5
-1.241, -7.464e-5
-1.240, -7.864e-5
-1.239, -7.278e-5
-1.238, -7.379e-5
-1.237, -7.920e-5
-1.236, -7.676e-5
-1.235, -7.279e-5
-1.234, -7.893e-5
-1.233, -7.965e-5
-1.232, -7.416e-5
-1.231, -7.753e-5
-1.230, -8.196e-5
-1.229, -7.770e-5
-1.228, -7.666e-5
-1.227, -8.262e-5
-1.226, -7.973e-5
-1.225, -7.588e-5
-1.224, -8.217e-5
-1.223, -8.206e-5
-1.222, -7.740e-5
-1.221, -8.012e-5
-1.220, -8.462e-5
-1.219, -7.870e-5
-1.218, -7.893e-5
-1.217, -8.486e-5
-1.216, -8.225e-5
-1.215, -7.844e-5
-1.214, -8.459e-5
-1.213, -8.452e-5
-1.212, -7.917e-5
-1.211, -8.246e-5
-1.210, -8.678e-5
-1.209, -8.108e-5
-1.208, -8.128e-5
-1.207, -8.695e-5
-1.206, -8.453e-5
-1.205, -8.043e-5
-1.204, -8.682e-5
-1.203, -8.705e-5
-1.202, -8.130e-5
-1.201, -8.546e-5
-1.200, -8.870e-5
-1.199, -8.328e-5
-1.198, -8.355e-5
-1.197, -8.928e-5
-1.196, -8.663e-5
-1.195, -8.271e-5
-1.194, -8.861e-5
-1.193, -8.939e-5
-1.192, -8.345e-5
-1.191, -8.692e-5
-1.190, -9.140e-5
-1.189, -8.527e-5
-1.188, -8.544e-5
-1.187, -9.179e-5
-1.186, -8.840e-5
-1.185, -8.482e-5
-1.184, -9.079e-5
-1.183, -9.106e-5
-1.182, -8.587e-5
-1.181, -8.934e-5
-1.180, -9.313e-5
-1.179, -8.763e-5
-1.178, -8.829e-5
-1.177, -9.416e-5
-1.176, -9.077e-5
-1.175, -8.692e-5
-1.174, -9.352e-5
-1.173, -9.325e-5
-1.172, -8.775e-5
-1.171, -9.146e-5
-1.170, -9.526e-5
-1.169, -8.991e-5
-1.168, -8.977e-5
-1.167, -9.588e-5
-1.166, -9.306e-5
-1.165, -8.880e-5
-1.164, -9.548e-5
-1.163, -9.581e-5
-1.162, -8.952e-5
-1.161, -9.386e-5
-1.160, -9.766e-5
-1.159, -9.152e-5
-1.158, -9.213e-5
-1.157, -9.773e-5
-1.156, -9.524e-5
-1.155, -9.123e-5
-1.154, -9.737e-5
-1.153, -9.841e-5
-1.152, -9.212e-5
-1.151, -9.601e-5
-1.150, -1.006e-4
-1.149, -9.375e-5
-1.148, -9.445e-5
-1.147, -1.004e-4
-1.146, -9.735e-5
-1.145, -9.372e-5
-1.144, -9.977e-5
-1.143, -1.002e-4
-1.142, -9.494e-5
-1.141, -9.811e-5
-1.140, -1.028e-4
-1.139, -9.662e-5
-1.138, -9.671e-5
-1.137, -1.033e-4
-1.136, -9.983e-5
-1.135, -9.610e-5
-1.134, -1.029e-4
-1.133, -1.027e-4
-1.132, -9.722e-5
-1.131, -1.014e-4
-1.130, -1.049e-4
-1.129, -9.972e-5
-1.128, -9.909e-5
-1.127, -1.061e-4
-1.126, -1.033e-4
-1.125, -9.876e-5
-1.124, -1.056e-4
-1.123, -1.061e-4
-1.122, -1.001e-4
-1.121, -1.040e-4
-1.120, -1.079e-4
-1.119, -1.020e-4
-1.118, -1.024e-4
-1.117, -1.083e-4
-1.116, -1.054e-4
-1.115, -1.016e-4
-1.114, -1.080e-4
-1.113, -1.085e-4
-1.112, -1.023e-4
-1.111, -1.063e-4
-1.110, -1.110e-4
-1.109, -1.046e-4
-1.108, -1.049e-4
-1.107, -1.116e-4
-1.106, -1.081e-4
-1.105, -1.046e-4
-1.104, -1.106e-4
-1.103, -1.109e-4
-1.102, -1.056e-4
-1.101, -1.087e-4
-1.100, -1.136e-4
-1.099, -1.074e-4
-1.098, -1.075e-4
-1.097, -1.141e-4
-1.096, -1.107e-4
-1.095, -1.067e-4
-1.094, -1.137e-4
-1.093, -1.136e-4
-1.092, -1.079e-4
-1.091, -1.121e-4
-1.090, -1.159e-4
-1.089, -1.100e-4
-1.088, -1.102e-4
-1.087, -1.166e-4
-1.086, -1.137e-4
-1.085, -1.091e-4
-1.084, -1.159e-4
-1.083, -1.164e-4
-1.082, -1.102e-4
-1.081, -1.151e-4
-1.080, -1.185e-4
-1.079, -1.128e-4
-1.078, -1.135e-4
-1.077, -1.191e-4
-1.076, -1.165e-4
-1.075, -1.128e-4
-1.074, -1.192e-4
-1.073, -1.194e-4
-1.072, -1.133e-4
-1.071, -1.174e-4
-1.070, -1.220e-4
-1.069, -1.154e-4
-1.068, -1.163e-4
-1.067, -1.225e-4
-1.066, -1.190e-4
-1.065, -1.155e-4
-1.064, -1.219e-4
-1.063, -1.223e-4
-1.062, -1.168e-4
-1.061, -1.205e-4
-1.060, -1.242e-4
-1.059, -1.188e-4
-1.058, -1.188e-4
-1.057, -1.255e-4
-1.056, -1.220e-4
-1.055, -1.182e-4
-1.054, -1.251e-4
-1.053, -1.252e-4
-1.052, -1.193e-4
-1.051, -1.234e-4
-1.050, -1.279e-4
-1.049, -1.220e-4
-1.048, -1.221e-4
-1.047, -1.283e-4
-1.046, -1.256e-4
-1.045, -1.218e-4
-1.044, -1.281e-4
-1.043, -1.288e-4
-1.042, -1.224e-4
-1.041, -1.270e-4
-1.040, -1.312e-4
-1.039, -1.254e-4
-1.038, -1.257e-4
-1.037, -1.321e-4
-1.036, -1.291e-4
-1.035, -1.251e-4
-1.034, -1.321e-4
-1.033, -1.331e-4
-1.032, -1.263e-4
-1.031, -1.306e-4
-1.030, -1.356e-4
-1.029, -1.290e-4
-1.028, -1.297e-4
-1.027, -1.363e-4
-1.026, -1.326e-4
-1.025, -1.296e-4
-1.024, -1.368e-4
-1.023, -1.369e-4
-1.022, -1.307e-4
-1.021, -1.351e-4
-1.020, -1.396e-4
-1.019, -1.337e-4
-1.018, -1.343e-4
-1.017, -1.409e-4
-1.016, -1.375e-4
-1.015, -1.337e-4
-1.014, -1.407e-4
-1.013, -1.410e-4
-1.012, -1.356e-4
-1.011, -1.401e-4
-1.010, -1.444e-4
-1.009, -1.386e-4
-1.008, -1.384e-4
-1.007, -1.458e-4
-1.006, -1.430e-4
-1.005, -1.386e-4
-1.004, -1.461e-4
-1.003, -1.467e-4
-1.002, -1.407e-4
-1.001, -1.455e-4
