Potential V vs RHE, Current mA cm-2
0.4132999999999999,0.14939351326574787
0.4122999999999999,0.08697645071570247
0.4112999999999999,0.055569859858698646
0.4102999999999999,0.036853229361484205
0.4092999999999999,0.022479762554855433
0.4082999999999999,0.009992105910946755
0.4072999999999999,-0.0011972701730757805
0.4062999999999999,-0.01062023772808683
0.4052999999999999,-0.020145488910078124
0.4042999999999999,-0.029326965246202208
0.4032999999999999,-0.03753229078541943
0.4022999999999999,-0.04518587891768927
0.4012999999999999,-0.0521604056260239
0.4002999999999999,-0.05899346120437202
0.3992999999999999,-0.06601042925170261
0.3982999999999999,-0.07240492432709257
0.3972999999999999,-0.07812035797854733
0.3962999999999999,-0.08366602627401826
0.3952999999999999,-0.08865995716254185
0.3942999999999999,-0.094601744621975
0.39329999999999987,-0.09973714664048508
0.39229999999999987,-0.10439154681704105
0.39129999999999987,-0.10893277008960783
0.39029999999999987,-0.11302128574621777
0.38929999999999987,-0.11808595219973461
0.38829999999999987,-0.12257058702030678
0.38729999999999987,-0.12634786619094643
0.38629999999999987,-0.13029491071756988
0.38529999999999986,-0.13391657164522439
0.38429999999999986,-0.1379626459628384
0.38329999999999986,-0.1420370145064497
0.38229999999999986,-0.14514937936615277
0.38129999999999986,-0.14826174422585583
0.38029999999999986,-0.15179852247551845
0.37929999999999986,-0.155052358465208
0.37829999999999986,-0.1585891367148706
0.37729999999999986,-0.16141855931460067
0.37629999999999986,-0.16410651078434427
0.37529999999999986,-0.16721887564404736
0.37429999999999986,-0.17018976937376393
0.37329999999999985,-0.1731606631034805
0.37229999999999985,-0.17570714344323757
0.37129999999999985,-0.17782921039303512
0.37029999999999985,-0.1806586329927652
0.36929999999999985,-0.18334658446250876
0.36829999999999985,-0.1860345359322523
0.36729999999999985,-0.18858101627200938
0.36629999999999985,-0.19042014096183393
0.36529999999999985,-0.193249563561564
0.36429999999999985,-0.19607898616129407
0.36329999999999985,-0.19820105311109162
0.36229999999999984,-0.20060606232086217
0.36129999999999984,-0.20244518701068673
0.36029999999999984,-0.20470872509047083
0.35929999999999984,-0.20725520543022788
0.35829999999999984,-0.20951874351001196
0.35729999999999984,-0.21149933932982298
0.35629999999999984,-0.21319699288966104
0.35529999999999984,-0.2151775887094721
0.35429999999999984,-0.21786554017921567
0.35329999999999984,-0.22012907825899972
0.35229999999999984,-0.22182673181883775
0.35129999999999983,-0.2239487987686353
0.35029999999999983,-0.22564645232847336
0.34929999999999983,-0.2284758749282034
0.34829999999999983,-0.2307394130079875
0.34729999999999983,-0.23286147995778506
0.34629999999999983,-0.23427619125765006
0.34529999999999983,-0.23611531594747462
0.34429999999999983,-0.23837885402725867
0.3432999999999998,-0.24092533436701574
0.3422999999999998,-0.24219857453689428
0.3412999999999998,-0.24389622809673234
0.3402999999999998,-0.24615976617651636
0.3392999999999998,-0.24814036199632744
0.3382999999999998,-0.250545371206098
0.3372999999999998,-0.2518186113759765
0.3362999999999998,-0.25337479380582806
0.3352999999999998,-0.25535538962563914
0.3342999999999998,-0.2574774565754367
0.3332999999999998,-0.25959952352523424
0.3322999999999998,-0.2610142348250993
0.3312999999999998,-0.2622874749949778
0.3302999999999998,-0.26440954194477534
0.3292999999999998,-0.26681455115454594
0.3282999999999998,-0.268795146974357
0.3272999999999998,-0.27049280053419505
0.3262999999999998,-0.27190751183406003
0.3252999999999999,-0.2740295787838576
0.3242999999999999,-0.2762931168636417
0.3232999999999999,-0.2781322415534663
0.3222999999999999,-0.27982989511330425
0.3212999999999999,-0.2813860775431558
0.3202999999999999,-0.28322520223298037
0.3192999999999999,-0.2854887403127644
0.3182999999999999,-0.2874693361325754
0.3172999999999999,-0.28930846082239997
0.3162999999999999,-0.29100611438223806
0.3152999999999999,-0.2927037679420761
0.3142999999999999,-0.2952502482818331
0.3132999999999999,-0.29680643071168467
0.3122999999999999,-0.29850408427152275
0.3112999999999999,-0.3004846800913338
0.3102999999999999,-0.30204086252118534
0.3092999999999999,-0.30402145834099636
0.3082999999999999,-0.30628499642078044
0.3072999999999999,-0.30755823659065895
0.3062999999999999,-0.30925589015049704
0.3052999999999999,-0.3108120725803486
0.3042999999999999,-0.31293413953014615
0.3032999999999999,-0.31519767760993017
0.3022999999999999,-0.31604650438984916
0.3012999999999999,-0.3177441579496872
0.3002999999999999,-0.31958328263951175
0.2992999999999999,-0.3215638784593228
0.2982999999999999,-0.32354447427913385
0.2972999999999999,-0.3248177144490124
0.2962999999999999,-0.326373896878864
0.2952999999999999,-0.3279300793087155
0.2942999999999999,-0.3300521462585131
0.2932999999999999,-0.3318912709483376
0.2922999999999999,-0.33288156885824316
0.2912999999999999,-0.3342962801581082
0.2902999999999999,-0.33641834710790575
0.2892999999999999,-0.3382574717977303
0.2882999999999999,-0.3395307119676088
0.2872999999999999,-0.3408039521374874
0.2862999999999999,-0.3420771923073659
0.2852999999999999,-0.34405778812717697
0.2842999999999999,-0.345472499427042
0.2832999999999999,-0.34717015298688
0.2822999999999999,-0.34844339315675854
0.2812999999999999,-0.3497166333266371
0.2802999999999999,-0.3511313446265021
0.2792999999999999,-0.35297046931632664
0.2782999999999999,-0.3548095940061512
0.2772999999999999,-0.35579989191605677
0.2762999999999999,-0.35693166095594875
0.2752999999999999,-0.3577804877358678
0.2742999999999999,-0.3591951990357328
0.2732999999999999,-0.36075138146558433
0.2722999999999999,-0.3614587371155169
0.2712999999999999,-0.36301491954536846
0.2702999999999999,-0.36442963084523344
0.2692999999999999,-0.366551697795031
0.26829999999999987,-0.36810788022488256
0.26729999999999987,-0.36839082248485555
0.26629999999999987,-0.36938112039476106
0.26529999999999987,-0.3709373028246126
0.26429999999999987,-0.37221054299449113
0.26329999999999987,-0.3740496676843157
0.26229999999999987,-0.37419113881430216
0.26129999999999987,-0.3754643789841807
0.26029999999999986,-0.37716203254401875
0.25929999999999986,-0.3784352727138973
0.25829999999999986,-0.3799914551437488
0.25729999999999986,-0.3806988107936814
0.25629999999999986,-0.3812646953136274
0.25529999999999986,-0.3829623488734654
0.25429999999999986,-0.38437706017333045
0.25329999999999986,-0.38536735808323597
0.25229999999999986,-0.38565030034320896
0.25129999999999986,-0.38607471373316854
0.25029999999999986,-0.387347953903047
0.24929999999999986,-0.3890456074628851
0.24829999999999985,-0.3898944342428041
0.24729999999999985,-0.39060178989273664
0.24629999999999985,-0.3915920878026421
0.24529999999999985,-0.39314827023249366
0.24429999999999985,-0.39357268362245323
0.24329999999999985,-0.3945629815323587
0.24229999999999985,-0.3965435773521698
0.24129999999999985,-0.3976753463920618
0.24029999999999985,-0.3990900576919268
0.23929999999999985,-0.4010706535117379
0.23829999999999985,-0.4019194802916569
0.23729999999999984,-0.40290977820156243
0.23629999999999984,-0.4034756627215085
0.23529999999999984,-0.40460743176140046
0.23429999999999984,-0.40602214306126555
0.23329999999999984,-0.4078612677510901
0.23229999999999984,-0.4081442100110631
0.23129999999999984,-0.40856862340102257
0.23029999999999984,-0.40927597905095514
0.22929999999999984,-0.41012480583087413
0.22829999999999984,-0.40998333470088766
0.22729999999999984,-0.41026627696086065
0.22629999999999983,-0.4113980460007527
0.22529999999999983,-0.4126712861706312
0.22429999999999983,-0.41422746860048276
0.22329999999999983,-0.4157836510303343
0.22229999999999983,-0.41677394894023984
0.22129999999999983,-0.41833013137009134
0.22029999999999983,-0.42031072718990237
0.21929999999999983,-0.42158396735978093
0.21829999999999983,-0.42229132300971345
0.21729999999999983,-0.42229132300971345
0.21629999999999983,-0.42271573639967297
0.21529999999999982,-0.4239889765695515
0.21429999999999982,-0.4248378033494705
0.21329999999999982,-0.42611104351934903
0.21229999999999982,-0.42611104351934903
0.21129999999999982,-0.42752575481921407
0.21029999999999982,-0.4306381196789172
0.20929999999999982,-0.43247724436874174
0.20829999999999982,-0.4336090134086337
0.20729999999999982,-0.4341748979285798
0.20629999999999982,-0.4344578401885528
0.20529999999999982,-0.4355896092284448
0.20429999999999982,-0.43587255148841775
0.20329999999999981,-0.43615549374839085
0.2022999999999998,-0.43728726278828284
0.2012999999999998,-0.4378531473082289
0.20029999999999992,-0.43870197408814793
0.19929999999999992,-0.4401166853880129
0.19829999999999992,-0.44181433894785094
0.19729999999999992,-0.44238022346779693
0.19629999999999992,-0.443511992507689
0.19529999999999992,-0.44407787702763507
0.19429999999999992,-0.4456340594574866
0.19329999999999992,-0.4469072996273651
0.19229999999999992,-0.44761465527729766
0.19129999999999991,-0.4483220109272302
0.1902999999999999,-0.4484634820572166
0.1892999999999999,-0.44888789544717617
0.1882999999999999,-0.45030260674704115
0.1872999999999999,-0.4512929046569467
0.1862999999999999,-0.4527076159568117
0.1852999999999999,-0.4542637983866633
0.1842999999999999,-0.4558199808165148
0.1832999999999999,-0.45666880759643386
0.1822999999999999,-0.4572346921163799
0.1812999999999999,-0.45765910550633937
0.1802999999999999,-0.4578005766363259
0.1792999999999999,-0.45879087454623135
0.1782999999999999,-0.4599226435861234
0.1772999999999999,-0.46034705697608286
0.1762999999999999,-0.4604885281060694
0.1752999999999999,-0.46077147036604243
0.1742999999999999,-0.462044710535921
0.1732999999999999,-0.462610595055867
0.1722999999999999,-0.463459421835786
0.1712999999999999,-0.46459119087567796
0.1702999999999999,-0.4650156042656376
0.1692999999999999,-0.4661473733055296
0.1682999999999999,-0.46742061347540814
0.1672999999999999,-0.46742061347540814
0.1662999999999999,-0.4684109113853136
0.1652999999999999,-0.4688353247752731
0.1642999999999999,-0.4708159205950842
0.1632999999999999,-0.47223063189494924
0.1622999999999999,-0.47322092980485475
0.1612999999999999,-0.47463564110471984
0.1602999999999999,-0.4760503524045848
0.1592999999999999,-0.47718212144447686
0.15829999999999989,-0.4784553616143554
0.15729999999999988,-0.47887977500431494
0.15629999999999988,-0.4804359574341665
0.15529999999999988,-0.4818506687340315
0.15429999999999988,-0.48241655325397753
0.15329999999999988,-0.482558024383964
0.15229999999999988,-0.4832653800338965
0.15129999999999988,-0.4838312645538425
0.15029999999999988,-0.48651921602358617
0.14929999999999988,-0.4884998118433972
0.14829999999999988,-0.4901974654032352
0.14729999999999988,-0.4934513013929247
0.14629999999999987,-0.49458307043281674
0.14529999999999987,-0.49613925286266836
0.14429999999999987,-0.49670513738261435
0.14329999999999987,-0.4969880796425873
0.14229999999999987,-0.4984027909424524
0.14129999999999987,-0.4985442620724389
0.14029999999999987,-0.49967603111233094
0.13929999999999987,-0.5002419156322769
0.13829999999999987,-0.5005248578922499
0.13729999999999987,-0.501656626932142
0.13629999999999987,-0.5032128093619935
0.13529999999999986,-0.505334876311791
0.13429999999999986,-0.5060422319617235
0.13329999999999986,-0.5057592897017505
0.13229999999999986,-0.5074569432615886
0.13129999999999986,-0.5080228277815346
0.13029999999999986,-0.5090131256914401
0.12929999999999986,-0.5109937215112512
0.12829999999999986,-0.5122669616811297
0.12729999999999986,-0.5114181349012108
0.12629999999999986,-0.5117010771611837
0.12529999999999986,-0.5112766637712243
0.12429999999999986,-0.5119840194211568
0.12329999999999985,-0.5133987307210217
0.12229999999999985,-0.5149549131508734
0.12129999999999985,-0.5165110955807248
0.12029999999999985,-0.518491691400536
0.11929999999999985,-0.5191990470504685
0.11829999999999985,-0.5203308160903605
0.11729999999999985,-0.521321114000266
0.11629999999999985,-0.5223114119101716
0.11529999999999985,-0.5225943541701447
0.11429999999999985,-0.5224528830401581
0.11329999999999985,-0.5249993633799152
0.11229999999999984,-0.5266970169397532
0.11129999999999984,-0.5278287859796452
0.11029999999999984,-0.5289605550195372
0.10929999999999984,-0.5307996797093618
0.10829999999999984,-0.5316485064892809
0.10729999999999984,-0.5330632177891458
0.10629999999999984,-0.5347608713489839
0.10529999999999984,-0.5368829382987814
0.10429999999999984,-0.5377317650787005
0.10329999999999984,-0.537873236208687
0.10229999999999984,-0.538722062988606
0.10129999999999983,-0.5380147073386735
0.10029999999999983,-0.538722062988606
0.09929999999999983,-0.5402782454184575
0.09829999999999983,-0.5419758989782956
0.09729999999999983,-0.5429661968882011
0.09629999999999983,-0.5439564947981066
0.09529999999999983,-0.5456541483579447
0.09429999999999983,-0.5486250420876613
0.09329999999999983,-0.5517374069473643
0.09229999999999983,-0.553293589377216
0.09129999999999983,-0.5537180027671754
0.09029999999999982,-0.5547083006770809
0.08929999999999982,-0.5556985985869863
0.08829999999999982,-0.5562644831069326
0.08729999999999982,-0.5573962521468245
0.08629999999999982,-0.5579621366667705
0.08529999999999982,-0.5593768479666354
0.08429999999999982,-0.5613574437864466
0.08329999999999982,-0.5624892128263386
0.08229999999999982,-0.5624892128263386
0.08129999999999982,-0.5634795107362441
0.08029999999999982,-0.5643283375161632
0.07929999999999982,-0.5658845199460147
0.07829999999999981,-0.5667333467259337
0.07729999999999981,-0.5684310002857718
0.07629999999999981,-0.5704115961055828
0.07529999999999992,-0.5715433651454748
0.07429999999999992,-0.5722507207954074
0.07329999999999992,-0.5739483743552454
0.07229999999999992,-0.5752216145251239
0.07129999999999992,-0.5750801433951374
0.07029999999999992,-0.5759289701750565
0.06929999999999992,-0.577768094864881
0.06829999999999992,-0.578051037124854
0.06729999999999992,-0.5787583927747865
0.06629999999999991,-0.5790413350347595
0.06529999999999991,-0.579748690684692
0.06429999999999991,-0.5807389885945976
0.06329999999999991,-0.5820122287644761
0.06229999999999991,-0.5831439978043682
0.06129999999999991,-0.5831439978043682
0.06029999999999991,-0.5844172379742467
0.05929999999999991,-0.5855490070141387
0.05829999999999991,-0.5883784296138688
0.05729999999999991,-0.5899346120437202
0.056299999999999906,-0.5913493233435854
0.055299999999999905,-0.5924810923834773
0.054299999999999904,-0.5944616882032884
0.0532999999999999,-0.5946031593332749
0.0522999999999999,-0.595169043853221
0.0512999999999999,-0.5961593417631265
0.0502999999999999,-0.5987058221028836
0.0492999999999999,-0.601959658092573
0.0482999999999999,-0.6064867342521413
0.0472999999999999,-0.6093161568518712
0.0462999999999999,-0.6095990991118443
0.045299999999999896,-0.6103064547617768
0.044299999999999895,-0.6128529351015338
0.043299999999999894,-0.6137017618814529
0.04229999999999989,-0.6145505886613719
0.04129999999999989,-0.6152579443113044
0.04029999999999989,-0.6169555978711424
0.03929999999999989,-0.6195020782108995
0.03829999999999989,-0.6210582606407511
0.03729999999999989,-0.620775318380778
0.03629999999999989,-0.6210582606407511
0.03529999999999989,-0.6224729719406161
0.034299999999999886,-0.6236047409805081
0.033299999999999885,-0.6236047409805081
0.032299999999999884,-0.6233217987205352
0.031299999999999883,-0.6240291543704677
0.030299999999999883,-0.6260097501902787
0.02929999999999988,-0.6264341635802383
0.02829999999999988,-0.6286977016600223
0.02729999999999988,-0.6295465284399413
0.02629999999999988,-0.6306782974798333
0.025299999999999878,-0.6323759510396714
0.024299999999999877,-0.6344980179894689
0.023299999999999876,-0.6354883158993744
0.022299999999999875,-0.63647861380928
0.021299999999999875,-0.6369030271992394
0.020299999999999874,-0.6374689117191855
0.019299999999999873,-0.6384592096290911
0.018299999999999872,-0.6388836230190506
0.01729999999999987,-0.640439805448902
0.01629999999999987,-0.6410056899688481
0.01529999999999987,-0.6415715744887941
0.014299999999999868,-0.6441180548285511
0.013299999999999867,-0.6475133619482272
0.012299999999999978,-0.6473718908182408
0.011299999999999866,-0.6477963042082002
0.010299999999999976,-0.6492110155080654
0.009299999999999864,-0.6506257268079303
0.008299999999999974,-0.6511916113278763
0.007299999999999862,-0.653313678277674
0.006299999999999972,-0.6537380916676334
0.00529999999999986,-0.6545869184475525
0.0042999999999999705,-0.655860158617431
0.0032999999999998586,-0.6579822255672285
0.0022999999999999687,-0.6612360615569182
0.0012999999999998568,-0.6642069552866348
0.00029999999999996696,-0.6653387243265267
-0.000700000000000145,-0.6681681469262569
-0.0017000000000000348,-0.6698658004860949
-0.0027000000000001467,-0.673544049865744
-0.0037000000000000366,-0.6756661168155416
-0.0047000000000001485,-0.6769393569854201
-0.005700000000000038,-0.6810420197550288
-0.00670000000000015,-0.6814664331449882
-0.00770000000000004,-0.6841543846147318
-0.008700000000000152,-0.6874082206044214
-0.009700000000000042,-0.6889644030342729
-0.010700000000000154,-0.6925011812839355
-0.011700000000000044,-0.6956135461436386
-0.012700000000000156,-0.6967453151835306
-0.013700000000000045,-0.6999991511732202
-0.014700000000000157,-0.7002820934331931
-0.015700000000000047,-0.7022626892530042
-0.01670000000000016,-0.7055165252426938
-0.01770000000000005,-0.7077800633224779
-0.01870000000000016,-0.7069312365425588
-0.01970000000000005,-0.7099021302722753
-0.020700000000000163,-0.713438908521938
-0.021700000000000053,-0.7161268599916816
-0.022700000000000164,-0.7179659846815062
-0.023700000000000054,-0.7202295227612902
-0.024700000000000166,-0.7222101185811013
-0.025700000000000056,-0.7241907144009123
-0.026700000000000168,-0.7281519060405344
-0.027700000000000058,-0.731122799770251
-0.02870000000000017,-0.7342351646299541
-0.02970000000000006,-0.734518106889927
-0.03070000000000017,-0.7363572315797515
-0.03170000000000006,-0.7387622407895221
-0.03270000000000017,-0.7420160767792118
-0.03370000000000006,-0.7456943261588609
-0.034700000000000175,-0.7486652198885775
-0.035700000000000065,-0.7517775847482805
-0.03670000000000018,-0.7547484784779971
-0.03770000000000007,-0.7571534876877677
-0.03870000000000018,-0.7589926123775922
-0.03970000000000007,-0.7623879194972683
-0.04070000000000018,-0.7656417554869578
-0.04170000000000007,-0.7687541203466609
-0.04270000000000018,-0.7714420718164045
-0.04370000000000007,-0.7734226676362155
-0.044700000000000184,-0.774695907806094
-0.045700000000000074,-0.7771009170158646
-0.046700000000000186,-0.7800718107455812
-0.047700000000000076,-0.7845988869051493
-0.04870000000000019,-0.7877112517648525
-0.04970000000000008,-0.7892674341947039
-0.05070000000000019,-0.7922383279244205
-0.05170000000000008,-0.7980386442538671
-0.05270000000000019,-0.8014339513735432
-0.05370000000000008,-0.8035560183233408
-0.05470000000000019,-0.8036974894533273
-0.05570000000000008,-0.8056780852731383
-0.056700000000000195,-0.8090733923928144
-0.057700000000000085,-0.8116198727325715
-0.058700000000000196,-0.8198251982717888
-0.059700000000000086,-0.828030523811006
-0.0607000000000002,-0.8326990711005606
-0.06170000000000009,-0.8377920317800748
-0.0627000000000002,-0.8399140987298723
-0.06370000000000009,-0.8428849924595889
-0.0647000000000002,-0.850807375738833
-0.06570000000000009,-0.8561832786783202
-0.0667000000000002,-0.8571735765882258
-0.0677000000000001,-0.8600029991879558
-0.0687000000000002,-0.863681248567605
-0.0697000000000001,-0.8686327381171326
-0.07070000000000021,-0.8738671699266332
-0.0717000000000001,-0.8778283615662553
-0.07270000000000021,-0.8834872067657155
-0.0737000000000001,-0.887023985015378
-0.07470000000000021,-0.8899948787450946
-0.0757000000000001,-0.894380483774676
-0.07670000000000021,-0.9023028670539204
-0.0777000000000001,-0.9092349524232591
-0.07870000000000021,-0.9130546729328947
-0.0797000000000001,-0.9180061624824223
-0.08070000000000022,-0.9218258829920579
-0.0817000000000001,-0.9267773725415855
