Aug. 10, 2024   02:03:13
Cyclic Voltammetry
File: c:/users/guazh/data/20240802_batch_500/2024-08-02-exp69\exp69-2024-08-10t01_52_36-h2koh\exp69_cv_sr_300mvs_efin_-1500mv.bin
Data Source:  Experiment
Instrument Model:  CHI760E
Header: CV ran at 300 mVs
Note: 

Init E (V) = -1
High E (V) = -1
Low E (V) = -1.5
Final E (V) = -1
Init P/N = N
Scan Rate (V/s) = 0.3
Segment = 3
Sample Interval (V) = 0.001
Quiet Time (sec) = 2
Sensitivity (A/V) = 0.01
Comp R (ohm) = 2.0

Results:

Channel 1:
Segment 1:

Segment 2:

Segment 3:

Potential/V, Current/A

-1.000, 1.249e-5
-1.001, 6.490e-5
-1.002, 9.265e-5
-1.003, 1.081e-4
-1.004, 1.111e-4
-1.005, 1.081e-4
-1.006, 1.142e-4
-1.007, 1.235e-4
-1.008, 1.296e-4
-1.009, 1.266e-4
-1.010, 1.235e-4
-1.011, 1.235e-4
-1.012, 1.327e-4
-1.013, 1.389e-4
-1.014, 1.358e-4
-1.015, 1.296e-4
-1.016, 1.296e-4
-1.017, 1.389e-4
-1.018, 1.451e-4
-1.019, 1.389e-4
-1.020, 1.327e-4
-1.021, 1.327e-4
-1.022, 1.420e-4
-1.023, 1.481e-4
-1.024, 1.420e-4
-1.025, 1.389e-4
-1.026, 1.389e-4
-1.027, 1.451e-4
-1.028, 1.512e-4
-1.029, 1.481e-4
-1.030, 1.420e-4
-1.031, 1.420e-4
-1.032, 1.481e-4
-1.033, 1.512e-4
-1.034, 1.481e-4
-1.035, 1.420e-4
-1.036, 1.420e-4
-1.037, 1.512e-4
-1.038, 1.543e-4
-1.039, 1.512e-4
-1.040, 1.420e-4
-1.041, 1.420e-4
-1.042, 1.512e-4
-1.043, 1.574e-4
-1.044, 1.512e-4
-1.045, 1.451e-4
-1.046, 1.451e-4
-1.047, 1.512e-4
-1.048, 1.574e-4
-1.049, 1.512e-4
-1.050, 1.451e-4
-1.051, 1.451e-4
-1.052, 1.512e-4
-1.053, 1.574e-4
-1.054, 1.543e-4
-1.055, 1.451e-4
-1.056, 1.451e-4
-1.057, 1.512e-4
-1.058, 1.574e-4
-1.059, 1.512e-4
-1.060, 1.451e-4
-1.061, 1.451e-4
-1.062, 1.512e-4
-1.063, 1.574e-4
-1.064, 1.512e-4
-1.065, 1.451e-4
-1.066, 1.451e-4
-1.067, 1.512e-4
-1.068, 1.574e-4
-1.069, 1.512e-4
-1.070, 1.451e-4
-1.071, 1.451e-4
-1.072, 1.512e-4
-1.073, 1.574e-4
-1.074, 1.512e-4
-1.075, 1.451e-4
-1.076, 1.451e-4
-1.077, 1.512e-4
-1.078, 1.574e-4
-1.079, 1.512e-4
-1.080, 1.451e-4
-1.081, 1.420e-4
-1.082, 1.512e-4
-1.083, 1.543e-4
-1.084, 1.512e-4
-1.085, 1.420e-4
-1.086, 1.451e-4
-1.087, 1.512e-4
-1.088, 1.543e-4
-1.089, 1.512e-4
-1.090, 1.420e-4
-1.091, 1.420e-4
-1.092, 1.481e-4
-1.093, 1.543e-4
-1.094, 1.512e-4
-1.095, 1.420e-4
-1.096, 1.420e-4
-1.097, 1.512e-4
-1.098, 1.543e-4
-1.099, 1.481e-4
-1.100, 1.420e-4
-1.101, 1.420e-4
-1.102, 1.512e-4
-1.103, 1.543e-4
-1.104, 1.481e-4
-1.105, 1.420e-4
-1.106, 1.420e-4
-1.107, 1.481e-4
-1.108, 1.543e-4
-1.109, 1.481e-4
-1.110, 1.420e-4
-1.111, 1.420e-4
-1.112, 1.512e-4
-1.113, 1.543e-4
-1.114, 1.512e-4
-1.115, 1.420e-4
-1.116, 1.420e-4
-1.117, 1.481e-4
-1.118, 1.543e-4
-1.119, 1.512e-4
-1.120, 1.420e-4
-1.121, 1.420e-4
-1.122, 1.481e-4
-1.123, 1.543e-4
-1.124, 1.481e-4
-1.125, 1.420e-4
-1.126, 1.420e-4
-1.127, 1.512e-4
-1.128, 1.543e-4
-1.129, 1.512e-4
-1.130, 1.420e-4
-1.131, 1.420e-4
-1.132, 1.512e-4
-1.133, 1.543e-4
-1.134, 1.512e-4
-1.135, 1.420e-4
-1.136, 1.420e-4
-1.137, 1.512e-4
-1.138, 1.543e-4
-1.139, 1.481e-4
-1.140, 1.420e-4
-1.141, 1.451e-4
-1.142, 1.512e-4
-1.143, 1.543e-4
-1.144, 1.481e-4
-1.145, 1.451e-4
-1.146, 1.420e-4
-1.147, 1.512e-4
-1.148, 1.574e-4
-1.149, 1.512e-4
-1.150, 1.451e-4
-1.151, 1.451e-4
-1.152, 1.543e-4
-1.153, 1.574e-4
-1.154, 1.543e-4
-1.155, 1.451e-4
-1.156, 1.451e-4
-1.157, 1.543e-4
-1.158, 1.605e-4
-1.159, 1.543e-4
-1.160, 1.451e-4
-1.161, 1.451e-4
-1.162, 1.543e-4
-1.163, 1.605e-4
-1.164, 1.574e-4
-1.165, 1.481e-4
-1.166, 1.481e-4
-1.167, 1.574e-4
-1.168, 1.605e-4
-1.169, 1.574e-4
-1.170, 1.512e-4
-1.171, 1.512e-4
-1.172, 1.605e-4
-1.173, 1.636e-4
-1.174, 1.605e-4
-1.175, 1.512e-4
-1.176, 1.512e-4
-1.177, 1.605e-4
-1.178, 1.666e-4
-1.179, 1.605e-4
-1.180, 1.543e-4
-1.181, 1.543e-4
-1.182, 1.636e-4
-1.183, 1.697e-4
-1.184, 1.636e-4
-1.185, 1.574e-4
-1.186, 1.574e-4
-1.187, 1.666e-4
-1.188, 1.728e-4
-1.189, 1.666e-4
-1.190, 1.605e-4
-1.191, 1.605e-4
-1.192, 1.666e-4
-1.193, 1.759e-4
-1.194, 1.697e-4
-1.195, 1.636e-4
-1.196, 1.636e-4
-1.197, 1.728e-4
-1.198, 1.759e-4
-1.199, 1.728e-4
-1.200, 1.666e-4
-1.201, 1.697e-4
-1.202, 1.759e-4
-1.203, 1.821e-4
-1.204, 1.790e-4
-1.205, 1.728e-4
-1.206, 1.728e-4
-1.207, 1.821e-4
-1.208, 1.882e-4
-1.209, 1.851e-4
-1.210, 1.759e-4
-1.211, 1.790e-4
-1.212, 1.851e-4
-1.213, 1.913e-4
-1.214, 1.882e-4
-1.215, 1.821e-4
-1.216, 1.851e-4
-1.217, 1.913e-4
-1.218, 1.975e-4
-1.219, 1.944e-4
-1.220, 1.882e-4
-1.221, 1.882e-4
-1.222, 2.006e-4
-1.223, 2.067e-4
-1.224, 2.036e-4
-1.225, 1.975e-4
-1.226, 2.006e-4
-1.227, 2.067e-4
-1.228, 2.129e-4
-1.229, 2.129e-4
-1.230, 2.067e-4
-1.231, 2.067e-4
-1.232, 2.160e-4
-1.233, 2.221e-4
-1.234, 2.191e-4
-1.235, 2.160e-4
-1.236, 2.160e-4
-1.237, 2.252e-4
-1.238, 2.345e-4
-1.239, 2.314e-4
-1.240, 2.252e-4
-1.241, 2.283e-4
-1.242, 2.376e-4
-1.243, 2.437e-4
-1.244, 2.437e-4
-1.245, 2.376e-4
-1.246, 2.406e-4
-1.247, 2.499e-4
-1.248, 2.561e-4
-1.249, 2.530e-4
-1.250, 2.499e-4
-1.251, 2.530e-4
-1.252, 2.622e-4
-1.253, 2.715e-4
-1.254, 2.684e-4
-1.255, 2.653e-4
-1.256, 2.684e-4
-1.257, 2.807e-4
-1.258, 2.869e-4
-1.259, 2.869e-4
-1.260, 2.838e-4
-1.261, 2.869e-4
-1.262, 2.961e-4
-1.263, 3.054e-4
-1.264, 3.054e-4
-1.265, 3.023e-4
-1.266, 3.054e-4
-1.267, 3.146e-4
-1.268, 3.239e-4
-1.269, 3.239e-4
-1.270, 3.208e-4
-1.271, 3.270e-4
-1.272, 3.393e-4
-1.273, 3.485e-4
-1.274, 3.485e-4
-1.275, 3.455e-4
-1.276, 3.516e-4
-1.277, 3.640e-4
-1.278, 3.732e-4
-1.279, 3.763e-4
-1.280, 3.732e-4
-1.281, 3.794e-4
-1.282, 3.917e-4
-1.283, 4.010e-4
-1.284, 4.010e-4
-1.285, 4.010e-4
-1.286, 4.071e-4
-1.287, 4.195e-4
-1.288, 4.318e-4
-1.289, 4.318e-4
-1.290, 4.318e-4
-1.291, 4.380e-4
-1.292, 4.534e-4
-1.293, 4.657e-4
-1.294, 4.688e-4
-1.295, 4.688e-4
-1.296, 4.750e-4
-1.297, 4.904e-4
-1.298, 5.027e-4
-1.299, 5.089e-4
-1.300, 5.089e-4
-1.301, 5.150e-4
-1.302, 5.305e-4
-1.303, 5.428e-4
-1.304, 5.459e-4
-1.305, 5.489e-4
-1.306, 5.582e-4
-1.307, 5.736e-4
-1.308, 5.890e-4
-1.309, 5.921e-4
-1.310, 5.952e-4
-1.311, 6.044e-4
-1.312, 6.199e-4
-1.313, 6.353e-4
-1.314, 6.414e-4
-1.315, 6.445e-4
-1.316, 6.569e-4
-1.317, 6.754e-4
-1.318, 6.939e-4
-1.319, 7.000e-4
-1.320, 7.031e-4
-1.321, 7.154e-4
-1.322, 7.339e-4
-1.323, 7.494e-4
-1.324, 7.555e-4
-1.325, 7.586e-4
-1.326, 7.709e-4
-1.327, 7.925e-4
-1.328, 8.079e-4
-1.329, 8.203e-4
-1.330, 8.264e-4
-1.331, 8.388e-4
-1.332, 8.603e-4
-1.333, 8.788e-4
-1.334, 8.881e-4
-1.335, 8.973e-4
-1.336, 9.097e-4
-1.337, 9.343e-4
-1.338, 9.559e-4
-1.339, 9.652e-4
-1.340, 9.713e-4
-1.341, 9.868e-4
-1.342, 1.008e-3
-1.343, 1.027e-3
-1.344, 1.039e-3
-1.345, 1.048e-3
-1.346, 1.064e-3
-1.347, 1.088e-3
-1.348, 1.110e-3
-1.349, 1.122e-3
-1.350, 1.132e-3
-1.351, 1.150e-3
-1.352, 1.175e-3
-1.353, 1.196e-3
-1.354, 1.212e-3
-1.355, 1.224e-3
-1.356, 1.243e-3
-1.357, 1.270e-3
-1.358, 1.295e-3
-1.359, 1.314e-3
-1.360, 1.323e-3
-1.361, 1.341e-3
-1.362, 1.369e-3
-1.363, 1.394e-3
-1.364, 1.409e-3
-1.365, 1.421e-3
-1.366, 1.440e-3
-1.367, 1.468e-3
-1.368, 1.492e-3
-1.369, 1.511e-3
-1.370, 1.526e-3
-1.371, 1.548e-3
-1.372, 1.576e-3
-1.373, 1.606e-3
-1.374, 1.628e-3
-1.375, 1.643e-3
-1.376, 1.668e-3
-1.377, 1.696e-3
-1.378, 1.724e-3
-1.379, 1.742e-3
-1.380, 1.758e-3
-1.381, 1.776e-3
-1.382, 1.807e-3
-1.383, 1.838e-3
-1.384, 1.856e-3
-1.385, 1.875e-3
-1.386, 1.899e-3
-1.387, 1.930e-3
-1.388, 1.961e-3
-1.389, 1.986e-3
-1.390, 2.004e-3
-1.391, 2.029e-3
-1.392, 2.066e-3
-1.393, 2.103e-3
-1.394, 2.128e-3
-1.395, 2.146e-3
-1.396, 2.171e-3
-1.397, 2.205e-3
-1.398, 2.235e-3
-1.399, 2.257e-3
-1.400, 2.275e-3
-1.401, 2.300e-3
-1.402, 2.334e-3
-1.403, 2.368e-3
-1.404, 2.393e-3
-1.405, 2.417e-3
-1.406, 2.442e-3
-1.407, 2.479e-3
-1.408, 2.516e-3
-1.409, 2.547e-3
-1.410, 2.571e-3
-1.411, 2.602e-3
-1.412, 2.642e-3
-1.413, 2.679e-3
-1.414, 2.707e-3
-1.415, 2.729e-3
-1.416, 2.756e-3
-1.417, 2.790e-3
-1.418, 2.821e-3
-1.419, 2.849e-3
-1.420, 2.874e-3
-1.421, 2.901e-3
-1.422, 2.941e-3
-1.423, 2.978e-3
-1.424, 3.006e-3
-1.425, 3.031e-3
-1.426, 3.059e-3
-1.427, 3.099e-3
-1.428, 3.142e-3
-1.429, 3.173e-3
-1.430, 3.207e-3
-1.431, 3.244e-3
-1.432, 3.290e-3
-1.433, 3.336e-3
-1.434, 3.370e-3
-1.435, 3.398e-3
-1.436, 3.432e-3
-1.437, 3.472e-3
-1.438, 3.512e-3
-1.439, 3.543e-3
-1.440, 3.567e-3
-1.441, 3.598e-3
-1.442, 3.641e-3
-1.443, 3.684e-3
-1.444, 3.715e-3
-1.445, 3.743e-3
-1.446, 3.780e-3
-1.447, 3.826e-3
-1.448, 3.876e-3
-1.449, 3.916e-3
-1.450, 3.953e-3
-1.451, 3.993e-3
-1.452, 4.039e-3
-1.453, 4.082e-3
-1.454, 4.116e-3
-1.455, 4.144e-3
-1.456, 4.178e-3
-1.457, 4.218e-3
-1.458, 4.264e-3
-1.459, 4.301e-3
-1.460, 4.332e-3
-1.461, 4.369e-3
-1.462, 4.412e-3
-1.463, 4.458e-3
-1.464, 4.495e-3
-1.465, 4.529e-3
-1.466, 4.572e-3
-1.467, 4.625e-3
-1.468, 4.683e-3
-1.469, 4.730e-3
-1.470, 4.776e-3
-1.471, 4.819e-3
-1.472, 4.865e-3
-1.473, 4.912e-3
-1.474, 4.949e-3
-1.475, 4.979e-3
-1.476, 5.016e-3
-1.477, 5.063e-3
-1.478, 5.112e-3
-1.479, 5.152e-3
-1.480, 5.189e-3
-1.481, 5.226e-3
-1.482, 5.275e-3
-1.483, 5.328e-3
-1.484, 5.371e-3
-1.485, 5.411e-3
-1.486, 5.463e-3
-1.487, 5.522e-3
-1.488, 5.590e-3
-1.489, 5.645e-3
-1.490, 5.688e-3
-1.491, 5.735e-3
-1.492, 5.787e-3
-1.493, 5.836e-3
-1.494, 5.877e-3
-1.495, 5.910e-3
-1.496, 5.947e-3
-1.497, 5.997e-3
-1.498, 6.049e-3
-1.499, 6.092e-3
-1.500, 6.065e-3
-1.499, 5.969e-3
-1.498, 5.904e-3
-1.497, 5.846e-3
-1.496, 5.781e-3
-1.495, 5.710e-3
-1.494, 5.651e-3
-1.493, 5.599e-3
-1.492, 5.547e-3
-1.491, 5.482e-3
-1.490, 5.408e-3
-1.489, 5.340e-3
-1.488, 5.278e-3
-1.487, 5.214e-3
-1.486, 5.146e-3
-1.485, 5.072e-3
-1.484, 5.007e-3
-1.483, 4.952e-3
-1.482, 4.896e-3
-1.481, 4.834e-3
-1.480, 4.767e-3
-1.479, 4.708e-3
-1.478, 4.656e-3
-1.477, 4.606e-3
-1.476, 4.551e-3
-1.475, 4.492e-3
-1.474, 4.443e-3
-1.473, 4.403e-3
-1.472, 4.366e-3
-1.471, 4.317e-3
-1.470, 4.255e-3
-1.469, 4.199e-3
-1.468, 4.153e-3
-1.467, 4.104e-3
-1.466, 4.048e-3
-1.465, 3.987e-3
-1.464, 3.931e-3
-1.463, 3.888e-3
-1.462, 3.845e-3
-1.461, 3.792e-3
-1.460, 3.737e-3
-1.459, 3.688e-3
-1.458, 3.651e-3
-1.457, 3.610e-3
-1.456, 3.567e-3
-1.455, 3.518e-3
-1.454, 3.475e-3
-1.453, 3.441e-3
-1.452, 3.401e-3
-1.451, 3.358e-3
-1.450, 3.302e-3
-1.449, 3.256e-3
-1.448, 3.219e-3
-1.447, 3.176e-3
-1.446, 3.130e-3
-1.445, 3.080e-3
-1.444, 3.037e-3
-1.443, 3.003e-3
-1.442, 2.966e-3
-1.441, 2.923e-3
-1.440, 2.880e-3
-1.439, 2.840e-3
-1.438, 2.812e-3
-1.437, 2.784e-3
-1.436, 2.747e-3
-1.435, 2.704e-3
-1.434, 2.661e-3
-1.433, 2.630e-3
-1.432, 2.596e-3
-1.431, 2.556e-3
-1.430, 2.510e-3
-1.429, 2.473e-3
-1.428, 2.445e-3
-1.427, 2.417e-3
-1.426, 2.377e-3
-1.425, 2.340e-3
-1.424, 2.303e-3
-1.423, 2.279e-3
-1.422, 2.254e-3
-1.421, 2.220e-3
-1.420, 2.180e-3
-1.419, 2.146e-3
-1.418, 2.118e-3
-1.417, 2.091e-3
-1.416, 2.054e-3
-1.415, 2.013e-3
-1.414, 1.983e-3
-1.413, 1.961e-3
-1.412, 1.936e-3
-1.411, 1.902e-3
-1.410, 1.869e-3
-1.409, 1.838e-3
-1.408, 1.816e-3
-1.407, 1.795e-3
-1.406, 1.764e-3
-1.405, 1.730e-3
-1.404, 1.705e-3
-1.403, 1.687e-3
-1.402, 1.665e-3
-1.401, 1.634e-3
-1.400, 1.603e-3
-1.399, 1.576e-3
-1.398, 1.554e-3
-1.397, 1.532e-3
-1.396, 1.502e-3
-1.395, 1.471e-3
-1.394, 1.443e-3
-1.393, 1.428e-3
-1.392, 1.409e-3
-1.391, 1.381e-3
-1.390, 1.351e-3
-1.389, 1.329e-3
-1.388, 1.314e-3
-1.387, 1.298e-3
-1.386, 1.273e-3
-1.385, 1.243e-3
-1.384, 1.221e-3
-1.383, 1.206e-3
-1.382, 1.190e-3
-1.381, 1.166e-3
-1.380, 1.135e-3
-1.379, 1.113e-3
-1.378, 1.101e-3
-1.377, 1.082e-3
-1.376, 1.061e-3
-1.375, 1.033e-3
-1.374, 1.014e-3
-1.373, 1.002e-3
-1.372, 9.868e-4
-1.371, 9.652e-4
-1.370, 9.405e-4
-1.369, 9.220e-4
-1.368, 9.097e-4
-1.367, 9.004e-4
-1.366, 8.788e-4
-1.365, 8.542e-4
-1.364, 8.388e-4
-1.363, 8.295e-4
-1.362, 8.172e-4
-1.361, 7.956e-4
-1.360, 7.709e-4
-1.359, 7.524e-4
-1.358, 7.432e-4
-1.357, 7.339e-4
-1.356, 7.124e-4
-1.355, 6.908e-4
-1.354, 6.754e-4
-1.353, 6.661e-4
-1.352, 6.569e-4
-1.351, 6.384e-4
-1.350, 6.168e-4
-1.349, 6.044e-4
-1.348, 5.983e-4
-1.347, 5.890e-4
-1.346, 5.705e-4
-1.345, 5.520e-4
-1.344, 5.366e-4
-1.343, 5.335e-4
-1.342, 5.243e-4
-1.341, 5.089e-4
-1.340, 4.873e-4
-1.339, 4.780e-4
-1.338, 4.688e-4
-1.337, 4.626e-4
-1.336, 4.472e-4
-1.335, 4.256e-4
-1.334, 4.133e-4
-1.333, 4.102e-4
-1.332, 4.040e-4
-1.331, 3.917e-4
-1.330, 3.701e-4
-1.329, 3.609e-4
-1.328, 3.578e-4
-1.327, 3.516e-4
-1.326, 3.393e-4
-1.325, 3.208e-4
-1.324, 3.115e-4
-1.323, 3.085e-4
-1.322, 3.023e-4
-1.321, 2.900e-4
-1.320, 2.746e-4
-1.319, 2.653e-4
-1.318, 2.622e-4
-1.317, 2.561e-4
-1.316, 2.437e-4
-1.315, 2.283e-4
-1.314, 2.221e-4
-1.313, 2.191e-4
-1.312, 2.160e-4
-1.311, 2.036e-4
-1.310, 1.882e-4
-1.309, 1.790e-4
-1.308, 1.790e-4
-1.307, 1.790e-4
-1.306, 1.666e-4
-1.305, 1.512e-4
-1.304, 1.451e-4
-1.303, 1.451e-4
-1.302, 1.420e-4
-1.301, 1.327e-4
-1.300, 1.173e-4
-1.299, 1.081e-4
-1.298, 1.111e-4
-1.297, 1.081e-4
-1.296, 9.882e-5
-1.295, 8.340e-5
-1.294, 7.723e-5
-1.293, 8.032e-5
-1.292, 7.723e-5
-1.291, 6.798e-5
-1.290, 5.565e-5
-1.289, 4.949e-5
-1.288, 5.257e-5
-1.287, 4.949e-5
-1.286, 4.332e-5
-1.285, 2.790e-5
-1.284, 2.174e-5
-1.283, 2.482e-5
-1.282, 2.482e-5
-1.281, 1.557e-5
-1.280, 1.559e-7
-1.279, -2.927e-6
-1.278, 1.559e-7
-1.277, 1.559e-7
-1.276, -9.093e-6
-1.275, -2.143e-5
-1.274, -2.451e-5
-1.273, -2.143e-5
-1.272, -1.834e-5
-1.271, -3.068e-5
-1.270, -3.992e-5
-1.269, -4.301e-5
-1.268, -3.992e-5
-1.267, -3.992e-5
-1.266, -4.917e-5
-1.265, -5.842e-5
-1.264, -6.151e-5
-1.263, -5.842e-5
-1.262, -5.842e-5
-1.261, -6.459e-5
-1.260, -7.692e-5
-1.259, -8.000e-5
-1.258, -7.384e-5
-1.257, -7.384e-5
-1.256, -8.000e-5
-1.255, -9.234e-5
-1.254, -9.542e-5
-1.253, -8.925e-5
-1.252, -8.617e-5
-1.251, -9.542e-5
-1.250, -1.047e-4
-1.249, -1.078e-4
-1.248, -1.047e-4
-1.247, -1.016e-4
-1.246, -1.078e-4
-1.245, -1.170e-4
-1.244, -1.201e-4
-1.243, -1.139e-4
-1.242, -1.108e-4
-1.241, -1.201e-4
-1.240, -1.293e-4
-1.239, -1.293e-4
-1.238, -1.263e-4
-1.237, -1.232e-4
-1.236, -1.293e-4
-1.235, -1.386e-4
-1.234, -1.417e-4
-1.233, -1.355e-4
-1.232, -1.324e-4
-1.231, -1.386e-4
-1.230, -1.478e-4
-1.229, -1.509e-4
-1.228, -1.448e-4
-1.227, -1.417e-4
-1.226, -1.448e-4
-1.225, -1.571e-4
-1.224, -1.571e-4
-1.223, -1.509e-4
-1.222, -1.478e-4
-1.221, -1.540e-4
-1.220, -1.632e-4
-1.219, -1.632e-4
-1.218, -1.571e-4
-1.217, -1.540e-4
-1.216, -1.602e-4
-1.215, -1.694e-4
-1.214, -1.694e-4
-1.213, -1.632e-4
-1.212, -1.602e-4
-1.211, -1.663e-4
-1.210, -1.756e-4
-1.209, -1.756e-4
-1.208, -1.694e-4
-1.207, -1.632e-4
-1.206, -1.725e-4
-1.205, -1.787e-4
-1.204, -1.817e-4
-1.203, -1.725e-4
-1.202, -1.694e-4
-1.201, -1.756e-4
-1.200, -1.817e-4
-1.199, -1.848e-4
-1.198, -1.756e-4
-1.197, -1.725e-4
-1.196, -1.787e-4
-1.195, -1.879e-4
-1.194, -1.879e-4
-1.193, -1.817e-4
-1.192, -1.756e-4
-1.191, -1.817e-4
-1.190, -1.910e-4
-1.189, -1.910e-4
-1.188, -1.848e-4
-1.187, -1.787e-4
-1.186, -1.848e-4
-1.185, -1.941e-4
-1.184, -1.941e-4
-1.183, -1.879e-4
-1.182, -1.817e-4
-1.181, -1.879e-4
-1.180, -1.941e-4
-1.179, -1.972e-4
-1.178, -1.910e-4
-1.177, -1.879e-4
-1.176, -1.910e-4
-1.175, -1.972e-4
-1.174, -2.002e-4
-1.173, -1.910e-4
-1.172, -1.879e-4
-1.171, -1.941e-4
-1.170, -2.002e-4
-1.169, -2.033e-4
-1.168, -1.941e-4
-1.167, -1.879e-4
-1.166, -1.941e-4
-1.165, -2.002e-4
-1.164, -2.033e-4
-1.163, -1.941e-4
-1.162, -1.910e-4
-1.161, -1.972e-4
-1.160, -2.033e-4
-1.159, -2.033e-4
-1.158, -1.972e-4
-1.157, -1.941e-4
-1.156, -1.972e-4
-1.155, -2.033e-4
-1.154, -2.064e-4
-1.153, -2.002e-4
-1.152, -1.941e-4
-1.151, -2.002e-4
-1.150, -2.064e-4
-1.149, -2.064e-4
-1.148, -2.002e-4
-1.147, -1.941e-4
-1.146, -2.002e-4
-1.145, -2.064e-4
-1.144, -2.064e-4
-1.143, -2.002e-4
-1.142, -1.941e-4
-1.141, -2.002e-4
-1.140, -2.064e-4
-1.139, -2.095e-4
-1.138, -2.002e-4
-1.137, -1.972e-4
-1.136, -2.002e-4
-1.135, -2.095e-4
-1.134, -2.095e-4
-1.133, -2.033e-4
-1.132, -1.972e-4
-1.131, -2.033e-4
-1.130, -2.095e-4
-1.129, -2.095e-4
-1.128, -2.033e-4
-1.127, -1.972e-4
-1.126, -2.033e-4
-1.125, -2.095e-4
-1.124, -2.126e-4
-1.123, -2.033e-4
-1.122, -1.972e-4
-1.121, -2.033e-4
-1.120, -2.095e-4
-1.119, -2.126e-4
-1.118, -2.033e-4
-1.117, -1.972e-4
-1.116, -2.033e-4
-1.115, -2.095e-4
-1.114, -2.095e-4
-1.113, -2.033e-4
-1.112, -2.002e-4
-1.111, -2.033e-4
-1.110, -2.095e-4
-1.109, -2.126e-4
-1.108, -2.064e-4
-1.107, -2.002e-4
-1.106, -2.033e-4
-1.105, -2.126e-4
-1.104, -2.126e-4
-1.103, -2.033e-4
-1.102, -2.002e-4
-1.101, -2.064e-4
-1.100, -2.126e-4
-1.099, -2.126e-4
-1.098, -2.064e-4
-1.097, -2.033e-4
-1.096, -2.064e-4
-1.095, -2.157e-4
-1.094, -2.157e-4
-1.093, -2.064e-4
-1.092, -2.033e-4
-1.091, -2.064e-4
-1.090, -2.157e-4
-1.089, -2.126e-4
-1.088, -2.064e-4
-1.087, -2.033e-4
-1.086, -2.064e-4
-1.085, -2.157e-4
-1.084, -2.157e-4
-1.083, -2.064e-4
-1.082, -2.033e-4
-1.081, -2.095e-4
-1.080, -2.157e-4
-1.079, -2.157e-4
-1.078, -2.095e-4
-1.077, -2.033e-4
-1.076, -2.095e-4
-1.075, -2.157e-4
-1.074, -2.157e-4
-1.073, -2.095e-4
-1.072, -2.033e-4
-1.071, -2.095e-4
-1.070, -2.157e-4
-1.069, -2.187e-4
-1.068, -2.095e-4
-1.067, -2.064e-4
-1.066, -2.095e-4
-1.065, -2.187e-4
-1.064, -2.187e-4
-1.063, -2.126e-4
-1.062, -2.064e-4
-1.061, -2.126e-4
-1.060, -2.218e-4
-1.059, -2.187e-4
-1.058, -2.126e-4
-1.057, -2.095e-4
-1.056, -2.126e-4
-1.055, -2.218e-4
-1.054, -2.218e-4
-1.053, -2.126e-4
-1.052, -2.095e-4
-1.051, -2.157e-4
-1.050, -2.218e-4
-1.049, -2.218e-4
-1.048, -2.157e-4
-1.047, -2.126e-4
-1.046, -2.187e-4
-1.045, -2.249e-4
-1.044, -2.280e-4
-1.043, -2.187e-4
-1.042, -2.157e-4
-1.041, -2.187e-4
-1.040, -2.280e-4
-1.039, -2.280e-4
-1.038, -2.218e-4
-1.037, -2.187e-4
-1.036, -2.249e-4
-1.035, -2.311e-4
-1.034, -2.342e-4
-1.033, -2.249e-4
-1.032, -2.218e-4
-1.031, -2.280e-4
-1.030, -2.372e-4
-1.029, -2.372e-4
-1.028, -2.311e-4
-1.027, -2.280e-4
-1.026, -2.342e-4
-1.025, -2.403e-4
-1.024, -2.434e-4
-1.023, -2.342e-4
-1.022, -2.311e-4
-1.021, -2.372e-4
-1.020, -2.496e-4
-1.019, -2.465e-4
-1.018, -2.434e-4
-1.017, -2.372e-4
-1.016, -2.434e-4
-1.015, -2.527e-4
-1.014, -2.557e-4
-1.013, -2.496e-4
-1.012, -2.465e-4
-1.011, -2.527e-4
-1.010, -2.619e-4
-1.009, -2.619e-4
-1.008, -2.588e-4
-1.007, -2.557e-4
-1.006, -2.619e-4
-1.005, -2.712e-4
-1.004, -2.712e-4
-1.003, -2.650e-4
-1.002, -2.619e-4
-1.001, -2.681e-4
