Aug. 16, 2024   06:14:28
Linear Sweep Voltammetry
File: c:/users/guazh/data/20240813_batch_94_500/2024-08-15-exp101\post-regen1-2024-08-16t06_11_14-lsvinphos\post-regen1_lsv_50mvs_efin_-2300mv.bin
Data Source:  Experiment
Instrument Model:  CHI760E
Header: LSV ran at 50 mVs with Efin at -2300mV
Note: 

Init E (V) = -0.6
Final E (V) = -2.3
Scan Rate (V/s) = 0.05
Sample Interval (V) = 0.001
Quiet Time (sec) = 2
Sensitivity (A/V) = 1e-4
Comp R (ohm) = 8.1

Results:

Channel 1:
Ep = -2.086V
ip = 6.232e-4A
Ah = 9.142e-4C

Potential/V, Current/A

-0.600, 2.434e-6
-0.601, 2.511e-6
-0.602, 2.553e-6
-0.603, 2.585e-6
-0.604, 2.613e-6
-0.605, 2.641e-6
-0.606, 2.667e-6
-0.607, 2.692e-6
-0.608, 2.717e-6
-0.609, 2.740e-6
-0.610, 2.764e-6
-0.611, 2.790e-6
-0.612, 2.814e-6
-0.613, 2.837e-6
-0.614, 2.863e-6
-0.615, 2.888e-6
-0.616, 2.910e-6
-0.617, 2.935e-6
-0.618, 2.958e-6
-0.619, 2.982e-6
-0.620, 3.006e-6
-0.621, 3.030e-6
-0.622, 3.055e-6
-0.623, 3.079e-6
-0.624, 3.105e-6
-0.625, 3.129e-6
-0.626, 3.153e-6
-0.627, 3.181e-6
-0.628, 3.205e-6
-0.629, 3.228e-6
-0.630, 3.254e-6
-0.631, 3.277e-6
-0.632, 3.304e-6
-0.633, 3.330e-6
-0.634, 3.357e-6
-0.635, 3.382e-6
-0.636, 3.409e-6
-0.637, 3.436e-6
-0.638, 3.461e-6
-0.639, 3.487e-6
-0.640, 3.515e-6
-0.641, 3.541e-6
-0.642, 3.567e-6
-0.643, 3.595e-6
-0.644, 3.622e-6
-0.645, 3.650e-6
-0.646, 3.677e-6
-0.647, 3.705e-6
-0.648, 3.733e-6
-0.649, 3.761e-6
-0.650, 3.789e-6
-0.651, 3.817e-6
-0.652, 3.847e-6
-0.653, 3.876e-6
-0.654, 3.905e-6
-0.655, 3.934e-6
-0.656, 3.961e-6
-0.657, 3.991e-6
-0.658, 4.019e-6
-0.659, 4.049e-6
-0.660, 4.079e-6
-0.661, 4.107e-6
-0.662, 4.139e-6
-0.663, 4.168e-6
-0.664, 4.196e-6
-0.665, 4.226e-6
-0.666, 4.257e-6
-0.667, 4.288e-6
-0.668, 4.318e-6
-0.669, 4.350e-6
-0.670, 4.381e-6
-0.671, 4.412e-6
-0.672, 4.444e-6
-0.673, 4.476e-6
-0.674, 4.508e-6
-0.675, 4.542e-6
-0.676, 4.573e-6
-0.677, 4.605e-6
-0.678, 4.638e-6
-0.679, 4.671e-6
-0.680, 4.703e-6
-0.681, 4.736e-6
-0.682, 4.769e-6
-0.683, 4.802e-6
-0.684, 4.837e-6
-0.685, 4.870e-6
-0.686, 4.901e-6
-0.687, 4.936e-6
-0.688, 4.971e-6
-0.689, 5.004e-6
-0.690, 5.039e-6
-0.691, 5.075e-6
-0.692, 5.109e-6
-0.693, 5.144e-6
-0.694, 5.178e-6
-0.695, 5.213e-6
-0.696, 5.247e-6
-0.697, 5.283e-6
-0.698, 5.317e-6
-0.699, 5.353e-6
-0.700, 5.389e-6
-0.701, 5.422e-6
-0.702, 5.458e-6
-0.703, 5.493e-6
-0.704, 5.530e-6
-0.705, 5.566e-6
-0.706, 5.601e-6
-0.707, 5.637e-6
-0.708, 5.672e-6
-0.709, 5.707e-6
-0.710, 5.746e-6
-0.711, 5.781e-6
-0.712, 5.818e-6
-0.713, 5.855e-6
-0.714, 5.888e-6
-0.715, 5.924e-6
-0.716, 5.957e-6
-0.717, 5.995e-6
-0.718, 6.031e-6
-0.719, 6.066e-6
-0.720, 6.104e-6
-0.721, 6.138e-6
-0.722, 6.174e-6
-0.723, 6.209e-6
-0.724, 6.243e-6
-0.725, 6.280e-6
-0.726, 6.316e-6
-0.727, 6.352e-6
-0.728, 6.389e-6
-0.729, 6.425e-6
-0.730, 6.462e-6
-0.731, 6.497e-6
-0.732, 6.533e-6
-0.733, 6.568e-6
-0.734, 6.605e-6
-0.735, 6.641e-6
-0.736, 6.676e-6
-0.737, 6.713e-6
-0.738, 6.746e-6
-0.739, 6.782e-6
-0.740, 6.818e-6
-0.741, 6.853e-6
-0.742, 6.888e-6
-0.743, 6.922e-6
-0.744, 6.957e-6
-0.745, 6.993e-6
-0.746, 7.026e-6
-0.747, 7.060e-6
-0.748, 7.094e-6
-0.749, 7.128e-6
-0.750, 7.164e-6
-0.751, 7.195e-6
-0.752, 7.228e-6
-0.753, 7.261e-6
-0.754, 7.293e-6
-0.755, 7.328e-6
-0.756, 7.359e-6
-0.757, 7.391e-6
-0.758, 7.423e-6
-0.759, 7.454e-6
-0.760, 7.487e-6
-0.761, 7.518e-6
-0.762, 7.550e-6
-0.763, 7.580e-6
-0.764, 7.612e-6
-0.765, 7.643e-6
-0.766, 7.673e-6
-0.767, 7.704e-6
-0.768, 7.736e-6
-0.769, 7.766e-6
-0.770, 7.794e-6
-0.771, 7.822e-6
-0.772, 7.852e-6
-0.773, 7.880e-6
-0.774, 7.909e-6
-0.775, 7.937e-6
-0.776, 7.962e-6
-0.777, 7.991e-6
-0.778, 8.017e-6
-0.779, 8.043e-6
-0.780, 8.069e-6
-0.781, 8.096e-6
-0.782, 8.121e-6
-0.783, 8.145e-6
-0.784, 8.172e-6
-0.785, 8.198e-6
-0.786, 8.222e-6
-0.787, 8.249e-6
-0.788, 8.272e-6
-0.789, 8.295e-6
-0.790, 8.318e-6
-0.791, 8.339e-6
-0.792, 8.361e-6
-0.793, 8.382e-6
-0.794, 8.404e-6
-0.795, 8.426e-6
-0.796, 8.446e-6
-0.797, 8.466e-6
-0.798, 8.486e-6
-0.799, 8.506e-6
-0.800, 8.526e-6
-0.801, 8.543e-6
-0.802, 8.560e-6
-0.803, 8.578e-6
-0.804, 8.594e-6
-0.805, 8.610e-6
-0.806, 8.625e-6
-0.807, 8.642e-6
-0.808, 8.657e-6
-0.809, 8.673e-6
-0.810, 8.688e-6
-0.811, 8.702e-6
-0.812, 8.717e-6
-0.813, 8.730e-6
-0.814, 8.745e-6
-0.815, 8.758e-6
-0.816, 8.771e-6
-0.817, 8.785e-6
-0.818, 8.795e-6
-0.819, 8.810e-6
-0.820, 8.824e-6
-0.821, 8.832e-6
-0.822, 8.844e-6
-0.823, 8.852e-6
-0.824, 8.861e-6
-0.825, 8.870e-6
-0.826, 8.879e-6
-0.827, 8.888e-6
-0.828, 8.894e-6
-0.829, 8.903e-6
-0.830, 8.912e-6
-0.831, 8.919e-6
-0.832, 8.927e-6
-0.833, 8.934e-6
-0.834, 8.940e-6
-0.835, 8.947e-6
-0.836, 8.951e-6
-0.837, 8.956e-6
-0.838, 8.961e-6
-0.839, 8.967e-6
-0.840, 8.972e-6
-0.841, 8.974e-6
-0.842, 8.979e-6
-0.843, 8.984e-6
-0.844, 8.988e-6
-0.845, 8.993e-6
-0.846, 8.995e-6
-0.847, 8.997e-6
-0.848, 9.000e-6
-0.849, 9.002e-6
-0.850, 9.004e-6
-0.851, 9.007e-6
-0.852, 9.008e-6
-0.853, 9.008e-6
-0.854, 9.010e-6
-0.855, 9.010e-6
-0.856, 9.010e-6
-0.857, 9.012e-6
-0.858, 9.011e-6
-0.859, 9.012e-6
-0.860, 9.012e-6
-0.861, 9.010e-6
-0.862, 9.011e-6
-0.863, 9.009e-6
-0.864, 9.009e-6
-0.865, 9.008e-6
-0.866, 9.007e-6
-0.867, 9.007e-6
-0.868, 9.004e-6
-0.869, 9.003e-6
-0.870, 9.003e-6
-0.871, 9.002e-6
-0.872, 8.998e-6
-0.873, 8.997e-6
-0.874, 8.994e-6
-0.875, 8.992e-6
-0.876, 8.989e-6
-0.877, 8.987e-6
-0.878, 8.984e-6
-0.879, 8.982e-6
-0.880, 8.980e-6
-0.881, 8.975e-6
-0.882, 8.973e-6
-0.883, 8.972e-6
-0.884, 8.968e-6
-0.885, 8.964e-6
-0.886, 8.963e-6
-0.887, 8.960e-6
-0.888, 8.956e-6
-0.889, 8.956e-6
-0.890, 8.954e-6
-0.891, 8.948e-6
-0.892, 8.943e-6
-0.893, 8.939e-6
-0.894, 8.936e-6
-0.895, 8.934e-6
-0.896, 8.930e-6
-0.897, 8.928e-6
-0.898, 8.923e-6
-0.899, 8.920e-6
-0.900, 8.917e-6
-0.901, 8.913e-6
-0.902, 8.910e-6
-0.903, 8.906e-6
-0.904, 8.904e-6
-0.905, 8.900e-6
-0.906, 8.896e-6
-0.907, 8.893e-6
-0.908, 8.890e-6
-0.909, 8.887e-6
-0.910, 8.885e-6
-0.911, 8.879e-6
-0.912, 8.876e-6
-0.913, 8.874e-6
-0.914, 8.870e-6
-0.915, 8.869e-6
-0.916, 8.865e-6
-0.917, 8.862e-6
-0.918, 8.860e-6
-0.919, 8.857e-6
-0.920, 8.853e-6
-0.921, 8.851e-6
-0.922, 8.849e-6
-0.923, 8.845e-6
-0.924, 8.843e-6
-0.925, 8.840e-6
-0.926, 8.838e-6
-0.927, 8.835e-6
-0.928, 8.832e-6
-0.929, 8.831e-6
-0.930, 8.828e-6
-0.931, 8.825e-6
-0.932, 8.823e-6
-0.933, 8.819e-6
-0.934, 8.819e-6
-0.935, 8.817e-6
-0.936, 8.814e-6
-0.937, 8.813e-6
-0.938, 8.810e-6
-0.939, 8.807e-6
-0.940, 8.806e-6
-0.941, 8.803e-6
-0.942, 8.803e-6
-0.943, 8.799e-6
-0.944, 8.799e-6
-0.945, 8.797e-6
-0.946, 8.794e-6
-0.947, 8.794e-6
-0.948, 8.793e-6
-0.949, 8.791e-6
-0.950, 8.790e-6
-0.951, 8.789e-6
-0.952, 8.788e-6
-0.953, 8.786e-6
-0.954, 8.785e-6
-0.955, 8.785e-6
-0.956, 8.782e-6
-0.957, 8.782e-6
-0.958, 8.780e-6
-0.959, 8.781e-6
-0.960, 8.783e-6
-0.961, 8.782e-6
-0.962, 8.780e-6
-0.963, 8.779e-6
-0.964, 8.779e-6
-0.965, 8.779e-6
-0.966, 8.779e-6
-0.967, 8.779e-6
-0.968, 8.778e-6
-0.969, 8.778e-6
-0.970, 8.778e-6
-0.971, 8.778e-6
-0.972, 8.778e-6
-0.973, 8.779e-6
-0.974, 8.779e-6
-0.975, 8.779e-6
-0.976, 8.779e-6
-0.977, 8.780e-6
-0.978, 8.779e-6
-0.979, 8.781e-6
-0.980, 8.781e-6
-0.981, 8.781e-6
-0.982, 8.782e-6
-0.983, 8.781e-6
-0.984, 8.782e-6
-0.985, 8.784e-6
-0.986, 8.785e-6
-0.987, 8.787e-6
-0.988, 8.787e-6
-0.989, 8.789e-6
-0.990, 8.790e-6
-0.991, 8.790e-6
-0.992, 8.792e-6
-0.993, 8.792e-6
-0.994, 8.793e-6
-0.995, 8.795e-6
-0.996, 8.794e-6
-0.997, 8.797e-6
-0.998, 8.799e-6
-0.999, 8.802e-6
-1.000, 8.804e-6
-1.001, 8.807e-6
-1.002, 8.808e-6
-1.003, 8.809e-6
-1.004, 8.810e-6
-1.005, 8.813e-6
-1.006, 8.813e-6
-1.007, 8.816e-6
-1.008, 8.820e-6
-1.009, 8.821e-6
-1.010, 8.824e-6
-1.011, 8.826e-6
-1.012, 8.829e-6
-1.013, 8.831e-6
-1.014, 8.834e-6
-1.015, 8.856e-6
-1.016, 8.863e-6
-1.017, 8.865e-6
-1.018, 8.866e-6
-1.019, 8.869e-6
-1.020, 8.871e-6
-1.021, 8.872e-6
-1.022, 8.875e-6
-1.023, 8.877e-6
-1.024, 8.882e-6
-1.025, 8.886e-6
-1.026, 8.888e-6
-1.027, 8.891e-6
-1.028, 8.894e-6
-1.029, 8.897e-6
-1.030, 8.901e-6
-1.031, 8.902e-6
-1.032, 8.906e-6
-1.033, 8.913e-6
-1.034, 8.918e-6
-1.035, 8.922e-6
-1.036, 8.926e-6
-1.037, 8.930e-6
-1.038, 8.933e-6
-1.039, 8.936e-6
-1.040, 8.941e-6
-1.041, 8.944e-6
-1.042, 8.948e-6
-1.043, 8.952e-6
-1.044, 8.957e-6
-1.045, 8.963e-6
-1.046, 8.967e-6
-1.047, 8.971e-6
-1.048, 8.974e-6
-1.049, 8.980e-6
-1.050, 8.985e-6
-1.051, 8.988e-6
-1.052, 8.993e-6
-1.053, 8.996e-6
-1.054, 9.001e-6
-1.055, 9.006e-6
-1.056, 9.010e-6
-1.057, 9.015e-6
-1.058, 9.019e-6
-1.059, 9.025e-6
-1.060, 9.030e-6
-1.061, 9.038e-6
-1.062, 9.047e-6
-1.063, 9.052e-6
-1.064, 9.056e-6
-1.065, 9.061e-6
-1.066, 9.064e-6
-1.067, 9.071e-6
-1.068, 9.076e-6
-1.069, 9.082e-6
-1.070, 9.087e-6
-1.071, 9.091e-6
-1.072, 9.097e-6
-1.073, 9.102e-6
-1.074, 9.107e-6
-1.075, 9.113e-6
-1.076, 9.119e-6
-1.077, 9.124e-6
-1.078, 9.129e-6
-1.079, 9.134e-6
-1.080, 9.140e-6
-1.081, 9.145e-6
-1.082, 9.152e-6
-1.083, 9.157e-6
-1.084, 9.163e-6
-1.085, 9.169e-6
-1.086, 9.174e-6
-1.087, 9.181e-6
-1.088, 9.186e-6
-1.089, 9.194e-6
-1.090, 9.201e-6
-1.091, 9.208e-6
-1.092, 9.214e-6
-1.093, 9.220e-6
-1.094, 9.226e-6
-1.095, 9.233e-6
-1.096, 9.239e-6
-1.097, 9.246e-6
-1.098, 9.251e-6
-1.099, 9.258e-6
-1.100, 9.264e-6
-1.101, 9.271e-6
-1.102, 9.279e-6
-1.103, 9.286e-6
-1.104, 9.292e-6
-1.105, 9.299e-6
-1.106, 9.305e-6
-1.107, 9.313e-6
-1.108, 9.320e-6
-1.109, 9.326e-6
-1.110, 9.335e-6
-1.111, 9.341e-6
-1.112, 9.349e-6
-1.113, 9.357e-6
-1.114, 9.365e-6
-1.115, 9.372e-6
-1.116, 9.379e-6
-1.117, 9.387e-6
-1.118, 9.393e-6
-1.119, 9.401e-6
-1.120, 9.409e-6
-1.121, 9.416e-6
-1.122, 9.424e-6
-1.123, 9.432e-6
-1.124, 9.441e-6
-1.125, 9.450e-6
-1.126, 9.457e-6
-1.127, 9.464e-6
-1.128, 9.472e-6
-1.129, 9.481e-6
-1.130, 9.490e-6
-1.131, 9.498e-6
-1.132, 9.508e-6
-1.133, 9.515e-6
-1.134, 9.523e-6
-1.135, 9.531e-6
-1.136, 9.539e-6
-1.137, 9.548e-6
-1.138, 9.556e-6
-1.139, 9.565e-6
-1.140, 9.574e-6
-1.141, 9.582e-6
-1.142, 9.590e-6
-1.143, 9.596e-6
-1.144, 9.605e-6
-1.145, 9.615e-6
-1.146, 9.623e-6
-1.147, 9.631e-6
-1.148, 9.638e-6
-1.149, 9.648e-6
-1.150, 9.657e-6
-1.151, 9.665e-6
-1.152, 9.676e-6
-1.153, 9.684e-6
-1.154, 9.693e-6
-1.155, 9.704e-6
-1.156, 9.713e-6
-1.157, 9.723e-6
-1.158, 9.734e-6
-1.159, 9.742e-6
-1.160, 9.751e-6
-1.161, 9.761e-6
-1.162, 9.770e-6
-1.163, 9.779e-6
-1.164, 9.789e-6
-1.165, 9.799e-6
-1.166, 9.807e-6
-1.167, 9.817e-6
-1.168, 9.828e-6
-1.169, 9.837e-6
-1.170, 9.848e-6
-1.171, 9.859e-6
-1.172, 9.869e-6
-1.173, 9.878e-6
-1.174, 9.888e-6
-1.175, 9.899e-6
-1.176, 9.909e-6
-1.177, 9.919e-6
-1.178, 9.931e-6
-1.179, 9.942e-6
-1.180, 9.953e-6
-1.181, 9.962e-6
-1.182, 9.974e-6
-1.183, 9.984e-6
-1.184, 9.996e-6
-1.185, 1.001e-5
-1.186, 1.002e-5
-1.187, 1.003e-5
-1.188, 1.004e-5
-1.189, 1.005e-5
-1.190, 1.006e-5
-1.191, 1.007e-5
-1.192, 1.009e-5
-1.193, 1.009e-5
-1.194, 1.011e-5
-1.195, 1.012e-5
-1.196, 1.013e-5
-1.197, 1.014e-5
-1.198, 1.015e-5
-1.199, 1.017e-5
-1.200, 1.018e-5
-1.201, 1.019e-5
-1.202, 1.020e-5
-1.203, 1.022e-5
-1.204, 1.023e-5
-1.205, 1.024e-5
-1.206, 1.025e-5
-1.207, 1.027e-5
-1.208, 1.028e-5
-1.209, 1.029e-5
-1.210, 1.034e-5
-1.211, 1.049e-5
-1.212, 1.052e-5
-1.213, 1.054e-5
-1.214, 1.055e-5
-1.215, 1.057e-5
-1.216, 1.058e-5
-1.217, 1.059e-5
-1.218, 1.061e-5
-1.219, 1.062e-5
-1.220, 1.064e-5
-1.221, 1.065e-5
-1.222, 1.066e-5
-1.223, 1.068e-5
-1.224, 1.069e-5
-1.225, 1.071e-5
-1.226, 1.072e-5
-1.227, 1.074e-5
-1.228, 1.075e-5
-1.229, 1.076e-5
-1.230, 1.078e-5
-1.231, 1.079e-5
-1.232, 1.081e-5
-1.233, 1.082e-5
-1.234, 1.083e-5
-1.235, 1.085e-5
-1.236, 1.086e-5
-1.237, 1.088e-5
-1.238, 1.090e-5
-1.239, 1.091e-5
-1.240, 1.093e-5
-1.241, 1.094e-5
-1.242, 1.096e-5
-1.243, 1.098e-5
-1.244, 1.099e-5
-1.245, 1.100e-5
-1.246, 1.102e-5
-1.247, 1.103e-5
-1.248, 1.105e-5
-1.249, 1.106e-5
-1.250, 1.108e-5
-1.251, 1.110e-5
-1.252, 1.111e-5
-1.253, 1.113e-5
-1.254, 1.115e-5
-1.255, 1.117e-5
-1.256, 1.119e-5
-1.257, 1.121e-5
-1.258, 1.122e-5
-1.259, 1.124e-5
-1.260, 1.126e-5
-1.261, 1.128e-5
-1.262, 1.130e-5
-1.263, 1.132e-5
-1.264, 1.134e-5
-1.265, 1.136e-5
-1.266, 1.137e-5
-1.267, 1.140e-5
-1.268, 1.141e-5
-1.269, 1.143e-5
-1.270, 1.145e-5
-1.271, 1.147e-5
-1.272, 1.149e-5
-1.273, 1.151e-5
-1.274, 1.153e-5
-1.275, 1.155e-5
-1.276, 1.157e-5
-1.277, 1.159e-5
-1.278, 1.162e-5
-1.279, 1.164e-5
-1.280, 1.166e-5
-1.281, 1.168e-5
-1.282, 1.170e-5
-1.283, 1.172e-5
-1.284, 1.174e-5
-1.285, 1.176e-5
-1.286, 1.178e-5
-1.287, 1.181e-5
-1.288, 1.183e-5
-1.289, 1.185e-5
-1.290, 1.187e-5
-1.291, 1.190e-5
-1.292, 1.192e-5
-1.293, 1.195e-5
-1.294, 1.197e-5
-1.295, 1.199e-5
-1.296, 1.201e-5
-1.297, 1.203e-5
-1.298, 1.205e-5
-1.299, 1.207e-5
-1.300, 1.209e-5
-1.301, 1.211e-5
-1.302, 1.214e-5
-1.303, 1.216e-5
-1.304, 1.219e-5
-1.305, 1.221e-5
-1.306, 1.224e-5
-1.307, 1.226e-5
-1.308, 1.229e-5
-1.309, 1.231e-5
-1.310, 1.234e-5
-1.311, 1.236e-5
-1.312, 1.239e-5
-1.313, 1.241e-5
-1.314, 1.244e-5
-1.315, 1.247e-5
-1.316, 1.249e-5
-1.317, 1.252e-5
-1.318, 1.255e-5
-1.319, 1.257e-5
-1.320, 1.259e-5
-1.321, 1.262e-5
-1.322, 1.264e-5
-1.323, 1.267e-5
-1.324, 1.269e-5
-1.325, 1.272e-5
-1.326, 1.275e-5
-1.327, 1.278e-5
-1.328, 1.280e-5
-1.329, 1.279e-5
-1.330, 1.282e-5
-1.331, 1.285e-5
-1.332, 1.288e-5
-1.333, 1.290e-5
-1.334, 1.293e-5
-1.335, 1.296e-5
-1.336, 1.298e-5
-1.337, 1.301e-5
-1.338, 1.304e-5
-1.339, 1.307e-5
-1.340, 1.310e-5
-1.341, 1.312e-5
-1.342, 1.315e-5
-1.343, 1.318e-5
-1.344, 1.321e-5
-1.345, 1.324e-5
-1.346, 1.327e-5
-1.347, 1.330e-5
-1.348, 1.332e-5
-1.349, 1.335e-5
-1.350, 1.338e-5
-1.351, 1.341e-5
-1.352, 1.343e-5
-1.353, 1.346e-5
-1.354, 1.349e-5
-1.355, 1.352e-5
-1.356, 1.355e-5
-1.357, 1.358e-5
-1.358, 1.361e-5
-1.359, 1.364e-5
-1.360, 1.360e-5
-1.361, 1.354e-5
-1.362, 1.355e-5
-1.363, 1.358e-5
-1.364, 1.361e-5
-1.365, 1.363e-5
-1.366, 1.366e-5
-1.367, 1.369e-5
-1.368, 1.371e-5
-1.369, 1.367e-5
-1.370, 1.366e-5
-1.371, 1.369e-5
-1.372, 1.372e-5
-1.373, 1.375e-5
-1.374, 1.378e-5
-1.375, 1.381e-5
-1.376, 1.386e-5
-1.377, 1.389e-5
-1.378, 1.392e-5
-1.379, 1.395e-5
-1.380, 1.398e-5
-1.381, 1.401e-5
-1.382, 1.404e-5
-1.383, 1.407e-5
-1.384, 1.410e-5
-1.385, 1.413e-5
-1.386, 1.416e-5
-1.387, 1.420e-5
-1.388, 1.423e-5
-1.389, 1.426e-5
-1.390, 1.429e-5
-1.391, 1.433e-5
-1.392, 1.436e-5
-1.393, 1.439e-5
-1.394, 1.443e-5
-1.395, 1.446e-5
-1.396, 1.449e-5
-1.397, 1.453e-5
-1.398, 1.456e-5
-1.399, 1.459e-5
-1.400, 1.463e-5
-1.401, 1.466e-5
-1.402, 1.470e-5
-1.403, 1.473e-5
-1.404, 1.476e-5
-1.405, 1.480e-5
-1.406, 1.483e-5
-1.407, 1.487e-5
-1.408, 1.490e-5
-1.409, 1.494e-5
-1.410, 1.497e-5
-1.411, 1.501e-5
-1.412, 1.504e-5
-1.413, 1.508e-5
-1.414, 1.511e-5
-1.415, 1.515e-5
-1.416, 1.519e-5
-1.417, 1.522e-5
-1.418, 1.526e-5
-1.419, 1.529e-5
-1.420, 1.533e-5
-1.421, 1.536e-5
-1.422, 1.540e-5
-1.423, 1.544e-5
-1.424, 1.547e-5
-1.425, 1.551e-5
-1.426, 1.554e-5
-1.427, 1.558e-5
-1.428, 1.562e-5
-1.429, 1.566e-5
-1.430, 1.569e-5
-1.431, 1.573e-5
-1.432, 1.577e-5
-1.433, 1.580e-5
-1.434, 1.584e-5
-1.435, 1.588e-5
-1.436, 1.592e-5
-1.437, 1.596e-5
-1.438, 1.599e-5
-1.439, 1.603e-5
-1.440, 1.607e-5
-1.441, 1.611e-5
-1.442, 1.615e-5
-1.443, 1.619e-5
-1.444, 1.623e-5
-1.445, 1.627e-5
-1.446, 1.630e-5
-1.447, 1.634e-5
-1.448, 1.638e-5
-1.449, 1.642e-5
-1.450, 1.646e-5
-1.451, 1.650e-5
-1.452, 1.654e-5
-1.453, 1.658e-5
-1.454, 1.662e-5
-1.455, 1.666e-5
-1.456, 1.670e-5
-1.457, 1.674e-5
-1.458, 1.678e-5
-1.459, 1.682e-5
-1.460, 1.686e-5
-1.461, 1.690e-5
-1.462, 1.694e-5
-1.463, 1.698e-5
-1.464, 1.702e-5
-1.465, 1.706e-5
-1.466, 1.710e-5
-1.467, 1.714e-5
-1.468, 1.718e-5
-1.469, 1.722e-5
-1.470, 1.726e-5
-1.471, 1.730e-5
-1.472, 1.734e-5
-1.473, 1.739e-5
-1.474, 1.743e-5
-1.475, 1.747e-5
-1.476, 1.751e-5
-1.477, 1.755e-5
-1.478, 1.759e-5
-1.479, 1.764e-5
-1.480, 1.768e-5
-1.481, 1.772e-5
-1.482, 1.776e-5
-1.483, 1.780e-5
-1.484, 1.785e-5
-1.485, 1.789e-5
-1.486, 1.793e-5
-1.487, 1.797e-5
-1.488, 1.802e-5
-1.489, 1.806e-5
-1.490, 1.810e-5
-1.491, 1.814e-5
-1.492, 1.819e-5
-1.493, 1.823e-5
-1.494, 1.827e-5
-1.495, 1.831e-5
-1.496, 1.836e-5
-1.497, 1.840e-5
-1.498, 1.844e-5
-1.499, 1.849e-5
-1.500, 1.853e-5
-1.501, 1.858e-5
-1.502, 1.862e-5
-1.503, 1.867e-5
-1.504, 1.871e-5
-1.505, 1.875e-5
-1.506, 1.880e-5
-1.507, 1.884e-5
-1.508, 1.889e-5
-1.509, 1.893e-5
-1.510, 1.898e-5
-1.511, 1.902e-5
-1.512, 1.906e-5
-1.513, 1.911e-5
-1.514, 1.915e-5
-1.515, 1.920e-5
-1.516, 1.925e-5
-1.517, 1.929e-5
-1.518, 1.934e-5
-1.519, 1.938e-5
-1.520, 1.943e-5
-1.521, 1.948e-5
-1.522, 1.952e-5
-1.523, 1.957e-5
-1.524, 1.962e-5
-1.525, 1.966e-5
-1.526, 1.971e-5
-1.527, 1.976e-5
-1.528, 1.981e-5
-1.529, 1.985e-5
-1.530, 1.990e-5
-1.531, 1.995e-5
-1.532, 2.000e-5
-1.533, 2.005e-5
-1.534, 2.009e-5
-1.535, 2.014e-5
-1.536, 2.019e-5
-1.537, 2.024e-5
-1.538, 2.029e-5
-1.539, 2.035e-5
-1.540, 2.040e-5
-1.541, 2.045e-5
-1.542, 2.050e-5
-1.543, 2.055e-5
-1.544, 2.060e-5
-1.545, 2.065e-5
-1.546, 2.071e-5
-1.547, 2.076e-5
-1.548, 2.081e-5
-1.549, 2.087e-5
-1.550, 2.092e-5
-1.551, 2.098e-5
-1.552, 2.103e-5
-1.553, 2.109e-5
-1.554, 2.114e-5
-1.555, 2.120e-5
-1.556, 2.126e-5
-1.557, 2.132e-5
-1.558, 2.138e-5
-1.559, 2.143e-5
-1.560, 2.149e-5
-1.561, 2.155e-5
-1.562, 2.161e-5
-1.563, 2.167e-5
-1.564, 2.173e-5
-1.565, 2.179e-5
-1.566, 2.185e-5
-1.567, 2.192e-5
-1.568, 2.198e-5
-1.569, 2.204e-5
-1.570, 2.210e-5
-1.571, 2.216e-5
-1.572, 2.218e-5
-1.573, 2.189e-5
-1.574, 2.198e-5
-1.575, 2.210e-5
-1.576, 2.220e-5
-1.577, 2.231e-5
-1.578, 2.241e-5
-1.579, 2.251e-5
-1.580, 2.262e-5
-1.581, 2.272e-5
-1.582, 2.283e-5
-1.583, 2.294e-5
-1.584, 2.304e-5
-1.585, 2.314e-5
-1.586, 2.324e-5
-1.587, 2.335e-5
-1.588, 2.345e-5
-1.589, 2.354e-5
-1.590, 2.363e-5
-1.591, 2.373e-5
-1.592, 2.382e-5
-1.593, 2.392e-5
-1.594, 2.402e-5
-1.595, 2.410e-5
-1.596, 2.416e-5
-1.597, 2.420e-5
-1.598, 2.434e-5
-1.599, 2.431e-5
-1.600, 2.417e-5
-1.601, 2.416e-5
-1.602, 2.419e-5
-1.603, 2.423e-5
-1.604, 2.428e-5
-1.605, 2.434e-5
-1.606, 2.439e-5
-1.607, 2.446e-5
-1.608, 2.453e-5
-1.609, 2.460e-5
-1.610, 2.468e-5
-1.611, 2.475e-5
-1.612, 2.483e-5
-1.613, 2.492e-5
-1.614, 2.500e-5
-1.615, 2.510e-5
-1.616, 2.519e-5
-1.617, 2.528e-5
-1.618, 2.537e-5
-1.619, 2.547e-5
-1.620, 2.557e-5
-1.621, 2.566e-5
-1.622, 2.576e-5
-1.623, 2.586e-5
-1.624, 2.596e-5
-1.625, 2.606e-5
-1.626, 2.617e-5
-1.627, 2.628e-5
-1.628, 2.639e-5
-1.629, 2.650e-5
-1.630, 2.661e-5
-1.631, 2.673e-5
-1.632, 2.684e-5
-1.633, 2.696e-5
-1.634, 2.708e-5
-1.635, 2.720e-5
-1.636, 2.732e-5
-1.637, 2.744e-5
-1.638, 2.757e-5
-1.639, 2.770e-5
-1.640, 2.782e-5
-1.641, 2.795e-5
-1.642, 2.807e-5
-1.643, 2.820e-5
-1.644, 2.833e-5
-1.645, 2.847e-5
-1.646, 2.860e-5
-1.647, 2.874e-5
-1.648, 2.888e-5
-1.649, 2.902e-5
-1.650, 2.917e-5
-1.651, 2.931e-5
-1.652, 2.946e-5
-1.653, 2.961e-5
-1.654, 2.976e-5
-1.655, 2.991e-5
-1.656, 3.006e-5
-1.657, 3.022e-5
-1.658, 3.038e-5
-1.659, 3.054e-5
-1.660, 3.070e-5
-1.661, 3.086e-5
-1.662, 3.103e-5
-1.663, 3.120e-5
-1.664, 3.137e-5
-1.665, 3.154e-5
-1.666, 3.171e-5
-1.667, 3.189e-5
-1.668, 3.207e-5
-1.669, 3.225e-5
-1.670, 3.244e-5
-1.671, 3.262e-5
-1.672, 3.281e-5
-1.673, 3.300e-5
-1.674, 3.319e-5
-1.675, 3.339e-5
-1.676, 3.358e-5
-1.677, 3.378e-5
-1.678, 3.398e-5
-1.679, 3.418e-5
-1.680, 3.439e-5
-1.681, 3.460e-5
-1.682, 3.481e-5
-1.683, 3.503e-5
-1.684, 3.524e-5
-1.685, 3.546e-5
-1.686, 3.568e-5
-1.687, 3.590e-5
-1.688, 3.613e-5
-1.689, 3.636e-5
-1.690, 3.660e-5
-1.691, 3.683e-5
-1.692, 3.707e-5
-1.693, 3.731e-5
-1.694, 3.754e-5
-1.695, 3.779e-5
-1.696, 3.803e-5
-1.697, 3.829e-5
-1.698, 3.854e-5
-1.699, 3.880e-5
-1.700, 3.905e-5
-1.701, 3.932e-5
-1.702, 3.959e-5
-1.703, 3.986e-5
-1.704, 4.014e-5
-1.705, 4.042e-5
-1.706, 4.070e-5
-1.707, 4.098e-5
-1.708, 4.126e-5
-1.709, 4.155e-5
-1.710, 4.184e-5
-1.711, 4.213e-5
-1.712, 4.243e-5
-1.713, 4.273e-5
-1.714, 4.304e-5
-1.715, 4.335e-5
-1.716, 4.366e-5
-1.717, 4.397e-5
-1.718, 4.429e-5
-1.719, 4.461e-5
-1.720, 4.494e-5
-1.721, 4.527e-5
-1.722, 4.561e-5
-1.723, 4.594e-5
-1.724, 4.628e-5
-1.725, 4.663e-5
-1.726, 4.698e-5
-1.727, 4.733e-5
-1.728, 4.770e-5
-1.729, 4.806e-5
-1.730, 4.843e-5
-1.731, 4.879e-5
-1.732, 4.917e-5
-1.733, 4.955e-5
-1.734, 4.993e-5
-1.735, 5.031e-5
-1.736, 5.070e-5
-1.737, 5.110e-5
-1.738, 5.149e-5
-1.739, 5.189e-5
-1.740, 5.230e-5
-1.741, 5.272e-5
-1.742, 5.314e-5
-1.743, 5.356e-5
-1.744, 5.398e-5
-1.745, 5.441e-5
-1.746, 5.484e-5
-1.747, 5.528e-5
-1.748, 5.574e-5
-1.749, 5.618e-5
-1.750, 5.664e-5
-1.751, 5.709e-5
-1.752, 5.755e-5
-1.753, 5.802e-5
-1.754, 5.849e-5
-1.755, 5.897e-5
-1.756, 5.944e-5
-1.757, 5.992e-5
-1.758, 6.041e-5
-1.759, 6.091e-5
-1.760, 6.141e-5
-1.761, 6.191e-5
-1.762, 6.242e-5
-1.763, 6.293e-5
-1.764, 6.346e-5
-1.765, 6.399e-5
-1.766, 6.452e-5
-1.767, 6.507e-5
-1.768, 6.560e-5
-1.769, 6.613e-5
-1.770, 6.667e-5
-1.771, 6.723e-5
-1.772, 6.778e-5
-1.773, 6.834e-5
-1.774, 6.892e-5
-1.775, 6.950e-5
-1.776, 7.008e-5
-1.777, 7.071e-5
-1.778, 7.129e-5
-1.779, 7.189e-5
-1.780, 7.248e-5
-1.781, 7.309e-5
-1.782, 7.369e-5
-1.783, 7.430e-5
-1.784, 7.492e-5
-1.785, 7.552e-5
-1.786, 7.615e-5
-1.787, 7.680e-5
-1.788, 7.744e-5
-1.789, 7.808e-5
-1.790, 7.875e-5
-1.791, 7.942e-5
-1.792, 8.010e-5
-1.793, 8.078e-5
-1.794, 8.145e-5
-1.795, 8.214e-5
-1.796, 8.283e-5
-1.797, 8.353e-5
-1.798, 8.423e-5
-1.799, 8.495e-5
-1.800, 8.565e-5
-1.801, 8.638e-5
-1.802, 8.711e-5
-1.803, 8.785e-5
-1.804, 8.864e-5
-1.805, 8.942e-5
-1.806, 8.986e-5
-1.807, 9.045e-5
-1.808, 9.111e-5
-1.809, 9.179e-5
-1.810, 9.248e-5
-1.811, 9.321e-5
-1.812, 9.395e-5
-1.813, 9.470e-5
-1.814, 9.546e-5
-1.815, 9.622e-5
-1.816, 9.697e-5
-1.817, 9.775e-5
-1.818, 9.852e-5
-1.819, 9.928e-5
-1.820, 1.001e-4
-1.821, 1.009e-4
-1.822, 1.017e-4
-1.823, 1.025e-4
-1.824, 1.033e-4
-1.825, 1.041e-4
-1.826, 1.050e-4
-1.827, 1.058e-4
-1.828, 1.067e-4
-1.829, 1.075e-4
-1.830, 1.083e-4
-1.831, 1.091e-4
-1.832, 1.100e-4
-1.833, 1.109e-4
-1.834, 1.119e-4
-1.835, 1.128e-4
-1.836, 1.137e-4
-1.837, 1.144e-4
-1.838, 1.153e-4
-1.839, 1.163e-4
-1.840, 1.173e-4
-1.841, 1.182e-4
-1.842, 1.192e-4
-1.843, 1.202e-4
-1.844, 1.212e-4
-1.845, 1.222e-4
-1.846, 1.232e-4
-1.847, 1.243e-4
-1.848, 1.253e-4
-1.849, 1.264e-4
-1.850, 1.275e-4
-1.851, 1.285e-4
-1.852, 1.296e-4
-1.853, 1.307e-4
-1.854, 1.318e-4
-1.855, 1.328e-4
-1.856, 1.339e-4
-1.857, 1.350e-4
-1.858, 1.361e-4
-1.859, 1.373e-4
-1.860, 1.385e-4
-1.861, 1.396e-4
-1.862, 1.407e-4
-1.863, 1.419e-4
-1.864, 1.431e-4
-1.865, 1.443e-4
-1.866, 1.455e-4
-1.867, 1.467e-4
-1.868, 1.479e-4
-1.869, 1.491e-4
-1.870, 1.504e-4
-1.871, 1.516e-4
-1.872, 1.529e-4
-1.873, 1.542e-4
-1.874, 1.554e-4
-1.875, 1.568e-4
-1.876, 1.581e-4
-1.877, 1.594e-4
-1.878, 1.607e-4
-1.879, 1.621e-4
-1.880, 1.635e-4
-1.881, 1.649e-4
-1.882, 1.663e-4
-1.883, 1.677e-4
-1.884, 1.691e-4
-1.885, 1.705e-4
-1.886, 1.720e-4
-1.887, 1.735e-4
-1.888, 1.750e-4
-1.889, 1.765e-4
-1.890, 1.780e-4
-1.891, 1.795e-4
-1.892, 1.811e-4
-1.893, 1.827e-4
-1.894, 1.842e-4
-1.895, 1.859e-4
-1.896, 1.875e-4
-1.897, 1.891e-4
-1.898, 1.908e-4
-1.899, 1.925e-4
-1.900, 1.941e-4
-1.901, 1.959e-4
-1.902, 1.976e-4
-1.903, 1.993e-4
-1.904, 2.010e-4
-1.905, 2.028e-4
-1.906, 2.046e-4
-1.907, 2.064e-4
-1.908, 2.083e-4
-1.909, 2.101e-4
-1.910, 2.117e-4
-1.911, 2.137e-4
-1.912, 2.158e-4
-1.913, 2.179e-4
-1.914, 2.199e-4
-1.915, 2.220e-4
-1.916, 2.241e-4
-1.917, 2.261e-4
-1.918, 2.283e-4
-1.919, 2.303e-4
-1.920, 2.324e-4
-1.921, 2.345e-4
-1.922, 2.367e-4
-1.923, 2.387e-4
-1.924, 2.407e-4
-1.925, 2.429e-4
-1.926, 2.452e-4
-1.927, 2.475e-4
-1.928, 2.499e-4
-1.929, 2.522e-4
-1.930, 2.546e-4
-1.931, 2.566e-4
-1.932, 2.592e-4
-1.933, 2.619e-4
-1.934, 2.645e-4
-1.935, 2.671e-4
-1.936, 2.697e-4
-1.937, 2.722e-4
-1.938, 2.747e-4
-1.939, 2.773e-4
-1.940, 2.799e-4
-1.941, 2.825e-4
-1.942, 2.853e-4
-1.943, 2.881e-4
-1.944, 2.909e-4
-1.945, 2.938e-4
-1.946, 2.968e-4
-1.947, 2.997e-4
-1.948, 3.027e-4
-1.949, 3.055e-4
-1.950, 3.083e-4
-1.951, 3.115e-4
-1.952, 3.147e-4
-1.953, 3.180e-4
-1.954, 3.214e-4
-1.955, 3.247e-4
-1.956, 3.280e-4
-1.957, 3.313e-4
-1.958, 3.348e-4
-1.959, 3.383e-4
-1.960, 3.419e-4
-1.961, 3.456e-4
-1.962, 3.484e-4
-1.963, 3.520e-4
-1.964, 3.560e-4
-1.965, 3.600e-4
-1.966, 3.640e-4
-1.967, 3.680e-4
-1.968, 3.721e-4
-1.969, 3.763e-4
-1.970, 3.804e-4
-1.971, 3.845e-4
-1.972, 3.886e-4
-1.973, 3.927e-4
-1.974, 3.971e-4
-1.975, 4.014e-4
-1.976, 4.057e-4
-1.977, 4.102e-4
-1.978, 4.147e-4
-1.979, 4.193e-4
-1.980, 4.240e-4
-1.981, 4.289e-4
-1.982, 4.338e-4
-1.983, 4.387e-4
-1.984, 4.435e-4
-1.985, 4.485e-4
-1.986, 4.535e-4
-1.987, 4.585e-4
-1.988, 4.636e-4
-1.989, 4.687e-4
-1.990, 4.739e-4
-1.991, 4.791e-4
-1.992, 4.844e-4
-1.993, 4.897e-4
-1.994, 4.950e-4
-1.995, 5.004e-4
-1.996, 5.057e-4
-1.997, 5.110e-4
-1.998, 5.163e-4
-1.999, 5.217e-4
-2.000, 5.270e-4
-2.001, 5.316e-4
-2.002, 5.362e-4
-2.003, 5.421e-4
-2.004, 5.477e-4
-2.005, 5.532e-4
-2.006, 5.586e-4
-2.007, 5.638e-4
-2.008, 5.690e-4
-2.009, 5.743e-4
-2.010, 5.795e-4
-2.011, 5.848e-4
-2.012, 5.898e-4
-2.013, 5.952e-4
-2.014, 6.005e-4
-2.015, 6.057e-4
-2.016, 6.109e-4
-2.017, 6.163e-4
-2.018, 6.216e-4
-2.019, 6.266e-4
-2.020, 6.307e-4
-2.021, 6.361e-4
-2.022, 6.418e-4
-2.023, 6.476e-4
-2.024, 6.531e-4
-2.025, 6.585e-4
-2.026, 6.640e-4
-2.027, 6.694e-4
-2.028, 6.748e-4
-2.029, 6.802e-4
-2.030, 6.856e-4
-2.031, 6.911e-4
-2.032, 6.967e-4
-2.033, 7.024e-4
-2.034, 7.078e-4
-2.035, 7.133e-4
-2.036, 7.188e-4
-2.037, 7.243e-4
-2.038, 7.290e-4
-2.039, 7.341e-4
-2.040, 7.401e-4
-2.041, 7.461e-4
-2.042, 7.520e-4
-2.043, 7.576e-4
-2.044, 7.633e-4
-2.045, 7.691e-4
-2.046, 7.751e-4
-2.047, 7.811e-4
-2.048, 7.869e-4
-2.049, 7.928e-4
-2.050, 7.986e-4
-2.051, 8.045e-4
-2.052, 8.102e-4
-2.053, 8.159e-4
-2.054, 8.219e-4
-2.055, 8.279e-4
-2.056, 8.338e-4
-2.057, 8.397e-4
-2.058, 8.456e-4
-2.059, 8.513e-4
-2.060, 8.558e-4
-2.061, 8.618e-4
-2.062, 8.682e-4
-2.063, 8.744e-4
-2.064, 8.806e-4
-2.065, 8.868e-4
-2.066, 8.930e-4
-2.067, 8.990e-4
-2.068, 9.054e-4
-2.069, 9.114e-4
-2.070, 9.175e-4
-2.071, 9.237e-4
-2.072, 9.299e-4
-2.073, 9.362e-4
-2.074, 9.422e-4
-2.075, 9.485e-4
-2.076, 9.547e-4
-2.077, 9.609e-4
-2.078, 9.669e-4
-2.079, 9.718e-4
-2.080, 9.782e-4
-2.081, 9.850e-4
-2.082, 9.917e-4
-2.083, 9.984e-4
-2.084, 1.005e-3
-2.085, 1.010e-3
-2.086, 1.011e-3
-2.087, 1.011e-3
-2.088, 1.011e-3
-2.089, 1.011e-3
-2.090, 1.011e-3
-2.091, 1.011e-3
-2.092, 1.011e-3
-2.093, 1.011e-3
-2.094, 1.011e-3
-2.095, 1.011e-3
-2.096, 1.011e-3
-2.097, 1.011e-3
-2.098, 1.011e-3
-2.099, 1.011e-3
-2.100, 1.011e-3
-2.101, 1.011e-3
-2.102, 1.011e-3
-2.103, 1.011e-3
-2.104, 1.011e-3
-2.105, 1.011e-3
-2.106, 1.011e-3
-2.107, 1.011e-3
-2.108, 1.011e-3
-2.109, 1.011e-3
-2.110, 1.011e-3
-2.111, 1.011e-3
-2.112, 1.011e-3
-2.113, 1.011e-3
-2.114, 1.011e-3
-2.115, 1.011e-3
-2.116, 1.011e-3
-2.117, 1.011e-3
-2.118, 1.011e-3
-2.119, 1.011e-3
-2.120, 1.011e-3
-2.121, 1.011e-3
-2.122, 1.011e-3
-2.123, 1.011e-3
-2.124, 1.011e-3
-2.125, 1.011e-3
-2.126, 1.011e-3
-2.127, 1.011e-3
-2.128, 1.011e-3
-2.129, 1.011e-3
-2.130, 1.011e-3
-2.131, 1.011e-3
-2.132, 1.011e-3
-2.133, 1.011e-3
-2.134, 1.011e-3
-2.135, 1.011e-3
-2.136, 1.011e-3
-2.137, 1.011e-3
-2.138, 1.011e-3
-2.139, 1.011e-3
-2.140, 1.011e-3
-2.141, 1.011e-3
-2.142, 1.011e-3
-2.143, 1.011e-3
-2.144, 1.011e-3
-2.145, 1.011e-3
-2.146, 1.011e-3
-2.147, 1.011e-3
-2.148, 1.011e-3
-2.149, 1.011e-3
-2.150, 1.011e-3
-2.151, 1.011e-3
-2.152, 1.011e-3
-2.153, 1.011e-3
-2.154, 1.011e-3
-2.155, 1.011e-3
-2.156, 1.011e-3
-2.157, 1.011e-3
-2.158, 1.011e-3
-2.159, 1.011e-3
-2.160, 1.011e-3
-2.161, 1.011e-3
-2.162, 1.011e-3
-2.163, 1.011e-3
-2.164, 1.011e-3
-2.165, 1.011e-3
-2.166, 1.011e-3
-2.167, 1.011e-3
-2.168, 1.011e-3
-2.169, 1.011e-3
-2.170, 1.011e-3
-2.171, 1.011e-3
-2.172, 1.011e-3
-2.173, 1.011e-3
-2.174, 1.011e-3
-2.175, 1.011e-3
-2.176, 1.011e-3
-2.177, 1.011e-3
-2.178, 1.011e-3
-2.179, 1.011e-3
-2.180, 1.011e-3
-2.181, 1.011e-3
-2.182, 1.011e-3
-2.183, 1.011e-3
-2.184, 1.011e-3
-2.185, 1.011e-3
-2.186, 1.011e-3
-2.187, 1.011e-3
-2.188, 1.011e-3
-2.189, 1.011e-3
-2.190, 1.011e-3
-2.191, 1.011e-3
-2.192, 1.011e-3
-2.193, 1.011e-3
-2.194, 1.011e-3
-2.195, 1.011e-3
-2.196, 1.011e-3
-2.197, 1.011e-3
-2.198, 1.011e-3
-2.199, 1.011e-3
-2.200, 1.011e-3
-2.201, 1.011e-3
-2.202, 1.011e-3
-2.203, 1.011e-3
-2.204, 1.011e-3
-2.205, 1.011e-3
-2.206, 1.011e-3
-2.207, 1.011e-3
-2.208, 1.011e-3
-2.209, 1.011e-3
-2.210, 1.011e-3
-2.211, 1.011e-3
-2.212, 1.011e-3
-2.213, 1.011e-3
-2.214, 1.011e-3
-2.215, 1.011e-3
-2.216, 1.011e-3
-2.217, 1.011e-3
-2.218, 1.011e-3
-2.219, 1.011e-3
-2.220, 1.011e-3
-2.221, 1.011e-3
-2.222, 1.011e-3
-2.223, 1.011e-3
-2.224, 1.011e-3
-2.225, 1.011e-3
-2.226, 1.011e-3
-2.227, 1.011e-3
-2.228, 1.011e-3
-2.229, 1.011e-3
-2.230, 1.011e-3
-2.231, 1.011e-3
-2.232, 1.011e-3
-2.233, 1.011e-3
-2.234, 1.011e-3
-2.235, 1.011e-3
-2.236, 1.011e-3
-2.237, 1.011e-3
-2.238, 1.011e-3
-2.239, 1.011e-3
-2.240, 1.011e-3
-2.241, 1.011e-3
-2.242, 1.011e-3
-2.243, 1.011e-3
-2.244, 1.011e-3
-2.245, 1.011e-3
-2.246, 1.011e-3
-2.247, 1.011e-3
-2.248, 1.011e-3
-2.249, 1.011e-3
-2.250, 1.011e-3
-2.251, 1.011e-3
-2.252, 1.011e-3
-2.253, 1.011e-3
-2.254, 1.011e-3
-2.255, 1.011e-3
-2.256, 1.011e-3
-2.257, 1.011e-3
-2.258, 1.011e-3
-2.259, 1.011e-3
-2.260, 1.011e-3
-2.261, 1.011e-3
-2.262, 1.011e-3
-2.263, 1.011e-3
-2.264, 1.011e-3
-2.265, 1.011e-3
-2.266, 1.011e-3
-2.267, 1.011e-3
-2.268, 1.011e-3
-2.269, 1.011e-3
-2.270, 1.011e-3
-2.271, 1.011e-3
-2.272, 1.011e-3
-2.273, 1.011e-3
-2.274, 1.011e-3
-2.275, 1.011e-3
-2.276, 1.011e-3
-2.277, 1.011e-3
-2.278, 1.011e-3
-2.279, 1.011e-3
-2.280, 1.011e-3
-2.281, 1.011e-3
-2.282, 1.011e-3
-2.283, 1.011e-3
-2.284, 1.011e-3
-2.285, 1.011e-3
-2.286, 1.011e-3
-2.287, 1.011e-3
-2.288, 1.011e-3
-2.289, 1.011e-3
-2.290, 1.011e-3
-2.291, 1.011e-3
-2.292, 1.011e-3
-2.293, 1.011e-3
-2.294, 1.011e-3
-2.295, 1.011e-3
-2.296, 1.011e-3
-2.297, 1.011e-3
-2.298, 1.011e-3
-2.299, 1.011e-3
