Potential V vs RHE, Current mA cm-2
0.4132999999999999,-0.005220284696501985
0.4122999999999999,-0.007124486106120325
0.4112999999999999,-0.0077752533040582415
0.4102999999999999,-0.00809497805782774
0.4092999999999999,-0.008351040803103312
0.4082999999999999,-0.008534953272085767
0.4072999999999999,-0.008697645071570247
0.4062999999999999,-0.008795260151260934
0.4052999999999999,-0.008911266477849865
0.4042999999999999,-0.009055567030436099
0.4032999999999999,-0.009163085089225842
0.4022999999999999,-0.00924938247851761
0.4012999999999999,-0.009311629775711672
0.4002999999999999,-0.009380950629405057
0.3992999999999999,-0.009508274646392912
0.3982999999999999,-0.009610133859983196
0.3972999999999999,-0.009644086931179954
0.3962999999999999,-0.009696431249274962
0.3952999999999999,-0.009741702010870643
0.3942999999999999,-0.009829414111462275
0.39329999999999987,-0.009912882078154312
0.39229999999999987,-0.009929858613752693
0.39129999999999987,-0.00999635004484635
0.39029999999999987,-0.010028888404743246
0.38929999999999987,-0.010099623969736496
0.38829999999999987,-0.010180262513828803
0.38729999999999987,-0.010194409626827456
0.38629999999999987,-0.010248168656222325
0.38529999999999986,-0.010293439417818007
0.38429999999999986,-0.010354272003712204
0.38329999999999986,-0.010433495836504644
0.38229999999999986,-0.010444813526903567
0.38129999999999986,-0.010480181309400191
0.38029999999999986,-0.010521207937096278
0.37929999999999986,-0.0105891140794898
0.37829999999999986,-0.010664093778382646
0.37729999999999986,-0.010688143870480352
0.37629999999999986,-0.010730585209476303
0.37529999999999986,-0.01077444125977212
0.37429999999999986,-0.010835273845666316
0.37329999999999985,-0.010920156523658218
0.37229999999999985,-0.01093147421405714
0.37129999999999985,-0.010938547770556462
0.37029999999999985,-0.010961183151354303
0.36929999999999985,-0.011029089293747827
0.36829999999999985,-0.011101239570040942
0.36729999999999985,-0.011111142549139998
0.36629999999999985,-0.011149339754236355
0.36529999999999985,-0.011166316289834735
0.36429999999999985,-0.01124129598872758
0.36329999999999985,-0.011295055018122453
0.36229999999999984,-0.011309202131121104
0.36129999999999984,-0.011334666934518673
0.36029999999999984,-0.011375693562214758
0.35929999999999984,-0.011442184993308417
0.35829999999999984,-0.011493114600103558
0.35729999999999984,-0.011507261713102209
0.35629999999999984,-0.011549703052098159
0.35529999999999984,-0.011535555939099508
0.35429999999999984,-0.011627512173590737
0.35329999999999984,-0.01167278293518642
0.35229999999999984,-0.011695418315984257
0.35129999999999983,-0.011727956675881154
0.35029999999999983,-0.011733615521080614
0.34929999999999983,-0.011798692240874405
0.34829999999999983,-0.011876501362366983
0.34729999999999983,-0.011916113278763203
0.34629999999999983,-0.011907625010964014
0.34529999999999983,-0.011921772123962664
0.34429999999999983,-0.011978360575957265
0.3432999999999998,-0.012058999120049574
0.3422999999999998,-0.012050510852250384
0.3412999999999998,-0.012084463923447144
0.3402999999999998,-0.01210285517034539
0.3392999999999998,-0.012158028911040125
0.3382999999999998,-0.012233008609932972
0.3372999999999998,-0.012231593898633108
0.3362999999999998,-0.012235838032532703
0.3352999999999998,-0.01229101177322744
0.3342999999999998,-0.012323550133124335
0.3332999999999998,-0.012390041564217991
0.3322999999999998,-0.012394285698117586
0.3312999999999998,-0.012404188677216642
0.3302999999999998,-0.012442385882312997
0.3292999999999998,-0.0124989743343076
0.3282999999999998,-0.012561221631501661
0.3272999999999998,-0.012585271723599366
0.3262999999999998,-0.012589515857498962
0.3252999999999999,-0.012609321815697072
0.3242999999999999,-0.012668739690291404
0.3232999999999999,-0.012712595740587218
0.3222999999999999,-0.01275503707958317
0.3212999999999999,-0.012779087171680878
0.3202999999999999,-0.012796063707279256
0.3192999999999999,-0.012856896293173452
0.3182999999999999,-0.012924802435566976
0.3172999999999999,-0.012907825899968596
0.3162999999999999,-0.01293470541466603
0.3152999999999999,-0.012944608393765086
0.3142999999999999,-0.012982805598861443
0.3132999999999999,-0.013076176544652533
0.3122999999999999,-0.013064858854253614
0.3112999999999999,-0.01307193241075294
0.3102999999999999,-0.01308042067855213
0.3092999999999999,-0.013149741532245515
0.3082999999999999,-0.013207744695539982
0.3072999999999999,-0.013214818252039308
0.3062999999999999,-0.013224721231138364
0.3052999999999999,-0.013251600745835798
0.3042999999999999,-0.013284139105732696
0.3032999999999999,-0.013357704093325677
0.3022999999999999,-0.013359118804625541
0.3012999999999999,-0.013380339474123518
0.3002999999999999,-0.013388827741922706
0.2992999999999999,-0.013429854369618792
0.2982999999999999,-0.01350766349111137
0.2972999999999999,-0.013511907625010965
0.2962999999999999,-0.013524640026709752
0.2952999999999999,-0.013545860696207725
0.2942999999999999,-0.013593960880403138
0.2932999999999999,-0.013649134621097875
0.2922999999999999,-0.01368167298099477
0.2912999999999999,-0.013668940579295984
0.2902999999999999,-0.013698649516593149
0.2892999999999999,-0.013743920278188831
0.2882999999999999,-0.013797679307583703
0.2872999999999999,-0.013807582286682758
0.2862999999999999,-0.013813241131882219
0.2852999999999999,-0.013837291223979923
0.2842999999999999,-0.013885391408175336
0.2832999999999999,-0.013949053416669261
0.2822999999999999,-0.013970274086167238
0.2812999999999999,-0.013968859374867372
0.2802999999999999,-0.013988665333065482
0.2792999999999999,-0.014045253785060085
0.2782999999999999,-0.014087695124056035
0.2772999999999999,-0.014101842237054685
0.2762999999999999,-0.01411457463875347
0.2752999999999999,-0.014124477617852528
0.2742999999999999,-0.014189554337646317
0.2732999999999999,-0.01426028990263957
0.2722999999999999,-0.01424614278964092
0.2712999999999999,-0.01426028990263957
0.2702999999999999,-0.01427443701563822
0.2692999999999999,-0.014316878354634173
0.26829999999999987,-0.014387613919627423
0.26729999999999987,-0.014387613919627423
0.26629999999999987,-0.014415908145624722
0.26529999999999987,-0.014430055258623373
0.26429999999999987,-0.014472496597619325
0.26329999999999987,-0.014543232162612576
0.26229999999999987,-0.014543232162612576
0.26129999999999987,-0.014557379275611227
0.26029999999999986,-0.014585673501608528
0.25929999999999986,-0.014599820614607179
0.25829999999999986,-0.014684703292599082
0.25729999999999986,-0.01469885040559773
0.25629999999999986,-0.014712997518596381
0.25529999999999986,-0.014727144631595034
0.25429999999999986,-0.014755438857592333
0.25329999999999986,-0.014826174422585584
0.25229999999999986,-0.014854468648582884
0.25129999999999986,-0.014854468648582884
0.25029999999999986,-0.014882762874580187
0.24929999999999986,-0.014925204213576137
0.24829999999999985,-0.014981792665570736
0.24729999999999985,-0.01501008689156804
0.24629999999999985,-0.014995939778569388
0.24529999999999985,-0.01505252823056399
0.24429999999999985,-0.015080822456561293
0.24329999999999985,-0.015123263795557243
0.24229999999999985,-0.015151558021554544
0.24129999999999985,-0.015151558021554544
0.24029999999999985,-0.015165705134553195
0.23929999999999985,-0.015222293586547794
0.23829999999999985,-0.015278882038542396
0.23729999999999984,-0.015307176264539698
0.23629999999999984,-0.015335470490536997
0.23529999999999984,-0.015335470490536997
0.23429999999999984,-0.015392058942531598
0.23329999999999984,-0.015448647394526203
0.23229999999999984,-0.015448647394526203
0.23129999999999984,-0.015476941620523503
0.23029999999999984,-0.015476941620523503
0.22929999999999984,-0.015519382959519455
0.22829999999999984,-0.015590118524512706
0.22729999999999984,-0.015604265637511355
0.22629999999999983,-0.015632559863508654
0.22529999999999983,-0.015646706976507305
0.22429999999999983,-0.015660854089505957
0.22329999999999983,-0.015717442541500558
0.22229999999999983,-0.015745736767497857
0.22129999999999983,-0.01573158965449921
0.22029999999999983,-0.01575988388049651
0.21929999999999983,-0.01580232521949246
0.21829999999999983,-0.01588720789748436
0.21729999999999983,-0.015901355010483013
0.21629999999999983,-0.01588720789748436
0.21529999999999982,-0.01591550212348166
0.21429999999999982,-0.015957943462477614
0.21329999999999982,-0.016000384801473564
0.21229999999999982,-0.016042826140469518
0.21129999999999982,-0.016014531914472215
0.21029999999999982,-0.016071120366466816
0.20929999999999982,-0.01608526747946547
0.20829999999999982,-0.01615600304445872
0.20729999999999982,-0.01619844438345467
0.20629999999999982,-0.01619844438345467
0.20529999999999982,-0.016212591496453318
0.20429999999999982,-0.016269179948447923
0.20329999999999981,-0.016325768400442524
0.2022999999999998,-0.016354062626439823
0.2012999999999998,-0.016368209739438477
0.20029999999999992,-0.01638235685243712
0.19929999999999992,-0.016424798191433075
0.19829999999999992,-0.01646723953042903
0.19729999999999992,-0.016495533756426328
0.19629999999999992,-0.01652382798242363
0.19529999999999992,-0.01650968086942498
0.19429999999999992,-0.01662285777341418
0.19329999999999992,-0.016721887564404736
0.19229999999999992,-0.016679446225408782
0.19129999999999991,-0.016693593338407434
0.1902999999999999,-0.01670774045140608
0.1892999999999999,-0.016764328903400686
0.1882999999999999,-0.016820917355395284
0.1872999999999999,-0.016849211581392583
0.1862999999999999,-0.016863358694391237
0.1852999999999999,-0.016891652920388536
0.1842999999999999,-0.01690580003338719
0.1832999999999999,-0.01697653559838044
0.1822999999999999,-0.01699068271137909
0.1812999999999999,-0.017018976937376393
0.1802999999999999,-0.01706141827637234
0.1792999999999999,-0.017075565389370995
0.1782999999999999,-0.017174595180361543
0.1772999999999999,-0.017231183632356147
0.1762999999999999,-0.017217036519357496
0.1752999999999999,-0.0172453307453548
0.1742999999999999,-0.017273624971352097
0.1732999999999999,-0.0173302134233467
0.1722999999999999,-0.017358507649344
0.1712999999999999,-0.017358507649344
0.1702999999999999,-0.0173868018753413
0.1692999999999999,-0.017443390327335904
0.1682999999999999,-0.017514125892329157
0.1672999999999999,-0.017542420118326456
0.1662999999999999,-0.017556567231325104
0.1652999999999999,-0.017556567231325104
0.1642999999999999,-0.017613155683319705
0.1632999999999999,-0.01768389124831296
0.1622999999999999,-0.01771218547431026
0.1612999999999999,-0.01771218547431026
0.1602999999999999,-0.01772633258730891
0.1592999999999999,-0.017782921039303512
0.15829999999999989,-0.017839509491298113
0.15729999999999988,-0.017881950830294063
0.15629999999999988,-0.017896097943292714
0.15529999999999988,-0.017910245056291362
0.15429999999999988,-0.017952686395287316
0.15329999999999988,-0.018023421960280565
0.15229999999999988,-0.018065863299276518
0.15129999999999988,-0.018080010412275173
0.15029999999999988,-0.018094157525273817
0.14929999999999988,-0.018150745977268422
0.14829999999999988,-0.018221481542261674
0.14729999999999988,-0.018263922881257624
0.14629999999999987,-0.018263922881257624
0.14529999999999987,-0.018278069994256275
0.14429999999999987,-0.018320511333252226
0.14329999999999987,-0.018433688237241428
0.14229999999999987,-0.01849027668923603
0.14129999999999987,-0.01847612957623738
0.14029999999999987,-0.01850442380223468
0.13929999999999987,-0.01853271802823198
0.13829999999999987,-0.018617600706223883
0.13729999999999987,-0.018674189158218484
0.13629999999999987,-0.018688336271217135
0.13529999999999986,-0.018702483384215783
0.13429999999999986,-0.018744924723211737
0.13329999999999986,-0.018843954514202284
0.13229999999999986,-0.018900542966196893
0.13129999999999986,-0.01891469007919554
0.13029999999999986,-0.018957131418191494
0.12929999999999986,-0.018985425644188793
0.12829999999999986,-0.019027866983184743
0.12729999999999986,-0.019084455435179344
0.12629999999999986,-0.019084455435179344
0.12529999999999986,-0.019126896774175294
0.12429999999999986,-0.0191834852261699
0.12329999999999985,-0.019240073678164497
0.12229999999999985,-0.01928251501716045
0.12129999999999985,-0.0192966621301591
0.12029999999999985,-0.019310809243157753
0.11929999999999985,-0.019367397695152354
0.11829999999999985,-0.019423986147146955
0.11729999999999985,-0.019494721712140204
0.11629999999999985,-0.019523015938137503
0.11529999999999985,-0.019537163051136158
0.11429999999999985,-0.019579604390132108
0.11329999999999985,-0.01965033995512536
0.11229999999999984,-0.01969278129412131
0.11129999999999984,-0.01973522263311726
0.11029999999999984,-0.01973522263311726
0.10929999999999984,-0.019777663972113214
0.10829999999999984,-0.019862546650105117
0.10729999999999984,-0.019904987989101064
0.10629999999999984,-0.019933282215098366
0.10529999999999984,-0.01997572355409432
0.10429999999999984,-0.020018164893090266
0.10329999999999984,-0.02008890045808352
0.10229999999999984,-0.020145488910078124
0.10129999999999983,-0.020187930249074077
0.10029999999999983,-0.020230371588070024
0.09929999999999983,-0.020258665814067326
0.09829999999999983,-0.020371842718056525
0.09729999999999983,-0.02041428405705248
0.09629999999999983,-0.020400136944053827
0.09529999999999983,-0.020442578283049778
0.09429999999999983,-0.02048501962204573
0.09329999999999983,-0.02055575518703898
0.09229999999999983,-0.020640637865030884
0.09129999999999983,-0.020640637865030884
0.09029999999999982,-0.020683079204026837
0.08929999999999982,-0.020725520543022787
0.08829999999999982,-0.02079625610801604
0.08729999999999982,-0.02088113878600794
0.08629999999999982,-0.02088113878600794
0.08529999999999982,-0.020923580125003893
0.08429999999999982,-0.020966021463999843
0.08329999999999982,-0.021050904141991744
0.08229999999999982,-0.021121639706984996
0.08129999999999982,-0.021135786819983647
0.08029999999999982,-0.021149933932982302
0.07929999999999982,-0.02122066949797555
0.07829999999999981,-0.021291405062968803
0.07729999999999981,-0.021347993514963404
0.07629999999999981,-0.021404581966958002
0.07529999999999992,-0.021418729079956657
0.07429999999999992,-0.021475317531951258
0.07329999999999992,-0.021546053096944507
0.07229999999999992,-0.02163093577493641
0.07129999999999992,-0.02165923000093371
0.07029999999999992,-0.02167337711393236
0.06929999999999992,-0.021729965565926962
0.06829999999999992,-0.021814848243918866
0.06729999999999992,-0.021871436695913467
0.06629999999999991,-0.02194217226090672
0.06529999999999991,-0.02194217226090672
0.06429999999999991,-0.02199876071290132
0.06329999999999991,-0.022097790503891875
0.06229999999999991,-0.022140231842887825
0.06129999999999991,-0.02218267318188378
0.06029999999999991,-0.022225114520879725
0.05929999999999991,-0.022281702972874327
0.05829999999999991,-0.022366585650866227
0.05729999999999991,-0.022437321215859483
0.056299999999999906,-0.02245146832885813
0.055299999999999905,-0.022479762554855433
0.054299999999999904,-0.022536351006850038
0.0532999999999999,-0.022635380797840585
0.0522999999999999,-0.02273441058883114
0.0512999999999999,-0.02274855770182979
0.0502999999999999,-0.02277685192782709
0.0492999999999999,-0.022819293266823044
0.0482999999999999,-0.022890028831816296
0.0472999999999999,-0.022974911509808196
0.0462999999999999,-0.022989058622806844
0.045299999999999896,-0.023031499961802798
0.044299999999999895,-0.0230880884137974
0.043299999999999894,-0.023172971091789302
0.04229999999999989,-0.02324370665678255
0.04129999999999989,-0.02327200088277985
0.04029999999999989,-0.023342736447773106
0.03929999999999989,-0.023371030673770405
0.03829999999999989,-0.023441766238763657
0.03729999999999989,-0.023512501803756906
0.03629999999999989,-0.023583237368750162
0.03529999999999989,-0.02359738448174881
0.034299999999999886,-0.023668120046742062
0.033299999999999885,-0.02373885561173532
0.032299999999999884,-0.023809591176728567
0.031299999999999883,-0.023866179628723165
0.030299999999999883,-0.02390862096771912
0.02929999999999988,-0.02393691519371642
0.02829999999999988,-0.024035944984706972
0.02729999999999988,-0.024106680549700225
0.02629999999999988,-0.024163269001694826
0.025299999999999878,-0.02420571034069078
0.024299999999999877,-0.02423400456668808
0.023299999999999876,-0.02433303435767863
0.022299999999999875,-0.024417917035670533
0.021299999999999875,-0.024446211261667832
0.020299999999999874,-0.024502799713662437
0.019299999999999873,-0.02453109393965974
0.018299999999999872,-0.024644270843648942
0.01729999999999987,-0.02471500640864219
0.01629999999999987,-0.02474330063463949
0.01529999999999987,-0.02479988908663409
0.014299999999999868,-0.024842330425630044
0.013299999999999867,-0.024927213103621948
0.012299999999999978,-0.0250262428946125
0.011299999999999866,-0.02506868423360845
0.010299999999999976,-0.0251111255726044
0.009299999999999864,-0.02515356691160035
0.008299999999999974,-0.025252596702590904
0.007299999999999862,-0.025365773606580107
0.006299999999999972,-0.02537992071957876
0.00529999999999986,-0.025422362058574708
0.0042999999999999705,-0.02547895051056931
0.0032999999999998586,-0.025577980301559864
0.0022999999999999687,-0.025677010092550415
0.0012999999999998568,-0.02573359854454502
0.00029999999999996696,-0.02576189277054232
-0.000700000000000145,-0.025846775448534223
-0.0017000000000000348,-0.025931658126526123
-0.0027000000000001467,-0.026058982143513973
-0.0037000000000000366,-0.02612971770850723
-0.0047000000000001485,-0.026158011934504528
-0.005700000000000038,-0.02621460038649913
-0.00670000000000015,-0.02628533595149238
-0.00770000000000004,-0.026370218629484285
-0.008700000000000152,-0.026398512855481584
-0.009700000000000042,-0.026440954194477534
-0.010700000000000154,-0.02652583687246944
-0.011700000000000044,-0.02662486666345999
-0.012700000000000156,-0.026695602228453245
-0.013700000000000045,-0.02673804356744919
-0.014700000000000157,-0.026794632019443793
-0.015700000000000047,-0.02682292624544109
-0.01670000000000016,-0.026936103149430297
-0.01770000000000005,-0.0270209858274222
-0.01870000000000016,-0.027063427166418155
-0.01970000000000005,-0.027120015618412752
-0.020700000000000163,-0.027162456957408702
-0.021700000000000053,-0.027261486748399254
-0.022700000000000164,-0.02736051653938981
-0.023700000000000054,-0.02740295787838576
-0.024700000000000166,-0.027459546330380363
-0.025700000000000056,-0.027473693443379014
-0.026700000000000168,-0.027586870347368214
-0.027700000000000058,-0.02768590013835877
-0.02870000000000017,-0.02772834147735472
-0.02970000000000006,-0.027784929929349323
-0.03070000000000017,-0.02782737126834527
-0.03170000000000006,-0.027926401059335824
-0.03270000000000017,-0.028039577963325023
-0.03370000000000006,-0.028039577963325023
-0.034700000000000175,-0.02809616641531963
-0.035700000000000065,-0.028181049093311532
-0.03670000000000018,-0.02829422599730073
-0.03770000000000007,-0.028393255788291286
-0.03870000000000018,-0.028435697127287232
-0.03970000000000007,-0.028463991353284535
-0.04070000000000018,-0.02852057980527914
-0.04170000000000007,-0.02861960959626969
-0.04270000000000018,-0.028732786500258897
-0.04370000000000007,-0.028775227839254847
-0.044700000000000184,-0.028789374952253494
-0.045700000000000074,-0.028874257630245398
-0.046700000000000186,-0.0289591403082373
-0.047700000000000076,-0.029058170099227856
-0.04870000000000019,-0.029114758551222454
-0.04970000000000008,-0.029171347003217055
-0.05070000000000019,-0.02921378834221301
-0.05170000000000008,-0.029326965246202208
-0.05270000000000019,-0.02939770081119546
-0.05370000000000008,-0.02945428926319007
-0.05470000000000019,-0.029525024828183317
-0.05570000000000008,-0.02953917194118197
-0.056700000000000195,-0.029652348845171168
-0.057700000000000085,-0.02973723152316307
-0.058700000000000196,-0.02979381997515767
-0.059700000000000086,-0.02986455554015093
-0.0607000000000002,-0.029878702653149573
-0.06170000000000009,-0.03002017378313608
-0.0627000000000002,-0.030133350687125283
-0.06370000000000009,-0.030161644913122586
