Potential V vs RHE, Current mA cm-2
0.013299999999999867,16.56626932141958
0.012299999999999978,14.359319693630123
0.011299999999999866,12.977146753661982
0.010299999999999976,11.655806399588037
0.009299999999999864,9.802534596764838
0.008299999999999974,8.387823296899802
0.007299999999999862,7.372060583596706
0.006299999999999972,5.914907944735719
0.00529999999999986,4.6091294149602895
0.0042999999999999705,3.7970851288377587
0.0032999999999998586,2.584677544853422
0.0022999999999999687,1.1651562265688442
0.0012999999999998568,0.3686737647448286
0.00029999999999996696,-0.4838312645538425
-0.000700000000000145,-1.897127853119014
-0.0017000000000000348,-2.8265931771303436
-0.0027000000000001467,-3.4646279733694745
-0.0037000000000000366,-4.667132578254756
-0.0047000000000001485,-5.750801433951374
-0.005700000000000038,-6.268585769701978
-0.00670000000000015,-7.209368784112227
-0.00770000000000004,-8.389238008199667
-0.008700000000000152,-8.977757908943524
-0.009700000000000042,-9.65398991027901
-0.010700000000000154,-10.839517979565912
-0.011700000000000044,-11.573753144195864
-0.012700000000000156,-12.025046048852811
-0.013700000000000045,-13.064858854253613
-0.014700000000000157,-13.995738889564809
-0.015700000000000047,-14.373466806628771
-0.01670000000000016,-15.151558021554543
-0.01770000000000005,-16.19844438345467
-0.01870000000000016,-16.60871066041553
-0.01970000000000005,-17.132153841365596
-0.020700000000000163,-18.164893090267068
-0.021700000000000053,-18.77321894920904
-0.022700000000000164,-19.084455435179343
-0.023700000000000054,-19.98987066709297
-0.024700000000000166,-20.810403221014692
-0.025700000000000056,-21.093345480987697
-0.026700000000000168,-21.772406904922917
-0.027700000000000058,-22.72026347583249
-0.02870000000000017,-23.088088413797397
-0.02970000000000006,-23.526648916755562
-0.03070000000000017,-24.488652600663784
-0.03170000000000006,-25.054537120609798
-0.03270000000000017,-25.351626493581456
-0.03370000000000006,-26.21460038649913
-0.034700000000000175,-26.95025026242895
-0.035700000000000065,-27.176604070407354
-0.03670000000000018,-27.855665494342567
-0.03770000000000007,-28.775227839254843
-0.03870000000000018,-29.114758551222454
-0.03970000000000007,-29.510877715184666
-0.04070000000000018,-30.487028512091538
-0.04170000000000007,-31.010471693041605
-0.04270000000000018,-31.265119727017314
-0.04370000000000007,-32.12809361993498
-0.044700000000000184,-32.84959638286615
-0.045700000000000074,-33.01936173884996
-0.046700000000000186,-33.670128936787876
-0.047700000000000076,-34.5755441687015
-0.04870000000000019,-34.8301922026772
-0.04970000000000008,-35.21216425364076
-0.05070000000000019,-36.17416793754898
-0.05170000000000008,-36.6834640055004
-0.05270000000000019,-36.86737647448285
-0.05370000000000008,-37.673761915405926
-0.05470000000000019,-38.4518531303317
-0.05570000000000008,-38.706501164307404
-0.056700000000000195,-39.34312124924667
-0.057700000000000085,-40.191948029165694
-0.058700000000000196,-40.40415472414545
-0.059700000000000086,-40.75783254911171
-0.0607000000000002,-41.719836233019926
-0.06170000000000009,-42.25742652696865
-0.0627000000000002,-42.4696332219484
-0.06370000000000009,-43.24772443687417
-0.0647000000000002,-43.94093297380804
-0.06570000000000009,-44.153139668787794
-0.0667000000000002,-44.76146552772976
-0.0677000000000001,-45.652733646644734
-0.0687000000000002,-45.949823019616396
-0.0697000000000001,-46.3459421835786
-0.07070000000000021,-47.30794586748683
-0.0717000000000001,-47.76065348344364
-0.07270000000000021,-47.95871306542474
-0.0737000000000001,-48.75095139334916
-0.07470000000000021,-49.48660126927898
-0.0757000000000001,-49.72710219025603
-0.07670000000000021,-50.46275206618586
-0.0777000000000001,-51.396461524096786
-0.07870000000000021,-51.65110955807249
-0.0797000000000001,-52.00478738303875
-0.08070000000000022,-53.009232405942925
-0.0817000000000001,-53.546822699891635
-0.08270000000000022,-53.75902939487139
-0.08370000000000011,-54.551267722795814
-0.08470000000000022,-55.21618203373238
-0.08570000000000011,-55.385947389716186
-0.08670000000000022,-56.05086170065276
-0.08770000000000011,-56.956276932566375
-0.08870000000000022,-57.25336630553804
-0.08970000000000011,-57.6919268084962
-0.09070000000000022,-58.63978337940577
-0.09170000000000011,-59.17737367335449
-0.09270000000000023,-59.4886101593248
-0.09370000000000012,-60.39402539123842
-0.09470000000000023,-61.07308681517363
-0.09570000000000012,-61.17211660616418
-0.09670000000000023,-61.794589578104805
-0.09770000000000012,-62.799034601008984
-0.09870000000000023,-63.19515376497119
-0.09970000000000012,-63.64786138092801
-0.10070000000000023,-64.49668816084701
-0.10170000000000012,-64.9352486638052
-0.10270000000000024,-65.17574958478224
-0.10370000000000013,-66.10945904269316
-0.10470000000000024,-66.9582858226122
-0.10570000000000013,-67.128051178596
-0.10670000000000024,-67.73637703753796
-0.10770000000000013,-68.62764515645293
-0.10870000000000024,-69.02376432041514
-0.10970000000000013,-69.4906190493706
-0.11070000000000024,-70.38188716828559
-0.11170000000000013,-70.82044767124374
-0.11270000000000002,-71.04680147922215
-0.11370000000000013,-71.95221671113578
-0.11470000000000002,-72.71616081306288
-0.11570000000000014,-72.91422039504398
-0.11670000000000003,-73.57913470598055
-0.11770000000000014,-74.44210859889823
-0.11870000000000003,-74.76749219786718
-0.11970000000000014,-75.2484940398213
-0.12070000000000003,-76.22464483672817
-0.12170000000000014,-76.71979379168094
-0.12270000000000003,-76.9320004866607
-0.12370000000000014,-77.93644550956488
-0.12470000000000003,-78.8984491934731
-0.12570000000000014,-79.16724434044745
-0.12670000000000003,-79.73312886039348
-0.12770000000000015,-80.55366141431519
-0.12870000000000004,-80.8366036742882
-0.12970000000000015,-81.26101706424771
-0.13070000000000004,-82.19472652215863
-0.13170000000000015,-82.8030523811006
-0.13270000000000004,-83.18502443206415
-0.13370000000000015,-84.14702811597239
-0.13470000000000004,-84.8543837659049
-0.13570000000000015,-84.96756066989411
-0.13670000000000004,-85.56173941583742
-0.13770000000000016,-86.49544887374834
-0.13870000000000005,-86.8208324727173
-0.13970000000000016,-87.23109874967815
-0.14070000000000005,-88.07992552959718
-0.14170000000000016,-88.54678025855264
-0.14270000000000005,-88.95704653551351
-0.14370000000000016,-89.91905021942173
-0.14470000000000005,-90.6405529823529
-0.14570000000000016,-90.71128854734616
-0.14670000000000005,-91.29132018029082
-0.14770000000000016,-92.36650076818825
-0.14870000000000005,-92.50797189817473
-0.14970000000000017,-92.73432570615316
-0.15070000000000006,-93.65388805106544
-0.15170000000000017,-94.13488989301955
-0.15270000000000006,-94.47442060498715
-0.15370000000000017,-95.33739449790482
-0.15470000000000006,-96.10133859983195
-0.15570000000000017,-96.18622127782385
-0.15670000000000006,-96.73795868477121
-0.15770000000000017,-97.79899215967
-0.15870000000000006,-98.2799940016241
-0.15970000000000018,-98.69026027858496
-0.16070000000000007,-99.59567551049858
-0.16170000000000018,-100.2747369344338
-0.16270000000000007,-100.69915032439332
-0.16370000000000018,-101.56212421731098
-0.16470000000000007,-102.1563029632543
-0.16570000000000018,-102.24118564124619
-0.16670000000000007,-102.97683551717601
-0.16770000000000018,-103.99542765307885
-0.16870000000000007,-104.25007568705455
-0.16970000000000018,-104.5188708340289
-0.17070000000000007,-105.56575719592904
-0.17170000000000019,-106.34384841085482
-0.17270000000000008,-106.58434933183186
-0.1737000000000002,-107.22096941677113
-0.17470000000000008,-107.90003084070635
-0.1757000000000002,-108.38103268266046
-0.17670000000000008,-109.22985946257948
-0.1777000000000002,-110.06453912949985
-0.17870000000000008,-110.20601025948636
-0.1797000000000002,-111.01239570040943
-0.18070000000000008,-112.01684072331359
-0.1817000000000002,-111.94610515832035
-0.18270000000000008,-111.90366381932441
-0.1837000000000002,-112.95055018122453
-0.1847000000000001,-113.85596541313815
-0.1857000000000002,-114.2096432381044
-0.1867000000000001,-115.08676424402073
-0.1877000000000002,-116.10535637992358
-0.1887000000000001,-116.21853328391276
-0.1897000000000002,-116.43073997889252
-0.1907000000000001,-117.3785965498021
-0.1917000000000001,-118.0010695217427
-0.19269999999999998,-118.18498199072516
-0.1937000000000001,-118.82160207566443
-0.19469999999999998,-119.486516386601
-0.1957000000000001,-119.69872308158075
-0.19669999999999999,-120.33534316652002
-0.1977000000000001,-121.226611285435
-0.1987,-121.46711220641204
-0.1997000000000001,-121.83493714437697
-0.2007,-122.86767639327843
-0.2017000000000001,-123.46185513922175
-0.2027,-123.80138585118935
-0.2037000000000001,-124.67850685710567
-0.2047,-125.3858625070382
-0.2057000000000001,-125.42830384603415
-0.2067,-126.00833547897882
-0.2077000000000001,-126.9561920498884
-0.2087,-127.2108400838641
-0.2097000000000001,-127.56451790883035
-0.2107,-128.38505046275208
-0.2117000000000001,-128.86605230470622
-0.2127,-129.2904656946657
-0.2137000000000001,-130.39394050856043
-0.2147,-131.28520862747538
-0.2157000000000001,-131.3983855314646
-0.2167,-131.78035758242817
-0.21770000000000012,-132.75650837933503
-0.2187,-133.35068712527837
-0.21970000000000012,-133.7043649502446
-0.2207,-134.24195524419332
-0.22170000000000012,-134.70880997314876
-0.2227,-135.24640026709753
-0.22370000000000012,-136.09522704701655
-0.2247,-136.562081775972
-0.22570000000000012,-136.57622888897063
-0.2267,-137.19870186091126
-0.22770000000000012,-138.04752864083028
-0.22870000000000001,-138.25973533581003
-0.22970000000000013,-138.585118934779
-0.23070000000000002,-139.63200529667913
-0.23170000000000013,-140.05641868663866
-0.23270000000000002,-139.98568312164537
-0.23370000000000013,-140.7213329975752
-0.23470000000000002,-141.61260111649017
-0.23570000000000013,-142.03701450644968
-0.23670000000000002,-142.4614278964092
-0.2376999999999999,-143.0273124163552
-0.23870000000000002,-143.0273124163552
-0.2396999999999999,-143.3102546763282
-0.24070000000000003,-144.72496597619326
-0.24169999999999991,-145.29085049613926
-0.24270000000000003,-145.43232162612577
-0.24369999999999992,-145.9982061460718
-0.24470000000000003,-146.7055617960043
-0.24569999999999992,-146.9885040559773
-0.24670000000000003,-147.55438857592333
-0.24769999999999992,-148.26174422585584
-0.24870000000000003,-148.54468648582886
-0.24969999999999992,-148.96909987578834
-0.25070000000000003,-149.8179266557074
-0.2516999999999999,-150.1008689156804
-0.25270000000000004,-150.1008689156804
-0.2536999999999999,-150.94969569559944
-0.25470000000000004,-151.7985224755184
-0.2556999999999999,-151.93999360550492
-0.25670000000000004,-152.50587812545095
-0.25769999999999993,-153.07176264539694
-0.25870000000000004,-153.21323377538346
-0.25969999999999993,-153.35470490536997
-0.26070000000000004,-154.3450028152755
-0.26169999999999993,-155.05235846520802
-0.26270000000000004,-155.33530072518104
-0.26369999999999993,-155.90118524512707
-0.26470000000000005,-156.32559863508658
-0.26569999999999994,-156.46706976507306
-0.26670000000000005,-157.17442541500557
-0.26769999999999994,-157.88178106493808
-0.26870000000000005,-158.02325219492457
-0.26969999999999994,-158.4476655848841
-0.27070000000000005,-159.29649236480313
-0.27169999999999994,-159.57943462477613
-0.27270000000000005,-159.72090575476264
-0.27369999999999994,-160.42826140469515
-0.27470000000000006,-160.99414592464117
-0.27569999999999995,-160.99414592464117
-0.27670000000000006,-161.41855931460069
-0.27769999999999995,-162.12591496453322
-0.27870000000000006,-162.12591496453322
-0.27969999999999995,-162.40885722450622
-0.28070000000000006,-163.25768400442522
-0.28169999999999995,-163.82356852437124
-0.28270000000000006,-163.82356852437124
-0.28369999999999995,-164.38945304431726
-0.28470000000000006,-164.9553375642633
-0.28569999999999995,-165.09680869424977
-0.28670000000000007,-165.5212220842093
-0.28769999999999996,-166.0871066041553
-0.28870000000000007,-166.3700488641283
-0.28969999999999996,-166.93593338407433
-0.29070000000000007,-167.50181790402033
-0.29169999999999996,-167.21887564404733
-0.29270000000000007,-167.07740451406085
-0.29369999999999996,-167.92623129397984
-0.2947000000000001,-168.63358694391238
-0.29569999999999996,-168.49211581392586
-0.2967000000000001,-168.63358694391238
-0.29769999999999996,-169.19947146385837
-0.2987000000000001,-169.3409425938449
-0.29969999999999997,-169.48241372383137
-0.3007000000000001,-170.0482982437774
-0.30169999999999997,-170.33124050375042
-0.3027000000000001,-170.33124050375042
-0.30369999999999997,-171.18006728366944
-0.3047000000000001,-171.60448067362896
-0.30569999999999997,-171.46300954364247
-0.3067000000000001,-171.74595180361547
-0.3077,-172.45330745354798
-0.3087000000000001,-172.59477858353446
-0.3097,-172.73624971352098
-0.3107000000000001,-173.16066310348046
-0.3117,-173.302134233467
-0.3127000000000001,-173.58507649344
-0.3137,-174.43390327335902
-0.3147000000000001,-174.85831666331853
-0.3157,-174.57537440334553
-0.3167000000000001,-174.99978779330505
-0.3177,-175.70714344323756
-0.3187000000000001,-175.70714344323756
-0.3197,-175.70714344323756
-0.3207000000000001,-176.4144990931701
-0.3217,-176.13155683319707
-0.3227000000000001,-174.85831666331853
-0.3237,-175.56567231325104
-0.3247000000000001,-176.8389124831296
-0.3257,-177.1218547431026
-0.3267000000000001,-177.4047970030756
-0.3277,-177.9706815230216
-0.3287000000000001,-178.81950830294062
-0.3297,-179.80980621284618
-0.3307000000000001,-180.8001041227517
-0.3317,-180.8001041227517
-0.3327000000000001,-180.23421960280567
-0.3337,-181.2245175127112
-0.3347000000000001,-182.21481542261674
-0.3357,-181.79040203265723
-0.3367000000000001,-181.93187316264374
-0.3377,-182.21481542261674
-0.3387000000000001,-181.64893090267074
-0.3397,-181.5074597726842
-0.3407000000000001,-182.07334429263022
-0.3417,-182.78069994256273
-0.3427000000000001,-182.92217107254925
-0.3437,-183.34658446250873
-0.3447000000000001,-183.48805559249527
-0.3457,-183.20511333252225
-0.3467000000000001,-183.77099785246824
-0.3477,-184.33688237241427
-0.3487000000000001,-184.33688237241427
-0.3497,-184.33688237241427
-0.3507000000000001,-184.9027668923603
-0.3517,-185.3271802823198
-0.3527000000000001,-185.3271802823198
-0.3537,-186.03453593225234
-0.3547000000000001,-186.60042045219836
-0.3557,-186.45894932221185
-0.35670000000000013,-186.60042045219836
-0.3577,-187.16630497214436
-0.35870000000000013,-187.30777610213087
-0.3597,-187.59071836210387
-0.36070000000000013,-188.29807401203638
-0.3617,-188.15660288204987
-0.3626999999999999,-187.73218949209036
-0.3637,-188.4395451420229
-0.3646999999999999,-189.2883719219419
-0.3657,-189.2883719219419
-0.3666999999999999,-189.2883719219419
-0.3677,-189.57131418191491
-0.3686999999999999,-189.99572757187443
-0.36970000000000003,-190.70308322180696
-0.3706999999999999,-191.41043887173947
-0.37170000000000003,-191.551910001726
-0.3726999999999999,-191.41043887173947
-0.37370000000000003,-192.2592656516585
-0.3746999999999999,-193.10809243157752
-0.37570000000000003,-193.249563561564
-0.3766999999999999,-193.81544808151003
-0.37770000000000004,-194.66427486142905
-0.3786999999999999,-194.66427486142905
-0.37970000000000004,-194.94721712140205
-0.3806999999999999,-196.2204572912806
-0.38170000000000004,-196.7863418112266
-0.38269999999999993,-196.92781294121312
-0.38370000000000004,-197.35222633117263
-0.38469999999999993,-197.63516859114563
-0.38570000000000004,-197.77663972113214
-0.38669999999999993,-197.0692840711996
-0.38570000000000004,-194.52280373144254
-0.38469999999999993,-191.12749661176645
-0.38370000000000004,-187.73218949209036
-0.38269999999999993,-184.9027668923603
-0.38170000000000004,-181.79040203265723
-0.3806999999999999,-178.67803717295413
-0.37970000000000004,-176.13155683319707
-0.3786999999999999,-174.150961013386
-0.37770000000000004,-171.60448067362896
-0.3766999999999999,-169.3409425938449
-0.37570000000000003,-166.93593338407433
-0.3746999999999999,-163.96503965435775
-0.37370000000000003,-161.70150157457368
-0.3726999999999999,-160.00384801473567
-0.37170000000000003,-157.7403099349516
-0.3706999999999999,-155.05235846520802
-0.36970000000000003,-152.93029151541046
-0.3686999999999999,-150.66675343562642
-0.3677,-148.26174422585584
-0.3666999999999999,-146.28114840604482
-0.3657,-144.58349484620675
-0.3646999999999999,-142.31995676642268
-0.3637,-140.28277249461703
-0.3626999999999999,-138.76903140376146
-0.3617,-136.7318471319558
-0.36070000000000013,-134.55319173016363
-0.3597,-132.91212662232022
-0.35870000000000013,-131.03056059349967
-0.3577,-128.7811696267143
-0.35670000000000013,-126.84301514589919
-0.3557,-124.69265397010435
-0.3547000000000001,-122.76864660228789
-0.3537,-121.48125931941068
-0.3527000000000001,-120.46266718350788
-0.3517,-118.35474734670898
-0.3507000000000001,-116.19023905791546
-0.3497,-115.0726171310221
-0.3487000000000001,-113.88425963913545
-0.3477,-111.7904869153352
-0.3467000000000001,-110.03624490350255
-0.3457,-108.86203452461457
-0.3447000000000001,-107.36244054675764
-0.3437,-106.01846481188585
-0.3427000000000001,-104.78766598100327
-0.3417,-102.84951150018817
-0.3407000000000001,-101.18015216634743
-0.3397,-100.2747369344338
-0.3387000000000001,-98.94490831256067
-0.3377,-96.92187115375367
-0.3367000000000001,-95.45057140189402
-0.3357,-94.30465524900335
-0.3347000000000001,-92.45138344618015
-0.3337,-90.7254356603448
-0.3327000000000001,-89.55122528145681
-0.3317,-87.92430728661203
-0.3307000000000001,-86.12762393578342
-0.3297,-84.99585489589141
-0.3287000000000001,-83.77920317800748
-0.3277,-82.06740250517078
-0.3267000000000001,-80.8366036742882
-0.3257,-79.7755701993894
-0.3247000000000001,-78.00718107455812
-0.3237,-76.32367462771872
-0.3227000000000001,-75.31922960481455
-0.3217,-73.90451830494952
-0.3207000000000001,-72.33418876209933
-0.3197,-71.2024197222073
-0.3187000000000001,-70.12723913430986
-0.3177,-68.55690959145967
-0.3167000000000001,-67.21293385658788
-0.3157,-66.02457636470128
-0.3147000000000001,-64.48254104784839
-0.3137,-63.22344799096849
-0.3127000000000001,-62.44535677604272
-0.3117,-61.21455794516014
-0.3107000000000001,-59.6583755153086
-0.3097,-58.75296028339497
-0.3087000000000001,-57.649485469500235
-0.3077,-56.06500881365141
-0.3067000000000001,-55.06056379074723
-0.30569999999999997,-54.22588412382685
-0.3047000000000001,-52.83946704995912
-0.30369999999999997,-51.566226880080585
-0.3027000000000001,-50.74569432615886
-0.30169999999999997,-49.514895495276285
-0.3007000000000001,-48.100184195411245
-0.29969999999999997,-47.350387206482786
-0.2987000000000001,-46.4874133135651
-0.29769999999999996,-45.01611356170547
-0.2967000000000001,-44.011668538801295
-0.29569999999999996,-43.17698887188092
-0.2947000000000001,-41.76227757201589
-0.29369999999999996,-40.616361419125205
-0.29270000000000007,-39.96559422118728
-0.29169999999999996,-38.74894250330336
-0.29070000000000007,-37.32008409043967
-0.28969999999999996,-36.5985813275085
-0.28870000000000007,-35.74975454758948
-0.28769999999999996,-34.36333747372174
-0.28670000000000007,-33.51451069380272
-0.28569999999999995,-32.8637434958648
-0.28470000000000006,-31.533914873991666
-0.28369999999999995,-30.387998721100992
-0.28270000000000006,-29.80796708815632
-0.28169999999999995,-28.80352206525215
-0.28070000000000006,-27.544429008372262
-0.27969999999999995,-26.89366181043435
-0.27870000000000006,-26.058982143513976
-0.27769999999999995,-24.729153521640843
-0.27670000000000006,-23.86617962872317
-0.27569999999999995,-23.187118204787954
-0.27470000000000006,-21.899730921910766
-0.27369999999999994,-20.78210899501739
-0.27270000000000005,-20.25866581406732
-0.27169999999999994,-19.381544808151002
-0.27070000000000005,-18.17904020326572
-0.26969999999999994,-17.556567231325104
-0.26870000000000005,-16.750181790402035
-0.26769999999999994,-15.43450028152755
