Potential V vs RHE, Current mA cm-2
0.013299999999999867,-0.1766974413531431
0.012299999999999978,-0.8308599464107361
0.011299999999999866,-1.2671569112891135
0.010299999999999976,-1.6594563547416883
0.009299999999999864,-2.008890045808352
0.008299999999999974,-2.2706116362833835
0.007299999999999862,-2.532333226758415
0.006299999999999972,-2.7501987669376318
0.00529999999999986,-2.968064307116847
0.0042999999999999705,-3.1420737970002466
0.0032999999999998586,-3.273641947887695
0.0022999999999999687,-3.403795387475278
0.0012999999999998568,-3.5353635383627267
0.00029999999999996696,-3.6655169779503103
-0.000700000000000145,-3.7970851288377587
-0.0017000000000000348,-3.884797229429391
-0.0027000000000001467,-4.014950669016974
-0.0037000000000000366,-4.146518819904423
-0.0047000000000001485,-4.23281620919619
-0.005700000000000038,-4.364384360083638
-0.00670000000000015,-4.450681749375406
-0.00770000000000004,-4.494537799671222
-0.008700000000000152,-4.582249900262854
-0.009700000000000042,-4.626105950558669
-0.010700000000000154,-4.668547289554621
-0.011700000000000044,-4.756259390146253
-0.012700000000000156,-4.756259390146253
-0.013700000000000045,-4.843971490737885
-0.014700000000000157,-4.887827541033701
-0.015700000000000047,-4.9302688800296535
-0.01670000000000016,-4.974124930325469
-0.01770000000000005,-5.0618370309171015
-0.01870000000000016,-5.105693081212917
-0.01970000000000005,-5.149549131508733
-0.020700000000000163,-5.191990470504685
-0.021700000000000053,-5.235846520800501
-0.022700000000000164,-5.279702571096316
-0.023700000000000054,-5.279702571096316
-0.024700000000000166,-5.279702571096316
-0.025700000000000056,-5.323558621392133
-0.026700000000000168,-5.367414671687949
-0.027700000000000058,-5.367414671687949
-0.02870000000000017,-5.411270721983764
-0.02970000000000006,-5.411270721983764
-0.03070000000000017,-5.453712060979717
-0.03170000000000006,-5.497568111275533
-0.03270000000000017,-5.5414241615713475
-0.03370000000000006,-5.585280211867165
-0.034700000000000175,-5.585280211867165
-0.035700000000000065,-5.585280211867165
-0.03670000000000018,-5.629136262162981
-0.03770000000000007,-5.629136262162981
-0.03870000000000018,-5.629136262162981
-0.03970000000000007,-5.629136262162981
-0.04070000000000018,-5.672992312458796
-0.04170000000000007,-5.672992312458796
-0.04270000000000018,-5.672992312458796
-0.04370000000000007,-5.715433651454749
-0.044700000000000184,-5.759289701750564
-0.045700000000000074,-5.80314575204638
-0.046700000000000186,-5.80314575204638
-0.047700000000000076,-5.80314575204638
-0.04870000000000019,-5.80314575204638
-0.04970000000000008,-5.80314575204638
-0.05070000000000019,-5.80314575204638
-0.05170000000000008,-5.847001802342197
-0.05270000000000019,-5.80314575204638
-0.05370000000000008,-5.80314575204638
-0.05470000000000019,-5.80314575204638
-0.05570000000000008,-5.847001802342197
-0.056700000000000195,-5.847001802342197
-0.057700000000000085,-5.890857852638012
-0.058700000000000196,-5.890857852638012
-0.059700000000000086,-5.890857852638012
-0.0607000000000002,-5.9347139029338285
-0.06170000000000009,-5.9347139029338285
-0.0627000000000002,-5.9347139029338285
-0.06370000000000009,-5.9347139029338285
-0.0647000000000002,-5.890857852638012
-0.06570000000000009,-5.890857852638012
-0.0667000000000002,-5.847001802342197
-0.0677000000000001,-5.890857852638012
-0.0687000000000002,-5.890857852638012
-0.0697000000000001,-5.890857852638012
-0.07070000000000021,-5.890857852638012
-0.0717000000000001,-5.890857852638012
-0.07270000000000021,-5.9347139029338285
-0.0737000000000001,-5.9347139029338285
-0.07470000000000021,-5.890857852638012
-0.0757000000000001,-5.890857852638012
-0.07670000000000021,-5.890857852638012
-0.0777000000000001,-5.890857852638012
-0.07870000000000021,-5.847001802342197
-0.0797000000000001,-5.847001802342197
-0.08070000000000022,-5.80314575204638
-0.0817000000000001,-5.80314575204638
-0.08270000000000022,-5.80314575204638
-0.08370000000000011,-5.80314575204638
-0.08470000000000022,-5.847001802342197
-0.08570000000000011,-5.847001802342197
-0.08670000000000022,-5.80314575204638
-0.08770000000000011,-5.847001802342197
-0.08870000000000022,-5.80314575204638
-0.08970000000000011,-5.759289701750564
-0.09070000000000022,-5.759289701750564
-0.09170000000000011,-5.759289701750564
-0.09270000000000023,-5.672992312458796
-0.09370000000000012,-5.672992312458796
-0.09470000000000023,-5.672992312458796
-0.09570000000000012,-5.672992312458796
-0.09670000000000023,-5.672992312458796
-0.09770000000000012,-5.672992312458796
-0.09870000000000023,-5.672992312458796
-0.09970000000000012,-5.629136262162981
-0.10070000000000023,-5.672992312458796
-0.10170000000000012,-5.629136262162981
-0.10270000000000024,-5.629136262162981
-0.10370000000000013,-5.585280211867165
-0.10470000000000024,-5.5414241615713475
-0.10570000000000013,-5.497568111275533
-0.10670000000000024,-5.453712060979717
-0.10770000000000013,-5.453712060979717
-0.10870000000000024,-5.453712060979717
-0.10970000000000013,-5.453712060979717
-0.11070000000000024,-5.453712060979717
-0.11170000000000013,-5.453712060979717
-0.11270000000000002,-5.453712060979717
-0.11370000000000013,-5.411270721983764
-0.11470000000000002,-5.411270721983764
-0.11570000000000014,-5.367414671687949
-0.11670000000000003,-5.367414671687949
-0.11770000000000014,-5.323558621392133
-0.11870000000000003,-5.279702571096316
-0.11970000000000014,-5.279702571096316
-0.12070000000000003,-5.235846520800501
-0.12170000000000014,-5.235846520800501
-0.12270000000000003,-5.191990470504685
-0.12370000000000014,-5.235846520800501
-0.12470000000000003,-5.235846520800501
-0.12570000000000014,-5.191990470504685
-0.12670000000000003,-5.191990470504685
-0.12770000000000015,-5.191990470504685
-0.12870000000000004,-5.149549131508733
-0.12970000000000015,-5.149549131508733
-0.13070000000000004,-5.105693081212917
-0.13170000000000015,-5.0618370309171015
-0.13270000000000004,-5.0618370309171015
-0.13370000000000015,-5.017980980621284
-0.13470000000000004,-5.017980980621284
-0.13570000000000015,-4.974124930325469
-0.13670000000000004,-5.017980980621284
-0.13770000000000016,-4.974124930325469
-0.13870000000000005,-5.017980980621284
-0.13970000000000016,-4.974124930325469
-0.14070000000000005,-4.974124930325469
-0.14170000000000016,-4.974124930325469
-0.14270000000000005,-4.9302688800296535
-0.14370000000000016,-4.9302688800296535
-0.14470000000000005,-4.887827541033701
-0.14570000000000016,-4.887827541033701
-0.14670000000000005,-4.843971490737885
-0.14770000000000016,-4.843971490737885
-0.14870000000000005,-4.843971490737885
-0.14970000000000017,-4.843971490737885
-0.15070000000000006,-4.800115440442069
-0.15170000000000017,-4.843971490737885
-0.15270000000000006,-4.843971490737885
-0.15370000000000017,-4.843971490737885
-0.15470000000000006,-4.843971490737885
-0.15570000000000017,-4.800115440442069
-0.15670000000000006,-4.756259390146253
-0.15770000000000017,-4.756259390146253
-0.15870000000000006,-4.756259390146253
-0.15970000000000018,-4.712403339850438
-0.16070000000000007,-4.712403339850438
-0.16170000000000018,-4.712403339850438
-0.16270000000000007,-4.668547289554621
-0.16370000000000018,-4.712403339850438
-0.16470000000000007,-4.712403339850438
-0.16570000000000018,-4.712403339850438
-0.16670000000000007,-4.712403339850438
-0.16770000000000018,-4.712403339850438
-0.16870000000000007,-4.668547289554621
-0.16970000000000018,-4.668547289554621
-0.17070000000000007,-4.668547289554621
-0.17170000000000019,-4.626105950558669
-0.17270000000000008,-4.626105950558669
-0.1737000000000002,-4.626105950558669
-0.17470000000000008,-4.626105950558669
-0.1757000000000002,-4.582249900262854
-0.17670000000000008,-4.626105950558669
-0.1777000000000002,-4.626105950558669
-0.17870000000000008,-4.626105950558669
-0.1797000000000002,-4.668547289554621
-0.18070000000000008,-4.626105950558669
-0.1817000000000002,-4.626105950558669
-0.18270000000000008,-4.626105950558669
-0.1837000000000002,-4.582249900262854
-0.1847000000000001,-4.582249900262854
-0.1857000000000002,-4.538393849967037
-0.1867000000000001,-4.538393849967037
-0.1877000000000002,-4.538393849967037
-0.1887000000000001,-4.538393849967037
-0.1897000000000002,-4.538393849967037
-0.1907000000000001,-4.582249900262854
-0.1917000000000001,-4.582249900262854
-0.19269999999999998,-4.582249900262854
-0.1937000000000001,-4.582249900262854
-0.19469999999999998,-4.582249900262854
-0.1957000000000001,-4.582249900262854
-0.19669999999999999,-4.538393849967037
-0.1977000000000001,-4.538393849967037
-0.1987,-4.538393849967037
-0.1997000000000001,-4.538393849967037
-0.2007,-4.494537799671222
-0.2017000000000001,-4.494537799671222
-0.2027,-4.494537799671222
-0.2037000000000001,-4.538393849967037
-0.2047,-4.538393849967037
-0.2057000000000001,-4.538393849967037
-0.2067,-4.538393849967037
-0.2077000000000001,-4.538393849967037
-0.2087,-4.538393849967037
-0.2097000000000001,-4.538393849967037
-0.2107,-4.494537799671222
-0.2117000000000001,-4.494537799671222
-0.2127,-4.494537799671222
-0.2137000000000001,-4.450681749375406
-0.2147,-4.450681749375406
-0.2157000000000001,-4.494537799671222
-0.2167,-4.494537799671222
-0.21770000000000012,-4.494537799671222
-0.2187,-4.538393849967037
-0.21970000000000012,-4.538393849967037
-0.2207,-4.538393849967037
-0.22170000000000012,-4.494537799671222
-0.2227,-4.494537799671222
-0.22370000000000012,-4.494537799671222
-0.2247,-4.450681749375406
-0.22570000000000012,-4.450681749375406
-0.2267,-4.450681749375406
-0.22770000000000012,-4.450681749375406
-0.22870000000000001,-4.450681749375406
-0.22970000000000013,-4.450681749375406
-0.23070000000000002,-4.450681749375406
-0.23170000000000013,-4.494537799671222
-0.23270000000000002,-4.494537799671222
-0.23370000000000013,-4.494537799671222
-0.23470000000000002,-4.450681749375406
-0.23570000000000013,-4.450681749375406
-0.23670000000000002,-4.450681749375406
-0.2376999999999999,-4.450681749375406
-0.23870000000000002,-4.406825699079589
-0.2396999999999999,-4.406825699079589
-0.24070000000000003,-4.406825699079589
-0.24169999999999991,-4.406825699079589
-0.24270000000000003,-4.406825699079589
-0.24369999999999992,-4.406825699079589
-0.24470000000000003,-4.450681749375406
-0.24569999999999992,-4.450681749375406
-0.24670000000000003,-4.450681749375406
-0.24769999999999992,-4.450681749375406
-0.24870000000000003,-4.450681749375406
-0.24969999999999992,-4.406825699079589
-0.25070000000000003,-4.406825699079589
-0.2516999999999999,-4.406825699079589
-0.25270000000000004,-4.364384360083638
-0.2536999999999999,-4.364384360083638
-0.25470000000000004,-4.364384360083638
-0.2556999999999999,-4.364384360083638
-0.25670000000000004,-4.406825699079589
-0.25769999999999993,-4.406825699079589
-0.25870000000000004,-4.406825699079589
-0.25969999999999993,-4.406825699079589
-0.26070000000000004,-4.406825699079589
-0.26169999999999993,-4.406825699079589
-0.26270000000000004,-4.406825699079589
-0.26369999999999993,-4.364384360083638
-0.26470000000000005,-4.364384360083638
-0.26569999999999994,-4.364384360083638
-0.26670000000000005,-4.3205283097878215
-0.26769999999999994,-4.3205283097878215
-0.26870000000000005,-4.3205283097878215
-0.26969999999999994,-4.364384360083638
-0.27070000000000005,-4.364384360083638
-0.27169999999999994,-4.364384360083638
-0.27270000000000005,-4.364384360083638
-0.27369999999999994,-4.364384360083638
-0.27470000000000006,-4.364384360083638
-0.27569999999999995,-4.364384360083638
-0.27670000000000006,-4.3205283097878215
-0.27769999999999995,-4.3205283097878215
-0.27870000000000006,-4.3205283097878215
-0.27969999999999995,-4.3205283097878215
-0.28070000000000006,-4.3205283097878215
-0.28169999999999995,-4.3205283097878215
-0.28270000000000006,-4.3205283097878215
-0.28369999999999995,-4.364384360083638
-0.28470000000000006,-4.3205283097878215
-0.28569999999999995,-4.364384360083638
-0.28670000000000007,-4.364384360083638
-0.28769999999999996,-4.364384360083638
-0.28870000000000007,-4.364384360083638
-0.28969999999999996,-4.364384360083638
-0.29070000000000007,-4.3205283097878215
-0.29169999999999996,-4.3205283097878215
-0.29270000000000007,-4.3205283097878215
-0.29369999999999996,-4.3205283097878215
-0.2947000000000001,-4.3205283097878215
-0.29569999999999996,-4.3205283097878215
-0.2967000000000001,-4.364384360083638
-0.29769999999999996,-4.364384360083638
-0.2987000000000001,-4.364384360083638
-0.29969999999999997,-4.364384360083638
-0.3007000000000001,-4.406825699079589
-0.30169999999999997,-4.364384360083638
-0.3027000000000001,-4.406825699079589
-0.30369999999999997,-4.364384360083638
-0.3047000000000001,-4.364384360083638
-0.30569999999999997,-4.364384360083638
-0.3067000000000001,-4.364384360083638
-0.3077,-4.364384360083638
-0.3087000000000001,-4.364384360083638
-0.3097,-4.406825699079589
-0.3107000000000001,-4.406825699079589
-0.3117,-4.406825699079589
-0.3127000000000001,-4.450681749375406
-0.3137,-4.494537799671222
-0.3147000000000001,-4.494537799671222
-0.3157,-4.494537799671222
-0.3167000000000001,-4.450681749375406
-0.3177,-4.450681749375406
-0.3187000000000001,-4.450681749375406
-0.3197,-4.450681749375406
-0.3207000000000001,-4.494537799671222
-0.3217,-4.494537799671222
-0.3227000000000001,-4.538393849967037
-0.3237,-4.538393849967037
-0.3247000000000001,-4.582249900262854
-0.3257,-4.582249900262854
-0.3267000000000001,-4.626105950558669
-0.3277,-4.626105950558669
-0.3287000000000001,-4.626105950558669
-0.3297,-4.626105950558669
-0.3307000000000001,-4.626105950558669
-0.3317,-4.668547289554621
-0.3327000000000001,-4.668547289554621
-0.3337,-4.668547289554621
-0.3347000000000001,-4.712403339850438
-0.3357,-4.712403339850438
-0.3367000000000001,-4.756259390146253
-0.3377,-4.800115440442069
-0.3387000000000001,-4.800115440442069
-0.3397,-4.843971490737885
-0.3407000000000001,-4.887827541033701
-0.3417,-4.887827541033701
-0.3427000000000001,-4.9302688800296535
-0.3437,-4.9302688800296535
-0.3447000000000001,-4.9302688800296535
-0.3457,-4.974124930325469
-0.3467000000000001,-4.974124930325469
-0.3477,-5.017980980621284
-0.3487000000000001,-5.0618370309171015
-0.3497,-5.0618370309171015
-0.3507000000000001,-5.149549131508733
-0.3517,-5.191990470504685
-0.3527000000000001,-5.235846520800501
-0.3537,-5.279702571096316
-0.3547000000000001,-5.323558621392133
-0.3557,-5.323558621392133
-0.35670000000000013,-5.367414671687949
-0.3577,-5.367414671687949
-0.35870000000000013,-5.411270721983764
-0.3597,-5.453712060979717
-0.36070000000000013,-5.497568111275533
-0.3617,-5.5414241615713475
-0.3626999999999999,-5.585280211867165
-0.3637,-5.629136262162981
-0.3646999999999999,-5.715433651454749
-0.3657,-5.759289701750564
-0.3666999999999999,-5.80314575204638
-0.3677,-5.847001802342197
-0.3686999999999999,-5.9347139029338285
-0.36970000000000003,-5.977155241929781
-0.3706999999999999,-6.021011292225596
-0.37170000000000003,-6.064867342521412
-0.3726999999999999,-6.108723392817228
-0.37370000000000003,-6.152579443113044
-0.3746999999999999,-6.238876832404812
-0.37570000000000003,-6.326588932996443
-0.3766999999999999,-6.37044498329226
-0.37770000000000004,-6.458157083883892
-0.3786999999999999,-6.54445447317566
-0.37970000000000004,-6.632166573767292
-0.3806999999999999,-6.719878674358924
-0.38170000000000004,-6.806176063650692
-0.38269999999999993,-6.850032113946507
-0.38370000000000004,-6.93774421453814
-0.38469999999999993,-7.024041603829907
-0.38570000000000004,-7.111753704421539
-0.38669999999999993,-7.199465805013171
-0.38770000000000004,-7.28576319430494
-0.38869999999999993,-7.37347529489657
-0.38970000000000005,-7.50504344578402
-0.39069999999999994,-7.635196885371603
-0.39170000000000005,-7.7653503249591855
-0.39269999999999994,-7.896918475846635
-0.39370000000000005,-8.027071915434218
-0.39469999999999994,-8.202496116617484
-0.39570000000000005,-8.288793505909249
-0.39669999999999994,-8.4203616567967
-0.39770000000000005,-8.594371146680096
-0.39869999999999994,-8.725939297567548
-0.39970000000000006,-8.899948787450944
-0.40069999999999995,-9.11781432763016
-0.40170000000000006,-9.335679867809377
-0.40269999999999995,-9.55496011928846
-0.40370000000000006,-9.81668170976349
-0.40469999999999995,-10.120844639234473
-0.40570000000000006,-10.470278330301136
-0.40669999999999995,-10.819712021367803
-0.40770000000000006,-11.211587051430415
-0.40869999999999995,-11.647318131788847
-0.40970000000000006,-12.084463923447142
-0.41069999999999995,-12.607907104397206
-0.41170000000000007,-13.13135028534727
-0.41269999999999996,-13.741090855589102
-0.41370000000000007,-14.401761032626075
-0.41469999999999996,-15.094969569559943
-0.41570000000000007,-15.87306078448571
-0.41669999999999996,-16.70774045140608
-0.41770000000000007,-17.584861457322408
-0.41869999999999996,-18.53271802823198
-0.4197000000000001,-19.537163051136158
-0.42069999999999996,-20.584049413036283
-0.4217000000000001,-21.729965565926964
-0.42269999999999996,-22.904175944814945
-0.4237000000000001,-24.120827662698876
-0.42469999999999997,-25.39406783257741
-0.4257000000000001,-26.69560222845324
-0.42669999999999997,-28.05372507632368
-0.4277000000000001,-29.440142150191413
-0.42869999999999997,-30.88314767605375
-0.4297000000000001,-32.32615320191609
-0.43069999999999997,-33.85404140577033
-0.4317000000000001,-35.38192960962457
-0.4327,-36.95225915247476
-0.4337000000000001,-38.46600024333035
-0.4347,-40.092918238175145
-0.4357000000000001,-41.66324778102533
-0.4367,-43.27601866287147
-0.4377000000000001,-44.88878954471762
-0.4387,-46.501560426563756
-0.4397000000000001,-48.114331308409895
-0.4407,-49.72710219025603
-0.4417000000000001,-51.33987307210218
-0.4427,-52.95264395394832
-0.4437000000000001,-54.56541483579447
-0.4447,-56.1781857176406
-0.4457000000000001,-57.79095659948675
-0.4467,-59.36128614233694
-0.4477000000000001,-60.974057024183075
-0.4487,-62.544386567033264
-0.4497000000000001,-64.11471610988345
-0.4507,-65.64260431373769
-0.4517000000000001,-67.25537519558385
-0.4527,-68.78326339943808
-0.4537000000000001,-70.31115160329232
-0.4547,-71.83903980714656
-0.4557000000000001,-73.3669280110008
-0.4567,-74.89481621485504
-0.4577000000000001,-76.42270441870929
-0.4587,-77.86570994457162
-0.4597000000000001,-79.33700969643127
-0.4607,-80.7800152222936
-0.4617000000000001,-82.18057940915998
-0.4627,-83.48211380503581
-0.4637000000000001,-84.7977953139103
-0.4647,-86.05688837079018
-0.4657000000000001,-87.33012854066871
-0.4667,-88.5892215975486
-0.4677000000000001,-89.80587331543254
-0.4687,-91.03667214631511
-0.4697000000000001,-92.25332386419905
-0.4707,-93.38509290409107
-0.4717000000000001,-94.55930328297906
-0.4727,-95.74766077486568
-0.4737000000000001,-96.83698847576176
-0.4747,-97.92631617665783
-0.4757000000000001,-99.05808521654988
-0.4767,-100.06253023945405
-0.4777000000000001,-101.10941660135417
-0.4787,-102.1563029632543
-0.4797000000000001,-103.11830664716253
-0.4807,-104.12275167006669
-0.48170000000000013,-105.16963803196683
-0.4827,-106.15993594187235
-0.48370000000000013,-107.16438096477653
-0.4847,-108.1688259876807
-0.48570000000000013,-109.17327101058488
-0.4867,-109.4845074965552
-0.48570000000000013,-108.64982782963483
-0.4847,-107.8292952757131
-0.48370000000000013,-107.03705694778867
-0.4827,-106.21652439386696
-0.48170000000000013,-105.42428606594254
-0.4807,-104.5471650600262
-0.4797000000000001,-103.81151518409638
-0.4787,-103.01927685617197
-0.4777000000000001,-102.28362698024215
-0.4767,-101.50553576531638
-0.4757000000000001,-100.75573877638791
-0.4747,-100.02008890045809
-0.4737000000000001,-99.22785057253368
-0.4727,-98.49220069660386
-0.4717000000000001,-97.6575210296835
-0.4707,-96.83698847576176
-0.4697000000000001,-96.00230880884139
-0.4687,-95.22421759391563
-0.4677000000000001,-94.38953792699526
-0.4667,-93.55485826007487
-0.4657000000000001,-92.73432570615316
-0.4647,-91.94208737822873
-0.4637000000000001,-91.16399616330297
-0.4627,-90.37175783537855
-0.4617000000000001,-89.59366662045278
-0.4607,-88.8438696315243
-0.4597000000000001,-88.06577841659853
