Potential V vs RHE, Current mA cm-2
0.013299999999999867,-0.6128529351015338
0.012299999999999978,-2.1828995356917518
0.011299999999999866,-3.5353635383627267
0.010299999999999976,-4.668547289554621
0.009299999999999864,-5.629136262162981
0.008299999999999974,-6.458157083883892
0.007299999999999862,-7.155609754717355
0.006299999999999972,-7.7653503249591855
0.00529999999999986,-8.288793505909249
0.0042999999999999705,-8.68208324727173
0.0032999999999998586,-9.073958277334345
0.0022999999999999687,-9.423391968401008
0.0012999999999998568,-9.685113558876042
0.00029999999999996696,-9.946835149351072
-0.000700000000000145,-10.120844639234473
-0.0017000000000000348,-10.296268840417738
-0.0027000000000001467,-10.470278330301136
-0.0037000000000000366,-10.644287820184536
-0.0047000000000001485,-10.731999920776168
-0.005700000000000038,-10.863568071663616
-0.00670000000000015,-10.949865460955383
-0.00770000000000004,-11.037577561547016
-0.008700000000000152,-11.123874950838783
-0.009700000000000042,-11.1677310011346
-0.010700000000000154,-11.211587051430415
-0.011700000000000044,-11.299299152022046
-0.012700000000000156,-11.343155202317865
-0.013700000000000045,-11.385596541313816
-0.014700000000000157,-11.385596541313816
-0.015700000000000047,-11.385596541313816
-0.01670000000000016,-11.42945259160963
-0.01770000000000005,-11.473308641905447
-0.01870000000000016,-11.473308641905447
-0.01970000000000005,-11.517164692201263
-0.020700000000000163,-11.517164692201263
-0.021700000000000053,-11.517164692201263
-0.022700000000000164,-11.517164692201263
-0.023700000000000054,-11.517164692201263
-0.024700000000000166,-11.56102074249708
-0.025700000000000056,-11.56102074249708
-0.026700000000000168,-11.604876792792895
-0.027700000000000058,-11.604876792792895
-0.02870000000000017,-11.604876792792895
-0.02970000000000006,-11.56102074249708
-0.03070000000000017,-11.604876792792895
-0.03170000000000006,-11.56102074249708
-0.03270000000000017,-11.56102074249708
-0.03370000000000006,-11.604876792792895
-0.034700000000000175,-11.56102074249708
-0.035700000000000065,-11.604876792792895
-0.03670000000000018,-11.604876792792895
-0.03770000000000007,-11.604876792792895
-0.03870000000000018,-11.647318131788847
-0.03970000000000007,-11.647318131788847
-0.04070000000000018,-11.604876792792895
-0.04170000000000007,-11.647318131788847
-0.04270000000000018,-11.647318131788847
-0.04370000000000007,-11.604876792792895
-0.044700000000000184,-11.604876792792895
-0.045700000000000074,-11.647318131788847
-0.046700000000000186,-11.647318131788847
-0.047700000000000076,-11.647318131788847
-0.04870000000000019,-11.647318131788847
-0.04970000000000008,-11.691174182084664
-0.05070000000000019,-11.691174182084664
-0.05170000000000008,-11.647318131788847
-0.05270000000000019,-11.647318131788847
-0.05370000000000008,-11.691174182084664
-0.05470000000000019,-11.691174182084664
-0.05570000000000008,-11.691174182084664
-0.056700000000000195,-11.691174182084664
-0.057700000000000085,-11.73503023238048
-0.058700000000000196,-11.691174182084664
-0.059700000000000086,-11.691174182084664
-0.0607000000000002,-11.691174182084664
-0.06170000000000009,-11.691174182084664
-0.0627000000000002,-11.73503023238048
-0.06370000000000009,-11.691174182084664
-0.0647000000000002,-11.691174182084664
-0.06570000000000009,-11.691174182084664
-0.0667000000000002,-11.691174182084664
-0.0677000000000001,-11.691174182084664
-0.0687000000000002,-11.691174182084664
-0.0697000000000001,-11.691174182084664
-0.07070000000000021,-11.691174182084664
-0.0717000000000001,-11.73503023238048
-0.07270000000000021,-11.691174182084664
-0.0737000000000001,-11.691174182084664
-0.07470000000000021,-11.691174182084664
-0.0757000000000001,-11.691174182084664
-0.07670000000000021,-11.691174182084664
-0.0777000000000001,-11.691174182084664
-0.07870000000000021,-11.647318131788847
-0.0797000000000001,-11.647318131788847
-0.08070000000000022,-11.691174182084664
-0.0817000000000001,-11.691174182084664
-0.08270000000000022,-11.73503023238048
-0.08370000000000011,-11.73503023238048
-0.08470000000000022,-11.691174182084664
-0.08570000000000011,-11.691174182084664
-0.08670000000000022,-11.691174182084664
-0.08770000000000011,-11.691174182084664
-0.08870000000000022,-11.691174182084664
-0.08970000000000011,-11.691174182084664
-0.09070000000000022,-11.647318131788847
-0.09170000000000011,-11.691174182084664
-0.09270000000000023,-11.647318131788847
-0.09370000000000012,-11.691174182084664
-0.09470000000000023,-11.691174182084664
-0.09570000000000012,-11.691174182084664
-0.09670000000000023,-11.691174182084664
-0.09770000000000012,-11.691174182084664
-0.09870000000000023,-11.647318131788847
-0.09970000000000012,-11.691174182084664
-0.10070000000000023,-11.647318131788847
-0.10170000000000012,-11.691174182084664
-0.10270000000000024,-11.73503023238048
-0.10370000000000013,-11.691174182084664
-0.10470000000000024,-11.691174182084664
-0.10570000000000013,-11.691174182084664
-0.10670000000000024,-11.647318131788847
-0.10770000000000013,-11.647318131788847
-0.10870000000000024,-11.647318131788847
-0.10970000000000013,-11.647318131788847
-0.11070000000000024,-11.691174182084664
-0.11170000000000013,-11.691174182084664
-0.11270000000000002,-11.691174182084664
-0.11370000000000013,-11.691174182084664
-0.11470000000000002,-11.691174182084664
-0.11570000000000014,-11.647318131788847
-0.11670000000000003,-11.691174182084664
-0.11770000000000014,-11.691174182084664
-0.11870000000000003,-11.73503023238048
-0.11970000000000014,-11.73503023238048
-0.12070000000000003,-11.73503023238048
-0.12170000000000014,-11.691174182084664
-0.12270000000000003,-11.691174182084664
-0.12370000000000014,-11.691174182084664
-0.12470000000000003,-11.73503023238048
-0.12570000000000014,-11.778886282676295
-0.12670000000000003,-11.73503023238048
-0.12770000000000015,-11.73503023238048
-0.12870000000000004,-11.778886282676295
-0.12970000000000015,-11.778886282676295
-0.13070000000000004,-11.82274233297211
-0.13170000000000015,-11.86659838326793
-0.13270000000000004,-11.82274233297211
-0.13370000000000015,-11.86659838326793
-0.13470000000000004,-11.86659838326793
-0.13570000000000015,-11.86659838326793
-0.13670000000000004,-11.86659838326793
-0.13770000000000016,-11.909039722263879
-0.13870000000000005,-11.909039722263879
-0.13970000000000016,-11.952895772559694
-0.14070000000000005,-11.952895772559694
-0.14170000000000016,-11.952895772559694
-0.14270000000000005,-11.996751822855511
-0.14370000000000016,-11.996751822855511
-0.14470000000000005,-12.040607873151327
-0.14570000000000016,-12.040607873151327
-0.14670000000000005,-12.084463923447142
-0.14770000000000016,-12.084463923447142
-0.14870000000000005,-12.084463923447142
-0.14970000000000017,-12.084463923447142
-0.15070000000000006,-12.084463923447142
-0.15170000000000017,-12.084463923447142
-0.15270000000000006,-12.084463923447142
-0.15370000000000017,-12.084463923447142
-0.15470000000000006,-12.084463923447142
-0.15570000000000017,-12.12831997374296
-0.15670000000000006,-12.12831997374296
-0.15770000000000017,-12.12831997374296
-0.15870000000000006,-12.170761312738911
-0.15970000000000018,-12.170761312738911
-0.16070000000000007,-12.12831997374296
-0.16170000000000018,-12.12831997374296
-0.16270000000000007,-12.12831997374296
-0.16370000000000018,-12.12831997374296
-0.16470000000000007,-12.170761312738911
-0.16570000000000018,-12.170761312738911
-0.16670000000000007,-12.214617363034726
-0.16770000000000018,-12.214617363034726
-0.16870000000000007,-12.258473413330542
-0.16970000000000018,-12.258473413330542
-0.17070000000000007,-12.302329463626359
-0.17170000000000019,-12.346185513922174
-0.17270000000000008,-12.346185513922174
-0.1737000000000002,-12.390041564217992
-0.17470000000000008,-12.390041564217992
-0.1757000000000002,-12.390041564217992
-0.17670000000000008,-12.432482903213943
-0.1777000000000002,-12.432482903213943
-0.17870000000000008,-12.432482903213943
-0.1797000000000002,-12.476338953509758
-0.18070000000000008,-12.520195003805576
-0.1817000000000002,-12.476338953509758
-0.18270000000000008,-12.520195003805576
-0.1837000000000002,-12.56405105410139
-0.1847000000000001,-12.56405105410139
-0.1857000000000002,-12.651763154693022
-0.1867000000000001,-12.607907104397206
-0.1877000000000002,-12.651763154693022
-0.1887000000000001,-12.694204493688973
-0.1897000000000002,-12.694204493688973
-0.1907000000000001,-12.694204493688973
-0.1917000000000001,-12.73806054398479
-0.19269999999999998,-12.73806054398479
-0.1937000000000001,-12.781916594280606
-0.19469999999999998,-12.781916594280606
-0.1957000000000001,-12.825772644576423
-0.19669999999999999,-12.869628694872238
-0.1977000000000001,-12.869628694872238
-0.1987,-12.869628694872238
-0.1997000000000001,-12.913484745168056
-0.2007,-12.99978213445982
-0.2017000000000001,-12.955926084164007
-0.2027,-12.99978213445982
-0.2037000000000001,-13.087494235051453
-0.2047,-13.087494235051453
-0.2057000000000001,-13.13135028534727
-0.2067,-13.175206335643086
-0.2077000000000001,-13.175206335643086
-0.2087,-13.217647674639037
-0.2097000000000001,-13.217647674639037
-0.2107,-13.261503724934855
-0.2117000000000001,-13.30535977523067
-0.2127,-13.30535977523067
-0.2137000000000001,-13.349215825526485
-0.2147,-13.3930718758223
-0.2157000000000001,-13.47936926511407
-0.2167,-13.523225315409885
-0.21770000000000012,-13.567081365705702
-0.2187,-13.610937416001518
-0.21970000000000012,-13.654793466297335
-0.2207,-13.654793466297335
-0.22170000000000012,-13.698649516593148
-0.2227,-13.741090855589102
-0.22370000000000012,-13.784946905884919
-0.2247,-13.828802956180734
-0.22570000000000012,-13.872659006476551
-0.2267,-13.916515056772363
-0.22770000000000012,-13.960371107068182
-0.22870000000000001,-14.046668496359947
-0.22970000000000013,-14.090524546655764
-0.23070000000000002,-14.175407224647667
-0.23170000000000013,-14.217848563643619
-0.23270000000000002,-14.26028990263957
-0.23370000000000013,-14.30273124163552
-0.23470000000000002,-14.401761032626075
-0.23570000000000013,-14.444202371622024
-0.23670000000000002,-14.529085049613924
-0.2376999999999999,-14.57152638860988
-0.23870000000000002,-14.61396772760583
-0.2396999999999999,-14.69885040559773
-0.24070000000000003,-14.741291744593681
-0.24169999999999991,-14.783733083589633
-0.24270000000000003,-14.868615761581536
-0.24369999999999992,-14.967645552572087
-0.24470000000000003,-15.01008689156804
-0.24569999999999992,-15.094969569559943
-0.24670000000000003,-15.179852247551842
-0.24769999999999992,-15.222293586547794
-0.24870000000000003,-15.349617603535648
-0.24969999999999992,-15.3920589425316
-0.25070000000000003,-15.491088733522153
-0.2516999999999999,-15.618412750510005
-0.25270000000000004,-15.660854089505953
-0.2536999999999999,-15.74573676749786
-0.25470000000000004,-15.830619445489761
-0.2556999999999999,-15.91550212348166
-0.25670000000000004,-16.014531914472215
-0.25769999999999993,-16.141855931460068
-0.25870000000000004,-16.22673860945197
-0.25969999999999993,-16.311621287443874
-0.26070000000000004,-16.438945304431726
-0.26169999999999993,-16.53797509542228
-0.26270000000000004,-16.665299112410132
-0.26369999999999993,-16.750181790402035
-0.26470000000000005,-16.877505807389888
-0.26569999999999994,-16.962388485381787
-0.26670000000000005,-17.103859615368293
-0.26769999999999994,-17.231183632356142
-0.26870000000000005,-17.316066310348052
-0.26969999999999994,-17.4433903273359
-0.27070000000000005,-17.584861457322408
-0.27169999999999994,-17.75462681330621
-0.27270000000000005,-17.881950830294063
-0.27369999999999994,-18.009274847281915
-0.27470000000000006,-18.10830463827247
-0.27569999999999995,-18.27806999425627
-0.27670000000000006,-18.40539401124413
-0.27769999999999995,-18.53271802823198
-0.27870000000000006,-18.716630497214435
-0.27969999999999995,-18.88639585319824
-0.28070000000000006,-19.01371987018609
-0.28169999999999995,-19.197632339168546
-0.28270000000000006,-19.409839034148305
-0.28369999999999995,-19.537163051136158
-0.28470000000000006,-19.721075520118614
-0.28569999999999995,-19.890840876102416
-0.28670000000000007,-20.01816489309027
-0.28769999999999996,-20.159636023076775
-0.28870000000000007,-20.371842718056527
-0.28969999999999996,-20.541608074040333
-0.29070000000000007,-20.810403221014692
-0.29169999999999996,-20.980168576998494
-0.29270000000000007,-21.2065223849769
-0.29369999999999996,-21.461170418952605
-0.2947000000000001,-21.67337711393236
-0.29569999999999996,-21.814848243918867
-0.2967000000000001,-22.027054938898623
-0.29769999999999996,-22.196820294882425
-0.2987000000000001,-22.42317410286083
-0.29969999999999997,-22.63538079784059
-0.3007000000000001,-22.904175944814945
-0.30169999999999997,-23.1163826397947
-0.3027000000000001,-23.427619125765005
-0.30369999999999997,-23.682267159740714
-0.3047000000000001,-23.951062306715073
-0.30569999999999997,-24.24815167968673
-0.3067000000000001,-24.432064148669184
-0.3077,-24.729153521640843
-0.3087000000000001,-24.95550732961925
-0.3097,-25.252596702590903
-0.3107000000000001,-25.521391849565262
-0.3117,-25.81848122253692
-0.3127000000000001,-26.129717708507226
-0.3137,-26.440954194477534
-0.3147000000000001,-26.738043567449193
-0.3157,-27.00683871442355
-0.3167000000000001,-27.303928087395207
-0.3177,-27.615164573365515
-0.3187000000000001,-27.954695285333123
-0.3197,-28.22349043230748
-0.3207000000000001,-28.53472691827779
-0.3217,-28.789374952253496
-0.3227000000000001,-29.100611438223805
-0.3237,-29.35525947219951
-0.3247000000000001,-29.66649595816982
-0.3257,-29.96358533114148
-0.3267000000000001,-30.359704495103685
-0.3277,-30.71338232006995
-0.3287000000000001,-31.010471693041605
-0.3297,-31.23682550102001
-0.3307000000000001,-31.49147353499572
-0.3317,-31.717827342974125
-0.3327000000000001,-32.01491671594578
-0.3337,-32.45347721890394
-0.3347000000000001,-32.84959638286615
-0.3357,-33.231568433829715
-0.3367000000000001,-33.627687597791926
-0.3377,-34.02380676175414
-0.3387000000000001,-34.377484586720385
-0.3397,-34.75945663768395
-0.3407000000000001,-35.198017140642115
-0.3417,-35.679018982596226
-0.3427000000000001,-36.16002082455034
-0.3437,-36.64102266650445
-0.3447000000000001,-37.07958316946261
-0.3457,-37.51814367242077
-0.3467000000000001,-37.99914551437489
-0.3477,-38.46600024333035
-0.3487000000000001,-39.046031876275016
-0.3497,-39.51288660523048
-0.3507000000000001,-40.092918238175145
-0.3517,-40.616361419125205
-0.3527000000000001,-41.139804600075266
-0.3537,-41.70568912002128
-0.3547000000000001,-42.2715736399673
-0.3557,-42.837458159913304
-0.35670000000000013,-43.40334267985933
-0.3577,-43.92678586080939
-0.35870000000000013,-44.4077877027635
-0.3597,-44.93123088371356
-0.36070000000000013,-45.497115403659585
-0.3617,-46.02055858460964
-0.3626999999999999,-46.586443104555656
-0.3637,-47.19476896349763
-0.3646999999999999,-47.76065348344364
-0.3657,-48.32653800338966
-0.3666999999999999,-48.80753984534376
-0.3677,-49.33098302629383
-0.3686999999999999,-49.89686754623985
-0.36970000000000003,-50.46275206618586
-0.3706999999999999,-50.98619524713592
-0.37170000000000003,-51.594521106077885
-0.3726999999999999,-52.11796428702795
-0.37370000000000003,-52.69799591997262
-0.3746999999999999,-53.26388043991864
-0.37570000000000003,-53.7873236208687
-0.3766999999999999,-54.31076680181876
-0.37770000000000004,-54.876651321764776
-0.3786999999999999,-55.484977180706736
-0.37970000000000004,-56.05086170065276
-0.3806999999999999,-56.70162889859067
-0.38170000000000004,-57.30995475753264
-0.38269999999999993,-57.93242772947325
-0.38370000000000004,-58.583194927411164
-0.38469999999999993,-59.23396212534908
-0.38570000000000004,-59.842287984291055
-0.38669999999999993,-59.23396212534908
-0.38570000000000004,-56.61674622059877
-0.38469999999999993,-54.39564947981066
-0.38370000000000004,-52.55652478998611
-0.38269999999999993,-50.943753908139975
-0.38170000000000004,-49.50074838227763
-0.3806999999999999,-48.1992139864018
-0.37970000000000004,-46.94012092952192
-0.3786999999999999,-45.85079322862584
-0.37770000000000004,-44.74731841473111
-0.3766999999999999,-43.75702050482558
-0.37570000000000003,-42.837458159913304
-0.3746999999999999,-41.91789581500104
-0.37370000000000003,-41.04077480908471
-0.3726999999999999,-40.135359577171094
-0.37170000000000003,-39.258238571254765
-0.3706999999999999,-38.46600024333035
-0.36970000000000003,-37.645467689408626
-0.3686999999999999,-36.81078802248826
-0.3677,-36.07513814655844
-0.3666999999999999,-35.282899818634014
-0.3657,-34.50480860370825
-0.3646999999999999,-33.712570275783825
-0.3637,-32.97692039985401
-0.3626999999999999,-32.32615320191609
-0.3617,-31.57635621298762
-0.36070000000000013,-30.88314767605375
-0.3597,-30.232380478115836
-0.35870000000000013,-29.581613280177915
-0.3577,-28.831816291249446
-0.35670000000000013,-28.18104909331153
-0.3557,-27.43125210438306
-0.3547000000000001,-26.738043567449193
-0.3537,-26.044835030515326
-0.3527000000000001,-25.43650917157336
-0.3517,-24.814036199632742
-0.3507000000000001,-24.24815167968673
-0.3497,-23.639825820744765
-0.3487000000000001,-23.073941300798747
-0.3477,-22.508056780852733
-0.3467000000000001,-21.899730921910766
-0.3457,-21.376287740960702
-0.3447000000000001,-20.810403221014692
-0.3437,-20.202077362072725
-0.3427000000000001,-19.636192842126707
-0.3417,-19.112749661176647
-0.3407000000000001,-18.53271802823198
-0.3397,-18.009274847281915
-0.3387000000000001,-17.48583166633185
-0.3377,-16.919947146385837
-0.3367000000000001,-16.396503965435777
-0.3357,-15.91550212348166
-0.3347000000000001,-15.349617603535648
-0.3337,-14.868615761581536
-0.3327000000000001,-14.401761032626075
-0.3317,-13.916515056772363
-0.3307000000000001,-13.3930718758223
-0.3297,-12.955926084164007
-0.3287000000000001,-12.432482903213943
-0.3277,-11.996751822855511
-0.3267000000000001,-11.517164692201263
-0.3257,-11.037577561547016
-0.3247000000000001,-10.601846481188586
-0.3237,-10.120844639234473
-0.3227000000000001,-9.685113558876042
-0.3217,-9.24938247851761
-0.3207000000000001,-8.812236686859313
-0.3197,-8.4203616567967
-0.3187000000000001,-8.027071915434218
-0.3177,-7.591340835075788
-0.3167000000000001,-7.199465805013171
-0.3157,-6.762320013354876
-0.3147000000000001,-6.414301033588076
-0.3137,-6.021011292225596
-0.3127000000000001,-5.629136262162981
-0.3117,-5.235846520800501
-0.3107000000000001,-4.887827541033701
-0.3097,-4.538393849967037
-0.3087000000000001,-4.146518819904423
-0.3077,-3.7970851288377587
-0.3067000000000001,-3.447651437771094
-0.30569999999999997,-3.0996324580042955
-0.3047000000000001,-2.7501987669376318
-0.30369999999999997,-2.4007650758709675
-0.3027000000000001,-2.095187435100119
-0.30169999999999997,-1.7910245056291363
-0.3007000000000001,-1.4415908145624723
-0.29969999999999997,-1.1798692240874404
-0.2987000000000001,-0.8745745255765657
-0.29769999999999996,-0.5692798270656908
-0.2967000000000001,-0.26384365742482935
-0.29569999999999996,0.04140859974704963
-0.2947000000000001,0.3467457395969205
-0.29369999999999996,0.6084673300719523
-0.29270000000000007,0.9137620285828272
-0.29169999999999996,1.175483619057859
-0.29070000000000007,1.3934906303670611
-0.28969999999999996,1.6990682711379093
-0.28870000000000007,1.9607898616129409
-0.28769999999999996,2.178655401792157
-0.28670000000000007,2.4842330425630044
-0.28569999999999995,2.70209858274222
-0.28470000000000006,2.919964122921436
-0.28369999999999995,3.1816857133964676
-0.28270000000000006,3.3995512535756833
-0.28169999999999995,3.6174167937548987
-0.28070000000000006,3.8366970452339793
-0.27969999999999995,4.054562585413195
-0.27870000000000006,4.316284175888227
-0.27769999999999995,4.534149716067443
-0.27670000000000006,4.708159205950842
-0.27569999999999995,4.926024746130058
-0.27470000000000006,5.101448947313322
-0.27369999999999994,5.275458437196722
-0.27270000000000005,5.449467927080121
-0.27169999999999994,5.624892128263387
-0.27070000000000005,5.8427576684426015
-0.26969999999999994,5.9729111080301855
-0.26870000000000005,6.1907766482094
