June 27, 2026   00:45:23
Cyclic Voltammetry
File: c:/users/guazh/data/20260623_doe_duplica2/2026-06-24-exp19\exp19-2026-06-27t00_16_04-h2koh\exp19_cv_sr_800mvs_efin_-1900mv.bin
Data Source:  Experiment
Instrument Model:  CHI760E
Header: CV ran at 800 mVs
Note: 

Init E (V) = -1
High E (V) = -1
Low E (V) = -1.9
Final E (V) = -1
Init P/N = N
Scan Rate (V/s) = 0.8
Segment = 3
Sample Interval (V) = 0.001
Quiet Time (sec) = 2
Sensitivity (A/V) = 0.01
Comp R (ohm) = 3.4

Results:

Channel 1:
Segment 1:

Segment 2:

Segment 3:

Potential/V, Current/A

-1.000, 1.559e-7
-1.001, 3.239e-6
-1.002, 1.559e-7
-1.003, 3.239e-6
-1.004, 3.239e-6
-1.005, 3.239e-6
-1.006, 3.239e-6
-1.007, 3.239e-6
-1.008, 3.239e-6
-1.009, 3.239e-6
-1.010, 3.239e-6
-1.011, 3.239e-6
-1.012, 3.239e-6
-1.013, 3.239e-6
-1.014, 3.239e-6
-1.015, 3.239e-6
-1.016, 3.239e-6
-1.017, 3.239e-6
-1.018, 6.322e-6
-1.019, 3.239e-6
-1.020, 3.239e-6
-1.021, 3.239e-6
-1.022, 6.322e-6
-1.023, 6.322e-6
-1.024, 6.322e-6
-1.025, 3.239e-6
-1.026, 6.322e-6
-1.027, 6.322e-6
-1.028, 6.322e-6
-1.029, 3.239e-6
-1.030, 6.322e-6
-1.031, 6.322e-6
-1.032, 6.322e-6
-1.033, 6.322e-6
-1.034, 6.322e-6
-1.035, 6.322e-6
-1.036, 6.322e-6
-1.037, 6.322e-6
-1.038, 6.322e-6
-1.039, 6.322e-6
-1.040, 6.322e-6
-1.041, 6.322e-6
-1.042, 6.322e-6
-1.043, 6.322e-6
-1.044, 6.322e-6
-1.045, 6.322e-6
-1.046, 6.322e-6
-1.047, 6.322e-6
-1.048, 6.322e-6
-1.049, 6.322e-6
-1.050, 6.322e-6
-1.051, 6.322e-6
-1.052, 6.322e-6
-1.053, 6.322e-6
-1.054, 6.322e-6
-1.055, 6.322e-6
-1.056, 6.322e-6
-1.057, 6.322e-6
-1.058, 6.322e-6
-1.059, 9.405e-6
-1.060, 6.322e-6
-1.061, 9.405e-6
-1.062, 6.322e-6
-1.063, 6.322e-6
-1.064, 6.322e-6
-1.065, 6.322e-6
-1.066, 6.322e-6
-1.067, 6.322e-6
-1.068, 6.322e-6
-1.069, 6.322e-6
-1.070, 6.322e-6
-1.071, 9.405e-6
-1.072, 6.322e-6
-1.073, 6.322e-6
-1.074, 6.322e-6
-1.075, 6.322e-6
-1.076, 6.322e-6
-1.077, 9.405e-6
-1.078, 9.405e-6
-1.079, 9.405e-6
-1.080, 6.322e-6
-1.081, 9.405e-6
-1.082, 6.322e-6
-1.083, 9.405e-6
-1.084, 9.405e-6
-1.085, 9.405e-6
-1.086, 6.322e-6
-1.087, 9.405e-6
-1.088, 9.405e-6
-1.089, 9.405e-6
-1.090, 6.322e-6
-1.091, 9.405e-6
-1.092, 9.405e-6
-1.093, 9.405e-6
-1.094, 9.405e-6
-1.095, 6.322e-6
-1.096, 9.405e-6
-1.097, 9.405e-6
-1.098, 9.405e-6
-1.099, 9.405e-6
-1.100, 9.405e-6
-1.101, 9.405e-6
-1.102, 9.405e-6
-1.103, 9.405e-6
-1.104, 9.405e-6
-1.105, 9.405e-6
-1.106, 9.405e-6
-1.107, 9.405e-6
-1.108, 9.405e-6
-1.109, 9.405e-6
-1.110, 9.405e-6
-1.111, 9.405e-6
-1.112, 9.405e-6
-1.113, 9.405e-6
-1.114, 9.405e-6
-1.115, 9.405e-6
-1.116, 9.405e-6
-1.117, 9.405e-6
-1.118, 9.405e-6
-1.119, 9.405e-6
-1.120, 9.405e-6
-1.121, 9.405e-6
-1.122, 9.405e-6
-1.123, 9.405e-6
-1.124, 9.405e-6
-1.125, 9.405e-6
-1.126, 9.405e-6
-1.127, 9.405e-6
-1.128, 9.405e-6
-1.129, 9.405e-6
-1.130, 9.405e-6
-1.131, 9.405e-6
-1.132, 9.405e-6
-1.133, 9.405e-6
-1.134, 9.405e-6
-1.135, 9.405e-6
-1.136, 9.405e-6
-1.137, 9.405e-6
-1.138, 9.405e-6
-1.139, 1.249e-5
-1.140, 9.405e-6
-1.141, 9.405e-6
-1.142, 9.405e-6
-1.143, 9.405e-6
-1.144, 9.405e-6
-1.145, 9.405e-6
-1.146, 9.405e-6
-1.147, 9.405e-6
-1.148, 9.405e-6
-1.149, 9.405e-6
-1.150, 9.405e-6
-1.151, 1.249e-5
-1.152, 9.405e-6
-1.153, 1.249e-5
-1.154, 9.405e-6
-1.155, 1.249e-5
-1.156, 1.249e-5
-1.157, 1.249e-5
-1.158, 1.249e-5
-1.159, 1.249e-5
-1.160, 1.249e-5
-1.161, 9.405e-6
-1.162, 1.249e-5
-1.163, 1.249e-5
-1.164, 1.249e-5
-1.165, 1.249e-5
-1.166, 1.249e-5
-1.167, 9.405e-6
-1.168, 1.249e-5
-1.169, 1.249e-5
-1.170, 1.249e-5
-1.171, 1.249e-5
-1.172, 1.249e-5
-1.173, 1.249e-5
-1.174, 1.249e-5
-1.175, 9.405e-6
-1.176, 1.249e-5
-1.177, 1.249e-5
-1.178, 1.249e-5
-1.179, 1.249e-5
-1.180, 1.249e-5
-1.181, 1.249e-5
-1.182, 1.249e-5
-1.183, 9.405e-6
-1.184, 1.249e-5
-1.185, 1.249e-5
-1.186, 1.249e-5
-1.187, 1.249e-5
-1.188, 1.249e-5
-1.189, 1.249e-5
-1.190, 1.249e-5
-1.191, 1.249e-5
-1.192, 1.249e-5
-1.193, 1.249e-5
-1.194, 1.249e-5
-1.195, 1.249e-5
-1.196, 1.249e-5
-1.197, 1.249e-5
-1.198, 1.249e-5
-1.199, 1.249e-5
-1.200, 1.249e-5
-1.201, 1.249e-5
-1.202, 1.249e-5
-1.203, 1.249e-5
-1.204, 1.249e-5
-1.205, 1.249e-5
-1.206, 1.249e-5
-1.207, 1.249e-5
-1.208, 1.249e-5
-1.209, 1.249e-5
-1.210, 1.249e-5
-1.211, 1.249e-5
-1.212, 1.249e-5
-1.213, 1.249e-5
-1.214, 1.249e-5
-1.215, 1.249e-5
-1.216, 1.249e-5
-1.217, 1.249e-5
-1.218, 1.249e-5
-1.219, 1.557e-5
-1.220, 1.249e-5
-1.221, 1.249e-5
-1.222, 1.249e-5
-1.223, 1.249e-5
-1.224, 1.249e-5
-1.225, 1.557e-5
-1.226, 1.249e-5
-1.227, 1.249e-5
-1.228, 1.249e-5
-1.229, 1.249e-5
-1.230, 1.249e-5
-1.231, 1.249e-5
-1.232, 1.249e-5
-1.233, 1.249e-5
-1.234, 1.557e-5
-1.235, 1.249e-5
-1.236, 1.557e-5
-1.237, 1.249e-5
-1.238, 1.557e-5
-1.239, 1.557e-5
-1.240, 1.557e-5
-1.241, 1.249e-5
-1.242, 1.557e-5
-1.243, 1.249e-5
-1.244, 1.557e-5
-1.245, 1.557e-5
-1.246, 1.557e-5
-1.247, 1.557e-5
-1.248, 1.557e-5
-1.249, 1.557e-5
-1.250, 1.557e-5
-1.251, 1.557e-5
-1.252, 1.557e-5
-1.253, 1.557e-5
-1.254, 1.557e-5
-1.255, 1.249e-5
-1.256, 1.557e-5
-1.257, 1.557e-5
-1.258, 1.557e-5
-1.259, 1.557e-5
-1.260, 1.557e-5
-1.261, 1.557e-5
-1.262, 1.557e-5
-1.263, 1.557e-5
-1.264, 1.557e-5
-1.265, 1.557e-5
-1.266, 1.557e-5
-1.267, 1.557e-5
-1.268, 1.557e-5
-1.269, 1.557e-5
-1.270, 1.557e-5
-1.271, 1.557e-5
-1.272, 1.557e-5
-1.273, 1.557e-5
-1.274, 1.557e-5
-1.275, 1.557e-5
-1.276, 1.557e-5
-1.277, 1.557e-5
-1.278, 1.557e-5
-1.279, 1.557e-5
-1.280, 1.557e-5
-1.281, 1.557e-5
-1.282, 1.557e-5
-1.283, 1.557e-5
-1.284, 1.557e-5
-1.285, 1.865e-5
-1.286, 1.557e-5
-1.287, 1.865e-5
-1.288, 1.557e-5
-1.289, 1.865e-5
-1.290, 1.557e-5
-1.291, 1.557e-5
-1.292, 1.865e-5
-1.293, 1.865e-5
-1.294, 1.557e-5
-1.295, 1.865e-5
-1.296, 1.865e-5
-1.297, 1.865e-5
-1.298, 1.865e-5
-1.299, 1.865e-5
-1.300, 1.865e-5
-1.301, 1.865e-5
-1.302, 1.865e-5
-1.303, 1.557e-5
-1.304, 1.865e-5
-1.305, 1.865e-5
-1.306, 1.865e-5
-1.307, 1.865e-5
-1.308, 1.865e-5
-1.309, 1.865e-5
-1.310, 1.865e-5
-1.311, 1.865e-5
-1.312, 1.865e-5
-1.313, 1.865e-5
-1.314, 1.865e-5
-1.315, 1.865e-5
-1.316, 1.865e-5
-1.317, 1.865e-5
-1.318, 1.865e-5
-1.319, 1.865e-5
-1.320, 1.865e-5
-1.321, 1.865e-5
-1.322, 1.865e-5
-1.323, 1.865e-5
-1.324, 1.865e-5
-1.325, 1.865e-5
-1.326, 1.865e-5
-1.327, 1.865e-5
-1.328, 1.865e-5
-1.329, 1.865e-5
-1.330, 1.865e-5
-1.331, 1.865e-5
-1.332, 1.865e-5
-1.333, 1.865e-5
-1.334, 1.865e-5
-1.335, 1.865e-5
-1.336, 1.865e-5
-1.337, 1.865e-5
-1.338, 1.865e-5
-1.339, 2.174e-5
-1.340, 1.865e-5
-1.341, 1.865e-5
-1.342, 2.174e-5
-1.343, 2.174e-5
-1.344, 2.174e-5
-1.345, 2.174e-5
-1.346, 1.865e-5
-1.347, 2.174e-5
-1.348, 1.865e-5
-1.349, 2.174e-5
-1.350, 2.174e-5
-1.351, 2.174e-5
-1.352, 2.174e-5
-1.353, 2.174e-5
-1.354, 2.174e-5
-1.355, 2.174e-5
-1.356, 2.174e-5
-1.357, 2.174e-5
-1.358, 2.174e-5
-1.359, 2.174e-5
-1.360, 2.174e-5
-1.361, 2.174e-5
-1.362, 2.174e-5
-1.363, 2.482e-5
-1.364, 2.482e-5
-1.365, 2.482e-5
-1.366, 2.174e-5
-1.367, 2.174e-5
-1.368, 2.482e-5
-1.369, 2.482e-5
-1.370, 2.482e-5
-1.371, 2.174e-5
-1.372, 2.482e-5
-1.373, 2.482e-5
-1.374, 2.174e-5
-1.375, 2.482e-5
-1.376, 2.482e-5
-1.377, 2.482e-5
-1.378, 2.482e-5
-1.379, 2.482e-5
-1.380, 2.482e-5
-1.381, 2.482e-5
-1.382, 2.482e-5
-1.383, 2.482e-5
-1.384, 2.482e-5
-1.385, 2.482e-5
-1.386, 2.482e-5
-1.387, 2.482e-5
-1.388, 2.482e-5
-1.389, 2.482e-5
-1.390, 2.790e-5
-1.391, 2.790e-5
-1.392, 2.790e-5
-1.393, 2.790e-5
-1.394, 2.790e-5
-1.395, 2.790e-5
-1.396, 2.790e-5
-1.397, 2.790e-5
-1.398, 2.790e-5
-1.399, 2.790e-5
-1.400, 2.790e-5
-1.401, 2.790e-5
-1.402, 2.790e-5
-1.403, 2.790e-5
-1.404, 2.790e-5
-1.405, 3.099e-5
-1.406, 2.790e-5
-1.407, 3.099e-5
-1.408, 3.099e-5
-1.409, 3.099e-5
-1.410, 3.099e-5
-1.411, 3.099e-5
-1.412, 3.099e-5
-1.413, 3.099e-5
-1.414, 3.099e-5
-1.415, 3.099e-5
-1.416, 3.099e-5
-1.417, 3.099e-5
-1.418, 3.099e-5
-1.419, 3.099e-5
-1.420, 3.407e-5
-1.421, 3.099e-5
-1.422, 3.099e-5
-1.423, 3.407e-5
-1.424, 3.407e-5
-1.425, 3.407e-5
-1.426, 3.407e-5
-1.427, 3.407e-5
-1.428, 3.407e-5
-1.429, 3.715e-5
-1.430, 3.407e-5
-1.431, 3.715e-5
-1.432, 3.407e-5
-1.433, 3.715e-5
-1.434, 3.715e-5
-1.435, 3.715e-5
-1.436, 3.715e-5
-1.437, 3.715e-5
-1.438, 3.715e-5
-1.439, 3.715e-5
-1.440, 3.715e-5
-1.441, 3.715e-5
-1.442, 4.024e-5
-1.443, 4.024e-5
-1.444, 4.024e-5
-1.445, 4.024e-5
-1.446, 4.024e-5
-1.447, 4.024e-5
-1.448, 4.024e-5
-1.449, 4.024e-5
-1.450, 4.024e-5
-1.451, 4.024e-5
-1.452, 4.332e-5
-1.453, 4.024e-5
-1.454, 4.332e-5
-1.455, 4.332e-5
-1.456, 4.332e-5
-1.457, 4.332e-5
-1.458, 4.640e-5
-1.459, 4.332e-5
-1.460, 4.640e-5
-1.461, 4.332e-5
-1.462, 4.640e-5
-1.463, 4.640e-5
-1.464, 4.640e-5
-1.465, 4.640e-5
-1.466, 4.640e-5
-1.467, 4.949e-5
-1.468, 4.949e-5
-1.469, 4.949e-5
-1.470, 4.949e-5
-1.471, 4.949e-5
-1.472, 4.949e-5
-1.473, 4.949e-5
-1.474, 4.949e-5
-1.475, 5.257e-5
-1.476, 4.949e-5
-1.477, 5.257e-5
-1.478, 5.257e-5
-1.479, 5.257e-5
-1.480, 5.257e-5
-1.481, 5.565e-5
-1.482, 5.565e-5
-1.483, 5.565e-5
-1.484, 5.565e-5
-1.485, 5.565e-5
-1.486, 5.565e-5
-1.487, 5.873e-5
-1.488, 5.873e-5
-1.489, 5.873e-5
-1.490, 5.873e-5
-1.491, 5.873e-5
-1.492, 5.873e-5
-1.493, 6.182e-5
-1.494, 6.182e-5
-1.495, 6.182e-5
-1.496, 6.182e-5
-1.497, 6.182e-5
-1.498, 6.182e-5
-1.499, 6.182e-5
-1.500, 6.490e-5
-1.501, 6.490e-5
-1.502, 6.490e-5
-1.503, 6.490e-5
-1.504, 6.490e-5
-1.505, 6.798e-5
-1.506, 6.798e-5
-1.507, 6.798e-5
-1.508, 6.798e-5
-1.509, 7.107e-5
-1.510, 7.107e-5
-1.511, 7.107e-5
-1.512, 7.107e-5
-1.513, 7.107e-5
-1.514, 7.415e-5
-1.515, 7.415e-5
-1.516, 7.415e-5
-1.517, 7.415e-5
-1.518, 7.723e-5
-1.519, 7.723e-5
-1.520, 7.723e-5
-1.521, 7.723e-5
-1.522, 7.723e-5
-1.523, 8.032e-5
-1.524, 8.032e-5
-1.525, 8.032e-5
-1.526, 8.032e-5
-1.527, 8.340e-5
-1.528, 8.340e-5
-1.529, 8.340e-5
-1.530, 8.648e-5
-1.531, 8.340e-5
-1.532, 8.648e-5
-1.533, 8.648e-5
-1.534, 8.648e-5
-1.535, 8.648e-5
-1.536, 8.957e-5
-1.537, 8.957e-5
-1.538, 9.265e-5
-1.539, 9.265e-5
-1.540, 9.265e-5
-1.541, 9.573e-5
-1.542, 9.573e-5
-1.543, 9.573e-5
-1.544, 9.573e-5
-1.545, 9.882e-5
-1.546, 9.882e-5
-1.547, 9.882e-5
-1.548, 1.019e-4
-1.549, 1.019e-4
-1.550, 1.019e-4
-1.551, 1.050e-4
-1.552, 1.050e-4
-1.553, 1.050e-4
-1.554, 1.081e-4
-1.555, 1.081e-4
-1.556, 1.081e-4
-1.557, 1.111e-4
-1.558, 1.111e-4
-1.559, 1.142e-4
-1.560, 1.142e-4
-1.561, 1.173e-4
-1.562, 1.173e-4
-1.563, 1.204e-4
-1.564, 1.204e-4
-1.565, 1.235e-4
-1.566, 1.235e-4
-1.567, 1.235e-4
-1.568, 1.266e-4
-1.569, 1.266e-4
-1.570, 1.296e-4
-1.571, 1.327e-4
-1.572, 1.296e-4
-1.573, 1.327e-4
-1.574, 1.358e-4
-1.575, 1.358e-4
-1.576, 1.358e-4
-1.577, 1.389e-4
-1.578, 1.420e-4
-1.579, 1.420e-4
-1.580, 1.451e-4
-1.581, 1.481e-4
-1.582, 1.481e-4
-1.583, 1.481e-4
-1.584, 1.512e-4
-1.585, 1.543e-4
-1.586, 1.574e-4
-1.587, 1.574e-4
-1.588, 1.605e-4
-1.589, 1.605e-4
-1.590, 1.636e-4
-1.591, 1.666e-4
-1.592, 1.697e-4
-1.593, 1.697e-4
-1.594, 1.728e-4
-1.595, 1.759e-4
-1.596, 1.790e-4
-1.597, 1.821e-4
-1.598, 1.821e-4
-1.599, 1.851e-4
-1.600, 1.882e-4
-1.601, 1.913e-4
-1.602, 1.913e-4
-1.603, 1.944e-4
-1.604, 2.006e-4
-1.605, 2.006e-4
-1.606, 2.036e-4
-1.607, 2.098e-4
-1.608, 2.098e-4
-1.609, 2.129e-4
-1.610, 2.160e-4
-1.611, 2.191e-4
-1.612, 2.221e-4
-1.613, 2.252e-4
-1.614, 2.283e-4
-1.615, 2.345e-4
-1.616, 2.345e-4
-1.617, 2.406e-4
-1.618, 2.437e-4
-1.619, 2.468e-4
-1.620, 2.499e-4
-1.621, 2.561e-4
-1.622, 2.591e-4
-1.623, 2.653e-4
-1.624, 2.684e-4
-1.625, 2.746e-4
-1.626, 2.776e-4
-1.627, 2.838e-4
-1.628, 2.869e-4
-1.629, 2.900e-4
-1.630, 2.931e-4
-1.631, 3.023e-4
-1.632, 3.054e-4
-1.633, 3.085e-4
-1.634, 3.146e-4
-1.635, 3.208e-4
-1.636, 3.270e-4
-1.637, 3.331e-4
-1.638, 3.393e-4
-1.639, 3.455e-4
-1.640, 3.516e-4
-1.641, 3.547e-4
-1.642, 3.640e-4
-1.643, 3.670e-4
-1.644, 3.701e-4
-1.645, 3.794e-4
-1.646, 3.886e-4
-1.647, 3.948e-4
-1.648, 3.979e-4
-1.649, 4.071e-4
-1.650, 4.133e-4
-1.651, 4.195e-4
-1.652, 4.287e-4
-1.653, 4.380e-4
-1.654, 4.472e-4
-1.655, 4.534e-4
-1.656, 4.657e-4
-1.657, 4.719e-4
-1.658, 4.811e-4
-1.659, 4.873e-4
-1.660, 4.965e-4
-1.661, 5.058e-4
-1.662, 5.150e-4
-1.663, 5.243e-4
-1.664, 5.366e-4
-1.665, 5.459e-4
-1.666, 5.582e-4
-1.667, 5.705e-4
-1.668, 5.829e-4
-1.669, 5.921e-4
-1.670, 5.983e-4
-1.671, 6.106e-4
-1.672, 6.229e-4
-1.673, 6.322e-4
-1.674, 6.445e-4
-1.675, 6.599e-4
-1.676, 6.692e-4
-1.677, 6.815e-4
-1.678, 6.969e-4
-1.679, 7.124e-4
-1.680, 7.247e-4
-1.681, 7.432e-4
-1.682, 7.555e-4
-1.683, 7.709e-4
-1.684, 7.894e-4
-1.685, 8.018e-4
-1.686, 8.141e-4
-1.687, 8.326e-4
-1.688, 8.480e-4
-1.689, 8.603e-4
-1.690, 8.819e-4
-1.691, 8.973e-4
-1.692, 9.158e-4
-1.693, 9.343e-4
-1.694, 9.590e-4
-1.695, 9.837e-4
-1.696, 9.991e-4
-1.697, 1.018e-3
-1.698, 1.039e-3
-1.699, 1.058e-3
-1.700, 1.079e-3
-1.701, 1.101e-3
-1.702, 1.119e-3
-1.703, 1.138e-3
-1.704, 1.169e-3
-1.705, 1.190e-3
-1.706, 1.215e-3
-1.707, 1.243e-3
-1.708, 1.270e-3
-1.709, 1.298e-3
-1.710, 1.320e-3
-1.711, 1.341e-3
-1.712, 1.372e-3
-1.713, 1.403e-3
-1.714, 1.434e-3
-1.715, 1.462e-3
-1.716, 1.492e-3
-1.717, 1.523e-3
-1.718, 1.554e-3
-1.719, 1.579e-3
-1.720, 1.613e-3
-1.721, 1.647e-3
-1.722, 1.677e-3
-1.723, 1.705e-3
-1.724, 1.751e-3
-1.725, 1.788e-3
-1.726, 1.828e-3
-1.727, 1.865e-3
-1.728, 1.899e-3
-1.729, 1.933e-3
-1.730, 1.970e-3
-1.731, 2.007e-3
-1.732, 2.054e-3
-1.733, 2.100e-3
-1.734, 2.140e-3
-1.735, 2.183e-3
-1.736, 2.229e-3
-1.737, 2.269e-3
-1.738, 2.312e-3
-1.739, 2.356e-3
-1.740, 2.399e-3
-1.741, 2.442e-3
-1.742, 2.494e-3
-1.743, 2.547e-3
-1.744, 2.602e-3
-1.745, 2.658e-3
-1.746, 2.707e-3
-1.747, 2.760e-3
-1.748, 2.809e-3
-1.749, 2.858e-3
-1.750, 2.914e-3
-1.751, 2.972e-3
-1.752, 3.034e-3
-1.753, 3.093e-3
-1.754, 3.151e-3
-1.755, 3.210e-3
-1.756, 3.265e-3
-1.757, 3.324e-3
-1.758, 3.379e-3
-1.759, 3.441e-3
-1.760, 3.509e-3
-1.761, 3.577e-3
-1.762, 3.641e-3
-1.763, 3.712e-3
-1.764, 3.783e-3
-1.765, 3.845e-3
-1.766, 3.910e-3
-1.767, 3.974e-3
-1.768, 4.048e-3
-1.769, 4.125e-3
-1.770, 4.202e-3
-1.771, 4.276e-3
-1.772, 4.347e-3
-1.773, 4.412e-3
-1.774, 4.486e-3
-1.775, 4.554e-3
-1.776, 4.631e-3
-1.777, 4.714e-3
-1.778, 4.797e-3
-1.779, 4.875e-3
-1.780, 4.952e-3
-1.781, 5.023e-3
-1.782, 5.100e-3
-1.783, 5.186e-3
-1.784, 5.275e-3
-1.785, 5.362e-3
-1.786, 5.451e-3
-1.787, 5.534e-3
-1.788, 5.614e-3
-1.789, 5.695e-3
-1.790, 5.784e-3
-1.791, 5.877e-3
-1.792, 5.966e-3
-1.793, 6.065e-3
-1.794, 6.148e-3
-1.795, 6.234e-3
-1.796, 6.330e-3
-1.797, 6.428e-3
-1.798, 6.527e-3
-1.799, 6.632e-3
-1.800, 6.734e-3
-1.801, 6.820e-3
-1.802, 6.909e-3
-1.803, 7.008e-3
-1.804, 7.110e-3
-1.805, 7.202e-3
-1.806, 7.298e-3
-1.807, 7.393e-3
-1.808, 7.492e-3
-1.809, 7.600e-3
-1.810, 7.705e-3
-1.811, 7.816e-3
-1.812, 7.924e-3
-1.813, 8.035e-3
-1.814, 8.133e-3
-1.815, 8.241e-3
-1.816, 8.349e-3
-1.817, 8.457e-3
-1.818, 8.562e-3
-1.819, 8.661e-3
-1.820, 8.772e-3
-1.821, 8.880e-3
-1.822, 8.991e-3
-1.823, 9.101e-3
-1.824, 9.216e-3
-1.825, 9.333e-3
-1.826, 9.450e-3
-1.827, 9.552e-3
-1.828, 9.644e-3
-1.829, 9.749e-3
-1.830, 9.866e-3
-1.831, 9.977e-3
-1.832, 1.008e-2
-1.833, 1.019e-2
-1.834, 1.031e-2
-1.835, 1.043e-2
-1.836, 1.055e-2
-1.837, 1.066e-2
-1.838, 1.077e-2
-1.839, 1.089e-2
-1.840, 1.101e-2
-1.841, 1.112e-2
-1.842, 1.124e-2
-1.843, 1.135e-2
-1.844, 1.144e-2
-1.845, 1.154e-2
-1.846, 1.168e-2
-1.847, 1.185e-2
-1.848, 1.195e-2
-1.849, 1.204e-2
-1.850, 1.217e-2
-1.851, 1.228e-2
-1.852, 1.239e-2
-1.853, 1.251e-2
-1.854, 1.263e-2
-1.855, 1.275e-2
-1.856, 1.288e-2
-1.857, 1.300e-2
-1.858, 1.312e-2
-1.859, 1.325e-2
-1.860, 1.338e-2
-1.861, 1.350e-2
-1.862, 1.362e-2
-1.863, 1.373e-2
-1.864, 1.385e-2
-1.865, 1.396e-2
-1.866, 1.408e-2
-1.867, 1.420e-2
-1.868, 1.432e-2
-1.869, 1.444e-2
-1.870, 1.458e-2
-1.871, 1.470e-2
-1.872, 1.482e-2
-1.873, 1.494e-2
-1.874, 1.506e-2
-1.875, 1.517e-2
-1.876, 1.525e-2
-1.877, 1.536e-2
-1.878, 1.549e-2
-1.879, 1.561e-2
-1.880, 1.572e-2
-1.881, 1.583e-2
-1.882, 1.595e-2
-1.883, 1.608e-2
-1.884, 1.622e-2
-1.885, 1.635e-2
-1.886, 1.647e-2
-1.887, 1.658e-2
-1.888, 1.668e-2
-1.889, 1.677e-2
-1.890, 1.690e-2
-1.891, 1.703e-2
-1.892, 1.715e-2
-1.893, 1.728e-2
-1.894, 1.740e-2
-1.895, 1.749e-2
-1.896, 1.758e-2
-1.897, 1.770e-2
-1.898, 1.783e-2
-1.899, 1.794e-2
-1.900, 1.800e-2
-1.899, 1.791e-2
-1.898, 1.780e-2
-1.897, 1.772e-2
-1.896, 1.762e-2
-1.895, 1.751e-2
-1.894, 1.739e-2
-1.893, 1.730e-2
-1.892, 1.722e-2
-1.891, 1.712e-2
-1.890, 1.703e-2
-1.889, 1.693e-2
-1.888, 1.683e-2
-1.887, 1.672e-2
-1.886, 1.661e-2
-1.885, 1.649e-2
-1.884, 1.640e-2
-1.883, 1.631e-2
-1.882, 1.622e-2
-1.881, 1.612e-2
-1.880, 1.602e-2
-1.879, 1.593e-2
-1.878, 1.582e-2
-1.877, 1.569e-2
-1.876, 1.559e-2
-1.875, 1.547e-2
-1.874, 1.535e-2
-1.873, 1.524e-2
-1.872, 1.512e-2
-1.871, 1.500e-2
-1.870, 1.490e-2
-1.869, 1.480e-2
-1.868, 1.468e-2
-1.867, 1.458e-2
-1.866, 1.448e-2
-1.865, 1.440e-2
-1.864, 1.433e-2
-1.863, 1.425e-2
-1.862, 1.414e-2
-1.861, 1.402e-2
-1.860, 1.390e-2
-1.859, 1.382e-2
-1.858, 1.379e-2
-1.857, 1.374e-2
-1.856, 1.365e-2
-1.855, 1.355e-2
-1.854, 1.345e-2
-1.853, 1.333e-2
-1.852, 1.321e-2
-1.851, 1.310e-2
-1.850, 1.299e-2
-1.849, 1.289e-2
-1.848, 1.280e-2
-1.847, 1.271e-2
-1.846, 1.262e-2
-1.845, 1.252e-2
-1.844, 1.242e-2
-1.843, 1.232e-2
-1.842, 1.221e-2
-1.841, 1.210e-2
-1.840, 1.201e-2
-1.839, 1.192e-2
-1.838, 1.183e-2
-1.837, 1.174e-2
-1.836, 1.164e-2
-1.835, 1.154e-2
-1.834, 1.148e-2
-1.833, 1.142e-2
-1.832, 1.132e-2
-1.831, 1.121e-2
-1.830, 1.111e-2
-1.829, 1.101e-2
-1.828, 1.091e-2
-1.827, 1.082e-2
-1.826, 1.073e-2
-1.825, 1.063e-2
-1.824, 1.054e-2
-1.823, 1.046e-2
-1.822, 1.039e-2
-1.821, 1.030e-2
-1.820, 1.022e-2
-1.819, 1.015e-2
-1.818, 1.005e-2
-1.817, 9.956e-3
-1.816, 9.872e-3
-1.815, 9.792e-3
-1.814, 9.712e-3
-1.813, 9.626e-3
-1.812, 9.527e-3
-1.811, 9.431e-3
-1.810, 9.327e-3
-1.809, 9.243e-3
-1.808, 9.154e-3
-1.807, 9.064e-3
-1.806, 8.997e-3
-1.805, 8.917e-3
-1.804, 8.824e-3
-1.803, 8.725e-3
-1.802, 8.639e-3
-1.801, 8.559e-3
-1.800, 8.485e-3
-1.799, 8.405e-3
-1.798, 8.325e-3
-1.797, 8.238e-3
-1.796, 8.155e-3
-1.795, 8.078e-3
-1.794, 8.007e-3
-1.793, 7.924e-3
-1.792, 7.831e-3
-1.791, 7.748e-3
-1.790, 7.686e-3
-1.789, 7.615e-3
-1.788, 7.538e-3
-1.787, 7.458e-3
-1.786, 7.378e-3
-1.785, 7.310e-3
-1.784, 7.239e-3
-1.783, 7.168e-3
-1.782, 7.101e-3
-1.781, 7.027e-3
-1.780, 6.946e-3
-1.779, 6.872e-3
-1.778, 6.805e-3
-1.777, 6.740e-3
-1.776, 6.672e-3
-1.775, 6.601e-3
-1.774, 6.527e-3
-1.773, 6.456e-3
-1.772, 6.388e-3
-1.771, 6.324e-3
-1.770, 6.253e-3
-1.769, 6.176e-3
-1.768, 6.102e-3
-1.767, 6.028e-3
-1.766, 5.966e-3
-1.765, 5.901e-3
-1.764, 5.843e-3
-1.763, 5.781e-3
-1.762, 5.725e-3
-1.761, 5.661e-3
-1.760, 5.593e-3
-1.759, 5.525e-3
-1.758, 5.460e-3
-1.757, 5.399e-3
-1.756, 5.343e-3
-1.755, 5.275e-3
-1.754, 5.208e-3
-1.753, 5.143e-3
-1.752, 5.081e-3
-1.751, 5.019e-3
-1.750, 4.967e-3
-1.749, 4.905e-3
-1.748, 4.850e-3
-1.747, 4.788e-3
-1.746, 4.723e-3
-1.745, 4.671e-3
-1.744, 4.622e-3
-1.743, 4.566e-3
-1.742, 4.514e-3
-1.741, 4.455e-3
-1.740, 4.397e-3
-1.739, 4.341e-3
-1.738, 4.276e-3
-1.737, 4.221e-3
-1.736, 4.172e-3
-1.735, 4.119e-3
-1.734, 4.067e-3
-1.733, 4.017e-3
-1.732, 3.971e-3
-1.731, 3.919e-3
-1.730, 3.869e-3
-1.729, 3.817e-3
-1.728, 3.765e-3
-1.727, 3.718e-3
-1.726, 3.666e-3
-1.725, 3.620e-3
-1.724, 3.570e-3
-1.723, 3.524e-3
-1.722, 3.475e-3
-1.721, 3.425e-3
-1.720, 3.379e-3
-1.719, 3.330e-3
-1.718, 3.278e-3
-1.717, 3.234e-3
-1.716, 3.191e-3
-1.715, 3.151e-3
-1.714, 3.111e-3
-1.713, 3.068e-3
-1.712, 3.025e-3
-1.711, 2.978e-3
-1.710, 2.938e-3
-1.709, 2.892e-3
-1.708, 2.849e-3
-1.707, 2.809e-3
-1.706, 2.769e-3
-1.705, 2.729e-3
-1.704, 2.692e-3
-1.703, 2.652e-3
-1.702, 2.621e-3
-1.701, 2.581e-3
-1.700, 2.541e-3
-1.699, 2.501e-3
-1.698, 2.464e-3
-1.697, 2.423e-3
-1.696, 2.383e-3
-1.695, 2.349e-3
-1.694, 2.319e-3
-1.693, 2.285e-3
-1.692, 2.251e-3
-1.691, 2.217e-3
-1.690, 2.183e-3
-1.689, 2.149e-3
-1.688, 2.115e-3
-1.687, 2.081e-3
-1.686, 2.047e-3
-1.685, 2.013e-3
-1.684, 1.986e-3
-1.683, 1.955e-3
-1.682, 1.924e-3
-1.681, 1.896e-3
-1.680, 1.869e-3
-1.679, 1.841e-3
-1.678, 1.813e-3
-1.677, 1.785e-3
-1.676, 1.754e-3
-1.675, 1.727e-3
-1.674, 1.699e-3
-1.673, 1.668e-3
-1.672, 1.640e-3
-1.671, 1.616e-3
-1.670, 1.585e-3
-1.669, 1.560e-3
-1.668, 1.532e-3
-1.667, 1.508e-3
-1.666, 1.483e-3
-1.665, 1.462e-3
-1.664, 1.437e-3
-1.663, 1.412e-3
-1.662, 1.391e-3
-1.661, 1.369e-3
-1.660, 1.344e-3
-1.659, 1.323e-3
-1.658, 1.298e-3
-1.657, 1.277e-3
-1.656, 1.252e-3
-1.655, 1.230e-3
-1.654, 1.212e-3
-1.653, 1.187e-3
-1.652, 1.169e-3
-1.651, 1.150e-3
-1.650, 1.132e-3
-1.649, 1.113e-3
-1.648, 1.095e-3
-1.647, 1.073e-3
-1.646, 1.058e-3
-1.645, 1.039e-3
-1.644, 1.021e-3
-1.643, 1.002e-3
-1.642, 9.837e-4
-1.641, 9.652e-4
-1.640, 9.467e-4
-1.639, 9.282e-4
-1.638, 9.128e-4
-1.637, 8.943e-4
-1.636, 8.788e-4
-1.635, 8.634e-4
-1.634, 8.480e-4
-1.633, 8.295e-4
-1.632, 8.172e-4
-1.631, 8.018e-4
-1.630, 7.894e-4
-1.629, 7.740e-4
-1.628, 7.586e-4
-1.627, 7.463e-4
-1.626, 7.339e-4
-1.625, 7.185e-4
-1.624, 7.062e-4
-1.623, 6.939e-4
-1.622, 6.815e-4
-1.621, 6.692e-4
-1.620, 6.538e-4
-1.619, 6.414e-4
-1.618, 6.322e-4
-1.617, 6.199e-4
-1.616, 6.044e-4
-1.615, 5.952e-4
-1.614, 5.829e-4
-1.613, 5.736e-4
-1.612, 5.613e-4
-1.611, 5.520e-4
-1.610, 5.428e-4
-1.609, 5.305e-4
-1.608, 5.212e-4
-1.607, 5.120e-4
-1.606, 5.027e-4
-1.605, 4.935e-4
-1.604, 4.842e-4
-1.603, 4.750e-4
-1.602, 4.657e-4
-1.601, 4.565e-4
-1.600, 4.472e-4
-1.599, 4.380e-4
-1.598, 4.287e-4
-1.597, 4.225e-4
-1.596, 4.133e-4
-1.595, 4.071e-4
-1.594, 3.979e-4
-1.593, 3.917e-4
-1.592, 3.825e-4
-1.591, 3.732e-4
-1.590, 3.670e-4
-1.589, 3.609e-4
-1.588, 3.547e-4
-1.587, 3.455e-4
-1.586, 3.393e-4
-1.585, 3.331e-4
-1.584, 3.270e-4
-1.583, 3.177e-4
-1.582, 3.146e-4
-1.581, 3.054e-4
-1.580, 3.023e-4
-1.579, 2.931e-4
-1.578, 2.900e-4
-1.577, 2.838e-4
-1.576, 2.776e-4
-1.575, 2.715e-4
-1.574, 2.653e-4
-1.573, 2.622e-4
-1.572, 2.561e-4
-1.571, 2.499e-4
-1.570, 2.468e-4
-1.569, 2.406e-4
-1.568, 2.376e-4
-1.567, 2.314e-4
-1.566, 2.283e-4
-1.565, 2.221e-4
-1.564, 2.191e-4
-1.563, 2.129e-4
-1.562, 2.098e-4
-1.561, 2.067e-4
-1.560, 2.006e-4
-1.559, 1.975e-4
-1.558, 1.913e-4
-1.557, 1.882e-4
-1.556, 1.851e-4
-1.555, 1.821e-4
-1.554, 1.759e-4
-1.553, 1.728e-4
-1.552, 1.697e-4
-1.551, 1.666e-4
-1.550, 1.636e-4
-1.549, 1.605e-4
-1.548, 1.574e-4
-1.547, 1.543e-4
-1.546, 1.481e-4
-1.545, 1.451e-4
-1.544, 1.420e-4
-1.543, 1.389e-4
-1.542, 1.389e-4
-1.541, 1.358e-4
-1.540, 1.296e-4
-1.539, 1.296e-4
-1.538, 1.266e-4
-1.537, 1.235e-4
-1.536, 1.204e-4
-1.535, 1.173e-4
-1.534, 1.142e-4
-1.533, 1.142e-4
-1.532, 1.081e-4
-1.531, 1.081e-4
-1.530, 1.050e-4
-1.529, 1.019e-4
-1.528, 1.019e-4
-1.527, 9.882e-5
-1.526, 9.573e-5
-1.525, 9.573e-5
-1.524, 9.265e-5
-1.523, 8.957e-5
-1.522, 8.957e-5
-1.521, 8.648e-5
-1.520, 8.340e-5
-1.519, 8.340e-5
-1.518, 8.032e-5
-1.517, 7.723e-5
-1.516, 7.723e-5
-1.515, 7.723e-5
-1.514, 7.415e-5
-1.513, 7.107e-5
-1.512, 7.107e-5
-1.511, 6.798e-5
-1.510, 6.798e-5
-1.509, 6.490e-5
-1.508, 6.490e-5
-1.507, 6.182e-5
-1.506, 6.182e-5
-1.505, 5.873e-5
-1.504, 5.873e-5
-1.503, 5.565e-5
-1.502, 5.873e-5
-1.501, 5.257e-5
-1.500, 5.257e-5
-1.499, 5.257e-5
-1.498, 5.257e-5
-1.497, 4.949e-5
-1.496, 4.640e-5
-1.495, 4.640e-5
-1.494, 4.640e-5
-1.493, 4.332e-5
-1.492, 4.332e-5
-1.491, 4.332e-5
-1.490, 4.024e-5
-1.489, 4.024e-5
-1.488, 4.024e-5
-1.487, 3.715e-5
-1.486, 3.715e-5
-1.485, 3.715e-5
-1.484, 3.407e-5
-1.483, 3.407e-5
-1.482, 3.407e-5
-1.481, 3.099e-5
-1.480, 3.099e-5
-1.479, 3.099e-5
-1.478, 2.790e-5
-1.477, 2.790e-5
-1.476, 2.790e-5
-1.475, 2.790e-5
-1.474, 2.482e-5
-1.473, 2.482e-5
-1.472, 2.482e-5
-1.471, 2.482e-5
-1.470, 2.174e-5
-1.469, 2.482e-5
-1.468, 2.174e-5
-1.467, 2.174e-5
-1.466, 2.174e-5
-1.465, 1.865e-5
-1.464, 1.865e-5
-1.463, 1.865e-5
-1.462, 1.865e-5
-1.461, 1.865e-5
-1.460, 1.557e-5
-1.459, 1.557e-5
-1.458, 1.557e-5
-1.457, 1.557e-5
-1.456, 1.249e-5
-1.455, 1.557e-5
-1.454, 1.249e-5
-1.453, 1.249e-5
-1.452, 1.249e-5
-1.451, 1.249e-5
-1.450, 1.249e-5
-1.449, 9.405e-6
-1.448, 1.249e-5
-1.447, 9.405e-6
-1.446, 9.405e-6
-1.445, 9.405e-6
-1.444, 9.405e-6
-1.443, 9.405e-6
-1.442, 9.405e-6
-1.441, 6.322e-6
-1.440, 9.405e-6
-1.439, 6.322e-6
-1.438, 6.322e-6
-1.437, 6.322e-6
-1.436, 6.322e-6
-1.435, 6.322e-6
-1.434, 6.322e-6
-1.433, 3.239e-6
-1.432, 3.239e-6
-1.431, 3.239e-6
-1.430, 3.239e-6
-1.429, 3.239e-6
-1.428, 3.239e-6
-1.427, 3.239e-6
-1.426, 3.239e-6
-1.425, 1.559e-7
-1.424, 1.559e-7
-1.423, 1.559e-7
-1.422, 1.559e-7
-1.421, 1.559e-7
-1.420, 1.559e-7
-1.419, 1.559e-7
-1.418, 1.559e-7
-1.417, 1.559e-7
-1.416, 1.559e-7
-1.415, 1.559e-7
-1.414, -2.927e-6
-1.413, -2.927e-6
-1.412, -2.927e-6
-1.411, -2.927e-6
-1.410, -2.927e-6
-1.409, -2.927e-6
-1.408, -2.927e-6
-1.407, -2.927e-6
-1.406, -2.927e-6
-1.405, -2.927e-6
-1.404, -2.927e-6
-1.403, -2.927e-6
-1.402, -2.927e-6
-1.401, -2.927e-6
-1.400, -2.927e-6
-1.399, -2.927e-6
-1.398, -6.010e-6
-1.397, -2.927e-6
-1.396, -6.010e-6
-1.395, -2.927e-6
-1.394, -6.010e-6
-1.393, -6.010e-6
-1.392, -6.010e-6
-1.391, -6.010e-6
-1.390, -6.010e-6
-1.389, -6.010e-6
-1.388, -6.010e-6
-1.387, -6.010e-6
-1.386, -6.010e-6
-1.385, -6.010e-6
-1.384, -6.010e-6
-1.383, -6.010e-6
-1.382, -6.010e-6
-1.381, -9.093e-6
-1.380, -6.010e-6
-1.379, -6.010e-6
-1.378, -6.010e-6
-1.377, -6.010e-6
-1.376, -6.010e-6
-1.375, -6.010e-6
-1.374, -6.010e-6
-1.373, -9.093e-6
-1.372, -6.010e-6
-1.371, -9.093e-6
-1.370, -6.010e-6
-1.369, -9.093e-6
-1.368, -9.093e-6
-1.367, -9.093e-6
-1.366, -9.093e-6
-1.365, -9.093e-6
-1.364, -9.093e-6
-1.363, -9.093e-6
-1.362, -9.093e-6
-1.361, -9.093e-6
-1.360, -9.093e-6
-1.359, -9.093e-6
-1.358, -9.093e-6
-1.357, -9.093e-6
-1.356, -9.093e-6
-1.355, -9.093e-6
-1.354, -9.093e-6
-1.353, -9.093e-6
-1.352, -1.218e-5
-1.351, -9.093e-6
-1.350, -9.093e-6
-1.349, -9.093e-6
-1.348, -9.093e-6
-1.347, -9.093e-6
-1.346, -9.093e-6
-1.345, -9.093e-6
-1.344, -1.218e-5
-1.343, -9.093e-6
-1.342, -9.093e-6
-1.341, -9.093e-6
-1.340, -9.093e-6
-1.339, -9.093e-6
-1.338, -1.218e-5
-1.337, -9.093e-6
-1.336, -9.093e-6
-1.335, -9.093e-6
-1.334, -9.093e-6
-1.333, -9.093e-6
-1.332, -9.093e-6
-1.331, -9.093e-6
-1.330, -1.218e-5
-1.329, -9.093e-6
-1.328, -1.218e-5
-1.327, -1.218e-5
-1.326, -1.218e-5
-1.325, -1.218e-5
-1.324, -1.218e-5
-1.323, -1.218e-5
-1.322, -9.093e-6
-1.321, -1.218e-5
-1.320, -1.218e-5
-1.319, -1.218e-5
-1.318, -1.218e-5
-1.317, -1.218e-5
-1.316, -9.093e-6
-1.315, -1.218e-5
-1.314, -9.093e-6
-1.313, -1.218e-5
-1.312, -1.218e-5
-1.311, -1.218e-5
-1.310, -1.218e-5
-1.309, -1.218e-5
-1.308, -1.218e-5
-1.307, -1.218e-5
-1.306, -1.218e-5
-1.305, -1.218e-5
-1.304, -9.093e-6
-1.303, -1.218e-5
-1.302, -9.093e-6
-1.301, -1.218e-5
-1.300, -1.218e-5
-1.299, -1.218e-5
-1.298, -1.218e-5
-1.297, -1.218e-5
-1.296, -1.218e-5
-1.295, -1.218e-5
-1.294, -1.218e-5
-1.293, -1.218e-5
-1.292, -1.218e-5
-1.291, -1.218e-5
-1.290, -1.218e-5
-1.289, -1.218e-5
-1.288, -1.218e-5
-1.287, -1.218e-5
-1.286, -1.218e-5
-1.285, -1.218e-5
-1.284, -1.218e-5
-1.283, -1.218e-5
-1.282, -1.218e-5
-1.281, -1.218e-5
-1.280, -1.218e-5
-1.279, -1.218e-5
-1.278, -1.218e-5
-1.277, -1.218e-5
-1.276, -1.218e-5
-1.275, -1.218e-5
-1.274, -1.218e-5
-1.273, -1.218e-5
-1.272, -1.218e-5
-1.271, -1.218e-5
-1.270, -1.218e-5
-1.269, -1.218e-5
-1.268, -1.218e-5
-1.267, -1.218e-5
-1.266, -1.218e-5
-1.265, -1.218e-5
-1.264, -1.218e-5
-1.263, -1.218e-5
-1.262, -1.218e-5
-1.261, -1.218e-5
-1.260, -1.218e-5
-1.259, -1.218e-5
-1.258, -1.218e-5
-1.257, -1.218e-5
-1.256, -1.218e-5
-1.255, -1.218e-5
-1.254, -1.218e-5
-1.253, -1.218e-5
-1.252, -1.218e-5
-1.251, -1.526e-5
-1.250, -1.218e-5
-1.249, -1.218e-5
-1.248, -1.218e-5
-1.247, -1.526e-5
-1.246, -1.218e-5
-1.245, -1.218e-5
-1.244, -1.218e-5
-1.243, -1.218e-5
-1.242, -1.218e-5
-1.241, -1.218e-5
-1.240, -1.218e-5
-1.239, -1.218e-5
-1.238, -1.218e-5
-1.237, -1.218e-5
-1.236, -1.218e-5
-1.235, -1.218e-5
-1.234, -1.218e-5
-1.233, -1.218e-5
-1.232, -1.218e-5
-1.231, -1.526e-5
-1.230, -1.218e-5
-1.229, -1.218e-5
-1.228, -1.218e-5
-1.227, -1.218e-5
-1.226, -1.526e-5
-1.225, -1.526e-5
-1.224, -1.526e-5
-1.223, -1.526e-5
-1.222, -1.526e-5
-1.221, -1.218e-5
-1.220, -1.526e-5
-1.219, -1.218e-5
-1.218, -1.526e-5
-1.217, -1.526e-5
-1.216, -1.526e-5
-1.215, -1.218e-5
-1.214, -1.526e-5
-1.213, -1.526e-5
-1.212, -1.218e-5
-1.211, -1.526e-5
-1.210, -1.526e-5
-1.209, -1.526e-5
-1.208, -1.218e-5
-1.207, -1.218e-5
-1.206, -1.526e-5
-1.205, -1.218e-5
-1.204, -1.526e-5
-1.203, -1.526e-5
-1.202, -1.218e-5
-1.201, -1.526e-5
-1.200, -1.218e-5
-1.199, -1.526e-5
-1.198, -1.526e-5
-1.197, -1.526e-5
-1.196, -1.526e-5
-1.195, -1.218e-5
-1.194, -1.526e-5
-1.193, -1.526e-5
-1.192, -1.526e-5
-1.191, -1.526e-5
-1.190, -1.526e-5
-1.189, -1.526e-5
-1.188, -1.218e-5
-1.187, -1.526e-5
-1.186, -1.526e-5
-1.185, -1.526e-5
-1.184, -1.526e-5
-1.183, -1.526e-5
-1.182, -1.218e-5
-1.181, -1.526e-5
-1.180, -1.526e-5
-1.179, -1.526e-5
-1.178, -1.526e-5
-1.177, -1.526e-5
-1.176, -1.526e-5
-1.175, -1.526e-5
-1.174, -1.526e-5
-1.173, -1.526e-5
-1.172, -1.526e-5
-1.171, -1.526e-5
-1.170, -1.526e-5
-1.169, -1.526e-5
-1.168, -1.526e-5
-1.167, -1.526e-5
-1.166, -1.526e-5
-1.165, -1.526e-5
-1.164, -1.526e-5
-1.163, -1.526e-5
-1.162, -1.526e-5
-1.161, -1.526e-5
-1.160, -1.526e-5
-1.159, -1.526e-5
-1.158, -1.526e-5
-1.157, -1.526e-5
-1.156, -1.526e-5
-1.155, -1.526e-5
-1.154, -1.526e-5
-1.153, -1.526e-5
-1.152, -1.526e-5
-1.151, -1.526e-5
-1.150, -1.526e-5
-1.149, -1.526e-5
-1.148, -1.526e-5
-1.147, -1.526e-5
-1.146, -1.526e-5
-1.145, -1.526e-5
-1.144, -1.526e-5
-1.143, -1.526e-5
-1.142, -1.526e-5
-1.141, -1.526e-5
-1.140, -1.526e-5
-1.139, -1.526e-5
-1.138, -1.834e-5
-1.137, -1.526e-5
-1.136, -1.526e-5
-1.135, -1.526e-5
-1.134, -1.526e-5
-1.133, -1.834e-5
-1.132, -1.526e-5
-1.131, -1.834e-5
-1.130, -1.526e-5
-1.129, -1.834e-5
-1.128, -1.526e-5
-1.127, -1.526e-5
-1.126, -1.526e-5
-1.125, -1.834e-5
-1.124, -1.526e-5
-1.123, -1.834e-5
-1.122, -1.526e-5
-1.121, -1.834e-5
-1.120, -1.526e-5
-1.119, -1.834e-5
-1.118, -1.526e-5
-1.117, -1.834e-5
-1.116, -1.526e-5
-1.115, -1.834e-5
-1.114, -1.526e-5
-1.113, -1.834e-5
-1.112, -1.834e-5
-1.111, -1.834e-5
-1.110, -1.834e-5
-1.109, -1.834e-5
-1.108, -1.834e-5
-1.107, -1.834e-5
-1.106, -1.834e-5
-1.105, -1.834e-5
-1.104, -1.834e-5
-1.103, -1.834e-5
-1.102, -1.526e-5
-1.101, -1.834e-5
-1.100, -1.834e-5
-1.099, -1.834e-5
-1.098, -1.834e-5
-1.097, -1.834e-5
-1.096, -1.834e-5
-1.095, -1.834e-5
-1.094, -1.834e-5
-1.093, -1.834e-5
-1.092, -1.834e-5
-1.091, -1.834e-5
-1.090, -1.834e-5
-1.089, -1.834e-5
-1.088, -1.834e-5
-1.087, -1.834e-5
-1.086, -1.834e-5
-1.085, -1.834e-5
-1.084, -2.143e-5
-1.083, -1.834e-5
-1.082, -1.834e-5
-1.081, -1.834e-5
-1.080, -1.834e-5
-1.079, -1.834e-5
-1.078, -2.143e-5
-1.077, -1.834e-5
-1.076, -1.834e-5
-1.075, -1.834e-5
-1.074, -2.143e-5
-1.073, -1.834e-5
-1.072, -2.143e-5
-1.071, -2.143e-5
-1.070, -2.143e-5
-1.069, -1.834e-5
-1.068, -2.143e-5
-1.067, -2.143e-5
-1.066, -2.143e-5
-1.065, -2.143e-5
-1.064, -2.143e-5
-1.063, -2.143e-5
-1.062, -2.143e-5
-1.061, -2.143e-5
-1.060, -2.143e-5
-1.059, -2.143e-5
-1.058, -2.143e-5
-1.057, -2.143e-5
-1.056, -2.143e-5
-1.055, -2.143e-5
-1.054, -2.143e-5
-1.053, -2.143e-5
-1.052, -2.143e-5
-1.051, -2.143e-5
-1.050, -2.143e-5
-1.049, -2.143e-5
-1.048, -2.143e-5
-1.047, -2.143e-5
-1.046, -2.143e-5
-1.045, -2.451e-5
-1.044, -2.451e-5
-1.043, -2.451e-5
-1.042, -2.143e-5
-1.041, -2.451e-5
-1.040, -2.451e-5
-1.039, -2.451e-5
-1.038, -2.451e-5
-1.037, -2.451e-5
-1.036, -2.451e-5
-1.035, -2.451e-5
-1.034, -2.451e-5
-1.033, -2.451e-5
-1.032, -2.451e-5
-1.031, -2.451e-5
-1.030, -2.451e-5
-1.029, -2.451e-5
-1.028, -2.451e-5
-1.027, -2.451e-5
-1.026, -2.451e-5
-1.025, -2.451e-5
-1.024, -2.759e-5
-1.023, -2.451e-5
-1.022, -2.759e-5
-1.021, -2.451e-5
-1.020, -2.759e-5
-1.019, -2.759e-5
-1.018, -2.759e-5
-1.017, -2.759e-5
-1.016, -2.759e-5
-1.015, -2.759e-5
-1.014, -2.759e-5
-1.013, -2.759e-5
-1.012, -2.759e-5
-1.011, -2.759e-5
-1.010, -2.759e-5
-1.009, -2.759e-5
-1.008, -2.759e-5
-1.007, -2.759e-5
-1.006, -2.759e-5
-1.005, -3.068e-5
-1.004, -3.068e-5
-1.003, -3.068e-5
-1.002, -3.068e-5
-1.001, -3.068e-5
