Potential V vs RHE, Current mA cm-2
0.013299999999999867,0.18773218949209036
0.012299999999999978,0.11280907905123803
0.011299999999999866,0.0728859261690467
0.010299999999999976,0.04147933531204288
0.009299999999999864,0.015943796349478963
0.008299999999999974,-0.007649343998370253
0.007299999999999862,-0.027190751183406005
0.006299999999999972,-0.04672791423454216
0.00529999999999986,-0.06487866021181057
0.0042999999999999705,-0.08106295748226659
0.0032999999999998586,-0.094601744621975
0.0022999999999999687,-0.10897521142860378
0.0012999999999998568,-0.12391456275517856
0.00029999999999996696,-0.13968859374867373
-0.000700000000000145,-0.1512326379555724
-0.0017000000000000348,-0.16212591496453319
-0.0027000000000001467,-0.17217036519357498
-0.0037000000000000366,-0.1847612957623738
-0.0047000000000001485,-0.19678634181122662
-0.005700000000000038,-0.20555755187038985
-0.00670000000000015,-0.21461170418952608
-0.00770000000000004,-0.22550498119848683
-0.008700000000000152,-0.23300295108777153
-0.009700000000000042,-0.24389622809673234
-0.010700000000000154,-0.25507244736566614
-0.011700000000000044,-0.25974099465522077
-0.012700000000000156,-0.27105868505414105
-0.013700000000000045,-0.2771419436435607
-0.014700000000000157,-0.2856302114427509
-0.015700000000000047,-0.29199641229214357
-0.01670000000000016,-0.29751378636161724
-0.01770000000000005,-0.30487028512091535
-0.01870000000000016,-0.30982177467044303
-0.01970000000000005,-0.3174612156897142
-0.020700000000000163,-0.3252421278389719
-0.021700000000000053,-0.32764713704874243
-0.022700000000000164,-0.3345792224180812
-0.023700000000000054,-0.3396721830975953
-0.024700000000000166,-0.34405778812717697
-0.025700000000000056,-0.3498581044566236
-0.026700000000000168,-0.35127281575648867
-0.027700000000000058,-0.35509253626612425
-0.02870000000000017,-0.3600440258156518
-0.02970000000000006,-0.3642881597152469
-0.03070000000000017,-0.3688152358748151
-0.03170000000000006,-0.37079583169462615
-0.03270000000000017,-0.37362525429435617
-0.03370000000000006,-0.37687909028404576
-0.034700000000000175,-0.3792840994938163
-0.035700000000000065,-0.38409411791335746
-0.03670000000000018,-0.38494294469327645
-0.03770000000000007,-0.386782069383101
-0.03870000000000018,-0.3881967806829661
-0.03970000000000007,-0.39088473215270964
-0.04070000000000018,-0.39258238571254767
-0.04170000000000007,-0.3944215104023722
-0.04270000000000018,-0.3947044526623452
-0.04370000000000007,-0.3965435773521698
-0.044700000000000184,-0.40008035560183236
-0.045700000000000074,-0.4014950669016974
-0.046700000000000186,-0.40390007611146794
-0.047700000000000076,-0.40432448950142746
-0.04870000000000019,-0.404748902891387
-0.04970000000000008,-0.40927597905095514
-0.05070000000000019,-0.4072953832311441
-0.05170000000000008,-0.4088515656609956
-0.05270000000000019,-0.4118224593907122
-0.05370000000000008,-0.4109736326107932
-0.05470000000000019,-0.4128127573006177
-0.05570000000000008,-0.41436893973046923
-0.056700000000000195,-0.41352011295055024
-0.057700000000000085,-0.4152177665103883
-0.058700000000000196,-0.4156421799003478
-0.059700000000000086,-0.4162080644202938
-0.0607000000000002,-0.41847160250007787
-0.06170000000000009,-0.4197448426699564
-0.0627000000000002,-0.4201692560599159
-0.06370000000000009,-0.42031072718990237
-0.0647000000000002,-0.42031072718990237
-0.06570000000000009,-0.42101808283983494
-0.0667000000000002,-0.42101808283983494
-0.0677000000000001,-0.42200838074974045
-0.0687000000000002,-0.4239889765695515
-0.0697000000000001,-0.423847505439565
-0.07070000000000021,-0.42469633221948405
-0.0717000000000001,-0.4251207456094435
-0.07270000000000021,-0.4254036878694165
-0.0737000000000001,-0.42724281255924107
-0.07470000000000021,-0.4280916393391601
-0.0757000000000001,-0.42823311046914664
-0.07670000000000021,-0.4280916393391601
-0.0777000000000001,-0.4279501682091736
-0.07870000000000021,-0.4293648795090386
-0.0797000000000001,-0.4306381196789172
-0.08070000000000022,-0.4319113598487957
-0.0817000000000001,-0.4314869464588362
-0.08270000000000022,-0.4316284175888227
-0.08370000000000011,-0.4348822535785123
-0.08470000000000022,-0.43459931131853924
-0.08570000000000011,-0.43403342679859325
-0.08670000000000022,-0.4333260711486608
-0.08770000000000011,-0.4370043205283098
-0.08870000000000022,-0.4370043205283098
-0.08970000000000011,-0.43983374312803997
-0.09070000000000022,-0.4379946184382154
-0.09170000000000011,-0.43884344521813434
-0.09270000000000023,-0.4405410987779724
-0.09370000000000012,-0.44096551216793195
-0.09470000000000023,-0.443794934767662
-0.09570000000000012,-0.443511992507689
-0.09670000000000023,-0.4459170017174596
-0.09770000000000012,-0.444926703807554
-0.09870000000000023,-0.44450229041759454
-0.09970000000000012,-0.4469072996273651
-0.10070000000000023,-0.44874642431718964
-0.10170000000000012,-0.4483220109272302
-0.10270000000000024,-0.4490293665771626
-0.10370000000000013,-0.45100996239697366
-0.10470000000000024,-0.45327350047675774
-0.10570000000000013,-0.4542637983866633
-0.10670000000000024,-0.45398085612669026
-0.10770000000000013,-0.4535564427367308
-0.10870000000000024,-0.4570932209863934
-0.10970000000000013,-0.45596145194650134
-0.11070000000000024,-0.45907381680620446
-0.11170000000000013,-0.45751763437635284
-0.11270000000000002,-0.4600641147161099
-0.11370000000000013,-0.461478826015975
-0.11470000000000002,-0.46374236409575903
-0.11570000000000014,-0.4661473733055296
-0.11670000000000003,-0.46487413313565107
-0.11770000000000014,-0.46685472895546215
-0.11870000000000003,-0.4684109113853136
-0.11970000000000014,-0.4703915072051247
-0.12070000000000003,-0.47025003607513816
-0.12170000000000014,-0.47265504528490876
-0.12270000000000003,-0.4730794586748682
-0.12370000000000014,-0.47392828545478727
-0.12470000000000003,-0.4760503524045848
-0.12570000000000014,-0.4784553616143554
-0.12670000000000003,-0.47831389048436895
-0.12770000000000015,-0.4795871306542474
-0.12870000000000004,-0.48284096664393705
-0.12970000000000015,-0.48708510054353216
-0.13070000000000004,-0.48552891811368054
-0.13170000000000015,-0.48609480263362664
-0.13270000000000004,-0.4882168695834242
-0.13370000000000015,-0.48977305201327564
-0.13470000000000004,-0.49387571478288433
-0.13570000000000015,-0.49458307043281674
-0.13670000000000004,-0.4935927725229112
-0.13770000000000016,-0.4971295507725738
-0.13870000000000005,-0.49882720433241184
-0.13970000000000016,-0.501656626932142
-0.14070000000000005,-0.5040616361419126
-0.14170000000000016,-0.5034957516219666
-0.14270000000000005,-0.5074569432615886
-0.14370000000000016,-0.5091545968214266
-0.14470000000000005,-0.5115596060311972
-0.14570000000000016,-0.5132572595910353
-0.14670000000000005,-0.5132572595910353
-0.14770000000000016,-0.5165110955807248
-0.14870000000000005,-0.519340518180455
-0.14970000000000017,-0.520189344960374
-0.15070000000000006,-0.5221699407801851
-0.15170000000000017,-0.5248578922499286
-0.15270000000000006,-0.5261311324198072
-0.15370000000000017,-0.5310826219693349
-0.15470000000000006,-0.5324973332691998
-0.15570000000000017,-0.5341949868290379
-0.15670000000000006,-0.5346194002189975
-0.15770000000000017,-0.5370244094287681
-0.15870000000000006,-0.5397123608985115
-0.15970000000000018,-0.5415514855883361
-0.16070000000000007,-0.5445223793180526
-0.16170000000000018,-0.5473518019177827
-0.16270000000000007,-0.5494738688675803
-0.16370000000000018,-0.553293589377216
-0.16470000000000007,-0.5562644831069326
-0.16570000000000018,-0.556405954236919
-0.16670000000000007,-0.559518319096622
-0.16770000000000018,-0.5627721550863116
-0.16870000000000007,-0.5653186354260686
-0.16970000000000018,-0.5682895291557853
-0.17070000000000007,-0.5687139425457448
-0.17170000000000019,-0.5725336630553803
-0.17270000000000008,-0.5745142588751914
-0.1737000000000002,-0.5755045567850969
-0.17470000000000008,-0.5817292865045031
-0.1757000000000002,-0.5832854689343547
-0.17670000000000008,-0.5852660647541656
-0.1777000000000002,-0.5895101986537608
-0.17870000000000008,-0.5910663810836124
-0.1797000000000002,-0.5946031593332749
-0.18070000000000008,-0.596866697413059
-0.1817000000000002,-0.599130235492843
-0.18270000000000008,-0.6025255426125191
-0.1837000000000002,-0.6066282053821278
-0.1847000000000001,-0.6101649836317904
-0.1857000000000002,-0.6118626371916284
-0.1867000000000001,-0.6139847041414259
-0.1877000000000002,-0.6172385401311155
-0.1887000000000001,-0.6206338472507915
-0.1897000000000002,-0.6248779811503866
-0.1907000000000001,-0.6286977016600223
-0.1917000000000001,-0.6305368263498469
-0.19269999999999998,-0.6328003644296308
-0.1937000000000001,-0.6386006807590775
-0.19469999999999998,-0.6436936414385916
-0.1957000000000001,-0.6434106991786186
-0.19669999999999999,-0.6489280732480923
-0.1977000000000001,-0.6516160247178359
-0.1987,-0.6538795627976199
-0.1997000000000001,-0.6595384079970801
-0.2007,-0.6622263594668236
-0.2017000000000001,-0.6664704933664187
-0.2027,-0.6690169737061759
-0.2037000000000001,-0.672412280825852
-0.2047,-0.6800517218451232
-0.2057000000000001,-0.6824567310548937
-0.2067,-0.6850032113946508
-0.2077000000000001,-0.6888229319042865
-0.2087,-0.6916523545040165
-0.2097000000000001,-0.6983014976133821
-0.2107,-0.7009894490831257
-0.2117000000000001,-0.7048091695927613
-0.2127,-0.710326543662235
-0.2137000000000001,-0.713721850781911
-0.2147,-0.7182489269414791
-0.2157000000000001,-0.7281519060405344
-0.2167,-0.7281519060405344
-0.21770000000000012,-0.7349425202798866
-0.2187,-0.7389037119195087
-0.21970000000000012,-0.7431478458191038
-0.2207,-0.7492311044085235
-0.22170000000000012,-0.7503628734484155
-0.2227,-0.7578608433377001
-0.22370000000000012,-0.7630952751472008
-0.2247,-0.7670564667868228
-0.22570000000000012,-0.7732811965062291
-0.2267,-0.77526179232604
-0.22770000000000012,-0.7814865220454462
-0.22870000000000001,-0.7888430208047444
-0.22970000000000013,-0.7964824618240156
-0.23070000000000002,-0.8001607112036647
-0.23170000000000013,-0.8062439697930843
-0.23270000000000002,-0.8102051614327065
-0.23370000000000013,-0.8164298911521127
-0.23470000000000002,-0.8253425723412624
-0.23570000000000013,-0.8302940618907901
-0.23670000000000002,-0.8356699648302772
-0.2376999999999999,-0.8407629255097913
-0.23870000000000002,-0.846563241839238
-0.2396999999999999,-0.8547685673784552
-0.24070000000000003,-0.8611347682278478
-0.24169999999999991,-0.867076555687281
-0.24270000000000003,-0.8754233523564846
-0.24369999999999992,-0.8795260151260933
-0.24470000000000003,-0.888721638575216
-0.24569999999999992,-0.8960781373345142
-0.24670000000000003,-0.9011710980140284
-0.24769999999999992,-0.9096593658132186
-0.24870000000000003,-0.9160255666626113
-0.24969999999999992,-0.9262114880216394
-0.25070000000000003,-0.9315873909611266
-0.2516999999999999,-0.9373877072905734
-0.25270000000000004,-0.9464418596097095
-0.2536999999999999,-0.9550715985388862
-0.25470000000000004,-0.9649745776379416
-0.2556999999999999,-0.9716237207473072
-0.25670000000000004,-0.9786972772466322
-0.25769999999999993,-0.9886002563456876
-0.25870000000000004,-0.9972299952748643
-0.25969999999999993,-1.004727965164149
-0.26070000000000004,-1.0140650597432583
-0.26169999999999993,-1.022128914152489
-0.26270000000000004,-1.0317489509915712
-0.26369999999999993,-1.041227516700667
-0.26470000000000005,-1.0499987267598303
-0.26569999999999994,-1.0615993594187236
-0.26670000000000005,-1.0719267519077382
-0.26769999999999994,-1.079990606316969
-0.26870000000000005,-1.090317998805984
-0.26969999999999994,-1.1003624490350257
-0.27070000000000005,-1.1101239570040942
-0.27169999999999994,-1.119319580453217
-0.27270000000000005,-1.1303543285921644
-0.27369999999999994,-1.1449258549807741
-0.27470000000000006,-1.153272651649978
-0.27569999999999995,-1.1655806399588036
-0.27670000000000006,-1.1761909747077914
-0.27769999999999995,-1.1862354249368332
-0.27870000000000006,-1.1986848843756457
-0.27969999999999995,-1.2118416994643904
-0.28070000000000006,-1.2221690919534054
-0.28169999999999995,-1.2332038400923524
-0.28270000000000006,-1.245936241791138
-0.28369999999999995,-1.2585271723599365
-0.28470000000000006,-1.2730986987485464
-0.28569999999999995,-1.2849822736674128
-0.28670000000000007,-1.2988464444060903
-0.28769999999999996,-1.3112959038449024
-0.28870000000000007,-1.3236038921537283
-0.28969999999999996,-1.340297485492136
-0.29070000000000007,-1.3509078202411233
-0.29169999999999996,-1.3659037600196928
-0.29270000000000007,-1.3814655843182082
-0.29369999999999996,-1.3958956395768316
-0.2947000000000001,-1.4113159927453605
-0.29569999999999996,-1.426028990263957
-0.2967000000000001,-1.4373466806628774
-0.29769999999999996,-1.4571526388609877
-0.2987000000000001,-1.471299751859638
-0.29969999999999997,-1.4882762874580184
-0.3007000000000001,-1.505252823056399
-0.30169999999999997,-1.5179852247551844
-0.3027000000000001,-1.5363764716534298
-0.30369999999999997,-1.5519382959519452
-0.3047000000000001,-1.5703295428501907
-0.30569999999999997,-1.5887207897484361
-0.3067000000000001,-1.6042826140469515
-0.3077,-1.6212591496453321
-0.3087000000000001,-1.6396503965435776
-0.3097,-1.6594563547416883
-0.3107000000000001,-1.6778476016399335
-0.3117,-1.696238848538179
-0.3127000000000001,-1.7160448067362895
-0.3137,-1.734436053634535
-0.3147000000000001,-1.7556567231325106
-0.3157,-1.774047970030756
-0.3167000000000001,-1.7938539282288664
-0.3177,-1.813659886426977
-0.3187000000000001,-1.8362952672248178
-0.3197,-1.857515936722793
-0.3207000000000001,-1.8787366062207687
-0.3217,-1.8985425644188794
-0.3227000000000001,-1.9197632339168547
-0.3237,-1.9438133260145605
-0.3247000000000001,-1.9664487068124006
-0.3257,-1.9890840876102414
-0.3267000000000001,-2.0103047571082175
-0.3277,-2.0357695605057877
-0.3287000000000001,-2.0569902300037635
-0.3297,-2.083869744701199
-0.3307000000000001,-2.1079198367989047
-0.3317,-2.1305552175967453
-0.3327000000000001,-2.156020020994316
-0.3337,-2.1800701130920217
-0.3347000000000001,-2.208364339089322
-0.3357,-2.2338291424868926
-0.3367000000000001,-2.2592939458844636
-0.3377,-2.286173460581899
-0.3387000000000001,-2.3130529752793345
-0.3397,-2.3413472012766356
-0.3407000000000001,-2.3696414272739363
-0.3417,-2.3951062306715074
-0.3427000000000001,-2.4234004566688077
-0.3437,-2.4545241052658384
-0.3447000000000001,-2.4814036199632743
-0.3457,-2.5111125572604402
-0.3467000000000001,-2.5408214945576058
-0.3477,-2.5691157205549064
-0.3487000000000001,-2.5988246578520724
-0.3497,-2.631363017748968
-0.3507000000000001,-2.661071955046134
-0.3517,-2.6907808923433
-0.3527000000000001,-2.7247339635400607
-0.3537,-2.7572723234369563
-0.3547000000000001,-2.788395972033987
-0.3557,-2.823763754530613
-0.35670000000000013,-2.8534726918277786
-0.3577,-2.888840474324405
-0.35870000000000013,-2.922793545521166
-0.3597,-2.9595760393176564
-0.36070000000000013,-2.9935291105144173
-0.3617,-3.028896893011044
-0.3626999999999999,-3.0628499642078046
-0.3637,-3.10104716930416
-0.3646999999999999,-3.1378296631006513
-0.3657,-3.174612156897142
-0.3666999999999999,-3.2128093619934983
-0.3677,-3.2481771444901244
-0.3686999999999999,-3.2892037721862106
-0.36970000000000003,-3.3302303998822964
-0.3706999999999999,-3.3670128936787878
-0.37170000000000003,-3.408039521374873
-0.3726999999999999,-3.4462367264712297
-0.37370000000000003,-3.4872633541673155
-0.3746999999999999,-3.5297046931632665
-0.37570000000000003,-3.572146032159218
-0.3766999999999999,-3.6117579485554394
-0.37770000000000004,-3.65702871015112
-0.3786999999999999,-3.698055337847206
-0.37970000000000004,-3.744740810742752
-0.3806999999999999,-3.788596861038568
-0.38170000000000004,-3.8310382000345196
-0.38269999999999993,-3.8777236729300655
-0.38370000000000004,-3.9244091458256123
-0.38469999999999993,-3.971094618721158
-0.38570000000000004,-4.0220242255163
-0.38669999999999993,-4.063050853212385
-0.38770000000000004,-4.113980460007527
-0.38869999999999993,-4.163495355502803
-0.38970000000000005,-4.217254384897673
-0.39069999999999994,-4.266769280392952
-0.39170000000000005,-4.317698887188092
-0.39269999999999994,-4.368628493983234
-0.39370000000000005,-4.420972812078239
-0.39469999999999994,-4.476146552772976
-0.39570000000000005,-4.527076159568118
-0.39669999999999994,-4.582249900262854
-0.39770000000000005,-4.63742364095759
-0.39869999999999994,-4.694012092952192
-0.39970000000000006,-4.750600544946793
-0.40069999999999995,-4.80860370824126
-0.40170000000000006,-4.865192160235861
-0.40269999999999995,-4.926024746130058
-0.40370000000000006,-4.985442620724389
-0.40469999999999995,-5.0420310727189905
-0.40570000000000006,-5.105693081212917
-0.40669999999999995,-5.166525667107114
-0.40770000000000006,-5.228772964301175
-0.40869999999999995,-5.293849684094967
-0.40970000000000006,-5.360341115188624
-0.41069999999999995,-5.42400312368255
-0.41170000000000007,-5.487665132176478
-0.41269999999999996,-5.555571274569999
-0.41370000000000007,-5.622062705663656
-0.41469999999999996,-5.694212981956773
-0.41570000000000007,-5.763533835650159
-0.41669999999999996,-5.83143997804368
-0.41770000000000007,-5.905004965636663
-0.41869999999999996,-5.977155241929781
-0.4197000000000001,-6.053549652122491
-0.42069999999999996,-6.131358773615069
-0.4217000000000001,-6.20209433860832
-0.42269999999999996,-6.281318171400763
-0.4237000000000001,-6.360542004193205
-0.42469999999999997,-6.442595259585377
-0.4257000000000001,-6.521819092377819
-0.42669999999999997,-6.601042925170261
-0.4277000000000001,-6.681681469262568
-0.42869999999999997,-6.7693935698542
-0.4297000000000001,-6.857105670445833
-0.43069999999999997,-6.94623248233733
-0.4317000000000001,-7.032529871629097
-0.4327,-7.1216566835205946
-0.4337000000000001,-7.2065393615124975
-0.4347,-7.2999103073035885
-0.4357000000000001,-7.394695964394547
-0.4367,-7.489481621485504
-0.4377000000000001,-7.587096701176192
-0.4387,-7.687541203466609
-0.4397000000000001,-7.789400417056893
-0.4407,-7.892674341947039
-0.4417000000000001,-7.9945335555373225
-0.4427,-8.09780748042747
-0.4437000000000001,-8.206740250517077
-0.4447,-8.318502443206416
-0.4457000000000001,-8.427435213296024
-0.4467,-8.540612117285226
-0.4477000000000001,-8.653789021274429
-0.4487,-8.772624770463093
-0.4497000000000001,-8.894289942251486
-0.4507,-9.014540402740012
-0.4517000000000001,-9.136205574528407
-0.4527,-9.264944302816126
-0.4537000000000001,-9.39509774240371
-0.4547,-9.530910027190751
-0.4557000000000001,-9.6624781780782
-0.4567,-9.799705174165108
-0.4577000000000001,-9.941176304151613
-0.4587,-10.079818011538388
-0.4597000000000001,-10.225533275424485
-0.4607,-10.372663250610449
-0.4617000000000001,-10.519793225796413
-0.4627,-10.669752623582108
-0.4637000000000001,-10.826785577867126
-0.4647,-10.982403820852278
-0.4657000000000001,-11.145095620336757
-0.4667,-11.307787419821238
-0.4677000000000001,-11.474723353205313
-0.4687,-11.650147554388578
-0.4697000000000001,-11.824157044271978
-0.4707,-12.003825379354835
-0.4717000000000001,-12.18773784833729
-0.4727,-12.371650317319745
-0.4737000000000001,-12.561221631501661
-0.4747,-12.74937823438371
-0.4757000000000001,-12.944608393765087
-0.4767,-13.144082687046055
-0.4777000000000001,-13.346386402926754
-0.4787,-13.555763675306782
-0.4797000000000001,-13.76655565898667
-0.4807,-13.981591776566157
-0.48170000000000013,-14.203701450644967
-0.4827,-14.430055258623375
-0.48370000000000013,-14.62811484060448
-0.4847,-14.840321535584234
-0.48570000000000013,-15.080822456561293
-0.4867,-15.321323377538347
-0.4876999999999999,-15.575971411514052
-0.4887,-15.816472332491113
-0.4896999999999999,-16.071120366466815
-0.4907,-16.339915513441174
-0.4916999999999999,-16.60871066041553
-0.4927,-16.877505807389888
-0.4936999999999999,-17.146300954364243
-0.49470000000000003,-17.4433903273359
-0.4956999999999999,-17.71218547431026
-0.49670000000000003,-18.009274847281915
-0.4976999999999999,-18.306364220253574
-0.49870000000000003,-18.617600706223882
-0.4996999999999999,-18.94298430519284
-0.5007,-19.25422079116315
