Sept. 30, 2024   12:00:07
Linear Sweep Voltammetry
File: c:/users/guazh/data/20240922_batch_417_500/2024-09-22-exp490\1acid_1ac-2024-09-30t11_56_59-lsvinphos\1acid_1ac_lsv_50mvs_efin_-2100mv.bin
Data Source:  Experiment
Instrument Model:  CHI760E
Header: LSV ran at 50 mVs with Efin at -2100mV
Note: 

Init E (V) = -0.6
Final E (V) = -2.1
Scan Rate (V/s) = 0.05
Sample Interval (V) = 0.001
Quiet Time (sec) = 2
Sensitivity (A/V) = 1e-4
Comp R (ohm) = 12.8

Results:

Channel 1:
Ep = -1.902V
ip = 7.464e-4A
Ah = 1.029e-3C

Potential/V, Current/A

-0.600, 5.570e-6
-0.601, 5.735e-6
-0.602, 5.809e-6
-0.603, 5.864e-6
-0.604, 5.915e-6
-0.605, 5.963e-6
-0.606, 6.015e-6
-0.607, 6.062e-6
-0.608, 6.107e-6
-0.609, 6.159e-6
-0.610, 6.212e-6
-0.611, 6.259e-6
-0.612, 6.305e-6
-0.613, 6.352e-6
-0.614, 6.397e-6
-0.615, 6.444e-6
-0.616, 6.489e-6
-0.617, 6.533e-6
-0.618, 6.577e-6
-0.619, 6.627e-6
-0.620, 6.676e-6
-0.621, 6.719e-6
-0.622, 6.767e-6
-0.623, 6.818e-6
-0.624, 6.873e-6
-0.625, 6.915e-6
-0.626, 6.955e-6
-0.627, 6.994e-6
-0.628, 7.036e-6
-0.629, 7.080e-6
-0.630, 7.126e-6
-0.631, 7.164e-6
-0.632, 7.203e-6
-0.633, 7.243e-6
-0.634, 7.285e-6
-0.635, 7.328e-6
-0.636, 7.371e-6
-0.637, 7.409e-6
-0.638, 7.450e-6
-0.639, 7.485e-6
-0.640, 7.521e-6
-0.641, 7.559e-6
-0.642, 7.596e-6
-0.643, 7.636e-6
-0.644, 7.678e-6
-0.645, 7.718e-6
-0.646, 7.755e-6
-0.647, 7.788e-6
-0.648, 7.818e-6
-0.649, 7.853e-6
-0.650, 7.885e-6
-0.651, 7.918e-6
-0.652, 7.949e-6
-0.653, 7.982e-6
-0.654, 8.012e-6
-0.655, 8.046e-6
-0.656, 8.078e-6
-0.657, 8.102e-6
-0.658, 8.135e-6
-0.659, 8.169e-6
-0.660, 8.202e-6
-0.661, 8.235e-6
-0.662, 8.265e-6
-0.663, 8.292e-6
-0.664, 8.319e-6
-0.665, 8.347e-6
-0.666, 8.379e-6
-0.667, 8.403e-6
-0.668, 8.427e-6
-0.669, 8.447e-6
-0.670, 8.471e-6
-0.671, 8.492e-6
-0.672, 8.511e-6
-0.673, 8.531e-6
-0.674, 8.549e-6
-0.675, 8.567e-6
-0.676, 8.585e-6
-0.677, 8.606e-6
-0.678, 8.625e-6
-0.679, 8.644e-6
-0.680, 8.661e-6
-0.681, 8.683e-6
-0.682, 8.691e-6
-0.683, 8.704e-6
-0.684, 8.711e-6
-0.685, 8.727e-6
-0.686, 8.740e-6
-0.687, 8.752e-6
-0.688, 8.770e-6
-0.689, 8.786e-6
-0.690, 8.790e-6
-0.691, 8.796e-6
-0.692, 8.805e-6
-0.693, 8.808e-6
-0.694, 8.816e-6
-0.695, 8.818e-6
-0.696, 8.826e-6
-0.697, 8.826e-6
-0.698, 8.826e-6
-0.699, 8.832e-6
-0.700, 8.838e-6
-0.701, 8.837e-6
-0.702, 8.835e-6
-0.703, 8.832e-6
-0.704, 8.838e-6
-0.705, 8.841e-6
-0.706, 8.838e-6
-0.707, 8.830e-6
-0.708, 8.824e-6
-0.709, 8.821e-6
-0.710, 8.819e-6
-0.711, 8.813e-6
-0.712, 8.806e-6
-0.713, 8.798e-6
-0.714, 8.797e-6
-0.715, 8.797e-6
-0.716, 8.793e-6
-0.717, 8.786e-6
-0.718, 8.785e-6
-0.719, 8.783e-6
-0.720, 8.779e-6
-0.721, 8.769e-6
-0.722, 8.753e-6
-0.723, 8.743e-6
-0.724, 8.733e-6
-0.725, 8.724e-6
-0.726, 8.716e-6
-0.727, 8.699e-6
-0.728, 8.680e-6
-0.729, 8.672e-6
-0.730, 8.671e-6
-0.731, 8.659e-6
-0.732, 8.647e-6
-0.733, 8.637e-6
-0.734, 8.620e-6
-0.735, 8.613e-6
-0.736, 8.609e-6
-0.737, 8.598e-6
-0.738, 8.581e-6
-0.739, 8.575e-6
-0.740, 8.564e-6
-0.741, 8.550e-6
-0.742, 8.533e-6
-0.743, 8.517e-6
-0.744, 8.502e-6
-0.745, 8.491e-6
-0.746, 8.479e-6
-0.747, 8.458e-6
-0.748, 8.445e-6
-0.749, 8.429e-6
-0.750, 8.415e-6
-0.751, 8.401e-6
-0.752, 8.386e-6
-0.753, 8.368e-6
-0.754, 8.356e-6
-0.755, 8.352e-6
-0.756, 8.332e-6
-0.757, 8.316e-6
-0.758, 8.292e-6
-0.759, 8.261e-6
-0.760, 8.239e-6
-0.761, 8.223e-6
-0.762, 8.209e-6
-0.763, 8.192e-6
-0.764, 8.178e-6
-0.765, 8.162e-6
-0.766, 8.151e-6
-0.767, 8.139e-6
-0.768, 8.126e-6
-0.769, 8.115e-6
-0.770, 8.104e-6
-0.771, 8.086e-6
-0.772, 8.065e-6
-0.773, 8.051e-6
-0.774, 8.037e-6
-0.775, 8.025e-6
-0.776, 8.015e-6
-0.777, 7.998e-6
-0.778, 7.981e-6
-0.779, 7.967e-6
-0.780, 7.952e-6
-0.781, 7.937e-6
-0.782, 7.920e-6
-0.783, 7.906e-6
-0.784, 7.892e-6
-0.785, 7.881e-6
-0.786, 7.867e-6
-0.787, 7.847e-6
-0.788, 7.829e-6
-0.789, 7.812e-6
-0.790, 7.804e-6
-0.791, 7.794e-6
-0.792, 7.778e-6
-0.793, 7.766e-6
-0.794, 7.759e-6
-0.795, 7.747e-6
-0.796, 7.733e-6
-0.797, 7.715e-6
-0.798, 7.701e-6
-0.799, 7.689e-6
-0.800, 7.677e-6
-0.801, 7.661e-6
-0.802, 7.640e-6
-0.803, 7.628e-6
-0.804, 7.620e-6
-0.805, 7.611e-6
-0.806, 7.601e-6
-0.807, 7.584e-6
-0.808, 7.574e-6
-0.809, 7.560e-6
-0.810, 7.540e-6
-0.811, 7.529e-6
-0.812, 7.516e-6
-0.813, 7.508e-6
-0.814, 7.499e-6
-0.815, 7.488e-6
-0.816, 7.475e-6
-0.817, 7.459e-6
-0.818, 7.443e-6
-0.819, 7.436e-6
-0.820, 7.430e-6
-0.821, 7.413e-6
-0.822, 7.402e-6
-0.823, 7.388e-6
-0.824, 7.380e-6
-0.825, 7.373e-6
-0.826, 7.362e-6
-0.827, 7.352e-6
-0.828, 7.341e-6
-0.829, 7.328e-6
-0.830, 7.330e-6
-0.831, 7.325e-6
-0.832, 7.318e-6
-0.833, 7.298e-6
-0.834, 7.284e-6
-0.835, 7.277e-6
-0.836, 7.264e-6
-0.837, 7.252e-6
-0.838, 7.243e-6
-0.839, 7.231e-6
-0.840, 7.222e-6
-0.841, 7.218e-6
-0.842, 7.207e-6
-0.843, 7.194e-6
-0.844, 7.192e-6
-0.845, 7.189e-6
-0.846, 7.181e-6
-0.847, 7.167e-6
-0.848, 7.157e-6
-0.849, 7.151e-6
-0.850, 7.142e-6
-0.851, 7.134e-6
-0.852, 7.122e-6
-0.853, 7.126e-6
-0.854, 7.128e-6
-0.855, 7.113e-6
-0.856, 7.105e-6
-0.857, 7.098e-6
-0.858, 7.083e-6
-0.859, 7.078e-6
-0.860, 7.070e-6
-0.861, 7.074e-6
-0.862, 7.064e-6
-0.863, 7.037e-6
-0.864, 7.023e-6
-0.865, 7.014e-6
-0.866, 7.003e-6
-0.867, 6.996e-6
-0.868, 6.990e-6
-0.869, 6.991e-6
-0.870, 6.993e-6
-0.871, 6.998e-6
-0.872, 6.985e-6
-0.873, 6.982e-6
-0.874, 6.971e-6
-0.875, 6.957e-6
-0.876, 6.947e-6
-0.877, 6.941e-6
-0.878, 6.937e-6
-0.879, 6.931e-6
-0.880, 6.937e-6
-0.881, 6.932e-6
-0.882, 6.921e-6
-0.883, 6.918e-6
-0.884, 6.914e-6
-0.885, 6.907e-6
-0.886, 6.904e-6
-0.887, 6.900e-6
-0.888, 6.891e-6
-0.889, 6.893e-6
-0.890, 6.883e-6
-0.891, 6.876e-6
-0.892, 6.865e-6
-0.893, 6.861e-6
-0.894, 6.851e-6
-0.895, 6.846e-6
-0.896, 6.849e-6
-0.897, 6.843e-6
-0.898, 6.838e-6
-0.899, 6.833e-6
-0.900, 6.823e-6
-0.901, 6.822e-6
-0.902, 6.816e-6
-0.903, 6.812e-6
-0.904, 6.814e-6
-0.905, 6.801e-6
-0.906, 6.794e-6
-0.907, 6.789e-6
-0.908, 6.785e-6
-0.909, 6.784e-6
-0.910, 6.779e-6
-0.911, 6.773e-6
-0.912, 6.769e-6
-0.913, 6.763e-6
-0.914, 6.760e-6
-0.915, 6.756e-6
-0.916, 6.755e-6
-0.917, 6.758e-6
-0.918, 6.764e-6
-0.919, 6.751e-6
-0.920, 6.736e-6
-0.921, 6.732e-6
-0.922, 6.729e-6
-0.923, 6.736e-6
-0.924, 6.727e-6
-0.925, 6.722e-6
-0.926, 6.716e-6
-0.927, 6.708e-6
-0.928, 6.708e-6
-0.929, 6.711e-6
-0.930, 6.706e-6
-0.931, 6.701e-6
-0.932, 6.691e-6
-0.933, 6.685e-6
-0.934, 6.690e-6
-0.935, 6.685e-6
-0.936, 6.683e-6
-0.937, 6.675e-6
-0.938, 6.665e-6
-0.939, 6.663e-6
-0.940, 6.660e-6
-0.941, 6.656e-6
-0.942, 6.650e-6
-0.943, 6.642e-6
-0.944, 6.643e-6
-0.945, 6.646e-6
-0.946, 6.651e-6
-0.947, 6.644e-6
-0.948, 6.642e-6
-0.949, 6.640e-6
-0.950, 6.628e-6
-0.951, 6.624e-6
-0.952, 6.625e-6
-0.953, 6.622e-6
-0.954, 6.619e-6
-0.955, 6.622e-6
-0.956, 6.621e-6
-0.957, 6.623e-6
-0.958, 6.620e-6
-0.959, 6.600e-6
-0.960, 6.606e-6
-0.961, 6.601e-6
-0.962, 6.596e-6
-0.963, 6.586e-6
-0.964, 6.579e-6
-0.965, 6.570e-6
-0.966, 6.567e-6
-0.967, 6.559e-6
-0.968, 6.561e-6
-0.969, 6.558e-6
-0.970, 6.548e-6
-0.971, 6.542e-6
-0.972, 6.533e-6
-0.973, 6.533e-6
-0.974, 6.530e-6
-0.975, 6.526e-6
-0.976, 6.526e-6
-0.977, 6.521e-6
-0.978, 6.514e-6
-0.979, 6.508e-6
-0.980, 6.507e-6
-0.981, 6.511e-6
-0.982, 6.501e-6
-0.983, 6.492e-6
-0.984, 6.491e-6
-0.985, 6.483e-6
-0.986, 6.477e-6
-0.987, 6.474e-6
-0.988, 6.478e-6
-0.989, 6.477e-6
-0.990, 6.474e-6
-0.991, 6.474e-6
-0.992, 6.466e-6
-0.993, 6.462e-6
-0.994, 6.464e-6
-0.995, 6.458e-6
-0.996, 6.450e-6
-0.997, 6.442e-6
-0.998, 6.438e-6
-0.999, 6.442e-6
-1.000, 6.438e-6
-1.001, 6.431e-6
-1.002, 6.419e-6
-1.003, 6.416e-6
-1.004, 6.412e-6
-1.005, 6.409e-6
-1.006, 6.407e-6
-1.007, 6.401e-6
-1.008, 6.396e-6
-1.009, 6.402e-6
-1.010, 6.422e-6
-1.011, 6.423e-6
-1.012, 6.400e-6
-1.013, 6.369e-6
-1.014, 6.363e-6
-1.015, 6.357e-6
-1.016, 6.355e-6
-1.017, 6.356e-6
-1.018, 6.346e-6
-1.019, 6.347e-6
-1.020, 6.343e-6
-1.021, 6.342e-6
-1.022, 6.338e-6
-1.023, 6.333e-6
-1.024, 6.340e-6
-1.025, 6.331e-6
-1.026, 6.321e-6
-1.027, 6.317e-6
-1.028, 6.315e-6
-1.029, 6.311e-6
-1.030, 6.313e-6
-1.031, 6.338e-6
-1.032, 6.317e-6
-1.033, 6.316e-6
-1.034, 6.346e-6
-1.035, 6.303e-6
-1.036, 6.290e-6
-1.037, 6.310e-6
-1.038, 6.302e-6
-1.039, 6.276e-6
-1.040, 6.278e-6
-1.041, 6.278e-6
-1.042, 6.284e-6
-1.043, 6.304e-6
-1.044, 6.257e-6
-1.045, 6.253e-6
-1.046, 6.251e-6
-1.047, 6.241e-6
-1.048, 6.237e-6
-1.049, 6.234e-6
-1.050, 6.241e-6
-1.051, 6.239e-6
-1.052, 6.235e-6
-1.053, 6.229e-6
-1.054, 6.229e-6
-1.055, 6.220e-6
-1.056, 6.220e-6
-1.057, 6.219e-6
-1.058, 6.214e-6
-1.059, 6.215e-6
-1.060, 6.205e-6
-1.061, 6.206e-6
-1.062, 6.200e-6
-1.063, 6.207e-6
-1.064, 6.218e-6
-1.065, 6.222e-6
-1.066, 6.233e-6
-1.067, 6.213e-6
-1.068, 6.204e-6
-1.069, 6.210e-6
-1.070, 6.228e-6
-1.071, 6.225e-6
-1.072, 6.231e-6
-1.073, 6.224e-6
-1.074, 6.210e-6
-1.075, 6.215e-6
-1.076, 6.215e-6
-1.077, 6.203e-6
-1.078, 6.199e-6
-1.079, 6.202e-6
-1.080, 6.205e-6
-1.081, 6.191e-6
-1.082, 6.191e-6
-1.083, 6.198e-6
-1.084, 6.198e-6
-1.085, 6.184e-6
-1.086, 6.186e-6
-1.087, 6.192e-6
-1.088, 6.191e-6
-1.089, 6.191e-6
-1.090, 6.189e-6
-1.091, 6.184e-6
-1.092, 6.188e-6
-1.093, 6.193e-6
-1.094, 6.184e-6
-1.095, 6.177e-6
-1.096, 6.174e-6
-1.097, 6.171e-6
-1.098, 6.176e-6
-1.099, 6.180e-6
-1.100, 6.181e-6
-1.101, 6.186e-6
-1.102, 6.186e-6
-1.103, 6.193e-6
-1.104, 6.202e-6
-1.105, 6.198e-6
-1.106, 6.198e-6
-1.107, 6.212e-6
-1.108, 6.223e-6
-1.109, 6.226e-6
-1.110, 6.225e-6
-1.111, 6.231e-6
-1.112, 6.220e-6
-1.113, 6.214e-6
-1.114, 6.218e-6
-1.115, 6.230e-6
-1.116, 6.213e-6
-1.117, 6.231e-6
-1.118, 6.239e-6
-1.119, 6.234e-6
-1.120, 6.235e-6
-1.121, 6.239e-6
-1.122, 6.231e-6
-1.123, 6.241e-6
-1.124, 6.254e-6
-1.125, 6.250e-6
-1.126, 6.256e-6
-1.127, 6.256e-6
-1.128, 6.261e-6
-1.129, 6.254e-6
-1.130, 6.236e-6
-1.131, 6.233e-6
-1.132, 6.242e-6
-1.133, 6.240e-6
-1.134, 6.248e-6
-1.135, 6.255e-6
-1.136, 6.260e-6
-1.137, 6.264e-6
-1.138, 6.274e-6
-1.139, 6.308e-6
-1.140, 6.313e-6
-1.141, 6.296e-6
-1.142, 6.294e-6
-1.143, 6.285e-6
-1.144, 6.288e-6
-1.145, 6.292e-6
-1.146, 6.301e-6
-1.147, 6.320e-6
-1.148, 6.334e-6
-1.149, 6.342e-6
-1.150, 6.350e-6
-1.151, 6.353e-6
-1.152, 6.356e-6
-1.153, 6.361e-6
-1.154, 6.364e-6
-1.155, 6.374e-6
-1.156, 6.384e-6
-1.157, 6.388e-6
-1.158, 6.394e-6
-1.159, 6.404e-6
-1.160, 6.410e-6
-1.161, 6.417e-6
-1.162, 6.418e-6
-1.163, 6.420e-6
-1.164, 6.432e-6
-1.165, 6.437e-6
-1.166, 6.446e-6
-1.167, 6.449e-6
-1.168, 6.459e-6
-1.169, 6.475e-6
-1.170, 6.518e-6
-1.171, 6.548e-6
-1.172, 6.554e-6
-1.173, 6.556e-6
-1.174, 6.571e-6
-1.175, 6.565e-6
-1.176, 6.574e-6
-1.177, 6.581e-6
-1.178, 6.594e-6
-1.179, 6.604e-6
-1.180, 6.612e-6
-1.181, 6.620e-6
-1.182, 6.634e-6
-1.183, 6.640e-6
-1.184, 6.642e-6
-1.185, 6.652e-6
-1.186, 6.657e-6
-1.187, 6.673e-6
-1.188, 6.681e-6
-1.189, 6.688e-6
-1.190, 6.698e-6
-1.191, 6.706e-6
-1.192, 6.703e-6
-1.193, 6.707e-6
-1.194, 6.712e-6
-1.195, 6.721e-6
-1.196, 6.734e-6
-1.197, 6.747e-6
-1.198, 6.752e-6
-1.199, 6.765e-6
-1.200, 6.787e-6
-1.201, 6.806e-6
-1.202, 6.815e-6
-1.203, 6.830e-6
-1.204, 6.842e-6
-1.205, 6.848e-6
-1.206, 6.861e-6
-1.207, 6.866e-6
-1.208, 6.876e-6
-1.209, 6.897e-6
-1.210, 6.909e-6
-1.211, 6.914e-6
-1.212, 6.924e-6
-1.213, 6.934e-6
-1.214, 6.945e-6
-1.215, 6.955e-6
-1.216, 6.976e-6
-1.217, 6.999e-6
-1.218, 7.012e-6
-1.219, 7.031e-6
-1.220, 7.045e-6
-1.221, 7.056e-6
-1.222, 7.071e-6
-1.223, 7.086e-6
-1.224, 7.097e-6
-1.225, 7.114e-6
-1.226, 7.127e-6
-1.227, 7.138e-6
-1.228, 7.150e-6
-1.229, 7.171e-6
-1.230, 7.178e-6
-1.231, 7.199e-6
-1.232, 7.228e-6
-1.233, 7.250e-6
-1.234, 7.242e-6
-1.235, 7.264e-6
-1.236, 7.267e-6
-1.237, 7.280e-6
-1.238, 7.300e-6
-1.239, 7.317e-6
-1.240, 7.333e-6
-1.241, 7.377e-6
-1.242, 7.385e-6
-1.243, 7.391e-6
-1.244, 7.410e-6
-1.245, 7.440e-6
-1.246, 7.449e-6
-1.247, 7.458e-6
-1.248, 7.484e-6
-1.249, 7.504e-6
-1.250, 7.530e-6
-1.251, 7.554e-6
-1.252, 7.580e-6
-1.253, 7.603e-6
-1.254, 7.587e-6
-1.255, 7.582e-6
-1.256, 7.593e-6
-1.257, 7.608e-6
-1.258, 7.636e-6
-1.259, 7.668e-6
-1.260, 7.721e-6
-1.261, 7.741e-6
-1.262, 7.750e-6
-1.263, 7.767e-6
-1.264, 7.786e-6
-1.265, 7.806e-6
-1.266, 7.819e-6
-1.267, 7.839e-6
-1.268, 7.859e-6
-1.269, 7.882e-6
-1.270, 7.906e-6
-1.271, 7.924e-6
-1.272, 7.937e-6
-1.273, 7.969e-6
-1.274, 7.990e-6
-1.275, 8.008e-6
-1.276, 8.025e-6
-1.277, 8.051e-6
-1.278, 8.080e-6
-1.279, 8.105e-6
-1.280, 8.131e-6
-1.281, 8.152e-6
-1.282, 8.163e-6
-1.283, 8.188e-6
-1.284, 8.213e-6
-1.285, 8.231e-6
-1.286, 8.279e-6
-1.287, 8.306e-6
-1.288, 8.321e-6
-1.289, 8.331e-6
-1.290, 8.348e-6
-1.291, 8.363e-6
-1.292, 8.393e-6
-1.293, 8.423e-6
-1.294, 8.451e-6
-1.295, 8.478e-6
-1.296, 8.496e-6
-1.297, 8.514e-6
-1.298, 8.538e-6
-1.299, 8.558e-6
-1.300, 8.583e-6
-1.301, 8.603e-6
-1.302, 8.637e-6
-1.303, 8.676e-6
-1.304, 8.698e-6
-1.305, 8.719e-6
-1.306, 8.743e-6
-1.307, 8.758e-6
-1.308, 8.781e-6
-1.309, 8.810e-6
-1.310, 8.844e-6
-1.311, 8.860e-6
-1.312, 8.882e-6
-1.313, 8.905e-6
-1.314, 8.932e-6
-1.315, 8.960e-6
-1.316, 8.986e-6
-1.317, 9.022e-6
-1.318, 9.051e-6
-1.319, 9.076e-6
-1.320, 9.107e-6
-1.321, 9.136e-6
-1.322, 9.167e-6
-1.323, 9.201e-6
-1.324, 9.214e-6
-1.325, 9.232e-6
-1.326, 9.265e-6
-1.327, 9.300e-6
-1.328, 9.322e-6
-1.329, 9.348e-6
-1.330, 9.383e-6
-1.331, 9.425e-6
-1.332, 9.451e-6
-1.333, 9.476e-6
-1.334, 9.514e-6
-1.335, 9.550e-6
-1.336, 9.593e-6
-1.337, 9.634e-6
-1.338, 9.666e-6
-1.339, 9.700e-6
-1.340, 9.728e-6
-1.341, 9.777e-6
-1.342, 9.814e-6
-1.343, 9.831e-6
-1.344, 9.872e-6
-1.345, 9.901e-6
-1.346, 9.933e-6
-1.347, 9.965e-6
-1.348, 9.990e-6
-1.349, 1.003e-5
-1.350, 1.008e-5
-1.351, 1.012e-5
-1.352, 1.014e-5
-1.353, 1.017e-5
-1.354, 1.019e-5
-1.355, 1.022e-5
-1.356, 1.026e-5
-1.357, 1.028e-5
-1.358, 1.032e-5
-1.359, 1.035e-5
-1.360, 1.039e-5
-1.361, 1.044e-5
-1.362, 1.049e-5
-1.363, 1.053e-5
-1.364, 1.057e-5
-1.365, 1.060e-5
-1.366, 1.062e-5
-1.367, 1.066e-5
-1.368, 1.070e-5
-1.369, 1.073e-5
-1.370, 1.078e-5
-1.371, 1.082e-5
-1.372, 1.087e-5
-1.373, 1.092e-5
-1.374, 1.097e-5
-1.375, 1.101e-5
-1.376, 1.109e-5
-1.377, 1.116e-5
-1.378, 1.119e-5
-1.379, 1.123e-5
-1.380, 1.127e-5
-1.381, 1.131e-5
-1.382, 1.133e-5
-1.383, 1.136e-5
-1.384, 1.138e-5
-1.385, 1.143e-5
-1.386, 1.148e-5
-1.387, 1.153e-5
-1.388, 1.156e-5
-1.389, 1.164e-5
-1.390, 1.174e-5
-1.391, 1.184e-5
-1.392, 1.187e-5
-1.393, 1.189e-5
-1.394, 1.197e-5
-1.395, 1.202e-5
-1.396, 1.206e-5
-1.397, 1.209e-5
-1.398, 1.211e-5
-1.399, 1.214e-5
-1.400, 1.217e-5
-1.401, 1.222e-5
-1.402, 1.226e-5
-1.403, 1.232e-5
-1.404, 1.238e-5
-1.405, 1.243e-5
-1.406, 1.250e-5
-1.407, 1.253e-5
-1.408, 1.258e-5
-1.409, 1.263e-5
-1.410, 1.268e-5
-1.411, 1.275e-5
-1.412, 1.280e-5
-1.413, 1.287e-5
-1.414, 1.292e-5
-1.415, 1.297e-5
-1.416, 1.300e-5
-1.417, 1.304e-5
-1.418, 1.309e-5
-1.419, 1.315e-5
-1.420, 1.320e-5
-1.421, 1.325e-5
-1.422, 1.335e-5
-1.423, 1.342e-5
-1.424, 1.349e-5
-1.425, 1.355e-5
-1.426, 1.361e-5
-1.427, 1.366e-5
-1.428, 1.370e-5
-1.429, 1.375e-5
-1.430, 1.380e-5
-1.431, 1.387e-5
-1.432, 1.394e-5
-1.433, 1.400e-5
-1.434, 1.406e-5
-1.435, 1.413e-5
-1.436, 1.420e-5
-1.437, 1.427e-5
-1.438, 1.435e-5
-1.439, 1.442e-5
-1.440, 1.450e-5
-1.441, 1.456e-5
-1.442, 1.462e-5
-1.443, 1.467e-5
-1.444, 1.473e-5
-1.445, 1.479e-5
-1.446, 1.486e-5
-1.447, 1.494e-5
-1.448, 1.501e-5
-1.449, 1.508e-5
-1.450, 1.514e-5
-1.451, 1.521e-5
-1.452, 1.529e-5
-1.453, 1.537e-5
-1.454, 1.546e-5
-1.455, 1.551e-5
-1.456, 1.560e-5
-1.457, 1.569e-5
-1.458, 1.576e-5
-1.459, 1.583e-5
-1.460, 1.592e-5
-1.461, 1.600e-5
-1.462, 1.607e-5
-1.463, 1.615e-5
-1.464, 1.626e-5
-1.465, 1.635e-5
-1.466, 1.639e-5
-1.467, 1.648e-5
-1.468, 1.655e-5
-1.469, 1.660e-5
-1.470, 1.669e-5
-1.471, 1.677e-5
-1.472, 1.686e-5
-1.473, 1.696e-5
-1.474, 1.705e-5
-1.475, 1.712e-5
-1.476, 1.719e-5
-1.477, 1.725e-5
-1.478, 1.734e-5
-1.479, 1.742e-5
-1.480, 1.750e-5
-1.481, 1.761e-5
-1.482, 1.769e-5
-1.483, 1.775e-5
-1.484, 1.784e-5
-1.485, 1.794e-5
-1.486, 1.803e-5
-1.487, 1.813e-5
-1.488, 1.828e-5
-1.489, 1.839e-5
-1.490, 1.848e-5
-1.491, 1.860e-5
-1.492, 1.871e-5
-1.493, 1.883e-5
-1.494, 1.895e-5
-1.495, 1.903e-5
-1.496, 1.911e-5
-1.497, 1.922e-5
-1.498, 1.930e-5
-1.499, 1.942e-5
-1.500, 1.957e-5
-1.501, 1.969e-5
-1.502, 1.980e-5
-1.503, 1.991e-5
-1.504, 2.002e-5
-1.505, 2.014e-5
-1.506, 2.025e-5
-1.507, 2.037e-5
-1.508, 2.047e-5
-1.509, 2.057e-5
-1.510, 2.068e-5
-1.511, 2.076e-5
-1.512, 2.083e-5
-1.513, 2.092e-5
-1.514, 2.102e-5
-1.515, 2.113e-5
-1.516, 2.126e-5
-1.517, 2.136e-5
-1.518, 2.143e-5
-1.519, 2.151e-5
-1.520, 2.159e-5
-1.521, 2.168e-5
-1.522, 2.179e-5
-1.523, 2.191e-5
-1.524, 2.203e-5
-1.525, 2.218e-5
-1.526, 2.232e-5
-1.527, 2.246e-5
-1.528, 2.262e-5
-1.529, 2.278e-5
-1.530, 2.291e-5
-1.531, 2.304e-5
-1.532, 2.318e-5
-1.533, 2.334e-5
-1.534, 2.348e-5
-1.535, 2.360e-5
-1.536, 2.377e-5
-1.537, 2.392e-5
-1.538, 2.408e-5
-1.539, 2.424e-5
-1.540, 2.442e-5
-1.541, 2.459e-5
-1.542, 2.477e-5
-1.543, 2.495e-5
-1.544, 2.509e-5
-1.545, 2.524e-5
-1.546, 2.538e-5
-1.547, 2.553e-5
-1.548, 2.571e-5
-1.549, 2.585e-5
-1.550, 2.599e-5
-1.551, 2.614e-5
-1.552, 2.630e-5
-1.553, 2.646e-5
-1.554, 2.664e-5
-1.555, 2.677e-5
-1.556, 2.694e-5
-1.557, 2.711e-5
-1.558, 2.728e-5
-1.559, 2.744e-5
-1.560, 2.758e-5
-1.561, 2.777e-5
-1.562, 2.795e-5
-1.563, 2.816e-5
-1.564, 2.836e-5
-1.565, 2.855e-5
-1.566, 2.872e-5
-1.567, 2.885e-5
-1.568, 2.903e-5
-1.569, 2.920e-5
-1.570, 2.936e-5
-1.571, 2.954e-5
-1.572, 2.974e-5
-1.573, 2.991e-5
-1.574, 3.010e-5
-1.575, 3.035e-5
-1.576, 3.065e-5
-1.577, 3.091e-5
-1.578, 3.116e-5
-1.579, 3.142e-5
-1.580, 3.165e-5
-1.581, 3.193e-5
-1.582, 3.215e-5
-1.583, 3.239e-5
-1.584, 3.270e-5
-1.585, 3.298e-5
-1.586, 3.326e-5
-1.587, 3.356e-5
-1.588, 3.383e-5
-1.589, 3.407e-5
-1.590, 3.427e-5
-1.591, 3.451e-5
-1.592, 3.481e-5
-1.593, 3.515e-5
-1.594, 3.546e-5
-1.595, 3.578e-5
-1.596, 3.606e-5
-1.597, 3.640e-5
-1.598, 3.674e-5
-1.599, 3.701e-5
-1.600, 3.733e-5
-1.601, 3.768e-5
-1.602, 3.797e-5
-1.603, 3.823e-5
-1.604, 3.854e-5
-1.605, 3.885e-5
-1.606, 3.924e-5
-1.607, 3.963e-5
-1.608, 4.001e-5
-1.609, 4.037e-5
-1.610, 4.074e-5
-1.611, 4.109e-5
-1.612, 4.140e-5
-1.613, 4.185e-5
-1.614, 4.233e-5
-1.615, 4.283e-5
-1.616, 4.329e-5
-1.617, 4.372e-5
-1.618, 4.405e-5
-1.619, 4.446e-5
-1.620, 4.488e-5
-1.621, 4.532e-5
-1.622, 4.571e-5
-1.623, 4.614e-5
-1.624, 4.663e-5
-1.625, 4.706e-5
-1.626, 4.746e-5
-1.627, 4.797e-5
-1.628, 4.843e-5
-1.629, 4.893e-5
-1.630, 4.945e-5
-1.631, 4.987e-5
-1.632, 5.038e-5
-1.633, 5.091e-5
-1.634, 5.141e-5
-1.635, 5.189e-5
-1.636, 5.231e-5
-1.637, 5.276e-5
-1.638, 5.328e-5
-1.639, 5.384e-5
-1.640, 5.442e-5
-1.641, 5.500e-5
-1.642, 5.556e-5
-1.643, 5.610e-5
-1.644, 5.672e-5
-1.645, 5.736e-5
-1.646, 5.804e-5
-1.647, 5.868e-5
-1.648, 5.932e-5
-1.649, 5.989e-5
-1.650, 6.045e-5
-1.651, 6.107e-5
-1.652, 6.168e-5
-1.653, 6.225e-5
-1.654, 6.286e-5
-1.655, 6.355e-5
-1.656, 6.436e-5
-1.657, 6.503e-5
-1.658, 6.563e-5
-1.659, 6.627e-5
-1.660, 6.702e-5
-1.661, 6.774e-5
-1.662, 6.846e-5
-1.663, 6.920e-5
-1.664, 6.994e-5
-1.665, 7.065e-5
-1.666, 7.139e-5
-1.667, 7.219e-5
-1.668, 7.298e-5
-1.669, 7.377e-5
-1.670, 7.456e-5
-1.671, 7.540e-5
-1.672, 7.621e-5
-1.673, 7.703e-5
-1.674, 7.783e-5
-1.675, 7.868e-5
-1.676, 7.954e-5
-1.677, 8.044e-5
-1.678, 8.133e-5
-1.679, 8.221e-5
-1.680, 8.312e-5
-1.681, 8.403e-5
-1.682, 8.494e-5
-1.683, 8.588e-5
-1.684, 8.683e-5
-1.685, 8.779e-5
-1.686, 8.879e-5
-1.687, 8.978e-5
-1.688, 9.085e-5
-1.689, 9.188e-5
-1.690, 9.296e-5
-1.691, 9.404e-5
-1.692, 9.507e-5
-1.693, 9.607e-5
-1.694, 9.719e-5
-1.695, 9.826e-5
-1.696, 9.941e-5
-1.697, 1.006e-4
-1.698, 1.017e-4
-1.699, 1.029e-4
-1.700, 1.041e-4
-1.701, 1.053e-4
-1.702, 1.065e-4
-1.703, 1.077e-4
-1.704, 1.089e-4
-1.705, 1.102e-4
-1.706, 1.114e-4
-1.707, 1.127e-4
-1.708, 1.140e-4
-1.709, 1.152e-4
-1.710, 1.164e-4
-1.711, 1.176e-4
-1.712, 1.189e-4
-1.713, 1.202e-4
-1.714, 1.215e-4
-1.715, 1.229e-4
-1.716, 1.243e-4
-1.717, 1.257e-4
-1.718, 1.271e-4
-1.719, 1.285e-4
-1.720, 1.300e-4
-1.721, 1.316e-4
-1.722, 1.331e-4
-1.723, 1.346e-4
-1.724, 1.362e-4
-1.725, 1.378e-4
-1.726, 1.394e-4
-1.727, 1.411e-4
-1.728, 1.428e-4
-1.729, 1.445e-4
-1.730, 1.462e-4
-1.731, 1.479e-4
-1.732, 1.497e-4
-1.733, 1.515e-4
-1.734, 1.533e-4
-1.735, 1.552e-4
-1.736, 1.570e-4
-1.737, 1.590e-4
-1.738, 1.610e-4
-1.739, 1.630e-4
-1.740, 1.650e-4
-1.741, 1.671e-4
-1.742, 1.692e-4
-1.743, 1.713e-4
-1.744, 1.734e-4
-1.745, 1.756e-4
-1.746, 1.778e-4
-1.747, 1.799e-4
-1.748, 1.822e-4
-1.749, 1.846e-4
-1.750, 1.869e-4
-1.751, 1.893e-4
-1.752, 1.917e-4
-1.753, 1.942e-4
-1.754, 1.967e-4
-1.755, 1.993e-4
-1.756, 2.019e-4
-1.757, 2.045e-4
-1.758, 2.072e-4
-1.759, 2.099e-4
-1.760, 2.127e-4
-1.761, 2.156e-4
-1.762, 2.185e-4
-1.763, 2.215e-4
-1.764, 2.245e-4
-1.765, 2.275e-4
-1.766, 2.306e-4
-1.767, 2.337e-4
-1.768, 2.369e-4
-1.769, 2.401e-4
-1.770, 2.433e-4
-1.771, 2.466e-4
-1.772, 2.500e-4
-1.773, 2.534e-4
-1.774, 2.568e-4
-1.775, 2.602e-4
-1.776, 2.637e-4
-1.777, 2.672e-4
-1.778, 2.708e-4
-1.779, 2.745e-4
-1.780, 2.783e-4
-1.781, 2.820e-4
-1.782, 2.857e-4
-1.783, 2.895e-4
-1.784, 2.934e-4
-1.785, 2.975e-4
-1.786, 3.014e-4
-1.787, 3.055e-4
-1.788, 3.096e-4
-1.789, 3.137e-4
-1.790, 3.178e-4
-1.791, 3.221e-4
-1.792, 3.263e-4
-1.793, 3.306e-4
-1.794, 3.349e-4
-1.795, 3.393e-4
-1.796, 3.437e-4
-1.797, 3.482e-4
-1.798, 3.526e-4
-1.799, 3.572e-4
-1.800, 3.619e-4
-1.801, 3.666e-4
-1.802, 3.712e-4
-1.803, 3.759e-4
-1.804, 3.806e-4
-1.805, 3.854e-4
-1.806, 3.902e-4
-1.807, 3.951e-4
-1.808, 4.001e-4
-1.809, 4.051e-4
-1.810, 4.101e-4
-1.811, 4.152e-4
-1.812, 4.203e-4
-1.813, 4.254e-4
-1.814, 4.306e-4
-1.815, 4.358e-4
-1.816, 4.410e-4
-1.817, 4.462e-4
-1.818, 4.513e-4
-1.819, 4.565e-4
-1.820, 4.620e-4
-1.821, 4.674e-4
-1.822, 4.728e-4
-1.823, 4.782e-4
-1.824, 4.837e-4
-1.825, 4.892e-4
-1.826, 4.948e-4
-1.827, 5.004e-4
-1.828, 5.059e-4
-1.829, 5.115e-4
-1.830, 5.173e-4
-1.831, 5.231e-4
-1.832, 5.290e-4
-1.833, 5.349e-4
-1.834, 5.409e-4
-1.835, 5.469e-4
-1.836, 5.529e-4
-1.837, 5.589e-4
-1.838, 5.650e-4
-1.839, 5.709e-4
-1.840, 5.771e-4
-1.841, 5.832e-4
-1.842, 5.894e-4
-1.843, 5.956e-4
-1.844, 6.018e-4
-1.845, 6.082e-4
-1.846, 6.145e-4
-1.847, 6.209e-4
-1.848, 6.273e-4
-1.849, 6.339e-4
-1.850, 6.404e-4
-1.851, 6.470e-4
-1.852, 6.535e-4
-1.853, 6.601e-4
-1.854, 6.668e-4
-1.855, 6.735e-4
-1.856, 6.803e-4
-1.857, 6.869e-4
-1.858, 6.936e-4
-1.859, 7.005e-4
-1.860, 7.073e-4
-1.861, 7.141e-4
-1.862, 7.210e-4
-1.863, 7.279e-4
-1.864, 7.349e-4
-1.865, 7.417e-4
-1.866, 7.484e-4
-1.867, 7.553e-4
-1.868, 7.622e-4
-1.869, 7.691e-4
-1.870, 7.763e-4
-1.871, 7.834e-4
-1.872, 7.904e-4
-1.873, 7.976e-4
-1.874, 8.050e-4
-1.875, 8.124e-4
-1.876, 8.197e-4
-1.877, 8.268e-4
-1.878, 8.342e-4
-1.879, 8.416e-4
-1.880, 8.490e-4
-1.881, 8.566e-4
-1.882, 8.644e-4
-1.883, 8.718e-4
-1.884, 8.793e-4
-1.885, 8.868e-4
-1.886, 8.941e-4
-1.887, 9.016e-4
-1.888, 9.092e-4
-1.889, 9.170e-4
-1.890, 9.250e-4
-1.891, 9.328e-4
-1.892, 9.406e-4
-1.893, 9.485e-4
-1.894, 9.564e-4
-1.895, 9.644e-4
-1.896, 9.724e-4
-1.897, 9.804e-4
-1.898, 9.884e-4
-1.899, 9.964e-4
-1.900, 1.004e-3
-1.901, 1.010e-3
-1.902, 1.011e-3
-1.903, 1.011e-3
-1.904, 1.011e-3
-1.905, 1.011e-3
-1.906, 1.011e-3
-1.907, 1.011e-3
-1.908, 1.011e-3
-1.909, 1.011e-3
-1.910, 1.011e-3
-1.911, 1.011e-3
-1.912, 1.011e-3
-1.913, 1.011e-3
-1.914, 1.011e-3
-1.915, 1.011e-3
-1.916, 1.011e-3
-1.917, 1.011e-3
-1.918, 1.011e-3
-1.919, 1.011e-3
-1.920, 1.011e-3
-1.921, 1.011e-3
-1.922, 1.011e-3
-1.923, 1.011e-3
-1.924, 1.011e-3
-1.925, 1.011e-3
-1.926, 1.011e-3
-1.927, 1.011e-3
-1.928, 1.011e-3
-1.929, 1.011e-3
-1.930, 1.011e-3
-1.931, 1.011e-3
-1.932, 1.011e-3
-1.933, 1.011e-3
-1.934, 1.011e-3
-1.935, 1.011e-3
-1.936, 1.011e-3
-1.937, 1.011e-3
-1.938, 1.011e-3
-1.939, 1.011e-3
-1.940, 1.011e-3
-1.941, 1.011e-3
-1.942, 1.011e-3
-1.943, 1.011e-3
-1.944, 1.011e-3
-1.945, 1.011e-3
-1.946, 1.011e-3
-1.947, 1.011e-3
-1.948, 1.011e-3
-1.949, 1.011e-3
-1.950, 1.011e-3
-1.951, 1.011e-3
-1.952, 1.011e-3
-1.953, 1.011e-3
-1.954, 1.011e-3
-1.955, 1.011e-3
-1.956, 1.011e-3
-1.957, 1.011e-3
-1.958, 1.011e-3
-1.959, 1.011e-3
-1.960, 1.011e-3
-1.961, 1.011e-3
-1.962, 1.011e-3
-1.963, 1.011e-3
-1.964, 1.011e-3
-1.965, 1.011e-3
-1.966, 1.011e-3
-1.967, 1.011e-3
-1.968, 1.011e-3
-1.969, 1.011e-3
-1.970, 1.011e-3
-1.971, 1.011e-3
-1.972, 1.011e-3
-1.973, 1.011e-3
-1.974, 1.011e-3
-1.975, 1.011e-3
-1.976, 1.011e-3
-1.977, 1.011e-3
-1.978, 1.011e-3
-1.979, 1.011e-3
-1.980, 1.011e-3
-1.981, 1.011e-3
-1.982, 1.011e-3
-1.983, 1.011e-3
-1.984, 1.011e-3
-1.985, 1.011e-3
-1.986, 1.011e-3
-1.987, 1.011e-3
-1.988, 1.011e-3
-1.989, 1.011e-3
-1.990, 1.011e-3
-1.991, 1.011e-3
-1.992, 1.011e-3
-1.993, 1.011e-3
-1.994, 1.011e-3
-1.995, 1.011e-3
-1.996, 1.011e-3
-1.997, 1.011e-3
-1.998, 1.011e-3
-1.999, 1.011e-3
-2.000, 1.011e-3
-2.001, 1.011e-3
-2.002, 1.011e-3
-2.003, 1.011e-3
-2.004, 1.011e-3
-2.005, 1.011e-3
-2.006, 1.011e-3
-2.007, 1.011e-3
-2.008, 1.011e-3
-2.009, 1.011e-3
-2.010, 1.011e-3
-2.011, 1.011e-3
-2.012, 1.011e-3
-2.013, 1.011e-3
-2.014, 1.011e-3
-2.015, 1.011e-3
-2.016, 1.011e-3
-2.017, 1.011e-3
-2.018, 1.011e-3
-2.019, 1.011e-3
-2.020, 1.011e-3
-2.021, 1.011e-3
-2.022, 1.011e-3
-2.023, 1.011e-3
-2.024, 1.011e-3
-2.025, 1.011e-3
-2.026, 1.011e-3
-2.027, 1.011e-3
-2.028, 1.011e-3
-2.029, 1.011e-3
-2.030, 1.011e-3
-2.031, 1.011e-3
-2.032, 1.011e-3
-2.033, 1.011e-3
-2.034, 1.011e-3
-2.035, 1.011e-3
-2.036, 1.011e-3
-2.037, 1.011e-3
-2.038, 1.011e-3
-2.039, 1.011e-3
-2.040, 1.011e-3
-2.041, 1.011e-3
-2.042, 1.011e-3
-2.043, 1.011e-3
-2.044, 1.011e-3
-2.045, 1.011e-3
-2.046, 1.011e-3
-2.047, 1.011e-3
-2.048, 1.011e-3
-2.049, 1.011e-3
-2.050, 1.011e-3
-2.051, 1.011e-3
-2.052, 1.011e-3
-2.053, 1.011e-3
-2.054, 1.011e-3
-2.055, 1.011e-3
-2.056, 1.011e-3
-2.057, 1.011e-3
-2.058, 1.011e-3
-2.059, 1.011e-3
-2.060, 1.011e-3
-2.061, 1.011e-3
-2.062, 1.011e-3
-2.063, 1.011e-3
-2.064, 1.011e-3
-2.065, 1.011e-3
-2.066, 1.011e-3
-2.067, 1.011e-3
-2.068, 1.011e-3
-2.069, 1.011e-3
-2.070, 1.011e-3
-2.071, 1.011e-3
-2.072, 1.011e-3
-2.073, 1.011e-3
-2.074, 1.011e-3
-2.075, 1.011e-3
-2.076, 1.011e-3
-2.077, 1.011e-3
-2.078, 1.011e-3
-2.079, 1.011e-3
-2.080, 1.011e-3
-2.081, 1.011e-3
-2.082, 1.011e-3
-2.083, 1.011e-3
-2.084, 1.011e-3
-2.085, 1.011e-3
-2.086, 1.011e-3
-2.087, 1.011e-3
-2.088, 1.011e-3
-2.089, 1.011e-3
-2.090, 1.011e-3
-2.091, 1.011e-3
-2.092, 1.011e-3
-2.093, 1.011e-3
-2.094, 1.011e-3
-2.095, 1.011e-3
-2.096, 1.011e-3
-2.097, 1.011e-3
-2.098, 1.011e-3
-2.099, 1.011e-3
