Potential V vs RHE, Current mA cm-2
0.013299999999999867,1.5250587812545096
0.012299999999999978,-0.26384365742482935
0.011299999999999866,-1.8334658446250875
0.010299999999999976,-3.361354048479327
0.009299999999999864,-4.800115440442069
0.008299999999999974,-6.152579443113044
0.007299999999999862,-7.722908985963235
0.006299999999999972,-9.24938247851761
0.00529999999999986,-10.775855971071984
0.0042999999999999705,-12.214617363034726
0.0032999999999998586,-13.698649516593148
0.0022999999999999687,-14.967645552572087
0.0012999999999998568,-16.22673860945197
0.00029999999999996696,-17.188742293360193
-0.000700000000000145,-18.10830463827247
-0.0017000000000000348,-18.88639585319824
-0.0027000000000001467,-19.537163051136158
-0.0037000000000000366,-20.10304757108217
-0.0047000000000001485,-20.76796188201874
-0.005700000000000038,-21.333846401964752
-0.00670000000000015,-21.94217226090672
-0.00770000000000004,-22.776851927827092
-0.008700000000000152,-23.639825820744765
-0.009700000000000042,-24.559388165657033
-0.010700000000000154,-25.39406783257741
-0.011700000000000044,-26.38436574248293
-0.012700000000000156,-27.134162731411404
-0.013700000000000045,-27.869812607341224
-0.014700000000000157,-28.478138466283188
-0.015700000000000047,-28.8742576302454
-0.01670000000000016,-29.22793545521166
-0.01770000000000005,-29.525024828183312
-0.01870000000000016,-29.751378636161718
-0.01970000000000005,-29.96358533114148
-0.020700000000000163,-30.232380478115836
-0.021700000000000053,-30.487028512091538
-0.022700000000000164,-31.052913032037555
-0.023700000000000054,-31.618797551983565
-0.024700000000000166,-32.283711862920136
-0.025700000000000056,-32.764713704874254
-0.026700000000000168,-33.58524625879597
-0.027700000000000058,-34.06624810075008
-0.02870000000000017,-34.5472499427042
-0.02970000000000006,-34.90092776767045
-0.03070000000000017,-35.198017140642115
-0.03170000000000006,-35.282899818634014
-0.03270000000000017,-35.38192960962457
-0.03370000000000006,-35.46681228761647
-0.034700000000000175,-35.46681228761647
-0.035700000000000065,-35.55169496560837
-0.03670000000000018,-35.679018982596226
-0.03770000000000007,-36.07513814655844
-0.03870000000000018,-36.47125731052064
-0.03970000000000007,-36.89567070048016
-0.04070000000000018,-37.41911388143023
-0.04170000000000007,-37.99914551437489
-0.04270000000000018,-38.38111756533845
-0.04370000000000007,-38.81967806829661
-0.044700000000000184,-38.94700208528445
-0.045700000000000074,-39.130914554266916
-0.046700000000000186,-39.130914554266916
-0.047700000000000076,-39.130914554266916
-0.04870000000000019,-39.08847321527096
-0.04970000000000008,-38.98944342428042
-0.05070000000000019,-39.046031876275016
-0.05170000000000008,-39.046031876275016
-0.05270000000000019,-39.34312124924667
-0.05370000000000008,-39.739240413208876
-0.05470000000000019,-39.99388844718459
-0.05570000000000008,-40.3900076111468
-0.056700000000000195,-40.99833347008877
-0.057700000000000085,-41.267128617063115
-0.058700000000000196,-41.56421799003478
-0.059700000000000086,-41.70568912002128
-0.0607000000000002,-41.83301313700913
-0.06170000000000009,-41.79057179801318
-0.0627000000000002,-41.70568912002128
-0.06370000000000009,-41.606659329030734
-0.0647000000000002,-41.43689397304693
-0.06570000000000009,-41.43689397304693
-0.0667000000000002,-41.39445263405098
-0.0677000000000001,-41.66324778102533
-0.0687000000000002,-41.91789581500104
-0.0697000000000001,-42.2715736399673
-0.07070000000000021,-42.6111043519349
-0.0717000000000001,-43.134547532884966
-0.07270000000000021,-43.40334267985933
-0.0737000000000001,-43.657990713835034
-0.07470000000000021,-43.70043205283099
-0.0757000000000001,-43.84190318281749
-0.07670000000000021,-43.75702050482558
-0.0777000000000001,-43.57310803584313
-0.07870000000000021,-43.44578401885527
-0.0797000000000001,-43.31846000186743
-0.08070000000000022,-43.27601866287147
-0.0817000000000001,-43.17698887188092
-0.08270000000000022,-43.44578401885527
-0.08370000000000011,-43.657990713835034
-0.08470000000000022,-43.92678586080939
-0.08570000000000011,-44.28046368577565
-0.08670000000000022,-44.80390686672572
-0.08770000000000011,-44.97367222270952
-0.08870000000000022,-45.18587891768927
-0.08970000000000011,-45.32735004767578
-0.09070000000000022,-45.412232725667685
-0.09170000000000011,-45.27076159568118
-0.09270000000000023,-45.143437578693316
-0.09370000000000012,-44.93123088371356
-0.09470000000000023,-44.74731841473111
-0.09570000000000012,-44.704877075735155
-0.09670000000000023,-44.619994397743255
-0.09770000000000012,-44.80390686672572
-0.09870000000000023,-45.01611356170547
-0.09970000000000012,-45.32735004767578
-0.10070000000000023,-45.624439420647434
-0.10170000000000012,-46.10544126260155
-0.10270000000000024,-46.3176479575813
-0.10370000000000013,-46.501560426563756
-0.10470000000000024,-46.544001765559706
-0.10570000000000013,-46.628884443551605
-0.10670000000000024,-46.501560426563756
-0.10770000000000013,-46.3176479575813
-0.10870000000000024,-46.147882601597495
-0.10970000000000013,-45.93567590661774
-0.11070000000000024,-45.89323456762179
-0.11170000000000013,-45.75176343763528
-0.11270000000000002,-45.93567590661774
-0.11370000000000013,-46.10544126260155
-0.11470000000000002,-46.41667774857186
-0.11570000000000014,-46.75620846053947
-0.11670000000000003,-47.15232762450167
-0.11770000000000014,-47.32209298048547
-0.11870000000000003,-47.54844678846388
-0.11970000000000014,-47.590888127459834
-0.12070000000000003,-47.67577080545174
-0.12170000000000014,-47.54844678846388
-0.12270000000000003,-47.36453431948143
-0.12370000000000014,-47.10988628550572
-0.12470000000000003,-46.94012092952192
-0.12570000000000014,-46.84109113853137
-0.12670000000000003,-46.75620846053947
-0.12770000000000015,-46.94012092952192
-0.12870000000000004,-47.15232762450167
-0.12970000000000015,-47.40697565847737
-0.13070000000000004,-47.67577080545174
-0.13170000000000015,-48.156772647405845
-0.13270000000000004,-48.24165532539775
-0.13370000000000015,-48.51045047237211
-0.13470000000000004,-48.55289181136806
-0.13570000000000015,-48.63777448935996
-0.13670000000000004,-48.41142068138156
-0.13770000000000016,-48.24165532539775
-0.13870000000000005,-48.071889969413945
-0.13970000000000016,-47.8879775004315
-0.14070000000000005,-47.76065348344364
-0.14170000000000016,-47.67577080545174
-0.14270000000000005,-47.76065348344364
-0.14370000000000016,-48.029448630417996
-0.14470000000000005,-48.2840966643937
-0.14570000000000016,-48.59533315036401
-0.14670000000000005,-49.03389365332217
-0.14770000000000016,-49.16121767031002
-0.14870000000000005,-49.41586570428573
-0.14970000000000017,-49.50074838227763
-0.15070000000000006,-49.59977817326819
-0.15170000000000017,-49.41586570428573
-0.15270000000000006,-49.16121767031002
-0.15370000000000017,-48.97730520132757
-0.15470000000000006,-48.84998118433972
-0.15570000000000017,-48.72265716735186
-0.15670000000000006,-48.59533315036401
-0.15770000000000017,-48.76509850634781
-0.15870000000000006,-48.97730520132757
-0.15970000000000018,-49.24610034830193
-0.16070000000000007,-49.557336834272235
-0.16170000000000018,-49.939308885235796
-0.16270000000000007,-50.12322135421825
-0.16370000000000018,-50.37786938819396
-0.16470000000000007,-50.46275206618586
-0.16570000000000018,-50.50519340518181
-0.16670000000000007,-50.335428049198
-0.16770000000000018,-50.1656626932142
-0.16870000000000007,-49.939308885235796
-0.16970000000000018,-49.76954352925199
-0.17070000000000007,-49.72710219025603
-0.17170000000000019,-49.50074838227763
-0.17270000000000008,-49.68466085126009
-0.1737000000000002,-49.89686754623985
-0.17470000000000008,-50.20810403221015
-0.1757000000000002,-50.46275206618586
-0.17670000000000008,-50.85887123014807
-0.1777000000000002,-51.071077925127824
-0.17870000000000008,-51.33987307210218
-0.1797000000000002,-51.424755750094086
-0.18070000000000008,-51.509638428085985
-0.1817000000000002,-51.29743173310623
-0.18270000000000008,-51.17010771611838
-0.1837000000000002,-50.98619524713592
-0.1847000000000001,-50.81642989115212
-0.1857000000000002,-50.73154721316022
-0.1867000000000001,-50.547634744177756
-0.1877000000000002,-50.77398855215617
-0.1887000000000001,-50.98619524713592
-0.1897000000000002,-51.25499039411028
-0.1907000000000001,-51.509638428085985
-0.1917000000000001,-51.90575759204819
-0.19269999999999998,-52.11796428702795
-0.1937000000000001,-52.42920077299826
-0.19469999999999998,-52.471642111994214
-0.1957000000000001,-52.55652478998611
-0.19669999999999999,-52.42920077299826
-0.1977000000000001,-52.30187675601041
-0.1987,-52.17455273902255
-0.1997000000000001,-51.990640270040096
-0.2007,-51.86331625305225
-0.2017000000000001,-51.77843357506035
-0.2027,-51.990640270040096
-0.2037000000000001,-52.30187675601041
-0.2047,-52.514083450990164
-0.2057000000000001,-52.78287859796452
-0.2067,-53.26388043991864
-0.2077000000000001,-53.433645795902436
-0.2087,-53.68829382987814
-0.2097000000000001,-53.82976495986464
-0.2107,-53.82976495986464
-0.2117000000000001,-53.68829382987814
-0.2127,-53.603411151886235
-0.2137000000000001,-53.433645795902436
-0.2147,-53.30632177891458
-0.2157000000000001,-53.22143910092268
-0.2167,-53.16485064892808
-0.21770000000000012,-53.39120445690648
-0.2187,-53.603411151886235
-0.21970000000000012,-53.9570889768525
-0.2207,-54.16929567183226
-0.22170000000000012,-54.65029751378637
-0.2227,-54.876651321764776
-0.22370000000000012,-55.088858016744524
-0.2247,-55.21618203373238
-0.22570000000000012,-55.31521182472294
-0.2267,-55.17374069473642
-0.22770000000000012,-55.088858016744524
-0.22870000000000001,-54.961533999756675
-0.22970000000000013,-54.791768643772876
-0.23070000000000002,-54.65029751378637
-0.23170000000000013,-54.60785617479041
-0.23270000000000002,-54.919092660760725
-0.23370000000000013,-55.13129935574048
-0.23470000000000002,-55.442535841710786
-0.23570000000000013,-55.7820665536784
-0.23670000000000002,-56.26306839563251
-0.2376999999999999,-56.53186354260687
-0.23870000000000002,-56.82895291557852
-0.2396999999999999,-56.88554136757313
-0.24070000000000003,-56.97042404556503
-0.24169999999999991,-56.88554136757313
-0.24270000000000003,-56.786511576582576
-0.24369999999999992,-56.65918755959472
-0.24470000000000003,-56.489422203610914
-0.24569999999999992,-56.489422203610914
-0.24670000000000003,-56.44698086461496
-0.24769999999999992,-56.65918755959472
-0.24870000000000003,-56.97042404556503
-0.24969999999999992,-57.22507207954074
-0.25070000000000003,-57.62119124350295
-0.2516999999999999,-58.18707576344896
-0.25270000000000004,-58.45587091042332
-0.2536999999999999,-58.75296028339497
-0.25470000000000004,-58.92272563937878
-0.2556999999999999,-59.10663810836124
-0.25670000000000004,-59.06419676936528
-0.25769999999999993,-59.02175543036933
-0.25870000000000004,-58.92272563937878
-0.25969999999999993,-58.71051894439902
-0.26070000000000004,-58.75296028339497
-0.26169999999999993,-58.75296028339497
-0.26270000000000004,-59.06419676936528
-0.26369999999999993,-59.31884480334099
-0.26470000000000005,-59.67252262830725
-0.26569999999999994,-60.11108313126541
-0.26670000000000005,-60.67696765121143
-0.26769999999999994,-60.974057024183075
-0.26870000000000005,-61.327734849149344
-0.26969999999999994,-61.455058866137186
-0.27070000000000005,-61.6814126741156
-0.27169999999999994,-61.63897133511965
-0.27270000000000005,-61.5965299961237
-0.27369999999999994,-61.49750020513315
-0.27470000000000006,-61.412617527141244
-0.27569999999999995,-61.455058866137186
-0.27670000000000006,-61.49750020513315
-0.27769999999999995,-61.80873669110345
-0.27870000000000006,-62.16241451606972
-0.27969999999999995,-62.501945228037314
-0.28070000000000006,-62.89806439199953
-0.28169999999999995,-63.59127292893339
-0.28270000000000006,-63.860068075907755
-0.28369999999999995,-64.25618723986996
-0.28470000000000006,-64.46839393484973
-0.28569999999999995,-64.68060062982947
-0.28670000000000007,-64.72304196882543
-0.28769999999999996,-64.82207175981598
-0.28870000000000007,-64.68060062982947
-0.28969999999999996,-64.63815929083353
-0.29070000000000007,-64.72304196882543
-0.29169999999999996,-64.86451309881193
-0.29270000000000007,-65.20404381077954
-0.29369999999999996,-65.51528029674984
-0.2947000000000001,-65.99628213870396
-0.29569999999999996,-66.43484264166212
-0.2967000000000001,-67.08560983960004
-0.29769999999999996,-67.48172900356225
-0.2987000000000001,-67.86370105452582
-0.29969999999999997,-68.17493754049613
-0.3007000000000001,-68.48617402646643
-0.30169999999999997,-68.52861536546239
-0.3027000000000001,-68.57105670445833
-0.30369999999999997,-68.61349804345427
-0.3047000000000001,-68.61349804345427
-0.30569999999999997,-68.78326339943808
-0.3067000000000001,-68.91058741642594
-0.3077,-69.30670658038814
-0.3087000000000001,-69.6603844053544
-0.3097,-70.18382758630447
-0.3107000000000001,-70.70727076725453
-0.3117,-71.35803796519245
-0.3127000000000001,-71.75415712915466
-0.3137,-72.27760031010472
-0.3147000000000001,-72.57468968307639
-0.3157,-72.92836750804264
-0.3167000000000001,-73.0556915250305
-0.3177,-73.09813286402644
-0.3187000000000001,-73.23960399401295
-0.3197,-73.2820453330089
-0.3207000000000001,-73.49425202798865
-0.3217,-73.62157604497652
-0.3227000000000001,-74.06013654793468
-0.3237,-74.58357972888473
-0.3247000000000001,-75.1070229098348
-0.3257,-75.71534876877676
-0.3267000000000001,-76.50758709670117
-0.3277,-76.9037062606634
-0.3287000000000001,-77.46959078060941
-0.3297,-77.86570994457162
-0.3307000000000001,-78.24768199553519
-0.3317,-78.43159446451764
-0.3327000000000001,-78.55891848150549
-0.3337,-78.72868383748929
-0.3347000000000001,-78.85600785447714
-0.3357,-79.08236166245555
-0.3367000000000001,-79.33700969643127
-0.3377,-79.7755701993894
-0.3387000000000001,-80.34145471933543
-0.3397,-80.9497805782774
-0.3407000000000001,-81.61469488921396
-0.3417,-82.39278610413973
-0.3427000000000001,-82.95867062408576
-0.3437,-83.56699648302772
-0.3447000000000001,-84.00555698598588
-0.3457,-84.44411748894404
-0.3467000000000001,-84.6563241839238
-0.3477,-84.84023665290624
-0.3487000000000001,-85.052443347886
-0.3497,-85.27879715586442
-0.3507000000000001,-85.57588652883607
-0.3517,-85.84468167581042
-0.3527000000000001,-86.45300753475239
-0.3537,-87.06133339369435
-0.3547000000000001,-87.71210059163228
-0.3557,-88.46189758056073
-0.35670000000000013,-89.23998879548651
-0.3577,-89.89075599342443
-0.35870000000000013,-90.59811164335694
-0.3597,-91.16399616330297
-0.36070000000000013,-91.64499800525708
-0.3617,-91.94208737822873
-0.3626999999999999,-92.25332386419905
-0.3637,-92.6070016891653
-0.3646999999999999,-92.90409106213696
-0.3657,-93.34265156509512
-0.3666999999999999,-93.61144671206948
-0.3677,-94.30465524900335
-0.3686999999999999,-94.99786378593721
-0.36970000000000003,-95.79010211386164
-0.3706999999999999,-96.52575198979144
-0.37170000000000003,-97.44531433470372
-0.3726999999999999,-98.18096421063355
-0.37370000000000003,-98.97320253855796
-0.3746999999999999,-99.66641107549184
-0.37570000000000003,-100.2747369344338
-0.3766999999999999,-100.58597342040412
-0.37770000000000004,-101.06697526235823
-0.3786999999999999,-101.40650597432582
-0.37970000000000004,-101.76018379929208
-0.3806999999999999,-102.24118564124619
-0.38170000000000004,-102.63730480520842
-0.38269999999999993,-103.45783735913014
-0.38370000000000004,-104.2076343480586
-0.38469999999999993,-105.07060824097626
-0.38570000000000004,-105.94772924689259
-0.38669999999999993,-106.86729159180487
-0.38770000000000004,-107.64538280673065
-0.38869999999999993,-108.48006247365102
-0.38970000000000005,-109.17327101058488
-0.39069999999999994,-109.73915553053091
-0.39170000000000005,-110.22015737248502
-0.39269999999999994,-110.65871787544317
-0.39370000000000005,-111.09727837840134
-0.39469999999999994,-111.5358388813595
-0.39570000000000005,-112.01684072331359
-0.39669999999999994,-112.48369545226906
-0.39770000000000005,-113.31837511918944
-0.39869999999999994,-114.1530547861098
-0.39970000000000006,-114.97358734003153
-0.40069999999999995,-115.85070834594785
-0.40170000000000006,-116.89759470784797
-0.40269999999999995,-117.71812726176971
-0.40370000000000006,-118.59524826768603
-0.40469999999999995,-119.3450452566145
-0.40570000000000006,-119.99581245455242
-0.40669999999999995,-120.56169697449842
-0.40770000000000006,-121.12758149444444
-0.40869999999999995,-121.69346601439047
-0.40970000000000006,-122.21690919534053
-0.41069999999999995,-122.82523505428249
-0.41170000000000007,-123.532590704215
-0.41269999999999996,-124.43800593612862
-0.41370000000000007,-125.40000962003687
-0.41469999999999996,-126.40445464294103
-0.41570000000000007,-127.32401698785328
-0.41669999999999996,-128.54066870573723
-0.41770000000000007,-129.4602310506495
-0.41869999999999996,-130.42223473455772
-0.4197000000000001,-131.28520862747538
-0.42069999999999996,-132.07744695539984
-0.4217000000000001,-132.72821415333775
-0.42269999999999996,-133.37898135127566
-0.4237000000000001,-134.04389566221224
-0.42469999999999997,-134.6522215211542
-0.4257000000000001,-135.26054738009617
-0.42669999999999997,-136.03863859502192
-0.4277000000000001,-137.08552495692206
-0.42869999999999997,-138.04752864083028
-0.4297000000000001,-139.13685634172634
-0.43069999999999997,-140.2686253816184
-0.4317000000000001,-141.47112998650366
-0.4327,-142.6028990263957
-0.4337000000000001,-143.73466806628772
-0.4347,-144.58349484620675
-0.4357000000000001,-145.57379275611228
-0.4367,-146.28114840604482
-0.4377000000000001,-146.9885040559773
-0.4387,-147.55438857592333
-0.4397000000000001,-148.12027309586935
-0.4407,-148.96909987578834
-0.4417000000000001,-149.6764555257209
-0.4427,-150.8082245656129
-0.4437000000000001,-151.7985224755184
-0.4447,-152.78882038542397
-0.4457000000000001,-153.920589425316
-0.4467,-155.33530072518104
-0.4477000000000001,-156.46706976507306
-0.4487,-157.59883880496508
-0.4497000000000001,-158.5891367148706
-0.4507,-159.43796349478964
-0.4517000000000001,-160.14531914472215
-0.4527,-160.99414592464117
-0.4537000000000001,-161.70150157457368
-0.4547,-162.2673860945197
-0.4557000000000001,-163.11621287443873
-0.4567,-163.96503965435775
-0.4577000000000001,-165.09680869424977
-0.4587,-166.22857773414182
-0.4597000000000001,-167.36034677403384
-0.4607,-168.63358694391238
-0.4617000000000001,-170.0482982437774
-0.4627,-171.18006728366944
-0.4637000000000001,-172.45330745354798
-0.4647,-173.44360536345349
-0.4657000000000001,-174.57537440334553
-0.4667,-175.42420118326456
-0.4677000000000001,-176.27302796318358
-0.4687,-177.1218547431026
-0.4697000000000001,-177.9706815230216
-0.4707,-178.81950830294062
-0.4717000000000001,-179.80980621284618
-0.4727,-181.08304638272472
-0.4737000000000001,-182.21481542261674
-0.4747,-183.48805559249527
-0.4757000000000001,-184.7612957623738
-0.4767,-186.31747819222534
-0.4777000000000001,-187.44924723211736
-0.4787,-188.8639585319824
-0.4797000000000001,-189.99572757187443
-0.4807,-191.12749661176645
-0.48170000000000013,-192.11779452167198
-0.4827,-192.966621301591
-0.48370000000000013,-193.81544808151003
-0.4847,-194.66427486142905
-0.48570000000000013,-195.65457277133459
-0.4867,-195.23015938137505
-0.48570000000000013,-192.40073678164498
-0.4847,-189.8542564418879
-0.48370000000000013,-187.59071836210387
-0.4827,-185.3271802823198
-0.48170000000000013,-183.48805559249527
-0.4807,-181.5074597726842
-0.4797000000000001,-179.38539282288664
-0.4787,-177.4047970030756
-0.4777000000000001,-175.42420118326456
-0.4767,-173.302134233467
-0.4757000000000001,-171.18006728366944
-0.4747,-169.0580003338719
-0.4737000000000001,-166.79446225408785
-0.4727,-164.81386643427678
-0.4717000000000001,-162.97474174445222
-0.4707,-161.2770881846142
-0.4697000000000001,-159.57943462477613
-0.4687,-158.02325219492457
-0.4677000000000001,-156.60854089505958
-0.4667,-155.33530072518104
-0.4657000000000001,-153.77911829532948
-0.4647,-152.22293586547795
-0.4637000000000001,-150.66675343562642
-0.4627,-149.1105710057749
