Potential V vs RHE, Current mA cm-2
0.4132999999999999,-0.003357109914579732
0.4122999999999999,-0.0061950207821089955
0.4112999999999999,-0.007391866541794816
0.4102999999999999,-0.008253425723412623
0.4092999999999999,-0.00923806478811869
0.4082999999999999,-0.010149138865231774
0.4072999999999999,-0.011006453912949984
0.4062999999999999,-0.01177181272617697
0.4052999999999999,-0.012589515857498962
0.4042999999999999,-0.013524640026709752
0.4032999999999999,-0.01426028990263957
0.4022999999999999,-0.01503838111756534
0.4012999999999999,-0.01588720789748436
0.4002999999999999,-0.01658041643441823
0.3992999999999999,-0.01748583166633185
0.3982999999999999,-0.018263922881257624
0.3972999999999999,-0.01897127853119014
0.3962999999999999,-0.019805958198110513
0.3952999999999999,-0.020513313848043033
0.3942999999999999,-0.021291405062968803
0.39329999999999987,-0.022126084729889174
0.39229999999999987,-0.02280514615382439
0.39129999999999987,-0.02352664891675556
0.39029999999999987,-0.02426229879268538
0.38929999999999987,-0.02506868423360845
0.38829999999999987,-0.02590336390052882
0.38729999999999987,-0.026709749341451892
0.38629999999999987,-0.027487840556377662
0.38529999999999986,-0.02829422599730073
0.38429999999999986,-0.028973287421235953
0.38329999999999986,-0.02979381997515767
0.38229999999999986,-0.030713382320069947
0.38129999999999986,-0.03132170817901191
0.38029999999999986,-0.032085652280939035
0.37929999999999986,-0.032552507009894496
0.37829999999999986,-0.03359939337179463
0.37729999999999986,-0.03450480860370824
0.37629999999999986,-0.03508484023665291
0.37529999999999986,-0.03593366701657193
0.37429999999999986,-0.03679664090948961
0.37329999999999985,-0.03768790902840457
0.37229999999999985,-0.03833867622634249
0.37129999999999985,-0.03891870785928716
0.37029999999999985,-0.039894858656194035
0.36929999999999985,-0.04087100945310092
0.36829999999999985,-0.04121054016506852
0.36729999999999985,-0.04203107271899024
0.36629999999999985,-0.04289404661190791
0.36529999999999985,-0.04368628493983233
0.36429999999999985,-0.044874642431718965
0.36329999999999985,-0.04500196644870682
0.36229999999999984,-0.045624439420647436
0.36129999999999984,-0.046360089296577256
0.36029999999999984,-0.04702500360751381
0.35929999999999984,-0.04787383038743284
0.35829999999999984,-0.04846800913337616
0.35729999999999984,-0.04914707055731138
0.35629999999999984,-0.050080780015222294
0.35529999999999984,-0.05100034236013457
0.35429999999999984,-0.05150963842808598
0.35329999999999984,-0.052514083450990165
0.35229999999999984,-0.052231141191017155
0.35129999999999983,-0.05307996797093617
0.35029999999999983,-0.053419498682903785
0.34929999999999983,-0.05411270721983765
0.34829999999999983,-0.05538594738971618
0.34729999999999983,-0.05551327140670404
0.34629999999999983,-0.05599427324865815
0.34529999999999983,-0.05742313166152184
0.34429999999999983,-0.05694212981956772
0.3432999999999998,-0.05670162889859067
0.3422999999999998,-0.05705530672355694
0.3412999999999998,-0.057394837435524544
0.3402999999999998,-0.05842757668442602
0.3392999999999998,-0.05931884480334099
0.3382999999999998,-0.05984228798429105
0.3372999999999998,-0.06081843878119793
0.3362999999999998,-0.0613135877361507
0.3352999999999998,-0.06221900296806432
0.3342999999999998,-0.0638176267369118
0.3332999999999998,-0.06592554657371072
0.3322999999999998,-0.06702902138760544
0.3312999999999998,-0.06721293385658789
0.3302999999999998,-0.06783540682852851
0.3292999999999998,-0.06861349804345429
0.3282999999999998,-0.0695472075013652
0.3272999999999998,-0.07012723913430988
0.3262999999999998,-0.06941988348437735
0.3252999999999999,-0.06984429687433687
0.3242999999999999,-0.07052335829827208
0.3232999999999999,-0.07273030792606154
0.3222999999999999,-0.07319716265501701
0.3212999999999999,-0.07352254625398597
0.3202999999999999,-0.07394695964394547
0.3192999999999999,-0.07488066910185638
0.3182999999999999,-0.07594170257675517
0.3172999999999999,-0.07653588132269848
0.3162999999999999,-0.07768179747558916
0.3152999999999999,-0.07831841756052843
0.3142999999999999,-0.07926627413143801
0.3132999999999999,-0.08010095379835838
0.3122999999999999,-0.08087904501328413
0.3112999999999999,-0.08199666694017753
0.3102999999999999,-0.0828879350590925
0.3092999999999999,-0.08338308401404526
0.3082999999999999,-0.0849109722178995
0.3072999999999999,-0.0849958548958914
0.3062999999999999,-0.08566076920682797
0.3052999999999999,-0.08683497958571595
0.3042999999999999,-0.08734427565366736
0.3032999999999999,-0.08809407264259583
0.3022999999999999,-0.08897119364851215
0.3012999999999999,-0.0886741042755405
0.3002999999999999,-0.09119229038930025
0.2992999999999999,-0.09397927165003438
0.2982999999999999,-0.09433294947500065
0.2972999999999999,-0.09635598663380765
0.2962999999999999,-0.0965116048767928
0.2952999999999999,-0.09516762914192102
0.2942999999999999,-0.09569107232287108
0.2932999999999999,-0.09552130696688728
0.2922999999999999,-0.0964267221988009
0.2912999999999999,-0.09795461040265514
0.2902999999999999,-0.09878929006957551
0.2892999999999999,-0.09975129375348374
0.2882999999999999,-0.10101038681036362
0.2872999999999999,-0.10181677225128669
0.2862999999999999,-0.10255242212721652
0.2852999999999999,-0.10342954313313284
0.2842999999999999,-0.10437739970404242
0.2832999999999999,-0.10621652439386696
0.2822999999999999,-0.10743317611175088
0.2812999999999999,-0.10747561745074685
0.2802999999999999,-0.10941377193156195
0.2792999999999999,-0.11139436775137299
0.2782999999999999,-0.11132363218637975
0.2772999999999999,-0.11159242733335409
0.2762999999999999,-0.11160657444635275
0.2752999999999999,-0.1133325222321881
0.2742999999999999,-0.11428037880309765
0.2732999999999999,-0.11556776608597484
0.2722999999999999,-0.11493114600103559
0.2712999999999999,-0.11660050533487633
0.2702999999999999,-0.11688344759484932
0.2692999999999999,-0.11801521663474136
0.26829999999999987,-0.11848207136369682
0.26729999999999987,-0.12029290182752407
0.26629999999999987,-0.12025046048852812
0.26529999999999987,-0.12203299672635806
0.26429999999999987,-0.12364576760820419
0.26329999999999987,-0.12548489229802873
0.26229999999999987,-0.12691375071089245
0.26129999999999987,-0.12838505046275206
0.26029999999999986,-0.12895093498269808
0.25929999999999986,-0.129318759920663
0.25829999999999986,-0.13152570954845244
0.25729999999999986,-0.1322896536503796
0.25629999999999986,-0.1329970093003121
0.25529999999999986,-0.13385998319322978
0.25429999999999986,-0.13674599424495446
0.25329999999999986,-0.13745334989488697
0.25229999999999986,-0.13654793466297335
0.25129999999999986,-0.13613766838601246
0.25029999999999986,-0.13565666654405836
0.24929999999999986,-0.13769385081586402
0.24829999999999985,-0.13927832747171287
0.24729999999999985,-0.14117404061353203
0.24629999999999985,-0.14093353969255495
0.24529999999999985,-0.1435931969363012
0.24429999999999985,-0.14444202371622025
0.24329999999999985,-0.14514937936615277
0.24229999999999985,-0.14514937936615277
0.24129999999999985,-0.14769585970590982
0.24029999999999985,-0.14896909987578838
0.23929999999999985,-0.15264734925543746
0.23829999999999985,-0.15392058942531597
0.23729999999999984,-0.15476941620523502
0.23629999999999984,-0.15802325219492458
0.23529999999999984,-0.16028679027470866
0.23429999999999984,-0.15717442541500556
0.23329999999999984,-0.15660854089505957
0.23229999999999984,-0.15943796349478964
0.23129999999999984,-0.16438945304431726
0.23029999999999984,-0.16467239530429026
0.22929999999999984,-0.16707740451406086
0.22829999999999984,-0.1694824137238314
0.22729999999999984,-0.1697653559838044
0.22629999999999983,-0.17188742293360199
0.22529999999999983,-0.17881950830294063
0.22429999999999983,-0.18716630497214437
0.22329999999999983,-0.18702483384215784
0.22229999999999983,-0.19183485226169897
0.22129999999999983,-0.19692781294121312
0.22029999999999983,-0.1976351685911456
0.21929999999999983,-0.19593751503130757
0.21829999999999983,-0.19565457277133455
0.21729999999999983,-0.19494721712140206
0.21629999999999983,-0.20329401379060577
0.21529999999999982,-0.2081040322101469
0.21429999999999982,-0.20513313848043033
0.21329999999999982,-0.20838697447011992
0.21229999999999982,-0.2160264154893911
0.21129999999999982,-0.22140231842887825
0.21029999999999982,-0.24927213103621945
0.20929999999999982,-0.29906996879146874
0.20829999999999982,-0.30897294789052404
0.20729999999999982,-0.3144903219599976
0.20629999999999982,-0.3149147353499572
0.20529999999999982,-0.32623242574887745
0.20429999999999982,-0.33684276049786527
0.20329999999999981,-0.34391631699719044
0.2022999999999998,-0.3359939337179463
0.2012999999999998,-0.3335889245081756
0.20029999999999992,-0.33740864501781126
0.19929999999999992,-0.34476514377710943
0.19829999999999992,-0.3565072475659892
0.19729999999999992,-0.3642881597152469
0.19629999999999992,-0.387347953903047
0.19529999999999992,-0.42002778492992937
0.19429999999999992,-0.4459170017174596
0.19329999999999992,-0.45652733646644733
0.19229999999999992,-0.4593567590661774
0.19129999999999991,-0.47435269884474673
0.1902999999999999,-0.4906218787931947
0.1892999999999999,-0.48991452314326217
0.1882999999999999,-0.49316835913295176
0.1872999999999999,-0.5101448947313323
0.1862999999999999,-0.5265555458097667
0.1852999999999999,-0.5374488228187275
0.1842999999999999,-0.5431076680181876
0.1832999999999999,-0.5456541483579447
0.1822999999999999,-0.5510300512974318
0.1812999999999999,-0.5521618203373237
0.1802999999999999,-0.5493323977375938
0.1792999999999999,-0.5527277048572699
0.1782999999999999,-0.5606500881365141
0.1772999999999999,-0.5641868663861767
0.1762999999999999,-0.5653186354260686
0.1752999999999999,-0.5726751341853669
0.1742999999999999,-0.5808804597245841
0.1732999999999999,-0.5903590254336798
0.1722999999999999,-0.5970081685430455
0.1712999999999999,-0.5994131777528161
0.1702999999999999,-0.6001205334027485
0.1692999999999999,-0.6005449467927081
0.1682999999999999,-0.6047890806923032
0.1672999999999999,-0.6079014455520062
0.1662999999999999,-0.6117211660616418
0.1652999999999999,-0.6091746857218847
0.1642999999999999,-0.619360607080913
0.1632999999999999,-0.635912729289334
0.1622999999999999,-0.6401568631889291
0.1612999999999999,-0.6521819092377819
0.1602999999999999,-0.6545869184475525
0.1592999999999999,-0.6616604749468776
0.15829999999999989,-0.6673193201463378
0.15729999999999988,-0.6708560983960004
0.15629999999999988,-0.6776467126353526
0.15529999999999988,-0.6722708096958655
0.15429999999999988,-0.6722708096958655
0.15329999999999988,-0.6804761352350827
0.15229999999999988,-0.6851446825246373
0.15129999999999988,-0.7018382758630447
0.15029999999999988,-0.7063653520226129
0.14929999999999988,-0.7162683311216681
0.14829999999999988,-0.7243321855308987
0.14729999999999988,-0.733952222369981
0.14629999999999987,-0.7383378273995627
0.14529999999999987,-0.7421575479091983
0.14429999999999987,-0.75220199813824
0.14329999999999987,-0.75503142073797
0.14229999999999987,-0.749089633278537
0.14129999999999987,-0.7408843077393197
0.14029999999999987,-0.7434307880790767
0.13929999999999987,-0.7619635061073088
0.13829999999999987,-0.7691785337366205
0.13729999999999987,-0.7779497437957836
0.13629999999999987,-0.7829012333453113
0.13529999999999986,-0.7848818291651223
0.13429999999999986,-0.7911065588845285
0.13329999999999986,-0.7959165773040696
0.13229999999999986,-0.8035560183233408
0.13129999999999986,-0.7995948266837187
0.13029999999999986,-0.7899747898446364
0.12929999999999986,-0.7851647714250953
0.12829999999999986,-0.8133175262924096
0.12729999999999986,-0.8194007848818293
0.12629999999999986,-0.8140248819423421
0.12529999999999986,-0.8147322375922746
0.12429999999999986,-0.8218057940915999
0.12329999999999985,-0.8373676183901153
0.12229999999999985,-0.845714415059319
0.12129999999999985,-0.8426020501996159
0.12029999999999985,-0.8362358493502232
0.11929999999999985,-0.8363773204802097
0.11829999999999985,-0.8409043966397778
0.11729999999999985,-0.8475535397491435
0.11629999999999985,-0.8638227196975914
0.11529999999999985,-0.8621250661377534
0.11429999999999985,-0.8643886042175374
0.11329999999999985,-0.8693400937670651
0.11229999999999984,-0.8730183431467142
0.11129999999999984,-0.8829213222457692
0.11029999999999984,-0.884194562415648
0.10929999999999984,-0.8894289942251485
0.10829999999999984,-0.9090934812932725
0.10729999999999984,-0.9199867583022334
0.10629999999999984,-0.9222502963820175
0.10529999999999984,-0.9247967767217745
0.10429999999999984,-0.9330021022609917
0.10329999999999984,-0.9382365340704923
0.10229999999999984,-0.9369632939006136
0.10129999999999983,-0.9546471851489268
0.10029999999999983,-0.963701337468063
0.09929999999999983,-0.961154857128306
0.09829999999999983,-0.9554960119288457
0.09729999999999983,-0.9499786378593722
0.09629999999999983,-0.9576180788786434
0.09529999999999983,-0.9652575198979146
0.09429999999999983,-0.9697845960574827
0.09329999999999983,-0.9844975935760791
0.09229999999999983,-0.9963811684949454
0.09129999999999983,-1.0085476856737847
0.09029999999999982,-1.0143480020032312
0.08929999999999982,-1.0234021543223675
0.08829999999999982,-1.0217045007625294
0.08729999999999982,-1.0259486346621245
0.08629999999999982,-1.0299098263017468
0.08529999999999982,-1.0511304957997225
0.08429999999999982,-1.062023772808683
0.08329999999999982,-1.0723511652976978
0.08229999999999982,-1.0880544607261995
0.08129999999999982,-1.1080018900542967
0.08029999999999982,-1.1140851486437164
0.07929999999999982,-1.1214416474030147
0.07829999999999981,-1.1191781093232305
0.07729999999999981,-1.1140851486437164
0.07629999999999981,-1.113094850733811
0.07529999999999992,-1.1357302315316515
0.07429999999999992,-1.1463405662806392
0.07329999999999992,-1.1664294667387227
0.07229999999999992,-1.205192556355025
0.07129999999999992,-1.2180664291837966
0.07029999999999992,-1.2180664291837966
0.06929999999999992,-1.2109928726844712
0.06829999999999992,-1.210002574774566
0.06729999999999992,-1.2223105630833917
0.06629999999999991,-1.2377309162519208
0.06529999999999991,-1.2497559623007732
0.06429999999999991,-1.2562636342801525
0.06329999999999991,-1.2548489229802875
0.06229999999999991,-1.2592345280098693
0.06129999999999991,-1.2667324978991539
0.06029999999999991,-1.2593759991398557
0.05929999999999991,-1.2643274886893834
0.05829999999999991,-1.2755037079583171
0.05729999999999991,-1.2936120125965895
0.056299999999999906,-1.318793873734187
0.055299999999999905,-1.3230380076337822
0.054299999999999904,-1.3357704093325677
0.0532999999999999,-1.3466636863415284
0.0522999999999999,-1.3346386402926755
0.0512999999999999,-1.344824561651704
0.0502999999999999,-1.3509078202411233
0.0492999999999999,-1.3562837231806106
0.0482999999999999,-1.3722699608690856
0.0472999999999999,-1.3753823257287887
0.0462999999999999,-1.3564251943105972
0.045299999999999896,-1.345673388431623
0.044299999999999895,-1.3513322336310831
0.043299999999999894,-1.368733182619423
0.04229999999999989,-1.3978762353966427
0.04129999999999989,-1.3992909466965078
0.04029999999999989,-1.3926418035871422
0.03929999999999989,-1.3943394571469803
0.03829999999999989,-1.4104671659654415
0.03729999999999989,-1.431687835463417
0.03629999999999989,-1.4458349484620676
0.03529999999999989,-1.459982061460718
0.034299999999999886,-1.4783733083589634
0.033299999999999885,-1.4797880196588282
0.032299999999999884,-1.4755438857592333
0.031299999999999883,-1.4840321535584236
0.030299999999999883,-1.502423400456669
0.02929999999999988,-1.5236440699546445
0.02829999999999988,-1.5321323377538347
0.02729999999999988,-1.53920589425316
0.02629999999999988,-1.5590118524512704
0.025299999999999878,-1.5816472332491107
0.024299999999999877,-1.5887207897484361
0.023299999999999876,-1.583061944548976
0.022299999999999875,-1.587306078448571
0.021299999999999875,-1.6071120366466816
0.020299999999999874,-1.6255032835449272
0.019299999999999873,-1.6509680869424979
0.018299999999999872,-1.6990682711379093
0.01729999999999987,-1.7103859615368293
0.01629999999999987,-1.72736249713521
0.01529999999999987,-1.7386801875341302
0.014299999999999868,-1.7485831666331852
0.013299999999999867,-1.7627302796318356
0.012299999999999978,-1.781121526530081
0.011299999999999866,-1.7881950830294064
0.010299999999999976,-1.7853656604296764
0.009299999999999864,-1.7924392169290013
0.008299999999999974,-1.8164893090267071
0.007299999999999862,-1.8461982463238729
0.006299999999999972,-1.884395451420229
0.00529999999999986,-1.8858101627200938
0.0042999999999999705,-1.895713141819149
0.0032999999999998586,-1.92117794521672
0.0022999999999999687,-1.9409839034148304
0.0012999999999998568,-1.963619284212671
0.00029999999999996696,-1.9820105311109162
-0.000700000000000145,-1.993328221509837
-0.0017000000000000348,-1.9947429328097017
-0.0027000000000001467,-1.993328221509837
-0.0037000000000000366,-1.9961576441095665
-0.0047000000000001485,-2.004645911908757
-0.005700000000000038,-2.0159636023076772
-0.00670000000000015,-2.044257828304978
-0.00770000000000004,-2.0584049413036287
-0.008700000000000152,-2.0683079204026833
-0.009700000000000042,-2.079625610801604
-0.010700000000000154,-2.0994315689997145
-0.011700000000000044,-2.1079198367989047
-0.012700000000000156,-2.0994315689997145
-0.013700000000000045,-2.1093345480987695
-0.014700000000000157,-2.133384640196476
-0.015700000000000047,-2.1475317531951257
-0.01670000000000016,-2.1531905983945863
-0.01770000000000005,-2.181484824391887
-0.01870000000000016,-2.1984613599902674
-0.01970000000000005,-2.216852606888512
-0.020700000000000163,-2.2225114520879723
-0.021700000000000053,-2.235243853786758
-0.022700000000000164,-2.249390966785408
-0.023700000000000054,-2.263538079784059
-0.024700000000000166,-2.2663675023837886
-0.025700000000000056,-2.273441058883114
-0.026700000000000168,-2.2932470170812245
-0.027700000000000058,-2.318711820478795
-0.02870000000000017,-2.3342736447773107
-0.02970000000000006,-2.348420757775961
-0.03070000000000017,-2.3753002724733965
-0.03170000000000006,-2.379544406372992
-0.03270000000000017,-2.383788540272587
-0.03370000000000006,-2.3908620967719116
-0.034700000000000175,-2.396520941971372
-0.035700000000000065,-2.4234004566688077
-0.03670000000000018,-2.4318887244679983
-0.03770000000000007,-2.437547569667458
-0.03870000000000018,-2.4545241052658384
-0.03970000000000007,-2.468671218264489
-0.04070000000000018,-2.463012373065029
-0.04170000000000007,-2.4842330425630044
-0.04270000000000018,-2.50545371206098
-0.04370000000000007,-2.50828313466071
-0.044700000000000184,-2.512527268560305
-0.045700000000000074,-2.5295038041586855
-0.046700000000000186,-2.5266743815589554
-0.047700000000000076,-2.546480339757066
-0.04870000000000019,-2.5747745657543666
-0.04970000000000008,-2.6257041725495083
-0.05070000000000019,-2.6200453273500477
-0.05170000000000008,-2.5988246578520724
-0.05270000000000019,-2.576189277054232
-0.05370000000000008,-2.600239369151937
-0.05470000000000019,-2.6440954194477535
-0.05570000000000008,-2.655413109846674
-0.056700000000000195,-2.629948306449103
-0.057700000000000085,-2.629948306449103
-0.058700000000000196,-2.655413109846674
-0.059700000000000086,-2.6539983985468085
-0.0607000000000002,-2.662486666345999
-0.06170000000000009,-2.666730800245594
-0.0627000000000002,-2.6851220471438397
-0.06370000000000009,-2.7162456957408705
-0.0647000000000002,-2.734636942639116
-0.06570000000000009,-2.7473693443379013
-0.0667000000000002,-2.7615164573365516
-0.0677000000000001,-2.7742488590353367
-0.0687000000000002,-2.7841518381343926
-0.0697000000000001,-2.794054817233447
-0.07070000000000021,-2.795469528533313
-0.0717000000000001,-2.8096166415319628
-0.07270000000000021,-2.836496156229398
-0.0737000000000001,-2.844984424028589
-0.07470000000000021,-2.8534726918277786
-0.0757000000000001,-2.8280078884302084
-0.07670000000000021,-2.818104909331153
-0.0777000000000001,-2.811031352831828
-0.07870000000000021,-2.8096166415319628
-0.0797000000000001,-2.8152754867314234
-0.08070000000000022,-2.820934331930883
