Potential V vs RHE, Current mA cm-2
0.013299999999999867,0.863681248567605
0.012299999999999978,-0.13731187876490047
0.011299999999999866,-0.7978971731238806
0.010299999999999976,-1.2699863338888435
0.009299999999999864,-1.6255032835449272
0.008299999999999974,-1.8730777610213083
0.007299999999999862,-2.0881138786007942
0.006299999999999972,-2.3017352848804147
0.00529999999999986,-2.49413602166206
0.0042999999999999705,-2.6426807081478887
0.0032999999999998586,-2.7516134782374966
0.0022999999999999687,-2.8619609596269693
0.0012999999999998568,-3.004846800913338
0.00029999999999996696,-3.122267838802136
-0.000700000000000145,-3.2184682071929585
-0.0017000000000000348,-3.2892037721862106
-0.0027000000000001467,-3.355695203279867
-0.0037000000000000366,-3.4490661490709593
-0.0047000000000001485,-3.5495106513613774
-0.005700000000000038,-3.630149195453684
-0.00670000000000015,-3.683908224848555
-0.00770000000000004,-3.7192760073451816
-0.008700000000000152,-3.788596861038568
-0.009700000000000042,-3.8791383842299307
-0.010700000000000154,-3.9470445266234524
-0.011700000000000044,-3.9894858656194034
-0.012700000000000156,-4.030512493315489
-0.013700000000000045,-4.089930367909821
-0.014700000000000157,-4.1691542007022635
-0.015700000000000047,-4.214424962297944
-0.01670000000000016,-4.237060343095785
-0.01770000000000005,-4.271013414292546
-0.01870000000000016,-4.330431288886877
-0.01970000000000005,-4.402581565179994
-0.020700000000000163,-4.454925883275001
-0.021700000000000053,-4.471902418873381
-0.022700000000000164,-4.503026067470412
-0.023700000000000054,-4.5497115403659585
-0.024700000000000166,-4.61761768275948
-0.025700000000000056,-4.6614737330552956
-0.026700000000000168,-4.672791423454216
-0.027700000000000058,-4.695426804252056
-0.02870000000000017,-4.749185833646928
-0.02970000000000006,-4.80577428564153
-0.03070000000000017,-4.852459758537076
-0.03170000000000006,-4.855289181136806
-0.03270000000000017,-4.876509850634781
-0.03370000000000006,-4.918951189630732
-0.034700000000000175,-4.978369064225063
-0.035700000000000065,-5.00807800152223
-0.03670000000000018,-5.01373684672169
-0.03770000000000007,-5.026469248420476
-0.03870000000000018,-5.068910587416426
-0.03970000000000007,-5.125499039411029
-0.04070000000000018,-5.153793265408329
-0.04170000000000007,-5.158037399307924
-0.04270000000000018,-5.162281533207518
-0.04370000000000007,-5.200478738303874
-0.044700000000000184,-5.254237767698746
-0.045700000000000074,-5.271214303297127
-0.046700000000000186,-5.272629014596992
-0.047700000000000076,-5.272629014596992
-0.04870000000000019,-5.312240930993213
-0.04970000000000008,-5.365999960388084
-0.05070000000000019,-5.3702440942876795
-0.05170000000000008,-5.368829382987815
-0.05270000000000019,-5.373073516887409
-0.05370000000000008,-5.399953031584845
-0.05470000000000019,-5.445223793180525
-0.05570000000000008,-5.452297349679851
-0.056700000000000195,-5.446638504480391
-0.057700000000000085,-5.445223793180525
-0.058700000000000196,-5.472103307877963
-0.059700000000000086,-5.504641667774858
-0.0607000000000002,-5.503226956474993
-0.06170000000000009,-5.503226956474993
-0.0627000000000002,-5.493323977375938
-0.06370000000000009,-5.518788780773508
-0.0647000000000002,-5.551327140670404
-0.06570000000000009,-5.556985985869864
-0.0667000000000002,-5.524447625972968
-0.0677000000000001,-5.515959358173778
-0.0687000000000002,-5.544253584171079
-0.0697000000000001,-5.5739625214682444
-0.07070000000000021,-5.579621366667705
-0.0717000000000001,-5.548497718070673
-0.07270000000000021,-5.531521182472294
-0.0737000000000001,-5.532935893772159
-0.07470000000000021,-5.5541565632701335
-0.0757000000000001,-5.565474253669055
-0.07670000000000021,-5.508885801674452
-0.0777000000000001,-5.497568111275533
-0.07870000000000021,-5.5145446468739125
-0.0797000000000001,-5.5272770485726985
-0.08070000000000022,-5.524447625972968
-0.0817000000000001,-5.486250420876612
-0.08270000000000022,-5.453712060979717
-0.08370000000000011,-5.459370906179177
-0.08470000000000022,-5.4622003287789065
-0.08570000000000011,-5.453712060979717
-0.08670000000000022,-5.41268543328363
-0.08770000000000011,-5.385805918586194
-0.08870000000000022,-5.3900500524857895
-0.08970000000000011,-5.397123608985115
-0.09070000000000022,-5.367414671687949
-0.09170000000000011,-5.329217466591594
-0.09270000000000023,-5.2910202614952375
-0.09370000000000012,-5.282531993696048
-0.09470000000000023,-5.303752663194023
-0.09570000000000012,-5.274043725896856
-0.09670000000000023,-5.211796428702795
-0.09770000000000012,-5.177843357506034
-0.09870000000000023,-5.163696244507384
-0.09970000000000012,-5.165110955807249
-0.10070000000000023,-5.143890286309273
-0.10170000000000012,-5.098619524713592
-0.10270000000000024,-5.056178185717641
-0.10370000000000013,-5.039201650119261
-0.10470000000000024,-5.034957516219666
-0.10570000000000013,-5.01373684672169
-0.10670000000000024,-4.952904260827493
-0.10770000000000013,-4.903389365332218
-0.10870000000000024,-4.889242252333567
-0.10970000000000013,-4.8849981184339715
-0.11070000000000024,-4.849630335937346
-0.11170000000000013,-4.788797750043149
-0.11270000000000002,-4.753429967546523
-0.11370000000000013,-4.743526988447469
-0.11470000000000002,-4.730794586748683
-0.11570000000000014,-4.706744494650977
-0.11670000000000003,-4.633179507057995
-0.11770000000000014,-4.587908745462314
-0.11870000000000003,-4.565273364664473
-0.11970000000000014,-4.556785096865283
-0.12070000000000003,-4.520002603068792
-0.12170000000000014,-4.463414151074191
-0.12270000000000003,-4.408240410379454
-0.12370000000000014,-4.398337431280399
-0.12470000000000003,-4.389849163481209
-0.12570000000000014,-4.343163690585662
-0.12670000000000003,-4.295063506390251
-0.12770000000000015,-4.229986786596459
-0.12870000000000004,-4.21018082839835
-0.12970000000000015,-4.187545447600509
-0.13070000000000004,-4.167739489402398
-0.13170000000000015,-4.111151037407797
-0.13270000000000004,-4.077197966211036
-0.13370000000000015,-4.0446596063141405
-0.13470000000000004,-4.046074317614004
-0.13570000000000015,-4.000803556018323
-0.13670000000000004,-3.944215104023722
-0.13770000000000016,-3.906017898927366
-0.13870000000000005,-3.901773765027771
-0.13970000000000016,-3.887626652029121
-0.14070000000000005,-3.8579177147319554
-0.14170000000000016,-3.798499840137624
-0.14270000000000005,-3.7574732124415373
-0.14370000000000016,-3.7433260994428865
-0.14470000000000005,-3.7390819655432916
-0.14570000000000016,-3.710787739545991
-0.14670000000000005,-3.66268755535058
-0.14770000000000016,-3.6244903502542236
-0.14870000000000005,-3.6160020824550334
-0.14970000000000017,-3.6145873711551686
-0.15070000000000006,-3.594781412957058
-0.15170000000000017,-3.5381929609624567
-0.15270000000000006,-3.505654601065561
-0.15370000000000017,-3.509898734965156
-0.15470000000000006,-3.504239889765696
-0.15570000000000017,-3.4886780654671803
-0.15670000000000006,-3.439163169971904
-0.15770000000000017,-3.402380676175413
-0.15870000000000006,-3.400965964875548
-0.15970000000000018,-3.403795387475278
-0.16070000000000007,-3.3839894292771677
-0.16170000000000018,-3.3486216467805416
-0.16270000000000007,-3.3189127094833766
-0.16370000000000018,-3.3245715546828363
-0.16470000000000007,-3.3387186676814866
-0.16570000000000018,-3.3118391529840507
-0.16670000000000007,-3.27788608178729
-0.16770000000000018,-3.2453477218903943
-0.16870000000000007,-3.249591855789989
-0.16970000000000018,-3.265153680088505
-0.17070000000000007,-3.249591855789989
-0.17170000000000019,-3.217053495893093
-0.17270000000000008,-3.200076960294713
-0.1737000000000002,-3.1972475376949827
-0.17470000000000008,-3.2241270523924186
-0.1757000000000002,-3.1972475376949827
-0.17670000000000008,-3.164709177798087
-0.1777000000000002,-3.1434885083001114
-0.17870000000000008,-3.1378296631006513
-0.1797000000000002,-3.168953311697682
-0.18070000000000008,-3.160465043898492
-0.1817000000000002,-3.1335855292010564
-0.18270000000000008,-3.1180237049025408
-0.1837000000000002,-3.122267838802136
-0.1847000000000001,-3.1449032195999767
-0.1857000000000002,-3.1321708179011907
-0.1867000000000001,-3.0996324580042955
-0.1877000000000002,-3.08972947890524
-0.1887000000000001,-3.0982177467044303
-0.1897000000000002,-3.1279266840015962
-0.1907000000000001,-3.120853127502271
-0.1917000000000001,-3.0982177467044303
-0.19269999999999998,-3.08124121110605
-0.1937000000000001,-3.10104716930416
-0.19469999999999998,-3.119438416202406
-0.1957000000000001,-3.120853127502271
-0.19669999999999999,-3.0968030354045655
-0.1977000000000001,-3.08124121110605
-0.1987,-3.1067060145036205
-0.1997000000000001,-3.129341395301461
-0.2007,-3.129341395301461
-0.2017000000000001,-3.1081207258034858
-0.2027,-3.0911441902051053
-0.2037000000000001,-3.120853127502271
-0.2047,-3.1434885083001114
-0.2057000000000001,-3.1463179308998415
-0.2067,-3.1279266840015962
-0.2077000000000001,-3.113779571002946
-0.2087,-3.135000240500921
-0.2097000000000001,-3.1760268681970074
-0.2107,-3.168953311697682
-0.2117000000000001,-3.161879755198357
-0.2127,-3.1491473534995715
-0.2137000000000001,-3.168953311697682
-0.2147,-3.205735805494173
-0.2157000000000001,-3.2297858975918787
-0.2167,-3.1944181150952526
-0.21770000000000012,-3.1887592698957925
-0.2187,-3.2099799393937682
-0.21970000000000012,-3.2453477218903943
-0.2207,-3.2580801235891794
-0.22170000000000012,-3.2368594540912037
-0.2227,-3.2411035879907995
-0.22370000000000012,-3.2623242574887747
-0.2247,-3.2934479060858055
-0.22570000000000012,-3.3061803077845906
-0.2267,-3.2906184834860754
-0.22770000000000012,-3.2991067512852656
-0.22870000000000001,-3.3344745337818917
-0.22970000000000013,-3.368427604978652
-0.23070000000000002,-3.386818851876898
-0.23170000000000013,-3.3641834710790572
-0.23270000000000002,-3.3670128936787878
-0.23370000000000013,-3.4066248100750083
-0.23470000000000002,-3.4434073038714996
-0.23570000000000013,-3.4632132620696097
-0.23670000000000002,-3.4575544168701495
-0.2376999999999999,-3.4617985507697444
-0.23870000000000002,-3.504239889765696
-0.2396999999999999,-3.5495106513613774
-0.24070000000000003,-3.573560743459083
-0.24169999999999991,-3.583463722558138
-0.24270000000000003,-3.5778048773586777
-0.24369999999999992,-3.627319772853954
-0.24470000000000003,-3.6725905344496357
-0.24569999999999992,-3.695225915247476
-0.24670000000000003,-3.7065436056463965
-0.24769999999999992,-3.7192760073451816
-0.24870000000000003,-3.7673761915405932
-0.24969999999999992,-3.8267940661349247
-0.25070000000000003,-3.8565030034320897
-0.2516999999999999,-3.86782069383101
-0.25270000000000004,-3.8947002085284463
-0.2536999999999999,-3.9470445266234524
-0.25470000000000004,-4.009291823817514
-0.2556999999999999,-4.048903740213735
-0.25670000000000004,-4.068709698411845
-0.25769999999999993,-4.099833347008876
-0.25870000000000004,-4.1564217990034775
-0.25969999999999993,-4.229986786596459
-0.26070000000000004,-4.282331104691466
-0.26169999999999993,-4.310625330688767
-0.26270000000000004,-4.355896092284448
-0.26369999999999993,-4.426631657277699
-0.26470000000000005,-4.514343757869332
-0.26569999999999994,-4.569517498564068
-0.26670000000000005,-4.624691239258805
-0.26769999999999994,-4.6742061347540815
-0.26870000000000005,-4.764747657945444
-0.26969999999999994,-4.856703892436671
-0.27070000000000005,-4.934513013929248
-0.27169999999999994,-4.98827204332412
-0.27270000000000005,-5.060422319617237
-0.27369999999999994,-5.1792580688059
-0.27470000000000006,-5.279702571096316
-0.27569999999999995,-5.384391207286329
-0.27670000000000006,-5.459370906179177
-0.27769999999999995,-5.542838872871213
-0.27870000000000006,-5.6913835593570425
-0.27969999999999995,-5.828610555443951
-0.28070000000000006,-5.950275727232344
-0.28169999999999995,-6.0592084973219515
-0.28270000000000006,-6.187947225609671
-0.28369999999999995,-6.349224313794284
-0.28470000000000006,-6.527477937577279
-0.28569999999999995,-6.681681469262568
-0.28670000000000007,-6.840129134847452
-0.28769999999999996,-7.002820934331931
-0.28870000000000007,-7.212198206711958
-0.28969999999999996,-7.451284416389148
-0.29070000000000007,-7.655002843569713
-0.29169999999999996,-7.8827713628479845
-0.29270000000000007,-8.113369304725985
-0.29369999999999996,-8.407629255097913
-0.2947000000000001,-8.701889205469842
-0.29569999999999996,-9.011710980140284
-0.2967000000000001,-9.310215064411805
-0.29769999999999996,-9.655404621578874
-0.2987000000000001,-10.044450229041761
-0.29969999999999997,-10.487254865899517
-0.3007000000000001,-10.9088388332593
-0.30169999999999997,-11.35022875881719
-0.3027000000000001,-11.839718868570493
-0.30369999999999997,-12.398529832017182
-0.3047000000000001,-12.995538000560227
-0.30569999999999997,-13.622255106400438
-0.3067000000000001,-14.26028990263957
-0.3077,-14.953498439573437
-0.3087000000000001,-15.74573676749786
-0.3097,-16.59456354741688
-0.3107000000000001,-17.45753744033455
-0.3117,-18.391246898245473
-0.3127000000000001,-19.395691921149652
-0.3137,-20.51331384804303
-0.3147000000000001,-21.744112678925614
-0.3157,-22.989058622806844
-0.3167000000000001,-24.37547569667458
-0.3177,-25.80433410953827
-0.3187000000000001,-27.445399217381713
-0.3197,-29.072317212226505
-0.3207000000000001,-30.88314767605375
-0.3217,-32.7222723658783
-0.3227000000000001,-34.6604268466934
-0.3237,-36.754199570493654
-0.3247000000000001,-38.8762665202912
-0.3257,-41.15395171307392
-0.3267000000000001,-43.31846000186743
-0.3277,-45.61029230764878
-0.3287000000000001,-47.972860178423396
-0.3297,-50.29298671020206
-0.3307000000000001,-52.76873148496586
-0.3317,-55.13129935574048
-0.3327000000000001,-57.6070441305043
-0.3337,-60.06864179226946
-0.3347000000000001,-62.48779811503867
-0.3357,-64.87866021181057
-0.3367000000000001,-67.24122808258521
-0.3377,-69.64623729235576
-0.3387000000000001,-72.02295227612902
-0.3397,-74.32893169490903
-0.3407000000000001,-76.67735245268499
-0.3417,-79.1530972274488
-0.3427000000000001,-81.61469488921396
-0.3437,-83.92067430799398
-0.3447000000000001,-86.32568351776455
-0.3457,-88.80142829252836
-0.3467000000000001,-91.33376151928677
-0.3477,-93.61144671206948
-0.3487000000000001,-96.11548571283059
-0.3497,-98.40731801861195
-0.3507000000000001,-100.54353208140815
-0.3517,-102.4392452232273
-0.3527000000000001,-104.30666413904916
-0.3537,-106.32970129785616
-0.3547000000000001,-108.63568071663616
-0.3557,-111.09727837840134
-0.35670000000000013,-113.10616842420968
-0.3577,-115.34141227799645
-0.35870000000000013,-117.39274366280074
-0.3597,-119.4582221606037
-0.36070000000000013,-121.26905262443094
-0.3617,-123.09403020125686
-0.3626999999999999,-124.90486066508409
-0.3637,-126.84301514589919
-0.3646999999999999,-128.69628694872236
-0.3657,-130.63444142953747
-0.3666999999999999,-132.33209498937555
-0.3677,-134.12877834020412
-0.3686999999999999,-136.03863859502192
-0.36970000000000003,-137.82117483285188
-0.3706999999999999,-139.53297550568857
-0.37170000000000003,-141.32965885651717
-0.3726999999999999,-143.4517258063147
-0.37370000000000003,-145.14937936615277
-0.3746999999999999,-147.1299751859638
-0.37570000000000003,-148.68615761581535
-0.3766999999999999,-150.1008689156804
-0.37770000000000004,-151.7985224755184
-0.3786999999999999,-153.07176264539694
-0.37970000000000004,-154.3450028152755
-0.3806999999999999,-155.61824298515404
-0.38170000000000004,-156.32559863508658
-0.38269999999999993,-157.03295428501906
-0.38370000000000004,-157.59883880496508
-0.38469999999999993,-158.87207897484362
-0.38570000000000004,-160.14531914472215
-0.38669999999999993,-160.00384801473567
-0.38570000000000004,-158.4476655848841
-0.38469999999999993,-156.75001202504606
-0.38370000000000004,-154.9108873352215
-0.38269999999999993,-153.07176264539694
-0.38170000000000004,-151.37410908555893
-0.3806999999999999,-149.53498439573437
-0.37970000000000004,-147.97880196588284
-0.3786999999999999,-146.4226195360313
-0.37770000000000004,-144.58349484620675
-0.3766999999999999,-142.8858412863687
-0.37570000000000003,-141.0891579355401
-0.3746999999999999,-139.4056514887007
-0.37370000000000003,-137.73629215485997
-0.3726999999999999,-136.10937416001516
-0.37170000000000003,-134.55319173016363
-0.3706999999999999,-132.9687150743148
-0.36970000000000003,-131.48326820945653
-0.3686999999999999,-129.8704973276104
-0.3677,-128.427491801748
-0.3666999999999999,-127.16839874486816
-0.3657,-125.555627863022
-0.3646999999999999,-124.31068191914078
-0.3637,-122.74035237629057
-0.3626999999999999,-121.3963766414188
-0.3617,-119.85434132456592
-0.36070000000000013,-118.58110115468739
-0.3597,-117.180536967821
-0.35870000000000013,-115.80826700695191
-0.3577,-114.61990951506527
-0.35670000000000013,-113.16275687620428
-0.3557,-111.7056042373433
-0.3547000000000001,-110.50309963245802
-0.3537,-109.01765276759973
-0.3527000000000001,-107.51805878974278
-0.3517,-106.17408305487102
-0.3507000000000001,-104.74522464200732
-0.3497,-103.57101426311934
-0.3487000000000001,-102.22703852824755
-0.3477,-101.10941660135417
-0.3467000000000001,-99.73714664048508
-0.3457,-98.46390647060656
-0.3447000000000001,-97.16237207473071
-0.3437,-96.00230880884139
-0.3427000000000001,-94.5168619439831
-0.3417,-93.25776888710321
-0.3407000000000001,-91.97038160422603
-0.3397,-90.6971414343475
-0.3387000000000001,-89.57951950745412
-0.3377,-88.22139665958369
-0.3367000000000001,-86.86327381171324
-0.3357,-85.80224033681448
-0.3347000000000001,-84.92511933089816
-0.3337,-84.00555698598588
-0.3327000000000001,-82.54840434712489
-0.3317,-81.20442861225311
-0.3307000000000001,-79.95948266837188
-0.3297,-78.74283095048794
-0.3287000000000001,-77.4412965546121
-0.3277,-76.26708617572413
-0.3267000000000001,-75.03628734484154
-0.3257,-73.89037119195086
-0.3247000000000001,-72.98495596003725
-0.3237,-71.78245135515196
-0.3227000000000001,-70.55165252426939
-0.3217,-69.41988348437735
-0.3207000000000001,-68.51446825246373
-0.3197,-67.693935698542
-0.3187000000000001,-66.68949067563783
-0.3177,-65.60016297474175
-0.3167000000000001,-64.42595259585376
-0.3157,-63.350772007956344
-0.3147000000000001,-62.37462121104946
-0.3137,-61.37017618814529
-0.3127000000000001,-60.30914271324652
-0.3117,-59.26225635134639
-0.3107000000000001,-58.32854689343546
-0.3097,-57.22507207954074
-0.3087000000000001,-56.63089333359741
-0.3077,-55.456682954709436
-0.3067000000000001,-54.38150236681201
-0.30569999999999997,-53.362910230909186
-0.3047000000000001,-52.37261232100366
-0.30369999999999997,-51.35402018510083
-0.3027000000000001,-50.3637222751953
-0.30169999999999997,-49.28854168729788
-0.3007000000000001,-48.39727356838291
-0.29969999999999997,-47.421122771476035
-0.2987000000000001,-46.60059021755431
-0.29769999999999996,-45.78005766363259
-0.2967000000000001,-45.01611356170547
-0.29569999999999996,-44.096551216793195
-0.2947000000000001,-43.219430210876865
-0.29369999999999996,-42.3847505439565
-0.29270000000000007,-41.43689397304693
-0.29169999999999996,-40.531478741133306
-0.29070000000000007,-39.55532794422642
-0.28969999999999996,-38.763089616302004
-0.28870000000000007,-37.92840994938163
-0.28769999999999996,-37.07958316946261
-0.28670000000000007,-36.27319772853954
-0.28569999999999995,-35.48095940061512
-0.28470000000000006,-34.64627973369475
-0.28369999999999995,-33.825747179773025
-0.28270000000000006,-33.11839152984051
-0.28169999999999995,-32.439330105905285
-0.28070000000000006,-31.632944664982226
-0.27969999999999995,-30.854853450056453
-0.27870000000000006,-29.991879557138777
-0.27769999999999995,-29.199641229214354
-0.27670000000000006,-28.52057980527914
-0.27569999999999995,-27.855665494342567
-0.27470000000000006,-27.162456957408708
-0.27369999999999994,-26.440954194477534
-0.27270000000000005,-25.662862979551768
-0.27169999999999994,-24.941360216620595
-0.27070000000000005,-24.21985745368943
-0.26969999999999994,-23.526648916755562
-0.26870000000000005,-22.87588171881764
-0.26769999999999994,-22.182673181883775
-0.26670000000000005,-21.531905983945855
-0.26569999999999994,-20.86699167300929
