Aug. 12, 2024   10:23:13
Cyclic Voltammetry
File: c:/users/guazh/data/20240802_batch_500/2024-08-02-exp91\exp91-2024-08-12t10_08_20-arkoh\exp91_cv_sr_400mvs_efin_-1600mv.bin
Data Source:  Experiment
Instrument Model:  CHI760E
Header: CV ran at 400 mVs
Note: 

Init E (V) = -1
High E (V) = -1
Low E (V) = -1.6
Final E (V) = -1
Init P/N = N
Scan Rate (V/s) = 0.4
Segment = 3
Sample Interval (V) = 0.001
Quiet Time (sec) = 2
Sensitivity (A/V) = 0.01
Comp R (ohm) = 2.0

Results:

Channel 1:
Segment 1:

Segment 2:

Segment 3:

Potential/V, Current/A

-1.000, 2.482e-5
-1.001, 4.640e-5
-1.002, 4.949e-5
-1.003, 4.949e-5
-1.004, 5.257e-5
-1.005, 5.257e-5
-1.006, 5.257e-5
-1.007, 5.257e-5
-1.008, 5.257e-5
-1.009, 5.257e-5
-1.010, 5.257e-5
-1.011, 5.565e-5
-1.012, 5.565e-5
-1.013, 5.565e-5
-1.014, 5.565e-5
-1.015, 5.565e-5
-1.016, 5.257e-5
-1.017, 5.565e-5
-1.018, 5.565e-5
-1.019, 5.565e-5
-1.020, 5.565e-5
-1.021, 5.565e-5
-1.022, 5.565e-5
-1.023, 5.873e-5
-1.024, 5.565e-5
-1.025, 5.565e-5
-1.026, 5.873e-5
-1.027, 5.565e-5
-1.028, 5.565e-5
-1.029, 5.873e-5
-1.030, 5.873e-5
-1.031, 5.873e-5
-1.032, 5.873e-5
-1.033, 5.565e-5
-1.034, 5.873e-5
-1.035, 5.873e-5
-1.036, 5.873e-5
-1.037, 5.873e-5
-1.038, 5.873e-5
-1.039, 5.873e-5
-1.040, 5.873e-5
-1.041, 5.873e-5
-1.042, 5.873e-5
-1.043, 5.873e-5
-1.044, 5.873e-5
-1.045, 5.873e-5
-1.046, 5.873e-5
-1.047, 5.873e-5
-1.048, 5.873e-5
-1.049, 5.873e-5
-1.050, 5.873e-5
-1.051, 5.873e-5
-1.052, 5.873e-5
-1.053, 5.873e-5
-1.054, 5.873e-5
-1.055, 5.873e-5
-1.056, 5.873e-5
-1.057, 5.873e-5
-1.058, 5.873e-5
-1.059, 5.873e-5
-1.060, 5.873e-5
-1.061, 6.182e-5
-1.062, 5.873e-5
-1.063, 6.182e-5
-1.064, 5.873e-5
-1.065, 6.182e-5
-1.066, 6.182e-5
-1.067, 6.182e-5
-1.068, 6.182e-5
-1.069, 5.873e-5
-1.070, 6.182e-5
-1.071, 6.182e-5
-1.072, 6.182e-5
-1.073, 6.182e-5
-1.074, 6.182e-5
-1.075, 6.182e-5
-1.076, 6.182e-5
-1.077, 6.182e-5
-1.078, 6.182e-5
-1.079, 6.182e-5
-1.080, 6.182e-5
-1.081, 6.182e-5
-1.082, 6.182e-5
-1.083, 6.182e-5
-1.084, 6.182e-5
-1.085, 6.182e-5
-1.086, 6.182e-5
-1.087, 6.182e-5
-1.088, 6.182e-5
-1.089, 6.182e-5
-1.090, 6.182e-5
-1.091, 6.182e-5
-1.092, 6.182e-5
-1.093, 6.182e-5
-1.094, 6.182e-5
-1.095, 6.182e-5
-1.096, 6.182e-5
-1.097, 6.182e-5
-1.098, 6.182e-5
-1.099, 6.182e-5
-1.100, 6.182e-5
-1.101, 6.182e-5
-1.102, 6.182e-5
-1.103, 6.182e-5
-1.104, 6.182e-5
-1.105, 6.490e-5
-1.106, 6.182e-5
-1.107, 6.490e-5
-1.108, 6.490e-5
-1.109, 6.182e-5
-1.110, 6.182e-5
-1.111, 6.490e-5
-1.112, 6.182e-5
-1.113, 6.490e-5
-1.114, 6.490e-5
-1.115, 6.490e-5
-1.116, 6.490e-5
-1.117, 6.490e-5
-1.118, 6.182e-5
-1.119, 6.490e-5
-1.120, 6.490e-5
-1.121, 6.490e-5
-1.122, 6.490e-5
-1.123, 6.490e-5
-1.124, 6.490e-5
-1.125, 6.490e-5
-1.126, 6.490e-5
-1.127, 6.490e-5
-1.128, 6.490e-5
-1.129, 6.490e-5
-1.130, 6.490e-5
-1.131, 6.490e-5
-1.132, 6.490e-5
-1.133, 6.490e-5
-1.134, 6.490e-5
-1.135, 6.490e-5
-1.136, 6.490e-5
-1.137, 6.490e-5
-1.138, 6.490e-5
-1.139, 6.490e-5
-1.140, 6.490e-5
-1.141, 6.490e-5
-1.142, 6.490e-5
-1.143, 6.490e-5
-1.144, 6.490e-5
-1.145, 6.798e-5
-1.146, 6.490e-5
-1.147, 6.490e-5
-1.148, 6.798e-5
-1.149, 6.798e-5
-1.150, 6.490e-5
-1.151, 6.798e-5
-1.152, 6.490e-5
-1.153, 6.798e-5
-1.154, 6.798e-5
-1.155, 6.490e-5
-1.156, 6.798e-5
-1.157, 6.798e-5
-1.158, 6.798e-5
-1.159, 6.798e-5
-1.160, 6.798e-5
-1.161, 6.798e-5
-1.162, 6.798e-5
-1.163, 6.798e-5
-1.164, 6.798e-5
-1.165, 6.798e-5
-1.166, 6.798e-5
-1.167, 6.798e-5
-1.168, 6.798e-5
-1.169, 6.798e-5
-1.170, 6.798e-5
-1.171, 6.798e-5
-1.172, 6.798e-5
-1.173, 7.107e-5
-1.174, 7.107e-5
-1.175, 6.798e-5
-1.176, 7.107e-5
-1.177, 7.107e-5
-1.178, 7.107e-5
-1.179, 7.107e-5
-1.180, 7.107e-5
-1.181, 7.107e-5
-1.182, 7.107e-5
-1.183, 7.107e-5
-1.184, 7.107e-5
-1.185, 7.107e-5
-1.186, 7.107e-5
-1.187, 7.107e-5
-1.188, 7.107e-5
-1.189, 7.415e-5
-1.190, 7.415e-5
-1.191, 7.415e-5
-1.192, 7.107e-5
-1.193, 7.415e-5
-1.194, 7.415e-5
-1.195, 7.415e-5
-1.196, 7.415e-5
-1.197, 7.415e-5
-1.198, 7.415e-5
-1.199, 7.415e-5
-1.200, 7.415e-5
-1.201, 7.723e-5
-1.202, 7.723e-5
-1.203, 7.723e-5
-1.204, 7.723e-5
-1.205, 7.415e-5
-1.206, 7.723e-5
-1.207, 7.723e-5
-1.208, 7.723e-5
-1.209, 8.032e-5
-1.210, 8.032e-5
-1.211, 8.032e-5
-1.212, 8.032e-5
-1.213, 8.032e-5
-1.214, 8.032e-5
-1.215, 8.032e-5
-1.216, 8.032e-5
-1.217, 8.340e-5
-1.218, 8.340e-5
-1.219, 8.340e-5
-1.220, 8.340e-5
-1.221, 8.340e-5
-1.222, 8.340e-5
-1.223, 8.340e-5
-1.224, 8.648e-5
-1.225, 8.648e-5
-1.226, 8.648e-5
-1.227, 8.648e-5
-1.228, 8.957e-5
-1.229, 8.957e-5
-1.230, 8.957e-5
-1.231, 8.957e-5
-1.232, 8.957e-5
-1.233, 9.265e-5
-1.234, 9.265e-5
-1.235, 9.265e-5
-1.236, 9.265e-5
-1.237, 9.265e-5
-1.238, 9.573e-5
-1.239, 9.573e-5
-1.240, 9.573e-5
-1.241, 9.882e-5
-1.242, 9.882e-5
-1.243, 9.882e-5
-1.244, 1.019e-4
-1.245, 1.019e-4
-1.246, 1.019e-4
-1.247, 1.050e-4
-1.248, 1.050e-4
-1.249, 1.050e-4
-1.250, 1.081e-4
-1.251, 1.081e-4
-1.252, 1.081e-4
-1.253, 1.081e-4
-1.254, 1.111e-4
-1.255, 1.111e-4
-1.256, 1.111e-4
-1.257, 1.142e-4
-1.258, 1.142e-4
-1.259, 1.173e-4
-1.260, 1.173e-4
-1.261, 1.204e-4
-1.262, 1.204e-4
-1.263, 1.235e-4
-1.264, 1.235e-4
-1.265, 1.266e-4
-1.266, 1.266e-4
-1.267, 1.296e-4
-1.268, 1.296e-4
-1.269, 1.296e-4
-1.270, 1.327e-4
-1.271, 1.358e-4
-1.272, 1.358e-4
-1.273, 1.389e-4
-1.274, 1.389e-4
-1.275, 1.420e-4
-1.276, 1.420e-4
-1.277, 1.451e-4
-1.278, 1.481e-4
-1.279, 1.481e-4
-1.280, 1.512e-4
-1.281, 1.543e-4
-1.282, 1.543e-4
-1.283, 1.574e-4
-1.284, 1.605e-4
-1.285, 1.605e-4
-1.286, 1.636e-4
-1.287, 1.666e-4
-1.288, 1.697e-4
-1.289, 1.728e-4
-1.290, 1.728e-4
-1.291, 1.759e-4
-1.292, 1.790e-4
-1.293, 1.821e-4
-1.294, 1.851e-4
-1.295, 1.882e-4
-1.296, 1.882e-4
-1.297, 1.913e-4
-1.298, 1.944e-4
-1.299, 1.975e-4
-1.300, 2.006e-4
-1.301, 2.036e-4
-1.302, 2.067e-4
-1.303, 2.098e-4
-1.304, 2.160e-4
-1.305, 2.191e-4
-1.306, 2.221e-4
-1.307, 2.252e-4
-1.308, 2.283e-4
-1.309, 2.314e-4
-1.310, 2.345e-4
-1.311, 2.406e-4
-1.312, 2.437e-4
-1.313, 2.468e-4
-1.314, 2.499e-4
-1.315, 2.561e-4
-1.316, 2.591e-4
-1.317, 2.622e-4
-1.318, 2.684e-4
-1.319, 2.715e-4
-1.320, 2.746e-4
-1.321, 2.807e-4
-1.322, 2.869e-4
-1.323, 2.900e-4
-1.324, 2.961e-4
-1.325, 2.992e-4
-1.326, 3.054e-4
-1.327, 3.115e-4
-1.328, 3.146e-4
-1.329, 3.208e-4
-1.330, 3.270e-4
-1.331, 3.300e-4
-1.332, 3.362e-4
-1.333, 3.424e-4
-1.334, 3.485e-4
-1.335, 3.547e-4
-1.336, 3.578e-4
-1.337, 3.670e-4
-1.338, 3.701e-4
-1.339, 3.794e-4
-1.340, 3.855e-4
-1.341, 3.917e-4
-1.342, 3.979e-4
-1.343, 4.040e-4
-1.344, 4.102e-4
-1.345, 4.195e-4
-1.346, 4.256e-4
-1.347, 4.318e-4
-1.348, 4.410e-4
-1.349, 4.472e-4
-1.350, 4.565e-4
-1.351, 4.626e-4
-1.352, 4.688e-4
-1.353, 4.780e-4
-1.354, 4.873e-4
-1.355, 4.935e-4
-1.356, 5.027e-4
-1.357, 5.120e-4
-1.358, 5.212e-4
-1.359, 5.274e-4
-1.360, 5.366e-4
-1.361, 5.459e-4
-1.362, 5.551e-4
-1.363, 5.644e-4
-1.364, 5.736e-4
-1.365, 5.829e-4
-1.366, 5.921e-4
-1.367, 6.044e-4
-1.368, 6.137e-4
-1.369, 6.229e-4
-1.370, 6.322e-4
-1.371, 6.445e-4
-1.372, 6.538e-4
-1.373, 6.661e-4
-1.374, 6.754e-4
-1.375, 6.877e-4
-1.376, 6.969e-4
-1.377, 7.093e-4
-1.378, 7.216e-4
-1.379, 7.309e-4
-1.380, 7.432e-4
-1.381, 7.555e-4
-1.382, 7.679e-4
-1.383, 7.802e-4
-1.384, 7.925e-4
-1.385, 8.048e-4
-1.386, 8.172e-4
-1.387, 8.295e-4
-1.388, 8.449e-4
-1.389, 8.573e-4
-1.390, 8.696e-4
-1.391, 8.819e-4
-1.392, 8.943e-4
-1.393, 9.097e-4
-1.394, 9.220e-4
-1.395, 9.374e-4
-1.396, 9.498e-4
-1.397, 9.652e-4
-1.398, 9.775e-4
-1.399, 9.929e-4
-1.400, 1.005e-3
-1.401, 1.021e-3
-1.402, 1.033e-3
-1.403, 1.048e-3
-1.404, 1.064e-3
-1.405, 1.079e-3
-1.406, 1.095e-3
-1.407, 1.107e-3
-1.408, 1.122e-3
-1.409, 1.141e-3
-1.410, 1.153e-3
-1.411, 1.169e-3
-1.412, 1.187e-3
-1.413, 1.203e-3
-1.414, 1.215e-3
-1.415, 1.230e-3
-1.416, 1.249e-3
-1.417, 1.264e-3
-1.418, 1.280e-3
-1.419, 1.295e-3
-1.420, 1.310e-3
-1.421, 1.329e-3
-1.422, 1.344e-3
-1.423, 1.363e-3
-1.424, 1.378e-3
-1.425, 1.394e-3
-1.426, 1.409e-3
-1.427, 1.428e-3
-1.428, 1.443e-3
-1.429, 1.462e-3
-1.430, 1.477e-3
-1.431, 1.495e-3
-1.432, 1.514e-3
-1.433, 1.532e-3
-1.434, 1.548e-3
-1.435, 1.566e-3
-1.436, 1.585e-3
-1.437, 1.603e-3
-1.438, 1.622e-3
-1.439, 1.640e-3
-1.440, 1.656e-3
-1.441, 1.674e-3
-1.442, 1.693e-3
-1.443, 1.711e-3
-1.444, 1.730e-3
-1.445, 1.748e-3
-1.446, 1.767e-3
-1.447, 1.785e-3
-1.448, 1.804e-3
-1.449, 1.822e-3
-1.450, 1.841e-3
-1.451, 1.862e-3
-1.452, 1.881e-3
-1.453, 1.899e-3
-1.454, 1.918e-3
-1.455, 1.936e-3
-1.456, 1.955e-3
-1.457, 1.976e-3
-1.458, 1.995e-3
-1.459, 2.017e-3
-1.460, 2.038e-3
-1.461, 2.057e-3
-1.462, 2.075e-3
-1.463, 2.097e-3
-1.464, 2.115e-3
-1.465, 2.137e-3
-1.466, 2.158e-3
-1.467, 2.180e-3
-1.468, 2.198e-3
-1.469, 2.220e-3
-1.470, 2.242e-3
-1.471, 2.263e-3
-1.472, 2.282e-3
-1.473, 2.303e-3
-1.474, 2.325e-3
-1.475, 2.346e-3
-1.476, 2.368e-3
-1.477, 2.390e-3
-1.478, 2.411e-3
-1.479, 2.436e-3
-1.480, 2.457e-3
-1.481, 2.479e-3
-1.482, 2.501e-3
-1.483, 2.525e-3
-1.484, 2.547e-3
-1.485, 2.571e-3
-1.486, 2.593e-3
-1.487, 2.615e-3
-1.488, 2.636e-3
-1.489, 2.661e-3
-1.490, 2.686e-3
-1.491, 2.707e-3
-1.492, 2.732e-3
-1.493, 2.756e-3
-1.494, 2.778e-3
-1.495, 2.803e-3
-1.496, 2.824e-3
-1.497, 2.849e-3
-1.498, 2.874e-3
-1.499, 2.898e-3
-1.500, 2.923e-3
-1.501, 2.948e-3
-1.502, 2.972e-3
-1.503, 2.997e-3
-1.504, 3.022e-3
-1.505, 3.046e-3
-1.506, 3.074e-3
-1.507, 3.099e-3
-1.508, 3.123e-3
-1.509, 3.148e-3
-1.510, 3.176e-3
-1.511, 3.200e-3
-1.512, 3.228e-3
-1.513, 3.253e-3
-1.514, 3.281e-3
-1.515, 3.308e-3
-1.516, 3.333e-3
-1.517, 3.361e-3
-1.518, 3.388e-3
-1.519, 3.413e-3
-1.520, 3.441e-3
-1.521, 3.472e-3
-1.522, 3.496e-3
-1.523, 3.524e-3
-1.524, 3.555e-3
-1.525, 3.580e-3
-1.526, 3.607e-3
-1.527, 3.638e-3
-1.528, 3.666e-3
-1.529, 3.694e-3
-1.530, 3.725e-3
-1.531, 3.755e-3
-1.532, 3.783e-3
-1.533, 3.814e-3
-1.534, 3.842e-3
-1.535, 3.873e-3
-1.536, 3.900e-3
-1.537, 3.931e-3
-1.538, 3.962e-3
-1.539, 3.993e-3
-1.540, 4.024e-3
-1.541, 4.051e-3
-1.542, 4.085e-3
-1.543, 4.116e-3
-1.544, 4.147e-3
-1.545, 4.178e-3
-1.546, 4.209e-3
-1.547, 4.243e-3
-1.548, 4.273e-3
-1.549, 4.304e-3
-1.550, 4.338e-3
-1.551, 4.369e-3
-1.552, 4.400e-3
-1.553, 4.431e-3
-1.554, 4.468e-3
-1.555, 4.498e-3
-1.556, 4.532e-3
-1.557, 4.566e-3
-1.558, 4.600e-3
-1.559, 4.631e-3
-1.560, 4.668e-3
-1.561, 4.702e-3
-1.562, 4.736e-3
-1.563, 4.770e-3
-1.564, 4.807e-3
-1.565, 4.841e-3
-1.566, 4.875e-3
-1.567, 4.912e-3
-1.568, 4.945e-3
-1.569, 4.982e-3
-1.570, 5.019e-3
-1.571, 5.056e-3
-1.572, 5.090e-3
-1.573, 5.127e-3
-1.574, 5.164e-3
-1.575, 5.198e-3
-1.576, 5.235e-3
-1.577, 5.275e-3
-1.578, 5.312e-3
-1.579, 5.349e-3
-1.580, 5.386e-3
-1.581, 5.426e-3
-1.582, 5.463e-3
-1.583, 5.504e-3
-1.584, 5.541e-3
-1.585, 5.581e-3
-1.586, 5.621e-3
-1.587, 5.658e-3
-1.588, 5.701e-3
-1.589, 5.738e-3
-1.590, 5.778e-3
-1.591, 5.818e-3
-1.592, 5.858e-3
-1.593, 5.898e-3
-1.594, 5.938e-3
-1.595, 5.978e-3
-1.596, 6.021e-3
-1.597, 6.065e-3
-1.598, 6.105e-3
-1.599, 6.145e-3
-1.600, 6.129e-3
-1.599, 6.046e-3
-1.598, 5.969e-3
-1.597, 5.895e-3
-1.596, 5.818e-3
-1.595, 5.744e-3
-1.594, 5.670e-3
-1.593, 5.596e-3
-1.592, 5.522e-3
-1.591, 5.448e-3
-1.590, 5.377e-3
-1.589, 5.306e-3
-1.588, 5.235e-3
-1.587, 5.164e-3
-1.586, 5.100e-3
-1.585, 5.029e-3
-1.584, 4.964e-3
-1.583, 4.899e-3
-1.582, 4.834e-3
-1.581, 4.770e-3
-1.580, 4.705e-3
-1.579, 4.643e-3
-1.578, 4.582e-3
-1.577, 4.520e-3
-1.576, 4.458e-3
-1.575, 4.400e-3
-1.574, 4.341e-3
-1.573, 4.286e-3
-1.572, 4.227e-3
-1.571, 4.172e-3
-1.570, 4.116e-3
-1.569, 4.061e-3
-1.568, 4.005e-3
-1.567, 3.953e-3
-1.566, 3.897e-3
-1.565, 3.845e-3
-1.564, 3.792e-3
-1.563, 3.743e-3
-1.562, 3.691e-3
-1.561, 3.641e-3
-1.560, 3.592e-3
-1.559, 3.543e-3
-1.558, 3.496e-3
-1.557, 3.450e-3
-1.556, 3.401e-3
-1.555, 3.358e-3
-1.554, 3.308e-3
-1.553, 3.265e-3
-1.552, 3.219e-3
-1.551, 3.176e-3
-1.550, 3.133e-3
-1.549, 3.089e-3
-1.548, 3.046e-3
-1.547, 3.003e-3
-1.546, 2.963e-3
-1.545, 2.923e-3
-1.544, 2.880e-3
-1.543, 2.840e-3
-1.542, 2.803e-3
-1.541, 2.766e-3
-1.540, 2.726e-3
-1.539, 2.689e-3
-1.538, 2.649e-3
-1.537, 2.612e-3
-1.536, 2.575e-3
-1.535, 2.541e-3
-1.534, 2.504e-3
-1.533, 2.467e-3
-1.532, 2.433e-3
-1.531, 2.399e-3
-1.530, 2.365e-3
-1.529, 2.331e-3
-1.528, 2.297e-3
-1.527, 2.266e-3
-1.526, 2.232e-3
-1.525, 2.201e-3
-1.524, 2.168e-3
-1.523, 2.137e-3
-1.522, 2.109e-3
-1.521, 2.078e-3
-1.520, 2.047e-3
-1.519, 2.020e-3
-1.518, 1.989e-3
-1.517, 1.961e-3
-1.516, 1.933e-3
-1.515, 1.906e-3
-1.514, 1.878e-3
-1.513, 1.847e-3
-1.512, 1.822e-3
-1.511, 1.798e-3
-1.510, 1.770e-3
-1.509, 1.745e-3
-1.508, 1.717e-3
-1.507, 1.693e-3
-1.506, 1.668e-3
-1.505, 1.643e-3
-1.504, 1.619e-3
-1.503, 1.594e-3
-1.502, 1.573e-3
-1.501, 1.548e-3
-1.500, 1.526e-3
-1.499, 1.502e-3
-1.498, 1.480e-3
-1.497, 1.458e-3
-1.496, 1.437e-3
-1.495, 1.415e-3
-1.494, 1.394e-3
-1.493, 1.375e-3
-1.492, 1.354e-3
-1.491, 1.332e-3
-1.490, 1.314e-3
-1.489, 1.292e-3
-1.488, 1.273e-3
-1.487, 1.255e-3
-1.486, 1.236e-3
-1.485, 1.218e-3
-1.484, 1.199e-3
-1.483, 1.184e-3
-1.482, 1.166e-3
-1.481, 1.147e-3
-1.480, 1.132e-3
-1.479, 1.113e-3
-1.478, 1.095e-3
-1.477, 1.079e-3
-1.476, 1.064e-3
-1.475, 1.048e-3
-1.474, 1.030e-3
-1.473, 1.014e-3
-1.472, 9.991e-4
-1.471, 9.837e-4
-1.470, 9.713e-4
-1.469, 9.528e-4
-1.468, 9.405e-4
-1.467, 9.251e-4
-1.466, 9.128e-4
-1.465, 8.973e-4
-1.464, 8.850e-4
-1.463, 8.696e-4
-1.462, 8.573e-4
-1.461, 8.449e-4
-1.460, 8.295e-4
-1.459, 8.172e-4
-1.458, 8.018e-4
-1.457, 7.894e-4
-1.456, 7.802e-4
-1.455, 7.679e-4
-1.454, 7.555e-4
-1.453, 7.432e-4
-1.452, 7.309e-4
-1.451, 7.216e-4
-1.450, 7.093e-4
-1.449, 7.000e-4
-1.448, 6.877e-4
-1.447, 6.754e-4
-1.446, 6.661e-4
-1.445, 6.569e-4
-1.444, 6.445e-4
-1.443, 6.353e-4
-1.442, 6.229e-4
-1.441, 6.137e-4
-1.440, 6.044e-4
-1.439, 5.952e-4
-1.438, 5.859e-4
-1.437, 5.767e-4
-1.436, 5.674e-4
-1.435, 5.582e-4
-1.434, 5.489e-4
-1.433, 5.397e-4
-1.432, 5.305e-4
-1.431, 5.212e-4
-1.430, 5.120e-4
-1.429, 5.058e-4
-1.428, 4.965e-4
-1.427, 4.904e-4
-1.426, 4.811e-4
-1.425, 4.719e-4
-1.424, 4.657e-4
-1.423, 4.595e-4
-1.422, 4.503e-4
-1.421, 4.441e-4
-1.420, 4.349e-4
-1.419, 4.287e-4
-1.418, 4.225e-4
-1.417, 4.133e-4
-1.416, 4.071e-4
-1.415, 4.010e-4
-1.414, 3.948e-4
-1.413, 3.886e-4
-1.412, 3.794e-4
-1.411, 3.732e-4
-1.410, 3.670e-4
-1.409, 3.609e-4
-1.408, 3.547e-4
-1.407, 3.485e-4
-1.406, 3.424e-4
-1.405, 3.362e-4
-1.404, 3.300e-4
-1.403, 3.239e-4
-1.402, 3.177e-4
-1.401, 3.146e-4
-1.400, 3.085e-4
-1.399, 3.023e-4
-1.398, 2.961e-4
-1.397, 2.900e-4
-1.396, 2.869e-4
-1.395, 2.807e-4
-1.394, 2.746e-4
-1.393, 2.715e-4
-1.392, 2.653e-4
-1.391, 2.622e-4
-1.390, 2.561e-4
-1.389, 2.499e-4
-1.388, 2.468e-4
-1.387, 2.437e-4
-1.386, 2.376e-4
-1.385, 2.345e-4
-1.384, 2.283e-4
-1.383, 2.252e-4
-1.382, 2.191e-4
-1.381, 2.160e-4
-1.380, 2.129e-4
-1.379, 2.067e-4
-1.378, 2.036e-4
-1.377, 1.975e-4
-1.376, 1.944e-4
-1.375, 1.913e-4
-1.374, 1.851e-4
-1.373, 1.851e-4
-1.372, 1.790e-4
-1.371, 1.759e-4
-1.370, 1.728e-4
-1.369, 1.697e-4
-1.368, 1.636e-4
-1.367, 1.605e-4
-1.366, 1.574e-4
-1.365, 1.543e-4
-1.364, 1.512e-4
-1.363, 1.481e-4
-1.362, 1.451e-4
-1.361, 1.389e-4
-1.360, 1.389e-4
-1.359, 1.358e-4
-1.358, 1.296e-4
-1.357, 1.296e-4
-1.356, 1.235e-4
-1.355, 1.235e-4
-1.354, 1.204e-4
-1.353, 1.173e-4
-1.352, 1.142e-4
-1.351, 1.111e-4
-1.350, 1.081e-4
-1.349, 1.050e-4
-1.348, 1.019e-4
-1.347, 9.882e-5
-1.346, 9.573e-5
-1.345, 9.265e-5
-1.344, 9.265e-5
-1.343, 8.957e-5
-1.342, 8.648e-5
-1.341, 8.340e-5
-1.340, 8.032e-5
-1.339, 8.032e-5
-1.338, 7.723e-5
-1.337, 7.415e-5
-1.336, 7.107e-5
-1.335, 7.107e-5
-1.334, 6.490e-5
-1.333, 6.490e-5
-1.332, 6.182e-5
-1.331, 5.873e-5
-1.330, 5.873e-5
-1.329, 5.565e-5
-1.328, 5.565e-5
-1.327, 5.257e-5
-1.326, 4.949e-5
-1.325, 4.640e-5
-1.324, 4.640e-5
-1.323, 4.332e-5
-1.322, 4.024e-5
-1.321, 3.715e-5
-1.320, 3.715e-5
-1.319, 3.715e-5
-1.318, 3.407e-5
-1.317, 3.407e-5
-1.316, 3.099e-5
-1.315, 2.790e-5
-1.314, 2.790e-5
-1.313, 2.482e-5
-1.312, 2.174e-5
-1.311, 2.174e-5
-1.310, 1.865e-5
-1.309, 1.865e-5
-1.308, 1.557e-5
-1.307, 1.249e-5
-1.306, 1.249e-5
-1.305, 9.405e-6
-1.304, 9.405e-6
-1.303, 9.405e-6
-1.302, 6.322e-6
-1.301, 6.322e-6
-1.300, 3.239e-6
-1.299, 3.239e-6
-1.298, 1.559e-7
-1.297, 1.559e-7
-1.296, 1.559e-7
-1.295, -2.927e-6
-1.294, -2.927e-6
-1.293, -6.010e-6
-1.292, -6.010e-6
-1.291, -9.093e-6
-1.290, -9.093e-6
-1.289, -1.218e-5
-1.288, -1.218e-5
-1.287, -1.526e-5
-1.286, -1.526e-5
-1.285, -1.526e-5
-1.284, -1.834e-5
-1.283, -1.834e-5
-1.282, -1.834e-5
-1.281, -2.143e-5
-1.280, -2.143e-5
-1.279, -2.143e-5
-1.278, -2.451e-5
-1.277, -2.451e-5
-1.276, -2.451e-5
-1.275, -2.451e-5
-1.274, -2.759e-5
-1.273, -2.759e-5
-1.272, -2.759e-5
-1.271, -3.068e-5
-1.270, -3.068e-5
-1.269, -3.376e-5
-1.268, -3.376e-5
-1.267, -3.376e-5
-1.266, -3.376e-5
-1.265, -3.684e-5
-1.264, -3.684e-5
-1.263, -3.684e-5
-1.262, -3.684e-5
-1.261, -3.992e-5
-1.260, -3.992e-5
-1.259, -3.992e-5
-1.258, -3.992e-5
-1.257, -4.301e-5
-1.256, -4.301e-5
-1.255, -4.301e-5
-1.254, -4.301e-5
-1.253, -4.301e-5
-1.252, -4.609e-5
-1.251, -4.609e-5
-1.250, -4.609e-5
-1.249, -4.609e-5
-1.248, -4.609e-5
-1.247, -4.917e-5
-1.246, -4.917e-5
-1.245, -4.917e-5
-1.244, -4.917e-5
-1.243, -5.226e-5
-1.242, -5.226e-5
-1.241, -5.226e-5
-1.240, -5.226e-5
-1.239, -5.226e-5
-1.238, -5.226e-5
-1.237, -5.534e-5
-1.236, -5.534e-5
-1.235, -5.534e-5
-1.234, -5.534e-5
-1.233, -5.534e-5
-1.232, -5.534e-5
-1.231, -5.534e-5
-1.230, -5.534e-5
-1.229, -5.842e-5
-1.228, -5.842e-5
-1.227, -5.842e-5
-1.226, -5.842e-5
-1.225, -6.151e-5
-1.224, -5.842e-5
-1.223, -6.151e-5
-1.222, -6.151e-5
-1.221, -6.151e-5
-1.220, -6.151e-5
-1.219, -6.151e-5
-1.218, -6.151e-5
-1.217, -6.151e-5
-1.216, -6.459e-5
-1.215, -6.151e-5
-1.214, -6.459e-5
-1.213, -6.459e-5
-1.212, -6.459e-5
-1.211, -6.459e-5
-1.210, -6.459e-5
-1.209, -6.459e-5
-1.208, -6.459e-5
-1.207, -6.459e-5
-1.206, -6.459e-5
-1.205, -6.767e-5
-1.204, -6.767e-5
-1.203, -6.767e-5
-1.202, -6.767e-5
-1.201, -6.767e-5
-1.200, -6.767e-5
-1.199, -6.767e-5
-1.198, -7.076e-5
-1.197, -6.767e-5
-1.196, -7.076e-5
-1.195, -7.076e-5
-1.194, -7.076e-5
-1.193, -6.767e-5
-1.192, -7.076e-5
-1.191, -7.076e-5
-1.190, -7.076e-5
-1.189, -7.076e-5
-1.188, -7.076e-5
-1.187, -7.076e-5
-1.186, -7.076e-5
-1.185, -7.076e-5
-1.184, -7.076e-5
-1.183, -7.076e-5
-1.182, -7.384e-5
-1.181, -7.384e-5
-1.180, -7.384e-5
-1.179, -7.076e-5
-1.178, -7.384e-5
-1.177, -7.384e-5
-1.176, -7.384e-5
-1.175, -7.384e-5
-1.174, -7.384e-5
-1.173, -7.384e-5
-1.172, -7.692e-5
-1.171, -7.384e-5
-1.170, -7.384e-5
-1.169, -7.384e-5
-1.168, -7.384e-5
-1.167, -7.692e-5
-1.166, -7.692e-5
-1.165, -7.692e-5
-1.164, -7.692e-5
-1.163, -7.692e-5
-1.162, -7.692e-5
-1.161, -7.692e-5
-1.160, -7.692e-5
-1.159, -7.692e-5
-1.158, -7.692e-5
-1.157, -7.692e-5
-1.156, -7.692e-5
-1.155, -7.692e-5
-1.154, -7.692e-5
-1.153, -7.692e-5
-1.152, -7.692e-5
-1.151, -7.692e-5
-1.150, -8.000e-5
-1.149, -8.000e-5
-1.148, -8.000e-5
-1.147, -8.000e-5
-1.146, -8.000e-5
-1.145, -8.000e-5
-1.144, -8.000e-5
-1.143, -8.000e-5
-1.142, -8.000e-5
-1.141, -8.000e-5
-1.140, -8.000e-5
-1.139, -8.000e-5
-1.138, -8.000e-5
-1.137, -8.000e-5
-1.136, -8.000e-5
-1.135, -8.000e-5
-1.134, -8.000e-5
-1.133, -8.000e-5
-1.132, -8.000e-5
-1.131, -8.000e-5
-1.130, -8.000e-5
-1.129, -8.000e-5
-1.128, -8.000e-5
-1.127, -8.309e-5
-1.126, -8.309e-5
-1.125, -8.000e-5
-1.124, -8.309e-5
-1.123, -8.309e-5
-1.122, -8.309e-5
-1.121, -8.309e-5
-1.120, -8.309e-5
-1.119, -8.309e-5
-1.118, -8.309e-5
-1.117, -8.309e-5
-1.116, -8.309e-5
-1.115, -8.309e-5
-1.114, -8.309e-5
-1.113, -8.617e-5
-1.112, -8.617e-5
-1.111, -8.617e-5
-1.110, -8.617e-5
-1.109, -8.309e-5
-1.108, -8.617e-5
-1.107, -8.617e-5
-1.106, -8.617e-5
-1.105, -8.617e-5
-1.104, -8.617e-5
-1.103, -8.617e-5
-1.102, -8.617e-5
-1.101, -8.617e-5
-1.100, -8.617e-5
-1.099, -8.617e-5
-1.098, -8.617e-5
-1.097, -8.617e-5
-1.096, -8.617e-5
-1.095, -8.617e-5
-1.094, -8.617e-5
-1.093, -8.617e-5
-1.092, -8.925e-5
-1.091, -8.617e-5
-1.090, -8.617e-5
-1.089, -8.925e-5
-1.088, -8.925e-5
-1.087, -8.925e-5
-1.086, -8.925e-5
-1.085, -8.925e-5
-1.084, -8.925e-5
-1.083, -8.925e-5
-1.082, -8.925e-5
-1.081, -8.925e-5
-1.080, -8.925e-5
-1.079, -8.925e-5
-1.078, -8.925e-5
-1.077, -8.925e-5
-1.076, -8.925e-5
-1.075, -9.234e-5
-1.074, -8.925e-5
-1.073, -9.234e-5
-1.072, -9.234e-5
-1.071, -9.234e-5
-1.070, -9.234e-5
-1.069, -9.234e-5
-1.068, -9.234e-5
-1.067, -9.234e-5
-1.066, -9.234e-5
-1.065, -9.234e-5
-1.064, -9.234e-5
-1.063, -9.234e-5
-1.062, -9.234e-5
-1.061, -9.234e-5
-1.060, -9.234e-5
-1.059, -9.234e-5
-1.058, -9.234e-5
-1.057, -9.542e-5
-1.056, -9.234e-5
-1.055, -9.234e-5
-1.054, -9.542e-5
-1.053, -9.542e-5
-1.052, -9.234e-5
-1.051, -9.542e-5
-1.050, -9.542e-5
-1.049, -9.542e-5
-1.048, -9.542e-5
-1.047, -9.542e-5
-1.046, -9.542e-5
-1.045, -9.542e-5
-1.044, -9.542e-5
-1.043, -9.542e-5
-1.042, -9.542e-5
-1.041, -9.542e-5
-1.040, -9.542e-5
-1.039, -9.850e-5
-1.038, -9.542e-5
-1.037, -9.850e-5
-1.036, -9.850e-5
-1.035, -9.850e-5
-1.034, -9.850e-5
-1.033, -9.850e-5
-1.032, -9.850e-5
-1.031, -9.850e-5
-1.030, -1.016e-4
-1.029, -9.850e-5
-1.028, -9.850e-5
-1.027, -9.850e-5
-1.026, -9.850e-5
-1.025, -1.016e-4
-1.024, -1.016e-4
-1.023, -1.016e-4
-1.022, -1.016e-4
-1.021, -1.016e-4
-1.020, -1.016e-4
-1.019, -1.016e-4
-1.018, -1.016e-4
-1.017, -1.016e-4
-1.016, -1.016e-4
-1.015, -1.016e-4
-1.014, -1.047e-4
-1.013, -1.047e-4
-1.012, -1.047e-4
-1.011, -1.047e-4
-1.010, -1.047e-4
-1.009, -1.047e-4
-1.008, -1.047e-4
-1.007, -1.047e-4
-1.006, -1.047e-4
-1.005, -1.047e-4
-1.004, -1.078e-4
-1.003, -1.078e-4
-1.002, -1.047e-4
-1.001, -1.078e-4
