Potential V vs RHE, Current mA cm-2
0.013299999999999867,23.15882397879065
0.012299999999999978,20.668932091028186
0.011299999999999866,18.702483384215785
0.010299999999999976,17.00482982437774
0.009299999999999864,15.264734925543747
0.008299999999999974,13.431269080918659
0.007299999999999862,11.425208457710037
0.006299999999999972,9.593157324384812
0.00529999999999986,8.066683831830439
0.0042999999999999705,6.75807587945528
0.0032999999999998586,5.537180027671754
0.0022999999999999687,4.2285720752965945
0.0012999999999998568,2.658242532446404
0.00029999999999996696,1.0446228238203432
-0.000700000000000145,-0.4384190318281749
-0.0017000000000000348,-1.6156003044458718
-0.0027000000000001467,-2.618630616050183
-0.0037000000000000366,-3.6655169779503103
-0.0047000000000001485,-4.9302688800296535
-0.005700000000000038,-6.326588932996443
-0.00670000000000015,-7.7653503249591855
-0.00770000000000004,-8.987660888042578
-0.008700000000000152,-9.946835149351072
-0.009700000000000042,-10.863568071663616
-0.010700000000000154,-11.86659838326793
-0.011700000000000044,-13.043638184755638
-0.012700000000000156,-14.345172580631472
-0.013700000000000045,-15.660854089505953
-0.014700000000000157,-16.665299112410132
-0.015700000000000047,-17.48583166633185
-0.01670000000000016,-18.320511333252224
-0.01770000000000005,-19.3249563561564
-0.01870000000000016,-20.456725396048434
-0.01970000000000005,-21.772406904922917
-0.020700000000000163,-22.946617283810895
-0.021700000000000053,-23.86617962872317
-0.022700000000000164,-24.559388165657033
-0.023700000000000054,-25.295038041586857
-0.024700000000000166,-26.34192440348698
-0.025700000000000056,-27.530281895373616
-0.026700000000000168,-28.662050935265643
-0.027700000000000058,-29.708937297165768
-0.02870000000000017,-30.529469851087494
-0.02970000000000006,-31.19438416202406
-0.03070000000000017,-32.09979939393769
-0.03170000000000006,-33.06180307784591
-0.03270000000000017,-34.278454795729836
-0.03370000000000006,-35.46681228761647
-0.034700000000000175,-36.329786180534136
-0.035700000000000065,-37.037141830466666
-0.03670000000000018,-37.77279170639648
-0.03770000000000007,-38.607471373316855
-0.03870000000000018,-39.696799074212926
-0.03970000000000007,-40.828568114104954
-0.04070000000000018,-41.87545447600508
-0.04170000000000007,-42.71013414292546
-0.04270000000000018,-43.31846000186743
-0.04370000000000007,-44.011668538801295
-0.044700000000000184,-44.97367222270952
-0.045700000000000074,-46.10544126260155
-0.046700000000000186,-47.23721030249357
-0.047700000000000076,-48.24165532539775
-0.04870000000000019,-48.97730520132757
-0.04970000000000008,-49.68466085126009
-0.05070000000000019,-50.46275206618586
-0.05170000000000008,-51.509638428085985
-0.05270000000000019,-52.64140746797801
-0.05370000000000008,-53.74488228187274
-0.05470000000000019,-54.56541483579447
-0.05570000000000008,-55.25862337272834
-0.056700000000000195,-55.9235376836649
-0.057700000000000085,-56.74407023758662
-0.058700000000000196,-57.8333979384827
-0.059700000000000086,-59.06419676936528
-0.0607000000000002,-60.15352447026136
-0.06170000000000009,-60.974057024183075
-0.0627000000000002,-61.6814126741156
-0.06370000000000009,-62.33217987205352
-0.0647000000000002,-63.29418355596174
-0.06570000000000009,-64.34106991786187
-0.0667000000000002,-65.51528029674984
-0.0677000000000001,-66.51972531965401
-0.0687000000000002,-67.34025787357575
-0.0697000000000001,-68.04761352350828
-0.07070000000000021,-68.91058741642594
-0.0717000000000001,-69.91503243933012
-0.07270000000000021,-71.18827260920865
-0.0737000000000001,-72.36248298809663
-0.07470000000000021,-73.40936934999675
-0.0757000000000001,-74.14501922592657
-0.07670000000000021,-74.8523748758591
-0.0777000000000001,-75.50314207379701
-0.07870000000000021,-76.46514575770523
-0.0797000000000001,-77.55447345860131
-0.08070000000000022,-78.68624249849334
-0.0817000000000001,-79.64824618240156
-0.08270000000000022,-80.29901338033947
-0.08370000000000011,-80.99222191727335
-0.08470000000000022,-81.95422560118158
-0.08570000000000011,-83.08599464107361
-0.08670000000000022,-84.13288100297372
-0.08770000000000011,-85.09488468688197
-0.08870000000000022,-85.80224033681448
-0.08970000000000011,-86.45300753475239
-0.09070000000000022,-87.18865741068221
-0.09170000000000011,-88.02333707760259
-0.09270000000000023,-89.07022343950271
-0.09370000000000012,-90.28687515738663
-0.09470000000000023,-91.12155482430701
-0.09570000000000012,-91.72988068324898
-0.09670000000000023,-92.42308922018285
-0.09770000000000012,-93.34265156509512
-0.09870000000000023,-94.47442060498715
-0.09970000000000012,-95.79010211386164
-0.10070000000000023,-96.92187115375367
-0.10170000000000012,-97.78484504667132
-0.10270000000000024,-98.40731801861195
-0.10370000000000013,-98.97320253855796
-0.10470000000000024,-99.93520622246619
-0.10570000000000013,-101.15185794035013
-0.10670000000000024,-102.4958336752219
-0.10770000000000013,-103.81151518409638
-0.10870000000000024,-104.77351886800463
-0.10970000000000013,-105.50916874393444
-0.11070000000000024,-106.38628974985076
-0.11170000000000013,-107.30585209476303
-0.11270000000000002,-108.56494515164292
-0.11370000000000013,-109.73915553053091
-0.11470000000000002,-110.70115921443913
-0.11570000000000014,-111.5358388813595
-0.11670000000000003,-112.44125411327312
-0.11770000000000014,-113.62961160515974
-0.11870000000000003,-114.88870466203963
-0.11970000000000014,-116.14779771891952
-0.12070000000000003,-117.25127253281424
-0.12170000000000014,-118.07180508673595
-0.12270000000000003,-118.72257228467387
-0.12370000000000014,-119.47236927360234
-0.12470000000000003,-120.60413831349437
-0.12570000000000014,-122.00470250036076
-0.12670000000000003,-123.39111957422851
-0.12770000000000015,-124.66435974410705
-0.12870000000000004,-125.56977497602065
-0.12970000000000015,-126.23468928695722
-0.13070000000000004,-126.97033916288706
-0.13170000000000015,-128.01722552478716
-0.13270000000000004,-129.27631858166706
-0.13370000000000015,-130.5495587515456
-0.13470000000000004,-131.63888645244168
-0.13570000000000015,-132.64333147534586
-0.13670000000000004,-133.52045248126214
-0.13770000000000016,-134.38342637417986
-0.13870000000000005,-135.43031273607997
-0.13970000000000016,-136.562081775972
-0.14070000000000005,-137.6089681378721
-0.14170000000000016,-138.44364780479248
-0.14270000000000005,-139.1792976807223
-0.14370000000000016,-140.05641868663866
-0.14470000000000005,-141.2306290655266
-0.14570000000000016,-142.4614278964092
-0.14670000000000005,-143.73466806628772
-0.14770000000000016,-144.72496597619326
-0.14870000000000005,-145.57379275611228
-0.14970000000000017,-146.1396772760583
-0.15070000000000006,-146.9885040559773
-0.15170000000000017,-147.97880196588284
-0.15270000000000006,-149.39351326574788
-0.15370000000000017,-150.66675343562642
-0.15470000000000006,-151.65705134553193
-0.15570000000000017,-152.50587812545095
-0.15670000000000006,-153.21323377538346
-0.15770000000000017,-154.0620605553025
-0.15870000000000006,-155.19382959519453
-0.15970000000000018,-156.32559863508658
-0.16070000000000007,-157.45736767497857
-0.16170000000000018,-158.3061944548976
-0.16270000000000007,-159.15502123481662
-0.16370000000000018,-160.14531914472215
-0.16470000000000007,-161.1356170546277
-0.16570000000000018,-162.40885722450622
-0.16670000000000007,-163.68209739438475
-0.16770000000000018,-164.81386643427678
-0.16870000000000007,-165.8041643441823
-0.16970000000000018,-166.3700488641283
-0.17070000000000007,-167.07740451406085
-0.17170000000000019,-168.20917355395284
-0.17270000000000008,-169.48241372383137
-0.1737000000000002,-170.89712502369645
-0.17470000000000008,-171.88742293360195
-0.1757000000000002,-172.87772084350746
-0.17670000000000008,-173.58507649344
-0.1777000000000002,-174.2924321433725
-0.17870000000000008,-175.28273005327804
-0.1797000000000002,-176.27302796318358
-0.18070000000000008,-177.2633258730891
-0.1817000000000002,-178.25362378299462
-0.18270000000000008,-178.96097943292713
-0.1837000000000002,-179.80980621284618
-0.1847000000000001,-180.94157525273818
-0.1857000000000002,-182.21481542261674
-0.1867000000000001,-183.48805559249527
-0.1877000000000002,-184.47835350240078
-0.1887000000000001,-185.3271802823198
-0.1897000000000002,-186.03453593225234
-0.1907000000000001,-186.88336271217133
-0.1917000000000001,-187.87366062207687
-0.19269999999999998,-189.1469007919554
-0.1937000000000001,-190.27866983184742
-0.19469999999999998,-191.12749661176645
-0.1957000000000001,-191.83485226169896
-0.19669999999999999,-192.54220791163152
-0.1977000000000001,-193.3910346915505
-0.1987,-194.52280373144254
-0.1997000000000001,-195.93751503130758
-0.2007,-197.0692840711996
-0.2017000000000001,-197.91811085111863
-0.2027,-198.48399537106465
-0.2037000000000001,-199.19135102099716
-0.2047,-200.18164893090267
-0.2057000000000001,-201.31341797079472
-0.2067,-202.30371588070025
-0.2077000000000001,-203.29401379060576
-0.2087,-204.0013694405383
-0.2097000000000001,-204.7087250904708
-0.2107,-205.41608074040332
-0.2117000000000001,-206.40637865030885
-0.2127,-207.5381476902009
-0.2137000000000001,-208.6699167300929
-0.2147,-209.37727238002543
-0.2157000000000001,-210.08462802995794
-0.2167,-210.79198367989048
-0.21770000000000012,-211.499339329823
-0.2187,-212.631108369715
-0.21970000000000012,-213.76287740960703
-0.2207,-214.89464644949908
-0.22170000000000012,-215.7434732294181
-0.2227,-216.4508288793506
-0.22370000000000012,-217.15818452928315
-0.2247,-218.14848243918865
-0.22570000000000012,-219.13878034909416
-0.2267,-220.1290782589997
-0.22770000000000012,-220.97790503891872
-0.22870000000000001,-221.54378955886475
-0.22970000000000013,-221.96820294882426
-0.23070000000000002,-222.81702972874328
-0.23170000000000013,-223.6658565086623
-0.23270000000000002,-224.93909667854084
-0.23370000000000013,-226.07086571843288
-0.23470000000000002,-227.06116362833836
-0.23570000000000013,-227.4855770182979
-0.23670000000000002,-227.9099904082574
-0.2376999999999999,-228.47587492820347
-0.23870000000000002,-229.18323057813595
-0.2396999999999999,-230.17352848804146
-0.24070000000000003,-231.163826397947
-0.24169999999999991,-231.8711820478795
-0.24270000000000003,-232.01265317786604
-0.24369999999999992,-232.43706656782552
-0.24470000000000003,-233.28589334774458
-0.24569999999999992,-234.4176623876366
-0.24670000000000003,-235.54943142752862
-0.24769999999999992,-236.3982582074476
-0.24870000000000003,-236.82267159740715
-0.24969999999999992,-237.10561385738015
-0.25070000000000003,-237.38855611735315
-0.2516999999999999,-238.0959117672857
-0.25270000000000004,-239.0862096771912
-0.2536999999999999,-240.21797871708318
-0.25470000000000004,-240.64239210704275
-0.2556999999999999,-241.06680549700224
-0.25670000000000004,-241.34974775697523
-0.25769999999999993,-241.6326900169483
-0.25870000000000004,-242.05710340690777
-0.25969999999999993,-242.90593018682682
-0.26070000000000004,-243.75475696674582
-0.26169999999999993,-244.32064148669184
-0.26270000000000004,-244.8865260066378
-0.26369999999999993,-245.45241052658386
-0.26470000000000005,-246.01829504652986
-0.26569999999999994,-246.5841795664759
-0.26670000000000005,-247.1500640864219
-0.26769999999999994,-247.4330063463949
-0.26870000000000005,-247.71594860636796
-0.26969999999999994,-247.99889086634093
-0.27070000000000005,-248.42330425630044
-0.27169999999999994,-249.13065990623298
-0.27270000000000005,-250.1209578161385
-0.27369999999999994,-250.9697845960575
-0.27470000000000006,-251.53566911600356
-0.27569999999999995,-251.67714024599002
-0.27670000000000006,-251.81861137597656
-0.27769999999999995,-251.96008250596302
-0.27870000000000006,-252.66743815589555
-0.27969999999999995,-253.37479380582806
-0.28070000000000006,-253.94067832577412
-0.28169999999999995,-254.50656284572008
-0.28270000000000006,-254.64803397570657
-0.28369999999999995,-254.78950510569314
-0.28470000000000006,-255.07244736566614
-0.28569999999999995,-255.49686075562562
-0.28670000000000007,-256.20421640555816
-0.28769999999999996,-256.62862979551767
-0.28870000000000007,-256.77010092550415
-0.28969999999999996,-257.0530431854772
-0.29070000000000007,-257.33598544545015
-0.29169999999999996,-257.76039883540966
-0.29270000000000007,-258.32628335535566
-0.29369999999999996,-258.8921678753017
-0.2947000000000001,-258.8921678753017
-0.29569999999999996,-258.8921678753017
-0.2967000000000001,-259.3165812652612
-0.29769999999999996,-259.7409946552208
-0.2987000000000001,-260.4483503051532
-0.29969999999999997,-261.1557059550858
-0.3007000000000001,-261.4386482150588
-0.30169999999999997,-261.58011934504526
-0.3027000000000001,-261.8630616050183
-0.30369999999999997,-262.1460038649913
-0.3047000000000001,-262.57041725495077
-0.30569999999999997,-262.9948306449103
-0.3067000000000001,-263.41924403486985
-0.3077,-263.56071516485633
-0.3087000000000001,-263.41924403486985
-0.3097,-263.27777290488336
-0.3107000000000001,-263.41924403486985
-0.3117,-263.84365742482936
-0.3127000000000001,-264.6924842047484
-0.3137,-265.2583687246944
-0.3147000000000001,-265.5413109846674
-0.3157,-265.5413109846674
-0.3167000000000001,-265.39983985468086
-0.3177,-265.2583687246944
-0.3187000000000001,-265.39983985468086
-0.3197,-265.82425324464043
-0.3207000000000001,-265.9657243746269
-0.3217,-265.82425324464043
-0.3227000000000001,-265.5413109846674
-0.3237,-265.2583687246944
-0.3247000000000001,-265.2583687246944
-0.3257,-265.39983985468086
-0.3267000000000001,-265.82425324464043
-0.3277,-266.1071955046134
-0.3287000000000001,-266.1071955046134
-0.3297,-265.9657243746269
-0.3307000000000001,-265.9657243746269
-0.3317,-266.1071955046134
-0.3327000000000001,-266.3901377645864
-0.3337,-266.8145511545459
-0.3347000000000001,-266.9560222845325
-0.3357,-266.9560222845325
-0.3367000000000001,-266.9560222845325
-0.3377,-266.9560222845325
-0.3387000000000001,-266.9560222845325
-0.3397,-267.23896454450545
-0.3407000000000001,-267.38043567449193
-0.3417,-267.38043567449193
-0.3427000000000001,-267.38043567449193
-0.3437,-267.38043567449193
-0.3447000000000001,-267.80484906445145
-0.3457,-268.37073358439744
-0.3467000000000001,-268.79514697435695
-0.3477,-268.79514697435695
-0.3487000000000001,-268.79514697435695
-0.3497,-268.79514697435695
-0.3507000000000001,-268.65367584437047
-0.3517,-268.79514697435695
-0.3527000000000001,-269.361031494303
-0.3537,-269.78544488426246
-0.3547000000000001,-270.0683871442355
-0.3557,-270.20985827422203
-0.35670000000000013,-270.0683871442355
-0.3577,-270.0683871442355
-0.35870000000000013,-270.49280053419506
-0.3597,-270.775742794168
-0.36070000000000013,-270.9172139241545
-0.3617,-270.775742794168
-0.3626999999999999,-270.35132940420846
-0.3637,-270.35132940420846
-0.3646999999999999,-270.49280053419506
-0.3657,-271.05868505414105
-0.3666999999999999,-271.62456957408705
-0.3677,-271.9075118340601
-0.3686999999999999,-271.9075118340601
-0.36970000000000003,-271.4830984441005
-0.3706999999999999,-271.341627314114
-0.37170000000000003,-271.4830984441005
-0.3726999999999999,-271.62456957408705
-0.37370000000000003,-272.04898296404656
-0.3746999999999999,-272.1904540940331
-0.37570000000000003,-272.1904540940331
-0.3766999999999999,-272.1904540940331
-0.37770000000000004,-272.3319252240195
-0.3786999999999999,-272.61486748399255
-0.37970000000000004,-272.8978097439656
-0.3806999999999999,-273.3222231339251
-0.38170000000000004,-273.3222231339251
-0.38269999999999993,-273.1807520039386
-0.38370000000000004,-273.3222231339251
-0.38469999999999993,-273.7466365238846
-0.38570000000000004,-274.1710499138441
-0.38669999999999993,-272.61486748399255
-0.38570000000000004,-267.38043567449193
-0.38469999999999993,-262.2874749949778
-0.38370000000000004,-257.1945143154637
-0.38269999999999993,-252.52596702590907
-0.38170000000000004,-248.14036199632744
-0.3806999999999999,-244.32064148669184
-0.37970000000000004,-240.64239210704275
-0.3786999999999999,-236.82267159740715
-0.37770000000000004,-232.72000882779852
-0.3766999999999999,-228.75881718817644
-0.37570000000000003,-225.08056780852735
-0.3746999999999999,-221.82673181883774
-0.37370000000000003,-218.71436695913465
-0.3726999999999999,-215.4605309694451
-0.37170000000000003,-211.9237527197825
-0.3706999999999999,-208.3869744701199
-0.36970000000000003,-204.8501962204573
-0.3686999999999999,-201.87930249074074
-0.3677,-199.04987989101065
-0.3666999999999999,-196.2204572912806
-0.3657,-193.3910346915505
-0.3646999999999999,-190.27866983184742
-0.3637,-187.16630497214436
-0.3626999999999999,-184.33688237241427
-0.3617,-181.64893090267074
-0.36070000000000013,-179.10245056291362
-0.3597,-176.6974413531431
-0.35870000000000013,-174.0094898833995
-0.3577,-171.03859615368293
-0.35670000000000013,-168.20917355395284
-0.3557,-165.5212220842093
-0.3547000000000001,-162.97474174445222
-0.3537,-160.5697325346817
-0.3527000000000001,-158.3061944548976
-0.3517,-155.90118524512707
-0.3507000000000001,-153.21323377538346
-0.3497,-150.66675343562642
-0.3487000000000001,-148.40321535584232
-0.3477,-145.9982061460718
-0.3467000000000001,-143.87613919627424
-0.3457,-141.47112998650366
-0.3447000000000001,-139.13685634172634
-0.3437,-136.7884355839504
-0.3427000000000001,-134.56733884316228
-0.3417,-132.47356611936203
-0.3407000000000001,-130.50711741254963
-0.3397,-128.41334468874936
-0.3387000000000001,-126.19224794796128
-0.3377,-123.74479739919475
-0.3367000000000001,-121.43881798041474
-0.3357,-119.5996932905902
-0.3347000000000001,-118.15668776472786
-0.3337,-116.41659286589388
-0.3327000000000001,-114.40770282008553
-0.3317,-112.01684072331359
-0.3307000000000001,-109.4845074965552
-0.3297,-107.03705694778867
-0.3287000000000001,-105.11304957997223
-0.3277,-103.59930848911664
-0.3267000000000001,-102.24118564124619
-0.3257,-100.75573877638791
-0.3247000000000001,-98.7892900695755
-0.3237,-96.83698847576176
-0.3227000000000001,-94.91298110794531
-0.3217,-93.30021022609918
-0.3207000000000001,-91.72988068324898
-0.3197,-90.15955114039879
-0.3187000000000001,-88.10821975559449
-0.3177,-86.05688837079018
-0.3167000000000001,-84.04799832498183
-0.3157,-82.22302074815593
-0.3147000000000001,-80.73757388329766
-0.3137,-79.37945103542721
-0.3127000000000001,-77.90815128356756
-0.3117,-76.15390927173492
-0.3107000000000001,-74.24404901691713
-0.3097,-72.32004164910067
-0.3087000000000001,-70.66482942825859
-0.3077,-69.30670658038814
-0.3067000000000001,-68.04761352350828
-0.30569999999999997,-66.60460799764593
-0.3047000000000001,-65.0767197937917
-0.30369999999999997,-63.37906623395363
-0.3027000000000001,-61.72385401311155
-0.30169999999999997,-60.28084848724921
-0.3007000000000001,-59.06419676936528
-0.29969999999999997,-57.7485152604908
-0.2987000000000001,-56.22062705663656
-0.29769999999999996,-54.60785617479041
-0.2967000000000001,-52.91020261495237
-0.29569999999999996,-51.46719708909004
-0.2947000000000001,-50.2505453712061
-0.29369999999999996,-49.28854168729788
-0.29270000000000007,-48.071889969413945
-0.29169999999999996,-46.586443104555656
-0.29070000000000007,-44.88878954471762
-0.28969999999999996,-43.31846000186743
-0.28870000000000007,-41.96033715399699
-0.28769999999999996,-40.828568114104954
-0.28670000000000007,-39.739240413208876
-0.28569999999999995,-38.607471373316855
-0.28470000000000006,-37.164465847454515
-0.28369999999999995,-35.679018982596226
-0.28270000000000006,-34.278454795729836
-0.28169999999999995,-33.10424441684186
-0.28070000000000006,-32.14224073293363
-0.27969999999999995,-31.137795710029454
-0.27870000000000006,-29.793819975157668
-0.27769999999999995,-28.350814449295335
-0.27670000000000006,-26.907808923433
-0.27569999999999995,-25.648715866553115
-0.27470000000000006,-24.64427084364894
-0.27369999999999994,-23.767149837732617
-0.27270000000000005,-22.819293266823045
-0.27169999999999994,-21.503611757948562
-0.27070000000000005,-20.06060623208622
-0.26969999999999994,-18.674189158218486
-0.26870000000000005,-17.584861457322408
-0.26769999999999994,-16.665299112410132
