Potential V vs RHE, Current mA cm-2
0.013299999999999867,23.48420757775961
0.012299999999999978,21.772406904922917
0.011299999999999866,19.904987989101066
0.010299999999999976,18.561012254229283
0.009299999999999864,17.259477858353446
0.008299999999999974,15.816472332491113
0.007299999999999862,14.868615761581536
0.006299999999999972,13.489272244213126
0.00529999999999986,12.616395372196397
0.0042999999999999705,11.60912092669249
0.0032999999999998586,10.46886361900127
0.0022999999999999687,9.796875751565379
0.0012999999999998568,8.581638744981312
0.00029999999999996696,7.909650877545419
-0.000700000000000145,7.004235645631797
-0.0017000000000000348,6.054964363422357
-0.0027000000000001467,5.484835709576747
-0.0037000000000000366,4.426631657277699
-0.0047000000000001485,3.85367358083236
-0.005700000000000038,3.0586058303082093
-0.00670000000000015,2.1899730921910767
-0.00770000000000004,1.7330213423346699
-0.008700000000000152,0.7495140466684964
-0.009700000000000042,0.25394067832577405
-0.010700000000000154,-0.4727965164148953
-0.011700000000000044,-1.2747963523083847
-0.012700000000000156,-1.6764328903400685
-0.013700000000000045,-2.581848122253692
-0.014700000000000157,-3.024652759111448
-0.015700000000000047,-3.66268755535058
-0.01670000000000016,-4.40965512167932
-0.01770000000000005,-4.766162369245309
-0.01870000000000016,-5.624892128263387
-0.01970000000000005,-6.028084848724921
-0.020700000000000163,-6.637825418966753
-0.021700000000000053,-7.335278089800215
-0.022700000000000164,-7.657832266169443
-0.023700000000000054,-8.49392664438968
-0.024700000000000166,-8.84760446935594
-0.025700000000000056,-9.434709658799928
-0.026700000000000168,-10.105282814935956
-0.027700000000000058,-10.393883920108426
-0.02870000000000017,-11.218660607929742
-0.02970000000000006,-11.544044206898699
-0.03070000000000017,-12.133978818942419
-0.03170000000000006,-12.78050188298074
-0.03270000000000017,-13.040808762155907
-0.03370000000000006,-13.83304709008033
-0.034700000000000175,-14.13438059695158
-0.035700000000000065,-14.67055617960043
-0.03670000000000018,-15.406206055530248
-0.03770000000000007,-15.632559863508657
-0.03870000000000018,-16.453092417430376
-0.03970000000000007,-16.70774045140608
-0.04070000000000018,-17.20288940635885
-0.04170000000000007,-17.853656604296763
-0.04270000000000018,-18.09415752527382
-0.04370000000000007,-18.91469007919554
-0.044700000000000184,-19.22592656516585
-0.045700000000000074,-19.77766397211321
-0.046700000000000186,-20.44257828304978
-0.047700000000000076,-20.683079204026836
-0.04870000000000019,-21.51775887094721
-0.04970000000000008,-21.800701130920213
-0.05070000000000019,-22.352438537867577
-0.05170000000000008,-22.974911509808198
-0.05270000000000019,-23.229559543783903
-0.05370000000000008,-24.021797871708326
-0.05470000000000019,-24.31888724467998
-0.05570000000000008,-24.856477538628695
-0.056700000000000195,-25.46480339757066
-0.057700000000000085,-25.662862979551768
-0.058700000000000196,-26.426807081478888
-0.059700000000000086,-26.738043567449193
-0.0607000000000002,-27.275633861397907
-0.06170000000000009,-27.940548172334477
-0.0627000000000002,-28.166901980312883
-0.06370000000000009,-28.959140308237306
-0.0647000000000002,-29.29867102020491
-0.06570000000000009,-29.80796708815632
-0.0667000000000002,-30.45873428609424
-0.0677000000000001,-30.699235207071297
-0.0687000000000002,-31.505620647994366
-0.0697000000000001,-31.83100424696332
-0.07070000000000021,-32.368594540912035
-0.0717000000000001,-33.0335088518486
-0.07270000000000021,-33.245715546828364
-0.0737000000000001,-34.05210098775143
-0.07470000000000021,-34.34919036072309
-0.0757000000000001,-34.95751621966506
-0.07670000000000021,-35.594136304604326
-0.0777000000000001,-35.87707856457733
-0.07870000000000021,-36.69761111849905
-0.0797000000000001,-37.00884760446935
-0.08070000000000022,-37.54643789841808
-0.0817000000000001,-38.197205096355994
-0.08270000000000022,-38.42355890433439
-0.08370000000000011,-39.187503006261515
-0.08470000000000022,-39.49873949223183
-0.08570000000000011,-40.05047689917919
-0.08670000000000022,-40.68709698411846
-0.08770000000000011,-40.98418635709011
-0.08870000000000022,-41.73398334601858
-0.08970000000000011,-42.01692560599159
-0.09070000000000022,-42.526221673943
-0.09170000000000011,-43.205283097878215
-0.09270000000000023,-43.474078244852585
-0.09370000000000012,-44.28046368577565
-0.09470000000000023,-44.577553058747306
-0.09570000000000012,-45.10099623969737
-0.09670000000000023,-45.79420477663124
-0.09770000000000012,-46.062999923605595
-0.09870000000000023,-46.85523825153001
-0.09970000000000012,-47.23721030249357
-0.10070000000000023,-47.73235925744634
-0.10170000000000012,-48.39727356838291
-0.10270000000000024,-48.63777448935996
-0.10370000000000013,-49.444159930283035
-0.10470000000000024,-49.85442620724389
-0.10570000000000013,-50.448604953187214
-0.10670000000000024,-51.26913750710893
-0.10770000000000013,-51.55207976708194
-0.10870000000000024,-52.132111400026595
-0.10970000000000013,-52.45749499899556
-0.11070000000000024,-53.065820857937524
-0.11170000000000013,-53.56096981289029
-0.11270000000000002,-53.85805918586195
-0.11370000000000013,-54.508826383799864
-0.11470000000000002,-54.73518019177827
-0.11570000000000014,-55.32935893772159
-0.11670000000000003,-56.008420361656796
-0.11770000000000014,-56.34795107362442
-0.11870000000000003,-57.25336630553804
-0.11970000000000014,-57.564602791508335
-0.12070000000000003,-58.10219308545706
-0.12170000000000014,-58.72466605739767
-0.12270000000000003,-58.951019865376075
-0.12370000000000014,-59.7432581933005
-0.12470000000000003,-60.02620045327351
-0.12570000000000014,-60.59208497321952
-0.12670000000000003,-61.20041083216149
-0.12770000000000015,-61.35602907514664
-0.12870000000000004,-62.09167895107646
-0.12970000000000015,-62.44535677604272
-0.13070000000000004,-62.91221150499819
-0.13170000000000015,-63.59127292893339
-0.13270000000000004,-63.8459209629091
-0.13370000000000015,-64.63815929083353
-0.13470000000000004,-64.97769000280114
-0.13570000000000015,-65.4445447317566
-0.13670000000000004,-66.08116481669586
-0.13770000000000016,-66.37825418966752
-0.13870000000000005,-67.1563454045933
-0.13970000000000016,-67.4675818905636
-0.14070000000000005,-67.93443661951906
-0.14170000000000016,-68.55690959145967
-0.14270000000000005,-68.78326339943808
-0.14370000000000016,-69.44817771037465
-0.14470000000000005,-69.78770842234226
-0.14570000000000016,-70.38188716828559
-0.14670000000000005,-70.90533034923564
-0.14770000000000016,-71.2024197222073
-0.14870000000000005,-71.8531869201452
-0.14970000000000017,-72.26345319710607
-0.15070000000000006,-72.74445503906018
-0.15170000000000017,-73.23960399401295
-0.15270000000000006,-73.63572315797516
-0.15370000000000017,-74.18746056492253
-0.15470000000000006,-74.61187395488203
-0.15570000000000017,-75.0787286838375
-0.15670000000000006,-75.6729074297808
-0.15770000000000017,-75.8709670117619
-0.15870000000000006,-76.66320533968634
-0.15970000000000018,-76.91785337366204
-0.16070000000000007,-77.49788500660672
-0.16170000000000018,-78.04962241355408
-0.16270000000000007,-78.20524065653922
-0.16370000000000018,-78.85600785447714
-0.16470000000000007,-79.13895011445015
-0.16570000000000018,-79.56336350440966
-0.16670000000000007,-80.24242492834487
-0.16770000000000018,-80.52536718831789
-0.16870000000000007,-80.9780748042747
-0.16970000000000018,-81.78446024519776
-0.17070000000000007,-82.12399095716538
-0.17170000000000019,-82.32205053914649
-0.17270000000000008,-82.49181589513029
-0.1737000000000002,-82.84549372009654
-0.17470000000000008,-83.10014175407225
-0.1757000000000002,-83.43967246603985
-0.17670000000000008,-84.10458677697642
-0.1777000000000002,-84.24605790696293
-0.17870000000000008,-84.95341355689546
-0.1797000000000002,-85.54759230283878
-0.18070000000000008,-85.97200569279828
-0.1817000000000002,-86.41056619575643
-0.18270000000000008,-86.7076555687281
-0.1837000000000002,-87.40086410566198
-0.1847000000000001,-87.42915833165927
-0.1857000000000002,-87.68380636563498
-0.1867000000000001,-88.24969088558099
-0.1877000000000002,-88.22139665958369
-0.1887000000000001,-88.94289942251486
-0.1897000000000002,-89.40975415147031
-0.1907000000000001,-89.66440218544602
-0.1917000000000001,-90.03222712341093
-0.19269999999999998,-90.04637423640959
-0.1937000000000001,-90.81031833833671
-0.19469999999999998,-90.98008369432051
-0.1957000000000001,-91.26302595429351
-0.19669999999999999,-91.89964603923279
-0.1977000000000001,-91.85720470023682
-0.1987,-92.36650076818825
-0.1997000000000001,-92.56456035016936
-0.2007,-92.83335549714371
-0.2017000000000001,-93.14459198311401
-0.2027,-93.17288620911131
-0.2037000000000001,-93.80950629405058
-0.2047,-93.83780052004788
-0.2057000000000001,-94.13488989301955
-0.2067,-94.47442060498715
-0.2077000000000001,-94.34709658799929
-0.2087,-94.91298110794531
-0.2097000000000001,-94.94127533394261
-0.2107,-95.39398294989942
-0.2117000000000001,-95.74766077486568
-0.2127,-95.53545407988594
-0.2137000000000001,-96.04475014783733
-0.2147,-96.04475014783733
-0.2157000000000001,-96.29939818181305
-0.2167,-96.63892889378066
-0.21770000000000012,-96.38428085980493
-0.2187,-96.95016537975096
-0.21970000000000012,-96.7662529107685
-0.2207,-97.02090094474423
-0.22170000000000012,-97.26140186572127
-0.2227,-97.04919517074151
-0.22370000000000012,-97.4877556736997
-0.2247,-97.31799031771587
-0.22570000000000012,-97.55849123869294
-0.2267,-97.6575210296835
-0.22770000000000012,-97.45946144770237
-0.22870000000000001,-97.92631617665783
-0.22970000000000013,-97.6575210296835
-0.23070000000000002,-97.79899215967
-0.23170000000000013,-98.05364019364569
-0.23270000000000002,-97.71410948167808
-0.23370000000000013,-98.33658245361869
-0.23470000000000002,-98.12437575863895
-0.23570000000000013,-98.364876679616
-0.23670000000000002,-98.46390647060656
-0.2376999999999999,-98.12437575863895
-0.23870000000000002,-98.54878914859844
-0.2396999999999999,-98.32243534062005
-0.24070000000000003,-98.40731801861195
-0.24169999999999991,-98.6195247135917
-0.24270000000000003,-98.20925843663085
-0.24369999999999992,-98.5629362615971
-0.24470000000000003,-98.16681709763489
-0.24569999999999992,-98.32243534062005
-0.24670000000000003,-98.4214651316106
-0.24769999999999992,-97.99705174165109
-0.24870000000000003,-98.32243534062005
-0.24969999999999992,-97.95461040265513
-0.25070000000000003,-98.03949308064705
-0.2516999999999999,-98.19511132363219
-0.25270000000000004,-97.79899215967
-0.2536999999999999,-98.12437575863895
-0.25470000000000004,-97.96875751565379
-0.2556999999999999,-97.84143349866595
-0.25670000000000004,-98.20925843663085
-0.25769999999999993,-97.68581525568078
-0.25870000000000004,-98.05364019364569
-0.25969999999999993,-97.84143349866595
-0.26070000000000004,-97.77069793367268
-0.26169999999999993,-97.82728638566729
-0.26270000000000004,-97.54434412569428
-0.26369999999999993,-97.86972772466324
-0.26470000000000005,-97.6575210296835
-0.26569999999999994,-97.75655082067404
-0.26670000000000005,-98.08193441964299
-0.26769999999999994,-97.78484504667132
-0.26870000000000005,-98.67611316558632
-0.26969999999999994,-98.74684873057957
-0.27070000000000005,-99.04393810355123
-0.27169999999999994,-99.00149676455526
-0.27270000000000005,-98.66196605258766
-0.27369999999999994,-98.66196605258766
-0.27470000000000006,-98.49220069660386
-0.27569999999999995,-98.364876679616
-0.27670000000000006,-98.3931709056133
-0.27769999999999995,-98.5629362615971
-0.27870000000000006,-98.94490831256067
-0.27969999999999995,-98.87417274756741
-0.28070000000000006,-99.08637944254717
-0.28169999999999995,-99.44005726751342
-0.28270000000000006,-99.04393810355123
-0.28369999999999995,-99.48249860650938
-0.28470000000000006,-99.5107928325067
-0.28569999999999995,-99.38346881551882
-0.28670000000000007,-99.92105910946754
-0.28769999999999996,-99.60982262349724
-0.28870000000000007,-100.07667735245269
-0.28969999999999996,-100.11911869144865
-0.29070000000000007,-100.18985425644189
-0.29169999999999996,-100.5293849684095
-0.29270000000000007,-100.26058982143515
-0.29369999999999996,-100.5293849684095
-0.2947000000000001,-100.60012053340276
-0.29569999999999996,-100.86891568037711
-0.2967000000000001,-101.22259350534338
-0.29769999999999996,-101.18015216634743
-0.2987000000000001,-101.8167722512867
-0.29969999999999997,-101.90165492927859
-0.3007000000000001,-102.22703852824755
-0.30169999999999997,-102.70804037020166
-0.3027000000000001,-102.63730480520842
-0.30369999999999997,-103.30221911614498
-0.3047000000000001,-103.35880756813957
-0.30569999999999997,-103.59930848911664
-0.3067000000000001,-104.0378689920748
-0.3077,-104.06616321807209
-0.3087000000000001,-104.66034196401542
-0.3097,-104.68863619001272
-0.3107000000000001,-105.11304957997223
-0.3117,-105.49502163093578
-0.3127000000000001,-105.46672740493848
-0.3137,-106.2589657328629
-0.3147000000000001,-106.3155541848575
-0.3157,-106.68337912282242
-0.3167000000000001,-107.17852807777518
-0.3177,-107.40488188575358
-0.3187000000000001,-108.06979619669015
-0.3197,-108.26785577867126
-0.3207000000000001,-108.80544607261997
-0.3217,-109.17327101058488
-0.3227000000000001,-109.21571234958083
-0.3237,-109.97965645150795
-0.3247000000000001,-110.06453912949985
-0.3257,-110.36162850247152
-0.3267000000000001,-111.0265428134081
-0.3277,-111.18216105639323
-0.3287000000000001,-111.7904869153352
-0.3297,-111.94610515832035
-0.3307000000000001,-112.38466566127852
-0.3317,-113.09202131121103
-0.3327000000000001,-113.45984624917594
-0.3337,-114.05402499511925
-0.3347000000000001,-114.52087972407472
-0.3357,-114.77552775805043
-0.3367000000000001,-115.14335269601534
-0.3377,-115.65264876396675
-0.3387000000000001,-116.33171018790196
-0.3397,-116.24682750991008
-0.3407000000000001,-116.91174182084664
-0.3417,-117.43518500179668
-0.3427000000000001,-117.33615521080614
-0.3437,-118.0859521997346
-0.3447000000000001,-118.21327621672248
-0.3457,-118.58110115468739
-0.3467000000000001,-119.09039722263879
-0.3477,-119.30260391761853
-0.3487000000000001,-119.89678266356185
-0.3497,-120.06654801954566
-0.3507000000000001,-120.36363739251732
-0.3517,-120.90122768646604
-0.3527000000000001,-121.21246417243634
-0.3537,-121.80664291837965
-0.3547000000000001,-122.0471438393567
-0.3557,-122.42911589032028
-0.35670000000000013,-123.03744174926223
-0.3577,-122.9950004102663
-0.35870000000000013,-123.70235606019881
-0.3597,-123.60332626920825
-0.36070000000000013,-124.29653480614212
-0.3617,-124.23994635414752
-0.3626999999999999,-124.67850685710567
-0.3637,-124.83412510009084
-0.3646999999999999,-124.90486066508409
-0.3657,-125.44245095903281
-0.3666999999999999,-125.20195003805576
-0.3677,-125.4707451850301
-0.3686999999999999,-125.85271723599364
-0.36970000000000003,-126.63080845091945
-0.3706999999999999,-127.11181029287356
-0.37170000000000003,-127.98893129878985
-0.3726999999999999,-128.2577264457642
-0.37370000000000003,-128.69628694872236
-0.3746999999999999,-128.68213983572375
-0.37570000000000003,-129.02167054769134
-0.3766999999999999,-129.2338772426711
-0.37770000000000004,-129.40364259865493
-0.3786999999999999,-129.67243774562928
-0.37970000000000004,-129.3470541466603
-0.3806999999999999,-129.78561464961845
-0.38170000000000004,-130.12514536158608
-0.38269999999999993,-129.72902619762385
-0.38370000000000004,-130.59200009054155
-0.38469999999999993,-130.63444142953747
-0.38570000000000004,-130.93153080250914
-0.38669999999999993,-129.1772887906765
-0.38570000000000004,-124.84827221308949
-0.38469999999999993,-121.91981982236886
-0.38370000000000004,-118.56695404168872
-0.38269999999999993,-116.00632658893302
-0.38170000000000004,-113.75693562214758
-0.3806999999999999,-110.89921879642023
-0.37970000000000004,-109.01765276759973
-0.3786999999999999,-106.65508489682512
-0.37770000000000004,-104.3773997040424
-0.3766999999999999,-102.46753944922462
-0.37570000000000003,-100.14741291744595
-0.3746999999999999,-98.52049492260115
-0.37370000000000003,-96.55404621578876
-0.3726999999999999,-94.67248018696824
-0.37170000000000003,-93.07385641812076
-0.3706999999999999,-91.14984905030431
-0.36970000000000003,-89.74928486343794
-0.3686999999999999,-87.92430728661203
-0.3677,-86.29738929176723
-0.3666999999999999,-85.06659046088465
-0.3657,-83.34064267504931
-0.3646999999999999,-82.10984384416672
-0.3637,-80.46877873632329
-0.3626999999999999,-79.1530972274488
-0.3617,-77.96473973556218
-0.36070000000000013,-76.23879194972683
-0.3597,-75.37581805680915
-0.35870000000000013,-73.86207696595356
-0.3577,-72.57468968307639
-0.35670000000000013,-71.49950909517896
-0.3557,-70.04235645631796
-0.3547000000000001,-69.05205854641244
-0.3537,-67.7788183765339
-0.3527000000000001,-66.56216665864997
-0.3517,-65.51528029674984
-0.3507000000000001,-64.01568631889292
-0.3497,-63.05368263498469
-0.3487000000000001,-61.89361936909536
-0.3477,-60.71940899020737
-0.3467000000000001,-59.95546488828025
-0.3457,-58.583194927411164
-0.3447000000000001,-57.86169216448
-0.3437,-56.65918755959472
-0.3427000000000001,-55.59815408469595
-0.3417,-54.76347441777557
-0.3407000000000001,-53.49023424789704
-0.3397,-52.75458437196722
-0.3387000000000001,-51.72184512306574
-0.3377,-50.64666453516831
-0.3367000000000001,-49.95345599823444
-0.3357,-48.75095139334916
-0.3347000000000001,-48.071889969413945
-0.3337,-47.02500360751382
-0.3327000000000001,-46.162029714596144
-0.3317,-45.44052695166498
-0.3307000000000001,-44.25216945977835
-0.3297,-43.71457916582963
-0.3287000000000001,-42.625251464933555
-0.3277,-41.77642468501453
-0.3267000000000001,-41.210540165068515
-0.3257,-40.06462401217784
-0.3247000000000001,-39.56947505722508
-0.3237,-38.55088292132225
-0.3227000000000001,-37.687909028404576
-0.3217,-37.02299471746801
-0.3207000000000001,-35.87707856457733
-0.3197,-35.42437094862052
-0.3187000000000001,-34.377484586720385
-0.3177,-33.670128936787876
-0.3167000000000001,-33.10424441684186
-0.3157,-32.08565228093904
-0.3147000000000001,-31.632944664982226
-0.3137,-30.656793868075347
-0.3127000000000001,-29.935291105144174
-0.3117,-29.242082568210304
-0.3107000000000001,-28.09616641531963
-0.3097,-27.671753025360115
-0.3087000000000001,-26.780484906445146
-0.3077,-26.087276369511276
-0.3067000000000001,-25.662862979551768
-0.30569999999999997,-24.729153521640843
-0.3047000000000001,-24.37547569667458
-0.30369999999999997,-23.49835469075826
-0.3027000000000001,-22.80514615382439
-0.30169999999999997,-22.39487987686353
-0.3007000000000001,-21.418729079956652
-0.29969999999999997,-21.107492593986347
-0.2987000000000001,-20.159636023076775
-0.29769999999999996,-19.49472171214021
-0.2967000000000001,-19.042014096183394
-0.29569999999999996,-18.10830463827247
-0.2947000000000001,-17.81121526530081
-0.29369999999999996,-17.03312405037504
-0.29270000000000007,-16.453092417430376
-0.29169999999999996,-16.04282614046952
-0.29070000000000007,-15.193999360550496
-0.28969999999999996,-14.882762874580186
-0.28870000000000007,-14.12306290655266
-0.28769999999999996,-13.567081365705702
-0.28670000000000007,-13.168132779143761
-0.28569999999999995,-12.31364715402528
-0.28470000000000006,-12.087293346046872
-0.28369999999999995,-11.345984624917593
-0.28270000000000006,-10.784344238871176
-0.28169999999999995,-10.463204773801811
-0.28070000000000006,-9.6341839520809
-0.27969999999999995,-9.368218227706274
-0.27870000000000006,-8.662277289073618
-0.27769999999999995,-8.140248819423421
-0.27670000000000006,-7.834671178652573
-0.27569999999999995,-7.012723913430986
-0.27470000000000006,-6.847202691346777
-0.27369999999999994,-6.166726556111695
-0.27270000000000005,-5.665918755959472
-0.27169999999999994,-5.384391207286329
-0.27070000000000005,-4.593567590661774
-0.26969999999999994,-4.4393640589764845
-0.26870000000000005,-3.7702056141403233
-0.26769999999999994,-3.2976920399854004
-0.26670000000000005,-3.013335068712528
-0.26569999999999994,-2.257879234584599
-0.26470000000000005,-2.0994315689997145
