Potential V vs RHE, Current mA cm-2
0.013299999999999867,9.331435733909782
0.012299999999999978,6.016767158326001
0.011299999999999866,2.745954633038036
0.010299999999999976,-0.5255652478998613
0.009299999999999864,-3.5353635383627267
0.008299999999999974,-6.064867342521412
0.007299999999999862,-8.508073757388331
0.006299999999999972,-11.081433611842833
0.00529999999999986,-13.741090855589102
0.0042999999999999705,-16.141855931460068
0.0032999999999998586,-18.15074597726842
0.0022999999999999687,-20.10304757108217
0.0012999999999998568,-22.196820294882425
0.00029999999999996696,-24.474505487665134
-0.000700000000000145,-26.440954194477534
-0.0017000000000000348,-28.13860775431558
-0.0027000000000001467,-29.708937297165768
-0.0037000000000000366,-31.533914873991666
-0.0047000000000001485,-33.45792224180811
-0.005700000000000038,-35.15557580164616
-0.00670000000000015,-36.5985813275085
-0.00770000000000004,-37.94255706238028
-0.008700000000000152,-39.51288660523048
-0.009700000000000042,-41.182245939071215
-0.010700000000000154,-42.653545690930855
-0.011700000000000044,-43.88434452181344
-0.012700000000000156,-45.05855490070142
-0.013700000000000045,-46.37423640957591
-0.014700000000000157,-47.8879775004315
-0.015700000000000047,-49.20365900930597
-0.01670000000000016,-50.20810403221015
-0.01770000000000005,-51.21254905511432
-0.01870000000000016,-52.42920077299826
-0.01970000000000005,-53.7873236208687
-0.020700000000000163,-54.961533999756675
-0.021700000000000053,-55.838655005673
-0.022700000000000164,-56.65918755959472
-0.023700000000000054,-57.70607392149485
-0.024700000000000166,-58.92272563937878
-0.025700000000000056,-59.9696120012789
-0.026700000000000168,-60.71940899020737
-0.027700000000000058,-61.455058866137186
-0.02870000000000017,-62.41706255004542
-0.02970000000000006,-63.5063902509415
-0.03070000000000017,-64.46839393484973
-0.03170000000000006,-65.16160247178358
-0.03270000000000017,-65.86895812171612
-0.03370000000000006,-66.77437335362974
-0.034700000000000175,-67.86370105452582
-0.035700000000000065,-68.74082206044213
-0.03670000000000018,-69.39158925838004
-0.03770000000000007,-70.01406223032066
-0.03870000000000018,-70.79215344524643
-0.03970000000000007,-71.75415712915466
-0.04070000000000018,-72.57468968307639
-0.04170000000000007,-73.15472131602105
-0.04270000000000018,-73.62157604497652
-0.04370000000000007,-74.45625571189689
-0.044700000000000184,-75.37581805680915
-0.045700000000000074,-76.19635061073087
-0.046700000000000186,-76.71979379168094
-0.047700000000000076,-77.243236972631
-0.04870000000000019,-78.07791663955136
-0.04970000000000008,-78.99747898446365
-0.05070000000000019,-79.7755701993894
-0.05170000000000008,-80.25657204134353
-0.05270000000000019,-80.73757388329766
-0.05370000000000008,-81.51566509822342
-0.05470000000000019,-82.47766878213164
-0.05570000000000008,-83.14258309306821
-0.056700000000000195,-83.66602627401826
-0.057700000000000085,-84.04799832498183
-0.058700000000000196,-84.7129126359184
-0.059700000000000086,-85.57588652883607
-0.0607000000000002,-86.22665372677399
-0.06170000000000009,-86.66521422973216
-0.0627000000000002,-87.10377473269031
-0.06370000000000009,-87.71210059163228
-0.0647000000000002,-88.5043389195567
-0.06570000000000009,-89.15510611749461
-0.0667000000000002,-89.55122528145681
-0.0677000000000001,-89.98978578441499
-0.0687000000000002,-90.55567030436099
-0.0697000000000001,-91.29132018029082
-0.07070000000000021,-91.85720470023682
-0.0717000000000001,-92.16844118620713
-0.07270000000000021,-92.50797189817473
-0.0737000000000001,-93.08800353111941
-0.07470000000000021,-93.82365340704924
-0.0757000000000001,-94.4319792659912
-0.07670000000000021,-94.8280984299534
-0.0777000000000001,-95.18177625491967
-0.07870000000000021,-95.83254345285758
-0.0797000000000001,-96.5681933287874
-0.08070000000000022,-97.13407784873341
-0.0817000000000001,-97.44531433470372
-0.08270000000000022,-97.69996236867944
-0.08370000000000011,-98.2234055496295
-0.08470000000000022,-98.93076119956201
-0.08570000000000011,-99.41176304151614
-0.08670000000000022,-99.62396973649588
-0.08770000000000011,-99.87861777047159
-0.08870000000000022,-100.35961961242569
-0.08970000000000011,-101.02453392336226
-0.09070000000000022,-101.50553576531638
-0.09170000000000011,-101.76018379929208
-0.09270000000000023,-101.97239049427183
-0.09370000000000012,-102.4958336752219
-0.09470000000000023,-103.20318932515443
-0.09570000000000012,-103.64174982811258
-0.09670000000000023,-103.93883920108425
-0.09770000000000012,-104.2076343480586
-0.09870000000000023,-104.68863619001272
-0.09970000000000012,-105.38184472694657
-0.10070000000000023,-105.90528790789664
-0.10170000000000012,-106.15993594187235
-0.10270000000000024,-106.38628974985076
-0.10370000000000013,-106.82485025280893
-0.10470000000000024,-107.4331761117509
-0.10570000000000013,-107.87173661470905
-0.10670000000000024,-107.99906063169689
-0.10770000000000013,-108.21126732667666
-0.10870000000000024,-108.60738649063886
-0.10970000000000013,-109.17327101058488
-0.11070000000000024,-109.56939017454708
-0.11170000000000013,-109.78159686952685
-0.11270000000000002,-109.9655093385093
-0.11370000000000013,-110.4465111804634
-0.11470000000000002,-111.05483703940537
-0.11570000000000014,-111.5358388813595
-0.11670000000000003,-111.66316289834735
-0.11770000000000014,-111.8753695933271
-0.11870000000000003,-112.3563714352812
-0.11970000000000014,-112.87981461623129
-0.12070000000000003,-113.31837511918944
-0.12170000000000014,-113.44569913617728
-0.12270000000000003,-113.67205294415571
-0.12370000000000014,-114.11061344711386
-0.12470000000000003,-114.57746817606933
-0.12570000000000014,-114.97358734003153
-0.12670000000000003,-115.10091135701937
-0.12770000000000015,-115.28482382600184
-0.12870000000000004,-115.72338432896
-0.12970000000000015,-116.33171018790196
-0.13070000000000004,-116.77027069086012
-0.13170000000000015,-116.94003604684394
-0.13270000000000004,-117.06736006383179
-0.13370000000000015,-117.50592056678994
-0.13470000000000004,-118.07180508673595
-0.13570000000000015,-118.42548291170223
-0.13670000000000004,-118.55280692869007
-0.13770000000000016,-118.68013094567793
-0.13870000000000005,-119.03380877064419
-0.13970000000000016,-119.5996932905902
-0.14070000000000005,-119.95337111555646
-0.14170000000000016,-120.12313647154028
-0.14270000000000005,-120.25046048852812
-0.14370000000000016,-120.60413831349437
-0.14470000000000005,-121.0851401554485
-0.14570000000000016,-121.38222952842017
-0.14670000000000005,-121.33978818942418
-0.14770000000000016,-121.43881798041474
-0.14870000000000005,-121.77834869238235
-0.14970000000000017,-122.34423321232836
-0.15070000000000006,-122.78279371528653
-0.15170000000000017,-122.91011773227437
-0.15270000000000006,-123.17891287924873
-0.15370000000000017,-123.70235606019881
-0.15470000000000006,-124.35312325813672
-0.15570000000000017,-124.87656643908679
-0.15670000000000006,-125.10292024706521
-0.15770000000000017,-125.272685603049
-0.15870000000000006,-125.71124610600715
-0.15970000000000018,-126.19224794796128
-0.16070000000000007,-126.48933732093293
-0.16170000000000018,-126.44689598193698
-0.16270000000000007,-126.36201330394509
-0.16370000000000018,-126.57421999892482
-0.16470000000000007,-126.84301514589919
-0.16570000000000018,-126.9278978238911
-0.16670000000000007,-126.84301514589919
-0.16770000000000018,-126.71569112891132
-0.16870000000000007,-126.97033916288706
-0.16970000000000018,-127.45134100484115
-0.17070000000000007,-127.72013615181551
-0.17170000000000019,-127.80501882980741
-0.17270000000000008,-127.84746016880335
-0.1737000000000002,-128.18699088077096
-0.17470000000000008,-128.66799272272507
-0.1757000000000002,-128.89434653070347
-0.17670000000000008,-128.93678786969946
-0.1777000000000002,-128.9792292086954
-0.17870000000000008,-129.19143590367514
-0.1797000000000002,-129.6299964066333
-0.18070000000000008,-129.8563502146117
-0.1817000000000002,-129.89879155360765
-0.18270000000000008,-129.9412328926036
-0.1837000000000002,-130.23832226557528
-0.1847000000000001,-130.7193241075294
-0.1857000000000002,-131.03056059349967
-0.1867000000000001,-131.07300193249566
-0.1877000000000002,-131.2003259494835
-0.1887000000000001,-131.46912109645783
-0.1897000000000002,-131.89353448641737
-0.1907000000000001,-132.16232963339172
-0.1917000000000001,-132.16232963339172
-0.19269999999999998,-132.20477097238768
-0.1937000000000001,-132.47356611936203
-0.19469999999999998,-132.8555381703256
-0.1957000000000001,-133.1667746562959
-0.19669999999999999,-133.20921599529186
-0.1977000000000001,-133.29409867328377
-0.1987,-133.60533515925405
-0.1997000000000001,-134.04389566221224
-0.2007,-134.34098503518388
-0.2017000000000001,-134.34098503518388
-0.2027,-134.29854369618792
-0.2037000000000001,-134.6522215211542
-0.2047,-134.9917522331218
-0.2057000000000001,-135.26054738009617
-0.2067,-135.26054738009617
-0.2077000000000001,-135.3029887190921
-0.2087,-135.6142252050624
-0.2097000000000001,-136.08107993401788
-0.2107,-136.43475775898415
-0.2117000000000001,-136.51964043697603
-0.2127,-136.60452311496792
-0.2137000000000001,-136.91575960093826
-0.2147,-137.2694374259045
-0.2157000000000001,-137.6089681378721
-0.2167,-137.75043926785864
-0.21770000000000012,-137.92020462384244
-0.2187,-137.87776328484648
-0.21970000000000012,-138.40120646579655
-0.2207,-138.6982958387682
-0.22170000000000012,-138.65585449977226
-0.2227,-138.6982958387682
-0.22370000000000012,-138.88220830775063
-0.2247,-139.09441500273041
-0.22570000000000012,-139.1792976807223
-0.2267,-139.0095323247385
-0.22770000000000012,-138.96709098574257
-0.22870000000000001,-139.13685634172634
-0.22970000000000013,-139.49053416669264
-0.23070000000000002,-139.80177065266292
-0.23170000000000013,-139.80177065266292
-0.23270000000000002,-139.8866533306548
-0.23370000000000013,-140.18374270362645
-0.23470000000000002,-140.66474454558062
-0.23570000000000013,-140.93353969255494
-0.23670000000000002,-141.01842237054686
-0.2376999999999999,-141.18818772653066
-0.23870000000000002,-141.61260111649017
-0.2396999999999999,-142.17848563643616
-0.24070000000000003,-142.4614278964092
-0.24169999999999991,-142.4614278964092
-0.24270000000000003,-142.4614278964092
-0.24369999999999992,-142.7443701563822
-0.24470000000000003,-143.16878354634173
-0.24569999999999992,-143.3102546763282
-0.24670000000000003,-143.4517258063147
-0.24769999999999992,-143.3102546763282
-0.24870000000000003,-143.5931969363012
-0.24969999999999992,-144.01761032626072
-0.25070000000000003,-144.30055258623375
-0.2516999999999999,-144.44202371622026
-0.25270000000000004,-144.72496597619326
-0.2536999999999999,-145.14937936615277
-0.25470000000000004,-145.85673501608528
-0.2556999999999999,-146.28114840604482
-0.25670000000000004,-146.4226195360313
-0.25769999999999993,-146.7055617960043
-0.25870000000000004,-146.9885040559773
-0.25969999999999993,-147.55438857592333
-0.26070000000000004,-147.83733083589632
-0.26169999999999993,-147.97880196588284
-0.26270000000000004,-148.12027309586935
-0.26369999999999993,-148.54468648582886
-0.26470000000000005,-149.1105710057749
-0.26569999999999994,-149.6764555257209
-0.26670000000000005,-149.8179266557074
-0.26769999999999994,-150.24234004566688
-0.26870000000000005,-150.66675343562642
-0.26969999999999994,-151.09116682558593
-0.27070000000000005,-151.37410908555893
-0.27169999999999994,-151.5155802155454
-0.27270000000000005,-151.65705134553193
-0.27369999999999994,-152.0814647354914
-0.27470000000000006,-152.64734925543743
-0.27569999999999995,-153.07176264539694
-0.27670000000000006,-153.07176264539694
-0.27769999999999995,-153.21323377538346
-0.27870000000000006,-153.77911829532948
-0.27969999999999995,-154.203531685289
-0.28070000000000006,-154.6279450752485
-0.28169999999999995,-154.9108873352215
-0.28270000000000006,-155.19382959519453
-0.28369999999999995,-155.75971411514055
-0.28470000000000006,-156.46706976507306
-0.28569999999999995,-157.03295428501906
-0.28670000000000007,-157.17442541500557
-0.28769999999999996,-157.59883880496508
-0.28870000000000007,-158.1647233249111
-0.28969999999999996,-158.87207897484362
-0.29070000000000007,-159.43796349478964
-0.29169999999999996,-159.72090575476264
-0.29270000000000007,-160.00384801473567
-0.29369999999999996,-160.5697325346817
-0.2947000000000001,-161.2770881846142
-0.29569999999999996,-161.84297270456022
-0.2967000000000001,-162.12591496453322
-0.29769999999999996,-162.40885722450622
-0.2987000000000001,-162.97474174445222
-0.29969999999999997,-163.82356852437124
-0.3007000000000001,-164.38945304431726
-0.30169999999999997,-164.81386643427678
-0.3027000000000001,-165.2382798242363
-0.30369999999999997,-165.8041643441823
-0.3047000000000001,-166.65299112410133
-0.30569999999999997,-167.36034677403384
-0.3067000000000001,-167.6432890340068
-0.3077,-168.20917355395284
-0.3087000000000001,-168.91652920388537
-0.3097,-169.9068271137909
-0.3107000000000001,-170.61418276372342
-0.3117,-171.18006728366944
-0.3127000000000001,-171.88742293360195
-0.3137,-172.87772084350746
-0.3147000000000001,-173.72654762342648
-0.3157,-174.57537440334553
-0.3167000000000001,-175.14125892329156
-0.3177,-175.70714344323756
-0.3187000000000001,-176.55597022315658
-0.3197,-177.54626813306209
-0.3207000000000001,-178.3950949129811
-0.3217,-179.10245056291362
-0.3227000000000001,-179.80980621284618
-0.3237,-180.8001041227517
-0.3247000000000001,-181.79040203265723
-0.3257,-182.78069994256273
-0.3267000000000001,-183.48805559249527
-0.3277,-184.19541124242778
-0.3287000000000001,-185.1857091523333
-0.3297,-186.31747819222534
-0.3307000000000001,-187.16630497214436
-0.3317,-187.87366062207687
-0.3327000000000001,-188.58101627200938
-0.3337,-189.57131418191491
-0.3347000000000001,-190.70308322180696
-0.3357,-191.69338113171247
-0.3367000000000001,-192.40073678164498
-0.3377,-193.249563561564
-0.3387000000000001,-194.38133260145605
-0.3397,-195.51310164134807
-0.3407000000000001,-196.50339955125358
-0.3417,-197.49369746115914
-0.3427000000000001,-198.48399537106465
-0.3437,-199.75723554094319
-0.3447000000000001,-201.17194684080823
-0.3457,-202.30371588070025
-0.3467000000000001,-203.15254266061928
-0.3477,-204.14284057052478
-0.3487000000000001,-205.41608074040332
-0.3497,-206.83079204026836
-0.3507000000000001,-208.1040322101469
-0.3517,-208.95285899006592
-0.3527000000000001,-210.08462802995794
-0.3537,-211.21639706985
-0.3547000000000001,-212.631108369715
-0.3557,-213.90434853959354
-0.35670000000000013,-214.89464644949908
-0.3577,-215.88494435940459
-0.35870000000000013,-217.29965565926966
-0.3597,-218.71436695913465
-0.36070000000000013,-219.98760712901318
-0.3617,-221.11937616890526
-0.3626999999999999,-222.25114520879725
-0.3637,-223.80732763864881
-0.3646999999999999,-225.36351006850035
-0.3657,-226.91969249835188
-0.3666999999999999,-228.1929326682304
-0.3677,-229.60764396809546
-0.3686999999999999,-231.163826397947
-0.36970000000000003,-233.00295108777152
-0.3706999999999999,-234.4176623876366
-0.37170000000000003,-235.69090255751513
-0.3726999999999999,-236.96414272739366
-0.37370000000000003,-238.37885402725868
-0.3746999999999999,-239.93503645711021
-0.37570000000000003,-241.34974775697523
-0.3766999999999999,-242.62298792685377
-0.37770000000000004,-244.03769922671884
-0.3786999999999999,-245.73535278655686
-0.37970000000000004,-247.71594860636796
-0.3806999999999999,-249.13065990623298
-0.38170000000000004,-250.4039000761115
-0.38269999999999993,-251.81861137597656
-0.38370000000000004,-253.23332267584152
-0.38469999999999993,-254.78950510569314
-0.38570000000000004,-256.34568753554464
-0.38669999999999993,-255.07244736566614
-0.38570000000000004,-249.69654442617897
-0.38469999999999993,-245.16946826661086
-0.38370000000000004,-241.06680549700224
-0.38269999999999993,-236.96414272739366
-0.38170000000000004,-233.00295108777152
-0.3806999999999999,-229.04175944814943
-0.37970000000000004,-225.50498119848683
-0.3786999999999999,-222.25114520879725
-0.37770000000000004,-218.85583808912116
-0.3766999999999999,-215.31905983945856
-0.37570000000000003,-211.9237527197825
-0.3746999999999999,-208.8113878600794
-0.37370000000000003,-205.98196526034934
-0.3726999999999999,-203.01107153063276
-0.37170000000000003,-199.75723554094319
-0.3706999999999999,-196.7863418112266
-0.36970000000000003,-194.09839034148303
-0.3686999999999999,-191.69338113171247
-0.3677,-188.8639585319824
-0.3666999999999999,-185.89306480226583
-0.3657,-183.06364220253573
-0.3646999999999999,-180.37569073279218
-0.3637,-178.1121526530081
-0.3626999999999999,-175.42420118326456
-0.3617,-172.73624971352098
-0.36070000000000013,-170.0482982437774
-0.3597,-167.6432890340068
-0.35870000000000013,-165.3797509542228
-0.3577,-162.8332706144657
-0.35670000000000013,-160.14531914472215
-0.3557,-157.59883880496508
-0.3547000000000001,-155.33530072518104
-0.3537,-153.21323377538346
-0.3527000000000001,-150.94969569559944
-0.3517,-148.54468648582886
-0.3507000000000001,-146.1396772760583
-0.3497,-144.15908145624724
-0.3487000000000001,-142.03701450644968
-0.3477,-139.84421199165885
-0.3467000000000001,-137.43920278188833
-0.3457,-135.1332233631083
-0.3447000000000001,-133.08189197830401
-0.3437,-131.15788461048754
-0.3427000000000001,-128.9792292086954
-0.3417,-126.61666133792076
-0.3407000000000001,-124.35312325813672
-0.3397,-122.30179187333242
-0.3387000000000001,-120.47681429650652
-0.3377,-118.38304157270628
-0.3367000000000001,-116.10535637992358
-0.3357,-113.84181830013951
-0.3347000000000001,-111.7904869153352
-0.3337,-109.73915553053091
-0.3327000000000001,-107.47561745074682
-0.3317,-105.16963803196683
-0.3307000000000001,-102.97683551717601
-0.3297,-101.06697526235823
-0.3287000000000001,-99.41176304151614
-0.3277,-97.57263835169158
-0.3267000000000001,-95.43642428889537
-0.3257,-93.42753424308701
-0.3247000000000001,-91.68743934425302
-0.3237,-90.03222712341093
-0.3227000000000001,-88.15066109459043
-0.3217,-86.09932970978613
-0.3207000000000001,-84.09043966397778
-0.3197,-82.35034476514379
-0.3187000000000001,-80.73757388329766
-0.3177,-78.9550376454677
-0.3167000000000001,-76.9037062606634
-0.3157,-74.97969889284694
-0.3147000000000001,-73.3669280110008
-0.3137,-71.83903980714656
-0.3127000000000001,-70.14138624730852
-0.3117,-68.21737887949207
-0.3107000000000001,-66.34995996367022
-0.3097,-64.77963042082003
-0.3087000000000001,-63.29418355596174
-0.3077,-61.6814126741156
-0.3067000000000001,-59.842287984291055
-0.30569999999999997,-58.10219308545706
-0.3047000000000001,-56.61674622059877
-0.30369999999999997,-55.31521182472294
-0.3027000000000001,-53.68829382987814
-0.30169999999999997,-51.948198931044146
-0.3007000000000001,-50.335428049198
-0.29969999999999997,-48.89242252333566
-0.2987000000000001,-47.633329466455784
-0.29769999999999996,-46.10544126260155
-0.2967000000000001,-44.45022904175945
-0.29569999999999996,-42.79501682091736
-0.2947000000000001,-41.43689397304693
-0.29369999999999996,-40.220242255162994
-0.29270000000000007,-38.81967806829661
-0.29169999999999996,-37.164465847454515
-0.29070000000000007,-35.679018982596226
-0.28969999999999996,-34.33504324772444
-0.28870000000000007,-33.18912709483376
-0.28769999999999996,-31.84515135996197
-0.28670000000000007,-30.232380478115836
-0.28569999999999995,-28.746933613257543
-0.28470000000000006,-27.530281895373616
-0.28369999999999995,-26.38436574248293
-0.28270000000000006,-25.0828313466071
-0.28169999999999995,-23.597384481748815
-0.28070000000000006,-22.196820294882425
-0.27969999999999995,-21.065051254990397
-0.27870000000000006,-20.01816489309027
-0.27769999999999995,-18.80151317520634
-0.27670000000000006,-17.358507649344002
-0.27569999999999995,-15.972090575476265
-0.27470000000000006,-14.868615761581536
-0.27369999999999994,-13.828802956180734
-0.27270000000000005,-12.651763154693022
-0.27169999999999994,-11.255443101726232
-0.27070000000000005,-9.946835149351072
-0.26969999999999994,-8.899948787450944
-0.26870000000000005,-7.940774526142452
