Sept. 16, 2024   11:06:11
Cyclic Voltammetry
File: c:/users/guazh/data/20240903_batch_252_500/2024-09-03-exp369\exp369-2024-09-16t10_52_02-h2koh\exp369_cv_sr_200mvs_efin_-1600mv.bin
Data Source:  Experiment
Instrument Model:  CHI760E
Header: CV ran at 200 mVs
Note: 

Init E (V) = -1
High E (V) = -1
Low E (V) = -1.6
Final E (V) = -1
Init P/N = N
Scan Rate (V/s) = 0.2
Segment = 3
Sample Interval (V) = 0.001
Quiet Time (sec) = 2
Sensitivity (A/V) = 0.01
Comp R (ohm) = 2.3

Results:

Channel 1:
Segment 1:

Segment 2:

Segment 3:

Potential/V, Current/A

-1.000, 1.551e-5
-1.001, 3.907e-5
-1.002, 4.855e-5
-1.003, 5.316e-5
-1.004, 5.536e-5
-1.005, 5.820e-5
-1.006, 6.090e-5
-1.007, 6.136e-5
-1.008, 6.256e-5
-1.009, 6.497e-5
-1.010, 6.508e-5
-1.011, 6.570e-5
-1.012, 6.781e-5
-1.013, 6.816e-5
-1.014, 6.811e-5
-1.015, 6.987e-5
-1.016, 7.080e-5
-1.017, 7.018e-5
-1.018, 7.119e-5
-1.019, 7.286e-5
-1.020, 7.248e-5
-1.021, 7.241e-5
-1.022, 7.438e-5
-1.023, 7.441e-5
-1.024, 7.419e-5
-1.025, 7.546e-5
-1.026, 7.669e-5
-1.027, 7.538e-5
-1.028, 7.636e-5
-1.029, 7.764e-5
-1.030, 7.709e-5
-1.031, 7.730e-5
-1.032, 7.874e-5
-1.033, 7.874e-5
-1.034, 7.847e-5
-1.035, 7.935e-5
-1.036, 8.069e-5
-1.037, 7.914e-5
-1.038, 8.047e-5
-1.039, 8.161e-5
-1.040, 8.044e-5
-1.041, 8.077e-5
-1.042, 8.265e-5
-1.043, 8.224e-5
-1.044, 8.200e-5
-1.045, 8.293e-5
-1.046, 8.356e-5
-1.047, 8.305e-5
-1.048, 8.338e-5
-1.049, 8.495e-5
-1.050, 8.412e-5
-1.051, 8.411e-5
-1.052, 8.591e-5
-1.053, 8.549e-5
-1.054, 8.513e-5
-1.055, 8.608e-5
-1.056, 8.695e-5
-1.057, 8.586e-5
-1.058, 8.626e-5
-1.059, 8.755e-5
-1.060, 8.693e-5
-1.061, 8.679e-5
-1.062, 8.833e-5
-1.063, 8.837e-5
-1.064, 8.749e-5
-1.065, 8.868e-5
-1.066, 8.912e-5
-1.067, 8.821e-5
-1.068, 8.908e-5
-1.069, 9.006e-5
-1.070, 8.933e-5
-1.071, 8.947e-5
-1.072, 9.085e-5
-1.073, 9.054e-5
-1.074, 8.984e-5
-1.075, 9.127e-5
-1.076, 9.221e-5
-1.077, 9.077e-5
-1.078, 9.151e-5
-1.079, 9.253e-5
-1.080, 9.144e-5
-1.081, 9.158e-5
-1.082, 9.301e-5
-1.083, 9.247e-5
-1.084, 9.203e-5
-1.085, 9.311e-5
-1.086, 9.357e-5
-1.087, 9.254e-5
-1.088, 9.299e-5
-1.089, 9.429e-5
-1.090, 9.309e-5
-1.091, 9.325e-5
-1.092, 9.468e-5
-1.093, 9.394e-5
-1.094, 9.353e-5
-1.095, 9.441e-5
-1.096, 9.468e-5
-1.097, 9.377e-5
-1.098, 9.474e-5
-1.099, 9.545e-5
-1.100, 9.451e-5
-1.101, 9.443e-5
-1.102, 9.571e-5
-1.103, 9.537e-5
-1.104, 9.436e-5
-1.105, 9.551e-5
-1.106, 9.589e-5
-1.107, 9.439e-5
-1.108, 9.532e-5
-1.109, 9.613e-5
-1.110, 9.545e-5
-1.111, 9.493e-5
-1.112, 9.612e-5
-1.113, 9.594e-5
-1.114, 9.493e-5
-1.115, 9.573e-5
-1.116, 9.658e-5
-1.117, 9.498e-5
-1.118, 9.550e-5
-1.119, 9.664e-5
-1.120, 9.523e-5
-1.121, 9.523e-5
-1.122, 9.628e-5
-1.123, 9.589e-5
-1.124, 9.523e-5
-1.125, 9.629e-5
-1.126, 9.611e-5
-1.127, 9.499e-5
-1.128, 9.523e-5
-1.129, 9.627e-5
-1.130, 9.502e-5
-1.131, 9.473e-5
-1.132, 9.619e-5
-1.133, 9.527e-5
-1.134, 9.450e-5
-1.135, 9.550e-5
-1.136, 9.555e-5
-1.137, 9.433e-5
-1.138, 9.495e-5
-1.139, 9.546e-5
-1.140, 9.480e-5
-1.141, 9.426e-5
-1.142, 9.547e-5
-1.143, 9.492e-5
-1.144, 9.360e-5
-1.145, 9.486e-5
-1.146, 9.501e-5
-1.147, 9.368e-5
-1.148, 9.391e-5
-1.149, 9.478e-5
-1.150, 9.357e-5
-1.151, 9.391e-5
-1.152, 9.479e-5
-1.153, 9.410e-5
-1.154, 9.317e-5
-1.155, 9.410e-5
-1.156, 9.417e-5
-1.157, 9.260e-5
-1.158, 9.314e-5
-1.159, 9.422e-5
-1.160, 9.255e-5
-1.161, 9.255e-5
-1.162, 9.394e-5
-1.163, 9.296e-5
-1.164, 9.220e-5
-1.165, 9.318e-5
-1.166, 9.324e-5
-1.167, 9.191e-5
-1.168, 9.218e-5
-1.169, 9.324e-5
-1.170, 9.184e-5
-1.171, 9.164e-5
-1.172, 9.321e-5
-1.173, 9.195e-5
-1.174, 9.145e-5
-1.175, 9.247e-5
-1.176, 9.231e-5
-1.177, 9.137e-5
-1.178, 9.215e-5
-1.179, 9.265e-5
-1.180, 9.144e-5
-1.181, 9.071e-5
-1.182, 9.266e-5
-1.183, 9.208e-5
-1.184, 9.033e-5
-1.185, 9.178e-5
-1.186, 9.239e-5
-1.187, 9.048e-5
-1.188, 9.152e-5
-1.189, 9.241e-5
-1.190, 9.091e-5
-1.191, 9.123e-5
-1.192, 9.228e-5
-1.193, 9.146e-5
-1.194, 9.071e-5
-1.195, 9.212e-5
-1.196, 9.256e-5
-1.197, 9.056e-5
-1.198, 9.155e-5
-1.199, 9.254e-5
-1.200, 9.120e-5
-1.201, 9.132e-5
-1.202, 9.265e-5
-1.203, 9.161e-5
-1.204, 9.161e-5
-1.205, 9.247e-5
-1.206, 9.289e-5
-1.207, 9.204e-5
-1.208, 9.245e-5
-1.209, 9.354e-5
-1.210, 9.238e-5
-1.211, 9.257e-5
-1.212, 9.441e-5
-1.213, 9.337e-5
-1.214, 9.295e-5
-1.215, 9.458e-5
-1.216, 9.456e-5
-1.217, 9.348e-5
-1.218, 9.470e-5
-1.219, 9.565e-5
-1.220, 9.469e-5
-1.221, 9.496e-5
-1.222, 9.674e-5
-1.223, 9.580e-5
-1.224, 9.547e-5
-1.225, 9.709e-5
-1.226, 9.765e-5
-1.227, 9.667e-5
-1.228, 9.807e-5
-1.229, 9.973e-5
-1.230, 9.784e-5
-1.231, 9.906e-5
-1.232, 1.003e-4
-1.233, 9.979e-5
-1.234, 9.976e-5
-1.235, 1.012e-4
-1.236, 1.021e-4
-1.237, 1.013e-4
-1.238, 1.023e-4
-1.239, 1.039e-4
-1.240, 1.027e-4
-1.241, 1.037e-4
-1.242, 1.057e-4
-1.243, 1.051e-4
-1.244, 1.055e-4
-1.245, 1.070e-4
-1.246, 1.076e-4
-1.247, 1.072e-4
-1.248, 1.089e-4
-1.249, 1.103e-4
-1.250, 1.097e-4
-1.251, 1.108e-4
-1.252, 1.127e-4
-1.253, 1.125e-4
-1.254, 1.130e-4
-1.255, 1.154e-4
-1.256, 1.160e-4
-1.257, 1.157e-4
-1.258, 1.178e-4
-1.259, 1.189e-4
-1.260, 1.191e-4
-1.261, 1.202e-4
-1.262, 1.225e-4
-1.263, 1.227e-4
-1.264, 1.230e-4
-1.265, 1.258e-4
-1.266, 1.268e-4
-1.267, 1.268e-4
-1.268, 1.294e-4
-1.269, 1.309e-4
-1.270, 1.310e-4
-1.271, 1.328e-4
-1.272, 1.352e-4
-1.273, 1.354e-4
-1.274, 1.369e-4
-1.275, 1.391e-4
-1.276, 1.408e-4
-1.277, 1.410e-4
-1.278, 1.439e-4
-1.279, 1.462e-4
-1.280, 1.465e-4
-1.281, 1.489e-4
-1.282, 1.520e-4
-1.283, 1.521e-4
-1.284, 1.540e-4
-1.285, 1.572e-4
-1.286, 1.592e-4
-1.287, 1.600e-4
-1.288, 1.628e-4
-1.289, 1.655e-4
-1.290, 1.663e-4
-1.291, 1.690e-4
-1.292, 1.728e-4
-1.293, 1.734e-4
-1.294, 1.757e-4
-1.295, 1.795e-4
-1.296, 1.813e-4
-1.297, 1.828e-4
-1.298, 1.867e-4
-1.299, 1.897e-4
-1.300, 1.913e-4
-1.301, 1.946e-4
-1.302, 1.984e-4
-1.303, 1.999e-4
-1.304, 2.028e-4
-1.305, 2.073e-4
-1.306, 2.103e-4
-1.307, 2.123e-4
-1.308, 2.167e-4
-1.309, 2.202e-4
-1.310, 2.220e-4
-1.311, 2.261e-4
-1.312, 2.306e-4
-1.313, 2.327e-4
-1.314, 2.368e-4
-1.315, 2.414e-4
-1.316, 2.454e-4
-1.317, 2.477e-4
-1.318, 2.533e-4
-1.319, 2.574e-4
-1.320, 2.604e-4
-1.321, 2.648e-4
-1.322, 2.707e-4
-1.323, 2.732e-4
-1.324, 2.778e-4
-1.325, 2.839e-4
-1.326, 2.878e-4
-1.327, 2.920e-4
-1.328, 2.972e-4
-1.329, 3.027e-4
-1.330, 3.066e-4
-1.331, 3.116e-4
-1.332, 3.189e-4
-1.333, 3.218e-4
-1.334, 3.274e-4
-1.335, 3.342e-4
-1.336, 3.386e-4
-1.337, 3.436e-4
-1.338, 3.506e-4
-1.339, 3.563e-4
-1.340, 3.609e-4
-1.341, 3.675e-4
-1.342, 3.745e-4
-1.343, 3.789e-4
-1.344, 3.854e-4
-1.345, 3.921e-4
-1.346, 3.987e-4
-1.347, 4.035e-4
-1.348, 4.107e-4
-1.349, 4.174e-4
-1.350, 4.227e-4
-1.351, 4.295e-4
-1.352, 4.371e-4
-1.353, 4.430e-4
-1.354, 4.498e-4
-1.355, 4.579e-4
-1.356, 4.651e-4
-1.357, 4.709e-4
-1.358, 4.794e-4
-1.359, 4.872e-4
-1.360, 4.926e-4
-1.361, 5.005e-4
-1.362, 5.086e-4
-1.363, 5.155e-4
-1.364, 5.225e-4
-1.365, 5.317e-4
-1.366, 5.396e-4
-1.367, 5.455e-4
-1.368, 5.554e-4
-1.369, 5.634e-4
-1.370, 5.707e-4
-1.371, 5.785e-4
-1.372, 5.885e-4
-1.373, 5.945e-4
-1.374, 6.030e-4
-1.375, 6.119e-4
-1.376, 6.200e-4
-1.377, 6.274e-4
-1.378, 6.364e-4
-1.379, 6.463e-4
-1.380, 6.522e-4
-1.381, 6.626e-4
-1.382, 6.724e-4
-1.383, 6.801e-4
-1.384, 6.884e-4
-1.385, 6.976e-4
-1.386, 7.077e-4
-1.387, 7.148e-4
-1.388, 7.245e-4
-1.389, 7.352e-4
-1.390, 7.425e-4
-1.391, 7.509e-4
-1.392, 7.619e-4
-1.393, 7.714e-4
-1.394, 7.798e-4
-1.395, 7.879e-4
-1.396, 7.980e-4
-1.397, 8.068e-4
-1.398, 8.163e-4
-1.399, 8.247e-4
-1.400, 8.347e-4
-1.401, 8.460e-4
-1.402, 8.565e-4
-1.403, 8.646e-4
-1.404, 8.739e-4
-1.405, 8.828e-4
-1.406, 8.952e-4
-1.407, 9.038e-4
-1.408, 9.157e-4
-1.409, 9.254e-4
-1.410, 9.336e-4
-1.411, 9.438e-4
-1.412, 9.547e-4
-1.413, 9.625e-4
-1.414, 9.755e-4
-1.415, 9.864e-4
-1.416, 9.962e-4
-1.417, 1.006e-3
-1.418, 1.018e-3
-1.419, 1.028e-3
-1.420, 1.037e-3
-1.421, 1.048e-3
-1.422, 1.060e-3
-1.423, 1.067e-3
-1.424, 1.080e-3
-1.425, 1.090e-3
-1.426, 1.102e-3
-1.427, 1.112e-3
-1.428, 1.122e-3
-1.429, 1.137e-3
-1.430, 1.144e-3
-1.431, 1.155e-3
-1.432, 1.168e-3
-1.433, 1.178e-3
-1.434, 1.188e-3
-1.435, 1.202e-3
-1.436, 1.210e-3
-1.437, 1.221e-3
-1.438, 1.234e-3
-1.439, 1.247e-3
-1.440, 1.258e-3
-1.441, 1.272e-3
-1.442, 1.284e-3
-1.443, 1.295e-3
-1.444, 1.307e-3
-1.445, 1.320e-3
-1.446, 1.331e-3
-1.447, 1.340e-3
-1.448, 1.351e-3
-1.449, 1.362e-3
-1.450, 1.373e-3
-1.451, 1.384e-3
-1.452, 1.396e-3
-1.453, 1.408e-3
-1.454, 1.419e-3
-1.455, 1.434e-3
-1.456, 1.444e-3
-1.457, 1.455e-3
-1.458, 1.467e-3
-1.459, 1.484e-3
-1.460, 1.497e-3
-1.461, 1.511e-3
-1.462, 1.524e-3
-1.463, 1.535e-3
-1.464, 1.548e-3
-1.465, 1.561e-3
-1.466, 1.574e-3
-1.467, 1.585e-3
-1.468, 1.601e-3
-1.469, 1.616e-3
-1.470, 1.626e-3
-1.471, 1.643e-3
-1.472, 1.657e-3
-1.473, 1.669e-3
-1.474, 1.683e-3
-1.475, 1.699e-3
-1.476, 1.712e-3
-1.477, 1.725e-3
-1.478, 1.741e-3
-1.479, 1.754e-3
-1.480, 1.769e-3
-1.481, 1.781e-3
-1.482, 1.799e-3
-1.483, 1.810e-3
-1.484, 1.826e-3
-1.485, 1.842e-3
-1.486, 1.854e-3
-1.487, 1.869e-3
-1.488, 1.883e-3
-1.489, 1.899e-3
-1.490, 1.912e-3
-1.491, 1.929e-3
-1.492, 1.945e-3
-1.493, 1.959e-3
-1.494, 1.975e-3
-1.495, 1.992e-3
-1.496, 2.006e-3
-1.497, 2.021e-3
-1.498, 2.038e-3
-1.499, 2.054e-3
-1.500, 2.070e-3
-1.501, 2.085e-3
-1.502, 2.099e-3
-1.503, 2.114e-3
-1.504, 2.130e-3
-1.505, 2.145e-3
-1.506, 2.158e-3
-1.507, 2.174e-3
-1.508, 2.191e-3
-1.509, 2.209e-3
-1.510, 2.224e-3
-1.511, 2.243e-3
-1.512, 2.259e-3
-1.513, 2.274e-3
-1.514, 2.291e-3
-1.515, 2.306e-3
-1.516, 2.326e-3
-1.517, 2.345e-3
-1.518, 2.359e-3
-1.519, 2.378e-3
-1.520, 2.397e-3
-1.521, 2.411e-3
-1.522, 2.432e-3
-1.523, 2.449e-3
-1.524, 2.470e-3
-1.525, 2.485e-3
-1.526, 2.507e-3
-1.527, 2.524e-3
-1.528, 2.543e-3
-1.529, 2.565e-3
-1.530, 2.582e-3
-1.531, 2.604e-3
-1.532, 2.618e-3
-1.533, 2.641e-3
-1.534, 2.659e-3
-1.535, 2.675e-3
-1.536, 2.698e-3
-1.537, 2.713e-3
-1.538, 2.734e-3
-1.539, 2.754e-3
-1.540, 2.777e-3
-1.541, 2.795e-3
-1.542, 2.817e-3
-1.543, 2.840e-3
-1.544, 2.861e-3
-1.545, 2.885e-3
-1.546, 2.904e-3
-1.547, 2.921e-3
-1.548, 2.940e-3
-1.549, 2.961e-3
-1.550, 2.980e-3
-1.551, 2.993e-3
-1.552, 3.013e-3
-1.553, 3.034e-3
-1.554, 3.056e-3
-1.555, 3.078e-3
-1.556, 3.103e-3
-1.557, 3.117e-3
-1.558, 3.143e-3
-1.559, 3.167e-3
-1.560, 3.189e-3
-1.561, 3.211e-3
-1.562, 3.235e-3
-1.563, 3.256e-3
-1.564, 3.279e-3
-1.565, 3.298e-3
-1.566, 3.324e-3
-1.567, 3.347e-3
-1.568, 3.376e-3
-1.569, 3.398e-3
-1.570, 3.426e-3
-1.571, 3.449e-3
-1.572, 3.477e-3
-1.573, 3.500e-3
-1.574, 3.527e-3
-1.575, 3.548e-3
-1.576, 3.576e-3
-1.577, 3.598e-3
-1.578, 3.623e-3
-1.579, 3.654e-3
-1.580, 3.675e-3
-1.581, 3.708e-3
-1.582, 3.728e-3
-1.583, 3.760e-3
-1.584, 3.790e-3
-1.585, 3.809e-3
-1.586, 3.842e-3
-1.587, 3.862e-3
-1.588, 3.881e-3
-1.589, 3.913e-3
-1.590, 3.935e-3
-1.591, 3.962e-3
-1.592, 3.990e-3
-1.593, 4.022e-3
-1.594, 4.051e-3
-1.595, 4.083e-3
-1.596, 4.115e-3
-1.597, 4.146e-3
-1.598, 4.173e-3
-1.599, 4.198e-3
-1.600, 4.178e-3
-1.599, 4.122e-3
-1.598, 4.077e-3
-1.597, 4.035e-3
-1.596, 3.989e-3
-1.595, 3.945e-3
-1.594, 3.903e-3
-1.593, 3.860e-3
-1.592, 3.819e-3
-1.591, 3.786e-3
-1.590, 3.747e-3
-1.589, 3.709e-3
-1.588, 3.672e-3
-1.587, 3.632e-3
-1.586, 3.597e-3
-1.585, 3.561e-3
-1.584, 3.525e-3
-1.583, 3.494e-3
-1.582, 3.457e-3
-1.581, 3.428e-3
-1.580, 3.393e-3
-1.579, 3.358e-3
-1.578, 3.329e-3
-1.577, 3.295e-3
-1.576, 3.262e-3
-1.575, 3.230e-3
-1.574, 3.201e-3
-1.573, 3.164e-3
-1.572, 3.136e-3
-1.571, 3.106e-3
-1.570, 3.074e-3
-1.569, 3.046e-3
-1.568, 3.015e-3
-1.567, 2.988e-3
-1.566, 2.953e-3
-1.565, 2.928e-3
-1.564, 2.898e-3
-1.563, 2.866e-3
-1.562, 2.840e-3
-1.561, 2.811e-3
-1.560, 2.783e-3
-1.559, 2.750e-3
-1.558, 2.726e-3
-1.557, 2.700e-3
-1.556, 2.672e-3
-1.555, 2.648e-3
-1.554, 2.626e-3
-1.553, 2.596e-3
-1.552, 2.575e-3
-1.551, 2.548e-3
-1.550, 2.523e-3
-1.549, 2.498e-3
-1.548, 2.472e-3
-1.547, 2.451e-3
-1.546, 2.423e-3
-1.545, 2.402e-3
-1.544, 2.380e-3
-1.543, 2.352e-3
-1.542, 2.336e-3
-1.541, 2.308e-3
-1.540, 2.288e-3
-1.539, 2.267e-3
-1.538, 2.242e-3
-1.537, 2.223e-3
-1.536, 2.197e-3
-1.535, 2.178e-3
-1.534, 2.158e-3
-1.533, 2.134e-3
-1.532, 2.117e-3
-1.531, 2.096e-3
-1.530, 2.074e-3
-1.529, 2.055e-3
-1.528, 2.033e-3
-1.527, 2.015e-3
-1.526, 1.995e-3
-1.525, 1.976e-3
-1.524, 1.957e-3
-1.523, 1.939e-3
-1.522, 1.920e-3
-1.521, 1.901e-3
-1.520, 1.883e-3
-1.519, 1.863e-3
-1.518, 1.846e-3
-1.517, 1.826e-3
-1.516, 1.810e-3
-1.515, 1.793e-3
-1.514, 1.775e-3
-1.513, 1.757e-3
-1.512, 1.741e-3
-1.511, 1.722e-3
-1.510, 1.708e-3
-1.509, 1.692e-3
-1.508, 1.675e-3
-1.507, 1.660e-3
-1.506, 1.643e-3
-1.505, 1.629e-3
-1.504, 1.613e-3
-1.503, 1.597e-3
-1.502, 1.582e-3
-1.501, 1.569e-3
-1.500, 1.550e-3
-1.499, 1.537e-3
-1.498, 1.524e-3
-1.497, 1.507e-3
-1.496, 1.495e-3
-1.495, 1.478e-3
-1.494, 1.465e-3
-1.493, 1.450e-3
-1.492, 1.435e-3
-1.491, 1.423e-3
-1.490, 1.406e-3
-1.489, 1.393e-3
-1.488, 1.380e-3
-1.487, 1.367e-3
-1.486, 1.355e-3
-1.485, 1.342e-3
-1.484, 1.329e-3
-1.483, 1.315e-3
-1.482, 1.304e-3
-1.481, 1.291e-3
-1.480, 1.276e-3
-1.479, 1.264e-3
-1.478, 1.252e-3
-1.477, 1.238e-3
-1.476, 1.224e-3
-1.475, 1.215e-3
-1.474, 1.204e-3
-1.473, 1.189e-3
-1.472, 1.178e-3
-1.471, 1.168e-3
-1.470, 1.155e-3
-1.469, 1.145e-3
-1.468, 1.132e-3
-1.467, 1.120e-3
-1.466, 1.109e-3
-1.465, 1.099e-3
-1.464, 1.088e-3
-1.463, 1.075e-3
-1.462, 1.065e-3
-1.461, 1.054e-3
-1.460, 1.041e-3
-1.459, 1.033e-3
-1.458, 1.022e-3
-1.457, 1.011e-3
-1.456, 1.002e-3
-1.455, 9.931e-4
-1.454, 9.818e-4
-1.453, 9.701e-4
-1.452, 9.604e-4
-1.451, 9.497e-4
-1.450, 9.393e-4
-1.449, 9.292e-4
-1.448, 9.202e-4
-1.447, 9.092e-4
-1.446, 8.991e-4
-1.445, 8.907e-4
-1.444, 8.798e-4
-1.443, 8.707e-4
-1.442, 8.604e-4
-1.441, 8.518e-4
-1.440, 8.403e-4
-1.439, 8.315e-4
-1.438, 8.219e-4
-1.437, 8.110e-4
-1.436, 8.026e-4
-1.435, 7.941e-4
-1.434, 7.845e-4
-1.433, 7.757e-4
-1.432, 7.670e-4
-1.431, 7.590e-4
-1.430, 7.481e-4
-1.429, 7.400e-4
-1.428, 7.315e-4
-1.427, 7.212e-4
-1.426, 7.134e-4
-1.425, 7.048e-4
-1.424, 6.958e-4
-1.423, 6.872e-4
-1.422, 6.781e-4
-1.421, 6.713e-4
-1.420, 6.607e-4
-1.419, 6.534e-4
-1.418, 6.454e-4
-1.417, 6.358e-4
-1.416, 6.275e-4
-1.415, 6.199e-4
-1.414, 6.123e-4
-1.413, 6.034e-4
-1.412, 5.967e-4
-1.411, 5.890e-4
-1.410, 5.800e-4
-1.409, 5.726e-4
-1.408, 5.652e-4
-1.407, 5.570e-4
-1.406, 5.489e-4
-1.405, 5.422e-4
-1.404, 5.345e-4
-1.403, 5.258e-4
-1.402, 5.197e-4
-1.401, 5.121e-4
-1.400, 5.040e-4
-1.399, 4.974e-4
-1.398, 4.901e-4
-1.397, 4.826e-4
-1.396, 4.744e-4
-1.395, 4.687e-4
-1.394, 4.607e-4
-1.393, 4.530e-4
-1.392, 4.471e-4
-1.391, 4.402e-4
-1.390, 4.320e-4
-1.389, 4.262e-4
-1.388, 4.198e-4
-1.387, 4.121e-4
-1.386, 4.053e-4
-1.385, 3.999e-4
-1.384, 3.933e-4
-1.383, 3.851e-4
-1.382, 3.799e-4
-1.381, 3.736e-4
-1.380, 3.659e-4
-1.379, 3.603e-4
-1.378, 3.548e-4
-1.377, 3.475e-4
-1.376, 3.409e-4
-1.375, 3.359e-4
-1.374, 3.295e-4
-1.373, 3.225e-4
-1.372, 3.181e-4
-1.371, 3.115e-4
-1.370, 3.046e-4
-1.369, 3.000e-4
-1.368, 2.944e-4
-1.367, 2.871e-4
-1.366, 2.819e-4
-1.365, 2.778e-4
-1.364, 2.711e-4
-1.363, 2.648e-4
-1.362, 2.612e-4
-1.361, 2.553e-4
-1.360, 2.489e-4
-1.359, 2.444e-4
-1.358, 2.397e-4
-1.357, 2.334e-4
-1.356, 2.284e-4
-1.355, 2.247e-4
-1.354, 2.187e-4
-1.353, 2.130e-4
-1.352, 2.095e-4
-1.351, 2.043e-4
-1.350, 1.988e-4
-1.349, 1.950e-4
-1.348, 1.903e-4
-1.347, 1.849e-4
-1.346, 1.802e-4
-1.345, 1.766e-4
-1.344, 1.714e-4
-1.343, 1.661e-4
-1.342, 1.629e-4
-1.341, 1.588e-4
-1.340, 1.531e-4
-1.339, 1.495e-4
-1.338, 1.458e-4
-1.337, 1.405e-4
-1.336, 1.366e-4
-1.335, 1.339e-4
-1.334, 1.285e-4
-1.333, 1.242e-4
-1.332, 1.215e-4
-1.331, 1.174e-4
-1.330, 1.127e-4
-1.329, 1.097e-4
-1.328, 1.070e-4
-1.327, 1.019e-4
-1.326, 9.808e-5
-1.325, 9.656e-5
-1.324, 9.138e-5
-1.323, 8.792e-5
-1.322, 8.543e-5
-1.321, 8.217e-5
-1.320, 7.786e-5
-1.319, 7.556e-5
-1.318, 7.269e-5
-1.317, 6.826e-5
-1.316, 6.544e-5
-1.315, 6.370e-5
-1.314, 5.928e-5
-1.313, 5.610e-5
-1.312, 5.476e-5
-1.311, 5.142e-5
-1.310, 4.733e-5
-1.309, 4.603e-5
-1.308, 4.354e-5
-1.307, 3.914e-5
-1.306, 3.727e-5
-1.305, 3.531e-5
-1.304, 3.169e-5
-1.303, 2.931e-5
-1.302, 2.757e-5
-1.301, 2.515e-5
-1.300, 2.154e-5
-1.299, 2.021e-5
-1.298, 1.854e-5
-1.297, 1.465e-5
-1.296, 1.297e-5
-1.295, 1.186e-5
-1.294, 8.443e-6
-1.293, 6.450e-6
-1.292, 5.365e-6
-1.291, 3.145e-6
-1.290, 2.841e-7
-1.289, -5.841e-7
-1.288, -2.232e-6
-1.287, -5.339e-6
-1.286, -6.800e-6
-1.285, -6.967e-6
-1.284, -1.017e-5
-1.283, -1.199e-5
-1.282, -1.239e-5
-1.281, -1.448e-5
-1.280, -1.741e-5
-1.279, -1.755e-5
-1.278, -1.913e-5
-1.277, -2.143e-5
-1.276, -2.270e-5
-1.275, -2.283e-5
-1.274, -2.576e-5
-1.273, -2.701e-5
-1.272, -2.701e-5
-1.271, -2.864e-5
-1.270, -3.115e-5
-1.269, -3.091e-5
-1.268, -3.212e-5
-1.267, -3.470e-5
-1.266, -3.517e-5
-1.265, -3.528e-5
-1.264, -3.737e-5
-1.263, -3.835e-5
-1.262, -3.859e-5
-1.261, -3.996e-5
-1.260, -4.204e-5
-1.259, -4.175e-5
-1.258, -4.268e-5
-1.257, -4.461e-5
-1.256, -4.510e-5
-1.255, -4.459e-5
-1.254, -4.750e-5
-1.253, -4.766e-5
-1.252, -4.771e-5
-1.251, -4.905e-5
-1.250, -5.056e-5
-1.249, -5.017e-5
-1.248, -5.078e-5
-1.247, -5.252e-5
-1.246, -5.306e-5
-1.245, -5.261e-5
-1.244, -5.459e-5
-1.243, -5.483e-5
-1.242, -5.482e-5
-1.241, -5.598e-5
-1.240, -5.721e-5
-1.239, -5.673e-5
-1.238, -5.695e-5
-1.237, -5.914e-5
-1.236, -5.893e-5
-1.235, -5.845e-5
-1.234, -6.048e-5
-1.233, -6.108e-5
-1.232, -6.040e-5
-1.231, -6.139e-5
-1.230, -6.284e-5
-1.229, -6.296e-5
-1.228, -6.258e-5
-1.227, -6.443e-5
-1.226, -6.423e-5
-1.225, -6.369e-5
-1.224, -6.532e-5
-1.223, -6.566e-5
-1.222, -6.557e-5
-1.221, -6.573e-5
-1.220, -6.761e-5
-1.219, -6.686e-5
-1.218, -6.675e-5
-1.217, -6.856e-5
-1.216, -6.818e-5
-1.215, -6.801e-5
-1.214, -6.959e-5
-1.213, -6.941e-5
-1.212, -6.921e-5
-1.211, -7.006e-5
-1.210, -7.101e-5
-1.209, -7.037e-5
-1.208, -7.032e-5
-1.207, -7.212e-5
-1.206, -7.210e-5
-1.205, -7.130e-5
-1.204, -7.285e-5
-1.203, -7.335e-5
-1.202, -7.255e-5
-1.201, -7.338e-5
-1.200, -7.436e-5
-1.199, -7.372e-5
-1.198, -7.422e-5
-1.197, -7.510e-5
-1.196, -7.542e-5
-1.195, -7.464e-5
-1.194, -7.602e-5
-1.193, -7.658e-5
-1.192, -7.558e-5
-1.191, -7.661e-5
-1.190, -7.767e-5
-1.189, -7.679e-5
-1.188, -7.690e-5
-1.187, -7.853e-5
-1.186, -7.815e-5
-1.185, -7.789e-5
-1.184, -7.905e-5
-1.183, -7.916e-5
-1.182, -7.912e-5
-1.181, -7.939e-5
-1.180, -8.048e-5
-1.179, -8.009e-5
-1.178, -8.032e-5
-1.177, -8.188e-5
-1.176, -8.154e-5
-1.175, -8.107e-5
-1.174, -8.265e-5
-1.173, -8.277e-5
-1.172, -8.225e-5
-1.171, -8.304e-5
-1.170, -8.407e-5
-1.169, -8.383e-5
-1.168, -8.358e-5
-1.167, -8.496e-5
-1.166, -8.525e-5
-1.165, -8.469e-5
-1.164, -8.635e-5
-1.163, -8.647e-5
-1.162, -8.589e-5
-1.161, -8.707e-5
-1.160, -8.758e-5
-1.159, -8.710e-5
-1.158, -8.747e-5
-1.157, -8.897e-5
-1.156, -8.891e-5
-1.155, -8.862e-5
-1.154, -9.014e-5
-1.153, -9.082e-5
-1.152, -9.001e-5
-1.151, -9.097e-5
-1.150, -9.218e-5
-1.149, -9.164e-5
-1.148, -9.207e-5
-1.147, -9.346e-5
-1.146, -9.334e-5
-1.145, -9.323e-5
-1.144, -9.456e-5
-1.143, -9.543e-5
-1.142, -9.494e-5
-1.141, -9.559e-5
-1.140, -9.719e-5
-1.139, -9.670e-5
-1.138, -9.707e-5
-1.137, -9.881e-5
-1.136, -9.913e-5
-1.135, -9.864e-5
-1.134, -1.000e-4
-1.133, -1.010e-4
-1.132, -1.008e-4
-1.131, -1.017e-4
-1.130, -1.028e-4
-1.129, -1.029e-4
-1.128, -1.029e-4
-1.127, -1.047e-4
-1.126, -1.053e-4
-1.125, -1.049e-4
-1.124, -1.066e-4
-1.123, -1.072e-4
-1.122, -1.071e-4
-1.121, -1.083e-4
-1.120, -1.096e-4
-1.119, -1.095e-4
-1.118, -1.099e-4
-1.117, -1.116e-4
-1.116, -1.117e-4
-1.115, -1.121e-4
-1.114, -1.137e-4
-1.113, -1.149e-4
-1.112, -1.143e-4
-1.111, -1.155e-4
-1.110, -1.174e-4
-1.109, -1.167e-4
-1.108, -1.176e-4
-1.107, -1.194e-4
-1.106, -1.199e-4
-1.105, -1.199e-4
-1.104, -1.216e-4
-1.103, -1.229e-4
-1.102, -1.227e-4
-1.101, -1.235e-4
-1.100, -1.255e-4
-1.099, -1.256e-4
-1.098, -1.257e-4
-1.097, -1.278e-4
-1.096, -1.282e-4
-1.095, -1.280e-4
-1.094, -1.304e-4
-1.093, -1.311e-4
-1.092, -1.312e-4
-1.091, -1.323e-4
-1.090, -1.338e-4
-1.089, -1.344e-4
-1.088, -1.345e-4
-1.087, -1.367e-4
-1.086, -1.372e-4
-1.085, -1.370e-4
-1.084, -1.389e-4
-1.083, -1.399e-4
-1.082, -1.405e-4
-1.081, -1.415e-4
-1.080, -1.430e-4
-1.079, -1.432e-4
-1.078, -1.439e-4
-1.077, -1.457e-4
-1.076, -1.465e-4
-1.075, -1.467e-4
-1.074, -1.484e-4
-1.073, -1.495e-4
-1.072, -1.493e-4
-1.071, -1.506e-4
-1.070, -1.524e-4
-1.069, -1.522e-4
-1.068, -1.528e-4
-1.067, -1.548e-4
-1.066, -1.552e-4
-1.065, -1.560e-4
-1.064, -1.573e-4
-1.063, -1.584e-4
-1.062, -1.591e-4
-1.061, -1.595e-4
-1.060, -1.616e-4
-1.059, -1.617e-4
-1.058, -1.620e-4
-1.057, -1.642e-4
-1.056, -1.642e-4
-1.055, -1.649e-4
-1.054, -1.661e-4
-1.053, -1.675e-4
-1.052, -1.677e-4
-1.051, -1.687e-4
-1.050, -1.705e-4
-1.049, -1.706e-4
-1.048, -1.710e-4
-1.047, -1.729e-4
-1.046, -1.735e-4
-1.045, -1.732e-4
-1.044, -1.754e-4
-1.043, -1.762e-4
-1.042, -1.761e-4
-1.041, -1.776e-4
-1.040, -1.787e-4
-1.039, -1.792e-4
-1.038, -1.794e-4
-1.037, -1.815e-4
-1.036, -1.820e-4
-1.035, -1.819e-4
-1.034, -1.834e-4
-1.033, -1.848e-4
-1.032, -1.842e-4
-1.031, -1.852e-4
-1.030, -1.872e-4
-1.029, -1.866e-4
-1.028, -1.874e-4
-1.027, -1.892e-4
-1.026, -1.898e-4
-1.025, -1.897e-4
-1.024, -1.916e-4
-1.023, -1.925e-4
-1.022, -1.918e-4
-1.021, -1.928e-4
-1.020, -1.944e-4
-1.019, -1.938e-4
-1.018, -1.944e-4
-1.017, -1.955e-4
-1.016, -1.958e-4
-1.015, -1.953e-4
-1.014, -1.962e-4
-1.013, -1.973e-4
-1.012, -1.964e-4
-1.011, -1.972e-4
-1.010, -1.983e-4
-1.009, -1.981e-4
-1.008, -1.973e-4
-1.007, -1.986e-4
-1.006, -1.988e-4
-1.005, -1.974e-4
-1.004, -1.982e-4
-1.003, -1.990e-4
-1.002, -1.974e-4
-1.001, -1.979e-4
