Potential V vs RHE, Current mA cm-2
0.013299999999999867,0.405880671931279
0.012299999999999978,-0.0736498702709738
0.011299999999999866,-0.34476514377710943
0.010299999999999976,-0.5445223793180526
0.009299999999999864,-0.6766564147254471
0.008299999999999974,-0.7541825939580511
0.007299999999999862,-0.849675606698941
0.006299999999999972,-0.9661063466778336
0.00529999999999986,-1.0698046849579408
0.0042999999999999705,-1.1419549612510576
0.0032999999999998586,-1.1841133579870358
0.0022999999999999687,-1.248199779870922
0.0012999999999998568,-1.3412877834020411
0.00029999999999996696,-1.423199567664227
-0.000700000000000145,-1.472714463159503
-0.0017000000000000348,-1.5038381117565338
-0.0027000000000001467,-1.54769416205235
-0.0037000000000000366,-1.6240885722450622
-0.0047000000000001485,-1.7047271163373692
-0.005700000000000038,-1.7457537440334552
-0.00670000000000015,-1.769803836131161
-0.00770000000000004,-1.8009274847281918
-0.008700000000000152,-1.8773218949209036
-0.009700000000000042,-1.9523015938137507
-0.010700000000000154,-1.9876693763103765
-0.011700000000000044,-1.9989870667092968
-0.012700000000000156,-2.0315254266061924
-0.013700000000000045,-2.0966021463999844
-0.014700000000000157,-2.171581845292831
-0.015700000000000047,-2.197046648690402
-0.01670000000000016,-2.2126084729889177
-0.01770000000000005,-2.249390966785408
-0.01870000000000016,-2.3116382639794697
-0.01970000000000005,-2.3724708498736664
-0.020700000000000163,-2.4035944984706976
-0.021700000000000053,-2.4163269001694827
-0.022700000000000164,-2.4502799713662435
-0.023700000000000054,-2.50828313466071
-0.024700000000000166,-2.5719451431546365
-0.025700000000000056,-2.6087276369511274
-0.026700000000000168,-2.6143864821505876
-0.027700000000000058,-2.6440954194477535
-0.02870000000000017,-2.712001561841275
-0.02970000000000006,-2.775663570335202
-0.03070000000000017,-2.8039577963325026
-0.03170000000000006,-2.8039577963325026
-0.03270000000000017,-2.843569712728724
-0.03370000000000006,-2.9143052777219753
-0.034700000000000175,-2.965234884517117
-0.035700000000000065,-2.9921143992145525
-0.03670000000000018,-3.006261512213203
-0.03770000000000007,-3.0387998721100984
-0.03870000000000018,-3.0996324580042955
-0.03970000000000007,-3.1548061986990317
-0.04070000000000018,-3.1901739811956578
-0.04170000000000007,-3.204321094194308
-0.04270000000000018,-3.2269564749921487
-0.04370000000000007,-3.2934479060858055
-0.044700000000000184,-3.361354048479327
-0.045700000000000074,-3.3882335631767626
-0.046700000000000186,-3.3967218309759533
-0.047700000000000076,-3.4236013456733887
-0.04870000000000019,-3.4957516219665052
-0.04970000000000008,-3.562243053060162
-0.05070000000000019,-3.583463722558138
-0.05170000000000008,-3.591951990357328
-0.05270000000000019,-3.6329786180534143
-0.05370000000000008,-3.698055337847206
-0.05470000000000019,-3.7617173463411326
-0.05570000000000008,-3.7786938819395126
-0.056700000000000195,-3.7970851288377587
-0.057700000000000085,-3.8395264678337093
-0.058700000000000196,-3.8947002085284463
-0.059700000000000086,-3.958362217022373
-0.0607000000000002,-3.9965594221187284
-0.06170000000000009,-4.013535957717109
-0.0627000000000002,-4.04183018371441
-0.06370000000000009,-4.106906903508202
-0.0647000000000002,-4.1762277572015885
-0.06570000000000009,-4.20735140579862
-0.0667000000000002,-4.205936694498754
-0.0677000000000001,-4.24979274479457
-0.0687000000000002,-4.323357732387552
-0.0697000000000001,-4.387019740881478
-0.07070000000000021,-4.40965512167932
-0.0717000000000001,-4.422387523378105
-0.07270000000000021,-4.461999439774326
-0.0737000000000001,-4.532735004767577
-0.07470000000000021,-4.585079322862584
-0.0757000000000001,-4.624691239258805
-0.07670000000000021,-4.64308248615705
-0.0777000000000001,-4.677035557353811
-0.07870000000000021,-4.737868143248008
-0.0797000000000001,-4.804359574341665
-0.08070000000000022,-4.841142068138156
-0.0817000000000001,-4.856703892436671
-0.08270000000000022,-4.880753984534377
-0.08370000000000011,-4.961392528626684
-0.08470000000000022,-5.0292986710202054
-0.08570000000000011,-5.057592897017507
-0.08670000000000022,-5.060422319617237
-0.08770000000000011,-5.105693081212917
-0.08870000000000022,-5.183502202705494
-0.08970000000000011,-5.248578922499286
-0.09070000000000022,-5.266970169397532
-0.09170000000000011,-5.2910202614952375
-0.09270000000000023,-5.332046889191323
-0.09370000000000012,-5.39287947508552
-0.09470000000000023,-5.460785617479042
-0.09570000000000012,-5.5003975338752635
-0.09670000000000023,-5.517374069473643
-0.09770000000000012,-5.555571274569999
-0.09870000000000023,-5.609330303964871
-0.09970000000000012,-5.681480580257988
-0.10070000000000023,-5.7309954757532635
-0.10170000000000012,-5.733824898352994
-0.10270000000000024,-5.767777969549755
-0.10370000000000013,-5.851245936241792
-0.10470000000000024,-5.924810923834773
-0.10570000000000013,-5.948861015932479
-0.10670000000000024,-5.961593417631265
-0.10770000000000013,-6.012523024426406
-0.10870000000000024,-6.086088012019388
-0.10970000000000013,-6.142676464013989
-0.11070000000000024,-6.178044246510615
-0.11170000000000013,-6.20209433860832
-0.11270000000000002,-6.2431209663044065
-0.11370000000000013,-6.3081976860981985
-0.11470000000000002,-6.37044498329226
-0.11570000000000014,-6.421374590087401
-0.11670000000000003,-6.435521703086052
-0.11770000000000014,-6.463815929083352
-0.11870000000000003,-6.54445447317566
-0.11970000000000014,-6.619434172068506
-0.12070000000000003,-6.653387243265268
-0.12170000000000014,-6.664704933664188
-0.12270000000000003,-6.712805117859599
-0.12370000000000014,-6.7934436619519065
-0.12470000000000003,-6.857105670445833
-0.12570000000000014,-6.878326339943808
-0.12670000000000003,-6.913694122440434
-0.12770000000000015,-6.956135461436385
-0.12870000000000004,-7.031115160329232
-0.12970000000000015,-7.086288901023969
-0.13070000000000004,-7.131559662619649
-0.13170000000000015,-7.159853888616951
-0.13270000000000004,-7.199465805013171
-0.13370000000000015,-7.250395411808314
-0.13470000000000004,-7.33952222369981
-0.13570000000000015,-7.381963562695762
-0.13670000000000004,-7.396110675694412
-0.13770000000000016,-7.430063746891172
-0.13870000000000005,-7.5220199813824
-0.13970000000000016,-7.602658525474708
-0.14070000000000005,-7.630952751472008
-0.14170000000000016,-7.642270441870928
-0.14270000000000005,-7.703103027765124
-0.14370000000000016,-7.778082726657972
-0.14470000000000005,-7.837500601252304
-0.14570000000000016,-7.870038961149199
-0.14670000000000005,-7.90682145494569
-0.14770000000000016,-7.959165773040696
-0.14870000000000005,-8.03273076063368
-0.14970000000000017,-8.089319212628281
-0.15070000000000006,-8.140248819423421
-0.15170000000000017,-8.164298911521126
-0.15270000000000006,-8.206740250517077
-0.15370000000000017,-8.278890526810194
-0.15470000000000006,-8.362358493502233
-0.15570000000000017,-8.40904396639778
-0.15670000000000006,-8.417532234196969
-0.15770000000000017,-8.459973573192919
-0.15870000000000006,-8.560418075483337
-0.15970000000000018,-8.635397774376184
-0.16070000000000007,-8.66510671167335
-0.16170000000000018,-8.68774209247119
-0.16270000000000007,-8.747159967065523
-0.16370000000000018,-8.83628677895702
-0.16470000000000007,-8.901363498750811
-0.16570000000000018,-8.942390126446897
-0.16670000000000007,-8.982002042843117
-0.16770000000000018,-9.031516938338395
-0.16870000000000007,-9.102252503331647
-0.16970000000000018,-9.165914511825573
-0.17070000000000007,-9.228161809019635
-0.17170000000000019,-9.262114880216396
-0.17270000000000008,-9.307385641812077
-0.1737000000000002,-9.403586010202897
-0.17470000000000008,-9.494127533394261
-0.1757000000000002,-9.529495315890887
-0.17670000000000008,-9.545057140189403
-0.1777000000000002,-9.594572035684678
-0.17870000000000008,-9.699260671874692
-0.1797000000000002,-9.788387483766188
-0.18070000000000008,-9.820925843663083
-0.1817000000000002,-9.863367182659037
-0.18270000000000008,-9.931273325052558
-0.1837000000000002,-10.011911869144866
-0.1847000000000001,-10.076988588938656
-0.1857000000000002,-10.14772415393191
-0.1867000000000001,-10.185921359028264
-0.1877000000000002,-10.24392452232273
-0.1887000000000001,-10.317489509915713
-0.1897000000000002,-10.422178146105725
-0.1907000000000001,-10.483010731999922
-0.1917000000000001,-10.515549091896817
-0.19269999999999998,-10.556575719592905
-0.1937000000000001,-10.673996757481701
-0.19469999999999998,-10.773026548472256
-0.1957000000000001,-10.822541443967529
-0.19669999999999999,-10.845176824765371
-0.1977000000000001,-10.930059502757274
-0.1987,-11.041821695446613
-0.1997000000000001,-11.126704373438514
-0.2007,-11.162072155935139
-0.2017000000000001,-11.211587051430415
-0.2027,-11.299299152022046
-0.2037000000000001,-11.385596541313816
-0.2047,-11.477552775805044
-0.2057000000000001,-11.559606031197214
-0.2067,-11.617609194491681
-0.2077000000000001,-11.675612357786147
-0.2087,-11.784545127875756
-0.2097000000000001,-11.893477897965363
-0.2107,-11.961384040358885
-0.2117000000000001,-11.99392240025578
-0.2127,-12.083049212147277
-0.2137000000000001,-12.213202651734862
-0.2147,-12.32779426702393
-0.2157000000000001,-12.387212141618262
-0.2167,-12.435312325813673
-0.21770000000000012,-12.53292740550436
-0.2187,-12.643274886893833
-0.21970000000000012,-12.733816410085195
-0.2207,-12.822943221976692
-0.22170000000000012,-12.89792292086954
-0.2227,-12.991293866660634
-0.22370000000000012,-13.087494235051453
-0.2247,-13.192182871241465
-0.22570000000000012,-13.278480260533234
-0.2267,-13.350630536826351
-0.22770000000000012,-13.448245616517038
-0.22870000000000001,-13.567081365705702
-0.22970000000000013,-13.698649516593148
-0.23070000000000002,-13.780702771985322
-0.23170000000000013,-13.834461801380193
-0.23270000000000002,-13.943394571469803
-0.23370000000000013,-14.100427525754823
-0.23470000000000002,-14.203701450644967
-0.23570000000000013,-14.274437015638219
-0.23670000000000002,-14.373466806628771
-0.2376999999999999,-14.514937936615278
-0.23870000000000002,-14.65640906660178
-0.2396999999999999,-14.741291744593681
-0.24070000000000003,-14.854468648582884
-0.24169999999999991,-14.967645552572087
-0.24270000000000003,-15.06667534356264
-0.24369999999999992,-15.193999360550496
-0.24470000000000003,-15.363764716534297
-0.24569999999999992,-15.4769416205235
-0.24670000000000003,-15.561824298515406
-0.24769999999999992,-15.646706976507305
-0.24870000000000003,-15.816472332491113
-0.24969999999999992,-15.986237688474914
-0.25070000000000003,-16.085267479465468
-0.2516999999999999,-16.184297270456018
-0.25270000000000004,-16.339915513441174
-0.2536999999999999,-16.495533756426326
-0.25470000000000004,-16.637004886412832
-0.2556999999999999,-16.750181790402035
-0.25670000000000004,-16.891652920388537
-0.25769999999999993,-17.03312405037504
-0.25870000000000004,-17.188742293360193
-0.25969999999999993,-17.34436053634535
-0.26070000000000004,-17.514125892329155
-0.26169999999999993,-17.641449909317007
-0.26270000000000004,-17.76877392630486
-0.26369999999999993,-17.952686395287316
-0.26470000000000005,-18.15074597726842
-0.26569999999999994,-18.292217107254928
-0.26670000000000005,-18.391246898245473
-0.26769999999999994,-18.57515936722793
-0.26870000000000005,-18.78736606220769
-0.26969999999999994,-18.985425644188794
-0.27070000000000005,-19.112749661176647
-0.27169999999999994,-19.25422079116315
-0.27270000000000005,-19.452280373144255
-0.27369999999999994,-19.65033995512536
-0.27470000000000006,-19.820105311109163
-0.27569999999999995,-19.961576441095666
-0.27670000000000006,-20.14548891007812
-0.27769999999999995,-20.329401379060574
-0.27870000000000006,-20.52746096104168
-0.27969999999999995,-20.69722631702549
-0.28070000000000006,-20.90943301200524
-0.28169999999999995,-21.093345480987697
-0.28270000000000006,-21.2631108369715
-0.28369999999999995,-21.461170418952605
-0.28470000000000006,-21.701671339929664
-0.28569999999999995,-21.885583808912116
-0.28670000000000007,-22.04120205189727
-0.28769999999999996,-22.253408746877028
-0.28870000000000007,-22.493909667854084
-0.28969999999999996,-22.72026347583249
-0.29070000000000007,-22.87588171881764
-0.29169999999999996,-23.088088413797397
-0.29270000000000007,-23.314442221775803
-0.29369999999999996,-23.54079602975421
-0.2947000000000001,-23.738855611735314
-0.29569999999999996,-23.93691519371642
-0.2967000000000001,-24.134974775697525
-0.29769999999999996,-24.33303435767863
-0.2987000000000001,-24.488652600663784
-0.29969999999999997,-24.74330063463949
-0.3007000000000001,-24.927213103621945
-0.30169999999999997,-25.06868423360845
-0.3027000000000001,-25.238449589592253
-0.30369999999999997,-25.46480339757066
-0.3047000000000001,-25.705304318547718
-0.30569999999999997,-25.832628335535567
-0.3067000000000001,-25.91751101352747
-0.3077,-26.101423482509926
-0.3087000000000001,-26.29948306449103
-0.3097,-26.440954194477534
-0.3107000000000001,-26.55413109846674
-0.3117,-26.667308002455943
-0.3127000000000001,-26.794632019443796
-0.3137,-26.879514697435695
-0.3147000000000001,-26.992691601424898
-0.3157,-27.091721392415455
-0.3167000000000001,-27.190751183406004
-0.3177,-27.261486748399253
-0.3187000000000001,-27.31807520039386
-0.3197,-27.43125210438306
-0.3207000000000001,-27.501987669376312
-0.3217,-27.516134782374962
-0.3227000000000001,-27.516134782374962
-0.3237,-27.615164573365515
-0.3247000000000001,-27.685900138358768
-0.3257,-27.714194364356068
-0.3267000000000001,-27.685900138358768
-0.3277,-27.700047251357418
-0.3287000000000001,-27.813224155346617
-0.3297,-27.869812607341224
-0.3307000000000001,-27.827371268345274
-0.3317,-27.813224155346617
-0.3327000000000001,-27.883959720339874
-0.3337,-27.940548172334477
-0.3347000000000001,-27.940548172334477
-0.3357,-27.940548172334477
-0.3367000000000001,-27.954695285333123
-0.3377,-27.997136624329073
-0.3387000000000001,-28.011283737327723
-0.3397,-28.05372507632368
-0.3407000000000001,-28.082019302320973
-0.3417,-28.082019302320973
-0.3427000000000001,-28.09616641531963
-0.3437,-28.11031352831828
-0.3447000000000001,-28.166901980312883
-0.3457,-28.209343319308836
-0.3467000000000001,-28.22349043230748
-0.3477,-28.19519620631018
-0.3487000000000001,-28.265931771303435
-0.3497,-28.32252022329803
-0.3507000000000001,-28.265931771303435
-0.3517,-28.308373110299385
-0.3527000000000001,-28.393255788291288
-0.3537,-28.463991353284538
-0.3547000000000001,-28.49228557928184
-0.3557,-28.463991353284538
-0.35670000000000013,-28.463991353284538
-0.3577,-28.56302114427509
-0.35870000000000013,-28.633756709268344
-0.3597,-28.647903822266994
-0.36070000000000013,-28.704492274261593
-0.3617,-28.746933613257543
-0.3626999999999999,-28.775227839254843
-0.3637,-28.831816291249446
-0.3646999999999999,-28.93084608224
-0.3657,-28.987434534234602
-0.3666999999999999,-29.015728760231898
-0.3677,-29.029875873230555
-0.3686999999999999,-29.14305277721976
-0.36970000000000003,-29.25622968120896
-0.3706999999999999,-29.29867102020491
-0.37170000000000003,-29.29867102020491
-0.3726999999999999,-29.34111235920086
-0.37370000000000003,-29.482583489187363
-0.3746999999999999,-29.581613280177915
-0.37570000000000003,-29.581613280177915
-0.3766999999999999,-29.68064307116847
-0.37770000000000004,-29.779672862159025
-0.3786999999999999,-29.906996879146874
-0.37970000000000004,-30.00602667013743
-0.3806999999999999,-30.03432089613473
-0.38170000000000004,-30.10505646112798
-0.38269999999999993,-30.204086252118536
-0.38370000000000004,-30.274821817111786
-0.38469999999999993,-30.416292947098288
-0.38570000000000004,-30.51532273808884
-0.38669999999999993,-30.614352529079397
-0.38770000000000004,-30.670940981073993
-0.38869999999999993,-30.79826499806185
-0.38970000000000005,-30.939736128048356
-0.39069999999999994,-31.038765919038905
-0.39170000000000005,-31.109501484032155
-0.39269999999999994,-31.19438416202406
-0.39370000000000005,-31.37829663100651
-0.39469999999999994,-31.519767760993016
-0.39570000000000005,-31.590503325986273
-0.39669999999999994,-31.661238890979522
-0.39770000000000005,-31.816857133964678
-0.39869999999999994,-32.00076960294713
-0.39970000000000006,-32.14224073293363
-0.40069999999999995,-32.24127052392419
-0.40170000000000006,-32.354447427913385
-0.40269999999999995,-32.51006567089854
-0.40370000000000006,-32.62324257488775
-0.40469999999999995,-32.764713704874254
-0.40570000000000006,-32.93447906085806
-0.40669999999999995,-33.09009730384321
-0.40770000000000006,-33.245715546828364
-0.40869999999999995,-33.373039563816214
-0.40970000000000006,-33.55695203279867
-0.41069999999999995,-33.712570275783825
-0.41170000000000007,-33.85404140577033
-0.41269999999999996,-33.98136542275818
-0.41370000000000007,-34.15113077874198
-0.41469999999999996,-34.377484586720385
-0.41570000000000007,-34.53310282970554
-0.41669999999999996,-34.6604268466934
-0.41770000000000007,-34.8018979766799
-0.41869999999999996,-35.014104671659666
-0.4197000000000001,-35.240458479638065
-0.42069999999999996,-35.396076722623214
-0.4217000000000001,-35.50925362661242
-0.42269999999999996,-35.721460321592176
-0.4237000000000001,-35.96196124256923
-0.42469999999999997,-36.14587371155169
-0.4257000000000001,-36.25905061554089
-0.42669999999999997,-36.47125731052064
-0.4277000000000001,-36.7117582314977
-0.42869999999999997,-36.9381120394761
-0.4297000000000001,-37.093730282461266
-0.43069999999999997,-37.34837831643697
-0.4317000000000001,-37.54643789841808
-0.4327,-37.758644593397825
-0.4337000000000001,-37.92840994938163
-0.4347,-38.16891087035869
-0.4357000000000001,-38.42355890433439
-0.4367,-38.63576559931415
-0.4377000000000001,-38.805530955297954
-0.4387,-39.060178989273666
-0.4397000000000001,-39.34312124924667
-0.4407,-39.56947505722508
-0.4417000000000001,-39.75338752620753
-0.4427,-39.95144710818864
-0.4437000000000001,-40.24853648116029
-0.4447,-40.545625854131956
-0.4457000000000001,-40.77197966211036
-0.4467,-40.94174501809416
-0.4477000000000001,-41.182245939071215
-0.4487,-41.49348242504152
-0.4497000000000001,-41.77642468501453
-0.4507,-41.96033715399699
-0.4517000000000001,-42.186690961975394
-0.4527,-42.497927447945706
-0.4537000000000001,-42.79501682091736
-0.4547,-43.007223515897124
-0.4557000000000001,-43.23357732387552
-0.4567,-43.544813809845834
-0.4577000000000001,-43.84190318281749
-0.4587,-44.068256990795895
-0.4597000000000001,-44.3511992507689
-0.4607,-44.648288623740555
-0.4617000000000001,-44.93123088371356
-0.4627,-45.17173180469062
-0.4637000000000001,-45.45467406466363
-0.4647,-45.80835188962989
-0.4657000000000001,-46.119588375600195
-0.4667,-46.33179507057995
-0.4677000000000001,-46.60059021755431
-0.4687,-46.94012092952192
-0.4697000000000001,-47.27965164148953
-0.4707,-47.56259390146253
-0.4717000000000001,-47.76065348344364
-0.4727,-48.100184195411245
-0.4737000000000001,-48.48215624637481
-0.4747,-48.82168695834242
-0.4757000000000001,-49.03389365332217
-0.4767,-49.34513013929248
-0.4777000000000001,-49.72710219025603
-0.4787,-50.024191563227696
-0.4797000000000001,-50.2505453712061
-0.4807,-50.59007608317371
-0.48170000000000013,-50.92960679514132
-0.4827,-51.29743173310623
-0.48370000000000013,-51.580373993079235
-0.4847,-51.8774633660509
-0.48570000000000013,-52.17455273902255
-0.4867,-52.471642111994214
-0.4876999999999999,-52.69799591997262
-0.4887,-53.065820857937524
-0.4896999999999999,-53.532675586892985
-0.4907,-53.91464763785655
-0.4916999999999999,-54.24003123682551
-0.4927,-54.508826383799864
-0.4936999999999999,-55.032269564749924
-0.49470000000000003,-55.400094502714836
-0.4956999999999999,-55.626448310693235
-0.49670000000000003,-55.881096344668954
-0.4976999999999999,-56.31965684762711
-0.49870000000000003,-56.74407023758662
-0.4996999999999999,-57.05530672355693
-0.5007,-57.394837435524536
-0.5016999999999999,-57.8333979384827
-0.5027,-58.27195844144086
-0.5036999999999999,-58.61148915340847
-0.5047,-58.965166978374725
-0.5056999999999999,-59.34713902933829
-0.5067,-59.72911108030185
-0.5076999999999999,-60.04034756627216
