Potential V vs RHE, Current mA cm-2
0.013299999999999867,0.6725537519558386
0.012299999999999978,-0.23371030673770407
0.011299999999999866,-0.8097807480427469
0.010299999999999976,-1.204202258445119
0.009299999999999864,-1.502423400456669
0.008299999999999974,-1.7867803717295414
0.007299999999999862,-2.079625610801604
0.006299999999999972,-2.3328589334774454
0.00529999999999986,-2.512527268560305
0.0042999999999999705,-2.670974934145189
0.0032999999999998586,-2.8492285579281837
0.0022999999999999687,-3.041629294709829
0.0012999999999998568,-3.2212976297926885
0.00029999999999996696,-3.351451069380272
-0.000700000000000145,-3.4575544168701495
-0.0017000000000000348,-3.583463722558138
-0.0027000000000001467,-3.7320084090439667
-0.0037000000000000366,-3.8904560746288515
-0.0047000000000001485,-4.006462401217783
-0.005700000000000038,-4.082856811410497
-0.00670000000000015,-4.173398334601859
-0.00770000000000004,-4.299307640289847
-0.008700000000000152,-4.449267038075541
-0.009700000000000042,-4.559614519465013
-0.010700000000000154,-4.6091294149602895
-0.011700000000000044,-4.678450268653676
-0.012700000000000156,-4.818506687340315
-0.013700000000000045,-4.958563106026954
-0.014700000000000157,-5.037786938819395
-0.015700000000000047,-5.067495876116562
-0.01670000000000016,-5.153793265408329
-0.01770000000000005,-5.295264395394832
-0.01870000000000016,-5.414100144583495
-0.01970000000000005,-5.480591575677152
-0.020700000000000163,-5.515959358173778
-0.021700000000000053,-5.610745015264735
-0.022700000000000164,-5.747972011351644
-0.023700000000000054,-5.839928245842872
-0.024700000000000166,-5.899346120437204
-0.025700000000000056,-5.961593417631265
-0.026700000000000168,-6.049305518222896
-0.027700000000000058,-6.16814126741156
-0.02870000000000017,-6.262926924502518
-0.02970000000000006,-6.336491912095499
-0.03070000000000017,-6.408642188388616
-0.03170000000000006,-6.489280732480923
-0.03270000000000017,-6.591139946071206
-0.03370000000000006,-6.6958285822612185
-0.034700000000000175,-6.790614239352177
-0.035700000000000065,-6.848617402646643
-0.03670000000000018,-6.906620565941108
-0.03770000000000007,-7.011309202131122
-0.03870000000000018,-7.15702446601722
-0.03970000000000007,-7.2404924327092575
-0.04070000000000018,-7.270201370006423
-0.04170000000000007,-7.32820453330089
-0.04270000000000018,-7.466846240687664
-0.04370000000000007,-7.619635061073087
-0.044700000000000184,-7.697444182565665
-0.045700000000000074,-7.711591295564315
-0.046700000000000186,-7.7837415718574325
-0.047700000000000076,-7.936530392242855
-0.04870000000000019,-8.090733923928145
-0.04970000000000008,-8.147322375922746
-0.05070000000000019,-8.162884200221262
-0.05170000000000008,-8.26615812511141
-0.05270000000000019,-8.424605790696294
-0.05370000000000008,-8.547685673784551
-0.05470000000000019,-8.592956435380232
-0.05570000000000008,-8.63964190827578
-0.056700000000000195,-8.761307080064174
-0.057700000000000085,-8.888631097052025
-0.058700000000000196,-8.989075599342444
-0.059700000000000086,-9.09234952423259
-0.0607000000000002,-9.175817490924628
-0.06170000000000009,-9.27484728191518
-0.0627000000000002,-9.375291784205599
-0.06370000000000009,-9.487053976894938
-0.0647000000000002,-9.59174261308495
-0.06570000000000009,-9.683698847576176
-0.0667000000000002,-9.755849123869291
-0.0677000000000001,-9.863367182659037
-0.0687000000000002,-10.023229559543786
-0.0697000000000001,-10.134991752233123
-0.07070000000000021,-10.20431260592651
-0.0717000000000001,-10.242509811022865
-0.07270000000000021,-10.38398094100937
-0.0737000000000001,-10.563649276092228
-0.07470000000000021,-10.661264355782917
-0.0757000000000001,-10.681070313981028
-0.07670000000000021,-10.754635301574009
-0.0777000000000001,-10.922985946257949
-0.07870000000000021,-11.105483703940537
-0.0797000000000001,-11.169145712434466
-0.08070000000000022,-11.19036638193244
-0.0817000000000001,-11.290810884222859
-0.08270000000000022,-11.476138064505177
-0.08370000000000011,-11.59780323629357
-0.08470000000000022,-11.633171018790197
-0.08570000000000011,-11.699662449883853
-0.08670000000000022,-11.845377713769953
-0.08770000000000011,-11.986848843756457
-0.08870000000000022,-12.073146233048224
-0.08970000000000011,-12.162273044939722
-0.09070000000000022,-12.265546969829868
-0.09170000000000011,-12.394285698117587
-0.09270000000000023,-12.501803756907329
-0.09370000000000012,-12.588101146199097
-0.09470000000000023,-12.71259574058722
-0.09570000000000012,-12.846993314074398
-0.09670000000000023,-12.92621714686684
-0.09770000000000012,-13.015343958758336
-0.09870000000000023,-13.14549739834592
-0.09970000000000012,-13.303945063930804
-0.10070000000000023,-13.370436495024462
-0.10170000000000012,-13.391657164522437
-0.10270000000000024,-13.526054738009616
-0.10370000000000013,-13.70713778439234
-0.10470000000000024,-13.814655843182084
-0.10570000000000013,-13.82172939968141
-0.10670000000000024,-13.87548842907628
-0.10770000000000013,-14.082036278856576
-0.10870000000000024,-14.24614278964092
-0.10970000000000013,-14.288584128636872
-0.11070000000000024,-14.30273124163552
-0.11170000000000013,-14.430055258623375
-0.11270000000000002,-14.599820614607177
-0.11370000000000013,-14.71299751859638
-0.11470000000000002,-14.741291744593681
-0.11570000000000014,-14.826174422585586
-0.11670000000000003,-14.967645552572087
-0.11770000000000014,-15.10911668255859
-0.11870000000000003,-15.208146473549144
-0.11970000000000014,-15.264734925543747
-0.12070000000000003,-15.406206055530248
-0.12170000000000014,-15.519382959519453
-0.12270000000000003,-15.604265637511356
-0.12370000000000014,-15.689148315503255
-0.12470000000000003,-15.816472332491113
-0.12570000000000014,-15.972090575476265
-0.12670000000000003,-16.04282614046952
-0.12770000000000015,-16.11356170546277
-0.12870000000000004,-16.29747417444522
-0.12970000000000015,-16.410651078434423
-0.13070000000000004,-16.410651078434423
-0.13170000000000015,-16.410651078434423
-0.13270000000000004,-16.269179948447924
-0.13370000000000015,-16.453092417430376
-0.13470000000000004,-16.55212220842093
-0.13570000000000015,-16.55212220842093
-0.13670000000000004,-16.665299112410132
-0.13770000000000016,-16.835064468393938
-0.13870000000000005,-16.94824137238314
-0.13970000000000016,-16.94824137238314
-0.14070000000000005,-16.97653559838044
-0.14170000000000016,-17.118006728366943
-0.14270000000000005,-17.3302134233467
-0.14370000000000016,-17.45753744033455
-0.14470000000000005,-17.471684553333205
-0.14570000000000016,-17.599008570321057
-0.14670000000000005,-17.71218547431026
-0.14770000000000016,-17.853656604296763
-0.14870000000000005,-17.924392169290012
-0.14970000000000017,-18.009274847281915
-0.15070000000000006,-18.13659886426977
-0.15170000000000017,-18.263922881257624
-0.15270000000000006,-18.334658446250877
-0.15370000000000017,-18.40539401124413
-0.15470000000000006,-18.546865141230633
-0.15570000000000017,-18.645894932221182
-0.15670000000000006,-18.674189158218486
-0.15770000000000017,-18.688336271217132
-0.15870000000000006,-18.88639585319824
-0.15970000000000018,-19.027866983184744
-0.16070000000000007,-19.056161209182044
-0.16170000000000018,-19.042014096183394
-0.16270000000000007,-19.141043887173947
-0.16370000000000018,-19.296662130159103
-0.16470000000000007,-19.28251501716045
-0.16570000000000018,-19.141043887173947
-0.16670000000000007,-19.197632339168546
-0.16770000000000018,-19.395691921149652
-0.16870000000000007,-19.579604390132108
-0.16970000000000018,-19.636192842126707
-0.17070000000000007,-19.622045729128057
-0.17170000000000019,-19.805958198110513
-0.17270000000000008,-19.98987066709297
-0.1737000000000002,-20.03231200608892
-0.17470000000000008,-20.07475334508487
-0.1757000000000002,-20.187930249074075
-0.17670000000000008,-20.329401379060574
-0.1777000000000002,-20.42843117005113
-0.17870000000000008,-20.499166735044383
-0.1797000000000002,-20.654784978029536
-0.18070000000000008,-20.79625610801604
-0.1817000000000002,-20.85284456001064
-0.18270000000000008,-20.838697447011988
-0.1837000000000002,-21.008462802995794
-0.1847000000000001,-21.2065223849769
-0.1857000000000002,-21.2631108369715
-0.1867000000000001,-21.291405062968803
-0.1877000000000002,-21.447023305953955
-0.1887000000000001,-21.701671339929664
-0.1897000000000002,-21.814848243918867
-0.1907000000000001,-21.843142469916167
-0.1917000000000001,-21.94217226090672
-0.19269999999999998,-22.140231842887825
-0.1937000000000001,-22.324144311870278
-0.19469999999999998,-22.36658565086623
-0.1957000000000001,-22.38073276386488
-0.19669999999999999,-22.550498119848687
-0.1977000000000001,-22.72026347583249
-0.1987,-22.819293266823045
-0.1997000000000001,-22.861734605818995
-0.2007,-23.017352848804148
-0.2017000000000001,-23.2012653177866
-0.2027,-23.272000882779853
-0.2037000000000001,-23.314442221775803
-0.2047,-23.427619125765005
-0.2057000000000001,-23.653972933743415
-0.2067,-23.781296950731264
-0.2077000000000001,-23.823738289727217
-0.2087,-23.951062306715073
-0.2097000000000001,-24.149121888696175
-0.2107,-24.290593018682678
-0.2117000000000001,-24.34718147067728
-0.2127,-24.432064148669184
-0.2137000000000001,-24.65841795664759
-0.2147,-24.884771764625995
-0.2157000000000001,-24.969654442617898
-0.2167,-24.95550732961925
-0.21770000000000012,-24.74330063463949
-0.2187,-24.941360216620595
-0.21970000000000012,-25.153566911600354
-0.2207,-25.167714024599
-0.22170000000000012,-25.280890928588207
-0.2227,-25.563833188561212
-0.22370000000000012,-25.81848122253692
-0.2247,-25.931658126526123
-0.22570000000000012,-25.959952352523427
-0.2267,-26.101423482509926
-0.22770000000000012,-26.34192440348698
-0.22870000000000001,-26.469248420474838
-0.22970000000000013,-26.483395533473487
-0.23070000000000002,-26.63901377645864
-0.23170000000000013,-26.879514697435695
-0.23270000000000002,-27.1058685054141
-0.23370000000000013,-27.190751183406004
-0.23470000000000002,-27.275633861397907
-0.23570000000000013,-27.459546330380363
-0.23670000000000002,-27.700047251357418
-0.2376999999999999,-27.841518381343924
-0.23870000000000002,-27.98298951133043
-0.2396999999999999,-28.237637545306132
-0.24070000000000003,-28.49228557928184
-0.24169999999999991,-28.633756709268344
-0.24270000000000003,-28.746933613257543
-0.24369999999999992,-29.044022986229205
-0.24470000000000003,-29.34111235920086
-0.24569999999999992,-29.510877715184666
-0.24670000000000003,-29.581613280177915
-0.24769999999999992,-29.779672862159025
-0.24870000000000003,-30.189939139119886
-0.24969999999999992,-30.47288139909289
-0.25070000000000003,-30.571911190083444
-0.2516999999999999,-30.7558236590659
-0.25270000000000004,-31.08120725803486
-0.2536999999999999,-31.350002405009217
-0.25470000000000004,-31.46317930899841
-0.2556999999999999,-31.64709177798087
-0.25670000000000004,-31.94418115095253
-0.25769999999999993,-32.283711862920136
-0.25870000000000004,-32.45347721890394
-0.25969999999999993,-32.67983102688235
-0.26070000000000004,-32.96277328685535
-0.26169999999999993,-33.274009772825664
-0.26270000000000004,-33.50036358080407
-0.26369999999999993,-33.64183471079057
-0.26470000000000005,-34.00965964875548
-0.26569999999999994,-34.36333747372174
-0.26670000000000005,-34.5755441687015
-0.26769999999999994,-34.7453095246853
-0.26870000000000005,-35.15557580164616
-0.26969999999999994,-35.50925362661242
-0.27070000000000005,-35.721460321592176
-0.27169999999999994,-35.89122567757598
-0.27270000000000005,-36.230756389543586
-0.27369999999999994,-36.725905344496354
-0.27470000000000006,-36.99470049147071
-0.27569999999999995,-37.07958316946261
-0.27670000000000006,-37.39081965543292
-0.27769999999999995,-37.82938015839108
-0.27870000000000006,-38.22549932235329
-0.27969999999999995,-38.40941179133574
-0.28070000000000006,-38.6216184863155
-0.28169999999999995,-39.046031876275016
-0.28270000000000006,-39.44215104023723
-0.28369999999999995,-39.72509330021023
-0.28470000000000006,-39.96559422118728
-0.28569999999999995,-40.31927204615355
-0.28670000000000007,-40.729538323114404
-0.28769999999999996,-40.94174501809416
-0.28870000000000007,-41.196393052069865
-0.28969999999999996,-41.649100668026676
-0.29070000000000007,-42.05936694498754
-0.29169999999999996,-42.25742652696865
-0.29270000000000007,-42.526221673943
-0.29369999999999996,-42.96478217690117
-0.2947000000000001,-43.38919556686068
-0.29569999999999996,-43.60140226184043
-0.2967000000000001,-43.77116761782423
-0.29769999999999996,-44.181433894785094
-0.2987000000000001,-44.67658284973786
-0.29969999999999997,-44.97367222270952
-0.3007000000000001,-45.044407787702774
-0.30169999999999997,-45.31320293467712
-0.3027000000000001,-45.76591055063393
-0.30369999999999997,-46.162029714596144
-0.3047000000000001,-46.289353731584
-0.30569999999999997,-46.45911908756781
-0.3067000000000001,-46.84109113853137
-0.3077,-47.22306318949492
-0.3087000000000001,-47.40697565847737
-0.3097,-47.520152562466585
-0.3107000000000001,-47.81724193543825
-0.3117,-48.1992139864018
-0.3127000000000001,-48.38312645538425
-0.3137,-48.46800913337616
-0.3147000000000001,-48.69436294135456
-0.3157,-49.03389365332217
-0.3167000000000001,-49.18951189630732
-0.3177,-49.17536478330867
-0.3187000000000001,-49.387571478288436
-0.3197,-49.75539641625335
-0.3207000000000001,-49.9110146592385
-0.3217,-49.84027909424525
-0.3227000000000001,-49.89686754623985
-0.3237,-50.22225114520881
-0.3247000000000001,-50.46275206618586
-0.3257,-50.40616361419126
-0.3267000000000001,-50.3637222751953
-0.3277,-50.59007608317371
-0.3287000000000001,-50.87301834314672
-0.3297,-50.85887123014807
-0.3307000000000001,-50.73154721316022
-0.3317,-50.87301834314672
-0.3327000000000001,-51.127666377122424
-0.3337,-51.26913750710893
-0.3347000000000001,-51.17010771611838
-0.3357,-51.19840194211567
-0.3367000000000001,-51.410608637095436
-0.3377,-51.63696244507384
-0.3387000000000001,-51.52378554108463
-0.3397,-51.495491315087335
-0.3407000000000001,-51.69355089706845
-0.3417,-51.8774633660509
-0.3427000000000001,-51.83502202705494
-0.3437,-51.80672780105764
-0.3447000000000001,-51.962346044042796
-0.3457,-52.14625851302525
-0.3467000000000001,-52.1886998520212
-0.3477,-52.1038171740293
-0.3487000000000001,-52.17455273902255
-0.3497,-52.386759434002315
-0.3507000000000001,-52.514083450990164
-0.3517,-52.386759434002315
-0.3527000000000001,-52.49993633799151
-0.3537,-52.78287859796452
-0.3547000000000001,-52.938496840949675
-0.3557,-52.82531993696047
-0.35670000000000013,-52.853614162957776
-0.3577,-53.079967970936174
-0.35870000000000013,-53.19314487492538
-0.3597,-53.19314487492538
-0.36070000000000013,-53.12240930993213
-0.3617,-53.29217466591593
-0.3626999999999999,-53.532675586892985
-0.3637,-53.74488228187274
-0.3646999999999999,-53.68829382987814
-0.3657,-53.75902939487139
-0.3666999999999999,-53.9570889768525
-0.3677,-53.999530315848446
-0.3686999999999999,-54.05611876784305
-0.36970000000000003,-54.22588412382685
-0.3706999999999999,-54.39564947981066
-0.37170000000000003,-54.537120609797164
-0.3726999999999999,-54.466385044803914
-0.37370000000000003,-54.57956194879311
-0.3746999999999999,-54.890798434763425
-0.37570000000000003,-55.06056379074723
-0.3766999999999999,-54.975681112755325
-0.37770000000000004,-54.989828225753975
-0.3786999999999999,-55.28691759872564
-0.37970000000000004,-55.56985985869864
-0.3806999999999999,-55.555712745699985
-0.38170000000000004,-55.484977180706736
-0.38269999999999993,-55.7537723276811
-0.38370000000000004,-56.022567474655446
-0.38469999999999993,-56.164038604641945
-0.38570000000000004,-56.093303039648696
-0.38669999999999993,-55.11715224274183
-0.38570000000000004,-53.9005005248579
-0.38469999999999993,-52.86776127595642
-0.38370000000000004,-51.665256671071134
-0.38269999999999993,-50.68910587416426
-0.38170000000000004,-49.88272043324119
-0.3806999999999999,-49.090482105316774
-0.37970000000000004,-48.114331308409895
-0.3786999999999999,-47.22306318949492
-0.37770000000000004,-46.4025306355732
-0.3766999999999999,-45.624439420647434
-0.37570000000000003,-44.76146552772976
-0.3746999999999999,-43.82775606981884
-0.37370000000000003,-43.09210619388902
-0.3726999999999999,-42.42719188295245
-0.37170000000000003,-41.56421799003478
-0.3706999999999999,-40.701244097117105
-0.36970000000000003,-39.97974133418594
-0.3686999999999999,-39.39970970124127
-0.3677,-38.6216184863155
-0.3666999999999999,-37.702056141403226
-0.3657,-37.02299471746801
-0.3646999999999999,-36.41466885852605
-0.3637,-35.848784338580025
-0.3626999999999999,-35.11313446265021
-0.3617,-34.4057788127177
-0.36070000000000013,-33.825747179773025
-0.3597,-33.231568433829715
-0.35870000000000013,-32.49591855789989
-0.3577,-31.788562907967375
-0.35670000000000013,-31.23682550102001
-0.3557,-30.727529433068593
-0.3547000000000001,-30.10505646112798
-0.3537,-29.454289263190066
-0.3527000000000001,-28.88840474324405
-0.3517,-28.350814449295335
-0.3507000000000001,-27.78492992934932
-0.3497,-27.176604070407354
-0.3487000000000001,-26.69560222845324
-0.3477,-26.20045327350048
-0.3467000000000001,-25.648715866553115
-0.3457,-25.054537120609798
-0.3447000000000001,-24.587682391654337
-0.3437,-24.16326900169483
-0.3427000000000001,-23.639825820744765
-0.3417,-23.059794187800097
-0.3407000000000001,-22.522203893851387
-0.3397,-22.182673181883775
-0.3387000000000001,-21.800701130920213
-0.3377,-21.291405062968803
-0.3367000000000001,-20.69722631702549
-0.3357,-20.301107153063278
-0.3347000000000001,-19.961576441095666
-0.3337,-19.551310164134804
-0.3327000000000001,-19.027866983184744
-0.3317,-18.561012254229283
-0.3307000000000001,-18.23562865526032
-0.3297,-17.910245056291366
-0.3287000000000001,-17.45753744033455
-0.3277,-17.00482982437774
-0.3267000000000001,-16.622857773414182
-0.3257,-16.29747417444522
-0.3247000000000001,-15.91550212348166
-0.3237,-15.533530072518102
-0.3227000000000001,-15.193999360550496
-0.3217,-14.812027309586934
-0.3207000000000001,-14.472496597619326
-0.3197,-14.125892329152393
-0.3187000000000001,-13.803338152783162
-0.3177,-13.470880997314879
-0.3167000000000001,-13.10022663675024
-0.3157,-12.752207656983442
-0.3147000000000001,-12.494730200408004
-0.3137,-12.233008609932972
-0.3127000000000001,-11.893477897965363
-0.3117,-11.51009113570194
-0.3107000000000001,-11.211587051430415
-0.3097,-11.000795067750527
-0.3087000000000001,-10.751805878974281
-0.3077,-10.391054497508694
-0.3067000000000001,-10.065670898539736
-0.30569999999999997,-9.823755266262815
-0.3047000000000001,-9.610133859983193
-0.30369999999999997,-9.349826980808027
-0.3027000000000001,-9.028687515738664
-0.30169999999999997,-8.747159967065523
-0.3007000000000001,-8.530709138186172
-0.29969999999999997,-8.310014175407224
-0.2987000000000001,-8.058195564031248
-0.29769999999999996,-7.7978886848560816
-0.2967000000000001,-7.5418259395805105
-0.29569999999999996,-7.31688684290197
-0.2947000000000001,-7.113168415721404
-0.29369999999999996,-6.906620565941108
-0.29270000000000007,-6.6689490675637835
-0.29169999999999996,-6.410056899688482
-0.29070000000000007,-6.1907766482094
-0.28969999999999996,-6.012523024426406
-0.28870000000000007,-5.837098823243141
-0.28769999999999996,-5.614989149164331
-0.28670000000000007,-5.354682269989163
-0.28569999999999995,-5.153793265408329
-0.28470000000000006,-5.006663290222365
-0.28369999999999995,-4.842556779438021
-0.28270000000000006,-4.626105950558669
-0.28169999999999995,-4.382775606981883
-0.28070000000000006,-4.213010250998079
-0.27969999999999995,-4.084271522710361
-0.27870000000000006,-3.9286532797252063
-0.27769999999999995,-3.7122024508458558
-0.27670000000000006,-3.502825178465831
-0.27569999999999995,-3.3443775128809468
-0.27470000000000006,-3.228371186292014
-0.27369999999999994,-3.074167654606725
-0.27270000000000005,-2.8803522065252145
-0.27169999999999994,-2.6921956036431647
-0.27070000000000005,-2.543650917157336
-0.26969999999999994,-2.427644590568403
-0.26870000000000005,-2.2875881718817643
-0.26769999999999994,-2.1149933932982297
-0.26670000000000005,-1.92683679041618
