Potential V vs RHE, Current mA cm-2
0.013299999999999867,0.17231183632356148
0.012299999999999978,-0.9181476336124089
0.011299999999999866,-1.6594563547416883
0.010299999999999976,-2.3144676865791998
0.009299999999999864,-2.794054817233447
0.008299999999999974,-3.2297858975918787
0.007299999999999862,-3.623075638954359
0.006299999999999972,-3.971094618721158
0.00529999999999986,-4.276672259492005
0.0042999999999999705,-4.494537799671222
0.0032999999999998586,-4.756259390146253
0.0022999999999999687,-4.9302688800296535
0.0012999999999998568,-5.105693081212917
0.00029999999999996696,-5.279702571096316
-0.000700000000000145,-5.453712060979717
-0.0017000000000000348,-5.585280211867165
-0.0027000000000001467,-5.715433651454749
-0.0037000000000000366,-5.890857852638012
-0.0047000000000001485,-6.021011292225596
-0.005700000000000038,-6.196435493408861
-0.00670000000000015,-6.37044498329226
-0.00770000000000004,-6.54445447317566
-0.008700000000000152,-6.719878674358924
-0.009700000000000042,-6.893888164242324
-0.010700000000000154,-7.024041603829907
-0.011700000000000044,-7.199465805013171
-0.012700000000000156,-7.28576319430494
-0.013700000000000045,-7.4173313451923875
-0.014700000000000157,-7.5474847847799715
-0.015700000000000047,-7.635196885371603
-0.01670000000000016,-7.722908985963235
-0.01770000000000005,-7.896918475846635
-0.01870000000000016,-7.984630576438266
-0.01970000000000005,-8.158640066321666
-0.020700000000000163,-8.288793505909249
-0.021700000000000053,-8.464217707092514
-0.022700000000000164,-8.638227196975913
-0.023700000000000054,-8.769795347863363
-0.024700000000000166,-8.987660888042578
-0.025700000000000056,-9.11781432763016
-0.026700000000000168,-9.24938247851761
-0.027700000000000058,-9.379535918105192
-0.02870000000000017,-9.511104068992642
-0.02970000000000006,-9.641257508580225
-0.03070000000000017,-9.728969609171857
-0.03170000000000006,-9.85912304875944
-0.03270000000000017,-9.99069119964689
-0.03370000000000006,-10.164700689530287
-0.034700000000000175,-10.296268840417738
-0.035700000000000065,-10.470278330301136
-0.03670000000000018,-10.644287820184536
-0.03770000000000007,-10.819712021367803
-0.03870000000000018,-10.993721511251199
-0.03970000000000007,-11.211587051430415
-0.04070000000000018,-11.385596541313816
-0.04170000000000007,-11.517164692201263
-0.04270000000000018,-11.647318131788847
-0.04370000000000007,-11.778886282676295
-0.044700000000000184,-11.909039722263879
-0.045700000000000074,-12.084463923447142
-0.046700000000000186,-12.170761312738911
-0.047700000000000076,-12.346185513922174
-0.04870000000000019,-12.476338953509758
-0.04970000000000008,-12.651763154693022
-0.05070000000000019,-12.825772644576423
-0.05170000000000008,-12.99978213445982
-0.05270000000000019,-13.217647674639037
-0.05370000000000008,-13.3930718758223
-0.05470000000000019,-13.567081365705702
-0.05570000000000008,-13.741090855589102
-0.056700000000000195,-13.916515056772363
-0.057700000000000085,-14.046668496359947
-0.058700000000000196,-14.175407224647667
-0.059700000000000086,-14.30273124163552
-0.0607000000000002,-14.401761032626075
-0.06170000000000009,-14.529085049613924
-0.0627000000000002,-14.65640906660178
-0.06370000000000009,-14.783733083589633
-0.0647000000000002,-14.967645552572087
-0.06570000000000009,-15.094969569559943
-0.0667000000000002,-15.264734925543747
-0.0677000000000001,-15.448647394526201
-0.0687000000000002,-15.575971411514052
-0.0697000000000001,-15.74573676749786
-0.07070000000000021,-15.87306078448571
-0.0717000000000001,-16.056973253468165
-0.07270000000000021,-16.141855931460068
-0.0737000000000001,-16.22673860945197
-0.07470000000000021,-16.354062626439823
-0.0757000000000001,-16.438945304431726
-0.07670000000000021,-16.495533756426326
-0.0777000000000001,-16.622857773414182
-0.07870000000000021,-16.70774045140608
-0.0797000000000001,-16.792623129397985
-0.08070000000000022,-16.877505807389888
-0.0817000000000001,-17.018976937376394
-0.08270000000000022,-17.146300954364243
-0.08370000000000011,-17.231183632356142
-0.08470000000000022,-17.358507649344002
-0.08570000000000011,-17.4433903273359
-0.08670000000000022,-17.542420118326454
-0.08770000000000011,-17.542420118326454
-0.08870000000000022,-17.584861457322408
-0.08970000000000011,-17.627302796318357
-0.09070000000000022,-17.669744135314307
-0.09170000000000011,-17.669744135314307
-0.09270000000000023,-17.669744135314307
-0.09370000000000012,-17.71218547431026
-0.09470000000000023,-17.75462681330621
-0.09570000000000012,-17.797068152302163
-0.09670000000000023,-17.881950830294063
-0.09770000000000012,-17.924392169290012
-0.09870000000000023,-17.966833508285966
-0.09970000000000012,-18.06586329927652
-0.10070000000000023,-18.06586329927652
-0.10170000000000012,-18.10830463827247
-0.10270000000000024,-18.06586329927652
-0.10370000000000013,-18.009274847281915
-0.10470000000000024,-18.009274847281915
-0.10570000000000013,-17.966833508285966
-0.10670000000000024,-17.881950830294063
-0.10770000000000013,-17.881950830294063
-0.10870000000000024,-17.839509491298113
-0.10970000000000013,-17.797068152302163
-0.11070000000000024,-17.797068152302163
-0.11170000000000013,-17.797068152302163
-0.11270000000000002,-17.797068152302163
-0.11370000000000013,-17.797068152302163
-0.11470000000000002,-17.797068152302163
-0.11570000000000014,-17.75462681330621
-0.11670000000000003,-17.71218547431026
-0.11770000000000014,-17.669744135314307
-0.11870000000000003,-17.584861457322408
-0.11970000000000014,-17.48583166633185
-0.12070000000000003,-17.40094898833995
-0.12170000000000014,-17.316066310348052
-0.12270000000000003,-17.231183632356142
-0.12370000000000014,-17.146300954364243
-0.12470000000000003,-17.103859615368293
-0.12570000000000014,-17.061418276372343
-0.12670000000000003,-17.018976937376394
-0.12770000000000015,-16.962388485381787
-0.12870000000000004,-16.919947146385837
-0.12970000000000015,-16.919947146385837
-0.13070000000000004,-16.835064468393938
-0.13170000000000015,-16.792623129397985
-0.13270000000000004,-16.665299112410132
-0.13370000000000015,-16.580416434418233
-0.13470000000000004,-16.495533756426326
-0.13570000000000015,-16.354062626439823
-0.13670000000000004,-16.269179948447924
-0.13770000000000016,-16.184297270456018
-0.13870000000000005,-16.056973253468165
-0.13970000000000016,-16.014531914472215
-0.14070000000000005,-15.91550212348166
-0.14170000000000016,-15.87306078448571
-0.14270000000000005,-15.87306078448571
-0.14370000000000016,-15.78817810649381
-0.14470000000000005,-15.78817810649381
-0.14570000000000016,-15.70329542850191
-0.14670000000000005,-15.660854089505953
-0.14770000000000016,-15.575971411514052
-0.14870000000000005,-15.491088733522153
-0.14970000000000017,-15.3920589425316
-0.15070000000000006,-15.264734925543747
-0.15170000000000017,-15.094969569559943
-0.15270000000000006,-15.05252823056399
-0.15370000000000017,-14.967645552572087
-0.15470000000000006,-14.868615761581536
-0.15570000000000017,-14.826174422585586
-0.15670000000000006,-14.741291744593681
-0.15770000000000017,-14.741291744593681
-0.15870000000000006,-14.69885040559773
-0.15970000000000018,-14.61396772760583
-0.16070000000000007,-14.57152638860988
-0.16170000000000018,-14.529085049613924
-0.16270000000000007,-14.401761032626075
-0.16370000000000018,-14.345172580631472
-0.16470000000000007,-14.26028990263957
-0.16570000000000018,-14.175407224647667
-0.16670000000000007,-14.046668496359947
-0.16770000000000018,-14.002812446064135
-0.16870000000000007,-13.916515056772363
-0.16970000000000018,-13.872659006476551
-0.17070000000000007,-13.872659006476551
-0.17170000000000019,-13.828802956180734
-0.17270000000000008,-13.784946905884919
-0.1737000000000002,-13.741090855589102
-0.17470000000000008,-13.741090855589102
-0.1757000000000002,-13.654793466297335
-0.17670000000000008,-13.654793466297335
-0.1777000000000002,-13.523225315409885
-0.17870000000000008,-13.436927926118118
-0.1797000000000002,-13.349215825526485
-0.18070000000000008,-13.261503724934855
-0.1817000000000002,-13.175206335643086
-0.18270000000000008,-13.087494235051453
-0.1837000000000002,-13.043638184755638
-0.1847000000000001,-12.955926084164007
-0.1857000000000002,-12.955926084164007
-0.1867000000000001,-12.913484745168056
-0.1877000000000002,-12.913484745168056
-0.1887000000000001,-12.869628694872238
-0.1897000000000002,-12.869628694872238
-0.1907000000000001,-12.869628694872238
-0.1917000000000001,-12.825772644576423
-0.19269999999999998,-12.781916594280606
-0.1937000000000001,-12.694204493688973
-0.19469999999999998,-12.651763154693022
-0.1957000000000001,-12.607907104397206
-0.19669999999999999,-12.520195003805576
-0.1977000000000001,-12.476338953509758
-0.1987,-12.432482903213943
-0.1997000000000001,-12.390041564217992
-0.2007,-12.390041564217992
-0.2017000000000001,-12.346185513922174
-0.2027,-12.390041564217992
-0.2037000000000001,-12.346185513922174
-0.2047,-12.346185513922174
-0.2057000000000001,-12.346185513922174
-0.2067,-12.302329463626359
-0.2077000000000001,-12.214617363034726
-0.2087,-12.170761312738911
-0.2097000000000001,-12.12831997374296
-0.2107,-12.040607873151327
-0.2117000000000001,-11.996751822855511
-0.2127,-11.952895772559694
-0.2137000000000001,-11.909039722263879
-0.2147,-11.909039722263879
-0.2157000000000001,-11.909039722263879
-0.2167,-11.909039722263879
-0.21770000000000012,-11.909039722263879
-0.2187,-11.909039722263879
-0.21970000000000012,-11.909039722263879
-0.2207,-11.909039722263879
-0.22170000000000012,-11.909039722263879
-0.2227,-11.82274233297211
-0.22370000000000012,-11.778886282676295
-0.2247,-11.73503023238048
-0.22570000000000012,-11.73503023238048
-0.2267,-11.647318131788847
-0.22770000000000012,-11.604876792792895
-0.22870000000000001,-11.56102074249708
-0.22970000000000013,-11.56102074249708
-0.23070000000000002,-11.56102074249708
-0.23170000000000013,-11.604876792792895
-0.23270000000000002,-11.647318131788847
-0.23370000000000013,-11.604876792792895
-0.23470000000000002,-11.647318131788847
-0.23570000000000013,-11.604876792792895
-0.23670000000000002,-11.604876792792895
-0.2376999999999999,-11.56102074249708
-0.23870000000000002,-11.517164692201263
-0.2396999999999999,-11.473308641905447
-0.24070000000000003,-11.42945259160963
-0.24169999999999991,-11.385596541313816
-0.24270000000000003,-11.343155202317865
-0.24369999999999992,-11.343155202317865
-0.24470000000000003,-11.299299152022046
-0.24569999999999992,-11.343155202317865
-0.24670000000000003,-11.343155202317865
-0.24769999999999992,-11.385596541313816
-0.24870000000000003,-11.385596541313816
-0.24969999999999992,-11.42945259160963
-0.25070000000000003,-11.385596541313816
-0.2516999999999999,-11.42945259160963
-0.25270000000000004,-11.385596541313816
-0.2536999999999999,-11.385596541313816
-0.25470000000000004,-11.343155202317865
-0.2556999999999999,-11.299299152022046
-0.25670000000000004,-11.255443101726232
-0.25769999999999993,-11.255443101726232
-0.25870000000000004,-11.255443101726232
-0.25969999999999993,-11.255443101726232
-0.26070000000000004,-11.299299152022046
-0.26169999999999993,-11.299299152022046
-0.26270000000000004,-11.343155202317865
-0.26369999999999993,-11.343155202317865
-0.26470000000000005,-11.385596541313816
-0.26569999999999994,-11.385596541313816
-0.26670000000000005,-11.385596541313816
-0.26769999999999994,-11.343155202317865
-0.26870000000000005,-11.343155202317865
-0.26969999999999994,-11.299299152022046
-0.27070000000000005,-11.299299152022046
-0.27169999999999994,-11.255443101726232
-0.27270000000000005,-11.255443101726232
-0.27369999999999994,-11.255443101726232
-0.27470000000000006,-11.255443101726232
-0.27569999999999995,-11.299299152022046
-0.27670000000000006,-11.385596541313816
-0.27769999999999995,-11.42945259160963
-0.27870000000000006,-11.473308641905447
-0.27969999999999995,-11.517164692201263
-0.28070000000000006,-11.517164692201263
-0.28169999999999995,-11.604876792792895
-0.28270000000000006,-11.56102074249708
-0.28369999999999995,-11.56102074249708
-0.28470000000000006,-11.56102074249708
-0.28569999999999995,-11.56102074249708
-0.28670000000000007,-11.56102074249708
-0.28769999999999996,-11.517164692201263
-0.28870000000000007,-11.604876792792895
-0.28969999999999996,-11.604876792792895
-0.29070000000000007,-11.647318131788847
-0.29169999999999996,-11.73503023238048
-0.29270000000000007,-11.778886282676295
-0.29369999999999996,-11.86659838326793
-0.2947000000000001,-11.909039722263879
-0.29569999999999996,-11.952895772559694
-0.2967000000000001,-12.040607873151327
-0.29769999999999996,-12.040607873151327
-0.2987000000000001,-12.084463923447142
-0.29969999999999997,-12.12831997374296
-0.3007000000000001,-12.170761312738911
-0.30169999999999997,-12.170761312738911
-0.3027000000000001,-12.214617363034726
-0.30369999999999997,-12.302329463626359
-0.3047000000000001,-12.346185513922174
-0.30569999999999997,-12.476338953509758
-0.3067000000000001,-12.56405105410139
-0.3077,-12.694204493688973
-0.3087000000000001,-12.781916594280606
-0.3097,-12.913484745168056
-0.3107000000000001,-12.99978213445982
-0.3117,-13.13135028534727
-0.3127000000000001,-13.175206335643086
-0.3137,-13.261503724934855
-0.3147000000000001,-13.349215825526485
-0.3157,-13.436927926118118
-0.3167000000000001,-13.523225315409885
-0.3177,-13.654793466297335
-0.3187000000000001,-13.784946905884919
-0.3197,-13.916515056772363
-0.3207000000000001,-14.090524546655764
-0.3217,-14.26028990263957
-0.3227000000000001,-14.444202371622024
-0.3237,-14.65640906660178
-0.3247000000000001,-14.868615761581536
-0.3257,-15.05252823056399
-0.3267000000000001,-15.264734925543747
-0.3277,-15.448647394526201
-0.3287000000000001,-15.618412750510005
-0.3297,-15.78817810649381
-0.3307000000000001,-16.014531914472215
-0.3317,-16.22673860945197
-0.3327000000000001,-16.495533756426326
-0.3337,-16.750181790402035
-0.3347000000000001,-17.018976937376394
-0.3357,-17.316066310348052
-0.3367000000000001,-17.627302796318357
-0.3377,-17.966833508285966
-0.3387000000000001,-18.320511333252224
-0.3397,-18.674189158218486
-0.3407000000000001,-19.01371987018609
-0.3417,-19.409839034148305
-0.3427000000000001,-19.763516859114564
-0.3437,-20.10304757108217
-0.3447000000000001,-20.499166735044383
-0.3457,-20.93772723800254
-0.3467000000000001,-21.333846401964752
-0.3477,-21.814848243918867
-0.3487000000000001,-22.295850085872978
-0.3497,-22.861734605818995
-0.3507000000000001,-23.385177786769056
-0.3517,-23.993503645711023
-0.3527000000000001,-24.601829504652986
-0.3537,-25.252596702590903
-0.3547000000000001,-25.91751101352747
-0.3557,-26.65316088945729
-0.35670000000000013,-27.34636942639116
-0.3577,-28.05372507632368
-0.35870000000000013,-28.789374952253496
-0.3597,-29.581613280177915
-0.36070000000000013,-30.359704495103685
-0.3617,-31.19438416202406
-0.3626999999999999,-32.09979939393769
-0.3637,-33.01936173884996
-0.3646999999999999,-33.98136542275818
-0.3657,-34.98581044566235
-0.3666999999999999,-36.03269680756248
-0.3677,-37.122024508458566
-0.3686999999999999,-38.29623488734655
-0.36970000000000003,-39.47044526623452
-0.3706999999999999,-40.65880275812115
-0.37170000000000003,-41.91789581500104
-0.3726999999999999,-43.17698887188092
-0.37370000000000003,-44.4926703807554
-0.3746999999999999,-45.89323456762179
-0.37570000000000003,-47.27965164148953
-0.3766999999999999,-48.76509850634781
-0.37770000000000004,-50.2505453712061
-0.3786999999999999,-51.82087491405629
-0.37970000000000004,-53.476087134898386
-0.3806999999999999,-55.13129935574048
-0.38170000000000004,-56.88554136757313
-0.38269999999999993,-58.75296028339497
-0.38370000000000004,-60.63452631221547
-0.38469999999999993,-62.544386567033264
-0.38570000000000004,-64.55327661284163
-0.38669999999999993,-65.60016297474175
-0.38570000000000004,-65.3030736017701
-0.38469999999999993,-65.3030736017701
-0.38370000000000004,-65.38795627976201
-0.38269999999999993,-65.43039761875795
-0.38170000000000004,-65.43039761875795
-0.3806999999999999,-65.43039761875795
-0.37970000000000004,-65.38795627976201
-0.3786999999999999,-65.3030736017701
-0.37770000000000004,-65.16160247178358
-0.3766999999999999,-65.0767197937917
-0.37570000000000003,-64.90695443780788
-0.3746999999999999,-64.72304196882543
-0.37370000000000003,-64.55327661284163
-0.3726999999999999,-64.34106991786187
-0.37170000000000003,-64.11471610988345
-0.3706999999999999,-63.77518539791585
-0.36970000000000003,-63.46394891194555
-0.3686999999999999,-63.06782974798333
-0.3677,-62.72829903601572
-0.3666999999999999,-62.33217987205352
-0.3657,-61.936060708091304
-0.3646999999999999,-61.53994154412909
-0.3637,-61.11552815416958
-0.3626999999999999,-60.71940899020737
-0.3617,-60.23840714825326
-0.36070000000000013,-59.7998466452951
-0.3597,-59.31884480334099
-0.35870000000000013,-58.83784296138688
-0.3577,-58.35684111943277
-0.35670000000000013,-57.8333979384827
-0.3557,-57.22507207954074
-0.3547000000000001,-56.61674622059877
-0.3537,-56.008420361656796
-0.3527000000000001,-55.357653163718886
-0.3517,-54.69273885278232
-0.3507000000000001,-54.0419716548444
-0.3497,-53.39120445690648
-0.3487000000000001,-52.74043725896857
-0.3477,-52.033081609036046
-0.3467000000000001,-51.38231441109813
-0.3457,-50.68910587416426
-0.3447000000000001,-50.024191563227696
-0.3437,-49.28854168729788
-0.3427000000000001,-48.55289181136806
-0.3417,-47.8879775004315
-0.3407000000000001,-47.10988628550572
-0.3397,-46.37423640957591
-0.3387000000000001,-45.624439420647434
-0.3377,-44.80390686672572
-0.3367000000000001,-44.054109877797245
-0.3357,-43.31846000186743
-0.3347000000000001,-42.568663012938956
-0.3337,-41.87545447600508
-0.3327000000000001,-41.182245939071215
-0.3317,-40.4748902891387
-0.3307000000000001,-39.78168175220483
-0.3297,-39.08847321527096
-0.3287000000000001,-38.42355890433439
-0.3277,-37.687909028404576
-0.3267000000000001,-36.99470049147071
-0.3257,-36.28734484153819
-0.3247000000000001,-35.55169496560837
-0.3237,-34.85848642867451
-0.3227000000000001,-34.10868943974604
-0.3217,-33.373039563816214
-0.3207000000000001,-32.66568391388369
-0.3197,-31.930034037953877
-0.3187000000000001,-31.27926684001596
-0.3177,-30.571911190083444
-0.3167000000000001,-29.921143992145527
-0.3157,-29.27037679420761
-0.3147000000000001,-28.619609596269694
-0.3137,-28.011283737327723
-0.3127000000000001,-27.34636942639116
-0.3117,-26.69560222845324
-0.3107000000000001,-26.044835030515326
-0.3097,-25.39406783257741
-0.3087000000000001,-24.771594860636792
-0.3077,-24.120827662698876
-0.3067000000000001,-23.51250180375691
-0.30569999999999997,-22.861734605818995
-0.3047000000000001,-22.253408746877028
-0.30369999999999997,-21.67337711393236
-0.3027000000000001,-21.065051254990397
-0.30169999999999997,-20.499166735044383
-0.3007000000000001,-19.97572355409432
-0.29969999999999997,-19.452280373144255
-0.2987000000000001,-18.92883719219419
-0.29769999999999996,-18.40539401124413
-0.2967000000000001,-17.881950830294063
-0.29569999999999996,-17.316066310348052
-0.2947000000000001,-16.792623129397985
-0.29369999999999996,-16.269179948447924
-0.29270000000000007,-15.74573676749786
-0.29169999999999996,-15.179852247551842
-0.29070000000000007,-14.69885040559773
-0.28969999999999996,-14.217848563643619
-0.28870000000000007,-13.741090855589102
-0.28769999999999996,-13.261503724934855
-0.28670000000000007,-12.825772644576423
-0.28569999999999995,-12.432482903213943
-0.28470000000000006,-11.996751822855511
-0.28369999999999995,-11.56102074249708
-0.28270000000000006,-11.123874950838783
-0.28169999999999995,-10.731999920776168
-0.28070000000000006,-10.296268840417738
-0.27969999999999995,-9.85912304875944
-0.27870000000000006,-9.467248018696827
-0.27769999999999995,-9.031516938338395
-0.27670000000000006,-8.638227196975913
-0.27569999999999995,-8.246352166913299
-0.27470000000000006,-7.896918475846635
-0.27369999999999994,-7.50504344578402
-0.27270000000000005,-7.199465805013171
-0.27169999999999994,-6.893888164242324
-0.27070000000000005,-6.588310523471475
-0.26969999999999994,-6.282732882700628
-0.26870000000000005,-6.021011292225596
