Potential V vs RHE, Current mA cm-2
0.013299999999999867,-4.887827541033701
0.012299999999999978,-8.464217707092514
0.011299999999999866,-11.517164692201263
0.010299999999999976,-14.217848563643619
0.009299999999999864,-16.495533756426326
0.008299999999999974,-18.49027668923603
0.007299999999999862,-20.286960040064624
0.006299999999999972,-21.814848243918867
0.00529999999999986,-23.15882397879065
0.0042999999999999705,-24.389622809673234
0.0032999999999998586,-25.43650917157336
0.0022999999999999687,-26.483395533473487
0.0012999999999998568,-27.43125210438306
0.00029999999999996696,-28.22349043230748
-0.000700000000000145,-29.058170099227848
-0.0017000000000000348,-29.878702653149578
-0.0027000000000001467,-30.571911190083444
-0.0037000000000000366,-31.27926684001596
-0.0047000000000001485,-31.930034037953877
-0.005700000000000038,-32.53835989689585
-0.00670000000000015,-33.10424441684186
-0.00770000000000004,-33.54280491980002
-0.008700000000000152,-34.02380676175414
-0.009700000000000042,-34.41992592571634
-0.010700000000000154,-34.75945663768395
-0.011700000000000044,-35.11313446265021
-0.012700000000000156,-35.42437094862052
-0.013700000000000045,-35.763901660588125
-0.014700000000000157,-36.07513814655844
-0.015700000000000047,-36.4288159715247
-0.01670000000000016,-36.81078802248826
-0.01770000000000005,-37.164465847454515
-0.01870000000000016,-37.51814367242077
-0.01970000000000005,-37.90011572338433
-0.020700000000000163,-38.16891087035869
-0.021700000000000053,-38.42355890433439
-0.022700000000000164,-38.734795390304704
-0.023700000000000054,-38.94700208528445
-0.024700000000000166,-39.173355893262865
-0.025700000000000056,-39.34312124924667
-0.026700000000000168,-39.51288660523048
-0.027700000000000058,-39.739240413208876
-0.02870000000000017,-39.95144710818864
-0.02970000000000006,-40.177800916167044
-0.03070000000000017,-40.43244895014274
-0.03170000000000006,-40.701244097117105
-0.03270000000000017,-40.95589213109281
-0.03370000000000006,-41.22468727806717
-0.034700000000000175,-41.52177665103883
-0.035700000000000065,-41.74813045901723
-0.03670000000000018,-42.00277849299294
-0.03770000000000007,-42.186690961975394
-0.03870000000000018,-42.39889765695515
-0.03970000000000007,-42.526221673943
-0.04070000000000018,-42.71013414292546
-0.04170000000000007,-42.837458159913304
-0.04270000000000018,-43.007223515897124
-0.04370000000000007,-43.17698887188092
-0.044700000000000184,-43.31846000186743
-0.045700000000000074,-43.57310803584313
-0.046700000000000186,-43.84190318281749
-0.047700000000000076,-44.011668538801295
-0.04870000000000019,-44.28046368577565
-0.04970000000000008,-44.535111719751356
-0.05070000000000019,-44.74731841473111
-0.05170000000000008,-44.97367222270952
-0.05270000000000019,-45.10099623969737
-0.05370000000000008,-45.32735004767578
-0.05470000000000019,-45.45467406466363
-0.05570000000000008,-45.624439420647434
-0.056700000000000195,-45.79420477663124
-0.057700000000000085,-45.93567590661774
-0.058700000000000196,-46.10544126260155
-0.059700000000000086,-46.2327652795894
-0.0607000000000002,-46.501560426563756
-0.06170000000000009,-46.79864979953541
-0.0627000000000002,-47.067444946509774
-0.06370000000000009,-47.27965164148953
-0.0647000000000002,-47.633329466455784
-0.06570000000000009,-47.84553616143554
-0.0667000000000002,-48.071889969413945
-0.0677000000000001,-48.2840966643937
-0.0687000000000002,-48.45386202037751
-0.0697000000000001,-48.63777448935996
-0.07070000000000021,-48.80753984534376
-0.0717000000000001,-48.97730520132757
-0.07270000000000021,-49.16121767031002
-0.0737000000000001,-49.373424365289786
-0.07470000000000021,-49.557336834272235
-0.0757000000000001,-49.85442620724389
-0.07670000000000021,-50.12322135421825
-0.0777000000000001,-50.29298671020206
-0.07870000000000021,-50.60422319617236
-0.0797000000000001,-50.90131256914402
-0.08070000000000022,-51.17010771611838
-0.0817000000000001,-51.424755750094086
-0.08270000000000022,-51.594521106077885
-0.08370000000000011,-51.82087491405629
-0.08470000000000022,-51.990640270040096
-0.08570000000000011,-52.17455273902255
-0.08670000000000022,-52.34431809500636
-0.08770000000000011,-52.55652478998611
-0.08870000000000022,-52.78287859796452
-0.08970000000000011,-52.95264395394832
-0.09070000000000022,-53.26388043991864
-0.09170000000000011,-53.56096981289029
-0.09270000000000023,-53.82976495986464
-0.09370000000000012,-54.1268543328363
-0.09470000000000023,-54.43809081880661
-0.09570000000000012,-54.69273885278232
-0.09670000000000023,-54.961533999756675
-0.09770000000000012,-55.21618203373238
-0.09870000000000023,-55.442535841710786
-0.09970000000000012,-55.65474253669055
-0.10070000000000023,-55.838655005673
-0.10170000000000012,-56.05086170065276
-0.10270000000000024,-56.30550973462846
-0.10370000000000013,-56.489422203610914
-0.10470000000000024,-56.74407023758662
-0.10570000000000013,-57.05530672355693
-0.10670000000000024,-57.352396096528594
-0.10770000000000013,-57.66363258249889
-0.10870000000000024,-57.974869068469204
-0.10970000000000013,-58.31439978043681
-0.11070000000000024,-58.62563626640712
-0.11170000000000013,-58.880284300382826
-0.11270000000000002,-59.10663810836124
-0.11370000000000013,-59.403727481332886
-0.11470000000000002,-59.54519861131939
-0.11570000000000014,-59.7998466452951
-0.11670000000000003,-59.9696120012789
-0.11770000000000014,-60.19596580925731
-0.11870000000000003,-60.45061384323302
-0.11970000000000014,-60.63452631221547
-0.12070000000000003,-60.974057024183075
-0.12170000000000014,-61.327734849149344
-0.12270000000000003,-61.5965299961237
-0.12370000000000014,-61.936060708091304
-0.12470000000000003,-62.28973853305756
-0.12570000000000014,-62.58682790602922
-0.12670000000000003,-62.855623053003576
-0.12770000000000015,-63.15271242597524
-0.12870000000000004,-63.421507572949594
-0.12970000000000015,-63.633714267929356
-0.13070000000000004,-63.860068075907755
-0.13170000000000015,-64.11471610988345
-0.13270000000000004,-64.34106991786187
-0.13370000000000015,-64.59571795183757
-0.13470000000000004,-64.82207175981598
-0.13570000000000015,-65.16160247178358
-0.13670000000000004,-65.51528029674984
-0.13770000000000016,-65.86895812171612
-0.13870000000000005,-66.20848883368372
-0.13970000000000016,-66.64704933664189
-0.14070000000000005,-66.91584448361623
-0.14170000000000016,-67.2978165345798
-0.14270000000000005,-67.6090530205501
-0.14370000000000016,-67.86370105452582
-0.14470000000000005,-68.17493754049613
-0.14570000000000016,-68.38714423547587
-0.14670000000000005,-68.65593938245023
-0.14770000000000016,-68.91058741642594
-0.14870000000000005,-69.1793825634003
-0.14970000000000017,-69.39158925838004
-0.15070000000000006,-69.78770842234226
-0.15170000000000017,-70.14138624730852
-0.15270000000000006,-70.53750541127073
-0.15370000000000017,-70.87703612323833
-0.15470000000000006,-71.31559662619651
-0.15570000000000017,-71.66927445116276
-0.15670000000000006,-72.05124650212633
-0.15770000000000017,-72.40492432709259
-0.15870000000000006,-72.75860215205884
-0.15970000000000018,-73.0556915250305
-0.16070000000000007,-73.32448667200485
-0.16170000000000018,-73.6781644969711
-0.16270000000000007,-73.97525386994278
-0.16370000000000018,-74.32893169490903
-0.16470000000000007,-74.72505085887124
-0.16570000000000018,-75.1070229098348
-0.16670000000000007,-75.50314207379701
-0.16770000000000018,-75.94170257675518
-0.16870000000000007,-76.33782174071737
-0.16970000000000018,-76.7622351306769
-0.17070000000000007,-77.1583542946391
-0.17170000000000019,-77.59691479759726
-0.17270000000000008,-77.95059262256353
-0.1737000000000002,-78.29012333453113
-0.17470000000000008,-78.60135982050144
-0.1757000000000002,-78.91259630647174
-0.17670000000000008,-79.25212701843935
-0.1777000000000002,-79.56336350440966
-0.17870000000000008,-79.90289421637728
-0.1797000000000002,-80.21413070234757
-0.18070000000000008,-80.69513254430169
-0.1817000000000002,-81.13369304725985
-0.18270000000000008,-81.51566509822342
-0.1837000000000002,-81.95422560118158
-0.1847000000000001,-82.43522744313569
-0.1857000000000002,-82.87378794609386
-0.1867000000000001,-83.26990711005605
-0.1877000000000002,-83.66602627401826
-0.1887000000000001,-84.04799832498183
-0.1897000000000002,-84.40167614994809
-0.1907000000000001,-84.7129126359184
-0.1917000000000001,-85.052443347886
-0.19269999999999998,-85.36367983385631
-0.1937000000000001,-85.84468167581042
-0.19469999999999998,-86.14177104878208
-0.1957000000000001,-86.6227728907362
-0.19669999999999999,-87.06133339369435
-0.1977000000000001,-87.49989389665252
-0.1987,-87.89601306061473
-0.1997000000000001,-88.4194562415648
-0.2007,-88.80142829252836
-0.2017000000000001,-89.19754745649055
-0.2027,-89.63610795944872
-0.2037000000000001,-90.03222712341093
-0.2047,-90.37175783537855
-0.2057000000000001,-90.68299432134886
-0.2067,-91.07911348531105
-0.2077000000000001,-91.37620285828272
-0.2087,-91.81476336124088
-0.2097000000000001,-92.16844118620713
-0.2107,-92.6070016891653
-0.2117000000000001,-93.13044487011537
-0.2127,-93.51241692107894
-0.2137000000000001,-93.99341876303303
-0.2147,-94.55930328297906
-0.2157000000000001,-95.04030512493317
-0.2167,-95.47886562789132
-0.21770000000000012,-95.87498479185354
-0.2187,-96.27110395581576
-0.21970000000000012,-96.65307600677932
-0.2207,-97.00675383174556
-0.22170000000000012,-97.40287299570777
-0.2227,-97.74240370767538
-0.22370000000000012,-98.13852287163759
-0.2247,-98.5346420355998
-0.22570000000000012,-99.05808521654988
-0.2267,-99.58152839749994
-0.22770000000000012,-100.06253023945405
-0.22870000000000001,-100.58597342040412
-0.22970000000000013,-101.10941660135417
-0.23070000000000002,-101.59041844330828
-0.23170000000000013,-102.02897894626645
-0.23270000000000002,-102.5524221272165
-0.23370000000000013,-102.97683551717601
-0.23470000000000002,-103.41539602013418
-0.23570000000000013,-103.85395652309235
-0.23670000000000002,-104.2925170260505
-0.2376999999999999,-104.68863619001272
-0.23870000000000002,-105.16963803196683
-0.2396999999999999,-105.59405142192634
-0.24070000000000003,-106.11749460287639
-0.24169999999999991,-106.68337912282242
-0.24270000000000003,-107.16438096477653
-0.24369999999999992,-107.68782414572658
-0.24470000000000003,-108.3102971176672
-0.24569999999999992,-108.77715184662266
-0.24670000000000003,-109.30059502757274
-0.24769999999999992,-109.78159686952685
-0.24870000000000003,-110.26259871148096
-0.24969999999999992,-110.70115921443913
-0.25070000000000003,-111.13971971739728
-0.2516999999999999,-111.57828022035544
-0.25270000000000004,-112.01684072331359
-0.2536999999999999,-112.48369545226906
-0.25470000000000004,-112.96469729422319
-0.2556999999999999,-113.48814047517324
-0.25670000000000004,-114.05402499511925
-0.25769999999999993,-114.57746817606933
-0.25870000000000004,-115.10091135701937
-0.25969999999999993,-115.76582566795594
-0.26070000000000004,-116.28926884890602
-0.26169999999999993,-116.81271202985609
-0.26270000000000004,-117.33615521080614
-0.26369999999999993,-117.81715705276027
-0.26470000000000005,-118.3406002337103
-0.26569999999999994,-118.76501362366983
-0.26670000000000005,-119.24601546562396
-0.26769999999999994,-119.72701730757805
-0.26870000000000005,-120.20801914953216
-0.26969999999999994,-120.68902099148629
-0.27070000000000005,-121.2549055114323
-0.27169999999999994,-121.77834869238235
-0.27270000000000005,-122.42911589032028
-0.27369999999999994,-122.95255907127036
-0.27470000000000006,-123.57503204321095
-0.27569999999999995,-124.14091656315696
-0.27670000000000006,-124.66435974410705
-0.27769999999999995,-125.23024426405304
-0.27870000000000006,-125.79612878399907
-0.27969999999999995,-126.27713062595316
-0.28070000000000006,-126.71569112891132
-0.28169999999999995,-127.19669297086547
-0.28270000000000006,-127.66354769982091
-0.28369999999999995,-128.144549541775
-0.28470000000000006,-128.5831100447332
-0.28569999999999995,-129.1489945646792
-0.28670000000000007,-129.7148790846252
-0.28769999999999996,-130.23832226557528
-0.28870000000000007,-130.8042067855213
-0.28969999999999996,-131.4266797574619
-0.29070000000000007,-131.95012293841197
-0.29169999999999996,-132.516007458358
-0.29270000000000007,-133.08189197830401
-0.29369999999999996,-133.5628938202581
-0.2947000000000001,-134.04389566221224
-0.29569999999999996,-134.5107503911677
-0.2967000000000001,-135.03419357211774
-0.29769999999999996,-135.5576367530678
-0.2987000000000001,-136.08107993401788
-0.29969999999999997,-136.60452311496792
-0.3007000000000001,-137.1845547479126
-0.30169999999999997,-137.79288060685457
-0.3027000000000001,-138.40120646579655
-0.30369999999999997,-139.05197366373446
-0.3047000000000001,-139.70274086167237
-0.30569999999999997,-140.325213833613
-0.3067000000000001,-140.89109835355902
-0.3077,-141.47112998650366
-0.3087000000000001,-142.03701450644968
-0.3097,-142.6028990263957
-0.3107000000000001,-143.16878354634173
-0.3117,-143.73466806628772
-0.3127000000000001,-144.30055258623375
-0.3137,-144.86643710617977
-0.3147000000000001,-145.43232162612577
-0.3157,-146.1396772760583
-0.3167000000000001,-146.7055617960043
-0.3177,-147.4129174459368
-0.3187000000000001,-148.12027309586935
-0.3197,-148.82762874580186
-0.3207000000000001,-149.53498439573437
-0.3217,-150.1008689156804
-0.3227000000000001,-150.8082245656129
-0.3237,-151.37410908555893
-0.3247000000000001,-151.93999360550492
-0.3257,-152.50587812545095
-0.3267000000000001,-153.07176264539694
-0.3277,-153.63764716534297
-0.3287000000000001,-154.203531685289
-0.3297,-154.9108873352215
-0.3307000000000001,-155.47677185516753
-0.3317,-156.32559863508658
-0.3327000000000001,-157.03295428501906
-0.3337,-157.7403099349516
-0.3347000000000001,-158.5891367148706
-0.3357,-159.29649236480313
-0.3367000000000001,-160.00384801473567
-0.3377,-160.71120366466818
-0.3387000000000001,-161.5600304445872
-0.3397,-162.12591496453322
-0.3407000000000001,-162.8332706144657
-0.3417,-163.54062626439824
-0.3427000000000001,-164.24798191433075
-0.3437,-164.9553375642633
-0.3447000000000001,-165.8041643441823
-0.3457,-166.51151999411482
-0.3467000000000001,-167.36034677403384
-0.3477,-168.20917355395284
-0.3487000000000001,-169.0580003338719
-0.3497,-170.0482982437774
-0.3507000000000001,-170.89712502369645
-0.3517,-171.74595180361547
-0.3527000000000001,-172.59477858353446
-0.3537,-173.44360536345349
-0.3547000000000001,-174.150961013386
-0.3557,-174.99978779330505
-0.35670000000000013,-175.70714344323756
-0.3577,-176.4144990931701
-0.35870000000000013,-177.2633258730891
-0.3597,-178.1121526530081
-0.36070000000000013,-178.96097943292713
-0.3617,-179.95127734283267
-0.3626999999999999,-180.8001041227517
-0.3637,-181.79040203265723
-0.3646999999999999,-182.78069994256273
-0.3657,-183.77099785246824
-0.3666999999999999,-184.6198246323873
-0.3677,-185.6101225422928
-0.3686999999999999,-186.60042045219836
-0.36970000000000003,-187.44924723211736
-0.3706999999999999,-188.4395451420229
-0.37170000000000003,-189.42984305192843
-0.3726999999999999,-190.27866983184742
-0.37370000000000003,-191.268967741753
-0.3746999999999999,-192.2592656516585
-0.37570000000000003,-193.3910346915505
-0.3766999999999999,-194.52280373144254
-0.37770000000000004,-195.51310164134807
-0.3786999999999999,-196.6448706812401
-0.37970000000000004,-197.77663972113214
-0.3806999999999999,-198.90840876102413
-0.38170000000000004,-200.04017780091618
-0.38269999999999993,-201.17194684080823
-0.38370000000000004,-202.30371588070025
-0.38469999999999993,-203.29401379060576
-0.38570000000000004,-204.42578283049778
-0.38669999999999993,-202.58665814067325
-0.38570000000000004,-196.3619284212671
-0.38469999999999993,-190.98602548177996
-0.38370000000000004,-186.31747819222534
-0.38269999999999993,-181.93187316264374
-0.38170000000000004,-177.9706815230216
-0.3806999999999999,-174.2924321433725
-0.37970000000000004,-170.75565389370993
-0.3786999999999999,-167.50181790402033
-0.37770000000000004,-164.24798191433075
-0.3766999999999999,-161.2770881846142
-0.37570000000000003,-158.3061944548976
-0.3746999999999999,-155.33530072518104
-0.37370000000000003,-152.50587812545095
-0.3726999999999999,-149.6764555257209
-0.37170000000000003,-146.8470329259908
-0.3706999999999999,-144.30055258623375
-0.36970000000000003,-141.47112998650366
-0.3686999999999999,-139.0095323247385
-0.3677,-136.60452311496792
-0.3666999999999999,-134.17121967920008
-0.3657,-131.89353448641737
-0.3646999999999999,-129.5451137286414
-0.3637,-127.36645832684925
-0.3626999999999999,-125.18780292505707
-0.3617,-122.95255907127036
-0.36070000000000013,-120.73146233048222
-0.3597,-118.59524826768603
-0.35870000000000013,-116.41659286589388
-0.3577,-114.28037880309766
-0.35670000000000013,-112.22904741829338
-0.3557,-110.05039201650122
-0.3547000000000001,-108.04150197069285
-0.3537,-106.0326119248845
-0.3527000000000001,-104.06616321807209
-0.3517,-102.24118564124619
-0.3507000000000001,-100.31717827342976
-0.3497,-98.5346420355998
-0.3487000000000001,-96.73795868477121
-0.3477,-94.95542244694126
-0.3467000000000001,-93.21532754810727
-0.3457,-91.46108553627462
-0.3447000000000001,-89.72099063744062
-0.3437,-87.93845439961068
-0.3427000000000001,-86.14177104878208
-0.3417,-84.40167614994809
-0.3407000000000001,-82.6615812511141
-0.3397,-80.99222191727335
-0.3387000000000001,-79.33700969643127
-0.3377,-77.76668015358106
-0.3367000000000001,-76.15390927173492
-0.3357,-74.62602106788069
-0.3347000000000001,-73.09813286402644
-0.3337,-71.6268331121668
-0.3327000000000001,-70.14138624730852
-0.3317,-68.65593938245023
-0.3307000000000001,-67.17049251759194
-0.3297,-65.68504565273366
-0.3287000000000001,-64.19959878787537
-0.3277,-62.72829903601572
-0.3267000000000001,-61.28529351015339
-0.3257,-59.842287984291055
-0.3247000000000001,-58.39928245842871
-0.3237,-57.012865384560975
-0.3227000000000001,-55.73962521468245
-0.3217,-54.43809081880661
-0.3207000000000001,-53.16485064892808
-0.3197,-51.90575759204819
-0.3187000000000001,-50.73154721316022
-0.3177,-49.458307043281685
-0.3167000000000001,-48.24165532539775
-0.3157,-47.02500360751382
-0.3147000000000001,-45.85079322862584
-0.3137,-44.535111719751356
-0.3127000000000001,-43.31846000186743
-0.3117,-42.087661170984845
-0.3107000000000001,-40.87100945310091
-0.3097,-39.739240413208876
-0.3087000000000001,-38.522588695324956
-0.3077,-37.47570233342482
-0.3067000000000001,-36.4288159715247
-0.30569999999999997,-35.38192960962457
-0.3047000000000001,-34.278454795729836
-0.30369999999999997,-33.330598224820264
-0.3027000000000001,-32.283711862920136
-0.30169999999999997,-31.23682550102001
-0.3007000000000001,-30.232380478115836
-0.29969999999999997,-29.14305277721976
-0.2987000000000001,-28.13860775431558
-0.29769999999999996,-27.049280053419505
-0.2967000000000001,-26.002393691519377
-0.29569999999999996,-24.997948668615198
-0.2947000000000001,-23.951062306715073
-0.29369999999999996,-22.989058622806844
-0.29270000000000007,-22.111937616890522
-0.29169999999999996,-21.2065223849769
-0.29070000000000007,-20.329401379060574
-0.28969999999999996,-19.452280373144255
-0.28870000000000007,-18.631747819222536
-0.28769999999999996,-17.75462681330621
-0.28670000000000007,-16.962388485381787
-0.28569999999999995,-16.141855931460068
-0.28470000000000006,-15.222293586547794
-0.28369999999999995,-14.30273124163552
-0.28270000000000006,-13.47936926511407
-0.28169999999999995,-12.56405105410139
-0.28070000000000006,-11.691174182084664
-0.27969999999999995,-10.863568071663616
-0.27870000000000006,-10.034547249942705
-0.27769999999999995,-9.293238528813426
-0.27670000000000006,-8.594371146680096
-0.27569999999999995,-7.853062425550818
-0.27470000000000006,-7.199465805013171
-0.27369999999999994,-6.500598422879844
-0.27270000000000005,-5.80314575204638
-0.27169999999999994,-5.105693081212917
-0.27070000000000005,-4.364384360083638
-0.26969999999999994,-3.6655169779503103
-0.26870000000000005,-2.8803522065252145
-0.26769999999999994,-2.1390434853959355
-0.26670000000000005,-1.3543031273607997
