Potential V vs RHE, Current mA cm-2
0.013299999999999867,-4.712403339850438
0.012299999999999978,-7.635196885371603
0.011299999999999866,-9.85912304875944
0.010299999999999976,-11.647318131788847
0.009299999999999864,-13.087494235051453
0.008299999999999974,-14.090524546655764
0.007299999999999862,-14.826174422585586
0.006299999999999972,-15.448647394526201
0.00529999999999986,-16.014531914472215
0.0042999999999999705,-16.622857773414182
0.0032999999999998586,-17.231183632356142
0.0022999999999999687,-17.669744135314307
0.0012999999999998568,-17.924392169290012
0.00029999999999996696,-18.10830463827247
-0.000700000000000145,-18.320511333252224
-0.0017000000000000348,-18.631747819222536
-0.0027000000000001467,-18.97127853119014
-0.0037000000000000366,-19.3249563561564
-0.0047000000000001485,-19.537163051136158
-0.005700000000000038,-19.636192842126707
-0.00670000000000015,-19.678634181122664
-0.00770000000000004,-19.805958198110513
-0.008700000000000152,-20.06060623208622
-0.009700000000000042,-20.371842718056527
-0.010700000000000154,-20.584049413036283
-0.011700000000000044,-20.76796188201874
-0.012700000000000156,-20.76796188201874
-0.013700000000000045,-20.76796188201874
-0.014700000000000157,-20.89528589900659
-0.015700000000000047,-21.065051254990397
-0.01670000000000016,-21.376287740960702
-0.01770000000000005,-21.54605309694451
-0.01870000000000016,-21.58849443594046
-0.01970000000000005,-21.58849443594046
-0.020700000000000163,-21.63093577493641
-0.021700000000000053,-21.772406904922917
-0.022700000000000164,-22.027054938898623
-0.023700000000000054,-22.295850085872978
-0.024700000000000166,-22.42317410286083
-0.025700000000000056,-22.46561544185678
-0.026700000000000168,-22.46561544185678
-0.027700000000000058,-22.592939458844636
-0.02870000000000017,-22.776851927827092
-0.02970000000000006,-23.031499961802798
-0.03070000000000017,-23.24370665678255
-0.03170000000000006,-23.385177786769056
-0.03270000000000017,-23.385177786769056
-0.03370000000000006,-23.385177786769056
-0.034700000000000175,-23.47006046476096
-0.035700000000000065,-23.682267159740714
-0.03670000000000018,-23.951062306715073
-0.03770000000000007,-24.120827662698876
-0.03870000000000018,-24.20571034069078
-0.03970000000000007,-24.20571034069078
-0.04070000000000018,-24.24815167968673
-0.04170000000000007,-24.474505487665134
-0.04270000000000018,-24.686712182644893
-0.04370000000000007,-24.95550732961925
-0.044700000000000184,-25.0828313466071
-0.045700000000000074,-25.0828313466071
-0.046700000000000186,-25.12527268560305
-0.047700000000000076,-25.167714024599
-0.04870000000000019,-25.39406783257741
-0.04970000000000008,-25.60627452755716
-0.05070000000000019,-25.77603988354097
-0.05170000000000008,-25.86092256153287
-0.05270000000000019,-25.86092256153287
-0.05370000000000008,-25.86092256153287
-0.05470000000000019,-26.002393691519377
-0.05570000000000008,-26.17215904750318
-0.056700000000000195,-26.483395533473487
-0.057700000000000085,-26.65316088945729
-0.058700000000000196,-26.738043567449193
-0.059700000000000086,-26.780484906445146
-0.0607000000000002,-26.86536758443705
-0.06170000000000009,-27.091721392415455
-0.0627000000000002,-27.34636942639116
-0.06370000000000009,-27.615164573365515
-0.0647000000000002,-27.742488590353368
-0.06570000000000009,-27.78492992934932
-0.0667000000000002,-27.827371268345274
-0.0677000000000001,-27.954695285333123
-0.0687000000000002,-28.18104909331153
-0.0697000000000001,-28.435697127287238
-0.07070000000000021,-28.704492274261593
-0.0717000000000001,-28.789374952253496
-0.07270000000000021,-28.8742576302454
-0.0737000000000001,-28.91669896924135
-0.07470000000000021,-29.100611438223805
-0.0757000000000001,-29.35525947219951
-0.07670000000000021,-29.66649595816982
-0.0777000000000001,-29.878702653149578
-0.07870000000000021,-29.96358533114148
-0.0797000000000001,-29.96358533114148
-0.08070000000000022,-30.10505646112798
-0.0817000000000001,-30.274821817111786
-0.08270000000000022,-30.487028512091538
-0.08370000000000011,-30.79826499806185
-0.08470000000000022,-30.968030354045652
-0.08570000000000011,-31.052913032037555
-0.08670000000000022,-31.137795710029454
-0.08770000000000011,-31.23682550102001
-0.08870000000000022,-31.449032195999767
-0.08970000000000011,-31.76026868197007
-0.09070000000000022,-32.05735805494172
-0.09170000000000011,-32.184682071929586
-0.09270000000000023,-32.24127052392419
-0.09370000000000012,-32.283711862920136
-0.09470000000000023,-32.45347721890394
-0.09570000000000012,-32.764713704874254
-0.09670000000000023,-33.06180307784591
-0.09770000000000012,-33.288156885824314
-0.09870000000000023,-33.330598224820264
-0.09970000000000012,-33.373039563816214
-0.10070000000000023,-33.41548090281216
-0.10170000000000012,-33.58524625879597
-0.10270000000000024,-33.89648274476628
-0.10370000000000013,-34.193572117737936
-0.10470000000000024,-34.41992592571634
-0.10570000000000013,-34.50480860370825
-0.10670000000000024,-34.5472499427042
-0.10770000000000013,-34.717015298688004
-0.10870000000000024,-34.94336910666641
-0.10970000000000013,-35.282899818634014
-0.11070000000000024,-35.594136304604326
-0.11170000000000013,-35.721460321592176
-0.11270000000000002,-35.848784338580025
-0.11370000000000013,-35.94781412957058
-0.11470000000000002,-36.07513814655844
-0.11570000000000014,-36.4288159715247
-0.11670000000000003,-36.725905344496354
-0.11770000000000014,-37.037141830466666
-0.11870000000000003,-37.164465847454515
-0.11970000000000014,-37.206907186450465
-0.12070000000000003,-37.334231203438314
-0.12170000000000014,-37.60302635041268
-0.12270000000000003,-37.90011572338433
-0.12370000000000014,-38.253793548350586
-0.12470000000000003,-38.522588695324956
-0.12570000000000014,-38.6499127123128
-0.12670000000000003,-38.692354051308754
-0.12770000000000015,-38.81967806829661
-0.12870000000000004,-39.130914554266916
-0.12970000000000015,-39.42800392723857
-0.13070000000000004,-39.696799074212926
-0.13170000000000015,-39.86656443019674
-0.13270000000000004,-39.90900576919269
-0.13370000000000015,-39.99388844718459
-0.13470000000000004,-40.135359577171094
-0.13570000000000015,-40.43244895014274
-0.13670000000000004,-40.78612677510901
-0.13770000000000016,-41.04077480908471
-0.13870000000000005,-41.267128617063115
-0.13970000000000016,-41.352011295055014
-0.14070000000000005,-41.52177665103883
-0.14170000000000016,-41.79057179801318
-0.14270000000000005,-42.087661170984845
-0.14370000000000016,-42.39889765695515
-0.14470000000000005,-42.653545690930855
-0.14570000000000016,-42.79501682091736
-0.14670000000000005,-42.87989949890926
-0.14770000000000016,-43.09210619388902
-0.14870000000000005,-43.36090134086337
-0.14970000000000017,-43.70043205283099
-0.15070000000000006,-44.054109877797245
-0.15170000000000017,-44.28046368577565
-0.15270000000000006,-44.45022904175945
-0.15370000000000017,-44.535111719751356
-0.15470000000000006,-44.74731841473111
-0.15570000000000017,-45.10099623969737
-0.15670000000000006,-45.45467406466363
-0.15770000000000017,-45.70932209863933
-0.15870000000000006,-45.93567590661774
-0.15970000000000018,-45.97811724561369
-0.16070000000000007,-46.147882601597495
-0.16170000000000018,-46.37423640957591
-0.16270000000000007,-46.67132578254756
-0.16370000000000018,-47.02500360751382
-0.16470000000000007,-47.27965164148953
-0.16570000000000018,-47.32209298048547
-0.16670000000000007,-47.40697565847737
-0.16770000000000018,-47.54844678846388
-0.16870000000000007,-47.84553616143554
-0.16970000000000018,-48.1992139864018
-0.17070000000000007,-48.51045047237211
-0.17170000000000019,-48.72265716735186
-0.17270000000000008,-48.84998118433972
-0.1737000000000002,-48.97730520132757
-0.17470000000000008,-49.24610034830193
-0.1757000000000002,-49.642219512264134
-0.17670000000000008,-50.024191563227696
-0.1777000000000002,-50.29298671020206
-0.17870000000000008,-50.50519340518181
-0.1797000000000002,-50.60422319617236
-0.18070000000000008,-50.77398855215617
-0.1817000000000002,-51.028636586131874
-0.18270000000000008,-51.38231441109813
-0.1837000000000002,-51.82087491405629
-0.1847000000000001,-52.11796428702795
-0.1857000000000002,-52.30187675601041
-0.1867000000000001,-52.42920077299826
-0.1877000000000002,-52.64140746797801
-0.1887000000000001,-52.91020261495237
-0.1897000000000002,-53.30632177891458
-0.1907000000000001,-53.64585249088219
-0.1917000000000001,-53.872206298860604
-0.19269999999999998,-54.08441299384035
-0.1937000000000001,-54.2117370108282
-0.19469999999999998,-54.43809081880661
-0.1957000000000001,-54.834209982768826
-0.19669999999999999,-55.13129935574048
-0.1977000000000001,-55.442535841710786
-0.1987,-55.612301197694585
-0.1997000000000001,-55.73962521468245
-0.2007,-55.9235376836649
-0.2017000000000001,-56.1781857176406
-0.2027,-56.53186354260687
-0.2037000000000001,-56.927982706569075
-0.2047,-57.182630740544774
-0.2057000000000001,-57.352396096528594
-0.2067,-57.53630856551105
-0.2077000000000001,-57.7485152604908
-0.2087,-58.10219308545706
-0.2097000000000001,-58.498312249419264
-0.2107,-58.880284300382826
-0.2117000000000001,-59.10663810836124
-0.2127,-59.23396212534908
-0.2137000000000001,-59.403727481332886
-0.2147,-59.6300812893113
-0.2157000000000001,-60.06864179226946
-0.2167,-60.49305518222897
-0.21770000000000012,-60.80429166819927
-0.2187,-60.974057024183075
-0.21970000000000012,-61.15796949316553
-0.2207,-61.327734849149344
-0.22170000000000012,-61.63897133511965
-0.2227,-62.02094338608321
-0.22370000000000012,-62.41706255004542
-0.2247,-62.77074037501168
-0.22570000000000012,-62.94050573099548
-0.2267,-63.06782974798333
-0.22770000000000012,-63.251742216965795
-0.22870000000000001,-63.59127292893339
-0.22970000000000013,-63.98739209289561
-0.23070000000000002,-64.38351125685783
-0.23170000000000013,-64.59571795183757
-0.23270000000000002,-64.82207175981598
-0.23370000000000013,-64.94939577680383
-0.23470000000000002,-65.20404381077954
-0.23570000000000013,-65.64260431373769
-0.23670000000000002,-66.03872347769992
-0.2376999999999999,-66.39240130266617
-0.23870000000000002,-66.64704933664189
-0.2396999999999999,-66.77437335362974
-0.24070000000000003,-67.04316850060408
-0.24169999999999991,-67.39684632557035
-0.24270000000000003,-67.7788183765339
-0.24369999999999992,-68.25982021848802
-0.24470000000000003,-68.61349804345427
-0.24569999999999992,-68.78326339943808
-0.24670000000000003,-68.96717586842054
-0.24769999999999992,-69.1793825634003
-0.24870000000000003,-69.4906190493706
-0.24969999999999992,-69.91503243933012
-0.25070000000000003,-70.26871026429637
-0.2516999999999999,-70.62238808926263
-0.25270000000000004,-70.79215344524643
-0.2536999999999999,-71.0043601402262
-0.25470000000000004,-71.27315528720055
-0.2556999999999999,-71.6268331121668
-0.25670000000000004,-72.10783495412092
-0.25769999999999993,-72.48980700508447
-0.25870000000000004,-72.80104349105478
-0.25969999999999993,-73.01325018603454
-0.26070000000000004,-73.23960399401295
-0.26169999999999993,-73.53669336698461
-0.26270000000000004,-73.93281253094682
-0.26369999999999993,-74.37137303390499
-0.26470000000000005,-74.72505085887124
-0.26569999999999994,-74.93725755385098
-0.26670000000000005,-75.19190558782671
-0.26769999999999994,-75.46070073480107
-0.26870000000000005,-75.81437855976732
-0.26969999999999994,-76.33782174071737
-0.27070000000000005,-76.71979379168094
-0.27169999999999994,-77.11591295564315
-0.27270000000000005,-77.38470810261751
-0.27369999999999994,-77.63935613659322
-0.27470000000000006,-77.95059262256353
-0.27569999999999995,-78.38915312552167
-0.27670000000000006,-78.8135665154812
-0.27769999999999995,-79.25212701843935
-0.27870000000000006,-79.56336350440966
-0.27969999999999995,-79.7755701993894
-0.28070000000000006,-80.04436534636378
-0.28169999999999995,-80.42633739732734
-0.28270000000000006,-80.86489790028548
-0.28369999999999995,-81.43078242023151
-0.28470000000000006,-81.82690158419373
-0.28569999999999995,-82.13813807016405
-0.28670000000000007,-82.39278610413973
-0.28769999999999996,-82.746463929106
-0.28870000000000007,-83.18502443206415
-0.28969999999999996,-83.66602627401826
-0.29070000000000007,-84.18946945496833
-0.29169999999999996,-84.6563241839238
-0.29270000000000007,-84.96756066989411
-0.29369999999999996,-85.27879715586442
-0.2947000000000001,-85.66076920682796
-0.29569999999999996,-86.09932970978613
-0.2967000000000001,-86.66521422973216
-0.29769999999999996,-87.18865741068221
-0.2987000000000001,-87.58477657464444
-0.29969999999999997,-87.93845439961068
-0.3007000000000001,-88.27798511157829
-0.30169999999999997,-88.71654561453644
-0.3027000000000001,-89.28243013448247
-0.30369999999999997,-89.89075599342443
-0.3047000000000001,-90.41419917437449
-0.30569999999999997,-90.81031833833671
-0.3067000000000001,-91.12155482430701
-0.3077,-91.60255666626112
-0.3087000000000001,-92.08355850821525
-0.3097,-92.6918843671572
-0.3107000000000001,-93.34265156509512
-0.3117,-93.82365340704924
-0.3127000000000001,-94.26221391000739
-0.3137,-94.6583330739696
-0.3147000000000001,-95.12518780292505
-0.3157,-95.74766077486568
-0.3167000000000001,-96.35598663380765
-0.3177,-96.96431249274961
-0.3187000000000001,-97.4877556736997
-0.3197,-97.84143349866595
-0.3207000000000001,-98.364876679616
-0.3217,-98.88831986056607
-0.3227000000000001,-99.53908705850398
-0.3237,-100.31717827342976
-0.3247000000000001,-100.92550413237171
-0.3257,-101.44894731332178
-0.3267000000000001,-101.92994915527588
-0.3277,-102.45339233622596
-0.3287000000000001,-103.16074798615847
-0.3297,-103.98128054008019
-0.3307000000000001,-104.77351886800463
-0.3317,-105.46672740493848
-0.3327000000000001,-106.07505326388046
-0.3337,-106.55605510583456
-0.3347000000000001,-107.26341075576708
-0.3357,-108.04150197069285
-0.3367000000000001,-108.83374029861727
-0.3377,-109.654272852539
-0.3387000000000001,-110.34748138947285
-0.3397,-111.01239570040943
-0.3407000000000001,-111.6207215593514
-0.3417,-112.39881277427718
-0.3427000000000001,-113.27593378019348
-0.3437,-114.19549612510575
-0.3447000000000001,-115.05847001802343
-0.3457,-115.76582566795594
-0.3467000000000001,-116.45903420488982
-0.3477,-117.25127253281424
-0.3487000000000001,-118.07180508673595
-0.3497,-118.99136743164823
-0.3507000000000001,-119.95337111555646
-0.3517,-120.81634500847414
-0.3527000000000001,-121.60858333639854
-0.3537,-122.38667455132433
-0.3547000000000001,-123.17891287924873
-0.3557,-124.22579924114888
-0.35670000000000013,-125.23024426405304
-0.3577,-126.27713062595316
-0.35870000000000013,-127.19669297086547
-0.3597,-128.01722552478716
-0.36070000000000013,-128.89434653070347
-0.3617,-129.89879155360765
-0.3626999999999999,-130.98811925450374
-0.3637,-132.16232963339172
-0.3646999999999999,-133.20921599529186
-0.3657,-134.21366101819604
-0.3666999999999999,-135.1332233631083
-0.3677,-136.08107993401788
-0.3686999999999999,-137.1845547479126
-0.36970000000000003,-138.40120646579655
-0.3706999999999999,-139.57541684468453
-0.37170000000000003,-140.66474454558062
-0.3726999999999999,-141.75407224647665
-0.37370000000000003,-142.7443701563822
-0.3746999999999999,-143.87613919627424
-0.37570000000000003,-145.14937936615277
-0.3766999999999999,-146.4226195360313
-0.37770000000000004,-147.6958597059098
-0.3786999999999999,-148.82762874580186
-0.37970000000000004,-149.95939778569388
-0.3806999999999999,-151.09116682558593
-0.38170000000000004,-152.36440699546444
-0.38269999999999993,-153.77911829532948
-0.38370000000000004,-155.19382959519453
-0.38469999999999993,-156.60854089505958
-0.38570000000000004,-157.88178106493808
-0.38669999999999993,-156.32559863508658
-0.38570000000000004,-151.09116682558593
-0.38469999999999993,-147.27144631595033
-0.38370000000000004,-143.87613919627424
-0.38269999999999993,-141.01842237054686
-0.38170000000000004,-138.40120646579655
-0.3806999999999999,-135.74154922205025
-0.37970000000000004,-133.2516573342878
-0.3786999999999999,-130.9456779155078
-0.37770000000000004,-128.8094638527116
-0.3766999999999999,-126.84301514589919
-0.37570000000000003,-124.87656643908679
-0.3746999999999999,-122.74035237629057
-0.37370000000000003,-120.60413831349437
-0.3726999999999999,-118.55280692869007
-0.37170000000000003,-116.58635822187767
-0.3706999999999999,-114.84626332304367
-0.36970000000000003,-113.10616842420968
-0.3686999999999999,-111.22460239538917
-0.3677,-109.30059502757274
-0.3666999999999999,-107.34829343375898
-0.3657,-105.50916874393444
-0.3646999999999999,-103.85395652309235
-0.3637,-102.19874430225026
-0.3626999999999999,-100.670856098396
-0.3617,-99.01564387755391
-0.36070000000000013,-97.26140186572127
-0.3597,-95.56374830588322
-0.35870000000000013,-93.90853608504113
-0.3577,-92.42308922018285
-0.35670000000000013,-90.99423080731917
-0.3557,-89.55122528145681
-0.3547000000000001,-88.02333707760259
-0.3537,-86.41056619575643
-0.3527000000000001,-84.8826779919022
-0.3517,-83.39723112704392
-0.3507000000000001,-81.99666694017753
-0.3497,-80.69513254430169
-0.3487000000000001,-79.2945683574353
-0.3477,-77.86570994457162
-0.3467000000000001,-76.33782174071737
-0.3457,-74.89481621485504
-0.3447000000000001,-73.57913470598055
-0.3437,-72.36248298809663
-0.3427000000000001,-71.1458312702127
-0.3417,-69.8301497613382
-0.3407000000000001,-68.48617402646643
-0.3397,-67.08560983960004
-0.3387000000000001,-65.76992833072556
-0.3377,-64.59571795183757
-0.3367000000000001,-63.46394891194555
-0.3357,-62.33217987205352
-0.3347000000000001,-61.11552815416958
-0.3337,-59.7998466452951
-0.3327000000000001,-58.54075358841522
-0.3317,-57.30995475753264
-0.3307000000000001,-56.30550973462846
-0.3297,-55.31521182472294
-0.3287000000000001,-54.2117370108282
-0.3277,-53.079967970936174
-0.3267000000000001,-51.90575759204819
-0.3257,-50.81642989115212
-0.3247000000000001,-49.81198486824794
-0.3237,-48.84998118433972
-0.3227000000000001,-47.93041883942744
-0.3217,-46.94012092952192
-0.3207000000000001,-45.89323456762179
-0.3197,-44.74731841473111
-0.3187000000000001,-43.75702050482558
-0.3177,-42.837458159913304
-0.3167000000000001,-42.00277849299294
-0.3157,-41.083216148080666
-0.3147000000000001,-40.092918238175145
-0.3137,-39.046031876275016
-0.3127000000000001,-37.99914551437489
-0.3117,-37.037141830466666
-0.3107000000000001,-36.244903502542236
-0.3097,-35.50925362661242
-0.3087000000000001,-34.632132620696105
-0.3077,-33.712570275783825
-0.3067000000000001,-32.70812525287965
-0.30569999999999997,-31.84515135996197
-0.3047000000000001,-31.052913032037555
-0.30369999999999997,-30.402145834099635
-0.3027000000000001,-29.66649595816982
-0.30169999999999997,-28.91669896924135
-0.3007000000000001,-28.05372507632368
-0.29969999999999997,-27.176604070407354
-0.2987000000000001,-26.440954194477534
-0.29769999999999996,-25.691157205549064
-0.2967000000000001,-25.12527268560305
-0.29569999999999996,-24.516946826661083
-0.2947000000000001,-23.724708498736668
-0.29369999999999996,-22.946617283810895
-0.29270000000000007,-22.15437895588647
-0.29169999999999996,-21.461170418952605
-0.29070000000000007,-20.93772723800254
-0.28969999999999996,-20.414284057052477
-0.28870000000000007,-19.763516859114564
-0.28769999999999996,-19.112749661176647
-0.28670000000000007,-18.320511333252224
-0.28569999999999995,-17.627302796318357
-0.28470000000000006,-17.061418276372343
-0.28369999999999995,-16.580416434418233
-0.28270000000000006,-16.056973253468165
-0.28169999999999995,-15.3920589425316
-0.28070000000000006,-14.69885040559773
-0.27969999999999995,-13.960371107068182
-0.27870000000000006,-13.30535977523067
-0.27769999999999995,-12.825772644576423
-0.27670000000000006,-12.346185513922174
-0.27569999999999995,-11.86659838326793
-0.27470000000000006,-11.255443101726232
-0.27369999999999994,-10.601846481188586
-0.27270000000000005,-9.946835149351072
-0.27169999999999994,-9.423391968401008
-0.27070000000000005,-8.987660888042578
-0.26969999999999994,-8.638227196975913
-0.26870000000000005,-8.158640066321666
-0.26769999999999994,-7.591340835075788
-0.26670000000000005,-6.981600264833956
-0.26569999999999994,-6.458157083883892
