Potential V vs RHE, Current mA cm-2
0.013299999999999867,-0.11447843838507876
0.012299999999999978,-0.46459119087567796
0.011299999999999866,-0.6026670137425056
0.010299999999999976,-0.6690169737061759
0.009299999999999864,-0.7157024466017221
0.008299999999999974,-0.7585681989876326
0.007299999999999862,-0.8110539882126255
0.006299999999999972,-0.8536367983385632
0.00529999999999986,-0.8749989389665251
0.0042999999999999705,-0.8935316569947571
0.0032999999999998586,-0.9206941139521657
0.0022999999999999687,-0.9597401458284408
0.0012999999999998568,-0.9938346881551883
0.00029999999999996696,-1.008406214543798
-0.000700000000000145,-1.0178847802528939
-0.0017000000000000348,-1.041793401220613
-0.0027000000000001467,-1.0730585209476302
-0.0037000000000000366,-1.1064457076244452
-0.0047000000000001485,-1.1238466566127852
-0.005700000000000038,-1.1292225595522725
-0.00670000000000015,-1.1507261713102208
-0.00770000000000004,-1.1831230600771303
-0.008700000000000152,-1.2158028911040124
-0.009700000000000042,-1.2317891287924876
-0.010700000000000154,-1.239852983201718
-0.011700000000000044,-1.2602248259197746
-0.012700000000000156,-1.294885252766468
-0.013700000000000045,-1.3240283055436879
-0.014700000000000157,-1.3408633700120818
-0.015700000000000047,-1.346805157471515
-0.01670000000000016,-1.3668940579295987
-0.01770000000000005,-1.4042424362460353
-0.01870000000000016,-1.4345172580631471
-0.01970000000000005,-1.4514937936615278
-0.020700000000000163,-1.4571526388609877
-0.021700000000000053,-1.4769585970590984
-0.022700000000000164,-1.5137410908555893
-0.023700000000000054,-1.54769416205235
-0.024700000000000166,-1.5646706976507305
-0.025700000000000056,-1.5717442541500557
-0.026700000000000168,-1.5929649236480312
-0.027700000000000058,-1.6311621287443874
-0.02870000000000017,-1.6679446225408785
-0.02970000000000006,-1.6863358694391237
-0.03070000000000017,-1.6976535598380442
-0.03170000000000006,-1.7160448067362895
-0.03270000000000017,-1.7542420118326456
-0.03370000000000006,-1.7853656604296764
-0.034700000000000175,-1.7924392169290013
-0.035700000000000065,-1.7881950830294064
-0.03670000000000018,-1.822148154226167
-0.03770000000000007,-1.8645894932221183
-0.03870000000000018,-1.9042014096183393
-0.03970000000000007,-1.922592656516585
-0.04070000000000018,-1.93532505821537
-0.04170000000000007,-1.9664487068124006
-0.04270000000000018,-2.0032312006088917
-0.04370000000000007,-2.0414284057052483
-0.044700000000000184,-2.0640637865030884
-0.045700000000000074,-2.0782108995017388
-0.046700000000000186,-2.1093345480987695
-0.047700000000000076,-2.1447023305953956
-0.04870000000000019,-2.1871436695913467
-0.04970000000000008,-2.2097790503891876
-0.05070000000000019,-2.2182673181883774
-0.05170000000000008,-2.2111937616890525
-0.05270000000000019,-2.178655401792157
-0.05370000000000008,-2.2111937616890525
-0.05470000000000019,-2.2479762554855434
-0.05570000000000008,-2.2621233684841937
-0.056700000000000195,-2.2904175944814944
-0.057700000000000085,-2.3371030673770408
-0.058700000000000196,-2.3781296950731265
-0.059700000000000086,-2.4106680549700226
-0.0607000000000002,-2.4219857453689424
-0.06170000000000009,-2.4488652600663787
-0.0627000000000002,-2.4913065990623298
-0.06370000000000009,-2.5309185154585507
-0.0647000000000002,-2.5563833188561214
-0.06570000000000009,-2.5705304318547717
-0.0667000000000002,-2.5945805239524775
-0.0677000000000001,-2.6469248420474836
-0.0687000000000002,-2.6879514697435702
-0.0697000000000001,-2.7105868505414104
-0.07070000000000021,-2.7261486748399255
-0.0717000000000001,-2.744539921738171
-0.07270000000000021,-2.7827371268345273
-0.0737000000000001,-2.822349043230748
-0.07470000000000021,-2.8308373110299385
-0.0757000000000001,-2.8393255788291283
-0.07670000000000021,-2.8605462483271045
-0.0777000000000001,-2.8916698969241352
-0.07870000000000021,-2.9341112359200863
-0.0797000000000001,-2.9539171941181968
-0.08070000000000022,-2.9666495958169823
-0.0817000000000001,-2.9864555540150928
-0.08270000000000022,-3.0189939139119883
-0.08370000000000011,-3.0670940981073995
-0.08470000000000022,-3.09255890150497
-0.08570000000000011,-3.1038765919038904
-0.08670000000000022,-3.1321708179011907
-0.08770000000000011,-3.164709177798087
-0.08870000000000022,-3.195832826395118
-0.08970000000000011,-3.2227123410925533
-0.09070000000000022,-3.235444742791339
-0.09170000000000011,-3.2580801235891794
-0.09270000000000023,-3.2948626173856703
-0.09370000000000012,-3.3429628015810815
-0.09470000000000023,-3.381160006677438
-0.09570000000000012,-3.386818851876898
-0.09670000000000023,-3.4136983665743337
-0.09770000000000012,-3.4419925925716344
-0.09870000000000023,-3.4702868185689346
-0.09970000000000012,-3.4943369106666404
-0.10070000000000023,-3.4943369106666404
-0.10170000000000012,-3.4957516219665052
-0.10270000000000024,-3.522631136663941
-0.10370000000000013,-3.562243053060162
-0.10470000000000024,-3.583463722558138
-0.10570000000000013,-3.6018549694563835
-0.10670000000000024,-3.6046843920561136
-0.10770000000000013,-3.6499551536517942
-0.10870000000000024,-3.690981781347881
-0.10970000000000013,-3.7037141830466664
-0.11070000000000024,-3.693811203947611
-0.11170000000000013,-3.6824935135486903
-0.11270000000000002,-3.707958316946261
-0.11370000000000013,-3.751814367242077
-0.11470000000000002,-3.7631320576409975
-0.11570000000000014,-3.7673761915405932
-0.11670000000000003,-3.7716203254401877
-0.11770000000000014,-3.788596861038568
-0.11870000000000003,-3.818305798335734
-0.11970000000000014,-3.8310382000345196
-0.12070000000000003,-3.85084415823263
-0.12170000000000014,-3.8649912712312804
-0.12270000000000003,-3.8777236729300655
-0.12370000000000014,-3.9116767441268263
-0.12470000000000003,-3.934312124924667
-0.12570000000000014,-3.8664059825311448
-0.12670000000000003,-3.8480147356329
-0.12770000000000015,-3.906017898927366
-0.12870000000000004,-3.9894858656194034
-0.12970000000000015,-3.939970970124127
-0.13070000000000004,-3.8267940661349247
-0.13170000000000015,-3.812646953136274
-0.13270000000000004,-3.832452911334385
-0.13370000000000015,-3.8579177147319554
-0.13470000000000004,-3.87065011643074
-0.13570000000000015,-3.8664059825311448
-0.13670000000000004,-3.8720648277306053
-0.13770000000000016,-3.9003590537279056
-0.13870000000000005,-3.9300679910250715
-0.13970000000000016,-3.9470445266234524
-0.14070000000000005,-3.944215104023722
-0.14170000000000016,-3.9512886605230477
-0.14270000000000005,-3.971094618721158
-0.14370000000000016,-3.9979741334185936
-0.14470000000000005,-4.006462401217783
-0.14570000000000016,-4.01070653511738
-0.14670000000000005,-4.01636538031684
-0.14770000000000016,-4.0446596063141405
-0.14870000000000005,-4.074368543611305
-0.14970000000000017,-4.084271522710361
-0.15070000000000006,-4.094174501809416
-0.15170000000000017,-4.1040774809084715
-0.15270000000000006,-4.128127573006177
-0.15370000000000017,-4.159251221603208
-0.15470000000000006,-4.166324778102533
-0.15570000000000017,-4.173398334601859
-0.15670000000000006,-4.190374870200238
-0.15770000000000017,-4.218669096197539
-0.15870000000000006,-4.2526221673943
-0.15970000000000018,-4.25828101259376
-0.16070000000000007,-4.259695723893626
-0.16170000000000018,-4.2681839916928155
-0.16270000000000007,-4.2936487950903865
-0.16370000000000018,-4.329016577587013
-0.16470000000000007,-4.350237247084988
-0.16570000000000018,-4.347407824485257
-0.16670000000000007,-4.364384360083638
-0.16770000000000018,-4.391263874781075
-0.16870000000000007,-4.428046368577565
-0.16970000000000018,-4.447852326775675
-0.17070000000000007,-4.450681749375406
-0.17170000000000019,-4.463414151074191
-0.17270000000000008,-4.495952510971087
-0.1737000000000002,-4.532735004767577
-0.17470000000000008,-4.555370385565419
-0.1757000000000002,-4.569517498564068
-0.17670000000000008,-4.582249900262854
-0.1777000000000002,-4.623276527958939
-0.17870000000000008,-4.665717866954891
-0.1797000000000002,-4.694012092952192
-0.18070000000000008,-4.703915072051247
-0.1817000000000002,-4.718062185049897
-0.18270000000000008,-4.759088812745984
-0.1837000000000002,-4.793041883942744
-0.1847000000000001,-4.818506687340315
-0.1857000000000002,-4.8312390890391
-0.1867000000000001,-4.851045047237211
-0.1877000000000002,-4.894901097533027
-0.1887000000000001,-4.941586570428573
-0.1897000000000002,-4.972710219025604
-0.1907000000000001,-4.9896867546239845
-0.1917000000000001,-5.0094927128220945
-0.19269999999999998,-5.050519340518181
-0.1937000000000001,-5.100034236013457
-0.19469999999999998,-5.133987307210218
-0.1957000000000001,-5.153793265408329
-0.19669999999999999,-5.18491691400536
-0.1977000000000001,-5.231602386900906
-0.1987,-5.289605550195372
-0.1997000000000001,-5.323558621392133
-0.2007,-5.353267558689299
-0.2017000000000001,-5.38722062988606
-0.2027,-5.426832546282281
-0.2037000000000001,-5.477762153077422
-0.2047,-5.521618203373238
-0.2057000000000001,-5.5541565632701335
-0.2067,-5.59518319096622
-0.2077000000000001,-5.643283375161632
-0.2087,-5.699871827156233
-0.2097000000000001,-5.750801433951374
-0.2107,-5.784754505148135
-0.2117000000000001,-5.828610555443951
-0.2127,-5.886613718738418
-0.2137000000000001,-5.951690438532209
-0.2147,-6.004034756627216
-0.2157000000000001,-6.0521349408226275
-0.2167,-6.090332145918983
-0.21770000000000012,-6.152579443113044
-0.2187,-6.219070874206701
-0.21970000000000012,-6.278488748801033
-0.2207,-6.32517422169658
-0.22170000000000012,-6.37327440589199
-0.2227,-6.442595259585377
-0.22370000000000012,-6.513330824578629
-0.2247,-6.581236966972151
-0.22570000000000012,-6.6364107076668875
-0.2267,-6.690169737061758
-0.22770000000000012,-6.76373472465474
-0.22870000000000001,-6.850032113946507
-0.22970000000000013,-6.920767678939759
-0.23070000000000002,-6.978770842234226
-0.23170000000000013,-7.042432850728153
-0.23270000000000002,-7.124486106120324
-0.23370000000000013,-7.210783495412092
-0.23470000000000002,-7.28576319430494
-0.23570000000000013,-7.35366933669846
-0.23670000000000002,-7.430063746891172
-0.2376999999999999,-7.51353171358321
-0.23870000000000002,-7.616805638473357
-0.2396999999999999,-7.703103027765124
-0.24070000000000003,-7.779497437957836
-0.24169999999999991,-7.862965404649874
-0.24270000000000003,-7.956336350440965
-0.24369999999999992,-8.066683831830439
-0.24470000000000003,-8.164298911521126
-0.24569999999999992,-8.24918158951303
-0.24670000000000003,-8.35387022570304
-0.24769999999999992,-8.455729439293325
-0.24870000000000003,-8.574565188481987
-0.24969999999999992,-8.68491266987146
-0.25070000000000003,-8.779698326962418
-0.2516999999999999,-8.887216385752161
-0.25270000000000004,-9.011710980140284
-0.2536999999999999,-9.134790863228544
-0.25470000000000004,-9.263529591516258
-0.2556999999999999,-9.366803516406407
-0.25670000000000004,-9.475736286496016
-0.25769999999999993,-9.60871914868333
-0.25870000000000004,-9.7516049899697
-0.25969999999999993,-9.893076119956202
-0.26070000000000004,-10.01615600304446
-0.26169999999999993,-10.146309442632043
-0.26270000000000004,-10.290609995218277
-0.26369999999999993,-10.444813526903566
-0.26470000000000005,-10.60326119248845
-0.26569999999999994,-10.744732322474952
-0.26670000000000005,-10.893277008960782
-0.26769999999999994,-11.053139385845531
-0.26870000000000005,-11.229978298328662
-0.26969999999999994,-11.399743654312466
-0.27070000000000005,-11.55819131989735
-0.27169999999999994,-11.7180536967821
-0.27270000000000005,-11.904795588364284
-0.27369999999999994,-12.104269881645255
-0.27470000000000006,-12.289597061927573
-0.27569999999999995,-12.466435974410702
-0.27670000000000006,-12.648933732093294
-0.27769999999999995,-12.852652159273859
-0.27870000000000006,-13.070517699453074
-0.27969999999999995,-13.278480260533234
-0.28070000000000006,-13.476539842514338
-0.28169999999999995,-13.6845024035945
-0.28270000000000006,-13.905197366373446
-0.28369999999999995,-14.144283576050634
-0.28470000000000006,-14.387613919627421
-0.28569999999999995,-14.599820614607177
-0.28670000000000007,-14.826174422585586
-0.28769999999999996,-15.080822456561293
-0.28870000000000007,-15.349617603535648
-0.28969999999999996,-15.604265637511356
-0.29070000000000007,-15.858913671487063
-0.29169999999999996,-16.11356170546277
-0.29270000000000007,-16.396503965435777
-0.29369999999999996,-16.693593338407435
-0.2947000000000001,-16.97653559838044
-0.29569999999999996,-17.2453307453548
-0.2967000000000001,-17.542420118326454
-0.29769999999999996,-17.839509491298113
-0.2987000000000001,-18.164893090267068
-0.29969999999999997,-18.47612957623738
-0.3007000000000001,-18.80151317520634
-0.30169999999999997,-19.112749661176647
-0.3027000000000001,-19.4381332601456
-0.30369999999999997,-19.77766397211321
-0.3047000000000001,-20.13134179707947
-0.30569999999999997,-20.47087250904708
-0.3067000000000001,-20.810403221014692
-0.3077,-21.1782281589796
-0.3087000000000001,-21.574347322941808
-0.3097,-21.94217226090672
-0.3107000000000001,-22.295850085872978
-0.3117,-22.66367502383789
-0.3127000000000001,-23.045647074801447
-0.3137,-23.45591335176231
-0.3147000000000001,-23.88032674172182
-0.3157,-24.290593018682678
-0.3167000000000001,-24.686712182644893
-0.3177,-25.0828313466071
-0.3187000000000001,-25.46480339757066
-0.3197,-25.846775448534224
-0.3207000000000001,-26.22874749949778
-0.3217,-26.61071955046134
-0.3227000000000001,-27.0209858274222
-0.3237,-27.445399217381713
-0.3247000000000001,-27.855665494342567
-0.3257,-28.209343319308836
-0.3267000000000001,-28.591315370272387
-0.3277,-28.959140308237306
-0.3287000000000001,-29.34111235920086
-0.3297,-29.73723152316307
-0.3307000000000001,-30.09090934812933
-0.3317,-30.444587173095588
-0.3327000000000001,-30.812412111060496
-0.3337,-31.180237049025404
-0.3347000000000001,-31.54806198699032
-0.3357,-31.901739811956578
-0.3367000000000001,-32.22712341092554
-0.3377,-32.5525070098945
-0.3387000000000001,-32.892037721862096
-0.3397,-33.18912709483376
-0.3407000000000001,-33.45792224180811
-0.3417,-33.712570275783825
-0.3427000000000001,-34.00965964875548
-0.3437,-34.278454795729836
-0.3447000000000001,-34.58969128170015
-0.3457,-34.773603750682604
-0.3467000000000001,-34.9716633326637
-0.3477,-35.183870027643465
-0.3487000000000001,-35.41022383562187
-0.3497,-35.594136304604326
-0.3507000000000001,-35.721460321592176
-0.3517,-35.87707856457733
-0.3527000000000001,-36.00440258156518
-0.3537,-36.11757948555439
-0.3547000000000001,-36.230756389543586
-0.3557,-36.329786180534136
-0.35670000000000013,-36.41466885852605
-0.3577,-36.47125731052064
-0.35870000000000013,-36.52784576251525
-0.3597,-36.5985813275085
-0.36070000000000013,-36.6268755535058
-0.3617,-36.61272844050715
-0.3626999999999999,-36.61272844050715
-0.3637,-36.5985813275085
-0.3646999999999999,-36.584434214509855
-0.3657,-36.4288159715247
-0.3666999999999999,-36.35808040653144
-0.3677,-36.315639067535486
-0.3686999999999999,-36.28734484153819
-0.36970000000000003,-36.21660927654494
-0.3706999999999999,-36.08928525955708
-0.37170000000000003,-35.96196124256923
-0.3726999999999999,-35.806342999584075
-0.37370000000000003,-35.664871869597576
-0.3746999999999999,-35.53754785260972
-0.37570000000000003,-35.339488270628614
-0.3766999999999999,-35.14142868864751
-0.37770000000000004,-34.95751621966506
-0.3786999999999999,-34.75945663768395
-0.37970000000000004,-34.51895571670689
-0.3806999999999999,-34.25016056973254
-0.38170000000000004,-33.99551253575683
-0.38269999999999993,-33.755011614779775
-0.38370000000000004,-33.52865780680137
-0.38469999999999993,-33.274009772825664
-0.38570000000000004,-32.97692039985401
-0.38669999999999993,-31.802710020966025
-0.38570000000000004,-30.204086252118536
-0.38469999999999993,-28.8742576302454
-0.38370000000000004,-27.65760591236147
-0.38269999999999993,-26.483395533473487
-0.38170000000000004,-25.39406783257741
-0.3806999999999999,-24.34718147067728
-0.37970000000000004,-23.342736447773106
-0.3786999999999999,-22.40902698986218
-0.37770000000000004,-21.47531753195126
-0.3766999999999999,-20.612343639033586
-0.37570000000000003,-19.805958198110513
-0.3746999999999999,-19.027866983184744
-0.37370000000000003,-18.292217107254928
-0.3726999999999999,-17.584861457322408
-0.37170000000000003,-16.891652920388537
-0.3706999999999999,-16.22673860945197
-0.36970000000000003,-15.618412750510005
-0.3686999999999999,-15.02423400456669
-0.3677,-14.458349484620674
-0.3666999999999999,-13.905197366373446
-0.3657,-13.383168896723246
-0.3646999999999999,-12.902167054769135
-0.3637,-12.435312325813673
-0.3626999999999999,-11.97128701945794
-0.3617,-11.521408826100858
-0.36070000000000013,-11.101239570040944
-0.3597,-10.712193962578057
-0.35870000000000013,-10.334466045514093
-0.3577,-9.953908705850399
-0.35670000000000013,-9.581839633985894
-0.3557,-9.32577688871032
-0.3547000000000001,-9.007466846240689
-0.3537,-8.632568351776454
-0.3527000000000001,-8.304355330207764
-0.3517,-8.001607112036647
-0.3507000000000001,-7.720079563363504
-0.3497,-7.461187395488204
-0.3487000000000001,-7.2065393615124975
-0.3477,-6.940573637137869
-0.3467000000000001,-6.7212933856587895
-0.3457,-6.482207175981599
-0.3447000000000001,-6.258682790602922
-0.3437,-6.037987827823977
-0.3427000000000001,-5.811634019845571
-0.3417,-5.58952434576676
-0.3407000000000001,-5.388635341185925
-0.3397,-5.204722872203471
-0.3387000000000001,-5.027883959720341
-0.3377,-4.8383126455384255
-0.3367000000000001,-4.6487413313565105
-0.3357,-4.478975975372705
-0.3347000000000001,-4.323357732387552
-0.3337,-4.167739489402398
-0.3327000000000001,-4.006462401217783
-0.3317,-3.840941179133574
-0.3307000000000001,-3.699470049147071
-0.3297,-3.5848784338580026
-0.3287000000000001,-3.4632132620696097
-0.3277,-5.090131256914402
-0.3267000000000001,-4.06163614191252
-0.3257,-3.1731974455972773
-0.3247000000000001,-2.9694790184167124
-0.3237,-2.8322520223298033
-0.3227000000000001,-2.7049280053419507
-0.3217,-2.5705304318547717
-0.3207000000000001,-2.4502799713662435
-0.3197,-2.3569090255751513
-0.3187000000000001,-2.2564645232847336
-0.3177,-2.1404581966958003
-0.3167000000000001,-2.0216224475071374
-0.3157,-1.9183485226169896
-0.3147000000000001,-1.8405394011244125
-0.3137,-1.7514125892329155
-0.3127000000000001,-1.653797509542228
-0.3117,-1.5519382959519452
-0.3107000000000001,-1.4585673501608527
-0.3097,-1.38302176674806
-0.3087000000000001,-1.3086079523751588
-0.3077,-1.213963766414188
-0.3067000000000001,-1.1229978298328662
-0.30569999999999997,-1.0328807200314631
-0.3047000000000001,-0.9601645592184004
-0.30369999999999997,-0.8942390126446896
-0.3027000000000001,-0.8055366141431518
-0.30169999999999997,-0.7138633219118975
-0.3007000000000001,-0.635912729289334
-0.29969999999999997,-0.5718263074054479
-0.2987000000000001,-0.5102863658613187
-0.29769999999999996,-0.4329016577587012
-0.2967000000000001,-0.3422186634373524
-0.29569999999999996,-0.2751613478237496
-0.2947000000000001,-0.2154605309694451
-0.29369999999999996,-0.15604265637511353
-0.29270000000000007,-0.08325575999705741
-0.29169999999999996,0.001217076131273891
-0.29070000000000007,0.06910864699840705
-0.28969999999999996,0.12387212141618263
-0.28870000000000007,0.17896097943292713
-0.28769999999999996,0.24785741973635445
-0.28670000000000007,0.32778860817872896
-0.28569999999999995,0.3944215104023722
-0.28470000000000006,0.4396922719980534
-0.28369999999999995,0.4913292344431272
-0.28270000000000006,0.553293589377216
-0.28169999999999995,0.6298294706999144
-0.28070000000000006,0.7002820934331931
-0.27969999999999995,0.7428649035591307
-0.27870000000000006,0.790116260974623
-0.27769999999999995,0.8560418075483337
-0.27670000000000006,0.9255041323717068
-0.27569999999999995,0.9944005726751344
-0.27470000000000006,1.0352857292412339
-0.27369999999999994,1.080273548576942
-0.27270000000000005,1.1409646633411519
-0.27169999999999994,1.207456094434809
-0.27070000000000005,1.2704107472788029
-0.26969999999999994,1.3127106151447676
-0.26870000000000005,1.3513322336310831
-0.26769999999999994,1.4189554337646317
-0.26670000000000005,1.4939351326574788
