Potential V vs RHE, Current mA cm-2
0.013299999999999867,0.4776065348344364
0.012299999999999978,0.3031726315610774
0.011299999999999866,0.17231183632356148
0.010299999999999976,0.08502414912188871
0.009299999999999864,-0.002205534916489592
0.008299999999999974,-0.08943804837746762
0.007299999999999862,-0.1766974413531431
0.006299999999999972,-0.2202705493889862
0.00529999999999986,-0.30755823659065895
0.0042999999999999705,-0.3947044526623452
0.0032999999999998586,-0.4384190318281749
0.0022999999999999687,-0.5255652478998613
0.0012999999999998568,-0.6128529351015338
0.00029999999999996696,-0.6564260431373771
-0.000700000000000145,-0.7001406223032067
-0.0017000000000000348,-0.7872868383748929
-0.0027000000000001467,-0.8308599464107361
-0.0037000000000000366,-0.8745745255765657
-0.0047000000000001485,-0.9181476336124089
-0.005700000000000038,-0.9617207416482519
-0.00670000000000015,-1.0490084288499246
-0.00770000000000004,-1.0925815368857679
-0.008700000000000152,-1.1362961160515976
-0.009700000000000042,-1.1798692240874404
-0.010700000000000154,-1.2671569112891135
-0.011700000000000044,-1.3107300193249565
-0.012700000000000156,-1.3107300193249565
-0.013700000000000045,-1.3543031273607997
-0.014700000000000157,-1.3980177065266295
-0.015700000000000047,-1.4415908145624723
-0.01670000000000016,-1.4854468648582886
-0.01770000000000005,-1.4854468648582886
-0.01870000000000016,-1.5293029151541047
-0.01970000000000005,-1.5717442541500557
-0.020700000000000163,-1.6156003044458718
-0.021700000000000053,-1.6594563547416883
-0.022700000000000164,-1.7033124050375041
-0.023700000000000054,-1.7471684553333202
-0.024700000000000166,-1.7910245056291363
-0.025700000000000056,-1.8334658446250875
-0.026700000000000168,-1.8773218949209036
-0.027700000000000058,-1.92117794521672
-0.02870000000000017,-1.9650339955125358
-0.02970000000000006,-2.008890045808352
-0.03070000000000017,-2.052746096104168
-0.03170000000000006,-2.095187435100119
-0.03270000000000017,-2.1390434853959355
-0.03370000000000006,-2.1828995356917518
-0.034700000000000175,-2.226755585987568
-0.035700000000000065,-2.226755585987568
-0.03670000000000018,-2.2706116362833835
-0.03770000000000007,-2.3144676865791998
-0.03870000000000018,-2.3569090255751513
-0.03970000000000007,-2.4007650758709675
-0.04070000000000018,-2.4007650758709675
-0.04170000000000007,-2.4884771764625997
-0.04270000000000018,-2.4884771764625997
-0.04370000000000007,-2.532333226758415
-0.044700000000000184,-2.576189277054232
-0.045700000000000074,-2.576189277054232
-0.046700000000000186,-2.618630616050183
-0.047700000000000076,-2.662486666345999
-0.04870000000000019,-2.706342716641815
-0.04970000000000008,-2.7501987669376318
-0.05070000000000019,-2.794054817233447
-0.05170000000000008,-2.794054817233447
-0.05270000000000019,-2.8379108675292635
-0.05370000000000008,-2.8803522065252145
-0.05470000000000019,-2.924208256821031
-0.05570000000000008,-2.968064307116847
-0.056700000000000195,-2.968064307116847
-0.057700000000000085,-3.055776407708479
-0.058700000000000196,-3.055776407708479
-0.059700000000000086,-3.0996324580042955
-0.0607000000000002,-3.1420737970002466
-0.06170000000000009,-3.1420737970002466
-0.0627000000000002,-3.1859298472960624
-0.06370000000000009,-3.2297858975918787
-0.0647000000000002,-3.2297858975918787
-0.06570000000000009,-3.273641947887695
-0.0667000000000002,-3.317497998183511
-0.0677000000000001,-3.361354048479327
-0.0687000000000002,-3.403795387475278
-0.0697000000000001,-3.447651437771094
-0.07070000000000021,-3.4915074880669104
-0.0717000000000001,-3.5353635383627267
-0.07270000000000021,-3.5353635383627267
-0.0737000000000001,-3.579219588658543
-0.07470000000000021,-3.579219588658543
-0.0757000000000001,-3.623075638954359
-0.07670000000000021,-3.6655169779503103
-0.0777000000000001,-3.6655169779503103
-0.07870000000000021,-3.7093730282461257
-0.0797000000000001,-3.7532290785419424
-0.08070000000000022,-3.7532290785419424
-0.0817000000000001,-3.7970851288377587
-0.08270000000000022,-3.840941179133574
-0.08370000000000011,-3.884797229429391
-0.08470000000000022,-3.884797229429391
-0.08570000000000011,-3.971094618721158
-0.08670000000000022,-3.971094618721158
-0.08770000000000011,-4.014950669016974
-0.08870000000000022,-4.0588067193127895
-0.08970000000000011,-4.102662769608606
-0.09070000000000022,-4.146518819904423
-0.09170000000000011,-4.146518819904423
-0.09270000000000023,-4.1889601589003735
-0.09370000000000012,-4.1889601589003735
-0.09470000000000023,-4.23281620919619
-0.09570000000000012,-4.276672259492005
-0.09670000000000023,-4.276672259492005
-0.09770000000000012,-4.364384360083638
-0.09870000000000023,-4.364384360083638
-0.09970000000000012,-4.406825699079589
-0.10070000000000023,-4.450681749375406
-0.10170000000000012,-4.494537799671222
-0.10270000000000024,-4.538393849967037
-0.10370000000000013,-4.538393849967037
-0.10470000000000024,-4.582249900262854
-0.10570000000000013,-4.626105950558669
-0.10670000000000024,-4.626105950558669
-0.10770000000000013,-4.668547289554621
-0.10870000000000024,-4.668547289554621
-0.10970000000000013,-4.712403339850438
-0.11070000000000024,-4.712403339850438
-0.11170000000000013,-4.800115440442069
-0.11270000000000002,-4.800115440442069
-0.11370000000000013,-4.843971490737885
-0.11470000000000002,-4.843971490737885
-0.11570000000000014,-4.9302688800296535
-0.11670000000000003,-4.9302688800296535
-0.11770000000000014,-4.974124930325469
-0.11870000000000003,-5.017980980621284
-0.11970000000000014,-5.0618370309171015
-0.12070000000000003,-5.105693081212917
-0.12170000000000014,-5.105693081212917
-0.12270000000000003,-5.149549131508733
-0.12370000000000014,-5.149549131508733
-0.12470000000000003,-5.191990470504685
-0.12570000000000014,-5.235846520800501
-0.12670000000000003,-5.235846520800501
-0.12770000000000015,-5.279702571096316
-0.12870000000000004,-5.323558621392133
-0.12970000000000015,-5.323558621392133
-0.13070000000000004,-5.367414671687949
-0.13170000000000015,-5.367414671687949
-0.13270000000000004,-5.411270721983764
-0.13370000000000015,-5.411270721983764
-0.13470000000000004,-5.453712060979717
-0.13570000000000015,-5.497568111275533
-0.13670000000000004,-5.497568111275533
-0.13770000000000016,-5.5414241615713475
-0.13870000000000005,-5.5414241615713475
-0.13970000000000016,-5.585280211867165
-0.14070000000000005,-5.585280211867165
-0.14170000000000016,-5.629136262162981
-0.14270000000000005,-5.672992312458796
-0.14370000000000016,-5.672992312458796
-0.14470000000000005,-5.715433651454749
-0.14570000000000016,-5.759289701750564
-0.14670000000000005,-5.80314575204638
-0.14770000000000016,-5.80314575204638
-0.14870000000000005,-5.847001802342197
-0.14970000000000017,-5.847001802342197
-0.15070000000000006,-5.890857852638012
-0.15170000000000017,-5.890857852638012
-0.15270000000000006,-5.9347139029338285
-0.15370000000000017,-5.977155241929781
-0.15470000000000006,-5.977155241929781
-0.15570000000000017,-6.021011292225596
-0.15670000000000006,-6.021011292225596
-0.15770000000000017,-6.064867342521412
-0.15870000000000006,-6.108723392817228
-0.15970000000000018,-6.108723392817228
-0.16070000000000007,-6.152579443113044
-0.16170000000000018,-6.196435493408861
-0.16270000000000007,-6.196435493408861
-0.16370000000000018,-6.196435493408861
-0.16470000000000007,-6.282732882700628
-0.16570000000000018,-6.282732882700628
-0.16670000000000007,-6.326588932996443
-0.16770000000000018,-6.326588932996443
-0.16870000000000007,-6.37044498329226
-0.16970000000000018,-6.37044498329226
-0.17070000000000007,-6.414301033588076
-0.17170000000000019,-6.458157083883892
-0.17270000000000008,-6.458157083883892
-0.1737000000000002,-6.458157083883892
-0.17470000000000008,-6.500598422879844
-0.1757000000000002,-6.54445447317566
-0.17670000000000008,-6.588310523471475
-0.1777000000000002,-6.632166573767292
-0.17870000000000008,-6.6760226240631075
-0.1797000000000002,-6.6760226240631075
-0.18070000000000008,-6.719878674358924
-0.1817000000000002,-6.762320013354876
-0.18270000000000008,-6.762320013354876
-0.1837000000000002,-6.806176063650692
-0.1847000000000001,-6.806176063650692
-0.1857000000000002,-6.850032113946507
-0.1867000000000001,-6.893888164242324
-0.1877000000000002,-6.93774421453814
-0.1887000000000001,-6.981600264833956
-0.1897000000000002,-6.981600264833956
-0.1907000000000001,-7.024041603829907
-0.1917000000000001,-7.024041603829907
-0.19269999999999998,-6.93774421453814
-0.1937000000000001,-6.981600264833956
-0.19469999999999998,-7.024041603829907
-0.1957000000000001,-7.067897654125724
-0.19669999999999999,-7.067897654125724
-0.1977000000000001,-7.111753704421539
-0.1987,-7.155609754717355
-0.1997000000000001,-7.155609754717355
-0.2007,-7.155609754717355
-0.2017000000000001,-7.199465805013171
-0.2027,-7.243321855308987
-0.2037000000000001,-7.28576319430494
-0.2047,-7.329619244600755
-0.2057000000000001,-7.329619244600755
-0.2067,-7.4173313451923875
-0.2077000000000001,-7.4173313451923875
-0.2087,-7.50504344578402
-0.2097000000000001,-7.5474847847799715
-0.2107,-7.591340835075788
-0.2117000000000001,-7.635196885371603
-0.2127,-7.679052935667419
-0.2137000000000001,-7.7653503249591855
-0.2147,-7.7653503249591855
-0.2157000000000001,-7.809206375255003
-0.2167,-7.853062425550818
-0.21770000000000012,-7.853062425550818
-0.2187,-7.896918475846635
-0.21970000000000012,-7.896918475846635
-0.2207,-7.984630576438266
-0.22170000000000012,-8.070927965730034
-0.2227,-8.11478401602585
-0.22370000000000012,-8.246352166913299
-0.2247,-8.332649556205066
-0.22570000000000012,-8.638227196975913
-0.2267,-9.031516938338395
-0.22770000000000012,-8.943804837746763
-0.22870000000000001,-8.376505606500881
-0.22970000000000013,-8.464217707092514
-0.23070000000000002,-8.508073757388331
-0.23170000000000013,-8.55051509638428
-0.23270000000000002,-9.031516938338395
-0.23370000000000013,-9.205526428221793
-0.23470000000000002,-8.594371146680096
-0.23570000000000013,-8.508073757388331
-0.23670000000000002,-8.68208324727173
-0.2376999999999999,-8.899948787450944
-0.23870000000000002,-9.205526428221793
-0.2396999999999999,-9.335679867809377
-0.24070000000000003,-9.031516938338395
-0.24169999999999991,-8.943804837746763
-0.24270000000000003,-8.987660888042578
-0.24369999999999992,-9.031516938338395
-0.24470000000000003,-9.073958277334345
-0.24569999999999992,-9.11781432763016
-0.24670000000000003,-9.205526428221793
-0.24769999999999992,-9.24938247851761
-0.24870000000000003,-9.335679867809377
-0.24969999999999992,-9.423391968401008
-0.25070000000000003,-9.467248018696827
-0.2516999999999999,-9.511104068992642
-0.25270000000000004,-9.55496011928846
-0.2536999999999999,-9.641257508580225
-0.25470000000000004,-9.728969609171857
-0.2556999999999999,-9.81668170976349
-0.25670000000000004,-9.85912304875944
-0.25769999999999993,-9.946835149351072
-0.25870000000000004,-9.99069119964689
-0.25969999999999993,-10.120844639234473
-0.26070000000000004,-10.382566229709504
-0.26169999999999993,-10.382566229709504
-0.26270000000000004,-10.340124890713554
-0.26369999999999993,-10.42642228000532
-0.26470000000000005,-10.42642228000532
-0.26569999999999994,-9.902979099055257
-0.26670000000000005,-9.99069119964689
-0.26769999999999994,-10.078403300238522
-0.26870000000000005,-10.164700689530287
-0.26969999999999994,-10.340124890713554
-0.27070000000000005,-10.906009410659568
-0.27169999999999994,-10.42642228000532
-0.27270000000000005,-10.514134380596953
-0.27369999999999994,-10.644287820184536
-0.27470000000000006,-10.775855971071984
-0.27569999999999995,-10.731999920776168
-0.27670000000000006,-10.819712021367803
-0.27769999999999995,-10.906009410659568
-0.27870000000000006,-10.993721511251199
-0.27969999999999995,-11.123874950838783
-0.28070000000000006,-11.211587051430415
-0.28169999999999995,-11.343155202317865
-0.28270000000000006,-11.42945259160963
-0.28369999999999995,-11.691174182084664
-0.28470000000000006,-12.390041564217992
-0.28569999999999995,-12.214617363034726
-0.28670000000000007,-11.86659838326793
-0.28769999999999996,-11.73503023238048
-0.28870000000000007,-12.040607873151327
-0.28969999999999996,-13.217647674639037
-0.29070000000000007,-12.73806054398479
-0.29169999999999996,-12.040607873151327
-0.29270000000000007,-12.170761312738911
-0.29369999999999996,-12.346185513922174
-0.2947000000000001,-12.476338953509758
-0.29569999999999996,-12.651763154693022
-0.2967000000000001,-12.825772644576423
-0.29769999999999996,-12.955926084164007
-0.2987000000000001,-13.043638184755638
-0.29969999999999997,-13.175206335643086
-0.3007000000000001,-13.30535977523067
-0.30169999999999997,-13.47936926511407
-0.3027000000000001,-13.741090855589102
-0.30369999999999997,-13.567081365705702
-0.3047000000000001,-13.3930718758223
-0.30569999999999997,-13.784946905884919
-0.3067000000000001,-14.090524546655764
-0.3077,-14.26028990263957
-0.3087000000000001,-14.401761032626075
-0.3097,-14.529085049613924
-0.3107000000000001,-14.65640906660178
-0.3117,-14.783733083589633
-0.3127000000000001,-14.925204213576137
-0.3137,-15.01008689156804
-0.3147000000000001,-15.094969569559943
-0.3157,-15.179852247551842
-0.3167000000000001,-15.307176264539699
-0.3177,-15.349617603535648
-0.3187000000000001,-15.448647394526201
-0.3197,-15.533530072518102
-0.3207000000000001,-15.618412750510005
-0.3217,-15.74573676749786
-0.3227000000000001,-15.78817810649381
-0.3237,-15.91550212348166
-0.3247000000000001,-16.141855931460068
-0.3257,-16.311621287443874
-0.3267000000000001,-16.396503965435777
-0.3277,-16.580416434418233
-0.3287000000000001,-16.792623129397985
-0.3297,-16.919947146385837
-0.3307000000000001,-17.018976937376394
-0.3317,-17.188742293360193
-0.3327000000000001,-17.2736249713521
-0.3337,-17.358507649344002
-0.3347000000000001,-17.48583166633185
-0.3357,-17.542420118326454
-0.3367000000000001,-17.627302796318357
-0.3377,-17.924392169290012
-0.3387000000000001,-18.15074597726842
-0.3397,-18.15074597726842
-0.3407000000000001,-17.797068152302163
-0.3417,-18.589306480226583
-0.3427000000000001,-18.674189158218486
-0.3437,-18.759071836210385
-0.3447000000000001,-18.88639585319824
-0.3457,-18.97127853119014
-0.3467000000000001,-19.112749661176647
-0.3477,-19.056161209182044
-0.3487000000000001,-19.112749661176647
-0.3497,-19.197632339168546
-0.3507000000000001,-19.2400736781645
-0.3517,-19.28251501716045
-0.3527000000000001,-19.197632339168546
-0.3537,-19.197632339168546
-0.3547000000000001,-19.28251501716045
-0.3557,-18.23562865526032
-0.35670000000000013,-18.19318731626437
-0.3577,-18.27806999425627
-0.35870000000000013,-18.40539401124413
-0.3597,-18.49027668923603
-0.36070000000000013,-18.716630497214435
-0.3617,-19.01371987018609
-0.3626999999999999,-19.3249563561564
-0.3637,-20.06060623208622
-0.3646999999999999,-20.85284456001064
-0.3657,-20.85284456001064
-0.3666999999999999,-20.85284456001064
-0.3677,-20.85284456001064
-0.3686999999999999,-20.85284456001064
-0.36970000000000003,-20.93772723800254
-0.3706999999999999,-21.248963723972853
-0.37170000000000003,-21.58849443594046
-0.3726999999999999,-21.67337711393236
-0.37370000000000003,-21.772406904922917
-0.3746999999999999,-21.814848243918867
-0.37570000000000003,-21.814848243918867
-0.3766999999999999,-21.899730921910766
-0.37770000000000004,-21.857289582914817
-0.3786999999999999,-21.857289582914817
-0.37970000000000004,-21.503611757948562
-0.3806999999999999,-21.58849443594046
-0.38170000000000004,-21.729965565926964
-0.38269999999999993,-21.899730921910766
-0.38370000000000004,-21.98461359990267
-0.38469999999999993,-22.111937616890522
-0.38570000000000004,-22.253408746877028
-0.38669999999999993,-22.33829142486893
-0.38770000000000004,-22.42317410286083
-0.38869999999999993,-22.46561544185678
-0.38970000000000005,-22.550498119848687
-0.39069999999999994,-22.63538079784059
-0.39170000000000005,-22.72026347583249
-0.39269999999999994,-23.073941300798747
-0.39370000000000005,-23.073941300798747
-0.39469999999999994,-23.073941300798747
-0.39570000000000005,-23.1163826397947
-0.39669999999999994,-23.2012653177866
-0.39770000000000005,-23.24370665678255
-0.39869999999999994,-23.385177786769056
-0.39970000000000006,-23.597384481748815
-0.40069999999999995,-23.47006046476096
-0.40170000000000006,-23.639825820744765
-0.40269999999999995,-23.86617962872317
-0.40370000000000006,-23.951062306715073
-0.40469999999999995,-23.993503645711023
-0.40570000000000006,-23.993503645711023
-0.40669999999999995,-23.993503645711023
-0.40770000000000006,-23.86617962872317
-0.40869999999999995,-23.767149837732617
-0.40970000000000006,-23.86617962872317
-0.41069999999999995,-23.908620967719123
-0.41170000000000007,-23.951062306715073
-0.41269999999999996,-23.908620967719123
-0.41370000000000007,-23.823738289727217
-0.41469999999999996,-24.120827662698876
-0.41570000000000007,-24.120827662698876
-0.41669999999999996,-24.16326900169483
-0.41770000000000007,-24.16326900169483
-0.41869999999999996,-24.20571034069078
-0.4197000000000001,-24.16326900169483
-0.42069999999999996,-23.993503645711023
-0.4217000000000001,-23.993503645711023
-0.42269999999999996,-23.993503645711023
-0.4237000000000001,-23.951062306715073
-0.42469999999999997,-23.951062306715073
-0.4257000000000001,-23.951062306715073
-0.42669999999999997,-23.993503645711023
-0.4277000000000001,-24.035944984706973
-0.42869999999999997,-24.035944984706973
-0.4297000000000001,-24.078386323702922
-0.43069999999999997,-24.078386323702922
-0.4317000000000001,-23.639825820744765
-0.4327,-23.993503645711023
-0.4337000000000001,-24.078386323702922
-0.4347,-24.078386323702922
-0.4357000000000001,-24.120827662698876
-0.4367,-24.16326900169483
-0.4377000000000001,-24.16326900169483
-0.4387,-23.908620967719123
-0.4397000000000001,-23.993503645711023
-0.4407,-24.120827662698876
-0.4417000000000001,-24.16326900169483
-0.4427,-24.24815167968673
-0.4437000000000001,-24.290593018682678
-0.4447,-24.290593018682678
-0.4457000000000001,-24.389622809673234
-0.4467,-24.432064148669184
-0.4477000000000001,-24.474505487665134
-0.4487,-24.474505487665134
-0.4497000000000001,-24.474505487665134
-0.4507,-24.474505487665134
-0.4517000000000001,-24.474505487665134
-0.4527,-24.516946826661083
-0.4537000000000001,-24.474505487665134
-0.4547,-24.432064148669184
-0.4557000000000001,-24.516946826661083
-0.4567,-24.559388165657033
-0.4577000000000001,-24.20571034069078
-0.4587,-24.34718147067728
-0.4597000000000001,-24.432064148669184
-0.4607,-24.474505487665134
-0.4617000000000001,-24.474505487665134
-0.4627,-24.814036199632742
-0.4637000000000001,-24.814036199632742
-0.4647,-24.9130659906233
-0.4657000000000001,-24.95550732961925
-0.4667,-25.04039000761115
-0.4677000000000001,-25.0828313466071
-0.4687,-25.12527268560305
-0.4697000000000001,-25.167714024599
-0.4707,-25.210155363594954
-0.4717000000000001,-25.252596702590903
-0.4727,-25.295038041586857
-0.4737000000000001,-25.295038041586857
-0.4747,-24.34718147067728
-0.4757000000000001,-23.724708498736668
-0.4767,-23.767149837732617
-0.4777000000000001,-23.908620967719123
-0.4787,-24.035944984706973
-0.4797000000000001,-24.9130659906233
-0.4807,-25.959952352523427
-0.48170000000000013,-26.002393691519377
-0.4827,-26.044835030515326
-0.48370000000000013,-26.129717708507226
-0.4847,-26.129717708507226
-0.48570000000000013,-26.087276369511276
-0.4867,-26.129717708507226
-0.4876999999999999,-26.044835030515326
-0.4887,-26.087276369511276
-0.4896999999999999,-26.129717708507226
-0.4907,-26.21460038649913
-0.4916999999999999,-26.38436574248293
-0.4927,-26.440954194477534
-0.4936999999999999,-26.525836872469437
-0.49470000000000003,-26.568278211465387
-0.4956999999999999,-26.69560222845324
-0.49670000000000003,-26.822926245441096
-0.4976999999999999,-26.907808923433
-0.49870000000000003,-27.049280053419505
-0.4996999999999999,-27.303928087395207
-0.5007,-27.261486748399253
-0.5016999999999999,-27.134162731411404
-0.5027,-27.38881076538711
-0.5036999999999999,-27.43125210438306
-0.5047,-27.487840556377662
-0.5056999999999999,-27.615164573365515
-0.5067,-27.65760591236147
-0.5076999999999999,-27.742488590353368
