Potential V vs RHE, Current mA cm-2
0.013299999999999867,1.3425610235719199
0.012299999999999978,1.239852983201718
0.011299999999999866,1.153838536169924
0.010299999999999976,1.0941377193156194
0.009299999999999864,1.0331636622914362
0.008299999999999974,0.9335679867809377
0.007299999999999862,0.8936731281247438
0.006299999999999972,0.8544856251184821
0.00529999999999986,0.8218057940915999
0.0042999999999999705,0.7974727597339211
0.0032999999999998586,0.7704517739064989
0.0022999999999999687,0.7144292064318436
0.0012999999999998568,0.6944817771037465
0.00029999999999996696,0.672978165345798
-0.000700000000000145,0.6401568631889291
-0.0017000000000000348,0.600262004532735
-0.0027000000000001467,0.5730995475753263
-0.0037000000000000366,0.556688896496892
-0.0047000000000001485,0.5296679106694698
-0.005700000000000038,0.5111351926412377
-0.00670000000000015,0.4923195323530327
-0.00770000000000004,0.47774800596442285
-0.008700000000000152,0.4299307640289846
-0.009700000000000042,0.39314827023249366
-0.010700000000000154,0.3829623488734654
-0.011700000000000044,0.3620246216354629
-0.012700000000000156,0.36839082248485555
-0.013700000000000045,0.35014104671659657
-0.014700000000000157,0.3359939337179463
-0.015700000000000047,0.31972475376949827
-0.01670000000000016,0.2927037679420761
-0.01770000000000005,0.2805372507632368
-0.01870000000000016,0.25493097623567956
-0.01970000000000005,0.22833440379821693
-0.020700000000000163,0.2037184271805653
-0.021700000000000053,0.17797068152302162
-0.022700000000000164,0.14797880196588284
-0.023700000000000054,0.13318092176929455
-0.024700000000000166,0.13834461801380196
-0.025700000000000056,0.11183292825433114
-0.026700000000000168,0.08921169456948921
-0.027700000000000058,0.07553143629979431
-0.02870000000000017,0.05613574437864466
-0.02970000000000006,0.03910262032826961
-0.03070000000000017,0.019013719870186095
-0.03170000000000006,0.008401970409898454
-0.03270000000000017,-0.006393080364090101
-0.03370000000000006,-0.02048501962204573
-0.034700000000000175,-0.039046031876275006
-0.035700000000000065,-0.05245749499899556
-0.03670000000000018,-0.0673826992125717
-0.03770000000000007,-0.08608518259678749
-0.03870000000000018,-0.09167329223125438
-0.03970000000000007,-0.10744732322474954
-0.04070000000000018,-0.13088908946351321
-0.04170000000000007,-0.14953498439573437
-0.04270000000000018,-0.16835064468393937
-0.04370000000000007,-0.18773218949209036
-0.044700000000000184,-0.20555755187038985
-0.045700000000000074,-0.21065051254990397
-0.046700000000000186,-0.232578537697812
-0.047700000000000076,-0.24106680549700227
-0.04870000000000019,-0.25535538962563914
-0.04970000000000008,-0.25733598544545017
-0.05070000000000019,-0.27120015618412757
-0.05170000000000008,-0.28308373110299384
-0.05270000000000019,-0.29044022986229207
-0.05370000000000008,-0.3034555738210504
-0.05470000000000019,-0.3174612156897142
-0.05570000000000008,-0.33146685755837807
-0.056700000000000195,-0.3507069312365426
-0.057700000000000085,-0.34872633541673154
-0.058700000000000196,-0.3511313446265021
-0.059700000000000086,-0.366268755535058
-0.0607000000000002,-0.38140616644361386
-0.06170000000000009,-0.3989485865619403
-0.0627000000000002,-0.40856862340102257
-0.06370000000000009,-0.41847160250007787
-0.0647000000000002,-0.4327601866287147
-0.06570000000000009,-0.4552540962965688
-0.0667000000000002,-0.46034705697608286
-0.0677000000000001,-0.4664303155655025
-0.0687000000000002,-0.48015301517419345
-0.0697000000000001,-0.48637774489359964
-0.07070000000000021,-0.4957148394727089
-0.0717000000000001,-0.5111351926412377
-0.07270000000000021,-0.5385805918586195
-0.0737000000000001,-0.557254781016838
-0.07470000000000021,-0.5596597902266085
-0.0757000000000001,-0.5534350605072024
-0.07670000000000021,-0.5542838872871214
-0.0777000000000001,-0.5835684111943277
-0.07870000000000021,-0.594886101593248
-0.0797000000000001,-0.5950275727232345
-0.08070000000000022,-0.6260097501902787
-0.0817000000000001,-0.6485036598581327
-0.08270000000000022,-0.6589725234771341
-0.08370000000000011,-0.6642069552866348
-0.08470000000000022,-0.6557186874874444
-0.08570000000000011,-0.6502013134179708
-0.08670000000000022,-0.6673193201463378
-0.08770000000000011,-0.6809005486250422
-0.08870000000000022,-0.6864179226945158
-0.08970000000000011,-0.6961794306635846
-0.09070000000000022,-0.7074971210625048
-0.09170000000000011,-0.7186733403314387
-0.09270000000000023,-0.7193806959813712
-0.09370000000000012,-0.7223515897110878
-0.09470000000000023,-0.7302739729903319
-0.09570000000000012,-0.7418746056492252
-0.09670000000000023,-0.7557387763879025
-0.09770000000000012,-0.7657832266169443
-0.09870000000000023,-0.773847081026175
-0.09970000000000012,-0.7755447345860131
-0.10070000000000023,-0.7851647714250953
-0.10170000000000012,-0.7977557019938941
-0.10270000000000024,-0.8046877873632328
-0.10370000000000013,-0.8111954593426121
-0.10470000000000024,-0.8160054777621532
-0.10570000000000013,-0.827747581551033
-0.10670000000000024,-0.8365187916101962
-0.10770000000000013,-0.8495341355689546
-0.10870000000000024,-0.8525050292986711
-0.10970000000000013,-0.8600029991879558
-0.11070000000000024,-0.8833457356357289
-0.11170000000000013,-0.9004637423640959
-0.11270000000000002,-0.9134790863228541
-0.11370000000000013,-0.9270603148015586
-0.11470000000000002,-0.932860631131005
-0.11570000000000014,-0.9366803516406408
-0.11670000000000003,-0.9540813006289808
-0.11770000000000014,-0.9588913190485219
-0.11870000000000003,-0.9584669056585623
-0.11970000000000014,-0.9393683031103843
-0.12070000000000003,-0.9467248018696826
-0.12170000000000014,-0.9580424922686028
-0.12270000000000003,-0.9714822496173208
-0.12370000000000014,-0.9789802195066053
-0.12470000000000003,-0.9935517458952152
-0.12570000000000014,-0.9962396973649587
-0.12670000000000003,-1.007557387763879
-0.12770000000000015,-1.017035953472975
-0.12870000000000004,-1.0239680388423136
-0.12970000000000015,-1.0259486346621245
-0.13070000000000004,-1.0348613158512743
-0.13170000000000015,-1.0494328422398842
-0.13270000000000004,-1.0580625811690607
-0.13370000000000015,-1.0686729159180488
-0.13470000000000004,-1.0773026548472253
-0.13570000000000015,-1.0857909226464155
-0.13670000000000004,-1.0975330264352956
-0.13770000000000016,-1.0983818532152145
-0.13870000000000005,-1.104465111804634
-0.13970000000000016,-1.1055968808445262
-0.14070000000000005,-1.1152169176836084
-0.14170000000000016,-1.1309202131121103
-0.14270000000000005,-1.1351643470117054
-0.14370000000000016,-1.139549952041287
-0.14470000000000005,-1.1435111436809091
-0.14570000000000016,-1.1548288340798294
-0.14670000000000005,-1.1665709378687095
-0.14770000000000016,-1.1781715705276026
-0.14870000000000005,-1.190338087706442
-0.14970000000000017,-1.2003825379354838
-0.15070000000000006,-1.2213202651734862
-0.15170000000000017,-1.2242911589032026
-0.15270000000000006,-1.231930599922474
-0.15370000000000017,-1.2300914752326495
-0.15470000000000006,-1.2363162049520557
-0.15570000000000017,-1.2503218468207193
-0.15670000000000006,-1.2661666133792076
-0.15770000000000017,-1.2733816410085195
-0.15870000000000006,-1.276352534738236
-0.15970000000000018,-1.2834260912375612
-0.16070000000000007,-1.2984220310161307
-0.16170000000000018,-1.3083250101151858
-0.16270000000000007,-1.313700913054673
-0.16370000000000018,-1.3320921599529185
-0.16470000000000007,-1.3383168896723248
-0.16570000000000018,-1.3521810604110023
-0.16670000000000007,-1.367035529059585
-0.16770000000000018,-1.3804752864083027
-0.16870000000000007,-1.384153535787952
-0.16970000000000018,-1.3879732562975873
-0.17070000000000007,-1.4142868864750773
-0.17170000000000019,-1.433102546763282
-0.17270000000000008,-1.4500790823616625
-0.1737000000000002,-1.461396772760583
-0.17470000000000008,-1.4684703292599082
-0.1757000000000002,-1.4854468648582886
-0.17670000000000008,-1.505252823056399
-0.1777000000000002,-1.5208146473549145
-0.17870000000000008,-1.53920589425316
-0.1797000000000002,-1.546279450752485
-0.18070000000000008,-1.5533530072518102
-0.1817000000000002,-1.5717442541500557
-0.18270000000000008,-1.580232521949246
-0.1837000000000002,-1.5957943462477613
-0.1847000000000001,-1.6085267479465466
-0.1857000000000002,-1.6354062626439825
-0.1867000000000001,-1.6467239530429028
-0.1877000000000002,-1.6523827982423631
-0.1887000000000001,-1.6679446225408785
-0.1897000000000002,-1.6835064468393939
-0.1907000000000001,-1.6820917355395286
-0.1917000000000001,-1.7075565389370995
-0.19269999999999998,-1.7231183632356148
-0.1937000000000001,-1.7429243214337253
-0.19469999999999998,-1.7542420118326456
-0.1957000000000001,-1.771218547431026
-0.19669999999999999,-1.7938539282288664
-0.1977000000000001,-1.8122451751271118
-0.1987,-1.823562865526032
-0.1997000000000001,-1.8730777610213083
-0.2007,-1.894298430519284
-0.2017000000000001,-1.9141043887173947
-0.2027,-1.9466427486142908
-0.2037000000000001,-1.9650339955125358
-0.2047,-1.9876693763103765
-0.2057000000000001,-2.0272812927065975
-0.2067,-2.020207736207272
-0.2077000000000001,-2.048501962204573
-0.2087,-2.040013694405383
-0.2097000000000001,-2.048501962204573
-0.2107,-2.0866991673009294
-0.2117000000000001,-2.1418729079956655
-0.2127,-2.1701671339929662
-0.2137000000000001,-2.1828995356917518
-0.2147,-2.2140231842887825
-0.2157000000000001,-2.2338291424868926
-0.2167,-2.249390966785408
-0.21770000000000012,-2.2946617283810897
-0.2187,-2.318711820478795
-0.21970000000000012,-2.349835469075826
-0.2207,-2.3710561385738016
-0.22170000000000012,-2.3908620967719116
-0.2227,-2.4219857453689424
-0.22370000000000012,-2.4559388165657037
-0.2247,-2.463012373065029
-0.22570000000000012,-2.504039000761115
-0.2267,-2.532333226758415
-0.22770000000000012,-2.5747745657543666
-0.22870000000000001,-2.615801193450453
-0.22970000000000013,-2.631363017748968
-0.23070000000000002,-2.6115570595508575
-0.23170000000000013,-2.634192440348698
-0.23270000000000002,-2.6837073358439745
-0.23370000000000013,-2.7148309844410052
-0.23470000000000002,-2.7558576121370915
-0.23570000000000013,-2.8152754867314234
-0.23670000000000002,-2.9185494116215707
-0.2376999999999999,-2.9666495958169823
-0.23870000000000002,-3.0147497800123935
-0.2396999999999999,-3.0274821817111786
-0.24070000000000003,-3.0614352529079394
-0.24169999999999991,-3.08124121110605
-0.24270000000000003,-3.120853127502271
-0.24369999999999992,-3.1774415794968722
-0.24470000000000003,-3.225541763692284
-0.24569999999999992,-3.2849596382866153
-0.24670000000000003,-3.3373039563816214
-0.24769999999999992,-3.4136983665743337
-0.24870000000000003,-3.512728157564886
-0.24969999999999992,-3.67966409094896
-0.25070000000000003,-3.7419113881430217
-0.2516999999999999,-3.7192760073451816
-0.25270000000000004,-3.7122024508458558
-0.2536999999999999,-3.7532290785419424
-0.25470000000000004,-3.8098175305365434
-0.2556999999999999,-3.8777236729300655
-0.25670000000000004,-3.9201650119260174
-0.25769999999999993,-3.884797229429391
-0.25870000000000004,-3.922994434525747
-0.25969999999999993,-3.999388844718459
-0.26070000000000004,-4.065880275812115
-0.26169999999999993,-4.121054016506851
-0.26270000000000004,-4.166324778102533
-0.26369999999999993,-4.170568912002128
-0.26470000000000005,-4.2087661170984845
-0.26569999999999994,-4.234230920496055
-0.26670000000000005,-4.309210619388901
-0.26769999999999994,-4.3657990713835035
-0.26870000000000005,-4.394093297380804
-0.26969999999999994,-4.406825699079589
-0.27070000000000005,-4.425216945977835
-0.27169999999999994,-4.430875791177296
-0.27270000000000005,-4.541223272566767
-0.27369999999999994,-4.669962000854486
-0.27470000000000006,-4.685523825153001
-0.27569999999999995,-4.766162369245309
-0.27670000000000006,-4.862362737636131
-0.27769999999999995,-4.943001281728439
-0.27870000000000006,-4.9571483947270885
-0.27969999999999995,-4.967051373826144
-0.28070000000000006,-5.053348763117911
-0.28169999999999995,-5.145304997609139
-0.28270000000000006,-5.18774633660509
-0.28369999999999995,-5.191990470504685
-0.28470000000000006,-5.197649315704145
-0.28569999999999995,-5.18774633660509
-0.28670000000000007,-5.276873148496587
-0.28769999999999996,-5.537180027671754
-0.28870000000000007,-5.646112797761361
-0.28969999999999996,-5.704115961055828
-0.29070000000000007,-5.614989149164331
-0.29169999999999996,-5.687139425457448
-0.29270000000000007,-5.697042404556503
-0.29369999999999996,-5.677236446358393
-0.2947000000000001,-5.695627693256637
-0.29569999999999996,-5.756460279150835
-0.2967000000000001,-5.876710739639362
-0.29769999999999996,-5.953105149832074
-0.2987000000000001,-5.937543325533559
-0.29969999999999997,-6.026670137425056
-0.3007000000000001,-6.033743693924381
-0.30169999999999997,-6.199264916008591
-0.3027000000000001,-6.152579443113044
-0.30369999999999997,-6.265756347102247
-0.3047000000000001,-6.520404381077953
-0.30569999999999997,-6.513330824578629
-0.3067000000000001,-6.574163410472826
-0.3077,-6.3676155606925295
-0.3087000000000001,-6.429862857886591
-0.3097,-6.54445447317566
-0.3107000000000001,-6.701487427460679
-0.3117,-6.872667494744348
-0.3127000000000001,-7.142877353018569
-0.3137,-7.31405742030224
-0.3147000000000001,-7.094777168823159
-0.3157,-7.009894490831256
-0.3167000000000001,-7.004235645631797
-0.3177,-7.19663638241344
-0.3187000000000001,-7.336692801100081
-0.3197,-7.370645872296841
-0.3207000000000001,-7.268786658706559
-0.3217,-7.3777194287961665
-0.3227000000000001,-7.452699127689013
-0.3237,-7.5347523830811864
-0.3247000000000001,-7.546070073480105
-0.3257,-7.6083173706741665
-0.3267000000000001,-7.796473973556218
-0.3277,-7.939359814842586
-0.3287000000000001,-7.840330023852035
-0.3297,-7.544655362180241
-0.3307000000000001,-7.8827713628479845
-0.3317,-7.967654040839887
-0.3327000000000001,-8.056780852731386
-0.3337,-8.046877873632328
-0.3347000000000001,-8.235034476514379
-0.3357,-8.203910827917348
-0.3367000000000001,-8.276061104210465
-0.3377,-8.315673020606686
-0.3387000000000001,-8.34538195790385
-0.3397,-8.370846761301422
-0.3407000000000001,-8.328405422305472
-0.3417,-8.46846184099211
-0.3427000000000001,-8.424605790696294
-0.3437,-8.366602627401825
-0.3447000000000001,-8.400555698598588
-0.3457,-8.335478978804796
-0.3467000000000001,-8.30859946410736
-0.3477,-8.486853087890356
-0.3487000000000001,-8.435923481095214
-0.3497,-8.426020501996158
-0.3507000000000001,-8.394896853399128
-0.3517,-8.403385121198317
-0.3527000000000001,-8.47129126359184
-0.3537,-8.49392664438968
-0.3547000000000001,-8.406214543798049
-0.3557,-8.256255146012354
-0.35670000000000013,-8.31991715450628
-0.3577,-8.310014175407224
-0.35870000000000013,-8.192593137518429
-0.3597,-8.28030523811006
-0.36070000000000013,-8.365187916101961
-0.3617,-8.273231681610733
-0.3626999999999999,-8.307184752807496
-0.3637,-8.240693321713838
-0.3646999999999999,-8.008680668535973
-0.3657,-8.110539882126256
-0.3666999999999999,-8.07800152222936
-0.3677,-8.099222191727335
-0.3686999999999999,-8.160054777621532
-0.36970000000000003,-8.335478978804796
-0.3706999999999999,-8.584468167581042
-0.37170000000000003,-8.328405422305472
-0.3726999999999999,-8.143078242023151
-0.37370000000000003,-8.066683831830439
-0.3746999999999999,-8.119028149925446
-0.37570000000000003,-8.11195459342612
-0.3766999999999999,-8.073757388329765
-0.37770000000000004,-8.321331865806146
-0.3786999999999999,-8.476950108791302
-0.37970000000000004,-8.406214543798049
-0.3806999999999999,-8.179860735819641
-0.38170000000000004,-8.160054777621532
-0.38269999999999993,-8.29445235110871
-0.38370000000000004,-8.469876552291973
-0.38469999999999993,-8.458558861893053
-0.38570000000000004,-8.317087731906552
-0.38669999999999993,-8.25766985731222
-0.38770000000000004,-8.359529070902502
-0.38869999999999993,-8.484023665290625
-0.38970000000000005,-8.699059782870112
-0.39069999999999994,-8.607103548378884
-0.39170000000000005,-8.307184752807496
-0.39269999999999994,-8.3029406189079
-0.39370000000000005,-8.324161288405875
-0.39469999999999994,-8.594371146680096
-0.39570000000000005,-8.612762393578345
-0.39669999999999994,-8.669350845572946
-0.39770000000000005,-8.747159967065523
-0.39869999999999994,-8.578809322381582
-0.39970000000000006,-8.47412068619157
-0.40069999999999995,-8.387823296899802
-0.40170000000000006,-8.437338192395078
-0.40269999999999995,-8.520806159087115
-0.40370000000000006,-8.567491631982662
-0.40469999999999995,-8.375090895201017
-0.40570000000000006,-8.236449187814243
-0.40669999999999995,-8.264743413811544
-0.40770000000000006,-8.213813807016404
-0.40869999999999995,-8.005851245936244
-0.40970000000000006,-8.481194242690894
-0.41069999999999995,-8.580224033681448
-0.41170000000000007,-8.099222191727335
-0.41269999999999996,-8.0440484510326
-0.41370000000000007,-8.051122007531923
-0.41469999999999996,-7.963409906940291
-0.41570000000000007,-7.926627413143801
-0.41669999999999996,-8.007265957236108
-0.41770000000000007,-7.817694643054193
-0.41869999999999996,-7.782326860557566
-0.4197000000000001,-7.814865220454463
-0.42069999999999996,-7.727153119862831
-0.4217000000000001,-7.555973052579161
-0.42269999999999996,-7.514946424883075
-0.4237000000000001,-7.342351646299541
-0.42469999999999997,-7.329619244600755
-0.4257000000000001,-7.305569152503049
-0.42669999999999997,-7.264542524806962
-0.4277000000000001,-7.2659572361068285
-0.42869999999999997,-7.306983863802915
-0.4297000000000001,-7.294251462104128
-0.43069999999999997,-7.372060583596706
-0.4317000000000001,-7.345181068899271
-0.4327,-7.32537511070116
-0.4337000000000001,-7.389037119195086
-0.4347,-7.360742893197786
-0.4357000000000001,-7.421575479091982
-0.4367,-7.469675663287394
-0.4377000000000001,-7.4937257553851
-0.4387,-7.546070073480105
-0.4397000000000001,-7.507872868383751
-0.4407,-7.6592469774693095
-0.4417000000000001,-7.69885889386553
-0.4427,-7.909650877545419
-0.4437000000000001,-7.795059262256351
-0.4447,-7.845988869051494
-0.4457000000000001,-7.94360394874218
-0.4467,-7.983215865138402
-0.4477000000000001,-7.977557019938943
-0.4487,-7.991704132937592
-0.4497000000000001,-8.004436534636376
-0.4507,-8.079416233529225
-0.4517000000000001,-8.134589974223962
-0.4527,-8.216643229616132
-0.4537000000000001,-8.295867062408576
-0.4547,-8.293037639808846
-0.4557000000000001,-8.452900016693595
-0.4567,-8.554759230283878
-0.4577000000000001,-8.40904396639778
-0.4587,-8.519391447787251
-0.4597000000000001,-8.619835950077668
-0.4607,-8.83628677895702
-0.4617000000000001,-8.938145992547302
-0.4627,-9.051322896536504
-0.4637000000000001,-9.08103183383367
-0.4647,-9.122058461529756
-0.4657000000000001,-9.198452871722468
-0.4667,-9.2861649723141
-0.4677000000000001,-9.375291784205599
-0.4687,-9.549301274088998
-0.4697000000000001,-10.0387913838423
-0.4707,-9.931273325052558
-0.4717000000000001,-9.927029191152961
-0.4727,-9.972299952748642
-0.4737000000000001,-10.011911869144866
-0.4747,-9.98786177704716
-0.4757000000000001,-10.088306279337578
-0.4767,-10.195824338127318
-0.4777000000000001,-10.351442581112472
-0.4787,-10.502816690198033
-0.4797000000000001,-10.601846481188586
-0.4807,-10.734829343375898
-0.48170000000000013,-10.873471050762673
-0.4827,-11.047480540646072
-0.48370000000000013,-11.20451349493109
-0.4847,-11.353058181416921
-0.48570000000000013,-11.505847001802342
-0.4867,-11.667124089986958
-0.4876999999999999,-11.846792425069816
-0.4887,-11.998166534155375
-0.4896999999999999,-12.19905553873621
-0.4907,-12.387212141618262
-0.4916999999999999,-12.5838570122995
-0.4927,-12.694204493688973
-0.4936999999999999,-12.78899015077993
-0.49470000000000003,-12.899337632169406
-0.4956999999999999,-13.153985666145111
-0.49670000000000003,-13.278480260533234
-0.4976999999999999,-13.315262754329725
-0.49870000000000003,-13.612352127301383
-0.4996999999999999,-13.763726236386942
-0.5007,-14.161260111649016
-0.5016999999999999,-14.430055258623375
-0.5027,-14.61396772760583
-0.5036999999999999,-15.05252823056399
-0.5047,-15.094969569559943
-0.5056999999999999,-15.335470490536997
-0.5067,-15.519382959519453
