June 25, 2026   05:37:14
Cyclic Voltammetry
File: c:/users/guazh/data/20260623_doe_duplica2/2026-06-24-exp3\exp3-2026-06-25t05_32_19-h2koh\exp3_cv_50mvs_efin_-1400mv.bin
Data Source:  Experiment
Instrument Model:  CHI760E
Header: CV ran at 50 mVs
Note: 

Init E (V) = -1
High E (V) = -1
Low E (V) = -1.4
Final E (V) = -1
Init P/N = N
Scan Rate (V/s) = 0.05
Segment = 7
Sample Interval (V) = 0.001
Quiet Time (sec) = 60
Sensitivity (A/V) = 0.001
Comp R (ohm) = 2.0

Results:

Channel 1:
Segment 1:

Segment 2:

Segment 3:

Segment 4:

Segment 5:

Segment 6:

Segment 7:

Potential/V, Current/A

-1.000, 2.024e-5
-1.001, 2.759e-5
-1.002, 2.917e-5
-1.003, 2.980e-5
-1.004, 3.066e-5
-1.005, 3.122e-5
-1.006, 3.168e-5
-1.007, 3.257e-5
-1.008, 3.267e-5
-1.009, 3.329e-5
-1.010, 3.380e-5
-1.011, 3.393e-5
-1.012, 3.462e-5
-1.013, 3.474e-5
-1.014, 3.513e-5
-1.015, 3.561e-5
-1.016, 3.573e-5
-1.017, 3.597e-5
-1.018, 3.650e-5
-1.019, 3.688e-5
-1.020, 3.706e-5
-1.021, 3.725e-5
-1.022, 3.742e-5
-1.023, 3.792e-5
-1.024, 3.834e-5
-1.025, 3.819e-5
-1.026, 3.866e-5
-1.027, 3.875e-5
-1.028, 3.912e-5
-1.029, 3.933e-5
-1.030, 3.944e-5
-1.031, 3.981e-5
-1.032, 3.989e-5
-1.033, 4.011e-5
-1.034, 4.055e-5
-1.035, 4.050e-5
-1.036, 4.079e-5
-1.037, 4.112e-5
-1.038, 4.116e-5
-1.039, 4.152e-5
-1.040, 4.162e-5
-1.041, 4.180e-5
-1.042, 4.232e-5
-1.043, 4.216e-5
-1.044, 4.266e-5
-1.045, 4.270e-5
-1.046, 4.285e-5
-1.047, 4.344e-5
-1.048, 4.338e-5
-1.049, 4.376e-5
-1.050, 4.398e-5
-1.051, 4.415e-5
-1.052, 4.447e-5
-1.053, 4.467e-5
-1.054, 4.482e-5
-1.055, 4.531e-5
-1.056, 4.547e-5
-1.057, 4.558e-5
-1.058, 4.617e-5
-1.059, 4.626e-5
-1.060, 4.658e-5
-1.061, 4.682e-5
-1.062, 4.717e-5
-1.063, 4.761e-5
-1.064, 4.765e-5
-1.065, 4.810e-5
-1.066, 4.856e-5
-1.067, 4.864e-5
-1.068, 4.897e-5
-1.069, 4.949e-5
-1.070, 4.967e-5
-1.071, 5.028e-5
-1.072, 5.039e-5
-1.073, 5.097e-5
-1.074, 5.146e-5
-1.075, 5.207e-5
-1.076, 5.223e-5
-1.077, 5.261e-5
-1.078, 5.296e-5
-1.079, 5.390e-5
-1.080, 5.395e-5
-1.081, 5.445e-5
-1.082, 5.522e-5
-1.083, 5.543e-5
-1.084, 5.622e-5
-1.085, 5.655e-5
-1.086, 5.703e-5
-1.087, 5.801e-5
-1.088, 5.826e-5
-1.089, 5.913e-5
-1.090, 5.969e-5
-1.091, 6.024e-5
-1.092, 6.115e-5
-1.093, 6.165e-5
-1.094, 6.235e-5
-1.095, 6.328e-5
-1.096, 6.381e-5
-1.097, 6.472e-5
-1.098, 6.561e-5
-1.099, 6.645e-5
-1.100, 6.736e-5
-1.101, 6.829e-5
-1.102, 6.907e-5
-1.103, 7.027e-5
-1.104, 7.106e-5
-1.105, 7.209e-5
-1.106, 7.328e-5
-1.107, 7.419e-5
-1.108, 7.551e-5
-1.109, 7.645e-5
-1.110, 7.769e-5
-1.111, 7.914e-5
-1.112, 8.018e-5
-1.113, 8.155e-5
-1.114, 8.302e-5
-1.115, 8.430e-5
-1.116, 8.590e-5
-1.117, 8.725e-5
-1.118, 8.886e-5
-1.119, 9.040e-5
-1.120, 9.193e-5
-1.121, 9.350e-5
-1.122, 9.552e-5
-1.123, 9.711e-5
-1.124, 9.912e-5
-1.125, 1.008e-4
-1.126, 1.027e-4
-1.127, 1.050e-4
-1.128, 1.066e-4
-1.129, 1.088e-4
-1.130, 1.110e-4
-1.131, 1.129e-4
-1.132, 1.155e-4
-1.133, 1.176e-4
-1.134, 1.199e-4
-1.135, 1.225e-4
-1.136, 1.247e-4
-1.137, 1.276e-4
-1.138, 1.302e-4
-1.139, 1.326e-4
-1.140, 1.356e-4
-1.141, 1.383e-4
-1.142, 1.410e-4
-1.143, 1.443e-4
-1.144, 1.470e-4
-1.145, 1.502e-4
-1.146, 1.536e-4
-1.147, 1.566e-4
-1.148, 1.602e-4
-1.149, 1.635e-4
-1.150, 1.669e-4
-1.151, 1.708e-4
-1.152, 1.742e-4
-1.153, 1.779e-4
-1.154, 1.820e-4
-1.155, 1.855e-4
-1.156, 1.899e-4
-1.157, 1.937e-4
-1.158, 1.977e-4
-1.159, 2.025e-4
-1.160, 2.064e-4
-1.161, 2.110e-4
-1.162, 2.155e-4
-1.163, 2.199e-4
-1.164, 2.247e-4
-1.165, 2.294e-4
-1.166, 2.345e-4
-1.167, 2.396e-4
-1.168, 2.444e-4
-1.169, 2.497e-4
-1.170, 2.552e-4
-1.171, 2.601e-4
-1.172, 2.658e-4
-1.173, 2.716e-4
-1.174, 2.771e-4
-1.175, 2.830e-4
-1.176, 2.885e-4
-1.177, 2.949e-4
-1.178, 3.012e-4
-1.179, 3.069e-4
-1.180, 3.135e-4
-1.181, 3.196e-4
-1.182, 3.260e-4
-1.183, 3.330e-4
-1.184, 3.396e-4
-1.185, 3.465e-4
-1.186, 3.534e-4
-1.187, 3.601e-4
-1.188, 3.672e-4
-1.189, 3.741e-4
-1.190, 3.814e-4
-1.191, 3.890e-4
-1.192, 3.963e-4
-1.193, 4.037e-4
-1.194, 4.113e-4
-1.195, 4.186e-4
-1.196, 4.268e-4
-1.197, 4.344e-4
-1.198, 4.421e-4
-1.199, 4.505e-4
-1.200, 4.580e-4
-1.201, 4.667e-4
-1.202, 4.747e-4
-1.203, 4.829e-4
-1.204, 4.913e-4
-1.205, 4.994e-4
-1.206, 5.076e-4
-1.207, 5.164e-4
-1.208, 5.245e-4
-1.209, 5.331e-4
-1.210, 5.417e-4
-1.211, 5.504e-4
-1.212, 5.590e-4
-1.213, 5.672e-4
-1.214, 5.760e-4
-1.215, 5.850e-4
-1.216, 5.933e-4
-1.217, 6.019e-4
-1.218, 6.110e-4
-1.219, 6.196e-4
-1.220, 6.284e-4
-1.221, 6.370e-4
-1.222, 6.459e-4
-1.223, 6.555e-4
-1.224, 6.635e-4
-1.225, 6.720e-4
-1.226, 6.806e-4
-1.227, 6.892e-4
-1.228, 6.989e-4
-1.229, 7.085e-4
-1.230, 7.160e-4
-1.231, 7.249e-4
-1.232, 7.333e-4
-1.233, 7.420e-4
-1.234, 7.507e-4
-1.235, 7.590e-4
-1.236, 7.679e-4
-1.237, 7.760e-4
-1.238, 7.843e-4
-1.239, 7.932e-4
-1.240, 8.014e-4
-1.241, 8.099e-4
-1.242, 8.188e-4
-1.243, 8.273e-4
-1.244, 8.360e-4
-1.245, 8.443e-4
-1.246, 8.527e-4
-1.247, 8.616e-4
-1.248, 8.700e-4
-1.249, 8.791e-4
-1.250, 8.881e-4
-1.251, 8.964e-4
-1.252, 9.057e-4
-1.253, 9.146e-4
-1.254, 9.236e-4
-1.255, 9.330e-4
-1.256, 9.424e-4
-1.257, 9.518e-4
-1.258, 9.613e-4
-1.259, 9.710e-4
-1.260, 9.812e-4
-1.261, 9.911e-4
-1.262, 1.002e-3
-1.263, 1.012e-3
-1.264, 1.022e-3
-1.265, 1.032e-3
-1.266, 1.043e-3
-1.267, 1.054e-3
-1.268, 1.066e-3
-1.269, 1.077e-3
-1.270, 1.089e-3
-1.271, 1.101e-3
-1.272, 1.113e-3
-1.273, 1.125e-3
-1.274, 1.137e-3
-1.275, 1.150e-3
-1.276, 1.163e-3
-1.277, 1.176e-3
-1.278, 1.190e-3
-1.279, 1.204e-3
-1.280, 1.218e-3
-1.281, 1.233e-3
-1.282, 1.248e-3
-1.283, 1.262e-3
-1.284, 1.277e-3
-1.285, 1.292e-3
-1.286, 1.307e-3
-1.287, 1.323e-3
-1.288, 1.339e-3
-1.289, 1.356e-3
-1.290, 1.373e-3
-1.291, 1.389e-3
-1.292, 1.407e-3
-1.293, 1.424e-3
-1.294, 1.442e-3
-1.295, 1.460e-3
-1.296, 1.478e-3
-1.297, 1.496e-3
-1.298, 1.515e-3
-1.299, 1.534e-3
-1.300, 1.554e-3
-1.301, 1.574e-3
-1.302, 1.594e-3
-1.303, 1.614e-3
-1.304, 1.634e-3
-1.305, 1.655e-3
-1.306, 1.677e-3
-1.307, 1.699e-3
-1.308, 1.720e-3
-1.309, 1.741e-3
-1.310, 1.763e-3
-1.311, 1.785e-3
-1.312, 1.808e-3
-1.313, 1.830e-3
-1.314, 1.853e-3
-1.315, 1.878e-3
-1.316, 1.902e-3
-1.317, 1.925e-3
-1.318, 1.949e-3
-1.319, 1.973e-3
-1.320, 1.997e-3
-1.321, 2.022e-3
-1.322, 2.047e-3
-1.323, 2.073e-3
-1.324, 2.099e-3
-1.325, 2.125e-3
-1.326, 2.153e-3
-1.327, 2.180e-3
-1.328, 2.205e-3
-1.329, 2.231e-3
-1.330, 2.258e-3
-1.331, 2.286e-3
-1.332, 2.315e-3
-1.333, 2.343e-3
-1.334, 2.372e-3
-1.335, 2.401e-3
-1.336, 2.433e-3
-1.337, 2.463e-3
-1.338, 2.494e-3
-1.339, 2.525e-3
-1.340, 2.558e-3
-1.341, 2.590e-3
-1.342, 2.623e-3
-1.343, 2.656e-3
-1.344, 2.691e-3
-1.345, 2.725e-3
-1.346, 2.759e-3
-1.347, 2.795e-3
-1.348, 2.829e-3
-1.349, 2.864e-3
-1.350, 2.898e-3
-1.351, 2.933e-3
-1.352, 2.966e-3
-1.353, 2.999e-3
-1.354, 3.030e-3
-1.355, 3.061e-3
-1.356, 3.092e-3
-1.357, 3.121e-3
-1.358, 3.147e-3
-1.359, 3.173e-3
-1.360, 3.194e-3
-1.361, 3.212e-3
-1.362, 3.227e-3
-1.363, 3.244e-3
-1.364, 3.258e-3
-1.365, 3.266e-3
-1.366, 3.273e-3
-1.367, 3.279e-3
-1.368, 3.282e-3
-1.369, 3.283e-3
-1.370, 3.283e-3
-1.371, 3.281e-3
-1.372, 3.275e-3
-1.373, 3.269e-3
-1.374, 3.262e-3
-1.375, 3.255e-3
-1.376, 3.245e-3
-1.377, 3.236e-3
-1.378, 3.228e-3
-1.379, 3.218e-3
-1.380, 3.208e-3
-1.381, 3.199e-3
-1.382, 3.193e-3
-1.383, 3.186e-3
-1.384, 3.179e-3
-1.385, 3.176e-3
-1.386, 3.176e-3
-1.387, 3.177e-3
-1.388, 3.176e-3
-1.389, 3.176e-3
-1.390, 3.179e-3
-1.391, 3.185e-3
-1.392, 3.193e-3
-1.393, 3.203e-3
-1.394, 3.213e-3
-1.395, 3.227e-3
-1.396, 3.242e-3
-1.397, 3.258e-3
-1.398, 3.276e-3
-1.399, 3.294e-3
-1.400, 3.240e-3
-1.399, 3.154e-3
-1.398, 3.084e-3
-1.397, 3.018e-3
-1.396, 2.955e-3
-1.395, 2.895e-3
-1.394, 2.837e-3
-1.393, 2.781e-3
-1.392, 2.729e-3
-1.391, 2.678e-3
-1.390, 2.628e-3
-1.389, 2.581e-3
-1.388, 2.533e-3
-1.387, 2.487e-3
-1.386, 2.442e-3
-1.385, 2.399e-3
-1.384, 2.357e-3
-1.383, 2.315e-3
-1.382, 2.277e-3
-1.381, 2.237e-3
-1.380, 2.198e-3
-1.379, 2.161e-3
-1.378, 2.124e-3
-1.377, 2.088e-3
-1.376, 2.053e-3
-1.375, 2.018e-3
-1.374, 1.984e-3
-1.373, 1.951e-3
-1.372, 1.918e-3
-1.371, 1.885e-3
-1.370, 1.853e-3
-1.369, 1.822e-3
-1.368, 1.791e-3
-1.367, 1.761e-3
-1.366, 1.731e-3
-1.365, 1.703e-3
-1.364, 1.674e-3
-1.363, 1.646e-3
-1.362, 1.618e-3
-1.361, 1.590e-3
-1.360, 1.562e-3
-1.359, 1.535e-3
-1.358, 1.509e-3
-1.357, 1.483e-3
-1.356, 1.458e-3
-1.355, 1.433e-3
-1.354, 1.407e-3
-1.353, 1.382e-3
-1.352, 1.359e-3
-1.351, 1.335e-3
-1.350, 1.311e-3
-1.349, 1.288e-3
-1.348, 1.266e-3
-1.347, 1.243e-3
-1.346, 1.221e-3
-1.345, 1.199e-3
-1.344, 1.178e-3
-1.343, 1.157e-3
-1.342, 1.135e-3
-1.341, 1.115e-3
-1.340, 1.094e-3
-1.339, 1.075e-3
-1.338, 1.056e-3
-1.337, 1.036e-3
-1.336, 1.017e-3
-1.335, 9.973e-4
-1.334, 9.784e-4
-1.333, 9.598e-4
-1.332, 9.414e-4
-1.331, 9.238e-4
-1.330, 9.061e-4
-1.329, 8.885e-4
-1.328, 8.716e-4
-1.327, 8.545e-4
-1.326, 8.374e-4
-1.325, 8.210e-4
-1.324, 8.048e-4
-1.323, 7.885e-4
-1.322, 7.728e-4
-1.321, 7.567e-4
-1.320, 7.418e-4
-1.319, 7.265e-4
-1.318, 7.112e-4
-1.317, 6.964e-4
-1.316, 6.821e-4
-1.315, 6.673e-4
-1.314, 6.533e-4
-1.313, 6.388e-4
-1.312, 6.251e-4
-1.311, 6.117e-4
-1.310, 5.977e-4
-1.309, 5.846e-4
-1.308, 5.716e-4
-1.307, 5.589e-4
-1.306, 5.459e-4
-1.305, 5.328e-4
-1.304, 5.204e-4
-1.303, 5.078e-4
-1.302, 4.956e-4
-1.301, 4.839e-4
-1.300, 4.719e-4
-1.299, 4.603e-4
-1.298, 4.488e-4
-1.297, 4.369e-4
-1.296, 4.265e-4
-1.295, 4.151e-4
-1.294, 4.041e-4
-1.293, 3.933e-4
-1.292, 3.828e-4
-1.291, 3.721e-4
-1.290, 3.619e-4
-1.289, 3.516e-4
-1.288, 3.417e-4
-1.287, 3.318e-4
-1.286, 3.219e-4
-1.285, 3.124e-4
-1.284, 3.027e-4
-1.283, 2.932e-4
-1.282, 2.844e-4
-1.281, 2.750e-4
-1.280, 2.654e-4
-1.279, 2.568e-4
-1.278, 2.479e-4
-1.277, 2.395e-4
-1.276, 2.310e-4
-1.275, 2.225e-4
-1.274, 2.144e-4
-1.273, 2.059e-4
-1.272, 1.984e-4
-1.271, 1.903e-4
-1.270, 1.825e-4
-1.269, 1.748e-4
-1.268, 1.674e-4
-1.267, 1.597e-4
-1.266, 1.525e-4
-1.265, 1.449e-4
-1.264, 1.383e-4
-1.263, 1.311e-4
-1.262, 1.240e-4
-1.261, 1.176e-4
-1.260, 1.109e-4
-1.259, 1.044e-4
-1.258, 9.814e-5
-1.257, 9.143e-5
-1.256, 8.554e-5
-1.255, 7.909e-5
-1.254, 7.262e-5
-1.253, 6.706e-5
-1.252, 6.090e-5
-1.251, 5.551e-5
-1.250, 4.995e-5
-1.249, 4.427e-5
-1.248, 3.909e-5
-1.247, 3.339e-5
-1.246, 2.814e-5
-1.245, 2.324e-5
-1.244, 1.809e-5
-1.243, 1.303e-5
-1.242, 8.481e-6
-1.241, 3.288e-6
-1.240, -1.033e-6
-1.239, -5.655e-6
-1.238, -1.021e-5
-1.237, -1.443e-5
-1.236, -1.878e-5
-1.235, -2.319e-5
-1.234, -2.702e-5
-1.233, -3.142e-5
-1.232, -3.487e-5
-1.231, -3.849e-5
-1.230, -4.254e-5
-1.229, -4.681e-5
-1.228, -4.993e-5
-1.227, -5.332e-5
-1.226, -5.659e-5
-1.225, -6.001e-5
-1.224, -6.273e-5
-1.223, -6.581e-5
-1.222, -6.887e-5
-1.221, -7.156e-5
-1.220, -7.472e-5
-1.219, -7.719e-5
-1.218, -7.960e-5
-1.217, -8.234e-5
-1.216, -8.476e-5
-1.215, -8.710e-5
-1.214, -8.976e-5
-1.213, -9.162e-5
-1.212, -9.381e-5
-1.211, -9.594e-5
-1.210, -9.777e-5
-1.209, -9.986e-5
-1.208, -1.011e-4
-1.207, -1.028e-4
-1.206, -1.048e-4
-1.205, -1.065e-4
-1.204, -1.080e-4
-1.203, -1.097e-4
-1.202, -1.110e-4
-1.201, -1.126e-4
-1.200, -1.135e-4
-1.199, -1.147e-4
-1.198, -1.162e-4
-1.197, -1.171e-4
-1.196, -1.183e-4
-1.195, -1.195e-4
-1.194, -1.202e-4
-1.193, -1.214e-4
-1.192, -1.222e-4
-1.191, -1.230e-4
-1.190, -1.239e-4
-1.189, -1.245e-4
-1.188, -1.253e-4
-1.187, -1.263e-4
-1.186, -1.269e-4
-1.185, -1.277e-4
-1.184, -1.281e-4
-1.183, -1.289e-4
-1.182, -1.298e-4
-1.181, -1.303e-4
-1.180, -1.308e-4
-1.179, -1.316e-4
-1.178, -1.324e-4
-1.177, -1.328e-4
-1.176, -1.332e-4
-1.175, -1.336e-4
-1.174, -1.344e-4
-1.173, -1.346e-4
-1.172, -1.353e-4
-1.171, -1.359e-4
-1.170, -1.362e-4
-1.169, -1.369e-4
-1.168, -1.371e-4
-1.167, -1.378e-4
-1.166, -1.387e-4
-1.165, -1.391e-4
-1.164, -1.398e-4
-1.163, -1.406e-4
-1.162, -1.409e-4
-1.161, -1.418e-4
-1.160, -1.422e-4
-1.159, -1.429e-4
-1.158, -1.438e-4
-1.157, -1.443e-4
-1.156, -1.451e-4
-1.155, -1.461e-4
-1.154, -1.465e-4
-1.153, -1.474e-4
-1.152, -1.480e-4
-1.151, -1.488e-4
-1.150, -1.499e-4
-1.149, -1.504e-4
-1.148, -1.512e-4
-1.147, -1.521e-4
-1.146, -1.528e-4
-1.145, -1.537e-4
-1.144, -1.541e-4
-1.143, -1.550e-4
-1.142, -1.561e-4
-1.141, -1.564e-4
-1.140, -1.572e-4
-1.139, -1.581e-4
-1.138, -1.587e-4
-1.137, -1.597e-4
-1.136, -1.604e-4
-1.135, -1.611e-4
-1.134, -1.621e-4
-1.133, -1.625e-4
-1.132, -1.632e-4
-1.131, -1.639e-4
-1.130, -1.643e-4
-1.129, -1.654e-4
-1.128, -1.657e-4
-1.127, -1.661e-4
-1.126, -1.670e-4
-1.125, -1.674e-4
-1.124, -1.677e-4
-1.123, -1.682e-4
-1.122, -1.683e-4
-1.121, -1.691e-4
-1.120, -1.690e-4
-1.119, -1.694e-4
-1.118, -1.698e-4
-1.117, -1.696e-4
-1.116, -1.698e-4
-1.115, -1.700e-4
-1.114, -1.698e-4
-1.113, -1.703e-4
-1.112, -1.696e-4
-1.111, -1.697e-4
-1.110, -1.697e-4
-1.109, -1.693e-4
-1.108, -1.690e-4
-1.107, -1.690e-4
-1.106, -1.687e-4
-1.105, -1.686e-4
-1.104, -1.679e-4
-1.103, -1.675e-4
-1.102, -1.671e-4
-1.101, -1.666e-4
-1.100, -1.661e-4
-1.099, -1.657e-4
-1.098, -1.649e-4
-1.097, -1.645e-4
-1.096, -1.635e-4
-1.095, -1.626e-4
-1.094, -1.621e-4
-1.093, -1.611e-4
-1.092, -1.601e-4
-1.091, -1.594e-4
-1.090, -1.584e-4
-1.089, -1.579e-4
-1.088, -1.565e-4
-1.087, -1.556e-4
-1.086, -1.545e-4
-1.085, -1.531e-4
-1.084, -1.521e-4
-1.083, -1.510e-4
-1.082, -1.498e-4
-1.081, -1.488e-4
-1.080, -1.474e-4
-1.079, -1.462e-4
-1.078, -1.452e-4
-1.077, -1.435e-4
-1.076, -1.425e-4
-1.075, -1.416e-4
-1.074, -1.399e-4
-1.073, -1.390e-4
-1.072, -1.375e-4
-1.071, -1.361e-4
-1.070, -1.351e-4
-1.069, -1.337e-4
-1.068, -1.326e-4
-1.067, -1.314e-4
-1.066, -1.300e-4
-1.065, -1.293e-4
-1.064, -1.278e-4
-1.063, -1.269e-4
-1.062, -1.257e-4
-1.061, -1.245e-4
-1.060, -1.233e-4
-1.059, -1.223e-4
-1.058, -1.209e-4
-1.057, -1.202e-4
-1.056, -1.190e-4
-1.055, -1.179e-4
-1.054, -1.172e-4
-1.053, -1.158e-4
-1.052, -1.150e-4
-1.051, -1.142e-4
-1.050, -1.132e-4
-1.049, -1.126e-4
-1.048, -1.113e-4
-1.047, -1.105e-4
-1.046, -1.099e-4
-1.045, -1.088e-4
-1.044, -1.080e-4
-1.043, -1.074e-4
-1.042, -1.065e-4
-1.041, -1.061e-4
-1.040, -1.050e-4
-1.039, -1.043e-4
-1.038, -1.039e-4
-1.037, -1.029e-4
-1.036, -1.026e-4
-1.035, -1.017e-4
-1.034, -1.011e-4
-1.033, -1.006e-4
-1.032, -9.970e-5
-1.031, -9.915e-5
-1.030, -9.881e-5
-1.029, -9.810e-5
-1.028, -9.756e-5
-1.027, -9.696e-5
-1.026, -9.631e-5
-1.025, -9.602e-5
-1.024, -9.550e-5
-1.023, -9.474e-5
-1.022, -9.437e-5
-1.021, -9.365e-5
-1.020, -9.330e-5
-1.019, -9.296e-5
-1.018, -9.229e-5
-1.017, -9.203e-5
-1.016, -9.130e-5
-1.015, -9.094e-5
-1.014, -9.075e-5
-1.013, -9.012e-5
-1.012, -8.986e-5
-1.011, -8.952e-5
-1.010, -8.902e-5
-1.009, -8.898e-5
-1.008, -8.841e-5
-1.007, -8.807e-5
-1.006, -8.798e-5
-1.005, -8.767e-5
-1.004, -8.717e-5
-1.003, -8.712e-5
-1.002, -8.650e-5
-1.001, -8.661e-5
-1.000, -4.500e-5
-1.001, -2.850e-5
-1.002, -2.483e-5
-1.003, -2.224e-5
-1.004, -1.966e-5
-1.005, -1.760e-5
-1.006, -1.582e-5
-1.007, -1.360e-5
-1.008, -1.239e-5
-1.009, -1.070e-5
-1.010, -9.342e-6
-1.011, -8.004e-6
-1.012, -6.606e-6
-1.013, -5.552e-6
-1.014, -4.340e-6
-1.015, -3.000e-6
-1.016, -2.262e-6
-1.017, -1.013e-6
-1.018, -2.684e-8
-1.019, 8.049e-7
-1.020, 1.810e-6
-1.021, 2.615e-6
-1.022, 3.508e-6
-1.023, 4.484e-6
-1.024, 5.411e-6
-1.025, 5.793e-6
-1.026, 6.851e-6
-1.027, 7.258e-6
-1.028, 8.129e-6
-1.029, 8.774e-6
-1.030, 9.466e-6
-1.031, 1.040e-5
-1.032, 1.071e-5
-1.033, 1.154e-5
-1.034, 1.209e-5
-1.035, 1.257e-5
-1.036, 1.337e-5
-1.037, 1.391e-5
-1.038, 1.437e-5
-1.039, 1.514e-5
-1.040, 1.546e-5
-1.041, 1.603e-5
-1.042, 1.674e-5
-1.043, 1.711e-5
-1.044, 1.783e-5
-1.045, 1.807e-5
-1.046, 1.875e-5
-1.047, 1.934e-5
-1.048, 1.971e-5
-1.049, 2.022e-5
-1.050, 2.078e-5
-1.051, 2.106e-5
-1.052, 2.178e-5
-1.053, 2.220e-5
-1.054, 2.241e-5
-1.055, 2.315e-5
-1.056, 2.343e-5
-1.057, 2.390e-5
-1.058, 2.467e-5
-1.059, 2.470e-5
-1.060, 2.548e-5
-1.061, 2.579e-5
-1.062, 2.623e-5
-1.063, 2.696e-5
-1.064, 2.690e-5
-1.065, 2.766e-5
-1.066, 2.813e-5
-1.067, 2.841e-5
-1.068, 2.911e-5
-1.069, 2.947e-5
-1.070, 2.969e-5
-1.071, 3.054e-5
-1.072, 3.061e-5
-1.073, 3.121e-5
-1.074, 3.177e-5
-1.075, 3.250e-5
-1.076, 3.259e-5
-1.077, 3.311e-5
-1.078, 3.371e-5
-1.079, 3.421e-5
-1.080, 3.449e-5
-1.081, 3.502e-5
-1.082, 3.580e-5
-1.083, 3.599e-5
-1.084, 3.674e-5
-1.085, 3.701e-5
-1.086, 3.756e-5
-1.087, 3.827e-5
-1.088, 3.875e-5
-1.089, 3.920e-5
-1.090, 3.991e-5
-1.091, 4.021e-5
-1.092, 4.092e-5
-1.093, 4.148e-5
-1.094, 4.197e-5
-1.095, 4.290e-5
-1.096, 4.317e-5
-1.097, 4.382e-5
-1.098, 4.488e-5
-1.099, 4.493e-5
-1.100, 4.599e-5
-1.101, 4.651e-5
-1.102, 4.702e-5
-1.103, 4.800e-5
-1.104, 4.837e-5
-1.105, 4.911e-5
-1.106, 4.997e-5
-1.107, 5.043e-5
-1.108, 5.145e-5
-1.109, 5.201e-5
-1.110, 5.282e-5
-1.111, 5.365e-5
-1.112, 5.412e-5
-1.113, 5.511e-5
-1.114, 5.602e-5
-1.115, 5.640e-5
-1.116, 5.762e-5
-1.117, 5.834e-5
-1.118, 5.908e-5
-1.119, 6.014e-5
-1.120, 6.069e-5
-1.121, 6.173e-5
-1.122, 6.274e-5
-1.123, 6.335e-5
-1.124, 6.462e-5
-1.125, 6.546e-5
-1.126, 6.623e-5
-1.127, 6.739e-5
-1.128, 6.807e-5
-1.129, 6.903e-5
-1.130, 7.033e-5
-1.131, 7.096e-5
-1.132, 7.224e-5
-1.133, 7.307e-5
-1.134, 7.393e-5
-1.135, 7.527e-5
-1.136, 7.608e-5
-1.137, 7.714e-5
-1.138, 7.845e-5
-1.139, 7.916e-5
-1.140, 8.058e-5
-1.141, 8.142e-5
-1.142, 8.234e-5
-1.143, 8.382e-5
-1.144, 8.467e-5
-1.145, 8.581e-5
-1.146, 8.716e-5
-1.147, 8.801e-5
-1.148, 8.946e-5
-1.149, 9.053e-5
-1.150, 9.137e-5
-1.151, 9.288e-5
-1.152, 9.378e-5
-1.153, 9.502e-5
-1.154, 9.643e-5
-1.155, 9.748e-5
-1.156, 9.883e-5
-1.157, 9.977e-5
-1.158, 1.011e-4
-1.159, 1.025e-4
-1.160, 1.034e-4
-1.161, 1.048e-4
-1.162, 1.062e-4
-1.163, 1.072e-4
-1.164, 1.087e-4
-1.165, 1.097e-4
-1.166, 1.111e-4
-1.167, 1.123e-4
-1.168, 1.135e-4
-1.169, 1.148e-4
-1.170, 1.161e-4
-1.171, 1.173e-4
-1.172, 1.188e-4
-1.173, 1.201e-4
-1.174, 1.212e-4
-1.175, 1.227e-4
-1.176, 1.237e-4
-1.177, 1.253e-4
-1.178, 1.268e-4
-1.179, 1.276e-4
-1.180, 1.291e-4
-1.181, 1.303e-4
-1.182, 1.315e-4
-1.183, 1.330e-4
-1.184, 1.340e-4
-1.185, 1.354e-4
-1.186, 1.369e-4
-1.187, 1.378e-4
-1.188, 1.394e-4
-1.189, 1.406e-4
-1.190, 1.418e-4
-1.191, 1.433e-4
-1.192, 1.444e-4
-1.193, 1.459e-4
-1.194, 1.472e-4
-1.195, 1.482e-4
-1.196, 1.499e-4
-1.197, 1.510e-4
-1.198, 1.523e-4
-1.199, 1.538e-4
-1.200, 1.547e-4
-1.201, 1.564e-4
-1.202, 1.579e-4
-1.203, 1.591e-4
-1.204, 1.604e-4
-1.205, 1.616e-4
-1.206, 1.631e-4
-1.207, 1.648e-4
-1.208, 1.661e-4
-1.209, 1.675e-4
-1.210, 1.691e-4
-1.211, 1.705e-4
-1.212, 1.721e-4
-1.213, 1.738e-4
-1.214, 1.750e-4
-1.215, 1.772e-4
-1.216, 1.787e-4
-1.217, 1.803e-4
-1.218, 1.824e-4
-1.219, 1.840e-4
-1.220, 1.861e-4
-1.221, 1.878e-4
-1.222, 1.900e-4
-1.223, 1.923e-4
-1.224, 1.941e-4
-1.225, 1.964e-4
-1.226, 1.987e-4
-1.227, 2.009e-4
-1.228, 2.039e-4
-1.229, 2.067e-4
-1.230, 2.086e-4
-1.231, 2.116e-4
-1.232, 2.142e-4
-1.233, 2.169e-4
-1.234, 2.199e-4
-1.235, 2.229e-4
-1.236, 2.263e-4
-1.237, 2.291e-4
-1.238, 2.326e-4
-1.239, 2.360e-4
-1.240, 2.392e-4
-1.241, 2.430e-4
-1.242, 2.467e-4
-1.243, 2.504e-4
-1.244, 2.544e-4
-1.245, 2.580e-4
-1.246, 2.622e-4
-1.247, 2.662e-4
-1.248, 2.704e-4
-1.249, 2.747e-4
-1.250, 2.792e-4
-1.251, 2.833e-4
-1.252, 2.882e-4
-1.253, 2.928e-4
-1.254, 2.976e-4
-1.255, 3.024e-4
-1.256, 3.072e-4
-1.257, 3.124e-4
-1.258, 3.177e-4
-1.259, 3.225e-4
-1.260, 3.282e-4
-1.261, 3.336e-4
-1.262, 3.389e-4
-1.263, 3.449e-4
-1.264, 3.500e-4
-1.265, 3.561e-4
-1.266, 3.623e-4
-1.267, 3.680e-4
-1.268, 3.744e-4
-1.269, 3.801e-4
-1.270, 3.864e-4
-1.271, 3.930e-4
-1.272, 3.994e-4
-1.273, 4.059e-4
-1.274, 4.127e-4
-1.275, 4.193e-4
-1.276, 4.265e-4
-1.277, 4.333e-4
-1.278, 4.403e-4
-1.279, 4.475e-4
-1.280, 4.552e-4
-1.281, 4.625e-4
-1.282, 4.698e-4
-1.283, 4.773e-4
-1.284, 4.852e-4
-1.285, 4.929e-4
-1.286, 5.009e-4
-1.287, 5.092e-4
-1.288, 5.173e-4
-1.289, 5.254e-4
-1.290, 5.335e-4
-1.291, 5.419e-4
-1.292, 5.508e-4
-1.293, 5.594e-4
-1.294, 5.682e-4
-1.295, 5.774e-4
-1.296, 5.863e-4
-1.297, 5.955e-4
-1.298, 6.049e-4
-1.299, 6.141e-4
-1.300, 6.240e-4
-1.301, 6.335e-4
-1.302, 6.433e-4
-1.303, 6.537e-4
-1.304, 6.635e-4
-1.305, 6.740e-4
-1.306, 6.844e-4
-1.307, 6.946e-4
-1.308, 7.054e-4
-1.309, 7.158e-4
-1.310, 7.272e-4
-1.311, 7.390e-4
-1.312, 7.498e-4
-1.313, 7.611e-4
-1.314, 7.726e-4
-1.315, 7.843e-4
-1.316, 7.965e-4
-1.317, 8.085e-4
-1.318, 8.208e-4
-1.319, 8.337e-4
-1.320, 8.461e-4
-1.321, 8.589e-4
-1.322, 8.718e-4
-1.323, 8.848e-4
-1.324, 8.985e-4
-1.325, 9.117e-4
-1.326, 9.255e-4
-1.327, 9.395e-4
-1.328, 9.537e-4
-1.329, 9.680e-4
-1.330, 9.829e-4
-1.331, 9.966e-4
-1.332, 1.012e-3
-1.333, 1.027e-3
-1.334, 1.043e-3
-1.335, 1.058e-3
-1.336, 1.073e-3
-1.337, 1.089e-3
-1.338, 1.106e-3
-1.339, 1.122e-3
-1.340, 1.139e-3
-1.341, 1.156e-3
-1.342, 1.172e-3
-1.343, 1.189e-3
-1.344, 1.207e-3
-1.345, 1.226e-3
-1.346, 1.244e-3
-1.347, 1.262e-3
-1.348, 1.280e-3
-1.349, 1.299e-3
-1.350, 1.318e-3
-1.351, 1.338e-3
-1.352, 1.357e-3
-1.353, 1.377e-3
-1.354, 1.397e-3
-1.355, 1.417e-3
-1.356, 1.437e-3
-1.357, 1.458e-3
-1.358, 1.479e-3
-1.359, 1.501e-3
-1.360, 1.522e-3
-1.361, 1.544e-3
-1.362, 1.566e-3
-1.363, 1.588e-3
-1.364, 1.611e-3
-1.365, 1.634e-3
-1.366, 1.657e-3
-1.367, 1.680e-3
-1.368, 1.704e-3
-1.369, 1.728e-3
-1.370, 1.753e-3
-1.371, 1.777e-3
-1.372, 1.802e-3
-1.373, 1.826e-3
-1.374, 1.852e-3
-1.375, 1.878e-3
-1.376, 1.904e-3
-1.377, 1.930e-3
-1.378, 1.957e-3
-1.379, 1.984e-3
-1.380, 2.011e-3
-1.381, 2.037e-3
-1.382, 2.065e-3
-1.383, 2.093e-3
-1.384, 2.122e-3
-1.385, 2.150e-3
-1.386, 2.178e-3
-1.387, 2.206e-3
-1.388, 2.235e-3
-1.389, 2.264e-3
-1.390, 2.294e-3
-1.391, 2.324e-3
-1.392, 2.353e-3
-1.393, 2.383e-3
-1.394, 2.416e-3
-1.395, 2.446e-3
-1.396, 2.477e-3
-1.397, 2.509e-3
-1.398, 2.539e-3
-1.399, 2.572e-3
-1.400, 2.542e-3
-1.399, 2.493e-3
-1.398, 2.453e-3
-1.397, 2.415e-3
-1.396, 2.378e-3
-1.395, 2.341e-3
-1.394, 2.306e-3
-1.393, 2.272e-3
-1.392, 2.237e-3
-1.391, 2.204e-3
-1.390, 2.170e-3
-1.389, 2.138e-3
-1.388, 2.106e-3
-1.387, 2.076e-3
-1.386, 2.045e-3
-1.385, 2.013e-3
-1.384, 1.981e-3
-1.383, 1.951e-3
-1.382, 1.921e-3
-1.381, 1.892e-3
-1.380, 1.864e-3
-1.379, 1.835e-3
-1.378, 1.807e-3
-1.377, 1.779e-3
-1.376, 1.753e-3
-1.375, 1.726e-3
-1.374, 1.699e-3
-1.373, 1.674e-3
-1.372, 1.648e-3
-1.371, 1.622e-3
-1.370, 1.597e-3
-1.369, 1.572e-3
-1.368, 1.548e-3
-1.367, 1.524e-3
-1.366, 1.501e-3
-1.365, 1.478e-3
-1.364, 1.454e-3
-1.363, 1.431e-3
-1.362, 1.408e-3
-1.361, 1.386e-3
-1.360, 1.365e-3
-1.359, 1.343e-3
-1.358, 1.321e-3
-1.357, 1.301e-3
-1.356, 1.279e-3
-1.355, 1.259e-3
-1.354, 1.239e-3
-1.353, 1.219e-3
-1.352, 1.199e-3
-1.351, 1.179e-3
-1.350, 1.160e-3
-1.349, 1.141e-3
-1.348, 1.122e-3
-1.347, 1.104e-3
-1.346, 1.086e-3
-1.345, 1.067e-3
-1.344, 1.049e-3
-1.343, 1.032e-3
-1.342, 1.015e-3
-1.341, 9.981e-4
-1.340, 9.811e-4
-1.339, 9.641e-4
-1.338, 9.478e-4
-1.337, 9.313e-4
-1.336, 9.155e-4
-1.335, 8.998e-4
-1.334, 8.841e-4
-1.333, 8.687e-4
-1.332, 8.538e-4
-1.331, 8.383e-4
-1.330, 8.236e-4
-1.329, 8.088e-4
-1.328, 7.944e-4
-1.327, 7.802e-4
-1.326, 7.665e-4
-1.325, 7.528e-4
-1.324, 7.389e-4
-1.323, 7.253e-4
-1.322, 7.122e-4
-1.321, 6.982e-4
-1.320, 6.854e-4
-1.319, 6.726e-4
-1.318, 6.601e-4
-1.317, 6.478e-4
-1.316, 6.352e-4
-1.315, 6.228e-4
-1.314, 6.110e-4
-1.313, 5.989e-4
-1.312, 5.874e-4
-1.311, 5.758e-4
-1.310, 5.643e-4
-1.309, 5.534e-4
-1.308, 5.418e-4
-1.307, 5.308e-4
-1.306, 5.201e-4
-1.305, 5.093e-4
-1.304, 4.990e-4
-1.303, 4.887e-4
-1.302, 4.781e-4
-1.301, 4.683e-4
-1.300, 4.580e-4
-1.299, 4.483e-4
-1.298, 4.386e-4
-1.297, 4.289e-4
-1.296, 4.197e-4
-1.295, 4.106e-4
-1.294, 4.011e-4
-1.293, 3.921e-4
-1.292, 3.832e-4
-1.291, 3.739e-4
-1.290, 3.657e-4
-1.289, 3.569e-4
-1.288, 3.486e-4
-1.287, 3.403e-4
-1.286, 3.318e-4
-1.285, 3.239e-4
-1.284, 3.158e-4
-1.283, 3.080e-4
-1.282, 3.003e-4
-1.281, 2.924e-4
-1.280, 2.847e-4
-1.279, 2.777e-4
-1.278, 2.702e-4
-1.277, 2.635e-4
-1.276, 2.562e-4
-1.275, 2.492e-4
-1.274, 2.423e-4
-1.273, 2.353e-4
-1.272, 2.289e-4
-1.271, 2.223e-4
-1.270, 2.157e-4
-1.269, 2.097e-4
-1.268, 2.032e-4
-1.267, 1.970e-4
-1.266, 1.911e-4
-1.265, 1.850e-4
-1.264, 1.795e-4
-1.263, 1.738e-4
-1.262, 1.678e-4
-1.261, 1.624e-4
-1.260, 1.570e-4
-1.259, 1.514e-4
-1.258, 1.462e-4
-1.257, 1.407e-4
-1.256, 1.361e-4
-1.255, 1.310e-4
-1.254, 1.256e-4
-1.253, 1.218e-4
-1.252, 1.169e-4
-1.251, 1.121e-4
-1.250, 1.074e-4
-1.249, 1.027e-4
-1.248, 9.865e-5
-1.247, 9.483e-5
-1.246, 9.012e-5
-1.245, 8.617e-5
-1.244, 8.212e-5
-1.243, 7.815e-5
-1.242, 7.441e-5
-1.241, 7.031e-5
-1.240, 6.692e-5
-1.239, 6.312e-5
-1.238, 5.939e-5
-1.237, 5.592e-5
-1.236, 5.272e-5
-1.235, 4.934e-5
-1.234, 4.614e-5
-1.233, 4.287e-5
-1.232, 3.988e-5
-1.231, 3.689e-5
-1.230, 3.365e-5
-1.229, 3.021e-5
-1.228, 2.796e-5
-1.227, 2.500e-5
-1.226, 2.254e-5
-1.225, 1.983e-5
-1.224, 1.746e-5
-1.223, 1.478e-5
-1.222, 1.219e-5
-1.221, 9.912e-6
-1.220, 7.532e-6
-1.219, 5.051e-6
-1.218, 3.102e-6
-1.217, 5.631e-7
-1.216, -1.195e-6
-1.215, -3.244e-6
-1.214, -5.484e-6
-1.213, -7.200e-6
-1.212, -9.257e-6
-1.211, -1.114e-5
-1.210, -1.283e-5
-1.209, -1.474e-5
-1.208, -1.626e-5
-1.207, -1.783e-5
-1.206, -1.982e-5
-1.205, -2.097e-5
-1.204, -2.260e-5
-1.203, -2.442e-5
-1.202, -2.566e-5
-1.201, -2.721e-5
-1.200, -2.819e-5
-1.199, -2.967e-5
-1.198, -3.136e-5
-1.197, -3.220e-5
-1.196, -3.357e-5
-1.195, -3.478e-5
-1.194, -3.593e-5
-1.193, -3.732e-5
-1.192, -3.824e-5
-1.191, -3.931e-5
-1.190, -4.063e-5
-1.189, -4.145e-5
-1.188, -4.243e-5
-1.187, -4.383e-5
-1.186, -4.452e-5
-1.185, -4.565e-5
-1.184, -4.647e-5
-1.183, -4.743e-5
-1.182, -4.853e-5
-1.181, -4.931e-5
-1.180, -5.032e-5
-1.179, -5.132e-5
-1.178, -5.233e-5
-1.177, -5.316e-5
-1.176, -5.375e-5
-1.175, -5.459e-5
-1.174, -5.560e-5
-1.173, -5.612e-5
-1.172, -5.701e-5
-1.171, -5.804e-5
-1.170, -5.857e-5
-1.169, -5.953e-5
-1.168, -6.007e-5
-1.167, -6.077e-5
-1.166, -6.192e-5
-1.165, -6.231e-5
-1.164, -6.306e-5
-1.163, -6.388e-5
-1.162, -6.439e-5
-1.161, -6.534e-5
-1.160, -6.575e-5
-1.159, -6.661e-5
-1.158, -6.730e-5
-1.157, -6.769e-5
-1.156, -6.856e-5
-1.155, -6.916e-5
-1.154, -6.974e-5
-1.153, -7.040e-5
-1.152, -7.089e-5
-1.151, -7.166e-5
-1.150, -7.216e-5
-1.149, -7.263e-5
-1.148, -7.315e-5
-1.147, -7.374e-5
-1.146, -7.421e-5
-1.145, -7.484e-5
-1.144, -7.505e-5
-1.143, -7.557e-5
-1.142, -7.636e-5
-1.141, -7.657e-5
-1.140, -7.689e-5
-1.139, -7.750e-5
-1.138, -7.772e-5
-1.137, -7.828e-5
-1.136, -7.859e-5
-1.135, -7.876e-5
-1.134, -7.935e-5
-1.133, -7.948e-5
-1.132, -7.982e-5
-1.131, -8.024e-5
-1.130, -8.026e-5
-1.129, -8.070e-5
-1.128, -8.074e-5
-1.127, -8.097e-5
-1.126, -8.126e-5
-1.125, -8.124e-5
-1.124, -8.144e-5
-1.123, -8.157e-5
-1.122, -8.158e-5
-1.121, -8.184e-5
-1.120, -8.158e-5
-1.119, -8.180e-5
-1.118, -8.188e-5
-1.117, -8.154e-5
-1.116, -8.174e-5
-1.115, -8.172e-5
-1.114, -8.162e-5
-1.113, -8.159e-5
-1.112, -8.131e-5
-1.111, -8.124e-5
-1.110, -8.131e-5
-1.109, -8.087e-5
-1.108, -8.090e-5
-1.107, -8.074e-5
-1.106, -8.048e-5
-1.105, -8.042e-5
-1.104, -8.001e-5
-1.103, -7.989e-5
-1.102, -7.990e-5
-1.101, -7.950e-5
-1.100, -7.915e-5
-1.099, -7.925e-5
-1.098, -7.859e-5
-1.097, -7.871e-5
-1.096, -7.816e-5
-1.095, -7.792e-5
-1.094, -7.804e-5
-1.093, -7.729e-5
-1.092, -7.715e-5
-1.091, -7.712e-5
-1.090, -7.661e-5
-1.089, -7.660e-5
-1.088, -7.608e-5
-1.087, -7.579e-5
-1.086, -7.582e-5
-1.085, -7.525e-5
-1.084, -7.508e-5
-1.083, -7.497e-5
-1.082, -7.448e-5
-1.081, -7.449e-5
-1.080, -7.406e-5
-1.079, -7.365e-5
-1.078, -7.367e-5
-1.077, -7.318e-5
-1.076, -7.322e-5
-1.075, -7.310e-5
-1.074, -7.245e-5
-1.073, -7.226e-5
-1.072, -7.186e-5
-1.071, -7.170e-5
-1.070, -7.172e-5
-1.069, -7.120e-5
-1.068, -7.098e-5
-1.067, -7.110e-5
-1.066, -7.055e-5
-1.065, -7.057e-5
-1.064, -7.001e-5
-1.063, -6.968e-5
-1.062, -6.978e-5
-1.061, -6.941e-5
-1.060, -6.921e-5
-1.059, -6.913e-5
-1.058, -6.884e-5
-1.057, -6.880e-5
-1.056, -6.840e-5
-1.055, -6.823e-5
-1.054, -6.829e-5
-1.053, -6.792e-5
-1.052, -6.786e-5
-1.051, -6.772e-5
-1.050, -6.752e-5
-1.049, -6.755e-5
-1.048, -6.734e-5
-1.047, -6.699e-5
-1.046, -6.734e-5
-1.045, -6.674e-5
-1.044, -6.689e-5
-1.043, -6.680e-5
-1.042, -6.657e-5
-1.041, -6.676e-5
-1.040, -6.643e-5
-1.039, -6.632e-5
-1.038, -6.647e-5
-1.037, -6.630e-5
-1.036, -6.627e-5
-1.035, -6.632e-5
-1.034, -6.618e-5
-1.033, -6.630e-5
-1.032, -6.597e-5
-1.031, -6.609e-5
-1.030, -6.619e-5
-1.029, -6.604e-5
-1.028, -6.590e-5
-1.027, -6.617e-5
-1.026, -6.586e-5
-1.025, -6.621e-5
-1.024, -6.620e-5
-1.023, -6.594e-5
-1.022, -6.608e-5
-1.021, -6.608e-5
-1.020, -6.599e-5
-1.019, -6.624e-5
-1.018, -6.593e-5
-1.017, -6.627e-5
-1.016, -6.615e-5
-1.015, -6.606e-5
-1.014, -6.640e-5
-1.013, -6.622e-5
-1.012, -6.630e-5
-1.011, -6.662e-5
-1.010, -6.641e-5
-1.009, -6.676e-5
-1.008, -6.637e-5
-1.007, -6.656e-5
-1.006, -6.682e-5
-1.005, -6.639e-5
-1.004, -6.681e-5
-1.003, -6.696e-5
-1.002, -6.681e-5
-1.001, -6.710e-5
-1.000, -2.631e-5
-1.001, -1.010e-5
-1.002, -6.784e-6
-1.003, -4.782e-6
-1.004, -2.643e-6
-1.005, -1.040e-6
-1.006, 4.517e-7
-1.007, 1.899e-6
-1.008, 2.784e-6
-1.009, 4.157e-6
-1.010, 5.164e-6
-1.011, 6.264e-6
-1.012, 7.227e-6
-1.013, 8.058e-6
-1.014, 8.765e-6
-1.015, 9.807e-6
-1.016, 1.021e-5
-1.017, 1.110e-5
-1.018, 1.187e-5
-1.019, 1.230e-5
-1.020, 1.311e-5
-1.021, 1.371e-5
-1.022, 1.420e-5
-1.023, 1.497e-5
-1.024, 1.544e-5
-1.025, 1.589e-5
-1.026, 1.645e-5
-1.027, 1.671e-5
-1.028, 1.730e-5
-1.029, 1.775e-5
-1.030, 1.830e-5
-1.031, 1.872e-5
-1.032, 1.868e-5
-1.033, 1.925e-5
-1.034, 1.971e-5
-1.035, 1.997e-5
-1.036, 2.057e-5
-1.037, 2.093e-5
-1.038, 2.120e-5
-1.039, 2.167e-5
-1.040, 2.173e-5
-1.041, 2.216e-5
-1.042, 2.277e-5
-1.043, 2.270e-5
-1.044, 2.323e-5
-1.045, 2.348e-5
-1.046, 2.365e-5
-1.047, 2.446e-5
-1.048, 2.439e-5
-1.049, 2.462e-5
-1.050, 2.515e-5
-1.051, 2.508e-5
-1.052, 2.561e-5
-1.053, 2.573e-5
-1.054, 2.605e-5
-1.055, 2.650e-5
-1.056, 2.634e-5
-1.057, 2.670e-5
-1.058, 2.725e-5
-1.059, 2.706e-5
-1.060, 2.762e-5
-1.061, 2.768e-5
-1.062, 2.808e-5
-1.063, 2.824e-5
-1.064, 2.822e-5
-1.065, 2.845e-5
-1.066, 2.891e-5
-1.067, 2.897e-5
-1.068, 2.932e-5
-1.069, 2.939e-5
-1.070, 2.974e-5
-1.071, 3.010e-5
-1.072, 3.009e-5
-1.073, 3.024e-5
-1.074, 3.081e-5
-1.075, 3.103e-5
-1.076, 3.112e-5
-1.077, 3.123e-5
-1.078, 3.140e-5
-1.079, 3.177e-5
-1.080, 3.182e-5
-1.081, 3.204e-5
-1.082, 3.248e-5
-1.083, 3.256e-5
-1.084, 3.279e-5
-1.085, 3.300e-5
-1.086, 3.322e-5
-1.087, 3.359e-5
-1.088, 3.376e-5
-1.089, 3.381e-5
-1.090, 3.436e-5
-1.091, 3.428e-5
-1.092, 3.478e-5
-1.093, 3.499e-5
-1.094, 3.495e-5
-1.095, 3.557e-5
-1.096, 3.564e-5
-1.097, 3.596e-5
-1.098, 3.629e-5
-1.099, 3.637e-5
-1.100, 3.684e-5
-1.101, 3.690e-5
-1.102, 3.728e-5
-1.103, 3.770e-5
-1.104, 3.773e-5
-1.105, 3.810e-5
-1.106, 3.852e-5
-1.107, 3.884e-5
-1.108, 3.912e-5
-1.109, 3.929e-5
-1.110, 3.977e-5
-1.111, 4.017e-5
-1.112, 4.033e-5
-1.113, 4.061e-5
-1.114, 4.125e-5
-1.115, 4.122e-5
-1.116, 4.184e-5
-1.117, 4.222e-5
-1.118, 4.235e-5
-1.119, 4.299e-5
-1.120, 4.321e-5
-1.121, 4.358e-5
-1.122, 4.420e-5
-1.123, 4.425e-5
-1.124, 4.495e-5
-1.125, 4.531e-5
-1.126, 4.556e-5
-1.127, 4.639e-5
-1.128, 4.641e-5
-1.129, 4.686e-5
-1.130, 4.756e-5
-1.131, 4.767e-5
-1.132, 4.840e-5
-1.133, 4.891e-5
-1.134, 4.937e-5
-1.135, 4.987e-5
-1.136, 5.014e-5
-1.137, 5.071e-5
-1.138, 5.139e-5
-1.139, 5.177e-5
-1.140, 5.230e-5
-1.141, 5.276e-5
-1.142, 5.332e-5
-1.143, 5.407e-5
-1.144, 5.420e-5
-1.145, 5.479e-5
-1.146, 5.569e-5
-1.147, 5.601e-5
-1.148, 5.673e-5
-1.149, 5.711e-5
-1.150, 5.761e-5
-1.151, 5.846e-5
-1.152, 5.879e-5
-1.153, 5.951e-5
-1.154, 6.012e-5
-1.155, 6.063e-5
-1.156, 6.145e-5
-1.157, 6.190e-5
-1.158, 6.246e-5
-1.159, 6.336e-5
-1.160, 6.373e-5
-1.161, 6.441e-5
-1.162, 6.527e-5
-1.163, 6.571e-5
-1.164, 6.657e-5
-1.165, 6.699e-5
-1.166, 6.771e-5
-1.167, 6.867e-5
-1.168, 6.912e-5
-1.169, 6.977e-5
-1.170, 7.061e-5
-1.171, 7.123e-5
-1.172, 7.207e-5
-1.173, 7.276e-5
-1.174, 7.336e-5
-1.175, 7.447e-5
-1.176, 7.498e-5
-1.177, 7.593e-5
-1.178, 7.685e-5
-1.179, 7.731e-5
-1.180, 7.830e-5
-1.181, 7.900e-5
-1.182, 7.986e-5
-1.183, 8.085e-5
-1.184, 8.143e-5
-1.185, 8.230e-5
-1.186, 8.349e-5
-1.187, 8.411e-5
-1.188, 8.513e-5
-1.189, 8.615e-5
-1.190, 8.701e-5
-1.191, 8.814e-5
-1.192, 8.913e-5
-1.193, 9.002e-5
-1.194, 9.113e-5
-1.195, 9.210e-5
-1.196, 9.326e-5
-1.197, 9.436e-5
-1.198, 9.547e-5
-1.199, 9.666e-5
-1.200, 9.768e-5
-1.201, 9.898e-5
-1.202, 1.004e-4
-1.203, 1.015e-4
-1.204, 1.029e-4
-1.205, 1.041e-4
-1.206, 1.055e-4
-1.207, 1.071e-4
-1.208, 1.082e-4
-1.209, 1.098e-4
-1.210, 1.116e-4
-1.211, 1.128e-4
-1.212, 1.146e-4
-1.213, 1.160e-4
-1.214, 1.177e-4
-1.215, 1.196e-4
-1.216, 1.212e-4
-1.217, 1.231e-4
-1.218, 1.251e-4
-1.219, 1.267e-4
-1.220, 1.289e-4
-1.221, 1.308e-4
-1.222, 1.329e-4
-1.223, 1.352e-4
-1.224, 1.372e-4
-1.225, 1.393e-4
-1.226, 1.419e-4
-1.227, 1.440e-4
-1.228, 1.470e-4
-1.229, 1.496e-4
-1.230, 1.515e-4
-1.231, 1.543e-4
-1.232, 1.568e-4
-1.233, 1.595e-4
-1.234, 1.625e-4
-1.235, 1.652e-4
-1.236, 1.683e-4
-1.237, 1.712e-4
-1.238, 1.741e-4
-1.239, 1.774e-4
-1.240, 1.803e-4
-1.241, 1.837e-4
-1.242, 1.871e-4
-1.243, 1.904e-4
-1.244, 1.940e-4
-1.245, 1.973e-4
-1.246, 2.010e-4
-1.247, 2.050e-4
-1.248, 2.084e-4
-1.249, 2.121e-4
-1.250, 2.161e-4
-1.251, 2.201e-4
-1.252, 2.244e-4
-1.253, 2.284e-4
-1.254, 2.326e-4
-1.255, 2.372e-4
-1.256, 2.413e-4
-1.257, 2.458e-4
-1.258, 2.504e-4
-1.259, 2.550e-4
-1.260, 2.600e-4
-1.261, 2.645e-4
-1.262, 2.693e-4
-1.263, 2.746e-4
-1.264, 2.794e-4
-1.265, 2.846e-4
-1.266, 2.899e-4
-1.267, 2.952e-4
-1.268, 3.008e-4
-1.269, 3.061e-4
-1.270, 3.117e-4
-1.271, 3.178e-4
-1.272, 3.233e-4
-1.273, 3.292e-4
-1.274, 3.353e-4
-1.275, 3.414e-4
-1.276, 3.479e-4
-1.277, 3.540e-4
-1.278, 3.604e-4
-1.279, 3.670e-4
-1.280, 3.740e-4
-1.281, 3.805e-4
-1.282, 3.874e-4
-1.283, 3.943e-4
-1.284, 4.017e-4
-1.285, 4.088e-4
-1.286, 4.158e-4
-1.287, 4.235e-4
-1.288, 4.304e-4
-1.289, 4.383e-4
-1.290, 4.462e-4
-1.291, 4.538e-4
-1.292, 4.623e-4
-1.293, 4.701e-4
-1.294, 4.784e-4
-1.295, 4.867e-4
-1.296, 4.949e-4
-1.297, 5.037e-4
-1.298, 5.126e-4
-1.299, 5.214e-4
-1.300, 5.303e-4
-1.301, 5.396e-4
-1.302, 5.488e-4
-1.303, 5.583e-4
-1.304, 5.678e-4
-1.305, 5.773e-4
-1.306, 5.871e-4
-1.307, 5.972e-4
-1.308, 6.072e-4
-1.309, 6.175e-4
-1.310, 6.278e-4
-1.311, 6.380e-4
-1.312, 6.486e-4
-1.313, 6.597e-4
-1.314, 6.706e-4
-1.315, 6.813e-4
-1.316, 6.929e-4
-1.317, 7.042e-4
-1.318, 7.156e-4
-1.319, 7.276e-4
-1.320, 7.393e-4
-1.321, 7.513e-4
-1.322, 7.637e-4
-1.323, 7.752e-4
-1.324, 7.878e-4
-1.325, 8.005e-4
-1.326, 8.132e-4
-1.327, 8.266e-4
-1.328, 8.393e-4
-1.329, 8.527e-4
-1.330, 8.661e-4
-1.331, 8.791e-4
-1.332, 8.934e-4
-1.333, 9.072e-4
-1.334, 9.211e-4
-1.335, 9.356e-4
-1.336, 9.497e-4
-1.337, 9.648e-4
-1.338, 9.797e-4
-1.339, 9.942e-4
-1.340, 1.010e-3
-1.341, 1.025e-3
-1.342, 1.040e-3
-1.343, 1.056e-3
-1.344, 1.072e-3
-1.345, 1.088e-3
-1.346, 1.104e-3
-1.347, 1.121e-3
-1.348, 1.137e-3
-1.349, 1.154e-3
-1.350, 1.172e-3
-1.351, 1.189e-3
-1.352, 1.206e-3
-1.353, 1.224e-3
-1.354, 1.242e-3
-1.355, 1.260e-3
-1.356, 1.278e-3
-1.357, 1.297e-3
-1.358, 1.316e-3
-1.359, 1.335e-3
-1.360, 1.353e-3
-1.361, 1.373e-3
-1.362, 1.393e-3
-1.363, 1.413e-3
-1.364, 1.433e-3
-1.365, 1.454e-3
-1.366, 1.475e-3
-1.367, 1.496e-3
-1.368, 1.516e-3
-1.369, 1.537e-3
-1.370, 1.559e-3
-1.371, 1.581e-3
-1.372, 1.603e-3
-1.373, 1.626e-3
-1.374, 1.649e-3
-1.375, 1.671e-3
-1.376, 1.693e-3
-1.377, 1.717e-3
-1.378, 1.741e-3
-1.379, 1.764e-3
-1.380, 1.788e-3
-1.381, 1.812e-3
-1.382, 1.837e-3
-1.383, 1.862e-3
-1.384, 1.886e-3
-1.385, 1.912e-3
-1.386, 1.938e-3
-1.387, 1.964e-3
-1.388, 1.991e-3
-1.389, 2.017e-3
-1.390, 2.042e-3
-1.391, 2.068e-3
-1.392, 2.095e-3
-1.393, 2.122e-3
-1.394, 2.151e-3
-1.395, 2.178e-3
-1.396, 2.205e-3
-1.397, 2.233e-3
-1.398, 2.262e-3
-1.399, 2.290e-3
-1.400, 2.260e-3
-1.399, 2.214e-3
-1.398, 2.179e-3
-1.397, 2.144e-3
-1.396, 2.110e-3
-1.395, 2.077e-3
-1.394, 2.046e-3
-1.393, 2.014e-3
-1.392, 1.983e-3
-1.391, 1.952e-3
-1.390, 1.922e-3
-1.389, 1.893e-3
-1.388, 1.864e-3
-1.387, 1.835e-3
-1.386, 1.807e-3
-1.385, 1.780e-3
-1.384, 1.753e-3
-1.383, 1.726e-3
-1.382, 1.700e-3
-1.381, 1.674e-3
-1.380, 1.648e-3
-1.379, 1.622e-3
-1.378, 1.598e-3
-1.377, 1.573e-3
-1.376, 1.550e-3
-1.375, 1.526e-3
-1.374, 1.501e-3
-1.373, 1.478e-3
-1.372, 1.456e-3
-1.371, 1.433e-3
-1.370, 1.411e-3
-1.369, 1.389e-3
-1.368, 1.367e-3
-1.367, 1.347e-3
-1.366, 1.325e-3
-1.365, 1.305e-3
-1.364, 1.284e-3
-1.363, 1.264e-3
-1.362, 1.244e-3
-1.361, 1.224e-3
-1.360, 1.205e-3
-1.359, 1.186e-3
-1.358, 1.167e-3
-1.357, 1.149e-3
-1.356, 1.130e-3
-1.355, 1.112e-3
-1.354, 1.094e-3
-1.353, 1.077e-3
-1.352, 1.059e-3
-1.351, 1.042e-3
-1.350, 1.025e-3
-1.349, 1.009e-3
-1.348, 9.916e-4
-1.347, 9.751e-4
-1.346, 9.598e-4
-1.345, 9.437e-4
-1.344, 9.282e-4
-1.343, 9.123e-4
-1.342, 8.970e-4
-1.341, 8.824e-4
-1.340, 8.674e-4
-1.339, 8.525e-4
-1.338, 8.383e-4
-1.337, 8.238e-4
-1.336, 8.098e-4
-1.335, 7.958e-4
-1.334, 7.822e-4
-1.333, 7.688e-4
-1.332, 7.553e-4
-1.331, 7.418e-4
-1.330, 7.292e-4
-1.329, 7.161e-4
-1.328, 7.038e-4
-1.327, 6.910e-4
-1.326, 6.789e-4
-1.325, 6.668e-4
-1.324, 6.545e-4
-1.323, 6.424e-4
-1.322, 6.309e-4
-1.321, 6.193e-4
-1.320, 6.079e-4
-1.319, 5.966e-4
-1.318, 5.856e-4
-1.317, 5.746e-4
-1.316, 5.636e-4
-1.315, 5.530e-4
-1.314, 5.424e-4
-1.313, 5.320e-4
-1.312, 5.217e-4
-1.311, 5.114e-4
-1.310, 5.014e-4
-1.309, 4.916e-4
-1.308, 4.823e-4
-1.307, 4.723e-4
-1.306, 4.630e-4
-1.305, 4.533e-4
-1.304, 4.442e-4
-1.303, 4.354e-4
-1.302, 4.262e-4
-1.301, 4.176e-4
-1.300, 4.087e-4
-1.299, 4.001e-4
-1.298, 3.918e-4
-1.297, 3.831e-4
-1.296, 3.751e-4
-1.295, 3.670e-4
-1.294, 3.586e-4
-1.293, 3.511e-4
-1.292, 3.431e-4
-1.291, 3.354e-4
-1.290, 3.280e-4
-1.289, 3.202e-4
-1.288, 3.131e-4
-1.287, 3.058e-4
-1.286, 2.984e-4
-1.285, 2.916e-4
-1.284, 2.846e-4
-1.283, 2.777e-4
-1.282, 2.711e-4
-1.281, 2.642e-4
-1.280, 2.575e-4
-1.279, 2.514e-4
-1.278, 2.447e-4
-1.277, 2.387e-4
-1.276, 2.326e-4
-1.275, 2.264e-4
-1.274, 2.205e-4
-1.273, 2.145e-4
-1.272, 2.089e-4
-1.271, 2.033e-4
-1.270, 1.974e-4
-1.269, 1.921e-4
-1.268, 1.869e-4
-1.267, 1.812e-4
-1.266, 1.763e-4
-1.265, 1.710e-4
-1.264, 1.662e-4
-1.263, 1.610e-4
-1.262, 1.559e-4
-1.261, 1.514e-4
-1.260, 1.466e-4
-1.259, 1.417e-4
-1.258, 1.377e-4
-1.257, 1.328e-4
-1.256, 1.287e-4
-1.255, 1.243e-4
-1.254, 1.200e-4
-1.253, 1.162e-4
-1.252, 1.120e-4
-1.251, 1.078e-4
-1.250, 1.041e-4
-1.249, 1.002e-4
-1.248, 9.664e-5
-1.247, 9.278e-5
-1.246, 8.899e-5
-1.245, 8.576e-5
-1.244, 8.227e-5
-1.243, 7.868e-5
-1.242, 7.554e-5
-1.241, 7.194e-5
-1.240, 6.927e-5
-1.239, 6.581e-5
-1.238, 6.275e-5
-1.237, 5.977e-5
-1.236, 5.677e-5
-1.235, 5.398e-5
-1.234, 5.127e-5
-1.233, 4.822e-5
-1.232, 4.596e-5
-1.231, 4.315e-5
-1.230, 4.050e-5
-1.229, 3.744e-5
-1.228, 3.556e-5
-1.227, 3.311e-5
-1.226, 3.094e-5
-1.225, 2.853e-5
-1.224, 2.644e-5
-1.223, 2.420e-5
-1.222, 2.196e-5
-1.221, 1.995e-5
-1.220, 1.808e-5
-1.219, 1.580e-5
-1.218, 1.410e-5
-1.217, 1.197e-5
-1.216, 1.026e-5
-1.215, 8.604e-6
-1.214, 6.297e-6
-1.213, 5.135e-6
-1.212, 3.224e-6
-1.211, 1.483e-6
-1.210, 1.458e-7
-1.209, -1.612e-6
-1.208, -2.931e-6
-1.207, -4.646e-6
-1.206, -6.115e-6
-1.205, -7.478e-6
-1.204, -8.896e-6
-1.203, -1.042e-5
-1.202, -1.152e-5
-1.201, -1.301e-5
-1.200, -1.406e-5
-1.199, -1.534e-5
-1.198, -1.668e-5
-1.197, -1.770e-5
-1.196, -1.894e-5
-1.195, -2.028e-5
-1.194, -2.107e-5
-1.193, -2.228e-5
-1.192, -2.330e-5
-1.191, -2.437e-5
-1.190, -2.550e-5
-1.189, -2.634e-5
-1.188, -2.727e-5
-1.187, -2.843e-5
-1.186, -2.916e-5
-1.185, -3.021e-5
-1.184, -3.095e-5
-1.183, -3.189e-5
-1.182, -3.294e-5
-1.181, -3.353e-5
-1.180, -3.438e-5
-1.179, -3.528e-5
-1.178, -3.619e-5
-1.177, -3.703e-5
-1.176, -3.757e-5
-1.175, -3.815e-5
-1.174, -3.915e-5
-1.173, -3.959e-5
-1.172, -4.031e-5
-1.171, -4.107e-5
-1.170, -4.169e-5
-1.169, -4.243e-5
-1.168, -4.290e-5
-1.167, -4.351e-5
-1.166, -4.442e-5
-1.165, -4.477e-5
-1.164, -4.546e-5
-1.163, -4.616e-5
-1.162, -4.659e-5
-1.161, -4.741e-5
-1.160, -4.772e-5
-1.159, -4.827e-5
-1.158, -4.892e-5
-1.157, -4.923e-5
-1.156, -4.975e-5
-1.155, -5.039e-5
-1.154, -5.079e-5
-1.153, -5.136e-5
-1.152, -5.165e-5
-1.151, -5.214e-5
-1.150, -5.278e-5
-1.149, -5.288e-5
-1.148, -5.334e-5
-1.147, -5.396e-5
-1.146, -5.406e-5
-1.145, -5.473e-5
-1.144, -5.480e-5
-1.143, -5.512e-5
-1.142, -5.570e-5
-1.141, -5.565e-5
-1.140, -5.620e-5
-1.139, -5.660e-5
-1.138, -5.655e-5
-1.137, -5.721e-5
-1.136, -5.721e-5
-1.135, -5.734e-5
-1.134, -5.788e-5
-1.133, -5.782e-5
-1.132, -5.815e-5
-1.131, -5.843e-5
-1.130, -5.841e-5
-1.129, -5.880e-5
-1.128, -5.889e-5
-1.127, -5.890e-5
-1.126, -5.935e-5
-1.125, -5.927e-5
-1.124, -5.951e-5
-1.123, -5.966e-5
-1.122, -5.958e-5
-1.121, -5.985e-5
-1.120, -5.962e-5
-1.119, -5.982e-5
-1.118, -6.005e-5
-1.117, -5.987e-5
-1.116, -5.987e-5
-1.115, -6.014e-5
-1.114, -5.994e-5
-1.113, -6.016e-5
-1.112, -6.005e-5
-1.111, -5.979e-5
-1.110, -6.015e-5
-1.109, -5.980e-5
-1.108, -5.970e-5
-1.107, -6.002e-5
-1.106, -5.971e-5
-1.105, -5.970e-5
-1.104, -5.984e-5
-1.103, -5.948e-5
-1.102, -5.965e-5
-1.101, -5.947e-5
-1.100, -5.932e-5
-1.099, -5.945e-5
-1.098, -5.915e-5
-1.097, -5.934e-5
-1.096, -5.894e-5
-1.095, -5.889e-5
-1.094, -5.915e-5
-1.093, -5.855e-5
-1.092, -5.873e-5
-1.091, -5.872e-5
-1.090, -5.844e-5
-1.089, -5.848e-5
-1.088, -5.818e-5
-1.087, -5.823e-5
-1.086, -5.829e-5
-1.085, -5.792e-5
-1.084, -5.794e-5
-1.083, -5.784e-5
-1.082, -5.764e-5
-1.081, -5.771e-5
-1.080, -5.744e-5
-1.079, -5.735e-5
-1.078, -5.754e-5
-1.077, -5.713e-5
-1.076, -5.741e-5
-1.075, -5.739e-5
-1.074, -5.695e-5
-1.073, -5.705e-5
-1.072, -5.686e-5
-1.071, -5.692e-5
-1.070, -5.687e-5
-1.069, -5.660e-5
-1.068, -5.665e-5
-1.067, -5.678e-5
-1.066, -5.660e-5
-1.065, -5.656e-5
-1.064, -5.640e-5
-1.063, -5.644e-5
-1.062, -5.656e-5
-1.061, -5.620e-5
-1.060, -5.637e-5
-1.059, -5.635e-5
-1.058, -5.615e-5
-1.057, -5.645e-5
-1.056, -5.622e-5
-1.055, -5.612e-5
-1.054, -5.634e-5
-1.053, -5.601e-5
-1.052, -5.616e-5
-1.051, -5.642e-5
-1.050, -5.612e-5
-1.049, -5.636e-5
-1.048, -5.623e-5
-1.047, -5.620e-5
-1.046, -5.653e-5
-1.045, -5.602e-5
-1.044, -5.631e-5
-1.043, -5.651e-5
-1.042, -5.637e-5
-1.041, -5.659e-5
-1.040, -5.634e-5
-1.039, -5.653e-5
-1.038, -5.673e-5
-1.037, -5.654e-5
-1.036, -5.664e-5
-1.035, -5.686e-5
-1.034, -5.668e-5
-1.033, -5.699e-5
-1.032, -5.685e-5
-1.031, -5.697e-5
-1.030, -5.731e-5
-1.029, -5.704e-5
-1.028, -5.718e-5
-1.027, -5.738e-5
-1.026, -5.732e-5
-1.025, -5.763e-5
-1.024, -5.762e-5
-1.023, -5.762e-5
-1.022, -5.803e-5
-1.021, -5.780e-5
-1.020, -5.797e-5
-1.019, -5.811e-5
-1.018, -5.807e-5
-1.017, -5.844e-5
-1.016, -5.814e-5
-1.015, -5.834e-5
-1.014, -5.879e-5
-1.013, -5.839e-5
-1.012, -5.894e-5
-1.011, -5.899e-5
-1.010, -5.884e-5
-1.009, -5.940e-5
-1.008, -5.926e-5
-1.007, -5.930e-5
-1.006, -5.976e-5
-1.005, -5.954e-5
-1.004, -5.982e-5
-1.003, -6.001e-5
-1.002, -6.000e-5
-1.001, -6.035e-5
