June 25, 2026   05:46:33
Cyclic Voltammetry
File: c:/users/guazh/data/20260623_doe_duplica2/2026-06-24-exp3\exp3-2026-06-25t05_32_19-h2koh\exp3_cv_sr_300mvs_efin_-1600mv.bin
Data Source:  Experiment
Instrument Model:  CHI760E
Header: CV ran at 300 mVs
Note: 

Init E (V) = -1
High E (V) = -1
Low E (V) = -1.6
Final E (V) = -1
Init P/N = N
Scan Rate (V/s) = 0.3
Segment = 3
Sample Interval (V) = 0.001
Quiet Time (sec) = 2
Sensitivity (A/V) = 0.01
Comp R (ohm) = 2.0

Results:

Channel 1:
Segment 1:

Segment 2:

Segment 3:

Potential/V, Current/A

-1.000, 2.174e-5
-1.001, 7.723e-5
-1.002, 1.019e-4
-1.003, 1.173e-4
-1.004, 1.266e-4
-1.005, 1.327e-4
-1.006, 1.389e-4
-1.007, 1.420e-4
-1.008, 1.420e-4
-1.009, 1.451e-4
-1.010, 1.451e-4
-1.011, 1.481e-4
-1.012, 1.512e-4
-1.013, 1.512e-4
-1.014, 1.543e-4
-1.015, 1.543e-4
-1.016, 1.543e-4
-1.017, 1.543e-4
-1.018, 1.574e-4
-1.019, 1.574e-4
-1.020, 1.605e-4
-1.021, 1.605e-4
-1.022, 1.605e-4
-1.023, 1.636e-4
-1.024, 1.605e-4
-1.025, 1.636e-4
-1.026, 1.636e-4
-1.027, 1.636e-4
-1.028, 1.636e-4
-1.029, 1.666e-4
-1.030, 1.666e-4
-1.031, 1.666e-4
-1.032, 1.666e-4
-1.033, 1.666e-4
-1.034, 1.697e-4
-1.035, 1.666e-4
-1.036, 1.697e-4
-1.037, 1.697e-4
-1.038, 1.697e-4
-1.039, 1.728e-4
-1.040, 1.697e-4
-1.041, 1.728e-4
-1.042, 1.728e-4
-1.043, 1.728e-4
-1.044, 1.728e-4
-1.045, 1.728e-4
-1.046, 1.759e-4
-1.047, 1.759e-4
-1.048, 1.759e-4
-1.049, 1.759e-4
-1.050, 1.759e-4
-1.051, 1.759e-4
-1.052, 1.759e-4
-1.053, 1.759e-4
-1.054, 1.759e-4
-1.055, 1.790e-4
-1.056, 1.790e-4
-1.057, 1.790e-4
-1.058, 1.790e-4
-1.059, 1.790e-4
-1.060, 1.790e-4
-1.061, 1.790e-4
-1.062, 1.790e-4
-1.063, 1.790e-4
-1.064, 1.790e-4
-1.065, 1.790e-4
-1.066, 1.790e-4
-1.067, 1.790e-4
-1.068, 1.821e-4
-1.069, 1.821e-4
-1.070, 1.821e-4
-1.071, 1.821e-4
-1.072, 1.821e-4
-1.073, 1.821e-4
-1.074, 1.821e-4
-1.075, 1.851e-4
-1.076, 1.851e-4
-1.077, 1.851e-4
-1.078, 1.851e-4
-1.079, 1.821e-4
-1.080, 1.851e-4
-1.081, 1.851e-4
-1.082, 1.851e-4
-1.083, 1.851e-4
-1.084, 1.851e-4
-1.085, 1.851e-4
-1.086, 1.851e-4
-1.087, 1.851e-4
-1.088, 1.851e-4
-1.089, 1.882e-4
-1.090, 1.851e-4
-1.091, 1.882e-4
-1.092, 1.882e-4
-1.093, 1.882e-4
-1.094, 1.882e-4
-1.095, 1.882e-4
-1.096, 1.882e-4
-1.097, 1.882e-4
-1.098, 1.882e-4
-1.099, 1.882e-4
-1.100, 1.882e-4
-1.101, 1.882e-4
-1.102, 1.882e-4
-1.103, 1.882e-4
-1.104, 1.882e-4
-1.105, 1.882e-4
-1.106, 1.882e-4
-1.107, 1.882e-4
-1.108, 1.882e-4
-1.109, 1.882e-4
-1.110, 1.882e-4
-1.111, 1.913e-4
-1.112, 1.913e-4
-1.113, 1.913e-4
-1.114, 1.913e-4
-1.115, 1.882e-4
-1.116, 1.913e-4
-1.117, 1.913e-4
-1.118, 1.913e-4
-1.119, 1.913e-4
-1.120, 1.913e-4
-1.121, 1.913e-4
-1.122, 1.913e-4
-1.123, 1.913e-4
-1.124, 1.913e-4
-1.125, 1.913e-4
-1.126, 1.913e-4
-1.127, 1.913e-4
-1.128, 1.913e-4
-1.129, 1.913e-4
-1.130, 1.913e-4
-1.131, 1.913e-4
-1.132, 1.944e-4
-1.133, 1.913e-4
-1.134, 1.913e-4
-1.135, 1.944e-4
-1.136, 1.944e-4
-1.137, 1.944e-4
-1.138, 1.944e-4
-1.139, 1.944e-4
-1.140, 1.944e-4
-1.141, 1.913e-4
-1.142, 1.944e-4
-1.143, 1.944e-4
-1.144, 1.944e-4
-1.145, 1.944e-4
-1.146, 1.944e-4
-1.147, 1.944e-4
-1.148, 1.944e-4
-1.149, 1.944e-4
-1.150, 1.944e-4
-1.151, 1.944e-4
-1.152, 1.944e-4
-1.153, 1.944e-4
-1.154, 1.944e-4
-1.155, 1.975e-4
-1.156, 1.975e-4
-1.157, 1.975e-4
-1.158, 1.975e-4
-1.159, 1.975e-4
-1.160, 1.975e-4
-1.161, 1.975e-4
-1.162, 1.975e-4
-1.163, 1.975e-4
-1.164, 1.975e-4
-1.165, 1.975e-4
-1.166, 1.975e-4
-1.167, 2.006e-4
-1.168, 1.975e-4
-1.169, 2.006e-4
-1.170, 1.975e-4
-1.171, 2.006e-4
-1.172, 2.006e-4
-1.173, 2.006e-4
-1.174, 2.006e-4
-1.175, 2.006e-4
-1.176, 2.006e-4
-1.177, 2.006e-4
-1.178, 2.036e-4
-1.179, 2.036e-4
-1.180, 2.036e-4
-1.181, 2.036e-4
-1.182, 2.036e-4
-1.183, 2.036e-4
-1.184, 2.036e-4
-1.185, 2.036e-4
-1.186, 2.036e-4
-1.187, 2.036e-4
-1.188, 2.036e-4
-1.189, 2.036e-4
-1.190, 2.067e-4
-1.191, 2.067e-4
-1.192, 2.067e-4
-1.193, 2.067e-4
-1.194, 2.067e-4
-1.195, 2.067e-4
-1.196, 2.098e-4
-1.197, 2.098e-4
-1.198, 2.098e-4
-1.199, 2.098e-4
-1.200, 2.129e-4
-1.201, 2.129e-4
-1.202, 2.129e-4
-1.203, 2.129e-4
-1.204, 2.129e-4
-1.205, 2.160e-4
-1.206, 2.160e-4
-1.207, 2.160e-4
-1.208, 2.160e-4
-1.209, 2.160e-4
-1.210, 2.191e-4
-1.211, 2.191e-4
-1.212, 2.221e-4
-1.213, 2.191e-4
-1.214, 2.221e-4
-1.215, 2.221e-4
-1.216, 2.221e-4
-1.217, 2.252e-4
-1.218, 2.252e-4
-1.219, 2.252e-4
-1.220, 2.252e-4
-1.221, 2.252e-4
-1.222, 2.283e-4
-1.223, 2.283e-4
-1.224, 2.314e-4
-1.225, 2.283e-4
-1.226, 2.314e-4
-1.227, 2.314e-4
-1.228, 2.314e-4
-1.229, 2.345e-4
-1.230, 2.376e-4
-1.231, 2.376e-4
-1.232, 2.376e-4
-1.233, 2.406e-4
-1.234, 2.406e-4
-1.235, 2.406e-4
-1.236, 2.437e-4
-1.237, 2.437e-4
-1.238, 2.468e-4
-1.239, 2.468e-4
-1.240, 2.499e-4
-1.241, 2.499e-4
-1.242, 2.499e-4
-1.243, 2.530e-4
-1.244, 2.530e-4
-1.245, 2.561e-4
-1.246, 2.561e-4
-1.247, 2.591e-4
-1.248, 2.591e-4
-1.249, 2.622e-4
-1.250, 2.622e-4
-1.251, 2.653e-4
-1.252, 2.684e-4
-1.253, 2.684e-4
-1.254, 2.715e-4
-1.255, 2.746e-4
-1.256, 2.746e-4
-1.257, 2.776e-4
-1.258, 2.776e-4
-1.259, 2.807e-4
-1.260, 2.838e-4
-1.261, 2.838e-4
-1.262, 2.869e-4
-1.263, 2.869e-4
-1.264, 2.900e-4
-1.265, 2.931e-4
-1.266, 2.961e-4
-1.267, 2.992e-4
-1.268, 2.992e-4
-1.269, 3.023e-4
-1.270, 3.054e-4
-1.271, 3.085e-4
-1.272, 3.115e-4
-1.273, 3.146e-4
-1.274, 3.146e-4
-1.275, 3.177e-4
-1.276, 3.208e-4
-1.277, 3.239e-4
-1.278, 3.270e-4
-1.279, 3.300e-4
-1.280, 3.331e-4
-1.281, 3.362e-4
-1.282, 3.393e-4
-1.283, 3.424e-4
-1.284, 3.455e-4
-1.285, 3.485e-4
-1.286, 3.516e-4
-1.287, 3.547e-4
-1.288, 3.578e-4
-1.289, 3.640e-4
-1.290, 3.640e-4
-1.291, 3.670e-4
-1.292, 3.732e-4
-1.293, 3.763e-4
-1.294, 3.794e-4
-1.295, 3.825e-4
-1.296, 3.855e-4
-1.297, 3.886e-4
-1.298, 3.917e-4
-1.299, 3.979e-4
-1.300, 4.010e-4
-1.301, 4.040e-4
-1.302, 4.102e-4
-1.303, 4.164e-4
-1.304, 4.195e-4
-1.305, 4.225e-4
-1.306, 4.256e-4
-1.307, 4.318e-4
-1.308, 4.349e-4
-1.309, 4.380e-4
-1.310, 4.441e-4
-1.311, 4.472e-4
-1.312, 4.534e-4
-1.313, 4.595e-4
-1.314, 4.626e-4
-1.315, 4.688e-4
-1.316, 4.750e-4
-1.317, 4.811e-4
-1.318, 4.842e-4
-1.319, 4.904e-4
-1.320, 4.965e-4
-1.321, 5.027e-4
-1.322, 5.089e-4
-1.323, 5.120e-4
-1.324, 5.181e-4
-1.325, 5.243e-4
-1.326, 5.305e-4
-1.327, 5.366e-4
-1.328, 5.397e-4
-1.329, 5.459e-4
-1.330, 5.520e-4
-1.331, 5.613e-4
-1.332, 5.674e-4
-1.333, 5.736e-4
-1.334, 5.767e-4
-1.335, 5.859e-4
-1.336, 5.921e-4
-1.337, 5.983e-4
-1.338, 6.044e-4
-1.339, 6.106e-4
-1.340, 6.199e-4
-1.341, 6.260e-4
-1.342, 6.322e-4
-1.343, 6.384e-4
-1.344, 6.476e-4
-1.345, 6.538e-4
-1.346, 6.599e-4
-1.347, 6.692e-4
-1.348, 6.784e-4
-1.349, 6.846e-4
-1.350, 6.939e-4
-1.351, 7.031e-4
-1.352, 7.093e-4
-1.353, 7.154e-4
-1.354, 7.247e-4
-1.355, 7.339e-4
-1.356, 7.401e-4
-1.357, 7.494e-4
-1.358, 7.555e-4
-1.359, 7.648e-4
-1.360, 7.740e-4
-1.361, 7.802e-4
-1.362, 7.894e-4
-1.363, 7.987e-4
-1.364, 8.079e-4
-1.365, 8.141e-4
-1.366, 8.233e-4
-1.367, 8.326e-4
-1.368, 8.418e-4
-1.369, 8.511e-4
-1.370, 8.603e-4
-1.371, 8.665e-4
-1.372, 8.758e-4
-1.373, 8.850e-4
-1.374, 8.973e-4
-1.375, 9.097e-4
-1.376, 9.189e-4
-1.377, 9.282e-4
-1.378, 9.374e-4
-1.379, 9.498e-4
-1.380, 9.590e-4
-1.381, 9.652e-4
-1.382, 9.775e-4
-1.383, 9.898e-4
-1.384, 1.005e-3
-1.385, 1.014e-3
-1.386, 1.027e-3
-1.387, 1.036e-3
-1.388, 1.051e-3
-1.389, 1.061e-3
-1.390, 1.070e-3
-1.391, 1.082e-3
-1.392, 1.095e-3
-1.393, 1.104e-3
-1.394, 1.113e-3
-1.395, 1.122e-3
-1.396, 1.135e-3
-1.397, 1.147e-3
-1.398, 1.159e-3
-1.399, 1.172e-3
-1.400, 1.181e-3
-1.401, 1.190e-3
-1.402, 1.203e-3
-1.403, 1.215e-3
-1.404, 1.227e-3
-1.405, 1.236e-3
-1.406, 1.249e-3
-1.407, 1.261e-3
-1.408, 1.273e-3
-1.409, 1.286e-3
-1.410, 1.298e-3
-1.411, 1.314e-3
-1.412, 1.326e-3
-1.413, 1.338e-3
-1.414, 1.351e-3
-1.415, 1.363e-3
-1.416, 1.375e-3
-1.417, 1.391e-3
-1.418, 1.403e-3
-1.419, 1.415e-3
-1.420, 1.428e-3
-1.421, 1.443e-3
-1.422, 1.458e-3
-1.423, 1.474e-3
-1.424, 1.486e-3
-1.425, 1.502e-3
-1.426, 1.514e-3
-1.427, 1.532e-3
-1.428, 1.548e-3
-1.429, 1.560e-3
-1.430, 1.576e-3
-1.431, 1.594e-3
-1.432, 1.610e-3
-1.433, 1.625e-3
-1.434, 1.643e-3
-1.435, 1.659e-3
-1.436, 1.674e-3
-1.437, 1.690e-3
-1.438, 1.705e-3
-1.439, 1.721e-3
-1.440, 1.736e-3
-1.441, 1.754e-3
-1.442, 1.773e-3
-1.443, 1.785e-3
-1.444, 1.801e-3
-1.445, 1.819e-3
-1.446, 1.838e-3
-1.447, 1.856e-3
-1.448, 1.872e-3
-1.449, 1.890e-3
-1.450, 1.912e-3
-1.451, 1.927e-3
-1.452, 1.946e-3
-1.453, 1.964e-3
-1.454, 1.983e-3
-1.455, 2.001e-3
-1.456, 2.017e-3
-1.457, 2.038e-3
-1.458, 2.060e-3
-1.459, 2.075e-3
-1.460, 2.094e-3
-1.461, 2.115e-3
-1.462, 2.137e-3
-1.463, 2.155e-3
-1.464, 2.177e-3
-1.465, 2.195e-3
-1.466, 2.217e-3
-1.467, 2.235e-3
-1.468, 2.260e-3
-1.469, 2.285e-3
-1.470, 2.303e-3
-1.471, 2.322e-3
-1.472, 2.343e-3
-1.473, 2.368e-3
-1.474, 2.390e-3
-1.475, 2.411e-3
-1.476, 2.430e-3
-1.477, 2.451e-3
-1.478, 2.473e-3
-1.479, 2.497e-3
-1.480, 2.525e-3
-1.481, 2.550e-3
-1.482, 2.575e-3
-1.483, 2.599e-3
-1.484, 2.624e-3
-1.485, 2.649e-3
-1.486, 2.673e-3
-1.487, 2.701e-3
-1.488, 2.726e-3
-1.489, 2.750e-3
-1.490, 2.772e-3
-1.491, 2.793e-3
-1.492, 2.818e-3
-1.493, 2.846e-3
-1.494, 2.874e-3
-1.495, 2.904e-3
-1.496, 2.932e-3
-1.497, 2.963e-3
-1.498, 2.994e-3
-1.499, 3.028e-3
-1.500, 3.056e-3
-1.501, 3.080e-3
-1.502, 3.108e-3
-1.503, 3.136e-3
-1.504, 3.160e-3
-1.505, 3.188e-3
-1.506, 3.216e-3
-1.507, 3.244e-3
-1.508, 3.271e-3
-1.509, 3.299e-3
-1.510, 3.330e-3
-1.511, 3.361e-3
-1.512, 3.385e-3
-1.513, 3.410e-3
-1.514, 3.438e-3
-1.515, 3.472e-3
-1.516, 3.503e-3
-1.517, 3.530e-3
-1.518, 3.564e-3
-1.519, 3.595e-3
-1.520, 3.620e-3
-1.521, 3.647e-3
-1.522, 3.684e-3
-1.523, 3.718e-3
-1.524, 3.746e-3
-1.525, 3.774e-3
-1.526, 3.805e-3
-1.527, 3.839e-3
-1.528, 3.873e-3
-1.529, 3.910e-3
-1.530, 3.950e-3
-1.531, 3.987e-3
-1.532, 4.021e-3
-1.533, 4.054e-3
-1.534, 4.095e-3
-1.535, 4.135e-3
-1.536, 4.172e-3
-1.537, 4.206e-3
-1.538, 4.243e-3
-1.539, 4.280e-3
-1.540, 4.310e-3
-1.541, 4.344e-3
-1.542, 4.381e-3
-1.543, 4.428e-3
-1.544, 4.464e-3
-1.545, 4.505e-3
-1.546, 4.545e-3
-1.547, 4.585e-3
-1.548, 4.625e-3
-1.549, 4.662e-3
-1.550, 4.702e-3
-1.551, 4.733e-3
-1.552, 4.767e-3
-1.553, 4.813e-3
-1.554, 4.856e-3
-1.555, 4.896e-3
-1.556, 4.936e-3
-1.557, 4.976e-3
-1.558, 5.010e-3
-1.559, 5.050e-3
-1.560, 5.097e-3
-1.561, 5.143e-3
-1.562, 5.180e-3
-1.563, 5.214e-3
-1.564, 5.251e-3
-1.565, 5.294e-3
-1.566, 5.343e-3
-1.567, 5.389e-3
-1.568, 5.433e-3
-1.569, 5.473e-3
-1.570, 5.516e-3
-1.571, 5.562e-3
-1.572, 5.611e-3
-1.573, 5.658e-3
-1.574, 5.701e-3
-1.575, 5.744e-3
-1.576, 5.793e-3
-1.577, 5.840e-3
-1.578, 5.877e-3
-1.579, 5.920e-3
-1.580, 5.969e-3
-1.581, 6.015e-3
-1.582, 6.055e-3
-1.583, 6.102e-3
-1.584, 6.157e-3
-1.585, 6.210e-3
-1.586, 6.250e-3
-1.587, 6.293e-3
-1.588, 6.348e-3
-1.589, 6.404e-3
-1.590, 6.450e-3
-1.591, 6.499e-3
-1.592, 6.555e-3
-1.593, 6.604e-3
-1.594, 6.647e-3
-1.595, 6.700e-3
-1.596, 6.761e-3
-1.597, 6.811e-3
-1.598, 6.857e-3
-1.599, 6.903e-3
-1.600, 6.891e-3
-1.599, 6.798e-3
-1.598, 6.737e-3
-1.597, 6.678e-3
-1.596, 6.617e-3
-1.595, 6.543e-3
-1.594, 6.472e-3
-1.593, 6.413e-3
-1.592, 6.354e-3
-1.591, 6.290e-3
-1.590, 6.219e-3
-1.589, 6.151e-3
-1.588, 6.095e-3
-1.587, 6.043e-3
-1.586, 5.978e-3
-1.585, 5.917e-3
-1.584, 5.858e-3
-1.583, 5.793e-3
-1.582, 5.732e-3
-1.581, 5.676e-3
-1.580, 5.618e-3
-1.579, 5.556e-3
-1.578, 5.494e-3
-1.577, 5.433e-3
-1.576, 5.374e-3
-1.575, 5.315e-3
-1.574, 5.260e-3
-1.573, 5.204e-3
-1.572, 5.149e-3
-1.571, 5.090e-3
-1.570, 5.032e-3
-1.569, 4.979e-3
-1.568, 4.927e-3
-1.567, 4.871e-3
-1.566, 4.810e-3
-1.565, 4.754e-3
-1.564, 4.705e-3
-1.563, 4.656e-3
-1.562, 4.603e-3
-1.561, 4.554e-3
-1.560, 4.508e-3
-1.559, 4.455e-3
-1.558, 4.403e-3
-1.557, 4.357e-3
-1.556, 4.310e-3
-1.555, 4.261e-3
-1.554, 4.212e-3
-1.553, 4.162e-3
-1.552, 4.119e-3
-1.551, 4.070e-3
-1.550, 4.024e-3
-1.549, 3.984e-3
-1.548, 3.937e-3
-1.547, 3.894e-3
-1.546, 3.851e-3
-1.545, 3.802e-3
-1.544, 3.762e-3
-1.543, 3.715e-3
-1.542, 3.666e-3
-1.541, 3.623e-3
-1.540, 3.577e-3
-1.539, 3.533e-3
-1.538, 3.484e-3
-1.537, 3.441e-3
-1.536, 3.401e-3
-1.535, 3.355e-3
-1.534, 3.311e-3
-1.533, 3.268e-3
-1.532, 3.225e-3
-1.531, 3.185e-3
-1.530, 3.142e-3
-1.529, 3.105e-3
-1.528, 3.065e-3
-1.527, 3.025e-3
-1.526, 2.991e-3
-1.525, 2.960e-3
-1.524, 2.923e-3
-1.523, 2.880e-3
-1.522, 2.840e-3
-1.521, 2.806e-3
-1.520, 2.775e-3
-1.519, 2.735e-3
-1.518, 2.701e-3
-1.517, 2.667e-3
-1.516, 2.630e-3
-1.515, 2.596e-3
-1.514, 2.568e-3
-1.513, 2.541e-3
-1.512, 2.507e-3
-1.511, 2.470e-3
-1.510, 2.439e-3
-1.509, 2.411e-3
-1.508, 2.380e-3
-1.507, 2.346e-3
-1.506, 2.319e-3
-1.505, 2.288e-3
-1.504, 2.257e-3
-1.503, 2.226e-3
-1.502, 2.198e-3
-1.501, 2.171e-3
-1.500, 2.140e-3
-1.499, 2.109e-3
-1.498, 2.084e-3
-1.497, 2.057e-3
-1.496, 2.029e-3
-1.495, 1.998e-3
-1.494, 1.973e-3
-1.493, 1.946e-3
-1.492, 1.918e-3
-1.491, 1.890e-3
-1.490, 1.862e-3
-1.489, 1.835e-3
-1.488, 1.813e-3
-1.487, 1.788e-3
-1.486, 1.764e-3
-1.485, 1.736e-3
-1.484, 1.708e-3
-1.483, 1.687e-3
-1.482, 1.665e-3
-1.481, 1.640e-3
-1.480, 1.616e-3
-1.479, 1.591e-3
-1.478, 1.569e-3
-1.477, 1.548e-3
-1.476, 1.526e-3
-1.475, 1.508e-3
-1.474, 1.486e-3
-1.473, 1.465e-3
-1.472, 1.440e-3
-1.471, 1.418e-3
-1.470, 1.400e-3
-1.469, 1.378e-3
-1.468, 1.357e-3
-1.467, 1.335e-3
-1.466, 1.317e-3
-1.465, 1.295e-3
-1.464, 1.280e-3
-1.463, 1.261e-3
-1.462, 1.243e-3
-1.461, 1.224e-3
-1.460, 1.206e-3
-1.459, 1.187e-3
-1.458, 1.169e-3
-1.457, 1.153e-3
-1.456, 1.135e-3
-1.455, 1.119e-3
-1.454, 1.098e-3
-1.453, 1.082e-3
-1.452, 1.067e-3
-1.451, 1.051e-3
-1.450, 1.033e-3
-1.449, 1.014e-3
-1.448, 1.002e-3
-1.447, 9.837e-4
-1.446, 9.683e-4
-1.445, 9.528e-4
-1.444, 9.374e-4
-1.443, 9.251e-4
-1.442, 9.066e-4
-1.441, 8.912e-4
-1.440, 8.788e-4
-1.439, 8.634e-4
-1.438, 8.511e-4
-1.437, 8.388e-4
-1.436, 8.264e-4
-1.435, 8.141e-4
-1.434, 8.018e-4
-1.433, 7.894e-4
-1.432, 7.740e-4
-1.431, 7.586e-4
-1.430, 7.463e-4
-1.429, 7.339e-4
-1.428, 7.216e-4
-1.427, 7.124e-4
-1.426, 6.969e-4
-1.425, 6.846e-4
-1.424, 6.754e-4
-1.423, 6.630e-4
-1.422, 6.507e-4
-1.421, 6.384e-4
-1.420, 6.291e-4
-1.419, 6.199e-4
-1.418, 6.075e-4
-1.417, 5.952e-4
-1.416, 5.859e-4
-1.415, 5.736e-4
-1.414, 5.613e-4
-1.413, 5.551e-4
-1.412, 5.428e-4
-1.411, 5.335e-4
-1.410, 5.243e-4
-1.409, 5.150e-4
-1.408, 5.058e-4
-1.407, 4.965e-4
-1.406, 4.873e-4
-1.405, 4.780e-4
-1.404, 4.688e-4
-1.403, 4.626e-4
-1.402, 4.534e-4
-1.401, 4.441e-4
-1.400, 4.349e-4
-1.399, 4.287e-4
-1.398, 4.195e-4
-1.397, 4.133e-4
-1.396, 4.040e-4
-1.395, 3.979e-4
-1.394, 3.886e-4
-1.393, 3.825e-4
-1.392, 3.732e-4
-1.391, 3.670e-4
-1.390, 3.578e-4
-1.389, 3.516e-4
-1.388, 3.455e-4
-1.387, 3.393e-4
-1.386, 3.300e-4
-1.385, 3.270e-4
-1.384, 3.177e-4
-1.383, 3.115e-4
-1.382, 3.054e-4
-1.381, 2.992e-4
-1.380, 2.900e-4
-1.379, 2.838e-4
-1.378, 2.776e-4
-1.377, 2.715e-4
-1.376, 2.653e-4
-1.375, 2.591e-4
-1.374, 2.530e-4
-1.373, 2.468e-4
-1.372, 2.406e-4
-1.371, 2.376e-4
-1.370, 2.314e-4
-1.369, 2.252e-4
-1.368, 2.191e-4
-1.367, 2.129e-4
-1.366, 2.098e-4
-1.365, 2.036e-4
-1.364, 1.975e-4
-1.363, 1.913e-4
-1.362, 1.882e-4
-1.361, 1.821e-4
-1.360, 1.790e-4
-1.359, 1.728e-4
-1.358, 1.666e-4
-1.357, 1.636e-4
-1.356, 1.574e-4
-1.355, 1.543e-4
-1.354, 1.481e-4
-1.353, 1.451e-4
-1.352, 1.389e-4
-1.351, 1.358e-4
-1.350, 1.296e-4
-1.349, 1.266e-4
-1.348, 1.204e-4
-1.347, 1.173e-4
-1.346, 1.142e-4
-1.345, 1.111e-4
-1.344, 1.050e-4
-1.343, 1.019e-4
-1.342, 9.573e-5
-1.341, 9.265e-5
-1.340, 8.957e-5
-1.339, 8.340e-5
-1.338, 8.032e-5
-1.337, 7.723e-5
-1.336, 7.415e-5
-1.335, 6.798e-5
-1.334, 6.490e-5
-1.333, 6.182e-5
-1.332, 5.873e-5
-1.331, 5.257e-5
-1.330, 4.949e-5
-1.329, 4.640e-5
-1.328, 4.332e-5
-1.327, 4.024e-5
-1.326, 3.715e-5
-1.325, 3.099e-5
-1.324, 2.790e-5
-1.323, 2.482e-5
-1.322, 2.174e-5
-1.321, 1.865e-5
-1.320, 1.557e-5
-1.319, 9.405e-6
-1.318, 9.405e-6
-1.317, 6.322e-6
-1.316, 3.239e-6
-1.315, -2.927e-6
-1.314, -2.927e-6
-1.313, -9.093e-6
-1.312, -9.093e-6
-1.311, -1.526e-5
-1.310, -1.526e-5
-1.309, -1.834e-5
-1.308, -2.143e-5
-1.307, -2.451e-5
-1.306, -2.759e-5
-1.305, -3.068e-5
-1.304, -3.376e-5
-1.303, -3.684e-5
-1.302, -3.992e-5
-1.301, -4.301e-5
-1.300, -4.609e-5
-1.299, -4.917e-5
-1.298, -4.917e-5
-1.297, -5.226e-5
-1.296, -5.534e-5
-1.295, -5.842e-5
-1.294, -6.151e-5
-1.293, -6.459e-5
-1.292, -6.767e-5
-1.291, -6.767e-5
-1.290, -7.076e-5
-1.289, -7.384e-5
-1.288, -7.692e-5
-1.287, -7.692e-5
-1.286, -8.309e-5
-1.285, -8.309e-5
-1.284, -8.617e-5
-1.283, -8.925e-5
-1.282, -8.925e-5
-1.281, -9.234e-5
-1.280, -9.542e-5
-1.279, -9.850e-5
-1.278, -1.016e-4
-1.277, -1.016e-4
-1.276, -1.047e-4
-1.275, -1.047e-4
-1.274, -1.078e-4
-1.273, -1.108e-4
-1.272, -1.108e-4
-1.271, -1.139e-4
-1.270, -1.139e-4
-1.269, -1.170e-4
-1.268, -1.201e-4
-1.267, -1.201e-4
-1.266, -1.232e-4
-1.265, -1.263e-4
-1.264, -1.263e-4
-1.263, -1.293e-4
-1.262, -1.293e-4
-1.261, -1.324e-4
-1.260, -1.355e-4
-1.259, -1.355e-4
-1.258, -1.355e-4
-1.257, -1.355e-4
-1.256, -1.386e-4
-1.255, -1.417e-4
-1.254, -1.448e-4
-1.253, -1.448e-4
-1.252, -1.448e-4
-1.251, -1.478e-4
-1.250, -1.509e-4
-1.249, -1.509e-4
-1.248, -1.509e-4
-1.247, -1.540e-4
-1.246, -1.571e-4
-1.245, -1.571e-4
-1.244, -1.602e-4
-1.243, -1.602e-4
-1.242, -1.602e-4
-1.241, -1.602e-4
-1.240, -1.632e-4
-1.239, -1.632e-4
-1.238, -1.632e-4
-1.237, -1.663e-4
-1.236, -1.663e-4
-1.235, -1.694e-4
-1.234, -1.694e-4
-1.233, -1.694e-4
-1.232, -1.694e-4
-1.231, -1.725e-4
-1.230, -1.756e-4
-1.229, -1.756e-4
-1.228, -1.756e-4
-1.227, -1.787e-4
-1.226, -1.787e-4
-1.225, -1.787e-4
-1.224, -1.787e-4
-1.223, -1.787e-4
-1.222, -1.817e-4
-1.221, -1.817e-4
-1.220, -1.848e-4
-1.219, -1.817e-4
-1.218, -1.848e-4
-1.217, -1.848e-4
-1.216, -1.848e-4
-1.215, -1.879e-4
-1.214, -1.879e-4
-1.213, -1.879e-4
-1.212, -1.910e-4
-1.211, -1.910e-4
-1.210, -1.910e-4
-1.209, -1.910e-4
-1.208, -1.910e-4
-1.207, -1.910e-4
-1.206, -1.941e-4
-1.205, -1.941e-4
-1.204, -1.941e-4
-1.203, -1.941e-4
-1.202, -1.941e-4
-1.201, -1.941e-4
-1.200, -1.972e-4
-1.199, -1.972e-4
-1.198, -1.972e-4
-1.197, -1.972e-4
-1.196, -1.972e-4
-1.195, -1.972e-4
-1.194, -2.002e-4
-1.193, -2.002e-4
-1.192, -2.002e-4
-1.191, -2.002e-4
-1.190, -2.002e-4
-1.189, -2.033e-4
-1.188, -2.002e-4
-1.187, -2.002e-4
-1.186, -2.033e-4
-1.185, -2.033e-4
-1.184, -2.033e-4
-1.183, -2.033e-4
-1.182, -2.033e-4
-1.181, -2.033e-4
-1.180, -2.033e-4
-1.179, -2.033e-4
-1.178, -2.064e-4
-1.177, -2.064e-4
-1.176, -2.064e-4
-1.175, -2.064e-4
-1.174, -2.095e-4
-1.173, -2.095e-4
-1.172, -2.064e-4
-1.171, -2.095e-4
-1.170, -2.095e-4
-1.169, -2.095e-4
-1.168, -2.064e-4
-1.167, -2.095e-4
-1.166, -2.095e-4
-1.165, -2.095e-4
-1.164, -2.095e-4
-1.163, -2.095e-4
-1.162, -2.095e-4
-1.161, -2.126e-4
-1.160, -2.126e-4
-1.159, -2.095e-4
-1.158, -2.126e-4
-1.157, -2.126e-4
-1.156, -2.126e-4
-1.155, -2.095e-4
-1.154, -2.126e-4
-1.153, -2.126e-4
-1.152, -2.126e-4
-1.151, -2.126e-4
-1.150, -2.157e-4
-1.149, -2.126e-4
-1.148, -2.126e-4
-1.147, -2.157e-4
-1.146, -2.157e-4
-1.145, -2.157e-4
-1.144, -2.157e-4
-1.143, -2.157e-4
-1.142, -2.157e-4
-1.141, -2.157e-4
-1.140, -2.157e-4
-1.139, -2.157e-4
-1.138, -2.157e-4
-1.137, -2.157e-4
-1.136, -2.157e-4
-1.135, -2.187e-4
-1.134, -2.187e-4
-1.133, -2.187e-4
-1.132, -2.187e-4
-1.131, -2.187e-4
-1.130, -2.187e-4
-1.129, -2.187e-4
-1.128, -2.187e-4
-1.127, -2.187e-4
-1.126, -2.187e-4
-1.125, -2.187e-4
-1.124, -2.218e-4
-1.123, -2.187e-4
-1.122, -2.218e-4
-1.121, -2.218e-4
-1.120, -2.187e-4
-1.119, -2.218e-4
-1.118, -2.218e-4
-1.117, -2.218e-4
-1.116, -2.218e-4
-1.115, -2.218e-4
-1.114, -2.218e-4
-1.113, -2.249e-4
-1.112, -2.249e-4
-1.111, -2.249e-4
-1.110, -2.249e-4
-1.109, -2.249e-4
-1.108, -2.249e-4
-1.107, -2.249e-4
-1.106, -2.249e-4
-1.105, -2.249e-4
-1.104, -2.249e-4
-1.103, -2.249e-4
-1.102, -2.249e-4
-1.101, -2.249e-4
-1.100, -2.280e-4
-1.099, -2.280e-4
-1.098, -2.280e-4
-1.097, -2.280e-4
-1.096, -2.280e-4
-1.095, -2.280e-4
-1.094, -2.280e-4
-1.093, -2.280e-4
-1.092, -2.311e-4
-1.091, -2.280e-4
-1.090, -2.311e-4
-1.089, -2.311e-4
-1.088, -2.280e-4
-1.087, -2.311e-4
-1.086, -2.311e-4
-1.085, -2.311e-4
-1.084, -2.311e-4
-1.083, -2.311e-4
-1.082, -2.311e-4
-1.081, -2.342e-4
-1.080, -2.342e-4
-1.079, -2.342e-4
-1.078, -2.342e-4
-1.077, -2.342e-4
-1.076, -2.372e-4
-1.075, -2.372e-4
-1.074, -2.372e-4
-1.073, -2.372e-4
-1.072, -2.372e-4
-1.071, -2.372e-4
-1.070, -2.372e-4
-1.069, -2.372e-4
-1.068, -2.403e-4
-1.067, -2.403e-4
-1.066, -2.403e-4
-1.065, -2.403e-4
-1.064, -2.403e-4
-1.063, -2.403e-4
-1.062, -2.434e-4
-1.061, -2.434e-4
-1.060, -2.434e-4
-1.059, -2.434e-4
-1.058, -2.434e-4
-1.057, -2.434e-4
-1.056, -2.434e-4
-1.055, -2.465e-4
-1.054, -2.465e-4
-1.053, -2.465e-4
-1.052, -2.465e-4
-1.051, -2.465e-4
-1.050, -2.465e-4
-1.049, -2.465e-4
-1.048, -2.496e-4
-1.047, -2.496e-4
-1.046, -2.496e-4
-1.045, -2.496e-4
-1.044, -2.496e-4
-1.043, -2.527e-4
-1.042, -2.496e-4
-1.041, -2.527e-4
-1.040, -2.527e-4
-1.039, -2.527e-4
-1.038, -2.557e-4
-1.037, -2.557e-4
-1.036, -2.557e-4
-1.035, -2.557e-4
-1.034, -2.557e-4
-1.033, -2.557e-4
-1.032, -2.557e-4
-1.031, -2.588e-4
-1.030, -2.588e-4
-1.029, -2.588e-4
-1.028, -2.588e-4
-1.027, -2.588e-4
-1.026, -2.619e-4
-1.025, -2.619e-4
-1.024, -2.619e-4
-1.023, -2.619e-4
-1.022, -2.619e-4
-1.021, -2.650e-4
-1.020, -2.650e-4
-1.019, -2.650e-4
-1.018, -2.650e-4
-1.017, -2.681e-4
-1.016, -2.681e-4
-1.015, -2.681e-4
-1.014, -2.681e-4
-1.013, -2.681e-4
-1.012, -2.681e-4
-1.011, -2.712e-4
-1.010, -2.712e-4
-1.009, -2.712e-4
-1.008, -2.712e-4
-1.007, -2.712e-4
-1.006, -2.742e-4
-1.005, -2.742e-4
-1.004, -2.742e-4
-1.003, -2.742e-4
-1.002, -2.742e-4
-1.001, -2.773e-4
