Apr. 6, 2025   15:52:23
Linear Sweep Voltammetry
File: c:/users/guazh/data/banditlqround7_x0exp994_r5/2025-03-28-exp1000\1acid_2ac-2025-04-06t15_49_12-lsvinphos\1acid_2ac_lsv_50mvs_efin_-2300mv.bin
Data Source:  Experiment
Instrument Model:  CHI760E
Header: LSV ran at 50 mVs with Efin at -2300mV
Note: 

Init E (V) = -0.6
Final E (V) = -2.3
Scan Rate (V/s) = 0.05
Sample Interval (V) = 0.001
Quiet Time (sec) = 2
Sensitivity (A/V) = 1e-4
Comp R (ohm) = 9.3

Results:

Channel 1:
Ep = -1.901V
ip = 8.048e-4A
Ah = 1.202e-3C

Potential/V, Current/A

-0.600, 2.206e-6
-0.601, 2.299e-6
-0.602, 2.336e-6
-0.603, 2.365e-6
-0.604, 2.393e-6
-0.605, 2.419e-6
-0.606, 2.446e-6
-0.607, 2.471e-6
-0.608, 2.494e-6
-0.609, 2.520e-6
-0.610, 2.546e-6
-0.611, 2.575e-6
-0.612, 2.601e-6
-0.613, 2.625e-6
-0.614, 2.652e-6
-0.615, 2.680e-6
-0.616, 2.706e-6
-0.617, 2.731e-6
-0.618, 2.756e-6
-0.619, 2.782e-6
-0.620, 2.809e-6
-0.621, 2.836e-6
-0.622, 2.863e-6
-0.623, 2.889e-6
-0.624, 2.917e-6
-0.625, 2.945e-6
-0.626, 2.972e-6
-0.627, 2.999e-6
-0.628, 3.027e-6
-0.629, 3.055e-6
-0.630, 3.084e-6
-0.631, 3.112e-6
-0.632, 3.141e-6
-0.633, 3.169e-6
-0.634, 3.196e-6
-0.635, 3.225e-6
-0.636, 3.254e-6
-0.637, 3.282e-6
-0.638, 3.310e-6
-0.639, 3.340e-6
-0.640, 3.370e-6
-0.641, 3.402e-6
-0.642, 3.431e-6
-0.643, 3.460e-6
-0.644, 3.490e-6
-0.645, 3.519e-6
-0.646, 3.552e-6
-0.647, 3.582e-6
-0.648, 3.610e-6
-0.649, 3.642e-6
-0.650, 3.672e-6
-0.651, 3.706e-6
-0.652, 3.736e-6
-0.653, 3.765e-6
-0.654, 3.797e-6
-0.655, 3.827e-6
-0.656, 3.862e-6
-0.657, 3.894e-6
-0.658, 3.922e-6
-0.659, 3.953e-6
-0.660, 3.985e-6
-0.661, 4.018e-6
-0.662, 4.051e-6
-0.663, 4.080e-6
-0.664, 4.111e-6
-0.665, 4.145e-6
-0.666, 4.179e-6
-0.667, 4.208e-6
-0.668, 4.239e-6
-0.669, 4.270e-6
-0.670, 4.304e-6
-0.671, 4.338e-6
-0.672, 4.370e-6
-0.673, 4.401e-6
-0.674, 4.433e-6
-0.675, 4.466e-6
-0.676, 4.502e-6
-0.677, 4.536e-6
-0.678, 4.567e-6
-0.679, 4.600e-6
-0.680, 4.634e-6
-0.681, 4.667e-6
-0.682, 4.699e-6
-0.683, 4.731e-6
-0.684, 4.764e-6
-0.685, 4.798e-6
-0.686, 4.833e-6
-0.687, 4.864e-6
-0.688, 4.896e-6
-0.689, 4.929e-6
-0.690, 4.961e-6
-0.691, 4.996e-6
-0.692, 5.031e-6
-0.693, 5.061e-6
-0.694, 5.094e-6
-0.695, 5.126e-6
-0.696, 5.159e-6
-0.697, 5.193e-6
-0.698, 5.223e-6
-0.699, 5.256e-6
-0.700, 5.288e-6
-0.701, 5.321e-6
-0.702, 5.354e-6
-0.703, 5.384e-6
-0.704, 5.416e-6
-0.705, 5.446e-6
-0.706, 5.481e-6
-0.707, 5.513e-6
-0.708, 5.542e-6
-0.709, 5.574e-6
-0.710, 5.606e-6
-0.711, 5.637e-6
-0.712, 5.667e-6
-0.713, 5.695e-6
-0.714, 5.726e-6
-0.715, 5.757e-6
-0.716, 5.788e-6
-0.717, 5.819e-6
-0.718, 5.849e-6
-0.719, 5.877e-6
-0.720, 5.903e-6
-0.721, 5.931e-6
-0.722, 5.959e-6
-0.723, 5.987e-6
-0.724, 6.015e-6
-0.725, 6.041e-6
-0.726, 6.070e-6
-0.727, 6.097e-6
-0.728, 6.123e-6
-0.729, 6.150e-6
-0.730, 6.174e-6
-0.731, 6.199e-6
-0.732, 6.224e-6
-0.733, 6.248e-6
-0.734, 6.273e-6
-0.735, 6.298e-6
-0.736, 6.323e-6
-0.737, 6.348e-6
-0.738, 6.370e-6
-0.739, 6.394e-6
-0.740, 6.417e-6
-0.741, 6.440e-6
-0.742, 6.462e-6
-0.743, 6.484e-6
-0.744, 6.505e-6
-0.745, 6.528e-6
-0.746, 6.549e-6
-0.747, 6.571e-6
-0.748, 6.590e-6
-0.749, 6.608e-6
-0.750, 6.629e-6
-0.751, 6.649e-6
-0.752, 6.667e-6
-0.753, 6.685e-6
-0.754, 6.701e-6
-0.755, 6.720e-6
-0.756, 6.739e-6
-0.757, 6.755e-6
-0.758, 6.770e-6
-0.759, 6.786e-6
-0.760, 6.802e-6
-0.761, 6.818e-6
-0.762, 6.833e-6
-0.763, 6.845e-6
-0.764, 6.860e-6
-0.765, 6.872e-6
-0.766, 6.887e-6
-0.767, 6.900e-6
-0.768, 6.912e-6
-0.769, 6.923e-6
-0.770, 6.935e-6
-0.771, 6.947e-6
-0.772, 6.956e-6
-0.773, 6.965e-6
-0.774, 6.976e-6
-0.775, 6.984e-6
-0.776, 6.995e-6
-0.777, 7.004e-6
-0.778, 7.010e-6
-0.779, 7.018e-6
-0.780, 7.025e-6
-0.781, 7.033e-6
-0.782, 7.040e-6
-0.783, 7.044e-6
-0.784, 7.051e-6
-0.785, 7.056e-6
-0.786, 7.062e-6
-0.787, 7.068e-6
-0.788, 7.070e-6
-0.789, 7.074e-6
-0.790, 7.078e-6
-0.791, 7.082e-6
-0.792, 7.085e-6
-0.793, 7.087e-6
-0.794, 7.089e-6
-0.795, 7.092e-6
-0.796, 7.093e-6
-0.797, 7.095e-6
-0.798, 7.094e-6
-0.799, 7.094e-6
-0.800, 7.094e-6
-0.801, 7.097e-6
-0.802, 7.095e-6
-0.803, 7.093e-6
-0.804, 7.092e-6
-0.805, 7.090e-6
-0.806, 7.090e-6
-0.807, 7.089e-6
-0.808, 7.086e-6
-0.809, 7.084e-6
-0.810, 7.079e-6
-0.811, 7.079e-6
-0.812, 7.075e-6
-0.813, 7.070e-6
-0.814, 7.066e-6
-0.815, 7.062e-6
-0.816, 7.059e-6
-0.817, 7.054e-6
-0.818, 7.047e-6
-0.819, 7.046e-6
-0.820, 7.042e-6
-0.821, 7.036e-6
-0.822, 7.030e-6
-0.823, 7.022e-6
-0.824, 7.017e-6
-0.825, 7.011e-6
-0.826, 7.006e-6
-0.827, 6.999e-6
-0.828, 6.990e-6
-0.829, 6.984e-6
-0.830, 6.977e-6
-0.831, 6.970e-6
-0.832, 6.963e-6
-0.833, 6.954e-6
-0.834, 6.946e-6
-0.835, 6.938e-6
-0.836, 6.932e-6
-0.837, 6.923e-6
-0.838, 6.913e-6
-0.839, 6.904e-6
-0.840, 6.896e-6
-0.841, 6.888e-6
-0.842, 6.881e-6
-0.843, 6.871e-6
-0.844, 6.861e-6
-0.845, 6.852e-6
-0.846, 6.844e-6
-0.847, 6.834e-6
-0.848, 6.825e-6
-0.849, 6.815e-6
-0.850, 6.804e-6
-0.851, 6.797e-6
-0.852, 6.786e-6
-0.853, 6.774e-6
-0.854, 6.764e-6
-0.855, 6.754e-6
-0.856, 6.745e-6
-0.857, 6.735e-6
-0.858, 6.724e-6
-0.859, 6.715e-6
-0.860, 6.704e-6
-0.861, 6.695e-6
-0.862, 6.684e-6
-0.863, 6.672e-6
-0.864, 6.663e-6
-0.865, 6.652e-6
-0.866, 6.642e-6
-0.867, 6.632e-6
-0.868, 6.620e-6
-0.869, 6.608e-6
-0.870, 6.599e-6
-0.871, 6.591e-6
-0.872, 6.580e-6
-0.873, 6.568e-6
-0.874, 6.556e-6
-0.875, 6.546e-6
-0.876, 6.536e-6
-0.877, 6.525e-6
-0.878, 6.514e-6
-0.879, 6.503e-6
-0.880, 6.491e-6
-0.881, 6.483e-6
-0.882, 6.471e-6
-0.883, 6.462e-6
-0.884, 6.451e-6
-0.885, 6.439e-6
-0.886, 6.430e-6
-0.887, 6.419e-6
-0.888, 6.409e-6
-0.889, 6.397e-6
-0.890, 6.387e-6
-0.891, 6.378e-6
-0.892, 6.368e-6
-0.893, 6.355e-6
-0.894, 6.345e-6
-0.895, 6.334e-6
-0.896, 6.326e-6
-0.897, 6.317e-6
-0.898, 6.304e-6
-0.899, 6.293e-6
-0.900, 6.284e-6
-0.901, 6.275e-6
-0.902, 6.265e-6
-0.903, 6.253e-6
-0.904, 6.242e-6
-0.905, 6.234e-6
-0.906, 6.224e-6
-0.907, 6.216e-6
-0.908, 6.205e-6
-0.909, 6.197e-6
-0.910, 6.188e-6
-0.911, 6.179e-6
-0.912, 6.170e-6
-0.913, 6.160e-6
-0.914, 6.149e-6
-0.915, 6.140e-6
-0.916, 6.133e-6
-0.917, 6.124e-6
-0.918, 6.114e-6
-0.919, 6.103e-6
-0.920, 6.093e-6
-0.921, 6.086e-6
-0.922, 6.077e-6
-0.923, 6.067e-6
-0.924, 6.057e-6
-0.925, 6.048e-6
-0.926, 6.041e-6
-0.927, 6.031e-6
-0.928, 6.021e-6
-0.929, 6.013e-6
-0.930, 6.003e-6
-0.931, 5.996e-6
-0.932, 5.987e-6
-0.933, 5.976e-6
-0.934, 5.968e-6
-0.935, 5.959e-6
-0.936, 5.953e-6
-0.937, 5.943e-6
-0.938, 5.934e-6
-0.939, 5.927e-6
-0.940, 5.919e-6
-0.941, 5.913e-6
-0.942, 5.906e-6
-0.943, 5.897e-6
-0.944, 5.890e-6
-0.945, 5.882e-6
-0.946, 5.875e-6
-0.947, 5.869e-6
-0.948, 5.860e-6
-0.949, 5.850e-6
-0.950, 5.843e-6
-0.951, 5.837e-6
-0.952, 5.829e-6
-0.953, 5.821e-6
-0.954, 5.813e-6
-0.955, 5.806e-6
-0.956, 5.799e-6
-0.957, 5.792e-6
-0.958, 5.784e-6
-0.959, 5.775e-6
-0.960, 5.767e-6
-0.961, 5.762e-6
-0.962, 5.755e-6
-0.963, 5.747e-6
-0.964, 5.739e-6
-0.965, 5.731e-6
-0.966, 5.725e-6
-0.967, 5.718e-6
-0.968, 5.710e-6
-0.969, 5.703e-6
-0.970, 5.696e-6
-0.971, 5.690e-6
-0.972, 5.684e-6
-0.973, 5.678e-6
-0.974, 5.670e-6
-0.975, 5.663e-6
-0.976, 5.658e-6
-0.977, 5.653e-6
-0.978, 5.644e-6
-0.979, 5.639e-6
-0.980, 5.633e-6
-0.981, 5.627e-6
-0.982, 5.620e-6
-0.983, 5.613e-6
-0.984, 5.607e-6
-0.985, 5.601e-6
-0.986, 5.596e-6
-0.987, 5.590e-6
-0.988, 5.583e-6
-0.989, 5.576e-6
-0.990, 5.571e-6
-0.991, 5.565e-6
-0.992, 5.560e-6
-0.993, 5.555e-6
-0.994, 5.547e-6
-0.995, 5.541e-6
-0.996, 5.536e-6
-0.997, 5.530e-6
-0.998, 5.524e-6
-0.999, 5.519e-6
-1.000, 5.512e-6
-1.001, 5.510e-6
-1.002, 5.503e-6
-1.003, 5.496e-6
-1.004, 5.491e-6
-1.005, 5.485e-6
-1.006, 5.481e-6
-1.007, 5.476e-6
-1.008, 5.470e-6
-1.009, 5.464e-6
-1.010, 5.459e-6
-1.011, 5.455e-6
-1.012, 5.450e-6
-1.013, 5.443e-6
-1.014, 5.438e-6
-1.015, 5.433e-6
-1.016, 5.430e-6
-1.017, 5.425e-6
-1.018, 5.418e-6
-1.019, 5.414e-6
-1.020, 5.410e-6
-1.021, 5.407e-6
-1.022, 5.403e-6
-1.023, 5.396e-6
-1.024, 5.393e-6
-1.025, 5.387e-6
-1.026, 5.384e-6
-1.027, 5.380e-6
-1.028, 5.376e-6
-1.029, 5.371e-6
-1.030, 5.366e-6
-1.031, 5.362e-6
-1.032, 5.358e-6
-1.033, 5.353e-6
-1.034, 5.348e-6
-1.035, 5.344e-6
-1.036, 5.341e-6
-1.037, 5.338e-6
-1.038, 5.332e-6
-1.039, 5.328e-6
-1.040, 5.324e-6
-1.041, 5.321e-6
-1.042, 5.317e-6
-1.043, 5.312e-6
-1.044, 5.309e-6
-1.045, 5.303e-6
-1.046, 5.301e-6
-1.047, 5.297e-6
-1.048, 5.293e-6
-1.049, 5.290e-6
-1.050, 5.285e-6
-1.051, 5.284e-6
-1.052, 5.281e-6
-1.053, 5.275e-6
-1.054, 5.272e-6
-1.055, 5.269e-6
-1.056, 5.267e-6
-1.057, 5.264e-6
-1.058, 5.259e-6
-1.059, 5.255e-6
-1.060, 5.252e-6
-1.061, 5.251e-6
-1.062, 5.248e-6
-1.063, 5.244e-6
-1.064, 5.241e-6
-1.065, 5.236e-6
-1.066, 5.235e-6
-1.067, 5.232e-6
-1.068, 5.229e-6
-1.069, 5.225e-6
-1.070, 5.223e-6
-1.071, 5.221e-6
-1.072, 5.219e-6
-1.073, 5.214e-6
-1.074, 5.211e-6
-1.075, 5.210e-6
-1.076, 5.209e-6
-1.077, 5.205e-6
-1.078, 5.203e-6
-1.079, 5.199e-6
-1.080, 5.196e-6
-1.081, 5.196e-6
-1.082, 5.193e-6
-1.083, 5.191e-6
-1.084, 5.188e-6
-1.085, 5.185e-6
-1.086, 5.183e-6
-1.087, 5.181e-6
-1.088, 5.179e-6
-1.089, 5.176e-6
-1.090, 5.173e-6
-1.091, 5.175e-6
-1.092, 5.173e-6
-1.093, 5.168e-6
-1.094, 5.167e-6
-1.095, 5.164e-6
-1.096, 5.164e-6
-1.097, 5.162e-6
-1.098, 5.158e-6
-1.099, 5.157e-6
-1.100, 5.154e-6
-1.101, 5.155e-6
-1.102, 5.153e-6
-1.103, 5.150e-6
-1.104, 5.150e-6
-1.105, 5.147e-6
-1.106, 5.147e-6
-1.107, 5.145e-6
-1.108, 5.143e-6
-1.109, 5.142e-6
-1.110, 5.140e-6
-1.111, 5.140e-6
-1.112, 5.139e-6
-1.113, 5.136e-6
-1.114, 5.136e-6
-1.115, 5.136e-6
-1.116, 5.135e-6
-1.117, 5.133e-6
-1.118, 5.132e-6
-1.119, 5.131e-6
-1.120, 5.129e-6
-1.121, 5.130e-6
-1.122, 5.129e-6
-1.123, 5.128e-6
-1.124, 5.127e-6
-1.125, 5.125e-6
-1.126, 5.125e-6
-1.127, 5.125e-6
-1.128, 5.123e-6
-1.129, 5.123e-6
-1.130, 5.121e-6
-1.131, 5.123e-6
-1.132, 5.123e-6
-1.133, 5.120e-6
-1.134, 5.121e-6
-1.135, 5.118e-6
-1.136, 5.119e-6
-1.137, 5.120e-6
-1.138, 5.118e-6
-1.139, 5.119e-6
-1.140, 5.118e-6
-1.141, 5.119e-6
-1.142, 5.119e-6
-1.143, 5.118e-6
-1.144, 5.117e-6
-1.145, 5.117e-6
-1.146, 5.117e-6
-1.147, 5.117e-6
-1.148, 5.117e-6
-1.149, 5.115e-6
-1.150, 5.116e-6
-1.151, 5.117e-6
-1.152, 5.119e-6
-1.153, 5.119e-6
-1.154, 5.118e-6
-1.155, 5.118e-6
-1.156, 5.119e-6
-1.157, 5.119e-6
-1.158, 5.120e-6
-1.159, 5.119e-6
-1.160, 5.119e-6
-1.161, 5.122e-6
-1.162, 5.123e-6
-1.163, 5.123e-6
-1.164, 5.123e-6
-1.165, 5.124e-6
-1.166, 5.126e-6
-1.167, 5.126e-6
-1.168, 5.125e-6
-1.169, 5.127e-6
-1.170, 5.126e-6
-1.171, 5.128e-6
-1.172, 5.129e-6
-1.173, 5.130e-6
-1.174, 5.131e-6
-1.175, 5.130e-6
-1.176, 5.133e-6
-1.177, 5.135e-6
-1.178, 5.137e-6
-1.179, 5.137e-6
-1.180, 5.137e-6
-1.181, 5.139e-6
-1.182, 5.141e-6
-1.183, 5.141e-6
-1.184, 5.144e-6
-1.185, 5.145e-6
-1.186, 5.146e-6
-1.187, 5.149e-6
-1.188, 5.150e-6
-1.189, 5.151e-6
-1.190, 5.154e-6
-1.191, 5.155e-6
-1.192, 5.157e-6
-1.193, 5.160e-6
-1.194, 5.160e-6
-1.195, 5.162e-6
-1.196, 5.164e-6
-1.197, 5.166e-6
-1.198, 5.168e-6
-1.199, 5.169e-6
-1.200, 5.171e-6
-1.201, 5.176e-6
-1.202, 5.176e-6
-1.203, 5.178e-6
-1.204, 5.181e-6
-1.205, 5.182e-6
-1.206, 5.186e-6
-1.207, 5.188e-6
-1.208, 5.189e-6
-1.209, 5.192e-6
-1.210, 5.194e-6
-1.211, 5.199e-6
-1.212, 5.201e-6
-1.213, 5.201e-6
-1.214, 5.204e-6
-1.215, 5.207e-6
-1.216, 5.211e-6
-1.217, 5.216e-6
-1.218, 5.217e-6
-1.219, 5.219e-6
-1.220, 5.219e-6
-1.221, 5.224e-6
-1.222, 5.229e-6
-1.223, 5.230e-6
-1.224, 5.232e-6
-1.225, 5.236e-6
-1.226, 5.240e-6
-1.227, 5.242e-6
-1.228, 5.245e-6
-1.229, 5.252e-6
-1.230, 5.253e-6
-1.231, 5.257e-6
-1.232, 5.259e-6
-1.233, 5.262e-6
-1.234, 5.264e-6
-1.235, 5.269e-6
-1.236, 5.273e-6
-1.237, 5.276e-6
-1.238, 5.279e-6
-1.239, 5.283e-6
-1.240, 5.286e-6
-1.241, 5.291e-6
-1.242, 5.295e-6
-1.243, 5.298e-6
-1.244, 5.302e-6
-1.245, 5.305e-6
-1.246, 5.310e-6
-1.247, 5.314e-6
-1.248, 5.318e-6
-1.249, 5.322e-6
-1.250, 5.324e-6
-1.251, 5.330e-6
-1.252, 5.334e-6
-1.253, 5.336e-6
-1.254, 5.341e-6
-1.255, 5.345e-6
-1.256, 5.351e-6
-1.257, 5.356e-6
-1.258, 5.359e-6
-1.259, 5.363e-6
-1.260, 5.368e-6
-1.261, 5.373e-6
-1.262, 5.377e-6
-1.263, 5.381e-6
-1.264, 5.386e-6
-1.265, 5.390e-6
-1.266, 5.396e-6
-1.267, 5.401e-6
-1.268, 5.404e-6
-1.269, 5.409e-6
-1.270, 5.414e-6
-1.271, 5.419e-6
-1.272, 5.425e-6
-1.273, 5.429e-6
-1.274, 5.434e-6
-1.275, 5.438e-6
-1.276, 5.445e-6
-1.277, 5.451e-6
-1.278, 5.456e-6
-1.279, 5.461e-6
-1.280, 5.468e-6
-1.281, 5.476e-6
-1.282, 5.480e-6
-1.283, 5.484e-6
-1.284, 5.489e-6
-1.285, 5.494e-6
-1.286, 5.501e-6
-1.287, 5.508e-6
-1.288, 5.513e-6
-1.289, 5.519e-6
-1.290, 5.524e-6
-1.291, 5.531e-6
-1.292, 5.537e-6
-1.293, 5.544e-6
-1.294, 5.549e-6
-1.295, 5.555e-6
-1.296, 5.563e-6
-1.297, 5.570e-6
-1.298, 5.574e-6
-1.299, 5.581e-6
-1.300, 5.588e-6
-1.301, 5.595e-6
-1.302, 5.602e-6
-1.303, 5.608e-6
-1.304, 5.614e-6
-1.305, 5.621e-6
-1.306, 5.629e-6
-1.307, 5.636e-6
-1.308, 5.642e-6
-1.309, 5.648e-6
-1.310, 5.656e-6
-1.311, 5.663e-6
-1.312, 5.671e-6
-1.313, 5.676e-6
-1.314, 5.683e-6
-1.315, 5.690e-6
-1.316, 5.699e-6
-1.317, 5.706e-6
-1.318, 5.714e-6
-1.319, 5.721e-6
-1.320, 5.729e-6
-1.321, 5.738e-6
-1.322, 5.745e-6
-1.323, 5.753e-6
-1.324, 5.761e-6
-1.325, 5.769e-6
-1.326, 5.778e-6
-1.327, 5.786e-6
-1.328, 5.794e-6
-1.329, 5.802e-6
-1.330, 5.809e-6
-1.331, 5.820e-6
-1.332, 5.829e-6
-1.333, 5.835e-6
-1.334, 5.844e-6
-1.335, 5.851e-6
-1.336, 5.861e-6
-1.337, 5.870e-6
-1.338, 5.878e-6
-1.339, 5.886e-6
-1.340, 5.894e-6
-1.341, 5.903e-6
-1.342, 5.913e-6
-1.343, 5.920e-6
-1.344, 5.928e-6
-1.345, 5.937e-6
-1.346, 5.945e-6
-1.347, 5.955e-6
-1.348, 5.964e-6
-1.349, 5.973e-6
-1.350, 5.982e-6
-1.351, 5.994e-6
-1.352, 6.003e-6
-1.353, 6.012e-6
-1.354, 6.021e-6
-1.355, 6.031e-6
-1.356, 6.043e-6
-1.357, 6.054e-6
-1.358, 6.062e-6
-1.359, 6.072e-6
-1.360, 6.082e-6
-1.361, 6.093e-6
-1.362, 6.104e-6
-1.363, 6.115e-6
-1.364, 6.125e-6
-1.365, 6.135e-6
-1.366, 6.146e-6
-1.367, 6.158e-6
-1.368, 6.167e-6
-1.369, 6.177e-6
-1.370, 6.188e-6
-1.371, 6.199e-6
-1.372, 6.210e-6
-1.373, 6.220e-6
-1.374, 6.230e-6
-1.375, 6.240e-6
-1.376, 6.254e-6
-1.377, 6.266e-6
-1.378, 6.275e-6
-1.379, 6.287e-6
-1.380, 6.299e-6
-1.381, 6.311e-6
-1.382, 6.324e-6
-1.383, 6.336e-6
-1.384, 6.347e-6
-1.385, 6.361e-6
-1.386, 6.372e-6
-1.387, 6.386e-6
-1.388, 6.397e-6
-1.389, 6.409e-6
-1.390, 6.422e-6
-1.391, 6.437e-6
-1.392, 6.450e-6
-1.393, 6.461e-6
-1.394, 6.473e-6
-1.395, 6.485e-6
-1.396, 6.501e-6
-1.397, 6.513e-6
-1.398, 6.528e-6
-1.399, 6.540e-6
-1.400, 6.554e-6
-1.401, 6.570e-6
-1.402, 6.583e-6
-1.403, 6.597e-6
-1.404, 6.610e-6
-1.405, 6.623e-6
-1.406, 6.639e-6
-1.407, 6.654e-6
-1.408, 6.668e-6
-1.409, 6.683e-6
-1.410, 6.696e-6
-1.411, 6.712e-6
-1.412, 6.727e-6
-1.413, 6.741e-6
-1.414, 6.757e-6
-1.415, 6.770e-6
-1.416, 6.787e-6
-1.417, 6.803e-6
-1.418, 6.818e-6
-1.419, 6.833e-6
-1.420, 6.848e-6
-1.421, 6.865e-6
-1.422, 6.881e-6
-1.423, 6.896e-6
-1.424, 6.911e-6
-1.425, 6.927e-6
-1.426, 6.944e-6
-1.427, 6.963e-6
-1.428, 6.978e-6
-1.429, 6.993e-6
-1.430, 7.010e-6
-1.431, 7.026e-6
-1.432, 7.045e-6
-1.433, 7.063e-6
-1.434, 7.080e-6
-1.435, 7.097e-6
-1.436, 7.117e-6
-1.437, 7.134e-6
-1.438, 7.151e-6
-1.439, 7.169e-6
-1.440, 7.188e-6
-1.441, 7.206e-6
-1.442, 7.226e-6
-1.443, 7.243e-6
-1.444, 7.259e-6
-1.445, 7.277e-6
-1.446, 7.298e-6
-1.447, 7.317e-6
-1.448, 7.335e-6
-1.449, 7.353e-6
-1.450, 7.371e-6
-1.451, 7.393e-6
-1.452, 7.413e-6
-1.453, 7.432e-6
-1.454, 7.453e-6
-1.455, 7.471e-6
-1.456, 7.493e-6
-1.457, 7.515e-6
-1.458, 7.533e-6
-1.459, 7.554e-6
-1.460, 7.575e-6
-1.461, 7.597e-6
-1.462, 7.618e-6
-1.463, 7.639e-6
-1.464, 7.659e-6
-1.465, 7.682e-6
-1.466, 7.706e-6
-1.467, 7.729e-6
-1.468, 7.750e-6
-1.469, 7.770e-6
-1.470, 7.793e-6
-1.471, 7.817e-6
-1.472, 7.839e-6
-1.473, 7.862e-6
-1.474, 7.885e-6
-1.475, 7.907e-6
-1.476, 7.933e-6
-1.477, 7.957e-6
-1.478, 7.981e-6
-1.479, 8.004e-6
-1.480, 8.028e-6
-1.481, 8.054e-6
-1.482, 8.079e-6
-1.483, 8.102e-6
-1.484, 8.126e-6
-1.485, 8.152e-6
-1.486, 8.181e-6
-1.487, 8.207e-6
-1.488, 8.234e-6
-1.489, 8.261e-6
-1.490, 8.287e-6
-1.491, 8.315e-6
-1.492, 8.343e-6
-1.493, 8.368e-6
-1.494, 8.395e-6
-1.495, 8.421e-6
-1.496, 8.449e-6
-1.497, 8.480e-6
-1.498, 8.508e-6
-1.499, 8.535e-6
-1.500, 8.563e-6
-1.501, 8.592e-6
-1.502, 8.621e-6
-1.503, 8.647e-6
-1.504, 8.678e-6
-1.505, 8.709e-6
-1.506, 8.738e-6
-1.507, 8.772e-6
-1.508, 8.801e-6
-1.509, 8.831e-6
-1.510, 8.862e-6
-1.511, 8.894e-6
-1.512, 8.926e-6
-1.513, 8.957e-6
-1.514, 8.990e-6
-1.515, 9.022e-6
-1.516, 9.057e-6
-1.517, 9.092e-6
-1.518, 9.124e-6
-1.519, 9.157e-6
-1.520, 9.191e-6
-1.521, 9.229e-6
-1.522, 9.264e-6
-1.523, 9.300e-6
-1.524, 9.335e-6
-1.525, 9.369e-6
-1.526, 9.408e-6
-1.527, 9.444e-6
-1.528, 9.480e-6
-1.529, 9.518e-6
-1.530, 9.556e-6
-1.531, 9.596e-6
-1.532, 9.636e-6
-1.533, 9.673e-6
-1.534, 9.712e-6
-1.535, 9.753e-6
-1.536, 9.797e-6
-1.537, 9.839e-6
-1.538, 9.878e-6
-1.539, 9.921e-6
-1.540, 9.962e-6
-1.541, 1.001e-5
-1.542, 1.005e-5
-1.543, 1.009e-5
-1.544, 1.014e-5
-1.545, 1.018e-5
-1.546, 1.023e-5
-1.547, 1.027e-5
-1.548, 1.032e-5
-1.549, 1.037e-5
-1.550, 1.041e-5
-1.551, 1.046e-5
-1.552, 1.051e-5
-1.553, 1.056e-5
-1.554, 1.061e-5
-1.555, 1.067e-5
-1.556, 1.072e-5
-1.557, 1.077e-5
-1.558, 1.083e-5
-1.559, 1.088e-5
-1.560, 1.094e-5
-1.561, 1.099e-5
-1.562, 1.105e-5
-1.563, 1.111e-5
-1.564, 1.117e-5
-1.565, 1.122e-5
-1.566, 1.129e-5
-1.567, 1.135e-5
-1.568, 1.141e-5
-1.569, 1.147e-5
-1.570, 1.153e-5
-1.571, 1.160e-5
-1.572, 1.167e-5
-1.573, 1.173e-5
-1.574, 1.180e-5
-1.575, 1.187e-5
-1.576, 1.194e-5
-1.577, 1.201e-5
-1.578, 1.207e-5
-1.579, 1.214e-5
-1.580, 1.221e-5
-1.581, 1.229e-5
-1.582, 1.237e-5
-1.583, 1.244e-5
-1.584, 1.252e-5
-1.585, 1.260e-5
-1.586, 1.269e-5
-1.587, 1.277e-5
-1.588, 1.286e-5
-1.589, 1.294e-5
-1.590, 1.303e-5
-1.591, 1.312e-5
-1.592, 1.321e-5
-1.593, 1.330e-5
-1.594, 1.339e-5
-1.595, 1.349e-5
-1.596, 1.359e-5
-1.597, 1.369e-5
-1.598, 1.379e-5
-1.599, 1.389e-5
-1.600, 1.399e-5
-1.601, 1.410e-5
-1.602, 1.420e-5
-1.603, 1.431e-5
-1.604, 1.442e-5
-1.605, 1.453e-5
-1.606, 1.465e-5
-1.607, 1.476e-5
-1.608, 1.488e-5
-1.609, 1.500e-5
-1.610, 1.513e-5
-1.611, 1.525e-5
-1.612, 1.538e-5
-1.613, 1.551e-5
-1.614, 1.564e-5
-1.615, 1.577e-5
-1.616, 1.591e-5
-1.617, 1.605e-5
-1.618, 1.619e-5
-1.619, 1.634e-5
-1.620, 1.648e-5
-1.621, 1.664e-5
-1.622, 1.679e-5
-1.623, 1.694e-5
-1.624, 1.710e-5
-1.625, 1.725e-5
-1.626, 1.742e-5
-1.627, 1.759e-5
-1.628, 1.776e-5
-1.629, 1.793e-5
-1.630, 1.811e-5
-1.631, 1.829e-5
-1.632, 1.847e-5
-1.633, 1.866e-5
-1.634, 1.885e-5
-1.635, 1.905e-5
-1.636, 1.925e-5
-1.637, 1.947e-5
-1.638, 1.968e-5
-1.639, 1.992e-5
-1.640, 2.013e-5
-1.641, 2.036e-5
-1.642, 2.060e-5
-1.643, 2.084e-5
-1.644, 2.109e-5
-1.645, 2.135e-5
-1.646, 2.163e-5
-1.647, 2.190e-5
-1.648, 2.219e-5
-1.649, 2.248e-5
-1.650, 2.279e-5
-1.651, 2.311e-5
-1.652, 2.345e-5
-1.653, 2.380e-5
-1.654, 2.417e-5
-1.655, 2.453e-5
-1.656, 2.493e-5
-1.657, 2.534e-5
-1.658, 2.576e-5
-1.659, 2.620e-5
-1.660, 2.667e-5
-1.661, 2.716e-5
-1.662, 2.767e-5
-1.663, 2.819e-5
-1.664, 2.874e-5
-1.665, 2.932e-5
-1.666, 2.993e-5
-1.667, 3.056e-5
-1.668, 3.122e-5
-1.669, 3.191e-5
-1.670, 3.263e-5
-1.671, 3.338e-5
-1.672, 3.416e-5
-1.673, 3.497e-5
-1.674, 3.580e-5
-1.675, 3.668e-5
-1.676, 3.758e-5
-1.677, 3.852e-5
-1.678, 3.948e-5
-1.679, 4.047e-5
-1.680, 4.150e-5
-1.681, 4.256e-5
-1.682, 4.364e-5
-1.683, 4.474e-5
-1.684, 4.588e-5
-1.685, 4.705e-5
-1.686, 4.825e-5
-1.687, 4.947e-5
-1.688, 5.071e-5
-1.689, 5.197e-5
-1.690, 5.327e-5
-1.691, 5.459e-5
-1.692, 5.593e-5
-1.693, 5.728e-5
-1.694, 5.865e-5
-1.695, 6.003e-5
-1.696, 6.145e-5
-1.697, 6.288e-5
-1.698, 6.433e-5
-1.699, 6.579e-5
-1.700, 6.728e-5
-1.701, 6.879e-5
-1.702, 7.031e-5
-1.703, 7.186e-5
-1.704, 7.341e-5
-1.705, 7.499e-5
-1.706, 7.658e-5
-1.707, 7.820e-5
-1.708, 7.984e-5
-1.709, 8.149e-5
-1.710, 8.315e-5
-1.711, 8.485e-5
-1.712, 8.656e-5
-1.713, 8.829e-5
-1.714, 9.006e-5
-1.715, 9.184e-5
-1.716, 9.365e-5
-1.717, 9.549e-5
-1.718, 9.734e-5
-1.719, 9.921e-5
-1.720, 1.011e-4
-1.721, 1.030e-4
-1.722, 1.050e-4
-1.723, 1.069e-4
-1.724, 1.089e-4
-1.725, 1.109e-4
-1.726, 1.130e-4
-1.727, 1.150e-4
-1.728, 1.171e-4
-1.729, 1.193e-4
-1.730, 1.214e-4
-1.731, 1.236e-4
-1.732, 1.258e-4
-1.733, 1.280e-4
-1.734, 1.303e-4
-1.735, 1.326e-4
-1.736, 1.349e-4
-1.737, 1.372e-4
-1.738, 1.396e-4
-1.739, 1.420e-4
-1.740, 1.444e-4
-1.741, 1.469e-4
-1.742, 1.493e-4
-1.743, 1.519e-4
-1.744, 1.544e-4
-1.745, 1.570e-4
-1.746, 1.596e-4
-1.747, 1.622e-4
-1.748, 1.649e-4
-1.749, 1.676e-4
-1.750, 1.703e-4
-1.751, 1.731e-4
-1.752, 1.759e-4
-1.753, 1.787e-4
-1.754, 1.815e-4
-1.755, 1.844e-4
-1.756, 1.873e-4
-1.757, 1.903e-4
-1.758, 1.933e-4
-1.759, 1.963e-4
-1.760, 1.994e-4
-1.761, 2.025e-4
-1.762, 2.057e-4
-1.763, 2.088e-4
-1.764, 2.120e-4
-1.765, 2.153e-4
-1.766, 2.186e-4
-1.767, 2.219e-4
-1.768, 2.253e-4
-1.769, 2.287e-4
-1.770, 2.321e-4
-1.771, 2.356e-4
-1.772, 2.392e-4
-1.773, 2.427e-4
-1.774, 2.464e-4
-1.775, 2.500e-4
-1.776, 2.537e-4
-1.777, 2.574e-4
-1.778, 2.612e-4
-1.779, 2.651e-4
-1.780, 2.689e-4
-1.781, 2.728e-4
-1.782, 2.768e-4
-1.783, 2.808e-4
-1.784, 2.849e-4
-1.785, 2.889e-4
-1.786, 2.931e-4
-1.787, 2.972e-4
-1.788, 3.015e-4
-1.789, 3.057e-4
-1.790, 3.101e-4
-1.791, 3.144e-4
-1.792, 3.189e-4
-1.793, 3.234e-4
-1.794, 3.279e-4
-1.795, 3.325e-4
-1.796, 3.371e-4
-1.797, 3.418e-4
-1.798, 3.465e-4
-1.799, 3.513e-4
-1.800, 3.561e-4
-1.801, 3.609e-4
-1.802, 3.659e-4
-1.803, 3.708e-4
-1.804, 3.758e-4
-1.805, 3.809e-4
-1.806, 3.860e-4
-1.807, 3.911e-4
-1.808, 3.964e-4
-1.809, 4.016e-4
-1.810, 4.069e-4
-1.811, 4.123e-4
-1.812, 4.177e-4
-1.813, 4.231e-4
-1.814, 4.286e-4
-1.815, 4.342e-4
-1.816, 4.398e-4
-1.817, 4.455e-4
-1.818, 4.512e-4
-1.819, 4.570e-4
-1.820, 4.628e-4
-1.821, 4.687e-4
-1.822, 4.746e-4
-1.823, 4.806e-4
-1.824, 4.866e-4
-1.825, 4.927e-4
-1.826, 4.988e-4
-1.827, 5.049e-4
-1.828, 5.111e-4
-1.829, 5.173e-4
-1.830, 5.236e-4
-1.831, 5.299e-4
-1.832, 5.363e-4
-1.833, 5.426e-4
-1.834, 5.489e-4
-1.835, 5.553e-4
-1.836, 5.618e-4
-1.837, 5.683e-4
-1.838, 5.748e-4
-1.839, 5.813e-4
-1.840, 5.878e-4
-1.841, 5.945e-4
-1.842, 6.011e-4
-1.843, 6.078e-4
-1.844, 6.145e-4
-1.845, 6.214e-4
-1.846, 6.282e-4
-1.847, 6.352e-4
-1.848, 6.421e-4
-1.849, 6.490e-4
-1.850, 6.559e-4
-1.851, 6.627e-4
-1.852, 6.695e-4
-1.853, 6.764e-4
-1.854, 6.833e-4
-1.855, 6.903e-4
-1.856, 6.975e-4
-1.857, 7.046e-4
-1.858, 7.118e-4
-1.859, 7.191e-4
-1.860, 7.260e-4
-1.861, 7.332e-4
-1.862, 7.403e-4
-1.863, 7.469e-4
-1.864, 7.533e-4
-1.865, 7.599e-4
-1.866, 7.668e-4
-1.867, 7.735e-4
-1.868, 7.803e-4
-1.869, 7.878e-4
-1.870, 7.951e-4
-1.871, 8.025e-4
-1.872, 8.098e-4
-1.873, 8.167e-4
-1.874, 8.237e-4
-1.875, 8.305e-4
-1.876, 8.369e-4
-1.877, 8.435e-4
-1.878, 8.508e-4
-1.879, 8.581e-4
-1.880, 8.654e-4
-1.881, 8.726e-4
-1.882, 8.793e-4
-1.883, 8.860e-4
-1.884, 8.927e-4
-1.885, 8.998e-4
-1.886, 9.073e-4
-1.887, 9.145e-4
-1.888, 9.218e-4
-1.889, 9.292e-4
-1.890, 9.367e-4
-1.891, 9.439e-4
-1.892, 9.521e-4
-1.893, 9.591e-4
-1.894, 9.660e-4
-1.895, 9.747e-4
-1.896, 9.825e-4
-1.897, 9.906e-4
-1.898, 9.984e-4
-1.899, 1.006e-3
-1.900, 1.011e-3
-1.901, 1.011e-3
-1.902, 1.011e-3
-1.903, 1.011e-3
-1.904, 1.011e-3
-1.905, 1.011e-3
-1.906, 1.011e-3
-1.907, 1.011e-3
-1.908, 1.011e-3
-1.909, 1.011e-3
-1.910, 1.011e-3
-1.911, 1.011e-3
-1.912, 1.011e-3
-1.913, 1.011e-3
-1.914, 1.011e-3
-1.915, 1.011e-3
-1.916, 1.011e-3
-1.917, 1.011e-3
-1.918, 1.011e-3
-1.919, 1.011e-3
-1.920, 1.011e-3
-1.921, 1.011e-3
-1.922, 1.011e-3
-1.923, 1.011e-3
-1.924, 1.011e-3
-1.925, 1.011e-3
-1.926, 1.011e-3
-1.927, 1.011e-3
-1.928, 1.011e-3
-1.929, 1.011e-3
-1.930, 1.011e-3
-1.931, 1.011e-3
-1.932, 1.011e-3
-1.933, 1.011e-3
-1.934, 1.011e-3
-1.935, 1.011e-3
-1.936, 1.011e-3
-1.937, 1.011e-3
-1.938, 1.011e-3
-1.939, 1.011e-3
-1.940, 1.011e-3
-1.941, 1.011e-3
-1.942, 1.011e-3
-1.943, 1.011e-3
-1.944, 1.011e-3
-1.945, 1.011e-3
-1.946, 1.011e-3
-1.947, 1.011e-3
-1.948, 1.011e-3
-1.949, 1.011e-3
-1.950, 1.011e-3
-1.951, 1.011e-3
-1.952, 1.011e-3
-1.953, 1.011e-3
-1.954, 1.011e-3
-1.955, 1.011e-3
-1.956, 1.011e-3
-1.957, 1.011e-3
-1.958, 1.011e-3
-1.959, 1.011e-3
-1.960, 1.011e-3
-1.961, 1.011e-3
-1.962, 1.011e-3
-1.963, 1.011e-3
-1.964, 1.011e-3
-1.965, 1.011e-3
-1.966, 1.011e-3
-1.967, 1.011e-3
-1.968, 1.011e-3
-1.969, 1.011e-3
-1.970, 1.011e-3
-1.971, 1.011e-3
-1.972, 1.011e-3
-1.973, 1.011e-3
-1.974, 1.011e-3
-1.975, 1.011e-3
-1.976, 1.011e-3
-1.977, 1.011e-3
-1.978, 1.011e-3
-1.979, 1.011e-3
-1.980, 1.011e-3
-1.981, 1.011e-3
-1.982, 1.011e-3
-1.983, 1.011e-3
-1.984, 1.011e-3
-1.985, 1.011e-3
-1.986, 1.011e-3
-1.987, 1.011e-3
-1.988, 1.011e-3
-1.989, 1.011e-3
-1.990, 1.011e-3
-1.991, 1.011e-3
-1.992, 1.011e-3
-1.993, 1.011e-3
-1.994, 1.011e-3
-1.995, 1.011e-3
-1.996, 1.011e-3
-1.997, 1.011e-3
-1.998, 1.011e-3
-1.999, 1.011e-3
-2.000, 1.011e-3
-2.001, 1.011e-3
-2.002, 1.011e-3
-2.003, 1.011e-3
-2.004, 1.011e-3
-2.005, 1.011e-3
-2.006, 1.011e-3
-2.007, 1.011e-3
-2.008, 1.011e-3
-2.009, 1.011e-3
-2.010, 1.011e-3
-2.011, 1.011e-3
-2.012, 1.011e-3
-2.013, 1.011e-3
-2.014, 1.011e-3
-2.015, 1.011e-3
-2.016, 1.011e-3
-2.017, 1.011e-3
-2.018, 1.011e-3
-2.019, 1.011e-3
-2.020, 1.011e-3
-2.021, 1.011e-3
-2.022, 1.011e-3
-2.023, 1.011e-3
-2.024, 1.011e-3
-2.025, 1.011e-3
-2.026, 1.011e-3
-2.027, 1.011e-3
-2.028, 1.011e-3
-2.029, 1.011e-3
-2.030, 1.011e-3
-2.031, 1.011e-3
-2.032, 1.011e-3
-2.033, 1.011e-3
-2.034, 1.011e-3
-2.035, 1.011e-3
-2.036, 1.011e-3
-2.037, 1.011e-3
-2.038, 1.011e-3
-2.039, 1.011e-3
-2.040, 1.011e-3
-2.041, 1.011e-3
-2.042, 1.011e-3
-2.043, 1.011e-3
-2.044, 1.011e-3
-2.045, 1.011e-3
-2.046, 1.011e-3
-2.047, 1.011e-3
-2.048, 1.011e-3
-2.049, 1.011e-3
-2.050, 1.011e-3
-2.051, 1.011e-3
-2.052, 1.011e-3
-2.053, 1.011e-3
-2.054, 1.011e-3
-2.055, 1.011e-3
-2.056, 1.011e-3
-2.057, 1.011e-3
-2.058, 1.011e-3
-2.059, 1.011e-3
-2.060, 1.011e-3
-2.061, 1.011e-3
-2.062, 1.011e-3
-2.063, 1.011e-3
-2.064, 1.011e-3
-2.065, 1.011e-3
-2.066, 1.011e-3
-2.067, 1.011e-3
-2.068, 1.011e-3
-2.069, 1.011e-3
-2.070, 1.011e-3
-2.071, 1.011e-3
-2.072, 1.011e-3
-2.073, 1.011e-3
-2.074, 1.011e-3
-2.075, 1.011e-3
-2.076, 1.011e-3
-2.077, 1.011e-3
-2.078, 1.011e-3
-2.079, 1.011e-3
-2.080, 1.011e-3
-2.081, 1.011e-3
-2.082, 1.011e-3
-2.083, 1.011e-3
-2.084, 1.011e-3
-2.085, 1.011e-3
-2.086, 1.011e-3
-2.087, 1.011e-3
-2.088, 1.011e-3
-2.089, 1.011e-3
-2.090, 1.011e-3
-2.091, 1.011e-3
-2.092, 1.011e-3
-2.093, 1.011e-3
-2.094, 1.011e-3
-2.095, 1.011e-3
-2.096, 1.011e-3
-2.097, 1.011e-3
-2.098, 1.011e-3
-2.099, 1.011e-3
-2.100, 1.011e-3
-2.101, 1.011e-3
-2.102, 1.011e-3
-2.103, 1.011e-3
-2.104, 1.011e-3
-2.105, 1.011e-3
-2.106, 1.011e-3
-2.107, 1.011e-3
-2.108, 1.011e-3
-2.109, 1.011e-3
-2.110, 1.011e-3
-2.111, 1.011e-3
-2.112, 1.011e-3
-2.113, 1.011e-3
-2.114, 1.011e-3
-2.115, 1.011e-3
-2.116, 1.011e-3
-2.117, 1.011e-3
-2.118, 1.011e-3
-2.119, 1.011e-3
-2.120, 1.011e-3
-2.121, 1.011e-3
-2.122, 1.011e-3
-2.123, 1.011e-3
-2.124, 1.011e-3
-2.125, 1.011e-3
-2.126, 1.011e-3
-2.127, 1.011e-3
-2.128, 1.011e-3
-2.129, 1.011e-3
-2.130, 1.011e-3
-2.131, 1.011e-3
-2.132, 1.011e-3
-2.133, 1.011e-3
-2.134, 1.011e-3
-2.135, 1.011e-3
-2.136, 1.011e-3
-2.137, 1.011e-3
-2.138, 1.011e-3
-2.139, 1.011e-3
-2.140, 1.011e-3
-2.141, 1.011e-3
-2.142, 1.011e-3
-2.143, 1.011e-3
-2.144, 1.011e-3
-2.145, 1.011e-3
-2.146, 1.011e-3
-2.147, 1.011e-3
-2.148, 1.011e-3
-2.149, 1.011e-3
-2.150, 1.011e-3
-2.151, 1.011e-3
-2.152, 1.011e-3
-2.153, 1.011e-3
-2.154, 1.011e-3
-2.155, 1.011e-3
-2.156, 1.011e-3
-2.157, 1.011e-3
-2.158, 1.011e-3
-2.159, 1.011e-3
-2.160, 1.011e-3
-2.161, 1.011e-3
-2.162, 1.011e-3
-2.163, 1.011e-3
-2.164, 1.011e-3
-2.165, 1.011e-3
-2.166, 1.011e-3
-2.167, 1.011e-3
-2.168, 1.011e-3
-2.169, 1.011e-3
-2.170, 1.011e-3
-2.171, 1.011e-3
-2.172, 1.011e-3
-2.173, 1.011e-3
-2.174, 1.011e-3
-2.175, 1.011e-3
-2.176, 1.011e-3
-2.177, 1.011e-3
-2.178, 1.011e-3
-2.179, 1.011e-3
-2.180, 1.011e-3
-2.181, 1.011e-3
-2.182, 1.011e-3
-2.183, 1.011e-3
-2.184, 1.011e-3
-2.185, 1.011e-3
-2.186, 1.011e-3
-2.187, 1.011e-3
-2.188, 1.011e-3
-2.189, 1.011e-3
-2.190, 1.011e-3
-2.191, 1.011e-3
-2.192, 1.011e-3
-2.193, 1.011e-3
-2.194, 1.011e-3
-2.195, 1.011e-3
-2.196, 1.011e-3
-2.197, 1.011e-3
-2.198, 1.011e-3
-2.199, 1.011e-3
-2.200, 1.011e-3
-2.201, 1.011e-3
-2.202, 1.011e-3
-2.203, 1.011e-3
-2.204, 1.011e-3
-2.205, 1.011e-3
-2.206, 1.011e-3
-2.207, 1.011e-3
-2.208, 1.011e-3
-2.209, 1.011e-3
-2.210, 1.011e-3
-2.211, 1.011e-3
-2.212, 1.011e-3
-2.213, 1.011e-3
-2.214, 1.011e-3
-2.215, 1.011e-3
-2.216, 1.011e-3
-2.217, 1.011e-3
-2.218, 1.011e-3
-2.219, 1.011e-3
-2.220, 1.011e-3
-2.221, 1.011e-3
-2.222, 1.011e-3
-2.223, 1.011e-3
-2.224, 1.011e-3
-2.225, 1.011e-3
-2.226, 1.011e-3
-2.227, 1.011e-3
-2.228, 1.011e-3
-2.229, 1.011e-3
-2.230, 1.011e-3
-2.231, 1.011e-3
-2.232, 1.011e-3
-2.233, 1.011e-3
-2.234, 1.011e-3
-2.235, 1.011e-3
-2.236, 1.011e-3
-2.237, 1.011e-3
-2.238, 1.011e-3
-2.239, 1.011e-3
-2.240, 1.011e-3
-2.241, 1.011e-3
-2.242, 1.011e-3
-2.243, 1.011e-3
-2.244, 1.011e-3
-2.245, 1.011e-3
-2.246, 1.011e-3
-2.247, 1.011e-3
-2.248, 1.011e-3
-2.249, 1.011e-3
-2.250, 1.011e-3
-2.251, 1.011e-3
-2.252, 1.011e-3
-2.253, 1.011e-3
-2.254, 1.011e-3
-2.255, 1.011e-3
-2.256, 1.011e-3
-2.257, 1.011e-3
-2.258, 1.011e-3
-2.259, 1.011e-3
-2.260, 1.011e-3
-2.261, 1.011e-3
-2.262, 1.011e-3
-2.263, 1.011e-3
-2.264, 1.011e-3
-2.265, 1.011e-3
-2.266, 1.011e-3
-2.267, 1.011e-3
-2.268, 1.011e-3
-2.269, 1.011e-3
-2.270, 1.011e-3
-2.271, 1.011e-3
-2.272, 1.011e-3
-2.273, 1.011e-3
-2.274, 1.011e-3
-2.275, 1.011e-3
-2.276, 1.011e-3
-2.277, 1.011e-3
-2.278, 1.011e-3
-2.279, 1.011e-3
-2.280, 1.011e-3
-2.281, 1.011e-3
-2.282, 1.011e-3
-2.283, 1.011e-3
-2.284, 1.011e-3
-2.285, 1.011e-3
-2.286, 1.011e-3
-2.287, 1.011e-3
-2.288, 1.011e-3
-2.289, 1.011e-3
-2.290, 1.011e-3
-2.291, 1.011e-3
-2.292, 1.011e-3
-2.293, 1.011e-3
-2.294, 1.011e-3
-2.295, 1.011e-3
-2.296, 1.011e-3
-2.297, 1.011e-3
-2.298, 1.011e-3
-2.299, 1.011e-3
