Aug. 5, 2024   13:53:34
Cyclic Voltammetry
File: c:/users/guazh/data/20240802_batch_500/2024-08-02-exp26\exp26-2024-08-05t13_38_27-arkoh\exp26_cv_sr_300mvs_efin_-1800mv.bin
Data Source:  Experiment
Instrument Model:  CHI760E
Header: CV ran at 300 mVs
Note: 

Init E (V) = -1
High E (V) = -1
Low E (V) = -1.8
Final E (V) = -1
Init P/N = N
Scan Rate (V/s) = 0.3
Segment = 3
Sample Interval (V) = 0.001
Quiet Time (sec) = 2
Sensitivity (A/V) = 0.01
Comp R (ohm) = 2.1

Results:

Channel 1:
Segment 1:

Segment 2:

Segment 3:

Potential/V, Current/A

-1.000, 3.239e-6
-1.001, 3.239e-6
-1.002, 3.239e-6
-1.003, 3.239e-6
-1.004, 3.239e-6
-1.005, 3.239e-6
-1.006, 3.239e-6
-1.007, 3.239e-6
-1.008, 3.239e-6
-1.009, 3.239e-6
-1.010, 3.239e-6
-1.011, 3.239e-6
-1.012, 3.239e-6
-1.013, 3.239e-6
-1.014, 3.239e-6
-1.015, 3.239e-6
-1.016, 3.239e-6
-1.017, 3.239e-6
-1.018, 3.239e-6
-1.019, 3.239e-6
-1.020, 3.239e-6
-1.021, 3.239e-6
-1.022, 3.239e-6
-1.023, 3.239e-6
-1.024, 3.239e-6
-1.025, 3.239e-6
-1.026, 3.239e-6
-1.027, 3.239e-6
-1.028, 3.239e-6
-1.029, 3.239e-6
-1.030, 3.239e-6
-1.031, 3.239e-6
-1.032, 3.239e-6
-1.033, 3.239e-6
-1.034, 3.239e-6
-1.035, 3.239e-6
-1.036, 3.239e-6
-1.037, 3.239e-6
-1.038, 3.239e-6
-1.039, 3.239e-6
-1.040, 3.239e-6
-1.041, 3.239e-6
-1.042, 3.239e-6
-1.043, 3.239e-6
-1.044, 3.239e-6
-1.045, 6.322e-6
-1.046, 3.239e-6
-1.047, 3.239e-6
-1.048, 3.239e-6
-1.049, 3.239e-6
-1.050, 3.239e-6
-1.051, 3.239e-6
-1.052, 3.239e-6
-1.053, 3.239e-6
-1.054, 3.239e-6
-1.055, 6.322e-6
-1.056, 3.239e-6
-1.057, 3.239e-6
-1.058, 6.322e-6
-1.059, 3.239e-6
-1.060, 3.239e-6
-1.061, 3.239e-6
-1.062, 3.239e-6
-1.063, 3.239e-6
-1.064, 6.322e-6
-1.065, 6.322e-6
-1.066, 3.239e-6
-1.067, 6.322e-6
-1.068, 6.322e-6
-1.069, 3.239e-6
-1.070, 6.322e-6
-1.071, 6.322e-6
-1.072, 6.322e-6
-1.073, 3.239e-6
-1.074, 3.239e-6
-1.075, 6.322e-6
-1.076, 3.239e-6
-1.077, 6.322e-6
-1.078, 3.239e-6
-1.079, 6.322e-6
-1.080, 6.322e-6
-1.081, 6.322e-6
-1.082, 3.239e-6
-1.083, 3.239e-6
-1.084, 3.239e-6
-1.085, 6.322e-6
-1.086, 6.322e-6
-1.087, 6.322e-6
-1.088, 6.322e-6
-1.089, 3.239e-6
-1.090, 6.322e-6
-1.091, 6.322e-6
-1.092, 6.322e-6
-1.093, 6.322e-6
-1.094, 3.239e-6
-1.095, 3.239e-6
-1.096, 3.239e-6
-1.097, 6.322e-6
-1.098, 6.322e-6
-1.099, 3.239e-6
-1.100, 6.322e-6
-1.101, 6.322e-6
-1.102, 6.322e-6
-1.103, 3.239e-6
-1.104, 6.322e-6
-1.105, 6.322e-6
-1.106, 6.322e-6
-1.107, 6.322e-6
-1.108, 6.322e-6
-1.109, 3.239e-6
-1.110, 6.322e-6
-1.111, 6.322e-6
-1.112, 6.322e-6
-1.113, 6.322e-6
-1.114, 6.322e-6
-1.115, 6.322e-6
-1.116, 6.322e-6
-1.117, 6.322e-6
-1.118, 6.322e-6
-1.119, 6.322e-6
-1.120, 6.322e-6
-1.121, 6.322e-6
-1.122, 6.322e-6
-1.123, 6.322e-6
-1.124, 6.322e-6
-1.125, 6.322e-6
-1.126, 6.322e-6
-1.127, 6.322e-6
-1.128, 6.322e-6
-1.129, 6.322e-6
-1.130, 6.322e-6
-1.131, 6.322e-6
-1.132, 6.322e-6
-1.133, 6.322e-6
-1.134, 6.322e-6
-1.135, 6.322e-6
-1.136, 6.322e-6
-1.137, 6.322e-6
-1.138, 6.322e-6
-1.139, 6.322e-6
-1.140, 6.322e-6
-1.141, 6.322e-6
-1.142, 6.322e-6
-1.143, 6.322e-6
-1.144, 6.322e-6
-1.145, 6.322e-6
-1.146, 6.322e-6
-1.147, 6.322e-6
-1.148, 6.322e-6
-1.149, 6.322e-6
-1.150, 6.322e-6
-1.151, 6.322e-6
-1.152, 6.322e-6
-1.153, 6.322e-6
-1.154, 6.322e-6
-1.155, 6.322e-6
-1.156, 6.322e-6
-1.157, 6.322e-6
-1.158, 6.322e-6
-1.159, 6.322e-6
-1.160, 6.322e-6
-1.161, 6.322e-6
-1.162, 6.322e-6
-1.163, 6.322e-6
-1.164, 6.322e-6
-1.165, 6.322e-6
-1.166, 6.322e-6
-1.167, 6.322e-6
-1.168, 6.322e-6
-1.169, 6.322e-6
-1.170, 6.322e-6
-1.171, 6.322e-6
-1.172, 6.322e-6
-1.173, 6.322e-6
-1.174, 6.322e-6
-1.175, 6.322e-6
-1.176, 6.322e-6
-1.177, 6.322e-6
-1.178, 6.322e-6
-1.179, 6.322e-6
-1.180, 6.322e-6
-1.181, 6.322e-6
-1.182, 6.322e-6
-1.183, 6.322e-6
-1.184, 6.322e-6
-1.185, 6.322e-6
-1.186, 6.322e-6
-1.187, 6.322e-6
-1.188, 6.322e-6
-1.189, 6.322e-6
-1.190, 6.322e-6
-1.191, 6.322e-6
-1.192, 6.322e-6
-1.193, 6.322e-6
-1.194, 6.322e-6
-1.195, 6.322e-6
-1.196, 6.322e-6
-1.197, 6.322e-6
-1.198, 6.322e-6
-1.199, 6.322e-6
-1.200, 6.322e-6
-1.201, 6.322e-6
-1.202, 6.322e-6
-1.203, 6.322e-6
-1.204, 6.322e-6
-1.205, 6.322e-6
-1.206, 6.322e-6
-1.207, 6.322e-6
-1.208, 6.322e-6
-1.209, 6.322e-6
-1.210, 6.322e-6
-1.211, 6.322e-6
-1.212, 6.322e-6
-1.213, 6.322e-6
-1.214, 6.322e-6
-1.215, 6.322e-6
-1.216, 6.322e-6
-1.217, 6.322e-6
-1.218, 6.322e-6
-1.219, 6.322e-6
-1.220, 6.322e-6
-1.221, 6.322e-6
-1.222, 6.322e-6
-1.223, 6.322e-6
-1.224, 6.322e-6
-1.225, 6.322e-6
-1.226, 6.322e-6
-1.227, 6.322e-6
-1.228, 6.322e-6
-1.229, 6.322e-6
-1.230, 6.322e-6
-1.231, 6.322e-6
-1.232, 6.322e-6
-1.233, 6.322e-6
-1.234, 6.322e-6
-1.235, 6.322e-6
-1.236, 6.322e-6
-1.237, 6.322e-6
-1.238, 6.322e-6
-1.239, 6.322e-6
-1.240, 6.322e-6
-1.241, 6.322e-6
-1.242, 6.322e-6
-1.243, 6.322e-6
-1.244, 6.322e-6
-1.245, 9.405e-6
-1.246, 6.322e-6
-1.247, 6.322e-6
-1.248, 6.322e-6
-1.249, 6.322e-6
-1.250, 6.322e-6
-1.251, 6.322e-6
-1.252, 6.322e-6
-1.253, 6.322e-6
-1.254, 6.322e-6
-1.255, 9.405e-6
-1.256, 6.322e-6
-1.257, 6.322e-6
-1.258, 6.322e-6
-1.259, 6.322e-6
-1.260, 9.405e-6
-1.261, 9.405e-6
-1.262, 9.405e-6
-1.263, 6.322e-6
-1.264, 6.322e-6
-1.265, 9.405e-6
-1.266, 6.322e-6
-1.267, 6.322e-6
-1.268, 6.322e-6
-1.269, 6.322e-6
-1.270, 9.405e-6
-1.271, 6.322e-6
-1.272, 9.405e-6
-1.273, 9.405e-6
-1.274, 6.322e-6
-1.275, 6.322e-6
-1.276, 9.405e-6
-1.277, 6.322e-6
-1.278, 9.405e-6
-1.279, 9.405e-6
-1.280, 9.405e-6
-1.281, 9.405e-6
-1.282, 9.405e-6
-1.283, 9.405e-6
-1.284, 9.405e-6
-1.285, 9.405e-6
-1.286, 9.405e-6
-1.287, 9.405e-6
-1.288, 6.322e-6
-1.289, 9.405e-6
-1.290, 9.405e-6
-1.291, 9.405e-6
-1.292, 9.405e-6
-1.293, 9.405e-6
-1.294, 9.405e-6
-1.295, 9.405e-6
-1.296, 9.405e-6
-1.297, 9.405e-6
-1.298, 9.405e-6
-1.299, 9.405e-6
-1.300, 9.405e-6
-1.301, 9.405e-6
-1.302, 9.405e-6
-1.303, 9.405e-6
-1.304, 9.405e-6
-1.305, 9.405e-6
-1.306, 9.405e-6
-1.307, 9.405e-6
-1.308, 9.405e-6
-1.309, 9.405e-6
-1.310, 9.405e-6
-1.311, 9.405e-6
-1.312, 9.405e-6
-1.313, 9.405e-6
-1.314, 9.405e-6
-1.315, 9.405e-6
-1.316, 9.405e-6
-1.317, 9.405e-6
-1.318, 9.405e-6
-1.319, 9.405e-6
-1.320, 9.405e-6
-1.321, 9.405e-6
-1.322, 9.405e-6
-1.323, 9.405e-6
-1.324, 9.405e-6
-1.325, 9.405e-6
-1.326, 9.405e-6
-1.327, 9.405e-6
-1.328, 1.249e-5
-1.329, 9.405e-6
-1.330, 9.405e-6
-1.331, 9.405e-6
-1.332, 9.405e-6
-1.333, 9.405e-6
-1.334, 9.405e-6
-1.335, 9.405e-6
-1.336, 9.405e-6
-1.337, 9.405e-6
-1.338, 9.405e-6
-1.339, 9.405e-6
-1.340, 9.405e-6
-1.341, 1.249e-5
-1.342, 9.405e-6
-1.343, 1.249e-5
-1.344, 9.405e-6
-1.345, 1.249e-5
-1.346, 1.249e-5
-1.347, 9.405e-6
-1.348, 9.405e-6
-1.349, 1.249e-5
-1.350, 1.249e-5
-1.351, 9.405e-6
-1.352, 1.249e-5
-1.353, 9.405e-6
-1.354, 9.405e-6
-1.355, 1.249e-5
-1.356, 1.249e-5
-1.357, 1.249e-5
-1.358, 1.249e-5
-1.359, 1.249e-5
-1.360, 1.249e-5
-1.361, 9.405e-6
-1.362, 1.249e-5
-1.363, 1.249e-5
-1.364, 1.249e-5
-1.365, 1.249e-5
-1.366, 1.249e-5
-1.367, 1.249e-5
-1.368, 1.249e-5
-1.369, 1.249e-5
-1.370, 1.249e-5
-1.371, 1.249e-5
-1.372, 1.249e-5
-1.373, 1.249e-5
-1.374, 1.249e-5
-1.375, 1.249e-5
-1.376, 1.249e-5
-1.377, 1.249e-5
-1.378, 1.249e-5
-1.379, 1.249e-5
-1.380, 1.557e-5
-1.381, 1.249e-5
-1.382, 1.249e-5
-1.383, 1.249e-5
-1.384, 1.249e-5
-1.385, 1.557e-5
-1.386, 1.557e-5
-1.387, 1.557e-5
-1.388, 1.557e-5
-1.389, 1.557e-5
-1.390, 1.557e-5
-1.391, 1.557e-5
-1.392, 1.557e-5
-1.393, 1.557e-5
-1.394, 1.557e-5
-1.395, 1.557e-5
-1.396, 1.557e-5
-1.397, 1.557e-5
-1.398, 1.557e-5
-1.399, 1.557e-5
-1.400, 1.557e-5
-1.401, 1.557e-5
-1.402, 1.865e-5
-1.403, 1.557e-5
-1.404, 1.557e-5
-1.405, 1.557e-5
-1.406, 1.865e-5
-1.407, 1.865e-5
-1.408, 1.557e-5
-1.409, 1.557e-5
-1.410, 1.865e-5
-1.411, 1.865e-5
-1.412, 1.865e-5
-1.413, 1.865e-5
-1.414, 1.865e-5
-1.415, 1.865e-5
-1.416, 1.865e-5
-1.417, 1.865e-5
-1.418, 1.865e-5
-1.419, 1.865e-5
-1.420, 2.174e-5
-1.421, 1.865e-5
-1.422, 1.865e-5
-1.423, 2.174e-5
-1.424, 1.865e-5
-1.425, 2.174e-5
-1.426, 2.174e-5
-1.427, 2.174e-5
-1.428, 2.174e-5
-1.429, 2.174e-5
-1.430, 2.174e-5
-1.431, 2.174e-5
-1.432, 2.174e-5
-1.433, 2.174e-5
-1.434, 2.174e-5
-1.435, 2.482e-5
-1.436, 2.174e-5
-1.437, 2.174e-5
-1.438, 2.482e-5
-1.439, 2.482e-5
-1.440, 2.482e-5
-1.441, 2.482e-5
-1.442, 2.482e-5
-1.443, 2.482e-5
-1.444, 2.482e-5
-1.445, 2.482e-5
-1.446, 2.482e-5
-1.447, 2.790e-5
-1.448, 2.790e-5
-1.449, 2.790e-5
-1.450, 2.790e-5
-1.451, 2.790e-5
-1.452, 2.790e-5
-1.453, 2.790e-5
-1.454, 2.790e-5
-1.455, 2.790e-5
-1.456, 2.790e-5
-1.457, 3.099e-5
-1.458, 3.099e-5
-1.459, 3.099e-5
-1.460, 3.099e-5
-1.461, 3.099e-5
-1.462, 3.099e-5
-1.463, 3.099e-5
-1.464, 3.407e-5
-1.465, 3.407e-5
-1.466, 3.407e-5
-1.467, 3.407e-5
-1.468, 3.407e-5
-1.469, 3.407e-5
-1.470, 3.407e-5
-1.471, 3.715e-5
-1.472, 3.407e-5
-1.473, 3.715e-5
-1.474, 3.715e-5
-1.475, 3.715e-5
-1.476, 3.715e-5
-1.477, 4.024e-5
-1.478, 4.024e-5
-1.479, 4.024e-5
-1.480, 4.024e-5
-1.481, 4.024e-5
-1.482, 4.024e-5
-1.483, 4.332e-5
-1.484, 4.332e-5
-1.485, 4.332e-5
-1.486, 4.332e-5
-1.487, 4.640e-5
-1.488, 4.640e-5
-1.489, 4.640e-5
-1.490, 4.640e-5
-1.491, 4.640e-5
-1.492, 4.949e-5
-1.493, 4.949e-5
-1.494, 4.949e-5
-1.495, 5.257e-5
-1.496, 5.257e-5
-1.497, 5.257e-5
-1.498, 5.257e-5
-1.499, 5.257e-5
-1.500, 5.565e-5
-1.501, 5.565e-5
-1.502, 5.565e-5
-1.503, 5.873e-5
-1.504, 5.873e-5
-1.505, 6.182e-5
-1.506, 6.182e-5
-1.507, 6.182e-5
-1.508, 6.182e-5
-1.509, 6.490e-5
-1.510, 6.490e-5
-1.511, 6.798e-5
-1.512, 6.798e-5
-1.513, 6.798e-5
-1.514, 7.107e-5
-1.515, 7.107e-5
-1.516, 7.415e-5
-1.517, 7.415e-5
-1.518, 7.415e-5
-1.519, 7.723e-5
-1.520, 7.723e-5
-1.521, 8.032e-5
-1.522, 8.032e-5
-1.523, 8.340e-5
-1.524, 8.340e-5
-1.525, 8.648e-5
-1.526, 8.648e-5
-1.527, 8.957e-5
-1.528, 8.957e-5
-1.529, 9.265e-5
-1.530, 9.573e-5
-1.531, 9.573e-5
-1.532, 9.882e-5
-1.533, 9.882e-5
-1.534, 1.019e-4
-1.535, 1.050e-4
-1.536, 1.050e-4
-1.537, 1.081e-4
-1.538, 1.081e-4
-1.539, 1.111e-4
-1.540, 1.142e-4
-1.541, 1.173e-4
-1.542, 1.173e-4
-1.543, 1.204e-4
-1.544, 1.235e-4
-1.545, 1.266e-4
-1.546, 1.296e-4
-1.547, 1.296e-4
-1.548, 1.327e-4
-1.549, 1.358e-4
-1.550, 1.389e-4
-1.551, 1.420e-4
-1.552, 1.451e-4
-1.553, 1.481e-4
-1.554, 1.481e-4
-1.555, 1.512e-4
-1.556, 1.574e-4
-1.557, 1.605e-4
-1.558, 1.636e-4
-1.559, 1.636e-4
-1.560, 1.697e-4
-1.561, 1.728e-4
-1.562, 1.759e-4
-1.563, 1.790e-4
-1.564, 1.790e-4
-1.565, 1.851e-4
-1.566, 1.882e-4
-1.567, 1.913e-4
-1.568, 1.944e-4
-1.569, 2.006e-4
-1.570, 2.036e-4
-1.571, 2.067e-4
-1.572, 2.129e-4
-1.573, 2.160e-4
-1.574, 2.191e-4
-1.575, 2.221e-4
-1.576, 2.283e-4
-1.577, 2.314e-4
-1.578, 2.376e-4
-1.579, 2.406e-4
-1.580, 2.437e-4
-1.581, 2.499e-4
-1.582, 2.530e-4
-1.583, 2.591e-4
-1.584, 2.622e-4
-1.585, 2.684e-4
-1.586, 2.715e-4
-1.587, 2.776e-4
-1.588, 2.838e-4
-1.589, 2.869e-4
-1.590, 2.931e-4
-1.591, 3.023e-4
-1.592, 3.054e-4
-1.593, 3.115e-4
-1.594, 3.146e-4
-1.595, 3.239e-4
-1.596, 3.300e-4
-1.597, 3.362e-4
-1.598, 3.424e-4
-1.599, 3.485e-4
-1.600, 3.547e-4
-1.601, 3.609e-4
-1.602, 3.701e-4
-1.603, 3.763e-4
-1.604, 3.855e-4
-1.605, 3.917e-4
-1.606, 3.979e-4
-1.607, 4.040e-4
-1.608, 4.102e-4
-1.609, 4.195e-4
-1.610, 4.256e-4
-1.611, 4.349e-4
-1.612, 4.410e-4
-1.613, 4.503e-4
-1.614, 4.565e-4
-1.615, 4.657e-4
-1.616, 4.750e-4
-1.617, 4.842e-4
-1.618, 4.935e-4
-1.619, 4.996e-4
-1.620, 5.120e-4
-1.621, 5.212e-4
-1.622, 5.305e-4
-1.623, 5.397e-4
-1.624, 5.489e-4
-1.625, 5.613e-4
-1.626, 5.705e-4
-1.627, 5.829e-4
-1.628, 5.921e-4
-1.629, 6.014e-4
-1.630, 6.137e-4
-1.631, 6.229e-4
-1.632, 6.353e-4
-1.633, 6.445e-4
-1.634, 6.569e-4
-1.635, 6.692e-4
-1.636, 6.846e-4
-1.637, 6.969e-4
-1.638, 7.093e-4
-1.639, 7.216e-4
-1.640, 7.370e-4
-1.641, 7.524e-4
-1.642, 7.648e-4
-1.643, 7.802e-4
-1.644, 7.925e-4
-1.645, 8.079e-4
-1.646, 8.233e-4
-1.647, 8.388e-4
-1.648, 8.542e-4
-1.649, 8.696e-4
-1.650, 8.881e-4
-1.651, 9.035e-4
-1.652, 9.189e-4
-1.653, 9.374e-4
-1.654, 9.528e-4
-1.655, 9.713e-4
-1.656, 9.898e-4
-1.657, 1.008e-3
-1.658, 1.024e-3
-1.659, 1.042e-3
-1.660, 1.061e-3
-1.661, 1.079e-3
-1.662, 1.101e-3
-1.663, 1.122e-3
-1.664, 1.144e-3
-1.665, 1.166e-3
-1.666, 1.187e-3
-1.667, 1.209e-3
-1.668, 1.227e-3
-1.669, 1.252e-3
-1.670, 1.277e-3
-1.671, 1.301e-3
-1.672, 1.326e-3
-1.673, 1.347e-3
-1.674, 1.372e-3
-1.675, 1.400e-3
-1.676, 1.428e-3
-1.677, 1.452e-3
-1.678, 1.477e-3
-1.679, 1.502e-3
-1.680, 1.529e-3
-1.681, 1.557e-3
-1.682, 1.588e-3
-1.683, 1.616e-3
-1.684, 1.647e-3
-1.685, 1.677e-3
-1.686, 1.711e-3
-1.687, 1.742e-3
-1.688, 1.773e-3
-1.689, 1.804e-3
-1.690, 1.841e-3
-1.691, 1.875e-3
-1.692, 1.912e-3
-1.693, 1.939e-3
-1.694, 1.980e-3
-1.695, 2.020e-3
-1.696, 2.060e-3
-1.697, 2.097e-3
-1.698, 2.131e-3
-1.699, 2.164e-3
-1.700, 2.205e-3
-1.701, 2.245e-3
-1.702, 2.282e-3
-1.703, 2.322e-3
-1.704, 2.362e-3
-1.705, 2.408e-3
-1.706, 2.451e-3
-1.707, 2.494e-3
-1.708, 2.534e-3
-1.709, 2.578e-3
-1.710, 2.624e-3
-1.711, 2.673e-3
-1.712, 2.719e-3
-1.713, 2.763e-3
-1.714, 2.809e-3
-1.715, 2.861e-3
-1.716, 2.914e-3
-1.717, 2.957e-3
-1.718, 3.003e-3
-1.719, 3.052e-3
-1.720, 3.105e-3
-1.721, 3.160e-3
-1.722, 3.213e-3
-1.723, 3.262e-3
-1.724, 3.318e-3
-1.725, 3.376e-3
-1.726, 3.432e-3
-1.727, 3.484e-3
-1.728, 3.536e-3
-1.729, 3.595e-3
-1.730, 3.654e-3
-1.731, 3.715e-3
-1.732, 3.774e-3
-1.733, 3.832e-3
-1.734, 3.891e-3
-1.735, 3.956e-3
-1.736, 4.024e-3
-1.737, 4.088e-3
-1.738, 4.147e-3
-1.739, 4.209e-3
-1.740, 4.276e-3
-1.741, 4.344e-3
-1.742, 4.409e-3
-1.743, 4.474e-3
-1.744, 4.538e-3
-1.745, 4.609e-3
-1.746, 4.680e-3
-1.747, 4.748e-3
-1.748, 4.819e-3
-1.749, 4.890e-3
-1.750, 4.961e-3
-1.751, 5.035e-3
-1.752, 5.109e-3
-1.753, 5.180e-3
-1.754, 5.248e-3
-1.755, 5.331e-3
-1.756, 5.408e-3
-1.757, 5.479e-3
-1.758, 5.556e-3
-1.759, 5.630e-3
-1.760, 5.707e-3
-1.761, 5.790e-3
-1.762, 5.870e-3
-1.763, 5.947e-3
-1.764, 6.025e-3
-1.765, 6.111e-3
-1.766, 6.194e-3
-1.767, 6.271e-3
-1.768, 6.351e-3
-1.769, 6.432e-3
-1.770, 6.515e-3
-1.771, 6.598e-3
-1.772, 6.678e-3
-1.773, 6.755e-3
-1.774, 6.842e-3
-1.775, 6.928e-3
-1.776, 7.023e-3
-1.777, 7.107e-3
-1.778, 7.193e-3
-1.779, 7.279e-3
-1.780, 7.372e-3
-1.781, 7.467e-3
-1.782, 7.554e-3
-1.783, 7.640e-3
-1.784, 7.730e-3
-1.785, 7.825e-3
-1.786, 7.918e-3
-1.787, 8.007e-3
-1.788, 8.093e-3
-1.789, 8.183e-3
-1.790, 8.278e-3
-1.791, 8.371e-3
-1.792, 8.463e-3
-1.793, 8.553e-3
-1.794, 8.648e-3
-1.795, 8.750e-3
-1.796, 8.846e-3
-1.797, 8.938e-3
-1.798, 9.031e-3
-1.799, 9.123e-3
-1.800, 9.182e-3
-1.799, 9.157e-3
-1.798, 9.120e-3
-1.797, 9.080e-3
-1.796, 9.037e-3
-1.795, 8.997e-3
-1.794, 8.950e-3
-1.793, 8.895e-3
-1.792, 8.833e-3
-1.791, 8.769e-3
-1.790, 8.713e-3
-1.789, 8.654e-3
-1.788, 8.593e-3
-1.787, 8.531e-3
-1.786, 8.473e-3
-1.785, 8.420e-3
-1.784, 8.365e-3
-1.783, 8.303e-3
-1.782, 8.235e-3
-1.781, 8.170e-3
-1.780, 8.115e-3
-1.779, 8.056e-3
-1.778, 8.001e-3
-1.777, 7.933e-3
-1.776, 7.871e-3
-1.775, 7.816e-3
-1.774, 7.760e-3
-1.773, 7.699e-3
-1.772, 7.628e-3
-1.771, 7.566e-3
-1.770, 7.508e-3
-1.769, 7.449e-3
-1.768, 7.384e-3
-1.767, 7.310e-3
-1.766, 7.245e-3
-1.765, 7.184e-3
-1.764, 7.125e-3
-1.763, 7.060e-3
-1.762, 6.993e-3
-1.761, 6.931e-3
-1.760, 6.872e-3
-1.759, 6.814e-3
-1.758, 6.752e-3
-1.757, 6.684e-3
-1.756, 6.620e-3
-1.755, 6.561e-3
-1.754, 6.502e-3
-1.753, 6.438e-3
-1.752, 6.370e-3
-1.751, 6.305e-3
-1.750, 6.250e-3
-1.749, 6.191e-3
-1.748, 6.129e-3
-1.747, 6.068e-3
-1.746, 6.009e-3
-1.745, 5.954e-3
-1.744, 5.898e-3
-1.743, 5.836e-3
-1.742, 5.772e-3
-1.741, 5.713e-3
-1.740, 5.658e-3
-1.739, 5.605e-3
-1.738, 5.544e-3
-1.737, 5.482e-3
-1.736, 5.423e-3
-1.735, 5.368e-3
-1.734, 5.315e-3
-1.733, 5.257e-3
-1.732, 5.192e-3
-1.731, 5.134e-3
-1.730, 5.078e-3
-1.729, 5.026e-3
-1.728, 4.967e-3
-1.727, 4.908e-3
-1.726, 4.853e-3
-1.725, 4.801e-3
-1.724, 4.748e-3
-1.723, 4.693e-3
-1.722, 4.634e-3
-1.721, 4.579e-3
-1.720, 4.529e-3
-1.719, 4.480e-3
-1.718, 4.428e-3
-1.717, 4.369e-3
-1.716, 4.317e-3
-1.715, 4.270e-3
-1.714, 4.221e-3
-1.713, 4.165e-3
-1.712, 4.113e-3
-1.711, 4.061e-3
-1.710, 4.014e-3
-1.709, 3.968e-3
-1.708, 3.916e-3
-1.707, 3.866e-3
-1.706, 3.817e-3
-1.705, 3.774e-3
-1.704, 3.728e-3
-1.703, 3.678e-3
-1.702, 3.629e-3
-1.701, 3.580e-3
-1.700, 3.536e-3
-1.699, 3.490e-3
-1.698, 3.441e-3
-1.697, 3.392e-3
-1.696, 3.345e-3
-1.695, 3.305e-3
-1.694, 3.262e-3
-1.693, 3.216e-3
-1.692, 3.167e-3
-1.691, 3.123e-3
-1.690, 3.083e-3
-1.689, 3.043e-3
-1.688, 3.000e-3
-1.687, 2.957e-3
-1.686, 2.914e-3
-1.685, 2.874e-3
-1.684, 2.837e-3
-1.683, 2.793e-3
-1.682, 2.753e-3
-1.681, 2.710e-3
-1.680, 2.676e-3
-1.679, 2.636e-3
-1.678, 2.596e-3
-1.677, 2.556e-3
-1.676, 2.519e-3
-1.675, 2.482e-3
-1.674, 2.448e-3
-1.673, 2.411e-3
-1.672, 2.368e-3
-1.671, 2.334e-3
-1.670, 2.300e-3
-1.669, 2.266e-3
-1.668, 2.229e-3
-1.667, 2.192e-3
-1.666, 2.155e-3
-1.665, 2.121e-3
-1.664, 2.091e-3
-1.663, 2.057e-3
-1.662, 2.023e-3
-1.661, 1.992e-3
-1.660, 1.964e-3
-1.659, 1.930e-3
-1.658, 1.899e-3
-1.657, 1.865e-3
-1.656, 1.835e-3
-1.655, 1.807e-3
-1.654, 1.776e-3
-1.653, 1.745e-3
-1.652, 1.714e-3
-1.651, 1.684e-3
-1.650, 1.659e-3
-1.649, 1.628e-3
-1.648, 1.600e-3
-1.647, 1.569e-3
-1.646, 1.542e-3
-1.645, 1.517e-3
-1.644, 1.489e-3
-1.643, 1.462e-3
-1.642, 1.437e-3
-1.641, 1.409e-3
-1.640, 1.384e-3
-1.639, 1.360e-3
-1.638, 1.335e-3
-1.637, 1.307e-3
-1.636, 1.286e-3
-1.635, 1.261e-3
-1.634, 1.240e-3
-1.633, 1.218e-3
-1.632, 1.193e-3
-1.631, 1.172e-3
-1.630, 1.150e-3
-1.629, 1.129e-3
-1.628, 1.107e-3
-1.627, 1.085e-3
-1.626, 1.064e-3
-1.625, 1.045e-3
-1.624, 1.024e-3
-1.623, 1.005e-3
-1.622, 9.837e-4
-1.621, 9.652e-4
-1.620, 9.467e-4
-1.619, 9.282e-4
-1.618, 9.097e-4
-1.617, 8.881e-4
-1.616, 8.696e-4
-1.615, 8.542e-4
-1.614, 8.388e-4
-1.613, 8.203e-4
-1.612, 8.018e-4
-1.611, 7.863e-4
-1.610, 7.679e-4
-1.609, 7.555e-4
-1.608, 7.370e-4
-1.607, 7.216e-4
-1.606, 7.062e-4
-1.605, 6.908e-4
-1.604, 6.784e-4
-1.603, 6.630e-4
-1.602, 6.476e-4
-1.601, 6.353e-4
-1.600, 6.199e-4
-1.599, 6.075e-4
-1.598, 5.952e-4
-1.597, 5.798e-4
-1.596, 5.674e-4
-1.595, 5.551e-4
-1.594, 5.428e-4
-1.593, 5.305e-4
-1.592, 5.181e-4
-1.591, 5.058e-4
-1.590, 4.965e-4
-1.589, 4.842e-4
-1.588, 4.719e-4
-1.587, 4.626e-4
-1.586, 4.503e-4
-1.585, 4.410e-4
-1.584, 4.318e-4
-1.583, 4.225e-4
-1.582, 4.102e-4
-1.581, 4.010e-4
-1.580, 3.917e-4
-1.579, 3.825e-4
-1.578, 3.732e-4
-1.577, 3.640e-4
-1.576, 3.547e-4
-1.575, 3.485e-4
-1.574, 3.393e-4
-1.573, 3.300e-4
-1.572, 3.208e-4
-1.571, 3.115e-4
-1.570, 3.054e-4
-1.569, 2.992e-4
-1.568, 2.900e-4
-1.567, 2.838e-4
-1.566, 2.776e-4
-1.565, 2.715e-4
-1.564, 2.622e-4
-1.563, 2.561e-4
-1.562, 2.499e-4
-1.561, 2.437e-4
-1.560, 2.376e-4
-1.559, 2.314e-4
-1.558, 2.252e-4
-1.557, 2.191e-4
-1.556, 2.129e-4
-1.555, 2.098e-4
-1.554, 2.036e-4
-1.553, 1.975e-4
-1.552, 1.944e-4
-1.551, 1.882e-4
-1.550, 1.821e-4
-1.549, 1.790e-4
-1.548, 1.728e-4
-1.547, 1.697e-4
-1.546, 1.636e-4
-1.545, 1.605e-4
-1.544, 1.574e-4
-1.543, 1.512e-4
-1.542, 1.481e-4
-1.541, 1.420e-4
-1.540, 1.389e-4
-1.539, 1.358e-4
-1.538, 1.327e-4
-1.537, 1.296e-4
-1.536, 1.235e-4
-1.535, 1.204e-4
-1.534, 1.173e-4
-1.533, 1.173e-4
-1.532, 1.111e-4
-1.531, 1.081e-4
-1.530, 1.081e-4
-1.529, 1.019e-4
-1.528, 1.019e-4
-1.527, 9.882e-5
-1.526, 9.573e-5
-1.525, 9.265e-5
-1.524, 8.957e-5
-1.523, 8.648e-5
-1.522, 8.340e-5
-1.521, 8.340e-5
-1.520, 8.032e-5
-1.519, 8.032e-5
-1.518, 7.723e-5
-1.517, 7.415e-5
-1.516, 7.107e-5
-1.515, 7.107e-5
-1.514, 6.798e-5
-1.513, 6.490e-5
-1.512, 6.490e-5
-1.511, 6.182e-5
-1.510, 6.182e-5
-1.509, 5.873e-5
-1.508, 5.873e-5
-1.507, 5.565e-5
-1.506, 5.257e-5
-1.505, 5.257e-5
-1.504, 5.257e-5
-1.503, 4.949e-5
-1.502, 4.949e-5
-1.501, 4.640e-5
-1.500, 4.640e-5
-1.499, 4.640e-5
-1.498, 4.332e-5
-1.497, 4.024e-5
-1.496, 4.024e-5
-1.495, 4.024e-5
-1.494, 3.715e-5
-1.493, 3.715e-5
-1.492, 3.715e-5
-1.491, 3.407e-5
-1.490, 3.407e-5
-1.489, 3.407e-5
-1.488, 3.407e-5
-1.487, 3.099e-5
-1.486, 3.099e-5
-1.485, 3.099e-5
-1.484, 2.790e-5
-1.483, 2.790e-5
-1.482, 2.790e-5
-1.481, 2.790e-5
-1.480, 2.482e-5
-1.479, 2.482e-5
-1.478, 2.482e-5
-1.477, 2.482e-5
-1.476, 2.482e-5
-1.475, 2.174e-5
-1.474, 2.174e-5
-1.473, 2.174e-5
-1.472, 2.174e-5
-1.471, 1.865e-5
-1.470, 1.865e-5
-1.469, 1.865e-5
-1.468, 1.865e-5
-1.467, 1.865e-5
-1.466, 1.865e-5
-1.465, 1.865e-5
-1.464, 1.557e-5
-1.463, 1.557e-5
-1.462, 1.557e-5
-1.461, 1.557e-5
-1.460, 1.557e-5
-1.459, 1.557e-5
-1.458, 1.249e-5
-1.457, 1.249e-5
-1.456, 1.249e-5
-1.455, 1.249e-5
-1.454, 1.249e-5
-1.453, 1.249e-5
-1.452, 1.249e-5
-1.451, 9.405e-6
-1.450, 1.249e-5
-1.449, 1.249e-5
-1.448, 1.249e-5
-1.447, 9.405e-6
-1.446, 9.405e-6
-1.445, 9.405e-6
-1.444, 9.405e-6
-1.443, 9.405e-6
-1.442, 9.405e-6
-1.441, 9.405e-6
-1.440, 9.405e-6
-1.439, 6.322e-6
-1.438, 6.322e-6
-1.437, 6.322e-6
-1.436, 6.322e-6
-1.435, 6.322e-6
-1.434, 6.322e-6
-1.433, 6.322e-6
-1.432, 6.322e-6
-1.431, 6.322e-6
-1.430, 6.322e-6
-1.429, 6.322e-6
-1.428, 6.322e-6
-1.427, 6.322e-6
-1.426, 6.322e-6
-1.425, 6.322e-6
-1.424, 6.322e-6
-1.423, 6.322e-6
-1.422, 3.239e-6
-1.421, 3.239e-6
-1.420, 3.239e-6
-1.419, 3.239e-6
-1.418, 3.239e-6
-1.417, 3.239e-6
-1.416, 3.239e-6
-1.415, 3.239e-6
-1.414, 3.239e-6
-1.413, 3.239e-6
-1.412, 3.239e-6
-1.411, 3.239e-6
-1.410, 3.239e-6
-1.409, 3.239e-6
-1.408, 3.239e-6
-1.407, 3.239e-6
-1.406, 3.239e-6
-1.405, 3.239e-6
-1.404, 3.239e-6
-1.403, 3.239e-6
-1.402, 1.559e-7
-1.401, 3.239e-6
-1.400, 3.239e-6
-1.399, 3.239e-6
-1.398, 3.239e-6
-1.397, 1.559e-7
-1.396, 3.239e-6
-1.395, 3.239e-6
-1.394, 1.559e-7
-1.393, 1.559e-7
-1.392, 1.559e-7
-1.391, 1.559e-7
-1.390, 1.559e-7
-1.389, 1.559e-7
-1.388, 1.559e-7
-1.387, 1.559e-7
-1.386, 1.559e-7
-1.385, 1.559e-7
-1.384, 1.559e-7
-1.383, 1.559e-7
-1.382, 1.559e-7
-1.381, 1.559e-7
-1.380, 1.559e-7
-1.379, 1.559e-7
-1.378, 1.559e-7
-1.377, 1.559e-7
-1.376, 1.559e-7
-1.375, 1.559e-7
-1.374, 1.559e-7
-1.373, 1.559e-7
-1.372, 1.559e-7
-1.371, 1.559e-7
-1.370, 1.559e-7
-1.369, 1.559e-7
-1.368, 1.559e-7
-1.367, 1.559e-7
-1.366, 1.559e-7
-1.365, 1.559e-7
-1.364, 1.559e-7
-1.363, 1.559e-7
-1.362, 1.559e-7
-1.361, 1.559e-7
-1.360, 1.559e-7
-1.359, 1.559e-7
-1.358, 1.559e-7
-1.357, 1.559e-7
-1.356, 1.559e-7
-1.355, 1.559e-7
-1.354, 1.559e-7
-1.353, -2.927e-6
-1.352, 1.559e-7
-1.351, -2.927e-6
-1.350, -2.927e-6
-1.349, 1.559e-7
-1.348, 1.559e-7
-1.347, 1.559e-7
-1.346, -2.927e-6
-1.345, 1.559e-7
-1.344, -2.927e-6
-1.343, -2.927e-6
-1.342, -2.927e-6
-1.341, -2.927e-6
-1.340, 1.559e-7
-1.339, 1.559e-7
-1.338, -2.927e-6
-1.337, 1.559e-7
-1.336, -2.927e-6
-1.335, 1.559e-7
-1.334, -2.927e-6
-1.333, -2.927e-6
-1.332, -2.927e-6
-1.331, -2.927e-6
-1.330, -2.927e-6
-1.329, -2.927e-6
-1.328, -2.927e-6
-1.327, -2.927e-6
-1.326, -2.927e-6
-1.325, -2.927e-6
-1.324, -2.927e-6
-1.323, -2.927e-6
-1.322, -2.927e-6
-1.321, -2.927e-6
-1.320, 1.559e-7
-1.319, -2.927e-6
-1.318, -2.927e-6
-1.317, -2.927e-6
-1.316, -2.927e-6
-1.315, -2.927e-6
-1.314, -2.927e-6
-1.313, -2.927e-6
-1.312, -2.927e-6
-1.311, -2.927e-6
-1.310, -2.927e-6
-1.309, -2.927e-6
-1.308, -2.927e-6
-1.307, -2.927e-6
-1.306, -2.927e-6
-1.305, -2.927e-6
-1.304, -2.927e-6
-1.303, -2.927e-6
-1.302, -2.927e-6
-1.301, -2.927e-6
-1.300, -2.927e-6
-1.299, -2.927e-6
-1.298, -2.927e-6
-1.297, -2.927e-6
-1.296, -2.927e-6
-1.295, -2.927e-6
-1.294, -2.927e-6
-1.293, -2.927e-6
-1.292, -2.927e-6
-1.291, -2.927e-6
-1.290, -2.927e-6
-1.289, -2.927e-6
-1.288, -2.927e-6
-1.287, -2.927e-6
-1.286, -2.927e-6
-1.285, -2.927e-6
-1.284, -2.927e-6
-1.283, -2.927e-6
-1.282, -2.927e-6
-1.281, -2.927e-6
-1.280, -2.927e-6
-1.279, -2.927e-6
-1.278, -2.927e-6
-1.277, -2.927e-6
-1.276, -2.927e-6
-1.275, -2.927e-6
-1.274, -2.927e-6
-1.273, -2.927e-6
-1.272, -2.927e-6
-1.271, -2.927e-6
-1.270, -2.927e-6
-1.269, -2.927e-6
-1.268, -2.927e-6
-1.267, -2.927e-6
-1.266, -2.927e-6
-1.265, -2.927e-6
-1.264, -2.927e-6
-1.263, -2.927e-6
-1.262, -2.927e-6
-1.261, -2.927e-6
-1.260, -2.927e-6
-1.259, -2.927e-6
-1.258, -2.927e-6
-1.257, -2.927e-6
-1.256, -2.927e-6
-1.255, -2.927e-6
-1.254, -2.927e-6
-1.253, -2.927e-6
-1.252, -2.927e-6
-1.251, -2.927e-6
-1.250, -2.927e-6
-1.249, -2.927e-6
-1.248, -2.927e-6
-1.247, -2.927e-6
-1.246, -2.927e-6
-1.245, -2.927e-6
-1.244, -2.927e-6
-1.243, -2.927e-6
-1.242, -2.927e-6
-1.241, -2.927e-6
-1.240, -2.927e-6
-1.239, -2.927e-6
-1.238, -2.927e-6
-1.237, -2.927e-6
-1.236, -2.927e-6
-1.235, -2.927e-6
-1.234, -2.927e-6
-1.233, -2.927e-6
-1.232, -2.927e-6
-1.231, -2.927e-6
-1.230, -2.927e-6
-1.229, -2.927e-6
-1.228, -2.927e-6
-1.227, -2.927e-6
-1.226, -2.927e-6
-1.225, -2.927e-6
-1.224, -2.927e-6
-1.223, -2.927e-6
-1.222, -2.927e-6
-1.221, -2.927e-6
-1.220, -2.927e-6
-1.219, -2.927e-6
-1.218, -2.927e-6
-1.217, -2.927e-6
-1.216, -2.927e-6
-1.215, -2.927e-6
-1.214, -2.927e-6
-1.213, -2.927e-6
-1.212, -2.927e-6
-1.211, -2.927e-6
-1.210, -2.927e-6
-1.209, -2.927e-6
-1.208, -2.927e-6
-1.207, -2.927e-6
-1.206, -2.927e-6
-1.205, -2.927e-6
-1.204, -2.927e-6
-1.203, -2.927e-6
-1.202, -2.927e-6
-1.201, -2.927e-6
-1.200, -2.927e-6
-1.199, -2.927e-6
-1.198, -2.927e-6
-1.197, -2.927e-6
-1.196, -2.927e-6
-1.195, -2.927e-6
-1.194, -2.927e-6
-1.193, -2.927e-6
-1.192, -2.927e-6
-1.191, -2.927e-6
-1.190, -2.927e-6
-1.189, -2.927e-6
-1.188, -2.927e-6
-1.187, -2.927e-6
-1.186, -2.927e-6
-1.185, -2.927e-6
-1.184, -2.927e-6
-1.183, -2.927e-6
-1.182, -2.927e-6
-1.181, -2.927e-6
-1.180, -2.927e-6
-1.179, -2.927e-6
-1.178, -2.927e-6
-1.177, -2.927e-6
-1.176, -2.927e-6
-1.175, -2.927e-6
-1.174, -2.927e-6
-1.173, -2.927e-6
-1.172, -2.927e-6
-1.171, -2.927e-6
-1.170, -2.927e-6
-1.169, -2.927e-6
-1.168, -2.927e-6
-1.167, -2.927e-6
-1.166, -2.927e-6
-1.165, -2.927e-6
-1.164, -2.927e-6
-1.163, -2.927e-6
-1.162, -2.927e-6
-1.161, -2.927e-6
-1.160, -2.927e-6
-1.159, -2.927e-6
-1.158, -2.927e-6
-1.157, -2.927e-6
-1.156, -2.927e-6
-1.155, -2.927e-6
-1.154, -2.927e-6
-1.153, -2.927e-6
-1.152, -2.927e-6
-1.151, -2.927e-6
-1.150, -2.927e-6
-1.149, -6.010e-6
-1.148, -2.927e-6
-1.147, -2.927e-6
-1.146, -2.927e-6
-1.145, -2.927e-6
-1.144, -2.927e-6
-1.143, -2.927e-6
-1.142, -2.927e-6
-1.141, -2.927e-6
-1.140, -2.927e-6
-1.139, -6.010e-6
-1.138, -2.927e-6
-1.137, -2.927e-6
-1.136, -2.927e-6
-1.135, -2.927e-6
-1.134, -2.927e-6
-1.133, -2.927e-6
-1.132, -2.927e-6
-1.131, -2.927e-6
-1.130, -2.927e-6
-1.129, -2.927e-6
-1.128, -2.927e-6
-1.127, -6.010e-6
-1.126, -2.927e-6
-1.125, -6.010e-6
-1.124, -2.927e-6
-1.123, -2.927e-6
-1.122, -2.927e-6
-1.121, -2.927e-6
-1.120, -6.010e-6
-1.119, -2.927e-6
-1.118, -2.927e-6
-1.117, -2.927e-6
-1.116, -2.927e-6
-1.115, -2.927e-6
-1.114, -2.927e-6
-1.113, -2.927e-6
-1.112, -2.927e-6
-1.111, -2.927e-6
-1.110, -6.010e-6
-1.109, -2.927e-6
-1.108, -2.927e-6
-1.107, -2.927e-6
-1.106, -2.927e-6
-1.105, -2.927e-6
-1.104, -2.927e-6
-1.103, -2.927e-6
-1.102, -2.927e-6
-1.101, -2.927e-6
-1.100, -6.010e-6
-1.099, -2.927e-6
-1.098, -6.010e-6
-1.097, -6.010e-6
-1.096, -6.010e-6
-1.095, -6.010e-6
-1.094, -6.010e-6
-1.093, -2.927e-6
-1.092, -2.927e-6
-1.091, -2.927e-6
-1.090, -6.010e-6
-1.089, -2.927e-6
-1.088, -6.010e-6
-1.087, -6.010e-6
-1.086, -6.010e-6
-1.085, -2.927e-6
-1.084, -6.010e-6
-1.083, -6.010e-6
-1.082, -6.010e-6
-1.081, -2.927e-6
-1.080, -6.010e-6
-1.079, -6.010e-6
-1.078, -6.010e-6
-1.077, -6.010e-6
-1.076, -6.010e-6
-1.075, -6.010e-6
-1.074, -6.010e-6
-1.073, -6.010e-6
-1.072, -6.010e-6
-1.071, -6.010e-6
-1.070, -6.010e-6
-1.069, -6.010e-6
-1.068, -6.010e-6
-1.067, -6.010e-6
-1.066, -6.010e-6
-1.065, -2.927e-6
-1.064, -2.927e-6
-1.063, -6.010e-6
-1.062, -6.010e-6
-1.061, -6.010e-6
-1.060, -6.010e-6
-1.059, -6.010e-6
-1.058, -6.010e-6
-1.057, -6.010e-6
-1.056, -6.010e-6
-1.055, -2.927e-6
-1.054, -6.010e-6
-1.053, -6.010e-6
-1.052, -6.010e-6
-1.051, -6.010e-6
-1.050, -6.010e-6
-1.049, -6.010e-6
-1.048, -6.010e-6
-1.047, -6.010e-6
-1.046, -6.010e-6
-1.045, -6.010e-6
-1.044, -6.010e-6
-1.043, -6.010e-6
-1.042, -6.010e-6
-1.041, -6.010e-6
-1.040, -6.010e-6
-1.039, -6.010e-6
-1.038, -6.010e-6
-1.037, -6.010e-6
-1.036, -6.010e-6
-1.035, -6.010e-6
-1.034, -6.010e-6
-1.033, -6.010e-6
-1.032, -6.010e-6
-1.031, -6.010e-6
-1.030, -6.010e-6
-1.029, -6.010e-6
-1.028, -6.010e-6
-1.027, -6.010e-6
-1.026, -6.010e-6
-1.025, -6.010e-6
-1.024, -6.010e-6
-1.023, -6.010e-6
-1.022, -6.010e-6
-1.021, -6.010e-6
-1.020, -6.010e-6
-1.019, -6.010e-6
-1.018, -6.010e-6
-1.017, -6.010e-6
-1.016, -6.010e-6
-1.015, -6.010e-6
-1.014, -6.010e-6
-1.013, -6.010e-6
-1.012, -6.010e-6
-1.011, -6.010e-6
-1.010, -6.010e-6
-1.009, -6.010e-6
-1.008, -6.010e-6
-1.007, -6.010e-6
-1.006, -6.010e-6
-1.005, -6.010e-6
-1.004, -6.010e-6
-1.003, -9.093e-6
-1.002, -9.093e-6
-1.001, -6.010e-6
