Potential V vs RHE, Current mA cm-2
0.013299999999999867,4.883583407134107
0.012299999999999978,3.9668504848215624
0.011299999999999866,3.225541763692284
0.010299999999999976,2.5280890928588207
0.009299999999999864,1.9169338113171246
0.008299999999999974,1.3934906303670611
0.007299999999999862,0.9137620285828272
0.006299999999999972,0.43403342679859325
0.00529999999999986,0.04140859974704963
0.0042999999999999705,-0.3947044526623452
0.0032999999999998586,-0.8308599464107361
0.0022999999999999687,-1.2234423321232837
0.0012999999999998568,-1.6156003044458718
0.00029999999999996696,-1.92117794521672
-0.000700000000000145,-2.2706116362833835
-0.0017000000000000348,-2.576189277054232
-0.0027000000000001467,-2.8379108675292635
-0.0037000000000000366,-3.0996324580042955
-0.0047000000000001485,-3.403795387475278
-0.005700000000000038,-3.6655169779503103
-0.00670000000000015,-3.971094618721158
-0.00770000000000004,-4.23281620919619
-0.008700000000000152,-4.494537799671222
-0.009700000000000042,-4.712403339850438
-0.010700000000000154,-4.887827541033701
-0.011700000000000044,-5.105693081212917
-0.012700000000000156,-5.323558621392133
-0.013700000000000045,-5.585280211867165
-0.014700000000000157,-5.80314575204638
-0.015700000000000047,-6.021011292225596
-0.01670000000000016,-6.196435493408861
-0.01770000000000005,-6.37044498329226
-0.01870000000000016,-6.500598422879844
-0.01970000000000005,-6.6760226240631075
-0.020700000000000163,-6.893888164242324
-0.021700000000000053,-7.067897654125724
-0.022700000000000164,-7.28576319430494
-0.023700000000000054,-7.461187395488204
-0.024700000000000166,-7.591340835075788
-0.025700000000000056,-7.7653503249591855
-0.026700000000000168,-7.896918475846635
-0.027700000000000058,-8.027071915434218
-0.02870000000000017,-8.202496116617484
-0.02970000000000006,-8.332649556205066
-0.03070000000000017,-8.508073757388331
-0.03170000000000006,-8.68208324727173
-0.03270000000000017,-8.85609273715513
-0.03370000000000006,-8.987660888042578
-0.034700000000000175,-9.11781432763016
-0.035700000000000065,-9.24938247851761
-0.03670000000000018,-9.379535918105192
-0.03770000000000007,-9.511104068992642
-0.03870000000000018,-9.685113558876042
-0.03970000000000007,-9.85912304875944
-0.04070000000000018,-9.99069119964689
-0.04170000000000007,-10.120844639234473
-0.04270000000000018,-10.25241279012192
-0.04370000000000007,-10.340124890713554
-0.044700000000000184,-10.470278330301136
-0.045700000000000074,-10.601846481188586
-0.046700000000000186,-10.731999920776168
-0.047700000000000076,-10.906009410659568
-0.04870000000000019,-11.037577561547016
-0.04970000000000008,-11.211587051430415
-0.05070000000000019,-11.299299152022046
-0.05170000000000008,-11.42945259160963
-0.05270000000000019,-11.517164692201263
-0.05370000000000008,-11.647318131788847
-0.05470000000000019,-11.778886282676295
-0.05570000000000008,-11.952895772559694
-0.056700000000000195,-12.12831997374296
-0.057700000000000085,-12.258473413330542
-0.058700000000000196,-12.346185513922174
-0.059700000000000086,-12.476338953509758
-0.0607000000000002,-12.607907104397206
-0.06170000000000009,-12.73806054398479
-0.0627000000000002,-12.869628694872238
-0.06370000000000009,-12.99978213445982
-0.0647000000000002,-13.175206335643086
-0.06570000000000009,-13.30535977523067
-0.0667000000000002,-13.436927926118118
-0.0677000000000001,-13.523225315409885
-0.0687000000000002,-13.654793466297335
-0.0697000000000001,-13.784946905884919
-0.07070000000000021,-13.916515056772363
-0.0717000000000001,-14.046668496359947
-0.07270000000000021,-14.26028990263957
-0.0737000000000001,-14.444202371622024
-0.07470000000000021,-14.57152638860988
-0.0757000000000001,-14.69885040559773
-0.07670000000000021,-14.783733083589633
-0.0777000000000001,-14.868615761581536
-0.07870000000000021,-15.01008689156804
-0.0797000000000001,-15.179852247551842
-0.08070000000000022,-15.349617603535648
-0.0817000000000001,-15.533530072518102
-0.08270000000000022,-15.618412750510005
-0.08370000000000011,-15.78817810649381
-0.08470000000000022,-15.87306078448571
-0.08570000000000011,-16.014531914472215
-0.08670000000000022,-16.141855931460068
-0.08770000000000011,-16.311621287443874
-0.08870000000000022,-16.495533756426326
-0.08970000000000011,-16.665299112410132
-0.09070000000000022,-16.792623129397985
-0.09170000000000011,-16.962388485381787
-0.09270000000000023,-17.103859615368293
-0.09370000000000012,-17.231183632356142
-0.09470000000000023,-17.358507649344002
-0.09570000000000012,-17.542420118326454
-0.09670000000000023,-17.71218547431026
-0.09770000000000012,-17.881950830294063
-0.09870000000000023,-18.06586329927652
-0.09970000000000012,-18.19318731626437
-0.10070000000000023,-18.362952672248177
-0.10170000000000012,-18.49027668923603
-0.10270000000000024,-18.674189158218486
-0.10370000000000013,-18.80151317520634
-0.10470000000000024,-19.01371987018609
-0.10570000000000013,-19.197632339168546
-0.10670000000000024,-19.409839034148305
-0.10770000000000013,-19.636192842126707
-0.10870000000000024,-19.763516859114564
-0.10970000000000013,-19.890840876102416
-0.11070000000000024,-20.06060623208622
-0.11170000000000013,-20.244518701068674
-0.11270000000000002,-20.414284057052477
-0.11370000000000013,-20.626490752032236
-0.11470000000000002,-20.85284456001064
-0.11570000000000014,-21.065051254990397
-0.11670000000000003,-21.291405062968803
-0.11770000000000014,-21.418729079956652
-0.11870000000000003,-21.54605309694451
-0.11970000000000014,-21.67337711393236
-0.12070000000000003,-21.857289582914817
-0.12170000000000014,-22.069496277894572
-0.12270000000000003,-22.295850085872978
-0.12370000000000014,-22.508056780852733
-0.12470000000000003,-22.72026347583249
-0.12570000000000014,-22.904175944814945
-0.12670000000000003,-23.073941300798747
-0.12770000000000015,-23.24370665678255
-0.12870000000000004,-23.47006046476096
-0.12970000000000015,-23.682267159740714
-0.13070000000000004,-23.908620967719123
-0.13170000000000015,-24.16326900169483
-0.13270000000000004,-24.389622809673234
-0.13370000000000015,-24.559388165657033
-0.13470000000000004,-24.771594860636792
-0.13570000000000015,-24.95550732961925
-0.13670000000000004,-25.167714024599
-0.13770000000000016,-25.39406783257741
-0.13870000000000005,-25.648715866553115
-0.13970000000000016,-25.91751101352747
-0.14070000000000005,-26.17215904750318
-0.14170000000000016,-26.38436574248293
-0.14270000000000005,-26.61071955046134
-0.14370000000000016,-26.780484906445146
-0.14470000000000005,-27.00683871442355
-0.14570000000000016,-27.176604070407354
-0.14670000000000005,-27.43125210438306
-0.14770000000000016,-27.700047251357418
-0.14870000000000005,-27.912253946337174
-0.14970000000000017,-28.18104909331153
-0.15070000000000006,-28.393255788291288
-0.15170000000000017,-28.619609596269694
-0.15270000000000006,-28.831816291249446
-0.15370000000000017,-29.058170099227848
-0.15470000000000006,-29.27037679420761
-0.15570000000000017,-29.525024828183312
-0.15670000000000006,-29.793819975157668
-0.15770000000000017,-30.04846800913338
-0.15870000000000006,-30.317263156107735
-0.15970000000000018,-30.529469851087494
-0.16070000000000007,-30.7558236590659
-0.16170000000000018,-30.968030354045652
-0.16270000000000007,-31.23682550102001
-0.16370000000000018,-31.49147353499572
-0.16470000000000007,-31.802710020966025
-0.16570000000000018,-32.05735805494172
-0.16670000000000007,-32.368594540912035
-0.16770000000000018,-32.58080123589179
-0.16870000000000007,-32.84959638286615
-0.16970000000000018,-33.10424441684186
-0.17070000000000007,-33.373039563816214
-0.17170000000000019,-33.670128936787876
-0.17270000000000008,-33.98136542275818
-0.1737000000000002,-34.278454795729836
-0.17470000000000008,-34.5472499427042
-0.1757000000000002,-34.8018979766799
-0.17670000000000008,-35.07069312365426
-0.1777000000000002,-35.32534115762997
-0.17870000000000008,-35.594136304604326
-0.1797000000000002,-35.90537279057463
-0.18070000000000008,-36.16002082455034
-0.1817000000000002,-36.5136986495166
-0.18270000000000008,-36.8532293614842
-0.1837000000000002,-37.122024508458566
-0.1847000000000001,-37.41911388143023
-0.1857000000000002,-37.687909028404576
-0.1867000000000001,-37.94255706238028
-0.1877000000000002,-38.29623488734655
-0.1887000000000001,-38.6499127123128
-0.1897000000000002,-38.98944342428042
-0.1907000000000001,-39.34312124924667
-0.1917000000000001,-39.654357735216976
-0.19269999999999998,-39.90900576919269
-0.1937000000000001,-40.220242255162994
-0.19469999999999998,-40.4748902891387
-0.1957000000000001,-40.78612677510901
-0.19669999999999999,-41.182245939071215
-0.1977000000000001,-41.52177665103883
-0.1987,-41.87545447600508
-0.1997000000000001,-42.229132300971344
-0.2007,-42.526221673943
-0.2017000000000001,-42.87989949890926
-0.2027,-43.17698887188092
-0.2037000000000001,-43.48822535785123
-0.2047,-43.84190318281749
-0.2057000000000001,-44.223875233781044
-0.2067,-44.619994397743255
-0.2077000000000001,-44.97367222270952
-0.2087,-45.32735004767578
-0.2097000000000001,-45.666880759643384
-0.2107,-46.02055858460964
-0.2117000000000001,-46.37423640957591
-0.2127,-46.713767121543505
-0.2137000000000001,-47.15232762450167
-0.2147,-47.590888127459834
-0.2157000000000001,-48.029448630417996
-0.2167,-48.41142068138156
-0.21770000000000012,-48.80753984534376
-0.2187,-49.16121767031002
-0.21970000000000012,-49.557336834272235
-0.2207,-49.939308885235796
-0.22170000000000012,-50.37786938819396
-0.2227,-50.81642989115212
-0.22370000000000012,-51.25499039411028
-0.2247,-51.69355089706845
-0.22570000000000012,-52.11796428702795
-0.2267,-52.514083450990164
-0.22770000000000012,-52.95264395394832
-0.22870000000000001,-53.39120445690648
-0.22970000000000013,-53.82976495986464
-0.23070000000000002,-54.26832546282281
-0.23170000000000013,-54.69273885278232
-0.23270000000000002,-55.13129935574048
-0.23370000000000013,-55.56985985869864
-0.23470000000000002,-56.008420361656796
-0.23570000000000013,-56.44698086461496
-0.23670000000000002,-56.88554136757313
-0.2376999999999999,-57.352396096528594
-0.23870000000000002,-57.79095659948675
-0.2396999999999999,-58.31439978043681
-0.24070000000000003,-58.79540162239092
-0.24169999999999991,-59.27640346434504
-0.24270000000000003,-59.7149639673032
-0.24369999999999992,-60.15352447026136
-0.24470000000000003,-60.63452631221547
-0.24569999999999992,-61.11552815416958
-0.24670000000000003,-61.6814126741156
-0.24769999999999992,-62.24729719406162
-0.24870000000000003,-62.81318171400764
-0.24969999999999992,-63.29418355596174
-0.25070000000000003,-63.732744058919906
-0.2516999999999999,-64.15715744887942
-0.25270000000000004,-64.63815929083353
-0.2536999999999999,-65.11916113278764
-0.25470000000000004,-65.68504565273366
-0.2556999999999999,-66.20848883368372
-0.25670000000000004,-66.77437335362974
-0.25769999999999993,-67.34025787357575
-0.25870000000000004,-67.86370105452582
-0.25969999999999993,-68.44373268747047
-0.26070000000000004,-68.91058741642594
-0.26169999999999993,-69.4906190493706
-0.26270000000000004,-70.05650356931662
-0.26369999999999993,-70.62238808926263
-0.26470000000000005,-71.27315528720055
-0.26569999999999994,-71.8814811461425
-0.26670000000000005,-72.53224834408043
-0.26769999999999994,-73.09813286402644
-0.26870000000000005,-73.62157604497652
-0.26969999999999994,-74.20160767792116
-0.27070000000000005,-74.80993353686314
-0.27169999999999994,-75.4182593958051
-0.27270000000000005,-76.06902659374302
-0.27369999999999994,-76.67735245268499
-0.27470000000000006,-77.28567831162695
-0.27569999999999995,-77.86570994457162
-0.27670000000000006,-78.47403580351359
-0.27769999999999995,-79.0399203234596
-0.27870000000000006,-79.64824618240156
-0.27969999999999995,-80.29901338033947
-0.28070000000000006,-80.90733923928146
-0.28169999999999995,-81.61469488921396
-0.28270000000000006,-82.26546208715187
-0.28369999999999995,-82.9162292850898
-0.28470000000000006,-83.56699648302772
-0.28569999999999995,-84.18946945496833
-0.28670000000000007,-84.7977953139103
-0.28769999999999996,-85.44856251184822
-0.28870000000000007,-86.18421238777805
-0.28969999999999996,-86.89156803771054
-0.29070000000000007,-87.54233523564847
-0.29169999999999996,-88.27798511157829
-0.29270000000000007,-88.94289942251486
-0.29369999999999996,-89.63610795944872
-0.2947000000000001,-90.32931649638259
-0.29569999999999996,-91.03667214631511
-0.2967000000000001,-91.81476336124088
-0.29769999999999996,-92.6070016891653
-0.2987000000000001,-93.38509290409107
-0.29969999999999997,-94.21977257101145
-0.3007000000000001,-94.95542244694126
-0.30169999999999997,-95.69107232287108
-0.3027000000000001,-96.44086931179956
-0.30369999999999997,-97.17651918772938
-0.3047000000000001,-98.01119885464975
-0.30569999999999997,-98.74684873057957
-0.3067000000000001,-99.58152839749994
-0.3077,-100.35961961242569
-0.3087000000000001,-101.15185794035013
-0.3097,-101.92994915527588
-0.3107000000000001,-102.67974614420436
-0.3117,-103.41539602013418
-0.3127000000000001,-104.25007568705455
-0.3137,-105.07060824097626
-0.3147000000000001,-105.94772924689259
-0.3157,-106.73996757481702
-0.3167000000000001,-107.51805878974278
-0.3177,-108.2537086656726
-0.3187000000000001,-109.04594699359701
-0.3197,-109.8240382085228
-0.3207000000000001,-110.6162765364472
-0.3217,-111.4509562033676
-0.3227000000000001,-112.31393009628526
-0.3237,-113.19105110220158
-0.3247000000000001,-113.96914231712736
-0.3257,-114.76138064505177
-0.3267000000000001,-115.53947185997755
-0.3277,-116.28926884890602
-0.3287000000000001,-117.10980140282774
-0.3297,-117.98692240874406
-0.3307000000000001,-118.86404341466037
-0.3317,-119.68457596858211
-0.3327000000000001,-120.56169697449842
-0.3337,-121.38222952842017
-0.3347000000000001,-122.25935053433648
-0.3357,-123.09403020125686
-0.3367000000000001,-123.91456275517855
-0.3377,-124.83412510009084
-0.3387000000000001,-125.6688047670112
-0.3397,-126.57421999892482
-0.3407000000000001,-127.4937823438371
-0.3417,-128.32846201075745
-0.3427000000000001,-129.1489945646792
-0.3437,-129.9412328926036
-0.3447000000000001,-130.7193241075294
-0.3457,-131.5115624354538
-0.3467000000000001,-132.33209498937555
-0.3477,-133.20921599529186
-0.3487000000000001,-134.04389566221224
-0.3497,-134.82198687713802
-0.3507000000000001,-135.6142252050624
-0.3517,-136.34987508099226
-0.3527000000000001,-137.1845547479126
-0.3537,-137.92020462384244
-0.3547000000000001,-138.79732562975875
-0.3557,-139.61785818368048
-0.35670000000000013,-140.36765517260895
-0.3577,-141.06086370954282
-0.35870000000000013,-141.75407224647665
-0.3597,-142.4614278964092
-0.36070000000000013,-143.16878354634173
-0.3617,-143.87613919627424
-0.3626999999999999,-144.44202371622026
-0.3637,-145.14937936615277
-0.3646999999999999,-145.9982061460718
-0.3657,-146.7055617960043
-0.3666999999999999,-147.27144631595033
-0.3677,-147.83733083589632
-0.3686999999999999,-148.40321535584232
-0.36970000000000003,-148.82762874580186
-0.3706999999999999,-149.39351326574788
-0.37170000000000003,-149.8179266557074
-0.3726999999999999,-150.38381117565342
-0.37370000000000003,-150.8082245656129
-0.3746999999999999,-151.23263795557244
-0.37570000000000003,-151.5155802155454
-0.3766999999999999,-151.93999360550492
-0.37770000000000004,-152.22293586547795
-0.3786999999999999,-152.50587812545095
-0.37970000000000004,-152.78882038542397
-0.3806999999999999,-153.07176264539694
-0.38170000000000004,-153.49617603535648
-0.38269999999999993,-153.77911829532948
-0.38370000000000004,-153.920589425316
-0.38469999999999993,-154.0620605553025
-0.38570000000000004,-154.0620605553025
-0.38669999999999993,-154.0620605553025
-0.38770000000000004,-154.0620605553025
-0.38869999999999993,-154.0620605553025
-0.38970000000000005,-153.920589425316
-0.39069999999999994,-153.77911829532948
-0.39170000000000005,-153.63764716534297
-0.39269999999999994,-153.35470490536997
-0.39370000000000005,-152.93029151541046
-0.39469999999999994,-152.64734925543743
-0.39570000000000005,-152.22293586547795
-0.39669999999999994,-151.93999360550492
-0.39770000000000005,-151.37410908555893
-0.39869999999999994,-150.94969569559944
-0.39970000000000006,-150.5252823056399
-0.40069999999999995,-149.8179266557074
-0.40170000000000006,-149.25204213576137
-0.40269999999999995,-148.54468648582886
-0.40370000000000006,-147.83733083589632
-0.40469999999999995,-147.27144631595033
-0.40570000000000006,-146.5640906660178
-0.40669999999999995,-145.85673501608528
-0.40770000000000006,-145.14937936615277
-0.40869999999999995,-144.44202371622026
-0.40970000000000006,-143.4517258063147
-0.41069999999999995,-142.7443701563822
-0.41170000000000007,-141.89554337646317
-0.41269999999999996,-141.06086370954282
-0.41370000000000007,-140.22618404262244
-0.41469999999999996,-139.44809282769666
-0.41570000000000007,-138.57097182178035
-0.41669999999999996,-137.70799792886265
-0.41770000000000007,-136.7884355839504
-0.41869999999999996,-135.91131457803408
-0.4197000000000001,-135.03419357211774
-0.42069999999999996,-134.29854369618792
-0.4217000000000001,-133.5628938202581
-0.42269999999999996,-132.8555381703256
-0.4237000000000001,-132.11988829439576
-0.42469999999999997,-131.4266797574619
-0.4257000000000001,-130.63444142953747
-0.42669999999999997,-129.8563502146117
-0.4277000000000001,-129.10655322568326
-0.42869999999999997,-128.45578602774532
-0.4297000000000001,-127.80501882980741
-0.43069999999999997,-127.14010451887084
-0.4317000000000001,-126.57421999892482
-0.4327,-125.96589413998288
-0.4337000000000001,-125.31512694204494
-0.4347,-124.66435974410705
-0.4357000000000001,-123.95700409417452
-0.4367,-123.39111957422851
-0.4377000000000001,-122.86767639327843
-0.4387,-122.34423321232836
-0.4397000000000001,-121.77834869238235
-0.4407,-121.17002283344038
-0.4417000000000001,-120.64657965249035
-0.4427,-120.12313647154028
-0.4437000000000001,-119.64213462958614
-0.4447,-119.16113278763203
-0.4457000000000001,-118.63768960668197
-0.4467,-118.15668776472786
-0.4477000000000001,-117.63324458377778
-0.4487,-117.15224274182368
-0.4497000000000001,-116.62879956087362
-0.4507,-116.14779771891952
-0.4517000000000001,-115.76582566795594
-0.4527,-115.32726516499778
-0.4537000000000001,-114.93114600103557
-0.4547,-114.57746817606933
-0.4557000000000001,-114.19549612510575
-0.4567,-113.79937696114357
-0.4577000000000001,-113.40325779718134
-0.4587,-113.06372708521374
-0.4597000000000001,-112.71004926024747
-0.4607,-112.44125411327312
-0.4617000000000001,-112.18660607929739
-0.4627,-111.91781093232305
-0.4637000000000001,-111.66316289834735
-0.4647,-111.5358388813595
-0.4657000000000001,-111.4509562033676
-0.4667,-111.3094850733811
-0.4677000000000001,-111.26704373438514
-0.4687,-111.3094850733811
-0.4697000000000001,-111.394367751373
-0.4707,-111.394367751373
-0.4717000000000001,-111.394367751373
-0.4727,-111.35192641237703
-0.4737000000000001,-111.35192641237703
-0.4747,-111.4509562033676
-0.4757000000000001,-111.5358388813595
-0.4767,-111.6207215593514
-0.4777000000000001,-111.74804557633925
-0.4787,-111.8753695933271
-0.4797000000000001,-112.01684072331359
-0.4807,-112.14416474030146
-0.48170000000000013,-112.27148875728932
-0.4827,-112.44125411327312
-0.48370000000000013,-112.75249059924342
-0.4847,-113.06372708521374
-0.48570000000000013,-113.36081645818538
-0.4867,-112.39881277427718
-0.48570000000000013,-109.52694883555114
-0.4847,-107.12193962578058
-0.48370000000000013,-104.98572556298437
-0.4827,-103.11830664716253
-0.48170000000000013,-101.32162329633393
-0.4807,-99.62396973649588
-0.4797000000000001,-97.96875751565379
-0.4787,-96.3984279728036
-0.4777000000000001,-94.91298110794531
-0.4767,-93.51241692107894
-0.4757000000000001,-92.16844118620713
-0.4747,-90.85275967733266
-0.4737000000000001,-89.55122528145681
-0.4727,-88.27798511157829
-0.4717000000000001,-87.01889205469841
-0.4707,-85.70321054582392
-0.4697000000000001,-84.40167614994809
-0.4687,-83.26990711005605
-0.4677000000000001,-82.13813807016405
-0.4667,-81.09125170826391
-0.4657000000000001,-79.94533555537322
-0.4647,-78.85600785447714
