Potential V vs RHE, Current mA cm-2
0.013299999999999867,4.6218618166590755
0.012299999999999978,3.5749754547589476
0.011299999999999866,2.745954633038036
0.010299999999999976,2.048501962204573
0.009299999999999864,1.3934906303670611
0.008299999999999974,0.7829012333453113
0.007299999999999862,0.21588494435940458
0.006299999999999972,-0.30755823659065895
0.00529999999999986,-0.8308599464107361
0.0042999999999999705,-1.3543031273607997
0.0032999999999998586,-1.7910245056291363
0.0022999999999999687,-2.2706116362833835
0.0012999999999998568,-2.7501987669376318
0.00029999999999996696,-3.1420737970002466
-0.000700000000000145,-3.579219588658543
-0.0017000000000000348,-4.014950669016974
-0.0027000000000001467,-4.406825699079589
-0.0037000000000000366,-4.800115440442069
-0.0047000000000001485,-5.149549131508733
-0.005700000000000038,-5.497568111275533
-0.00670000000000015,-5.80314575204638
-0.00770000000000004,-6.108723392817228
-0.008700000000000152,-6.458157083883892
-0.009700000000000042,-6.762320013354876
-0.010700000000000154,-7.067897654125724
-0.011700000000000044,-7.37347529489657
-0.012700000000000156,-7.679052935667419
-0.013700000000000045,-7.984630576438266
-0.014700000000000157,-8.288793505909249
-0.015700000000000047,-8.55051509638428
-0.01670000000000016,-8.85609273715513
-0.01770000000000005,-9.11781432763016
-0.01870000000000016,-9.379535918105192
-0.01970000000000005,-9.59740145828441
-0.020700000000000163,-9.85912304875944
-0.021700000000000053,-10.078403300238522
-0.022700000000000164,-10.296268840417738
-0.023700000000000054,-10.557990430892769
-0.024700000000000166,-10.775855971071984
-0.025700000000000056,-11.037577561547016
-0.026700000000000168,-11.255443101726232
-0.027700000000000058,-11.517164692201263
-0.02870000000000017,-11.73503023238048
-0.02970000000000006,-11.952895772559694
-0.03070000000000017,-12.214617363034726
-0.03170000000000006,-12.390041564217992
-0.03270000000000017,-12.56405105410139
-0.03370000000000006,-12.781916594280606
-0.034700000000000175,-12.99978213445982
-0.035700000000000065,-13.175206335643086
-0.03670000000000018,-13.349215825526485
-0.03770000000000007,-13.567081365705702
-0.03870000000000018,-13.784946905884919
-0.03970000000000007,-14.002812446064135
-0.04070000000000018,-14.175407224647667
-0.04170000000000007,-14.401761032626075
-0.04270000000000018,-14.57152638860988
-0.04370000000000007,-14.783733083589633
-0.044700000000000184,-14.967645552572087
-0.045700000000000074,-15.137410908555893
-0.046700000000000186,-15.307176264539699
-0.047700000000000076,-15.491088733522153
-0.04870000000000019,-15.660854089505953
-0.04970000000000008,-15.78817810649381
-0.05070000000000019,-16.014531914472215
-0.05170000000000008,-16.184297270456018
-0.05270000000000019,-16.354062626439823
-0.05370000000000008,-16.580416434418233
-0.05470000000000019,-16.792623129397985
-0.05570000000000008,-16.962388485381787
-0.056700000000000195,-17.146300954364243
-0.057700000000000085,-17.316066310348052
-0.058700000000000196,-17.48583166633185
-0.059700000000000086,-17.669744135314307
-0.0607000000000002,-17.839509491298113
-0.06170000000000009,-17.966833508285966
-0.0627000000000002,-18.19318731626437
-0.06370000000000009,-18.320511333252224
-0.0647000000000002,-18.49027668923603
-0.06570000000000009,-18.674189158218486
-0.0667000000000002,-18.88639585319824
-0.0677000000000001,-19.056161209182044
-0.0687000000000002,-19.28251501716045
-0.0697000000000001,-19.452280373144255
-0.07070000000000021,-19.636192842126707
-0.0717000000000001,-19.805958198110513
-0.07270000000000021,-19.97572355409432
-0.0737000000000001,-20.10304757108217
-0.07470000000000021,-20.286960040064624
-0.0757000000000001,-20.456725396048434
-0.07670000000000021,-20.626490752032236
-0.0777000000000001,-20.810403221014692
-0.07870000000000021,-20.980168576998494
-0.0797000000000001,-21.149933932982297
-0.08070000000000022,-21.376287740960702
-0.0817000000000001,-21.58849443594046
-0.08270000000000022,-21.729965565926964
-0.08370000000000011,-21.94217226090672
-0.08470000000000022,-22.111937616890522
-0.08570000000000011,-22.253408746877028
-0.08670000000000022,-22.42317410286083
-0.08770000000000011,-22.63538079784059
-0.08870000000000022,-22.819293266823045
-0.08970000000000011,-22.946617283810895
-0.09070000000000022,-23.1163826397947
-0.09170000000000011,-23.342736447773106
-0.09270000000000023,-23.51250180375691
-0.09370000000000012,-23.682267159740714
-0.09470000000000023,-23.908620967719123
-0.09570000000000012,-24.078386323702922
-0.09670000000000023,-24.290593018682678
-0.09770000000000012,-24.474505487665134
-0.09870000000000023,-24.64427084364894
-0.09970000000000012,-24.814036199632742
-0.10070000000000023,-25.04039000761115
-0.10170000000000012,-25.295038041586857
-0.10270000000000024,-25.521391849565262
-0.10370000000000013,-25.73359854454502
-0.10470000000000024,-26.002393691519377
-0.10570000000000013,-26.257041725495082
-0.10670000000000024,-26.483395533473487
-0.10770000000000013,-26.69560222845324
-0.10870000000000024,-26.86536758443705
-0.10970000000000013,-27.049280053419505
-0.11070000000000024,-27.219045409403304
-0.11170000000000013,-27.34636942639116
-0.11270000000000002,-27.487840556377662
-0.11370000000000013,-27.65760591236147
-0.11470000000000002,-27.827371268345274
-0.11570000000000014,-28.011283737327723
-0.11670000000000003,-28.18104909331153
-0.11770000000000014,-28.393255788291288
-0.11870000000000003,-28.619609596269694
-0.11970000000000014,-28.831816291249446
-0.12070000000000003,-29.100611438223805
-0.12170000000000014,-29.39770081119546
-0.12270000000000003,-29.66649595816982
-0.12370000000000014,-29.921143992145527
-0.12470000000000003,-30.147497800123933
-0.12570000000000014,-30.402145834099635
-0.12670000000000003,-30.614352529079397
-0.12770000000000015,-30.79826499806185
-0.12870000000000004,-30.968030354045652
-0.12970000000000015,-31.19438416202406
-0.13070000000000004,-31.40659085700382
-0.13170000000000015,-31.618797551983565
-0.13270000000000004,-31.887592698957924
-0.13370000000000015,-32.184682071929586
-0.13470000000000004,-32.45347721890394
-0.13570000000000015,-32.70812525287965
-0.13670000000000004,-32.97692039985401
-0.13770000000000016,-33.231568433829715
-0.13870000000000005,-33.50036358080407
-0.13970000000000016,-33.755011614779775
-0.14070000000000005,-33.98136542275818
-0.14170000000000016,-34.193572117737936
-0.14270000000000005,-34.462367264712285
-0.14370000000000016,-34.67457395969205
-0.14470000000000005,-34.98581044566235
-0.14570000000000016,-35.240458479638065
-0.14670000000000005,-35.55169496560837
-0.14770000000000016,-35.848784338580025
-0.14870000000000005,-36.11757948555439
-0.14970000000000017,-36.37222751953009
-0.15070000000000006,-36.6834640055004
-0.15170000000000017,-36.95225915247476
-0.15270000000000006,-37.206907186450465
-0.15370000000000017,-37.47570233342482
-0.15470000000000006,-37.73035036740053
-0.15570000000000017,-37.99914551437489
-0.15670000000000006,-38.29623488734655
-0.15770000000000017,-38.607471373316855
-0.15870000000000006,-38.86211940729255
-0.15970000000000018,-39.173355893262865
-0.16070000000000007,-39.47044526623452
-0.16170000000000018,-39.739240413208876
-0.16270000000000007,-40.03632978618054
-0.16370000000000018,-40.34756627215084
-0.16470000000000007,-40.65880275812115
-0.16570000000000018,-40.95589213109281
-0.16670000000000007,-41.22468727806717
-0.16770000000000018,-41.47933531204288
-0.16870000000000007,-41.79057179801318
-0.16970000000000018,-42.087661170984845
-0.17070000000000007,-42.39889765695515
-0.17170000000000019,-42.71013414292546
-0.17270000000000008,-43.04966485489307
-0.1737000000000002,-43.36090134086337
-0.17470000000000008,-43.70043205283099
-0.1757000000000002,-44.011668538801295
-0.17670000000000008,-44.4077877027635
-0.1777000000000002,-44.704877075735155
-0.17870000000000008,-45.01611356170547
-0.1797000000000002,-45.32735004767578
-0.18070000000000008,-45.624439420647434
-0.1817000000000002,-45.89323456762179
-0.18270000000000008,-46.2327652795894
-0.1837000000000002,-46.586443104555656
-0.1847000000000001,-46.94012092952192
-0.1857000000000002,-47.27965164148953
-0.1867000000000001,-47.633329466455784
-0.1877000000000002,-47.93041883942744
-0.1887000000000001,-48.24165532539775
-0.1897000000000002,-48.59533315036401
-0.1907000000000001,-48.97730520132757
-0.1917000000000001,-49.28854168729788
-0.19269999999999998,-49.59977817326819
-0.1937000000000001,-49.939308885235796
-0.19469999999999998,-50.2505453712061
-0.1957000000000001,-50.547634744177756
-0.19669999999999999,-50.90131256914402
-0.1977000000000001,-51.25499039411028
-0.1987,-51.65110955807249
-0.1997000000000001,-52.033081609036046
-0.2007,-52.471642111994214
-0.2017000000000001,-52.95264395394832
-0.2027,-53.39120445690648
-0.2037000000000001,-53.82976495986464
-0.2047,-54.2117370108282
-0.2057000000000001,-54.60785617479041
-0.2067,-54.961533999756675
-0.2077000000000001,-55.31521182472294
-0.2087,-55.56985985869864
-0.2097000000000001,-55.881096344668954
-0.2107,-56.1781857176406
-0.2117000000000001,-56.53186354260687
-0.2127,-56.97042404556503
-0.2137000000000001,-57.408984548523186
-0.2147,-57.87583927747865
-0.2157000000000001,-58.39928245842871
-0.2167,-58.880284300382826
-0.21770000000000012,-59.31884480334099
-0.2187,-59.7998466452951
-0.21970000000000012,-60.23840714825326
-0.2207,-60.59208497321952
-0.22170000000000012,-60.974057024183075
-0.2227,-61.327734849149344
-0.22370000000000012,-61.72385401311155
-0.2247,-62.11997317707376
-0.22570000000000012,-62.58682790602922
-0.2267,-63.06782974798333
-0.22770000000000012,-63.54883158993744
-0.22870000000000001,-64.0722747708875
-0.22970000000000013,-64.55327661284163
-0.23070000000000002,-65.03427845479574
-0.23170000000000013,-65.51528029674984
-0.23270000000000002,-65.95384079970802
-0.23370000000000013,-66.39240130266617
-0.23470000000000002,-66.81681469262568
-0.23570000000000013,-67.2978165345798
-0.23670000000000002,-67.7788183765339
-0.2376999999999999,-68.25982021848802
-0.23870000000000002,-68.78326339943808
-0.2396999999999999,-69.26426524139221
-0.24070000000000003,-69.8301497613382
-0.24169999999999991,-70.39603428128423
-0.24270000000000003,-70.87703612323833
-0.24369999999999992,-71.44292064318435
-0.24470000000000003,-71.96636382413442
-0.24569999999999992,-72.44736566608852
-0.24670000000000003,-72.97080884703858
-0.24769999999999992,-73.49425202798865
-0.24870000000000003,-73.97525386994278
-0.24969999999999992,-74.49869705089283
-0.25070000000000003,-75.02214023184291
-0.2516999999999999,-75.5880247517889
-0.25270000000000004,-76.15390927173492
-0.2536999999999999,-76.71979379168094
-0.25470000000000004,-77.28567831162695
-0.2556999999999999,-77.80912149257702
-0.25670000000000004,-78.33256467352709
-0.25769999999999993,-78.85600785447714
-0.25870000000000004,-79.42189237442317
-0.25969999999999993,-80.00192400736783
-0.26070000000000004,-80.56780852731384
-0.26169999999999993,-81.13369304725985
-0.26270000000000004,-81.69957756720586
-0.26369999999999993,-82.26546208715187
-0.26470000000000005,-82.9162292850898
-0.26569999999999994,-83.52455514403178
-0.26670000000000005,-84.18946945496833
-0.26769999999999994,-84.7977953139103
-0.26870000000000005,-85.36367983385631
-0.26969999999999994,-85.97200569279828
-0.27070000000000005,-86.5378902127443
-0.27169999999999994,-87.10377473269031
-0.27270000000000005,-87.71210059163228
-0.27369999999999994,-88.32042645057423
-0.27470000000000006,-88.94289942251486
-0.27569999999999995,-89.55122528145681
-0.27670000000000006,-90.20199247939475
-0.27769999999999995,-90.85275967733266
-0.27870000000000006,-91.51767398826922
-0.27969999999999995,-92.2108825252031
-0.28070000000000006,-92.86164972314101
-0.28169999999999995,-93.51241692107894
-0.28270000000000006,-94.17733123201549
-0.28369999999999995,-94.8280984299534
-0.28470000000000006,-95.43642428889537
-0.28569999999999995,-96.0871914868333
-0.28670000000000007,-96.73795868477121
-0.28769999999999996,-97.40287299570777
-0.28870000000000007,-98.09608153264163
-0.28969999999999996,-98.7892900695755
-0.29070000000000007,-99.41176304151614
-0.29169999999999996,-100.02008890045809
-0.29270000000000007,-100.71329743739196
-0.29369999999999996,-101.44894731332178
-0.2947000000000001,-102.1563029632543
-0.29569999999999996,-102.80707016119221
-0.2967000000000001,-103.54272003712204
-0.29769999999999996,-104.2925170260505
-0.2987000000000001,-105.07060824097626
-0.29969999999999997,-105.90528790789664
-0.3007000000000001,-106.73996757481702
-0.30169999999999997,-107.6029414677347
-0.3027000000000001,-108.56494515164292
-0.30369999999999997,-109.44206615755924
-0.3047000000000001,-110.26259871148096
-0.30569999999999997,-111.05483703940537
-0.3067000000000001,-111.74804557633925
-0.3077,-112.31393009628526
-0.3087000000000001,-112.83737327723534
-0.3097,-113.44569913617728
-0.3107000000000001,-114.1530547861098
-0.3117,-114.88870466203963
-0.3127000000000001,-115.62435453796945
-0.3137,-116.45903420488982
-0.3147000000000001,-117.29371387181018
-0.3157,-118.15668776472786
-0.3167000000000001,-119.03380877064419
-0.3177,-119.95337111555646
-0.3187000000000001,-120.85878634747009
-0.3197,-121.65102467539451
-0.3207000000000001,-122.48570434231489
-0.3217,-123.26379555724066
-0.3227000000000001,-124.05603388516508
-0.3237,-124.91900777808273
-0.3247000000000001,-125.79612878399907
-0.3257,-126.61666133792076
-0.3267000000000001,-127.45134100484115
-0.3277,-128.32846201075745
-0.3287000000000001,-129.10655322568326
-0.3297,-129.9412328926036
-0.3307000000000001,-130.76176544652535
-0.3317,-131.63888645244168
-0.3327000000000001,-132.47356611936203
-0.3337,-133.3365400122797
-0.3347000000000001,-134.17121967920008
-0.3357,-134.9917522331218
-0.3367000000000001,-135.86887323903812
-0.3377,-136.70355290595847
-0.3387000000000001,-137.52408545988024
-0.3397,-138.3587651268006
-0.3407000000000001,-139.13685634172634
-0.3417,-139.97153600864672
-0.3427000000000001,-140.84865701456303
-0.3437,-141.61260111649017
-0.3447000000000001,-142.6028990263957
-0.3457,-143.4517258063147
-0.3467000000000001,-144.30055258623375
-0.3477,-145.29085049613926
-0.3487000000000001,-146.1396772760583
-0.3497,-147.1299751859638
-0.3507000000000001,-148.12027309586935
-0.3517,-148.96909987578834
-0.3527000000000001,-149.95939778569388
-0.3537,-150.8082245656129
-0.3547000000000001,-151.7985224755184
-0.3557,-152.64734925543743
-0.35670000000000013,-153.63764716534297
-0.3577,-154.486473945262
-0.35870000000000013,-155.47677185516753
-0.3597,-156.46706976507306
-0.36070000000000013,-157.31589654499206
-0.3617,-158.3061944548976
-0.3626999999999999,-159.43796349478964
-0.3637,-160.42826140469515
-0.3646999999999999,-161.2770881846142
-0.3657,-162.2673860945197
-0.3666999999999999,-163.25768400442522
-0.3677,-164.10651078434424
-0.3686999999999999,-165.09680869424977
-0.36970000000000003,-166.0871066041553
-0.3706999999999999,-166.93593338407433
-0.37170000000000003,-167.92623129397984
-0.3726999999999999,-168.77505807389886
-0.37370000000000003,-169.7653559838044
-0.3746999999999999,-170.61418276372342
-0.37570000000000003,-171.60448067362896
-0.3766999999999999,-172.45330745354798
-0.37770000000000004,-173.302134233467
-0.3786999999999999,-174.150961013386
-0.37970000000000004,-174.99978779330505
-0.3806999999999999,-175.70714344323756
-0.38170000000000004,-176.4144990931701
-0.38269999999999993,-177.1218547431026
-0.38370000000000004,-177.82921039303508
-0.38469999999999993,-178.53656604296762
-0.38570000000000004,-179.24392169290016
-0.38669999999999993,-180.09274847281918
-0.38770000000000004,-180.94157525273818
-0.38869999999999993,-181.93187316264374
-0.38970000000000005,-182.92217107254925
-0.39069999999999994,-183.91246898245475
-0.39170000000000005,-184.7612957623738
-0.39269999999999994,-185.6101225422928
-0.39370000000000005,-186.31747819222534
-0.39469999999999994,-187.02483384215788
-0.39570000000000005,-187.73218949209036
-0.39669999999999994,-188.4395451420229
-0.39770000000000005,-189.0054296619689
-0.39869999999999994,-189.57131418191491
-0.39970000000000006,-190.27866983184742
-0.40069999999999995,-190.98602548177996
-0.40170000000000006,-191.69338113171247
-0.40269999999999995,-192.40073678164498
-0.40370000000000006,-193.249563561564
-0.40469999999999995,-193.81544808151003
-0.40570000000000006,-194.38133260145605
-0.40669999999999995,-194.94721712140205
-0.40770000000000006,-195.51310164134807
-0.40869999999999995,-195.93751503130758
-0.40970000000000006,-196.3619284212671
-0.41069999999999995,-196.6448706812401
-0.41170000000000007,-197.21075520118612
-0.41269999999999996,-197.49369746115914
-0.41370000000000007,-197.91811085111863
-0.41469999999999996,-198.20105311109162
-0.41570000000000007,-198.48399537106465
-0.41669999999999996,-198.76693763103765
-0.41770000000000007,-198.90840876102413
-0.41869999999999996,-199.04987989101065
-0.4197000000000001,-199.19135102099716
-0.42069999999999996,-199.33282215098367
-0.4217000000000001,-199.33282215098367
-0.42269999999999996,-199.33282215098367
-0.4237000000000001,-199.33282215098367
-0.42469999999999997,-199.33282215098367
-0.4257000000000001,-199.33282215098367
-0.42669999999999997,-199.33282215098367
-0.4277000000000001,-199.19135102099716
-0.42869999999999997,-199.04987989101065
-0.4297000000000001,-198.90840876102413
-0.43069999999999997,-198.76693763103765
-0.4317000000000001,-198.48399537106465
-0.4327,-198.20105311109162
-0.4337000000000001,-197.91811085111863
-0.4347,-197.63516859114563
-0.4357000000000001,-197.21075520118612
-0.4367,-196.7863418112266
-0.4377000000000001,-196.50339955125358
-0.4387,-196.0789861612941
-0.4397000000000001,-195.65457277133459
-0.4407,-195.23015938137505
-0.4417000000000001,-194.80574599141553
-0.4427,-194.38133260145605
-0.4437000000000001,-193.81544808151003
-0.4447,-193.249563561564
-0.4457000000000001,-192.683679041618
-0.4467,-192.11779452167198
-0.4477000000000001,-191.551910001726
-0.4487,-190.98602548177996
-0.4497000000000001,-190.27866983184742
-0.4507,-189.71278531190143
-0.4517000000000001,-189.2883719219419
-0.4527,-188.72248740199586
-0.4537000000000001,-188.15660288204987
-0.4547,-187.59071836210387
-0.4557000000000001,-187.02483384215788
-0.4567,-186.45894932221185
-0.4577000000000001,-185.89306480226583
-0.4587,-185.3271802823198
-0.4597000000000001,-184.7612957623738
-0.4607,-184.33688237241427
-0.4617000000000001,-183.77099785246824
-0.4627,-183.20511333252225
-0.4637000000000001,-182.78069994256273
-0.4647,-182.21481542261674
-0.4657000000000001,-181.93187316264374
-0.4667,-181.64893090267074
-0.4677000000000001,-181.08304638272472
-0.4687,-180.5171618627787
-0.4697000000000001,-180.23421960280567
-0.4707,-179.80980621284618
-0.4717000000000001,-179.52686395287316
-0.4727,-179.24392169290016
-0.4737000000000001,-178.81950830294062
-0.4747,-178.53656604296762
-0.4757000000000001,-178.25362378299462
-0.4767,-177.9706815230216
-0.4777000000000001,-177.54626813306209
-0.4787,-177.2633258730891
-0.4797000000000001,-176.98038361311612
-0.4807,-176.6974413531431
-0.48170000000000013,-176.4144990931701
-0.4827,-176.13155683319707
-0.48370000000000013,-175.84861457322407
-0.4847,-175.42420118326456
-0.48570000000000013,-175.14125892329156
-0.4867,-173.58507649344
-0.48570000000000013,-169.9068271137909
-0.4847,-166.51151999411482
-0.48370000000000013,-163.39915513441173
-0.4827,-160.42826140469515
-0.48170000000000013,-157.59883880496508
-0.4807,-154.9108873352215
-0.4797000000000001,-152.22293586547795
-0.4787,-149.6764555257209
-0.4777000000000001,-147.1299751859638
-0.4767,-144.58349484620675
-0.4757000000000001,-142.17848563643616
-0.4747,-139.8866533306548
-0.4737000000000001,-137.6089681378721
-0.4727,-135.387871397084
-0.4717000000000001,-133.12433331729994
-0.4707,-130.84664812451723
-0.4697000000000001,-128.66799272272507
-0.4687,-126.5317786599289
-0.4677000000000001,-124.43800593612862
-0.4667,-122.30179187333242
-0.4657000000000001,-120.25046048852812
