Oct. 1, 2024   05:11:35
Cyclic Voltammetry
File: c:/users/guazh/data/20240922_batch_417_500/2024-09-22-exp497\exp497-2024-10-01t04_55_08-h2koh\exp497_cv_50mvs_efin_-1700mv.bin
Data Source:  Experiment
Instrument Model:  CHI760E
Header: CV ran at 50 mVs
Note: 

Init E (V) = -1
High E (V) = -1
Low E (V) = -1.7
Final E (V) = -1
Init P/N = N
Scan Rate (V/s) = 0.05
Segment = 7
Sample Interval (V) = 0.001
Quiet Time (sec) = 60
Sensitivity (A/V) = 0.001
Comp R (ohm) = 2.3

Results:

Channel 1:
Segment 1:

Segment 2:

Segment 3:

Segment 4:

Segment 5:

Segment 6:

Segment 7:

Potential/V, Current/A

-1.000, 5.861e-6
-1.001, 6.778e-6
-1.002, 6.894e-6
-1.003, 7.386e-6
-1.004, 7.898e-6
-1.005, 7.963e-6
-1.006, 7.698e-6
-1.007, 7.815e-6
-1.008, 8.045e-6
-1.009, 8.543e-6
-1.010, 8.565e-6
-1.011, 8.242e-6
-1.012, 8.210e-6
-1.013, 8.577e-6
-1.014, 8.930e-6
-1.015, 8.882e-6
-1.016, 8.683e-6
-1.017, 8.522e-6
-1.018, 8.839e-6
-1.019, 9.254e-6
-1.020, 9.174e-6
-1.021, 8.934e-6
-1.022, 8.749e-6
-1.023, 9.062e-6
-1.024, 9.523e-6
-1.025, 9.396e-6
-1.026, 9.263e-6
-1.027, 8.960e-6
-1.028, 9.369e-6
-1.029, 9.774e-6
-1.030, 9.509e-6
-1.031, 9.469e-6
-1.032, 9.201e-6
-1.033, 9.517e-6
-1.034, 9.861e-6
-1.035, 9.776e-6
-1.036, 9.482e-6
-1.037, 9.440e-6
-1.038, 9.709e-6
-1.039, 1.010e-5
-1.040, 9.939e-6
-1.041, 9.686e-6
-1.042, 9.577e-6
-1.043, 9.888e-6
-1.044, 1.028e-5
-1.045, 1.016e-5
-1.046, 9.889e-6
-1.047, 9.779e-6
-1.048, 1.013e-5
-1.049, 1.037e-5
-1.050, 1.028e-5
-1.051, 1.007e-5
-1.052, 9.938e-6
-1.053, 1.025e-5
-1.054, 1.057e-5
-1.055, 1.055e-5
-1.056, 1.027e-5
-1.057, 1.008e-5
-1.058, 1.051e-5
-1.059, 1.084e-5
-1.060, 1.069e-5
-1.061, 1.056e-5
-1.062, 1.028e-5
-1.063, 1.072e-5
-1.064, 1.100e-5
-1.065, 1.096e-5
-1.066, 1.080e-5
-1.067, 1.047e-5
-1.068, 1.084e-5
-1.069, 1.138e-5
-1.070, 1.117e-5
-1.071, 1.101e-5
-1.072, 1.080e-5
-1.073, 1.121e-5
-1.074, 1.162e-5
-1.075, 1.158e-5
-1.076, 1.125e-5
-1.077, 1.113e-5
-1.078, 1.149e-5
-1.079, 1.188e-5
-1.080, 1.184e-5
-1.081, 1.162e-5
-1.082, 1.156e-5
-1.083, 1.172e-5
-1.084, 1.224e-5
-1.085, 1.224e-5
-1.086, 1.199e-5
-1.087, 1.187e-5
-1.088, 1.216e-5
-1.089, 1.247e-5
-1.090, 1.269e-5
-1.091, 1.233e-5
-1.092, 1.217e-5
-1.093, 1.260e-5
-1.094, 1.297e-5
-1.095, 1.296e-5
-1.096, 1.272e-5
-1.097, 1.260e-5
-1.098, 1.306e-5
-1.099, 1.338e-5
-1.100, 1.341e-5
-1.101, 1.314e-5
-1.102, 1.308e-5
-1.103, 1.356e-5
-1.104, 1.376e-5
-1.105, 1.384e-5
-1.106, 1.363e-5
-1.107, 1.362e-5
-1.108, 1.403e-5
-1.109, 1.430e-5
-1.110, 1.437e-5
-1.111, 1.426e-5
-1.112, 1.405e-5
-1.113, 1.445e-5
-1.114, 1.481e-5
-1.115, 1.493e-5
-1.116, 1.465e-5
-1.117, 1.460e-5
-1.118, 1.502e-5
-1.119, 1.532e-5
-1.120, 1.542e-5
-1.121, 1.509e-5
-1.122, 1.527e-5
-1.123, 1.551e-5
-1.124, 1.586e-5
-1.125, 1.614e-5
-1.126, 1.568e-5
-1.127, 1.586e-5
-1.128, 1.612e-5
-1.129, 1.644e-5
-1.130, 1.669e-5
-1.131, 1.624e-5
-1.132, 1.646e-5
-1.133, 1.678e-5
-1.134, 1.708e-5
-1.135, 1.732e-5
-1.136, 1.698e-5
-1.137, 1.705e-5
-1.138, 1.736e-5
-1.139, 1.769e-5
-1.140, 1.790e-5
-1.141, 1.762e-5
-1.142, 1.776e-5
-1.143, 1.803e-5
-1.144, 1.829e-5
-1.145, 1.854e-5
-1.146, 1.834e-5
-1.147, 1.840e-5
-1.148, 1.860e-5
-1.149, 1.907e-5
-1.150, 1.922e-5
-1.151, 1.897e-5
-1.152, 1.904e-5
-1.153, 1.942e-5
-1.154, 1.973e-5
-1.155, 1.984e-5
-1.156, 1.953e-5
-1.157, 1.982e-5
-1.158, 2.000e-5
-1.159, 2.048e-5
-1.160, 2.053e-5
-1.161, 2.021e-5
-1.162, 2.050e-5
-1.163, 2.071e-5
-1.164, 2.114e-5
-1.165, 2.142e-5
-1.166, 2.079e-5
-1.167, 2.118e-5
-1.168, 2.139e-5
-1.169, 2.184e-5
-1.170, 2.212e-5
-1.171, 2.160e-5
-1.172, 2.186e-5
-1.173, 2.202e-5
-1.174, 2.261e-5
-1.175, 2.281e-5
-1.176, 2.227e-5
-1.177, 2.267e-5
-1.178, 2.288e-5
-1.179, 2.326e-5
-1.180, 2.353e-5
-1.181, 2.302e-5
-1.182, 2.326e-5
-1.183, 2.348e-5
-1.184, 2.404e-5
-1.185, 2.419e-5
-1.186, 2.390e-5
-1.187, 2.392e-5
-1.188, 2.422e-5
-1.189, 2.476e-5
-1.190, 2.497e-5
-1.191, 2.451e-5
-1.192, 2.472e-5
-1.193, 2.496e-5
-1.194, 2.549e-5
-1.195, 2.567e-5
-1.196, 2.528e-5
-1.197, 2.551e-5
-1.198, 2.571e-5
-1.199, 2.636e-5
-1.200, 2.653e-5
-1.201, 2.605e-5
-1.202, 2.637e-5
-1.203, 2.649e-5
-1.204, 2.724e-5
-1.205, 2.741e-5
-1.206, 2.691e-5
-1.207, 2.722e-5
-1.208, 2.735e-5
-1.209, 2.791e-5
-1.210, 2.832e-5
-1.211, 2.782e-5
-1.212, 2.814e-5
-1.213, 2.831e-5
-1.214, 2.887e-5
-1.215, 2.937e-5
-1.216, 2.882e-5
-1.217, 2.901e-5
-1.218, 2.942e-5
-1.219, 2.999e-5
-1.220, 3.028e-5
-1.221, 3.004e-5
-1.222, 3.020e-5
-1.223, 3.055e-5
-1.224, 3.113e-5
-1.225, 3.138e-5
-1.226, 3.128e-5
-1.227, 3.139e-5
-1.228, 3.197e-5
-1.229, 3.257e-5
-1.230, 3.280e-5
-1.231, 3.275e-5
-1.232, 3.276e-5
-1.233, 3.336e-5
-1.234, 3.412e-5
-1.235, 3.435e-5
-1.236, 3.416e-5
-1.237, 3.445e-5
-1.238, 3.488e-5
-1.239, 3.569e-5
-1.240, 3.609e-5
-1.241, 3.594e-5
-1.242, 3.632e-5
-1.243, 3.687e-5
-1.244, 3.756e-5
-1.245, 3.806e-5
-1.246, 3.795e-5
-1.247, 3.828e-5
-1.248, 3.899e-5
-1.249, 3.969e-5
-1.250, 4.028e-5
-1.251, 4.027e-5
-1.252, 4.059e-5
-1.253, 4.130e-5
-1.254, 4.227e-5
-1.255, 4.278e-5
-1.256, 4.279e-5
-1.257, 4.305e-5
-1.258, 4.406e-5
-1.259, 4.494e-5
-1.260, 4.555e-5
-1.261, 4.573e-5
-1.262, 4.601e-5
-1.263, 4.700e-5
-1.264, 4.792e-5
-1.265, 4.869e-5
-1.266, 4.895e-5
-1.267, 4.938e-5
-1.268, 5.031e-5
-1.269, 5.158e-5
-1.270, 5.227e-5
-1.271, 5.269e-5
-1.272, 5.310e-5
-1.273, 5.419e-5
-1.274, 5.540e-5
-1.275, 5.620e-5
-1.276, 5.671e-5
-1.277, 5.730e-5
-1.278, 5.844e-5
-1.279, 5.985e-5
-1.280, 6.088e-5
-1.281, 6.134e-5
-1.282, 6.208e-5
-1.283, 6.305e-5
-1.284, 6.453e-5
-1.285, 6.562e-5
-1.286, 6.638e-5
-1.287, 6.708e-5
-1.288, 6.842e-5
-1.289, 6.980e-5
-1.290, 7.112e-5
-1.291, 7.195e-5
-1.292, 7.270e-5
-1.293, 7.410e-5
-1.294, 7.579e-5
-1.295, 7.715e-5
-1.296, 7.818e-5
-1.297, 7.903e-5
-1.298, 8.058e-5
-1.299, 8.225e-5
-1.300, 8.367e-5
-1.301, 8.484e-5
-1.302, 8.586e-5
-1.303, 8.755e-5
-1.304, 8.933e-5
-1.305, 9.090e-5
-1.306, 9.222e-5
-1.307, 9.330e-5
-1.308, 9.519e-5
-1.309, 9.719e-5
-1.310, 9.877e-5
-1.311, 1.004e-4
-1.312, 1.015e-4
-1.313, 1.034e-4
-1.314, 1.056e-4
-1.315, 1.074e-4
-1.316, 1.091e-4
-1.317, 1.104e-4
-1.318, 1.125e-4
-1.319, 1.148e-4
-1.320, 1.167e-4
-1.321, 1.185e-4
-1.322, 1.201e-4
-1.323, 1.223e-4
-1.324, 1.247e-4
-1.325, 1.270e-4
-1.326, 1.287e-4
-1.327, 1.305e-4
-1.328, 1.329e-4
-1.329, 1.356e-4
-1.330, 1.377e-4
-1.331, 1.399e-4
-1.332, 1.418e-4
-1.333, 1.443e-4
-1.334, 1.471e-4
-1.335, 1.495e-4
-1.336, 1.519e-4
-1.337, 1.540e-4
-1.338, 1.565e-4
-1.339, 1.595e-4
-1.340, 1.622e-4
-1.341, 1.647e-4
-1.342, 1.670e-4
-1.343, 1.698e-4
-1.344, 1.730e-4
-1.345, 1.759e-4
-1.346, 1.787e-4
-1.347, 1.809e-4
-1.348, 1.839e-4
-1.349, 1.874e-4
-1.350, 1.903e-4
-1.351, 1.932e-4
-1.352, 1.956e-4
-1.353, 1.987e-4
-1.354, 2.024e-4
-1.355, 2.057e-4
-1.356, 2.088e-4
-1.357, 2.113e-4
-1.358, 2.149e-4
-1.359, 2.188e-4
-1.360, 2.220e-4
-1.361, 2.253e-4
-1.362, 2.283e-4
-1.363, 2.317e-4
-1.364, 2.357e-4
-1.365, 2.392e-4
-1.366, 2.428e-4
-1.367, 2.461e-4
-1.368, 2.497e-4
-1.369, 2.539e-4
-1.370, 2.579e-4
-1.371, 2.615e-4
-1.372, 2.652e-4
-1.373, 2.690e-4
-1.374, 2.730e-4
-1.375, 2.773e-4
-1.376, 2.811e-4
-1.377, 2.846e-4
-1.378, 2.889e-4
-1.379, 2.934e-4
-1.380, 2.978e-4
-1.381, 3.017e-4
-1.382, 3.052e-4
-1.383, 3.098e-4
-1.384, 3.147e-4
-1.385, 3.192e-4
-1.386, 3.236e-4
-1.387, 3.275e-4
-1.388, 3.324e-4
-1.389, 3.375e-4
-1.390, 3.423e-4
-1.391, 3.464e-4
-1.392, 3.506e-4
-1.393, 3.552e-4
-1.394, 3.605e-4
-1.395, 3.652e-4
-1.396, 3.702e-4
-1.397, 3.745e-4
-1.398, 3.796e-4
-1.399, 3.855e-4
-1.400, 3.902e-4
-1.401, 3.952e-4
-1.402, 4.002e-4
-1.403, 4.053e-4
-1.404, 4.112e-4
-1.405, 4.165e-4
-1.406, 4.215e-4
-1.407, 4.267e-4
-1.408, 4.321e-4
-1.409, 4.383e-4
-1.410, 4.444e-4
-1.411, 4.493e-4
-1.412, 4.547e-4
-1.413, 4.608e-4
-1.414, 4.668e-4
-1.415, 4.730e-4
-1.416, 4.785e-4
-1.417, 4.840e-4
-1.418, 4.897e-4
-1.419, 4.962e-4
-1.420, 5.025e-4
-1.421, 5.086e-4
-1.422, 5.147e-4
-1.423, 5.209e-4
-1.424, 5.277e-4
-1.425, 5.347e-4
-1.426, 5.404e-4
-1.427, 5.463e-4
-1.428, 5.527e-4
-1.429, 5.595e-4
-1.430, 5.663e-4
-1.431, 5.733e-4
-1.432, 5.798e-4
-1.433, 5.864e-4
-1.434, 5.935e-4
-1.435, 6.009e-4
-1.436, 6.077e-4
-1.437, 6.139e-4
-1.438, 6.217e-4
-1.439, 6.293e-4
-1.440, 6.365e-4
-1.441, 6.430e-4
-1.442, 6.503e-4
-1.443, 6.586e-4
-1.444, 6.667e-4
-1.445, 6.747e-4
-1.446, 6.810e-4
-1.447, 6.881e-4
-1.448, 6.952e-4
-1.449, 7.034e-4
-1.450, 7.128e-4
-1.451, 7.203e-4
-1.452, 7.276e-4
-1.453, 7.350e-4
-1.454, 7.441e-4
-1.455, 7.531e-4
-1.456, 7.600e-4
-1.457, 7.680e-4
-1.458, 7.763e-4
-1.459, 7.856e-4
-1.460, 7.956e-4
-1.461, 8.039e-4
-1.462, 8.115e-4
-1.463, 8.204e-4
-1.464, 8.302e-4
-1.465, 8.407e-4
-1.466, 8.489e-4
-1.467, 8.555e-4
-1.468, 8.653e-4
-1.469, 8.756e-4
-1.470, 8.842e-4
-1.471, 8.935e-4
-1.472, 9.020e-4
-1.473, 9.117e-4
-1.474, 9.226e-4
-1.475, 9.327e-4
-1.476, 9.420e-4
-1.477, 9.517e-4
-1.478, 9.609e-4
-1.479, 9.714e-4
-1.480, 9.812e-4
-1.481, 9.910e-4
-1.482, 1.002e-3
-1.483, 1.013e-3
-1.484, 1.023e-3
-1.485, 1.034e-3
-1.486, 1.045e-3
-1.487, 1.057e-3
-1.488, 1.068e-3
-1.489, 1.081e-3
-1.490, 1.091e-3
-1.491, 1.101e-3
-1.492, 1.111e-3
-1.493, 1.121e-3
-1.494, 1.134e-3
-1.495, 1.148e-3
-1.496, 1.160e-3
-1.497, 1.170e-3
-1.498, 1.181e-3
-1.499, 1.192e-3
-1.500, 1.204e-3
-1.501, 1.217e-3
-1.502, 1.229e-3
-1.503, 1.241e-3
-1.504, 1.255e-3
-1.505, 1.269e-3
-1.506, 1.283e-3
-1.507, 1.297e-3
-1.508, 1.309e-3
-1.509, 1.321e-3
-1.510, 1.333e-3
-1.511, 1.345e-3
-1.512, 1.358e-3
-1.513, 1.374e-3
-1.514, 1.388e-3
-1.515, 1.402e-3
-1.516, 1.415e-3
-1.517, 1.429e-3
-1.518, 1.444e-3
-1.519, 1.459e-3
-1.520, 1.475e-3
-1.521, 1.490e-3
-1.522, 1.503e-3
-1.523, 1.519e-3
-1.524, 1.535e-3
-1.525, 1.551e-3
-1.526, 1.566e-3
-1.527, 1.580e-3
-1.528, 1.597e-3
-1.529, 1.615e-3
-1.530, 1.633e-3
-1.531, 1.649e-3
-1.532, 1.664e-3
-1.533, 1.681e-3
-1.534, 1.700e-3
-1.535, 1.718e-3
-1.536, 1.736e-3
-1.537, 1.753e-3
-1.538, 1.768e-3
-1.539, 1.786e-3
-1.540, 1.808e-3
-1.541, 1.828e-3
-1.542, 1.844e-3
-1.543, 1.862e-3
-1.544, 1.884e-3
-1.545, 1.904e-3
-1.546, 1.924e-3
-1.547, 1.943e-3
-1.548, 1.963e-3
-1.549, 1.985e-3
-1.550, 2.005e-3
-1.551, 2.028e-3
-1.552, 2.049e-3
-1.553, 2.072e-3
-1.554, 2.095e-3
-1.555, 2.118e-3
-1.556, 2.143e-3
-1.557, 2.165e-3
-1.558, 2.185e-3
-1.559, 2.208e-3
-1.560, 2.236e-3
-1.561, 2.265e-3
-1.562, 2.293e-3
-1.563, 2.320e-3
-1.564, 2.335e-3
-1.565, 2.358e-3
-1.566, 2.381e-3
-1.567, 2.404e-3
-1.568, 2.432e-3
-1.569, 2.463e-3
-1.570, 2.492e-3
-1.571, 2.519e-3
-1.572, 2.546e-3
-1.573, 2.576e-3
-1.574, 2.607e-3
-1.575, 2.636e-3
-1.576, 2.658e-3
-1.577, 2.686e-3
-1.578, 2.712e-3
-1.579, 2.744e-3
-1.580, 2.779e-3
-1.581, 2.816e-3
-1.582, 2.843e-3
-1.583, 2.876e-3
-1.584, 2.917e-3
-1.585, 2.957e-3
-1.586, 2.987e-3
-1.587, 3.012e-3
-1.588, 3.049e-3
-1.589, 3.086e-3
-1.590, 3.116e-3
-1.591, 3.153e-3
-1.592, 3.190e-3
-1.593, 3.225e-3
-1.594, 3.257e-3
-1.595, 3.299e-3
-1.596, 3.346e-3
-1.597, 3.387e-3
-1.598, 3.426e-3
-1.599, 3.467e-3
-1.600, 3.501e-3
-1.601, 3.538e-3
-1.602, 3.578e-3
-1.603, 3.616e-3
-1.604, 3.665e-3
-1.605, 3.712e-3
-1.606, 3.749e-3
-1.607, 3.790e-3
-1.608, 3.841e-3
-1.609, 3.890e-3
-1.610, 3.937e-3
-1.611, 3.980e-3
-1.612, 4.018e-3
-1.613, 4.062e-3
-1.614, 4.116e-3
-1.615, 4.165e-3
-1.616, 4.205e-3
-1.617, 4.249e-3
-1.618, 4.293e-3
-1.619, 4.338e-3
-1.620, 4.395e-3
-1.621, 4.454e-3
-1.622, 4.498e-3
-1.623, 4.536e-3
-1.624, 4.593e-3
-1.625, 4.656e-3
-1.626, 4.713e-3
-1.627, 4.770e-3
-1.628, 4.824e-3
-1.629, 4.866e-3
-1.630, 4.906e-3
-1.631, 4.937e-3
-1.632, 4.976e-3
-1.633, 5.021e-3
-1.634, 5.069e-3
-1.635, 5.114e-3
-1.636, 5.177e-3
-1.637, 5.238e-3
-1.638, 5.273e-3
-1.639, 5.326e-3
-1.640, 5.379e-3
-1.641, 5.418e-3
-1.642, 5.479e-3
-1.643, 5.524e-3
-1.644, 5.568e-3
-1.645, 5.623e-3
-1.646, 5.665e-3
-1.647, 5.716e-3
-1.648, 5.783e-3
-1.649, 5.831e-3
-1.650, 5.886e-3
-1.651, 5.954e-3
-1.652, 6.011e-3
-1.653, 6.061e-3
-1.654, 6.124e-3
-1.655, 6.197e-3
-1.656, 6.252e-3
-1.657, 6.291e-3
-1.658, 6.331e-3
-1.659, 6.385e-3
-1.660, 6.433e-3
-1.661, 6.475e-3
-1.662, 6.495e-3
-1.663, 6.537e-3
-1.664, 6.602e-3
-1.665, 6.664e-3
-1.666, 6.723e-3
-1.667, 6.799e-3
-1.668, 6.847e-3
-1.669, 6.900e-3
-1.670, 6.948e-3
-1.671, 7.015e-3
-1.672, 7.068e-3
-1.673, 7.122e-3
-1.674, 7.175e-3
-1.675, 7.208e-3
-1.676, 7.259e-3
-1.677, 7.315e-3
-1.678, 7.357e-3
-1.679, 7.407e-3
-1.680, 7.466e-3
-1.681, 7.539e-3
-1.682, 7.612e-3
-1.683, 7.689e-3
-1.684, 7.764e-3
-1.685, 7.829e-3
-1.686, 7.862e-3
-1.687, 7.899e-3
-1.688, 7.975e-3
-1.689, 8.031e-3
-1.690, 8.074e-3
-1.691, 8.096e-3
-1.692, 8.128e-3
-1.693, 8.215e-3
-1.694, 8.276e-3
-1.695, 8.309e-3
-1.696, 8.317e-3
-1.697, 8.306e-3
-1.698, 8.368e-3
-1.699, 8.444e-3
-1.700, 8.439e-3
-1.699, 8.381e-3
-1.698, 8.321e-3
-1.697, 8.250e-3
-1.696, 8.220e-3
-1.695, 8.122e-3
-1.694, 8.030e-3
-1.693, 7.908e-3
-1.692, 7.832e-3
-1.691, 7.805e-3
-1.690, 7.809e-3
-1.689, 7.767e-3
-1.688, 7.721e-3
-1.687, 7.682e-3
-1.686, 7.587e-3
-1.685, 7.434e-3
-1.684, 7.372e-3
-1.683, 7.331e-3
-1.682, 7.310e-3
-1.681, 7.242e-3
-1.680, 7.141e-3
-1.679, 7.119e-3
-1.678, 7.066e-3
-1.677, 6.995e-3
-1.676, 6.903e-3
-1.675, 6.835e-3
-1.674, 6.808e-3
-1.673, 6.769e-3
-1.672, 6.708e-3
-1.671, 6.637e-3
-1.670, 6.576e-3
-1.669, 6.514e-3
-1.668, 6.450e-3
-1.667, 6.364e-3
-1.666, 6.281e-3
-1.665, 6.297e-3
-1.664, 6.283e-3
-1.663, 6.208e-3
-1.662, 6.143e-3
-1.661, 6.079e-3
-1.660, 5.985e-3
-1.659, 5.921e-3
-1.658, 5.895e-3
-1.657, 5.851e-3
-1.656, 5.797e-3
-1.655, 5.749e-3
-1.654, 5.707e-3
-1.653, 5.650e-3
-1.652, 5.587e-3
-1.651, 5.524e-3
-1.650, 5.457e-3
-1.649, 5.394e-3
-1.648, 5.332e-3
-1.647, 5.270e-3
-1.646, 5.234e-3
-1.645, 5.166e-3
-1.644, 5.124e-3
-1.643, 5.079e-3
-1.642, 5.027e-3
-1.641, 4.975e-3
-1.640, 4.933e-3
-1.639, 4.887e-3
-1.638, 4.842e-3
-1.637, 4.790e-3
-1.636, 4.748e-3
-1.635, 4.689e-3
-1.634, 4.639e-3
-1.633, 4.585e-3
-1.632, 4.535e-3
-1.631, 4.498e-3
-1.630, 4.456e-3
-1.629, 4.401e-3
-1.628, 4.353e-3
-1.627, 4.302e-3
-1.626, 4.261e-3
-1.625, 4.218e-3
-1.624, 4.169e-3
-1.623, 4.124e-3
-1.622, 4.080e-3
-1.621, 4.043e-3
-1.620, 3.998e-3
-1.619, 3.954e-3
-1.618, 3.972e-3
-1.617, 3.949e-3
-1.616, 3.900e-3
-1.615, 3.858e-3
-1.614, 3.811e-3
-1.613, 3.761e-3
-1.612, 3.723e-3
-1.611, 3.689e-3
-1.610, 3.648e-3
-1.609, 3.596e-3
-1.608, 3.536e-3
-1.607, 3.484e-3
-1.606, 3.459e-3
-1.605, 3.433e-3
-1.604, 3.395e-3
-1.603, 3.353e-3
-1.602, 3.313e-3
-1.601, 3.271e-3
-1.600, 3.229e-3
-1.599, 3.189e-3
-1.598, 3.152e-3
-1.597, 3.115e-3
-1.596, 3.075e-3
-1.595, 3.045e-3
-1.594, 3.005e-3
-1.593, 3.043e-3
-1.592, 3.007e-3
-1.591, 2.966e-3
-1.590, 2.936e-3
-1.589, 2.899e-3
-1.588, 2.863e-3
-1.587, 2.826e-3
-1.586, 2.791e-3
-1.585, 2.750e-3
-1.584, 2.716e-3
-1.583, 2.687e-3
-1.582, 2.658e-3
-1.581, 2.627e-3
-1.580, 2.593e-3
-1.579, 2.558e-3
-1.578, 2.535e-3
-1.577, 2.507e-3
-1.576, 2.472e-3
-1.575, 2.438e-3
-1.574, 2.407e-3
-1.573, 2.374e-3
-1.572, 2.343e-3
-1.571, 2.324e-3
-1.570, 2.296e-3
-1.569, 2.264e-3
-1.568, 2.235e-3
-1.567, 2.205e-3
-1.566, 2.179e-3
-1.565, 2.150e-3
-1.564, 2.125e-3
-1.563, 2.097e-3
-1.562, 2.070e-3
-1.561, 2.047e-3
-1.560, 2.024e-3
-1.559, 1.997e-3
-1.558, 1.970e-3
-1.557, 1.946e-3
-1.556, 1.923e-3
-1.555, 1.899e-3
-1.554, 1.875e-3
-1.553, 1.850e-3
-1.552, 1.826e-3
-1.551, 1.802e-3
-1.550, 1.780e-3
-1.549, 1.757e-3
-1.548, 1.730e-3
-1.547, 1.708e-3
-1.546, 1.690e-3
-1.545, 1.669e-3
-1.544, 1.645e-3
-1.543, 1.623e-3
-1.542, 1.603e-3
-1.541, 1.582e-3
-1.540, 1.563e-3
-1.539, 1.542e-3
-1.538, 1.523e-3
-1.537, 1.502e-3
-1.536, 1.481e-3
-1.535, 1.461e-3
-1.534, 1.443e-3
-1.533, 1.425e-3
-1.532, 1.405e-3
-1.531, 1.387e-3
-1.530, 1.370e-3
-1.529, 1.353e-3
-1.528, 1.335e-3
-1.527, 1.318e-3
-1.526, 1.299e-3
-1.525, 1.283e-3
-1.524, 1.264e-3
-1.523, 1.246e-3
-1.522, 1.229e-3
-1.521, 1.214e-3
-1.520, 1.197e-3
-1.519, 1.180e-3
-1.518, 1.165e-3
-1.517, 1.150e-3
-1.516, 1.136e-3
-1.515, 1.121e-3
-1.514, 1.107e-3
-1.513, 1.091e-3
-1.512, 1.074e-3
-1.511, 1.059e-3
-1.510, 1.045e-3
-1.509, 1.031e-3
-1.508, 1.017e-3
-1.507, 1.003e-3
-1.506, 9.885e-4
-1.505, 9.739e-4
-1.504, 9.606e-4
-1.503, 9.482e-4
-1.502, 9.353e-4
-1.501, 9.229e-4
-1.500, 9.101e-4
-1.499, 8.982e-4
-1.498, 8.847e-4
-1.497, 8.723e-4
-1.496, 8.593e-4
-1.495, 8.478e-4
-1.494, 8.372e-4
-1.493, 8.257e-4
-1.492, 8.132e-4
-1.491, 8.006e-4
-1.490, 7.890e-4
-1.489, 7.768e-4
-1.488, 7.689e-4
-1.487, 7.613e-4
-1.486, 7.501e-4
-1.485, 7.393e-4
-1.484, 7.287e-4
-1.483, 7.172e-4
-1.482, 7.074e-4
-1.481, 6.967e-4
-1.480, 6.870e-4
-1.479, 6.769e-4
-1.478, 6.661e-4
-1.477, 6.557e-4
-1.476, 6.460e-4
-1.475, 6.366e-4
-1.474, 6.273e-4
-1.473, 6.172e-4
-1.472, 6.081e-4
-1.471, 5.992e-4
-1.470, 5.909e-4
-1.469, 5.820e-4
-1.468, 5.725e-4
-1.467, 5.640e-4
-1.466, 5.556e-4
-1.465, 5.469e-4
-1.464, 5.388e-4
-1.463, 5.305e-4
-1.462, 5.219e-4
-1.461, 5.139e-4
-1.460, 5.060e-4
-1.459, 4.984e-4
-1.458, 4.907e-4
-1.457, 4.830e-4
-1.456, 4.755e-4
-1.455, 4.685e-4
-1.454, 4.611e-4
-1.453, 4.534e-4
-1.452, 4.464e-4
-1.451, 4.394e-4
-1.450, 4.328e-4
-1.449, 4.257e-4
-1.448, 4.188e-4
-1.447, 4.123e-4
-1.446, 4.057e-4
-1.445, 3.996e-4
-1.444, 3.931e-4
-1.443, 3.865e-4
-1.442, 3.802e-4
-1.441, 3.738e-4
-1.440, 3.683e-4
-1.439, 3.625e-4
-1.438, 3.562e-4
-1.437, 3.500e-4
-1.436, 3.442e-4
-1.435, 3.390e-4
-1.434, 3.334e-4
-1.433, 3.274e-4
-1.432, 3.222e-4
-1.431, 3.167e-4
-1.430, 3.116e-4
-1.429, 3.068e-4
-1.428, 3.013e-4
-1.427, 2.959e-4
-1.426, 2.911e-4
-1.425, 2.865e-4
-1.424, 2.815e-4
-1.423, 2.765e-4
-1.422, 2.717e-4
-1.421, 2.670e-4
-1.420, 2.626e-4
-1.419, 2.582e-4
-1.418, 2.532e-4
-1.417, 2.487e-4
-1.416, 2.445e-4
-1.415, 2.404e-4
-1.414, 2.364e-4
-1.413, 2.317e-4
-1.412, 2.274e-4
-1.411, 2.234e-4
-1.410, 2.199e-4
-1.409, 2.160e-4
-1.408, 2.116e-4
-1.407, 2.077e-4
-1.406, 2.039e-4
-1.405, 2.007e-4
-1.404, 1.970e-4
-1.403, 1.929e-4
-1.402, 1.892e-4
-1.401, 1.856e-4
-1.400, 1.829e-4
-1.399, 1.795e-4
-1.398, 1.753e-4
-1.397, 1.722e-4
-1.396, 1.691e-4
-1.395, 1.662e-4
-1.394, 1.632e-4
-1.393, 1.594e-4
-1.392, 1.564e-4
-1.391, 1.534e-4
-1.390, 1.508e-4
-1.389, 1.481e-4
-1.388, 1.447e-4
-1.387, 1.420e-4
-1.386, 1.394e-4
-1.385, 1.367e-4
-1.384, 1.343e-4
-1.383, 1.311e-4
-1.382, 1.285e-4
-1.381, 1.260e-4
-1.380, 1.239e-4
-1.379, 1.213e-4
-1.378, 1.184e-4
-1.377, 1.159e-4
-1.376, 1.139e-4
-1.375, 1.118e-4
-1.374, 1.095e-4
-1.373, 1.068e-4
-1.372, 1.046e-4
-1.371, 1.023e-4
-1.370, 1.006e-4
-1.369, 9.861e-5
-1.368, 9.603e-5
-1.367, 9.391e-5
-1.366, 9.196e-5
-1.365, 9.032e-5
-1.364, 8.852e-5
-1.363, 8.608e-5
-1.362, 8.411e-5
-1.361, 8.230e-5
-1.360, 8.101e-5
-1.359, 7.924e-5
-1.358, 7.692e-5
-1.357, 7.513e-5
-1.356, 7.350e-5
-1.355, 7.214e-5
-1.354, 7.071e-5
-1.353, 6.845e-5
-1.352, 6.686e-5
-1.351, 6.536e-5
-1.350, 6.415e-5
-1.349, 6.279e-5
-1.348, 6.093e-5
-1.347, 5.919e-5
-1.346, 5.791e-5
-1.345, 5.688e-5
-1.344, 5.563e-5
-1.343, 5.371e-5
-1.342, 5.227e-5
-1.341, 5.108e-5
-1.340, 5.023e-5
-1.339, 4.893e-5
-1.338, 4.732e-5
-1.337, 4.586e-5
-1.336, 4.479e-5
-1.335, 4.412e-5
-1.334, 4.300e-5
-1.333, 4.131e-5
-1.332, 4.007e-5
-1.331, 3.897e-5
-1.330, 3.843e-5
-1.329, 3.734e-5
-1.328, 3.602e-5
-1.327, 3.478e-5
-1.326, 3.371e-5
-1.325, 3.330e-5
-1.324, 3.236e-5
-1.323, 3.095e-5
-1.322, 2.998e-5
-1.321, 2.902e-5
-1.320, 2.867e-5
-1.319, 2.778e-5
-1.318, 2.640e-5
-1.317, 2.548e-5
-1.316, 2.475e-5
-1.315, 2.436e-5
-1.314, 2.364e-5
-1.313, 2.234e-5
-1.312, 2.148e-5
-1.311, 2.091e-5
-1.310, 2.047e-5
-1.309, 1.990e-5
-1.308, 1.862e-5
-1.307, 1.781e-5
-1.306, 1.739e-5
-1.305, 1.698e-5
-1.304, 1.650e-5
-1.303, 1.536e-5
-1.302, 1.459e-5
-1.301, 1.409e-5
-1.300, 1.400e-5
-1.299, 1.333e-5
-1.298, 1.236e-5
-1.297, 1.158e-5
-1.296, 1.120e-5
-1.295, 1.106e-5
-1.294, 1.049e-5
-1.293, 9.588e-6
-1.292, 9.014e-6
-1.291, 8.545e-6
-1.290, 8.448e-6
-1.289, 8.076e-6
-1.288, 7.206e-6
-1.287, 6.444e-6
-1.286, 6.118e-6
-1.285, 6.127e-6
-1.284, 5.770e-6
-1.283, 4.976e-6
-1.282, 4.332e-6
-1.281, 4.001e-6
-1.280, 4.022e-6
-1.279, 3.727e-6
-1.278, 2.845e-6
-1.277, 2.339e-6
-1.276, 2.168e-6
-1.275, 2.183e-6
-1.274, 1.903e-6
-1.273, 1.066e-6
-1.272, 6.322e-7
-1.271, 5.109e-7
-1.270, 4.260e-7
-1.269, 3.333e-7
-1.268, -4.175e-7
-1.267, -1.005e-6
-1.266, -1.035e-6
-1.265, -9.473e-7
-1.264, -1.187e-6
-1.263, -1.800e-6
-1.262, -2.455e-6
-1.261, -2.421e-6
-1.260, -2.318e-6
-1.259, -2.474e-6
-1.258, -3.123e-6
-1.257, -3.681e-6
-1.256, -3.584e-6
-1.255, -3.527e-6
-1.254, -3.707e-6
-1.253, -4.291e-6
-1.252, -4.755e-6
-1.251, -4.842e-6
-1.250, -4.567e-6
-1.249, -4.746e-6
-1.248, -5.366e-6
-1.247, -5.782e-6
-1.246, -5.759e-6
-1.245, -5.579e-6
-1.244, -5.678e-6
-1.243, -6.320e-6
-1.242, -6.684e-6
-1.241, -6.710e-6
-1.240, -6.365e-6
-1.239, -6.496e-6
-1.238, -7.196e-6
-1.237, -7.491e-6
-1.236, -7.398e-6
-1.235, -7.335e-6
-1.234, -7.300e-6
-1.233, -7.866e-6
-1.232, -8.246e-6
-1.231, -8.190e-6
-1.230, -8.026e-6
-1.229, -8.293e-6
-1.228, -8.657e-6
-1.227, -9.085e-6
-1.226, -8.924e-6
-1.225, -8.774e-6
-1.224, -8.685e-6
-1.223, -9.220e-6
-1.222, -9.627e-6
-1.221, -9.496e-6
-1.220, -9.179e-6
-1.219, -9.364e-6
-1.218, -9.758e-6
-1.217, -1.022e-5
-1.216, -1.007e-5
-1.215, -9.812e-6
-1.214, -9.836e-6
-1.213, -1.032e-5
-1.212, -1.067e-5
-1.211, -1.065e-5
-1.210, -1.030e-5
-1.209, -1.034e-5
-1.208, -1.075e-5
-1.207, -1.110e-5
-1.206, -1.112e-5
-1.205, -1.069e-5
-1.204, -1.076e-5
-1.203, -1.128e-5
-1.202, -1.160e-5
-1.201, -1.182e-5
-1.200, -1.138e-5
-1.199, -1.136e-5
-1.198, -1.182e-5
-1.197, -1.215e-5
-1.196, -1.199e-5
-1.195, -1.159e-5
-1.194, -1.158e-5
-1.193, -1.220e-5
-1.192, -1.245e-5
-1.191, -1.224e-5
-1.190, -1.214e-5
-1.189, -1.195e-5
-1.188, -1.244e-5
-1.187, -1.285e-5
-1.186, -1.271e-5
-1.185, -1.238e-5
-1.184, -1.236e-5
-1.183, -1.285e-5
-1.182, -1.326e-5
-1.181, -1.301e-5
-1.180, -1.271e-5
-1.179, -1.278e-5
-1.178, -1.320e-5
-1.177, -1.367e-5
-1.176, -1.332e-5
-1.175, -1.314e-5
-1.174, -1.319e-5
-1.173, -1.352e-5
-1.172, -1.389e-5
-1.171, -1.382e-5
-1.170, -1.341e-5
-1.169, -1.351e-5
-1.168, -1.400e-5
-1.167, -1.424e-5
-1.166, -1.414e-5
-1.165, -1.382e-5
-1.164, -1.375e-5
-1.163, -1.441e-5
-1.162, -1.462e-5
-1.161, -1.451e-5
-1.160, -1.419e-5
-1.159, -1.415e-5
-1.158, -1.466e-5
-1.157, -1.498e-5
-1.156, -1.482e-5
-1.155, -1.455e-5
-1.154, -1.451e-5
-1.153, -1.505e-5
-1.152, -1.535e-5
-1.151, -1.513e-5
-1.150, -1.494e-5
-1.149, -1.482e-5
-1.148, -1.539e-5
-1.147, -1.573e-5
-1.146, -1.553e-5
-1.145, -1.520e-5
-1.144, -1.522e-5
-1.143, -1.580e-5
-1.142, -1.607e-5
-1.141, -1.585e-5
-1.140, -1.557e-5
-1.139, -1.568e-5
-1.138, -1.606e-5
-1.137, -1.643e-5
-1.136, -1.617e-5
-1.135, -1.590e-5
-1.134, -1.605e-5
-1.133, -1.641e-5
-1.132, -1.671e-5
-1.131, -1.663e-5
-1.130, -1.625e-5
-1.129, -1.626e-5
-1.128, -1.677e-5
-1.127, -1.709e-5
-1.126, -1.694e-5
-1.125, -1.652e-5
-1.124, -1.659e-5
-1.123, -1.709e-5
-1.122, -1.732e-5
-1.121, -1.734e-5
-1.120, -1.693e-5
-1.119, -1.683e-5
-1.118, -1.746e-5
-1.117, -1.765e-5
-1.116, -1.746e-5
-1.115, -1.728e-5
-1.114, -1.718e-5
-1.113, -1.768e-5
-1.112, -1.801e-5
-1.111, -1.784e-5
-1.110, -1.755e-5
-1.109, -1.743e-5
-1.108, -1.796e-5
-1.107, -1.830e-5
-1.106, -1.812e-5
-1.105, -1.783e-5
-1.104, -1.771e-5
-1.103, -1.820e-5
-1.102, -1.855e-5
-1.101, -1.836e-5
-1.100, -1.805e-5
-1.099, -1.804e-5
-1.098, -1.848e-5
-1.097, -1.883e-5
-1.096, -1.862e-5
-1.095, -1.830e-5
-1.094, -1.829e-5
-1.093, -1.876e-5
-1.092, -1.901e-5
-1.091, -1.893e-5
-1.090, -1.855e-5
-1.089, -1.860e-5
-1.088, -1.900e-5
-1.087, -1.933e-5
-1.086, -1.923e-5
-1.085, -1.886e-5
-1.084, -1.873e-5
-1.083, -1.935e-5
-1.082, -1.957e-5
-1.081, -1.944e-5
-1.080, -1.907e-5
-1.079, -1.902e-5
-1.078, -1.958e-5
-1.077, -1.987e-5
-1.076, -1.976e-5
-1.075, -1.940e-5
-1.074, -1.937e-5
-1.073, -1.993e-5
-1.072, -2.008e-5
-1.071, -1.999e-5
-1.070, -1.970e-5
-1.069, -1.963e-5
-1.068, -2.012e-5
-1.067, -2.058e-5
-1.066, -2.036e-5
-1.065, -2.001e-5
-1.064, -1.996e-5
-1.063, -2.040e-5
-1.062, -2.080e-5
-1.061, -2.062e-5
-1.060, -2.027e-5
-1.059, -2.033e-5
-1.058, -2.078e-5
-1.057, -2.115e-5
-1.056, -2.090e-5
-1.055, -2.061e-5
-1.054, -2.070e-5
-1.053, -2.113e-5
-1.052, -2.139e-5
-1.051, -2.154e-5
-1.050, -2.102e-5
-1.049, -2.107e-5
-1.048, -2.158e-5
-1.047, -2.188e-5
-1.046, -2.177e-5
-1.045, -2.143e-5
-1.044, -2.136e-5
-1.043, -2.202e-5
-1.042, -2.220e-5
-1.041, -2.223e-5
-1.040, -2.183e-5
-1.039, -2.182e-5
-1.038, -2.253e-5
-1.037, -2.265e-5
-1.036, -2.263e-5
-1.035, -2.241e-5
-1.034, -2.233e-5
-1.033, -2.298e-5
-1.032, -2.322e-5
-1.031, -2.318e-5
-1.030, -2.301e-5
-1.029, -2.292e-5
-1.028, -2.346e-5
-1.027, -2.387e-5
-1.026, -2.382e-5
-1.025, -2.354e-5
-1.024, -2.364e-5
-1.023, -2.423e-5
-1.022, -2.455e-5
-1.021, -2.454e-5
-1.020, -2.425e-5
-1.019, -2.434e-5
-1.018, -2.492e-5
-1.017, -2.534e-5
-1.016, -2.528e-5
-1.015, -2.498e-5
-1.014, -2.509e-5
-1.013, -2.575e-5
-1.012, -2.610e-5
-1.011, -2.609e-5
-1.010, -2.590e-5
-1.009, -2.598e-5
-1.008, -2.663e-5
-1.007, -2.692e-5
-1.006, -2.713e-5
-1.005, -2.676e-5
-1.004, -2.690e-5
-1.003, -2.772e-5
-1.002, -2.794e-5
-1.001, -2.818e-5
-1.000, -1.533e-5
-1.001, -1.060e-5
-1.002, -9.254e-6
-1.003, -7.937e-6
-1.004, -6.608e-6
-1.005, -5.074e-6
-1.006, -4.050e-6
-1.007, -3.695e-6
-1.008, -3.055e-6
-1.009, -2.218e-6
-1.010, -1.127e-6
-1.011, -4.412e-7
-1.012, -3.583e-7
-1.013, 5.604e-8
-1.014, 5.641e-7
-1.015, 1.611e-6
-1.016, 1.963e-6
-1.017, 1.862e-6
-1.018, 2.309e-6
-1.019, 2.635e-6
-1.020, 3.475e-6
-1.021, 3.839e-6
-1.022, 3.602e-6
-1.023, 3.875e-6
-1.024, 4.244e-6
-1.025, 4.930e-6
-1.026, 5.246e-6
-1.027, 4.953e-6
-1.028, 5.119e-6
-1.029, 5.399e-6
-1.030, 6.012e-6
-1.031, 6.396e-6
-1.032, 5.931e-6
-1.033, 5.972e-6
-1.034, 6.345e-6
-1.035, 6.888e-6
-1.036, 7.209e-6
-1.037, 6.782e-6
-1.038, 6.801e-6
-1.039, 7.047e-6
-1.040, 7.636e-6
-1.041, 7.770e-6
-1.042, 7.405e-6
-1.043, 7.441e-6
-1.044, 7.727e-6
-1.045, 8.169e-6
-1.046, 8.320e-6
-1.047, 7.980e-6
-1.048, 7.980e-6
-1.049, 8.067e-6
-1.050, 8.694e-6
-1.051, 8.807e-6
-1.052, 8.294e-6
-1.053, 8.399e-6
-1.054, 8.545e-6
-1.055, 9.105e-6
-1.056, 9.149e-6
-1.057, 8.665e-6
-1.058, 8.783e-6
-1.059, 8.859e-6
-1.060, 9.399e-6
-1.061, 9.553e-6
-1.062, 9.015e-6
-1.063, 9.123e-6
-1.064, 9.209e-6
-1.065, 9.680e-6
-1.066, 9.815e-6
-1.067, 9.298e-6
-1.068, 9.386e-6
-1.069, 9.410e-6
-1.070, 9.976e-6
-1.071, 1.011e-5
-1.072, 9.561e-6
-1.073, 9.590e-6
-1.074, 9.765e-6
-1.075, 1.022e-5
-1.076, 1.028e-5
-1.077, 9.840e-6
-1.078, 9.827e-6
-1.079, 1.002e-5
-1.080, 1.042e-5
-1.081, 1.050e-5
-1.082, 1.003e-5
-1.083, 1.008e-5
-1.084, 1.016e-5
-1.085, 1.063e-5
-1.086, 1.075e-5
-1.087, 1.028e-5
-1.088, 1.020e-5
-1.089, 1.034e-5
-1.090, 1.090e-5
-1.091, 1.086e-5
-1.092, 1.036e-5
-1.093, 1.046e-5
-1.094, 1.054e-5
-1.095, 1.104e-5
-1.096, 1.107e-5
-1.097, 1.055e-5
-1.098, 1.065e-5
-1.099, 1.064e-5
-1.100, 1.126e-5
-1.101, 1.129e-5
-1.102, 1.071e-5
-1.103, 1.088e-5
-1.104, 1.087e-5
-1.105, 1.133e-5
-1.106, 1.152e-5
-1.107, 1.085e-5
-1.108, 1.105e-5
-1.109, 1.115e-5
-1.110, 1.156e-5
-1.111, 1.169e-5
-1.112, 1.116e-5
-1.113, 1.110e-5
-1.114, 1.138e-5
-1.115, 1.174e-5
-1.116, 1.189e-5
-1.117, 1.135e-5
-1.118, 1.135e-5
-1.119, 1.161e-5
-1.120, 1.186e-5
-1.121, 1.195e-5
-1.122, 1.160e-5
-1.123, 1.150e-5
-1.124, 1.177e-5
-1.125, 1.212e-5
-1.126, 1.225e-5
-1.127, 1.177e-5
-1.128, 1.174e-5
-1.129, 1.192e-5
-1.130, 1.234e-5
-1.131, 1.234e-5
-1.132, 1.198e-5
-1.133, 1.203e-5
-1.134, 1.211e-5
-1.135, 1.260e-5
-1.136, 1.263e-5
-1.137, 1.212e-5
-1.138, 1.221e-5
-1.139, 1.235e-5
-1.140, 1.271e-5
-1.141, 1.282e-5
-1.142, 1.245e-5
-1.143, 1.239e-5
-1.144, 1.252e-5
-1.145, 1.291e-5
-1.146, 1.309e-5
-1.147, 1.255e-5
-1.148, 1.251e-5
-1.149, 1.277e-5
-1.150, 1.309e-5
-1.151, 1.329e-5
-1.152, 1.282e-5
-1.153, 1.279e-5
-1.154, 1.300e-5
-1.155, 1.337e-5
-1.156, 1.351e-5
-1.157, 1.305e-5
-1.158, 1.300e-5
-1.159, 1.328e-5
-1.160, 1.356e-5
-1.161, 1.373e-5
-1.162, 1.334e-5
-1.163, 1.322e-5
-1.164, 1.350e-5
-1.165, 1.387e-5
-1.166, 1.397e-5
-1.167, 1.366e-5
-1.168, 1.347e-5
-1.169, 1.379e-5
-1.170, 1.411e-5
-1.171, 1.422e-5
-1.172, 1.385e-5
-1.173, 1.386e-5
-1.174, 1.410e-5
-1.175, 1.431e-5
-1.176, 1.451e-5
-1.177, 1.415e-5
-1.178, 1.417e-5
-1.179, 1.433e-5
-1.180, 1.476e-5
-1.181, 1.482e-5
-1.182, 1.439e-5
-1.183, 1.449e-5
-1.184, 1.465e-5
-1.185, 1.498e-5
-1.186, 1.518e-5
-1.187, 1.476e-5
-1.188, 1.482e-5
-1.189, 1.504e-5
-1.190, 1.529e-5
-1.191, 1.557e-5
-1.192, 1.513e-5
-1.193, 1.508e-5
-1.194, 1.542e-5
-1.195, 1.579e-5
-1.196, 1.592e-5
-1.197, 1.553e-5
-1.198, 1.559e-5
-1.199, 1.584e-5
-1.200, 1.611e-5
-1.201, 1.638e-5
-1.202, 1.604e-5
-1.203, 1.607e-5
-1.204, 1.630e-5
-1.205, 1.677e-5
-1.206, 1.680e-5
-1.207, 1.658e-5
-1.208, 1.658e-5
-1.209, 1.680e-5
-1.210, 1.720e-5
-1.211, 1.744e-5
-1.212, 1.714e-5
-1.213, 1.711e-5
-1.214, 1.744e-5
-1.215, 1.788e-5
-1.216, 1.799e-5
-1.217, 1.774e-5
-1.218, 1.786e-5
-1.219, 1.810e-5
-1.220, 1.862e-5
-1.221, 1.876e-5
-1.222, 1.845e-5
-1.223, 1.864e-5
-1.224, 1.894e-5
-1.225, 1.934e-5
-1.226, 1.970e-5
-1.227, 1.943e-5
-1.228, 1.955e-5
-1.229, 1.997e-5
-1.230, 2.033e-5
-1.231, 2.063e-5
-1.232, 2.032e-5
-1.233, 2.045e-5
-1.234, 2.098e-5
-1.235, 2.138e-5
-1.236, 2.160e-5
-1.237, 2.149e-5
-1.238, 2.161e-5
-1.239, 2.202e-5
-1.240, 2.259e-5
-1.241, 2.288e-5
-1.242, 2.275e-5
-1.243, 2.282e-5
-1.244, 2.339e-5
-1.245, 2.396e-5
-1.246, 2.424e-5
-1.247, 2.414e-5
-1.248, 2.427e-5
-1.249, 2.483e-5
-1.250, 2.546e-5
-1.251, 2.577e-5
-1.252, 2.573e-5
-1.253, 2.598e-5
-1.254, 2.652e-5
-1.255, 2.728e-5
-1.256, 2.766e-5
-1.257, 2.756e-5
-1.258, 2.781e-5
-1.259, 2.853e-5
-1.260, 2.919e-5
-1.261, 2.965e-5
-1.262, 2.970e-5
-1.263, 3.005e-5
-1.264, 3.075e-5
-1.265, 3.143e-5
-1.266, 3.208e-5
-1.267, 3.209e-5
-1.268, 3.251e-5
-1.269, 3.332e-5
-1.270, 3.401e-5
-1.271, 3.474e-5
-1.272, 3.473e-5
-1.273, 3.512e-5
-1.274, 3.614e-5
-1.275, 3.684e-5
-1.276, 3.766e-5
-1.277, 3.781e-5
-1.278, 3.821e-5
-1.279, 3.920e-5
-1.280, 4.019e-5
-1.281, 4.085e-5
-1.282, 4.120e-5
-1.283, 4.170e-5
-1.284, 4.264e-5
-1.285, 4.371e-5
-1.286, 4.440e-5
-1.287, 4.485e-5
-1.288, 4.543e-5
-1.289, 4.651e-5
-1.290, 4.771e-5
-1.291, 4.852e-5
-1.292, 4.906e-5
-1.293, 4.963e-5
-1.294, 5.079e-5
-1.295, 5.212e-5
-1.296, 5.298e-5
-1.297, 5.361e-5
-1.298, 5.443e-5
-1.299, 5.573e-5
-1.300, 5.699e-5
-1.301, 5.809e-5
-1.302, 5.877e-5
-1.303, 5.967e-5
-1.304, 6.096e-5
-1.305, 6.242e-5
-1.306, 6.372e-5
-1.307, 6.436e-5
-1.308, 6.541e-5
-1.309, 6.702e-5
-1.310, 6.841e-5
-1.311, 6.980e-5
-1.312, 7.076e-5
-1.313, 7.176e-5
-1.314, 7.354e-5
-1.315, 7.508e-5
-1.316, 7.650e-5
-1.317, 7.769e-5
-1.318, 7.887e-5
-1.319, 8.053e-5
-1.320, 8.229e-5
-1.321, 8.396e-5
-1.322, 8.514e-5
-1.323, 8.648e-5
-1.324, 8.842e-5
-1.325, 9.029e-5
-1.326, 9.198e-5
-1.327, 9.335e-5
-1.328, 9.489e-5
-1.329, 9.687e-5
-1.330, 9.911e-5
-1.331, 1.008e-4
-1.332, 1.023e-4
-1.333, 1.041e-4
-1.334, 1.060e-4
-1.335, 1.085e-4
-1.336, 1.104e-4
-1.337, 1.121e-4
-1.338, 1.138e-4
-1.339, 1.161e-4
-1.340, 1.186e-4
-1.341, 1.207e-4
-1.342, 1.225e-4
-1.343, 1.245e-4
-1.344, 1.270e-4
-1.345, 1.297e-4
-1.346, 1.317e-4
-1.347, 1.337e-4
-1.348, 1.358e-4
-1.349, 1.385e-4
-1.350, 1.413e-4
-1.351, 1.438e-4
-1.352, 1.459e-4
-1.353, 1.482e-4
-1.354, 1.511e-4
-1.355, 1.539e-4
-1.356, 1.565e-4
-1.357, 1.589e-4
-1.358, 1.613e-4
-1.359, 1.644e-4
-1.360, 1.674e-4
-1.361, 1.702e-4
-1.362, 1.729e-4
-1.363, 1.752e-4
-1.364, 1.783e-4
-1.365, 1.817e-4
-1.366, 1.846e-4
-1.367, 1.875e-4
-1.368, 1.903e-4
-1.369, 1.935e-4
-1.370, 1.970e-4
-1.371, 2.003e-4
-1.372, 2.031e-4
-1.373, 2.061e-4
-1.374, 2.095e-4
-1.375, 2.131e-4
-1.376, 2.166e-4
-1.377, 2.197e-4
-1.378, 2.227e-4
-1.379, 2.263e-4
-1.380, 2.302e-4
-1.381, 2.337e-4
-1.382, 2.372e-4
-1.383, 2.405e-4
-1.384, 2.444e-4
-1.385, 2.483e-4
-1.386, 2.522e-4
-1.387, 2.556e-4
-1.388, 2.592e-4
-1.389, 2.633e-4
-1.390, 2.673e-4
-1.391, 2.713e-4
-1.392, 2.749e-4
-1.393, 2.787e-4
-1.394, 2.828e-4
-1.395, 2.871e-4
-1.396, 2.911e-4
-1.397, 2.951e-4
-1.398, 2.991e-4
-1.399, 3.035e-4
-1.400, 3.080e-4
-1.401, 3.125e-4
-1.402, 3.165e-4
-1.403, 3.207e-4
-1.404, 3.253e-4
-1.405, 3.298e-4
-1.406, 3.344e-4
-1.407, 3.388e-4
-1.408, 3.431e-4
-1.409, 3.480e-4
-1.410, 3.530e-4
-1.411, 3.576e-4
-1.412, 3.622e-4
-1.413, 3.666e-4
-1.414, 3.719e-4
-1.415, 3.774e-4
-1.416, 3.822e-4
-1.417, 3.870e-4
-1.418, 3.914e-4
-1.419, 3.967e-4
-1.420, 4.020e-4
-1.421, 4.071e-4
-1.422, 4.120e-4
-1.423, 4.169e-4
-1.424, 4.225e-4
-1.425, 4.280e-4
-1.426, 4.335e-4
-1.427, 4.388e-4
-1.428, 4.441e-4
-1.429, 4.495e-4
-1.430, 4.554e-4
-1.431, 4.612e-4
-1.432, 4.664e-4
-1.433, 4.718e-4
-1.434, 4.781e-4
-1.435, 4.840e-4
-1.436, 4.899e-4
-1.437, 4.955e-4
-1.438, 5.014e-4
-1.439, 5.078e-4
-1.440, 5.141e-4
-1.441, 5.202e-4
-1.442, 5.263e-4
-1.443, 5.324e-4
-1.444, 5.387e-4
-1.445, 5.451e-4
-1.446, 5.517e-4
-1.447, 5.576e-4
-1.448, 5.634e-4
-1.449, 5.703e-4
-1.450, 5.766e-4
-1.451, 5.830e-4
-1.452, 5.902e-4
-1.453, 5.966e-4
-1.454, 6.034e-4
-1.455, 6.106e-4
-1.456, 6.180e-4
-1.457, 6.244e-4
-1.458, 6.313e-4
-1.459, 6.385e-4
-1.460, 6.457e-4
-1.461, 6.526e-4
-1.462, 6.599e-4
-1.463, 6.676e-4
-1.464, 6.752e-4
-1.465, 6.826e-4
-1.466, 6.904e-4
-1.467, 6.975e-4
-1.468, 7.050e-4
-1.469, 7.127e-4
-1.470, 7.210e-4
-1.471, 7.291e-4
-1.472, 7.362e-4
-1.473, 7.445e-4
-1.474, 7.529e-4
-1.475, 7.611e-4
-1.476, 7.692e-4
-1.477, 7.773e-4
-1.478, 7.862e-4
-1.479, 7.949e-4
-1.480, 8.025e-4
-1.481, 8.120e-4
-1.482, 8.197e-4
-1.483, 8.279e-4
-1.484, 8.377e-4
-1.485, 8.475e-4
-1.486, 8.569e-4
-1.487, 8.664e-4
-1.488, 8.756e-4
-1.489, 8.845e-4
-1.490, 8.938e-4
-1.491, 9.030e-4
-1.492, 9.120e-4
-1.493, 9.215e-4
-1.494, 9.312e-4
-1.495, 9.411e-4
-1.496, 9.505e-4
-1.497, 9.605e-4
-1.498, 9.695e-4
-1.499, 9.792e-4
-1.500, 9.894e-4
-1.501, 1.001e-3
-1.502, 1.012e-3
-1.503, 1.021e-3
-1.504, 1.032e-3
-1.505, 1.044e-3
-1.506, 1.055e-3
-1.507, 1.065e-3
-1.508, 1.076e-3
-1.509, 1.087e-3
-1.510, 1.098e-3
-1.511, 1.110e-3
-1.512, 1.121e-3
-1.513, 1.132e-3
-1.514, 1.144e-3
-1.515, 1.153e-3
-1.516, 1.166e-3
-1.517, 1.180e-3
-1.518, 1.191e-3
-1.519, 1.203e-3
-1.520, 1.216e-3
-1.521, 1.231e-3
-1.522, 1.245e-3
-1.523, 1.258e-3
-1.524, 1.272e-3
-1.525, 1.281e-3
-1.526, 1.293e-3
-1.527, 1.307e-3
-1.528, 1.320e-3
-1.529, 1.334e-3
-1.530, 1.347e-3
-1.531, 1.361e-3
-1.532, 1.375e-3
-1.533, 1.390e-3
-1.534, 1.404e-3
-1.535, 1.420e-3
-1.536, 1.436e-3
-1.537, 1.450e-3
-1.538, 1.466e-3
-1.539, 1.483e-3
-1.540, 1.501e-3
-1.541, 1.514e-3
-1.542, 1.529e-3
-1.543, 1.546e-3
-1.544, 1.562e-3
-1.545, 1.577e-3
-1.546, 1.592e-3
-1.547, 1.608e-3
-1.548, 1.624e-3
-1.549, 1.641e-3
-1.550, 1.662e-3
-1.551, 1.680e-3
-1.552, 1.696e-3
-1.553, 1.714e-3
-1.554, 1.736e-3
-1.555, 1.756e-3
-1.556, 1.774e-3
-1.557, 1.789e-3
-1.558, 1.809e-3
-1.559, 1.832e-3
-1.560, 1.851e-3
-1.561, 1.869e-3
-1.562, 1.889e-3
-1.563, 1.911e-3
-1.564, 1.932e-3
-1.565, 1.953e-3
-1.566, 1.977e-3
-1.567, 1.998e-3
-1.568, 2.019e-3
-1.569, 2.039e-3
-1.570, 2.062e-3
-1.571, 2.090e-3
-1.572, 2.115e-3
-1.573, 2.136e-3
-1.574, 2.159e-3
-1.575, 2.186e-3
-1.576, 2.214e-3
-1.577, 2.239e-3
-1.578, 2.263e-3
-1.579, 2.289e-3
-1.580, 2.313e-3
-1.581, 2.337e-3
-1.582, 2.365e-3
-1.583, 2.392e-3
-1.584, 2.422e-3
-1.585, 2.452e-3
-1.586, 2.481e-3
-1.587, 2.511e-3
-1.588, 2.542e-3
-1.589, 2.566e-3
-1.590, 2.596e-3
-1.591, 2.625e-3
-1.592, 2.652e-3
-1.593, 2.686e-3
-1.594, 2.722e-3
-1.595, 2.752e-3
-1.596, 2.786e-3
-1.597, 2.820e-3
-1.598, 2.852e-3
-1.599, 2.888e-3
-1.600, 2.917e-3
-1.601, 2.948e-3
-1.602, 2.986e-3
-1.603, 3.021e-3
-1.604, 3.056e-3
-1.605, 3.095e-3
-1.606, 3.132e-3
-1.607, 3.173e-3
-1.608, 3.212e-3
-1.609, 3.248e-3
-1.610, 3.287e-3
-1.611, 3.327e-3
-1.612, 3.364e-3
-1.613, 3.407e-3
-1.614, 3.451e-3
-1.615, 3.498e-3
-1.616, 3.544e-3
-1.617, 3.590e-3
-1.618, 3.615e-3
-1.619, 3.645e-3
-1.620, 3.679e-3
-1.621, 3.723e-3
-1.622, 3.770e-3
-1.623, 3.813e-3
-1.624, 3.858e-3
-1.625, 3.913e-3
-1.626, 3.977e-3
-1.627, 4.037e-3
-1.628, 4.067e-3
-1.629, 4.098e-3
-1.630, 4.143e-3
-1.631, 4.185e-3
-1.632, 4.228e-3
-1.633, 4.277e-3
-1.634, 4.332e-3
-1.635, 4.374e-3
-1.636, 4.422e-3
-1.637, 4.478e-3
-1.638, 4.528e-3
-1.639, 4.580e-3
-1.640, 4.646e-3
-1.641, 4.708e-3
-1.642, 4.747e-3
-1.643, 4.787e-3
-1.644, 4.841e-3
-1.645, 4.893e-3
-1.646, 4.932e-3
-1.647, 4.966e-3
-1.648, 5.007e-3
-1.649, 5.069e-3
-1.650, 5.132e-3
-1.651, 5.189e-3
-1.652, 5.233e-3
-1.653, 5.284e-3
-1.654, 5.346e-3
-1.655, 5.410e-3
-1.656, 5.464e-3
-1.657, 5.519e-3
-1.658, 5.588e-3
-1.659, 5.642e-3
-1.660, 5.680e-3
-1.661, 5.720e-3
-1.662, 5.766e-3
-1.663, 5.793e-3
-1.664, 5.824e-3
-1.665, 5.883e-3
-1.666, 5.939e-3
-1.667, 5.997e-3
-1.668, 6.044e-3
-1.669, 6.103e-3
-1.670, 6.155e-3
-1.671, 6.200e-3
-1.672, 6.259e-3
-1.673, 6.319e-3
-1.674, 6.357e-3
-1.675, 6.399e-3
-1.676, 6.459e-3
-1.677, 6.527e-3
-1.678, 6.568e-3
-1.679, 6.592e-3
-1.680, 6.627e-3
-1.681, 6.675e-3
-1.682, 6.700e-3
-1.683, 6.726e-3
-1.684, 6.782e-3
-1.685, 6.846e-3
-1.686, 6.903e-3
-1.687, 6.947e-3
-1.688, 6.998e-3
-1.689, 7.041e-3
-1.690, 7.106e-3
-1.691, 7.144e-3
-1.692, 7.167e-3
-1.693, 7.231e-3
-1.694, 7.282e-3
-1.695, 7.341e-3
-1.696, 7.383e-3
-1.697, 7.418e-3
-1.698, 7.478e-3
-1.699, 7.539e-3
-1.700, 7.521e-3
-1.699, 7.478e-3
-1.698, 7.422e-3
-1.697, 7.362e-3
-1.696, 7.310e-3
-1.695, 7.253e-3
-1.694, 7.190e-3
-1.693, 7.105e-3
-1.692, 7.043e-3
-1.691, 6.980e-3
-1.690, 6.939e-3
-1.689, 6.885e-3
-1.688, 6.819e-3
-1.687, 6.767e-3
-1.686, 6.741e-3
-1.685, 6.676e-3
-1.684, 6.609e-3
-1.683, 6.568e-3
-1.682, 6.517e-3
-1.681, 6.460e-3
-1.680, 6.411e-3
-1.679, 6.358e-3
-1.678, 6.326e-3
-1.677, 6.251e-3
-1.676, 6.185e-3
-1.675, 6.126e-3
-1.674, 6.073e-3
-1.673, 6.042e-3
-1.672, 5.995e-3
-1.671, 5.944e-3
-1.670, 5.900e-3
-1.669, 5.856e-3
-1.668, 5.796e-3
-1.667, 5.725e-3
-1.666, 5.650e-3
-1.665, 5.642e-3
-1.664, 5.624e-3
-1.663, 5.582e-3
-1.662, 5.552e-3
-1.661, 5.483e-3
-1.660, 5.400e-3
-1.659, 5.332e-3
-1.658, 5.267e-3
-1.657, 5.211e-3
-1.656, 5.163e-3
-1.655, 5.097e-3
-1.654, 5.051e-3
-1.653, 5.013e-3
-1.652, 4.975e-3
-1.651, 4.913e-3
-1.650, 4.865e-3
-1.649, 4.819e-3
-1.648, 4.759e-3
-1.647, 4.733e-3
-1.646, 4.702e-3
-1.645, 4.672e-3
-1.644, 4.626e-3
-1.643, 4.555e-3
-1.642, 4.526e-3
-1.641, 4.467e-3
-1.640, 4.447e-3
-1.639, 4.407e-3
-1.638, 4.369e-3
-1.637, 4.331e-3
-1.636, 4.280e-3
-1.635, 4.222e-3
-1.634, 4.177e-3
-1.633, 4.125e-3
-1.632, 4.127e-3
-1.631, 4.063e-3
-1.630, 4.012e-3
-1.629, 3.990e-3
-1.628, 3.954e-3
-1.627, 3.907e-3
-1.626, 3.865e-3
-1.625, 3.822e-3
-1.624, 3.778e-3
-1.623, 3.742e-3
-1.622, 3.706e-3
-1.621, 3.665e-3
-1.620, 3.623e-3
-1.619, 3.582e-3
-1.618, 3.541e-3
-1.617, 3.502e-3
-1.616, 3.464e-3
-1.615, 3.425e-3
-1.614, 3.385e-3
-1.613, 3.337e-3
-1.612, 3.309e-3
-1.611, 3.277e-3
-1.610, 3.237e-3
-1.609, 3.196e-3
-1.608, 3.161e-3
-1.607, 3.129e-3
-1.606, 3.090e-3
-1.605, 3.050e-3
-1.604, 3.016e-3
-1.603, 2.991e-3
-1.602, 2.954e-3
-1.601, 2.917e-3
-1.600, 2.890e-3
-1.599, 2.855e-3
-1.598, 2.819e-3
-1.597, 2.777e-3
-1.596, 2.745e-3
-1.595, 2.721e-3
-1.594, 2.689e-3
-1.593, 2.660e-3
-1.592, 2.631e-3
-1.591, 2.593e-3
-1.590, 2.564e-3
-1.589, 2.536e-3
-1.588, 2.506e-3
-1.587, 2.472e-3
-1.586, 2.443e-3
-1.585, 2.416e-3
-1.584, 2.389e-3
-1.583, 2.359e-3
-1.582, 2.327e-3
-1.581, 2.297e-3
-1.580, 2.291e-3
-1.579, 2.302e-3
-1.578, 2.272e-3
-1.577, 2.246e-3
-1.576, 2.211e-3
-1.575, 2.182e-3
-1.574, 2.156e-3
-1.573, 2.126e-3
-1.572, 2.098e-3
-1.571, 2.070e-3
-1.570, 2.040e-3
-1.569, 2.018e-3
-1.568, 1.994e-3
-1.567, 1.968e-3
-1.566, 1.944e-3
-1.565, 1.919e-3
-1.564, 1.897e-3
-1.563, 1.871e-3
-1.562, 1.846e-3
-1.561, 1.832e-3
-1.560, 1.802e-3
-1.559, 1.778e-3
-1.558, 1.755e-3
-1.557, 1.729e-3
-1.556, 1.708e-3
-1.555, 1.690e-3
-1.554, 1.670e-3
-1.553, 1.649e-3
-1.552, 1.628e-3
-1.551, 1.606e-3
-1.550, 1.586e-3
-1.549, 1.565e-3
-1.548, 1.544e-3
-1.547, 1.520e-3
-1.546, 1.501e-3
-1.545, 1.481e-3
-1.544, 1.462e-3
-1.543, 1.441e-3
-1.542, 1.423e-3
-1.541, 1.406e-3
-1.540, 1.390e-3
-1.539, 1.376e-3
-1.538, 1.356e-3
-1.537, 1.337e-3
-1.536, 1.319e-3
-1.535, 1.301e-3
-1.534, 1.285e-3
-1.533, 1.266e-3
-1.532, 1.250e-3
-1.531, 1.233e-3
-1.530, 1.216e-3
-1.529, 1.204e-3
-1.528, 1.189e-3
-1.527, 1.172e-3
-1.526, 1.157e-3
-1.525, 1.142e-3
-1.524, 1.129e-3
-1.523, 1.112e-3
-1.522, 1.096e-3
-1.521, 1.083e-3
-1.520, 1.071e-3
-1.519, 1.056e-3
-1.518, 1.040e-3
-1.517, 1.026e-3
-1.516, 1.011e-3
-1.515, 9.970e-4
-1.514, 9.834e-4
-1.513, 9.694e-4
-1.512, 9.553e-4
-1.511, 9.430e-4
-1.510, 9.315e-4
-1.509, 9.191e-4
-1.508, 9.068e-4
-1.507, 8.948e-4
-1.506, 8.836e-4
-1.505, 8.710e-4
-1.504, 8.585e-4
-1.503, 8.465e-4
-1.502, 8.348e-4
-1.501, 8.238e-4
-1.500, 8.119e-4
-1.499, 8.010e-4
-1.498, 7.893e-4
-1.497, 7.782e-4
-1.496, 7.661e-4
-1.495, 7.556e-4
-1.494, 7.457e-4
-1.493, 7.356e-4
-1.492, 7.247e-4
-1.491, 7.153e-4
-1.490, 7.061e-4
-1.489, 6.955e-4
-1.488, 6.854e-4
-1.487, 6.753e-4
-1.486, 6.653e-4
-1.485, 6.561e-4
-1.484, 6.473e-4
-1.483, 6.383e-4
-1.482, 6.283e-4
-1.481, 6.187e-4
-1.480, 6.102e-4
-1.479, 6.015e-4
-1.478, 5.920e-4
-1.477, 5.835e-4
-1.476, 5.753e-4
-1.475, 5.671e-4
-1.474, 5.589e-4
-1.473, 5.509e-4
-1.472, 5.421e-4
-1.471, 5.347e-4
-1.470, 5.264e-4
-1.469, 5.191e-4
-1.468, 5.111e-4
-1.467, 5.027e-4
-1.466, 4.952e-4
-1.465, 4.884e-4
-1.464, 4.807e-4
-1.463, 4.729e-4
-1.462, 4.657e-4
-1.461, 4.592e-4
-1.460, 4.528e-4
-1.459, 4.455e-4
-1.458, 4.384e-4
-1.457, 4.315e-4
-1.456, 4.251e-4
-1.455, 4.187e-4
-1.454, 4.122e-4
-1.453, 4.059e-4
-1.452, 3.994e-4
-1.451, 3.930e-4
-1.450, 3.869e-4
-1.449, 3.811e-4
-1.448, 3.747e-4
-1.447, 3.686e-4
-1.446, 3.627e-4
-1.445, 3.572e-4
-1.444, 3.516e-4
-1.443, 3.458e-4
-1.442, 3.400e-4
-1.441, 3.345e-4
-1.440, 3.297e-4
-1.439, 3.245e-4
-1.438, 3.188e-4
-1.437, 3.135e-4
-1.436, 3.084e-4
-1.435, 3.035e-4
-1.434, 2.986e-4
-1.433, 2.932e-4
-1.432, 2.883e-4
-1.431, 2.834e-4
-1.430, 2.790e-4
-1.429, 2.745e-4
-1.428, 2.698e-4
-1.427, 2.649e-4
-1.426, 2.607e-4
-1.425, 2.565e-4
-1.424, 2.525e-4
-1.423, 2.478e-4
-1.422, 2.433e-4
-1.421, 2.392e-4
-1.420, 2.354e-4
-1.419, 2.314e-4
-1.418, 2.272e-4
-1.417, 2.229e-4
-1.416, 2.194e-4
-1.415, 2.157e-4
-1.414, 2.120e-4
-1.413, 2.082e-4
-1.412, 2.043e-4
-1.411, 2.007e-4
-1.410, 1.977e-4
-1.409, 1.942e-4
-1.408, 1.905e-4
-1.407, 1.868e-4
-1.406, 1.836e-4
-1.405, 1.806e-4
-1.404, 1.774e-4
-1.403, 1.738e-4
-1.402, 1.703e-4
-1.401, 1.675e-4
-1.400, 1.648e-4
-1.399, 1.618e-4
-1.398, 1.583e-4
-1.397, 1.553e-4
-1.396, 1.526e-4
-1.395, 1.500e-4
-1.394, 1.474e-4
-1.393, 1.441e-4
-1.392, 1.413e-4
-1.391, 1.388e-4
-1.390, 1.363e-4
-1.389, 1.338e-4
-1.388, 1.309e-4
-1.387, 1.281e-4
-1.386, 1.259e-4
-1.385, 1.238e-4
-1.384, 1.213e-4
-1.383, 1.186e-4
-1.382, 1.160e-4
-1.381, 1.139e-4
-1.380, 1.120e-4
-1.379, 1.099e-4
-1.378, 1.074e-4
-1.377, 1.050e-4
-1.376, 1.031e-4
-1.375, 1.014e-4
-1.374, 9.935e-5
-1.373, 9.703e-5
-1.372, 9.479e-5
-1.371, 9.297e-5
-1.370, 9.139e-5
-1.369, 8.942e-5
-1.368, 8.733e-5
-1.367, 8.526e-5
-1.366, 8.362e-5
-1.365, 8.207e-5
-1.364, 8.029e-5
-1.363, 7.832e-5
-1.362, 7.642e-5
-1.361, 7.490e-5
-1.360, 7.362e-5
-1.359, 7.198e-5
-1.358, 6.997e-5
-1.357, 6.827e-5
-1.356, 6.697e-5
-1.355, 6.556e-5
-1.354, 6.428e-5
-1.353, 6.241e-5
-1.352, 6.075e-5
-1.351, 5.953e-5
-1.350, 5.837e-5
-1.349, 5.710e-5
-1.348, 5.538e-5
-1.347, 5.371e-5
-1.346, 5.273e-5
-1.345, 5.168e-5
-1.344, 5.055e-5
-1.343, 4.891e-5
-1.342, 4.742e-5
-1.341, 4.654e-5
-1.340, 4.564e-5
-1.339, 4.443e-5
-1.338, 4.302e-5
-1.337, 4.166e-5
-1.336, 4.089e-5
-1.335, 4.010e-5
-1.334, 3.909e-5
-1.333, 3.782e-5
-1.332, 3.651e-5
-1.331, 3.572e-5
-1.330, 3.501e-5
-1.329, 3.407e-5
-1.328, 3.278e-5
-1.327, 3.178e-5
-1.326, 3.099e-5
-1.325, 3.035e-5
-1.324, 2.956e-5
-1.323, 2.827e-5
-1.322, 2.731e-5
-1.321, 2.661e-5
-1.320, 2.616e-5
-1.319, 2.538e-5
-1.318, 2.420e-5
-1.317, 2.326e-5
-1.316, 2.274e-5
-1.315, 2.221e-5
-1.314, 2.157e-5
-1.313, 2.038e-5
-1.312, 1.963e-5
-1.311, 1.912e-5
-1.310, 1.870e-5
-1.309, 1.805e-5
-1.308, 1.709e-5
-1.307, 1.624e-5
-1.306, 1.581e-5
-1.305, 1.537e-5
-1.304, 1.498e-5
-1.303, 1.399e-5
-1.302, 1.311e-5
-1.301, 1.285e-5
-1.300, 1.254e-5
-1.299, 1.190e-5
-1.298, 1.124e-5
-1.297, 1.045e-5
-1.296, 1.007e-5
-1.295, 9.905e-6
-1.294, 9.426e-6
-1.293, 8.531e-6
-1.292, 7.926e-6
-1.291, 7.641e-6
-1.290, 7.381e-6
-1.289, 7.028e-6
-1.288, 6.262e-6
-1.287, 5.635e-6
-1.286, 5.306e-6
-1.285, 5.205e-6
-1.284, 5.017e-6
-1.283, 4.069e-6
-1.282, 3.628e-6
-1.281, 3.346e-6
-1.280, 3.225e-6
-1.279, 3.018e-6
-1.278, 2.169e-6
-1.277, 1.902e-6
-1.276, 1.518e-6
-1.275, 1.449e-6
-1.274, 1.253e-6
-1.273, 5.168e-7
-1.272, 1.261e-7
-1.271, 2.762e-9
-1.270, -1.255e-7
-1.269, -2.774e-7
-1.268, -9.276e-7
-1.267, -1.458e-6
-1.266, -1.472e-6
-1.265, -1.521e-6
-1.264, -1.679e-6
-1.263, -2.298e-6
-1.262, -2.815e-6
-1.261, -2.715e-6
-1.260, -2.769e-6
-1.259, -2.973e-6
-1.258, -3.533e-6
-1.257, -3.947e-6
-1.256, -4.011e-6
-1.255, -3.924e-6
-1.254, -4.154e-6
-1.253, -4.688e-6
-1.252, -4.994e-6
-1.251, -5.084e-6
-1.250, -4.991e-6
-1.249, -5.161e-6
-1.248, -5.555e-6
-1.247, -6.021e-6
-1.246, -6.053e-6
-1.245, -5.838e-6
-1.244, -5.919e-6
-1.243, -6.594e-6
-1.242, -6.851e-6
-1.241, -6.855e-6
-1.240, -6.704e-6
-1.239, -6.776e-6
-1.238, -7.491e-6
-1.237, -7.659e-6
-1.236, -7.596e-6
-1.235, -7.507e-6
-1.234, -7.513e-6
-1.233, -8.118e-6
-1.232, -8.283e-6
-1.231, -8.223e-6
-1.230, -8.233e-6
-1.229, -8.390e-6
-1.228, -8.762e-6
-1.227, -9.083e-6
-1.226, -8.908e-6
-1.225, -8.803e-6
-1.224, -9.020e-6
-1.223, -9.579e-6
-1.222, -9.817e-6
-1.221, -9.794e-6
-1.220, -9.560e-6
-1.219, -9.589e-6
-1.218, -1.010e-5
-1.217, -1.032e-5
-1.216, -1.026e-5
-1.215, -1.008e-5
-1.214, -1.017e-5
-1.213, -1.060e-5
-1.212, -1.078e-5
-1.211, -1.085e-5
-1.210, -1.060e-5
-1.209, -1.069e-5
-1.208, -1.115e-5
-1.207, -1.134e-5
-1.206, -1.113e-5
-1.205, -1.104e-5
-1.204, -1.108e-5
-1.203, -1.163e-5
-1.202, -1.169e-5
-1.201, -1.179e-5
-1.200, -1.144e-5
-1.199, -1.145e-5
-1.198, -1.201e-5
-1.197, -1.213e-5
-1.196, -1.205e-5
-1.195, -1.194e-5
-1.194, -1.185e-5
-1.193, -1.239e-5
-1.192, -1.252e-5
-1.191, -1.243e-5
-1.190, -1.228e-5
-1.189, -1.217e-5
-1.188, -1.266e-5
-1.187, -1.291e-5
-1.186, -1.275e-5
-1.185, -1.264e-5
-1.184, -1.261e-5
-1.183, -1.310e-5
-1.182, -1.337e-5
-1.181, -1.317e-5
-1.180, -1.300e-5
-1.179, -1.298e-5
-1.178, -1.356e-5
-1.177, -1.365e-5
-1.176, -1.359e-5
-1.175, -1.342e-5
-1.174, -1.350e-5
-1.173, -1.384e-5
-1.172, -1.408e-5
-1.171, -1.405e-5
-1.170, -1.376e-5
-1.169, -1.379e-5
-1.168, -1.432e-5
-1.167, -1.441e-5
-1.166, -1.428e-5
-1.165, -1.412e-5
-1.164, -1.413e-5
-1.163, -1.470e-5
-1.162, -1.480e-5
-1.161, -1.482e-5
-1.160, -1.450e-5
-1.159, -1.480e-5
-1.158, -1.549e-5
-1.157, -1.554e-5
-1.156, -1.537e-5
-1.155, -1.524e-5
-1.154, -1.512e-5
-1.153, -1.562e-5
-1.152, -1.575e-5
-1.151, -1.567e-5
-1.150, -1.551e-5
-1.149, -1.536e-5
-1.148, -1.595e-5
-1.147, -1.613e-5
-1.146, -1.593e-5
-1.145, -1.582e-5
-1.144, -1.574e-5
-1.143, -1.618e-5
-1.142, -1.644e-5
-1.141, -1.630e-5
-1.140, -1.608e-5
-1.139, -1.616e-5
-1.138, -1.657e-5
-1.137, -1.678e-5
-1.136, -1.659e-5
-1.135, -1.642e-5
-1.134, -1.650e-5
-1.133, -1.686e-5
-1.132, -1.708e-5
-1.131, -1.705e-5
-1.130, -1.674e-5
-1.129, -1.677e-5
-1.128, -1.728e-5
-1.127, -1.738e-5
-1.126, -1.729e-5
-1.125, -1.705e-5
-1.124, -1.705e-5
-1.123, -1.757e-5
-1.122, -1.765e-5
-1.121, -1.771e-5
-1.120, -1.731e-5
-1.119, -1.731e-5
-1.118, -1.788e-5
-1.117, -1.799e-5
-1.116, -1.783e-5
-1.115, -1.770e-5
-1.114, -1.763e-5
-1.113, -1.814e-5
-1.112, -1.820e-5
-1.111, -1.822e-5
-1.110, -1.794e-5
-1.109, -1.782e-5
-1.108, -1.835e-5
-1.107, -1.857e-5
-1.106, -1.842e-5
-1.105, -1.825e-5
-1.104, -1.810e-5
-1.103, -1.866e-5
-1.102, -1.884e-5
-1.101, -1.871e-5
-1.100, -1.843e-5
-1.099, -1.848e-5
-1.098, -1.891e-5
-1.097, -1.907e-5
-1.096, -1.899e-5
-1.095, -1.864e-5
-1.094, -1.872e-5
-1.093, -1.922e-5
-1.092, -1.928e-5
-1.091, -1.935e-5
-1.090, -1.896e-5
-1.089, -1.902e-5
-1.088, -1.951e-5
-1.087, -1.956e-5
-1.086, -1.952e-5
-1.085, -1.927e-5
-1.084, -1.927e-5
-1.083, -1.979e-5
-1.082, -1.986e-5
-1.081, -1.989e-5
-1.080, -1.952e-5
-1.079, -1.942e-5
-1.078, -2.016e-5
-1.077, -2.015e-5
-1.076, -2.017e-5
-1.075, -1.993e-5
-1.074, -1.982e-5
-1.073, -2.043e-5
-1.072, -2.035e-5
-1.071, -2.046e-5
-1.070, -2.016e-5
-1.069, -2.006e-5
-1.068, -2.064e-5
-1.067, -2.078e-5
-1.066, -2.068e-5
-1.065, -2.054e-5
-1.064, -2.037e-5
-1.063, -2.088e-5
-1.062, -2.107e-5
-1.061, -2.112e-5
-1.060, -2.069e-5
-1.059, -2.073e-5
-1.058, -2.129e-5
-1.057, -2.144e-5
-1.056, -2.131e-5
-1.055, -2.112e-5
-1.054, -2.112e-5
-1.053, -2.164e-5
-1.052, -2.175e-5
-1.051, -2.183e-5
-1.050, -2.157e-5
-1.049, -2.154e-5
-1.048, -2.212e-5
-1.047, -2.212e-5
-1.046, -2.223e-5
-1.045, -2.190e-5
-1.044, -2.196e-5
-1.043, -2.250e-5
-1.042, -2.257e-5
-1.041, -2.269e-5
-1.040, -2.228e-5
-1.039, -2.226e-5
-1.038, -2.306e-5
-1.037, -2.306e-5
-1.036, -2.309e-5
-1.035, -2.288e-5
-1.034, -2.280e-5
-1.033, -2.349e-5
-1.032, -2.357e-5
-1.031, -2.358e-5
-1.030, -2.345e-5
-1.029, -2.333e-5
-1.028, -2.396e-5
-1.027, -2.412e-5
-1.026, -2.421e-5
-1.025, -2.397e-5
-1.024, -2.402e-5
-1.023, -2.467e-5
-1.022, -2.489e-5
-1.021, -2.482e-5
-1.020, -2.464e-5
-1.019, -2.473e-5
-1.018, -2.533e-5
-1.017, -2.558e-5
-1.016, -2.559e-5
-1.015, -2.542e-5
-1.014, -2.547e-5
-1.013, -2.614e-5
-1.012, -2.629e-5
-1.011, -2.652e-5
-1.010, -2.624e-5
-1.009, -2.640e-5
-1.008, -2.706e-5
-1.007, -2.725e-5
-1.006, -2.745e-5
-1.005, -2.717e-5
-1.004, -2.731e-5
-1.003, -2.808e-5
-1.002, -2.828e-5
-1.001, -2.849e-5
-1.000, -1.578e-5
-1.001, -1.110e-5
-1.002, -9.745e-6
-1.003, -8.374e-6
-1.004, -7.037e-6
-1.005, -5.546e-6
-1.006, -4.556e-6
-1.007, -4.128e-6
-1.008, -3.471e-6
-1.009, -2.677e-6
-1.010, -1.600e-6
-1.011, -8.852e-7
-1.012, -8.615e-7
-1.013, -3.504e-7
-1.014, 1.527e-7
-1.015, 1.140e-6
-1.016, 1.551e-6
-1.017, 1.428e-6
-1.018, 1.890e-6
-1.019, 2.226e-6
-1.020, 2.965e-6
-1.021, 3.378e-6
-1.022, 3.159e-6
-1.023, 3.498e-6
-1.024, 3.830e-6
-1.025, 4.420e-6
-1.026, 4.829e-6
-1.027, 4.462e-6
-1.028, 4.712e-6
-1.029, 4.972e-6
-1.030, 5.586e-6
-1.031, 5.909e-6
-1.032, 5.470e-6
-1.033, 5.729e-6
-1.034, 6.016e-6
-1.035, 6.497e-6
-1.036, 6.737e-6
-1.037, 6.404e-6
-1.038, 6.488e-6
-1.039, 6.718e-6
-1.040, 7.316e-6
-1.041, 7.453e-6
-1.042, 7.138e-6
-1.043, 7.145e-6
-1.044, 7.320e-6
-1.045, 7.904e-6
-1.046, 7.977e-6
-1.047, 7.652e-6
-1.048, 7.692e-6
-1.049, 7.792e-6
-1.050, 8.438e-6
-1.051, 8.472e-6
-1.052, 8.081e-6
-1.053, 8.164e-6
-1.054, 8.210e-6
-1.055, 8.865e-6
-1.056, 8.929e-6
-1.057, 8.474e-6
-1.058, 8.594e-6
-1.059, 8.601e-6
-1.060, 9.216e-6
-1.061, 9.277e-6
-1.062, 8.813e-6
-1.063, 8.954e-6
-1.064, 8.968e-6
-1.065, 9.482e-6
-1.066, 9.654e-6
-1.067, 9.146e-6
-1.068, 9.186e-6
-1.069, 9.290e-6
-1.070, 9.801e-6
-1.071, 9.917e-6
-1.072, 9.376e-6
-1.073, 9.454e-6
-1.074, 9.605e-6
-1.075, 1.008e-5
-1.076, 1.017e-5
-1.077, 9.706e-6
-1.078, 9.639e-6
-1.079, 9.850e-6
-1.080, 1.025e-5
-1.081, 1.036e-5
-1.082, 9.934e-6
-1.083, 9.925e-6
-1.084, 1.006e-5
-1.085, 1.053e-5
-1.086, 1.059e-5
-1.087, 1.018e-5
-1.088, 1.020e-5
-1.089, 1.024e-5
-1.090, 1.080e-5
-1.091, 1.080e-5
-1.092, 1.034e-5
-1.093, 1.040e-5
-1.094, 1.047e-5
-1.095, 1.097e-5
-1.096, 1.095e-5
-1.097, 1.055e-5
-1.098, 1.058e-5
-1.099, 1.063e-5
-1.100, 1.119e-5
-1.101, 1.126e-5
-1.102, 1.069e-5
-1.103, 1.084e-5
-1.104, 1.087e-5
-1.105, 1.126e-5
-1.106, 1.155e-5
-1.107, 1.088e-5
-1.108, 1.097e-5
-1.109, 1.109e-5
-1.110, 1.157e-5
-1.111, 1.170e-5
-1.112, 1.111e-5
-1.113, 1.121e-5
-1.114, 1.128e-5
-1.115, 1.171e-5
-1.116, 1.184e-5
-1.117, 1.135e-5
-1.118, 1.137e-5
-1.119, 1.151e-5
-1.120, 1.198e-5
-1.121, 1.198e-5
-1.122, 1.160e-5
-1.123, 1.151e-5
-1.124, 1.167e-5
-1.125, 1.210e-5
-1.126, 1.226e-5
-1.127, 1.186e-5
-1.128, 1.169e-5
-1.129, 1.186e-5
-1.130, 1.240e-5
-1.131, 1.246e-5
-1.132, 1.198e-5
-1.133, 1.205e-5
-1.134, 1.210e-5
-1.135, 1.261e-5
-1.136, 1.263e-5
-1.137, 1.220e-5
-1.138, 1.219e-5
-1.139, 1.225e-5
-1.140, 1.279e-5
-1.141, 1.289e-5
-1.142, 1.245e-5
-1.143, 1.249e-5
-1.144, 1.252e-5
-1.145, 1.292e-5
-1.146, 1.320e-5
-1.147, 1.260e-5
-1.148, 1.265e-5
-1.149, 1.274e-5
-1.150, 1.323e-5
-1.151, 1.333e-5
-1.152, 1.291e-5
-1.153, 1.288e-5
-1.154, 1.305e-5
-1.155, 1.342e-5
-1.156, 1.357e-5
-1.157, 1.314e-5
-1.158, 1.308e-5
-1.159, 1.322e-5
-1.160, 1.374e-5
-1.161, 1.383e-5
-1.162, 1.339e-5
-1.163, 1.333e-5
-1.164, 1.347e-5
-1.165, 1.387e-5
-1.166, 1.404e-5
-1.167, 1.364e-5
-1.168, 1.354e-5
-1.169, 1.372e-5
-1.170, 1.423e-5
-1.171, 1.430e-5
-1.172, 1.385e-5
-1.173, 1.387e-5
-1.174, 1.398e-5
-1.175, 1.451e-5
-1.176, 1.456e-5
-1.177, 1.421e-5
-1.178, 1.423e-5
-1.179, 1.422e-5
-1.180, 1.475e-5
-1.181, 1.487e-5
-1.182, 1.440e-5
-1.183, 1.452e-5
-1.184, 1.458e-5
-1.185, 1.512e-5
-1.186, 1.523e-5
-1.187, 1.476e-5
-1.188, 1.483e-5
-1.189, 1.498e-5
-1.190, 1.540e-5
-1.191, 1.573e-5
-1.192, 1.521e-5
-1.193, 1.518e-5
-1.194, 1.538e-5
-1.195, 1.594e-5
-1.196, 1.606e-5
-1.197, 1.568e-5
-1.198, 1.569e-5
-1.199, 1.594e-5
-1.200, 1.630e-5
-1.201, 1.654e-5
-1.202, 1.626e-5
-1.203, 1.630e-5
-1.204, 1.642e-5
-1.205, 1.691e-5
-1.206, 1.708e-5
-1.207, 1.684e-5
-1.208, 1.681e-5
-1.209, 1.695e-5
-1.210, 1.765e-5
-1.211, 1.773e-5
-1.212, 1.737e-5
-1.213, 1.751e-5
-1.214, 1.764e-5
-1.215, 1.829e-5
-1.216, 1.847e-5
-1.217, 1.809e-5
-1.218, 1.830e-5
-1.219, 1.845e-5
-1.220, 1.899e-5
-1.221, 1.925e-5
-1.222, 1.892e-5
-1.223, 1.906e-5
-1.224, 1.926e-5
-1.225, 1.984e-5
-1.226, 2.018e-5
-1.227, 1.978e-5
-1.228, 2.014e-5
-1.229, 2.037e-5
-1.230, 2.086e-5
-1.231, 2.121e-5
-1.232, 2.089e-5
-1.233, 2.100e-5
-1.234, 2.146e-5
-1.235, 2.198e-5
-1.236, 2.230e-5
-1.237, 2.202e-5
-1.238, 2.223e-5
-1.239, 2.262e-5
-1.240, 2.320e-5
-1.241, 2.351e-5
-1.242, 2.340e-5
-1.243, 2.355e-5
-1.244, 2.395e-5
-1.245, 2.464e-5
-1.246, 2.499e-5
-1.247, 2.485e-5
-1.248, 2.510e-5
-1.249, 2.552e-5
-1.250, 2.628e-5
-1.251, 2.659e-5
-1.252, 2.653e-5
-1.253, 2.678e-5
-1.254, 2.727e-5
-1.255, 2.814e-5
-1.256, 2.852e-5
-1.257, 2.832e-5
-1.258, 2.876e-5
-1.259, 2.925e-5
-1.260, 3.005e-5
-1.261, 3.059e-5
-1.262, 3.055e-5
-1.263, 3.090e-5
-1.264, 3.137e-5
-1.265, 3.235e-5
-1.266, 3.293e-5
-1.267, 3.283e-5
-1.268, 3.339e-5
-1.269, 3.395e-5
-1.270, 3.483e-5
-1.271, 3.555e-5
-1.272, 3.552e-5
-1.273, 3.612e-5
-1.274, 3.678e-5
-1.275, 3.779e-5
-1.276, 3.841e-5
-1.277, 3.855e-5
-1.278, 3.921e-5
-1.279, 3.993e-5
-1.280, 4.105e-5
-1.281, 4.176e-5
-1.282, 4.196e-5
-1.283, 4.263e-5
-1.284, 4.341e-5
-1.285, 4.457e-5
-1.286, 4.550e-5
-1.287, 4.572e-5
-1.288, 4.647e-5
-1.289, 4.737e-5
-1.290, 4.872e-5
-1.291, 4.955e-5
-1.292, 4.988e-5
-1.293, 5.079e-5
-1.294, 5.181e-5
-1.295, 5.327e-5
-1.296, 5.417e-5
-1.297, 5.470e-5
-1.298, 5.575e-5
-1.299, 5.675e-5
-1.300, 5.818e-5
-1.301, 5.931e-5
-1.302, 5.988e-5
-1.303, 6.100e-5
-1.304, 6.215e-5
-1.305, 6.366e-5
-1.306, 6.508e-5
-1.307, 6.564e-5
-1.308, 6.685e-5
-1.309, 6.832e-5
-1.310, 6.982e-5
-1.311, 7.113e-5
-1.312, 7.192e-5
-1.313, 7.323e-5
-1.314, 7.477e-5
-1.315, 7.659e-5
-1.316, 7.802e-5
-1.317, 7.898e-5
-1.318, 8.051e-5
-1.319, 8.211e-5
-1.320, 8.394e-5
-1.321, 8.559e-5
-1.322, 8.666e-5
-1.323, 8.817e-5
-1.324, 9.000e-5
-1.325, 9.205e-5
-1.326, 9.389e-5
-1.327, 9.519e-5
-1.328, 9.670e-5
-1.329, 9.861e-5
-1.330, 1.009e-4
-1.331, 1.027e-4
-1.332, 1.042e-4
-1.333, 1.060e-4
-1.334, 1.079e-4
-1.335, 1.103e-4
-1.336, 1.123e-4
-1.337, 1.138e-4
-1.338, 1.160e-4
-1.339, 1.180e-4
-1.340, 1.203e-4
-1.341, 1.227e-4
-1.342, 1.243e-4
-1.343, 1.267e-4
-1.344, 1.288e-4
-1.345, 1.314e-4
-1.346, 1.339e-4
-1.347, 1.357e-4
-1.348, 1.380e-4
-1.349, 1.404e-4
-1.350, 1.433e-4
-1.351, 1.458e-4
-1.352, 1.478e-4
-1.353, 1.504e-4
-1.354, 1.530e-4
-1.355, 1.559e-4
-1.356, 1.586e-4
-1.357, 1.608e-4
-1.358, 1.636e-4
-1.359, 1.665e-4
-1.360, 1.694e-4
-1.361, 1.721e-4
-1.362, 1.747e-4
-1.363, 1.774e-4
-1.364, 1.805e-4
-1.365, 1.838e-4
-1.366, 1.867e-4
-1.367, 1.894e-4
-1.368, 1.922e-4
-1.369, 1.954e-4
-1.370, 1.990e-4
-1.371, 2.021e-4
-1.372, 2.049e-4
-1.373, 2.082e-4
-1.374, 2.117e-4
-1.375, 2.150e-4
-1.376, 2.184e-4
-1.377, 2.214e-4
-1.378, 2.247e-4
-1.379, 2.283e-4
-1.380, 2.319e-4
-1.381, 2.357e-4
-1.382, 2.388e-4
-1.383, 2.422e-4
-1.384, 2.458e-4
-1.385, 2.499e-4
-1.386, 2.537e-4
-1.387, 2.568e-4
-1.388, 2.606e-4
-1.389, 2.643e-4
-1.390, 2.688e-4
-1.391, 2.727e-4
-1.392, 2.758e-4
-1.393, 2.798e-4
-1.394, 2.839e-4
-1.395, 2.882e-4
-1.396, 2.925e-4
-1.397, 2.960e-4
-1.398, 3.001e-4
-1.399, 3.046e-4
-1.400, 3.088e-4
-1.401, 3.129e-4
-1.402, 3.171e-4
-1.403, 3.211e-4
-1.404, 3.257e-4
-1.405, 3.304e-4
-1.406, 3.347e-4
-1.407, 3.389e-4
-1.408, 3.432e-4
-1.409, 3.478e-4
-1.410, 3.529e-4
-1.411, 3.577e-4
-1.412, 3.621e-4
-1.413, 3.663e-4
-1.414, 3.710e-4
-1.415, 3.762e-4
-1.416, 3.813e-4
-1.417, 3.857e-4
-1.418, 3.905e-4
-1.419, 3.953e-4
-1.420, 4.007e-4
-1.421, 4.054e-4
-1.422, 4.100e-4
-1.423, 4.153e-4
-1.424, 4.203e-4
-1.425, 4.257e-4
-1.426, 4.315e-4
-1.427, 4.366e-4
-1.428, 4.418e-4
-1.429, 4.475e-4
-1.430, 4.526e-4
-1.431, 4.579e-4
-1.432, 4.627e-4
-1.433, 4.683e-4
-1.434, 4.736e-4
-1.435, 4.792e-4
-1.436, 4.853e-4
-1.437, 4.909e-4
-1.438, 4.967e-4
-1.439, 5.024e-4
-1.440, 5.086e-4
-1.441, 5.149e-4
-1.442, 5.201e-4
-1.443, 5.257e-4
-1.444, 5.319e-4
-1.445, 5.383e-4
-1.446, 5.447e-4
-1.447, 5.507e-4
-1.448, 5.560e-4
-1.449, 5.626e-4
-1.450, 5.690e-4
-1.451, 5.750e-4
-1.452, 5.812e-4
-1.453, 5.878e-4
-1.454, 5.944e-4
-1.455, 6.017e-4
-1.456, 6.085e-4
-1.457, 6.149e-4
-1.458, 6.212e-4
-1.459, 6.282e-4
-1.460, 6.351e-4
-1.461, 6.416e-4
-1.462, 6.475e-4
-1.463, 6.540e-4
-1.464, 6.616e-4
-1.465, 6.695e-4
-1.466, 6.763e-4
-1.467, 6.829e-4
-1.468, 6.907e-4
-1.469, 6.994e-4
-1.470, 7.072e-4
-1.471, 7.149e-4
-1.472, 7.219e-4
-1.473, 7.286e-4
-1.474, 7.362e-4
-1.475, 7.433e-4
-1.476, 7.514e-4
-1.477, 7.590e-4
-1.478, 7.657e-4
-1.479, 7.743e-4
-1.480, 7.828e-4
-1.481, 7.908e-4
-1.482, 7.989e-4
-1.483, 8.068e-4
-1.484, 8.152e-4
-1.485, 8.241e-4
-1.486, 8.332e-4
-1.487, 8.418e-4
-1.488, 8.496e-4
-1.489, 8.582e-4
-1.490, 8.682e-4
-1.491, 8.768e-4
-1.492, 8.852e-4
-1.493, 8.935e-4
-1.494, 9.032e-4
-1.495, 9.122e-4
-1.496, 9.201e-4
-1.497, 9.297e-4
-1.498, 9.399e-4
-1.499, 9.494e-4
-1.500, 9.584e-4
-1.501, 9.686e-4
-1.502, 9.787e-4
-1.503, 9.877e-4
-1.504, 9.975e-4
-1.505, 1.008e-3
-1.506, 1.018e-3
-1.507, 1.029e-3
-1.508, 1.040e-3
-1.509, 1.052e-3
-1.510, 1.064e-3
-1.511, 1.072e-3
-1.512, 1.081e-3
-1.513, 1.092e-3
-1.514, 1.104e-3
-1.515, 1.116e-3
-1.516, 1.124e-3
-1.517, 1.135e-3
-1.518, 1.147e-3
-1.519, 1.158e-3
-1.520, 1.169e-3
-1.521, 1.181e-3
-1.522, 1.193e-3
-1.523, 1.205e-3
-1.524, 1.218e-3
-1.525, 1.230e-3
-1.526, 1.243e-3
-1.527, 1.253e-3
-1.528, 1.266e-3
-1.529, 1.280e-3
-1.530, 1.293e-3
-1.531, 1.306e-3
-1.532, 1.318e-3
-1.533, 1.332e-3
-1.534, 1.348e-3
-1.535, 1.363e-3
-1.536, 1.378e-3
-1.537, 1.392e-3
-1.538, 1.403e-3
-1.539, 1.418e-3
-1.540, 1.431e-3
-1.541, 1.444e-3
-1.542, 1.459e-3
-1.543, 1.474e-3
-1.544, 1.491e-3
-1.545, 1.506e-3
-1.546, 1.520e-3
-1.547, 1.535e-3
-1.548, 1.552e-3
-1.549, 1.570e-3
-1.550, 1.588e-3
-1.551, 1.603e-3
-1.552, 1.619e-3
-1.553, 1.637e-3
-1.554, 1.652e-3
-1.555, 1.669e-3
-1.556, 1.689e-3
-1.557, 1.706e-3
-1.558, 1.724e-3
-1.559, 1.742e-3
-1.560, 1.763e-3
-1.561, 1.782e-3
-1.562, 1.804e-3
-1.563, 1.823e-3
-1.564, 1.844e-3
-1.565, 1.865e-3
-1.566, 1.885e-3
-1.567, 1.905e-3
-1.568, 1.925e-3
-1.569, 1.947e-3
-1.570, 1.968e-3
-1.571, 1.989e-3
-1.572, 2.007e-3
-1.573, 2.030e-3
-1.574, 2.051e-3
-1.575, 2.073e-3
-1.576, 2.099e-3
-1.577, 2.125e-3
-1.578, 2.146e-3
-1.579, 2.169e-3
-1.580, 2.196e-3
-1.581, 2.225e-3
-1.582, 2.250e-3
-1.583, 2.273e-3
-1.584, 2.298e-3
-1.585, 2.337e-3
-1.586, 2.361e-3
-1.587, 2.389e-3
-1.588, 2.412e-3
-1.589, 2.440e-3
-1.590, 2.472e-3
-1.591, 2.500e-3
-1.592, 2.526e-3
-1.593, 2.560e-3
-1.594, 2.594e-3
-1.595, 2.624e-3
-1.596, 2.651e-3
-1.597, 2.681e-3
-1.598, 2.712e-3
-1.599, 2.742e-3
-1.600, 2.772e-3
-1.601, 2.803e-3
-1.602, 2.837e-3
-1.603, 2.869e-3
-1.604, 2.904e-3
-1.605, 2.945e-3
-1.606, 2.982e-3
-1.607, 3.014e-3
-1.608, 3.048e-3
-1.609, 3.089e-3
-1.610, 3.128e-3
-1.611, 3.156e-3
-1.612, 3.190e-3
-1.613, 3.224e-3
-1.614, 3.262e-3
-1.615, 3.295e-3
-1.616, 3.336e-3
-1.617, 3.376e-3
-1.618, 3.411e-3
-1.619, 3.456e-3
-1.620, 3.496e-3
-1.621, 3.533e-3
-1.622, 3.571e-3
-1.623, 3.610e-3
-1.624, 3.657e-3
-1.625, 3.698e-3
-1.626, 3.739e-3
-1.627, 3.781e-3
-1.628, 3.828e-3
-1.629, 3.872e-3
-1.630, 3.911e-3
-1.631, 3.960e-3
-1.632, 4.006e-3
-1.633, 4.047e-3
-1.634, 4.091e-3
-1.635, 4.145e-3
-1.636, 4.193e-3
-1.637, 4.233e-3
-1.638, 4.271e-3
-1.639, 4.317e-3
-1.640, 4.365e-3
-1.641, 4.406e-3
-1.642, 4.447e-3
-1.643, 4.498e-3
-1.644, 4.546e-3
-1.645, 4.595e-3
-1.646, 4.647e-3
-1.647, 4.690e-3
-1.648, 4.735e-3
-1.649, 4.791e-3
-1.650, 4.845e-3
-1.651, 4.894e-3
-1.652, 4.950e-3
-1.653, 4.991e-3
-1.654, 5.031e-3
-1.655, 5.081e-3
-1.656, 5.126e-3
-1.657, 5.176e-3
-1.658, 5.203e-3
-1.659, 5.238e-3
-1.660, 5.300e-3
-1.661, 5.356e-3
-1.662, 5.398e-3
-1.663, 5.471e-3
-1.664, 5.533e-3
-1.665, 5.588e-3
-1.666, 5.621e-3
-1.667, 5.668e-3
-1.668, 5.706e-3
-1.669, 5.737e-3
-1.670, 5.783e-3
-1.671, 5.835e-3
-1.672, 5.889e-3
-1.673, 5.921e-3
-1.674, 5.967e-3
-1.675, 6.027e-3
-1.676, 6.080e-3
-1.677, 6.114e-3
-1.678, 6.177e-3
-1.679, 6.238e-3
-1.680, 6.285e-3
-1.681, 6.332e-3
-1.682, 6.378e-3
-1.683, 6.429e-3
-1.684, 6.444e-3
-1.685, 6.492e-3
-1.686, 6.550e-3
-1.687, 6.589e-3
-1.688, 6.642e-3
-1.689, 6.702e-3
-1.690, 6.759e-3
-1.691, 6.784e-3
-1.692, 6.836e-3
-1.693, 6.876e-3
-1.694, 6.924e-3
-1.695, 6.962e-3
-1.696, 7.001e-3
-1.697, 7.072e-3
-1.698, 7.112e-3
-1.699, 7.155e-3
-1.700, 7.152e-3
-1.699, 7.107e-3
-1.698, 7.055e-3
-1.697, 7.064e-3
-1.696, 7.005e-3
-1.695, 6.934e-3
-1.694, 6.878e-3
-1.693, 6.841e-3
-1.692, 6.769e-3
-1.691, 6.707e-3
-1.690, 6.653e-3
-1.689, 6.602e-3
-1.688, 6.551e-3
-1.687, 6.472e-3
-1.686, 6.407e-3
-1.685, 6.365e-3
-1.684, 6.322e-3
-1.683, 6.272e-3
-1.682, 6.207e-3
-1.681, 6.137e-3
-1.680, 6.076e-3
-1.679, 6.035e-3
-1.678, 6.024e-3
-1.677, 5.979e-3
-1.676, 5.936e-3
-1.675, 5.891e-3
-1.674, 5.836e-3
-1.673, 5.775e-3
-1.672, 5.734e-3
-1.671, 5.669e-3
-1.670, 5.620e-3
-1.669, 5.584e-3
-1.668, 5.540e-3
-1.667, 5.490e-3
-1.666, 5.461e-3
-1.665, 5.415e-3
-1.664, 5.350e-3
-1.663, 5.308e-3
-1.662, 5.236e-3
-1.661, 5.171e-3
-1.660, 5.118e-3
-1.659, 5.082e-3
-1.658, 5.035e-3
-1.657, 4.983e-3
-1.656, 4.912e-3
-1.655, 4.864e-3
-1.654, 4.825e-3
-1.653, 4.767e-3
-1.652, 4.725e-3
-1.651, 4.685e-3
-1.650, 4.637e-3
-1.649, 4.587e-3
-1.648, 4.546e-3
-1.647, 4.502e-3
-1.646, 4.463e-3
-1.645, 4.420e-3
-1.644, 4.382e-3
-1.643, 4.329e-3
-1.642, 4.273e-3
-1.641, 4.241e-3
-1.640, 4.205e-3
-1.639, 4.167e-3
-1.638, 4.118e-3
-1.637, 4.063e-3
-1.636, 4.022e-3
-1.635, 3.984e-3
-1.634, 3.946e-3
-1.633, 3.913e-3
-1.632, 3.876e-3
-1.631, 3.846e-3
-1.630, 3.808e-3
-1.629, 3.767e-3
-1.628, 3.728e-3
-1.627, 3.695e-3
-1.626, 3.648e-3
-1.625, 3.648e-3
-1.624, 3.585e-3
-1.623, 3.541e-3
-1.622, 3.508e-3
-1.621, 3.469e-3
-1.620, 3.434e-3
-1.619, 3.407e-3
-1.618, 3.366e-3
-1.617, 3.323e-3
-1.616, 3.285e-3
-1.615, 3.241e-3
-1.614, 3.205e-3
-1.613, 3.167e-3
-1.612, 3.137e-3
-1.611, 3.102e-3
-1.610, 3.071e-3
-1.609, 3.034e-3
-1.608, 2.998e-3
-1.607, 2.967e-3
-1.606, 2.939e-3
-1.605, 2.916e-3
-1.604, 2.897e-3
-1.603, 2.861e-3
-1.602, 2.822e-3
-1.601, 2.783e-3
-1.600, 2.749e-3
-1.599, 2.723e-3
-1.598, 2.695e-3
-1.597, 2.679e-3
-1.596, 2.645e-3
-1.595, 2.601e-3
-1.594, 2.573e-3
-1.593, 2.540e-3
-1.592, 2.510e-3
-1.591, 2.482e-3
-1.590, 2.457e-3
-1.589, 2.430e-3
-1.588, 2.415e-3
-1.587, 2.378e-3
-1.586, 2.348e-3
-1.585, 2.321e-3
-1.584, 2.293e-3
-1.583, 2.263e-3
-1.582, 2.238e-3
-1.581, 2.206e-3
-1.580, 2.180e-3
-1.579, 2.158e-3
-1.578, 2.134e-3
-1.577, 2.108e-3
-1.576, 2.086e-3
-1.575, 2.059e-3
-1.574, 2.030e-3
-1.573, 2.000e-3
-1.572, 1.972e-3
-1.571, 1.952e-3
-1.570, 1.925e-3
-1.569, 1.906e-3
-1.568, 1.883e-3
-1.567, 1.860e-3
-1.566, 1.835e-3
-1.565, 1.808e-3
-1.564, 1.784e-3
-1.563, 1.759e-3
-1.562, 1.738e-3
-1.561, 1.718e-3
-1.560, 1.696e-3
-1.559, 1.674e-3
-1.558, 1.656e-3
-1.557, 1.639e-3
-1.556, 1.618e-3
-1.555, 1.596e-3
-1.554, 1.574e-3
-1.553, 1.554e-3
-1.552, 1.533e-3
-1.551, 1.513e-3
-1.550, 1.494e-3
-1.549, 1.474e-3
-1.548, 1.457e-3
-1.547, 1.436e-3
-1.546, 1.417e-3
-1.545, 1.403e-3
-1.544, 1.389e-3
-1.543, 1.365e-3
-1.542, 1.346e-3
-1.541, 1.331e-3
-1.540, 1.316e-3
-1.539, 1.298e-3
-1.538, 1.281e-3
-1.537, 1.262e-3
-1.536, 1.245e-3
-1.535, 1.233e-3
-1.534, 1.215e-3
-1.533, 1.199e-3
-1.532, 1.184e-3
-1.531, 1.169e-3
-1.530, 1.154e-3
-1.529, 1.140e-3
-1.528, 1.123e-3
-1.527, 1.107e-3
-1.526, 1.095e-3
-1.525, 1.084e-3
-1.524, 1.069e-3
-1.523, 1.054e-3
-1.522, 1.041e-3
-1.521, 1.026e-3
-1.520, 1.012e-3
-1.519, 9.979e-4
-1.518, 9.894e-4
-1.517, 9.796e-4
-1.516, 9.667e-4
-1.515, 9.537e-4
-1.514, 9.418e-4
-1.513, 9.266e-4
-1.512, 9.126e-4
-1.511, 8.999e-4
-1.510, 8.889e-4
-1.509, 8.784e-4
-1.508, 8.674e-4
-1.507, 8.544e-4
-1.506, 8.412e-4
-1.505, 8.296e-4
-1.504, 8.172e-4
-1.503, 8.052e-4
-1.502, 7.940e-4
-1.501, 7.854e-4
-1.500, 7.760e-4
-1.499, 7.658e-4
-1.498, 7.545e-4
-1.497, 7.417e-4
-1.496, 7.337e-4
-1.495, 7.235e-4
-1.494, 7.126e-4
-1.493, 7.019e-4
-1.492, 6.922e-4
-1.491, 6.836e-4
-1.490, 6.740e-4
-1.489, 6.640e-4
-1.488, 6.542e-4
-1.487, 6.449e-4
-1.486, 6.360e-4
-1.485, 6.277e-4
-1.484, 6.187e-4
-1.483, 6.102e-4
-1.482, 6.020e-4
-1.481, 5.931e-4
-1.480, 5.841e-4
-1.479, 5.754e-4
-1.478, 5.666e-4
-1.477, 5.586e-4
-1.476, 5.506e-4
-1.475, 5.425e-4
-1.474, 5.349e-4
-1.473, 5.268e-4
-1.472, 5.185e-4
-1.471, 5.120e-4
-1.470, 5.039e-4
-1.469, 4.964e-4
-1.468, 4.897e-4
-1.467, 4.824e-4
-1.466, 4.764e-4
-1.465, 4.686e-4
-1.464, 4.624e-4
-1.463, 4.552e-4
-1.462, 4.479e-4
-1.461, 4.416e-4
-1.460, 4.351e-4
-1.459, 4.284e-4
-1.458, 4.218e-4
-1.457, 4.153e-4
-1.456, 4.093e-4
-1.455, 4.025e-4
-1.454, 3.967e-4
-1.453, 3.901e-4
-1.452, 3.844e-4
-1.451, 3.790e-4
-1.450, 3.733e-4
-1.449, 3.665e-4
-1.448, 3.608e-4
-1.447, 3.553e-4
-1.446, 3.500e-4
-1.445, 3.447e-4
-1.444, 3.395e-4
-1.443, 3.329e-4
-1.442, 3.282e-4
-1.441, 3.230e-4
-1.440, 3.181e-4
-1.439, 3.130e-4
-1.438, 3.075e-4
-1.437, 3.028e-4
-1.436, 2.978e-4
-1.435, 2.934e-4
-1.434, 2.893e-4
-1.433, 2.840e-4
-1.432, 2.792e-4
-1.431, 2.750e-4
-1.430, 2.705e-4
-1.429, 2.659e-4
-1.428, 2.612e-4
-1.427, 2.567e-4
-1.426, 2.532e-4
-1.425, 2.488e-4
-1.424, 2.446e-4
-1.423, 2.402e-4
-1.422, 2.359e-4
-1.421, 2.327e-4
-1.420, 2.286e-4
-1.419, 2.249e-4
-1.418, 2.205e-4
-1.417, 2.166e-4
-1.416, 2.133e-4
-1.415, 2.097e-4
-1.414, 2.058e-4
-1.413, 2.020e-4
-1.412, 1.986e-4
-1.411, 1.951e-4
-1.410, 1.920e-4
-1.409, 1.884e-4
-1.408, 1.846e-4
-1.407, 1.813e-4
-1.406, 1.783e-4
-1.405, 1.755e-4
-1.404, 1.721e-4
-1.403, 1.686e-4
-1.402, 1.656e-4
-1.401, 1.627e-4
-1.400, 1.601e-4
-1.399, 1.570e-4
-1.398, 1.537e-4
-1.397, 1.510e-4
-1.396, 1.487e-4
-1.395, 1.458e-4
-1.394, 1.431e-4
-1.393, 1.399e-4
-1.392, 1.375e-4
-1.391, 1.353e-4
-1.390, 1.327e-4
-1.389, 1.302e-4
-1.388, 1.273e-4
-1.387, 1.248e-4
-1.386, 1.229e-4
-1.385, 1.205e-4
-1.384, 1.181e-4
-1.383, 1.154e-4
-1.382, 1.131e-4
-1.381, 1.112e-4
-1.380, 1.092e-4
-1.379, 1.069e-4
-1.378, 1.043e-4
-1.377, 1.024e-4
-1.376, 1.007e-4
-1.375, 9.865e-5
-1.374, 9.649e-5
-1.373, 9.414e-5
-1.372, 9.233e-5
-1.371, 9.067e-5
-1.370, 8.896e-5
-1.369, 8.690e-5
-1.368, 8.474e-5
-1.367, 8.302e-5
-1.366, 8.153e-5
-1.365, 7.999e-5
-1.364, 7.812e-5
-1.363, 7.593e-5
-1.362, 7.456e-5
-1.361, 7.311e-5
-1.360, 7.182e-5
-1.359, 6.982e-5
-1.358, 6.784e-5
-1.357, 6.664e-5
-1.356, 6.545e-5
-1.355, 6.395e-5
-1.354, 6.242e-5
-1.353, 6.036e-5
-1.352, 5.939e-5
-1.351, 5.830e-5
-1.350, 5.706e-5
-1.349, 5.559e-5
-1.348, 5.394e-5
-1.347, 5.271e-5
-1.346, 5.195e-5
-1.345, 5.065e-5
-1.344, 4.935e-5
-1.343, 4.817e-5
-1.342, 4.658e-5
-1.341, 4.613e-5
-1.340, 4.528e-5
-1.339, 4.395e-5
-1.338, 4.264e-5
-1.337, 4.153e-5
-1.336, 4.095e-5
-1.335, 4.004e-5
-1.334, 3.875e-5
-1.333, 3.749e-5
-1.332, 3.655e-5
-1.331, 3.602e-5
-1.330, 3.521e-5
-1.329, 3.387e-5
-1.328, 3.263e-5
-1.327, 3.198e-5
-1.326, 3.130e-5
-1.325, 3.062e-5
-1.324, 2.950e-5
-1.323, 2.825e-5
-1.322, 2.764e-5
-1.321, 2.714e-5
-1.320, 2.646e-5
-1.319, 2.535e-5
-1.318, 2.430e-5
-1.317, 2.370e-5
-1.316, 2.327e-5
-1.315, 2.263e-5
-1.314, 2.162e-5
-1.313, 2.055e-5
-1.312, 2.010e-5
-1.311, 1.975e-5
-1.310, 1.920e-5
-1.309, 1.823e-5
-1.308, 1.725e-5
-1.307, 1.671e-5
-1.306, 1.651e-5
-1.305, 1.597e-5
-1.304, 1.512e-5
-1.303, 1.431e-5
-1.302, 1.376e-5
-1.301, 1.376e-5
-1.300, 1.313e-5
-1.299, 1.232e-5
-1.298, 1.158e-5
-1.297, 1.115e-5
-1.296, 1.107e-5
-1.295, 1.066e-5
-1.294, 9.725e-6
-1.293, 9.066e-6
-1.292, 8.753e-6
-1.291, 8.657e-6
-1.290, 8.334e-6
-1.289, 7.472e-6
-1.288, 6.877e-6
-1.287, 6.622e-6
-1.286, 6.474e-6
-1.285, 6.258e-6
-1.284, 5.491e-6
-1.283, 4.808e-6
-1.282, 4.585e-6
-1.281, 4.559e-6
-1.280, 4.260e-6
-1.279, 3.584e-6
-1.278, 3.040e-6
-1.277, 2.867e-6
-1.276, 2.800e-6
-1.275, 2.526e-6
-1.274, 1.810e-6
-1.273, 1.384e-6
-1.272, 1.168e-6
-1.271, 1.289e-6
-1.270, 9.982e-7
-1.269, 3.254e-7
-1.268, -1.058e-7
-1.267, -3.603e-7
-1.266, -2.123e-7
-1.265, -4.086e-7
-1.264, -1.065e-6
-1.263, -1.449e-6
-1.262, -1.714e-6
-1.261, -1.535e-6
-1.260, -1.671e-6
-1.259, -2.381e-6
-1.258, -2.679e-6
-1.257, -2.871e-6
-1.256, -2.745e-6
-1.255, -2.829e-6
-1.254, -3.504e-6
-1.253, -3.810e-6
-1.252, -3.917e-6
-1.251, -3.838e-6
-1.250, -3.847e-6
-1.249, -4.452e-6
-1.248, -4.782e-6
-1.247, -4.861e-6
-1.246, -4.693e-6
-1.245, -4.770e-6
-1.244, -5.455e-6
-1.243, -5.771e-6
-1.242, -5.724e-6
-1.241, -5.660e-6
-1.240, -5.620e-6
-1.239, -6.216e-6
-1.238, -6.586e-6
-1.237, -6.536e-6
-1.236, -6.298e-6
-1.235, -6.386e-6
-1.234, -6.901e-6
-1.233, -7.362e-6
-1.232, -7.311e-6
-1.231, -7.017e-6
-1.230, -7.129e-6
-1.229, -7.897e-6
-1.228, -7.886e-6
-1.227, -8.057e-6
-1.226, -7.712e-6
-1.225, -7.775e-6
-1.224, -8.324e-6
-1.223, -8.539e-6
-1.222, -8.628e-6
-1.221, -8.318e-6
-1.220, -8.389e-6
-1.219, -8.938e-6
-1.218, -9.089e-6
-1.217, -9.214e-6
-1.216, -8.870e-6
-1.215, -8.940e-6
-1.214, -9.480e-6
-1.213, -9.545e-6
-1.212, -9.588e-6
-1.211, -9.383e-6
-1.210, -9.315e-6
-1.209, -9.961e-6
-1.208, -1.008e-5
-1.207, -1.000e-5
-1.206, -9.802e-6
-1.205, -9.779e-6
-1.204, -1.032e-5
-1.203, -1.054e-5
-1.202, -1.051e-5
-1.201, -1.027e-5
-1.200, -1.018e-5
-1.199, -1.067e-5
-1.198, -1.100e-5
-1.197, -1.090e-5
-1.196, -1.059e-5
-1.195, -1.074e-5
-1.194, -1.119e-5
-1.193, -1.126e-5
-1.192, -1.133e-5
-1.191, -1.100e-5
-1.190, -1.108e-5
-1.189, -1.153e-5
-1.188, -1.172e-5
-1.187, -1.171e-5
-1.186, -1.140e-5
-1.185, -1.144e-5
-1.184, -1.202e-5
-1.183, -1.205e-5
-1.182, -1.209e-5
-1.181, -1.178e-5
-1.180, -1.179e-5
-1.179, -1.244e-5
-1.178, -1.246e-5
-1.177, -1.245e-5
-1.176, -1.218e-5
-1.175, -1.213e-5
-1.174, -1.275e-5
-1.173, -1.280e-5
-1.172, -1.277e-5
-1.171, -1.260e-5
-1.170, -1.262e-5
-1.169, -1.315e-5
-1.168, -1.314e-5
-1.167, -1.315e-5
-1.166, -1.306e-5
-1.165, -1.292e-5
-1.164, -1.355e-5
-1.163, -1.364e-5
-1.162, -1.353e-5
-1.161, -1.341e-5
-1.160, -1.333e-5
-1.159, -1.374e-5
-1.158, -1.409e-5
-1.157, -1.391e-5
-1.156, -1.371e-5
-1.155, -1.376e-5
-1.154, -1.410e-5
-1.153, -1.444e-5
-1.152, -1.432e-5
-1.151, -1.401e-5
-1.150, -1.417e-5
-1.149, -1.456e-5
-1.148, -1.472e-5
-1.147, -1.468e-5
-1.146, -1.447e-5
-1.145, -1.453e-5
-1.144, -1.492e-5
-1.143, -1.505e-5
-1.142, -1.508e-5
-1.141, -1.479e-5
-1.140, -1.482e-5
-1.139, -1.534e-5
-1.138, -1.545e-5
-1.137, -1.541e-5
-1.136, -1.511e-5
-1.135, -1.519e-5
-1.134, -1.562e-5
-1.133, -1.584e-5
-1.132, -1.564e-5
-1.131, -1.558e-5
-1.130, -1.555e-5
-1.129, -1.594e-5
-1.128, -1.615e-5
-1.127, -1.609e-5
-1.126, -1.588e-5
-1.125, -1.581e-5
-1.124, -1.620e-5
-1.123, -1.652e-5
-1.122, -1.643e-5
-1.121, -1.620e-5
-1.120, -1.617e-5
-1.119, -1.655e-5
-1.118, -1.682e-5
-1.117, -1.666e-5
-1.116, -1.645e-5
-1.115, -1.654e-5
-1.114, -1.688e-5
-1.113, -1.722e-5
-1.112, -1.691e-5
-1.111, -1.675e-5
-1.110, -1.691e-5
-1.109, -1.709e-5
-1.108, -1.749e-5
-1.107, -1.734e-5
-1.106, -1.704e-5
-1.105, -1.715e-5
-1.104, -1.739e-5
-1.103, -1.775e-5
-1.102, -1.770e-5
-1.101, -1.732e-5
-1.100, -1.741e-5
-1.099, -1.783e-5
-1.098, -1.803e-5
-1.097, -1.797e-5
-1.096, -1.762e-5
-1.095, -1.768e-5
-1.094, -1.808e-5
-1.093, -1.827e-5
-1.092, -1.817e-5
-1.091, -1.798e-5
-1.090, -1.792e-5
-1.089, -1.834e-5
-1.088, -1.864e-5
-1.087, -1.844e-5
-1.086, -1.823e-5
-1.085, -1.827e-5
-1.084, -1.856e-5
-1.083, -1.895e-5
-1.082, -1.873e-5
-1.081, -1.851e-5
-1.080, -1.855e-5
-1.079, -1.884e-5
-1.078, -1.923e-5
-1.077, -1.900e-5
-1.076, -1.881e-5
-1.075, -1.888e-5
-1.074, -1.918e-5
-1.073, -1.953e-5
-1.072, -1.931e-5
-1.071, -1.904e-5
-1.070, -1.920e-5
-1.069, -1.947e-5
-1.068, -1.975e-5
-1.067, -1.970e-5
-1.066, -1.940e-5
-1.065, -1.955e-5
-1.064, -1.987e-5
-1.063, -2.007e-5
-1.062, -2.002e-5
-1.061, -1.975e-5
-1.060, -1.986e-5
-1.059, -2.022e-5
-1.058, -2.051e-5
-1.057, -2.036e-5
-1.056, -2.008e-5
-1.055, -2.022e-5
-1.054, -2.061e-5
-1.053, -2.088e-5
-1.052, -2.066e-5
-1.051, -2.056e-5
-1.050, -2.066e-5
-1.049, -2.101e-5
-1.048, -2.124e-5
-1.047, -2.118e-5
-1.046, -2.099e-5
-1.045, -2.096e-5
-1.044, -2.141e-5
-1.043, -2.171e-5
-1.042, -2.154e-5
-1.041, -2.143e-5
-1.040, -2.148e-5
-1.039, -2.191e-5
-1.038, -2.222e-5
-1.037, -2.207e-5
-1.036, -2.185e-5
-1.035, -2.210e-5
-1.034, -2.236e-5
-1.033, -2.285e-5
-1.032, -2.264e-5
-1.031, -2.246e-5
-1.030, -2.270e-5
-1.029, -2.300e-5
-1.028, -2.334e-5
-1.027, -2.332e-5
-1.026, -2.306e-5
-1.025, -2.326e-5
-1.024, -2.376e-5
-1.023, -2.408e-5
-1.022, -2.399e-5
-1.021, -2.381e-5
-1.020, -2.391e-5
-1.019, -2.449e-5
-1.018, -2.475e-5
-1.017, -2.473e-5
-1.016, -2.449e-5
-1.015, -2.469e-5
-1.014, -2.531e-5
-1.013, -2.557e-5
-1.012, -2.552e-5
-1.011, -2.540e-5
-1.010, -2.560e-5
-1.009, -2.618e-5
-1.008, -2.644e-5
-1.007, -2.648e-5
-1.006, -2.637e-5
-1.005, -2.653e-5
-1.004, -2.711e-5
-1.003, -2.752e-5
-1.002, -2.746e-5
-1.001, -2.747e-5
