Oct. 1, 2024   05:15:21
Cyclic Voltammetry
File: c:/users/guazh/data/20240922_batch_417_500/2024-09-22-exp497\exp497-2024-10-01t04_55_08-h2koh\exp497_cv_sr_800mvs_efin_-1700mv.bin
Data Source:  Experiment
Instrument Model:  CHI760E
Header: CV ran at 800 mVs
Note: 

Init E (V) = -1
High E (V) = -1
Low E (V) = -1.7
Final E (V) = -1
Init P/N = N
Scan Rate (V/s) = 0.8
Segment = 3
Sample Interval (V) = 0.001
Quiet Time (sec) = 2
Sensitivity (A/V) = 0.01
Comp R (ohm) = 2.3

Results:

Channel 1:
Segment 1:

Segment 2:

Segment 3:

Potential/V, Current/A

-1.000, 2.174e-5
-1.001, 5.873e-5
-1.002, 7.723e-5
-1.003, 8.648e-5
-1.004, 9.265e-5
-1.005, 9.573e-5
-1.006, 9.573e-5
-1.007, 9.882e-5
-1.008, 9.882e-5
-1.009, 9.882e-5
-1.010, 1.019e-4
-1.011, 1.050e-4
-1.012, 1.050e-4
-1.013, 1.050e-4
-1.014, 1.050e-4
-1.015, 1.081e-4
-1.016, 1.081e-4
-1.017, 1.050e-4
-1.018, 1.050e-4
-1.019, 1.019e-4
-1.020, 1.019e-4
-1.021, 1.050e-4
-1.022, 1.050e-4
-1.023, 1.050e-4
-1.024, 1.081e-4
-1.025, 1.050e-4
-1.026, 1.111e-4
-1.027, 1.081e-4
-1.028, 1.111e-4
-1.029, 1.111e-4
-1.030, 1.081e-4
-1.031, 1.081e-4
-1.032, 1.081e-4
-1.033, 1.111e-4
-1.034, 1.111e-4
-1.035, 1.111e-4
-1.036, 1.111e-4
-1.037, 1.142e-4
-1.038, 1.142e-4
-1.039, 1.142e-4
-1.040, 1.142e-4
-1.041, 1.142e-4
-1.042, 1.142e-4
-1.043, 1.142e-4
-1.044, 1.142e-4
-1.045, 1.142e-4
-1.046, 1.111e-4
-1.047, 1.111e-4
-1.048, 1.111e-4
-1.049, 1.111e-4
-1.050, 1.142e-4
-1.051, 1.142e-4
-1.052, 1.142e-4
-1.053, 1.142e-4
-1.054, 1.111e-4
-1.055, 1.142e-4
-1.056, 1.142e-4
-1.057, 1.142e-4
-1.058, 1.111e-4
-1.059, 1.111e-4
-1.060, 1.111e-4
-1.061, 1.111e-4
-1.062, 1.111e-4
-1.063, 1.111e-4
-1.064, 1.142e-4
-1.065, 1.142e-4
-1.066, 1.173e-4
-1.067, 1.173e-4
-1.068, 1.173e-4
-1.069, 1.173e-4
-1.070, 1.142e-4
-1.071, 1.142e-4
-1.072, 1.142e-4
-1.073, 1.142e-4
-1.074, 1.142e-4
-1.075, 1.142e-4
-1.076, 1.111e-4
-1.077, 1.173e-4
-1.078, 1.173e-4
-1.079, 1.204e-4
-1.080, 1.173e-4
-1.081, 1.173e-4
-1.082, 1.173e-4
-1.083, 1.173e-4
-1.084, 1.173e-4
-1.085, 1.173e-4
-1.086, 1.142e-4
-1.087, 1.142e-4
-1.088, 1.142e-4
-1.089, 1.142e-4
-1.090, 1.173e-4
-1.091, 1.173e-4
-1.092, 1.204e-4
-1.093, 1.173e-4
-1.094, 1.173e-4
-1.095, 1.204e-4
-1.096, 1.204e-4
-1.097, 1.173e-4
-1.098, 1.173e-4
-1.099, 1.173e-4
-1.100, 1.173e-4
-1.101, 1.173e-4
-1.102, 1.204e-4
-1.103, 1.173e-4
-1.104, 1.204e-4
-1.105, 1.204e-4
-1.106, 1.204e-4
-1.107, 1.204e-4
-1.108, 1.235e-4
-1.109, 1.235e-4
-1.110, 1.173e-4
-1.111, 1.173e-4
-1.112, 1.173e-4
-1.113, 1.204e-4
-1.114, 1.204e-4
-1.115, 1.204e-4
-1.116, 1.173e-4
-1.117, 1.204e-4
-1.118, 1.204e-4
-1.119, 1.235e-4
-1.120, 1.235e-4
-1.121, 1.235e-4
-1.122, 1.235e-4
-1.123, 1.235e-4
-1.124, 1.235e-4
-1.125, 1.235e-4
-1.126, 1.235e-4
-1.127, 1.204e-4
-1.128, 1.235e-4
-1.129, 1.235e-4
-1.130, 1.266e-4
-1.131, 1.266e-4
-1.132, 1.266e-4
-1.133, 1.266e-4
-1.134, 1.266e-4
-1.135, 1.266e-4
-1.136, 1.296e-4
-1.137, 1.235e-4
-1.138, 1.266e-4
-1.139, 1.235e-4
-1.140, 1.266e-4
-1.141, 1.235e-4
-1.142, 1.266e-4
-1.143, 1.266e-4
-1.144, 1.266e-4
-1.145, 1.266e-4
-1.146, 1.296e-4
-1.147, 1.296e-4
-1.148, 1.327e-4
-1.149, 1.327e-4
-1.150, 1.266e-4
-1.151, 1.296e-4
-1.152, 1.266e-4
-1.153, 1.296e-4
-1.154, 1.296e-4
-1.155, 1.296e-4
-1.156, 1.296e-4
-1.157, 1.327e-4
-1.158, 1.296e-4
-1.159, 1.327e-4
-1.160, 1.358e-4
-1.161, 1.358e-4
-1.162, 1.327e-4
-1.163, 1.358e-4
-1.164, 1.358e-4
-1.165, 1.358e-4
-1.166, 1.358e-4
-1.167, 1.327e-4
-1.168, 1.327e-4
-1.169, 1.358e-4
-1.170, 1.358e-4
-1.171, 1.389e-4
-1.172, 1.389e-4
-1.173, 1.389e-4
-1.174, 1.389e-4
-1.175, 1.389e-4
-1.176, 1.389e-4
-1.177, 1.389e-4
-1.178, 1.389e-4
-1.179, 1.389e-4
-1.180, 1.358e-4
-1.181, 1.389e-4
-1.182, 1.389e-4
-1.183, 1.420e-4
-1.184, 1.420e-4
-1.185, 1.420e-4
-1.186, 1.420e-4
-1.187, 1.451e-4
-1.188, 1.451e-4
-1.189, 1.481e-4
-1.190, 1.420e-4
-1.191, 1.451e-4
-1.192, 1.420e-4
-1.193, 1.451e-4
-1.194, 1.451e-4
-1.195, 1.451e-4
-1.196, 1.451e-4
-1.197, 1.481e-4
-1.198, 1.481e-4
-1.199, 1.481e-4
-1.200, 1.512e-4
-1.201, 1.512e-4
-1.202, 1.481e-4
-1.203, 1.512e-4
-1.204, 1.512e-4
-1.205, 1.512e-4
-1.206, 1.512e-4
-1.207, 1.512e-4
-1.208, 1.512e-4
-1.209, 1.512e-4
-1.210, 1.543e-4
-1.211, 1.543e-4
-1.212, 1.574e-4
-1.213, 1.574e-4
-1.214, 1.543e-4
-1.215, 1.574e-4
-1.216, 1.574e-4
-1.217, 1.574e-4
-1.218, 1.574e-4
-1.219, 1.574e-4
-1.220, 1.574e-4
-1.221, 1.574e-4
-1.222, 1.574e-4
-1.223, 1.605e-4
-1.224, 1.605e-4
-1.225, 1.605e-4
-1.226, 1.636e-4
-1.227, 1.636e-4
-1.228, 1.666e-4
-1.229, 1.666e-4
-1.230, 1.636e-4
-1.231, 1.666e-4
-1.232, 1.666e-4
-1.233, 1.666e-4
-1.234, 1.666e-4
-1.235, 1.666e-4
-1.236, 1.666e-4
-1.237, 1.697e-4
-1.238, 1.697e-4
-1.239, 1.728e-4
-1.240, 1.728e-4
-1.241, 1.728e-4
-1.242, 1.728e-4
-1.243, 1.728e-4
-1.244, 1.759e-4
-1.245, 1.790e-4
-1.246, 1.759e-4
-1.247, 1.759e-4
-1.248, 1.790e-4
-1.249, 1.790e-4
-1.250, 1.851e-4
-1.251, 1.851e-4
-1.252, 1.882e-4
-1.253, 1.851e-4
-1.254, 1.882e-4
-1.255, 1.882e-4
-1.256, 1.913e-4
-1.257, 1.882e-4
-1.258, 1.882e-4
-1.259, 1.882e-4
-1.260, 1.882e-4
-1.261, 1.882e-4
-1.262, 1.913e-4
-1.263, 1.913e-4
-1.264, 1.944e-4
-1.265, 1.913e-4
-1.266, 1.975e-4
-1.267, 1.975e-4
-1.268, 2.006e-4
-1.269, 2.006e-4
-1.270, 1.975e-4
-1.271, 2.006e-4
-1.272, 2.006e-4
-1.273, 2.006e-4
-1.274, 2.006e-4
-1.275, 2.036e-4
-1.276, 2.036e-4
-1.277, 2.067e-4
-1.278, 2.067e-4
-1.279, 2.129e-4
-1.280, 2.160e-4
-1.281, 2.191e-4
-1.282, 2.191e-4
-1.283, 2.191e-4
-1.284, 2.191e-4
-1.285, 2.221e-4
-1.286, 2.252e-4
-1.287, 2.221e-4
-1.288, 2.252e-4
-1.289, 2.252e-4
-1.290, 2.283e-4
-1.291, 2.283e-4
-1.292, 2.345e-4
-1.293, 2.345e-4
-1.294, 2.345e-4
-1.295, 2.376e-4
-1.296, 2.406e-4
-1.297, 2.406e-4
-1.298, 2.406e-4
-1.299, 2.406e-4
-1.300, 2.406e-4
-1.301, 2.437e-4
-1.302, 2.468e-4
-1.303, 2.468e-4
-1.304, 2.468e-4
-1.305, 2.499e-4
-1.306, 2.561e-4
-1.307, 2.591e-4
-1.308, 2.622e-4
-1.309, 2.653e-4
-1.310, 2.653e-4
-1.311, 2.684e-4
-1.312, 2.684e-4
-1.313, 2.715e-4
-1.314, 2.746e-4
-1.315, 2.776e-4
-1.316, 2.807e-4
-1.317, 2.838e-4
-1.318, 2.869e-4
-1.319, 2.931e-4
-1.320, 2.931e-4
-1.321, 2.961e-4
-1.322, 2.992e-4
-1.323, 3.023e-4
-1.324, 3.023e-4
-1.325, 3.054e-4
-1.326, 3.054e-4
-1.327, 3.085e-4
-1.328, 3.115e-4
-1.329, 3.115e-4
-1.330, 3.177e-4
-1.331, 3.208e-4
-1.332, 3.270e-4
-1.333, 3.270e-4
-1.334, 3.300e-4
-1.335, 3.362e-4
-1.336, 3.393e-4
-1.337, 3.393e-4
-1.338, 3.424e-4
-1.339, 3.455e-4
-1.340, 3.485e-4
-1.341, 3.516e-4
-1.342, 3.578e-4
-1.343, 3.578e-4
-1.344, 3.640e-4
-1.345, 3.701e-4
-1.346, 3.763e-4
-1.347, 3.794e-4
-1.348, 3.855e-4
-1.349, 3.886e-4
-1.350, 3.917e-4
-1.351, 3.948e-4
-1.352, 3.979e-4
-1.353, 4.010e-4
-1.354, 4.071e-4
-1.355, 4.102e-4
-1.356, 4.133e-4
-1.357, 4.195e-4
-1.358, 4.225e-4
-1.359, 4.318e-4
-1.360, 4.349e-4
-1.361, 4.380e-4
-1.362, 4.441e-4
-1.363, 4.472e-4
-1.364, 4.503e-4
-1.365, 4.565e-4
-1.366, 4.595e-4
-1.367, 4.626e-4
-1.368, 4.688e-4
-1.369, 4.719e-4
-1.370, 4.780e-4
-1.371, 4.842e-4
-1.372, 4.904e-4
-1.373, 4.935e-4
-1.374, 4.996e-4
-1.375, 5.058e-4
-1.376, 5.120e-4
-1.377, 5.181e-4
-1.378, 5.212e-4
-1.379, 5.243e-4
-1.380, 5.305e-4
-1.381, 5.366e-4
-1.382, 5.428e-4
-1.383, 5.489e-4
-1.384, 5.551e-4
-1.385, 5.582e-4
-1.386, 5.674e-4
-1.387, 5.767e-4
-1.388, 5.829e-4
-1.389, 5.921e-4
-1.390, 5.952e-4
-1.391, 6.014e-4
-1.392, 6.044e-4
-1.393, 6.137e-4
-1.394, 6.199e-4
-1.395, 6.260e-4
-1.396, 6.322e-4
-1.397, 6.384e-4
-1.398, 6.445e-4
-1.399, 6.538e-4
-1.400, 6.630e-4
-1.401, 6.661e-4
-1.402, 6.754e-4
-1.403, 6.815e-4
-1.404, 6.877e-4
-1.405, 6.969e-4
-1.406, 7.000e-4
-1.407, 7.062e-4
-1.408, 7.124e-4
-1.409, 7.185e-4
-1.410, 7.278e-4
-1.411, 7.370e-4
-1.412, 7.463e-4
-1.413, 7.524e-4
-1.414, 7.617e-4
-1.415, 7.740e-4
-1.416, 7.833e-4
-1.417, 7.925e-4
-1.418, 7.987e-4
-1.419, 8.079e-4
-1.420, 8.141e-4
-1.421, 8.233e-4
-1.422, 8.326e-4
-1.423, 8.388e-4
-1.424, 8.480e-4
-1.425, 8.542e-4
-1.426, 8.634e-4
-1.427, 8.727e-4
-1.428, 8.819e-4
-1.429, 8.912e-4
-1.430, 9.004e-4
-1.431, 9.097e-4
-1.432, 9.158e-4
-1.433, 9.251e-4
-1.434, 9.343e-4
-1.435, 9.405e-4
-1.436, 9.467e-4
-1.437, 9.559e-4
-1.438, 9.652e-4
-1.439, 9.775e-4
-1.440, 9.898e-4
-1.441, 1.002e-3
-1.442, 1.011e-3
-1.443, 1.027e-3
-1.444, 1.039e-3
-1.445, 1.048e-3
-1.446, 1.058e-3
-1.447, 1.070e-3
-1.448, 1.079e-3
-1.449, 1.088e-3
-1.450, 1.101e-3
-1.451, 1.116e-3
-1.452, 1.132e-3
-1.453, 1.144e-3
-1.454, 1.153e-3
-1.455, 1.169e-3
-1.456, 1.181e-3
-1.457, 1.187e-3
-1.458, 1.196e-3
-1.459, 1.203e-3
-1.460, 1.215e-3
-1.461, 1.224e-3
-1.462, 1.233e-3
-1.463, 1.243e-3
-1.464, 1.255e-3
-1.465, 1.264e-3
-1.466, 1.277e-3
-1.467, 1.289e-3
-1.468, 1.301e-3
-1.469, 1.317e-3
-1.470, 1.323e-3
-1.471, 1.335e-3
-1.472, 1.344e-3
-1.473, 1.357e-3
-1.474, 1.369e-3
-1.475, 1.381e-3
-1.476, 1.391e-3
-1.477, 1.406e-3
-1.478, 1.421e-3
-1.479, 1.440e-3
-1.480, 1.455e-3
-1.481, 1.471e-3
-1.482, 1.486e-3
-1.483, 1.502e-3
-1.484, 1.517e-3
-1.485, 1.529e-3
-1.486, 1.542e-3
-1.487, 1.554e-3
-1.488, 1.563e-3
-1.489, 1.576e-3
-1.490, 1.591e-3
-1.491, 1.603e-3
-1.492, 1.619e-3
-1.493, 1.631e-3
-1.494, 1.640e-3
-1.495, 1.659e-3
-1.496, 1.671e-3
-1.497, 1.680e-3
-1.498, 1.693e-3
-1.499, 1.702e-3
-1.500, 1.714e-3
-1.501, 1.727e-3
-1.502, 1.739e-3
-1.503, 1.754e-3
-1.504, 1.767e-3
-1.505, 1.785e-3
-1.506, 1.804e-3
-1.507, 1.822e-3
-1.508, 1.844e-3
-1.509, 1.862e-3
-1.510, 1.875e-3
-1.511, 1.890e-3
-1.512, 1.906e-3
-1.513, 1.921e-3
-1.514, 1.939e-3
-1.515, 1.952e-3
-1.516, 1.967e-3
-1.517, 1.983e-3
-1.518, 1.998e-3
-1.519, 2.017e-3
-1.520, 2.035e-3
-1.521, 2.050e-3
-1.522, 2.066e-3
-1.523, 2.081e-3
-1.524, 2.094e-3
-1.525, 2.106e-3
-1.526, 2.121e-3
-1.527, 2.134e-3
-1.528, 2.146e-3
-1.529, 2.158e-3
-1.530, 2.174e-3
-1.531, 2.189e-3
-1.532, 2.211e-3
-1.533, 2.223e-3
-1.534, 2.242e-3
-1.535, 2.263e-3
-1.536, 2.285e-3
-1.537, 2.303e-3
-1.538, 2.322e-3
-1.539, 2.337e-3
-1.540, 2.356e-3
-1.541, 2.374e-3
-1.542, 2.393e-3
-1.543, 2.411e-3
-1.544, 2.433e-3
-1.545, 2.454e-3
-1.546, 2.473e-3
-1.547, 2.497e-3
-1.548, 2.516e-3
-1.549, 2.538e-3
-1.550, 2.553e-3
-1.551, 2.571e-3
-1.552, 2.587e-3
-1.553, 2.605e-3
-1.554, 2.624e-3
-1.555, 2.636e-3
-1.556, 2.655e-3
-1.557, 2.673e-3
-1.558, 2.692e-3
-1.559, 2.716e-3
-1.560, 2.738e-3
-1.561, 2.760e-3
-1.562, 2.781e-3
-1.563, 2.800e-3
-1.564, 2.821e-3
-1.565, 2.843e-3
-1.566, 2.864e-3
-1.567, 2.883e-3
-1.568, 2.901e-3
-1.569, 2.923e-3
-1.570, 2.948e-3
-1.571, 2.969e-3
-1.572, 2.994e-3
-1.573, 3.015e-3
-1.574, 3.037e-3
-1.575, 3.062e-3
-1.576, 3.083e-3
-1.577, 3.099e-3
-1.578, 3.120e-3
-1.579, 3.136e-3
-1.580, 3.154e-3
-1.581, 3.173e-3
-1.582, 3.188e-3
-1.583, 3.207e-3
-1.584, 3.225e-3
-1.585, 3.244e-3
-1.586, 3.268e-3
-1.587, 3.290e-3
-1.588, 3.314e-3
-1.589, 3.339e-3
-1.590, 3.358e-3
-1.591, 3.382e-3
-1.592, 3.404e-3
-1.593, 3.425e-3
-1.594, 3.450e-3
-1.595, 3.472e-3
-1.596, 3.490e-3
-1.597, 3.515e-3
-1.598, 3.543e-3
-1.599, 3.567e-3
-1.600, 3.592e-3
-1.601, 3.620e-3
-1.602, 3.647e-3
-1.603, 3.672e-3
-1.604, 3.697e-3
-1.605, 3.725e-3
-1.606, 3.749e-3
-1.607, 3.771e-3
-1.608, 3.792e-3
-1.609, 3.814e-3
-1.610, 3.842e-3
-1.611, 3.866e-3
-1.612, 3.894e-3
-1.613, 3.919e-3
-1.614, 3.947e-3
-1.615, 3.977e-3
-1.616, 4.008e-3
-1.617, 4.036e-3
-1.618, 4.064e-3
-1.619, 4.088e-3
-1.620, 4.113e-3
-1.621, 4.135e-3
-1.622, 4.156e-3
-1.623, 4.175e-3
-1.624, 4.196e-3
-1.625, 4.218e-3
-1.626, 4.243e-3
-1.627, 4.267e-3
-1.628, 4.298e-3
-1.629, 4.326e-3
-1.630, 4.354e-3
-1.631, 4.384e-3
-1.632, 4.412e-3
-1.633, 4.443e-3
-1.634, 4.474e-3
-1.635, 4.498e-3
-1.636, 4.523e-3
-1.637, 4.554e-3
-1.638, 4.591e-3
-1.639, 4.628e-3
-1.640, 4.665e-3
-1.641, 4.702e-3
-1.642, 4.742e-3
-1.643, 4.779e-3
-1.644, 4.813e-3
-1.645, 4.844e-3
-1.646, 4.871e-3
-1.647, 4.893e-3
-1.648, 4.912e-3
-1.649, 4.927e-3
-1.650, 4.945e-3
-1.651, 4.961e-3
-1.652, 4.979e-3
-1.653, 5.001e-3
-1.654, 5.026e-3
-1.655, 5.053e-3
-1.656, 5.081e-3
-1.657, 5.109e-3
-1.658, 5.140e-3
-1.659, 5.164e-3
-1.660, 5.189e-3
-1.661, 5.217e-3
-1.662, 5.251e-3
-1.663, 5.288e-3
-1.664, 5.331e-3
-1.665, 5.374e-3
-1.666, 5.417e-3
-1.667, 5.460e-3
-1.668, 5.494e-3
-1.669, 5.522e-3
-1.670, 5.541e-3
-1.671, 5.565e-3
-1.672, 5.590e-3
-1.673, 5.624e-3
-1.674, 5.661e-3
-1.675, 5.701e-3
-1.676, 5.741e-3
-1.677, 5.784e-3
-1.678, 5.830e-3
-1.679, 5.880e-3
-1.680, 5.935e-3
-1.681, 5.994e-3
-1.682, 6.049e-3
-1.683, 6.099e-3
-1.684, 6.148e-3
-1.685, 6.194e-3
-1.686, 6.234e-3
-1.687, 6.274e-3
-1.688, 6.311e-3
-1.689, 6.351e-3
-1.690, 6.398e-3
-1.691, 6.435e-3
-1.692, 6.475e-3
-1.693, 6.512e-3
-1.694, 6.549e-3
-1.695, 6.583e-3
-1.696, 6.617e-3
-1.697, 6.644e-3
-1.698, 6.666e-3
-1.699, 6.678e-3
-1.700, 6.641e-3
-1.699, 6.549e-3
-1.698, 6.472e-3
-1.697, 6.407e-3
-1.696, 6.351e-3
-1.695, 6.305e-3
-1.694, 6.268e-3
-1.693, 6.231e-3
-1.692, 6.194e-3
-1.691, 6.154e-3
-1.690, 6.108e-3
-1.689, 6.065e-3
-1.688, 6.021e-3
-1.687, 5.981e-3
-1.686, 5.947e-3
-1.685, 5.920e-3
-1.684, 5.889e-3
-1.683, 5.867e-3
-1.682, 5.843e-3
-1.681, 5.815e-3
-1.680, 5.784e-3
-1.679, 5.747e-3
-1.678, 5.704e-3
-1.677, 5.655e-3
-1.676, 5.602e-3
-1.675, 5.553e-3
-1.674, 5.500e-3
-1.673, 5.448e-3
-1.672, 5.402e-3
-1.671, 5.352e-3
-1.670, 5.312e-3
-1.669, 5.269e-3
-1.668, 5.229e-3
-1.667, 5.186e-3
-1.666, 5.146e-3
-1.665, 5.103e-3
-1.664, 5.060e-3
-1.663, 5.013e-3
-1.662, 4.970e-3
-1.661, 4.924e-3
-1.660, 4.881e-3
-1.659, 4.847e-3
-1.658, 4.813e-3
-1.657, 4.782e-3
-1.656, 4.754e-3
-1.655, 4.723e-3
-1.654, 4.696e-3
-1.653, 4.662e-3
-1.652, 4.628e-3
-1.651, 4.594e-3
-1.650, 4.551e-3
-1.649, 4.511e-3
-1.648, 4.468e-3
-1.647, 4.428e-3
-1.646, 4.391e-3
-1.645, 4.354e-3
-1.644, 4.320e-3
-1.643, 4.289e-3
-1.642, 4.252e-3
-1.641, 4.218e-3
-1.640, 4.181e-3
-1.639, 4.144e-3
-1.638, 4.101e-3
-1.637, 4.061e-3
-1.636, 4.017e-3
-1.635, 3.974e-3
-1.634, 3.937e-3
-1.633, 3.897e-3
-1.632, 3.860e-3
-1.631, 3.826e-3
-1.630, 3.799e-3
-1.629, 3.765e-3
-1.628, 3.737e-3
-1.627, 3.706e-3
-1.626, 3.675e-3
-1.625, 3.644e-3
-1.624, 3.614e-3
-1.623, 3.583e-3
-1.622, 3.549e-3
-1.621, 3.518e-3
-1.620, 3.484e-3
-1.619, 3.456e-3
-1.618, 3.432e-3
-1.617, 3.404e-3
-1.616, 3.376e-3
-1.615, 3.348e-3
-1.614, 3.321e-3
-1.613, 3.290e-3
-1.612, 3.259e-3
-1.611, 3.225e-3
-1.610, 3.188e-3
-1.609, 3.154e-3
-1.608, 3.117e-3
-1.607, 3.083e-3
-1.606, 3.049e-3
-1.605, 3.022e-3
-1.604, 2.991e-3
-1.603, 2.966e-3
-1.602, 2.935e-3
-1.601, 2.911e-3
-1.600, 2.880e-3
-1.599, 2.852e-3
-1.598, 2.821e-3
-1.597, 2.790e-3
-1.596, 2.763e-3
-1.595, 2.741e-3
-1.594, 2.716e-3
-1.593, 2.689e-3
-1.592, 2.667e-3
-1.591, 2.639e-3
-1.590, 2.618e-3
-1.589, 2.590e-3
-1.588, 2.565e-3
-1.587, 2.534e-3
-1.586, 2.507e-3
-1.585, 2.479e-3
-1.584, 2.451e-3
-1.583, 2.423e-3
-1.582, 2.396e-3
-1.581, 2.368e-3
-1.580, 2.340e-3
-1.579, 2.316e-3
-1.578, 2.294e-3
-1.577, 2.272e-3
-1.576, 2.248e-3
-1.575, 2.226e-3
-1.574, 2.201e-3
-1.573, 2.180e-3
-1.572, 2.158e-3
-1.571, 2.140e-3
-1.570, 2.115e-3
-1.569, 2.100e-3
-1.568, 2.081e-3
-1.567, 2.060e-3
-1.566, 2.041e-3
-1.565, 2.023e-3
-1.564, 2.001e-3
-1.563, 1.983e-3
-1.562, 1.961e-3
-1.561, 1.943e-3
-1.560, 1.921e-3
-1.559, 1.899e-3
-1.558, 1.878e-3
-1.557, 1.853e-3
-1.556, 1.835e-3
-1.555, 1.813e-3
-1.554, 1.795e-3
-1.553, 1.770e-3
-1.552, 1.748e-3
-1.551, 1.727e-3
-1.550, 1.708e-3
-1.549, 1.687e-3
-1.548, 1.671e-3
-1.547, 1.650e-3
-1.546, 1.631e-3
-1.545, 1.610e-3
-1.544, 1.591e-3
-1.543, 1.566e-3
-1.542, 1.548e-3
-1.541, 1.526e-3
-1.540, 1.505e-3
-1.539, 1.486e-3
-1.538, 1.471e-3
-1.537, 1.455e-3
-1.536, 1.440e-3
-1.535, 1.421e-3
-1.534, 1.406e-3
-1.533, 1.394e-3
-1.532, 1.378e-3
-1.531, 1.369e-3
-1.530, 1.354e-3
-1.529, 1.344e-3
-1.528, 1.332e-3
-1.527, 1.320e-3
-1.526, 1.310e-3
-1.525, 1.295e-3
-1.524, 1.280e-3
-1.523, 1.264e-3
-1.522, 1.249e-3
-1.521, 1.236e-3
-1.520, 1.221e-3
-1.519, 1.206e-3
-1.518, 1.190e-3
-1.517, 1.175e-3
-1.516, 1.159e-3
-1.515, 1.144e-3
-1.514, 1.129e-3
-1.513, 1.113e-3
-1.512, 1.098e-3
-1.511, 1.082e-3
-1.510, 1.067e-3
-1.509, 1.051e-3
-1.508, 1.036e-3
-1.507, 1.024e-3
-1.506, 1.008e-3
-1.505, 9.960e-4
-1.504, 9.837e-4
-1.503, 9.713e-4
-1.502, 9.621e-4
-1.501, 9.498e-4
-1.500, 9.405e-4
-1.499, 9.313e-4
-1.498, 9.220e-4
-1.497, 9.158e-4
-1.496, 9.035e-4
-1.495, 8.943e-4
-1.494, 8.819e-4
-1.493, 8.758e-4
-1.492, 8.634e-4
-1.491, 8.542e-4
-1.490, 8.388e-4
-1.489, 8.295e-4
-1.488, 8.141e-4
-1.487, 8.018e-4
-1.486, 7.894e-4
-1.485, 7.802e-4
-1.484, 7.679e-4
-1.483, 7.586e-4
-1.482, 7.463e-4
-1.481, 7.339e-4
-1.480, 7.278e-4
-1.479, 7.154e-4
-1.478, 7.031e-4
-1.477, 6.908e-4
-1.476, 6.815e-4
-1.475, 6.723e-4
-1.474, 6.630e-4
-1.473, 6.538e-4
-1.472, 6.445e-4
-1.471, 6.353e-4
-1.470, 6.291e-4
-1.469, 6.199e-4
-1.468, 6.168e-4
-1.467, 6.075e-4
-1.466, 6.014e-4
-1.465, 5.921e-4
-1.464, 5.859e-4
-1.463, 5.767e-4
-1.462, 5.674e-4
-1.461, 5.582e-4
-1.460, 5.459e-4
-1.459, 5.366e-4
-1.458, 5.305e-4
-1.457, 5.212e-4
-1.456, 5.120e-4
-1.455, 5.027e-4
-1.454, 4.965e-4
-1.453, 4.873e-4
-1.452, 4.811e-4
-1.451, 4.719e-4
-1.450, 4.626e-4
-1.449, 4.534e-4
-1.448, 4.441e-4
-1.447, 4.349e-4
-1.446, 4.318e-4
-1.445, 4.256e-4
-1.444, 4.164e-4
-1.443, 4.102e-4
-1.442, 4.040e-4
-1.441, 3.979e-4
-1.440, 3.948e-4
-1.439, 3.886e-4
-1.438, 3.825e-4
-1.437, 3.732e-4
-1.436, 3.670e-4
-1.435, 3.578e-4
-1.434, 3.516e-4
-1.433, 3.455e-4
-1.432, 3.393e-4
-1.431, 3.300e-4
-1.430, 3.270e-4
-1.429, 3.177e-4
-1.428, 3.146e-4
-1.427, 3.085e-4
-1.426, 2.992e-4
-1.425, 2.931e-4
-1.424, 2.900e-4
-1.423, 2.807e-4
-1.422, 2.746e-4
-1.421, 2.653e-4
-1.420, 2.591e-4
-1.419, 2.530e-4
-1.418, 2.499e-4
-1.417, 2.437e-4
-1.416, 2.376e-4
-1.415, 2.345e-4
-1.414, 2.283e-4
-1.413, 2.221e-4
-1.412, 2.191e-4
-1.411, 2.160e-4
-1.410, 2.098e-4
-1.409, 2.036e-4
-1.408, 1.944e-4
-1.407, 1.882e-4
-1.406, 1.851e-4
-1.405, 1.790e-4
-1.404, 1.728e-4
-1.403, 1.697e-4
-1.402, 1.636e-4
-1.401, 1.636e-4
-1.400, 1.574e-4
-1.399, 1.543e-4
-1.398, 1.481e-4
-1.397, 1.389e-4
-1.396, 1.358e-4
-1.395, 1.296e-4
-1.394, 1.266e-4
-1.393, 1.204e-4
-1.392, 1.142e-4
-1.391, 1.111e-4
-1.390, 1.081e-4
-1.389, 1.019e-4
-1.388, 9.882e-5
-1.387, 9.882e-5
-1.386, 8.957e-5
-1.385, 8.648e-5
-1.384, 8.340e-5
-1.383, 7.723e-5
-1.382, 7.415e-5
-1.381, 6.798e-5
-1.380, 6.182e-5
-1.379, 5.873e-5
-1.378, 5.565e-5
-1.377, 5.257e-5
-1.376, 4.949e-5
-1.375, 4.640e-5
-1.374, 4.332e-5
-1.373, 3.715e-5
-1.372, 3.407e-5
-1.371, 3.407e-5
-1.370, 2.790e-5
-1.369, 2.174e-5
-1.368, 1.557e-5
-1.367, 1.249e-5
-1.366, 1.249e-5
-1.365, 6.322e-6
-1.364, 3.239e-6
-1.363, 1.559e-7
-1.362, -2.927e-6
-1.361, -2.927e-6
-1.360, -6.010e-6
-1.359, -1.218e-5
-1.358, -1.526e-5
-1.357, -2.143e-5
-1.356, -2.143e-5
-1.355, -2.759e-5
-1.354, -3.068e-5
-1.353, -3.068e-5
-1.352, -3.376e-5
-1.351, -3.992e-5
-1.350, -3.992e-5
-1.349, -4.301e-5
-1.348, -4.301e-5
-1.347, -4.609e-5
-1.346, -4.917e-5
-1.345, -5.226e-5
-1.344, -5.534e-5
-1.343, -5.842e-5
-1.342, -6.151e-5
-1.341, -6.767e-5
-1.340, -7.076e-5
-1.339, -7.076e-5
-1.338, -7.384e-5
-1.337, -7.692e-5
-1.336, -7.692e-5
-1.335, -8.000e-5
-1.334, -8.309e-5
-1.333, -8.309e-5
-1.332, -8.617e-5
-1.331, -8.925e-5
-1.330, -9.234e-5
-1.329, -9.542e-5
-1.328, -9.850e-5
-1.327, -1.016e-4
-1.326, -1.047e-4
-1.325, -1.047e-4
-1.324, -1.078e-4
-1.323, -1.108e-4
-1.322, -1.108e-4
-1.321, -1.108e-4
-1.320, -1.139e-4
-1.319, -1.139e-4
-1.318, -1.170e-4
-1.317, -1.201e-4
-1.316, -1.232e-4
-1.315, -1.263e-4
-1.314, -1.293e-4
-1.313, -1.293e-4
-1.312, -1.324e-4
-1.311, -1.355e-4
-1.310, -1.355e-4
-1.309, -1.355e-4
-1.308, -1.355e-4
-1.307, -1.355e-4
-1.306, -1.417e-4
-1.305, -1.417e-4
-1.304, -1.417e-4
-1.303, -1.448e-4
-1.302, -1.478e-4
-1.301, -1.509e-4
-1.300, -1.509e-4
-1.299, -1.540e-4
-1.298, -1.540e-4
-1.297, -1.540e-4
-1.296, -1.540e-4
-1.295, -1.540e-4
-1.294, -1.571e-4
-1.293, -1.602e-4
-1.292, -1.602e-4
-1.291, -1.602e-4
-1.290, -1.663e-4
-1.289, -1.663e-4
-1.288, -1.694e-4
-1.287, -1.694e-4
-1.286, -1.694e-4
-1.285, -1.725e-4
-1.284, -1.756e-4
-1.283, -1.725e-4
-1.282, -1.756e-4
-1.281, -1.725e-4
-1.280, -1.756e-4
-1.279, -1.756e-4
-1.278, -1.756e-4
-1.277, -1.787e-4
-1.276, -1.817e-4
-1.275, -1.817e-4
-1.274, -1.848e-4
-1.273, -1.817e-4
-1.272, -1.848e-4
-1.271, -1.879e-4
-1.270, -1.848e-4
-1.269, -1.848e-4
-1.268, -1.848e-4
-1.267, -1.848e-4
-1.266, -1.848e-4
-1.265, -1.879e-4
-1.264, -1.879e-4
-1.263, -1.910e-4
-1.262, -1.910e-4
-1.261, -1.941e-4
-1.260, -1.972e-4
-1.259, -1.972e-4
-1.258, -2.002e-4
-1.257, -1.972e-4
-1.256, -2.002e-4
-1.255, -1.972e-4
-1.254, -2.002e-4
-1.253, -2.033e-4
-1.252, -2.002e-4
-1.251, -1.972e-4
-1.250, -2.033e-4
-1.249, -2.033e-4
-1.248, -2.033e-4
-1.247, -2.064e-4
-1.246, -2.064e-4
-1.245, -2.064e-4
-1.244, -2.064e-4
-1.243, -2.033e-4
-1.242, -2.033e-4
-1.241, -2.033e-4
-1.240, -2.033e-4
-1.239, -2.033e-4
-1.238, -2.033e-4
-1.237, -2.064e-4
-1.236, -2.064e-4
-1.235, -2.064e-4
-1.234, -2.064e-4
-1.233, -2.064e-4
-1.232, -2.095e-4
-1.231, -2.126e-4
-1.230, -2.095e-4
-1.229, -2.126e-4
-1.228, -2.095e-4
-1.227, -2.126e-4
-1.226, -2.126e-4
-1.225, -2.126e-4
-1.224, -2.126e-4
-1.223, -2.157e-4
-1.222, -2.157e-4
-1.221, -2.157e-4
-1.220, -2.157e-4
-1.219, -2.157e-4
-1.218, -2.187e-4
-1.217, -2.157e-4
-1.216, -2.126e-4
-1.215, -2.126e-4
-1.214, -2.157e-4
-1.213, -2.157e-4
-1.212, -2.126e-4
-1.211, -2.126e-4
-1.210, -2.157e-4
-1.209, -2.157e-4
-1.208, -2.157e-4
-1.207, -2.157e-4
-1.206, -2.157e-4
-1.205, -2.157e-4
-1.204, -2.187e-4
-1.203, -2.157e-4
-1.202, -2.187e-4
-1.201, -2.157e-4
-1.200, -2.157e-4
-1.199, -2.157e-4
-1.198, -2.157e-4
-1.197, -2.218e-4
-1.196, -2.218e-4
-1.195, -2.218e-4
-1.194, -2.218e-4
-1.193, -2.218e-4
-1.192, -2.218e-4
-1.191, -2.249e-4
-1.190, -2.218e-4
-1.189, -2.218e-4
-1.188, -2.187e-4
-1.187, -2.187e-4
-1.186, -2.187e-4
-1.185, -2.187e-4
-1.184, -2.187e-4
-1.183, -2.218e-4
-1.182, -2.218e-4
-1.181, -2.218e-4
-1.180, -2.218e-4
-1.179, -2.218e-4
-1.178, -2.218e-4
-1.177, -2.187e-4
-1.176, -2.187e-4
-1.175, -2.187e-4
-1.174, -2.187e-4
-1.173, -2.187e-4
-1.172, -2.187e-4
-1.171, -2.187e-4
-1.170, -2.218e-4
-1.169, -2.218e-4
-1.168, -2.249e-4
-1.167, -2.249e-4
-1.166, -2.249e-4
-1.165, -2.249e-4
-1.164, -2.249e-4
-1.163, -2.249e-4
-1.162, -2.249e-4
-1.161, -2.218e-4
-1.160, -2.218e-4
-1.159, -2.218e-4
-1.158, -2.187e-4
-1.157, -2.249e-4
-1.156, -2.249e-4
-1.155, -2.249e-4
-1.154, -2.218e-4
-1.153, -2.249e-4
-1.152, -2.218e-4
-1.151, -2.249e-4
-1.150, -2.218e-4
-1.149, -2.218e-4
-1.148, -2.187e-4
-1.147, -2.187e-4
-1.146, -2.187e-4
-1.145, -2.187e-4
-1.144, -2.187e-4
-1.143, -2.218e-4
-1.142, -2.187e-4
-1.141, -2.218e-4
-1.140, -2.249e-4
-1.139, -2.249e-4
-1.138, -2.249e-4
-1.137, -2.218e-4
-1.136, -2.218e-4
-1.135, -2.187e-4
-1.134, -2.218e-4
-1.133, -2.218e-4
-1.132, -2.218e-4
-1.131, -2.187e-4
-1.130, -2.218e-4
-1.129, -2.218e-4
-1.128, -2.249e-4
-1.127, -2.249e-4
-1.126, -2.249e-4
-1.125, -2.249e-4
-1.124, -2.249e-4
-1.123, -2.218e-4
-1.122, -2.249e-4
-1.121, -2.218e-4
-1.120, -2.218e-4
-1.119, -2.218e-4
-1.118, -2.187e-4
-1.117, -2.249e-4
-1.116, -2.249e-4
-1.115, -2.249e-4
-1.114, -2.249e-4
-1.113, -2.218e-4
-1.112, -2.249e-4
-1.111, -2.249e-4
-1.110, -2.218e-4
-1.109, -2.218e-4
-1.108, -2.218e-4
-1.107, -2.218e-4
-1.106, -2.218e-4
-1.105, -2.218e-4
-1.104, -2.218e-4
-1.103, -2.249e-4
-1.102, -2.218e-4
-1.101, -2.249e-4
-1.100, -2.280e-4
-1.099, -2.280e-4
-1.098, -2.280e-4
-1.097, -2.249e-4
-1.096, -2.249e-4
-1.095, -2.249e-4
-1.094, -2.249e-4
-1.093, -2.249e-4
-1.092, -2.249e-4
-1.091, -2.218e-4
-1.090, -2.280e-4
-1.089, -2.249e-4
-1.088, -2.280e-4
-1.087, -2.280e-4
-1.086, -2.280e-4
-1.085, -2.280e-4
-1.084, -2.280e-4
-1.083, -2.249e-4
-1.082, -2.280e-4
-1.081, -2.249e-4
-1.080, -2.249e-4
-1.079, -2.249e-4
-1.078, -2.249e-4
-1.077, -2.280e-4
-1.076, -2.280e-4
-1.075, -2.311e-4
-1.074, -2.280e-4
-1.073, -2.280e-4
-1.072, -2.311e-4
-1.071, -2.311e-4
-1.070, -2.280e-4
-1.069, -2.280e-4
-1.068, -2.249e-4
-1.067, -2.249e-4
-1.066, -2.249e-4
-1.065, -2.280e-4
-1.064, -2.280e-4
-1.063, -2.311e-4
-1.062, -2.280e-4
-1.061, -2.311e-4
-1.060, -2.311e-4
-1.059, -2.311e-4
-1.058, -2.311e-4
-1.057, -2.280e-4
-1.056, -2.311e-4
-1.055, -2.280e-4
-1.054, -2.280e-4
-1.053, -2.311e-4
-1.052, -2.280e-4
-1.051, -2.280e-4
-1.050, -2.311e-4
-1.049, -2.311e-4
-1.048, -2.311e-4
-1.047, -2.342e-4
-1.046, -2.342e-4
-1.045, -2.311e-4
-1.044, -2.311e-4
-1.043, -2.311e-4
-1.042, -2.342e-4
-1.041, -2.311e-4
-1.040, -2.311e-4
-1.039, -2.311e-4
-1.038, -2.311e-4
-1.037, -2.342e-4
-1.036, -2.342e-4
-1.035, -2.342e-4
-1.034, -2.372e-4
-1.033, -2.372e-4
-1.032, -2.372e-4
-1.031, -2.372e-4
-1.030, -2.342e-4
-1.029, -2.372e-4
-1.028, -2.342e-4
-1.027, -2.342e-4
-1.026, -2.342e-4
-1.025, -2.342e-4
-1.024, -2.342e-4
-1.023, -2.342e-4
-1.022, -2.342e-4
-1.021, -2.372e-4
-1.020, -2.372e-4
-1.019, -2.372e-4
-1.018, -2.403e-4
-1.017, -2.372e-4
-1.016, -2.372e-4
-1.015, -2.372e-4
-1.014, -2.372e-4
-1.013, -2.403e-4
-1.012, -2.403e-4
-1.011, -2.403e-4
-1.010, -2.434e-4
-1.009, -2.465e-4
-1.008, -2.496e-4
-1.007, -2.496e-4
-1.006, -2.527e-4
-1.005, -2.496e-4
-1.004, -2.496e-4
-1.003, -2.496e-4
-1.002, -2.496e-4
-1.001, -2.496e-4
