Aug. 20, 2024   08:42:53
Cyclic Voltammetry
File: c:/users/guazh/data/20240813_batch_94_500/2024-08-15-exp139\exp139-2024-08-20t08_37_58-arkoh\exp139_cv_50mvs_efin_-1400mv.bin
Data Source:  Experiment
Instrument Model:  CHI760E
Header: CV ran at 50 mVs
Note: 

Init E (V) = -1
High E (V) = -1
Low E (V) = -1.4
Final E (V) = -1
Init P/N = N
Scan Rate (V/s) = 0.05
Segment = 7
Sample Interval (V) = 0.001
Quiet Time (sec) = 60
Sensitivity (A/V) = 0.001
Comp R (ohm) = 1.6

Results:

Channel 1:
Segment 1:

Segment 2:

Segment 3:

Segment 4:

Segment 5:

Segment 6:

Segment 7:

Potential/V, Current/A

-1.000, 1.608e-5
-1.001, 2.732e-5
-1.002, 3.126e-5
-1.003, 3.349e-5
-1.004, 3.551e-5
-1.005, 3.717e-5
-1.006, 3.823e-5
-1.007, 3.942e-5
-1.008, 4.052e-5
-1.009, 4.146e-5
-1.010, 4.229e-5
-1.011, 4.259e-5
-1.012, 4.329e-5
-1.013, 4.387e-5
-1.014, 4.442e-5
-1.015, 4.507e-5
-1.016, 4.497e-5
-1.017, 4.529e-5
-1.018, 4.593e-5
-1.019, 4.625e-5
-1.020, 4.672e-5
-1.021, 4.658e-5
-1.022, 4.688e-5
-1.023, 4.748e-5
-1.024, 4.781e-5
-1.025, 4.805e-5
-1.026, 4.809e-5
-1.027, 4.820e-5
-1.028, 4.878e-5
-1.029, 4.897e-5
-1.030, 4.934e-5
-1.031, 4.939e-5
-1.032, 4.945e-5
-1.033, 5.002e-5
-1.034, 5.037e-5
-1.035, 5.057e-5
-1.036, 5.059e-5
-1.037, 5.084e-5
-1.038, 5.128e-5
-1.039, 5.163e-5
-1.040, 5.181e-5
-1.041, 5.181e-5
-1.042, 5.221e-5
-1.043, 5.254e-5
-1.044, 5.305e-5
-1.045, 5.311e-5
-1.046, 5.315e-5
-1.047, 5.354e-5
-1.048, 5.383e-5
-1.049, 5.431e-5
-1.050, 5.471e-5
-1.051, 5.451e-5
-1.052, 5.492e-5
-1.053, 5.530e-5
-1.054, 5.576e-5
-1.055, 5.618e-5
-1.056, 5.608e-5
-1.057, 5.647e-5
-1.058, 5.701e-5
-1.059, 5.732e-5
-1.060, 5.775e-5
-1.061, 5.773e-5
-1.062, 5.798e-5
-1.063, 5.873e-5
-1.064, 5.908e-5
-1.065, 5.950e-5
-1.066, 5.957e-5
-1.067, 5.992e-5
-1.068, 6.055e-5
-1.069, 6.103e-5
-1.070, 6.145e-5
-1.071, 6.162e-5
-1.072, 6.188e-5
-1.073, 6.249e-5
-1.074, 6.321e-5
-1.075, 6.381e-5
-1.076, 6.394e-5
-1.077, 6.424e-5
-1.078, 6.496e-5
-1.079, 6.570e-5
-1.080, 6.607e-5
-1.081, 6.628e-5
-1.082, 6.698e-5
-1.083, 6.753e-5
-1.084, 6.828e-5
-1.085, 6.877e-5
-1.086, 6.905e-5
-1.087, 6.978e-5
-1.088, 7.045e-5
-1.089, 7.127e-5
-1.090, 7.193e-5
-1.091, 7.223e-5
-1.092, 7.300e-5
-1.093, 7.378e-5
-1.094, 7.456e-5
-1.095, 7.542e-5
-1.096, 7.587e-5
-1.097, 7.660e-5
-1.098, 7.750e-5
-1.099, 7.830e-5
-1.100, 7.933e-5
-1.101, 7.971e-5
-1.102, 8.065e-5
-1.103, 8.172e-5
-1.104, 8.255e-5
-1.105, 8.353e-5
-1.106, 8.425e-5
-1.107, 8.495e-5
-1.108, 8.631e-5
-1.109, 8.715e-5
-1.110, 8.827e-5
-1.111, 8.903e-5
-1.112, 9.002e-5
-1.113, 9.114e-5
-1.114, 9.243e-5
-1.115, 9.338e-5
-1.116, 9.444e-5
-1.117, 9.539e-5
-1.118, 9.662e-5
-1.119, 9.798e-5
-1.120, 9.915e-5
-1.121, 1.000e-4
-1.122, 1.013e-4
-1.123, 1.026e-4
-1.124, 1.041e-4
-1.125, 1.051e-4
-1.126, 1.063e-4
-1.127, 1.077e-4
-1.128, 1.090e-4
-1.129, 1.105e-4
-1.130, 1.120e-4
-1.131, 1.129e-4
-1.132, 1.144e-4
-1.133, 1.158e-4
-1.134, 1.175e-4
-1.135, 1.190e-4
-1.136, 1.199e-4
-1.137, 1.215e-4
-1.138, 1.232e-4
-1.139, 1.248e-4
-1.140, 1.264e-4
-1.141, 1.275e-4
-1.142, 1.290e-4
-1.143, 1.306e-4
-1.144, 1.323e-4
-1.145, 1.340e-4
-1.146, 1.354e-4
-1.147, 1.368e-4
-1.148, 1.386e-4
-1.149, 1.403e-4
-1.150, 1.419e-4
-1.151, 1.434e-4
-1.152, 1.448e-4
-1.153, 1.467e-4
-1.154, 1.485e-4
-1.155, 1.500e-4
-1.156, 1.515e-4
-1.157, 1.530e-4
-1.158, 1.549e-4
-1.159, 1.567e-4
-1.160, 1.583e-4
-1.161, 1.597e-4
-1.162, 1.614e-4
-1.163, 1.630e-4
-1.164, 1.649e-4
-1.165, 1.665e-4
-1.166, 1.680e-4
-1.167, 1.696e-4
-1.168, 1.711e-4
-1.169, 1.731e-4
-1.170, 1.747e-4
-1.171, 1.759e-4
-1.172, 1.777e-4
-1.173, 1.791e-4
-1.174, 1.808e-4
-1.175, 1.824e-4
-1.176, 1.836e-4
-1.177, 1.853e-4
-1.178, 1.870e-4
-1.179, 1.884e-4
-1.180, 1.899e-4
-1.181, 1.909e-4
-1.182, 1.922e-4
-1.183, 1.938e-4
-1.184, 1.950e-4
-1.185, 1.965e-4
-1.186, 1.974e-4
-1.187, 1.986e-4
-1.188, 2.000e-4
-1.189, 2.011e-4
-1.190, 2.023e-4
-1.191, 2.032e-4
-1.192, 2.041e-4
-1.193, 2.052e-4
-1.194, 2.065e-4
-1.195, 2.071e-4
-1.196, 2.079e-4
-1.197, 2.087e-4
-1.198, 2.096e-4
-1.199, 2.106e-4
-1.200, 2.110e-4
-1.201, 2.115e-4
-1.202, 2.123e-4
-1.203, 2.129e-4
-1.204, 2.137e-4
-1.205, 2.140e-4
-1.206, 2.143e-4
-1.207, 2.147e-4
-1.208, 2.150e-4
-1.209, 2.158e-4
-1.210, 2.161e-4
-1.211, 2.160e-4
-1.212, 2.164e-4
-1.213, 2.166e-4
-1.214, 2.171e-4
-1.215, 2.174e-4
-1.216, 2.172e-4
-1.217, 2.173e-4
-1.218, 2.177e-4
-1.219, 2.179e-4
-1.220, 2.181e-4
-1.221, 2.178e-4
-1.222, 2.180e-4
-1.223, 2.184e-4
-1.224, 2.186e-4
-1.225, 2.188e-4
-1.226, 2.187e-4
-1.227, 2.188e-4
-1.228, 2.194e-4
-1.229, 2.201e-4
-1.230, 2.198e-4
-1.231, 2.199e-4
-1.232, 2.201e-4
-1.233, 2.203e-4
-1.234, 2.209e-4
-1.235, 2.211e-4
-1.236, 2.214e-4
-1.237, 2.217e-4
-1.238, 2.221e-4
-1.239, 2.229e-4
-1.240, 2.231e-4
-1.241, 2.237e-4
-1.242, 2.243e-4
-1.243, 2.248e-4
-1.244, 2.258e-4
-1.245, 2.262e-4
-1.246, 2.269e-4
-1.247, 2.276e-4
-1.248, 2.284e-4
-1.249, 2.295e-4
-1.250, 2.305e-4
-1.251, 2.311e-4
-1.252, 2.322e-4
-1.253, 2.333e-4
-1.254, 2.346e-4
-1.255, 2.358e-4
-1.256, 2.367e-4
-1.257, 2.380e-4
-1.258, 2.395e-4
-1.259, 2.410e-4
-1.260, 2.424e-4
-1.261, 2.434e-4
-1.262, 2.452e-4
-1.263, 2.468e-4
-1.264, 2.486e-4
-1.265, 2.502e-4
-1.266, 2.518e-4
-1.267, 2.536e-4
-1.268, 2.555e-4
-1.269, 2.576e-4
-1.270, 2.595e-4
-1.271, 2.615e-4
-1.272, 2.634e-4
-1.273, 2.655e-4
-1.274, 2.680e-4
-1.275, 2.700e-4
-1.276, 2.722e-4
-1.277, 2.745e-4
-1.278, 2.769e-4
-1.279, 2.797e-4
-1.280, 2.823e-4
-1.281, 2.845e-4
-1.282, 2.870e-4
-1.283, 2.896e-4
-1.284, 2.925e-4
-1.285, 2.952e-4
-1.286, 2.978e-4
-1.287, 3.008e-4
-1.288, 3.036e-4
-1.289, 3.068e-4
-1.290, 3.097e-4
-1.291, 3.126e-4
-1.292, 3.159e-4
-1.293, 3.189e-4
-1.294, 3.224e-4
-1.295, 3.259e-4
-1.296, 3.288e-4
-1.297, 3.323e-4
-1.298, 3.359e-4
-1.299, 3.396e-4
-1.300, 3.433e-4
-1.301, 3.466e-4
-1.302, 3.503e-4
-1.303, 3.543e-4
-1.304, 3.582e-4
-1.305, 3.621e-4
-1.306, 3.658e-4
-1.307, 3.699e-4
-1.308, 3.741e-4
-1.309, 3.783e-4
-1.310, 3.825e-4
-1.311, 3.867e-4
-1.312, 3.909e-4
-1.313, 3.953e-4
-1.314, 3.999e-4
-1.315, 4.043e-4
-1.316, 4.089e-4
-1.317, 4.134e-4
-1.318, 4.181e-4
-1.319, 4.233e-4
-1.320, 4.278e-4
-1.321, 4.327e-4
-1.322, 4.376e-4
-1.323, 4.425e-4
-1.324, 4.480e-4
-1.325, 4.531e-4
-1.326, 4.581e-4
-1.327, 4.635e-4
-1.328, 4.687e-4
-1.329, 4.745e-4
-1.330, 4.800e-4
-1.331, 4.853e-4
-1.332, 4.910e-4
-1.333, 4.966e-4
-1.334, 5.026e-4
-1.335, 5.086e-4
-1.336, 5.141e-4
-1.337, 5.202e-4
-1.338, 5.264e-4
-1.339, 5.325e-4
-1.340, 5.389e-4
-1.341, 5.448e-4
-1.342, 5.511e-4
-1.343, 5.577e-4
-1.344, 5.642e-4
-1.345, 5.708e-4
-1.346, 5.772e-4
-1.347, 5.836e-4
-1.348, 5.907e-4
-1.349, 5.976e-4
-1.350, 6.043e-4
-1.351, 6.112e-4
-1.352, 6.180e-4
-1.353, 6.252e-4
-1.354, 6.333e-4
-1.355, 6.402e-4
-1.356, 6.469e-4
-1.357, 6.543e-4
-1.358, 6.619e-4
-1.359, 6.697e-4
-1.360, 6.769e-4
-1.361, 6.844e-4
-1.362, 6.921e-4
-1.363, 6.998e-4
-1.364, 7.080e-4
-1.365, 7.155e-4
-1.366, 7.235e-4
-1.367, 7.314e-4
-1.368, 7.395e-4
-1.369, 7.482e-4
-1.370, 7.565e-4
-1.371, 7.648e-4
-1.372, 7.731e-4
-1.373, 7.816e-4
-1.374, 7.904e-4
-1.375, 7.993e-4
-1.376, 8.078e-4
-1.377, 8.166e-4
-1.378, 8.257e-4
-1.379, 8.348e-4
-1.380, 8.440e-4
-1.381, 8.531e-4
-1.382, 8.625e-4
-1.383, 8.722e-4
-1.384, 8.817e-4
-1.385, 8.911e-4
-1.386, 9.009e-4
-1.387, 9.103e-4
-1.388, 9.205e-4
-1.389, 9.308e-4
-1.390, 9.409e-4
-1.391, 9.513e-4
-1.392, 9.613e-4
-1.393, 9.719e-4
-1.394, 9.829e-4
-1.395, 9.935e-4
-1.396, 1.004e-3
-1.397, 1.015e-3
-1.398, 1.026e-3
-1.399, 1.038e-3
-1.400, 1.003e-3
-1.399, 9.552e-4
-1.398, 9.232e-4
-1.397, 8.958e-4
-1.396, 8.706e-4
-1.395, 8.464e-4
-1.394, 8.236e-4
-1.393, 8.016e-4
-1.392, 7.810e-4
-1.391, 7.614e-4
-1.390, 7.421e-4
-1.389, 7.237e-4
-1.388, 7.056e-4
-1.387, 6.884e-4
-1.386, 6.720e-4
-1.385, 6.554e-4
-1.384, 6.402e-4
-1.383, 6.246e-4
-1.382, 6.098e-4
-1.381, 5.960e-4
-1.380, 5.819e-4
-1.379, 5.684e-4
-1.378, 5.550e-4
-1.377, 5.425e-4
-1.376, 5.304e-4
-1.375, 5.182e-4
-1.374, 5.061e-4
-1.373, 4.946e-4
-1.372, 4.833e-4
-1.371, 4.723e-4
-1.370, 4.620e-4
-1.369, 4.511e-4
-1.368, 4.411e-4
-1.367, 4.310e-4
-1.366, 4.214e-4
-1.365, 4.120e-4
-1.364, 4.025e-4
-1.363, 3.932e-4
-1.362, 3.845e-4
-1.361, 3.758e-4
-1.360, 3.673e-4
-1.359, 3.589e-4
-1.358, 3.504e-4
-1.357, 3.428e-4
-1.356, 3.350e-4
-1.355, 3.273e-4
-1.354, 3.197e-4
-1.353, 3.120e-4
-1.352, 3.052e-4
-1.351, 2.982e-4
-1.350, 2.913e-4
-1.349, 2.846e-4
-1.348, 2.774e-4
-1.347, 2.713e-4
-1.346, 2.650e-4
-1.345, 2.586e-4
-1.344, 2.525e-4
-1.343, 2.462e-4
-1.342, 2.402e-4
-1.341, 2.347e-4
-1.340, 2.291e-4
-1.339, 2.233e-4
-1.338, 2.177e-4
-1.337, 2.123e-4
-1.336, 2.073e-4
-1.335, 2.021e-4
-1.334, 1.969e-4
-1.333, 1.918e-4
-1.332, 1.870e-4
-1.331, 1.822e-4
-1.330, 1.775e-4
-1.329, 1.727e-4
-1.328, 1.682e-4
-1.327, 1.640e-4
-1.326, 1.594e-4
-1.325, 1.552e-4
-1.324, 1.508e-4
-1.323, 1.464e-4
-1.322, 1.427e-4
-1.321, 1.385e-4
-1.320, 1.347e-4
-1.319, 1.307e-4
-1.318, 1.267e-4
-1.317, 1.232e-4
-1.316, 1.196e-4
-1.315, 1.160e-4
-1.314, 1.125e-4
-1.313, 1.087e-4
-1.312, 1.055e-4
-1.311, 1.022e-4
-1.310, 9.887e-5
-1.309, 9.565e-5
-1.308, 9.231e-5
-1.307, 8.946e-5
-1.306, 8.634e-5
-1.305, 8.321e-5
-1.304, 8.024e-5
-1.303, 7.724e-5
-1.302, 7.434e-5
-1.301, 7.164e-5
-1.300, 6.900e-5
-1.299, 6.616e-5
-1.298, 6.330e-5
-1.297, 6.094e-5
-1.296, 5.839e-5
-1.295, 5.583e-5
-1.294, 5.331e-5
-1.293, 5.082e-5
-1.292, 4.848e-5
-1.291, 4.616e-5
-1.290, 4.384e-5
-1.289, 4.150e-5
-1.288, 3.924e-5
-1.287, 3.720e-5
-1.286, 3.492e-5
-1.285, 3.303e-5
-1.284, 3.081e-5
-1.283, 2.864e-5
-1.282, 2.700e-5
-1.281, 2.473e-5
-1.280, 2.270e-5
-1.279, 2.104e-5
-1.278, 1.883e-5
-1.277, 1.750e-5
-1.276, 1.551e-5
-1.275, 1.379e-5
-1.274, 1.211e-5
-1.273, 1.015e-5
-1.272, 8.779e-6
-1.271, 7.151e-6
-1.270, 5.389e-6
-1.269, 3.832e-6
-1.268, 1.957e-6
-1.267, 6.293e-7
-1.266, -8.812e-7
-1.265, -2.597e-6
-1.264, -3.912e-6
-1.263, -5.609e-6
-1.262, -6.951e-6
-1.261, -8.330e-6
-1.260, -9.713e-6
-1.259, -1.118e-5
-1.258, -1.271e-5
-1.257, -1.382e-5
-1.256, -1.505e-5
-1.255, -1.639e-5
-1.254, -1.790e-5
-1.253, -1.918e-5
-1.252, -2.009e-5
-1.251, -2.135e-5
-1.250, -2.241e-5
-1.249, -2.383e-5
-1.248, -2.495e-5
-1.247, -2.579e-5
-1.246, -2.704e-5
-1.245, -2.795e-5
-1.244, -2.915e-5
-1.243, -3.030e-5
-1.242, -3.105e-5
-1.241, -3.221e-5
-1.240, -3.310e-5
-1.239, -3.416e-5
-1.238, -3.549e-5
-1.237, -3.588e-5
-1.236, -3.712e-5
-1.235, -3.797e-5
-1.234, -3.892e-5
-1.233, -4.011e-5
-1.232, -4.063e-5
-1.231, -4.159e-5
-1.230, -4.263e-5
-1.229, -4.406e-5
-1.228, -4.471e-5
-1.227, -4.548e-5
-1.226, -4.618e-5
-1.225, -4.720e-5
-1.224, -4.805e-5
-1.223, -4.907e-5
-1.222, -4.982e-5
-1.221, -5.053e-5
-1.220, -5.144e-5
-1.219, -5.248e-5
-1.218, -5.339e-5
-1.217, -5.404e-5
-1.216, -5.478e-5
-1.215, -5.565e-5
-1.214, -5.673e-5
-1.213, -5.743e-5
-1.212, -5.819e-5
-1.211, -5.909e-5
-1.210, -5.970e-5
-1.209, -6.086e-5
-1.208, -6.154e-5
-1.207, -6.203e-5
-1.206, -6.310e-5
-1.205, -6.362e-5
-1.204, -6.466e-5
-1.203, -6.558e-5
-1.202, -6.609e-5
-1.201, -6.699e-5
-1.200, -6.755e-5
-1.199, -6.855e-5
-1.198, -6.941e-5
-1.197, -6.974e-5
-1.196, -7.080e-5
-1.195, -7.141e-5
-1.194, -7.223e-5
-1.193, -7.339e-5
-1.192, -7.352e-5
-1.191, -7.434e-5
-1.190, -7.523e-5
-1.189, -7.585e-5
-1.188, -7.690e-5
-1.187, -7.725e-5
-1.186, -7.801e-5
-1.185, -7.878e-5
-1.184, -7.959e-5
-1.183, -8.026e-5
-1.182, -8.084e-5
-1.181, -8.141e-5
-1.180, -8.208e-5
-1.179, -8.294e-5
-1.178, -8.394e-5
-1.177, -8.447e-5
-1.176, -8.479e-5
-1.175, -8.549e-5
-1.174, -8.642e-5
-1.173, -8.702e-5
-1.172, -8.744e-5
-1.171, -8.832e-5
-1.170, -8.869e-5
-1.169, -8.970e-5
-1.168, -9.024e-5
-1.167, -9.077e-5
-1.166, -9.161e-5
-1.165, -9.201e-5
-1.164, -9.299e-5
-1.163, -9.385e-5
-1.162, -9.409e-5
-1.161, -9.509e-5
-1.160, -9.557e-5
-1.159, -9.648e-5
-1.158, -9.729e-5
-1.157, -9.764e-5
-1.156, -9.848e-5
-1.155, -9.925e-5
-1.154, -1.001e-4
-1.153, -1.011e-4
-1.152, -1.013e-4
-1.151, -1.023e-4
-1.150, -1.031e-4
-1.149, -1.039e-4
-1.148, -1.049e-4
-1.147, -1.056e-4
-1.146, -1.063e-4
-1.145, -1.071e-4
-1.144, -1.081e-4
-1.143, -1.089e-4
-1.142, -1.097e-4
-1.141, -1.104e-4
-1.140, -1.114e-4
-1.139, -1.124e-4
-1.138, -1.134e-4
-1.137, -1.141e-4
-1.136, -1.148e-4
-1.135, -1.157e-4
-1.134, -1.170e-4
-1.133, -1.178e-4
-1.132, -1.184e-4
-1.131, -1.196e-4
-1.130, -1.202e-4
-1.129, -1.215e-4
-1.128, -1.223e-4
-1.127, -1.231e-4
-1.126, -1.242e-4
-1.125, -1.249e-4
-1.124, -1.260e-4
-1.123, -1.272e-4
-1.122, -1.276e-4
-1.121, -1.288e-4
-1.120, -1.295e-4
-1.119, -1.306e-4
-1.118, -1.318e-4
-1.117, -1.321e-4
-1.116, -1.331e-4
-1.115, -1.341e-4
-1.114, -1.349e-4
-1.113, -1.361e-4
-1.112, -1.364e-4
-1.111, -1.374e-4
-1.110, -1.382e-4
-1.109, -1.389e-4
-1.108, -1.400e-4
-1.107, -1.404e-4
-1.106, -1.412e-4
-1.105, -1.419e-4
-1.104, -1.425e-4
-1.103, -1.434e-4
-1.102, -1.438e-4
-1.101, -1.443e-4
-1.100, -1.449e-4
-1.099, -1.457e-4
-1.098, -1.462e-4
-1.097, -1.467e-4
-1.096, -1.469e-4
-1.095, -1.474e-4
-1.094, -1.481e-4
-1.093, -1.485e-4
-1.092, -1.485e-4
-1.091, -1.490e-4
-1.090, -1.492e-4
-1.089, -1.498e-4
-1.088, -1.500e-4
-1.087, -1.499e-4
-1.086, -1.503e-4
-1.085, -1.502e-4
-1.084, -1.506e-4
-1.083, -1.509e-4
-1.082, -1.506e-4
-1.081, -1.507e-4
-1.080, -1.505e-4
-1.079, -1.508e-4
-1.078, -1.512e-4
-1.077, -1.505e-4
-1.076, -1.507e-4
-1.075, -1.508e-4
-1.074, -1.507e-4
-1.073, -1.509e-4
-1.072, -1.502e-4
-1.071, -1.501e-4
-1.070, -1.501e-4
-1.069, -1.498e-4
-1.068, -1.499e-4
-1.067, -1.495e-4
-1.066, -1.492e-4
-1.065, -1.491e-4
-1.064, -1.489e-4
-1.063, -1.490e-4
-1.062, -1.486e-4
-1.061, -1.484e-4
-1.060, -1.482e-4
-1.059, -1.482e-4
-1.058, -1.482e-4
-1.057, -1.478e-4
-1.056, -1.474e-4
-1.055, -1.472e-4
-1.054, -1.474e-4
-1.053, -1.472e-4
-1.052, -1.468e-4
-1.051, -1.466e-4
-1.050, -1.463e-4
-1.049, -1.466e-4
-1.048, -1.464e-4
-1.047, -1.460e-4
-1.046, -1.460e-4
-1.045, -1.456e-4
-1.044, -1.461e-4
-1.043, -1.461e-4
-1.042, -1.454e-4
-1.041, -1.455e-4
-1.040, -1.451e-4
-1.039, -1.453e-4
-1.038, -1.457e-4
-1.037, -1.450e-4
-1.036, -1.450e-4
-1.035, -1.449e-4
-1.034, -1.449e-4
-1.033, -1.451e-4
-1.032, -1.446e-4
-1.031, -1.447e-4
-1.030, -1.445e-4
-1.029, -1.446e-4
-1.028, -1.448e-4
-1.027, -1.445e-4
-1.026, -1.442e-4
-1.025, -1.445e-4
-1.024, -1.445e-4
-1.023, -1.447e-4
-1.022, -1.444e-4
-1.021, -1.443e-4
-1.020, -1.441e-4
-1.019, -1.443e-4
-1.018, -1.444e-4
-1.017, -1.442e-4
-1.016, -1.440e-4
-1.015, -1.440e-4
-1.014, -1.442e-4
-1.013, -1.442e-4
-1.012, -1.439e-4
-1.011, -1.439e-4
-1.010, -1.439e-4
-1.009, -1.441e-4
-1.008, -1.441e-4
-1.007, -1.439e-4
-1.006, -1.443e-4
-1.005, -1.440e-4
-1.004, -1.443e-4
-1.003, -1.446e-4
-1.002, -1.441e-4
-1.001, -1.444e-4
-1.000, -1.107e-4
-1.001, -8.224e-5
-1.002, -6.980e-5
-1.003, -6.121e-5
-1.004, -5.452e-5
-1.005, -4.892e-5
-1.006, -4.441e-5
-1.007, -4.006e-5
-1.008, -3.595e-5
-1.009, -3.252e-5
-1.010, -2.908e-5
-1.011, -2.634e-5
-1.012, -2.360e-5
-1.013, -2.083e-5
-1.014, -1.846e-5
-1.015, -1.589e-5
-1.016, -1.413e-5
-1.017, -1.217e-5
-1.018, -9.788e-6
-1.019, -8.187e-6
-1.020, -6.168e-6
-1.021, -4.872e-6
-1.022, -3.408e-6
-1.023, -1.467e-6
-1.024, 1.764e-7
-1.025, 1.395e-6
-1.026, 2.746e-6
-1.027, 3.892e-6
-1.028, 5.616e-6
-1.029, 6.797e-6
-1.030, 8.045e-6
-1.031, 9.312e-6
-1.032, 1.007e-5
-1.033, 1.166e-5
-1.034, 1.299e-5
-1.035, 1.407e-5
-1.036, 1.517e-5
-1.037, 1.605e-5
-1.038, 1.751e-5
-1.039, 1.875e-5
-1.040, 1.982e-5
-1.041, 2.088e-5
-1.042, 2.188e-5
-1.043, 2.319e-5
-1.044, 2.434e-5
-1.045, 2.546e-5
-1.046, 2.630e-5
-1.047, 2.718e-5
-1.048, 2.833e-5
-1.049, 2.931e-5
-1.050, 3.041e-5
-1.051, 3.107e-5
-1.052, 3.188e-5
-1.053, 3.304e-5
-1.054, 3.384e-5
-1.055, 3.494e-5
-1.056, 3.544e-5
-1.057, 3.624e-5
-1.058, 3.731e-5
-1.059, 3.808e-5
-1.060, 3.914e-5
-1.061, 3.970e-5
-1.062, 4.036e-5
-1.063, 4.172e-5
-1.064, 4.220e-5
-1.065, 4.317e-5
-1.066, 4.399e-5
-1.067, 4.459e-5
-1.068, 4.586e-5
-1.069, 4.662e-5
-1.070, 4.752e-5
-1.071, 4.831e-5
-1.072, 4.884e-5
-1.073, 5.013e-5
-1.074, 5.099e-5
-1.075, 5.210e-5
-1.076, 5.287e-5
-1.077, 5.346e-5
-1.078, 5.451e-5
-1.079, 5.566e-5
-1.080, 5.646e-5
-1.081, 5.726e-5
-1.082, 5.817e-5
-1.083, 5.921e-5
-1.084, 6.029e-5
-1.085, 6.115e-5
-1.086, 6.203e-5
-1.087, 6.284e-5
-1.088, 6.407e-5
-1.089, 6.505e-5
-1.090, 6.610e-5
-1.091, 6.685e-5
-1.092, 6.777e-5
-1.093, 6.901e-5
-1.094, 7.004e-5
-1.095, 7.120e-5
-1.096, 7.185e-5
-1.097, 7.271e-5
-1.098, 7.431e-5
-1.099, 7.499e-5
-1.100, 7.624e-5
-1.101, 7.704e-5
-1.102, 7.801e-5
-1.103, 7.944e-5
-1.104, 8.034e-5
-1.105, 8.152e-5
-1.106, 8.236e-5
-1.107, 8.326e-5
-1.108, 8.489e-5
-1.109, 8.570e-5
-1.110, 8.684e-5
-1.111, 8.792e-5
-1.112, 8.870e-5
-1.113, 9.020e-5
-1.114, 9.134e-5
-1.115, 9.240e-5
-1.116, 9.335e-5
-1.117, 9.427e-5
-1.118, 9.573e-5
-1.119, 9.681e-5
-1.120, 9.785e-5
-1.121, 9.879e-5
-1.122, 9.987e-5
-1.123, 1.011e-4
-1.124, 1.024e-4
-1.125, 1.034e-4
-1.126, 1.043e-4
-1.127, 1.054e-4
-1.128, 1.067e-4
-1.129, 1.077e-4
-1.130, 1.090e-4
-1.131, 1.098e-4
-1.132, 1.108e-4
-1.133, 1.121e-4
-1.134, 1.131e-4
-1.135, 1.144e-4
-1.136, 1.151e-4
-1.137, 1.160e-4
-1.138, 1.174e-4
-1.139, 1.183e-4
-1.140, 1.196e-4
-1.141, 1.203e-4
-1.142, 1.212e-4
-1.143, 1.225e-4
-1.144, 1.234e-4
-1.145, 1.244e-4
-1.146, 1.253e-4
-1.147, 1.259e-4
-1.148, 1.273e-4
-1.149, 1.280e-4
-1.150, 1.290e-4
-1.151, 1.299e-4
-1.152, 1.304e-4
-1.153, 1.316e-4
-1.154, 1.324e-4
-1.155, 1.333e-4
-1.156, 1.339e-4
-1.157, 1.346e-4
-1.158, 1.356e-4
-1.159, 1.363e-4
-1.160, 1.371e-4
-1.161, 1.376e-4
-1.162, 1.382e-4
-1.163, 1.391e-4
-1.164, 1.398e-4
-1.165, 1.404e-4
-1.166, 1.409e-4
-1.167, 1.414e-4
-1.168, 1.421e-4
-1.169, 1.425e-4
-1.170, 1.432e-4
-1.171, 1.434e-4
-1.172, 1.440e-4
-1.173, 1.444e-4
-1.174, 1.449e-4
-1.175, 1.455e-4
-1.176, 1.455e-4
-1.177, 1.459e-4
-1.178, 1.467e-4
-1.179, 1.466e-4
-1.180, 1.472e-4
-1.181, 1.471e-4
-1.182, 1.472e-4
-1.183, 1.478e-4
-1.184, 1.478e-4
-1.185, 1.481e-4
-1.186, 1.481e-4
-1.187, 1.479e-4
-1.188, 1.484e-4
-1.189, 1.483e-4
-1.190, 1.484e-4
-1.191, 1.484e-4
-1.192, 1.481e-4
-1.193, 1.485e-4
-1.194, 1.483e-4
-1.195, 1.482e-4
-1.196, 1.482e-4
-1.197, 1.478e-4
-1.198, 1.480e-4
-1.199, 1.479e-4
-1.200, 1.477e-4
-1.201, 1.475e-4
-1.202, 1.472e-4
-1.203, 1.472e-4
-1.204, 1.471e-4
-1.205, 1.469e-4
-1.206, 1.465e-4
-1.207, 1.462e-4
-1.208, 1.462e-4
-1.209, 1.461e-4
-1.210, 1.460e-4
-1.211, 1.455e-4
-1.212, 1.453e-4
-1.213, 1.453e-4
-1.214, 1.451e-4
-1.215, 1.452e-4
-1.216, 1.447e-4
-1.217, 1.445e-4
-1.218, 1.448e-4
-1.219, 1.445e-4
-1.220, 1.445e-4
-1.221, 1.441e-4
-1.222, 1.440e-4
-1.223, 1.443e-4
-1.224, 1.440e-4
-1.225, 1.444e-4
-1.226, 1.442e-4
-1.227, 1.440e-4
-1.228, 1.447e-4
-1.229, 1.450e-4
-1.230, 1.449e-4
-1.231, 1.449e-4
-1.232, 1.447e-4
-1.233, 1.452e-4
-1.234, 1.454e-4
-1.235, 1.456e-4
-1.236, 1.459e-4
-1.237, 1.459e-4
-1.238, 1.465e-4
-1.239, 1.469e-4
-1.240, 1.473e-4
-1.241, 1.475e-4
-1.242, 1.476e-4
-1.243, 1.485e-4
-1.244, 1.490e-4
-1.245, 1.494e-4
-1.246, 1.498e-4
-1.247, 1.504e-4
-1.248, 1.510e-4
-1.249, 1.516e-4
-1.250, 1.523e-4
-1.251, 1.527e-4
-1.252, 1.534e-4
-1.253, 1.542e-4
-1.254, 1.550e-4
-1.255, 1.560e-4
-1.256, 1.563e-4
-1.257, 1.571e-4
-1.258, 1.583e-4
-1.259, 1.590e-4
-1.260, 1.601e-4
-1.261, 1.608e-4
-1.262, 1.617e-4
-1.263, 1.631e-4
-1.264, 1.639e-4
-1.265, 1.652e-4
-1.266, 1.663e-4
-1.267, 1.672e-4
-1.268, 1.690e-4
-1.269, 1.700e-4
-1.270, 1.713e-4
-1.271, 1.726e-4
-1.272, 1.736e-4
-1.273, 1.755e-4
-1.274, 1.770e-4
-1.275, 1.785e-4
-1.276, 1.800e-4
-1.277, 1.814e-4
-1.278, 1.834e-4
-1.279, 1.851e-4
-1.280, 1.871e-4
-1.281, 1.887e-4
-1.282, 1.903e-4
-1.283, 1.924e-4
-1.284, 1.945e-4
-1.285, 1.964e-4
-1.286, 1.983e-4
-1.287, 2.003e-4
-1.288, 2.026e-4
-1.289, 2.048e-4
-1.290, 2.071e-4
-1.291, 2.092e-4
-1.292, 2.116e-4
-1.293, 2.141e-4
-1.294, 2.166e-4
-1.295, 2.193e-4
-1.296, 2.214e-4
-1.297, 2.240e-4
-1.298, 2.270e-4
-1.299, 2.297e-4
-1.300, 2.327e-4
-1.301, 2.351e-4
-1.302, 2.379e-4
-1.303, 2.413e-4
-1.304, 2.442e-4
-1.305, 2.473e-4
-1.306, 2.503e-4
-1.307, 2.532e-4
-1.308, 2.570e-4
-1.309, 2.600e-4
-1.310, 2.635e-4
-1.311, 2.667e-4
-1.312, 2.699e-4
-1.313, 2.737e-4
-1.314, 2.773e-4
-1.315, 2.810e-4
-1.316, 2.845e-4
-1.317, 2.880e-4
-1.318, 2.922e-4
-1.319, 2.961e-4
-1.320, 3.001e-4
-1.321, 3.039e-4
-1.322, 3.079e-4
-1.323, 3.123e-4
-1.324, 3.166e-4
-1.325, 3.208e-4
-1.326, 3.250e-4
-1.327, 3.293e-4
-1.328, 3.338e-4
-1.329, 3.385e-4
-1.330, 3.431e-4
-1.331, 3.476e-4
-1.332, 3.523e-4
-1.333, 3.573e-4
-1.334, 3.621e-4
-1.335, 3.673e-4
-1.336, 3.719e-4
-1.337, 3.769e-4
-1.338, 3.824e-4
-1.339, 3.876e-4
-1.340, 3.930e-4
-1.341, 3.982e-4
-1.342, 4.035e-4
-1.343, 4.099e-4
-1.344, 4.153e-4
-1.345, 4.209e-4
-1.346, 4.265e-4
-1.347, 4.321e-4
-1.348, 4.386e-4
-1.349, 4.443e-4
-1.350, 4.506e-4
-1.351, 4.567e-4
-1.352, 4.625e-4
-1.353, 4.693e-4
-1.354, 4.760e-4
-1.355, 4.832e-4
-1.356, 4.891e-4
-1.357, 4.962e-4
-1.358, 5.028e-4
-1.359, 5.097e-4
-1.360, 5.165e-4
-1.361, 5.235e-4
-1.362, 5.305e-4
-1.363, 5.380e-4
-1.364, 5.453e-4
-1.365, 5.525e-4
-1.366, 5.597e-4
-1.367, 5.674e-4
-1.368, 5.753e-4
-1.369, 5.831e-4
-1.370, 5.912e-4
-1.371, 5.987e-4
-1.372, 6.070e-4
-1.373, 6.152e-4
-1.374, 6.234e-4
-1.375, 6.319e-4
-1.376, 6.401e-4
-1.377, 6.485e-4
-1.378, 6.576e-4
-1.379, 6.661e-4
-1.380, 6.751e-4
-1.381, 6.839e-4
-1.382, 6.932e-4
-1.383, 7.027e-4
-1.384, 7.117e-4
-1.385, 7.212e-4
-1.386, 7.305e-4
-1.387, 7.399e-4
-1.388, 7.501e-4
-1.389, 7.596e-4
-1.390, 7.696e-4
-1.391, 7.797e-4
-1.392, 7.894e-4
-1.393, 8.000e-4
-1.394, 8.105e-4
-1.395, 8.208e-4
-1.396, 8.315e-4
-1.397, 8.419e-4
-1.398, 8.527e-4
-1.399, 8.641e-4
-1.400, 8.319e-4
-1.399, 7.891e-4
-1.398, 7.619e-4
-1.397, 7.394e-4
-1.396, 7.182e-4
-1.395, 6.982e-4
-1.394, 6.792e-4
-1.393, 6.609e-4
-1.392, 6.441e-4
-1.391, 6.278e-4
-1.390, 6.117e-4
-1.389, 5.963e-4
-1.388, 5.811e-4
-1.387, 5.671e-4
-1.386, 5.532e-4
-1.385, 5.397e-4
-1.384, 5.270e-4
-1.383, 5.137e-4
-1.382, 5.017e-4
-1.381, 4.901e-4
-1.380, 4.785e-4
-1.379, 4.670e-4
-1.378, 4.560e-4
-1.377, 4.453e-4
-1.376, 4.354e-4
-1.375, 4.255e-4
-1.374, 4.161e-4
-1.373, 4.061e-4
-1.372, 3.966e-4
-1.371, 3.873e-4
-1.370, 3.785e-4
-1.369, 3.693e-4
-1.368, 3.609e-4
-1.367, 3.527e-4
-1.366, 3.441e-4
-1.365, 3.362e-4
-1.364, 3.284e-4
-1.363, 3.205e-4
-1.362, 3.135e-4
-1.361, 3.059e-4
-1.360, 2.991e-4
-1.359, 2.918e-4
-1.358, 2.847e-4
-1.357, 2.784e-4
-1.356, 2.717e-4
-1.355, 2.654e-4
-1.354, 2.589e-4
-1.353, 2.523e-4
-1.352, 2.466e-4
-1.351, 2.406e-4
-1.350, 2.347e-4
-1.349, 2.290e-4
-1.348, 2.231e-4
-1.347, 2.179e-4
-1.346, 2.124e-4
-1.345, 2.072e-4
-1.344, 2.020e-4
-1.343, 1.966e-4
-1.342, 1.918e-4
-1.341, 1.870e-4
-1.340, 1.821e-4
-1.339, 1.772e-4
-1.338, 1.724e-4
-1.337, 1.680e-4
-1.336, 1.637e-4
-1.335, 1.601e-4
-1.334, 1.560e-4
-1.333, 1.511e-4
-1.332, 1.468e-4
-1.331, 1.426e-4
-1.330, 1.387e-4
-1.329, 1.345e-4
-1.328, 1.307e-4
-1.327, 1.270e-4
-1.326, 1.232e-4
-1.325, 1.198e-4
-1.324, 1.160e-4
-1.323, 1.122e-4
-1.322, 1.091e-4
-1.321, 1.055e-4
-1.320, 1.024e-4
-1.319, 9.898e-5
-1.318, 9.549e-5
-1.317, 9.277e-5
-1.316, 8.954e-5
-1.315, 8.639e-5
-1.314, 8.344e-5
-1.313, 8.012e-5
-1.312, 7.780e-5
-1.311, 7.484e-5
-1.310, 7.199e-5
-1.309, 6.930e-5
-1.308, 6.617e-5
-1.307, 6.406e-5
-1.306, 6.130e-5
-1.305, 5.877e-5
-1.304, 5.625e-5
-1.303, 5.371e-5
-1.302, 5.140e-5
-1.301, 4.913e-5
-1.300, 4.697e-5
-1.299, 4.431e-5
-1.298, 4.204e-5
-1.297, 4.013e-5
-1.296, 3.789e-5
-1.295, 3.593e-5
-1.294, 3.354e-5
-1.293, 3.163e-5
-1.292, 2.974e-5
-1.291, 2.795e-5
-1.290, 2.602e-5
-1.289, 2.384e-5
-1.288, 2.193e-5
-1.287, 2.033e-5
-1.286, 1.828e-5
-1.285, 1.680e-5
-1.284, 1.491e-5
-1.283, 1.301e-5
-1.282, 1.172e-5
-1.281, 9.827e-6
-1.280, 8.161e-6
-1.279, 6.520e-6
-1.278, 4.774e-6
-1.277, 3.592e-6
-1.276, 2.040e-6
-1.275, 7.141e-7
-1.274, -9.710e-7
-1.273, -2.632e-6
-1.272, -3.650e-6
-1.271, -5.131e-6
-1.270, -6.679e-6
-1.269, -7.986e-6
-1.268, -9.538e-6
-1.267, -1.062e-5
-1.266, -1.186e-5
-1.265, -1.335e-5
-1.264, -1.453e-5
-1.263, -1.591e-5
-1.262, -1.695e-5
-1.261, -1.816e-5
-1.260, -1.922e-5
-1.259, -2.056e-5
-1.258, -2.180e-5
-1.257, -2.273e-5
-1.256, -2.374e-5
-1.255, -2.474e-5
-1.254, -2.610e-5
-1.253, -2.721e-5
-1.252, -2.792e-5
-1.251, -2.894e-5
-1.250, -2.981e-5
-1.249, -3.102e-5
-1.248, -3.201e-5
-1.247, -3.263e-5
-1.246, -3.374e-5
-1.245, -3.437e-5
-1.244, -3.555e-5
-1.243, -3.665e-5
-1.242, -3.704e-5
-1.241, -3.816e-5
-1.240, -3.876e-5
-1.239, -3.981e-5
-1.238, -4.092e-5
-1.237, -4.131e-5
-1.236, -4.236e-5
-1.235, -4.301e-5
-1.234, -4.403e-5
-1.233, -4.514e-5
-1.232, -4.535e-5
-1.231, -4.629e-5
-1.230, -4.723e-5
-1.229, -4.856e-5
-1.228, -4.921e-5
-1.227, -4.965e-5
-1.226, -5.038e-5
-1.225, -5.114e-5
-1.224, -5.196e-5
-1.223, -5.286e-5
-1.222, -5.346e-5
-1.221, -5.410e-5
-1.220, -5.492e-5
-1.219, -5.593e-5
-1.218, -5.663e-5
-1.217, -5.717e-5
-1.216, -5.777e-5
-1.215, -5.857e-5
-1.214, -5.959e-5
-1.213, -6.018e-5
-1.212, -6.068e-5
-1.211, -6.153e-5
-1.210, -6.201e-5
-1.209, -6.308e-5
-1.208, -6.374e-5
-1.207, -6.411e-5
-1.206, -6.505e-5
-1.205, -6.543e-5
-1.204, -6.632e-5
-1.203, -6.720e-5
-1.202, -6.737e-5
-1.201, -6.825e-5
-1.200, -6.870e-5
-1.199, -6.968e-5
-1.198, -7.052e-5
-1.197, -7.054e-5
-1.196, -7.126e-5
-1.195, -7.176e-5
-1.194, -7.244e-5
-1.193, -7.336e-5
-1.192, -7.347e-5
-1.191, -7.402e-5
-1.190, -7.470e-5
-1.189, -7.525e-5
-1.188, -7.586e-5
-1.187, -7.625e-5
-1.186, -7.675e-5
-1.185, -7.736e-5
-1.184, -7.779e-5
-1.183, -7.853e-5
-1.182, -7.882e-5
-1.181, -7.917e-5
-1.180, -7.973e-5
-1.179, -8.048e-5
-1.178, -8.108e-5
-1.177, -8.143e-5
-1.176, -8.177e-5
-1.175, -8.219e-5
-1.174, -8.296e-5
-1.173, -8.342e-5
-1.172, -8.364e-5
-1.171, -8.420e-5
-1.170, -8.446e-5
-1.169, -8.532e-5
-1.168, -8.577e-5
-1.167, -8.591e-5
-1.166, -8.675e-5
-1.165, -8.689e-5
-1.164, -8.762e-5
-1.163, -8.835e-5
-1.162, -8.835e-5
-1.161, -8.912e-5
-1.160, -8.940e-5
-1.159, -9.004e-5
-1.158, -9.084e-5
-1.157, -9.089e-5
-1.156, -9.161e-5
-1.155, -9.211e-5
-1.154, -9.250e-5
-1.153, -9.346e-5
-1.152, -9.361e-5
-1.151, -9.409e-5
-1.150, -9.488e-5
-1.149, -9.534e-5
-1.148, -9.617e-5
-1.147, -9.645e-5
-1.146, -9.699e-5
-1.145, -9.769e-5
-1.144, -9.827e-5
-1.143, -9.903e-5
-1.142, -9.947e-5
-1.141, -9.995e-5
-1.140, -1.006e-4
-1.139, -1.014e-4
-1.138, -1.021e-4
-1.137, -1.026e-4
-1.136, -1.032e-4
-1.135, -1.037e-4
-1.134, -1.046e-4
-1.133, -1.053e-4
-1.132, -1.058e-4
-1.131, -1.065e-4
-1.130, -1.070e-4
-1.129, -1.079e-4
-1.128, -1.086e-4
-1.127, -1.089e-4
-1.126, -1.098e-4
-1.125, -1.103e-4
-1.124, -1.112e-4
-1.123, -1.121e-4
-1.122, -1.123e-4
-1.121, -1.132e-4
-1.120, -1.135e-4
-1.119, -1.145e-4
-1.118, -1.154e-4
-1.117, -1.155e-4
-1.116, -1.163e-4
-1.115, -1.170e-4
-1.114, -1.177e-4
-1.113, -1.185e-4
-1.112, -1.187e-4
-1.111, -1.194e-4
-1.110, -1.200e-4
-1.109, -1.206e-4
-1.108, -1.214e-4
-1.107, -1.218e-4
-1.106, -1.223e-4
-1.105, -1.229e-4
-1.104, -1.233e-4
-1.103, -1.241e-4
-1.102, -1.243e-4
-1.101, -1.248e-4
-1.100, -1.252e-4
-1.099, -1.258e-4
-1.098, -1.264e-4
-1.097, -1.266e-4
-1.096, -1.268e-4
-1.095, -1.273e-4
-1.094, -1.279e-4
-1.093, -1.282e-4
-1.092, -1.283e-4
-1.091, -1.287e-4
-1.090, -1.287e-4
-1.089, -1.294e-4
-1.088, -1.297e-4
-1.087, -1.297e-4
-1.086, -1.300e-4
-1.085, -1.300e-4
-1.084, -1.303e-4
-1.083, -1.307e-4
-1.082, -1.306e-4
-1.081, -1.309e-4
-1.080, -1.308e-4
-1.079, -1.311e-4
-1.078, -1.314e-4
-1.077, -1.311e-4
-1.076, -1.313e-4
-1.075, -1.316e-4
-1.074, -1.317e-4
-1.073, -1.320e-4
-1.072, -1.315e-4
-1.071, -1.316e-4
-1.070, -1.319e-4
-1.069, -1.318e-4
-1.068, -1.320e-4
-1.067, -1.318e-4
-1.066, -1.318e-4
-1.065, -1.319e-4
-1.064, -1.319e-4
-1.063, -1.322e-4
-1.062, -1.320e-4
-1.061, -1.319e-4
-1.060, -1.320e-4
-1.059, -1.321e-4
-1.058, -1.323e-4
-1.057, -1.322e-4
-1.056, -1.321e-4
-1.055, -1.322e-4
-1.054, -1.324e-4
-1.053, -1.324e-4
-1.052, -1.322e-4
-1.051, -1.324e-4
-1.050, -1.324e-4
-1.049, -1.327e-4
-1.048, -1.327e-4
-1.047, -1.325e-4
-1.046, -1.328e-4
-1.045, -1.326e-4
-1.044, -1.328e-4
-1.043, -1.331e-4
-1.042, -1.328e-4
-1.041, -1.331e-4
-1.040, -1.329e-4
-1.039, -1.331e-4
-1.038, -1.335e-4
-1.037, -1.331e-4
-1.036, -1.333e-4
-1.035, -1.336e-4
-1.034, -1.336e-4
-1.033, -1.339e-4
-1.032, -1.337e-4
-1.031, -1.338e-4
-1.030, -1.341e-4
-1.029, -1.341e-4
-1.028, -1.345e-4
-1.027, -1.344e-4
-1.026, -1.344e-4
-1.025, -1.347e-4
-1.024, -1.350e-4
-1.023, -1.353e-4
-1.022, -1.352e-4
-1.021, -1.352e-4
-1.020, -1.357e-4
-1.019, -1.359e-4
-1.018, -1.361e-4
-1.017, -1.362e-4
-1.016, -1.362e-4
-1.015, -1.364e-4
-1.014, -1.368e-4
-1.013, -1.370e-4
-1.012, -1.370e-4
-1.011, -1.374e-4
-1.010, -1.374e-4
-1.009, -1.379e-4
-1.008, -1.380e-4
-1.007, -1.381e-4
-1.006, -1.385e-4
-1.005, -1.386e-4
-1.004, -1.390e-4
-1.003, -1.394e-4
-1.002, -1.393e-4
-1.001, -1.398e-4
-1.000, -1.065e-4
-1.001, -7.753e-5
-1.002, -6.468e-5
-1.003, -5.589e-5
-1.004, -4.918e-5
-1.005, -4.369e-5
-1.006, -3.910e-5
-1.007, -3.485e-5
-1.008, -3.113e-5
-1.009, -2.761e-5
-1.010, -2.432e-5
-1.011, -2.175e-5
-1.012, -1.903e-5
-1.013, -1.647e-5
-1.014, -1.412e-5
-1.015, -1.185e-5
-1.016, -9.997e-6
-1.017, -8.158e-6
-1.018, -6.037e-6
-1.019, -4.368e-6
-1.020, -2.551e-6
-1.021, -1.172e-6
-1.022, 1.784e-7
-1.023, 2.073e-6
-1.024, 3.503e-6
-1.025, 4.835e-6
-1.026, 6.263e-6
-1.027, 7.134e-6
-1.028, 9.004e-6
-1.029, 1.018e-5
-1.030, 1.133e-5
-1.031, 1.269e-5
-1.032, 1.347e-5
-1.033, 1.504e-5
-1.034, 1.630e-5
-1.035, 1.737e-5
-1.036, 1.859e-5
-1.037, 1.958e-5
-1.038, 2.094e-5
-1.039, 2.223e-5
-1.040, 2.311e-5
-1.041, 2.424e-5
-1.042, 2.509e-5
-1.043, 2.620e-5
-1.044, 2.735e-5
-1.045, 2.819e-5
-1.046, 2.898e-5
-1.047, 2.982e-5
-1.048, 3.074e-5
-1.049, 3.161e-5
-1.050, 3.247e-5
-1.051, 3.304e-5
-1.052, 3.380e-5
-1.053, 3.462e-5
-1.054, 3.548e-5
-1.055, 3.624e-5
-1.056, 3.673e-5
-1.057, 3.742e-5
-1.058, 3.834e-5
-1.059, 3.903e-5
-1.060, 3.983e-5
-1.061, 4.048e-5
-1.062, 4.104e-5
-1.063, 4.194e-5
-1.064, 4.277e-5
-1.065, 4.343e-5
-1.066, 4.412e-5
-1.067, 4.468e-5
-1.068, 4.587e-5
-1.069, 4.639e-5
-1.070, 4.724e-5
-1.071, 4.809e-5
-1.072, 4.846e-5
-1.073, 4.958e-5
-1.074, 5.051e-5
-1.075, 5.136e-5
-1.076, 5.218e-5
-1.077, 5.267e-5
-1.078, 5.373e-5
-1.079, 5.459e-5
-1.080, 5.518e-5
-1.081, 5.607e-5
-1.082, 5.690e-5
-1.083, 5.772e-5
-1.084, 5.866e-5
-1.085, 5.947e-5
-1.086, 6.020e-5
-1.087, 6.098e-5
-1.088, 6.180e-5
-1.089, 6.281e-5
-1.090, 6.364e-5
-1.091, 6.434e-5
-1.092, 6.511e-5
-1.093, 6.601e-5
-1.094, 6.695e-5
-1.095, 6.803e-5
-1.096, 6.861e-5
-1.097, 6.925e-5
-1.098, 7.048e-5
-1.099, 7.120e-5
-1.100, 7.224e-5
-1.101, 7.295e-5
-1.102, 7.359e-5
-1.103, 7.482e-5
-1.104, 7.557e-5
-1.105, 7.643e-5
-1.106, 7.740e-5
-1.107, 7.799e-5
-1.108, 7.920e-5
-1.109, 7.998e-5
-1.110, 8.089e-5
-1.111, 8.179e-5
-1.112, 8.248e-5
-1.113, 8.353e-5
-1.114, 8.464e-5
-1.115, 8.526e-5
-1.116, 8.624e-5
-1.117, 8.692e-5
-1.118, 8.803e-5
-1.119, 8.913e-5
-1.120, 8.966e-5
-1.121, 9.072e-5
-1.122, 9.137e-5
-1.123, 9.241e-5
-1.124, 9.351e-5
-1.125, 9.421e-5
-1.126, 9.498e-5
-1.127, 9.592e-5
-1.128, 9.681e-5
-1.129, 9.772e-5
-1.130, 9.859e-5
-1.131, 9.937e-5
-1.132, 1.001e-4
-1.133, 1.011e-4
-1.134, 1.020e-4
-1.135, 1.029e-4
-1.136, 1.034e-4
-1.137, 1.042e-4
-1.138, 1.053e-4
-1.139, 1.060e-4
-1.140, 1.068e-4
-1.141, 1.074e-4
-1.142, 1.080e-4
-1.143, 1.091e-4
-1.144, 1.097e-4
-1.145, 1.105e-4
-1.146, 1.111e-4
-1.147, 1.116e-4
-1.148, 1.124e-4
-1.149, 1.131e-4
-1.150, 1.138e-4
-1.151, 1.145e-4
-1.152, 1.148e-4
-1.153, 1.158e-4
-1.154, 1.163e-4
-1.155, 1.167e-4
-1.156, 1.173e-4
-1.157, 1.177e-4
-1.158, 1.184e-4
-1.159, 1.192e-4
-1.160, 1.195e-4
-1.161, 1.198e-4
-1.162, 1.202e-4
-1.163, 1.209e-4
-1.164, 1.214e-4
-1.165, 1.217e-4
-1.166, 1.220e-4
-1.167, 1.224e-4
-1.168, 1.227e-4
-1.169, 1.231e-4
-1.170, 1.236e-4
-1.171, 1.236e-4
-1.172, 1.238e-4
-1.173, 1.242e-4
-1.174, 1.246e-4
-1.175, 1.248e-4
-1.176, 1.249e-4
-1.177, 1.251e-4
-1.178, 1.256e-4
-1.179, 1.255e-4
-1.180, 1.257e-4
-1.181, 1.256e-4
-1.182, 1.256e-4
-1.183, 1.260e-4
-1.184, 1.260e-4
-1.185, 1.260e-4
-1.186, 1.261e-4
-1.187, 1.258e-4
-1.188, 1.262e-4
-1.189, 1.261e-4
-1.190, 1.261e-4
-1.191, 1.261e-4
-1.192, 1.257e-4
-1.193, 1.259e-4
-1.194, 1.260e-4
-1.195, 1.259e-4
-1.196, 1.257e-4
-1.197, 1.254e-4
-1.198, 1.254e-4
-1.199, 1.256e-4
-1.200, 1.253e-4
-1.201, 1.252e-4
-1.202, 1.250e-4
-1.203, 1.250e-4
-1.204, 1.250e-4
-1.205, 1.248e-4
-1.206, 1.247e-4
-1.207, 1.246e-4
-1.208, 1.245e-4
-1.209, 1.245e-4
-1.210, 1.245e-4
-1.211, 1.241e-4
-1.212, 1.242e-4
-1.213, 1.241e-4
-1.214, 1.241e-4
-1.215, 1.240e-4
-1.216, 1.239e-4
-1.217, 1.239e-4
-1.218, 1.240e-4
-1.219, 1.240e-4
-1.220, 1.242e-4
-1.221, 1.241e-4
-1.222, 1.239e-4
-1.223, 1.243e-4
-1.224, 1.243e-4
-1.225, 1.244e-4
-1.226, 1.245e-4
-1.227, 1.245e-4
-1.228, 1.251e-4
-1.229, 1.257e-4
-1.230, 1.255e-4
-1.231, 1.256e-4
-1.232, 1.256e-4
-1.233, 1.261e-4
-1.234, 1.266e-4
-1.235, 1.267e-4
-1.236, 1.270e-4
-1.237, 1.271e-4
-1.238, 1.277e-4
-1.239, 1.283e-4
-1.240, 1.285e-4
-1.241, 1.290e-4
-1.242, 1.294e-4
-1.243, 1.299e-4
-1.244, 1.306e-4
-1.245, 1.310e-4
-1.246, 1.315e-4
-1.247, 1.322e-4
-1.248, 1.327e-4
-1.249, 1.335e-4
-1.250, 1.342e-4
-1.251, 1.347e-4
-1.252, 1.355e-4
-1.253, 1.363e-4
-1.254, 1.372e-4
-1.255, 1.381e-4
-1.256, 1.386e-4
-1.257, 1.394e-4
-1.258, 1.405e-4
-1.259, 1.415e-4
-1.260, 1.425e-4
-1.261, 1.433e-4
-1.262, 1.442e-4
-1.263, 1.455e-4
-1.264, 1.465e-4
-1.265, 1.477e-4
-1.266, 1.488e-4
-1.267, 1.498e-4
-1.268, 1.512e-4
-1.269, 1.526e-4
-1.270, 1.539e-4
-1.271, 1.551e-4
-1.272, 1.563e-4
-1.273, 1.579e-4
-1.274, 1.596e-4
-1.275, 1.608e-4
-1.276, 1.624e-4
-1.277, 1.638e-4
-1.278, 1.656e-4
-1.279, 1.675e-4
-1.280, 1.693e-4
-1.281, 1.707e-4
-1.282, 1.724e-4
-1.283, 1.741e-4
-1.284, 1.764e-4
-1.285, 1.781e-4
-1.286, 1.800e-4
-1.287, 1.819e-4
-1.288, 1.839e-4
-1.289, 1.862e-4
-1.290, 1.884e-4
-1.291, 1.904e-4
-1.292, 1.925e-4
-1.293, 1.948e-4
-1.294, 1.975e-4
-1.295, 1.997e-4
-1.296, 2.018e-4
-1.297, 2.042e-4
-1.298, 2.068e-4
-1.299, 2.095e-4
-1.300, 2.120e-4
-1.301, 2.145e-4
-1.302, 2.170e-4
-1.303, 2.200e-4
-1.304, 2.228e-4
-1.305, 2.256e-4
-1.306, 2.284e-4
-1.307, 2.311e-4
-1.308, 2.344e-4
-1.309, 2.374e-4
-1.310, 2.405e-4
-1.311, 2.438e-4
-1.312, 2.468e-4
-1.313, 2.501e-4
-1.314, 2.535e-4
-1.315, 2.566e-4
-1.316, 2.600e-4
-1.317, 2.635e-4
-1.318, 2.669e-4
-1.319, 2.709e-4
-1.320, 2.743e-4
-1.321, 2.780e-4
-1.322, 2.818e-4
-1.323, 2.856e-4
-1.324, 2.898e-4
-1.325, 2.936e-4
-1.326, 2.976e-4
-1.327, 3.016e-4
-1.328, 3.058e-4
-1.329, 3.104e-4
-1.330, 3.145e-4
-1.331, 3.187e-4
-1.332, 3.231e-4
-1.333, 3.275e-4
-1.334, 3.324e-4
-1.335, 3.370e-4
-1.336, 3.415e-4
-1.337, 3.461e-4
-1.338, 3.512e-4
-1.339, 3.562e-4
-1.340, 3.612e-4
-1.341, 3.660e-4
-1.342, 3.711e-4
-1.343, 3.765e-4
-1.344, 3.819e-4
-1.345, 3.877e-4
-1.346, 3.928e-4
-1.347, 3.980e-4
-1.348, 4.037e-4
-1.349, 4.096e-4
-1.350, 4.153e-4
-1.351, 4.211e-4
-1.352, 4.267e-4
-1.353, 4.328e-4
-1.354, 4.392e-4
-1.355, 4.452e-4
-1.356, 4.516e-4
-1.357, 4.577e-4
-1.358, 4.641e-4
-1.359, 4.709e-4
-1.360, 4.772e-4
-1.361, 4.839e-4
-1.362, 4.909e-4
-1.363, 4.978e-4
-1.364, 5.049e-4
-1.365, 5.118e-4
-1.366, 5.190e-4
-1.367, 5.261e-4
-1.368, 5.333e-4
-1.369, 5.410e-4
-1.370, 5.485e-4
-1.371, 5.559e-4
-1.372, 5.635e-4
-1.373, 5.713e-4
-1.374, 5.795e-4
-1.375, 5.875e-4
-1.376, 5.952e-4
-1.377, 6.035e-4
-1.378, 6.118e-4
-1.379, 6.204e-4
-1.380, 6.290e-4
-1.381, 6.372e-4
-1.382, 6.461e-4
-1.383, 6.552e-4
-1.384, 6.640e-4
-1.385, 6.733e-4
-1.386, 6.823e-4
-1.387, 6.912e-4
-1.388, 7.009e-4
-1.389, 7.103e-4
-1.390, 7.200e-4
-1.391, 7.296e-4
-1.392, 7.391e-4
-1.393, 7.492e-4
-1.394, 7.595e-4
-1.395, 7.702e-4
-1.396, 7.800e-4
-1.397, 7.901e-4
-1.398, 8.006e-4
-1.399, 8.114e-4
-1.400, 7.799e-4
-1.399, 7.385e-4
-1.398, 7.130e-4
-1.397, 6.916e-4
-1.396, 6.720e-4
-1.395, 6.531e-4
-1.394, 6.354e-4
-1.393, 6.181e-4
-1.392, 6.024e-4
-1.391, 5.867e-4
-1.390, 5.715e-4
-1.389, 5.570e-4
-1.388, 5.431e-4
-1.387, 5.297e-4
-1.386, 5.169e-4
-1.385, 5.042e-4
-1.384, 4.923e-4
-1.383, 4.800e-4
-1.382, 4.684e-4
-1.381, 4.575e-4
-1.380, 4.465e-4
-1.379, 4.356e-4
-1.378, 4.254e-4
-1.377, 4.152e-4
-1.376, 4.064e-4
-1.375, 3.974e-4
-1.374, 3.871e-4
-1.373, 3.781e-4
-1.372, 3.691e-4
-1.371, 3.606e-4
-1.370, 3.521e-4
-1.369, 3.434e-4
-1.368, 3.355e-4
-1.367, 3.276e-4
-1.366, 3.201e-4
-1.365, 3.125e-4
-1.364, 3.049e-4
-1.363, 2.976e-4
-1.362, 2.906e-4
-1.361, 2.837e-4
-1.360, 2.772e-4
-1.359, 2.703e-4
-1.358, 2.636e-4
-1.357, 2.574e-4
-1.356, 2.513e-4
-1.355, 2.452e-4
-1.354, 2.391e-4
-1.353, 2.331e-4
-1.352, 2.279e-4
-1.351, 2.223e-4
-1.350, 2.167e-4
-1.349, 2.111e-4
-1.348, 2.059e-4
-1.347, 2.006e-4
-1.346, 1.957e-4
-1.345, 1.906e-4
-1.344, 1.856e-4
-1.343, 1.808e-4
-1.342, 1.760e-4
-1.341, 1.717e-4
-1.340, 1.670e-4
-1.339, 1.625e-4
-1.338, 1.582e-4
-1.337, 1.540e-4
-1.336, 1.500e-4
-1.335, 1.457e-4
-1.334, 1.412e-4
-1.333, 1.375e-4
-1.332, 1.335e-4
-1.331, 1.297e-4
-1.330, 1.262e-4
-1.329, 1.226e-4
-1.328, 1.190e-4
-1.327, 1.152e-4
-1.326, 1.118e-4
-1.325, 1.083e-4
-1.324, 1.047e-4
-1.323, 1.013e-4
-1.322, 9.830e-5
-1.321, 9.504e-5
-1.320, 9.207e-5
-1.319, 8.870e-5
-1.318, 8.566e-5
-1.317, 8.283e-5
-1.316, 8.010e-5
-1.315, 7.718e-5
-1.314, 7.423e-5
-1.313, 7.127e-5
-1.312, 6.887e-5
-1.311, 6.640e-5
-1.310, 6.352e-5
-1.309, 6.088e-5
-1.308, 5.831e-5
-1.307, 5.601e-5
-1.306, 5.367e-5
-1.305, 5.117e-5
-1.304, 4.879e-5
-1.303, 4.650e-5
-1.302, 4.423e-5
-1.301, 4.224e-5
-1.300, 4.009e-5
-1.299, 3.764e-5
-1.298, 3.573e-5
-1.297, 3.367e-5
-1.296, 3.188e-5
-1.295, 2.988e-5
-1.294, 2.763e-5
-1.293, 2.583e-5
-1.292, 2.415e-5
-1.291, 2.239e-5
-1.290, 2.064e-5
-1.289, 1.857e-5
-1.288, 1.703e-5
-1.287, 1.541e-5
-1.286, 1.368e-5
-1.285, 1.231e-5
-1.284, 1.033e-5
-1.283, 8.787e-6
-1.282, 7.454e-6
-1.281, 5.856e-6
-1.280, 4.291e-6
-1.279, 2.675e-6
-1.278, 1.139e-6
-1.277, 2.249e-8
-1.276, -1.301e-6
-1.275, -2.723e-6
-1.274, -4.334e-6
-1.273, -5.806e-6
-1.272, -6.795e-6
-1.271, -8.108e-6
-1.270, -9.463e-6
-1.269, -1.078e-5
-1.268, -1.222e-5
-1.267, -1.331e-5
-1.266, -1.434e-5
-1.265, -1.563e-5
-1.264, -1.700e-5
-1.263, -1.801e-5
-1.262, -1.919e-5
-1.261, -2.002e-5
-1.260, -2.115e-5
-1.259, -2.257e-5
-1.258, -2.343e-5
-1.257, -2.439e-5
-1.256, -2.516e-5
-1.255, -2.626e-5
-1.254, -2.760e-5
-1.253, -2.836e-5
-1.252, -2.909e-5
-1.251, -3.010e-5
-1.250, -3.082e-5
-1.249, -3.209e-5
-1.248, -3.281e-5
-1.247, -3.352e-5
-1.246, -3.432e-5
-1.245, -3.497e-5
-1.244, -3.630e-5
-1.243, -3.704e-5
-1.242, -3.754e-5
-1.241, -3.846e-5
-1.240, -3.909e-5
-1.239, -4.020e-5
-1.238, -4.098e-5
-1.237, -4.155e-5
-1.236, -4.226e-5
-1.235, -4.307e-5
-1.234, -4.400e-5
-1.233, -4.483e-5
-1.232, -4.520e-5
-1.231, -4.591e-5
-1.230, -4.671e-5
-1.229, -4.818e-5
-1.228, -4.860e-5
-1.227, -4.911e-5
-1.226, -4.967e-5
-1.225, -5.036e-5
-1.224, -5.118e-5
-1.223, -5.199e-5
-1.222, -5.265e-5
-1.221, -5.310e-5
-1.220, -5.380e-5
-1.219, -5.481e-5
-1.218, -5.537e-5
-1.217, -5.602e-5
-1.216, -5.645e-5
-1.215, -5.723e-5
-1.214, -5.826e-5
-1.213, -5.875e-5
-1.212, -5.922e-5
-1.211, -6.000e-5
-1.210, -6.051e-5
-1.209, -6.159e-5
-1.208, -6.187e-5
-1.207, -6.243e-5
-1.206, -6.309e-5
-1.205, -6.351e-5
-1.204, -6.450e-5
-1.203, -6.520e-5
-1.202, -6.544e-5
-1.201, -6.610e-5
-1.200, -6.649e-5
-1.199, -6.748e-5
-1.198, -6.809e-5
-1.197, -6.825e-5
-1.196, -6.886e-5
-1.195, -6.943e-5
-1.194, -7.019e-5
-1.193, -7.072e-5
-1.192, -7.090e-5
-1.191, -7.143e-5
-1.190, -7.197e-5
-1.189, -7.262e-5
-1.188, -7.304e-5
-1.187, -7.331e-5
-1.186, -7.365e-5
-1.185, -7.425e-5
-1.184, -7.483e-5
-1.183, -7.519e-5
-1.182, -7.555e-5
-1.181, -7.579e-5
-1.180, -7.617e-5
-1.179, -7.702e-5
-1.178, -7.743e-5
-1.177, -7.773e-5
-1.176, -7.789e-5
-1.175, -7.829e-5
-1.174, -7.906e-5
-1.173, -7.915e-5
-1.172, -7.951e-5
-1.171, -7.988e-5
-1.170, -8.018e-5
-1.169, -8.097e-5
-1.168, -8.112e-5
-1.167, -8.137e-5
-1.166, -8.184e-5
-1.165, -8.203e-5
-1.164, -8.298e-5
-1.163, -8.320e-5
-1.162, -8.328e-5
-1.161, -8.378e-5
-1.160, -8.401e-5
-1.159, -8.475e-5
-1.158, -8.519e-5
-1.157, -8.529e-5
-1.156, -8.572e-5
-1.155, -8.613e-5
-1.154, -8.687e-5
-1.153, -8.720e-5
-1.152, -8.730e-5
-1.151, -8.774e-5
-1.150, -8.839e-5
-1.149, -8.880e-5
-1.148, -8.926e-5
-1.147, -8.949e-5
-1.146, -8.984e-5
-1.145, -9.039e-5
-1.144, -9.104e-5
-1.143, -9.140e-5
-1.142, -9.178e-5
-1.141, -9.209e-5
-1.140, -9.269e-5
-1.139, -9.346e-5
-1.138, -9.385e-5
-1.137, -9.437e-5
-1.136, -9.446e-5
-1.135, -9.498e-5
-1.134, -9.590e-5
-1.133, -9.603e-5
-1.132, -9.661e-5
-1.131, -9.694e-5
-1.130, -9.741e-5
-1.129, -9.839e-5
-1.128, -9.857e-5
-1.127, -9.891e-5
-1.126, -9.946e-5
-1.125, -9.993e-5
-1.124, -1.008e-4
-1.123, -1.012e-4
-1.122, -1.014e-4
-1.121, -1.020e-4
-1.120, -1.024e-4
-1.119, -1.033e-4
-1.118, -1.037e-4
-1.117, -1.039e-4
-1.116, -1.044e-4
-1.115, -1.050e-4
-1.114, -1.057e-4
-1.113, -1.063e-4
-1.112, -1.062e-4
-1.111, -1.067e-4
-1.110, -1.075e-4
-1.109, -1.078e-4
-1.108, -1.084e-4
-1.107, -1.087e-4
-1.106, -1.089e-4
-1.105, -1.096e-4
-1.104, -1.101e-4
-1.103, -1.105e-4
-1.102, -1.107e-4
-1.101, -1.110e-4
-1.100, -1.115e-4
-1.099, -1.122e-4
-1.098, -1.123e-4
-1.097, -1.125e-4
-1.096, -1.127e-4
-1.095, -1.132e-4
-1.094, -1.139e-4
-1.093, -1.139e-4
-1.092, -1.141e-4
-1.091, -1.144e-4
-1.090, -1.147e-4
-1.089, -1.153e-4
-1.088, -1.153e-4
-1.087, -1.154e-4
-1.086, -1.157e-4
-1.085, -1.159e-4
-1.084, -1.164e-4
-1.083, -1.166e-4
-1.082, -1.164e-4
-1.081, -1.167e-4
-1.080, -1.170e-4
-1.079, -1.173e-4
-1.078, -1.176e-4
-1.077, -1.173e-4
-1.076, -1.177e-4
-1.075, -1.182e-4
-1.074, -1.182e-4
-1.073, -1.185e-4
-1.072, -1.182e-4
-1.071, -1.183e-4
-1.070, -1.188e-4
-1.069, -1.189e-4
-1.068, -1.191e-4
-1.067, -1.191e-4
-1.066, -1.190e-4
-1.065, -1.195e-4
-1.064, -1.196e-4
-1.063, -1.196e-4
-1.062, -1.198e-4
-1.061, -1.197e-4
-1.060, -1.201e-4
-1.059, -1.203e-4
-1.058, -1.203e-4
-1.057, -1.206e-4
-1.056, -1.204e-4
-1.055, -1.208e-4
-1.054, -1.212e-4
-1.053, -1.211e-4
-1.052, -1.210e-4
-1.051, -1.213e-4
-1.050, -1.217e-4
-1.049, -1.218e-4
-1.048, -1.219e-4
-1.047, -1.218e-4
-1.046, -1.221e-4
-1.045, -1.224e-4
-1.044, -1.226e-4
-1.043, -1.228e-4
-1.042, -1.227e-4
-1.041, -1.230e-4
-1.040, -1.233e-4
-1.039, -1.235e-4
-1.038, -1.238e-4
-1.037, -1.236e-4
-1.036, -1.239e-4
-1.035, -1.243e-4
-1.034, -1.245e-4
-1.033, -1.248e-4
-1.032, -1.247e-4
-1.031, -1.250e-4
-1.030, -1.255e-4
-1.029, -1.255e-4
-1.028, -1.259e-4
-1.027, -1.259e-4
-1.026, -1.261e-4
-1.025, -1.267e-4
-1.024, -1.269e-4
-1.023, -1.272e-4
-1.022, -1.274e-4
-1.021, -1.274e-4
-1.020, -1.280e-4
-1.019, -1.282e-4
-1.018, -1.285e-4
-1.017, -1.288e-4
-1.016, -1.287e-4
-1.015, -1.293e-4
-1.014, -1.298e-4
-1.013, -1.300e-4
-1.012, -1.302e-4
-1.011, -1.305e-4
-1.010, -1.310e-4
-1.009, -1.313e-4
-1.008, -1.316e-4
-1.007, -1.318e-4
-1.006, -1.321e-4
-1.005, -1.326e-4
-1.004, -1.330e-4
-1.003, -1.334e-4
-1.002, -1.334e-4
-1.001, -1.339e-4
